"SPL Vertical"
"On-Axis"		"10°"		"-10°"		"20°"		"-20°"		"30°"		"-30°"		"40°"		"-40°"		"50°"		"-50°"		"60°"		"-60°"		"70°"		"-70°"		"80°"		"-80°"		"90°"		"-90°"		"100°"		"-100°"		"110°"		"-110°"		"120°"		"-120°"		"130°"		"-130°"		"140°"		"-140°"		"150°"		"-150°"		"160°"		"-160°"		"170°"		"-170°"		"180°"
"Frequency / Hz"	"Sound Pressure Level / dB (re 20 µPa/V)  [2.83  V @ 1. m]"	"Frequency / Hz"	"Sound Pressure Level / dB (re 20 µPa/V)  [2.83  V @ 1. m]"	"Frequency / Hz"	"Sound Pressure Level / dB (re 20 µPa/V)  [2.83  V @ 1. m]"	"Frequency / Hz"	"Sound Pressure Level / dB (re 20 µPa/V)  [2.83  V @ 1. m]"	"Frequency / Hz"	"Sound Pressure Level / dB (re 20 µPa/V)  [2.83  V @ 1. m]"	"Frequency / Hz"	"Sound Pressure Level / dB (re 20 µPa/V)  [2.83  V @ 1. m]"	"Frequency / Hz"	"Sound Pressure Level / dB (re 20 µPa/V)  [2.83  V @ 1. m]"	"Frequency / Hz"	"Sound Pressure Level / dB (re 20 µPa/V)  [2.83  V @ 1. m]"	"Frequency / Hz"	"Sound Pressure Level / dB (re 20 µPa/V)  [2.83  V @ 1. m]"	"Frequency / Hz"	"Sound Pressure Level / dB (re 20 µPa/V)  [2.83  V @ 1. m]"	"Frequency / Hz"	"Sound Pressure Level / dB (re 20 µPa/V)  [2.83  V @ 1. m]"	"Frequency / Hz"	"Sound Pressure Level / dB (re 20 µPa/V)  [2.83  V @ 1. m]"	"Frequency / Hz"	"Sound Pressure Level / dB (re 20 µPa/V)  [2.83  V @ 1. m]"	"Frequency / Hz"	"Sound Pressure Level / dB (re 20 µPa/V)  [2.83  V @ 1. m]"	"Frequency / Hz"	"Sound Pressure Level / dB (re 20 µPa/V)  [2.83  V @ 1. m]"	"Frequency / Hz"	"Sound Pressure Level / dB (re 20 µPa/V)  [2.83  V @ 1. m]"	"Frequency / Hz"	"Sound Pressure Level / dB (re 20 µPa/V)  [2.83  V @ 1. m]"	"Frequency / Hz"	"Sound Pressure Level / dB (re 20 µPa/V)  [2.83  V @ 1. m]"	"Frequency / Hz"	"Sound Pressure Level / dB (re 20 µPa/V)  [2.83  V @ 1. m]"	"Frequency / Hz"	"Sound Pressure Level / dB (re 20 µPa/V)  [2.83  V @ 1. m]"	"Frequency / Hz"	"Sound Pressure Level / dB (re 20 µPa/V)  [2.83  V @ 1. m]"	"Frequency / Hz"	"Sound Pressure Level / dB (re 20 µPa/V)  [2.83  V @ 1. m]"	"Frequency / Hz"	"Sound Pressure Level / dB (re 20 µPa/V)  [2.83  V @ 1. m]"	"Frequency / Hz"	"Sound Pressure Level / dB (re 20 µPa/V)  [2.83  V @ 1. m]"	"Frequency / Hz"	"Sound Pressure Level / dB (re 20 µPa/V)  [2.83  V @ 1. m]"	"Frequency / Hz"	"Sound Pressure Level / dB (re 20 µPa/V)  [2.83  V @ 1. m]"	"Frequency / Hz"	"Sound Pressure Level / dB (re 20 µPa/V)  [2.83  V @ 1. m]"	"Frequency / Hz"	"Sound Pressure Level / dB (re 20 µPa/V)  [2.83  V @ 1. m]"	"Frequency / Hz"	"Sound Pressure Level / dB (re 20 µPa/V)  [2.83  V @ 1. m]"	"Frequency / Hz"	"Sound Pressure Level / dB (re 20 µPa/V)  [2.83  V @ 1. m]"	"Frequency / Hz"	"Sound Pressure Level / dB (re 20 µPa/V)  [2.83  V @ 1. m]"	"Frequency / Hz"	"Sound Pressure Level / dB (re 20 µPa/V)  [2.83  V @ 1. m]"	"Frequency / Hz"	"Sound Pressure Level / dB (re 20 µPa/V)  [2.83  V @ 1. m]"	"Frequency / Hz"	"Sound Pressure Level / dB (re 20 µPa/V)  [2.83  V @ 1. m]"	"Frequency / Hz"	"Sound Pressure Level / dB (re 20 µPa/V)  [2.83  V @ 1. m]"	"Frequency / Hz"	"Sound Pressure Level / dB (re 20 µPa/V)  [2.83  V @ 1. m]"
20.5078	60.6663	20.5078	60.4491	20.5078	60.9139	20.5078	60.2657	20.5078	61.1851	20.5078	60.1164	20.5078	61.47	20.5078	59.999	20.5078	61.7564	20.5078	59.9096	20.5078	62.03	20.5078	59.844	20.5078	62.276	20.5078	59.7987	20.5078	62.4805	20.5078	59.7718	20.5078	62.6316	20.5078	59.7634	20.5078	62.7209	20.5078	59.7758	20.5078	62.7441	20.5078	59.8135	20.5078	62.7008	20.5078	59.8816	20.5078	62.5944	20.5078	59.9856	20.5078	62.4307	20.5078	60.1298	20.5078	62.2177	20.5078	60.3161	20.5078	61.9653	20.5078	60.5428	20.5078	61.6845	20.5078	60.804	20.5078	61.3882	20.5078	61.09
21.9727	56.8388	21.9727	56.7355	21.9727	57.0098	21.9727	56.6984	21.9727	57.2431	21.9727	56.7193	21.9727	57.5262	21.9727	56.7851	21.9727	57.8405	21.9727	56.8806	21.9727	58.163	21.9727	56.991	21.9727	58.468	21.9727	57.1038	21.9727	58.7304	21.9727	57.2098	21.9727	58.9296	21.9727	57.3035	21.9727	59.0519	21.9727	57.3828	21.9727	59.0932	21.9727	57.4485	21.9727	59.0583	21.9727	57.504	21.9727	58.9598	21.9727	57.5546	21.9727	58.8149	21.9727	57.6068	21.9727	58.6421	21.9727	57.6679	21.9727	58.4585	21.9727	57.7447	21.9727	58.278	21.9727	57.8426	21.9727	58.1111	21.9727	57.9648
23.4375	59.8128	23.4375	59.5849	23.4375	60.1087	23.4375	59.4194	23.4375	60.47	23.4375	59.306	23.4375	60.8839	23.4375	59.2327	23.4375	61.3271	23.4375	59.1885	23.4375	61.7693	23.4375	59.1641	23.4375	62.178	23.4375	59.1532	23.4375	62.5231	23.4375	59.1524	23.4375	62.7815	23.4375	59.1618	23.4375	62.9383	23.4375	59.185	23.4375	62.9877	23.4375	59.2285	23.4375	62.9323	23.4375	59.3014	23.4375	62.7812	23.4375	59.414	23.4375	62.548	23.4375	59.5755	23.4375	62.2491	23.4375	59.7922	23.4375	61.9019	23.4375	60.0647	23.4375	61.5241	23.4375	60.3874	23.4375	61.1337	23.4375	60.749
24.9023	64.4817	24.9023	64.1097	24.9023	64.8872	24.9023	63.7818	24.9023	65.3113	24.9023	63.5046	24.9023	65.7366	24.9023	63.2804	24.9023	66.1433	24.9023	63.1085	24.9023	66.5116	24.9023	62.9858	24.9023	66.8225	24.9023	62.9086	24.9023	67.0599	24.9023	62.8736	24.9023	67.2115	24.9023	62.8785	24.9023	67.2702	24.9023	62.9228	24.9023	67.2348	24.9023	63.0073	24.9023	67.1098	24.9023	63.1338	24.9023	66.9044	24.9023	63.304	24.9023	66.6316	24.9023	63.5193	24.9023	66.3064	24.9023	63.779	24.9023	65.9442	24.9023	64.0806	24.9023	65.5605	24.9023	64.4185	24.9023	65.1696	24.9023	64.7849
26.3672	66.0288	26.3672	65.6909	26.3672	66.4057	26.3672	65.3995	26.3672	66.8088	26.3672	65.1575	26.3672	67.2212	26.3672	64.9641	26.3672	67.6226	26.3672	64.8155	26.3672	67.9917	26.3672	64.7075	26.3672	68.3074	26.3672	64.6359	26.3672	68.5516	26.3672	64.5978	26.3672	68.7103	26.3672	64.592	26.3672	68.7753	26.3672	64.6192	26.3672	68.7447	26.3672	64.6816	26.3672	68.6227	26.3672	64.7826	26.3672	68.4188	26.3672	64.9258	26.3672	68.1464	26.3672	65.1143	26.3672	67.8207	26.3672	65.3496	26.3672	67.4583	26.3672	65.6305	26.3672	67.0752	26.3672	65.9528	26.3672	66.687	26.3672	66.3085
27.832	69.3367	27.832	68.993	27.832	69.7051	27.832	68.6829	27.832	70.086	27.832	68.4116	27.832	70.4639	27.832	68.1814	27.832	70.8213	27.832	67.9921	27.832	71.1398	27.832	67.8426	27.832	71.4018	27.832	67.7309	27.832	71.5919	27.832	67.6559	27.832	71.6986	27.832	67.6167	27.832	71.715	27.832	67.6139	27.832	71.6403	27.832	67.6487	27.832	71.4793	27.832	67.7234	27.832	71.242	27.832	67.8404	27.832	70.9426	27.832	68.0021	27.832	70.5973	27.832	68.2099	27.832	70.2236	27.832	68.4633	27.832	69.8383	27.832	68.7598	27.832	69.4572	27.832	69.0939
29.2969	71.0552	29.2969	70.7102	29.2969	71.4209	29.2969	70.3946	29.2969	71.7954	29.2969	70.1145	29.2969	72.1641	29.2969	69.8728	29.2969	72.5107	29.2969	69.6705	29.2969	72.8179	29.2969	69.5071	29.2969	73.0687	29.2969	69.3813	29.2969	73.2478	29.2969	69.2918	29.2969	73.3436	29.2969	69.2378	29.2969	73.3488	29.2969	69.2193	29.2969	73.2617	29.2969	69.2374	29.2969	73.0866	29.2969	69.2942	29.2969	72.833	29.2969	69.3925	29.2969	72.5149	29.2969	69.5355	29.2969	72.1495	29.2969	69.7262	29.2969	71.7555	29.2969	69.9661	29.2969	71.3523	29.2969	70.2547	29.2969	70.9579	29.2969	70.588
30.7617	74.2712	30.7617	73.9544	30.7617	74.6042	30.7617	73.6612	30.7617	74.9432	30.7617	73.3968	30.7617	75.2755	30.7617	73.1639	30.7617	75.5865	30.7617	72.9641	30.7617	75.8604	30.7617	72.7979	30.7617	76.082	30.7617	72.6654	30.7617	76.2374	30.7617	72.5665	30.7617	76.3161	30.7617	72.5016	30.7617	76.3116	30.7617	72.4718	30.7617	76.2228	30.7617	72.4784	30.7617	76.0535	30.7617	72.5236	30.7617	75.8127	30.7617	72.6098	30.7617	75.513	30.7617	72.7396	30.7617	75.1704	30.7617	72.9152	30.7617	74.8022	30.7617	73.1374	30.7617	74.4262	30.7617	73.4053	30.7617	74.059	30.7617	73.715
32.2266	76.2015	32.2266	75.9049	32.2266	76.5116	32.2266	75.629	32.2266	76.8252	32.2266	75.3788	32.2266	77.1306	32.2266	75.1573	32.2266	77.4139	32.2266	74.9661	32.2266	77.6607	32.2266	74.8057	32.2266	77.8566	32.2266	74.6763	32.2266	77.9889	32.2266	74.578	32.2266	78.048	32.2266	74.511	32.2266	78.0282	32.2266	74.4761	32.2266	77.929	32.2266	74.4747	32.2266	77.7551	32.2266	74.5085	32.2266	77.5162	32.2266	74.5799	32.2266	77.2254	32.2266	74.691	32.2266	76.8987	32.2266	74.8439	32.2266	76.5528	32.2266	75.0397	32.2266	76.2042	32.2266	75.278	32.2266	75.8678	32.2266	75.556
33.6914	78.3797	33.6914	78.1041	33.6914	78.667	33.6914	77.8472	33.6914	78.9571	33.6914	77.6137	33.6914	79.2389	33.6914	77.4069	33.6914	79.4996	33.6914	77.2284	33.6914	79.7259	33.6914	77.0793	33.6914	79.9044	33.6914	76.96	33.6914	80.0233	33.6914	76.8705	33.6914	80.0737	33.6914	76.8113	33.6914	80.0507	33.6914	76.7827	33.6914	79.9544	33.6914	76.7856	33.6914	79.7897	33.6914	76.8211	33.6914	79.5664	33.6914	76.8906	33.6914	79.2973	33.6914	76.9956	33.6914	78.9975	33.6914	77.1372	33.6914	78.6825	33.6914	77.3163	33.6914	78.3669	33.6914	77.5322	33.6914	78.0636	33.6914	77.7829
35.1562	80.438	35.1562	80.1735	35.1562	80.712	35.1562	79.9253	35.1562	80.9868	35.1562	79.6982	35.1562	81.2518	35.1562	79.4956	35.1562	81.495	35.1562	79.3198	35.1562	81.7038	35.1562	79.1718	35.1562	81.8658	35.1562	79.0524	35.1562	81.9701	35.1562	78.9621	35.1562	82.0085	35.1562	78.9012	35.1562	81.9769	35.1562	78.8701	35.1562	81.8757	35.1562	78.8694	35.1562	81.71	35.1562	78.8999	35.1562	81.4896	35.1562	78.9625	35.1562	81.2272	35.1562	79.0584	35.1562	80.9375	35.1562	79.1886	35.1562	80.6356	35.1562	79.3537	35.1562	80.3356	35.1562	79.5536	35.1562	80.0496	35.1562	79.7868
36.6211	82.2852	36.6211	82.0258	36.6211	82.5519	36.6211	81.7804	36.6211	82.8175	36.6211	81.554	36.6211	83.0717	36.6211	81.3501	36.6211	83.3031	36.6211	81.1711	36.6211	83.4997	36.6211	81.0186	36.6211	83.6497	36.6211	80.8935	36.6211	83.743	36.6211	80.7967	36.6211	83.7718	36.6211	80.7287	36.6211	83.7323	36.6211	80.6902	36.6211	83.6253	36.6211	80.6819	36.6211	83.4562	36.6211	80.7048	36.6211	83.2343	36.6211	80.7599	36.6211	82.9724	36.6211	80.8484	36.6211	82.6848	36.6211	80.9715	36.6211	82.3861	36.6211	81.13	36.6211	82.0902	36.6211	81.3237	36.6211	81.8089	36.6211	81.5513
38.0859	84.1334	38.0859	83.8848	38.0859	84.3871	38.0859	83.6477	38.0859	84.6381	38.0859	83.4268	38.0859	84.8768	38.0859	83.2258	38.0859	85.0926	38.0859	83.047	38.0859	85.2743	38.0859	82.8924	38.0859	85.4109	38.0859	82.7632	38.0859	85.4928	38.0859	82.6604	38.0859	85.5128	38.0859	82.585	38.0859	85.4673	38.0859	82.5378	38.0859	85.3572	38.0859	82.52	38.0859	85.1875	38.0859	82.5327	38.0859	84.9674	38.0859	82.5773	38.0859	84.7091	38.0859	82.6554	38.0859	84.4265	38.0859	82.7683	38.0859	84.1338	38.0859	82.9171	38.0859	83.8446	38.0859	83.1017	38.0859	83.5706	38.0859	83.3208
39.5508	85.8731	39.5508	85.6332	39.5508	86.1165	39.5508	85.4032	39.5508	86.3557	39.5508	85.188	39.5508	86.5818	39.5508	84.9913	39.5508	86.785	39.5508	84.816	39.5508	86.9549	39.5508	84.6642	39.5508	87.0814	39.5508	84.5374	39.5508	87.156	39.5508	84.4367	39.5508	87.172	39.5508	84.3632	39.5508	87.1266	39.5508	84.3178	39.5508	87.0205	39.5508	84.3015	39.5508	86.8586	39.5508	84.3153	39.5508	86.6497	39.5508	84.3603	39.5508	86.4048	39.5508	84.4378	39.5508	86.137	39.5508	84.5487	39.5508	85.8593	39.5508	84.6938	39.5508	85.5843	39.5508	84.8727	39.5508	85.3229	39.5508	85.0836
41.0156	87.3912	41.0156	87.1526	41.0156	87.6308	41.0156	86.9213	41.0156	87.8641	41.0156	86.7023	41.0156	88.0827	41.0156	86.4994	41.0156	88.2773	41.0156	86.3158	41.0156	88.4383	41.0156	86.1541	41.0156	88.5564	41.0156	86.0163	41.0156	88.6233	41.0156	85.9041	41.0156	88.6333	41.0156	85.8191	41.0156	88.5834	41.0156	85.7628	41.0156	88.4744	41.0156	85.7366	41.0156	88.311	41.0156	85.7423	41.0156	88.1011	41.0156	85.7813	41.0156	87.8551	41.0156	85.8552	41.0156	87.5853	41.0156	85.9653	41.0156	87.3043	41.0156	86.1121	41.0156	87.0245	41.0156	86.295	41.0156	86.7571	41.0156	86.5116
42.4805	88.8285	42.4805	88.6395	42.4805	89.0223	42.4805	88.4601	42.4805	89.2145	42.4805	88.2946	42.4805	89.398	42.4805	88.146	42.4805	89.5645	42.4805	88.0167	42.4805	89.7057	42.4805	87.9085	42.4805	89.8132	42.4805	87.8226	42.4805	89.8799	42.4805	87.7598	42.4805	89.9011	42.4805	87.7208	42.4805	89.8747	42.4805	87.7058	42.4805	89.8023	42.4805	87.7149	42.4805	89.6884	42.4805	87.748	42.4805	89.5406	42.4805	87.8047	42.4805	89.3675	42.4805	87.8848	42.4805	89.1783	42.4805	87.9874	42.4805	88.9819	42.4805	88.1115	42.4805	88.7858	42.4805	88.2559	42.4805	88.5963	42.4805	88.4184
43.9453	89.8266	43.9453	89.6253	43.9453	90.0286	43.9453	89.4302	43.9453	90.2244	43.9453	89.2459	43.9453	90.4066	43.9453	89.076	43.9453	90.5668	43.9453	88.9236	43.9453	90.6965	43.9453	88.7908	43.9453	90.7875	43.9453	88.6795	43.9453	90.8331	43.9453	88.5909	43.9453	90.8288	43.9453	88.5261	43.9453	90.7733	43.9453	88.4857	43.9453	90.6687	43.9453	88.4703	43.9453	90.5208	43.9453	88.4801	43.9453	90.3381	43.9453	88.5155	43.9453	90.131	43.9453	88.5768	43.9453	89.9105	43.9453	88.6641	43.9453	89.6869	43.9453	88.7773	43.9453	89.4692	43.9453	88.9161	43.9453	89.2649	43.9453	89.0794
45.4102	90.7957	45.4102	90.5992	45.4102	90.9916	45.4102	90.4079	45.4102	91.1804	45.4102	90.2266	45.4102	91.3546	45.4102	90.0592	45.4102	91.5064	45.4102	89.9091	45.4102	91.6277	45.4102	89.7787	45.4102	91.711	45.4102	89.6698	45.4102	91.7499	45.4102	89.5838	45.4102	91.7405	45.4102	89.5215	45.4102	91.6818	45.4102	89.4834	45.4102	91.576	45.4102	89.4696	45.4102	91.4292	45.4102	89.4802	45.4102	91.2499	45.4102	89.515	45.4102	91.0485	45.4102	89.5738	45.4102	90.8356	45.4102	89.6566	45.4102	90.6214	45.4102	89.7633	45.4102	90.4144	45.4102	89.8936	45.4102	90.2213	45.4102	90.0468
46.875	91.694	46.875	91.5015	46.875	91.8854	46.875	91.3135	46.875	92.0693	46.875	91.1349	46.875	92.2385	46.875	90.9696	46.875	92.3854	46.875	90.8208	46.875	92.502	46.875	90.691	46.875	92.5812	46.875	90.5822	46.875	92.6171	46.875	90.4957	46.875	92.6059	46.875	90.4325	46.875	92.5468	46.875	90.3932	46.875	92.4422	46.875	90.3779	46.875	92.2978	46.875	90.3867	46.875	92.122	46.875	90.4196	46.875	91.9246	46.875	90.4764	46.875	91.7158	46.875	90.557	46.875	91.5055	46.875	90.6614	46.875	91.302	46.875	90.7894	46.875	91.112	46.875	90.9401
48.3398	92.4164	48.3398	92.2261	48.3398	92.6047	48.3398	92.0394	48.3398	92.7844	48.3398	91.8612	48.3398	92.9484	48.3398	91.6956	48.3398	93.0891	48.3398	91.5461	48.3398	93.1992	48.3398	91.4155	48.3398	93.2717	48.3398	91.3057	48.3398	93.3013	48.3398	91.2186	48.3398	93.2847	48.3398	91.1549	48.3398	93.2217	48.3398	91.1155	48.3398	93.1152	48.3398	91.1006	48.3398	92.9712	48.3398	91.11	48.3398	92.798	48.3398	91.1435	48.3398	92.6054	48.3398	91.2008	48.3398	92.4031	48.3398	91.2812	48.3398	92.2003	48.3398	91.3843	48.3398	92.0046	48.3398	91.5096	48.3398	91.8218	48.3398	91.6559
51.2695	93.6468	51.2695	93.4613	51.2695	93.8242	51.2695	93.2737	51.2695	93.9874	51.2695	93.0896	51.2695	94.13	51.2695	92.914	51.2695	94.2456	51.2695	92.7515	51.2695	94.3283	51.2695	92.6059	51.2695	94.3728	51.2695	92.4804	51.2695	94.3751	51.2695	92.3775	51.2695	94.3335	51.2695	92.2987	51.2695	94.2488	51.2695	92.2452	51.2695	94.1247	51.2695	92.2172	51.2695	93.968	51.2695	92.2145	51.2695	93.7874	51.2695	92.2367	51.2695	93.5926	51.2695	92.2828	51.2695	93.3931	51.2695	92.3519	51.2695	93.1973	51.2695	92.4431	51.2695	93.0119	51.2695	92.5557	51.2695	92.8414	51.2695	92.6888
52.7344	94.0642	52.7344	93.8886	52.7344	94.2317	52.7344	93.7103	52.7344	94.3855	52.7344	93.534	52.7344	94.5199	52.7344	93.3645	52.7344	94.6289	52.7344	93.2061	52.7344	94.7067	52.7344	93.0625	52.7344	94.748	52.7344	92.937	52.7344	94.7489	52.7344	92.8324	52.7344	94.7074	52.7344	92.7506	52.7344	94.6239	52.7344	92.6928	52.7344	94.5022	52.7344	92.6597	52.7344	94.3485	52.7344	92.6514	52.7344	94.1711	52.7344	92.6676	52.7344	93.9797	52.7344	92.7076	52.7344	93.7835	52.7344	92.7708	52.7344	93.591	52.7344	92.8565	52.7344	93.4088	52.7344	92.9641	52.7344	93.2417	52.7344	93.0928
54.1992	94.4524	54.1992	94.2773	54.1992	94.6206	54.1992	94.1007	54.1992	94.776	54.1992	93.9274	54.1992	94.9124	54.1992	93.7615	54.1992	95.0232	54.1992	93.6068	54.1992	95.1021	54.1992	93.4665	54.1992	95.1433	54.1992	93.3435	54.1992	95.1428	54.1992	93.2399	54.1992	95.0983	54.1992	93.1576	54.1992	95.0107	54.1992	93.0978	54.1992	94.8836	54.1992	93.0613	54.1992	94.7239	54.1992	93.0485	54.1992	94.5405	54.1992	93.0592	54.1992	94.3435	54.1992	93.0933	54.1992	94.1432	54.1992	93.1502	54.1992	93.9484	54.1992	93.2298	54.1992	93.7659	54.1992	93.3316	54.1992	93.6007	54.1992	93.4555
55.6641	94.696	55.6641	94.5259	55.6641	94.8591	55.6641	94.3541	55.6641	95.0093	55.6641	94.1855	55.6641	95.1404	55.6641	94.0243	55.6641	95.2464	55.6641	93.8745	55.6641	95.3214	55.6641	93.7392	55.6641	95.3606	55.6641	93.6211	55.6641	95.3604	55.6641	93.5225	55.6641	95.3197	55.6641	93.4451	55.6641	95.2394	55.6641	93.3901	55.6641	95.1235	55.6641	93.3583	55.6641	94.9779	55.6641	93.3499	55.6641	94.8104	55.6641	93.365	55.6641	94.6295	55.6641	93.4035	55.6641	94.4436	55.6641	93.4648	55.6641	94.2602	55.6641	93.5484	55.6641	94.0854	55.6641	93.6535	55.6641	93.9239	55.6641	93.7792
58.5938	95.1243	58.5938	94.9537	58.5938	95.287	58.5938	94.781	58.5938	95.4357	58.5938	94.6116	58.5938	95.564	58.5938	94.4502	58.5938	95.6661	58.5938	94.3012	58.5938	95.7362	58.5938	94.1681	58.5938	95.7701	58.5938	94.0538	58.5938	95.765	58.5938	93.9605	58.5938	95.7201	58.5938	93.8897	58.5938	95.6374	58.5938	93.8422	58.5938	95.5212	58.5938	93.8181	58.5938	95.3779	58.5938	93.8172	58.5938	95.2154	58.5938	93.8385	58.5938	95.0419	58.5938	93.8812	58.5938	94.8655	58.5938	93.944	58.5938	94.693	58.5938	94.026	58.5938	94.5297	58.5938	94.1265	58.5938	94.3794	58.5938	94.2445
60.0586	95.3014	60.0586	95.1367	60.0586	95.4569	60.0586	94.9685	60.0586	95.5972	60.0586	94.8023	60.0586	95.7164	60.0586	94.643	60.0586	95.8088	60.0586	94.495	60.0586	95.8695	60.0586	94.3622	60.0586	95.8947	60.0586	94.2474	60.0586	95.882	60.0586	94.153	60.0586	95.8315	60.0586	94.0805	60.0586	95.7451	60.0586	94.0307	60.0586	95.6274	60.0586	94.0038	60.0586	95.4848	60.0586	93.9993	60.0586	95.325	60.0586	94.0164	60.0586	95.1559	60.0586	94.0541	60.0586	94.9851	60.0586	94.1113	60.0586	94.8191	60.0586	94.1872	60.0586	94.6628	60.0586	94.281	60.0586	94.5198	60.0586	94.3921
62.9883	95.4165	62.9883	95.2539	62.9883	95.5689	62.9883	95.0869	62.9883	95.705	62.9883	94.9212	62.9883	95.8193	62.9883	94.7623	62.9883	95.9065	62.9883	94.6151	62.9883	95.9622	62.9883	94.4838	62.9883	95.9834	62.9883	94.3719	62.9883	95.9684	62.9883	94.2819	62.9883	95.9179	62.9883	94.2155	62.9883	95.8344	62.9883	94.1733	62.9883	95.723	62.9883	94.1552	62.9883	95.5898	62.9883	94.1601	62.9883	95.4422	62.9883	94.1866	62.9883	95.2874	62.9883	94.2329	62.9883	95.1316	62.9883	94.2971	62.9883	94.98	62.9883	94.3774	62.9883	94.8363	62.9883	94.4725	62.9883	94.7029	62.9883	94.5813
64.4531	95.4361	64.4531	95.274	64.4531	95.5868	64.4531	95.1064	64.4531	95.7201	64.4531	94.9391	64.4531	95.8303	64.4531	94.7777	64.4531	95.9125	64.4531	94.6272	64.4531	95.9625	64.4531	94.4921	64.4531	95.9773	64.4531	94.3759	64.4531	95.9559	64.4531	94.2815	64.4531	95.8989	64.4531	94.2107	64.4531	95.8096	64.4531	94.1644	64.4531	95.693	64.4531	94.1426	64.4531	95.5559	64.4531	94.1443	64.4531	95.4058	64.4531	94.1681	64.4531	95.2499	64.4531	94.2121	64.4531	95.0944	64.4531	94.2743	64.4531	94.9441	64.4531	94.3527	64.4531	94.8025	64.4531	94.4458	64.4531	94.6715	64.4531	94.5523
67.3828	95.4606	67.3828	95.299	67.3828	95.6104	67.3828	95.1314	67.3828	95.7425	67.3828	94.964	67.3828	95.8514	67.3828	94.8025	67.3828	95.9323	67.3828	94.6524	67.3828	95.9814	67.3828	94.5183	67.3828	95.9962	67.3828	94.4042	67.3828	95.9759	67.3828	94.313	67.3828	95.9215	67.3828	94.2466	67.3828	95.8365	67.3828	94.2057	67.3828	95.7259	67.3828	94.1899	67.3828	95.5961	67.3828	94.1982	67.3828	95.4541	67.3828	94.2286	67.3828	95.3064	67.3828	94.2788	67.3828	95.1586	67.3828	94.3463	67.3828	95.015	67.3828	94.4289	67.3828	94.8782	67.3828	94.5246	67.3828	94.7503	67.3828	94.6321
68.8477	95.4749	68.8477	95.313	68.8477	95.6241	68.8477	95.1445	68.8477	95.7549	68.8477	94.9756	68.8477	95.8619	68.8477	94.8122	68.8477	95.9404	68.8477	94.66	68.8477	95.9868	68.8477	94.5239	68.8477	95.9989	68.8477	94.4081	68.8477	95.9762	68.8477	94.316	68.8477	95.9202	68.8477	94.2497	68.8477	95.8346	68.8477	94.2099	68.8477	95.7248	68.8477	94.1965	68.8477	95.5973	68.8477	94.208	68.8477	95.4588	68.8477	94.2422	68.8477	95.3156	68.8477	94.2964	68.8477	95.1727	68.8477	94.3677	68.8477	95.0337	68.8477	94.4533	68.8477	94.901	68.8477	94.5509	68.8477	94.7757	68.8477	94.6588
71.7773	95.6218	71.7773	95.4636	71.7773	95.7645	71.7773	95.2957	71.7773	95.8859	71.7773	95.1245	71.7773	95.9808	71.7773	94.956	71.7773	96.0451	71.7773	94.7961	71.7773	96.0756	71.7773	94.6502	71.7773	96.0707	71.7773	94.523	71.7773	96.0308	71.7773	94.4184	71.7773	95.9581	71.7773	94.3391	71.7773	95.8572	71.7773	94.2865	71.7773	95.7341	71.7773	94.2608	71.7773	95.5961	71.7773	94.2612	71.7773	95.4504	71.7773	94.2855	71.7773	95.3034	71.7773	94.331	71.7773	95.16	71.7773	94.3946	71.7773	95.0233	71.7773	94.473	71.7773	94.895	71.7773	94.5638	71.7773	94.7755	71.7773	94.6649
74.707	95.6723	74.707	95.5196	74.707	95.8082	74.707	95.3559	74.707	95.9217	74.707	95.1872	74.707	96.0081	74.707	95.0197	74.707	96.0634	74.707	94.8592	74.707	96.085	74.707	94.711	74.707	96.0715	74.707	94.5798	74.707	96.0237	74.707	94.4695	74.707	95.9441	74.707	94.3828	74.707	95.8372	74.707	94.3213	74.707	95.7091	74.707	94.2855	74.707	95.5668	74.707	94.2748	74.707	95.4173	74.707	94.2875	74.707	95.2666	74.707	94.3214	74.707	95.1197	74.707	94.3742	74.707	94.9802	74.707	94.4433	74.707	94.8502	74.707	94.5266	74.707	94.7309	74.707	94.6228
77.6367	95.6684	77.6367	95.515	77.6367	95.8046	77.6367	95.3504	77.6367	95.9179	77.6367	95.181	77.6367	96.0038	77.6367	95.0132	77.6367	96.0585	77.6367	94.8534	77.6367	96.0797	77.6367	94.7072	77.6367	96.0667	77.6367	94.5799	77.6367	96.0206	77.6367	94.4753	77.6367	95.9447	77.6367	94.3964	77.6367	95.8438	77.6367	94.3443	77.6367	95.7241	77.6367	94.3193	77.6367	95.5923	77.6367	94.3198	77.6367	95.4549	77.6367	94.3438	77.6367	95.317	77.6367	94.3882	77.6367	95.1824	77.6367	94.4499	77.6367	95.0534	77.6367	94.5258	77.6367	94.9315	77.6367	94.6135	77.6367	94.8172	77.6367	94.711
79.1016	95.6621	79.1016	95.5082	79.1016	95.7979	79.1016	95.3424	79.1016	95.9102	79.1016	95.1713	79.1016	95.9941	79.1016	95.0015	79.1016	96.0462	79.1016	94.8396	79.1016	96.0643	79.1016	94.6917	79.1016	96.0479	79.1016	94.563	79.1016	95.9987	79.1016	94.4579	79.1016	95.9202	79.1016	94.3793	79.1016	95.8178	79.1016	94.3287	79.1016	95.698	79.1016	94.3061	79.1016	95.5677	79.1016	94.31	79.1016	95.4334	79.1016	94.3378	79.1016	95.3	79.1016	94.3862	79.1016	95.1708	79.1016	94.4515	79.1016	95.0474	79.1016	94.5301	79.1016	94.9305	79.1016	94.619	79.1016	94.8201	79.1016	94.7161
82.0312	95.6212	82.0312	95.4703	82.0312	95.7518	82.0312	95.3051	82.0312	95.8567	82.0312	95.1325	82.0312	95.9316	82.0312	94.9592	82.0312	95.9735	82.0312	94.7923	82.0312	95.9809	82.0312	94.6383	82.0312	95.954	82.0312	94.5032	82.0312	95.8952	82.0312	94.3919	82.0312	95.8089	82.0312	94.3081	82.0312	95.701	82.0312	94.2535	82.0312	95.5785	82.0312	94.2283	82.0312	95.4483	82.0312	94.2312	82.0312	95.3165	82.0312	94.2591	82.0312	95.1877	82.0312	94.3081	82.0312	95.0644	82.0312	94.3739	82.0312	94.9477	82.0312	94.4522	82.0312	94.8374	82.0312	94.5396	82.0312	94.7329	82.0312	94.6336
84.9609	95.5518	84.9609	95.403	84.9609	95.6803	84.9609	95.2398	84.9609	95.7831	84.9609	95.0691	84.9609	95.8563	84.9609	94.8978	84.9609	95.8972	84.9609	94.7331	84.9609	95.9046	84.9609	94.5818	84.9609	95.8793	84.9609	94.4497	84.9609	95.8239	84.9609	94.342	84.9609	95.743	84.9609	94.262	84.9609	95.6426	84.9609	94.2118	84.9609	95.5294	84.9609	94.1913	84.9609	95.4099	84.9609	94.1991	84.9609	95.2892	84.9609	94.2321	84.9609	95.1708	84.9609	94.2864	84.9609	95.056	84.9609	94.3576	84.9609	94.9452	84.9609	94.4412	84.9609	94.8377	84.9609	94.5335	84.9609	94.7331	84.9609	94.6314
87.8906	95.5927	87.8906	95.4389	87.8906	95.7245	87.8906	95.2693	87.8906	95.8289	87.8906	95.0909	87.8906	95.9015	87.8906	94.9108	87.8906	95.9393	87.8906	94.7364	87.8906	95.9408	87.8906	94.5749	87.8906	95.9068	87.8906	94.4329	87.8906	95.8404	87.8906	94.3161	87.8906	95.7468	87.8906	94.2287	87.8906	95.6335	87.8906	94.1734	87.8906	95.5088	87.8906	94.1508	87.8906	95.3809	87.8906	94.1596	87.8906	95.2562	87.8906	94.1965	87.8906	95.1383	87.8906	94.2569	87.8906	95.0281	87.8906	94.3352	87.8906	94.9239	87.8906	94.4256	87.8906	94.8231	87.8906	94.523	87.8906	94.7233	87.8906	94.623
90.8203	95.635	90.8203	95.4812	90.8203	95.7636	90.8203	95.3088	90.8203	95.8615	90.8203	95.1249	90.8203	95.9246	90.8203	94.9372	90.8203	95.9502	90.8203	94.7532	90.8203	95.9375	90.8203	94.5801	90.8203	95.8879	90.8203	94.4245	90.8203	95.8048	90.8203	94.2919	90.8203	95.6941	90.8203	94.1866	90.8203	95.5629	90.8203	94.1113	90.8203	95.4195	90.8203	94.0668	90.8203	95.2718	90.8203	94.0526	90.8203	95.1263	90.8203	94.0663	90.8203	94.9876	90.8203	94.1044	90.8203	94.8576	90.8203	94.1627	90.8203	94.7366	90.8203	94.2368	90.8203	94.6235	90.8203	94.3225	90.8203	94.517	90.8203	94.4165
95.2148	95.4143	95.2148	95.2592	95.2148	95.5452	95.2148	95.0867	95.2148	95.6463	95.2148	94.9041	95.2148	95.7132	95.2148	94.7197	95.2148	95.7434	95.2148	94.5415	95.2148	95.7363	95.2148	94.3776	95.2148	95.6936	95.2148	94.2351	95.2148	95.6192	95.2148	94.1199	95.2148	95.5196	95.2148	94.0363	95.2148	95.4025	95.2148	93.9861	95.2148	95.2765	95.2148	93.9691	95.2148	95.1493	95.2148	93.9829	95.2148	95.0268	95.2148	94.0231	95.2148	94.9124	95.2148	94.0845	95.2148	94.8066	95.2148	94.161	95.2148	94.708	95.2148	94.247	95.2148	94.6139	95.2148	94.3377	95.2148	94.5218	95.2148	94.4298
98.1445	95.389	98.1445	95.2338	98.1445	95.5181	98.1445	95.0592	98.1445	95.6157	98.1445	94.8725	98.1445	95.678	98.1445	94.6821	98.1445	95.703	98.1445	94.4968	98.1445	95.6905	98.1445	94.325	98.1445	95.6431	98.1445	94.1747	98.1445	95.5655	98.1445	94.0529	98.1445	95.4645	98.1445	93.9643	98.1445	95.3484	98.1445	93.9117	98.1445	95.2258	98.1445	93.895	98.1445	95.104	98.1445	93.9118	98.1445	94.9879	98.1445	93.9575	98.1445	94.8797	98.1445	94.0258	98.1445	94.7789	98.1445	94.1103	98.1445	94.6833	98.1445	94.2042	98.1445	94.5899	98.1445	94.3021	98.1445	94.496	98.1445	94.4
101.074	95.3699	101.074	95.2126	101.074	95.4983	101.074	95.0332	101.074	95.5922	101.074	94.8396	101.074	95.648	101.074	94.6403	101.074	95.6638	101.074	94.4448	101.074	95.6402	101.074	94.2621	101.074	95.5807	101.074	94.1014	101.074	95.491	101.074	93.9703	101.074	95.3798	101.074	93.875	101.074	95.2567	101.074	93.819	101.074	95.1316	101.074	93.8029	101.074	95.0124	101.074	93.8243	101.074	94.9038	101.074	93.8782	101.074	94.8067	101.074	93.9573	101.074	94.7188	101.074	94.0533	101.074	94.6355	101.074	94.1582	101.074	94.5515	101.074	94.2645	101.074	94.4628	101.074	94.3671
105.469	95.4909	105.469	95.3382	105.469	95.6104	105.469	95.1592	105.469	95.6913	105.469	94.9616	105.469	95.7301	105.469	94.7543	105.469	95.7254	105.469	94.5467	105.469	95.6784	105.469	94.3483	105.469	95.5933	105.469	94.1686	105.469	95.4771	105.469	94.0159	105.469	95.3397	105.469	93.8972	105.469	95.1925	105.469	93.8173	105.469	95.047	105.469	93.7779	105.469	94.9122	105.469	93.7777	105.469	94.7933	105.469	93.8126	105.469	94.6907	105.469	93.876	105.469	94.6008	105.469	93.9599	105.469	94.5176	105.469	94.0559	105.469	94.435	105.469	94.1563	105.469	94.3481	105.469	94.255
108.398	95.6566	108.398	95.5098	108.398	95.7672	108.398	95.3337	108.398	95.8366	108.398	95.1358	108.398	95.8612	108.398	94.9248	108.398	95.8397	108.398	94.7097	108.398	95.7732	108.398	94.5001	108.398	95.666	108.398	94.3052	108.398	95.5254	108.398	94.1338	108.398	95.3619	108.398	93.9935	108.398	95.188	108.398	93.8903	108.398	95.0167	108.398	93.8271	108.398	94.8592	108.398	93.8043	108.398	94.7227	108.398	93.8188	108.398	94.609	108.398	93.8647	108.398	94.5148	108.398	93.9339	108.398	94.4333	108.398	94.0175	108.398	94.3568	108.398	94.1069	108.398	94.2786	108.398	94.1952
112.793	95.7366	112.793	95.5923	112.793	95.8462	112.793	95.42	112.793	95.9155	112.793	95.2274	112.793	95.9408	112.793	95.0234	112.793	95.9206	112.793	94.8169	112.793	95.8555	112.793	94.6172	112.793	95.7494	112.793	94.4336	112.793	95.6094	112.793	94.274	112.793	95.4456	112.793	94.1454	112.793	95.2706	112.793	94.0525	112.793	95.0979	112.793	93.9975	112.793	94.9395	112.793	93.9798	112.793	94.8035	112.793	93.9958	112.793	94.6928	112.793	94.0395	112.793	94.6047	112.793	94.103	112.793	94.5323	112.793	94.1779	112.793	94.4673	112.793	94.2563	112.793	94.4021	112.793	94.332
117.188	95.8212	117.188	95.6668	117.188	95.9384	117.188	95.4822	117.188	96.0132	117.188	95.2755	117.188	96.0418	117.188	95.0557	117.188	96.0229	117.188	94.8324	117.188	95.9577	117.188	94.6153	117.188	95.8502	117.188	94.4142	117.188	95.7074	117.188	94.238	117.188	95.539	117.188	94.094	117.188	95.357	117.188	93.988	117.188	95.1739	117.188	93.9224	117.188	95.0009	117.188	93.8972	117.188	94.8464	117.188	93.9086	117.188	94.7142	117.188	93.9507	117.188	94.6035	117.188	94.0153	117.188	94.5095	117.188	94.0937	117.188	94.4255	117.188	94.1781	117.188	94.3447	117.188	94.2626
120.117	95.8546	120.117	95.7114	120.117	95.9596	120.117	95.5368	120.117	96.0216	120.117	95.3384	120.117	96.0373	120.117	95.1251	120.117	96.0059	120.117	94.906	120.117	95.9291	120.117	94.6907	120.117	95.8115	120.117	94.4887	120.117	95.6606	120.117	94.3088	120.117	95.4869	120.117	94.1586	120.117	95.3025	120.117	94.0441	120.117	95.1199	120.117	93.9687	120.117	94.9501	120.117	93.9328	120.117	94.8006	120.117	93.934	120.117	94.6745	120.117	93.9665	120.117	94.5702	120.117	94.0228	120.117	94.4824	120.117	94.0942	120.117	94.404	120.117	94.1725	120.117	94.3285	120.117	94.2516
124.512	95.7902	124.512	95.6428	124.512	95.8996	124.512	95.4646	124.512	95.9657	124.512	95.2642	124.512	95.9855	124.512	95.0512	124.512	95.9584	124.512	94.836	124.512	95.8866	124.512	94.6287	124.512	95.7752	124.512	94.4386	124.512	95.6324	124.512	94.2741	124.512	95.469	124.512	94.1415	124.512	95.2971	124.512	94.0449	124.512	95.1286	124.512	93.986	124.512	94.9733	124.512	93.9637	124.512	94.8371	124.512	93.9749	124.512	94.7216	124.512	94.0139	124.512	94.6245	124.512	94.074	124.512	94.5402	124.512	94.1475	124.512	94.4627	124.512	94.2273	124.512	94.3863	124.512	94.3079
128.906	95.7632	128.906	95.6114	128.906	95.877	128.906	95.4292	128.906	95.9472	128.906	95.2252	128.906	95.9704	128.906	95.0095	128.906	95.9455	128.906	94.7928	128.906	95.8743	128.906	94.5861	128.906	95.7623	128.906	94.4001	128.906	95.6183	128.906	94.2438	128.906	95.4545	128.906	94.1244	128.906	95.2848	128.906	94.0461	128.906	95.1233	128.906	94.01	128.906	94.981	128.906	94.0135	128.906	94.8641	128.906	94.0512	128.906	94.7728	128.906	94.1151	128.906	94.7019	128.906	94.1961	128.906	94.6429	128.906	94.2849	128.906	94.5865	128.906	94.3729	128.906	94.525	128.906	94.454
133.301	95.8073	133.301	95.6504	133.301	95.9245	133.301	95.4616	133.301	95.996	133.301	95.2502	133.301	96.018	133.301	95.0262	133.301	95.9894	133.301	94.8006	133.301	95.9122	133.301	94.5847	133.301	95.7923	133.301	94.3893	133.301	95.6392	133.301	94.2241	133.301	95.4657	133.301	94.0971	133.301	95.2866	133.301	94.0131	133.301	95.1167	133.301	93.9739	133.301	94.9681	133.301	93.9773	133.301	94.8476	133.301	94.0175	133.301	94.7554	133.301	94.0861	133.301	94.6859	133.301	94.173	133.301	94.6296	133.301	94.2676	133.301	94.5759	133.301	94.3605	133.301	94.516	133.301	94.4444
139.16	95.8036	139.16	95.6433	139.16	95.9197	139.16	95.4467	139.16	95.9863	139.16	95.2232	139.16	96.0002	139.16	94.9836	139.16	95.9614	139.16	94.7398	139.16	95.8732	139.16	94.504	139.16	95.7424	139.16	94.2882	139.16	95.5791	139.16	94.1035	139.16	95.3964	139.16	93.9592	139.16	95.2093	139.16	93.8615	139.16	95.0322	139.16	93.8132	139.16	94.877	139.16	93.8127	139.16	94.7506	139.16	93.8544	139.16	94.6538	139.16	93.9291	139.16	94.5811	139.16	94.0252	139.16	94.5224	139.16	94.1304	139.16	94.4664	139.16	94.2333	139.16	94.4028	139.16	94.3255
143.555	95.7905	143.555	95.6301	143.555	95.9039	143.555	95.4302	143.555	95.9648	143.555	95.2006	143.555	95.9706	143.555	94.9527	143.555	95.9218	143.555	94.6991	143.555	95.8224	143.555	94.4531	143.555	95.6801	143.555	94.2279	143.555	95.5062	143.555	94.0356	143.555	95.3152	143.555	93.8863	143.555	95.1231	143.555	93.787	143.555	94.9456	143.555	93.7401	143.555	94.7945	143.555	93.7438	143.555	94.676	143.555	93.7915	143.555	94.5892	143.555	93.8732	143.555	94.5267	143.555	93.9763	143.555	94.477	143.555	94.0876	143.555	94.4272	143.555	94.1951	143.555	94.3669	143.555	94.2898
147.949	95.8032	147.949	95.6422	147.949	95.9154	147.949	95.4398	147.949	95.9735	147.949	95.2058	147.949	95.9753	147.949	94.9515	147.949	95.9214	147.949	94.6898	147.949	95.8162	147.949	94.4344	147.949	95.6679	147.949	94.1992	147.949	95.4883	147.949	93.9973	147.949	95.2923	147.949	93.8397	147.949	95.0965	147.949	93.7344	147.949	94.9165	147.949	93.6845	147.949	94.7646	147.949	93.6886	147.949	94.6466	147.949	93.7397	147.949	94.5613	147.949	93.8269	147.949	94.501	147.949	93.9367	147.949	94.4534	147.949	94.0546	147.949	94.4051	147.949	94.1677	147.949	94.3449	147.949	94.2661
153.809	95.7896	153.809	95.6234	153.809	95.9021	153.809	95.4112	153.809	95.9555	153.809	95.1629	153.809	95.9476	153.809	94.8904	153.809	95.8793	153.809	94.607	153.809	95.7558	153.809	94.3273	153.809	95.5863	153.809	94.0665	153.809	95.3841	153.809	93.8395	153.809	95.1667	153.809	93.6596	153.809	94.953	153.809	93.5371	153.809	94.7611	153.809	93.4772	153.809	94.6046	153.809	93.4793	153.809	94.4895	153.809	93.5364	153.809	94.4128	153.809	93.6361	153.809	94.3634	153.809	93.7624	153.809	94.3256	153.809	93.8979	153.809	94.2831	153.809	94.027	153.809	94.2228	153.809	94.1375
159.668	95.9139	159.668	95.7536	159.668	96.0205	159.668	95.5475	159.668	96.0682	159.668	95.305	159.668	96.0543	159.668	95.0375	159.668	95.9795	159.668	94.7571	159.668	95.8478	159.668	94.477	159.668	95.6674	159.668	94.2104	159.668	95.4505	159.668	93.9707	159.668	95.2134	159.668	93.7701	159.668	94.9746	159.668	93.6192	159.668	94.7534	159.668	93.5254	159.668	94.5658	159.668	93.4914	159.668	94.4213	159.668	93.514	159.668	94.3206	159.668	93.5841	159.668	94.2548	159.668	93.6871	159.668	94.2084	159.668	93.8059	159.668	94.1636	159.668	93.9232	159.668	94.1056	159.668	94.0256
165.527	96.175	165.527	96.0237	165.527	96.2731	165.527	95.8268	165.527	96.313	165.527	95.5942	165.527	96.2929	165.527	95.3374	165.527	96.2144	165.527	95.0692	165.527	96.0831	165.527	94.8031	165.527	95.9087	165.527	94.5524	165.527	95.7048	165.527	94.3299	165.527	95.4881	165.527	94.1464	165.527	95.2767	165.527	94.011	165.527	95.0874	165.527	93.9292	165.527	94.9329	165.527	93.9028	165.527	94.8187	165.527	93.9289	165.527	94.7418	165.527	93.9999	165.527	94.6915	165.527	94.1035	165.527	94.6519	165.527	94.2244	165.527	94.6067	165.527	94.3465	165.527	94.5432	165.527	94.4558
171.387	96.138	171.387	95.9858	171.387	96.2329	171.387	95.7845	171.387	96.2654	171.387	95.5446	171.387	96.2334	171.387	95.2787	171.387	96.1387	171.387	95.0011	171.387	95.9875	171.387	94.7272	171.387	95.7907	171.387	94.4729	171.387	95.564	171.387	94.2529	171.387	95.3274	171.387	94.0798	171.387	95.1027	171.387	93.9626	171.387	94.9105	171.387	93.9057	171.387	94.7658	171.387	93.908	171.387	94.6744	171.387	93.9628	171.387	94.6311	171.387	94.0585	171.387	94.621	171.387	94.1796	171.387	94.6235	171.387	94.3084	171.387	94.6175	171.387	94.4278	171.387	94.5869	171.387	94.5235
177.246	96.0532	177.246	95.894	177.246	96.1505	177.246	95.681	177.246	96.1807	177.246	95.4248	177.246	96.142	177.246	95.1384	177.246	96.0365	177.246	94.8367	177.246	95.8705	177.246	94.5359	177.246	95.6548	177.246	94.2527	177.246	95.4052	177.246	94.0031	177.246	95.1411	177.246	93.8014	177.246	94.8845	177.246	93.6588	177.246	94.6572	177.246	93.582	177.246	94.4776	177.246	93.5717	177.246	94.3566	177.246	93.6223	177.246	94.2939	177.246	93.7211	177.246	94.2768	177.246	93.8501	177.246	94.2829	177.246	93.9877	177.246	94.2867	177.246	94.1129	177.246	94.2662	177.246	94.2088
183.105	95.8861	183.105	95.7204	183.105	95.9869	183.105	95.4983	183.105	96.018	183.105	95.2314	183.105	95.9786	183.105	94.9344	183.105	95.8725	183.105	94.6245	183.105	95.7088	183.105	94.3205	183.105	95.5014	183.105	94.0416	183.105	95.269	183.105	93.8051	183.105	95.0327	183.105	93.6251	183.105	94.8136	183.105	93.51	183.105	94.629	183.105	93.4626	183.105	94.4894	183.105	93.4791	183.105	94.3972	183.105	93.5507	183.105	94.3468	183.105	93.6639	183.105	94.3253	183.105	93.8018	183.105	94.3153	183.105	93.9458	183.105	94.2981	183.105	94.0782	183.105	94.2577	183.105	94.1847
188.965	95.92	188.965	95.7512	188.965	96.018	188.965	95.5195	188.965	96.0403	188.965	95.2359	188.965	95.9857	188.965	94.9141	188.965	95.8573	188.965	94.5706	188.965	95.6637	188.965	94.2248	188.965	95.4197	188.965	93.8978	188.965	95.1464	188.965	93.6114	188.965	94.8702	188.965	93.3855	188.965	94.6197	188.965	93.2357	188.965	94.4206	188.965	93.1704	188.965	94.2887	188.965	93.1892	188.965	94.2256	188.965	93.2825	188.965	94.2178	188.965	93.4329	188.965	94.2405	188.965	93.6173	188.965	94.265	188.965	93.8103	188.965	94.2651	188.965	93.9875	188.965	94.2225	188.965	94.129
196.289	96.1579	196.289	96.0077	196.289	96.2347	196.289	95.7919	196.289	96.2332	196.289	95.5215	196.289	96.1525	196.289	95.2101	196.289	95.9963	196.289	94.8736	196.289	95.7732	196.289	94.5301	196.289	95.4981	196.289	94.1989	196.289	95.1918	196.289	93.8996	196.289	94.8803	196.289	93.6504	196.289	94.592	196.289	93.466	196.289	94.3539	196.289	93.3567	196.289	94.1854	196.289	93.3256	196.289	94.0935	196.289	93.3684	196.289	94.0694	196.289	93.4723	196.289	94.0904	196.289	93.6175	196.289	94.1253	196.289	93.7789	196.289	94.1432	196.289	93.9304	196.289	94.1214	196.289	94.0494
203.613	96.1745	203.613	96.0064	203.613	96.2576	203.613	95.7621	203.613	96.2504	203.613	95.454	203.613	96.1516	203.613	95.0976	203.613	95.9648	203.613	94.7128	203.613	95.6996	203.613	94.323	203.613	95.3731	203.613	93.9546	203.613	95.0106	203.613	93.6347	203.613	94.6454	203.613	93.3872	203.613	94.3157	203.613	93.2289	203.613	94.0576	203.613	93.1658	203.613	93.8968	203.613	93.1925	203.613	93.8393	203.613	93.2941	203.613	93.869	203.613	93.4489	203.613	93.952	203.613	93.6313	203.613	94.0468	203.613	93.8143	203.613	94.1153	203.613	93.9719	203.613	94.131	203.613	94.0823
210.938	96.3687	210.938	96.2122	210.938	96.4479	210.938	95.9851	210.938	96.4455	210.938	95.6962	210.938	96.3598	210.938	95.3564	210.938	96.1921	210.938	94.9792	210.938	95.9482	210.938	94.5811	210.938	95.6388	210.938	94.1818	210.938	95.2806	210.938	93.8043	210.938	94.897	210.938	93.4739	210.938	94.5174	210.938	93.2159	210.938	94.1752	210.938	93.0508	210.938	93.9033	210.938	92.989	210.938	93.7259	210.938	93.0265	210.938	93.6495	210.938	93.1436	210.938	93.6568	210.938	93.3089	210.938	93.7104	210.938	93.4858	210.938	93.7656	210.938	93.6394	210.938	93.784	210.938	93.7432
218.262	96.192	218.262	96.036	218.262	96.277	218.262	95.8171	218.262	96.2847	218.262	95.5453	218.262	96.2121	218.262	95.2322	218.262	96.0594	218.262	94.8911	218.262	95.8322	218.262	94.5368	218.262	95.5419	218.262	94.1862	218.262	95.207	218.262	93.8576	218.262	94.8529	218.262	93.57	218.262	94.5095	218.262	93.3417	218.262	94.2078	218.262	93.1878	218.262	93.9744	218.262	93.1171	218.262	93.8246	218.262	93.1295	218.262	93.7581	218.262	93.2135	218.262	93.7566	218.262	93.3473	218.262	93.7882	218.262	93.5016	218.262	93.8162	218.262	93.6456	218.262	93.8103	218.262	93.7535
225.586	96.2041	225.586	96.0414	225.586	96.2897	225.586	95.8116	225.586	96.2911	225.586	95.5268	225.586	96.2049	225.586	95.2008	225.586	96.0326	225.586	94.8492	225.586	95.7823	225.586	94.4895	225.586	95.4704	225.586	94.1403	225.586	95.1213	225.586	93.8218	225.586	94.7673	225.586	93.5542	225.586	94.4439	225.586	93.3564	225.586	94.1842	225.586	93.2427	225.586	94.0114	225.586	93.2199	225.586	93.9333	225.586	93.284	225.586	93.9385	225.586	93.4193	225.586	93.9993	225.586	93.5993	225.586	94.0776	225.586	93.7911	225.586	94.1352	225.586	93.9618	225.586	94.1424	225.586	94.0843
232.91	96.3808	232.91	96.2056	232.91	96.4598	232.91	95.9448	232.91	96.4354	232.91	95.6116	232.91	96.3051	232.91	95.2216	232.91	96.0723	232.91	94.7931	232.91	95.7477	232.91	94.3471	232.91	95.3514	232.91	93.9081	232.91	94.9133	232.91	93.5037	232.91	94.4736	232.91	93.1639	232.91	94.0797	232.91	92.9174	232.91	93.7788	232.91	92.7868	232.91	93.6061	232.91	92.7823	232.91	93.5724	232.91	92.897	232.91	93.6564	232.91	93.1063	232.91	93.8098	232.91	93.3711	232.91	93.9721	232.91	93.6453	232.91	94.088	232.91	93.8838	232.91	94.1192	232.91	94.0495
241.699	96.5435	241.699	96.3783	241.699	96.6236	241.699	96.139	241.699	96.6101	241.699	95.8381	241.699	96.4975	241.699	95.4899	241.699	96.2844	241.699	95.1089	241.699	95.974	241.699	94.7094	241.699	95.5772	241.699	94.3055	241.699	95.1137	241.699	93.9114	241.699	94.6144	241.699	93.5432	241.699	94.1212	241.699	93.2211	241.699	93.6836	241.699	92.9696	241.699	93.3515	241.699	92.814	241.699	93.1619	241.699	92.7721	241.699	93.123	241.699	92.8429	241.699	93.2047	241.699	93.0011	241.699	93.3456	241.699	93.2	241.699	93.4757	241.699	93.3851	241.699	93.5391	241.699	93.5079
250.488	96.3558	250.488	96.1436	250.488	96.4831	250.488	95.8609	250.488	96.5148	250.488	95.5247	250.488	96.4434	250.488	95.1541	250.488	96.2662	250.488	94.7692	250.488	95.9856	250.488	94.3894	250.488	95.6115	250.488	94.0313	250.488	95.1626	250.488	93.7077	250.488	94.6679	250.488	93.4283	250.488	94.1669	250.488	93.201	250.488	93.7078	250.488	93.0347	250.488	93.3419	250.488	92.9394	250.488	93.1121	250.488	92.9226	250.488	93.0356	250.488	92.983	250.488	93.0912	250.488	93.1035	250.488	93.2231	250.488	93.2508	250.488	93.3618	250.488	93.382	250.488	93.4498	250.488	93.4566
259.277	96.8832	259.277	96.6774	259.277	96.9913	259.277	96.3849	259.277	96.9949	259.277	96.0209	259.277	96.8913	259.277	95.6047	259.277	96.6827	259.277	95.1598	259.277	96.3767	259.277	94.712	259.277	95.9872	259.277	94.2867	259.277	95.5343	259.277	93.9047	259.277	95.0446	259.277	93.58	259.277	94.5506	259.277	93.32	259.277	94.0901	259.277	93.1303	259.277	93.7042	259.277	93.0175	259.277	93.4315	259.277	92.9897	259.277	93.2963	259.277	93.0478	259.277	93.2933	259.277	93.1759	259.277	93.3812	259.277	93.3376	259.277	93.4951	259.277	93.4839	259.277	93.5713	259.277	93.5699
268.066	96.5495	268.066	96.3689	268.066	96.6421	268.066	96.1058	268.066	96.643	268.066	95.7691	268.066	96.5506	268.066	95.3727	268.066	96.3667	268.066	94.9371	268.066	96.0974	268.066	94.4907	268.066	95.7548	268.066	94.0678	268.066	95.358	268.066	93.7026	268.066	94.9337	268.066	93.4215	268.066	94.5141	268.066	93.2355	268.066	94.1353	268.066	93.1409	268.066	93.832	268.066	93.1249	268.066	93.6303	268.066	93.173	268.066	93.5391	268.066	93.2712	268.066	93.5439	268.066	93.4024	268.066	93.6088	268.066	93.5422	268.066	93.6876	268.066	93.6606	268.066	93.7373	268.066	93.7304
276.855	96.4861	276.855	96.2986	276.855	96.5801	276.855	96.025	276.855	96.5744	276.855	95.674	276.855	96.4649	276.855	95.2562	276.855	96.2512	276.855	94.7852	276.855	95.9387	276.855	94.2794	276.855	95.5407	276.855	93.7634	276.855	95.08	276.855	93.2688	276.855	94.5896	276.855	92.8327	276.855	94.1117	276.855	92.494	276.855	93.6949	276.855	92.2856	276.855	93.3873	276.855	92.2273	276.855	93.2243	276.855	92.3182	276.855	93.2116	276.855	92.5331	276.855	93.3142	276.855	92.8246	276.855	93.4658	276.855	93.1325	276.855	93.5933	276.855	93.3978	276.855	93.6396	276.855	93.5749
287.109	96.5346	287.109	96.3997	287.109	96.5762	287.109	96.1737	287.109	96.5244	287.109	95.8609	287.109	96.3817	287.109	95.4692	287.109	96.1544	287.109	95.0133	287.109	95.8543	287.109	94.5159	287.109	95.4977	287.109	94.0089	287.109	95.1045	287.109	93.5295	287.109	94.6956	287.109	93.1125	287.109	94.2912	287.109	92.7813	287.109	93.9107	287.109	92.5437	287.109	93.5746	287.109	92.3969	287.109	93.3061	287.109	92.3373	287.109	93.1264	287.109	92.3636	287.109	93.0413	287.109	92.4691	287.109	93.0284	287.109	92.6298	287.109	93.0398	287.109	92.8037	287.109	93.0232	287.109	92.9448
297.363	96.5973	297.363	96.4513	297.363	96.6369	297.363	96.2078	297.363	96.5625	297.363	95.8753	297.363	96.37	297.363	95.4623	297.363	96.0628	297.363	94.9791	297.363	95.6553	297.363	94.4417	297.363	95.1757	297.363	93.8758	297.363	94.666	297.363	93.32	297.363	94.1777	297.363	92.8242	297.363	93.7628	297.363	92.4407	297.363	93.4638	297.363	92.2084	297.363	93.3047	297.363	92.1417	297.363	93.2857	297.363	92.2298	297.363	93.3793	297.363	92.4438	297.363	93.5328	297.363	92.7421	297.363	93.6819	297.363	93.0735	297.363	93.7681	297.363	93.3826	297.363	93.7522	297.363	93.62
307.617	96.889	307.617	96.7041	307.617	96.9752	307.617	96.4365	307.617	96.9482	307.617	96.1025	307.617	96.7974	307.617	95.7169	307.617	96.5181	307.617	95.2924	307.617	96.1138	307.617	94.8385	307.617	95.5974	307.617	94.3627	307.617	94.9937	307.617	93.8718	307.617	94.3397	307.617	93.3749	307.617	93.686	307.617	92.8891	307.617	93.0964	307.617	92.4452	307.617	92.6453	307.617	92.0925	307.617	92.4022	307.617	91.8913	307.617	92.3936	307.617	91.8869	307.617	92.5688	307.617	92.0728	307.617	92.8131	307.617	92.3804	307.617	93.0048	307.617	92.7068	307.617	93.0617	307.617	92.9553
319.336	96.3364	319.336	96.1547	319.336	96.4168	319.336	95.8884	319.336	96.3838	319.336	95.556	319.336	96.2321	319.336	95.176	319.336	95.9652	319.336	94.7649	319.336	95.596	319.336	94.3381	319.336	95.1475	319.336	93.911	319.336	94.6514	319.336	93.5012	319.336	94.1452	319.336	93.1267	319.336	93.6657	319.336	92.8028	319.336	93.2448	319.336	92.5387	319.336	92.9117	319.336	92.3413	319.336	92.6979	319.336	92.2225	319.336	92.6286	319.336	92.2026	319.336	92.6955	319.336	92.2954	319.336	92.8379	319.336	92.4848	319.336	92.9644	319.336	92.7143	319.336	92.9977	319.336	92.9067
329.59	96.3796	329.59	96.1844	329.59	96.4593	329.59	95.8878	329.59	96.4128	329.59	95.5069	329.59	96.2329	329.59	95.0628	329.59	95.9185	329.59	94.5804	329.59	95.4778	329.59	94.0886	329.59	94.9322	329.59	93.6184	329.59	94.3196	329.59	93.1988	329.59	93.6935	329.59	92.8512	329.59	93.1147	329.59	92.5847	329.59	92.6374	329.59	92.3962	329.59	92.2996	329.59	92.2789	329.59	92.1236	329.59	92.2317	329.59	92.1153	329.59	92.2613	329.59	92.2505	329.59	92.3693	329.59	92.4655	329.59	92.5326	329.59	92.6732	329.59	92.6987	329.59	92.7982	329.59	92.8034
341.309	96.2714	341.309	96.0159	341.309	96.4096	341.309	95.6641	341.309	96.4143	341.309	95.2414	341.309	96.2746	341.309	94.777	341.309	95.9867	341.309	94.3035	341.309	95.5565	341.309	93.8552	341.309	95.0039	341.309	93.4647	341.309	94.3678	341.309	93.1559	341.309	93.7094	341.309	92.9361	341.309	93.1043	341.309	92.791	341.309	92.621	341.309	92.6911	341.309	92.2953	341.309	92.607	341.309	92.1254	341.309	92.5266	341.309	92.0881	341.309	92.461	341.309	92.1523	341.309	92.433	341.309	92.2767	341.309	92.4523	341.309	92.4096	341.309	92.4984	341.309	92.5018	341.309	92.528
353.027	96.6038	353.027	96.3006	353.027	96.7544	353.027	95.8573	353.027	96.7448	353.027	95.294	353.027	96.5703	353.027	94.639	353.027	96.2291	353.027	93.9296	353.027	95.7247	353.027	93.2127	353.027	95.0725	353.027	92.5465	353.027	94.3105	353.027	92.0011	353.027	93.5093	353.027	91.6481	353.027	92.7751	353.027	91.5315	353.027	92.2281	353.027	91.6392	353.027	91.954	353.027	91.9089	353.027	91.962	353.027	92.2646	353.027	92.1902	353.027	92.6457	353.027	92.5444	353.027	93.0085	353.027	92.931	353.027	93.3129	353.027	93.27	353.027	93.5175	353.027	93.5006	353.027	93.5861
366.211	96.763	366.211	96.5198	366.211	96.8872	366.211	96.1596	366.211	96.8881	366.211	95.6851	366.211	96.7595	366.211	95.104	366.211	96.4948	366.211	94.4358	366.211	96.0906	366.211	93.7197	366.211	95.5515	366.211	93.0184	366.211	94.8953	366.211	92.4097	366.211	94.1602	366.211	91.9593	366.211	93.4089	366.211	91.6856	366.211	92.7222	366.211	91.5523	366.211	92.1812	366.211	91.5055	366.211	91.8485	366.211	91.5193	366.211	91.754	366.211	91.6087	366.211	91.8757	366.211	91.7958	366.211	92.1266	366.211	92.0607	366.211	92.3807	366.211	92.3287	366.211	92.5263	366.211	92.5059
379.395	97.5826	379.395	97.3322	379.395	97.6995	379.395	96.9619	379.395	97.6698	379.395	96.4843	379.395	97.4834	379.395	95.9098	379.395	97.1348	379.395	95.2486	379.395	96.6255	379.395	94.5153	379.395	95.9649	379.395	93.7381	379.395	95.1741	379.395	92.971	379.395	94.2977	379.395	92.298	379.395	93.4267	379.395	91.8084	379.395	92.7163	379.395	91.5453	379.395	92.34	379.395	91.4806	379.395	92.3561	379.395	91.5542	379.395	92.6346	379.395	91.7285	379.395	92.9676	379.395	91.9923	379.395	93.205	379.395	92.3268	379.395	93.2865	379.395	92.683	379.395	93.2093	379.395	92.9957
392.578	97.3963	392.578	97.163	392.578	97.531	392.578	96.8394	392.578	97.5558	392.578	96.4315	392.578	97.4568	392.578	95.9434	392.578	97.219	392.578	95.3767	392.578	96.8305	392.578	94.7347	392.578	96.2854	392.578	94.0331	392.578	95.5864	392.578	93.319	392.578	94.7491	392.578	92.6873	392.578	93.8186	392.578	92.2644	392.578	92.9062	392.578	92.1332	392.578	92.2284	392.578	92.2647	392.578	92.043	392.578	92.5521	392.578	92.4071	392.578	92.9009	392.578	93.0711	392.578	93.268	392.578	93.7141	392.578	93.6365	392.578	94.1432	392.578	93.9754	392.578	94.3033	392.578	94.2239
405.762	97.2409	405.762	96.9991	405.762	97.3633	405.762	96.65	405.762	97.3563	405.762	96.2053	405.762	97.216	405.762	95.6754	405.762	96.9465	405.762	95.0697	405.762	96.5581	405.762	94.401	405.762	96.0606	405.762	93.6934	405.762	95.457	405.762	92.995	405.762	94.7471	405.762	92.3851	405.762	93.9488	405.762	91.9584	405.762	93.1346	405.762	91.7824	405.762	92.4623	405.762	91.8609	405.762	92.1359	405.762	92.1423	405.762	92.2564	405.762	92.5562	405.762	92.7118	405.762	93.0313	405.762	93.2729	405.762	93.4916	405.762	93.7443	405.762	93.8555	405.762	94.0152	405.762	94.0475
420.41	97.5838	420.41	97.3302	420.41	97.7186	420.41	96.975	420.41	97.7169	420.41	96.5295	420.41	97.5656	420.41	95.9922	420.41	97.2582	420.41	95.3468	420.41	96.7957	420.41	94.5671	420.41	96.1853	420.41	93.6308	420.41	95.4403	420.41	92.5444	420.41	94.5808	420.41	91.386	420.41	93.6429	420.41	90.3614	420.41	92.7009	420.41	89.789	420.41	91.9107	420.41	89.877	420.41	91.5194	420.41	90.5084	420.41	91.7057	420.41	91.3973	420.41	92.3508	420.41	92.3163	420.41	93.1238	420.41	93.1262	420.41	93.7449	420.41	93.7323	420.41	94.0721	420.41	94.0633
435.059	97.1013	435.059	96.7221	435.059	97.3585	435.059	96.251	435.059	97.4701	435.059	95.7232	435.059	97.422	435.059	95.1735	435.059	97.2131	435.059	94.6238	435.059	96.8567	435.059	94.0706	435.059	96.3749	435.059	93.4867	435.059	95.7856	435.059	92.8417	435.059	95.09	435.059	92.1366	435.059	94.2726	435.059	91.4323	435.059	93.3285	435.059	90.8496	435.059	92.3388	435.059	90.5265	435.059	91.5761	435.059	90.5562	435.059	91.4332	435.059	90.9503	435.059	91.9692	435.059	91.6247	435.059	92.7679	435.059	92.4122	435.059	93.4072	435.059	93.1178	435.059	93.6903	435.059	93.5789
451.172	97.6226	451.172	97.179	451.172	97.8916	451.172	96.5801	451.172	97.9723	451.172	95.855	451.172	97.8539	451.172	95.0417	451.172	97.5336	451.172	94.1753	451.172	97.0229	451.172	93.2707	451.172	96.3501	451.172	92.3196	451.172	95.5558	451.172	91.318	451.172	94.6927	451.172	90.3277	451.172	93.8366	451.172	89.5464	451.172	93.0965	451.172	89.2703	451.172	92.5988	451.172	89.6273	451.172	92.4394	451.172	90.4184	451.172	92.6354	451.172	91.3598	451.172	93.0991	451.172	92.2832	451.172	93.6522	451.172	93.1069	451.172	94.0974	451.172	93.7627	451.172	94.2923	451.172	94.177
465.82	97.4815	465.82	96.9852	465.82	97.8089	465.82	96.3428	465.82	97.9405	465.82	95.5779	465.82	97.8559	465.82	94.7272	465.82	97.5594	465.82	93.8441	465.82	97.0876	465.82	92.9806	465.82	96.4922	465.82	92.1532	465.82	95.8057	465.82	91.3191	465.82	95.0181	465.82	90.3966	465.82	94.0887	465.82	89.3353	465.82	92.9885	465.82	88.2234	465.82	91.7776	465.82	87.3889	465.82	90.7248	465.82	87.2804	465.82	90.2886	465.82	87.9935	465.82	90.6348	465.82	89.1533	465.82	91.349	465.82	90.3465	465.82	91.9416	465.82	91.3242	465.82	92.166	465.82	91.9541
483.398	96.1001	483.398	95.6678	483.398	96.388	483.398	95.1161	483.398	96.5153	483.398	94.4731	483.398	96.4814	483.398	93.7685	483.398	96.3015	483.398	93.0302	483.398	95.992	483.398	92.2727	483.398	95.5454	483.398	91.4804	483.398	94.919	483.398	90.6016	483.398	94.0582	483.398	89.5742	483.398	92.9607	483.398	88.3995	483.398	91.7725	483.398	87.2779	483.398	90.8474	483.398	86.7156	483.398	90.5409	483.398	87.1737	483.398	90.8136	483.398	88.4265	483.398	91.3362	483.398	89.8773	483.398	91.8685	483.398	91.1291	483.398	92.3011	483.398	92.0106	483.398	92.5393	483.398	92.4716
499.512	96.0208	499.512	95.5383	499.512	96.3415	499.512	94.9307	499.512	96.485	499.512	94.2586	499.512	96.4592	499.512	93.6009	499.512	96.2988	499.512	93.0268	499.512	96.0567	499.512	92.5536	499.512	95.7706	499.512	92.126	499.512	95.4204	499.512	91.638	499.512	94.9109	499.512	90.9817	499.512	94.1036	499.512	90.0933	499.512	92.8912	499.512	88.9892	499.512	91.3508	499.512	87.8344	499.512	90.074	499.512	87.0856	499.512	90.0564	499.512	87.3749	499.512	91.1362	499.512	88.6883	499.512	92.2591	499.512	90.3065	499.512	92.9112	499.512	91.6772	499.512	93.0146	499.512	92.5959
517.09	96.2751	517.09	95.6597	517.09	96.7122	517.09	94.9046	517.09	96.9519	517.09	94.0786	517.09	96.9898	517.09	93.2802	517.09	96.8402	517.09	92.6051	517.09	96.539	517.09	92.0913	517.09	96.1338	517.09	91.6871	517.09	95.6584	517.09	91.2682	517.09	95.1005	517.09	90.6883	517.09	94.3851	517.09	89.8358	517.09	93.4042	517.09	88.6847	517.09	92.1237	517.09	87.3802	517.09	90.8419	517.09	86.4395	517.09	90.4182	517.09	86.719	517.09	91.2761	517.09	88.3047	517.09	92.538	517.09	90.2896	517.09	93.4013	517.09	91.9849	517.09	93.6064	517.09	93.1222
536.133	96.1099	536.133	95.554	536.133	96.38	536.133	94.7088	536.133	96.3965	536.133	93.6323	536.133	96.2094	536.133	92.5032	536.133	95.8825	536.133	91.645	536.133	95.4908	536.133	91.3421	536.133	95.1177	536.133	91.5151	536.133	94.8334	536.133	91.7763	536.133	94.6409	536.133	91.7713	536.133	94.4313	536.133	91.3238	536.133	94.0093	536.133	90.4073	536.133	93.1861	536.133	89.1007	536.133	91.9477	536.133	87.6569	536.133	90.8178	536.133	86.8395	536.133	90.8641	536.133	87.6951	536.133	92.0026	536.133	89.7408	536.133	93.0676	536.133	91.6991	536.133	93.4423	536.133	92.983
555.176	96.9186	555.176	96.6007	555.176	97.0036	555.176	96.0416	555.176	96.846	555.176	95.2191	555.176	96.4302	555.176	94.1231	555.176	95.7608	555.176	92.8063	555.176	94.9012	555.176	91.4637	555.176	94.0097	555.176	90.4704	555.176	93.3179	555.176	90.1046	555.176	92.9684	555.176	90.1229	555.176	92.8274	555.176	90.0106	555.176	92.5807	555.176	89.4505	555.176	92.0154	555.176	88.4018	555.176	91.2157	555.176	87.1185	555.176	90.6552	555.176	86.3977	555.176	90.8711	555.176	87.2392	555.176	91.7018	555.176	89.185	555.176	92.4869	555.176	91.0552	555.176	92.7516	555.176	92.2889
574.219	96.6752	574.219	96.4433	574.219	96.7414	574.219	96.0208	574.219	96.6549	574.219	95.39	574.219	96.4033	574.219	94.5552	574.219	95.9561	574.219	93.5627	574.219	95.2936	574.219	92.5283	574.219	94.4319	574.219	91.6466	574.219	93.442	574.219	91.0684	574.219	92.4804	574.219	90.6894	574.219	91.7432	574.219	90.2166	574.219	91.259	574.219	89.4684	574.219	90.8394	574.219	88.5034	574.219	90.3315	574.219	87.556	574.219	89.8115	574.219	86.954	574.219	89.5621	574.219	87.0923	574.219	89.7889	574.219	88.0844	574.219	90.2869	574.219	89.3784	574.219	90.5815	574.219	90.3065
594.727	96.8809	594.727	96.6218	594.727	96.9336	594.727	96.1694	594.727	96.7829	594.727	95.5367	594.727	96.4528	594.727	94.7243	594.727	95.9736	594.727	93.7379	594.727	95.354	594.727	92.6454	594.727	94.5677	594.727	91.6657	594.727	93.5954	594.727	91.1343	594.727	92.5205	594.727	91.1063	594.727	91.5528	594.727	91.1538	594.727	90.8326	594.727	90.83	594.727	90.2516	594.727	89.9827	594.727	89.6856	594.727	88.7535	594.727	89.373	594.727	87.6392	594.727	89.7492	594.727	87.4732	594.727	90.6245	594.727	88.5009	594.727	91.3432	594.727	89.926	594.727	91.5113	594.727	91.0227
615.234	97.5779	615.234	97.2992	615.234	97.6053	615.234	96.7644	615.234	97.4119	615.234	96.0214	615.234	97.0277	615.234	95.1752	615.234	96.4708	615.234	94.3415	615.234	95.7483	615.234	93.5695	615.234	94.868	615.234	92.8414	615.234	93.8837	615.234	92.1915	615.234	92.9357	615.234	91.7244	615.234	92.1143	615.234	91.3641	615.234	91.2259	615.234	90.7872	615.234	89.9437	615.234	89.6901	615.234	88.3963	615.234	87.9468	615.234	87.7935	615.234	86.0171	615.234	88.9188	615.234	85.9677	615.234	90.5783	615.234	88.2527	615.234	91.8245	615.234	90.5304	615.234	92.3194	615.234	91.9115
637.207	96.8047	637.207	96.4525	637.207	96.935	637.207	95.9172	637.207	96.8183	637.207	95.2543	637.207	96.4524	637.207	94.5223	637.207	95.8722	637.207	93.7402	637.207	95.129	637.207	92.868	637.207	94.2374	637.207	91.8907	637.207	93.2042	637.207	90.9769	637.207	92.1676	637.207	90.4247	637.207	91.3829	637.207	90.2326	637.207	90.8925	637.207	90.0472	637.207	90.4005	637.207	89.5765	637.207	89.6397	637.207	88.7299	637.207	88.7866	637.207	87.6887	637.207	88.5722	637.207	87.2195	637.207	89.3446	637.207	88.1117	637.207	90.3876	637.207	89.6384	637.207	90.9559	637.207	90.7171
659.18	97.276	659.18	97.0123	659.18	97.2372	659.18	96.413	659.18	96.9482	659.18	95.4668	659.18	96.4791	659.18	94.208	659.18	95.885	659.18	92.7639	659.18	95.1666	659.18	91.3689	659.18	94.2881	659.18	90.2009	659.18	93.2491	659.18	89.2213	659.18	92.1319	659.18	88.4984	659.18	91.0899	659.18	88.4356	659.18	90.2709	659.18	89.0021	659.18	89.6505	659.18	89.4535	659.18	88.9745	659.18	89.1806	659.18	88.1809	659.18	88.111	659.18	88.0292	659.18	87.1738	659.18	89.1778	659.18	88.0174	659.18	90.6451	659.18	89.8745	659.18	91.4199	659.18	91.1657
682.617	97.0506	682.617	97.0501	682.617	96.7861	682.617	96.747	682.617	96.2856	682.617	96.1054	682.617	95.5965	682.617	95.1241	682.617	94.8097	682.617	93.8701	682.617	94.0007	682.617	92.4959	682.617	93.1398	682.617	91.2064	682.617	92.1544	682.617	90.1638	682.617	91.0865	682.617	89.4282	682.617	90.0979	682.617	88.9924	682.617	89.351	682.617	88.7765	682.617	88.8882	682.617	88.5998	682.617	88.506	682.617	88.2558	682.617	88.0188	682.617	87.6902	682.617	87.8797	682.617	87.3474	682.617	88.7046	682.617	88.0213	682.617	89.9225	682.617	89.4128	682.617	90.6378	682.617	90.4614
707.52	96.6086	707.52	96.5905	707.52	96.3876	707.52	96.3496	707.52	95.9868	707.52	95.9142	707.52	95.5102	707.52	95.2589	707.52	95.0001	707.52	94.3157	707.52	94.3942	707.52	93.0451	707.52	93.5735	707.52	91.5374	707.52	92.3852	707.52	90.0788	707.52	90.6985	707.52	88.9291	707.52	88.8527	707.52	88.1204	707.52	88.154	707.52	87.7739	707.52	88.7139	707.52	87.8603	707.52	88.9803	707.52	87.8432	707.52	88.6445	707.52	87.1877	707.52	88.6093	707.52	86.3095	707.52	88.8893	707.52	87.0728	707.52	89.0221	707.52	88.8575	707.52	89.4219	707.52	89.6857
732.422	96.6792	732.422	96.4928	732.422	96.61	732.422	96.0435	732.422	96.2975	732.422	95.3927	732.422	95.7735	732.422	94.6948	732.422	95.1402	732.422	94.06	732.422	94.5025	732.422	93.3501	732.422	93.7962	732.422	92.2217	732.422	92.8213	732.422	90.5419	732.422	91.4783	732.422	88.9443	732.422	89.8098	732.422	88.2325	732.422	87.9913	732.422	88.0188	732.422	86.6384	732.422	87.8745	732.422	86.1561	732.422	87.6439	732.422	85.6686	732.422	86.8493	732.422	85.6344	732.422	85.2545	732.422	87.7569	732.422	85.1944	732.422	89.9876	732.422	87.9632	732.422	90.8516	732.422	90.1761
757.324	96.1326	757.324	95.9334	757.324	96.1997	757.324	95.6973	757.324	96.0132	757.324	95.424	757.324	95.5502	757.324	94.9709	757.324	94.8997	757.324	94.0756	757.324	94.1077	757.324	92.5904	757.324	93.1314	757.324	90.6832	757.324	92.0431	757.324	88.581	757.324	91.0446	757.324	86.5056	757.324	90.0876	757.324	85.5362	757.324	88.9581	757.324	86.4117	757.324	87.9401	757.324	87.7778	757.324	87.1572	757.324	88.4536	757.324	86.1093	757.324	88.2938	757.324	86.5898	757.324	87.2687	757.324	88.3958	757.324	85.6087	757.324	89.0871	757.324	85.437	757.324	88.5587	757.324	87.1492
785.156	95.482	785.156	95.3678	785.156	95.4107	785.156	95.1344	785.156	95.1322	785.156	94.7718	785.156	94.7559	785.156	94.1799	785.156	94.3794	785.156	93.2193	785.156	93.8982	785.156	91.8022	785.156	93.1336	785.156	90.0498	785.156	91.978	785.156	88.2742	785.156	90.2943	785.156	86.6179	785.156	88.1537	785.156	85.1975	785.156	86.9634	785.156	84.4247	785.156	87.6358	785.156	84.4714	785.156	87.9321	785.156	84.9391	785.156	87.401	785.156	85.5539	785.156	87.7418	785.156	86.4288	785.156	87.9369	785.156	87.2636	785.156	87.3137	785.156	87.908	785.156	87.5654	785.156	88.1211
811.523	95.9506	811.523	95.5038	811.523	95.8683	811.523	94.9244	811.523	95.1262	811.523	94.5982	811.523	93.8562	811.523	94.3597	811.523	92.4889	811.523	93.7882	811.523	91.4892	811.523	92.7448	811.523	90.7561	811.523	91.2611	811.523	89.8731	811.523	89.346	811.523	88.5791	811.523	87.2166	811.523	86.5599	811.523	85.6923	811.523	83.5854	811.523	85.895	811.523	82.7226	811.523	87.6778	811.523	85.2498	811.523	89.2204	811.523	86.5851	811.523	89.1443	811.523	86.7298	811.523	87.1013	811.523	86.1996	811.523	84.5452	811.523	85.3631	811.523	85.0849	811.523	85.5533	811.523	86.0346
840.82	96.5535	840.82	96.6706	840.82	95.6318	840.82	96.0433	840.82	94.2302	840.82	95.0148	840.82	93.0137	840.82	94.0017	840.82	92.3895	840.82	93.1803	840.82	92.078	840.82	92.3808	840.82	91.7098	840.82	91.2848	840.82	91.2079	840.82	89.8482	840.82	90.458	840.82	88.1992	840.82	89.0846	840.82	86.2501	840.82	87.2132	840.82	85.0071	840.82	86.1411	840.82	86.1396	840.82	85.4495	840.82	87.7094	840.82	84.4071	840.82	88.1023	840.82	83.7351	840.82	87.6718	840.82	82.9268	840.82	87.4447	840.82	84.8105	840.82	87.8619	840.82	87.3864	840.82	88.219
870.117	96.8259	870.117	97.6501	870.117	95.4486	870.117	97.3647	870.117	94.3379	870.117	95.921	870.117	93.6384	870.117	94.1389	870.117	92.7929	870.117	93.5586	870.117	91.7834	870.117	93.7357	870.117	91.1941	870.117	93.335	870.117	91.0695	870.117	92.4311	870.117	90.9096	870.117	91.5512	870.117	90.5201	870.117	90.367	870.117	89.9229	870.117	88.8373	870.117	88.9002	870.117	89.5372	870.117	86.5581	870.117	91.2446	870.117	81.4094	870.117	90.9252	870.117	80.3197	870.117	88.5925	870.117	84.9299	870.117	85.6646	870.117	86.2101	870.117	83.4225	870.117	84.9455	870.117	83.0128
900.879	98.0688	900.879	98.0746	900.879	97.6635	900.879	97.7234	900.879	96.7213	900.879	96.8469	900.879	95.2227	900.879	95.3035	900.879	93.1808	900.879	93.3549	900.879	90.4021	900.879	91.7043	900.879	86.6367	900.879	90.4219	900.879	82.5377	900.879	89.0114	900.879	80.421	900.879	88.0994	900.879	79.7206	900.879	87.3323	900.879	79.9792	900.879	85.2756	900.879	83.0226	900.879	81.9775	900.879	84.9355	900.879	83.4238	900.879	84.1993	900.879	85.6955	900.879	82.5679	900.879	85.9615	900.879	82.1404	900.879	85.7805	900.879	83.2334	900.879	86.4048	900.879	85.4845	900.879	86.6993
933.105	98.2794	933.105	97.8073	933.105	98.2006	933.105	96.898	933.105	97.4302	933.105	95.6697	933.105	95.9545	933.105	94.2702	933.105	93.8725	933.105	92.6378	933.105	91.3866	933.105	90.6873	933.105	89.0143	933.105	89.0793	933.105	87.0744	933.105	88.4308	933.105	85.1991	933.105	88.0251	933.105	83.5685	933.105	87.6899	933.105	83.4635	933.105	87.7768	933.105	84.3799	933.105	88.0469	933.105	84.8448	933.105	88.3357	933.105	84.0921	933.105	87.9331	933.105	82.093	933.105	86.0649	933.105	83.085	933.105	83.6441	933.105	86.6011	933.105	84.0447	933.105	87.8048	933.105	86.5662
965.332	98.6942	965.332	98.0963	965.332	98.4004	965.332	96.903	965.332	97.4148	965.332	95.5328	965.332	96.3076	965.332	94.0943	965.332	94.9706	965.332	92.4109	965.332	92.7618	965.332	90.4044	965.332	89.834	965.332	88.2069	965.332	86.9574	965.332	85.9129	965.332	84.4013	965.332	84.2053	965.332	82.1075	965.332	83.9034	965.332	78.5207	965.332	83.3805	965.332	73.9701	965.332	80.8123	965.332	79.9892	965.332	78.5603	965.332	84.2549	965.332	81.8893	965.332	85.7978	965.332	85.6873	965.332	84.7256	965.332	87.1312	965.332	84.2657	965.332	87.6133	965.332	86.8516	965.332	87.9721
1,000.49	98.2788	1,000.49	98.4218	1,000.49	97.4402	1,000.49	97.375	1,000.49	96.9593	1,000.49	95.2324	1,000.49	96.8144	1,000.49	92.6298	1,000.49	95.7977	1,000.49	90.9422	1,000.49	93.4645	1,000.49	90.2062	1,000.49	90.5304	1,000.49	88.7267	1,000.49	87.9608	1,000.49	85.8838	1,000.49	86.256	1,000.49	82.4982	1,000.49	84.9533	1,000.49	80.6067	1,000.49	83.0426	1,000.49	81.6218	1,000.49	83.8754	1,000.49	84.3982	1,000.49	84.8089	1,000.49	85.8387	1,000.49	81.362	1,000.49	85.8285	1,000.49	77.7366	1,000.49	86.4344	1,000.49	83.4127	1,000.49	86.2085	1,000.49	86.8619	1,000.49	85.4565	1,000.49	87.3967	1,000.49	86.0563
1,035.64	98.3582	1,035.64	98.0534	1,035.64	98.0345	1,035.64	96.9968	1,035.64	97.3795	1,035.64	95.3745	1,035.64	96.301	1,035.64	93.427	1,035.64	94.5939	1,035.64	91.4943	1,035.64	92.6818	1,035.64	90.2198	1,035.64	91.0171	1,035.64	89.3962	1,035.64	89.1264	1,035.64	87.8304	1,035.64	87.0984	1,035.64	86.0722	1,035.64	86.1932	1,035.64	85.0524	1,035.64	85.1285	1,035.64	81.9318	1,035.64	82.3752	1,035.64	79.4671	1,035.64	79.5884	1,035.64	82.544	1,035.64	77.6049	1,035.64	82.445	1,035.64	77.7332	1,035.64	82.7621	1,035.64	78.6883	1,035.64	85.0172	1,035.64	84.2145	1,035.64	86.9241	1,035.64	87.7539	1,035.64	88.1686
1,072.27	97.2954	1,072.27	97.4907	1,072.27	97.1472	1,072.27	96.9473	1,072.27	97.1403	1,072.27	95.153	1,072.27	96.3342	1,072.27	92.2578	1,072.27	93.9858	1,072.27	89.5288	1,072.27	91.0558	1,072.27	89.1069	1,072.27	89.765	1,072.27	90.2188	1,072.27	88.6591	1,072.27	90.2453	1,072.27	86.7088	1,072.27	89.2142	1,072.27	84.569	1,072.27	88.4573	1,072.27	81.8192	1,072.27	87.2456	1,072.27	76.7735	1,072.27	84.8043	1,072.27	81.5936	1,072.27	84.2306	1,072.27	85.2259	1,072.27	83.8257	1,072.27	84.3731	1,072.27	83.0233	1,072.27	75.3259	1,072.27	84.7463	1,072.27	82.4603	1,072.27	86.4662	1,072.27	87.3519	1,072.27	87.6703
1,108.89	97.2874	1,108.89	96.6437	1,108.89	97.1318	1,108.89	95.6727	1,108.89	96.2059	1,108.89	94.7664	1,108.89	95.2292	1,108.89	94.0967	1,108.89	94.356	1,108.89	93.3212	1,108.89	93.2184	1,108.89	91.6949	1,108.89	91.6859	1,108.89	89.4355	1,108.89	89.5371	1,108.89	86.8408	1,108.89	87.3642	1,108.89	83.1276	1,108.89	85.463	1,108.89	83.5741	1,108.89	84.5519	1,108.89	85.4185	1,108.89	84.8062	1,108.89	84.1129	1,108.89	82.3005	1,108.89	83.5394	1,108.89	80.3405	1,108.89	84.4972	1,108.89	85.2617	1,108.89	82.8085	1,108.89	84.3265	1,108.89	82.9222	1,108.89	76.3198	1,108.89	87.264	1,108.89	85.7739	1,108.89	88.7084
1,148.44	96.3776	1,148.44	96.8395	1,148.44	96.0346	1,148.44	96.5904	1,148.44	95.8974	1,148.44	95.4098	1,148.44	95.0095	1,148.44	93.9945	1,148.44	93.379	1,148.44	92.9478	1,148.44	92.5044	1,148.44	91.6	1,148.44	91.9759	1,148.44	90.1271	1,148.44	90.656	1,148.44	89.7201	1,148.44	88.7871	1,148.44	88.5907	1,148.44	86.2878	1,148.44	86.4189	1,148.44	82.9169	1,148.44	86.2204	1,148.44	81.6507	1,148.44	86.4237	1,148.44	83.3056	1,148.44	85.9551	1,148.44	85.494	1,148.44	86.8223	1,148.44	86.4431	1,148.44	86.7505	1,148.44	83.4747	1,148.44	83.9103	1,148.44	83.152	1,148.44	83.8534	1,148.44	84.9972	1,148.44	85.3571
1,189.45	96.3196	1,189.45	95.9547	1,189.45	96.5161	1,189.45	95.4861	1,189.45	96.078	1,189.45	94.9907	1,189.45	94.5013	1,189.45	94.3989	1,189.45	93.0522	1,189.45	93.2764	1,189.45	93.2325	1,189.45	91.1682	1,189.45	92.9811	1,189.45	87.0608	1,189.45	90.9301	1,189.45	81.5416	1,189.45	87.8031	1,189.45	79.2481	1,189.45	84.8828	1,189.45	74.5879	1,189.45	81.4954	1,189.45	75.3618	1,189.45	82.6748	1,189.45	84.7337	1,189.45	85.4557	1,189.45	88.131	1,189.45	85.7713	1,189.45	87.6487	1,189.45	87.6618	1,189.45	85.8053	1,189.45	84.2897	1,189.45	83.7838	1,189.45	82.882	1,189.45	84.5324	1,189.45	85.9932	1,189.45	85.1295
1,230.47	96.2962	1,230.47	95.9647	1,230.47	96.3576	1,230.47	95.3305	1,230.47	95.8064	1,230.47	94.4436	1,230.47	94.7072	1,230.47	93.3032	1,230.47	94.198	1,230.47	91.8708	1,230.47	93.8951	1,230.47	90.335	1,230.47	92.8995	1,230.47	87.7945	1,230.47	91.6408	1,230.47	84.5693	1,230.47	90.1	1,230.47	84.189	1,230.47	87.8183	1,230.47	83.3014	1,230.47	84.9492	1,230.47	78.9681	1,230.47	81.2516	1,230.47	81.3757	1,230.47	80.1143	1,230.47	85.6039	1,230.47	84.2434	1,230.47	87.5527	1,230.47	86.6721	1,230.47	86.8081	1,230.47	83.2373	1,230.47	82.9482	1,230.47	84.8584	1,230.47	81.0138	1,230.47	86.5664	1,230.47	83.4684
1,274.41	96.9925	1,274.41	96.3534	1,274.41	96.852	1,274.41	95.428	1,274.41	95.7481	1,274.41	94.5683	1,274.41	94.328	1,274.41	93.3615	1,274.41	93.7682	1,274.41	91.1897	1,274.41	93.5126	1,274.41	90.1439	1,274.41	91.9776	1,274.41	90.5498	1,274.41	90.2517	1,274.41	88.2251	1,274.41	89.9361	1,274.41	82.6377	1,274.41	88.7401	1,274.41	81.5548	1,274.41	86.1157	1,274.41	81.2686	1,274.41	82.0357	1,274.41	72.4848	1,274.41	80.9459	1,274.41	80.2429	1,274.41	83.227	1,274.41	86.1054	1,274.41	84.8608	1,274.41	85.1026	1,274.41	82.6813	1,274.41	80.0491	1,274.41	81.6676	1,274.41	77.6474	1,274.41	85.8822	1,274.41	82.4986
1,319.82	97.6027	1,319.82	96.586	1,319.82	97.4729	1,319.82	95.2868	1,319.82	96.3861	1,319.82	94.6543	1,319.82	95.6076	1,319.82	94.2059	1,319.82	95.0195	1,319.82	92.3469	1,319.82	93.9894	1,319.82	88.8887	1,319.82	92.6662	1,319.82	87.6395	1,319.82	91.6577	1,319.82	87.2891	1,319.82	90.5913	1,319.82	84.1708	1,319.82	88.4737	1,319.82	79.5604	1,319.82	86.2903	1,319.82	83.7305	1,319.82	83.2731	1,319.82	83.894	1,319.82	79.4716	1,319.82	79.2293	1,319.82	82.9892	1,319.82	86.5336	1,319.82	85.7331	1,319.82	84.9008	1,319.82	85.6717	1,319.82	77.924	1,319.82	81.9262	1,319.82	76.0069	1,319.82	87.1	1,319.82	84.7532
1,366.7	97.3376	1,366.7	96.8987	1,366.7	97.2111	1,366.7	95.6006	1,366.7	97.3927	1,366.7	94.4132	1,366.7	96.8133	1,366.7	94.0083	1,366.7	95.2516	1,366.7	93.0401	1,366.7	94.3825	1,366.7	90.9535	1,366.7	93.7592	1,366.7	88.9932	1,366.7	92.416	1,366.7	89.4186	1,366.7	91.1819	1,366.7	89.7239	1,366.7	90.2853	1,366.7	87.0092	1,366.7	87.348	1,366.7	82.9478	1,366.7	85.3504	1,366.7	83.3199	1,366.7	78.5232	1,366.7	74.9867	1,366.7	84.8798	1,366.7	84.7704	1,366.7	88.4152	1,366.7	85.6114	1,366.7	86.5821	1,366.7	80.9723	1,366.7	85.0272	1,366.7	81.5361	1,366.7	86.8209	1,366.7	86.5784
1,413.57	96.4128	1,413.57	96.2046	1,413.57	96.7671	1,413.57	95.1711	1,413.57	96.9541	1,413.57	93.8496	1,413.57	96.0139	1,413.57	92.3165	1,413.57	94.9483	1,413.57	90.4992	1,413.57	93.5273	1,413.57	89.3744	1,413.57	91.5292	1,413.57	89.8819	1,413.57	90.8532	1,413.57	90.0306	1,413.57	89.7186	1,413.57	88.4666	1,413.57	86.3292	1,413.57	86.6777	1,413.57	84.6515	1,413.57	86.0002	1,413.57	84.4611	1,413.57	84.9337	1,413.57	82.7239	1,413.57	83.3356	1,413.57	84.44	1,413.57	74.9454	1,413.57	87.3376	1,413.57	86.1188	1,413.57	87.1244	1,413.57	82.1293	1,413.57	84.5155	1,413.57	73.7818	1,413.57	87.7264	1,413.57	84.3391
1,463.38	95.3404	1,463.38	95.273	1,463.38	95.6874	1,463.38	95.7741	1,463.38	95.4615	1,463.38	95.8107	1,463.38	95.0142	1,463.38	93.7149	1,463.38	94.7003	1,463.38	91.3673	1,463.38	92.8979	1,463.38	90.1172	1,463.38	91.1953	1,463.38	86.3762	1,463.38	90.9001	1,463.38	81.5594	1,463.38	89.9189	1,463.38	73.4093	1,463.38	89.1585	1,463.38	77.9004	1,463.38	87.2595	1,463.38	81.6643	1,463.38	86.9484	1,463.38	86.1033	1,463.38	85.7245	1,463.38	87.0635	1,463.38	79.1749	1,463.38	72.136	1,463.38	88.9813	1,463.38	84.2656	1,463.38	87.7567	1,463.38	85.9593	1,463.38	84.2088	1,463.38	79.0714	1,463.38	85.3459	1,463.38	83.5557
1,516.11	96.0749	1,516.11	96.5547	1,516.11	93.7656	1,516.11	96.431	1,516.11	93.7143	1,516.11	96.6684	1,516.11	95.0542	1,516.11	94.4488	1,516.11	93.5116	1,516.11	89.733	1,516.11	91.3936	1,516.11	86.9724	1,516.11	90.008	1,516.11	81.5562	1,516.11	90.577	1,516.11	77.7163	1,516.11	91.2777	1,516.11	83.2804	1,516.11	90.3904	1,516.11	59.6715	1,516.11	89.5811	1,516.11	80.9949	1,516.11	86.4373	1,516.11	79.2761	1,516.11	85.5266	1,516.11	86.4538	1,516.11	81.3794	1,516.11	78.5733	1,516.11	83.6469	1,516.11	77.5843	1,516.11	86.9321	1,516.11	84.7891	1,516.11	83.5884	1,516.11	81.9002	1,516.11	81.4734	1,516.11	77.1922
1,568.85	95.9802	1,568.85	96.795	1,568.85	96.1205	1,568.85	96.061	1,568.85	96.0832	1,568.85	93.6797	1,568.85	93.627	1,568.85	91.1713	1,568.85	93.274	1,568.85	90.9112	1,568.85	93.2761	1,568.85	89.3488	1,568.85	89.8875	1,568.85	85.6318	1,568.85	84.8983	1,568.85	86.9546	1,568.85	84.2864	1,568.85	84.8787	1,568.85	83.847	1,568.85	82.1634	1,568.85	84.2481	1,568.85	83.113	1,568.85	82.9273	1,568.85	67.5785	1,568.85	83.888	1,568.85	82.5499	1,568.85	82.8977	1,568.85	80.274	1,568.85	80.0251	1,568.85	77.6762	1,568.85	74.6283	1,568.85	83.2021	1,568.85	82.4376	1,568.85	78.1919	1,568.85	81.2251	1,568.85	72.4497
1,624.51	95.7484	1,624.51	95.5747	1,624.51	96.6614	1,624.51	94.8682	1,624.51	96.2313	1,624.51	92.511	1,624.51	94.3969	1,624.51	90.7366	1,624.51	94.7325	1,624.51	92.3619	1,624.51	93.4725	1,624.51	92.0901	1,624.51	90.2269	1,624.51	89.1211	1,624.51	87.1759	1,624.51	86.6857	1,624.51	83.708	1,624.51	82.2245	1,624.51	82.7273	1,624.51	76.6716	1,624.51	81.8172	1,624.51	82.6842	1,624.51	79.3684	1,624.51	75.8333	1,624.51	81.3014	1,624.51	81.0476	1,624.51	81.0988	1,624.51	81.8226	1,624.51	78.9327	1,624.51	72.0408	1,624.51	82.0984	1,624.51	80.9152	1,624.51	79.8577	1,624.51	81.1896	1,624.51	76.7284	1,624.51	77.2718
1,681.64	96.3274	1,681.64	96.2256	1,681.64	96.1786	1,681.64	94.9747	1,681.64	96.2947	1,681.64	93.5338	1,681.64	95.8025	1,681.64	93.8228	1,681.64	95.5617	1,681.64	93.3979	1,681.64	94.081	1,681.64	89.1323	1,681.64	92.9531	1,681.64	87.1681	1,681.64	89.5546	1,681.64	83.4748	1,681.64	85.4494	1,681.64	77.3298	1,681.64	82.3304	1,681.64	81.6358	1,681.64	80.3455	1,681.64	75.0041	1,681.64	78.3077	1,681.64	78.4897	1,681.64	81.0825	1,681.64	74.5579	1,681.64	84.1434	1,681.64	83.1919	1,681.64	80.3757	1,681.64	79.2173	1,681.64	80.2041	1,681.64	83.1543	1,681.64	76.8194	1,681.64	83.545	1,681.64	76.8061	1,681.64	75.8108
1,741.7	97.1061	1,741.7	95.9976	1,741.7	96.705	1,741.7	95.4482	1,741.7	95.5972	1,741.7	94.9361	1,741.7	95.2187	1,741.7	94.3955	1,741.7	95.3321	1,741.7	94.1671	1,741.7	95.7122	1,741.7	90.5847	1,741.7	93.3475	1,741.7	85.2476	1,741.7	89.451	1,741.7	83.179	1,741.7	86.4264	1,741.7	78.3713	1,741.7	86.9256	1,741.7	84.021	1,741.7	83.9748	1,741.7	82.6279	1,741.7	80.9029	1,741.7	72.084	1,741.7	82.0036	1,741.7	78.5594	1,741.7	79.7729	1,741.7	80.2253	1,741.7	80.1096	1,741.7	80.5403	1,741.7	81.826	1,741.7	81.1272	1,741.7	81.0081	1,741.7	77.2438	1,741.7	86.2547	1,741.7	81.5198
1,803.22	96.8848	1,803.22	96.9856	1,803.22	96.5468	1,803.22	96.4128	1,803.22	96.1184	1,803.22	95.3518	1,803.22	95.2803	1,803.22	93.6462	1,803.22	94.9073	1,803.22	91.8674	1,803.22	94.202	1,803.22	89.4123	1,803.22	92.5955	1,803.22	83.7227	1,803.22	90.0053	1,803.22	82.2306	1,803.22	86.0261	1,803.22	83.5623	1,803.22	84.0189	1,803.22	80.3812	1,803.22	82.6012	1,803.22	51.3667	1,803.22	76.1841	1,803.22	79.0178	1,803.22	78.3227	1,803.22	75.6724	1,803.22	77.4516	1,803.22	78.435	1,803.22	81.2566	1,803.22	79.397	1,803.22	81.5435	1,803.22	82.2651	1,803.22	79.0653	1,803.22	81.3062	1,803.22	79.5698	1,803.22	78.5887
1,866.21	96.233	1,866.21	96.9072	1,866.21	95.8687	1,866.21	96.981	1,866.21	95.4625	1,866.21	95.023	1,866.21	94.8566	1,866.21	91.9376	1,866.21	94.1823	1,866.21	89.9604	1,866.21	93.2074	1,866.21	89.2807	1,866.21	91.4372	1,866.21	84.8098	1,866.21	89.3378	1,866.21	80.75	1,866.21	87.2884	1,866.21	76.5744	1,866.21	83.7961	1,866.21	80.3724	1,866.21	80.8832	1,866.21	77.8288	1,866.21	79.7008	1,866.21	76.1247	1,866.21	78.1801	1,866.21	76.891	1,866.21	81.26	1,866.21	76.4578	1,866.21	81.1478	1,866.21	75.805	1,866.21	82.5397	1,866.21	78.8393	1,866.21	81.8764	1,866.21	80.8934	1,866.21	79.6593	1,866.21	77.3469
1,932.13	95.5139	1,932.13	96.8308	1,932.13	94.6656	1,932.13	97.1322	1,932.13	94.3101	1,932.13	94.6712	1,932.13	93.6644	1,932.13	90.5558	1,932.13	93.6873	1,932.13	89.8585	1,932.13	92.3255	1,932.13	87.5955	1,932.13	91.5095	1,932.13	82.5458	1,932.13	88.3747	1,932.13	81.6782	1,932.13	87.0567	1,932.13	75.2269	1,932.13	83.7587	1,932.13	64.7771	1,932.13	78.5743	1,932.13	74.8553	1,932.13	78.4651	1,932.13	66.3875	1,932.13	76.2006	1,932.13	76.7663	1,932.13	79.9287	1,932.13	75.7231	1,932.13	78.5599	1,932.13	75.974	1,932.13	80.2108	1,932.13	78.1903	1,932.13	79.3695	1,932.13	80.1457	1,932.13	80.8761	1,932.13	80.5075
1,999.51	94.9363	1,999.51	96.3791	1,999.51	94.4271	1,999.51	96.1334	1,999.51	93.9559	1,999.51	93.9861	1,999.51	93.4976	1,999.51	92.728	1,999.51	91.5631	1,999.51	88.4936	1,999.51	91.6884	1,999.51	84.929	1,999.51	90.736	1,999.51	83.7779	1,999.51	88.7603	1,999.51	75.8793	1,999.51	85.7124	1,999.51	79.3553	1,999.51	84.9816	1,999.51	77.7229	1,999.51	81.5396	1,999.51	64.0374	1,999.51	79.2612	1,999.51	66.7733	1,999.51	76.0177	1,999.51	73.6201	1,999.51	77.3033	1,999.51	75.9665	1,999.51	76.8621	1,999.51	75.9887	1,999.51	78.344	1,999.51	80.2234	1,999.51	80.5406	1,999.51	78.9725	1,999.51	79.7855	1,999.51	77.8961
2,069.82	96.1778	2,069.82	95.8229	2,069.82	94.2013	2,069.82	93.7211	2,069.82	92.0297	2,069.82	93.6049	2,069.82	90.6394	2,069.82	91.3062	2,069.82	89.7846	2,069.82	86.2974	2,069.82	91.0319	2,069.82	82.7327	2,069.82	91.0478	2,069.82	78.1175	2,069.82	88.6434	2,069.82	71.9603	2,069.82	84.854	2,069.82	67.8328	2,069.82	80.0057	2,069.82	69.353	2,069.82	77.3217	2,069.82	72.9581	2,069.82	79.1882	2,069.82	63.5489	2,069.82	78.1733	2,069.82	69.9053	2,069.82	79.555	2,069.82	73.891	2,069.82	75.9816	2,069.82	74.9795	2,069.82	78.4879	2,069.82	79.0757	2,069.82	79.3618	2,069.82	77.4895	2,069.82	79.6936	2,069.82	73.81
2,143.07	96.7676	2,143.07	95.7123	2,143.07	95.531	2,143.07	93.2716	2,143.07	93.1309	2,143.07	92.2498	2,143.07	90.4127	2,143.07	90.1446	2,143.07	89.0848	2,143.07	87.7618	2,143.07	90.3426	2,143.07	81.2523	2,143.07	90.2407	2,143.07	79.9571	2,143.07	88.9441	2,143.07	80.2186	2,143.07	86.6811	2,143.07	74.4431	2,143.07	83.9645	2,143.07	70.2094	2,143.07	78.2012	2,143.07	65.7588	2,143.07	73.6606	2,143.07	74.2465	2,143.07	75.8392	2,143.07	71.8685	2,143.07	75.851	2,143.07	76.813	2,143.07	75.8176	2,143.07	74.0852	2,143.07	74.2875	2,143.07	78.7146	2,143.07	77.015	2,143.07	79.1865	2,143.07	79.3458	2,143.07	72.6466
2,219.24	96.181	2,219.24	95.7857	2,219.24	95.2443	2,219.24	94.4775	2,219.24	92.8535	2,219.24	90.0395	2,219.24	89.4997	2,219.24	88.182	2,219.24	88.7709	2,219.24	85.9023	2,219.24	90.7191	2,219.24	80.7964	2,219.24	89.7505	2,219.24	80.2622	2,219.24	89.2831	2,219.24	74.9575	2,219.24	85.3631	2,219.24	57.4189	2,219.24	83.5852	2,219.24	74.7318	2,219.24	79.158	2,219.24	68.1426	2,219.24	74.283	2,219.24	75.8143	2,219.24	71.4262	2,219.24	74.5125	2,219.24	76.6126	2,219.24	76.8823	2,219.24	74.7829	2,219.24	75.0578	2,219.24	65.87	2,219.24	77.3007	2,219.24	76.6271	2,219.24	77.3311	2,219.24	76.5153	2,219.24	68.4949
2,296.88	94.6189	2,296.88	95.4688	2,296.88	93.8108	2,296.88	94.5187	2,296.88	91.7845	2,296.88	90.3578	2,296.88	87.637	2,296.88	85.4553	2,296.88	87.9169	2,296.88	82.4363	2,296.88	90.2095	2,296.88	75.5499	2,296.88	90.6858	2,296.88	74.1051	2,296.88	88.1801	2,296.88	77.1621	2,296.88	83.7006	2,296.88	75.5769	2,296.88	82.7525	2,296.88	71.8893	2,296.88	82.0388	2,296.88	76.0514	2,296.88	79.1858	2,296.88	76.3421	2,296.88	73.568	2,296.88	76.1329	2,296.88	76.837	2,296.88	77.5086	2,296.88	74.4507	2,296.88	75.6718	2,296.88	67.9064	2,296.88	73.6652	2,296.88	76.0846	2,296.88	75.3954	2,296.88	76.4792	2,296.88	73.8882
2,378.91	94.2782	2,378.91	94.8043	2,378.91	92.0543	2,378.91	93.1409	2,378.91	87.9228	2,378.91	90.3395	2,378.91	79.2793	2,378.91	83.8521	2,378.91	85.4805	2,378.91	69.7702	2,378.91	91.1985	2,378.91	71.438	2,378.91	90.8373	2,378.91	79.5784	2,378.91	88.7219	2,378.91	79.0866	2,378.91	86.1289	2,378.91	77.7328	2,378.91	82.5926	2,378.91	76.8691	2,378.91	82.4767	2,378.91	73.1482	2,378.91	79.2526	2,378.91	77.0187	2,378.91	77.4036	2,378.91	77.8104	2,378.91	78.6966	2,378.91	78.3799	2,378.91	77.9592	2,378.91	77.6916	2,378.91	74.6975	2,378.91	75.3697	2,378.91	74.3881	2,378.91	76.6822	2,378.91	75.5726	2,378.91	73.8265
2,462.4	95.1635	2,462.4	94.797	2,462.4	91.7223	2,462.4	92.3326	2,462.4	85.9369	2,462.4	89.6966	2,462.4	70.2627	2,462.4	78.8023	2,462.4	85.8103	2,462.4	61.5801	2,462.4	90.8295	2,462.4	76.7922	2,462.4	91.807	2,462.4	73.0721	2,462.4	89.404	2,462.4	77.3833	2,462.4	86.4094	2,462.4	82.1358	2,462.4	82.1938	2,462.4	76.3196	2,462.4	82.4774	2,462.4	77.2471	2,462.4	75.6057	2,462.4	75.1249	2,462.4	75.9634	2,462.4	79.0533	2,462.4	77.3064	2,462.4	80.6139	2,462.4	80.61	2,462.4	78.5847	2,462.4	77.7021	2,462.4	76.8134	2,462.4	74.771	2,462.4	74.6662	2,462.4	73.5236	2,462.4	68.5483
2,548.83	96.4914	2,548.83	95.9474	2,548.83	93.4755	2,548.83	92.935	2,548.83	85.041	2,548.83	86.288	2,548.83	76.7963	2,548.83	80.9845	2,548.83	88.5128	2,548.83	63.4145	2,548.83	91.8495	2,548.83	81.2306	2,548.83	92.1371	2,548.83	82.6365	2,548.83	89.4198	2,548.83	83.6321	2,548.83	83.6286	2,548.83	78.9188	2,548.83	83.3611	2,548.83	79.4674	2,548.83	82.5106	2,548.83	79.1447	2,548.83	80.0365	2,548.83	79.4809	2,548.83	75.4972	2,548.83	80.8485	2,548.83	78.8165	2,548.83	82.2635	2,548.83	80.1421	2,548.83	81.2985	2,548.83	78.2842	2,548.83	79.3781	2,548.83	76.1616	2,548.83	74.8362	2,548.83	71.863	2,548.83	53.491
2,639.65	96.1409	2,639.65	96.1778	2,639.65	93.302	2,639.65	93.594	2,639.65	86.3201	2,639.65	86.8283	2,639.65	79.665	2,639.65	76.328	2,639.65	88.4694	2,639.65	83.0124	2,639.65	92.0712	2,639.65	84.9544	2,639.65	92.8157	2,639.65	86.853	2,639.65	89.4769	2,639.65	85.1428	2,639.65	84.7965	2,639.65	82.7799	2,639.65	84.3731	2,639.65	82.1564	2,639.65	82.9117	2,639.65	81.4455	2,639.65	77.1682	2,639.65	81.1978	2,639.65	77.4833	2,639.65	80.2957	2,639.65	80.5832	2,639.65	83.0014	2,639.65	81.5714	2,639.65	82.2929	2,639.65	79.6727	2,639.65	80.9722	2,639.65	75.3884	2,639.65	75.5166	2,639.65	74.4048	2,639.65	64.2225
2,731.93	94.8298	2,731.93	94.9821	2,731.93	92.2747	2,731.93	92.519	2,731.93	83.1549	2,731.93	87.5185	2,731.93	81.3564	2,731.93	78.96	2,731.93	89.424	2,731.93	86.6068	2,731.93	92.9484	2,731.93	86.5232	2,731.93	93.2278	2,731.93	87.927	2,731.93	89.818	2,731.93	82.9536	2,731.93	86.0484	2,731.93	83.5335	2,731.93	80.514	2,731.93	79.1785	2,731.93	82.8443	2,731.93	80.4821	2,731.93	76.5177	2,731.93	78.9733	2,731.93	75.7629	2,731.93	79.953	2,731.93	78.2661	2,731.93	82.294	2,731.93	80.7531	2,731.93	82.1866	2,731.93	78.2835	2,731.93	79.0653	2,731.93	77.6581	2,731.93	74.0449	2,731.93	74.2486	2,731.93	57.1154
2,828.61	95.1672	2,828.61	94.3697	2,828.61	92.0078	2,828.61	91.7499	2,828.61	82.527	2,828.61	85.1182	2,828.61	82.4062	2,828.61	85.9787	2,828.61	89.4698	2,828.61	86.5412	2,828.61	92.6923	2,828.61	87.5765	2,828.61	92.0718	2,828.61	84.6689	2,828.61	90.1873	2,828.61	84.5114	2,828.61	88.1737	2,828.61	81.9048	2,828.61	80.9663	2,828.61	80.0762	2,828.61	77.5486	2,828.61	78.394	2,828.61	78.6144	2,828.61	79.4618	2,828.61	76.5397	2,828.61	79.2218	2,828.61	80.1488	2,828.61	81.1005	2,828.61	79.2683	2,828.61	83.5066	2,828.61	78.6659	2,828.61	79.3865	2,828.61	77.751	2,828.61	77.139	2,828.61	74.0813	2,828.61	62.7324
2,928.22	96.719	2,928.22	95.8289	2,928.22	93.7295	2,928.22	91.2387	2,928.22	85.4395	2,928.22	83.612	2,928.22	83.4535	2,928.22	87.1618	2,928.22	89.8226	2,928.22	88.7378	2,928.22	92.4636	2,928.22	87.7955	2,928.22	91.5405	2,928.22	85.152	2,928.22	88.9418	2,928.22	85.1322	2,928.22	87.496	2,928.22	83.912	2,928.22	78.1839	2,928.22	82.9984	2,928.22	70.5741	2,928.22	80.3901	2,928.22	77.4136	2,928.22	80.693	2,928.22	78.0358	2,928.22	80.1454	2,928.22	77.5842	2,928.22	81.4664	2,928.22	80.0431	2,928.22	83.7137	2,928.22	79.2337	2,928.22	80.0337	2,928.22	77.2158	2,928.22	79.4269	2,928.22	72.5952	2,928.22	68.8849
3,030.76	96.9392	3,030.76	96.1032	3,030.76	94.8551	3,030.76	91.5042	3,030.76	87.2114	3,030.76	87.5217	3,030.76	84.5729	3,030.76	88.7441	3,030.76	89.1298	3,030.76	89.7171	3,030.76	92.6435	3,030.76	87.0015	3,030.76	92.1191	3,030.76	87.2214	3,030.76	89.9028	3,030.76	85.4254	3,030.76	86.546	3,030.76	84.2525	3,030.76	72.6086	3,030.76	81.5574	3,030.76	79.893	3,030.76	78.859	3,030.76	75.373	3,030.76	78.9371	3,030.76	71.7378	3,030.76	79.7485	3,030.76	79.5361	3,030.76	82.213	3,030.76	76.3527	3,030.76	83.3501	3,030.76	76.4167	3,030.76	80.3487	3,030.76	78.504	3,030.76	78.3564	3,030.76	69.4497	3,030.76	66.7173
3,137.7	96.3187	3,137.7	95.3698	3,137.7	95.4987	3,137.7	90.5987	3,137.7	89.3542	3,137.7	90.1804	3,137.7	83.5178	3,137.7	89.4528	3,137.7	89.2578	3,137.7	88.1845	3,137.7	92.4076	3,137.7	87.8329	3,137.7	91.0108	3,137.7	86.3307	3,137.7	90.3914	3,137.7	84.8075	3,137.7	84.7438	3,137.7	83.7385	3,137.7	84.0008	3,137.7	82.6162	3,137.7	84.395	3,137.7	81.1764	3,137.7	69.521	3,137.7	82.3324	3,137.7	75.8271	3,137.7	81.2698	3,137.7	80.6519	3,137.7	81.964	3,137.7	73.418	3,137.7	84.7968	3,137.7	73.2586	3,137.7	81.5448	3,137.7	78.1465	3,137.7	79.3534	3,137.7	66.4421	3,137.7	71.3061
3,249.02	95.7851	3,249.02	94.6321	3,249.02	94.563	3,249.02	91.5576	3,249.02	90.8991	3,249.02	91.3675	3,249.02	85.8831	3,249.02	89.8658	3,249.02	89.0706	3,249.02	88.9003	3,249.02	91.1494	3,249.02	88.6174	3,249.02	90.6207	3,249.02	86.6461	3,249.02	91.4725	3,249.02	87.4792	3,249.02	87.3317	3,249.02	85.7247	3,249.02	85.4454	3,249.02	82.8633	3,249.02	83.8605	3,249.02	79.7771	3,249.02	72.4605	3,249.02	81.6174	3,249.02	74.9108	3,249.02	80.5924	3,249.02	78.8697	3,249.02	83.0012	3,249.02	60.2209	3,249.02	84.853	3,249.02	76.0616	3,249.02	82.814	3,249.02	79.772	3,249.02	79.1641	3,249.02	69.9809	3,249.02	72.1235
3,363.28	95.4748	3,363.28	93.9137	3,363.28	94.332	3,363.28	92.0691	3,363.28	90.9029	3,363.28	90.5315	3,363.28	89.418	3,363.28	90.3393	3,363.28	87.1808	3,363.28	89.7869	3,363.28	90.1381	3,363.28	89.8817	3,363.28	90.8786	3,363.28	88.328	3,363.28	92.686	3,363.28	87.1234	3,363.28	88.9182	3,363.28	81.7239	3,363.28	87.2324	3,363.28	82.0192	3,363.28	82.8591	3,363.28	79.7848	3,363.28	63.2451	3,363.28	81.2183	3,363.28	76.1307	3,363.28	80.7164	3,363.28	80.1344	3,363.28	83.0911	3,363.28	69.2645	3,363.28	84.4917	3,363.28	76.7083	3,363.28	83.635	3,363.28	81.1872	3,363.28	79.3862	3,363.28	67.2454	3,363.28	71.5604
3,481.93	95.9894	3,481.93	95.1691	3,481.93	94.8092	3,481.93	92.4202	3,481.93	91.4903	3,481.93	89.6826	3,481.93	88.9865	3,481.93	90.6949	3,481.93	86.7697	3,481.93	91.12	3,481.93	86.9171	3,481.93	90.0993	3,481.93	91.6066	3,481.93	88.2805	3,481.93	92.0101	3,481.93	85.4126	3,481.93	89.0968	3,481.93	85.6206	3,481.93	87.719	3,481.93	83.1228	3,481.93	77.8559	3,481.93	80.19	3,481.93	79.4612	3,481.93	81.264	3,481.93	77.0059	3,481.93	80.1798	3,481.93	79.3305	3,481.93	83.4028	3,481.93	72.0301	3,481.93	84.9802	3,481.93	76.898	3,481.93	82.9987	3,481.93	80.3565	3,481.93	80.7639	3,481.93	62.1937	3,481.93	75.9917
3,604.98	95.6751	3,604.98	94.9834	3,604.98	94.9542	3,604.98	93.1064	3,604.98	92.4595	3,604.98	90.7496	3,604.98	90.1355	3,604.98	91.13	3,604.98	86.5338	3,604.98	92.5864	3,604.98	86.1926	3,604.98	90.8539	3,604.98	92.4986	3,604.98	88.1437	3,604.98	90.1981	3,604.98	88.2223	3,604.98	89.6442	3,604.98	82.3114	3,604.98	86.4989	3,604.98	82.275	3,604.98	81.3765	3,604.98	79.5574	3,604.98	83.1159	3,604.98	80.1842	3,604.98	73.5057	3,604.98	80.6103	3,604.98	78.4477	3,604.98	82.9975	3,604.98	71.4197	3,604.98	85.2347	3,604.98	77.5427	3,604.98	83.9713	3,604.98	79.1899	3,604.98	80.8707	3,604.98	64.3025	3,604.98	76.6509
3,732.42	95.5697	3,732.42	94.1814	3,732.42	95.0528	3,732.42	92.6474	3,732.42	92.3986	3,732.42	91.1904	3,732.42	91.1722	3,732.42	92.9023	3,732.42	88.0517	3,732.42	91.8358	3,732.42	87.7793	3,732.42	90.0724	3,732.42	93.0325	3,732.42	87.1767	3,732.42	90.6177	3,732.42	84.2822	3,732.42	88.395	3,732.42	84.7519	3,732.42	83.3895	3,732.42	81.8852	3,732.42	80.747	3,732.42	79.1824	3,732.42	84.8004	3,732.42	79.8363	3,732.42	69.2776	3,732.42	79.4662	3,732.42	75.3346	3,732.42	81.6633	3,732.42	74.7098	3,732.42	84.3053	3,732.42	77.7493	3,732.42	83.4674	3,732.42	79.0156	3,732.42	80.75	3,732.42	69.2864	3,732.42	77.8784
3,864.26	95.5107	3,864.26	95.2333	3,864.26	96.0126	3,864.26	92.9005	3,864.26	94.2627	3,864.26	92.1181	3,864.26	91.3662	3,864.26	94.2018	3,864.26	90.7678	3,864.26	92.1653	3,864.26	89.2444	3,864.26	89.5501	3,864.26	92.2443	3,864.26	87.6529	3,864.26	89.5043	3,864.26	87.9153	3,864.26	86.8183	3,864.26	84.5867	3,864.26	74.8001	3,864.26	82.0278	3,864.26	82.0389	3,864.26	79.9973	3,864.26	82.0262	3,864.26	78.2161	3,864.26	72.4155	3,864.26	81.7618	3,864.26	74.0512	3,864.26	81.6203	3,864.26	68.7999	3,864.26	84.5996	3,864.26	77.2254	3,864.26	82.9949	3,864.26	79.4306	3,864.26	80.9428	3,864.26	67.9207	3,864.26	78.625
4,000.49	94.6918	4,000.49	95.4165	4,000.49	94.9926	4,000.49	92.5522	4,000.49	95.1636	4,000.49	92.1037	4,000.49	93.7529	4,000.49	93.1786	4,000.49	93.0714	4,000.49	90.9891	4,000.49	91.0942	4,000.49	90.5437	4,000.49	92.3507	4,000.49	89.4003	4,000.49	91.3363	4,000.49	86.4083	4,000.49	85.49	4,000.49	83.0332	4,000.49	77.1615	4,000.49	80.4596	4,000.49	78.1425	4,000.49	79.2954	4,000.49	77.2396	4,000.49	80.4338	4,000.49	72.5533	4,000.49	82.1869	4,000.49	73.7067	4,000.49	79.8245	4,000.49	70.0126	4,000.49	84.878	4,000.49	77.3445	4,000.49	82.5661	4,000.49	80.2556	4,000.49	80.2634	4,000.49	66.7385	4,000.49	77.7939
4,141.11	95.4669	4,141.11	94.7713	4,141.11	94.6094	4,141.11	92.326	4,141.11	94.9424	4,141.11	95.0191	4,141.11	93.9777	4,141.11	93.5067	4,141.11	92.7051	4,141.11	92.4198	4,141.11	90.4182	4,141.11	90.8467	4,141.11	93.1533	4,141.11	88.096	4,141.11	89.0774	4,141.11	87.1211	4,141.11	85.9056	4,141.11	88.0847	4,141.11	78.9189	4,141.11	83.9586	4,141.11	80.3455	4,141.11	78.6903	4,141.11	84.5289	4,141.11	78.4804	4,141.11	72.418	4,141.11	80.0482	4,141.11	71.6082	4,141.11	79.9209	4,141.11	64.2952	4,141.11	85.317	4,141.11	72.3465	4,141.11	81.69	4,141.11	77.4073	4,141.11	81.8505	4,141.11	72.766	4,141.11	80.1666
4,287.6	96.1548	4,287.6	95.3824	4,287.6	94.8862	4,287.6	93.9302	4,287.6	94.6394	4,287.6	94.5773	4,287.6	94.986	4,287.6	92.6325	4,287.6	93.435	4,287.6	93.0436	4,287.6	87.5796	4,287.6	89.7906	4,287.6	91.4026	4,287.6	90.1999	4,287.6	84.7335	4,287.6	87.6061	4,287.6	87.5836	4,287.6	81.5076	4,287.6	86.8799	4,287.6	82.1568	4,287.6	84.3453	4,287.6	78.9643	4,287.6	86.6678	4,287.6	78.4485	4,287.6	74.4813	4,287.6	80.804	4,287.6	69.6497	4,287.6	82.2913	4,287.6	69.0741	4,287.6	85.5826	4,287.6	76.8113	4,287.6	83.4785	4,287.6	78.0303	4,287.6	81.1848	4,287.6	69.6912	4,287.6	81.3555
4,438.48	96.0652	4,438.48	95.7798	4,438.48	94.7459	4,438.48	94.928	4,438.48	95.4087	4,438.48	94.1601	4,438.48	94.5606	4,438.48	94.8507	4,438.48	94.3669	4,438.48	93.1969	4,438.48	87.0439	4,438.48	91.7116	4,438.48	87.6593	4,438.48	90.0529	4,438.48	90.1729	4,438.48	89.8541	4,438.48	91.1935	4,438.48	87.3899	4,438.48	87.5102	4,438.48	85.0135	4,438.48	86.1592	4,438.48	81.0031	4,438.48	86.8587	4,438.48	81.2615	4,438.48	78.3779	4,438.48	81.1627	4,438.48	67.0387	4,438.48	81.5964	4,438.48	72.9219	4,438.48	85.3076	4,438.48	75.8457	4,438.48	84.0445	4,438.48	78.4757	4,438.48	80.8665	4,438.48	68.2601	4,438.48	80.7979
4,595.21	96.5607	4,595.21	93.3439	4,595.21	94.8252	4,595.21	94.7297	4,595.21	96.1352	4,595.21	95.2527	4,595.21	95.9293	4,595.21	94.504	4,595.21	94.8863	4,595.21	93.2398	4,595.21	88.8497	4,595.21	92.7219	4,595.21	85.6847	4,595.21	92.9525	4,595.21	94.7592	4,595.21	88.9637	4,595.21	92.1173	4,595.21	87.4139	4,595.21	86.4788	4,595.21	83.296	4,595.21	84.4856	4,595.21	79.0413	4,595.21	84.0753	4,595.21	81.1794	4,595.21	78.6434	4,595.21	80.4732	4,595.21	76.837	4,595.21	81.2881	4,595.21	72.5312	4,595.21	85.2212	4,595.21	76.0052	4,595.21	81.2696	4,595.21	79.6199	4,595.21	81.9343	4,595.21	69.3546	4,595.21	81.001
4,756.35	96.9422	4,756.35	95.3866	4,756.35	94.3446	4,756.35	96.5157	4,756.35	96.3835	4,756.35	93.6967	4,756.35	95.0054	4,756.35	95.3985	4,756.35	95.0239	4,756.35	94.6097	4,756.35	89.6215	4,756.35	94.2115	4,756.35	90.74	4,756.35	90.0778	4,756.35	96.3238	4,756.35	89.4168	4,756.35	93.1542	4,756.35	85.8953	4,756.35	87.5914	4,756.35	82.5922	4,756.35	72.8163	4,756.35	80.1291	4,756.35	81.8023	4,756.35	77.1848	4,756.35	75.0496	4,756.35	81.0358	4,756.35	81.9151	4,756.35	82.211	4,756.35	72.4872	4,756.35	84.0806	4,756.35	76.4402	4,756.35	83.2595	4,756.35	75.6247	4,756.35	81.5377	4,756.35	69.2161	4,756.35	81.2278
4,924.8	96.4378	4,924.8	95.2896	4,924.8	94.9704	4,924.8	95.9015	4,924.8	95.4429	4,924.8	96.8256	4,924.8	95.6352	4,924.8	94.7168	4,924.8	95.6126	4,924.8	95.7711	4,924.8	91.5932	4,924.8	92.7812	4,924.8	93.6658	4,924.8	91.0344	4,924.8	96.9428	4,924.8	86.5806	4,924.8	90.9427	4,924.8	88.2	4,924.8	85.8243	4,924.8	83.4489	4,924.8	75.634	4,924.8	81.044	4,924.8	82.5192	4,924.8	79.9952	4,924.8	78.4277	4,924.8	80.0819	4,924.8	81.6486	4,924.8	82.0884	4,924.8	75.8217	4,924.8	83.8677	4,924.8	75.9435	4,924.8	82.7457	4,924.8	77.741	4,924.8	80.7081	4,924.8	73.7678	4,924.8	80.3969
5,097.66	96.1948	5,097.66	95.8763	5,097.66	96.7709	5,097.66	96.4709	5,097.66	95.1074	5,097.66	95.187	5,097.66	96.3803	5,097.66	96.299	5,097.66	95.7201	5,097.66	96.5764	5,097.66	91.3452	5,097.66	93.1839	5,097.66	93.7642	5,097.66	92.3572	5,097.66	95.1139	5,097.66	91.2147	5,097.66	89.2173	5,097.66	88.5831	5,097.66	85.7473	5,097.66	84.3987	5,097.66	69.0891	5,097.66	83.4234	5,097.66	72.5963	5,097.66	82.0041	5,097.66	76.8925	5,097.66	80.618	5,097.66	79.076	5,097.66	83.8524	5,097.66	74.5249	5,097.66	84.9595	5,097.66	72.4125	5,097.66	83.2035	5,097.66	79.7412	5,097.66	82.764	5,097.66	71.4649	5,097.66	81.9146
5,277.83	94.9315	5,277.83	96.1354	5,277.83	95.6077	5,277.83	95.8613	5,277.83	94.8039	5,277.83	95.7008	5,277.83	97.8073	5,277.83	97.0274	5,277.83	95.3956	5,277.83	95.5796	5,277.83	93.8697	5,277.83	94.2862	5,277.83	92.9518	5,277.83	93.297	5,277.83	92.5177	5,277.83	88.8646	5,277.83	90.2394	5,277.83	87.3755	5,277.83	85.7226	5,277.83	83.3875	5,277.83	81.6413	5,277.83	79.5509	5,277.83	85.6034	5,277.83	78.3279	5,277.83	73.1368	5,277.83	79.0787	5,277.83	78.2402	5,277.83	83.9182	5,277.83	72.7279	5,277.83	82.8004	5,277.83	66.8657	5,277.83	81.9567	5,277.83	80.1699	5,277.83	80.1503	5,277.83	72.346	5,277.83	80.8394
5,463.87	95.1716	5,463.87	96.0428	5,463.87	95.991	5,463.87	95.0046	5,463.87	94.9903	5,463.87	95.9884	5,463.87	98.1324	5,463.87	97.6071	5,463.87	95.832	5,463.87	95.5998	5,463.87	95.5482	5,463.87	94.9644	5,463.87	89.9888	5,463.87	91.9853	5,463.87	89.375	5,463.87	88.584	5,463.87	90.9868	5,463.87	85.2972	5,463.87	86.254	5,463.87	82.1654	5,463.87	78.9987	5,463.87	78.6178	5,463.87	84.8573	5,463.87	77.9831	5,463.87	75.4008	5,463.87	79.1791	5,463.87	78.4858	5,463.87	82.0579	5,463.87	76.4842	5,463.87	80.1257	5,463.87	56.9235	5,463.87	81.4361	5,463.87	77.2849	5,463.87	79.1192	5,463.87	73.2469	5,463.87	80.3277
5,657.23	94.562	5,657.23	95.8826	5,657.23	96.7223	5,657.23	95.2706	5,657.23	93.7532	5,657.23	96.8276	5,657.23	96.0112	5,657.23	97.0463	5,657.23	97.1086	5,657.23	95.9195	5,657.23	96.4446	5,657.23	93.6396	5,657.23	87.9857	5,657.23	89.5087	5,657.23	91.5547	5,657.23	86.5148	5,657.23	88.677	5,657.23	86.2733	5,657.23	87.2497	5,657.23	82.1262	5,657.23	69.8463	5,657.23	80.2524	5,657.23	75.7538	5,657.23	77.5677	5,657.23	70.7145	5,657.23	81.3617	5,657.23	77.338	5,657.23	81.8757	5,657.23	72.1996	5,657.23	80.646	5,657.23	62.2568	5,657.23	81.157	5,657.23	71.8807	5,657.23	80.0457	5,657.23	73.4108	5,657.23	78.4921
5,856.45	93.6696	5,856.45	95.3755	5,856.45	96.1287	5,856.45	95.0854	5,856.45	95.4912	5,856.45	97.2955	5,856.45	95.2245	5,856.45	96.8412	5,856.45	97.8	5,856.45	95.801	5,856.45	95.9597	5,856.45	91.6971	5,856.45	87.9939	5,856.45	91.5833	5,856.45	92.0015	5,856.45	87.8657	5,856.45	88.605	5,856.45	85.8009	5,856.45	86.7331	5,856.45	82.7416	5,856.45	69.3366	5,856.45	78.6314	5,856.45	82.1829	5,856.45	77.1438	5,856.45	71.5939	5,856.45	79.7559	5,856.45	69.6977	5,856.45	81.988	5,856.45	63.4072	5,856.45	79.2234	5,856.45	68.4404	5,856.45	81.4453	5,856.45	66.3244	5,856.45	75.703	5,856.45	76.3725	5,856.45	75.6835
6,062.99	94.6386	6,062.99	95.0014	6,062.99	95.3539	6,062.99	96.9988	6,062.99	97.6629	6,062.99	96.5657	6,062.99	95.88	6,062.99	96.4435	6,062.99	97.3054	6,062.99	94.9275	6,062.99	95.4309	6,062.99	92.7349	6,062.99	88.9692	6,062.99	91.1267	6,062.99	92.5597	6,062.99	87.1745	6,062.99	88.7661	6,062.99	84.9212	6,062.99	87.8964	6,062.99	80.753	6,062.99	63.4642	6,062.99	78.2858	6,062.99	77.7292	6,062.99	76.7602	6,062.99	76.4171	6,062.99	80.1381	6,062.99	65.7745	6,062.99	80.5578	6,062.99	71.1087	6,062.99	79.6227	6,062.99	65.7718	6,062.99	80.6637	6,062.99	76.278	6,062.99	75.9401	6,062.99	77.9044	6,062.99	75.7077
6,276.86	94.7598	6,276.86	94.4148	6,276.86	95.644	6,276.86	96.4334	6,276.86	96.082	6,276.86	96.2341	6,276.86	96.2174	6,276.86	96.4318	6,276.86	96.1852	6,276.86	94.0204	6,276.86	94.7785	6,276.86	93.0402	6,276.86	88.6932	6,276.86	89.541	6,276.86	93.1067	6,276.86	85.8567	6,276.86	90.5519	6,276.86	85.1068	6,276.86	86.511	6,276.86	82.007	6,276.86	77.7524	6,276.86	77.563	6,276.86	74.7194	6,276.86	75.8627	6,276.86	72.337	6,276.86	78.446	6,276.86	57.1661	6,276.86	79.7293	6,276.86	70.2115	6,276.86	78.1468	6,276.86	67.5424	6,276.86	77.7231	6,276.86	72.8556	6,276.86	74.7472	6,276.86	74.7298	6,276.86	75.7197
6,498.05	94.9295	6,498.05	94.398	6,498.05	94.092	6,498.05	96.7779	6,498.05	96.3084	6,498.05	95.3117	6,498.05	95.0737	6,498.05	95.9032	6,498.05	95.2359	6,498.05	94.5151	6,498.05	93.6707	6,498.05	91.1288	6,498.05	89.2885	6,498.05	89.9257	6,498.05	91.2783	6,498.05	86.2725	6,498.05	90.3943	6,498.05	83.2737	6,498.05	87.3472	6,498.05	80.1865	6,498.05	77.5581	6,498.05	75.6574	6,498.05	65.6725	6,498.05	77.211	6,498.05	66.7738	6,498.05	78.3404	6,498.05	63.1	6,498.05	80.236	6,498.05	74.5917	6,498.05	75.7606	6,498.05	70.5482	6,498.05	77.2252	6,498.05	71.6313	6,498.05	72.7714	6,498.05	73.1153	6,498.05	72.0945
6,726.56	95.1894	6,726.56	95.4824	6,726.56	94.5093	6,726.56	96.2389	6,726.56	96.4576	6,726.56	95.6307	6,726.56	93.9401	6,726.56	95.7343	6,726.56	95.0365	6,726.56	93.9983	6,726.56	92.9151	6,726.56	90.7085	6,726.56	89.5118	6,726.56	89.1007	6,726.56	91.4505	6,726.56	84.8611	6,726.56	87.6709	6,726.56	81.7425	6,726.56	76.2103	6,726.56	80.3733	6,726.56	74.99	6,726.56	74.0249	6,726.56	71.0486	6,726.56	75.0846	6,726.56	66.7744	6,726.56	76.4318	6,726.56	62.879	6,726.56	79.3836	6,726.56	76.2972	6,726.56	77.3393	6,726.56	68.2755	6,726.56	73.3642	6,726.56	70.0295	6,726.56	75.9956	6,726.56	71.1695	6,726.56	72.1452
6,963.87	94.3184	6,963.87	95.1467	6,963.87	95.1282	6,963.87	95.5335	6,963.87	96.3088	6,963.87	95.5702	6,963.87	93.8251	6,963.87	94.9728	6,963.87	94.5946	6,963.87	92.933	6,963.87	91.8134	6,963.87	90.6861	6,963.87	89.1161	6,963.87	86.9786	6,963.87	87.8139	6,963.87	84.6293	6,963.87	84.2379	6,963.87	82.7073	6,963.87	80.4311	6,963.87	79.6526	6,963.87	73.9045	6,963.87	74.0618	6,963.87	67.1492	6,963.87	72.8683	6,963.87	72.336	6,963.87	77.9824	6,963.87	69.5857	6,963.87	80.3651	6,963.87	73.0087	6,963.87	76.0841	6,963.87	68.8442	6,963.87	73.3508	6,963.87	64.3436	6,963.87	75.3711	6,963.87	73.0158	6,963.87	68.6713
7,209.96	94.7681	7,209.96	95.2581	7,209.96	95.251	7,209.96	95.1629	7,209.96	95.6532	7,209.96	95.2513	7,209.96	95.1486	7,209.96	93.9886	7,209.96	93.9742	7,209.96	92.9521	7,209.96	92.1433	7,209.96	89.6994	7,209.96	87.953	7,209.96	88.0432	7,209.96	75.1419	7,209.96	84.104	7,209.96	87.4051	7,209.96	81.6257	7,209.96	83.9231	7,209.96	77.0665	7,209.96	74.7275	7,209.96	76.5674	7,209.96	75.1984	7,209.96	73.6975	7,209.96	73.7968	7,209.96	76.766	7,209.96	66.2054	7,209.96	79.0425	7,209.96	69.4085	7,209.96	74.9776	7,209.96	63.9464	7,209.96	75.6903	7,209.96	65.079	7,209.96	72.8028	7,209.96	70.4681	7,209.96	62.613
7,464.84	94.5933	7,464.84	95.6158	7,464.84	95.9752	7,464.84	95.5485	7,464.84	95.6745	7,464.84	94.4537	7,464.84	94.4411	7,464.84	94.2499	7,464.84	91.6903	7,464.84	92.1435	7,464.84	93.8618	7,464.84	89.4846	7,464.84	84.279	7,464.84	86.8056	7,464.84	88.5652	7,464.84	82.6261	7,464.84	88.6182	7,464.84	81.4209	7,464.84	82.7347	7,464.84	78.8714	7,464.84	58.4337	7,464.84	73.8153	7,464.84	73.6267	7,464.84	70.3437	7,464.84	75.8887	7,464.84	76.0143	7,464.84	62.5676	7,464.84	78.9459	7,464.84	56.0618	7,464.84	76.1181	7,464.84	67.3819	7,464.84	75.0782	7,464.84	63.9604	7,464.84	70.5905	7,464.84	71.6831	7,464.84	59.5828
7,727.05	94.7331	7,727.05	95.4255	7,727.05	94.4939	7,727.05	94.9614	7,727.05	95.9297	7,727.05	94.0155	7,727.05	93.915	7,727.05	94.7637	7,727.05	91.4929	7,727.05	90.7404	7,727.05	93.6076	7,727.05	89.1344	7,727.05	84.7839	7,727.05	86.796	7,727.05	91.011	7,727.05	84.1991	7,727.05	86.748	7,727.05	79.4014	7,727.05	85.137	7,727.05	79.0472	7,727.05	77.9725	7,727.05	75.1256	7,727.05	71.9822	7,727.05	71.7121	7,727.05	69.359	7,727.05	77.2011	7,727.05	65.6616	7,727.05	79.3919	7,727.05	64.9449	7,727.05	76.8164	7,727.05	56.4058	7,727.05	76.1388	7,727.05	64.2771	7,727.05	74.8247	7,727.05	71.3889	7,727.05	65.9512
7,999.51	95.5174	7,999.51	95.1131	7,999.51	94.238	7,999.51	94.476	7,999.51	93.5879	7,999.51	94.3418	7,999.51	95.3925	7,999.51	92.9347	7,999.51	91.1669	7,999.51	90.7261	7,999.51	93.9385	7,999.51	88.7755	7,999.51	85.3994	7,999.51	87.0767	7,999.51	91.7037	7,999.51	83.9221	7,999.51	82.4244	7,999.51	79.5546	7,999.51	82.558	7,999.51	79.7216	7,999.51	72.5155	7,999.51	69.6202	7,999.51	67.946	7,999.51	72.2866	7,999.51	65.6984	7,999.51	77.4717	7,999.51	64.7756	7,999.51	77.9887	7,999.51	66.1403	7,999.51	75.892	7,999.51	58.2715	7,999.51	76.443	7,999.51	59.1133	7,999.51	71.985	7,999.51	69.1179	7,999.51	66.4228
8,282.23	94.8926	8,282.23	94.0547	8,282.23	94.3923	8,282.23	94.8865	8,282.23	93.711	8,282.23	93.1206	8,282.23	94.5364	8,282.23	91.7576	8,282.23	90.8393	8,282.23	91.0691	8,282.23	92.2633	8,282.23	88.5321	8,282.23	86.1588	8,282.23	86.6662	8,282.23	87.2491	8,282.23	83.6367	8,282.23	83.6214	8,282.23	79.2492	8,282.23	77.5519	8,282.23	78.1759	8,282.23	71.7007	8,282.23	70.013	8,282.23	68.8788	8,282.23	69.4851	8,282.23	67.7491	8,282.23	75.9216	8,282.23	60.4427	8,282.23	77.4751	8,282.23	69.9499	8,282.23	75.633	8,282.23	53.8824	8,282.23	75.3921	8,282.23	61.6149	8,282.23	74.7056	8,282.23	70.5391	8,282.23	69.0568
8,573.73	94.7171	8,573.73	94.9544	8,573.73	94.1193	8,573.73	94.6675	8,573.73	93.2017	8,573.73	92.3	8,573.73	91.6606	8,573.73	91.7087	8,573.73	89.931	8,573.73	90.6216	8,573.73	88.3209	8,573.73	88.5598	8,573.73	86.4763	8,573.73	85.8754	8,573.73	78.5207	8,573.73	82.3645	8,573.73	87.3347	8,573.73	78.3599	8,573.73	79.2686	8,573.73	75.2188	8,573.73	76.2525	8,573.73	71.6938	8,573.73	71.1614	8,573.73	69.0816	8,573.73	68.2663	8,573.73	72.0909	8,573.73	59.4564	8,573.73	75.1355	8,573.73	67.3661	8,573.73	75.5789	8,573.73	56.6859	8,573.73	75.8417	8,573.73	48.4069	8,573.73	73.935	8,573.73	69.9855	8,573.73	65.6838
8,876.95	93.992	8,876.95	94.6286	8,876.95	93.7491	8,876.95	93.5523	8,876.95	94.0745	8,876.95	91.4304	8,876.95	92.2309	8,876.95	91.6487	8,876.95	90.1325	8,876.95	89.9955	8,876.95	89.6309	8,876.95	88.4138	8,876.95	86.9585	8,876.95	84.7897	8,876.95	83.3457	8,876.95	82.1106	8,876.95	86.1822	8,876.95	76.9531	8,876.95	80.405	8,876.95	75.5544	8,876.95	70.2666	8,876.95	68.0588	8,876.95	57.4576	8,876.95	68.4588	8,876.95	69.0667	8,876.95	71.954	8,876.95	65.5748	8,876.95	74.2153	8,876.95	66.8209	8,876.95	75.3362	8,876.95	58.6323	8,876.95	74.9536	8,876.95	57.9064	8,876.95	72.096	8,876.95	63.2071	8,876.95	66.619
9,188.96	94.6172	9,188.96	94.1377	9,188.96	93.2483	9,188.96	92.7275	9,188.96	93.5404	9,188.96	91.4625	9,188.96	93.2737	9,188.96	90.7404	9,188.96	90.2748	9,188.96	90.3213	9,188.96	91.8298	9,188.96	87.6646	9,188.96	87.6316	9,188.96	84.2407	9,188.96	83.3279	9,188.96	81.4458	9,188.96	83.4778	9,188.96	77.1162	9,188.96	75.0723	9,188.96	75.0145	9,188.96	71.2248	9,188.96	68.13	9,188.96	72.3283	9,188.96	66.1054	9,188.96	54.6625	9,188.96	71.5123	9,188.96	56.962	9,188.96	74.3443	9,188.96	55.1091	9,188.96	74.171	9,188.96	64.059	9,188.96	73.0338	9,188.96	59.9589	9,188.96	73.9749	9,188.96	62.4836	9,188.96	66.9069
9,514.16	94.1182	9,514.16	94.0696	9,514.16	93.2033	9,514.16	92.4276	9,514.16	91.89	9,514.16	90.7496	9,514.16	91.1844	9,514.16	91.2896	9,514.16	91.3178	9,514.16	89.6738	9,514.16	91.2455	9,514.16	87.4492	9,514.16	86.6159	9,514.16	84.7205	9,514.16	81.8953	9,514.16	80.2905	9,514.16	83.1098	9,514.16	75.7591	9,514.16	78.1644	9,514.16	73.4127	9,514.16	68.6501	9,514.16	69.4198	9,514.16	65.7418	9,514.16	67.0363	9,514.16	65.4678	9,514.16	71.5458	9,514.16	56.8579	9,514.16	72.949	9,514.16	52.7426	9,514.16	73.2081	9,514.16	66.2624	9,514.16	73.3146	9,514.16	60.6814	9,514.16	71.8418	9,514.16	63.997	9,514.16	63.665
9,849.61	94.6358	9,849.61	94.3109	9,849.61	93.375	9,849.61	91.9377	9,849.61	91.4307	9,849.61	91.213	9,849.61	91.0925	9,849.61	91.5115	9,849.61	92.0671	9,849.61	89.2334	9,849.61	88.377	9,849.61	88.0843	9,849.61	87.0234	9,849.61	84.028	9,849.61	76.6633	9,849.61	80.6169	9,849.61	82.6261	9,849.61	77.7187	9,849.61	75.4995	9,849.61	71.8181	9,849.61	72.766	9,849.61	68.421	9,849.61	65.4597	9,849.61	65.9793	9,849.61	53.2445	9,849.61	70.1111	9,849.61	54.4841	9,849.61	73.1984	9,849.61	64.3631	9,849.61	71.8187	9,849.61	65.844	9,849.61	72.5036	9,849.61	63.0164	9,849.61	71.54	9,849.61	62.7641	9,849.61	65.3125
10,196.8	95.4988	10,196.8	94.3075	10,196.8	93.2938	10,196.8	92.7371	10,196.8	91.8038	10,196.8	91.7054	10,196.8	91.9322	10,196.8	91.3972	10,196.8	92.0522	10,196.8	90.4988	10,196.8	86.7703	10,196.8	87.5207	10,196.8	88.1799	10,196.8	83.9863	10,196.8	71.6265	10,196.8	80.6855	10,196.8	82.3634	10,196.8	75.6089	10,196.8	73.0869	10,196.8	71.7617	10,196.8	67.565	10,196.8	67.8476	10,196.8	58.9041	10,196.8	67.5098	10,196.8	60.72	10,196.8	69.9676	10,196.8	50.8563	10,196.8	73.0416	10,196.8	68.2587	10,196.8	72.2243	10,196.8	63.8698	10,196.8	71.0579	10,196.8	63.7709	10,196.8	70.7923	10,196.8	56.4547	10,196.8	66.8481
10,555.7	95.6803	10,555.7	94.4991	10,555.7	93.7983	10,555.7	93.055	10,555.7	91.652	10,555.7	91.5045	10,555.7	91.6202	10,555.7	91.8702	10,555.7	90.4444	10,555.7	89.9788	10,555.7	88.3499	10,555.7	87.0913	10,555.7	88.0771	10,555.7	82.9057	10,555.7	78.0463	10,555.7	80.6207	10,555.7	81.3704	10,555.7	75.7474	10,555.7	79.2388	10,555.7	73.4228	10,555.7	70.5555	10,555.7	68.3997	10,555.7	63.9805	10,555.7	63.1789	10,555.7	65.8515	10,555.7	68.1395	10,555.7	60.0029	10,555.7	72.9518	10,555.7	64.1126	10,555.7	72.7419	10,555.7	57.3717	10,555.7	70.6405	10,555.7	58.8587	10,555.7	69.0397	10,555.7	53.752	10,555.7	65.6058
10,927.7	95.3485	10,927.7	94.4175	10,927.7	94.2163	10,927.7	92.2069	10,927.7	92.7338	10,927.7	91.8509	10,927.7	91.5157	10,927.7	91.5157	10,927.7	90.1281	10,927.7	89.0554	10,927.7	88.5742	10,927.7	86.7208	10,927.7	86.2077	10,927.7	82.6885	10,927.7	76.3478	10,927.7	79.972	10,927.7	81.9997	10,927.7	75.6685	10,927.7	75.9952	10,927.7	70.5976	10,927.7	69.0222	10,927.7	65.3365	10,927.7	60.8657	10,927.7	61.0322	10,927.7	49.2481	10,927.7	67.4174	10,927.7	57.1071	10,927.7	72.1593	10,927.7	63.844	10,927.7	72.4629	10,927.7	62.0355	10,927.7	69.2944	10,927.7	46.6634	10,927.7	67.2012	10,927.7	59.9213	10,927.7	63.5766
11,313	95.3212	11,313	93.9534	11,313	94.0915	11,313	92.8138	11,313	92.6829	11,313	91.5047	11,313	91.6171	11,313	91.3466	11,313	89.942	11,313	88.3082	11,313	87.7916	11,313	85.979	11,313	85.4619	11,313	82.4048	11,313	79.5735	11,313	78.8768	11,313	74.6006	11,313	73.7076	11,313	65.9679	11,313	70.8167	11,313	71.0509	11,313	68.4247	11,313	62.819	11,313	62.1336	11,313	66.133	11,313	68.4734	11,313	59.0494	11,313	70.2773	11,313	61.713	11,313	70.5371	11,313	62.4949	11,313	68.4501	11,313	51.6208	11,313	67.1587	11,313	58.7586	11,313	65.0131
11,712.9	94.7622	11,712.9	93.8324	11,712.9	94.247	11,712.9	92.8692	11,712.9	93.1658	11,712.9	91.4432	11,712.9	90.0612	11,712.9	91.0263	11,712.9	89.3102	11,712.9	87.5978	11,712.9	88.1002	11,712.9	85.8089	11,712.9	85.9969	11,712.9	81.7068	11,712.9	79.3612	11,712.9	79.2247	11,712.9	74.6949	11,712.9	73.6652	11,712.9	74.3376	11,712.9	68.325	11,712.9	70.6964	11,712.9	62.0909	11,712.9	64.1505	11,712.9	59.5488	11,712.9	67.7616	11,712.9	67.9746	11,712.9	46.5614	11,712.9	69.5145	11,712.9	59.3927	11,712.9	69.866	11,712.9	58.1893	11,712.9	68.5606	11,712.9	56.1207	11,712.9	65.373	11,712.9	60.4639	11,712.9	62.628
12,126	94.0148	12,126	93.6288	12,126	94.0206	12,126	92.6605	12,126	93.0985	12,126	91.7022	12,126	89.9646	12,126	89.7754	12,126	88.9711	12,126	87.4905	12,126	87.9326	12,126	85.2015	12,126	86.4148	12,126	81.0925	12,126	79.4442	12,126	77.2519	12,126	76.9141	12,126	73.2747	12,126	72.4339	12,126	67.9037	12,126	70.5471	12,126	64.0169	12,126	67.9512	12,126	55.5363	12,126	61.6029	12,126	65.2718	12,126	34.423	12,126	68.0385	12,126	59.6205	12,126	67.7529	12,126	56.1371	12,126	67.8586	12,126	51.2183	12,126	64.3294	12,126	56.8773	12,126	61.9979
12,553.7	93.7779	12,553.7	93.3521	12,553.7	93.7512	12,553.7	93.3432	12,553.7	92.7746	12,553.7	90.7759	12,553.7	89.99	12,553.7	89.5392	12,553.7	89.9847	12,553.7	86.7013	12,553.7	86.9236	12,553.7	84.5058	12,553.7	83.1849	12,553.7	80.1963	12,553.7	80.4311	12,553.7	76.0549	12,553.7	68.878	12,553.7	69.9509	12,553.7	67.3236	12,553.7	69.0698	12,553.7	67.7806	12,553.7	59.7265	12,553.7	68.3476	12,553.7	53.7737	12,553.7	60.4387	12,553.7	63.0677	12,553.7	57.7783	12,553.7	66.4031	12,553.7	59.3657	12,553.7	68.201	12,553.7	56.4083	12,553.7	66.701	12,553.7	51.1862	12,553.7	61.2692	12,553.7	60.8984	12,553.7	60.1154
12,996.1	93.4525	12,996.1	93.5726	12,996.1	93.7881	12,996.1	93.0525	12,996.1	93.0294	12,996.1	90.5081	12,996.1	90.7454	12,996.1	88.9456	12,996.1	88.9772	12,996.1	86.0237	12,996.1	87.2443	12,996.1	83.647	12,996.1	82.5928	12,996.1	78.4086	12,996.1	80.2143	12,996.1	74.6058	12,996.1	64.472	12,996.1	69.1113	12,996.1	67.5466	12,996.1	62.8642	12,996.1	69.3512	12,996.1	58.5266	12,996.1	69.3137	12,996.1	53.6723	12,996.1	64.3679	12,996.1	62.8312	12,996.1	53.4775	12,996.1	64.4862	12,996.1	55.8217	12,996.1	66.0509	12,996.1	46.8984	12,996.1	64.4395	12,996.1	55.4784	12,996.1	55.9474	12,996.1	60.3799	12,996.1	54.3809
13,454.6	93.3403	13,454.6	93.6491	13,454.6	93.7024	13,454.6	92.8892	13,454.6	92.9896	13,454.6	90.1915	13,454.6	90.3587	13,454.6	88.4683	13,454.6	87.647	13,454.6	85.3805	13,454.6	87.2536	13,454.6	82.5007	13,454.6	82.639	13,454.6	77.2516	13,454.6	79.488	13,454.6	72.7845	13,454.6	65.7897	13,454.6	67.2328	13,454.6	65.8868	13,454.6	58.0895	13,454.6	65.1408	13,454.6	54.568	13,454.6	69.3241	13,454.6	54.6425	13,454.6	59.8265	13,454.6	57.845	13,454.6	55.9256	13,454.6	62.0819	13,454.6	55.0896	13,454.6	64.123	13,454.6	23.7538	13,454.6	61.6467	13,454.6	53.5564	13,454.6	54.1392	13,454.6	59.4189	13,454.6	48.461
13,929.2	93.5037	13,929.2	94.0076	13,929.2	93.298	13,929.2	92.6654	13,929.2	92.8948	13,929.2	89.9673	13,929.2	90.5976	13,929.2	88.1436	13,929.2	88.5683	13,929.2	84.696	13,929.2	85.3702	13,929.2	81.5274	13,929.2	81.227	13,929.2	74.6736	13,929.2	77.9171	13,929.2	70.9084	13,929.2	66.1907	13,929.2	65.9158	13,929.2	61.3485	13,929.2	60.3046	13,929.2	63.5355	13,929.2	55.0004	13,929.2	68.7503	13,929.2	54.956	13,929.2	56.5824	13,929.2	56.8883	13,929.2	55.7339	13,929.2	61.3853	13,929.2	55.4586	13,929.2	61.877	13,929.2	37.8827	13,929.2	59.3353	13,929.2	44.1421	13,929.2	57.528	13,929.2	54.9645	13,929.2	49.881
14,419.9	93.7772	14,419.9	93.9636	14,419.9	93.2308	14,419.9	92.4112	14,419.9	92.5384	14,419.9	89.8338	14,419.9	89.5087	14,419.9	88.0896	14,419.9	86.6631	14,419.9	83.7386	14,419.9	83.8901	14,419.9	79.8735	14,419.9	79.5953	14,419.9	74.1531	14,419.9	78.1218	14,419.9	70.1041	14,419.9	60.5108	14,419.9	65.4299	14,419.9	58.2219	14,419.9	59.2452	14,419.9	63.7971	14,419.9	56.5266	14,419.9	70.05	14,419.9	49.7551	14,419.9	58.2066	14,419.9	55.7947	14,419.9	47.0246	14,419.9	60.2354	14,419.9	56.1624	14,419.9	59.9407	14,419.9	49.0525	14,419.9	58.4183	14,419.9	41.9193	14,419.9	60.35	14,419.9	49.1572	14,419.9	52.2878
14,928.2	94.0283	14,928.2	93.7153	14,928.2	93.2478	14,928.2	92.036	14,928.2	92.227	14,928.2	89.799	14,928.2	89.3643	14,928.2	87.5572	14,928.2	86.2421	14,928.2	82.5881	14,928.2	83.0767	14,928.2	78.959	14,928.2	80.2247	14,928.2	73.3739	14,928.2	76.1328	14,928.2	69.8656	14,928.2	65.0781	14,928.2	65.8068	14,928.2	59.2104	14,928.2	55.5138	14,928.2	57.9965	14,928.2	57.3404	14,928.2	70.1547	14,928.2	48.9922	14,928.2	60.3233	14,928.2	56.6701	14,928.2	46.3903	14,928.2	58.2315	14,928.2	51.1357	14,928.2	58.4025	14,928.2	46.9478	14,928.2	55.3423	14,928.2	52.5663	14,928.2	58.2787	14,928.2	55.5049	14,928.2	50.4778
15,455.6	94.1789	15,455.6	93.5134	15,455.6	93.0203	15,455.6	91.9532	15,455.6	92.1979	15,455.6	89.7441	15,455.6	88.8569	15,455.6	86.6273	15,455.6	85.9639	15,455.6	81.4285	15,455.6	82.5125	15,455.6	78.1558	15,455.6	79.5654	15,455.6	72.6663	15,455.6	74.4533	15,455.6	69.7608	15,455.6	61.9493	15,455.6	65.241	15,455.6	59.777	15,455.6	52.0301	15,455.6	58.7786	15,455.6	50.3025	15,455.6	69.5347	15,455.6	47.7041	15,455.6	58.4732	15,455.6	54.4825	15,455.6	49.3397	15,455.6	57.5132	15,455.6	47.7244	15,455.6	57.0673	15,455.6	47.9455	15,455.6	54.57	15,455.6	41.2024	15,455.6	58.1784	15,455.6	53.9081	15,455.6	50.8453
16,000.5	94.2951	16,000.5	93.3975	16,000.5	92.8955	16,000.5	91.7233	16,000.5	91.8445	16,000.5	89.4947	16,000.5	89.2424	16,000.5	85.8169	16,000.5	84.0312	16,000.5	80.487	16,000.5	81.024	16,000.5	77.8249	16,000.5	79.2388	16,000.5	73.1724	16,000.5	73.8188	16,000.5	69.6272	16,000.5	65.9368	16,000.5	65.0225	16,000.5	54.7014	16,000.5	49.8318	16,000.5	59.0236	16,000.5	53.7195	16,000.5	69.6166	16,000.5	29.5092	16,000.5	60.3826	16,000.5	54.4875	16,000.5	49.6223	16,000.5	56.0105	16,000.5	45.681	16,000.5	56.9099	16,000.5	51.3609	16,000.5	53.5775	16,000.5	49.562	16,000.5	58.964	16,000.5	53.743	16,000.5	49.6734
16,564.5	94.1908	16,564.5	93.4926	16,564.5	93.1883	16,564.5	91.8485	16,564.5	91.5164	16,564.5	88.8459	16,564.5	89.0479	16,564.5	85.5816	16,564.5	85.0432	16,564.5	80.2235	16,564.5	80.6677	16,564.5	77.6679	16,564.5	77.6532	16,564.5	72.5315	16,564.5	70.6399	16,564.5	68.3457	16,564.5	64.5692	16,564.5	63.152	16,564.5	53.3971	16,564.5	51.2031	16,564.5	45.1179	16,564.5	50.4486	16,564.5	67.2905	16,564.5	41.7903	16,564.5	60.7456	16,564.5	53.0717	16,564.5	47.9299	16,564.5	55.8363	16,564.5	52.0995	16,564.5	55.5674	16,564.5	42.7934	16,564.5	52.5576	16,564.5	48.2216	16,564.5	56.8048	16,564.5	53.7518	16,564.5	48.578
17,148.9	94.1155	17,148.9	93.5671	17,148.9	93.3117	17,148.9	91.674	17,148.9	91.1523	17,148.9	88.228	17,148.9	87.8862	17,148.9	84.8684	17,148.9	83.5544	17,148.9	79.8866	17,148.9	80.1354	17,148.9	76.4925	17,148.9	77.8946	17,148.9	70.5668	17,148.9	70.9875	17,148.9	66.7595	17,148.9	64.5112	17,148.9	61.4874	17,148.9	52.9505	17,148.9	44.1525	17,148.9	51.8245	17,148.9	46.4721	17,148.9	67.9569	17,148.9	41.8735	17,148.9	60.6085	17,148.9	52.9856	17,148.9	45.6565	17,148.9	56.3029	17,148.9	41.3269	17,148.9	55.3976	17,148.9	42.725	17,148.9	53.1052	17,148.9	46.9395	17,148.9	55.5621	17,148.9	49.7906	17,148.9	44.7456
17,752.4	94.1814	17,752.4	93.7881	17,752.4	93.3294	17,752.4	91.5097	17,752.4	90.704	17,752.4	87.7569	17,752.4	87.0438	17,752.4	84.591	17,752.4	82.9623	17,752.4	78.5672	17,752.4	78.2804	17,752.4	75.234	17,752.4	75.9549	17,752.4	69.0419	17,752.4	68.1564	17,752.4	66.555	17,752.4	63.6995	17,752.4	63.6016	17,752.4	57.4083	17,752.4	54.5028	17,752.4	54.7632	17,752.4	42.3276	17,752.4	69.017	17,752.4	46.3443	17,752.4	61.5938	17,752.4	51.7118	17,752.4	45.6381	17,752.4	56.0834	17,752.4	49.4105	17,752.4	57.5957	17,752.4	48.4889	17,752.4	54.9109	17,752.4	49.0594	17,752.4	56.0621	17,752.4	49.0929	17,752.4	49.9424
18,379.4	94.1175	18,379.4	93.8204	18,379.4	93.3762	18,379.4	90.9473	18,379.4	90.7153	18,379.4	87.4669	18,379.4	86.529	18,379.4	84.0172	18,379.4	81.4789	18,379.4	76.6069	18,379.4	77.9173	18,379.4	74.7234	18,379.4	75.625	18,379.4	72.0809	18,379.4	69.31	18,379.4	69.3039	18,379.4	65.2443	18,379.4	66.4207	18,379.4	56.4735	18,379.4	58.7373	18,379.4	57.7692	18,379.4	51.1656	18,379.4	71.3105	18,379.4	37.0689	18,379.4	64.5443	18,379.4	50.9597	18,379.4	49.2344	18,379.4	56.8324	18,379.4	50.8722	18,379.4	60.7753	18,379.4	51.0429	18,379.4	58.8772	18,379.4	42.4426	18,379.4	59.802	18,379.4	45.7094	18,379.4	49.9449
19,026.9	94.1609	19,026.9	93.7624	19,026.9	93.4503	19,026.9	90.6097	19,026.9	90.4888	19,026.9	87.1667	19,026.9	86.8495	19,026.9	82.8376	19,026.9	80.5163	19,026.9	74.5016	19,026.9	77.6608	19,026.9	75.3146	19,026.9	74.8968	19,026.9	74.2664	19,026.9	69.9048	19,026.9	71.6241	19,026.9	63.1479	19,026.9	68.1839	19,026.9	60.1601	19,026.9	59.019	19,026.9	54.4727	19,026.9	51.4046	19,026.9	72.1655	19,026.9	26.8999	19,026.9	64.7379	19,026.9	51.7392	19,026.9	47.927	19,026.9	57.8533	19,026.9	54.9351	19,026.9	62.3621	19,026.9	53.9316	19,026.9	61.6426	19,026.9	48.0039	19,026.9	60.8159	19,026.9	46.1938	19,026.9	50.1463
19,697.8	94.3084	19,697.8	93.6348	19,697.8	93.2926	19,697.8	90.5375	19,697.8	89.796	19,697.8	86.6084	19,697.8	86.3329	19,697.8	81.1767	19,697.8	80.1076	19,697.8	73.9874	19,697.8	77.155	19,697.8	76.3825	19,697.8	74.2466	19,697.8	74.9377	19,697.8	71.8585	19,697.8	70.9518	19,697.8	65.7461	19,697.8	67.0556	19,697.8	58.1782	19,697.8	58.0038	19,697.8	47.3991	19,697.8	50.2467	19,697.8	71.8882	19,697.8	35.4216	19,697.8	66.2371	19,697.8	51.7033	19,697.8	54.5878	19,697.8	54.8384	19,697.8	55.5952	19,697.8	61.4564	19,697.8	51.7762	19,697.8	62.3488	19,697.8	50.3264	19,697.8	58.5829	19,697.8	50.5006	19,697.8	47.408
19,999.5	94.5971	19,999.5	93.6209	19,999.5	93.2705	19,999.5	90.7811	19,999.5	90.096	19,999.5	86.6199	19,999.5	85.638	19,999.5	80.5769	19,999.5	80.4392	19,999.5	73.9805	19,999.5	77.4191	19,999.5	77.2707	19,999.5	77.0004	19,999.5	74.9931	19,999.5	69.7861	19,999.5	69.3676	19,999.5	64.9652	19,999.5	66.9474	19,999.5	56.2767	19,999.5	56.2663	19,999.5	52.145	19,999.5	48.4841	19,999.5	71.6338	19,999.5	48.9511	19,999.5	67.817	19,999.5	51.256	19,999.5	60.7093	19,999.5	59.7609	19,999.5	59.012	19,999.5	56.9107	19,999.5	62.9464	19,999.5	67.3791	19,999.5	49.6004	19,999.5	54.7186	19,999.5	45.7251	19,999.5	54.5127
