"SPL Horizontal"
"On-Axis"		"10°"		"-10°"		"20°"		"-20°"		"30°"		"-30°"		"40°"		"-40°"		"50°"		"-50°"		"60°"		"-60°"		"70°"		"-70°"		"80°"		"-80°"		"90°"		"-90°"		"100°"		"-100°"		"110°"		"-110°"		"120°"		"-120°"		"130°"		"-130°"		"140°"		"-140°"		"150°"		"-150°"		"160°"		"-160°"		"170°"		"-170°"		"180°"
"Frequency / Hz"	"Sound Pressure Level / dB (re 20 µPa/V)  [2.83  V @ 1. m]"	"Frequency / Hz"	"Sound Pressure Level / dB (re 20 µPa/V)  [2.83  V @ 1. m]"	"Frequency / Hz"	"Sound Pressure Level / dB (re 20 µPa/V)  [2.83  V @ 1. m]"	"Frequency / Hz"	"Sound Pressure Level / dB (re 20 µPa/V)  [2.83  V @ 1. m]"	"Frequency / Hz"	"Sound Pressure Level / dB (re 20 µPa/V)  [2.83  V @ 1. m]"	"Frequency / Hz"	"Sound Pressure Level / dB (re 20 µPa/V)  [2.83  V @ 1. m]"	"Frequency / Hz"	"Sound Pressure Level / dB (re 20 µPa/V)  [2.83  V @ 1. m]"	"Frequency / Hz"	"Sound Pressure Level / dB (re 20 µPa/V)  [2.83  V @ 1. m]"	"Frequency / Hz"	"Sound Pressure Level / dB (re 20 µPa/V)  [2.83  V @ 1. m]"	"Frequency / Hz"	"Sound Pressure Level / dB (re 20 µPa/V)  [2.83  V @ 1. m]"	"Frequency / Hz"	"Sound Pressure Level / dB (re 20 µPa/V)  [2.83  V @ 1. m]"	"Frequency / Hz"	"Sound Pressure Level / dB (re 20 µPa/V)  [2.83  V @ 1. m]"	"Frequency / Hz"	"Sound Pressure Level / dB (re 20 µPa/V)  [2.83  V @ 1. m]"	"Frequency / Hz"	"Sound Pressure Level / dB (re 20 µPa/V)  [2.83  V @ 1. m]"	"Frequency / Hz"	"Sound Pressure Level / dB (re 20 µPa/V)  [2.83  V @ 1. m]"	"Frequency / Hz"	"Sound Pressure Level / dB (re 20 µPa/V)  [2.83  V @ 1. m]"	"Frequency / Hz"	"Sound Pressure Level / dB (re 20 µPa/V)  [2.83  V @ 1. m]"	"Frequency / Hz"	"Sound Pressure Level / dB (re 20 µPa/V)  [2.83  V @ 1. m]"	"Frequency / Hz"	"Sound Pressure Level / dB (re 20 µPa/V)  [2.83  V @ 1. m]"	"Frequency / Hz"	"Sound Pressure Level / dB (re 20 µPa/V)  [2.83  V @ 1. m]"	"Frequency / Hz"	"Sound Pressure Level / dB (re 20 µPa/V)  [2.83  V @ 1. m]"	"Frequency / Hz"	"Sound Pressure Level / dB (re 20 µPa/V)  [2.83  V @ 1. m]"	"Frequency / Hz"	"Sound Pressure Level / dB (re 20 µPa/V)  [2.83  V @ 1. m]"	"Frequency / Hz"	"Sound Pressure Level / dB (re 20 µPa/V)  [2.83  V @ 1. m]"	"Frequency / Hz"	"Sound Pressure Level / dB (re 20 µPa/V)  [2.83  V @ 1. m]"	"Frequency / Hz"	"Sound Pressure Level / dB (re 20 µPa/V)  [2.83  V @ 1. m]"	"Frequency / Hz"	"Sound Pressure Level / dB (re 20 µPa/V)  [2.83  V @ 1. m]"	"Frequency / Hz"	"Sound Pressure Level / dB (re 20 µPa/V)  [2.83  V @ 1. m]"	"Frequency / Hz"	"Sound Pressure Level / dB (re 20 µPa/V)  [2.83  V @ 1. m]"	"Frequency / Hz"	"Sound Pressure Level / dB (re 20 µPa/V)  [2.83  V @ 1. m]"	"Frequency / Hz"	"Sound Pressure Level / dB (re 20 µPa/V)  [2.83  V @ 1. m]"	"Frequency / Hz"	"Sound Pressure Level / dB (re 20 µPa/V)  [2.83  V @ 1. m]"	"Frequency / Hz"	"Sound Pressure Level / dB (re 20 µPa/V)  [2.83  V @ 1. m]"	"Frequency / Hz"	"Sound Pressure Level / dB (re 20 µPa/V)  [2.83  V @ 1. m]"	"Frequency / Hz"	"Sound Pressure Level / dB (re 20 µPa/V)  [2.83  V @ 1. m]"	"Frequency / Hz"	"Sound Pressure Level / dB (re 20 µPa/V)  [2.83  V @ 1. m]"
20.5078	60.6663	20.5078	60.6348	20.5078	60.7083	20.5078	60.6124	20.5078	60.7617	20.5078	60.5987	20.5078	60.8271	20.5078	60.5943	20.5078	60.9039	20.5078	60.6007	20.5078	60.9899	20.5078	60.6195	20.5078	61.0814	20.5078	60.6507	20.5078	61.173	20.5078	60.6925	20.5078	61.2585	20.5078	60.7402	20.5078	61.3313	20.5078	60.788	20.5078	61.3858	20.5078	60.8306	20.5078	61.4181	20.5078	60.8654	20.5078	61.4261	20.5078	60.8929	20.5078	61.4093	20.5078	60.9168	20.5078	61.3697	20.5078	60.9433	20.5078	61.3111	20.5078	60.9787	20.5078	61.2396	20.5078	61.0274	20.5078	61.1631	20.5078	61.09
21.9727	56.8388	21.9727	56.8821	21.9727	56.7996	21.9727	56.9311	21.9727	56.7661	21.9727	56.9903	21.9727	56.7425	21.9727	57.0667	21.9727	56.7343	21.9727	57.1672	21.9727	56.7472	21.9727	57.2963	21.9727	56.7854	21.9727	57.4524	21.9727	56.8506	21.9727	57.6266	21.9727	56.9407	21.9727	57.8035	21.9727	57.0504	21.9727	57.9645	21.9727	57.1721	21.9727	58.0929	21.9727	57.2974	21.9727	58.1775	21.9727	57.4191	21.9727	58.2152	21.9727	57.5319	21.9727	58.2103	21.9727	57.6335	21.9727	58.1723	21.9727	57.7247	21.9727	58.1124	21.9727	57.8081	21.9727	58.0409	21.9727	57.8873	21.9727	57.9648
23.4375	59.8128	23.4375	59.9014	23.4375	59.735	23.4375	59.9979	23.4375	59.6712	23.4375	60.1004	23.4375	59.6252	23.4375	60.2076	23.4375	59.6007	23.4375	60.3188	23.4375	59.6007	23.4375	60.4329	23.4375	59.6269	23.4375	60.5481	23.4375	59.6786	23.4375	60.6605	23.4375	59.7529	23.4375	60.7647	23.4375	59.8452	23.4375	60.8543	23.4375	59.9495	23.4375	60.9231	23.4375	60.06	23.4375	60.9669	23.4375	60.1716	23.4375	60.9837	23.4375	60.2807	23.4375	60.9744	23.4375	60.3851	23.4375	60.9419	23.4375	60.484	23.4375	60.8905	23.4375	60.5776	23.4375	60.8248	23.4375	60.666	23.4375	60.749
24.9023	64.4817	24.9023	64.5338	24.9023	64.4357	24.9023	64.5898	24.9023	64.3976	24.9023	64.6474	24.9023	64.3686	24.9023	64.7042	24.9023	64.3494	24.9023	64.7583	24.9023	64.34	24.9023	64.8079	24.9023	64.3399	24.9023	64.8518	24.9023	64.3486	24.9023	64.889	24.9023	64.3654	24.9023	64.9185	24.9023	64.3895	24.9023	64.9397	24.9023	64.4205	24.9023	64.9519	24.9023	64.4577	24.9023	64.9545	24.9023	64.5002	24.9023	64.947	24.9023	64.5465	24.9023	64.9294	24.9023	64.595	24.9023	64.9027	24.9023	64.644	24.9023	64.8683	24.9023	64.6922	24.9023	64.8284	24.9023	64.7393	24.9023	64.7849
26.3672	66.0288	26.3672	66.0695	26.3672	65.9903	26.3672	66.1115	26.3672	65.9555	26.3672	66.1542	26.3672	65.926	26.3672	66.1973	26.3672	65.9034	26.3672	66.2409	26.3672	65.8895	26.3672	66.2848	26.3672	65.885	26.3672	66.3285	26.3672	65.8902	26.3672	66.3708	26.3672	65.9044	26.3672	66.4097	26.3672	65.9264	26.3672	66.4425	26.3672	65.9548	26.3672	66.4664	26.3672	65.9884	26.3672	66.4792	26.3672	66.0261	26.3672	66.4791	26.3672	66.0672	26.3672	66.4657	26.3672	66.1112	26.3672	66.4397	26.3672	66.1578	26.3672	66.4028	26.3672	66.2067	26.3672	66.358	26.3672	66.2574	26.3672	66.3085
27.832	69.3367	27.832	69.3735	27.832	69.2979	27.832	69.4074	27.832	69.2584	27.832	69.4375	27.832	69.2191	27.832	69.4631	27.832	69.1811	27.832	69.4836	27.832	69.1453	27.832	69.4986	27.832	69.1124	27.832	69.5072	27.832	69.0832	27.832	69.5082	27.832	69.0582	27.832	69.5002	27.832	69.0375	27.832	69.4817	27.832	69.0215	27.832	69.4519	27.832	69.0102	27.832	69.4112	27.832	69.0037	27.832	69.3615	27.832	69.0021	27.832	69.3056	27.832	69.0057	27.832	69.2473	27.832	69.0156	27.832	69.1903	27.832	69.0328	27.832	69.1383	27.832	69.0587	27.832	69.0939
29.2969	71.0552	29.2969	71.041	29.2969	71.0636	29.2969	71.0215	29.2969	71.0655	29.2969	70.9978	29.2969	71.0606	29.2969	70.9707	29.2969	71.049	29.2969	70.9412	29.2969	71.0307	29.2969	70.9102	29.2969	71.0059	29.2969	70.8784	29.2969	70.9749	29.2969	70.8463	29.2969	70.938	29.2969	70.8146	29.2969	70.8958	29.2969	70.7833	29.2969	70.8491	29.2969	70.7524	29.2969	70.7998	29.2969	70.7216	29.2969	70.7501	29.2969	70.691	29.2969	70.7031	29.2969	70.6612	29.2969	70.6617	29.2969	70.6338	29.2969	70.6283	29.2969	70.6109	29.2969	70.6044	29.2969	70.595	29.2969	70.5909	29.2969	70.588
30.7617	74.2712	30.7617	74.2809	30.7617	74.2545	30.7617	74.2839	30.7617	74.2307	30.7617	74.2805	30.7617	74.2	30.7617	74.2714	30.7617	74.1629	30.7617	74.2566	30.7617	74.1203	30.7617	74.2362	30.7617	74.0732	30.7617	74.21	30.7617	74.0232	30.7617	74.1777	30.7617	73.9718	30.7617	74.139	30.7617	73.9208	30.7617	74.0939	30.7617	73.8719	30.7617	74.043	30.7617	73.8268	30.7617	73.9877	30.7617	73.7869	30.7617	73.9303	30.7617	73.7533	30.7617	73.8736	30.7617	73.7271	30.7617	73.821	30.7617	73.7091	30.7617	73.7755	30.7617	73.7004	30.7617	73.7396	30.7617	73.702	30.7617	73.715
32.2266	76.2015	32.2266	76.199	32.2266	76.1976	32.2266	76.1899	32.2266	76.1872	32.2266	76.1744	32.2266	76.1703	32.2266	76.1523	32.2266	76.147	32.2266	76.1237	32.2266	76.1173	32.2266	76.0886	32.2266	76.0813	32.2266	76.0472	32.2266	76.0395	32.2266	75.9998	32.2266	75.992	32.2266	75.9472	32.2266	75.9396	32.2266	75.8904	32.2266	75.8832	32.2266	75.8314	32.2266	75.8242	32.2266	75.7723	32.2266	75.7648	32.2266	75.7157	32.2266	75.7077	32.2266	75.6643	32.2266	75.6559	32.2266	75.6207	32.2266	75.6126	32.2266	75.5869	32.2266	75.5804	32.2266	75.5649	32.2266	75.5612	32.2266	75.556
33.6914	78.3797	33.6914	78.378	33.6914	78.3744	33.6914	78.3692	33.6914	78.3621	33.6914	78.3535	33.6914	78.3432	33.6914	78.331	33.6914	78.3177	33.6914	78.302	33.6914	78.286	33.6914	78.2671	33.6914	78.2484	33.6914	78.2266	33.6914	78.2056	33.6914	78.1815	33.6914	78.1582	33.6914	78.1325	33.6914	78.1073	33.6914	78.0808	33.6914	78.0546	33.6914	78.0278	33.6914	78.0015	33.6914	77.9752	33.6914	77.9503	33.6914	77.9248	33.6914	77.9029	33.6914	77.8791	33.6914	77.8612	33.6914	77.8402	33.6914	77.8269	33.6914	77.8102	33.6914	77.8017	33.6914	77.7908	33.6914	77.7867	33.6914	77.7829
35.1562	80.438	35.1562	80.4324	35.1562	80.4351	35.1562	80.4185	35.1562	80.4237	35.1562	80.3966	35.1562	80.4037	35.1562	80.3673	35.1562	80.3754	35.1562	80.3314	35.1562	80.3391	35.1562	80.2898	35.1562	80.2953	35.1562	80.2436	35.1562	80.2449	35.1562	80.1941	35.1562	80.1889	35.1562	80.1425	35.1562	80.1291	35.1562	80.0901	35.1562	80.0674	35.1562	80.038	35.1562	80.0064	35.1562	79.9873	35.1562	79.9487	35.1562	79.9391	35.1562	79.8967	35.1562	79.8946	35.1562	79.8528	35.1562	79.8553	35.1562	79.8188	35.1562	79.8231	35.1562	79.7961	35.1562	79.7998	35.1562	79.7854	35.1562	79.7868
36.6211	82.2852	36.6211	82.2825	36.6211	82.2781	36.6211	82.2699	36.6211	82.2614	36.6211	82.2477	36.6211	82.2354	36.6211	82.2163	36.6211	82.2005	36.6211	82.1765	36.6211	82.1573	36.6211	82.1295	36.6211	82.1068	36.6211	82.0765	36.6211	82.0497	36.6211	82.0192	36.6211	81.9877	36.6211	81.9591	36.6211	81.9222	36.6211	81.898	36.6211	81.8555	36.6211	81.8371	36.6211	81.7899	36.6211	81.778	36.6211	81.7278	36.6211	81.7221	36.6211	81.6719	36.6211	81.671	36.6211	81.6245	36.6211	81.6265	36.6211	81.5875	36.6211	81.5906	36.6211	81.5625	36.6211	81.565	36.6211	81.5503	36.6211	81.5513
38.0859	84.1334	38.0859	84.1315	38.0859	84.1246	38.0859	84.119	38.0859	84.1054	38.0859	84.0964	38.0859	84.0759	38.0859	84.064	38.0859	84.0365	38.0859	84.0228	38.0859	83.9879	38.0859	83.9735	38.0859	83.9309	38.0859	83.9177	38.0859	83.8668	38.0859	83.8565	38.0859	83.797	38.0859	83.7915	38.0859	83.7234	38.0859	83.7243	38.0859	83.6485	38.0859	83.6564	38.0859	83.5749	38.0859	83.5895	38.0859	83.5057	38.0859	83.5253	38.0859	83.4438	38.0859	83.466	38.0859	83.392	38.0859	83.4137	38.0859	83.3526	38.0859	83.3708	38.0859	83.3272	38.0859	83.3392	38.0859	83.3166	38.0859	83.3208
39.5508	85.8731	39.5508	85.8679	39.5508	85.8677	39.5508	85.8522	39.5508	85.8518	39.5508	85.8266	39.5508	85.8255	39.5508	85.7916	39.5508	85.7892	39.5508	85.7483	39.5508	85.7434	39.5508	85.6978	39.5508	85.6889	39.5508	85.6416	39.5508	85.6268	39.5508	85.5814	39.5508	85.5586	39.5508	85.5188	39.5508	85.4861	39.5508	85.4554	39.5508	85.4117	39.5508	85.3927	39.5508	85.338	39.5508	85.3317	39.5508	85.2682	39.5508	85.2738	39.5508	85.2056	39.5508	85.2201	39.5508	85.1533	39.5508	85.1723	39.5508	85.1137	39.5508	85.1323	39.5508	85.0887	39.5508	85.102	39.5508	85.0788	39.5508	85.0836
41.0156	87.3912	41.0156	87.3713	41.0156	87.3981	41.0156	87.3389	41.0156	87.3921	41.0156	87.2947	41.0156	87.3734	41.0156	87.2398	41.0156	87.3424	41.0156	87.1763	41.0156	87.2998	41.0156	87.1065	41.0156	87.2465	41.0156	87.0333	41.0156	87.1835	41.0156	86.9598	41.0156	87.1124	41.0156	86.8887	41.0156	87.0349	41.0156	86.8219	41.0156	86.9532	41.0156	86.7605	41.0156	86.8699	41.0156	86.7046	41.0156	86.7882	41.0156	86.6539	41.0156	86.7115	41.0156	86.6087	41.0156	86.6433	41.0156	86.5697	41.0156	86.5871	41.0156	86.5388	41.0156	86.5455	41.0156	86.5185	41.0156	86.5202	41.0156	86.5116
42.4805	88.8285	42.4805	88.8334	42.4805	88.8166	42.4805	88.8307	42.4805	88.7981	42.4805	88.8205	42.4805	88.7741	42.4805	88.8031	42.4805	88.7456	42.4805	88.7791	42.4805	88.7137	42.4805	88.7497	42.4805	88.6796	42.4805	88.7161	42.4805	88.6443	42.4805	88.6799	42.4805	88.609	42.4805	88.6425	42.4805	88.5746	42.4805	88.6056	42.4805	88.5419	42.4805	88.5702	42.4805	88.5116	42.4805	88.5373	42.4805	88.4843	42.4805	88.5074	42.4805	88.4607	42.4805	88.481	42.4805	88.4414	42.4805	88.4584	42.4805	88.4272	42.4805	88.4401	42.4805	88.4185	42.4805	88.4267	42.4805	88.4156	42.4805	88.4184
43.9453	89.8266	43.9453	89.8284	43.9453	89.8136	43.9453	89.8187	43.9453	89.7897	43.9453	89.7978	43.9453	89.7557	43.9453	89.7662	43.9453	89.7126	43.9453	89.7249	43.9453	89.6615	43.9453	89.6752	43.9453	89.604	43.9453	89.6186	43.9453	89.5418	43.9453	89.5571	43.9453	89.4768	43.9453	89.4925	43.9453	89.4109	43.9453	89.427	43.9453	89.3464	43.9453	89.3626	43.9453	89.285	43.9453	89.3011	43.9453	89.2289	43.9453	89.2443	43.9453	89.1795	43.9453	89.1937	43.9453	89.1386	43.9453	89.1508	43.9453	89.1073	43.9453	89.1168	43.9453	89.0867	43.9453	89.0927	43.9453	89.0773	43.9453	89.0794
45.4102	90.7957	45.4102	90.7951	45.4102	90.7848	45.4102	90.7832	45.4102	90.7628	45.4102	90.7603	45.4102	90.7302	45.4102	90.7272	45.4102	90.6879	45.4102	90.6847	45.4102	90.6371	45.4102	90.6343	45.4102	90.5793	45.4102	90.5775	45.4102	90.5164	45.4102	90.5162	45.4102	90.4503	45.4102	90.4521	45.4102	90.3832	45.4102	90.3874	45.4102	90.3173	45.4102	90.3239	45.4102	90.2547	45.4102	90.2635	45.4102	90.1974	45.4102	90.2079	45.4102	90.1473	45.4102	90.1584	45.4102	90.1059	45.4102	90.1166	45.4102	90.0745	45.4102	90.0834	45.4102	90.0539	45.4102	90.0599	45.4102	90.0447	45.4102	90.0468
46.875	91.694	46.875	91.6915	46.875	91.6848	46.875	91.6775	46.875	91.6642	46.875	91.6526	46.875	91.6327	46.875	91.6176	46.875	91.5912	46.875	91.5735	46.875	91.5408	46.875	91.5219	46.875	91.4832	46.875	91.4642	46.875	91.4203	46.875	91.4023	46.875	91.3542	46.875	91.338	46.875	91.2871	46.875	91.273	46.875	91.2214	46.875	91.2093	46.875	91.159	46.875	91.1486	46.875	91.1018	46.875	91.0929	46.875	91.0514	46.875	91.0437	46.875	91.0091	46.875	91.0028	46.875	90.9761	46.875	90.9714	46.875	90.9532	46.875	90.9503	46.875	90.9411	46.875	90.9401
48.3398	92.4164	48.3398	92.4098	48.3398	92.4114	48.3398	92.3917	48.3398	92.3947	48.3398	92.3627	48.3398	92.3668	48.3398	92.3237	48.3398	92.3284	48.3398	92.2758	48.3398	92.2808	48.3398	92.2204	48.3398	92.2254	48.3398	92.1591	48.3398	92.1641	48.3398	92.0937	48.3398	92.0989	48.3398	92.0261	48.3398	92.0322	48.3398	91.9585	48.3398	91.9662	48.3398	91.8932	48.3398	91.9031	48.3398	91.8324	48.3398	91.8446	48.3398	91.7783	48.3398	91.7923	48.3398	91.7327	48.3398	91.7471	48.3398	91.6971	48.3398	91.7102	48.3398	91.6723	48.3398	91.6822	48.3398	91.6586	48.3398	91.6639	48.3398	91.6559
51.2695	93.6468	51.2695	93.6452	51.2695	93.6327	51.2695	93.6283	51.2695	93.6034	51.2695	93.5967	51.2695	93.5595	51.2695	93.5514	51.2695	93.5024	51.2695	93.494	51.2695	93.4339	51.2695	93.4266	51.2695	93.3561	51.2695	93.3514	51.2695	93.2717	51.2695	93.271	51.2695	93.1838	51.2695	93.1884	51.2695	93.0954	51.2695	93.1061	51.2695	93.0098	51.2695	93.0266	51.2695	92.9301	51.2695	92.9522	51.2695	92.8588	51.2695	92.8845	51.2695	92.7982	51.2695	92.825	51.2695	92.7498	51.2695	92.7747	51.2695	92.7144	51.2695	92.7348	51.2695	92.6926	51.2695	92.7059	51.2695	92.6842	51.2695	92.6888
52.7344	94.0642	52.7344	94.0553	52.7344	94.0574	52.7344	94.0311	52.7344	94.035	52.7344	93.9926	52.7344	93.9974	52.7344	93.941	52.7344	93.9457	52.7344	93.878	52.7344	93.8814	52.7344	93.8056	52.7344	93.8069	52.7344	93.7262	52.7344	93.7246	52.7344	93.6425	52.7344	93.6377	52.7344	93.5571	52.7344	93.5494	52.7344	93.473	52.7344	93.4629	52.7344	93.3927	52.7344	93.3813	52.7344	93.3186	52.7344	93.3071	52.7344	93.2529	52.7344	93.2423	52.7344	93.1972	52.7344	93.1883	52.7344	93.1526	52.7344	93.146	52.7344	93.1201	52.7344	93.1159	52.7344	93.1002	52.7344	93.0981	52.7344	93.0928
54.1992	94.4524	54.1992	94.4432	54.1992	94.4465	54.1992	94.4191	54.1992	94.4255	54.1992	94.3807	54.1992	94.3901	54.1992	94.3292	54.1992	94.341	54.1992	94.2659	54.1992	94.2798	54.1992	94.1926	54.1992	94.2081	54.1992	94.1116	54.1992	94.1281	54.1992	94.0254	54.1992	94.0424	54.1992	93.9369	54.1992	93.954	54.1992	93.849	54.1992	93.8658	54.1992	93.7645	54.1992	93.781	54.1992	93.6863	54.1992	93.7023	54.1992	93.6168	54.1992	93.6321	54.1992	93.558	54.1992	93.5721	54.1992	93.5117	54.1992	93.5237	54.1992	93.4788	54.1992	93.4878	54.1992	93.46	54.1992	93.4649	54.1992	93.4555
55.6641	94.696	55.6641	94.6959	55.6641	94.6819	55.6641	94.6816	55.6641	94.6534	55.6641	94.6541	55.6641	94.6114	55.6641	94.6144	55.6641	94.5568	55.6641	94.5641	55.6641	94.4912	55.6641	94.5047	55.6641	94.4166	55.6641	94.4385	55.6641	94.3355	55.6641	94.3673	55.6641	94.2505	55.6641	94.2933	55.6641	94.1647	55.6641	94.2184	55.6641	94.0813	55.6641	94.1444	55.6641	94.0032	55.6641	94.0729	55.6641	93.933	55.6641	94.0053	55.6641	93.8732	55.6641	93.943	55.6641	93.8256	55.6641	93.8875	55.6641	93.7917	55.6641	93.8405	55.6641	93.7725	55.6641	93.8037	55.6641	93.7685	55.6641	93.7792
58.5938	95.1243	58.5938	95.1113	58.5938	95.1222	58.5938	95.0836	58.5938	95.1052	58.5938	95.0422	58.5938	95.0739	58.5938	94.9886	58.5938	95.0295	58.5938	94.9248	58.5938	94.9735	58.5938	94.8531	58.5938	94.908	58.5938	94.7763	58.5938	94.8355	58.5938	94.6972	58.5938	94.7585	58.5938	94.6186	58.5938	94.6797	58.5938	94.543	58.5938	94.6021	58.5938	94.473	58.5938	94.5279	58.5938	94.4102	58.5938	94.4596	58.5938	94.3565	58.5938	94.3989	58.5938	94.3127	58.5938	94.3473	58.5938	94.2795	58.5938	94.3056	58.5938	94.2572	58.5938	94.2746	58.5938	94.2455	58.5938	94.2542	58.5938	94.2445
60.0586	95.3014	60.0586	95.2937	60.0586	95.2937	60.0586	95.2711	60.0586	95.271	60.0586	95.2344	60.0586	95.2337	60.0586	95.185	60.0586	95.1834	60.0586	95.1248	60.0586	95.1216	60.0586	95.0557	60.0586	95.0505	60.0586	94.9805	60.0586	94.9729	60.0586	94.9016	60.0586	94.8914	60.0586	94.8217	60.0586	94.8091	60.0586	94.7435	60.0586	94.7289	60.0586	94.6693	60.0586	94.6534	60.0586	94.6012	60.0586	94.5851	60.0586	94.5409	60.0586	94.5256	60.0586	94.4898	60.0586	94.4763	60.0586	94.4489	60.0586	94.438	60.0586	94.4187	60.0586	94.4111	60.0586	94.3997	60.0586	94.3958	60.0586	94.3921
62.9883	95.4165	62.9883	95.4085	62.9883	95.4094	62.9883	95.3857	62.9883	95.3874	62.9883	95.3491	62.9883	95.3511	62.9883	95.3003	62.9883	95.302	62.9883	95.2413	62.9883	95.2418	62.9883	95.1745	62.9883	95.173	62.9883	95.1028	62.9883	95.098	62.9883	95.0288	62.9883	95.0199	62.9883	94.9555	62.9883	94.9418	62.9883	94.8853	62.9883	94.8668	62.9883	94.8202	62.9883	94.7974	62.9883	94.7618	62.9883	94.736	62.9883	94.7109	62.9883	94.684	62.9883	94.6682	62.9883	94.6426	62.9883	94.6337	62.9883	94.6118	62.9883	94.6076	62.9883	94.5916	62.9883	94.5901	62.9883	94.5816	62.9883	94.5813
64.4531	95.4361	64.4531	95.423	64.4531	95.4333	64.4531	95.3945	64.4531	95.4146	64.4531	95.3516	64.4531	95.3808	64.4531	95.2961	64.4531	95.3331	64.4531	95.23	64.4531	95.2733	64.4531	95.156	64.4531	95.2037	64.4531	95.077	64.4531	95.127	64.4531	94.9959	64.4531	95.0462	64.4531	94.9159	64.4531	94.9646	64.4531	94.8399	64.4531	94.8853	64.4531	94.7701	64.4531	94.8112	64.4531	94.7087	64.4531	94.7448	64.4531	94.657	64.4531	94.6876	64.4531	94.6157	64.4531	94.6406	64.4531	94.5849	64.4531	94.6039	64.4531	94.5644	64.4531	94.5772	64.4531	94.5537	64.4531	94.5601	64.4531	94.5523
67.3828	95.4606	67.3828	95.4447	67.3828	95.4604	67.3828	95.4132	67.3828	95.4444	67.3828	95.3671	67.3828	95.4133	67.3828	95.3083	67.3828	95.3688	67.3828	95.2392	67.3828	95.3129	67.3828	95.1626	67.3828	95.248	67.3828	95.0819	67.3828	95.177	67.3828	95.0006	67.3828	95.1026	67.3828	94.922	67.3828	95.028	67.3828	94.8493	67.3828	94.9557	67.3828	94.7851	67.3828	94.8883	67.3828	94.7312	67.3828	94.8276	67.3828	94.6886	67.3828	94.7748	67.3828	94.6575	67.3828	94.7304	67.3828	94.6374	67.3828	94.6943	67.3828	94.6272	67.3828	94.6663	67.3828	94.6257	67.3828	94.6456	67.3828	94.6321
68.8477	95.4749	68.8477	95.4593	68.8477	95.4733	68.8477	95.4269	68.8477	95.4552	68.8477	95.3788	68.8477	95.4218	68.8477	95.3167	68.8477	95.3752	68.8477	95.2434	68.8477	95.3179	68.8477	95.1621	68.8477	95.2527	68.8477	95.0766	68.8477	95.1829	68.8477	94.9909	68.8477	95.1115	68.8477	94.9089	68.8477	95.0413	68.8477	94.8345	68.8477	94.9746	68.8477	94.7705	68.8477	94.913	68.8477	94.7189	68.8477	94.8578	68.8477	94.6806	68.8477	94.8092	68.8477	94.6555	68.8477	94.7673	68.8477	94.6425	68.8477	94.7318	68.8477	94.6399	68.8477	94.702	68.8477	94.6458	68.8477	94.6777	68.8477	94.6588
71.7773	95.6218	71.7773	95.6074	71.7773	95.6166	71.7773	95.5737	71.7773	95.5922	71.7773	95.5219	71.7773	95.55	71.7773	95.4541	71.7773	95.4921	71.7773	95.3729	71.7773	95.4215	71.7773	95.2819	71.7773	95.3416	71.7773	95.1851	71.7773	95.2563	71.7773	95.0869	71.7773	95.1696	71.7773	94.9918	71.7773	95.0852	71.7773	94.9041	71.7773	95.0061	71.7773	94.8272	71.7773	94.9345	71.7773	94.7639	71.7773	94.8717	71.7773	94.7153	71.7773	94.818	71.7773	94.6815	71.7773	94.7729	71.7773	94.6614	71.7773	94.7357	71.7773	94.6532	71.7773	94.7056	71.7773	94.6549	71.7773	94.682	71.7773	94.6649
74.707	95.6723	74.707	95.6533	74.707	95.6715	74.707	95.6148	74.707	95.651	74.707	95.5582	74.707	95.6122	74.707	95.4853	74.707	95.5567	74.707	95.3989	74.707	95.4872	74.707	95.3025	74.707	95.4066	74.707	95.1999	74.707	95.3186	74.707	95.0956	74.707	95.2268	74.707	94.9938	74.707	95.1347	74.707	94.8989	74.707	95.0458	74.707	94.8144	74.707	94.9628	74.707	94.7431	74.707	94.8875	74.707	94.6867	74.707	94.8211	74.707	94.6459	74.707	94.7639	74.707	94.6203	74.707	94.7157	74.707	94.6089	74.707	94.6761	74.707	94.6103	74.707	94.6451	74.707	94.6228
77.6367	95.6684	77.6367	95.6562	77.6367	95.6614	77.6367	95.6247	77.6367	95.6358	77.6367	95.5751	77.6367	95.593	77.6367	95.5092	77.6367	95.5353	77.6367	95.4296	77.6367	95.4657	77.6367	95.3397	77.6367	95.3875	77.6367	95.2434	77.6367	95.3044	77.6367	95.1451	77.6367	95.22	77.6367	95.0493	77.6367	95.138	77.6367	94.9601	77.6367	95.061	77.6367	94.8811	77.6367	94.9911	77.6367	94.8151	77.6367	94.9293	77.6367	94.7637	77.6367	94.8757	77.6367	94.7273	77.6367	94.8298	77.6367	94.7053	77.6367	94.7907	77.6367	94.6964	77.6367	94.7578	77.6367	94.6989	77.6367	94.731	77.6367	94.711
79.1016	95.6621	79.1016	95.6538	79.1016	95.6503	79.1016	95.6256	79.1016	95.6193	79.1016	95.5784	79.1016	95.5707	79.1016	95.5142	79.1016	95.5072	79.1016	95.4357	79.1016	95.4319	79.1016	95.3465	79.1016	95.3486	79.1016	95.2506	79.1016	95.2615	79.1016	95.1527	79.1016	95.1745	79.1016	95.0573	79.1016	95.0915	79.1016	94.9688	79.1016	95.0154	79.1016	94.8909	79.1016	94.9484	79.1016	94.8262	79.1016	94.8914	79.1016	94.776	79.1016	94.8441	79.1016	94.7405	79.1016	94.8056	79.1016	94.7186	79.1016	94.7746	79.1016	94.7086	79.1016	94.7497	79.1016	94.7084	79.1016	94.7301	79.1016	94.7161
82.0312	95.6212	82.0312	95.6178	82.0312	95.6025	82.0312	95.5924	82.0312	95.5626	82.0312	95.546	82.0312	95.5036	82.0312	95.4808	82.0312	95.4282	82.0312	95.3999	82.0312	95.3404	82.0312	95.307	82.0312	95.2446	82.0312	95.2068	82.0312	95.1458	82.0312	95.1043	82.0312	95.0488	82.0312	95.0045	82.0312	94.9582	82.0312	94.9121	82.0312	94.8777	82.0312	94.831	82.0312	94.8097	82.0312	94.764	82.0312	94.7551	82.0312	94.7121	82.0312	94.7134	82.0312	94.6751	82.0312	94.6832	82.0312	94.6513	82.0312	94.662	82.0312	94.6381	82.0312	94.6478	82.0312	94.633	82.0312	94.6386	82.0312	94.6336
84.9609	95.5518	84.9609	95.5471	84.9609	95.5344	84.9609	95.5206	84.9609	95.4958	84.9609	95.4733	84.9609	95.4379	84.9609	95.4076	84.9609	95.3638	84.9609	95.3266	84.9609	95.2775	84.9609	95.2346	84.9609	95.1835	84.9609	95.1363	84.9609	95.0872	84.9609	95.0369	84.9609	94.9935	84.9609	94.9417	84.9609	94.9073	84.9609	94.8554	84.9609	94.8322	84.9609	94.7818	84.9609	94.7707	84.9609	94.7233	84.9609	94.7234	84.9609	94.6804	84.9609	94.6894	84.9609	94.6521	84.9609	94.6666	84.9609	94.6361	84.9609	94.652	84.9609	94.6293	84.9609	94.6426	84.9609	94.6286	84.9609	94.6361	84.9609	94.6314
87.8906	95.5927	87.8906	95.5903	87.8906	95.5709	87.8906	95.5641	87.8906	95.5257	87.8906	95.5155	87.8906	95.4591	87.8906	95.4471	87.8906	95.3744	87.8906	95.3625	87.8906	95.276	87.8906	95.2662	87.8906	95.169	87.8906	95.1633	87.8906	95.0595	87.8906	95.0595	87.8906	94.9537	87.8906	94.9603	87.8906	94.8573	87.8906	94.8707	87.8906	94.7749	87.8906	94.7946	87.8906	94.7097	87.8906	94.7343	87.8906	94.6627	87.8906	94.6903	87.8906	94.6328	87.8906	94.661	87.8906	94.6173	87.8906	94.6434	87.8906	94.6123	87.8906	94.6336	87.8906	94.6138	87.8906	94.6277	87.8906	94.6182	87.8906	94.623
90.8203	95.635	90.8203	95.6235	90.8203	95.6215	90.8203	95.5874	90.8203	95.5833	90.8203	95.5284	90.8203	95.5221	90.8203	95.4488	90.8203	95.4403	90.8203	95.3518	90.8203	95.3415	90.8203	95.2417	90.8203	95.2303	90.8203	95.1233	90.8203	95.1119	90.8203	95.0018	90.8203	94.9921	90.8203	94.8827	90.8203	94.8766	90.8203	94.7713	90.8203	94.7703	90.8203	94.6721	90.8203	94.6772	90.8203	94.5885	90.8203	94.5998	90.8203	94.5224	90.8203	94.5387	90.8203	94.4739	90.8203	94.4929	90.8203	94.4418	90.8203	94.4603	90.8203	94.4234	90.8203	94.4381	90.8203	94.4158	90.8203	94.4239	90.8203	94.4165
95.2148	95.4143	95.2148	95.4052	95.2148	95.398	95.2148	95.3713	95.2148	95.357	95.2148	95.3143	95.2148	95.2937	95.2148	95.2374	95.2148	95.2113	95.2148	95.1447	95.2148	95.1147	95.2148	95.0414	95.2148	95.0095	95.2148	94.933	95.2148	94.9017	95.2148	94.8255	95.2148	94.7975	95.2148	94.7244	95.2148	94.7025	95.2148	94.6347	95.2148	94.6212	95.2148	94.5599	95.2148	94.5562	95.2148	94.5021	95.2148	94.5083	95.2148	94.4614	95.2148	94.4761	95.2148	94.4365	95.2148	94.4566	95.2148	94.4246	95.2148	94.4458	95.2148	94.422	95.2148	94.4396	95.2148	94.4249	95.2148	94.4348	95.2148	94.4298
98.1445	95.389	98.1445	95.3788	98.1445	95.3726	98.1445	95.3425	98.1445	95.3304	98.1445	95.2822	98.1445	95.2647	98.1445	95.2011	98.1445	95.179	98.1445	95.1038	98.1445	95.0782	98.1445	94.9959	98.1445	94.9683	98.1445	94.8837	98.1445	94.8558	98.1445	94.7738	98.1445	94.7477	98.1445	94.6725	98.1445	94.6499	98.1445	94.5849	98.1445	94.5674	98.1445	94.5144	98.1445	94.503	98.1445	94.4624	98.1445	94.4571	98.1445	94.4279	98.1445	94.4279	98.1445	94.4082	98.1445	94.4118	98.1445	94.3994	98.1445	94.4045	98.1445	94.3973	98.1445	94.4021	98.1445	94.3984	98.1445	94.4012	98.1445	94.4
101.074	95.3699	101.074	95.36	101.074	95.3516	101.074	95.3222	101.074	95.3059	101.074	95.2581	101.074	95.2355	101.074	95.1712	101.074	95.144	101.074	95.0659	101.074	95.0366	101.074	94.9482	101.074	94.9194	101.074	94.8251	101.074	94.7994	101.074	94.7043	101.074	94.6842	101.074	94.5933	101.074	94.5807	101.074	94.4986	101.074	94.4948	101.074	94.4251	101.074	94.4301	101.074	94.3748	101.074	94.3874	101.074	94.3469	101.074	94.3645	101.074	94.3374	101.074	94.357	101.074	94.3408	101.074	94.3589	101.074	94.3505	101.074	94.3642	101.074	94.3606	101.074	94.368	101.074	94.3671
105.469	95.4909	105.469	95.4823	105.469	95.4675	105.469	95.4418	105.469	95.4138	105.469	95.3708	105.469	95.3331	105.469	95.2728	105.469	95.2301	105.469	95.1523	105.469	95.1109	105.469	95.0157	105.469	94.9826	105.469	94.8704	105.469	94.8525	105.469	94.7248	105.469	94.7281	105.469	94.5873	105.469	94.6155	105.469	94.4658	105.469	94.5195	105.469	94.3663	105.469	94.4428	105.469	94.2924	105.469	94.3855	105.469	94.2446	105.469	94.3454	105.469	94.2204	105.469	94.3187	105.469	94.2151	105.469	94.3005	105.469	94.2229	105.469	94.2859	105.469	94.2378	105.469	94.2712	105.469	94.255
108.398	95.6566	108.398	95.6461	108.398	95.6322	108.398	95.6015	108.398	95.5739	108.398	95.5248	108.398	95.484	108.398	95.4197	108.398	95.3666	108.398	95.2907	108.398	95.2277	108.398	95.144	108.398	95.0749	108.398	94.9867	108.398	94.9169	108.398	94.8267	108.398	94.7633	108.398	94.6723	108.398	94.6226	108.398	94.5318	108.398	94.502	108.398	94.4118	108.398	94.4056	108.398	94.317	108.398	94.334	108.398	94.2491	108.398	94.2848	108.398	94.2067	108.398	94.2529	108.398	94.1858	108.398	94.2326	108.398	94.1807	108.398	94.2184	108.398	94.1855	108.398	94.2065	108.398	94.1952
112.793	95.7366	112.793	95.7241	112.793	95.7137	112.793	95.6767	112.793	95.6564	112.793	95.5965	112.793	95.5672	112.793	95.4874	112.793	95.4504	112.793	95.3544	112.793	95.3119	112.793	95.2044	112.793	95.1591	112.793	95.0452	112.793	95.0008	112.793	94.8858	112.793	94.8463	112.793	94.7352	112.793	94.7046	112.793	94.6017	112.793	94.5835	112.793	94.4917	112.793	94.4879	112.793	94.4091	112.793	94.4194	112.793	94.3543	112.793	94.3762	112.793	94.3245	112.793	94.3531	112.793	94.3141	112.793	94.3434	112.793	94.3163	112.793	94.34	112.793	94.3241	112.793	94.3373	112.793	94.332
117.188	95.8212	117.188	95.8109	117.188	95.7959	117.188	95.7658	117.188	95.7359	117.188	95.6878	117.188	95.6432	117.188	95.5802	117.188	95.5215	117.188	95.4478	117.188	95.3759	117.188	95.2966	117.188	95.2132	117.188	95.1341	117.188	95.0417	117.188	94.9685	117.188	94.8706	117.188	94.8086	117.188	94.7095	117.188	94.6627	117.188	94.5674	117.188	94.5379	117.188	94.451	117.188	94.4385	117.188	94.3637	117.188	94.3659	117.188	94.3053	117.188	94.318	117.188	94.272	117.188	94.2899	117.188	94.2576	117.188	94.2752	117.188	94.255	117.188	94.2677	117.188	94.258	117.188	94.2626
120.117	95.8546	120.117	95.8347	120.117	95.8386	120.117	95.7798	120.117	95.7875	120.117	95.6919	120.117	95.7033	120.117	95.5747	120.117	95.5896	120.117	95.4332	120.117	95.4515	120.117	95.2736	120.117	95.2953	120.117	95.1035	120.117	95.1289	120.117	94.9314	120.117	94.9608	120.117	94.7661	120.117	94.8002	120.117	94.6161	120.117	94.6553	120.117	94.4886	120.117	94.5326	120.117	94.3882	120.117	94.4359	120.117	94.3165	120.117	94.3655	120.117	94.2716	120.117	94.3184	120.117	94.249	120.117	94.2892	120.117	94.2422	120.117	94.2717	120.117	94.2447	120.117	94.2604	120.117	94.2516
124.512	95.7902	124.512	95.7753	124.512	95.769	124.512	95.7246	124.512	95.7128	124.512	95.6401	124.512	95.6249	124.512	95.5255	124.512	95.5097	124.512	95.3863	124.512	95.3734	124.512	95.2293	124.512	95.2233	124.512	95.0627	124.512	95.0676	124.512	94.8955	124.512	94.9148	124.512	94.7371	124.512	94.7728	124.512	94.5958	124.512	94.6484	124.512	94.4785	124.512	94.546	124.512	94.3892	124.512	94.4672	124.512	94.3288	124.512	94.411	124.512	94.2949	124.512	94.3737	124.512	94.2824	124.512	94.3499	124.512	94.2846	124.512	94.3339	124.512	94.2949	124.512	94.3209	124.512	94.3079
128.906	95.7632	128.906	95.7483	128.906	95.7401	128.906	95.6959	128.906	95.6805	128.906	95.6083	128.906	95.5873	128.906	95.4895	128.906	95.4656	128.906	95.3452	128.906	95.3224	128.906	95.1832	128.906	95.1664	128.906	95.0127	128.906	95.0079	128.906	94.8443	128.906	94.8576	128.906	94.6888	128.906	94.7254	128.906	94.5562	128.906	94.619	128.906	94.4541	128.906	94.5424	128.906	94.3866	128.906	94.4953	128.906	94.3534	128.906	94.4732	128.906	94.3497	128.906	94.4683	128.906	94.3675	128.906	94.4716	128.906	94.3969	128.906	94.4742	128.906	94.4283	128.906	94.4695	128.906	94.454
133.301	95.8073	133.301	95.7998	133.301	95.776	133.301	95.7536	133.301	95.7076	133.301	95.6705	133.301	95.6056	133.301	95.554	133.301	95.4752	133.301	95.4097	133.301	95.3238	133.301	95.2449	133.301	95.1602	133.301	95.0688	133.301	94.9947	133.301	94.8921	133.301	94.8385	133.301	94.7259	133.301	94.702	133.301	94.5812	133.301	94.5931	133.301	94.4668	133.301	94.5163	133.301	94.3883	133.301	94.4713	133.301	94.3466	133.301	94.4528	133.301	94.3376	133.301	94.4523	133.301	94.3534	133.301	94.4595	133.301	94.3834	133.301	94.4647	133.301	94.4168	133.301	94.4608	133.301	94.4444
139.16	95.8036	139.16	95.8043	139.16	95.7611	139.16	95.7638	139.16	95.6784	139.16	95.6842	139.16	95.5589	139.16	95.5695	139.16	95.4081	139.16	95.4256	139.16	95.2339	139.16	95.26	139.16	95.046	139.16	95.0821	139.16	94.8561	139.16	94.9023	139.16	94.6765	139.16	94.7321	139.16	94.5195	139.16	94.582	139.16	94.3949	139.16	94.4607	139.16	94.3084	139.16	94.3734	139.16	94.2605	139.16	94.3204	139.16	94.246	139.16	94.2974	139.16	94.2558	139.16	94.2965	139.16	94.2783	139.16	94.3074	139.16	94.3025	139.16	94.3198	139.16	94.3198	139.16	94.3255
143.555	95.7905	143.555	95.7809	143.555	95.7562	143.555	95.7283	143.555	95.6787	143.555	95.6355	143.555	95.561	143.555	95.5073	143.555	95.408	143.555	95.3503	143.555	95.2271	143.555	95.173	143.555	95.0282	143.555	94.9857	143.555	94.8235	143.555	94.8001	143.555	94.6271	143.555	94.6284	143.555	94.4534	143.555	94.4816	143.555	94.315	143.555	94.3684	143.555	94.2201	143.555	94.2926	143.555	94.1704	143.555	94.2532	143.555	94.1606	143.555	94.2436	143.555	94.1797	143.555	94.2536	143.555	94.214	143.555	94.2716	143.555	94.2501	143.555	94.2864	143.555	94.2773	143.555	94.2898
147.949	95.8032	147.949	95.7853	147.949	95.7766	147.949	95.7236	147.949	95.7066	147.949	95.6207	147.949	95.5965	147.949	95.4814	147.949	95.4515	147.949	95.3123	147.949	95.2789	147.949	95.1222	147.949	95.0882	147.949	94.9218	147.949	94.8909	147.949	94.7235	147.949	94.6999	147.949	94.5405	147.949	94.5286	147.949	94.3852	147.949	94.3889	147.949	94.2672	147.949	94.2887	147.949	94.1917	147.949	94.2304	147.949	94.1575	147.949	94.2094	147.949	94.1578	147.949	94.2158	147.949	94.1812	147.949	94.2363	147.949	94.2147	147.949	94.2579	147.949	94.2461	147.949	94.2698	147.949	94.2661
153.809	95.7896	153.809	95.7775	153.809	95.7524	153.809	95.7164	153.809	95.6677	153.809	95.6086	153.809	95.5393	153.809	95.4587	153.809	95.3736	153.809	95.2736	153.809	95.1792	153.809	95.0626	153.809	94.9676	153.809	94.8375	153.809	94.752	153.809	94.6127	153.809	94.5473	153.809	94.4038	153.809	94.3683	153.809	94.2258	153.809	94.2276	153.809	94.0911	153.809	94.1327	153.809	94.0064	153.809	94.0839	153.809	93.9711	153.809	94.0743	153.809	93.9776	153.809	94.0909	153.809	94.0124	153.809	94.1181	153.809	94.0599	153.809	94.1414	153.809	94.1055	153.809	94.1497	153.809	94.1375
159.668	95.9139	159.668	95.9109	159.668	95.8645	159.668	95.8567	159.668	95.7636	159.668	95.754	159.668	95.6145	159.668	95.6072	159.668	95.4229	159.668	95.4225	159.668	95.1976	159.668	95.208	159.668	94.9509	159.668	94.9742	159.668	94.6979	159.668	94.7342	159.668	94.4562	159.668	94.5031	159.668	94.2438	159.668	94.2967	159.668	94.0763	159.668	94.1293	159.668	93.9639	159.668	94.0107	159.668	93.9081	159.668	93.9437	159.668	93.9009	159.668	93.9233	159.668	93.9272	159.668	93.9373	159.668	93.968	159.668	93.9697	159.668	94.0055	159.668	94.0037	159.668	94.0267	159.668	94.0256
165.527	96.175	165.527	96.163	165.527	96.1368	165.527	96.1026	165.527	96.0487	165.527	95.9973	165.527	95.913	165.527	95.8522	165.527	95.7349	165.527	95.6742	165.527	95.5224	165.527	95.4715	165.527	95.2869	165.527	95.2547	165.527	95.0431	165.527	95.0358	165.527	94.8083	165.527	94.8291	165.527	94.6006	165.527	94.649	165.527	94.4363	165.527	94.5084	165.527	94.3261	165.527	94.415	165.527	94.2728	165.527	94.3696	165.527	94.2699	165.527	94.3648	165.527	94.3032	165.527	94.3868	165.527	94.3545	165.527	94.4193	165.527	94.4055	165.527	94.4462	165.527	94.442	165.527	94.4558
171.387	96.138	171.387	96.1177	171.387	96.1034	171.387	96.0441	171.387	96.0146	171.387	95.9209	171.387	95.8748	171.387	95.7542	171.387	95.69	171.387	95.5524	171.387	95.4692	171.387	95.3265	171.387	95.2253	171.387	95.0902	171.387	94.9744	171.387	94.8592	171.387	94.7358	171.387	94.6508	171.387	94.5295	171.387	94.481	171.387	94.373	171.387	94.3627	171.387	94.2777	171.387	94.3017	171.387	94.2453	171.387	94.2949	171.387	94.2668	171.387	94.3303	171.387	94.3251	171.387	94.3899	171.387	94.3984	171.387	94.4533	171.387	94.4659	171.387	94.5022	171.387	94.5108	171.387	94.5235
177.246	96.0532	177.246	96.0414	177.246	96.0103	177.246	95.9757	177.246	95.9137	177.246	95.8588	177.246	95.7662	177.246	95.6953	177.246	95.5733	177.246	95.4921	177.246	95.3429	177.246	95.2588	177.246	95.0864	177.246	95.0073	177.246	94.8191	177.246	94.753	177.246	94.5598	177.246	94.5131	177.246	94.3293	177.246	94.3061	177.246	94.1473	177.246	94.1485	177.246	94.0277	177.246	94.0508	177.246	93.9744	177.246	94.0142	177.246	93.98	177.246	94.0292	177.246	94.0273	177.246	94.0774	177.246	94.0938	177.246	94.1365	177.246	94.157	177.246	94.1855	177.246	94.1988	177.246	94.2088
183.105	95.8861	183.105	95.8765	183.105	95.8383	183.105	95.8101	183.105	95.735	183.105	95.6897	183.105	95.5806	183.105	95.5205	183.105	95.3823	183.105	95.3106	183.105	95.1506	183.105	95.0709	183.105	94.8989	183.105	94.8157	183.105	94.644	183.105	94.5623	183.105	94.4046	183.105	94.3303	183.105	94.2001	183.105	94.1386	183.105	94.0468	183.105	94.0027	183.105	93.9548	183.105	93.9303	183.105	93.9248	183.105	93.919	183.105	93.9473	183.105	93.9562	183.105	94.0051	183.105	94.0222	183.105	94.0765	183.105	94.0949	183.105	94.1403	183.105	94.154	183.105	94.1796	183.105	94.1847
188.965	95.92	188.965	95.9201	188.965	95.8552	188.965	95.8573	188.965	95.7261	188.965	95.7354	188.965	95.5364	188.965	95.5604	188.965	95.2931	188.965	95.3405	188.965	95.0082	188.965	95.0864	188.965	94.6991	188.965	94.812	188.965	94.3888	188.965	94.5346	188.965	94.1046	188.965	94.275	188.965	93.8744	188.965	94.0557	188.965	93.7205	188.965	93.8968	188.965	93.6534	188.965	93.8111	188.965	93.6676	188.965	93.7988	188.965	93.7438	188.965	93.8461	188.965	93.854	188.965	93.9289	188.965	93.9689	188.965	94.0194	188.965	94.0633	188.965	94.0923	188.965	94.1196	188.965	94.129
196.289	96.1579	196.289	96.1345	196.289	96.1152	196.289	96.0486	196.289	96.005	196.289	95.9055	196.289	95.8279	196.289	95.7127	196.289	95.5876	196.289	95.4802	196.289	95.2916	196.289	95.2203	196.289	94.9533	196.289	94.9478	196.289	94.5928	196.289	94.6798	196.289	94.2378	196.289	94.4342	196.289	93.9217	196.289	94.2289	196.289	93.6774	196.289	94.0785	196.289	93.5288	196.289	93.9901	196.289	93.4826	196.289	93.9609	196.289	93.5255	196.289	93.9767	196.289	93.6292	196.289	94.0155	196.289	93.76	196.289	94.0533	196.289	93.8869	196.289	94.0693	196.289	93.9876	196.289	94.0494
203.613	96.1745	203.613	96.1294	203.613	96.1428	203.613	96.0096	203.613	96.0349	203.613	95.82	203.613	95.8532	203.613	95.569	203.613	95.6026	203.613	95.2689	203.613	95.2908	203.613	94.937	203.613	94.9305	203.613	94.5951	203.613	94.5415	203.613	94.2697	203.613	94.1532	203.613	93.9894	203.613	93.8034	203.613	93.7809	203.613	93.5334	203.613	93.6628	203.613	93.3754	203.613	93.6389	203.613	93.34	203.613	93.6954	203.613	93.4116	203.613	93.8033	203.613	93.5546	203.613	93.926	203.613	93.7267	203.613	94.0291	203.613	93.8896	203.613	94.0861	203.613	94.0142	203.613	94.0823
210.938	96.3687	210.938	96.3225	210.938	96.345	210.938	96.2054	210.938	96.2538	210.938	96.018	210.938	96.0982	210.938	95.7638	210.938	95.8824	210.938	95.4501	210.938	95.6117	210.938	95.0891	210.938	95.2942	210.938	94.6984	210.938	94.942	210.938	94.3018	210.938	94.573	210.938	93.9289	210.938	94.2128	210.938	93.6127	210.938	93.8932	210.938	93.3846	210.938	93.6477	210.938	93.2656	210.938	93.5002	210.938	93.2566	210.938	93.455	210.938	93.3356	210.938	93.4926	210.938	93.4631	210.938	93.5769	210.938	93.5954	210.938	93.6677	210.938	93.6961	210.938	93.7308	210.938	93.7432
218.262	96.192	218.262	96.1839	218.262	96.1376	218.262	96.1107	218.262	96.0239	218.262	95.9703	218.262	95.8548	218.262	95.7622	218.262	95.6353	218.262	95.4885	218.262	95.3724	218.262	95.1565	218.262	95.0756	218.262	94.7807	218.262	94.759	218.262	94.3841	218.262	94.4415	218.262	93.9982	218.262	94.1472	218.262	93.6596	218.262	93.9023	218.262	93.4036	218.262	93.7289	218.262	93.2552	218.262	93.6373	218.262	93.22	218.262	93.621	218.262	93.281	218.262	93.658	218.262	93.4033	218.262	93.7175	218.262	93.5451	218.262	93.7681	218.262	93.67	218.262	93.7851	218.262	93.7535
225.586	96.2041	225.586	96.2232	225.586	96.113	225.586	96.1706	225.586	95.9516	225.586	96.0475	225.586	95.7238	225.586	95.856	225.586	95.4377	225.586	95.6003	225.586	95.1065	225.586	95.2874	225.586	94.7502	225.586	94.9305	225.586	94.3956	225.586	94.5507	225.586	94.0749	225.586	94.1783	225.586	93.821	225.586	93.8505	225.586	93.6599	225.586	93.6046	225.586	93.6025	225.586	93.4675	225.586	93.6395	225.586	93.4467	225.586	93.7437	225.586	93.5258	225.586	93.8779	225.586	93.6699	225.586	94.0043	225.586	93.8357	225.586	94.0923	225.586	93.9835	225.586	94.1217	225.586	94.0843
232.91	96.3808	232.91	96.378	232.91	96.2992	232.91	96.2957	232.91	96.1299	232.91	96.1393	232.91	95.8721	232.91	95.9147	232.91	95.5281	232.91	95.6281	232.91	95.1057	232.91	95.2875	232.91	94.6212	232.91	94.905	232.91	94.1042	232.91	94.5005	232.91	93.6021	232.91	94.1041	232.91	93.1801	232.91	93.7552	232.91	92.9071	232.91	93.4962	232.91	92.8277	232.91	93.3592	232.91	92.935	232.91	93.353	232.91	93.1721	232.91	93.4572	232.91	93.4606	232.91	93.6285	232.91	93.7299	232.91	93.8144	232.91	93.9317	232.91	93.9668	232.91	94.0406	232.91	94.0495
241.699	96.5435	241.699	96.5034	241.699	96.5053	241.699	96.3896	241.699	96.3859	241.699	96.208	241.699	96.1837	241.699	95.9651	241.699	95.8991	241.699	95.6679	241.699	95.5341	241.699	95.3233	241.699	95.0944	241.699	94.9404	241.699	94.5911	241.699	94.5325	241.699	94.0468	241.699	94.1212	241.699	93.5015	241.699	93.7371	241.699	93.017	241.699	93.4168	241.699	92.6682	241.699	93.1952	241.699	92.5151	241.699	93.094	241.699	92.5661	241.699	93.1109	241.699	92.7677	241.699	93.2153	241.699	93.0327	241.699	93.3542	241.699	93.2777	241.699	93.4682	241.699	93.4451	241.699	93.5079
250.488	96.3558	250.488	96.3325	250.488	96.2966	250.488	96.2307	250.488	96.1545	250.488	96.0572	250.488	95.9318	250.488	95.8208	250.488	95.6332	250.488	95.5308	250.488	95.2656	250.488	95.197	250.488	94.8387	250.488	94.831	250.488	94.3674	250.488	94.4491	250.488	93.8758	250.488	94.0746	250.488	93.4006	250.488	93.7365	250.488	92.9927	250.488	93.4628	250.488	92.7093	250.488	93.2736	250.488	92.5931	250.488	93.1774	250.488	92.6479	250.488	93.1694	250.488	92.8293	250.488	93.2307	250.488	93.0626	250.488	93.3281	250.488	93.2738	250.488	93.418	250.488	93.4118	250.488	93.4566
259.277	96.8832	259.277	96.8099	259.277	96.8697	259.277	96.6519	259.277	96.7677	259.277	96.4127	259.277	96.5763	259.277	96.0984	259.277	96.2949	259.277	95.7193	259.277	95.9247	259.277	95.2899	259.277	95.4701	259.277	94.8306	259.277	94.942	259.277	94.3697	259.277	94.3623	259.277	93.9453	259.277	93.77	259.277	93.6026	259.277	93.2238	259.277	93.3792	259.277	92.7971	259.277	93.2857	259.277	92.5561	259.277	93.2998	259.277	92.5275	259.277	93.3803	259.277	92.6791	259.277	93.4843	259.277	92.9346	259.277	93.5731	259.277	93.2083	259.277	93.6115	259.277	93.4328	259.277	93.5699
268.066	96.5495	268.066	96.4974	268.066	96.5228	268.066	96.3686	268.066	96.4158	268.066	96.1667	268.066	96.2286	268.066	95.8957	268.066	95.9626	268.066	95.561	268.066	95.6204	268.066	95.1693	268.066	95.2081	268.066	94.7315	268.066	94.7377	268.066	94.2674	268.066	94.2326	268.066	93.8116	268.066	93.7327	268.066	93.4182	268.066	93.2951	268.066	93.1495	268.066	92.9849	268.066	93.0475	268.066	92.8499	268.066	93.1037	268.066	92.8934	268.066	93.2618	268.066	93.0675	268.066	93.4502	268.066	93.2966	268.066	93.6116	268.066	93.5104	268.066	93.711	268.066	93.6622	268.066	93.7304
276.855	96.4861	276.855	96.3887	276.855	96.5135	276.855	96.2239	276.855	96.466	276.855	95.991	276.855	96.3372	276.855	95.6861	276.855	96.1194	276.855	95.3039	276.855	95.8052	276.855	94.8442	276.855	95.3918	276.855	94.3202	276.855	94.8857	276.855	93.7648	276.855	94.3093	276.855	93.2337	276.855	93.7038	276.855	92.8007	276.855	93.1266	276.855	92.5433	276.855	92.6438	276.855	92.5095	276.855	92.32	276.855	92.6833	276.855	92.208	276.855	92.9822	276.855	92.3248	276.855	93.2974	276.855	92.625	276.855	93.5359	276.855	93.0055	276.855	93.6378	276.855	93.3505	276.855	93.5749
287.109	96.5346	287.109	96.4941	287.109	96.4819	287.109	96.3554	287.109	96.3462	287.109	96.1194	287.109	96.1414	287.109	95.794	287.109	95.884	287.109	95.3923	287.109	95.5883	287.109	94.9296	287.109	95.2598	287.109	94.4202	287.109	94.8924	287.109	93.881	287.109	94.4745	287.109	93.3394	287.109	94.0069	287.109	92.8424	287.109	93.5247	287.109	92.4546	287.109	93.103	287.109	92.2368	287.109	92.8246	287.109	92.2125	287.109	92.7209	287.109	92.3452	287.109	92.7474	287.109	92.5528	287.109	92.8266	287.109	92.7501	287.109	92.9008	287.109	92.8846	287.109	92.9446	287.109	92.9448
297.363	96.5973	297.363	96.5895	297.363	96.5204	297.363	96.5056	297.363	96.3523	297.363	96.3543	297.363	96.0882	297.363	96.1403	297.363	95.7264	297.363	95.8589	297.363	95.2729	297.363	95.4947	297.363	94.7484	297.363	95.0284	297.363	94.1921	297.363	94.4499	297.363	93.6587	297.363	93.7766	297.363	93.2068	297.363	93.0739	297.363	92.8857	297.363	92.4694	297.363	92.7265	297.363	92.1259	297.363	92.7332	297.363	92.1411	297.363	92.8741	297.363	92.4532	297.363	93.088	297.363	92.8844	297.363	93.309	297.363	93.268	297.363	93.4892	297.363	93.5174	297.363	93.6007	297.363	93.62
307.617	96.889	307.617	96.8175	307.617	96.8734	307.617	96.6578	307.617	96.7761	307.617	96.416	307.617	96.6019	307.617	96.1059	307.617	96.3501	307.617	95.7464	307.617	96.0097	307.617	95.3574	307.617	95.5617	307.617	94.9531	307.617	94.9878	307.617	94.5369	307.617	94.2847	307.617	94.1012	307.617	93.4826	307.617	93.6367	307.617	92.6637	307.617	93.1508	307.617	91.97	307.617	92.6888	307.617	91.5694	307.617	92.3382	307.617	91.5585	307.617	92.1915	307.617	91.8731	307.617	92.275	307.617	92.3253	307.617	92.5157	307.617	92.7229	307.617	92.7838	307.617	92.9454	307.617	92.9553
319.336	96.3364	319.336	96.284	319.336	96.2911	319.336	96.1325	319.336	96.1536	319.336	95.8826	319.336	95.9356	319.336	95.5348	319.336	95.6545	319.336	95.0889	319.336	95.3294	319.336	94.5469	319.336	94.9744	319.336	93.9217	319.336	94.5931	319.336	93.2524	319.336	94.1785	319.336	92.6177	319.336	93.7241	319.336	92.1254	319.336	93.2424	319.336	91.8598	319.336	92.782	319.336	91.8272	319.336	92.4257	319.336	91.9637	319.336	92.2526	319.336	92.1907	319.336	92.2829	319.336	92.4463	319.336	92.4576	319.336	92.6804	319.336	92.6755	319.336	92.8466	319.336	92.8441	319.336	92.9067
329.59	96.3796	329.59	96.3514	329.59	96.3188	329.59	96.2397	329.59	96.1653	329.59	96.0483	329.59	95.9195	329.59	95.7782	329.59	95.5876	329.59	95.4263	329.59	95.181	329.59	94.985	329.59	94.7145	329.59	94.4432	329.59	94.2053	329.59	93.7938	329.59	93.672	329.59	93.0518	329.59	93.1345	329.59	92.2832	329.59	92.6196	329.59	91.624	329.59	92.1753	329.59	91.2432	329.59	91.8785	329.59	91.2321	329.59	91.8019	329.59	91.5258	329.59	91.9493	329.59	91.9614	329.59	92.2343	329.59	92.3812	329.59	92.5338	329.59	92.6793	329.59	92.7452	329.59	92.8034
341.309	96.2714	341.309	96.2372	341.309	96.1917	341.309	96.0854	341.309	96.0073	341.309	95.8196	341.309	95.7317	341.309	95.4518	341.309	95.3829	341.309	95.0018	341.309	94.9829	341.309	94.4945	341.309	94.5574	341.309	93.9556	341.309	94.135	341.309	93.4083	341.309	93.7463	341.309	92.8744	341.309	93.4167	341.309	92.3799	341.309	93.1558	341.309	91.9663	341.309	92.9528	341.309	91.6944	341.309	92.7882	341.309	91.6191	341.309	92.654	341.309	91.7407	341.309	92.5597	341.309	91.9846	341.309	92.5179	341.309	92.243	341.309	92.523	341.309	92.434	341.309	92.5427	341.309	92.528
353.027	96.6038	353.027	96.6348	353.027	96.4492	353.027	96.5482	353.027	96.1626	353.027	96.3459	353.027	95.7366	353.027	96.0236	353.027	95.1678	353.027	95.5737	353.027	94.4611	353.027	94.9894	353.027	93.6349	353.027	94.2737	353.027	92.7337	353.027	93.4511	353.027	91.8519	353.027	92.5853	353.027	91.1528	353.027	91.7941	353.027	90.8281	353.027	91.2299	353.027	90.9629	353.027	91.0051	353.027	91.4526	353.027	91.1267	353.027	92.0981	353.027	91.5196	353.027	92.7328	353.027	92.0799	353.027	93.253	353.027	92.6896	353.027	93.5942	353.027	93.2256	353.027	93.7128	353.027	93.5861
366.211	96.763	366.211	96.6822	366.211	96.7357	366.211	96.4968	366.211	96.5997	366.211	96.2192	366.211	96.3514	366.211	95.8692	366.211	95.9827	366.211	95.4629	366.211	95.4827	366.211	94.9996	366.211	94.842	366.211	94.4631	366.211	94.0559	366.211	93.8417	366.211	93.1368	366.211	93.152	366.211	92.1458	366.211	92.4546	366.211	91.244	366.211	91.859	366.211	90.6847	366.211	91.5032	366.211	90.6258	366.211	91.4759	366.211	90.9461	366.211	91.7243	366.211	91.3905	366.211	92.0789	366.211	91.7953	366.211	92.374	366.211	92.1174	366.211	92.5209	366.211	92.359	366.211	92.5059
379.395	97.5826	379.395	97.5645	379.395	97.5075	379.395	97.4442	379.395	97.3445	379.395	97.2086	379.395	97.0945	379.395	96.843	379.395	96.7524	379.395	96.3342	379.395	96.3061	379.395	95.6737	379.395	95.7389	379.395	94.8589	379.395	95.0361	379.395	93.9048	379.395	94.196	379.395	92.875	379.395	93.2471	379.395	91.9195	379.395	92.2747	379.395	91.248	379.395	91.4467	379.395	90.9904	379.395	90.9886	379.395	91.1001	379.395	91.04	379.395	91.4444	379.395	91.5043	379.395	91.9077	379.395	92.1209	379.395	92.3894	379.395	92.6506	379.395	92.7843	379.395	92.9574	379.395	92.9957
392.578	97.3963	392.578	97.4046	392.578	97.3251	392.578	97.3543	392.578	97.1785	392.578	97.2359	392.578	96.944	392.578	97.0265	392.578	96.6133	392.578	96.6953	392.578	96.1797	392.578	96.2124	392.578	95.6332	392.578	95.5543	392.578	94.9576	392.578	94.711	392.578	94.1383	392.578	93.7027	392.578	93.1897	392.578	92.6252	392.578	92.2161	392.578	91.708	392.578	91.4826	392.578	91.2708	392.578	91.3247	392.578	91.4564	392.578	91.7973	392.578	92.0718	392.578	92.5854	392.578	92.8161	392.578	93.3492	392.578	93.4858	392.578	93.9101	392.578	93.9739	392.578	94.2059	392.578	94.2239
405.762	97.2409	405.762	97.2268	405.762	97.1548	405.762	97.1077	405.762	96.979	405.762	96.888	405.762	96.7235	405.762	96.5794	405.762	96.3925	405.762	96.1929	405.762	95.9839	405.762	95.7294	405.762	95.4916	405.762	95.1713	405.762	94.909	405.762	94.4856	405.762	94.2303	405.762	93.6504	405.762	93.4556	405.762	92.7082	405.762	92.6206	405.762	91.8326	405.762	91.8702	405.762	91.3273	405.762	91.4961	405.762	91.4176	405.762	91.7204	405.762	91.9981	405.762	92.3844	405.762	92.7493	405.762	93.119	405.762	93.4097	405.762	93.6798	405.762	93.8539	405.762	93.9904	405.762	94.0475
420.41	97.5838	420.41	97.5751	420.41	97.4776	420.41	97.4594	420.41	97.2618	420.41	97.2549	420.41	96.9489	420.41	96.9776	420.41	96.5467	420.41	96.6224	420.41	96.0437	420.41	96.155	420.41	95.4018	420.41	95.5215	420.41	94.565	420.41	94.6721	420.41	93.4872	420.41	93.5912	420.41	92.1797	420.41	92.3441	420.41	90.8012	420.41	91.1701	420.41	89.7906	420.41	90.5228	420.41	89.7272	420.41	90.7152	420.41	90.6151	420.41	91.4962	420.41	91.8437	420.41	92.4106	420.41	92.9244	420.41	93.2005	420.41	93.6692	420.41	93.7682	420.41	94.0426	420.41	94.0633
435.059	97.1013	435.059	97.0329	435.059	97.0904	435.059	96.8855	435.059	96.9976	435.059	96.6611	435.059	96.8229	435.059	96.3717	435.059	96.5768	435.059	96.0387	435.059	96.2747	435.059	95.6726	435.059	95.9125	435.059	95.2456	435.059	95.4424	435.059	94.6846	435.059	94.7775	435.059	93.8914	435.059	93.8326	435.059	92.7878	435.059	92.5835	435.059	91.4242	435.059	91.1511	435.059	90.2106	435.059	89.9231	435.059	89.9178	435.059	89.5228	435.059	90.6981	435.059	90.19	435.059	91.838	435.059	91.4011	435.059	92.7985	435.059	92.54	435.059	93.399	435.059	93.2961	435.059	93.5789
451.172	97.6226	451.172	97.6367	451.172	97.5199	451.172	97.5476	451.172	97.3319	451.172	97.3355	451.172	97.0516	451.172	96.991	451.172	96.6647	451.172	96.5228	451.172	96.1507	451.172	95.9437	451.172	95.4872	451.172	95.2446	451.172	94.6572	451.172	94.3866	451.172	93.6545	451.172	93.3311	451.172	92.4921	451.172	92.0937	451.172	91.2414	451.172	90.8067	451.172	90.1413	451.172	89.8144	451.172	89.6677	451.172	89.6737	451.172	90.1449	451.172	90.5792	451.172	91.2517	451.172	91.9542	451.172	92.4371	451.172	93.1596	451.172	93.3867	451.172	93.9153	451.172	93.9841	451.172	94.177
465.82	97.4815	465.82	97.3921	465.82	97.4618	465.82	97.2087	465.82	97.3364	465.82	96.9566	465.82	97.1268	465.82	96.6631	465.82	96.8577	465.82	96.3535	465.82	96.5338	465.82	96.0363	465.82	96.1221	465.82	95.6718	465.82	95.5561	465.82	95.1526	465.82	94.7586	465.82	94.3364	465.82	93.6622	465.82	93.1139	465.82	92.2234	465.82	91.4744	465.82	90.4811	465.82	89.6068	465.82	88.7965	465.82	88.1116	465.82	88.1483	465.82	87.8712	465.82	89.0389	465.82	88.8705	465.82	90.4674	465.82	90.2153	465.82	91.5575	465.82	91.3127	465.82	92.0549	465.82	91.9541
483.398	96.1001	483.398	96.0581	483.398	96.0435	483.398	95.9352	483.398	95.8889	483.398	95.7568	483.398	95.6518	483.398	95.5378	483.398	95.3545	483.398	95.2686	483.398	95.0224	483.398	94.9176	483.398	94.6715	483.398	94.4445	483.398	94.2786	483.398	93.8107	483.398	93.7536	483.398	92.9774	483.398	92.9663	483.398	91.9164	483.398	91.8456	483.398	90.6891	483.398	90.5401	483.398	89.6291	483.398	89.5416	483.398	89.3503	483.398	89.3551	483.398	90.0311	483.398	89.8695	483.398	91.0916	483.398	90.6545	483.398	91.9727	483.398	91.4511	483.398	92.4449	483.398	92.1044	483.398	92.4716
499.512	96.0208	499.512	95.9818	499.512	95.9433	499.512	95.8343	499.512	95.7746	499.512	95.6155	499.512	95.5638	499.512	95.3708	499.512	95.3572	499.512	95.125	499.512	95.1618	499.512	94.8677	499.512	94.9287	499.512	94.5557	499.512	94.5792	499.512	94.1132	499.512	94.0402	499.512	93.4397	499.512	93.2439	499.512	92.4387	499.512	92.1039	499.512	91.0838	499.512	90.5573	499.512	89.5778	499.512	88.8859	499.512	88.6101	499.512	88.2591	499.512	88.9356	499.512	89.3295	499.512	90.1597	499.512	90.8392	499.512	91.3972	499.512	91.9325	499.512	92.2341	499.512	92.4999	499.512	92.5959
517.09	96.2751	517.09	96.1935	517.09	96.1902	517.09	95.9576	517.09	95.9615	517.09	95.625	517.09	95.6373	517.09	95.277	517.09	95.2896	517.09	94.9593	517.09	94.9946	517.09	94.646	517.09	94.7681	517.09	94.2738	517.09	94.5125	517.09	93.7839	517.09	94.0581	517.09	93.1024	517.09	93.2527	517.09	92.1031	517.09	92.0222	517.09	90.6667	517.09	90.4311	517.09	88.9536	517.09	88.8767	517.09	87.9094	517.09	88.3132	517.09	88.5673	517.09	89.271	517.09	90.1653	517.09	90.8598	517.09	91.6497	517.09	92.1979	517.09	92.6659	517.09	92.9722	517.09	93.1222
536.133	96.1099	536.133	96.0464	536.133	95.9232	536.133	95.7435	536.133	95.4918	536.133	95.2237	536.133	94.858	536.133	94.5584	536.133	94.1015	536.133	93.9116	536.133	93.3339	536.133	93.4797	536.133	92.7126	536.133	93.2969	536.133	92.3926	536.133	93.1651	536.133	92.3315	536.133	92.8327	536.133	92.2179	536.133	92.1441	536.133	91.6989	536.133	91.0332	536.133	90.6262	536.133	89.5317	536.133	89.2803	536.133	88.1264	536.133	88.5728	536.133	88.1362	536.133	89.2292	536.133	89.7123	536.133	90.6453	536.133	91.4099	536.133	91.9627	536.133	92.53	536.133	92.784	536.133	92.983
555.176	96.9186	555.176	96.8951	555.176	96.7659	555.176	96.6715	555.176	96.4553	555.176	96.2346	555.176	95.9975	555.176	95.5965	555.176	95.4116	555.176	94.8072	555.176	94.7321	555.176	93.973	555.176	93.9805	555.176	93.2385	555.176	93.1287	555.176	92.6439	555.176	92.1082	555.176	91.9814	555.176	90.8353	555.176	90.8936	555.176	89.1835	555.176	89.0671	555.176	86.9873	555.176	86.4625	555.176	84.6229	555.176	84.3468	555.176	84.6398	555.176	85.4082	555.176	87.3512	555.176	88.0623	555.176	89.8499	555.176	90.2521	555.176	91.4375	555.176	91.6504	555.176	92.218	555.176	92.2889
574.219	96.6752	574.219	96.606	574.219	96.576	574.219	96.39	574.219	96.3055	574.219	96.0505	574.219	95.8916	574.219	95.5992	574.219	95.3929	574.219	95.0515	574.219	94.8748	574.219	94.4503	574.219	94.3706	574.219	93.8417	574.219	93.8681	574.219	93.2283	574.219	93.3234	574.219	92.5776	574.219	92.636	574.219	91.8222	574.219	91.5859	574.219	90.7905	574.219	89.8584	574.219	89.2483	574.219	87.2697	574.219	87.2771	574.219	84.7015	574.219	86.0419	574.219	84.8707	574.219	86.767	574.219	87.0072	574.219	88.3529	574.219	88.9153	574.219	89.6717	574.219	90.0611	574.219	90.3065
594.727	96.8809	594.727	96.7794	594.727	96.752	594.727	96.4603	594.727	96.3932	594.727	95.9565	594.727	95.8407	594.727	95.3575	594.727	95.1859	594.727	94.7919	594.727	94.588	594.727	94.3379	594.727	94.2103	594.727	94.0186	594.727	94.0257	594.727	93.8192	594.727	93.778	594.727	93.5509	594.727	93.2231	594.727	92.8625	594.727	92.2507	594.727	91.4828	594.727	90.7937	594.727	89.3639	594.727	88.8059	594.727	86.8032	594.727	86.8337	594.727	85.3468	594.727	86.818	594.727	86.7648	594.727	88.6239	594.727	88.9634	594.727	90.1824	594.727	90.4102	594.727	90.9504	594.727	91.0227
615.234	97.5779	615.234	97.5296	615.234	97.4009	615.234	97.2501	615.234	97.0236	615.234	96.7516	615.234	96.4682	615.234	96.0464	615.234	95.7433	615.234	95.1627	615.234	94.8747	615.234	94.2165	615.234	93.962	615.234	93.3941	615.234	93.1936	615.234	92.7643	615.234	92.7028	615.234	92.2673	615.234	92.3183	615.234	91.8025	615.234	91.6081	615.234	91.0493	615.234	90.1748	615.234	89.598	615.234	87.8178	615.234	87.6212	615.234	85.0426	615.234	86.8007	615.234	84.8211	615.234	88.2445	615.234	87.5474	615.234	90.1772	615.234	89.998	615.234	91.4779	615.234	91.4373	615.234	91.9115
637.207	96.8047	637.207	96.7988	637.207	96.6009	637.207	96.5665	637.207	96.1813	637.207	96.0862	637.207	95.5632	637.207	95.3971	637.207	94.8271	637.207	94.6279	637.207	94.0944	637.207	93.939	637.207	93.5007	637.207	93.457	637.207	93.1644	637.207	93.2051	637.207	93.0338	637.207	92.9853	637.207	92.8065	637.207	92.4264	637.207	92.1039	637.207	91.1945	637.207	90.6269	637.207	89.1475	637.207	88.2693	637.207	86.6405	637.207	85.671	637.207	85.3252	637.207	85.2619	637.207	86.5737	637.207	87.2917	637.207	88.6388	637.207	89.2791	637.207	90.1202	637.207	90.4351	637.207	90.7171
659.18	97.276	659.18	97.2097	659.18	97.0956	659.18	96.9119	659.18	96.6425	659.18	96.3952	659.18	95.8985	659.18	95.6536	659.18	94.9125	659.18	94.6764	659.18	93.8088	659.18	93.5182	659.18	92.7489	659.18	92.3774	659.18	91.8911	659.18	91.5365	659.18	91.2803	659.18	91.0536	659.18	90.811	659.18	90.6908	659.18	90.2935	659.18	90.091	659.18	89.3613	659.18	88.716	659.18	87.5335	659.18	86.0483	659.18	84.9041	659.18	83.5379	659.18	84.3567	659.18	85.505	659.18	87.044	659.18	88.5014	659.18	89.5131	659.18	90.388	659.18	90.8843	659.18	91.1657
682.617	97.0506	682.617	97.0541	682.617	96.8053	682.617	96.8195	682.617	96.3159	682.617	96.2926	682.617	95.6356	682.617	95.4661	682.617	94.8087	682.617	94.4977	682.617	93.8699	682.617	93.6153	682.617	92.9396	682.617	92.9225	682.617	92.2105	682.617	92.3746	682.617	91.8405	682.617	91.8331	682.617	91.7169	682.617	91.095	682.617	91.2731	682.617	89.9121	682.617	89.8427	682.617	88.0203	682.617	87.0596	682.617	85.3718	682.617	83.4973	682.617	83.5622	682.617	83.1224	682.617	85.4536	682.617	86.1085	682.617	88.2081	682.617	88.5852	682.617	89.8972	682.617	90.0154	682.617	90.4614
707.52	96.6086	707.52	96.5566	707.52	96.389	707.52	96.167	707.52	96.0085	707.52	95.5395	707.52	95.4416	707.52	94.7817	707.52	94.567	707.52	93.8255	707.52	93.3458	707.52	92.6354	707.52	91.9917	707.52	91.6148	707.52	91.1001	707.52	91.2997	707.52	91.0176	707.52	91.3274	707.52	91.1027	707.52	90.9986	707.52	90.7313	707.52	90.0935	707.52	89.7657	707.52	88.4581	707.52	87.9606	707.52	85.7899	707.52	84.6861	707.52	83.3403	707.52	81.9873	707.52	84.5966	707.52	85.2939	707.52	87.1964	707.52	88.1932	707.52	88.9675	707.52	89.4618	707.52	89.6857
732.422	96.6792	732.422	96.5924	732.422	96.4717	732.422	96.2567	732.422	95.95	732.422	95.689	732.422	95.1709	732.422	94.8705	732.422	94.1929	732.422	93.7259	732.422	92.9606	732.422	92.1841	732.422	91.4181	732.422	90.5317	732.422	89.8513	732.422	89.619	732.422	89.0425	732.422	89.7483	732.422	89.3951	732.422	90.2142	732.422	89.9207	732.422	90.2612	732.422	89.497	732.422	89.1701	732.422	87.6624	732.422	86.1231	732.422	84.1077	732.422	80.4069	732.422	79.3301	732.422	81.1489	732.422	82.4891	732.422	86.3034	732.422	87.3312	732.422	89.0788	732.422	89.7177	732.422	90.1761
757.324	96.1326	757.324	96.0433	757.324	96.0101	757.324	95.7683	757.324	95.6542	757.324	95.2833	757.324	94.9938	757.324	94.4496	757.324	93.9611	757.324	93.1546	757.324	92.6571	757.324	91.5434	757.324	91.2502	757.324	90.0544	757.324	89.7577	757.324	89.1527	757.324	88.643	757.324	88.9924	757.324	88.6791	757.324	89.0742	757.324	89.0733	757.324	88.7257	757.324	88.7073	757.324	87.711	757.324	87.051	757.324	85.7623	757.324	83.5501	757.324	82.5456	757.324	78.8764	757.324	81.1043	757.324	81.2332	757.324	84.1102	757.324	84.6335	757.324	86.4562	757.324	86.4651	757.324	87.1492
785.156	95.482	785.156	95.3801	785.156	95.4748	785.156	95.1435	785.156	95.2459	785.156	94.651	785.156	94.6957	785.156	93.8541	785.156	93.8338	785.156	92.8275	785.156	92.6167	785.156	91.5978	785.156	90.9832	785.156	89.9832	785.156	89.257	785.156	87.8719	785.156	87.824	785.156	86.5617	785.156	87.0531	785.156	87.37	785.156	87.4411	785.156	87.973	785.156	87.6027	785.156	87.2456	785.156	86.5356	785.156	85.0225	785.156	84.1937	785.156	80.0059	785.156	80.1402	785.156	79.3293	785.156	80.5271	785.156	84.6444	785.156	85.1803	785.156	87.1633	785.156	87.6117	785.156	88.1211
811.523	95.9506	811.523	95.8728	811.523	95.8949	811.523	95.7138	811.523	95.6576	811.523	95.3804	811.523	95.2493	811.523	94.6997	811.523	94.6234	811.523	93.6062	811.523	93.6627	811.523	92.1842	811.523	92.2719	811.523	90.544	811.523	90.3522	811.523	88.4734	811.523	88.1555	811.523	86.046	811.523	86.8255	811.523	85.5842	811.523	86.3368	811.523	86.3987	811.523	85.7138	811.523	85.4801	811.523	84.7569	811.523	82.1349	811.523	82.3101	811.523	75.0055	811.523	75.4861	811.523	74.7087	811.523	76.0168	811.523	81.5963	811.523	83.4189	811.523	84.6659	811.523	85.9501	811.523	86.0346
840.82	96.5535	840.82	96.3014	840.82	96.5352	840.82	95.8095	840.82	96.2158	840.82	95.1143	840.82	95.6243	840.82	94.196	840.82	94.9163	840.82	93.0909	840.82	94.0813	840.82	91.909	840.82	92.8294	840.82	90.4911	840.82	91.1437	840.82	88.5668	840.82	89.3797	840.82	86.5513	840.82	87.7965	840.82	86.2628	840.82	87.0179	840.82	86.9478	840.82	86.8005	840.82	86.4956	840.82	85.9697	840.82	84.5746	840.82	84.0021	840.82	80.2551	840.82	80.4492	840.82	79.0412	840.82	80.7391	840.82	84.7092	840.82	84.9879	840.82	87.4469	840.82	87.4225	840.82	88.219
870.117	96.8259	870.117	96.7673	870.117	96.7293	870.117	96.5176	870.117	96.4585	870.117	96.0203	870.117	95.9946	870.117	95.2498	870.117	95.3598	870.117	94.2487	870.117	94.5798	870.117	93.0585	870.117	93.6426	870.117	91.5981	870.117	92.4282	870.117	90.006	870.117	90.9208	870.117	88.9148	870.117	89.6991	870.117	88.4078	870.117	89.2525	870.117	88.0559	870.117	88.7879	870.117	87.4633	870.117	87.4427	870.117	85.7841	870.117	85.5291	870.117	82.0309	870.117	82.7767	870.117	75.2346	870.117	75.3225	870.117	74.8836	870.117	74.7941	870.117	80.2199	870.117	82.1514	870.117	83.0128
900.879	98.0688	900.879	97.9358	900.879	97.9325	900.879	97.601	900.879	97.518	900.879	97.0956	900.879	96.8581	900.879	96.3329	900.879	95.9687	900.879	95.295	900.879	94.8958	900.879	94.1633	900.879	93.6795	900.879	92.8728	900.879	92.2441	900.879	91.2049	900.879	90.6918	900.879	89.453	900.879	89.2892	900.879	88.1992	900.879	88.4924	900.879	87.6575	900.879	88.5031	900.879	87.079	900.879	87.5065	900.879	85.6011	900.879	84.4658	900.879	82.3647	900.879	81.9949	900.879	78.0641	900.879	82.2697	900.879	80.4518	900.879	85.1483	900.879	84.1924	900.879	87.2348	900.879	86.6993
933.105	98.2794	933.105	98.3246	933.105	97.9706	933.105	97.9404	933.105	97.5595	933.105	97.2571	933.105	97.0287	933.105	96.4879	933.105	96.3348	933.105	95.5193	933.105	95.4076	933.105	94.3079	933.105	94.0676	933.105	93.0575	933.105	92.2328	933.105	91.3603	933.105	90.0227	933.105	89.3176	933.105	88.698	933.105	88.7647	933.105	89.1521	933.105	89.1777	933.105	89.4992	933.105	89.4437	933.105	88.9364	933.105	88.3231	933.105	87.0678	933.105	84.5819	933.105	83.027	933.105	76.284	933.105	78.2267	933.105	79.5879	933.105	80.7734	933.105	85.3456	933.105	84.8153	933.105	86.5662
965.332	98.6942	965.332	98.4949	965.332	98.4134	965.332	97.9953	965.332	97.7859	965.332	97.3995	965.332	97.0308	965.332	96.6979	965.332	96.069	965.332	95.902	965.332	94.6909	965.332	94.8887	965.332	92.945	965.332	93.2301	965.332	90.8636	965.332	90.9378	965.332	88.8276	965.332	88.5238	965.332	87.2553	965.332	86.3995	965.332	86.6087	965.332	85.6761	965.332	87.8131	965.332	86.5692	965.332	88.5289	965.332	86.8232	965.332	86.7938	965.332	84.2027	965.332	81.9683	965.332	78.3814	965.332	82.6368	965.332	79.1299	965.332	85.7436	965.332	85.476	965.332	87.5824	965.332	87.9721
1,000.49	98.2788	1,000.49	98.2437	1,000.49	98.1421	1,000.49	97.9566	1,000.49	97.7063	1,000.49	97.2831	1,000.49	96.8691	1,000.49	96.3302	1,000.49	95.8878	1,000.49	95.2659	1,000.49	94.966	1,000.49	94.1364	1,000.49	93.9015	1,000.49	93.3118	1,000.49	92.4018	1,000.49	92.4725	1,000.49	89.8921	1,000.49	91.1026	1,000.49	87.8571	1,000.49	90.3539	1,000.49	88.347	1,000.49	90.4676	1,000.49	89.3953	1,000.49	90.3567	1,000.49	89.8936	1,000.49	89.6967	1,000.49	88.4715	1,000.49	87.7562	1,000.49	83.5985	1,000.49	82.6045	1,000.49	68.9968	1,000.49	78.7098	1,000.49	81.4652	1,000.49	83.2863	1,000.49	86.108	1,000.49	86.0563
1,035.64	98.3582	1,035.64	98.108	1,035.64	98.0799	1,035.64	97.589	1,035.64	97.2379	1,035.64	96.8984	1,035.64	96.1029	1,035.64	95.9258	1,035.64	94.8304	1,035.64	94.7674	1,035.64	93.5737	1,035.64	93.6451	1,035.64	92.3413	1,035.64	92.4082	1,035.64	90.9826	1,035.64	91.2136	1,035.64	89.5547	1,035.64	89.3774	1,035.64	87.0496	1,035.64	87.6785	1,035.64	84.888	1,035.64	88.0368	1,035.64	86.1317	1,035.64	88.2798	1,035.64	87.2009	1,035.64	88.7477	1,035.64	86.5925	1,035.64	87.3883	1,035.64	83.0603	1,035.64	82.5683	1,035.64	80.173	1,035.64	80.7294	1,035.64	84.834	1,035.64	86.1147	1,035.64	87.5331	1,035.64	88.1686
1,072.27	97.2954	1,072.27	97.3791	1,072.27	96.755	1,072.27	96.9549	1,072.27	96.0221	1,072.27	96.3522	1,072.27	94.9388	1,072.27	95.3927	1,072.27	93.5579	1,072.27	93.9424	1,072.27	92.1651	1,072.27	92.2944	1,072.27	90.9078	1,072.27	91.1657	1,072.27	89.9703	1,072.27	90.4028	1,072.27	88.5067	1,072.27	88.4685	1,072.27	85.2871	1,072.27	87.0407	1,072.27	82.7134	1,072.27	87.3209	1,072.27	84.9135	1,072.27	88.7516	1,072.27	86.8995	1,072.27	88.2199	1,072.27	87.7099	1,072.27	85.7032	1,072.27	84.7845	1,072.27	83.6708	1,072.27	76.3856	1,072.27	82.49	1,072.27	81.3105	1,072.27	86.1551	1,072.27	86.3862	1,072.27	87.6703
1,108.89	97.2874	1,108.89	97.4515	1,108.89	96.9949	1,108.89	97.1325	1,108.89	96.3498	1,108.89	96.2851	1,108.89	95.3542	1,108.89	95.1016	1,108.89	94.1707	1,108.89	93.2536	1,108.89	92.8434	1,108.89	91.5084	1,108.89	91.7886	1,108.89	89.6941	1,108.89	90.7892	1,108.89	87.8572	1,108.89	89.7321	1,108.89	87.2022	1,108.89	88.2045	1,108.89	84.789	1,108.89	84.8515	1,108.89	83.8223	1,108.89	81.9655	1,108.89	83.3315	1,108.89	81.9009	1,108.89	84.9557	1,108.89	82.7564	1,108.89	84.3834	1,108.89	78.6795	1,108.89	77.2652	1,108.89	73.6784	1,108.89	79.127	1,108.89	83.3702	1,108.89	85.9951	1,108.89	87.4202	1,108.89	88.7084
1,148.44	96.3776	1,148.44	96.0843	1,148.44	96.3742	1,148.44	95.6078	1,148.44	95.9384	1,148.44	94.8745	1,148.44	95.0055	1,148.44	93.7982	1,148.44	93.585	1,148.44	92.2096	1,148.44	91.9201	1,148.44	90.38	1,148.44	90.3653	1,148.44	88.6366	1,148.44	88.9886	1,148.44	87.1269	1,148.44	87.7942	1,148.44	84.9562	1,148.44	86.2327	1,148.44	83.666	1,148.44	83.5499	1,148.44	83.7206	1,148.44	84.2922	1,148.44	82.6966	1,148.44	85.3705	1,148.44	85.1933	1,148.44	86.0935	1,148.44	84.9172	1,148.44	82.8289	1,148.44	80.6844	1,148.44	71.0592	1,148.44	78.6179	1,148.44	78.8008	1,148.44	82.9966	1,148.44	83.6695	1,148.44	85.3571
1,189.45	96.3196	1,189.45	96.4594	1,189.45	95.8833	1,189.45	96.2844	1,189.45	95.1946	1,189.45	95.7227	1,189.45	94.3091	1,189.45	95.0718	1,189.45	93.0754	1,189.45	94.2174	1,189.45	91.5888	1,189.45	93.1675	1,189.45	90.2219	1,189.45	92.2308	1,189.45	89.2869	1,189.45	91.147	1,189.45	88.3223	1,189.45	90.0507	1,189.45	87.4849	1,189.45	87.5592	1,189.45	84.7597	1,189.45	86.8605	1,189.45	81.0672	1,189.45	87.5176	1,189.45	81.9821	1,189.45	86.2206	1,189.45	81.3731	1,189.45	84.8284	1,189.45	77.6668	1,189.45	80.4198	1,189.45	64.5638	1,189.45	75.2743	1,189.45	79.7142	1,189.45	82.4006	1,189.45	83.7944	1,189.45	85.1295
1,230.47	96.2962	1,230.47	96.5516	1,230.47	95.4433	1,230.47	96.3256	1,230.47	94.3305	1,230.47	95.9337	1,230.47	93.44	1,230.47	95.5381	1,230.47	92.3797	1,230.47	94.7356	1,230.47	90.7887	1,230.47	93.6501	1,230.47	89.0558	1,230.47	92.6028	1,230.47	88.0272	1,230.47	90.6592	1,230.47	87.3274	1,230.47	88.4598	1,230.47	86.5253	1,230.47	84.5274	1,230.47	86.2163	1,230.47	82.7002	1,230.47	82.8527	1,230.47	84.7	1,230.47	80.5285	1,230.47	85.5035	1,230.47	81.7247	1,230.47	84.4061	1,230.47	80.9933	1,230.47	77.9378	1,230.47	74.6249	1,230.47	77.8233	1,230.47	69.3316	1,230.47	81.9535	1,230.47	79.604	1,230.47	83.4684
1,274.41	96.9925	1,274.41	96.8886	1,274.41	96.6543	1,274.41	96.7251	1,274.41	95.9191	1,274.41	96.1677	1,274.41	95.1804	1,274.41	95.2019	1,274.41	94.2551	1,274.41	93.7742	1,274.41	93.061	1,274.41	91.9413	1,274.41	91.2845	1,274.41	90.6476	1,274.41	89.4857	1,274.41	89.5942	1,274.41	88.2513	1,274.41	87.9528	1,274.41	87.0148	1,274.41	87.0728	1,274.41	85.6256	1,274.41	84.8809	1,274.41	85.279	1,274.41	83.255	1,274.41	85.533	1,274.41	84.3591	1,274.41	84.4498	1,274.41	82.7489	1,274.41	83.5478	1,274.41	78.0489	1,274.41	79.8181	1,274.41	75.0544	1,274.41	62.9233	1,274.41	82.9808	1,274.41	77.5649	1,274.41	82.4986
1,319.82	97.6027	1,319.82	97.3223	1,319.82	97.2982	1,319.82	96.6087	1,319.82	96.9359	1,319.82	96.219	1,319.82	95.8447	1,319.82	95.062	1,319.82	94.2736	1,319.82	94.1777	1,319.82	92.8649	1,319.82	93.1565	1,319.82	91.0251	1,319.82	91.8121	1,319.82	89.4524	1,319.82	90.3647	1,319.82	88.9952	1,319.82	88.2307	1,319.82	88.3825	1,319.82	86.4894	1,319.82	85.8458	1,319.82	83.1742	1,319.82	84.9282	1,319.82	81.7565	1,319.82	83.2001	1,319.82	84.0656	1,319.82	84.8631	1,319.82	83.2925	1,319.82	83.7911	1,319.82	79.0679	1,319.82	81.3481	1,319.82	75.6565	1,319.82	76.8268	1,319.82	84.5713	1,319.82	83.6764	1,319.82	84.7532
1,366.7	97.3376	1,366.7	97.1008	1,366.7	97.0477	1,366.7	96.5139	1,366.7	96.1929	1,366.7	95.6168	1,366.7	95.5758	1,366.7	94.046	1,366.7	94.5089	1,366.7	93.0363	1,366.7	92.5113	1,366.7	92.3232	1,366.7	91.3927	1,366.7	90.8659	1,366.7	90.7497	1,366.7	90.4184	1,366.7	89.864	1,366.7	89.7632	1,366.7	88.2592	1,366.7	85.4445	1,366.7	87.5191	1,366.7	80.6396	1,366.7	86.3519	1,366.7	78.7218	1,366.7	86.0681	1,366.7	80.4368	1,366.7	84.7471	1,366.7	80.0373	1,366.7	84.4697	1,366.7	75.5437	1,366.7	77.8052	1,366.7	68.5805	1,366.7	78.636	1,366.7	83.162	1,366.7	83.4486	1,366.7	86.5784
1,413.57	96.4128	1,413.57	96.2425	1,413.57	96.6599	1,413.57	96.4182	1,413.57	95.5115	1,413.57	95.6694	1,413.57	94.6426	1,413.57	94.5994	1,413.57	93.9291	1,413.57	92.9929	1,413.57	92.4623	1,413.57	91.0967	1,413.57	91.4304	1,413.57	89.1983	1,413.57	89.5399	1,413.57	88.6625	1,413.57	88.2499	1,413.57	85.7739	1,413.57	87.876	1,413.57	83.6546	1,413.57	85.8008	1,413.57	83.6484	1,413.57	83.7373	1,413.57	82.0517	1,413.57	79.1439	1,413.57	82.1895	1,413.57	82.3028	1,413.57	83.8871	1,413.57	84.5316	1,413.57	80.4362	1,413.57	79.4346	1,413.57	63.9562	1,413.57	74.4858	1,413.57	81.3654	1,413.57	84.5312	1,413.57	84.3391
1,463.38	95.3404	1,463.38	95.8358	1,463.38	95.3965	1,463.38	95.7198	1,463.38	94.6951	1,463.38	94.3648	1,463.38	93.6677	1,463.38	93.4656	1,463.38	93.2665	1,463.38	92.3375	1,463.38	92.4195	1,463.38	90.9487	1,463.38	91.7008	1,463.38	89.4498	1,463.38	90.2479	1,463.38	86.6782	1,463.38	88.8674	1,463.38	84.4576	1,463.38	86.3444	1,463.38	82.5116	1,463.38	83.7174	1,463.38	81.5631	1,463.38	82.2956	1,463.38	81.0981	1,463.38	78.9666	1,463.38	78.9389	1,463.38	79.4419	1,463.38	82.742	1,463.38	82.5153	1,463.38	79.7095	1,463.38	80.6234	1,463.38	71.47	1,463.38	74.5741	1,463.38	78.0383	1,463.38	83.1403	1,463.38	83.5557
1,516.11	96.0749	1,516.11	96.3388	1,516.11	95.3423	1,516.11	96.1865	1,516.11	95.2047	1,516.11	95.0456	1,516.11	94.504	1,516.11	93.2873	1,516.11	93.4837	1,516.11	92.8903	1,516.11	92.7066	1,516.11	91.2265	1,516.11	90.1964	1,516.11	88.8003	1,516.11	88.6707	1,516.11	87.5671	1,516.11	88.1381	1,516.11	86.2035	1,516.11	87.3126	1,516.11	86.2184	1,516.11	85.3085	1,516.11	84.2385	1,516.11	83.4951	1,516.11	80.8008	1,516.11	82.0412	1,516.11	80.2964	1,516.11	81.6979	1,516.11	82.9201	1,516.11	82.5679	1,516.11	83.4949	1,516.11	79.8214	1,516.11	77.7372	1,516.11	72.9313	1,516.11	66.8854	1,516.11	74.1742	1,516.11	77.1922
1,568.85	95.9802	1,568.85	95.8453	1,568.85	95.9327	1,568.85	95.0455	1,568.85	95.5115	1,568.85	94.0361	1,568.85	94.6079	1,568.85	93.0494	1,568.85	93.6565	1,568.85	91.2655	1,568.85	91.6408	1,568.85	90.3073	1,568.85	90.1345	1,568.85	88.4673	1,568.85	87.758	1,568.85	86.2087	1,568.85	86.7227	1,568.85	84.0248	1,568.85	87.7128	1,568.85	83.5881	1,568.85	86.3214	1,568.85	83.5622	1,568.85	83.3222	1,568.85	79.0771	1,568.85	79.4454	1,568.85	82.1302	1,568.85	83.1656	1,568.85	81.589	1,568.85	81.2302	1,568.85	81.2119	1,568.85	80.4169	1,568.85	75.5222	1,568.85	76.8852	1,568.85	76.0961	1,568.85	67.6617	1,568.85	72.4497
1,624.51	95.7484	1,624.51	95.1595	1,624.51	95.7089	1,624.51	94.6711	1,624.51	95.3038	1,624.51	93.8833	1,624.51	94.6963	1,624.51	92.975	1,624.51	93.7546	1,624.51	91.744	1,624.51	92.2392	1,624.51	89.4433	1,624.51	91.2236	1,624.51	88.0596	1,624.51	89.1325	1,624.51	85.8875	1,624.51	88.4515	1,624.51	84.4732	1,624.51	86.9638	1,624.51	83.8137	1,624.51	85.5134	1,624.51	81.2776	1,624.51	83.749	1,624.51	81.4613	1,624.51	83.7872	1,624.51	78.2553	1,624.51	82.5938	1,624.51	80.576	1,624.51	84.112	1,624.51	80.4634	1,624.51	82.3603	1,624.51	72.4725	1,624.51	77.9196	1,624.51	65.4959	1,624.51	76.248	1,624.51	77.2718
1,681.64	96.3274	1,681.64	95.9461	1,681.64	96.1376	1,681.64	95.7622	1,681.64	96.1008	1,681.64	95.0192	1,681.64	95.8821	1,681.64	93.4636	1,681.64	94.4955	1,681.64	92.4172	1,681.64	92.8729	1,681.64	91.2576	1,681.64	91.29	1,681.64	90.1915	1,681.64	88.5218	1,681.64	88.7374	1,681.64	87.6244	1,681.64	87.2444	1,681.64	86.0767	1,681.64	83.1901	1,681.64	85.3273	1,681.64	81.8058	1,681.64	83.0117	1,681.64	79.3214	1,681.64	81.0891	1,681.64	79.8587	1,681.64	83.6606	1,681.64	82.1734	1,681.64	80.4087	1,681.64	81.4981	1,681.64	81.4997	1,681.64	69.8893	1,681.64	71.0209	1,681.64	75.3739	1,681.64	75.8679	1,681.64	75.8108
1,741.7	97.1061	1,741.7	97.2977	1,741.7	96.6219	1,741.7	96.4071	1,741.7	96.2363	1,741.7	95.6238	1,741.7	95.9965	1,741.7	95.1879	1,741.7	94.4574	1,741.7	93.5267	1,741.7	93.7937	1,741.7	90.8317	1,741.7	91.8578	1,741.7	88.8156	1,741.7	90.4629	1,741.7	86.1725	1,741.7	88.8683	1,741.7	84.5124	1,741.7	88.1608	1,741.7	85.2643	1,741.7	86.9935	1,741.7	83.2331	1,741.7	82.66	1,741.7	79.8949	1,741.7	75.5197	1,741.7	81.5183	1,741.7	82.9369	1,741.7	79.9398	1,741.7	84.4901	1,741.7	83.3523	1,741.7	79.5313	1,741.7	79.8493	1,741.7	66.8854	1,741.7	78.4447	1,741.7	77.1586	1,741.7	81.5198
1,803.22	96.8848	1,803.22	96.8124	1,803.22	96.7908	1,803.22	96.3439	1,803.22	96.4127	1,803.22	95.8749	1,803.22	95.7537	1,803.22	95.233	1,803.22	94.8562	1,803.22	93.9967	1,803.22	93.9236	1,803.22	92.5668	1,803.22	92.3962	1,803.22	91.1011	1,803.22	90.2194	1,803.22	89.0462	1,803.22	88.465	1,803.22	87.0888	1,803.22	87.0986	1,803.22	86.0313	1,803.22	84.7533	1,803.22	84.7348	1,803.22	84.3655	1,803.22	83.6304	1,803.22	83.5514	1,803.22	81.4745	1,803.22	82.0949	1,803.22	80.7396	1,803.22	82.7855	1,803.22	81.3636	1,803.22	82.8744	1,803.22	79.3002	1,803.22	69.3903	1,803.22	67.9926	1,803.22	76.1979	1,803.22	78.5887
1,866.21	96.233	1,866.21	96.1327	1,866.21	96.1282	1,866.21	96.0052	1,866.21	95.9307	1,866.21	95.5952	1,866.21	95.4987	1,866.21	94.7716	1,866.21	94.5987	1,866.21	94.0948	1,866.21	93.7187	1,866.21	93.0027	1,866.21	92.6408	1,866.21	91.1863	1,866.21	90.985	1,866.21	89.3011	1,866.21	88.5328	1,866.21	87.6954	1,866.21	86.3219	1,866.21	86.6589	1,866.21	83.646	1,866.21	84.3098	1,866.21	82.9681	1,866.21	83.8335	1,866.21	82.5251	1,866.21	83.0778	1,866.21	80.4139	1,866.21	81.1423	1,866.21	82.8453	1,866.21	82.6942	1,866.21	83.2224	1,866.21	79.7985	1,866.21	76.6594	1,866.21	69.4137	1,866.21	78.2718	1,866.21	77.3469
1,932.13	95.5139	1,932.13	95.0973	1,932.13	95.4905	1,932.13	94.8599	1,932.13	95.3422	1,932.13	94.7836	1,932.13	94.9988	1,932.13	94.5907	1,932.13	94.1091	1,932.13	93.6227	1,932.13	93.0657	1,932.13	91.9174	1,932.13	91.7621	1,932.13	90.7224	1,932.13	90.5522	1,932.13	88.6233	1,932.13	88.4882	1,932.13	86.9213	1,932.13	86.392	1,932.13	85.2396	1,932.13	84.7904	1,932.13	83.9398	1,932.13	82.8315	1,932.13	82.4549	1,932.13	82.0788	1,932.13	82.3961	1,932.13	79.6723	1,932.13	80.3488	1,932.13	80.1748	1,932.13	82.4825	1,932.13	82.7801	1,932.13	81.1036	1,932.13	75.4355	1,932.13	75.5504	1,932.13	71.3725	1,932.13	80.5075
1,999.51	94.9363	1,999.51	95.1687	1,999.51	95.2415	1,999.51	95.3037	1,999.51	95.5025	1,999.51	94.7233	1,999.51	95.1785	1,999.51	93.7353	1,999.51	94.3916	1,999.51	92.9152	1,999.51	93.5294	1,999.51	91.9636	1,999.51	92.2249	1,999.51	90.1081	1,999.51	90.9617	1,999.51	88.7091	1,999.51	88.8799	1,999.51	86.8008	1,999.51	86.7974	1,999.51	85.4851	1,999.51	85.6397	1,999.51	83.0823	1,999.51	83.8089	1,999.51	82.6539	1,999.51	83.0634	1,999.51	83.6296	1,999.51	82.1829	1,999.51	80.1011	1,999.51	80.1879	1,999.51	80.2706	1,999.51	81.996	1,999.51	79.3644	1,999.51	76.5077	1,999.51	66.7707	1,999.51	73.5911	1,999.51	77.8961
2,069.82	96.1778	2,069.82	95.9374	2,069.82	96.2875	2,069.82	95.6507	2,069.82	96.3185	2,069.82	95.3577	2,069.82	96.1245	2,069.82	94.6127	2,069.82	95.659	2,069.82	92.9577	2,069.82	94.3824	2,069.82	91.2795	2,069.82	93.1022	2,069.82	89.8154	2,069.82	91.3134	2,069.82	88.1112	2,069.82	89.7753	2,069.82	85.2882	2,069.82	87.266	2,069.82	84.0577	2,069.82	87.0644	2,069.82	81.9762	2,069.82	84.1371	2,069.82	80.2945	2,069.82	84.318	2,069.82	81.7138	2,069.82	82.6687	2,069.82	78.7902	2,069.82	80.432	2,069.82	79.6644	2,069.82	82.4608	2,069.82	78.9445	2,069.82	76.4742	2,069.82	67.6279	2,069.82	71.7281	2,069.82	73.81
2,143.07	96.7676	2,143.07	96.651	2,143.07	96.9429	2,143.07	96.4806	2,143.07	96.9521	2,143.07	96.0097	2,143.07	96.7116	2,143.07	95.2015	2,143.07	95.9701	2,143.07	94.007	2,143.07	94.813	2,143.07	92.3172	2,143.07	93.065	2,143.07	90.3346	2,143.07	91.3399	2,143.07	88.7738	2,143.07	89.5978	2,143.07	86.5119	2,143.07	87.5744	2,143.07	84.4205	2,143.07	86.4474	2,143.07	83.6076	2,143.07	84.7156	2,143.07	81.9854	2,143.07	84.2145	2,143.07	81.9476	2,143.07	82.6442	2,143.07	80.5566	2,143.07	80.6475	2,143.07	80.1446	2,143.07	81.7317	2,143.07	80.7961	2,143.07	76.111	2,143.07	74.2444	2,143.07	67.0934	2,143.07	72.6466
2,219.24	96.181	2,219.24	96.2966	2,219.24	96.2554	2,219.24	96.4772	2,219.24	96.3469	2,219.24	96.2857	2,219.24	96.1003	2,219.24	95.7905	2,219.24	95.2898	2,219.24	94.9565	2,219.24	94.2738	2,219.24	93.7863	2,219.24	92.6116	2,219.24	91.646	2,219.24	90.6704	2,219.24	90.1074	2,219.24	88.6861	2,219.24	88.2388	2,219.24	86.2848	2,219.24	85.8075	2,219.24	84.9488	2,219.24	84.4647	2,219.24	83.3416	2,219.24	83.4491	2,219.24	83.1774	2,219.24	83.5506	2,219.24	82.5487	2,219.24	82.7749	2,219.24	80.0625	2,219.24	81.5173	2,219.24	81.4038	2,219.24	81.7115	2,219.24	75.6711	2,219.24	74.4793	2,219.24	68.6583	2,219.24	68.4949
2,296.88	94.6189	2,296.88	95.147	2,296.88	94.8261	2,296.88	95.5716	2,296.88	95.1369	2,296.88	95.9603	2,296.88	94.8629	2,296.88	95.3825	2,296.88	94.2438	2,296.88	94.5591	2,296.88	93.0636	2,296.88	93.8928	2,296.88	91.3081	2,296.88	91.7773	2,296.88	89.1995	2,296.88	90.3888	2,296.88	87.4424	2,296.88	88.3481	2,296.88	84.8457	2,296.88	86.7985	2,296.88	83.0886	2,296.88	85.6734	2,296.88	81.6501	2,296.88	84.2378	2,296.88	81.1922	2,296.88	84.3957	2,296.88	81.8904	2,296.88	83.6942	2,296.88	76.9078	2,296.88	81.5816	2,296.88	80.0967	2,296.88	81.6741	2,296.88	77.849	2,296.88	76.8833	2,296.88	64.5564	2,296.88	73.8882
2,378.91	94.2782	2,378.91	94.3825	2,378.91	94.3121	2,378.91	95.0195	2,378.91	94.3059	2,378.91	95.0996	2,378.91	94.3356	2,378.91	94.6938	2,378.91	93.4341	2,378.91	94.1126	2,378.91	92.3326	2,378.91	92.6645	2,378.91	90.5932	2,378.91	90.9466	2,378.91	88.5315	2,378.91	89.6318	2,378.91	86.1863	2,378.91	87.3765	2,378.91	83.8178	2,378.91	85.6005	2,378.91	82.2619	2,378.91	84.0638	2,378.91	81.4847	2,378.91	83.0668	2,378.91	80.3276	2,378.91	83.6312	2,378.91	81.6359	2,378.91	82.4054	2,378.91	78.49	2,378.91	82.4076	2,378.91	78.4872	2,378.91	81.6082	2,378.91	77.9798	2,378.91	74.5704	2,378.91	64.7944	2,378.91	73.8265
2,462.4	95.1635	2,462.4	95.155	2,462.4	95.3573	2,462.4	95.578	2,462.4	95.7396	2,462.4	95.8273	2,462.4	95.4104	2,462.4	95.2881	2,462.4	94.7636	2,462.4	94.0523	2,462.4	93.284	2,462.4	92.6897	2,462.4	91.2602	2,462.4	90.7163	2,462.4	89.3711	2,462.4	88.7414	2,462.4	87.0705	2,462.4	86.7011	2,462.4	86.2067	2,462.4	84.6993	2,462.4	83.4814	2,462.4	82.696	2,462.4	82.14	2,462.4	81.6432	2,462.4	81.4917	2,462.4	82.534	2,462.4	83.8461	2,462.4	81.9328	2,462.4	80.6849	2,462.4	80.2532	2,462.4	79.5246	2,462.4	80.4582	2,462.4	78.4346	2,462.4	68.8604	2,462.4	60.5728	2,462.4	68.5483
2,548.83	96.4914	2,548.83	96.5823	2,548.83	96.4064	2,548.83	96.6835	2,548.83	96.6778	2,548.83	97.0419	2,548.83	96.3682	2,548.83	96.4313	2,548.83	95.6541	2,548.83	95.3441	2,548.83	94.0308	2,548.83	93.8077	2,548.83	92.0555	2,548.83	92.2162	2,548.83	89.8243	2,548.83	89.5662	2,548.83	87.4589	2,548.83	87.5151	2,548.83	85.8422	2,548.83	85.5437	2,548.83	83.8308	2,548.83	84.9332	2,548.83	83.0499	2,548.83	83.6056	2,548.83	81.3056	2,548.83	82.6768	2,548.83	84.14	2,548.83	83.8123	2,548.83	82.2803	2,548.83	80.0502	2,548.83	80.2157	2,548.83	80.7192	2,548.83	77.5621	2,548.83	75.7263	2,548.83	62.6254	2,548.83	53.491
2,639.65	96.1409	2,639.65	95.8994	2,639.65	96.2142	2,639.65	96.7341	2,639.65	96.0328	2,639.65	96.8968	2,639.65	96.1012	2,639.65	96.9923	2,639.65	94.8712	2,639.65	95.9255	2,639.65	93.6118	2,639.65	93.7844	2,639.65	91.8062	2,639.65	92.4047	2,639.65	89.146	2,639.65	90.5014	2,639.65	86.9153	2,639.65	88.457	2,639.65	83.8954	2,639.65	86.9335	2,639.65	84.1721	2,639.65	85.9457	2,639.65	82.408	2,639.65	84.8231	2,639.65	80.0556	2,639.65	85.1539	2,639.65	82.3611	2,639.65	85.4878	2,639.65	82.6275	2,639.65	82.8229	2,639.65	79.0853	2,639.65	82.1841	2,639.65	79.38	2,639.65	72.7963	2,639.65	72.4034	2,639.65	64.2225
2,731.93	94.8298	2,731.93	95.0545	2,731.93	95.1933	2,731.93	95.7238	2,731.93	94.9462	2,731.93	95.8264	2,731.93	95.0267	2,731.93	96.1579	2,731.93	94.2027	2,731.93	95.6709	2,731.93	92.7855	2,731.93	93.5134	2,731.93	90.3044	2,731.93	91.308	2,731.93	88.1182	2,731.93	90.367	2,731.93	86.8516	2,731.93	87.7378	2,731.93	84.7506	2,731.93	85.8605	2,731.93	82.9115	2,731.93	85.6506	2,731.93	81.2712	2,731.93	83.5116	2,731.93	81.223	2,731.93	83.1749	2,731.93	81.1103	2,731.93	84.7883	2,731.93	82.3847	2,731.93	81.5273	2,731.93	78.8706	2,731.93	79.6898	2,731.93	80.4779	2,731.93	76.0855	2,731.93	71.2986	2,731.93	57.1154
2,828.61	95.1672	2,828.61	95.5827	2,828.61	95.1279	2,828.61	95.6173	2,828.61	95.5791	2,828.61	96.1348	2,828.61	94.9206	2,828.61	95.3509	2,828.61	94.3779	2,828.61	94.6923	2,828.61	92.761	2,828.61	93.466	2,828.61	90.5763	2,828.61	91.8701	2,828.61	88.6445	2,828.61	90.0277	2,828.61	86.7438	2,828.61	86.3182	2,828.61	84.6173	2,828.61	84.9882	2,828.61	82.0266	2,828.61	83.8991	2,828.61	82.1901	2,828.61	82.4522	2,828.61	82.4482	2,828.61	82.0252	2,828.61	81.8422	2,828.61	84.2685	2,828.61	83.5271	2,828.61	82.4393	2,828.61	79.9258	2,828.61	80.8139	2,828.61	80.7015	2,828.61	77.7775	2,828.61	70.3457	2,828.61	62.7324
2,928.22	96.719	2,928.22	96.8061	2,928.22	96.4099	2,928.22	96.592	2,928.22	96.7028	2,928.22	96.8739	2,928.22	95.9163	2,928.22	95.9215	2,928.22	95.1777	2,928.22	94.4817	2,928.22	93.53	2,928.22	93.6135	2,928.22	91.9171	2,928.22	92.0425	2,928.22	89.8379	2,928.22	89.1313	2,928.22	86.9787	2,928.22	87.6121	2,928.22	84.6176	2,928.22	84.8575	2,928.22	82.9535	2,928.22	83.6409	2,928.22	83.4022	2,928.22	82.9043	2,928.22	82.0526	2,928.22	81.0903	2,928.22	82.3867	2,928.22	82.8348	2,928.22	83.782	2,928.22	81.3396	2,928.22	80.9049	2,928.22	81.4298	2,928.22	80.8878	2,928.22	74.8427	2,928.22	69.7397	2,928.22	68.8849
3,030.76	96.9392	3,030.76	96.854	3,030.76	97.0372	3,030.76	97.1708	3,030.76	97.0198	3,030.76	97.1762	3,030.76	96.532	3,030.76	96.49	3,030.76	95.5693	3,030.76	95.1456	3,030.76	94.1471	3,030.76	93.5556	3,030.76	92.3987	3,030.76	91.396	3,030.76	90.1948	3,030.76	88.2482	3,030.76	87.787	3,030.76	88.1571	3,030.76	86.3851	3,030.76	85.7327	3,030.76	84.5156	3,030.76	83.5045	3,030.76	83.1302	3,030.76	83.8092	3,030.76	81.3441	3,030.76	82.1324	3,030.76	82.2439	3,030.76	83.8408	3,030.76	83.1254	3,030.76	83.1707	3,030.76	81.7847	3,030.76	81.3208	3,030.76	79.9364	3,030.76	74.2176	3,030.76	67.8474	3,030.76	66.7173
3,137.7	96.3187	3,137.7	96.4067	3,137.7	96.8698	3,137.7	96.8739	3,137.7	96.3007	3,137.7	96.6363	3,137.7	96.2377	3,137.7	96.1744	3,137.7	95.2292	3,137.7	95.1891	3,137.7	93.7779	3,137.7	93.2837	3,137.7	91.8883	3,137.7	90.2117	3,137.7	90.0238	3,137.7	88.788	3,137.7	87.6768	3,137.7	86.9715	3,137.7	85.1765	3,137.7	85.6498	3,137.7	83.9575	3,137.7	83.5322	3,137.7	82.065	3,137.7	82.1481	3,137.7	81.2718	3,137.7	82.9729	3,137.7	81.2236	3,137.7	82.6432	3,137.7	82.4734	3,137.7	81.7389	3,137.7	80.9331	3,137.7	81.0296	3,137.7	79.0362	3,137.7	73.2788	3,137.7	68.9112	3,137.7	71.3061
3,249.02	95.7851	3,249.02	96.1966	3,249.02	95.7627	3,249.02	96.3548	3,249.02	95.7519	3,249.02	96.1144	3,249.02	95.4971	3,249.02	95.782	3,249.02	94.6814	3,249.02	95.207	3,249.02	93.3341	3,249.02	93.3475	3,249.02	91.9195	3,249.02	91.2555	3,249.02	90.1855	3,249.02	89.7774	3,249.02	87.6191	3,249.02	87.3921	3,249.02	85.6712	3,249.02	85.3488	3,249.02	83.7497	3,249.02	83.362	3,249.02	82.9716	3,249.02	82.2143	3,249.02	82.8883	3,249.02	82.2192	3,249.02	80.5194	3,249.02	82.6619	3,249.02	82.2166	3,249.02	82.0833	3,249.02	80.4634	3,249.02	78.5227	3,249.02	79.1776	3,249.02	75.7512	3,249.02	67.5441	3,249.02	72.1235
3,363.28	95.4748	3,363.28	95.4269	3,363.28	95.7836	3,363.28	95.275	3,363.28	95.6724	3,363.28	95.1386	3,363.28	95.4434	3,363.28	94.5413	3,363.28	94.8763	3,363.28	93.7009	3,363.28	93.867	3,363.28	92.4125	3,363.28	92.2328	3,363.28	91.2153	3,363.28	90.1688	3,363.28	89.9162	3,363.28	87.8703	3,363.28	86.9565	3,363.28	86.4735	3,363.28	84.4847	3,363.28	84.4225	3,363.28	83.4433	3,363.28	83.4308	3,363.28	83.3095	3,363.28	82.3324	3,363.28	81.4635	3,363.28	81.9496	3,363.28	81.5793	3,363.28	82.3583	3,363.28	80.7174	3,363.28	79.9983	3,363.28	77.3953	3,363.28	77.7974	3,363.28	75.5622	3,363.28	70.7521	3,363.28	71.5604
3,481.93	95.9894	3,481.93	96.0474	3,481.93	95.3901	3,481.93	95.6865	3,481.93	96.0078	3,481.93	95.4223	3,481.93	95.5641	3,481.93	95.2295	3,481.93	94.933	3,481.93	93.8593	3,481.93	93.3845	3,481.93	92.66	3,481.93	92.7639	3,481.93	91.4154	3,481.93	90.101	3,481.93	88.8542	3,481.93	87.5493	3,481.93	86.74	3,481.93	85.6335	3,481.93	83.8497	3,481.93	83.7424	3,481.93	82.7539	3,481.93	82.2358	3,481.93	82.6694	3,481.93	81.6202	3,481.93	82.1346	3,481.93	81.9926	3,481.93	81.6768	3,481.93	81.3761	3,481.93	81.6056	3,481.93	79.8651	3,481.93	79.2882	3,481.93	78.1755	3,481.93	68.4911	3,481.93	72.4078	3,481.93	75.9917
3,604.98	95.6751	3,604.98	95.5947	3,604.98	95.3544	3,604.98	95.4172	3,604.98	94.9797	3,604.98	95.5101	3,604.98	94.9906	3,604.98	95.2066	3,604.98	94.6431	3,604.98	94.2523	3,604.98	94.1388	3,604.98	93.1381	3,604.98	92.7663	3,604.98	91.8337	3,604.98	90.4389	3,604.98	89.9011	3,604.98	88.8309	3,604.98	87.3378	3,604.98	86.413	3,604.98	84.5047	3,604.98	84.41	3,604.98	83.353	3,604.98	83.1503	3,604.98	82.2522	3,604.98	82.6663	3,604.98	82.2547	3,604.98	82.3235	3,604.98	80.9262	3,604.98	80.6495	3,604.98	82.9017	3,604.98	80.3689	3,604.98	79.402	3,604.98	77.4741	3,604.98	73.3364	3,604.98	72.2315	3,604.98	76.6509
3,732.42	95.5697	3,732.42	95.0408	3,732.42	95.8918	3,732.42	94.8657	3,732.42	94.5804	3,732.42	95.2456	3,732.42	95.1058	3,732.42	94.923	3,732.42	95.2647	3,732.42	94.5442	3,732.42	95.279	3,732.42	93.7577	3,732.42	93.9167	3,732.42	92.4372	3,732.42	92.0983	3,732.42	90.0905	3,732.42	89.8861	3,732.42	87.8502	3,732.42	87.9082	3,732.42	85.7713	3,732.42	86.2021	3,732.42	84.5436	3,732.42	84.4241	3,732.42	82.7535	3,732.42	83.7356	3,732.42	82.0369	3,732.42	83.7476	3,732.42	82.2255	3,732.42	82.6744	3,732.42	82.1558	3,732.42	81.7898	3,732.42	77.1393	3,732.42	76.2952	3,732.42	73.5641	3,732.42	69.2116	3,732.42	77.8784
3,864.26	95.5107	3,864.26	95.39	3,864.26	95.401	3,864.26	94.5634	3,864.26	94.8965	3,864.26	94.8131	3,864.26	95.2432	3,864.26	95.0185	3,864.26	95.9528	3,864.26	95.8287	3,864.26	95.5316	3,864.26	94.9169	3,864.26	93.8627	3,864.26	93.5902	3,864.26	92.1085	3,864.26	91.3067	3,864.26	89.6221	3,864.26	88.9129	3,864.26	86.846	3,864.26	86.7729	3,864.26	84.4706	3,864.26	84.9088	3,864.26	82.2197	3,864.26	83.8561	3,864.26	82.7523	3,864.26	82.6652	3,864.26	83.8112	3,864.26	82.7396	3,864.26	82.3094	3,864.26	81.3155	3,864.26	81.1585	3,864.26	76.6985	3,864.26	74.6812	3,864.26	70.8894	3,864.26	70.9945	3,864.26	78.625
4,000.49	94.6918	4,000.49	94.8382	4,000.49	93.1556	4,000.49	94.1671	4,000.49	93.7569	4,000.49	94.0009	4,000.49	94.0605	4,000.49	95.1885	4,000.49	94.8318	4,000.49	95.7667	4,000.49	94.4466	4,000.49	94.7153	4,000.49	93.2898	4,000.49	93.4453	4,000.49	91.8864	4,000.49	90.7292	4,000.49	89.1191	4,000.49	89.2664	4,000.49	87.3739	4,000.49	86.2627	4,000.49	85.0326	4,000.49	85.819	4,000.49	83.3072	4,000.49	83.9138	4,000.49	82.2577	4,000.49	83.7871	4,000.49	80.8431	4,000.49	83.0926	4,000.49	80.2691	4,000.49	82.7726	4,000.49	80.4634	4,000.49	76.6362	4,000.49	71.5488	4,000.49	71.2472	4,000.49	71.9746	4,000.49	77.7939
4,141.11	95.4669	4,141.11	95.4097	4,141.11	95.0397	4,141.11	94.6527	4,141.11	93.9393	4,141.11	94.9386	4,141.11	95.0307	4,141.11	96.8289	4,141.11	95.452	4,141.11	96.2698	4,141.11	95.0307	4,141.11	95.3398	4,141.11	94.6137	4,141.11	92.9698	4,141.11	92.9633	4,141.11	90.5903	4,141.11	89.4461	4,141.11	88.6695	4,141.11	87.5298	4,141.11	86.3563	4,141.11	84.9128	4,141.11	85.0314	4,141.11	83.8361	4,141.11	83.9139	4,141.11	83.8929	4,141.11	81.9283	4,141.11	83.334	4,141.11	82.8198	4,141.11	82.1219	4,141.11	82.1532	4,141.11	79.6855	4,141.11	76.0511	4,141.11	68.5972	4,141.11	60.1457	4,141.11	68.7307	4,141.11	80.1666
4,287.6	96.1548	4,287.6	95.033	4,287.6	96.2587	4,287.6	95.1274	4,287.6	94.8766	4,287.6	95.2523	4,287.6	95.4023	4,287.6	95.7577	4,287.6	96.3258	4,287.6	96.3435	4,287.6	96.3295	4,287.6	95.9996	4,287.6	94.9403	4,287.6	94.5599	4,287.6	92.8516	4,287.6	92.313	4,287.6	90.2891	4,287.6	89.4458	4,287.6	87.7412	4,287.6	86.7653	4,287.6	85.5683	4,287.6	84.253	4,287.6	84.1288	4,287.6	83.6129	4,287.6	83.6116	4,287.6	83.3724	4,287.6	84.3176	4,287.6	81.2156	4,287.6	82.3721	4,287.6	79.8443	4,287.6	79.6522	4,287.6	73.8226	4,287.6	75.2435	4,287.6	67.8864	4,287.6	71.9196	4,287.6	81.3555
4,438.48	96.0652	4,438.48	96.1476	4,438.48	95.109	4,438.48	94.9007	4,438.48	95.4522	4,438.48	95.1142	4,438.48	95.3821	4,438.48	95.6805	4,438.48	97.0324	4,438.48	96.1913	4,438.48	96.7976	4,438.48	95.8215	4,438.48	94.7838	4,438.48	94.1831	4,438.48	92.7264	4,438.48	92.1808	4,438.48	89.738	4,438.48	88.6361	4,438.48	87.9801	4,438.48	85.7119	4,438.48	85.2654	4,438.48	85.1428	4,438.48	84.7751	4,438.48	85.25	4,438.48	83.14	4,438.48	84.5561	4,438.48	82.8296	4,438.48	82.659	4,438.48	81.5844	4,438.48	81.6052	4,438.48	80.5656	4,438.48	73.9544	4,438.48	67.1733	4,438.48	59.631	4,438.48	74.8035	4,438.48	80.7979
4,595.21	96.5607	4,595.21	96.7466	4,595.21	96.2263	4,595.21	95.7802	4,595.21	95.3701	4,595.21	95.7585	4,595.21	96.4369	4,595.21	97.1562	4,595.21	95.9616	4,595.21	96.855	4,595.21	94.7143	4,595.21	95.3946	4,595.21	94.1211	4,595.21	92.8739	4,595.21	92.0627	4,595.21	89.8828	4,595.21	90.1435	4,595.21	87.5315	4,595.21	87.4176	4,595.21	86.1852	4,595.21	84.7368	4,595.21	83.9387	4,595.21	83.5638	4,595.21	82.8483	4,595.21	83.3809	4,595.21	82.4642	4,595.21	83.5214	4,595.21	82.8297	4,595.21	82.2286	4,595.21	80.8274	4,595.21	77.025	4,595.21	76.3229	4,595.21	70.2856	4,595.21	60.5374	4,595.21	71.0953	4,595.21	81.001
4,756.35	96.9422	4,756.35	96.125	4,756.35	96.3698	4,756.35	96.6868	4,756.35	95.2274	4,756.35	95.8714	4,756.35	95.4553	4,756.35	96.2523	4,756.35	95.7435	4,756.35	96.7226	4,756.35	95.4636	4,756.35	95.5591	4,756.35	93.9202	4,756.35	93.6158	4,756.35	91.9428	4,756.35	91.2045	4,756.35	89.8008	4,756.35	87.5433	4,756.35	87.7865	4,756.35	88.2146	4,756.35	85.6052	4,756.35	84.0554	4,756.35	84.3478	4,756.35	83.2766	4,756.35	83.7099	4,756.35	83.9873	4,756.35	83.5694	4,756.35	83.2056	4,756.35	80.2804	4,756.35	80.5348	4,756.35	79.0104	4,756.35	76.4688	4,756.35	72.6267	4,756.35	67.5012	4,756.35	70.3422	4,756.35	81.2278
4,924.8	96.4378	4,924.8	96.9408	4,924.8	96.0103	4,924.8	94.6413	4,924.8	95.9269	4,924.8	95.3971	4,924.8	95.1974	4,924.8	95.1906	4,924.8	96.8391	4,924.8	95.0587	4,924.8	96.5646	4,924.8	94.6914	4,924.8	95.113	4,924.8	93.5438	4,924.8	92.9379	4,924.8	90.505	4,924.8	91.1113	4,924.8	87.8584	4,924.8	87.5234	4,924.8	85.1525	4,924.8	84.4527	4,924.8	85.0104	4,924.8	83.5538	4,924.8	84.5633	4,924.8	83.3256	4,924.8	84.5352	4,924.8	84.5671	4,924.8	82.9229	4,924.8	84.1265	4,924.8	82.3269	4,924.8	79.6421	4,924.8	74.5766	4,924.8	68.4499	4,924.8	67.7438	4,924.8	75.7522	4,924.8	80.3969
5,097.66	96.1948	5,097.66	95.6671	5,097.66	96.5363	5,097.66	96.4377	5,097.66	94.8769	5,097.66	95.174	5,097.66	95.9382	5,097.66	96.9804	5,097.66	95.9501	5,097.66	96.9669	5,097.66	95.6562	5,097.66	96.1508	5,097.66	94.9541	5,097.66	94.6541	5,097.66	93.1904	5,097.66	91.7772	5,097.66	88.9473	5,097.66	90.8676	5,097.66	87.7657	5,097.66	86.3699	5,097.66	85.4977	5,097.66	85.5893	5,097.66	84.0903	5,097.66	84.9956	5,097.66	84.3418	5,097.66	84.9456	5,097.66	83.5137	5,097.66	83.5124	5,097.66	82.6774	5,097.66	79.2822	5,097.66	78.5012	5,097.66	75.0026	5,097.66	53.4076	5,097.66	70.7546	5,097.66	70.7287	5,097.66	81.9146
5,277.83	94.9315	5,277.83	95.1609	5,277.83	94.5143	5,277.83	94.581	5,277.83	94.7055	5,277.83	94.299	5,277.83	93.7429	5,277.83	94.6226	5,277.83	95.4327	5,277.83	94.8761	5,277.83	96.1431	5,277.83	94.5182	5,277.83	94.7183	5,277.83	92.957	5,277.83	93.0602	5,277.83	92.0405	5,277.83	91.1163	5,277.83	89.6503	5,277.83	87.2347	5,277.83	88.7552	5,277.83	85.6953	5,277.83	85.7299	5,277.83	82.3549	5,277.83	83.7147	5,277.83	82.9239	5,277.83	83.9596	5,277.83	82.4469	5,277.83	84.8955	5,277.83	81.9037	5,277.83	81.1628	5,277.83	79.7672	5,277.83	75.4756	5,277.83	68.6724	5,277.83	70.9054	5,277.83	74.2758	5,277.83	80.8394
5,463.87	95.1716	5,463.87	95.3418	5,463.87	95.7574	5,463.87	94.8557	5,463.87	94.5014	5,463.87	94.2047	5,463.87	94.4134	5,463.87	94.4122	5,463.87	95.2881	5,463.87	95.7051	5,463.87	96.292	5,463.87	96.2429	5,463.87	96.1247	5,463.87	95.6622	5,463.87	95.2274	5,463.87	92.5153	5,463.87	90.5565	5,463.87	89.0228	5,463.87	87.4301	5,463.87	84.0338	5,463.87	85.8134	5,463.87	83.9241	5,463.87	84.1591	5,463.87	83.3235	5,463.87	82.9508	5,463.87	81.5852	5,463.87	85.1859	5,463.87	82.2231	5,463.87	83.364	5,463.87	81.2774	5,463.87	78.3624	5,463.87	74.0777	5,463.87	62.6676	5,463.87	75.203	5,463.87	76.6906	5,463.87	80.3277
5,657.23	94.562	5,657.23	94.7419	5,657.23	95.2879	5,657.23	95.1633	5,657.23	95.2397	5,657.23	94.171	5,657.23	94.0627	5,657.23	94.6781	5,657.23	94.6267	5,657.23	96.0332	5,657.23	95.697	5,657.23	95.9014	5,657.23	96.0757	5,657.23	95.1578	5,657.23	93.5987	5,657.23	93.1943	5,657.23	90.4608	5,657.23	90.8962	5,657.23	89.1065	5,657.23	87.2969	5,657.23	84.3262	5,657.23	84.5593	5,657.23	84.3594	5,657.23	83.416	5,657.23	83.3695	5,657.23	83.6738	5,657.23	83.3034	5,657.23	83.0476	5,657.23	84.0455	5,657.23	81.3734	5,657.23	77.5187	5,657.23	74.4672	5,657.23	57.2049	5,657.23	73.6852	5,657.23	75.4166	5,657.23	78.4921
5,856.45	93.6696	5,856.45	94.3212	5,856.45	94.5973	5,856.45	94.8699	5,856.45	94.7283	5,856.45	95.0493	5,856.45	93.406	5,856.45	94.7558	5,856.45	95.4547	5,856.45	96.0964	5,856.45	96.5324	5,856.45	95.9241	5,856.45	95.5789	5,856.45	93.7975	5,856.45	93.6825	5,856.45	90.9582	5,856.45	91.7014	5,856.45	85.7267	5,856.45	88.5639	5,856.45	86.2714	5,856.45	84.817	5,856.45	82.186	5,856.45	83.9169	5,856.45	82.7226	5,856.45	83.3565	5,856.45	81.0049	5,856.45	85.6002	5,856.45	82.5195	5,856.45	82.4773	5,856.45	80.1709	5,856.45	77.8492	5,856.45	72.3215	5,856.45	46.0224	5,856.45	76.4511	5,856.45	76.3951	5,856.45	75.6835
6,062.99	94.6386	6,062.99	95.0161	6,062.99	95.903	6,062.99	95.8579	6,062.99	95.3042	6,062.99	94.1938	6,062.99	95.2811	6,062.99	94.8855	6,062.99	95.752	6,062.99	96.2127	6,062.99	95.8522	6,062.99	96.5428	6,062.99	95.7818	6,062.99	96.3364	6,062.99	93.9285	6,062.99	92.0022	6,062.99	90.3534	6,062.99	89.6554	6,062.99	88.1405	6,062.99	86.1543	6,062.99	84.8327	6,062.99	84.7835	6,062.99	82.0209	6,062.99	83.7773	6,062.99	82.9989	6,062.99	84.0744	6,062.99	84.0421	6,062.99	82.7521	6,062.99	81.605	6,062.99	80.1901	6,062.99	75.1698	6,062.99	71.9662	6,062.99	67.0907	6,062.99	76.1616	6,062.99	76.6987	6,062.99	75.7077
6,276.86	94.7598	6,276.86	94.7029	6,276.86	94.9533	6,276.86	95.541	6,276.86	95.5597	6,276.86	95.1299	6,276.86	94.2063	6,276.86	95.3209	6,276.86	95.6214	6,276.86	95.7044	6,276.86	96.5963	6,276.86	95.5965	6,276.86	94.8148	6,276.86	92.9967	6,276.86	92.1879	6,276.86	90.5294	6,276.86	89.7563	6,276.86	86.9235	6,276.86	87.3312	6,276.86	85.0829	6,276.86	84.5809	6,276.86	83.3939	6,276.86	80.9501	6,276.86	82.2543	6,276.86	83.8539	6,276.86	83.1728	6,276.86	79.9928	6,276.86	83.367	6,276.86	81.1563	6,276.86	79.9117	6,276.86	76.4781	6,276.86	55.3869	6,276.86	51.1233	6,276.86	77.6109	6,276.86	76.5653	6,276.86	75.7197
6,498.05	94.9295	6,498.05	94.7573	6,498.05	95.4891	6,498.05	95.1736	6,498.05	95.4441	6,498.05	94.0573	6,498.05	94.6191	6,498.05	93.752	6,498.05	94.2493	6,498.05	94.903	6,498.05	95.0465	6,498.05	94.6673	6,498.05	94.759	6,498.05	92.8483	6,498.05	93.1922	6,498.05	90.8277	6,498.05	89.0681	6,498.05	87.727	6,498.05	85.5138	6,498.05	86.1456	6,498.05	83.5516	6,498.05	83.77	6,498.05	81.5487	6,498.05	81.7228	6,498.05	80.6784	6,498.05	79.7278	6,498.05	80.1188	6,498.05	80.1862	6,498.05	79.8411	6,498.05	77.4741	6,498.05	71.6068	6,498.05	66.4931	6,498.05	65.6607	6,498.05	78.0893	6,498.05	74.8768	6,498.05	72.0945
6,726.56	95.1894	6,726.56	95.0553	6,726.56	95.1556	6,726.56	95.0062	6,726.56	95.416	6,726.56	94.2467	6,726.56	93.3731	6,726.56	93.2437	6,726.56	94.2979	6,726.56	93.615	6,726.56	94.7351	6,726.56	93.9198	6,726.56	94.1903	6,726.56	93.2785	6,726.56	92.272	6,726.56	91.0878	6,726.56	89.1116	6,726.56	88.2398	6,726.56	86.8898	6,726.56	83.6292	6,726.56	83.4573	6,726.56	82.8399	6,726.56	80.8071	6,726.56	81.1867	6,726.56	79.9831	6,726.56	81.0557	6,726.56	79.3135	6,726.56	80.1574	6,726.56	81.1615	6,726.56	75.9561	6,726.56	73.8512	6,726.56	69.1339	6,726.56	64.5966	6,726.56	78.063	6,726.56	77.487	6,726.56	72.1452
6,963.87	94.3184	6,963.87	94.1738	6,963.87	93.9999	6,963.87	93.2904	6,963.87	92.7767	6,963.87	92.5091	6,963.87	92.0562	6,963.87	91.6351	6,963.87	91.2399	6,963.87	92.2443	6,963.87	92.8715	6,963.87	93.2863	6,963.87	93.2864	6,963.87	93.1417	6,963.87	91.3625	6,963.87	90.3341	6,963.87	88.3049	6,963.87	87.3517	6,963.87	85.5212	6,963.87	83.7127	6,963.87	81.8184	6,963.87	80.2454	6,963.87	80.6841	6,963.87	78.4938	6,963.87	80.4686	6,963.87	79.7653	6,963.87	81.1521	6,963.87	81.2026	6,963.87	79.8186	6,963.87	76.5387	6,963.87	66.6812	6,963.87	68.5531	6,963.87	70.6448	6,963.87	76.4218	6,963.87	74.1793	6,963.87	68.6713
7,209.96	94.7681	7,209.96	94.3923	7,209.96	93.6039	7,209.96	93.0572	7,209.96	93.2801	7,209.96	92.7146	7,209.96	91.9319	7,209.96	91.0275	7,209.96	91.4439	7,209.96	91.6169	7,209.96	92.2519	7,209.96	92.0856	7,209.96	92.4213	7,209.96	91.164	7,209.96	89.7674	7,209.96	88.9849	7,209.96	88.1036	7,209.96	85.1291	7,209.96	84.3864	7,209.96	82.7504	7,209.96	80.4304	7,209.96	80.1318	7,209.96	79.0954	7,209.96	78.5691	7,209.96	78.8142	7,209.96	79.2307	7,209.96	77.6461	7,209.96	78.2969	7,209.96	78.7077	7,209.96	73.5813	7,209.96	66.1173	7,209.96	68.5578	7,209.96	69.7803	7,209.96	74.7204	7,209.96	75.0497	7,209.96	62.613
7,464.84	94.5933	7,464.84	93.9987	7,464.84	94.1026	7,464.84	92.9898	7,464.84	93.8106	7,464.84	92.9962	7,464.84	92.6158	7,464.84	91.3245	7,464.84	91.1329	7,464.84	91.4547	7,464.84	92.8751	7,464.84	92.6903	7,464.84	92.9587	7,464.84	91.8443	7,464.84	91.407	7,464.84	89.6513	7,464.84	87.3289	7,464.84	85.7157	7,464.84	84.1564	7,464.84	82.962	7,464.84	81.0861	7,464.84	81.0269	7,464.84	78.3561	7,464.84	75.6086	7,464.84	79.2218	7,464.84	78.0969	7,464.84	79.9041	7,464.84	79.5795	7,464.84	78.471	7,464.84	76.3979	7,464.84	58.6312	7,464.84	71.9272	7,464.84	73.0047	7,464.84	74.9431	7,464.84	72.6181	7,464.84	59.5828
7,727.05	94.7331	7,727.05	94.3484	7,727.05	94.1649	7,727.05	93.8182	7,727.05	94.0686	7,727.05	93.4525	7,727.05	92.2016	7,727.05	91.56	7,727.05	91.384	7,727.05	91.2893	7,727.05	91.5988	7,727.05	92.0878	7,727.05	92.1236	7,727.05	91.2637	7,727.05	90.1687	7,727.05	88.2222	7,727.05	85.9641	7,727.05	83.8486	7,727.05	82.2783	7,727.05	80.9887	7,727.05	79.5637	7,727.05	78.4066	7,727.05	76.1702	7,727.05	77.3787	7,727.05	74.6357	7,727.05	76.3384	7,727.05	76.9215	7,727.05	76.9547	7,727.05	78.7252	7,727.05	73.7755	7,727.05	64.2922	7,727.05	71.4357	7,727.05	73.2428	7,727.05	75.6029	7,727.05	72.0367	7,727.05	65.9512
7,999.51	95.5174	7,999.51	95.1359	7,999.51	94.9286	7,999.51	94.3379	7,999.51	94.4687	7,999.51	93.3814	7,999.51	92.614	7,999.51	91.7094	7,999.51	91.45	7,999.51	90.3017	7,999.51	91.5709	7,999.51	91.111	7,999.51	91.7687	7,999.51	90.1623	7,999.51	90.4998	7,999.51	87.5433	7,999.51	84.7258	7,999.51	84.4626	7,999.51	82.9231	7,999.51	80.3836	7,999.51	78.4844	7,999.51	78.3252	7,999.51	76.7966	7,999.51	77.1388	7,999.51	77.5617	7,999.51	78.0962	7,999.51	77.6957	7,999.51	76.8814	7,999.51	78.1027	7,999.51	73.7432	7,999.51	56.6021	7,999.51	73.2518	7,999.51	72.9848	7,999.51	72.7673	7,999.51	73.7382	7,999.51	66.4228
8,282.23	94.8926	8,282.23	94.5289	8,282.23	94.5029	8,282.23	93.6451	8,282.23	93.7986	8,282.23	92.6481	8,282.23	92.7863	8,282.23	91.3188	8,282.23	90.7601	8,282.23	89.9086	8,282.23	90.8979	8,282.23	90.7042	8,282.23	90.3723	8,282.23	90.2324	8,282.23	87.8536	8,282.23	87.0711	8,282.23	85.7706	8,282.23	83.9071	8,282.23	82.6105	8,282.23	79.5802	8,282.23	76.7529	8,282.23	76.7881	8,282.23	74.783	8,282.23	76.7993	8,282.23	75.6177	8,282.23	76.0111	8,282.23	75.6849	8,282.23	75.9993	8,282.23	76.1159	8,282.23	71.8798	8,282.23	64.8726	8,282.23	69.4038	8,282.23	71.5068	8,282.23	73.7389	8,282.23	69.7121	8,282.23	69.0568
8,573.73	94.7171	8,573.73	94.2373	8,573.73	94.5628	8,573.73	93.9682	8,573.73	94.1066	8,573.73	93.0985	8,573.73	93.0799	8,573.73	92.1028	8,573.73	90.6934	8,573.73	89.6378	8,573.73	90.4053	8,573.73	90.078	8,573.73	90.572	8,573.73	88.9835	8,573.73	88.9263	8,573.73	86.653	8,573.73	85.119	8,573.73	82.4635	8,573.73	82.031	8,573.73	78.8608	8,573.73	77.3216	8,573.73	74.4684	8,573.73	75.4226	8,573.73	73.3162	8,573.73	76.3305	8,573.73	76.6307	8,573.73	77.8638	8,573.73	75.9064	8,573.73	76.2844	8,573.73	70.791	8,573.73	56.8007	8,573.73	72.2058	8,573.73	72.0837	8,573.73	70.257	8,573.73	69.0307	8,573.73	65.6838
8,876.95	93.992	8,876.95	94.3332	8,876.95	94.31	8,876.95	93.8696	8,876.95	93.345	8,876.95	92.9718	8,876.95	92.1684	8,876.95	91.4402	8,876.95	89.9812	8,876.95	89.0846	8,876.95	89.6277	8,876.95	89.1668	8,876.95	89.6229	8,876.95	89.3037	8,876.95	87.9874	8,876.95	86.1646	8,876.95	84.2493	8,876.95	82.3903	8,876.95	81.0177	8,876.95	79.0543	8,876.95	78.1741	8,876.95	75.3343	8,876.95	74.3794	8,876.95	68.6146	8,876.95	73.8029	8,876.95	75.2661	8,876.95	74.0828	8,876.95	76.5275	8,876.95	75.2867	8,876.95	67.7306	8,876.95	58.6666	8,876.95	70.5066	8,876.95	72.4052	8,876.95	67.7648	8,876.95	65.7199	8,876.95	66.619
9,188.96	94.6172	9,188.96	94.5452	9,188.96	94.5739	9,188.96	93.5112	9,188.96	93.0182	9,188.96	92.4527	9,188.96	91.8976	9,188.96	90.9996	9,188.96	90.0773	9,188.96	88.8339	9,188.96	88.7425	9,188.96	88.6538	9,188.96	89.5233	9,188.96	87.6286	9,188.96	87.8754	9,188.96	85.167	9,188.96	83.6115	9,188.96	82.3534	9,188.96	80.7007	9,188.96	78.0251	9,188.96	77.8034	9,188.96	74.9109	9,188.96	71.5749	9,188.96	72.7779	9,188.96	73.6516	9,188.96	76.1512	9,188.96	75.9933	9,188.96	74.3864	9,188.96	75.7084	9,188.96	66.8488	9,188.96	48.3624	9,188.96	69.2271	9,188.96	71.8736	9,188.96	68.9206	9,188.96	66.6835	9,188.96	66.9069
9,514.16	94.1182	9,514.16	94.1813	9,514.16	93.9037	9,514.16	93.2322	9,514.16	92.5766	9,514.16	92.3695	9,514.16	91.4113	9,514.16	91.4335	9,514.16	89.338	9,514.16	88.7024	9,514.16	87.7304	9,514.16	88.7185	9,514.16	88.5012	9,514.16	88.4278	9,514.16	87.3578	9,514.16	85.7729	9,514.16	83.4244	9,514.16	82.0142	9,514.16	80.3407	9,514.16	77.9704	9,514.16	74.4182	9,514.16	73.0184	9,514.16	71.0644	9,514.16	74.0721	9,514.16	72.8303	9,514.16	75.7202	9,514.16	75.445	9,514.16	73.1494	9,514.16	73.3458	9,514.16	63.3637	9,514.16	54.0915	9,514.16	65.7408	9,514.16	72.9628	9,514.16	67.0904	9,514.16	65.1687	9,514.16	63.665
9,849.61	94.6358	9,849.61	94.6325	9,849.61	94.209	9,849.61	93.6649	9,849.61	93.1394	9,849.61	92.9977	9,849.61	91.8035	9,849.61	91.5632	9,849.61	90.2086	9,849.61	89.1608	9,849.61	88.3386	9,849.61	88.6231	9,849.61	88.9891	9,849.61	89.0833	9,849.61	87.5945	9,849.61	86.1369	9,849.61	84.8021	9,849.61	82.2262	9,849.61	81.1587	9,849.61	77.4596	9,849.61	74.8038	9,849.61	74.3943	9,849.61	73.4372	9,849.61	73.7613	9,849.61	72.7353	9,849.61	75.0476	9,849.61	76.7388	9,849.61	71.9229	9,849.61	73.3809	9,849.61	62.9391	9,849.61	59.0495	9,849.61	66.8418	9,849.61	72.8835	9,849.61	67.5478	9,849.61	65.2302	9,849.61	65.3125
10,196.8	95.4988	10,196.8	95.3306	10,196.8	94.8979	10,196.8	94.5032	10,196.8	93.9344	10,196.8	93.3839	10,196.8	92.4026	10,196.8	92.5076	10,196.8	91.2361	10,196.8	89.574	10,196.8	89.1801	10,196.8	89.0754	10,196.8	89.4678	10,196.8	89.1281	10,196.8	87.5313	10,196.8	86.2891	10,196.8	83.7495	10,196.8	82.0222	10,196.8	80.6788	10,196.8	78.7171	10,196.8	76.0348	10,196.8	75.5124	10,196.8	72.2894	10,196.8	73.5872	10,196.8	74.1523	10,196.8	74.4174	10,196.8	77.9361	10,196.8	73.0821	10,196.8	73.2125	10,196.8	62.0626	10,196.8	62.5055	10,196.8	66.491	10,196.8	73.5921	10,196.8	67.5218	10,196.8	64.9551	10,196.8	66.8481
10,555.7	95.6803	10,555.7	95.4148	10,555.7	95.257	10,555.7	95.0481	10,555.7	94.2933	10,555.7	93.4721	10,555.7	92.8457	10,555.7	92.9032	10,555.7	91.718	10,555.7	90.0844	10,555.7	89.2258	10,555.7	88.923	10,555.7	89.8652	10,555.7	88.3206	10,555.7	87.7165	10,555.7	86.4942	10,555.7	84.146	10,555.7	82.013	10,555.7	80.2873	10,555.7	78.6117	10,555.7	76.9648	10,555.7	74.8221	10,555.7	71.8527	10,555.7	72.419	10,555.7	73.632	10,555.7	74.7225	10,555.7	75.5502	10,555.7	72.3863	10,555.7	71.3201	10,555.7	56.0858	10,555.7	61.5558	10,555.7	65.6535	10,555.7	73.2701	10,555.7	64.7965	10,555.7	61.7173	10,555.7	65.6058
10,927.7	95.3485	10,927.7	95.0794	10,927.7	95.264	10,927.7	94.7122	10,927.7	94.2357	10,927.7	93.361	10,927.7	92.982	10,927.7	92.8827	10,927.7	91.8746	10,927.7	89.9718	10,927.7	89.205	10,927.7	88.8591	10,927.7	89.5218	10,927.7	88.1704	10,927.7	88.1952	10,927.7	85.6032	10,927.7	83.8226	10,927.7	81.8322	10,927.7	80.1107	10,927.7	77.3045	10,927.7	73.9277	10,927.7	74.0844	10,927.7	71.6138	10,927.7	72.1874	10,927.7	72.9004	10,927.7	74.5153	10,927.7	73.1406	10,927.7	71.24	10,927.7	70.483	10,927.7	55.4945	10,927.7	51.6308	10,927.7	66.735	10,927.7	71.5916	10,927.7	60.491	10,927.7	57.8304	10,927.7	63.5766
11,313	95.3212	11,313	94.8219	11,313	94.9133	11,313	94.4358	11,313	94.1103	11,313	93.5369	11,313	93.1355	11,313	93.231	11,313	92.1899	11,313	90.3855	11,313	89.2399	11,313	88.9699	11,313	88.8083	11,313	88.3133	11,313	87.4185	11,313	85.3184	11,313	83.3908	11,313	81.6264	11,313	79.801	11,313	75.8959	11,313	73.6332	11,313	73.0161	11,313	71.4517	11,313	70.7796	11,313	70.8807	11,313	72.5107	11,313	72.5622	11,313	71.2484	11,313	68.0564	11,313	56.7131	11,313	60.388	11,313	64.32	11,313	71.7841	11,313	64.2318	11,313	55.7775	11,313	65.0131
11,712.9	94.7622	11,712.9	94.744	11,712.9	94.345	11,712.9	94.0336	11,712.9	93.8729	11,712.9	93.4149	11,712.9	93.012	11,712.9	92.897	11,712.9	91.9322	11,712.9	90.2461	11,712.9	89.1282	11,712.9	88.2779	11,712.9	88.4162	11,712.9	87.648	11,712.9	86.1975	11,712.9	84.7949	11,712.9	82.4172	11,712.9	79.9863	11,712.9	78.5241	11,712.9	76.3033	11,712.9	73.5048	11,712.9	71.9579	11,712.9	70.1497	11,712.9	70.2623	11,712.9	70.4577	11,712.9	71.4925	11,712.9	72.3191	11,712.9	67.346	11,712.9	67.4213	11,712.9	61.2696	11,712.9	61.6367	11,712.9	56.8171	11,712.9	70.7725	11,712.9	59.863	11,712.9	56.044	11,712.9	62.628
12,126	94.0148	12,126	93.9295	12,126	93.953	12,126	93.4288	12,126	93.2278	12,126	92.6743	12,126	92.228	12,126	91.9179	12,126	91.1925	12,126	89.9317	12,126	88.681	12,126	87.4847	12,126	87.7568	12,126	86.6724	12,126	85.8944	12,126	84.2023	12,126	81.9076	12,126	79.6604	12,126	78.6484	12,126	76.0865	12,126	74.0347	12,126	71.7357	12,126	69.7448	12,126	68.9825	12,126	68.7438	12,126	70.3093	12,126	67.9019	12,126	67.0858	12,126	66.8291	12,126	59.6173	12,126	59.7864	12,126	58.2054	12,126	70.5121	12,126	53.8313	12,126	61.8985	12,126	61.9979
12,553.7	93.7779	12,553.7	93.4633	12,553.7	93.6123	12,553.7	93.0518	12,553.7	92.9108	12,553.7	92.1404	12,553.7	91.4959	12,553.7	91.306	12,553.7	90.79	12,553.7	89.2515	12,553.7	87.8229	12,553.7	86.6333	12,553.7	86.8963	12,553.7	86.1585	12,553.7	85.8219	12,553.7	83.5104	12,553.7	81.08	12,553.7	80.1162	12,553.7	77.6213	12,553.7	74.8279	12,553.7	73.836	12,553.7	71.8823	12,553.7	69.1739	12,553.7	67.4588	12,553.7	65.7559	12,553.7	67.0274	12,553.7	66.9699	12,553.7	65.086	12,553.7	63.0886	12,553.7	56.2657	12,553.7	58.3528	12,553.7	58.3487	12,553.7	66.7401	12,553.7	49.8238	12,553.7	61.6784	12,553.7	60.1154
12,996.1	93.4525	12,996.1	93.1996	12,996.1	93.3643	12,996.1	92.7709	12,996.1	92.9576	12,996.1	91.9124	12,996.1	91.1653	12,996.1	91.0211	12,996.1	90.2677	12,996.1	88.7666	12,996.1	87.4222	12,996.1	85.9707	12,996.1	85.8349	12,996.1	85.5792	12,996.1	84.0711	12,996.1	82.2264	12,996.1	79.9259	12,996.1	78.4343	12,996.1	76.0889	12,996.1	73.6425	12,996.1	71.9014	12,996.1	69.5514	12,996.1	67.0345	12,996.1	66.0525	12,996.1	64.6376	12,996.1	66.2085	12,996.1	68.7082	12,996.1	60.6442	12,996.1	60.1536	12,996.1	56.3851	12,996.1	56.3483	12,996.1	55.1871	12,996.1	63.3722	12,996.1	47.183	12,996.1	57.6397	12,996.1	54.3809
13,454.6	93.3403	13,454.6	93.2289	13,454.6	93.1398	13,454.6	92.586	13,454.6	92.667	13,454.6	91.8429	13,454.6	90.7737	13,454.6	90.5211	13,454.6	89.85	13,454.6	88.1768	13,454.6	87.1926	13,454.6	85.3846	13,454.6	85.1674	13,454.6	84.3216	13,454.6	83.4398	13,454.6	81.7178	13,454.6	79.0912	13,454.6	77.0949	13,454.6	75.6024	13,454.6	72.2095	13,454.6	70.1504	13,454.6	68.4999	13,454.6	64.3584	13,454.6	64.2597	13,454.6	61.9197	13,454.6	63.2048	13,454.6	67.1697	13,454.6	60.1531	13,454.6	58.3301	13,454.6	55.4651	13,454.6	58.0052	13,454.6	50.2105	13,454.6	59.001	13,454.6	53.0821	13,454.6	52.705	13,454.6	48.461
13,929.2	93.5037	13,929.2	93.2707	13,929.2	93.3599	13,929.2	92.6966	13,929.2	92.4843	13,929.2	91.4118	13,929.2	90.3587	13,929.2	89.7909	13,929.2	89.2934	13,929.2	87.8358	13,929.2	86.7355	13,929.2	84.4393	13,929.2	84.2956	13,929.2	83.5613	13,929.2	82.9663	13,929.2	80.6552	13,929.2	78.4803	13,929.2	76.4955	13,929.2	75.0932	13,929.2	71.1321	13,929.2	68.5131	13,929.2	67.9794	13,929.2	62.7145	13,929.2	63.4701	13,929.2	59.8277	13,929.2	63.3938	13,929.2	65.7335	13,929.2	59.9862	13,929.2	56.7714	13,929.2	52.5416	13,929.2	57.2778	13,929.2	38.8102	13,929.2	54.1356	13,929.2	46.6202	13,929.2	51.8183	13,929.2	49.881
14,419.9	93.7772	14,419.9	93.5395	14,419.9	93.4539	14,419.9	92.5425	14,419.9	92.3875	14,419.9	91.2774	14,419.9	90.3385	14,419.9	89.4396	14,419.9	88.7847	14,419.9	87.1934	14,419.9	86.0453	14,419.9	83.6637	14,419.9	83.366	14,419.9	82.7628	14,419.9	81.6311	14,419.9	79.7426	14,419.9	76.7617	14,419.9	75.1193	14,419.9	73.481	14,419.9	70.5976	14,419.9	67.5483	14,419.9	66.7807	14,419.9	61.8585	14,419.9	61.5995	14,419.9	58.0028	14,419.9	62.6797	14,419.9	66.6665	14,419.9	59.3026	14,419.9	54.6797	14,419.9	51.8642	14,419.9	56.3323	14,419.9	49.005	14,419.9	53.823	14,419.9	47.5312	14,419.9	55.218	14,419.9	52.2878
14,928.2	94.0283	14,928.2	93.7129	14,928.2	93.529	14,928.2	92.6628	14,928.2	92.2411	14,928.2	91.231	14,928.2	90.1135	14,928.2	89.0437	14,928.2	88.2611	14,928.2	86.341	14,928.2	85.1966	14,928.2	82.6217	14,928.2	82.4421	14,928.2	81.6638	14,928.2	80.8483	14,928.2	78.8474	14,928.2	75.2671	14,928.2	73.5943	14,928.2	72.4987	14,928.2	70.0448	14,928.2	66.7981	14,928.2	66.028	14,928.2	60.0326	14,928.2	61.0878	14,928.2	55.6071	14,928.2	60.9685	14,928.2	64.8388	14,928.2	57.5972	14,928.2	52.4347	14,928.2	53.8926	14,928.2	52.6505	14,928.2	50.25	14,928.2	54.5306	14,928.2	54.1128	14,928.2	54.4595	14,928.2	50.4778
15,455.6	94.1789	15,455.6	93.8433	15,455.6	93.5254	15,455.6	92.67	15,455.6	92.2174	15,455.6	90.8084	15,455.6	89.7431	15,455.6	88.3933	15,455.6	87.4962	15,455.6	85.6251	15,455.6	84.1825	15,455.6	81.5452	15,455.6	81.3727	15,455.6	80.2568	15,455.6	80.3952	15,455.6	77.9805	15,455.6	75.4884	15,455.6	72.8739	15,455.6	72.3961	15,455.6	69.7131	15,455.6	65.5084	15,455.6	66.3437	15,455.6	59.6325	15,455.6	60.6217	15,455.6	52.4765	15,455.6	58.3176	15,455.6	62.8607	15,455.6	57.4869	15,455.6	52.0979	15,455.6	56.9389	15,455.6	52.1112	15,455.6	52.6539	15,455.6	55.2163	15,455.6	53.5022	15,455.6	52.8537	15,455.6	50.8453
16,000.5	94.2951	16,000.5	93.9808	16,000.5	93.5512	16,000.5	92.5454	16,000.5	92.1245	16,000.5	90.8242	16,000.5	89.6859	16,000.5	88.2942	16,000.5	86.8155	16,000.5	84.9892	16,000.5	83.4028	16,000.5	80.8362	16,000.5	80.5558	16,000.5	80.3625	16,000.5	80.1901	16,000.5	78.0387	16,000.5	74.7191	16,000.5	73.6528	16,000.5	72.0968	16,000.5	69.9012	16,000.5	66.4407	16,000.5	65.9987	16,000.5	59.5712	16,000.5	61.1916	16,000.5	52.9468	16,000.5	60.4588	16,000.5	62.3228	16,000.5	57.8518	16,000.5	51.1178	16,000.5	57.9871	16,000.5	46.5199	16,000.5	50.7721	16,000.5	53.5966	16,000.5	54.906	16,000.5	49.2906	16,000.5	49.6734
16,564.5	94.1908	16,564.5	93.8869	16,564.5	93.5363	16,564.5	92.504	16,564.5	91.9429	16,564.5	90.5038	16,564.5	89.2233	16,564.5	87.6654	16,564.5	86.3525	16,564.5	84.0088	16,564.5	83.0165	16,564.5	80.2573	16,564.5	80.2071	16,564.5	80.1665	16,564.5	79.624	16,564.5	77.9314	16,564.5	75.8412	16,564.5	73.9946	16,564.5	72.3121	16,564.5	69.6134	16,564.5	66.9976	16,564.5	66.1603	16,564.5	58.2441	16,564.5	61.7995	16,564.5	50.3614	16,564.5	60.5439	16,564.5	61.7656	16,564.5	57.1649	16,564.5	50.8963	16,564.5	57.4681	16,564.5	46.9999	16,564.5	52.4393	16,564.5	53.9406	16,564.5	52.9897	16,564.5	52.0545	16,564.5	48.578
17,148.9	94.1155	17,148.9	93.732	17,148.9	93.5698	17,148.9	92.2934	17,148.9	91.7598	17,148.9	90.2035	17,148.9	88.8831	17,148.9	87.3857	17,148.9	85.9679	17,148.9	83.7576	17,148.9	82.676	17,148.9	79.6363	17,148.9	80.0224	17,148.9	80.0283	17,148.9	79.948	17,148.9	78.0046	17,148.9	76.5567	17,148.9	74.0605	17,148.9	72.8014	17,148.9	69.8629	17,148.9	66.6495	17,148.9	67.4826	17,148.9	58.8617	17,148.9	62.1239	17,148.9	50.4576	17,148.9	61.1251	17,148.9	61.2565	17,148.9	57.5676	17,148.9	50.4906	17,148.9	55.0844	17,148.9	49.7889	17,148.9	56.1282	17,148.9	55.8317	17,148.9	49.1818	17,148.9	49.9939	17,148.9	44.7456
17,752.4	94.1814	17,752.4	93.8571	17,752.4	93.3329	17,752.4	92.009	17,752.4	91.3369	17,752.4	89.6875	17,752.4	88.3927	17,752.4	87.1984	17,752.4	85.8941	17,752.4	83.8744	17,752.4	82.4084	17,752.4	79.8728	17,752.4	79.818	17,752.4	80.482	17,752.4	79.938	17,752.4	78.5934	17,752.4	76.6382	17,752.4	74.4913	17,752.4	72.8134	17,752.4	69.3327	17,752.4	67.2239	17,752.4	67.3811	17,752.4	58.8687	17,752.4	61.6558	17,752.4	50.5524	17,752.4	60.2944	17,752.4	60.3758	17,752.4	56.5679	17,752.4	51.2677	17,752.4	53.0842	17,752.4	51.0514	17,752.4	56.8897	17,752.4	54.0697	17,752.4	42.8383	17,752.4	51.7499	17,752.4	49.9424
18,379.4	94.1175	18,379.4	93.6075	18,379.4	93.3417	18,379.4	91.7691	18,379.4	90.8761	18,379.4	89.2238	18,379.4	87.8387	18,379.4	86.6466	18,379.4	85.5008	18,379.4	83.3536	18,379.4	82.3652	18,379.4	79.7885	18,379.4	79.8327	18,379.4	80.3636	18,379.4	79.7288	18,379.4	79.0237	18,379.4	77.3991	18,379.4	74.7089	18,379.4	73.2532	18,379.4	70.2483	18,379.4	67.478	18,379.4	67.4777	18,379.4	59.8921	18,379.4	61.0342	18,379.4	49.6775	18,379.4	59.8226	18,379.4	61.8184	18,379.4	56.6306	18,379.4	48.1306	18,379.4	53.4412	18,379.4	53.9311	18,379.4	56.0308	18,379.4	51.8413	18,379.4	43.7822	18,379.4	55.8565	18,379.4	49.9449
19,026.9	94.1609	19,026.9	93.6803	19,026.9	93.1256	19,026.9	91.3717	19,026.9	90.5338	19,026.9	88.7299	19,026.9	87.3499	19,026.9	85.8651	19,026.9	85.2111	19,026.9	83.3317	19,026.9	81.8289	19,026.9	79.9564	19,026.9	80.0718	19,026.9	80.0342	19,026.9	80.2991	19,026.9	79.056	19,026.9	77.5591	19,026.9	74.513	19,026.9	73.4256	19,026.9	69.991	19,026.9	68.0071	19,026.9	67.2067	19,026.9	60.9359	19,026.9	60.9554	19,026.9	51.8366	19,026.9	59.9397	19,026.9	62.3127	19,026.9	54.1579	19,026.9	46.9491	19,026.9	49.5051	19,026.9	55.6016	19,026.9	53.7091	19,026.9	51.7412	19,026.9	55.5661	19,026.9	56.7976	19,026.9	50.1463
19,697.8	94.3084	19,697.8	93.7007	19,697.8	93.2056	19,697.8	91.3681	19,697.8	90.4552	19,697.8	88.5056	19,697.8	86.8278	19,697.8	85.0123	19,697.8	84.5304	19,697.8	82.7954	19,697.8	82.6403	19,697.8	79.9199	19,697.8	80.3548	19,697.8	80.5822	19,697.8	80.3452	19,697.8	79.2356	19,697.8	77.7233	19,697.8	74.1246	19,697.8	73.1965	19,697.8	69.9935	19,697.8	67.9293	19,697.8	66.7307	19,697.8	60.6846	19,697.8	59.2242	19,697.8	54.0878	19,697.8	57.9603	19,697.8	62.5495	19,697.8	55.2758	19,697.8	44.1051	19,697.8	52.2359	19,697.8	54.9177	19,697.8	39.3878	19,697.8	50.7264	19,697.8	59.3286	19,697.8	57.6746	19,697.8	47.408
19,999.5	94.5971	19,999.5	93.8299	19,999.5	93.4361	19,999.5	91.5943	19,999.5	90.5519	19,999.5	88.4313	19,999.5	86.7216	19,999.5	85.1998	19,999.5	83.9407	19,999.5	82.5882	19,999.5	82.8344	19,999.5	79.8613	19,999.5	80.6096	19,999.5	80.0798	19,999.5	80.4976	19,999.5	79.0104	19,999.5	77.5304	19,999.5	72.7226	19,999.5	72.7038	19,999.5	71.3218	19,999.5	65.7058	19,999.5	66.5485	19,999.5	61.1501	19,999.5	67.1713	19,999.5	58.5186	19,999.5	59.6864	19,999.5	37.7028	19,999.5	60.6512	19,999.5	54.154	19,999.5	64.186	19,999.5	45.6297	19,999.5	57.3545	19,999.5	58.4167	19,999.5	58.2515	19,999.5	58.3153	19,999.5	54.5127
