"SPL Horizontal"
"On-Axis"		"10°"		"-10°"		"20°"		"-20°"		"30°"		"-30°"		"40°"		"-40°"		"50°"		"-50°"		"60°"		"-60°"		"70°"		"-70°"		"80°"		"-80°"		"90°"		"-90°"		"100°"		"-100°"		"110°"		"-110°"		"120°"		"-120°"		"130°"		"-130°"		"140°"		"-140°"		"150°"		"-150°"		"160°"		"-160°"		"170°"		"-170°"		"180°"
"Frequency / Hz"	"Sound Pressure Level / dB (re 20 µPa/V)  [2.83  V @ 1. m]"	"Frequency / Hz"	"Sound Pressure Level / dB (re 20 µPa/V)  [2.83  V @ 1. m]"	"Frequency / Hz"	"Sound Pressure Level / dB (re 20 µPa/V)  [2.83  V @ 1. m]"	"Frequency / Hz"	"Sound Pressure Level / dB (re 20 µPa/V)  [2.83  V @ 1. m]"	"Frequency / Hz"	"Sound Pressure Level / dB (re 20 µPa/V)  [2.83  V @ 1. m]"	"Frequency / Hz"	"Sound Pressure Level / dB (re 20 µPa/V)  [2.83  V @ 1. m]"	"Frequency / Hz"	"Sound Pressure Level / dB (re 20 µPa/V)  [2.83  V @ 1. m]"	"Frequency / Hz"	"Sound Pressure Level / dB (re 20 µPa/V)  [2.83  V @ 1. m]"	"Frequency / Hz"	"Sound Pressure Level / dB (re 20 µPa/V)  [2.83  V @ 1. m]"	"Frequency / Hz"	"Sound Pressure Level / dB (re 20 µPa/V)  [2.83  V @ 1. m]"	"Frequency / Hz"	"Sound Pressure Level / dB (re 20 µPa/V)  [2.83  V @ 1. m]"	"Frequency / Hz"	"Sound Pressure Level / dB (re 20 µPa/V)  [2.83  V @ 1. m]"	"Frequency / Hz"	"Sound Pressure Level / dB (re 20 µPa/V)  [2.83  V @ 1. m]"	"Frequency / Hz"	"Sound Pressure Level / dB (re 20 µPa/V)  [2.83  V @ 1. m]"	"Frequency / Hz"	"Sound Pressure Level / dB (re 20 µPa/V)  [2.83  V @ 1. m]"	"Frequency / Hz"	"Sound Pressure Level / dB (re 20 µPa/V)  [2.83  V @ 1. m]"	"Frequency / Hz"	"Sound Pressure Level / dB (re 20 µPa/V)  [2.83  V @ 1. m]"	"Frequency / Hz"	"Sound Pressure Level / dB (re 20 µPa/V)  [2.83  V @ 1. m]"	"Frequency / Hz"	"Sound Pressure Level / dB (re 20 µPa/V)  [2.83  V @ 1. m]"	"Frequency / Hz"	"Sound Pressure Level / dB (re 20 µPa/V)  [2.83  V @ 1. m]"	"Frequency / Hz"	"Sound Pressure Level / dB (re 20 µPa/V)  [2.83  V @ 1. m]"	"Frequency / Hz"	"Sound Pressure Level / dB (re 20 µPa/V)  [2.83  V @ 1. m]"	"Frequency / Hz"	"Sound Pressure Level / dB (re 20 µPa/V)  [2.83  V @ 1. m]"	"Frequency / Hz"	"Sound Pressure Level / dB (re 20 µPa/V)  [2.83  V @ 1. m]"	"Frequency / Hz"	"Sound Pressure Level / dB (re 20 µPa/V)  [2.83  V @ 1. m]"	"Frequency / Hz"	"Sound Pressure Level / dB (re 20 µPa/V)  [2.83  V @ 1. m]"	"Frequency / Hz"	"Sound Pressure Level / dB (re 20 µPa/V)  [2.83  V @ 1. m]"	"Frequency / Hz"	"Sound Pressure Level / dB (re 20 µPa/V)  [2.83  V @ 1. m]"	"Frequency / Hz"	"Sound Pressure Level / dB (re 20 µPa/V)  [2.83  V @ 1. m]"	"Frequency / Hz"	"Sound Pressure Level / dB (re 20 µPa/V)  [2.83  V @ 1. m]"	"Frequency / Hz"	"Sound Pressure Level / dB (re 20 µPa/V)  [2.83  V @ 1. m]"	"Frequency / Hz"	"Sound Pressure Level / dB (re 20 µPa/V)  [2.83  V @ 1. m]"	"Frequency / Hz"	"Sound Pressure Level / dB (re 20 µPa/V)  [2.83  V @ 1. m]"	"Frequency / Hz"	"Sound Pressure Level / dB (re 20 µPa/V)  [2.83  V @ 1. m]"	"Frequency / Hz"	"Sound Pressure Level / dB (re 20 µPa/V)  [2.83  V @ 1. m]"	"Frequency / Hz"	"Sound Pressure Level / dB (re 20 µPa/V)  [2.83  V @ 1. m]"
20.5078	63.3146	20.5078	63.3156	20.5078	63.3265	20.5078	63.3285	20.5078	63.3507	20.5078	63.3508	20.5078	63.3845	20.5078	63.3784	20.5078	63.4237	20.5078	63.4064	20.5078	63.4627	20.5078	63.4293	20.5078	63.496	20.5078	63.442	20.5078	63.5182	20.5078	63.4402	20.5078	63.5258	20.5078	63.4218	20.5078	63.5169	20.5078	63.387	20.5078	63.4921	20.5078	63.3391	20.5078	63.4537	20.5078	63.2833	20.5078	63.4053	20.5078	63.2265	20.5078	63.3507	20.5078	63.1755	20.5078	63.2939	20.5078	63.1364	20.5078	63.2388	20.5078	63.1132	20.5078	63.189	20.5078	63.1079	20.5078	63.1483	20.5078	63.1203
21.9727	61.4638	21.9727	61.4997	21.9727	61.4279	21.9727	61.5335	21.9727	61.3922	21.9727	61.5607	21.9727	61.3551	21.9727	61.5757	21.9727	61.3129	21.9727	61.5715	21.9727	61.2609	21.9727	61.5413	21.9727	61.1938	21.9727	61.4792	21.9727	61.1072	21.9727	61.3818	21.9727	60.9983	21.9727	61.2485	21.9727	60.868	21.9727	61.0832	21.9727	60.7202	21.9727	60.8935	21.9727	60.5624	21.9727	60.6907	21.9727	60.4042	21.9727	60.4886	21.9727	60.2554	21.9727	60.3013	21.9727	60.1247	21.9727	60.1414	21.9727	60.019	21.9727	60.0184	21.9727	59.9435	21.9727	59.9372	21.9727	59.9023	21.9727	59.8991
23.4375	64.4758	23.4375	64.4652	23.4375	64.4883	23.4375	64.4559	23.4375	64.5013	23.4375	64.4455	23.4375	64.5117	23.4375	64.4303	23.4375	64.5149	23.4375	64.4053	23.4375	64.5054	23.4375	64.3653	23.4375	64.4772	23.4375	64.3056	23.4375	64.4254	23.4375	64.2229	23.4375	64.3466	23.4375	64.1162	23.4375	64.2401	23.4375	63.9876	23.4375	64.1081	23.4375	63.8423	23.4375	63.9561	23.4375	63.6881	23.4375	63.7922	23.4375	63.5348	23.4375	63.6266	23.4375	63.393	23.4375	63.4698	23.4375	63.2728	23.4375	63.3325	23.4375	63.183	23.4375	63.2239	23.4375	63.1306	23.4375	63.1514	23.4375	63.1196
24.9023	65.4354	24.9023	65.4265	24.9023	65.4443	24.9023	65.4172	24.9023	65.452	24.9023	65.4057	24.9023	65.4555	24.9023	65.3884	24.9023	65.451	24.9023	65.3608	24.9023	65.4335	24.9023	65.3182	24.9023	65.3981	24.9023	65.256	24.9023	65.3404	24.9023	65.171	24.9023	65.2573	24.9023	65.0624	24.9023	65.1483	24.9023	64.9322	24.9023	65.0153	24.9023	64.7854	24.9023	64.8636	24.9023	64.6298	24.9023	64.7008	24.9023	64.4748	24.9023	64.5367	24.9023	64.3308	24.9023	64.382	24.9023	64.2079	24.9023	64.2472	24.9023	64.1151	24.9023	64.1416	24.9023	64.0592	24.9023	64.0725	24.9023	64.0445
26.3672	66.1195	26.3672	66.1253	26.3672	66.1142	26.3672	66.13	26.3672	66.1093	26.3672	66.1307	26.3672	66.1032	26.3672	66.1234	26.3672	66.0925	26.3672	66.103	26.3672	66.0728	26.3672	66.0646	26.3672	66.0388	26.3672	66.0036	26.3672	65.9853	26.3672	65.917	26.3672	65.9085	26.3672	65.8042	26.3672	65.8069	26.3672	65.6677	26.3672	65.6816	26.3672	65.5131	26.3672	65.5371	26.3672	65.3487	26.3672	65.3807	26.3672	65.185	26.3672	65.2216	26.3672	65.0333	26.3672	65.0704	26.3672	64.9042	26.3672	64.9374	26.3672	64.8072	26.3672	64.8322	26.3672	64.7492	26.3672	64.7626	26.3672	64.7341
27.832	67.4127	27.832	67.3994	27.832	67.4223	27.832	67.3823	27.832	67.427	27.832	67.3597	27.832	67.4245	27.832	67.3288	27.832	67.4112	27.832	67.2862	27.832	67.3829	27.832	67.2276	27.832	67.3352	27.832	67.1494	27.832	67.2643	27.832	67.0492	27.832	67.1675	27.832	66.9265	27.832	67.0448	27.832	66.7836	27.832	66.8987	27.832	66.6254	27.832	66.7345	27.832	66.4599	27.832	66.5603	27.832	66.2967	27.832	66.3857	27.832	66.1463	27.832	66.2216	27.832	66.0192	27.832	66.0783	27.832	65.9245	27.832	65.9653	27.832	65.869	27.832	65.8899	27.832	65.8572
29.2969	67.8166	29.2969	67.8184	29.2969	67.8096	29.2969	67.814	29.2969	67.7972	29.2969	67.8015	29.2969	67.778	29.2969	67.7778	29.2969	67.7496	29.2969	67.7393	29.2969	67.7089	29.2969	67.682	29.2969	67.6524	29.2969	67.6027	29.2969	67.5768	29.2969	67.4991	29.2969	67.4799	29.2969	67.3713	29.2969	67.3612	29.2969	67.2223	29.2969	67.2225	29.2969	67.0576	29.2969	67.0685	29.2969	66.8857	29.2969	66.9058	29.2969	66.7165	29.2969	66.7432	29.2969	66.5609	29.2969	66.5904	29.2969	66.4294	29.2969	66.4571	29.2969	66.3308	29.2969	66.3523	29.2969	66.2716	29.2969	66.2834	29.2969	66.2557
30.7617	68.6161	30.7617	68.6126	30.7617	68.6132	30.7617	68.6019	30.7617	68.6036	30.7617	68.5822	30.7617	68.5861	30.7617	68.551	30.7617	68.5585	30.7617	68.5052	30.7617	68.5179	30.7617	68.4414	30.7617	68.4607	30.7617	68.3568	30.7617	68.3839	30.7617	68.2497	30.7617	68.2851	30.7617	68.1204	30.7617	68.1639	30.7617	67.9717	30.7617	68.0223	30.7617	67.809	30.7617	67.865	30.7617	67.6404	30.7617	67.6989	30.7617	67.4753	30.7617	67.5331	30.7617	67.3242	30.7617	67.3773	30.7617	67.197	30.7617	67.2414	30.7617	67.1023	30.7617	67.1343	30.7617	67.0465	30.7617	67.0633	30.7617	67.0332
32.2266	69.322	32.2266	69.3215	32.2266	69.3151	32.2266	69.3128	32.2266	69.3006	32.2266	69.2941	32.2266	69.2775	32.2266	69.2632	32.2266	69.244	32.2266	69.2171	32.2266	69.1972	32.2266	69.1523	32.2266	69.1339	32.2266	69.0662	32.2266	69.0512	32.2266	68.9567	32.2266	68.9468	32.2266	68.824	32.2266	68.8201	32.2266	68.6707	32.2266	68.6732	32.2266	68.5019	32.2266	68.5104	32.2266	68.3257	32.2266	68.339	32.2266	68.1516	32.2266	68.1682	32.2266	67.9906	32.2266	68.0081	32.2266	67.8532	32.2266	67.8692	32.2266	67.7488	32.2266	67.761	32.2266	67.6846	32.2266	67.6912	32.2266	67.6651
33.6914	69.8733	33.6914	69.8758	33.6914	69.8618	33.6914	69.8687	33.6914	69.8417	33.6914	69.8506	33.6914	69.8122	33.6914	69.8194	33.6914	69.7723	33.6914	69.7727	33.6914	69.72	33.6914	69.7078	33.6914	69.6532	33.6914	69.6222	33.6914	69.5694	33.6914	69.5146	33.6914	69.467	33.6914	69.3851	33.6914	69.3456	33.6914	69.2364	33.6914	69.2069	33.6914	69.0735	33.6914	69.0548	33.6914	68.904	33.6914	68.8957	33.6914	68.7371	33.6914	68.7376	33.6914	68.5832	33.6914	68.5897	33.6914	68.4521	33.6914	68.4613	33.6914	68.3528	33.6914	68.3613	33.6914	68.2917	33.6914	68.2968	33.6914	68.2728
35.1562	70.4438	35.1562	70.446	35.1562	70.4331	35.1562	70.4389	35.1562	70.4141	35.1562	70.4214	35.1562	70.3864	35.1562	70.3918	35.1562	70.349	35.1562	70.3481	35.1562	70.3004	35.1562	70.288	35.1562	70.2385	35.1562	70.2094	35.1562	70.1611	35.1562	70.111	35.1562	70.0666	35.1562	69.9929	35.1562	69.9546	35.1562	69.8575	35.1562	69.8265	35.1562	69.7091	35.1562	69.686	35.1562	69.5546	35.1562	69.5391	35.1562	69.4023	35.1562	69.3934	35.1562	69.2615	35.1562	69.2576	35.1562	69.141	35.1562	69.1404	35.1562	69.049	35.1562	69.0498	35.1562	68.9915	35.1562	68.9923	35.1562	68.9723
36.6211	71.1983	36.6211	71.2015	36.6211	71.1886	36.6211	71.1976	36.6211	71.1725	36.6211	71.1857	36.6211	71.1498	36.6211	71.1644	36.6211	71.1196	36.6211	71.132	36.6211	71.0803	36.6211	71.0863	36.6211	71.0298	36.6211	71.0253	36.6211	70.9659	36.6211	70.9475	36.6211	70.8868	36.6211	70.8525	36.6211	70.7921	36.6211	70.7419	36.6211	70.6829	36.6211	70.6192	36.6211	70.5629	36.6211	70.4896	36.6211	70.4373	36.6211	70.3602	36.6211	70.3132	36.6211	70.2386	36.6211	70.1984	36.6211	70.1326	36.6211	70.1008	36.6211	70.0493	36.6211	70.0272	36.6211	69.9944	36.6211	69.9831	36.6211	69.9719
38.0859	71.5609	38.0859	71.5651	38.0859	71.5525	38.0859	71.565	38.0859	71.5399	38.0859	71.56	38.0859	71.523	38.0859	71.5494	38.0859	71.5014	38.0859	71.5318	38.0859	71.474	38.0859	71.5053	38.0859	71.4396	38.0859	71.4679	38.0859	71.3964	38.0859	71.4177	38.0859	71.3429	38.0859	71.3537	38.0859	71.2784	38.0859	71.2767	38.0859	71.2034	38.0859	71.189	38.0859	71.1202	38.0859	71.0948	38.0859	71.0324	38.0859	70.9995	38.0859	70.9452	38.0859	70.9092	38.0859	70.8642	38.0859	70.8298	38.0859	70.7953	38.0859	70.767	38.0859	70.7435	38.0859	70.725	38.0859	70.7131	38.0859	70.7066
39.5508	72.0524	39.5508	72.0587	39.5508	72.0446	39.5508	72.0631	39.5508	72.0352	39.5508	72.0653	39.5508	72.0243	39.5508	72.0645	39.5508	72.0117	39.5508	72.0596	39.5508	71.9966	39.5508	72.0487	39.5508	71.9777	39.5508	72.0296	39.5508	71.9532	39.5508	72.0005	39.5508	71.9212	39.5508	71.96	39.5508	71.8805	39.5508	71.9081	39.5508	71.8311	39.5508	71.8465	39.5508	71.7741	39.5508	71.7781	39.5508	71.7123	39.5508	71.7073	39.5508	71.6498	39.5508	71.6389	39.5508	71.591	39.5508	71.5778	39.5508	71.5408	39.5508	71.5286	39.5508	71.5033	39.5508	71.4949	39.5508	71.482	39.5508	71.479
41.0156	72.6991	41.0156	72.709	41.0156	72.6897	41.0156	72.7192	41.0156	72.681	41.0156	72.7295	41.0156	72.6729	41.0156	72.7392	41.0156	72.6653	41.0156	72.7471	41.0156	72.6575	41.0156	72.7513	41.0156	72.6481	41.0156	72.7495	41.0156	72.6353	41.0156	72.7394	41.0156	72.6172	41.0156	72.7189	41.0156	72.5924	41.0156	72.6876	41.0156	72.5605	41.0156	72.6459	41.0156	72.5223	41.0156	72.5962	41.0156	72.4802	41.0156	72.5417	41.0156	72.4374	41.0156	72.4866	41.0156	72.3978	41.0156	72.435	41.0156	72.3651	41.0156	72.391	41.0156	72.3428	41.0156	72.358	41.0156	72.3334	41.0156	72.3384
42.4805	73.0528	42.4805	73.0639	42.4805	73.0441	42.4805	73.0771	42.4805	73.0382	42.4805	73.0921	42.4805	73.0352	42.4805	73.1082	42.4805	73.035	42.4805	73.1241	42.4805	73.037	42.4805	73.1379	42.4805	73.0401	42.4805	73.1475	42.4805	73.0422	42.4805	73.1505	42.4805	73.0415	42.4805	73.1452	42.4805	73.036	42.4805	73.1308	42.4805	73.025	42.4805	73.108	42.4805	73.0086	42.4805	73.0784	42.4805	72.9882	42.4805	73.0446	42.4805	72.9658	42.4805	73.0095	42.4805	72.9442	42.4805	72.9764	42.4805	72.926	42.4805	72.9479	42.4805	72.9137	42.4805	72.9264	42.4805	72.909	42.4805	72.9132
43.9453	73.6816	43.9453	73.6968	43.9453	73.6686	43.9453	73.7136	43.9453	73.6582	43.9453	73.7318	43.9453	73.6509	43.9453	73.7507	43.9453	73.6471	43.9453	73.7693	43.9453	73.6463	43.9453	73.7859	43.9453	73.6478	43.9453	73.7984	43.9453	73.6496	43.9453	73.8044	43.9453	73.6499	43.9453	73.8021	43.9453	73.6469	43.9453	73.7906	43.9453	73.6395	43.9453	73.7701	43.9453	73.6277	43.9453	73.7422	43.9453	73.6125	43.9453	73.7092	43.9453	73.5957	43.9453	73.674	43.9453	73.5798	43.9453	73.6398	43.9453	73.567	43.9453	73.6093	43.9453	73.5598	43.9453	73.5849	43.9453	73.5599	43.9453	73.5682
45.4102	74.3957	45.4102	74.4081	45.4102	74.3845	45.4102	74.4216	45.4102	74.375	45.4102	74.4361	45.4102	74.3677	45.4102	74.4511	45.4102	74.3629	45.4102	74.4661	45.4102	74.3606	45.4102	74.4796	45.4102	74.36	45.4102	74.4899	45.4102	74.3598	45.4102	74.4949	45.4102	74.3586	45.4102	74.4929	45.4102	74.3548	45.4102	74.483	45.4102	74.3476	45.4102	74.4656	45.4102	74.3371	45.4102	74.4417	45.4102	74.3242	45.4102	74.4135	45.4102	74.3104	45.4102	74.3834	45.4102	74.2975	45.4102	74.354	45.4102	74.2877	45.4102	74.3276	45.4102	74.2825	45.4102	74.3064	45.4102	74.2835	45.4102	74.2914
46.875	75.0332	46.875	75.0405	46.875	75.0258	46.875	75.0478	46.875	75.0187	46.875	75.055	46.875	75.0125	46.875	75.0626	46.875	75.0078	46.875	75.0702	46.875	75.0049	46.875	75.0772	46.875	75.0033	46.875	75.0822	46.875	75.0022	46.875	75.0839	46.875	75.0004	46.875	75.0808	46.875	74.9966	46.875	75.0723	46.875	74.9899	46.875	75.0582	46.875	74.9804	46.875	75.0397	46.875	74.9687	46.875	75.0182	46.875	74.956	46.875	74.9956	46.875	74.9439	46.875	74.9739	46.875	74.934	46.875	74.9549	46.875	74.9277	46.875	74.94	46.875	74.9262	46.875	74.9303
48.3398	75.6184	48.3398	75.6252	48.3398	75.6101	48.3398	75.6303	48.3398	75.6007	48.3398	75.6344	48.3398	75.591	48.3398	75.6378	48.3398	75.582	48.3398	75.6407	48.3398	75.5744	48.3398	75.6429	48.3398	75.5686	48.3398	75.6435	48.3398	75.5642	48.3398	75.6414	48.3398	75.5603	48.3398	75.6356	48.3398	75.5559	48.3398	75.6256	48.3398	75.5503	48.3398	75.6117	48.3398	75.5431	48.3398	75.5946	48.3398	75.5346	48.3398	75.5757	48.3398	75.5254	48.3398	75.5565	48.3398	75.5165	48.3398	75.5386	48.3398	75.5089	48.3398	75.5234	48.3398	75.5038	48.3398	75.5119	48.3398	75.5022	48.3398	75.5048
51.2695	76.754	51.2695	76.7674	51.2695	76.7362	51.2695	76.7763	51.2695	76.7147	51.2695	76.7813	51.2695	76.6911	51.2695	76.7834	51.2695	76.6673	51.2695	76.7835	51.2695	76.645	51.2695	76.782	51.2695	76.6255	51.2695	76.7788	51.2695	76.6095	51.2695	76.7735	51.2695	76.5969	51.2695	76.7655	51.2695	76.5874	51.2695	76.7543	51.2695	76.5804	51.2695	76.7401	51.2695	76.5757	51.2695	76.7231	51.2695	76.5731	51.2695	76.7043	51.2695	76.5729	51.2695	76.6843	51.2695	76.575	51.2695	76.6641	51.2695	76.5798	51.2695	76.6447	51.2695	76.5873	51.2695	76.6267	51.2695	76.5977	51.2695	76.6109
52.7344	77.3546	52.7344	77.3645	52.7344	77.338	52.7344	77.368	52.7344	77.3157	52.7344	77.366	52.7344	77.2893	52.7344	77.3598	52.7344	77.261	52.7344	77.3509	52.7344	77.2329	52.7344	77.3405	52.7344	77.2068	52.7344	77.3291	52.7344	77.1836	52.7344	77.3168	52.7344	77.1639	52.7344	77.3032	52.7344	77.1475	52.7344	77.2883	52.7344	77.1343	52.7344	77.2719	52.7344	77.1245	52.7344	77.2543	52.7344	77.118	52.7344	77.236	52.7344	77.115	52.7344	77.2173	52.7344	77.1155	52.7344	77.1988	52.7344	77.1195	52.7344	77.181	52.7344	77.1267	52.7344	77.1645	52.7344	77.1368	52.7344	77.1496
54.1992	78.0883	54.1992	78.0909	54.1992	78.0771	54.1992	78.0853	54.1992	78.058	54.1992	78.0728	54.1992	78.0329	54.1992	78.0551	54.1992	78.004	54.1992	78.0344	54.1992	77.9738	54.1992	78.0124	54.1992	77.9441	54.1992	77.9904	54.1992	77.9166	54.1992	77.969	54.1992	77.8918	54.1992	77.9485	54.1992	77.8702	54.1992	77.9291	54.1992	77.8518	54.1992	77.9109	54.1992	77.8368	54.1992	77.8942	54.1992	77.8254	54.1992	77.879	54.1992	77.8176	54.1992	77.8653	54.1992	77.8133	54.1992	77.8532	54.1992	77.8124	54.1992	77.8424	54.1992	77.8143	54.1992	77.833	54.1992	77.8187	54.1992	77.825
55.6641	78.7552	55.6641	78.7534	55.6641	78.7463	55.6641	78.7413	55.6641	78.7273	55.6641	78.7206	55.6641	78.7	55.6641	78.6936	55.6641	78.667	55.6641	78.663	55.6641	78.6311	55.6641	78.631	55.6641	78.5947	55.6641	78.5992	55.6641	78.5598	55.6641	78.5687	55.6641	78.5274	55.6641	78.54	55.6641	78.498	55.6641	78.5132	55.6641	78.472	55.6641	78.4886	55.6641	78.4493	55.6641	78.4664	55.6641	78.4302	55.6641	78.4467	55.6641	78.4147	55.6641	78.4296	55.6641	78.4028	55.6641	78.4154	55.6641	78.3945	55.6641	78.404	55.6641	78.3897	55.6641	78.3956	55.6641	78.3883	55.6641	78.3903
58.5938	80.506	58.5938	80.5009	58.5938	80.496	58.5938	80.4815	58.5938	80.4718	58.5938	80.4502	58.5938	80.4359	58.5938	80.4105	58.5938	80.392	58.5938	80.3665	58.5938	80.3443	58.5938	80.3221	58.5938	80.2971	58.5938	80.2803	58.5938	80.2535	58.5938	80.2434	58.5938	80.2159	58.5938	80.2128	58.5938	80.1857	58.5938	80.1889	58.5938	80.1634	58.5938	80.1718	58.5938	80.1486	58.5938	80.161	58.5938	80.1406	58.5938	80.1552	58.5938	80.138	58.5938	80.153	58.5938	80.1392	58.5938	80.1528	58.5938	80.1424	58.5938	80.1533	58.5938	80.1463	58.5938	80.1532	58.5938	80.1498	58.5938	80.1521
60.0586	81.1374	60.0586	81.1286	60.0586	81.1293	60.0586	81.1037	60.0586	81.1052	60.0586	81.0656	60.0586	81.0676	60.0586	81.0182	60.0586	81.0205	60.0586	80.9661	60.0586	80.9686	60.0586	80.9138	60.0586	80.9164	60.0586	80.865	60.0586	80.8676	60.0586	80.8224	60.0586	80.8251	60.0586	80.7877	60.0586	80.7906	60.0586	80.7616	60.0586	80.7649	60.0586	80.744	60.0586	80.7477	60.0586	80.7343	60.0586	80.7383	60.0586	80.7308	60.0586	80.7351	60.0586	80.7319	60.0586	80.7359	60.0586	80.7354	60.0586	80.7389	60.0586	80.7395	60.0586	80.7421	60.0586	80.7428	60.0586	80.7442	60.0586	80.7445
62.9883	82.5532	62.9883	82.5426	62.9883	82.5425	62.9883	82.5118	62.9883	82.5115	62.9883	82.4641	62.9883	82.4633	62.9883	82.4045	62.9883	82.4027	62.9883	82.3385	62.9883	82.3356	62.9883	82.2721	62.9883	82.2677	62.9883	82.2102	62.9883	82.2042	62.9883	82.1568	62.9883	82.1491	62.9883	82.1144	62.9883	82.1052	62.9883	82.0842	62.9883	82.0739	62.9883	82.0662	62.9883	82.0551	62.9883	82.0589	62.9883	82.0476	62.9883	82.0601	62.9883	82.0493	62.9883	82.0666	62.9883	82.057	62.9883	82.0753	62.9883	82.0675	62.9883	82.0833	62.9883	82.0778	62.9883	82.0884	62.9883	82.0855	62.9883	82.0893
64.4531	83.2564	64.4531	83.243	64.4531	83.2463	64.4531	83.2075	64.4531	83.2139	64.4531	83.1534	64.4531	83.1627	64.4531	83.0862	64.4531	83.0978	64.4531	83.0122	64.4531	83.0258	64.4531	82.938	64.4531	82.9531	64.4531	82.8695	64.4531	82.8857	64.4531	82.8113	64.4531	82.8281	64.4531	82.7666	64.4531	82.7835	64.4531	82.7369	64.4531	82.7534	64.4531	82.722	64.4531	82.7376	64.4531	82.7204	64.4531	82.7346	64.4531	82.729	64.4531	82.7413	64.4531	82.7439	64.4531	82.7541	64.4531	82.761	64.4531	82.7688	64.4531	82.7766	64.4531	82.7818	64.4531	82.7876	64.4531	82.7903	64.4531	82.7924
67.3828	84.7899	67.3828	84.7701	67.3828	84.781	67.3828	84.7234	67.3828	84.7449	67.3828	84.6539	67.3828	84.6853	67.3828	84.568	67.3828	84.6082	67.3828	84.4734	67.3828	84.5213	67.3828	84.3782	67.3828	84.4323	67.3828	84.2898	67.3828	84.3485	67.3828	84.2144	67.3828	84.276	67.3828	84.1563	67.3828	84.2192	67.3828	84.118	67.3828	84.1804	67.3828	84.0996	67.3828	84.1598	67.3828	84.0993	67.3828	84.1554	67.3828	84.1133	67.3828	84.1636	67.3828	84.1365	67.3828	84.1792	67.3828	84.1632	67.3828	84.1968	67.3828	84.1884	67.3828	84.2116	67.3828	84.2077	67.3828	84.2196	67.3828	84.2185
68.8477	85.5733	68.8477	85.5498	68.8477	85.5655	68.8477	85.4969	68.8477	85.5277	68.8477	85.419	68.8477	85.4641	68.8477	85.3231	68.8477	85.381	68.8477	85.2177	68.8477	85.2865	68.8477	85.1116	68.8477	85.1893	68.8477	85.0131	68.8477	85.0973	68.8477	84.9293	68.8477	85.0174	68.8477	84.865	68.8477	84.9544	68.8477	84.8232	68.8477	84.911	68.8477	84.804	68.8477	84.8877	68.8477	84.8054	68.8477	84.8824	68.8477	84.8228	68.8477	84.8908	68.8477	84.8506	68.8477	84.9076	68.8477	84.8823	68.8477	84.9266	68.8477	84.9121	68.8477	84.9424	68.8477	84.9352	68.8477	84.9505	68.8477	84.9484
71.7773	87.1227	71.7773	87.0944	71.7773	87.1143	71.7773	87.0314	71.7773	87.0708	71.7773	86.9389	71.7773	86.9967	71.7773	86.8248	71.7773	86.8996	71.7773	86.6987	71.7773	86.7886	71.7773	86.5711	71.7773	86.6739	71.7773	86.452	71.7773	86.5649	71.7773	86.3497	71.7773	86.4699	71.7773	86.2708	71.7773	86.3949	71.7773	86.2189	71.7773	86.3433	71.7773	86.1947	71.7773	86.3155	71.7773	86.196	71.7773	86.3092	71.7773	86.2176	71.7773	86.3192	71.7773	86.2525	71.7773	86.3388	71.7773	86.2929	71.7773	86.3607	71.7773	86.3315	71.7773	86.3782	71.7773	86.3622	71.7773	86.3859	71.7773	86.3809
74.707	88.703	74.707	88.6724	74.707	88.6918	74.707	88.6021	74.707	88.6402	74.707	88.4979	74.707	88.5536	74.707	88.3685	74.707	88.4402	74.707	88.2249	74.707	88.3106	74.707	88.0791	74.707	88.1763	74.707	87.9424	74.707	88.0484	74.707	87.8248	74.707	87.9368	74.707	87.7339	74.707	87.8489	74.707	87.6741	74.707	87.7888	74.707	87.6463	74.707	87.7575	74.707	87.648	74.707	87.7521	74.707	87.6732	74.707	87.7666	74.707	87.7135	74.707	87.7929	74.707	87.7598	74.707	87.8222	74.707	87.8034	74.707	87.8463	74.707	87.837	74.707	87.8589	74.707	87.8562
77.6367	90.2072	77.6367	90.1732	77.6367	90.1939	77.6367	90.0942	77.6367	90.1348	77.6367	89.9767	77.6367	90.0358	77.6367	89.8306	77.6367	89.9061	77.6367	89.6682	77.6367	89.7573	77.6367	89.5029	77.6367	89.6026	77.6367	89.3481	77.6367	89.4551	77.6367	89.2152	77.6367	89.3263	77.6367	89.1132	77.6367	89.2252	77.6367	89.0473	77.6367	89.1573	77.6367	89.0187	77.6367	89.1237	77.6367	89.0243	77.6367	89.1215	77.6367	89.0569	77.6367	89.1434	77.6367	89.1067	77.6367	89.1797	77.6367	89.1625	77.6367	89.2196	77.6367	89.2139	77.6367	89.2531	77.6367	89.2525	77.6367	89.2724	77.6367	89.2727
79.1016	90.8568	79.1016	90.8209	79.1016	90.8426	79.1016	90.7373	79.1016	90.78	79.1016	90.6129	79.1016	90.6748	79.1016	90.458	79.1016	90.5368	79.1016	90.2857	79.1016	90.3782	79.1016	90.1103	79.1016	90.213	79.1016	89.9457	79.1016	90.0551	79.1016	89.8045	79.1016	89.917	79.1016	89.696	79.1016	89.8084	79.1016	89.6263	79.1016	89.7355	79.1016	89.5966	79.1016	89.6998	79.1016	89.6036	79.1016	89.6983	79.1016	89.6397	79.1016	89.7234	79.1016	89.6941	79.1016	89.7645	79.1016	89.7548	79.1016	89.8096	79.1016	89.8104	79.1016	89.848	79.1016	89.8516	79.1016	89.8708	79.1016	89.8725
82.0312	91.7588	82.0312	91.7197	82.0312	91.7418	82.0312	91.6274	82.0312	91.6705	82.0312	91.4893	82.0312	91.5515	82.0312	91.3166	82.0312	91.3951	82.0312	91.1239	82.0312	91.2152	82.0312	90.9271	82.0312	91.027	82.0312	90.742	82.0312	90.8464	82.0312	90.5829	82.0312	90.6879	82.0312	90.4608	82.0312	90.5629	82.0312	90.3826	82.0312	90.479	82.0312	90.3502	82.0312	90.4387	82.0312	90.3598	82.0312	90.4387	82.0312	90.4026	82.0312	90.4705	82.0312	90.4661	82.0312	90.5219	82.0312	90.5361	82.0312	90.5789	82.0312	90.5993	82.0312	90.6283	82.0312	90.6449	82.0312	90.6595	82.0312	90.6658
84.9609	91.9129	84.9609	91.868	84.9609	91.896	84.9609	91.7644	84.9609	91.8193	84.9609	91.6102	84.9609	91.6896	84.9609	91.4178	84.9609	91.5184	84.9609	91.203	84.9609	91.3205	84.9609	90.9835	84.9609	91.1131	84.9609	90.7774	84.9609	90.9135	84.9609	90.6006	84.9609	90.7379	84.9609	90.4659	84.9609	90.5996	84.9609	90.3813	84.9609	90.5072	84.9609	90.349	84.9609	90.4638	84.9609	90.3648	84.9609	90.4659	84.9609	90.4183	84.9609	90.504	84.9609	90.495	84.9609	90.5643	84.9609	90.5785	84.9609	90.6307	84.9609	90.6532	84.9609	90.6881	84.9609	90.7069	84.9609	90.7243	84.9609	90.7315
87.8906	91.3445	87.8906	91.2908	87.8906	91.3277	87.8906	91.1699	87.8906	91.2426	87.8906	90.9907	87.8906	91.0971	87.8906	90.7672	87.8906	90.9041	87.8906	90.5173	87.8906	90.6804	87.8906	90.2617	87.8906	90.4457	87.8906	90.0213	87.8906	90.2199	87.8906	89.8155	87.8906	90.0216	87.8906	89.6595	87.8906	89.8656	87.8906	89.5628	87.8906	89.7613	87.8906	89.5277	87.8906	89.7116	87.8906	89.5486	87.8906	89.7121	87.8906	89.6131	87.8906	89.7519	87.8906	89.7039	87.8906	89.8154	87.8906	89.802	87.8906	89.8852	87.8906	89.8899	87.8906	89.945	87.8906	89.9539	87.8906	89.9812	87.8906	89.9853
90.8203	90.3463	90.8203	90.2864	90.8203	90.3292	90.8203	90.153	90.8203	90.2375	90.8203	89.9554	90.8203	90.0798	90.8203	89.7085	90.8203	89.8696	90.8203	89.4318	90.8203	89.6252	90.8203	89.1475	90.8203	89.3678	90.8203	88.8787	90.8203	89.1192	90.8203	88.6471	90.8203	88.9002	90.8203	88.4702	90.8203	88.7273	90.8203	88.3598	90.8203	88.6118	90.8203	88.3195	90.8203	88.5572	90.8203	88.3439	90.8203	88.5591	90.8203	88.4194	90.8203	88.6054	90.8203	88.5263	90.8203	88.6783	90.8203	88.6427	90.8203	88.7578	90.8203	88.7479	90.8203	88.8249	90.8203	88.8256	90.8203	88.8641	90.8203	88.8655
95.2148	88.7647	95.2148	88.6984	95.2148	88.7434	95.2148	88.5482	95.2148	88.6373	95.2148	88.3245	95.2148	88.4553	95.2148	88.0433	95.2148	88.2125	95.2148	87.7261	95.2148	87.9292	95.2148	87.3977	95.2148	87.6289	95.2148	87.0845	95.2148	87.3369	95.2148	86.8113	95.2148	87.0773	95.2148	86.5995	95.2148	86.8706	95.2148	86.4638	95.2148	86.7308	95.2148	86.4102	95.2148	86.6638	95.2148	86.434	95.2148	86.6653	95.2148	86.5199	95.2148	86.7213	95.2148	86.6447	95.2148	86.8104	95.2148	86.782	95.2148	86.9082	95.2148	86.9065	95.2148	86.9914	95.2148	86.9982	95.2148	87.0408	95.2148	87.0445
98.1445	87.7215	98.1445	87.6512	98.1445	87.6977	98.1445	87.4908	98.1445	87.5827	98.1445	87.251	98.1445	87.386	98.1445	86.9492	98.1445	87.1234	98.1445	86.608	98.1445	86.8164	98.1445	86.2541	98.1445	86.4906	98.1445	85.9159	98.1445	86.1734	98.1445	85.6207	98.1445	85.8911	98.1445	85.3918	98.1445	85.6667	98.1445	85.246	98.1445	85.5163	98.1445	85.1905	98.1445	85.4466	98.1445	85.2202	98.1445	85.4535	98.1445	85.3183	98.1445	85.5212	98.1445	85.459	98.1445	85.6258	98.1445	85.6126	98.1445	85.7398	98.1445	85.7511	98.1445	85.8366	98.1445	85.8523	98.1445	85.8952	98.1445	85.9019
101.074	86.7132	101.074	86.6401	101.074	86.6845	101.074	86.4692	101.074	86.5568	101.074	86.2117	101.074	86.3403	101.074	85.8858	101.074	86.0519	101.074	85.5157	101.074	85.7145	101.074	85.1301	101.074	85.356	101.074	84.76	101.074	85.0063	101.074	84.4359	101.074	84.6952	101.074	84.1846	101.074	84.4489	101.074	84.0263	101.074	84.2866	101.074	83.9697	101.074	84.2167	101.074	84.0099	101.074	84.2346	101.074	84.1273	101.074	84.3222	101.074	84.2916	101.074	84.4513	101.074	84.4686	101.074	84.5899	101.074	84.6262	101.074	84.7075	101.074	84.7393	101.074	84.78	101.074	84.7924
105.469	85.6172	105.469	85.5369	105.469	85.5841	105.469	85.3474	105.469	85.4407	105.469	85.0602	105.469	85.1974	105.469	84.6939	105.469	84.8718	105.469	84.2739	105.469	84.4877	105.469	83.8306	105.469	84.0744	105.469	83.3979	105.469	83.6646	105.469	83.0105	105.469	83.2918	105.469	82.7012	105.469	82.9875	105.469	82.4969	105.469	82.7773	105.469	82.4127	105.469	82.6759	105.469	82.4463	105.469	82.6819	105.469	82.576	105.469	82.7764	105.469	82.7653	105.469	82.9262	105.469	82.9713	105.469	83.0913	105.469	83.1547	105.469	83.234	105.469	83.285	105.469	83.3243	105.469	83.3435
108.398	85.1139	108.398	85.0296	108.398	85.0781	108.398	84.8293	108.398	84.9253	108.398	84.5249	108.398	84.6661	108.398	84.1356	108.398	84.3186	108.398	83.6875	108.398	83.9076	108.398	83.2123	108.398	83.464	108.398	82.7458	108.398	83.0224	108.398	82.325	108.398	82.6188	108.398	81.9859	108.398	82.2878	108.398	81.7594	108.398	82.0581	108.398	81.6644	108.398	81.9472	108.398	81.7007	108.398	81.955	108.398	81.8453	108.398	82.0613	108.398	82.0573	108.398	82.2295	108.398	82.2881	108.398	82.4152	108.398	82.4929	108.398	82.576	108.398	82.6376	108.398	82.6785	108.398	82.7016
112.793	84.2087	112.793	84.1219	112.793	84.1643	112.793	83.9085	112.793	83.9921	112.793	83.5809	112.793	83.7032	112.793	83.1595	112.793	83.3167	112.793	82.6717	112.793	82.8593	112.793	82.1516	112.793	82.3643	112.793	81.6376	112.793	81.8702	112.793	81.1707	112.793	81.4179	112.793	80.7925	112.793	81.0484	112.793	80.5405	112.793	80.7971	112.793	80.4405	112.793	80.6872	112.793	80.4955	112.793	80.7203	112.793	80.6794	112.793	80.8717	112.793	80.9422	112.793	81.0956	112.793	81.2243	112.793	81.337	112.793	81.4715	112.793	81.5446	112.793	81.6427	112.793	81.6785	112.793	81.7142
117.188	83.4654	117.188	83.3748	117.188	83.4136	117.188	83.1464	117.188	83.2227	117.188	82.7931	117.188	82.9041	117.188	82.3358	117.188	82.4774	117.188	81.8035	117.188	81.9706	117.188	81.2318	117.188	81.419	117.188	80.6622	117.188	80.8641	117.188	80.1399	117.188	80.3517	117.188	79.7121	117.188	79.9292	117.188	79.4243	117.188	79.641	117.188	79.31	117.188	79.5184	117.188	79.3758	117.188	79.5665	117.188	79.5925	117.188	79.7566	117.188	79.9006	117.188	80.0325	117.188	80.2295	117.188	80.3272	117.188	80.5154	117.188	80.5793	117.188	80.7114	117.188	80.7428	117.188	80.79
120.117	82.9912	120.117	82.894	120.117	82.9374	120.117	82.6505	120.117	82.736	120.117	82.2737	120.117	82.3985	120.117	81.7849	120.117	81.9448	120.117	81.2135	120.117	81.4035	120.117	80.5966	120.117	80.811	120.117	79.9778	120.117	80.2109	120.117	79.406	120.117	79.6524	120.117	78.9349	120.117	79.1888	120.117	78.6188	120.117	78.8723	120.117	78.4999	120.117	78.7426	120.117	78.5884	120.117	78.8084	120.117	78.8498	120.117	79.0369	120.117	79.2129	120.117	79.3618	120.117	79.5949	120.117	79.7044	120.117	79.9235	120.117	79.9947	120.117	80.147	120.117	80.182	120.117	80.2361
124.512	82.3334	124.512	82.2321	124.512	82.2724	124.512	81.9732	124.512	82.0527	124.512	81.5699	124.512	81.6857	124.512	81.0434	124.512	81.1917	124.512	80.4237	124.512	80.5996	124.512	79.7487	124.512	79.9468	124.512	79.0634	124.512	79.2786	124.512	78.4205	124.512	78.6479	124.512	77.8813	124.512	78.1157	124.512	77.5131	124.512	77.747	124.512	77.3743	124.512	77.5968	124.512	77.4847	124.512	77.6833	124.512	77.8042	124.512	77.9696	124.512	78.2438	124.512	78.372	124.512	78.7006	124.512	78.7927	124.512	79.0883	124.512	79.1472	124.512	79.348	124.512	79.3766	124.512	79.4473
128.906	81.7854	128.906	81.6765	128.906	81.7205	128.906	81.3982	128.906	81.485	128.906	80.9634	128.906	81.0907	128.906	80.3934	128.906	80.5576	128.906	79.7182	128.906	79.9147	128.906	78.976	128.906	79.1995	128.906	78.2131	128.906	78.4583	128.906	77.4862	128.906	77.7472	128.906	76.8661	128.906	77.1351	128.906	76.4381	128.906	76.7028	128.906	76.283	128.906	76.5258	128.906	76.4324	128.906	76.6363	128.906	76.835	128.906	76.9911	128.906	77.3745	128.906	77.4845	128.906	77.9228	128.906	77.9949	128.906	78.3791	128.906	78.4218	128.906	78.6787	128.906	78.6984	128.906	78.7882
133.301	81.3148	133.301	81.2003	133.301	81.2426	133.301	80.9035	133.301	80.987	133.301	80.4369	133.301	80.5593	133.301	79.8211	133.301	79.9792	133.301	79.0853	133.301	79.2748	133.301	78.2664	133.301	78.4835	133.301	77.4103	133.301	77.6517	133.301	76.5747	133.301	76.838	133.301	75.8395	133.301	76.1203	133.301	75.3132	133.301	75.5996	133.301	75.1124	133.301	75.3817	133.301	75.2935	133.301	75.5197	133.301	75.7928	133.301	75.9612	133.301	76.4545	133.301	76.5673	133.301	77.115	133.301	77.1841	133.301	77.6551	133.301	77.6933	133.301	78.0044	133.301	78.0212	133.301	78.1293
139.16	80.769	139.16	80.6453	139.16	80.6908	139.16	80.324	139.16	80.4142	139.16	79.8169	139.16	79.9502	139.16	79.1437	139.16	79.3179	139.16	78.3322	139.16	78.5444	139.16	77.4169	139.16	77.6648	139.16	76.44	139.16	76.7229	139.16	75.4567	139.16	75.7756	139.16	74.5534	139.16	74.9066	139.16	73.8711	139.16	74.2441	139.16	73.5913	139.16	73.9469	139.16	73.823	139.16	74.1148	139.16	74.4798	139.16	74.6844	139.16	75.3322	139.16	75.4578	139.16	76.1588	139.16	76.2284	139.16	76.8177	139.16	76.8524	139.16	77.2358	139.16	77.2498	139.16	77.382
143.555	80.4489	143.555	80.3192	143.555	80.3657	143.555	79.9806	143.555	80.0725	143.555	79.4444	143.555	79.5798	143.555	78.7293	143.555	78.9053	143.555	77.8605	143.555	78.0739	143.555	76.8689	143.555	77.1178	143.555	75.7901	143.555	76.0764	143.555	74.672	143.555	75.003	143.555	73.6008	143.555	73.9857	143.555	72.7484	143.555	73.1824	143.555	72.3779	143.555	72.8174	143.555	72.6737	143.555	73.0465	143.555	73.5151	143.555	73.7786	143.555	74.5736	143.555	74.736	143.555	75.5673	143.555	75.6581	143.555	76.3401	143.555	76.3862	143.555	76.8233	143.555	76.8422	143.555	76.9919
147.949	80.2296	147.949	80.1	147.949	80.1337	147.949	79.7487	147.949	79.8151	147.949	79.1864	147.949	79.2834	147.949	78.4301	147.949	78.555	147.949	77.5026	147.949	77.6525	147.949	76.4301	147.949	76.6041	147.949	75.2398	147.949	75.4423	147.949	73.9661	147.949	74.2106	147.949	72.6826	147.949	72.9908	147.949	71.5807	147.949	71.9649	147.949	71.0313	147.949	71.4523	147.949	71.3576	147.949	71.7204	147.949	72.4047	147.949	72.6496	147.949	73.6959	147.949	73.8352	147.949	74.8698	147.949	74.9403	147.949	75.7599	147.949	75.7919	147.949	76.3065	147.949	76.3183	147.949	76.4928
153.809	79.9584	153.809	79.8274	153.809	79.8499	153.809	79.4608	153.809	79.5046	153.809	78.8688	153.809	78.9316	153.809	78.0678	153.809	78.1462	153.809	77.0783	153.809	77.169	153.809	75.9207	153.809	76.0228	153.809	74.6096	153.809	74.7283	153.809	73.1533	153.809	73.3065	153.809	71.586	153.809	71.8084	153.809	70.0887	153.809	70.419	153.809	69.2032	153.809	69.6142	153.809	69.5853	153.809	69.9352	153.809	71.0152	153.809	71.2169	153.809	72.6912	153.809	72.778	153.809	74.1327	153.809	74.1589	153.809	75.1841	153.809	75.1858	153.809	75.8131	153.809	75.8098	153.809	76.0202
159.668	79.9936	159.668	79.8633	159.668	79.8752	159.668	79.4884	159.668	79.5106	159.668	78.8793	159.668	78.9082	159.668	78.0516	159.668	78.0827	159.668	77.024	159.668	77.0527	159.668	75.8117	159.668	75.8363	159.668	74.4162	159.668	74.4437	159.668	72.8158	159.668	72.8714	159.668	70.9823	159.668	71.1243	159.668	69.0118	159.668	69.3417	159.668	67.5583	159.668	68.13	159.668	67.89	159.668	68.4632	159.668	69.7987	159.668	70.1491	159.668	71.9241	159.668	72.0971	159.668	73.6514	159.668	73.7301	159.668	74.869	159.668	74.9023	159.668	75.5867	159.668	75.5985	159.668	75.8261
165.527	79.8975	165.527	79.7656	165.527	79.7697	165.527	79.3779	165.527	79.3839	165.527	78.7444	165.527	78.7478	165.527	77.8796	165.527	77.874	165.527	76.7995	165.527	76.7775	165.527	75.5131	165.527	75.4688	165.527	74.0074	165.527	73.9406	165.527	72.2261	165.527	72.1504	165.527	70.0625	165.527	70.0204	165.527	67.4812	165.527	67.5757	165.527	65.3393	165.527	65.6924	165.527	66.1491	165.527	66.4875	165.527	69.0441	165.527	69.1725	165.527	71.7153	165.527	71.7335	165.527	73.6972	165.527	73.6771	165.527	75.0347	165.527	75.0095	165.527	75.8031	165.527	75.7877	165.527	76.0487
171.387	79.7449	171.387	79.6044	171.387	79.6166	171.387	79.199	171.387	79.2212	171.387	78.5387	171.387	78.5661	171.387	77.6378	171.387	77.6635	171.387	76.5112	171.387	76.5268	171.387	75.1642	171.387	75.1617	171.387	73.5711	171.387	73.5469	171.387	71.6376	171.387	71.5997	171.387	69.1422	171.387	69.1239	171.387	65.6824	171.387	65.7933	171.387	61.5789	171.387	62.1096	171.387	63.0262	171.387	63.3905	171.387	67.655	171.387	67.6901	171.387	71.0344	171.387	70.9842	171.387	73.3151	171.387	73.2526	171.387	74.7933	171.387	74.7437	171.387	75.6259	171.387	75.5992	171.387	75.887
177.246	79.6946	177.246	79.5464	177.246	79.5679	177.246	79.1273	177.246	79.1687	177.246	78.4479	177.246	78.5058	177.246	77.5238	177.246	77.5931	177.246	76.3719	177.246	76.4462	177.246	74.9989	177.246	75.0724	177.246	73.3768	177.246	73.4473	177.246	71.3941	177.246	71.4683	177.246	68.758	177.246	68.8617	177.246	64.7235	177.246	64.9323	177.246	57.3458	177.246	57.9081	177.246	59.5346	177.246	59.1552	177.246	66.5929	177.246	66.2953	177.246	70.5758	177.246	70.3643	177.246	73.0831	177.246	72.9332	177.246	74.6654	177.246	74.5681	177.246	75.5436	177.246	75.4955	177.246	75.8115
183.105	79.7473	183.105	79.5936	183.105	79.6264	183.105	79.1693	183.105	79.2344	183.105	78.4853	183.105	78.5819	183.105	77.559	183.105	77.6856	183.105	76.4099	183.105	76.5646	183.105	75.0476	183.105	75.2296	183.105	73.4451	183.105	73.6586	183.105	71.4869	183.105	71.7489	183.105	68.8582	183.105	69.2181	183.105	64.6881	183.105	65.3018	183.105	54.7806	183.105	56.7512	183.105	57.3009	183.105	55.3783	183.105	66.3524	183.105	65.6727	183.105	70.6444	183.105	70.2414	183.105	73.2646	183.105	73.0019	183.105	74.8983	183.105	74.735	183.105	75.7959	183.105	75.7169	183.105	76.0597
188.965	79.9281	188.965	79.7853	188.965	79.796	188.965	79.3716	188.965	79.393	188.965	78.6991	188.965	78.7312	188.965	77.7873	188.965	77.8298	188.965	76.659	188.965	76.7115	188.965	75.3296	188.965	75.3924	188.965	73.7804	188.965	73.858	188.965	71.9107	188.965	72.0166	188.965	69.4444	188.965	69.6098	188.965	65.6895	188.965	65.9741	188.965	58.7829	188.965	58.9988	188.965	59.3241	188.965	57.0976	188.965	66.8451	188.965	65.9928	188.965	71.0552	188.965	70.5599	188.965	73.6828	188.965	73.3624	188.965	75.3304	188.965	75.1318	188.965	76.235	188.965	76.139	188.965	76.4958
196.289	80.3323	196.289	80.2052	196.289	80.1893	196.289	79.8125	196.289	79.7811	196.289	79.169	196.289	79.1227	196.289	78.2991	196.289	78.2387	196.289	77.2336	196.289	77.16	196.289	75.9992	196.289	75.9148	196.289	74.5959	196.289	74.5066	196.289	72.9571	196.289	72.8745	196.289	70.8972	196.289	70.8352	196.289	68.0598	196.289	68.0021	196.289	64.2515	196.289	63.8875	196.289	63.5297	196.289	62.1037	196.289	68.0303	196.289	67.0519	196.289	71.8371	196.289	71.2426	196.289	74.4194	196.289	74.0381	196.289	76.0795	196.289	75.8461	196.289	76.9981	196.289	76.8863	196.289	77.2596
203.613	80.3289	203.613	80.1882	203.613	80.1881	203.613	79.7717	203.613	79.7711	203.613	79.0967	203.613	79.0947	203.613	78.1917	203.613	78.1869	203.613	77.0941	203.613	77.0849	203.613	75.8405	203.613	75.8253	203.613	74.4441	203.613	74.4215	203.613	72.8589	203.613	72.8256	203.613	70.9455	203.613	70.8843	203.613	68.5065	203.613	68.3329	203.613	65.8651	203.613	65.2381	203.613	65.9314	203.613	64.7627	203.613	69.2958	203.613	68.4905	203.613	72.5505	203.613	72.0656	203.613	74.9266	203.613	74.6252	203.613	76.5067	203.613	76.3271	203.613	77.3991	203.613	77.3145	203.613	77.6632
210.938	80.7622	210.938	80.6236	210.938	80.6288	210.938	80.2199	210.938	80.2294	210.938	79.5717	210.938	79.5837	210.938	78.7134	210.938	78.7246	210.938	77.691	210.938	77.6965	210.938	76.5536	210.938	76.5469	210.938	75.3326	210.938	75.3071	210.938	74.0161	210.938	73.9653	210.938	72.5453	210.938	72.4581	210.938	70.9089	210.938	70.7502	210.938	69.5273	210.938	69.2081	210.938	69.674	210.938	69.169	210.938	71.6722	210.938	71.1757	210.938	74.0935	210.938	73.707	210.938	76.0943	210.938	75.8174	210.938	77.4991	210.938	77.3198	210.938	78.3094	210.938	78.2211	210.938	78.5473
218.262	81.3725	218.262	81.2608	218.262	81.235	218.262	80.9078	218.262	80.8559	218.262	80.3365	218.262	80.2582	218.262	79.5852	218.262	79.4804	218.262	78.7045	218.262	78.5743	218.262	77.748	218.262	77.5964	218.262	76.7542	218.262	76.5891	218.262	75.7249	218.262	75.5579	218.262	74.6257	218.262	74.4657	218.262	73.4509	218.262	73.2879	218.262	72.4203	218.262	72.1929	218.262	72.205	218.262	71.8119	218.262	73.3148	218.262	72.7861	218.262	75.151	218.262	74.6378	218.262	76.8974	218.262	76.4872	218.262	78.1966	218.262	77.9172	218.262	78.9558	218.262	78.8149	218.262	79.1616
225.586	81.9761	225.586	81.8478	225.586	81.8641	225.586	81.4872	225.586	81.5202	225.586	80.9182	225.586	80.9687	225.586	80.1806	225.586	80.2499	225.586	79.327	225.586	79.4167	225.586	78.4138	225.586	78.5251	225.586	77.4829	225.586	77.6156	225.586	76.5407	225.586	76.6909	225.586	75.556	225.586	75.7097	225.586	74.5149	225.586	74.6325	225.586	73.5811	225.586	73.5717	225.586	73.2976	225.586	73.049	225.586	74.1894	225.586	73.7541	225.586	75.8709	225.586	75.4384	225.586	77.5718	225.586	77.2389	225.586	78.8793	225.586	78.6619	225.586	79.6623	225.586	79.5557	225.586	79.8898
232.91	82.5932	232.91	82.4842	232.91	82.4722	232.91	82.1537	232.91	82.1298	232.91	81.6269	232.91	81.5921	232.91	80.945	232.91	80.9018	232.91	80.161	232.91	80.1147	232.91	79.3305	232.91	79.2899	232.91	78.4941	232.91	78.4714	232.91	77.6588	232.91	77.6671	232.91	76.7977	232.91	76.8447	232.91	75.8981	232.91	75.9724	232.91	75.0926	232.91	75.1377	232.91	74.813	232.91	74.7241	232.91	75.5217	232.91	75.2607	232.91	76.9922	232.91	76.666	232.91	78.565	232.91	78.2805	232.91	79.8118	232.91	79.6135	232.91	80.5699	232.91	80.4697	232.91	80.7923
241.699	83.1164	241.699	82.993	241.699	83.0148	241.699	82.6539	241.699	82.6963	241.699	82.1258	241.699	82.1872	241.699	81.4511	241.699	81.5311	241.699	80.6839	241.699	80.7845	241.699	79.8811	241.699	80.0073	241.699	79.0862	241.699	79.2441	241.699	78.313	241.699	78.5055	241.699	77.5473	241.699	77.7649	241.699	76.7956	241.699	76.9984	241.699	76.1967	241.699	76.2922	241.699	76.112	241.699	75.9833	241.699	76.8609	241.699	76.5151	241.699	78.2274	241.699	77.8245	241.699	79.678	241.699	79.3445	241.699	80.8404	241.699	80.6172	241.699	81.5527	241.699	81.4429	241.699	81.7585
250.488	84.3032	250.488	84.1662	250.488	84.2245	250.488	83.8236	250.488	83.9389	250.488	83.3036	250.488	83.4731	250.488	82.6517	250.488	82.8703	250.488	81.9255	250.488	82.186	250.488	81.186	250.488	81.4787	250.488	80.4815	250.488	80.794	250.488	79.8337	250.488	80.1488	250.488	79.2402	250.488	79.5287	250.488	78.7141	250.488	78.921	250.488	78.3547	250.488	78.3928	250.488	78.3809	250.488	78.176	250.488	78.9727	250.488	78.5715	250.488	80.0145	250.488	79.5773	250.488	81.1647	250.488	80.815	250.488	82.1245	250.488	81.899	250.488	82.7281	250.488	82.6207	250.488	82.9017
259.277	84.4686	259.277	84.3785	259.277	84.3611	259.277	84.1004	259.277	84.0649	259.277	83.662	259.277	83.6067	259.277	83.1073	259.277	83.0284	259.277	82.4919	259.277	82.3823	259.277	81.8733	259.277	81.7219	259.277	81.2975	259.277	81.0893	259.277	80.7846	259.277	80.5014	259.277	80.3274	259.277	79.9494	259.277	79.9169	259.277	79.4272	259.277	79.5951	259.277	78.9937	259.277	79.4998	259.277	78.831	259.277	79.8043	259.277	79.1662	259.277	80.5233	259.277	80.0093	259.277	81.4369	259.277	81.077	259.277	82.262	259.277	82.041	259.277	82.8017	259.277	82.6976	259.277	82.9576
268.066	85.6299	268.066	85.5891	268.066	85.4933	268.066	85.3781	268.066	85.1917	268.066	85.0229	268.066	84.7561	268.066	84.5647	268.066	84.2327	268.066	84.0535	268.066	83.6766	268.066	83.5374	268.066	83.1415	268.066	83.0506	268.066	82.666	268.066	82.604	268.066	82.2603	268.066	82.1878	268.066	81.9034	268.066	81.7938	268.066	81.5664	268.066	81.4564	268.066	81.2618	268.066	81.2945	268.066	81.0954	268.066	81.4763	268.066	81.2471	268.066	82.0555	268.066	81.8069	268.066	82.8607	268.066	82.6313	268.066	83.6206	268.066	83.4483	268.066	84.1275	268.066	84.036	268.066	84.2752
276.855	86.3003	276.855	86.2541	276.855	86.226	276.855	86.0888	276.855	86.0434	276.855	85.8188	276.855	85.7756	276.855	85.4694	276.855	85.4514	276.855	85.073	276.855	85.0998	276.855	84.6669	276.855	84.7448	276.855	84.2883	276.855	84.4011	276.855	83.9649	276.855	84.0706	276.855	83.7011	276.855	83.7453	276.855	83.4756	276.855	83.4202	276.855	83.2714	276.855	83.1175	276.855	83.1294	276.855	82.9106	276.855	83.1688	276.855	82.9188	276.855	83.4962	276.855	83.2303	276.855	84.0591	276.855	83.7965	276.855	84.6512	276.855	84.4343	276.855	85.0614	276.855	84.9382	276.855	85.1664
287.109	86.2304	287.109	86.1569	287.109	86.1252	287.109	85.9227	287.109	85.8543	287.109	85.5707	287.109	85.4601	287.109	85.1574	287.109	85.0039	287.109	84.7399	287.109	84.5474	287.109	84.3624	287.109	84.1359	287.109	84.0464	287.109	83.7899	287.109	83.783	287.109	83.5046	287.109	83.5313	287.109	83.2497	287.109	83.2313	287.109	82.9705	287.109	82.8352	287.109	82.6064	287.109	82.3593	287.109	82.1399	287.109	81.941	287.109	81.6683	287.109	81.8127	287.109	81.4282	287.109	82.0854	287.109	81.6248	287.109	82.5721	287.109	82.1644	287.109	82.9561	287.109	82.7221	287.109	83.0232
297.363	84.5981	297.363	84.4424	297.363	84.4358	297.363	83.995	297.363	83.9696	297.363	83.3184	297.363	83.2591	297.363	82.5029	297.363	82.4105	297.363	81.6484	297.363	81.5628	297.363	80.8381	297.363	80.848	297.363	80.1138	297.363	80.3399	297.363	79.4621	297.363	80.0265	297.363	78.8131	297.363	79.8172	297.363	78.0524	297.363	79.565	297.363	77.0683	297.363	79.1071	297.363	75.8924	297.363	78.3545	297.363	75.0332	297.363	77.4827	297.363	75.4574	297.363	77.1384	297.363	77.075	297.363	77.8541	297.363	78.7801	297.363	79.091	297.363	79.9355	297.363	80.0493	297.363	80.3635
307.617	85.9152	307.617	85.7888	307.617	85.7982	307.617	85.4355	307.617	85.449	307.617	84.8972	307.617	84.9048	307.617	84.2356	307.617	84.225	307.617	83.5213	307.617	83.4829	307.617	82.819	307.617	82.7521	307.617	82.1722	307.617	82.0902	307.617	81.595	307.617	81.5194	307.617	81.0736	307.617	81.0168	307.617	80.5881	307.617	80.5279	307.617	80.1675	307.617	80.0186	307.617	79.9735	307.617	79.5746	307.617	80.2766	307.617	79.4927	307.617	81.1562	307.617	80.1003	307.617	82.3031	307.617	81.2843	307.617	83.3058	307.617	82.5551	307.617	83.9034	307.617	83.5153	307.617	83.9819
319.336	85.9853	319.336	85.8596	319.336	85.8644	319.336	85.5119	319.336	85.5097	319.336	84.9984	319.336	84.9704	319.336	84.3922	319.336	84.3228	319.336	83.764	319.336	83.6519	319.336	83.1664	319.336	83.0308	319.336	82.6288	319.336	82.5037	319.336	82.16	319.336	82.0775	319.336	81.7491	319.336	81.7188	319.336	81.3711	319.336	81.3623	319.336	81.0219	319.336	80.9535	319.336	80.7936	319.336	80.5436	319.336	80.9104	319.336	80.3993	319.336	81.5473	319.336	80.8782	319.336	82.5506	319.336	81.9435	319.336	83.5397	319.336	83.1234	319.336	84.2012	319.336	83.9976	319.336	84.3715
329.59	85.9291	329.59	85.7818	329.59	85.7926	329.59	85.3713	329.59	85.3948	329.59	84.7588	329.59	84.8003	329.59	84.035	329.59	84.1045	329.59	83.2987	329.59	83.4123	329.59	82.6303	329.59	82.8087	329.59	82.0725	329.59	82.337	329.59	81.6277	329.59	81.9939	329.59	81.2626	329.59	81.7337	329.59	80.9232	329.59	81.4851	329.59	80.5867	329.59	81.1967	329.59	80.3605	329.59	80.9247	329.59	80.5339	329.59	80.9125	329.59	81.3248	329.59	81.45	329.59	82.5173	329.59	82.4756	329.59	83.6578	329.59	83.5736	329.59	84.4231	329.59	84.368	329.59	84.6702
341.309	86.2245	341.309	86.1338	341.309	86.0835	341.309	85.8477	341.309	85.7278	341.309	85.4419	341.309	85.2258	341.309	85.0048	341.309	84.6786	341.309	84.604	341.309	84.1829	341.309	84.2677	341.309	83.795	341.309	83.989	341.309	83.5222	341.309	83.7427	341.309	83.3374	341.309	83.4958	341.309	83.19	341.309	83.217	341.309	83.0128	341.309	82.9024	341.309	82.749	341.309	82.6327	341.309	82.4201	341.309	82.6161	341.309	82.2205	341.309	83.0626	341.309	82.4802	341.309	83.9018	341.309	83.2982	341.309	84.7892	341.309	84.3328	341.309	85.3946	341.309	85.1584	341.309	85.5352
353.027	85.2224	353.027	85.007	353.027	85.1146	353.027	84.5177	353.027	84.7095	353.027	83.8764	353.027	84.1045	353.027	83.2498	353.027	83.4486	353.027	82.7759	353.027	82.8902	353.027	82.4896	353.027	82.5077	353.027	82.3305	353.027	82.2868	353.027	82.2151	353.027	82.1559	353.027	82.0774	353.027	82.0259	353.027	81.8621	353.027	81.8066	353.027	81.5289	353.027	81.43	353.027	81.1298	353.027	80.9219	353.027	80.9369	353.027	80.5319	353.027	81.3426	353.027	80.7272	353.027	82.3326	353.027	81.6685	353.027	83.4112	353.027	82.8897	353.027	84.1336	353.027	83.8556	353.027	84.2962
366.211	84.9412	366.211	84.7065	366.211	84.6692	366.211	84.0268	366.211	83.9119	366.211	83.0433	366.211	82.7969	366.211	81.9727	366.211	81.5853	366.211	81.0517	366.211	80.6111	366.211	80.4191	366.211	80.0603	366.211	80.0493	366.211	79.837	366.211	79.8206	366.211	79.7282	366.211	79.5976	366.211	79.5805	366.211	79.2482	366.211	79.3062	366.211	78.6792	366.211	78.8356	366.211	78.0267	366.211	78.1699	366.211	77.9804	366.211	77.6865	366.211	79.2434	366.211	78.3165	366.211	81.2113	366.211	80.182	366.211	82.918	366.211	82.1799	366.211	83.9441	366.211	83.5783	366.211	84.174
379.395	85.0176	379.395	84.7021	379.395	84.8592	379.395	83.9625	379.395	84.2356	379.395	82.9242	379.395	83.2177	379.395	81.806	379.395	81.963	379.395	80.8712	379.395	80.7288	379.395	80.2695	379.395	79.7922	379.395	79.9299	379.395	79.2644	379.395	79.6671	379.395	79.0294	379.395	79.3463	379.395	78.8857	379.395	78.9605	379.395	78.6666	379.395	78.6613	379.395	78.3332	379.395	78.7745	379.395	78.1897	379.395	79.6442	379.395	78.9234	379.395	81.1986	379.395	80.6653	379.395	82.9258	379.395	82.6434	379.395	84.3594	379.395	84.2347	379.395	85.2672	379.395	85.2221	379.395	85.5642
392.578	85.4783	392.578	85.1444	392.578	85.3152	392.578	84.3537	392.578	84.6819	392.578	83.2254	392.578	83.6746	392.578	81.9694	392.578	82.4668	392.578	80.8441	392.578	81.2899	392.578	80.0246	392.578	80.3482	392.578	79.5078	392.578	79.723	392.578	79.1948	392.578	79.3836	392.578	79.0089	392.578	79.275	392.578	78.9191	392.578	79.3668	392.578	78.9709	392.578	79.6632	392.578	79.3844	392.578	80.2183	392.578	80.4459	392.578	81.1131	392.578	82.0591	392.578	82.3422	392.578	83.7441	392.578	83.7187	392.578	85.0943	392.578	84.9559	392.578	85.9182	392.578	85.815	392.578	86.1562
405.762	83.9633	405.762	83.6146	405.762	83.7333	405.762	82.7487	405.762	82.962	405.762	81.5548	405.762	81.8063	405.762	80.3818	405.762	80.5799	405.762	79.6134	405.762	79.6774	405.762	79.347	405.762	79.2898	405.762	79.3597	405.762	79.2828	405.762	79.4251	405.762	79.4442	405.762	79.4661	405.762	79.6481	405.762	79.503	405.762	79.8138	405.762	79.5965	405.762	79.8695	405.762	79.8613	405.762	79.8121	405.762	80.4649	405.762	79.8345	405.762	81.4662	405.762	80.3256	405.762	82.6541	405.762	81.4341	405.762	83.6863	405.762	82.764	405.762	84.3005	405.762	83.8247	405.762	84.3597
420.41	85.5162	420.41	85.2093	420.41	85.0919	420.41	84.2219	420.41	83.9476	420.41	82.6975	420.41	82.1902	420.41	80.9622	420.41	80.1369	420.41	79.5528	420.41	78.4214	420.41	78.8569	420.41	77.6049	420.41	78.7074	420.41	77.5241	420.41	78.7346	420.41	77.7005	420.41	78.7747	420.41	77.8902	420.41	78.8551	420.41	78.0356	420.41	79.0813	420.41	78.1694	420.41	79.6014	420.41	78.4699	420.41	80.5832	420.41	79.2908	420.41	82.0262	420.41	80.8155	420.41	83.6232	420.41	82.6885	420.41	84.9759	420.41	84.3685	420.41	85.815	420.41	85.5203	420.41	86.0108
435.059	83.5811	435.059	82.8521	435.059	83.3529	435.059	81.1801	435.059	82.1441	435.059	78.6926	435.059	79.919	435.059	76.2061	435.059	76.7589	435.059	75.6669	435.059	73.5965	435.059	76.9226	435.059	72.8344	435.059	78.2146	435.059	74.0094	435.059	79.052	435.059	75.1652	435.059	79.5563	435.059	75.9942	435.059	79.9057	435.059	76.6982	435.059	80.1569	435.059	77.4221	435.059	80.2849	435.059	78.1736	435.059	80.4131	435.059	78.9868	435.059	80.9458	435.059	80.0825	435.059	82.112	435.059	81.591	435.059	83.4875	435.059	83.176	435.059	84.4902	435.059	84.3428	435.059	84.8054
451.172	87.3592	451.172	86.8221	451.172	87.0344	451.172	85.3894	451.172	85.8526	451.172	82.9788	451.172	83.8012	451.172	79.4297	451.172	80.8733	451.172	74.6337	451.172	77.2226	451.172	70.5561	451.172	73.8845	451.172	71.712	451.172	73.0742	451.172	73.9935	451.172	74.3582	451.172	75.5666	451.172	76.0345	451.172	76.5853	451.172	77.5411	451.172	77.0987	451.172	78.6135	451.172	77.2829	451.172	79.1627	451.172	78.1755	451.172	79.6601	451.172	80.7391	451.172	81.1863	451.172	83.7941	451.172	83.7016	451.172	86.1862	451.172	86.0241	451.172	87.6173	451.172	87.5243	451.172	88.0608
465.82	86.7609	465.82	86.3007	465.82	86.4202	465.82	85.0419	465.82	85.2587	465.82	82.9678	465.82	83.2365	465.82	80.0608	465.82	80.2964	465.82	76.4836	465.82	76.4625	465.82	73.4516	465.82	72.5978	465.82	73.1758	465.82	71.6465	465.82	74.5407	465.82	73.3803	465.82	75.8325	465.82	75.3079	465.82	76.7294	465.82	76.8049	465.82	77.3094	465.82	77.7325	465.82	78.016	465.82	78.2073	465.82	79.6409	465.82	79.0513	465.82	82.1769	465.82	81.241	465.82	84.7259	465.82	84.0442	465.82	86.6926	465.82	86.3379	465.82	87.8862	465.82	87.7496	465.82	88.2518
483.398	84.9958	483.398	84.5027	483.398	84.6552	483.398	83.1379	483.398	83.4995	483.398	80.8237	483.398	81.5421	483.398	77.4472	483.398	78.8032	483.398	73.2358	483.398	75.3566	483.398	70.9144	483.398	71.575	483.398	72.4926	483.398	68.8793	483.398	74.3715	483.398	68.9029	483.398	75.5573	483.398	70.4432	483.398	76.2807	483.398	72.0954	483.398	76.8941	483.398	73.5813	483.398	77.8618	483.398	75.2424	483.398	79.605	483.398	77.562	483.398	81.9052	483.398	80.356	483.398	84.0927	483.398	82.9707	483.398	85.7236	483.398	84.9904	483.398	86.6461	483.398	86.2833	483.398	86.8333
499.512	85.8857	499.512	85.473	499.512	85.5165	499.512	84.2668	499.512	84.348	499.512	82.196	499.512	82.341	499.512	79.0584	499.512	79.4363	499.512	74.3354	499.512	75.6329	499.512	66.7709	499.512	71.6475	499.512	63.5291	499.512	70.3909	499.512	68.9318	499.512	72.1631	499.512	72.0306	499.512	74.3561	499.512	74.3599	499.512	76.2909	499.512	76.3244	499.512	77.8884	499.512	77.9679	499.512	79.2021	499.512	79.6147	499.512	80.4699	499.512	81.5709	499.512	81.9981	499.512	83.6243	499.512	83.7615	499.512	85.3319	499.512	85.3608	499.512	86.423	499.512	86.4287	499.512	86.7963
517.09	87.8783	517.09	87.2283	517.09	87.6797	517.09	85.7283	517.09	86.6141	517.09	83.3423	517.09	84.6314	517.09	79.9509	517.09	81.6139	517.09	75.2893	517.09	77.3122	517.09	69.7475	517.09	71.6012	517.09	69.4961	517.09	69.039	517.09	72.8556	517.09	72.3765	517.09	75.322	517.09	75.2122	517.09	77.0821	517.09	77.1717	517.09	78.4665	517.09	78.5141	517.09	79.6741	517.09	79.4512	517.09	80.9603	517.09	80.4606	517.09	82.6892	517.09	82.1166	517.09	84.821	517.09	84.3005	517.09	86.7615	517.09	86.3446	517.09	88.0015	517.09	87.7633	517.09	88.3418
536.133	88.492	536.133	87.9852	536.133	88.2469	536.133	86.6967	536.133	87.2485	536.133	84.5481	536.133	85.4585	536.133	81.3481	536.133	82.7771	536.133	76.5869	536.133	78.9757	536.133	68.473	536.133	73.4766	536.133	61.5011	536.133	64.8061	536.133	70.4351	536.133	65.3916	536.133	74.4454	536.133	71.6057	536.133	76.9707	536.133	75.2579	536.133	78.5665	536.133	77.4614	536.133	79.3494	536.133	78.5609	536.133	79.8995	536.133	79.2268	536.133	81.5368	536.133	80.9386	536.133	84.3592	536.133	83.8994	536.133	86.9683	536.133	86.652	536.133	88.6067	536.133	88.4412	536.133	89.1023
555.176	86.7777	555.176	86.4393	555.176	86.6406	555.176	85.5991	555.176	85.9439	555.176	84.1007	555.176	84.5376	555.176	81.6475	555.176	82.2357	555.176	77.6907	555.176	78.7827	555.176	70.704	555.176	73.695	555.176	55.0844	555.176	66.2635	555.176	68.5677	555.176	65.6978	555.176	72.6165	555.176	70.8675	555.176	74.5301	555.176	74.1409	555.176	75.7606	555.176	76.1965	555.176	76.8966	555.176	77.4573	555.176	78.5464	555.176	78.6552	555.176	81.0324	555.176	80.7822	555.176	83.7833	555.176	83.5639	555.176	86.053	555.176	85.9497	555.176	87.4805	555.176	87.446	555.176	87.9549
574.219	86.6766	574.219	86.6325	574.219	86.3092	574.219	86.1005	574.219	85.5038	574.219	84.911	574.219	84.1419	574.219	82.8159	574.219	82.0509	574.219	79.4802	574.219	79.0338	574.219	74.3825	574.219	74.8051	574.219	66.4014	574.219	68.5813	574.219	59.3159	574.219	56.5291	574.219	66.9493	574.219	62.4337	574.219	71.9223	574.219	68.868	574.219	74.8504	574.219	72.3494	574.219	76.464	574.219	74.6397	574.219	78.0182	574.219	76.7569	574.219	80.6717	574.219	79.5854	574.219	83.7234	574.219	82.7626	574.219	86.1278	574.219	85.4209	574.219	87.5298	574.219	87.1591	574.219	87.8713
594.727	86.484	594.727	86.0135	594.727	86.1514	594.727	84.852	594.727	85.0828	594.727	83.2232	594.727	83.4388	594.727	81.2099	594.727	81.264	594.727	78.5165	594.727	78.3287	594.727	74.5068	594.727	74.1547	594.727	67.9685	594.727	68.121	594.727	50.2461	594.727	62.756	594.727	63.8028	594.727	66.1255	594.727	70.7306	594.727	70.2295	594.727	74.6243	594.727	73.4521	594.727	76.9464	594.727	75.6897	594.727	78.5633	594.727	77.2751	594.727	80.4984	594.727	79.2954	594.727	82.9083	594.727	82.085	594.727	85.0465	594.727	84.6112	594.727	86.4007	594.727	86.2234	594.727	86.8101
615.234	85.6678	615.234	85.1857	615.234	85.3775	615.234	84.0479	615.234	84.2848	615.234	82.3881	615.234	82.4366	615.234	80.2051	615.234	79.8539	615.234	77.2047	615.234	76.3153	615.234	72.6014	615.234	71.056	615.234	63.7824	615.234	61.7662	615.234	59.9718	615.234	55.1626	615.234	68.545	615.234	63.9983	615.234	72.3181	615.234	69.4983	615.234	74.8168	615.234	73.3449	615.234	76.5843	615.234	75.4203	615.234	78.1545	615.234	76.3557	615.234	80.3084	615.234	77.8139	615.234	82.8543	615.234	80.5294	615.234	84.9193	615.234	83.1869	615.234	86.0128	615.234	85.0667	615.234	86.038
637.207	86.7644	637.207	86.1561	637.207	86.3901	637.207	84.7282	637.207	85.0128	637.207	82.7489	637.207	82.739	637.207	80.4047	637.207	79.7127	637.207	77.532	637.207	75.8519	637.207	73.5324	637.207	70.5676	637.207	67.3747	637.207	63.685	637.207	60.8275	637.207	61.3446	637.207	63.8939	637.207	60.376	637.207	67.8537	637.207	60.0051	637.207	71.4611	637.207	65.9036	637.207	73.6441	637.207	70.2228	637.207	74.9774	637.207	73.01	637.207	77.506	637.207	76.0423	637.207	81.1381	637.207	80.0844	637.207	84.2477	637.207	83.6905	637.207	86.1871	637.207	85.9672	637.207	86.7848
659.18	85.5201	659.18	85.084	659.18	85.0234	659.18	83.7631	659.18	83.7676	659.18	81.8687	659.18	82.0106	659.18	79.7375	659.18	79.8302	659.18	77.15	659.18	76.9147	659.18	73.1639	659.18	72.6873	659.18	65.9061	659.18	66.7713	659.18	40.4753	659.18	60.5035	659.18	58.0644	659.18	59.5236	659.18	62.8522	659.18	65.6804	659.18	68.2437	659.18	70.5067	659.18	71.9195	659.18	73.2816	659.18	74.3255	659.18	74.7579	659.18	77.0356	659.18	76.7003	659.18	80.1838	659.18	80.1511	659.18	82.7707	659.18	83.1938	659.18	84.4347	659.18	84.837	659.18	85.1638
682.617	85.275	682.617	84.8353	682.617	84.7396	682.617	83.4649	682.617	83.2896	682.617	81.3092	682.617	81.1204	682.617	78.4854	682.617	78.4061	682.617	74.6781	682.617	74.7118	682.617	68.7207	682.617	68.5667	682.617	59.33	682.617	58.1378	682.617	61.5133	682.617	57.9994	682.617	63.595	682.617	55.9498	682.617	65.5335	682.617	66.105	682.617	69.433	682.617	71.9884	682.617	72.8178	682.617	74.686	682.617	74.794	682.617	75.6464	682.617	76.3394	682.617	76.9254	682.617	79.2892	682.617	79.7536	682.617	82.2935	682.617	82.289	682.617	83.9348	682.617	83.7415	682.617	84.2934
707.52	86.4011	707.52	85.396	707.52	86.0028	707.52	83.2008	707.52	84.1429	707.52	80.176	707.52	81.2141	707.52	76.9482	707.52	78.2712	707.52	73.896	707.52	75.3475	707.52	69.8904	707.52	70.6118	707.52	61.8301	707.52	62.491	707.52	51.2172	707.52	60.767	707.52	58.5769	707.52	59.9776	707.52	61.4733	707.52	61.8858	707.52	66.7141	707.52	67.469	707.52	69.5615	707.52	70.5712	707.52	70.6439	707.52	72.6032	707.52	73.0382	707.52	74.718	707.52	77.685	707.52	78.3275	707.52	81.7832	707.52	82.4154	707.52	84.499	707.52	84.9958	707.52	85.6415
732.422	85.2834	732.422	84.6065	732.422	84.602	732.422	82.6239	732.422	82.5037	732.422	79.7017	732.422	79.0123	732.422	76.7403	732.422	74.9198	732.422	73.5265	732.422	71.6187	732.422	68.0444	732.422	67.024	732.422	64.2801	732.422	51.3573	732.422	68.1784	732.422	60.73	732.422	68.7363	732.422	62.7936	732.422	66.4875	732.422	59.784	732.422	65.1282	732.422	67.4984	732.422	66.9736	732.422	72.2036	732.422	68.8951	732.422	73.4225	732.422	72.4366	732.422	74.1094	732.422	77.4881	732.422	77.6825	732.422	81.3894	732.422	81.17	732.422	83.4864	732.422	83.2185	732.422	83.9971
757.324	84.352	757.324	83.821	757.324	83.7829	757.324	81.7974	757.324	82.1649	757.324	77.7362	757.324	79.2871	757.324	72.2481	757.324	75.0803	757.324	69.5008	757.324	69.7038	757.324	65.1275	757.324	59.295	757.324	57.249	757.324	62.3547	757.324	67.7274	757.324	68.4425	757.324	69.0437	757.324	68.6249	757.324	64.5211	757.324	65.5429	757.324	42.6275	757.324	65.5488	757.324	62.974	757.324	70.6419	757.324	66.8717	757.324	73.2126	757.324	71.4362	757.324	74.9107	757.324	77.4741	757.324	78.4233	757.324	81.5355	757.324	81.3267	757.324	83.2298	757.324	82.7645	757.324	83.3751
785.156	83.9519	785.156	83.0106	785.156	83.6853	785.156	80.8861	785.156	81.7899	785.156	76.9682	785.156	77.6279	785.156	70.7305	785.156	70.4086	785.156	70.479	785.156	62.113	785.156	72.0027	785.156	63.7998	785.156	69.1988	785.156	69.6176	785.156	67.8429	785.156	72.261	785.156	71.1505	785.156	71.4447	785.156	70.0519	785.156	66.9505	785.156	62.5392	785.156	56.3328	785.156	61.3182	785.156	62.0515	785.156	66.7739	785.156	70.1295	785.156	70.4972	785.156	72.6489	785.156	76.1011	785.156	76.3491	785.156	81.039	785.156	81.5643	785.156	84.1163	785.156	84.5238	785.156	85.2795
811.523	84.8003	811.523	83.765	811.523	84.1671	811.523	80.8126	811.523	81.8122	811.523	75.5715	811.523	77.0606	811.523	69.0542	811.523	67.2145	811.523	69.5898	811.523	63.5531	811.523	72.6254	811.523	67.8668	811.523	72.8187	811.523	69.9247	811.523	70.9212	811.523	72.2785	811.523	70.0285	811.523	72.1616	811.523	68.6626	811.523	68.3239	811.523	67.036	811.523	52.3268	811.523	67.8376	811.523	66.3521	811.523	68.9784	811.523	71.7473	811.523	71.3786	811.523	71.8783	811.523	76.5154	811.523	74.9899	811.523	81.6972	811.523	80.5649	811.523	84.3807	811.523	83.6881	811.523	84.8978
840.82	85.3113	840.82	84.3456	840.82	85.1436	840.82	81.9535	840.82	83.4442	840.82	76.9939	840.82	79.2141	840.82	65.4285	840.82	69.9364	840.82	63.9644	840.82	61.3433	840.82	67.2222	840.82	70.7598	840.82	66.2419	840.82	74.1902	840.82	67.4859	840.82	74.2691	840.82	67.7762	840.82	71.0536	840.82	64.8848	840.82	69.2351	840.82	62.0145	840.82	67.6918	840.82	64.7546	840.82	46.8747	840.82	66.1723	840.82	66.7592	840.82	69.872	840.82	70.1706	840.82	77.3661	840.82	77.1873	840.82	82.8355	840.82	82.9013	840.82	85.4397	840.82	85.5316	840.82	86.1776
870.117	84.7825	870.117	84.4213	870.117	84.172	870.117	82.3909	870.117	82.5788	870.117	77.2633	870.117	79.0723	870.117	63.4888	870.117	71.8286	870.117	68.8705	870.117	52.2346	870.117	73.1916	870.117	65.6915	870.117	74.3125	870.117	73.3314	870.117	73.3621	870.117	75.8566	870.117	69.7064	870.117	74.1042	870.117	67.9772	870.117	67.2514	870.117	72.3002	870.117	60.9066	870.117	71.5949	870.117	60.5695	870.117	62.0146	870.117	67.006	870.117	64.6561	870.117	69.2188	870.117	76.9622	870.117	75.3136	870.117	83.1625	870.117	81.8933	870.117	85.5602	870.117	84.8958	870.117	85.8809
900.879	86.7407	900.879	85.4872	900.879	86.2867	900.879	82.4476	900.879	83.8042	900.879	76.2696	900.879	78.4301	900.879	58.1099	900.879	65.7016	900.879	70.8439	900.879	63.703	900.879	72.9376	900.879	67.7499	900.879	73.9616	900.879	73.917	900.879	75.1804	900.879	77.338	900.879	73.0681	900.879	76.9506	900.879	60.4696	900.879	72.2847	900.879	68.0735	900.879	60.7206	900.879	71.2703	900.879	64.8074	900.879	68.215	900.879	47.1055	900.879	66.6307	900.879	57.1944	900.879	74.3671	900.879	73.4542	900.879	83.5384	900.879	83.4664	900.879	87.1135	900.879	87.2953	900.879	88.1358
933.105	87.8962	933.105	87.2892	933.105	87.4224	933.105	85.1279	933.105	85.6623	933.105	79.9888	933.105	81.535	933.105	66.9917	933.105	70.7238	933.105	74.0033	933.105	70.6378	933.105	76.4218	933.105	73.0995	933.105	76.5549	933.105	72.3399	933.105	77.8582	933.105	76.8524	933.105	77.8542	933.105	78.4366	933.105	73.6958	933.105	75.8805	933.105	66.634	933.105	68.1464	933.105	69.9632	933.105	68.8917	933.105	66.4274	933.105	64.5842	933.105	62.9551	933.105	49.6313	933.105	74.4407	933.105	73.1614	933.105	82.7867	933.105	83.3185	933.105	86.7019	933.105	87.3134	933.105	88.1091
965.332	86.0418	965.332	85.843	965.332	85.3175	965.332	84.4033	965.332	83.6303	965.332	80.5416	965.332	79.5729	965.332	71.6329	965.332	66.1642	965.332	68.7062	965.332	73.0562	965.332	71.6054	965.332	74.3184	965.332	72.9342	965.332	72.5576	965.332	75.4013	965.332	76.0953	965.332	75.2935	965.332	76.7377	965.332	69.2303	965.332	71.3388	965.332	64.1289	965.332	64.1236	965.332	72.156	965.332	71.859	965.332	69.7597	965.332	67.0871	965.332	67.6062	965.332	66.0156	965.332	74.6782	965.332	74.1773	965.332	83.6553	965.332	83.1025	965.332	86.9872	965.332	86.796	965.332	87.7139
1,000.49	86.3735	1,000.49	85.2223	1,000.49	86.3054	1,000.49	83.4547	1,000.49	84.6628	1,000.49	80.4544	1,000.49	80.898	1,000.49	70.7546	1,000.49	72.5406	1,000.49	72.046	1,000.49	73.2454	1,000.49	76.7503	1,000.49	75.9696	1,000.49	75.0804	1,000.49	73.4189	1,000.49	75.8174	1,000.49	75.7758	1,000.49	77.7898	1,000.49	78.5262	1,000.49	75.9737	1,000.49	77.5923	1,000.49	70.2652	1,000.49	71.1161	1,000.49	72.8163	1,000.49	67.7644	1,000.49	74.1333	1,000.49	70.6686	1,000.49	74.0533	1,000.49	66.5528	1,000.49	76.9526	1,000.49	74.1509	1,000.49	83.4939	1,000.49	83.095	1,000.49	86.1601	1,000.49	86.133	1,000.49	86.5227
1,035.64	86.4174	1,035.64	85.7318	1,035.64	85.8178	1,035.64	82.8661	1,035.64	84.0397	1,035.64	76.4994	1,035.64	79.7838	1,035.64	57.3221	1,035.64	69.305	1,035.64	73.858	1,035.64	72.2325	1,035.64	76.8349	1,035.64	75.6614	1,035.64	75.3341	1,035.64	73.2222	1,035.64	74.2078	1,035.64	73.121	1,035.64	77.1089	1,035.64	76.0541	1,035.64	74.9942	1,035.64	74.2787	1,035.64	62.7005	1,035.64	62.8926	1,035.64	72.9911	1,035.64	69.4689	1,035.64	70.2266	1,035.64	65.2773	1,035.64	57.6154	1,035.64	65.2129	1,035.64	69.501	1,035.64	53.258	1,035.64	79.0382	1,035.64	78.4606	1,035.64	83.1666	1,035.64	83.7491	1,035.64	84.774
1,072.27	86.2258	1,072.27	85.5141	1,072.27	85.5661	1,072.27	83.3983	1,072.27	83.3148	1,072.27	78.9138	1,072.27	79.7644	1,072.27	67.1098	1,072.27	73.3312	1,072.27	71.1135	1,072.27	62.5426	1,072.27	75.3848	1,072.27	74.4864	1,072.27	74.5473	1,072.27	73.5271	1,072.27	72.1993	1,072.27	66.1998	1,072.27	72.9382	1,072.27	73.9098	1,072.27	72.9079	1,072.27	74.9153	1,072.27	72.1308	1,072.27	70.4549	1,072.27	75.3671	1,072.27	70.2848	1,072.27	75.0307	1,072.27	71.7363	1,072.27	72.6398	1,072.27	72.1259	1,072.27	74.5873	1,072.27	73.1409	1,072.27	81.7139	1,072.27	80.2437	1,072.27	84.872	1,072.27	84.6067	1,072.27	85.4594
1,108.89	85.6131	1,108.89	84.8262	1,108.89	85.1087	1,108.89	81.9753	1,108.89	83.0274	1,108.89	76.4231	1,108.89	77.4	1,108.89	63.0324	1,108.89	65.2398	1,108.89	72.2195	1,108.89	70.1352	1,108.89	76.5406	1,108.89	75.38	1,108.89	75.8325	1,108.89	76.2651	1,108.89	71.6693	1,108.89	72.7004	1,108.89	71.0789	1,108.89	73.6098	1,108.89	70.1989	1,108.89	75.0201	1,108.89	58.245	1,108.89	67.0587	1,108.89	73.9475	1,108.89	68.8029	1,108.89	73.1556	1,108.89	70.3213	1,108.89	64.4982	1,108.89	70.1705	1,108.89	70.521	1,108.89	69.7312	1,108.89	79.6549	1,108.89	77.4896	1,108.89	82.8679	1,108.89	81.87	1,108.89	83.4342
1,148.44	84.5275	1,148.44	84.5247	1,148.44	84.1337	1,148.44	82.1974	1,148.44	82.5799	1,148.44	74.6735	1,148.44	77.3915	1,148.44	62.9604	1,148.44	63.06	1,148.44	71.5858	1,148.44	69.5516	1,148.44	76.2659	1,148.44	75.0835	1,148.44	76.6426	1,148.44	76.3045	1,148.44	72.9225	1,148.44	71.8791	1,148.44	72.0402	1,148.44	70.4882	1,148.44	72.3861	1,148.44	75.0508	1,148.44	61.4898	1,148.44	73.6294	1,148.44	70.872	1,148.44	71.5251	1,148.44	73.4402	1,148.44	74.6519	1,148.44	73.2352	1,148.44	73.9185	1,148.44	74.128	1,148.44	72.19	1,148.44	80.1008	1,148.44	77.8268	1,148.44	83.8712	1,148.44	83.7569	1,148.44	85.2344
1,189.45	85.9305	1,189.45	84.363	1,189.45	85.5909	1,189.45	81.7467	1,189.45	83.0269	1,189.45	76.2554	1,189.45	77.1018	1,189.45	68.9121	1,189.45	67.8164	1,189.45	73.7526	1,189.45	72.4304	1,189.45	75.0512	1,189.45	76.5367	1,189.45	76.5651	1,189.45	77.9134	1,189.45	73.7374	1,189.45	74.9596	1,189.45	72.4778	1,189.45	73.1649	1,189.45	75.1312	1,189.45	75.4342	1,189.45	65.5299	1,189.45	72.9779	1,189.45	70.3601	1,189.45	69.4845	1,189.45	73.0441	1,189.45	73.3157	1,189.45	71.7646	1,189.45	71.5247	1,189.45	75.7278	1,189.45	73.3529	1,189.45	80.2735	1,189.45	77.0968	1,189.45	84.5976	1,189.45	83.0824	1,189.45	85.7507
1,230.47	86.2773	1,230.47	84.9674	1,230.47	85.9077	1,230.47	81.7877	1,230.47	84.0051	1,230.47	74.3871	1,230.47	78.1428	1,230.47	68.2027	1,230.47	66.7987	1,230.47	73.794	1,230.47	73.8327	1,230.47	73.3972	1,230.47	73.2959	1,230.47	76.7244	1,230.47	75.7622	1,230.47	75.1169	1,230.47	74.6508	1,230.47	68.9847	1,230.47	64.475	1,230.47	76.712	1,230.47	72.2347	1,230.47	73.7796	1,230.47	73.1494	1,230.47	68.5589	1,230.47	73.8283	1,230.47	76.0241	1,230.47	78.1103	1,230.47	76.6675	1,230.47	76.002	1,230.47	78.1279	1,230.47	75.2348	1,230.47	82.0287	1,230.47	79.4208	1,230.47	85.5566	1,230.47	84.2427	1,230.47	86.0844
1,274.41	85.8025	1,274.41	84.8942	1,274.41	85.2052	1,274.41	83.1017	1,274.41	82.5069	1,274.41	77.2219	1,274.41	77.2904	1,274.41	69.7169	1,274.41	71.3756	1,274.41	76.2368	1,274.41	78.6701	1,274.41	75.1191	1,274.41	78.7795	1,274.41	75.3829	1,274.41	77.6202	1,274.41	75.8816	1,274.41	76.5871	1,274.41	70.1069	1,274.41	71.5374	1,274.41	71.0317	1,274.41	72.304	1,274.41	69.2948	1,274.41	70.4442	1,274.41	70.6117	1,274.41	68.471	1,274.41	77.3576	1,274.41	76.2081	1,274.41	75.0419	1,274.41	74.4451	1,274.41	75.4896	1,274.41	75.6083	1,274.41	79.6855	1,274.41	77.7299	1,274.41	83.758	1,274.41	83.1052	1,274.41	85.4059
1,319.82	86.1492	1,319.82	84.7317	1,319.82	84.6442	1,319.82	81.1843	1,319.82	81.5312	1,319.82	76.382	1,319.82	73.8562	1,319.82	74.5904	1,319.82	71.2883	1,319.82	80.1036	1,319.82	78.2436	1,319.82	78.1158	1,319.82	78.1308	1,319.82	75.7336	1,319.82	75.135	1,319.82	75.3096	1,319.82	72.4663	1,319.82	69.9851	1,319.82	67.9814	1,319.82	72.5473	1,319.82	61.9658	1,319.82	71.952	1,319.82	69.6074	1,319.82	67.8813	1,319.82	62.7274	1,319.82	74.8129	1,319.82	74.0182	1,319.82	72.9552	1,319.82	72.2155	1,319.82	74.633	1,319.82	72.8056	1,319.82	77.6939	1,319.82	78.0312	1,319.82	82.6331	1,319.82	82.8975	1,319.82	84.9811
1,366.7	85.433	1,366.7	83.6544	1,366.7	84.0973	1,366.7	80.1829	1,366.7	79.8596	1,366.7	74.4395	1,366.7	75.7604	1,366.7	70.3956	1,366.7	69.5368	1,366.7	78.2032	1,366.7	78.9575	1,366.7	78.2671	1,366.7	80.2489	1,366.7	73.9952	1,366.7	78.6826	1,366.7	73.6543	1,366.7	77.1195	1,366.7	70.7033	1,366.7	73.8143	1,366.7	70.7822	1,366.7	66.9783	1,366.7	69.8158	1,366.7	57.6755	1,366.7	66.1287	1,366.7	69.4658	1,366.7	72.1707	1,366.7	73.8158	1,366.7	70.9323	1,366.7	70.73	1,366.7	75.5336	1,366.7	71.883	1,366.7	78.9591	1,366.7	74.3265	1,366.7	81.8636	1,366.7	80.0794	1,366.7	83.0193
1,413.57	86.1778	1,413.57	84.391	1,413.57	84.9954	1,413.57	79.1586	1,413.57	81.5791	1,413.57	71.6663	1,413.57	73.1052	1,413.57	73.0661	1,413.57	69.087	1,413.57	77.8183	1,413.57	77.7387	1,413.57	76.9168	1,413.57	78.9278	1,413.57	74.2029	1,413.57	76.6511	1,413.57	72.8807	1,413.57	74.3644	1,413.57	67.3387	1,413.57	74.0573	1,413.57	69.5376	1,413.57	73.8523	1,413.57	67.4611	1,413.57	67.8673	1,413.57	65.9556	1,413.57	62.9748	1,413.57	71.3307	1,413.57	66.4259	1,413.57	69.2861	1,413.57	66.159	1,413.57	71.6388	1,413.57	66.8057	1,413.57	75.9141	1,413.57	72.5137	1,413.57	79.9111	1,413.57	77.8149	1,413.57	81.1283
1,463.38	86.8424	1,463.38	84.9367	1,463.38	86.2342	1,463.38	80.8861	1,463.38	81.4844	1,463.38	69.9976	1,463.38	74.8191	1,463.38	73.1411	1,463.38	61.7859	1,463.38	77.0841	1,463.38	75.7433	1,463.38	78.9283	1,463.38	76.8914	1,463.38	75.7165	1,463.38	74.8038	1,463.38	71.8189	1,463.38	74.5434	1,463.38	72.1538	1,463.38	72.6885	1,463.38	71.459	1,463.38	69.7618	1,463.38	71.28	1,463.38	71.0065	1,463.38	53.9808	1,463.38	55.5856	1,463.38	67.8126	1,463.38	67.6152	1,463.38	68.0208	1,463.38	56.5285	1,463.38	64.3527	1,463.38	69.713	1,463.38	70.0318	1,463.38	72.7568	1,463.38	76.7719	1,463.38	76.4142	1,463.38	80.3424
1,516.11	88.0424	1,516.11	86.0882	1,516.11	86.3307	1,516.11	80.7844	1,516.11	82.4957	1,516.11	73.7503	1,516.11	73.8766	1,516.11	70.5886	1,516.11	70.9581	1,516.11	76.4575	1,516.11	76.1731	1,516.11	77.8891	1,516.11	76.4945	1,516.11	75.6039	1,516.11	73.9502	1,516.11	73.9737	1,516.11	72.1359	1,516.11	73.0164	1,516.11	73.217	1,516.11	70.1646	1,516.11	71.5251	1,516.11	72.1326	1,516.11	71.1187	1,516.11	61.2809	1,516.11	64.6093	1,516.11	65.3838	1,516.11	71.0139	1,516.11	53.7307	1,516.11	65.6681	1,516.11	61.3215	1,516.11	66.6628	1,516.11	70.9561	1,516.11	71.8419	1,516.11	77.7708	1,516.11	75.7586	1,516.11	79.3268
1,568.85	86.9088	1,568.85	85.1969	1,568.85	85.516	1,568.85	81.3247	1,568.85	81.9111	1,568.85	72.2616	1,568.85	77.3459	1,568.85	72.9316	1,568.85	71.6099	1,568.85	75.4406	1,568.85	71.79	1,568.85	73.5036	1,568.85	75.3307	1,568.85	71.7226	1,568.85	74.3043	1,568.85	68.2414	1,568.85	71.94	1,568.85	67.2635	1,568.85	69.2729	1,568.85	66.4942	1,568.85	66.4393	1,568.85	72.0849	1,568.85	69.1776	1,568.85	65.5476	1,568.85	60.6989	1,568.85	63.9781	1,568.85	69.4256	1,568.85	57.9949	1,568.85	63.0768	1,568.85	64.5701	1,568.85	59.3626	1,568.85	70.909	1,568.85	69.0806	1,568.85	79.6387	1,568.85	78.3834	1,568.85	81.5702
1,624.51	87.3088	1,624.51	85.3942	1,624.51	86.3379	1,624.51	81.5744	1,624.51	83.1988	1,624.51	72.5325	1,624.51	76.5365	1,624.51	68.4511	1,624.51	72.5804	1,624.51	71.2756	1,624.51	76.0801	1,624.51	72.2484	1,624.51	77.1802	1,624.51	72.8032	1,624.51	74.9193	1,624.51	72.9734	1,624.51	69.3518	1,624.51	68.263	1,624.51	71.4936	1,624.51	66.6357	1,624.51	70.4147	1,624.51	69.8349	1,624.51	68.6447	1,624.51	67.0348	1,624.51	63.7484	1,624.51	63.8802	1,624.51	66.3598	1,624.51	61.0232	1,624.51	54.1866	1,624.51	69.6586	1,624.51	74.2426	1,624.51	73.3096	1,624.51	72.8302	1,624.51	79.0522	1,624.51	77.5364	1,624.51	82.0086
1,681.64	87.6882	1,681.64	84.97	1,681.64	86.4854	1,681.64	80.494	1,681.64	80.8741	1,681.64	75.4534	1,681.64	75.9193	1,681.64	74.1496	1,681.64	74.0818	1,681.64	75.9066	1,681.64	76.6425	1,681.64	77.0231	1,681.64	77.766	1,681.64	77.2696	1,681.64	77.1355	1,681.64	77.6268	1,681.64	76.2988	1,681.64	76.0553	1,681.64	75.1746	1,681.64	76.7555	1,681.64	73.4748	1,681.64	70.9472	1,681.64	65.5188	1,681.64	71.5611	1,681.64	66.8055	1,681.64	66.828	1,681.64	67.4215	1,681.64	67.5272	1,681.64	73.5422	1,681.64	68.0075	1,681.64	68.9039	1,681.64	72.868	1,681.64	72.8654	1,681.64	79.7234	1,681.64	79.955	1,681.64	82.5492
1,741.7	87.8316	1,741.7	85.8487	1,741.7	87.0546	1,741.7	82.0406	1,741.7	82.9607	1,741.7	77.2799	1,741.7	78.6253	1,741.7	75.3402	1,741.7	71.0101	1,741.7	77.745	1,741.7	78.7478	1,741.7	78.4266	1,741.7	79.8144	1,741.7	76.1575	1,741.7	78.0895	1,741.7	74.3613	1,741.7	76.3967	1,741.7	75.9408	1,741.7	77.0312	1,741.7	75.3974	1,741.7	75.0619	1,741.7	73.7982	1,741.7	75.2234	1,741.7	68.934	1,741.7	49.9926	1,741.7	61.6614	1,741.7	69.0412	1,741.7	68.6525	1,741.7	68.2303	1,741.7	67.8842	1,741.7	74.0128	1,741.7	73.5464	1,741.7	73.3174	1,741.7	81.1331	1,741.7	78.6062	1,741.7	83.7343
1,803.22	88.9378	1,803.22	86.5157	1,803.22	87.1597	1,803.22	83.0643	1,803.22	82.6249	1,803.22	80.067	1,803.22	74.6415	1,803.22	76.2089	1,803.22	74.8264	1,803.22	79.5453	1,803.22	74.6733	1,803.22	79.198	1,803.22	77.6831	1,803.22	77.0793	1,803.22	77.635	1,803.22	74.5184	1,803.22	75.2094	1,803.22	74.2958	1,803.22	73.8786	1,803.22	72.9636	1,803.22	75.0182	1,803.22	75.8845	1,803.22	75.0064	1,803.22	69.9396	1,803.22	71.1646	1,803.22	69.321	1,803.22	48.5196	1,803.22	60.9618	1,803.22	71.1334	1,803.22	68.5859	1,803.22	72.4233	1,803.22	66.3592	1,803.22	72.5841	1,803.22	79.6809	1,803.22	79.9765	1,803.22	82.6164
1,866.21	87.6692	1,866.21	86.1771	1,866.21	86.3654	1,866.21	81.8699	1,866.21	80.149	1,866.21	79.4521	1,866.21	79.7376	1,866.21	77.1993	1,866.21	72.1353	1,866.21	77.8115	1,866.21	75.8839	1,866.21	77.0875	1,866.21	79.1137	1,866.21	76.0784	1,866.21	78.124	1,866.21	73.4273	1,866.21	75.4428	1,866.21	71.5249	1,866.21	75.9764	1,866.21	74.4146	1,866.21	75.1328	1,866.21	76.8497	1,866.21	77.3996	1,866.21	68.3777	1,866.21	73.0939	1,866.21	71.1047	1,866.21	67.4365	1,866.21	69.7975	1,866.21	69.4719	1,866.21	68.3399	1,866.21	73.0065	1,866.21	68.3552	1,866.21	74.989	1,866.21	77.3161	1,866.21	79.3435	1,866.21	83.0385
1,932.13	87.825	1,932.13	85.6611	1,932.13	87.6772	1,932.13	80.658	1,932.13	82.8819	1,932.13	78.2612	1,932.13	79.4599	1,932.13	76.7913	1,932.13	78.4455	1,932.13	77.0801	1,932.13	76.7325	1,932.13	80.0596	1,932.13	79.4105	1,932.13	80.438	1,932.13	80.0251	1,932.13	77.2639	1,932.13	77.7886	1,932.13	60.2473	1,932.13	75.5121	1,932.13	74.1009	1,932.13	74.8447	1,932.13	78.091	1,932.13	75.5533	1,932.13	73.4841	1,932.13	67.5354	1,932.13	75.477	1,932.13	68.2501	1,932.13	68.059	1,932.13	65.1759	1,932.13	71.7208	1,932.13	65.4847	1,932.13	72.8901	1,932.13	53.8455	1,932.13	77.093	1,932.13	73.3719	1,932.13	79.9896
1,999.51	88.8538	1,999.51	87.6168	1,999.51	88.0536	1,999.51	81.8795	1,999.51	83.8966	1,999.51	78.3833	1,999.51	80.5102	1,999.51	74.4849	1,999.51	78.6819	1,999.51	77.602	1,999.51	78.7896	1,999.51	82.2597	1,999.51	82.003	1,999.51	81.8572	1,999.51	82.4793	1,999.51	79.7168	1,999.51	80.715	1,999.51	74.3963	1,999.51	76.6092	1,999.51	76.7366	1,999.51	76.4596	1,999.51	76.4575	1,999.51	76.678	1,999.51	73.5619	1,999.51	75.3641	1,999.51	71.0173	1,999.51	71.0361	1,999.51	66.2317	1,999.51	66.199	1,999.51	64.9779	1,999.51	62.5624	1,999.51	70.2947	1,999.51	69.0847	1,999.51	76.0749	1,999.51	72.2449	1,999.51	77.1713
2,069.82	88.9452	2,069.82	88.4326	2,069.82	88.359	2,069.82	83.2336	2,069.82	83.615	2,069.82	78.8285	2,069.82	78.4226	2,069.82	72.9218	2,069.82	75.2697	2,069.82	78.0943	2,069.82	77.4698	2,069.82	83.9885	2,069.82	83.7786	2,069.82	84.3036	2,069.82	84.3508	2,069.82	81.8774	2,069.82	82.0218	2,069.82	77.5755	2,069.82	78.1247	2,069.82	75.6926	2,069.82	77.4607	2,069.82	75.8694	2,069.82	76.6013	2,069.82	74.4303	2,069.82	76.3831	2,069.82	69.1491	2,069.82	73.5274	2,069.82	69.4348	2,069.82	68.0341	2,069.82	66.2435	2,069.82	66.0825	2,069.82	70.906	2,069.82	63.7465	2,069.82	76.4801	2,069.82	72.9451	2,069.82	76.5559
2,143.07	88.1312	2,143.07	87.5258	2,143.07	87.6936	2,143.07	82.4887	2,143.07	83.1841	2,143.07	77.009	2,143.07	75.1006	2,143.07	74.6871	2,143.07	70.7714	2,143.07	78.9909	2,143.07	77.2027	2,143.07	84.9545	2,143.07	83.5628	2,143.07	85.1003	2,143.07	84.447	2,143.07	82.7905	2,143.07	81.7006	2,143.07	78.9644	2,143.07	78.3392	2,143.07	77.6146	2,143.07	75.9395	2,143.07	77.1597	2,143.07	76.5317	2,143.07	74.7657	2,143.07	76.2532	2,143.07	68.8436	2,143.07	71.1778	2,143.07	71.5207	2,143.07	68.9054	2,143.07	55.9143	2,143.07	63.6116	2,143.07	53.9763	2,143.07	54.5982	2,143.07	71.0308	2,143.07	73.2638	2,143.07	72.4513
2,219.24	87.7767	2,219.24	87.4821	2,219.24	87.7909	2,219.24	81.481	2,219.24	84.0548	2,219.24	73.7276	2,219.24	75.2572	2,219.24	78.0445	2,219.24	77.9779	2,219.24	82.1959	2,219.24	80.7214	2,219.24	84.9419	2,219.24	84.5651	2,219.24	84.8305	2,219.24	85.0751	2,219.24	82.134	2,219.24	82.7821	2,219.24	78.8577	2,219.24	78.8891	2,219.24	77.093	2,219.24	77.1899	2,219.24	77.4485	2,219.24	76.9093	2,219.24	77.3342	2,219.24	75.4178	2,219.24	67.3717	2,219.24	69.8619	2,219.24	72.103	2,219.24	70.1008	2,219.24	64.3447	2,219.24	58.305	2,219.24	61.7208	2,219.24	56.4193	2,219.24	72.58	2,219.24	72.1234	2,219.24	69.3841
2,296.88	88.5028	2,296.88	87.7088	2,296.88	87.8119	2,296.88	81.831	2,296.88	83.8899	2,296.88	75.7827	2,296.88	75.7164	2,296.88	81.6978	2,296.88	82.0151	2,296.88	83.2225	2,296.88	83.0982	2,296.88	85.6513	2,296.88	85.872	2,296.88	84.6218	2,296.88	85.638	2,296.88	82.2857	2,296.88	83.6003	2,296.88	77.968	2,296.88	80.4987	2,296.88	76.2725	2,296.88	78.2338	2,296.88	76.8617	2,296.88	78.5079	2,296.88	76.7555	2,296.88	78.1194	2,296.88	68.0099	2,296.88	69.4398	2,296.88	69.9333	2,296.88	70.0618	2,296.88	64.2292	2,296.88	58.3909	2,296.88	62.6218	2,296.88	62.6439	2,296.88	71.4986	2,296.88	71.2875	2,296.88	69.8614
2,378.91	87.7454	2,378.91	86.4345	2,378.91	86.6208	2,378.91	81.2415	2,378.91	82.2266	2,378.91	76.7256	2,378.91	76.2331	2,378.91	82.9769	2,378.91	81.9149	2,378.91	83.8724	2,378.91	83.1585	2,378.91	86.7873	2,378.91	85.3336	2,378.91	85.712	2,378.91	85.5344	2,378.91	83.3219	2,378.91	81.9405	2,378.91	79.1819	2,378.91	76.8837	2,378.91	75.6755	2,378.91	76.2113	2,378.91	74.4953	2,378.91	76.4983	2,378.91	75.7007	2,378.91	76.8626	2,378.91	65.8144	2,378.91	71.0147	2,378.91	70.0541	2,378.91	69.9334	2,378.91	63.5024	2,378.91	65.8048	2,378.91	50.838	2,378.91	52.8205	2,378.91	69.2623	2,378.91	70.8843	2,378.91	67.8145
2,462.4	87.3156	2,462.4	84.6602	2,462.4	85.7206	2,462.4	79.7889	2,462.4	81.5578	2,462.4	78.8018	2,462.4	78.7095	2,462.4	83.1994	2,462.4	82.61	2,462.4	83.7193	2,462.4	83.4398	2,462.4	86.2658	2,462.4	85.1951	2,462.4	84.9999	2,462.4	85.4955	2,462.4	81.0383	2,462.4	82.8056	2,462.4	78.1006	2,462.4	79.1161	2,462.4	75.7414	2,462.4	74.2643	2,462.4	76.6552	2,462.4	76.8406	2,462.4	76.4443	2,462.4	75.6297	2,462.4	62.6207	2,462.4	62.1979	2,462.4	70.9351	2,462.4	69.6665	2,462.4	58.5996	2,462.4	65.5323	2,462.4	58.3959	2,462.4	65.424	2,462.4	68.4043	2,462.4	64.583	2,462.4	69.0369
2,548.83	87.8954	2,548.83	84.9715	2,548.83	85.6036	2,548.83	81.7604	2,548.83	81.343	2,548.83	81.1281	2,548.83	80.9585	2,548.83	82.9969	2,548.83	83.5071	2,548.83	83.4953	2,548.83	83.9327	2,548.83	85.07	2,548.83	85.4077	2,548.83	84.5186	2,548.83	85.5219	2,548.83	78.8154	2,548.83	82.8925	2,548.83	75.6993	2,548.83	79.3147	2,548.83	75.5119	2,548.83	76.3743	2,548.83	76.0561	2,548.83	76.1493	2,548.83	75.7564	2,548.83	75.4206	2,548.83	64.6536	2,548.83	66.3626	2,548.83	68.4916	2,548.83	68.0421	2,548.83	68.6876	2,548.83	67.4144	2,548.83	64.3054	2,548.83	67.828	2,548.83	66.6158	2,548.83	67.3697	2,548.83	63.719
2,639.65	87.5591	2,639.65	83.3722	2,639.65	84.4307	2,639.65	81.6286	2,639.65	80.9907	2,639.65	80.3716	2,639.65	81.406	2,639.65	83.297	2,639.65	82.1386	2,639.65	83.6721	2,639.65	82.6573	2,639.65	83.7045	2,639.65	83.4846	2,639.65	84.4099	2,639.65	83.7557	2,639.65	81.1496	2,639.65	81.3992	2,639.65	77.9059	2,639.65	77.9068	2,639.65	74.0961	2,639.65	75.0608	2,639.65	75.4909	2,639.65	75.2427	2,639.65	74.1915	2,639.65	74.7743	2,639.65	61.2718	2,639.65	67.483	2,639.65	71.0137	2,639.65	68.9486	2,639.65	68.718	2,639.65	66.9411	2,639.65	66.0934	2,639.65	68.3183	2,639.65	63.7077	2,639.65	67.5998	2,639.65	68.4337
2,731.93	87.066	2,731.93	82.3413	2,731.93	84.0053	2,731.93	81.503	2,731.93	81.3149	2,731.93	80.578	2,731.93	81.5996	2,731.93	83.0921	2,731.93	81.565	2,731.93	81.8539	2,731.93	82.8839	2,731.93	83.2728	2,731.93	82.8988	2,731.93	84.1788	2,731.93	84.6292	2,731.93	82.3562	2,731.93	82.1488	2,731.93	79.0975	2,731.93	78.8454	2,731.93	77.1434	2,731.93	75.1191	2,731.93	76.0625	2,731.93	74.7188	2,731.93	73.5418	2,731.93	73.277	2,731.93	52.7615	2,731.93	64.7627	2,731.93	67.1145	2,731.93	66.406	2,731.93	61.6545	2,731.93	66.4696	2,731.93	68.7644	2,731.93	65.4113	2,731.93	64.3312	2,731.93	65.342	2,731.93	68.4154
2,828.61	87.009	2,828.61	84.5216	2,828.61	84.5506	2,828.61	82.8695	2,828.61	83.2072	2,828.61	82.8281	2,828.61	82.4444	2,828.61	82.5216	2,828.61	82.8028	2,828.61	83.5367	2,828.61	83.2713	2,828.61	84.4579	2,828.61	84.4429	2,828.61	85.428	2,828.61	85.9197	2,828.61	82.8898	2,828.61	83.2334	2,828.61	78.1592	2,828.61	79.5303	2,828.61	76.4282	2,828.61	77.0707	2,828.61	74.5981	2,828.61	75.4825	2,828.61	71.9207	2,828.61	73.7822	2,828.61	57.1768	2,828.61	67.1117	2,828.61	60.4465	2,828.61	67.019	2,828.61	67.2785	2,828.61	67.4902	2,828.61	66.9223	2,828.61	61.8406	2,828.61	65.0765	2,828.61	63.5817	2,828.61	68.7119
2,928.22	85.7732	2,928.22	84.4618	2,928.22	85.0176	2,928.22	83.9146	2,928.22	83.5877	2,928.22	83.176	2,928.22	82.2393	2,928.22	82.4112	2,928.22	81.64	2,928.22	83.7152	2,928.22	82.9761	2,928.22	85.5938	2,928.22	84.4859	2,928.22	85.5691	2,928.22	84.6784	2,928.22	83.2233	2,928.22	81.1996	2,928.22	77.4661	2,928.22	76.6505	2,928.22	75.6021	2,928.22	74.7581	2,928.22	74.0282	2,928.22	76.0468	2,928.22	71.2623	2,928.22	72.2375	2,928.22	54.1316	2,928.22	66.1372	2,928.22	65.8272	2,928.22	67.4718	2,928.22	66.6791	2,928.22	68.2823	2,928.22	66.6889	2,928.22	61.6737	2,928.22	54.7226	2,928.22	64.0214	2,928.22	69.2129
3,030.76	84.4545	3,030.76	85.353	3,030.76	85.4141	3,030.76	83.5636	3,030.76	83.9121	3,030.76	82.9861	3,030.76	83.721	3,030.76	82.5078	3,030.76	82.4828	3,030.76	84.9205	3,030.76	83.9328	3,030.76	84.7134	3,030.76	83.6901	3,030.76	85.1596	3,030.76	84.8116	3,030.76	82.6541	3,030.76	81.9577	3,030.76	76.5686	3,030.76	77.3341	3,030.76	76.4061	3,030.76	74.7258	3,030.76	74.5637	3,030.76	74.2838	3,030.76	69.8444	3,030.76	72.491	3,030.76	48.6002	3,030.76	63.58	3,030.76	63.7907	3,030.76	66.2237	3,030.76	65.0203	3,030.76	65.2313	3,030.76	67.5285	3,030.76	66.1762	3,030.76	63.4904	3,030.76	57.7834	3,030.76	68.861
3,137.7	84.7764	3,137.7	86.3945	3,137.7	85.5323	3,137.7	84.2344	3,137.7	84.5021	3,137.7	83.5942	3,137.7	83.5285	3,137.7	83.215	3,137.7	82.4092	3,137.7	85.3611	3,137.7	84.9972	3,137.7	85.1821	3,137.7	84.3231	3,137.7	86.465	3,137.7	85.8864	3,137.7	82.3879	3,137.7	83.6171	3,137.7	78.5151	3,137.7	79.5194	3,137.7	76.938	3,137.7	75.035	3,137.7	73.5679	3,137.7	75.7372	3,137.7	71.199	3,137.7	75.5036	3,137.7	58.8404	3,137.7	62.6354	3,137.7	65.9901	3,137.7	65.11	3,137.7	64.13	3,137.7	65.3083	3,137.7	67.5917	3,137.7	67.3955	3,137.7	57.5325	3,137.7	46.5434	3,137.7	60.7459
3,249.02	83.9512	3,249.02	86.1266	3,249.02	85.886	3,249.02	84.4382	3,249.02	84.4517	3,249.02	83.019	3,249.02	82.9009	3,249.02	83.2112	3,249.02	82.8335	3,249.02	83.6776	3,249.02	84.283	3,249.02	84.5946	3,249.02	83.7347	3,249.02	86.0273	3,249.02	85.6738	3,249.02	80.6877	3,249.02	82.5279	3,249.02	79.0256	3,249.02	78.6267	3,249.02	75.1317	3,249.02	74.0059	3,249.02	73.6865	3,249.02	75.8287	3,249.02	71.7998	3,249.02	75.6428	3,249.02	57.0783	3,249.02	60.264	3,249.02	66.6998	3,249.02	62.9183	3,249.02	64.3802	3,249.02	63.5605	3,249.02	67.2435	3,249.02	69.2849	3,249.02	54.0868	3,249.02	55.5106	3,249.02	65.9556
3,363.28	84.2433	3,363.28	85.8018	3,363.28	85.1233	3,363.28	84.2158	3,363.28	84.4507	3,363.28	83.6935	3,363.28	82.8542	3,363.28	83.6607	3,363.28	83.3266	3,363.28	83.5231	3,363.28	83.716	3,363.28	83.8558	3,363.28	84.1998	3,363.28	84.9723	3,363.28	85.1434	3,363.28	81.4354	3,363.28	82.2584	3,363.28	76.7731	3,363.28	78.0277	3,363.28	70.0193	3,363.28	72.8796	3,363.28	75.8297	3,363.28	75.8648	3,363.28	72.2591	3,363.28	72.9067	3,363.28	63.099	3,363.28	64.7442	3,363.28	67.933	3,363.28	65.1831	3,363.28	55.1488	3,363.28	66.907	3,363.28	66.4865	3,363.28	68.3145	3,363.28	62.5511	3,363.28	59.5592	3,363.28	65.4474
3,481.93	85.253	3,481.93	85.6536	3,481.93	86.6018	3,481.93	84.4962	3,481.93	84.2908	3,481.93	84.4254	3,481.93	84.8396	3,481.93	83.5428	3,481.93	83.9124	3,481.93	83.7641	3,481.93	84.579	3,481.93	83.3833	3,481.93	83.9874	3,481.93	84.3039	3,481.93	85.132	3,481.93	81.7267	3,481.93	82.6726	3,481.93	77.6023	3,481.93	77.6893	3,481.93	72.3056	3,481.93	74.8351	3,481.93	74.8078	3,481.93	75.1999	3,481.93	70.5304	3,481.93	74.596	3,481.93	59.1235	3,481.93	63.6313	3,481.93	63.8565	3,481.93	60.4056	3,481.93	61.0641	3,481.93	67.7264	3,481.93	62.0925	3,481.93	60.8431	3,481.93	64.2638	3,481.93	64.3876	3,481.93	63.2652
3,604.98	85.8628	3,604.98	85.7013	3,604.98	85.9562	3,604.98	85.1365	3,604.98	84.803	3,604.98	85.1051	3,604.98	85.1776	3,604.98	83.8504	3,604.98	84.3841	3,604.98	83.4935	3,604.98	83.726	3,604.98	81.706	3,604.98	81.8385	3,604.98	84.1754	3,604.98	83.9863	3,604.98	82.1347	3,604.98	82.8476	3,604.98	77.426	3,604.98	76.9299	3,604.98	74.4056	3,604.98	73.1889	3,604.98	75.0371	3,604.98	74.457	3,604.98	71.2688	3,604.98	73.743	3,604.98	61.2371	3,604.98	61.2785	3,604.98	64.3788	3,604.98	61.9482	3,604.98	64.891	3,604.98	67.7028	3,604.98	62.2295	3,604.98	64.44	3,604.98	62.363	3,604.98	62.4531	3,604.98	60.4808
3,732.42	86.2977	3,732.42	84.9398	3,732.42	86.0364	3,732.42	85.7848	3,732.42	86.04	3,732.42	85.6856	3,732.42	85.6737	3,732.42	84.0545	3,732.42	85.0927	3,732.42	82.2665	3,732.42	82.5062	3,732.42	81.746	3,732.42	82.7968	3,732.42	83.7144	3,732.42	83.8008	3,732.42	82.3735	3,732.42	82.9154	3,732.42	76.2028	3,732.42	77.067	3,732.42	73.5167	3,732.42	72.5497	3,732.42	74.7593	3,732.42	72.589	3,732.42	69.961	3,732.42	74.7588	3,732.42	61.8472	3,732.42	67.2239	3,732.42	65.2485	3,732.42	66.678	3,732.42	66.2654	3,732.42	67.3226	3,732.42	64.1749	3,732.42	55.1316	3,732.42	61.8669	3,732.42	65.1257	3,732.42	60.4951
3,864.26	86.8905	3,864.26	85.3148	3,864.26	84.2038	3,864.26	86.6577	3,864.26	87.2153	3,864.26	85.8384	3,864.26	86.42	3,864.26	84.036	3,864.26	85.0546	3,864.26	82.5659	3,864.26	81.2448	3,864.26	81.9838	3,864.26	82.5899	3,864.26	84.3393	3,864.26	83.5142	3,864.26	82.4262	3,864.26	82.5566	3,864.26	77.1606	3,864.26	76.9317	3,864.26	73.8353	3,864.26	73.1295	3,864.26	73.9141	3,864.26	73.551	3,864.26	68.7936	3,864.26	74.3239	3,864.26	61.8771	3,864.26	64.8127	3,864.26	67.5891	3,864.26	70.785	3,864.26	68.8227	3,864.26	67.4488	3,864.26	66.0487	3,864.26	62.7832	3,864.26	63.819	3,864.26	62.7361	3,864.26	64.0427
4,000.49	87.4893	4,000.49	84.8085	4,000.49	83.9316	4,000.49	86.7446	4,000.49	87.273	4,000.49	86.2337	4,000.49	86.6055	4,000.49	83.5893	4,000.49	84.177	4,000.49	82.5858	4,000.49	81.6024	4,000.49	81.9933	4,000.49	82.5244	4,000.49	83.3277	4,000.49	83.45	4,000.49	82.4911	4,000.49	82.8801	4,000.49	75.4547	4,000.49	77.3962	4,000.49	71.8972	4,000.49	73.9563	4,000.49	74.9143	4,000.49	75.7717	4,000.49	70.6172	4,000.49	74.4648	4,000.49	64.5857	4,000.49	68.8048	4,000.49	67.5046	4,000.49	68.559	4,000.49	64.7527	4,000.49	66.6992	4,000.49	61.914	4,000.49	64.855	4,000.49	63.4439	4,000.49	62.6503	4,000.49	59.8217
4,141.11	87.6631	4,141.11	84.8496	4,141.11	84.6558	4,141.11	87.2197	4,141.11	86.3465	4,141.11	86.3385	4,141.11	86.8342	4,141.11	84.6395	4,141.11	84.2407	4,141.11	82.4193	4,141.11	83.2272	4,141.11	82.6986	4,141.11	81.8943	4,141.11	83.2685	4,141.11	82.716	4,141.11	82.6384	4,141.11	83.0984	4,141.11	73.7155	4,141.11	76.0458	4,141.11	71.3952	4,141.11	74.134	4,141.11	73.2031	4,141.11	75.1126	4,141.11	68.13	4,141.11	70.0732	4,141.11	70.0837	4,141.11	72.9879	4,141.11	64.4518	4,141.11	68	4,141.11	65.8537	4,141.11	60.9708	4,141.11	58.6121	4,141.11	65.147	4,141.11	61.893	4,141.11	64.5421	4,141.11	62.968
4,287.6	86.998	4,287.6	85.294	4,287.6	85.47	4,287.6	87.15	4,287.6	85.3325	4,287.6	86.9056	4,287.6	86.2429	4,287.6	85.8781	4,287.6	84.3238	4,287.6	82.1922	4,287.6	83.1718	4,287.6	83.4202	4,287.6	81.9189	4,287.6	82.1495	4,287.6	82.1304	4,287.6	81.6375	4,287.6	82.5422	4,287.6	72.8585	4,287.6	75.3217	4,287.6	72.6026	4,287.6	74.9372	4,287.6	73.4332	4,287.6	75.0928	4,287.6	70.4932	4,287.6	68.8702	4,287.6	68.0523	4,287.6	71.7474	4,287.6	57.3192	4,287.6	70.6803	4,287.6	65.2004	4,287.6	62.4408	4,287.6	63.2666	4,287.6	66.2516	4,287.6	64.4093	4,287.6	60.8406	4,287.6	64.6433
4,438.48	86.3067	4,438.48	84.8406	4,438.48	87.4044	4,438.48	85.1373	4,438.48	85.1155	4,438.48	86.1095	4,438.48	86.455	4,438.48	83.9898	4,438.48	84.9426	4,438.48	80.7892	4,438.48	83.5007	4,438.48	81.1661	4,438.48	81.8744	4,438.48	81.258	4,438.48	81.8171	4,438.48	79.8753	4,438.48	81.4925	4,438.48	73.2311	4,438.48	75.8913	4,438.48	73.1413	4,438.48	72.9258	4,438.48	71.8969	4,438.48	70.9991	4,438.48	61.896	4,438.48	66.7173	4,438.48	65.785	4,438.48	71.8764	4,438.48	66.5096	4,438.48	67.0892	4,438.48	68.929	4,438.48	65.8469	4,438.48	66.9383	4,438.48	65.7061	4,438.48	65.429	4,438.48	62.29	4,438.48	62.762
4,595.21	86.5007	4,595.21	85.4404	4,595.21	87.0017	4,595.21	84.6689	4,595.21	85.4493	4,595.21	86.1783	4,595.21	86.7738	4,595.21	82.4741	4,595.21	86.5185	4,595.21	82.3472	4,595.21	83.7974	4,595.21	77.9311	4,595.21	80.2954	4,595.21	80.0386	4,595.21	81.912	4,595.21	80.9195	4,595.21	80.554	4,595.21	73.9189	4,595.21	76.1539	4,595.21	73.3127	4,595.21	71.467	4,595.21	69.6357	4,595.21	69.96	4,595.21	59.6918	4,595.21	64.6087	4,595.21	64.5436	4,595.21	71.3889	4,595.21	67.2757	4,595.21	68.8735	4,595.21	62.155	4,595.21	62.2403	4,595.21	66.2357	4,595.21	64.997	4,595.21	65.7888	4,595.21	62.5327	4,595.21	64.8591
4,756.35	85.7554	4,756.35	87.3251	4,756.35	85.5991	4,756.35	84.5157	4,756.35	86.5172	4,756.35	85.0761	4,756.35	87.5077	4,756.35	84.0321	4,756.35	86.6152	4,756.35	79.8501	4,756.35	82.8558	4,756.35	77.9337	4,756.35	78.2045	4,756.35	79.918	4,756.35	80.2148	4,756.35	79.5521	4,756.35	81.1336	4,756.35	72.4498	4,756.35	76.1418	4,756.35	74.6799	4,756.35	72.4664	4,756.35	69.7324	4,756.35	70.3225	4,756.35	59.9452	4,756.35	62.7418	4,756.35	66.6529	4,756.35	71.0182	4,756.35	61.0515	4,756.35	67.2472	4,756.35	60.8457	4,756.35	58.0887	4,756.35	65.2024	4,756.35	61.8417	4,756.35	61.6264	4,756.35	55.3638	4,756.35	58.0117
4,924.8	84.6945	4,924.8	87.4743	4,924.8	85.8584	4,924.8	84.7523	4,924.8	85.5598	4,924.8	86.7465	4,924.8	87.3624	4,924.8	86.4924	4,924.8	85.5635	4,924.8	82.5149	4,924.8	81.2336	4,924.8	79.1952	4,924.8	79.6013	4,924.8	81.5568	4,924.8	80.8363	4,924.8	77.6478	4,924.8	81.1961	4,924.8	77.039	4,924.8	77.362	4,924.8	64.1895	4,924.8	71.3493	4,924.8	65.3109	4,924.8	66.5812	4,924.8	60.0085	4,924.8	63.2532	4,924.8	65.0862	4,924.8	71.2044	4,924.8	58.7022	4,924.8	66.7603	4,924.8	64.9096	4,924.8	63.4936	4,924.8	66.2016	4,924.8	59.0358	4,924.8	65.5762	4,924.8	62.967	4,924.8	60.5016
5,097.66	85.501	5,097.66	86.9026	5,097.66	87.4617	5,097.66	85.989	5,097.66	85.049	5,097.66	87.3186	5,097.66	87.1038	5,097.66	85.7125	5,097.66	85.1399	5,097.66	82.4187	5,097.66	81.3437	5,097.66	79.3158	5,097.66	80.4751	5,097.66	79.9303	5,097.66	81.069	5,097.66	78.6443	5,097.66	81.371	5,097.66	77.26	5,097.66	78.2383	5,097.66	69.8141	5,097.66	67.2622	5,097.66	66.5199	5,097.66	65.2511	5,097.66	62.3534	5,097.66	68.6293	5,097.66	64.9849	5,097.66	70.1819	5,097.66	62.7151	5,097.66	61.4538	5,097.66	63.8175	5,097.66	61.5628	5,097.66	66.2091	5,097.66	63.9647	5,097.66	58.6964	5,097.66	62.9326	5,097.66	60.9526
5,277.83	84.7711	5,277.83	85.5448	5,277.83	86.612	5,277.83	86.4942	5,277.83	85.2718	5,277.83	86.769	5,277.83	85.6731	5,277.83	83.4688	5,277.83	85.5073	5,277.83	81.077	5,277.83	83.1832	5,277.83	79.0758	5,277.83	79.3922	5,277.83	80.5715	5,277.83	80.7326	5,277.83	81.7217	5,277.83	82.0168	5,277.83	76.2434	5,277.83	76.8232	5,277.83	71.9496	5,277.83	66.4659	5,277.83	69.2672	5,277.83	62.6855	5,277.83	70.3735	5,277.83	69.6379	5,277.83	60.6694	5,277.83	64.3604	5,277.83	64.8562	5,277.83	56.3554	5,277.83	61.8113	5,277.83	60.3828	5,277.83	62.6869	5,277.83	67.6551	5,277.83	62.651	5,277.83	58.5043	5,277.83	60.9291
5,463.87	84.7064	5,463.87	85.5587	5,463.87	84.31	5,463.87	86.16	5,463.87	86.1814	5,463.87	86.1794	5,463.87	85.1661	5,463.87	83.7316	5,463.87	85.4132	5,463.87	80.9984	5,463.87	83.4397	5,463.87	79.8375	5,463.87	80.0418	5,463.87	79.0995	5,463.87	78.1945	5,463.87	81.1223	5,463.87	81.2344	5,463.87	70.4708	5,463.87	74.4281	5,463.87	72.078	5,463.87	69.1521	5,463.87	69.6068	5,463.87	65.5141	5,463.87	71.6514	5,463.87	67.6767	5,463.87	49.548	5,463.87	62.3164	5,463.87	60.3094	5,463.87	58.5071	5,463.87	54.0578	5,463.87	53.446	5,463.87	65.755	5,463.87	63.9579	5,463.87	59.3917	5,463.87	57.0909	5,463.87	60.6988
5,657.23	85.4279	5,657.23	86.1016	5,657.23	85.0384	5,657.23	85.5441	5,657.23	86.8356	5,657.23	84.2341	5,657.23	85.6571	5,657.23	84.6677	5,657.23	84.7551	5,657.23	81.4544	5,657.23	82.4309	5,657.23	79.2518	5,657.23	80.5942	5,657.23	79.039	5,657.23	78.1933	5,657.23	80.7261	5,657.23	79.8079	5,657.23	75.747	5,657.23	74.6374	5,657.23	71.6131	5,657.23	70.091	5,657.23	67.6834	5,657.23	60.0962	5,657.23	67.9414	5,657.23	66.5543	5,657.23	60.4241	5,657.23	49.8454	5,657.23	52.7399	5,657.23	59.5979	5,657.23	58.2197	5,657.23	59.9743	5,657.23	64.6974	5,657.23	64.1181	5,657.23	49.3435	5,657.23	52.5557	5,657.23	56.4855
5,856.45	86.148	5,856.45	86.1851	5,856.45	86.42	5,856.45	87.2704	5,856.45	86.7042	5,856.45	84.9257	5,856.45	85.0644	5,856.45	86.3317	5,856.45	84.6057	5,856.45	83.2282	5,856.45	81.4935	5,856.45	78.643	5,856.45	79.3304	5,856.45	78.7436	5,856.45	78.6476	5,856.45	78.7938	5,856.45	76.8636	5,856.45	75.9441	5,856.45	74.8252	5,856.45	60.73	5,856.45	66.8587	5,856.45	66.7169	5,856.45	61.6937	5,856.45	68.0903	5,856.45	64.3933	5,856.45	59.2363	5,856.45	59.8156	5,856.45	60.8627	5,856.45	58.5526	5,856.45	61.5354	5,856.45	53.9717	5,856.45	61.2499	5,856.45	64.4187	5,856.45	62.1446	5,856.45	60.7403	5,856.45	52.3141
6,062.99	85.9931	6,062.99	86.0253	6,062.99	85.0769	6,062.99	87.317	6,062.99	85.6718	6,062.99	85.3963	6,062.99	81.5637	6,062.99	86.7012	6,062.99	84.479	6,062.99	83.608	6,062.99	81.4897	6,062.99	78.3029	6,062.99	76.7666	6,062.99	74.7081	6,062.99	73.0961	6,062.99	79.2295	6,062.99	77.5106	6,062.99	73.984	6,062.99	71.9169	6,062.99	66.6046	6,062.99	66.7567	6,062.99	70.2784	6,062.99	60.2581	6,062.99	68.4063	6,062.99	63.9087	6,062.99	55.9352	6,062.99	62.1835	6,062.99	63.6136	6,062.99	59.1402	6,062.99	61.4196	6,062.99	55.2151	6,062.99	59.4128	6,062.99	62.802	6,062.99	57.9908	6,062.99	45.9289	6,062.99	57.3775
6,276.86	86.4699	6,276.86	86.3913	6,276.86	85.1405	6,276.86	85.9345	6,276.86	84.9818	6,276.86	86.3625	6,276.86	83.0334	6,276.86	85.9361	6,276.86	84.0335	6,276.86	83.8134	6,276.86	81.1903	6,276.86	80.3847	6,276.86	77.4181	6,276.86	75.9873	6,276.86	76.6051	6,276.86	79.0678	6,276.86	76.2709	6,276.86	74.8503	6,276.86	73.765	6,276.86	72.1554	6,276.86	61.7972	6,276.86	70.5562	6,276.86	57.7823	6,276.86	66.8084	6,276.86	43.4231	6,276.86	62.1917	6,276.86	57.9059	6,276.86	59.5466	6,276.86	57.4666	6,276.86	53.6512	6,276.86	56.8502	6,276.86	58.9252	6,276.86	60.5241	6,276.86	52.6581	6,276.86	42.3694	6,276.86	55.3721
6,498.05	86.6162	6,498.05	86.3425	6,498.05	86.9297	6,498.05	85.0253	6,498.05	84.5129	6,498.05	85.3101	6,498.05	84.7769	6,498.05	84.6762	6,498.05	82.5064	6,498.05	82.7938	6,498.05	81.0302	6,498.05	81.5005	6,498.05	77.9153	6,498.05	78.5745	6,498.05	73.7202	6,498.05	77.988	6,498.05	71.9365	6,498.05	75.6073	6,498.05	72.9104	6,498.05	71.2391	6,498.05	65.9887	6,498.05	61.4413	6,498.05	63.3656	6,498.05	61.1645	6,498.05	61.7264	6,498.05	65.518	6,498.05	61.0634	6,498.05	62.7163	6,498.05	59.0907	6,498.05	50.1059	6,498.05	59.7978	6,498.05	61.512	6,498.05	49.7367	6,498.05	55.8758	6,498.05	51.0814	6,498.05	53.2654
6,726.56	87.0884	6,726.56	86.0167	6,726.56	86.3479	6,726.56	85.8799	6,726.56	85.2502	6,726.56	84.2818	6,726.56	83.6135	6,726.56	85.2179	6,726.56	81.9788	6,726.56	82.8544	6,726.56	82.772	6,726.56	81.8255	6,726.56	76.2383	6,726.56	78.4587	6,726.56	69.0888	6,726.56	74.45	6,726.56	72.6075	6,726.56	76.2402	6,726.56	71.638	6,726.56	67.2641	6,726.56	62.7771	6,726.56	53.7419	6,726.56	56.7907	6,726.56	55.1579	6,726.56	60.673	6,726.56	65.3793	6,726.56	63.373	6,726.56	62.8357	6,726.56	60.1685	6,726.56	64.1488	6,726.56	50.6879	6,726.56	56.3146	6,726.56	56.5824	6,726.56	58.0582	6,726.56	50.1161	6,726.56	48.8358
6,963.87	87.3083	6,963.87	86.0883	6,963.87	85.3833	6,963.87	85.7456	6,963.87	85.5215	6,963.87	84.8202	6,963.87	83.1076	6,963.87	84.8471	6,963.87	82.863	6,963.87	83.7466	6,963.87	83.8498	6,963.87	79.5379	6,963.87	76.7714	6,963.87	75.2759	6,963.87	76.9211	6,963.87	75.0746	6,963.87	75.9594	6,963.87	73.7795	6,963.87	74.2636	6,963.87	61.4388	6,963.87	63.455	6,963.87	60.0137	6,963.87	57.2797	6,963.87	63.2694	6,963.87	57.9536	6,963.87	60.3662	6,963.87	63.5301	6,963.87	61.7642	6,963.87	60.7237	6,963.87	63.6802	6,963.87	59.8936	6,963.87	57.8473	6,963.87	57.0578	6,963.87	55.6496	6,963.87	42.7505	6,963.87	46.4631
7,209.96	87.794	7,209.96	86.4408	7,209.96	86.9105	7,209.96	85.1443	7,209.96	85.0335	7,209.96	84.9145	7,209.96	85.2196	7,209.96	83.4676	7,209.96	82.5969	7,209.96	84.4112	7,209.96	82.4095	7,209.96	79.1731	7,209.96	78.8678	7,209.96	77.4995	7,209.96	80.4225	7,209.96	75.8229	7,209.96	74.9411	7,209.96	72.3046	7,209.96	73.8491	7,209.96	59.2958	7,209.96	58.9443	7,209.96	66.2165	7,209.96	49.7226	7,209.96	62.4077	7,209.96	53.5995	7,209.96	43.529	7,209.96	64.1811	7,209.96	53.3386	7,209.96	56.9576	7,209.96	62.5687	7,209.96	56.2043	7,209.96	52.115	7,209.96	53.4602	7,209.96	55.933	7,209.96	45.3394	7,209.96	43.5324
7,464.84	87.697	7,464.84	86.6597	7,464.84	87.0782	7,464.84	85.4953	7,464.84	85.0154	7,464.84	84.6356	7,464.84	84.8956	7,464.84	83.1051	7,464.84	83.4669	7,464.84	84.3747	7,464.84	81.7275	7,464.84	80.6331	7,464.84	77.5536	7,464.84	78.2659	7,464.84	77.1696	7,464.84	78.3768	7,464.84	76.5643	7,464.84	71.4388	7,464.84	74.1914	7,464.84	63.8063	7,464.84	63.551	7,464.84	66.1333	7,464.84	61.5853	7,464.84	62.7206	7,464.84	59.2994	7,464.84	52.5247	7,464.84	53.421	7,464.84	55.8202	7,464.84	55.515	7,464.84	60.2252	7,464.84	55.7994	7,464.84	56.3605	7,464.84	49.4544	7,464.84	56.615	7,464.84	49.2228	7,464.84	53.6425
7,727.05	87.5624	7,727.05	86.9396	7,727.05	86.4667	7,727.05	85.2104	7,727.05	85.409	7,727.05	84.2721	7,727.05	83.9378	7,727.05	83.236	7,727.05	83.3676	7,727.05	83.6963	7,727.05	82.438	7,727.05	80.645	7,727.05	78.9698	7,727.05	78.6489	7,727.05	75.9579	7,727.05	79.1388	7,727.05	78.4424	7,727.05	73.7606	7,727.05	74.8938	7,727.05	68.0291	7,727.05	67.68	7,727.05	62.0726	7,727.05	61.7805	7,727.05	55.653	7,727.05	56.8644	7,727.05	58.4628	7,727.05	63.3548	7,727.05	55.6207	7,727.05	51.9916	7,727.05	60.8899	7,727.05	53.4719	7,727.05	52.7796	7,727.05	58.2779	7,727.05	51.6845	7,727.05	55.7285	7,727.05	51.4923
7,999.51	86.7085	7,999.51	86.6807	7,999.51	87.2805	7,999.51	84.7029	7,999.51	84.1115	7,999.51	84.8083	7,999.51	85.2125	7,999.51	83.4669	7,999.51	81.5766	7,999.51	83.1582	7,999.51	81.1223	7,999.51	79.9877	7,999.51	80.3388	7,999.51	79.1656	7,999.51	76.4725	7,999.51	78.5992	7,999.51	78.5492	7,999.51	73.6953	7,999.51	72.7214	7,999.51	68.7347	7,999.51	69.2449	7,999.51	60.6562	7,999.51	59.2884	7,999.51	59.6059	7,999.51	56.999	7,999.51	50.4706	7,999.51	63.9164	7,999.51	53.259	7,999.51	55.3469	7,999.51	60.0947	7,999.51	46.7838	7,999.51	52.0683	7,999.51	59.2398	7,999.51	59.4458	7,999.51	51.3932	7,999.51	50.4713
8,282.23	86.8125	8,282.23	86.4099	8,282.23	86.8346	8,282.23	84.6958	8,282.23	85.0385	8,282.23	85.5092	8,282.23	85.39	8,282.23	83.0679	8,282.23	82.8676	8,282.23	83.1605	8,282.23	81.7271	8,282.23	78.8009	8,282.23	80.0057	8,282.23	78.7418	8,282.23	76.4462	8,282.23	77.5647	8,282.23	78.0782	8,282.23	71.0026	8,282.23	71.0942	8,282.23	68.1014	8,282.23	67.8346	8,282.23	60.9956	8,282.23	60.1832	8,282.23	56.8535	8,282.23	63.8088	8,282.23	54.5567	8,282.23	62.0894	8,282.23	56.5782	8,282.23	49.9851	8,282.23	60.7781	8,282.23	52.4095	8,282.23	48.5201	8,282.23	56.5767	8,282.23	57.3936	8,282.23	42.5701	8,282.23	46.4038
8,573.73	87.2177	8,573.73	86.2426	8,573.73	86.1544	8,573.73	85.8644	8,573.73	86.0213	8,573.73	84.7016	8,573.73	84.3444	8,573.73	83.7387	8,573.73	83.3487	8,573.73	82.2152	8,573.73	82.3639	8,573.73	79.0324	8,573.73	79.9337	8,573.73	78.1647	8,573.73	76.8845	8,573.73	75.7415	8,573.73	75.5995	8,573.73	70.4699	8,573.73	71.5886	8,573.73	64.2108	8,573.73	64.237	8,573.73	63.853	8,573.73	60.8334	8,573.73	59.9844	8,573.73	63.2432	8,573.73	59.0716	8,573.73	50.9828	8,573.73	45.5338	8,573.73	56.1923	8,573.73	55.0816	8,573.73	46.7894	8,573.73	52.183	8,573.73	59.9171	8,573.73	45.9168	8,573.73	43.065	8,573.73	50.8701
8,876.95	86.7806	8,876.95	86.156	8,876.95	86.3768	8,876.95	85.829	8,876.95	85.7274	8,876.95	85.3938	8,876.95	84.3665	8,876.95	83.6688	8,876.95	83.2304	8,876.95	81.1707	8,876.95	80.9974	8,876.95	78.3954	8,876.95	80.7617	8,876.95	77.2336	8,876.95	76.9441	8,876.95	76.048	8,876.95	75.9048	8,876.95	71.741	8,876.95	71.8986	8,876.95	62.4984	8,876.95	67.1442	8,876.95	65.8594	8,876.95	59.265	8,876.95	59.7569	8,876.95	61.6716	8,876.95	55.3723	8,876.95	51.106	8,876.95	47.8384	8,876.95	54.9605	8,876.95	52.857	8,876.95	44.3625	8,876.95	55.6072	8,876.95	55.8571	8,876.95	50.741	8,876.95	43.4224	8,876.95	54.3212
9,188.96	86.6387	9,188.96	86.5454	9,188.96	86.2085	9,188.96	86.0236	9,188.96	85.7386	9,188.96	85.4756	9,188.96	84.1798	9,188.96	83.1556	9,188.96	83.4502	9,188.96	82.3251	9,188.96	81.3271	9,188.96	78.8206	9,188.96	80.1647	9,188.96	75.892	9,188.96	76.245	9,188.96	75.5256	9,188.96	74.6128	9,188.96	68.0587	9,188.96	70.0745	9,188.96	58.278	9,188.96	63.9017	9,188.96	66.6074	9,188.96	57.2328	9,188.96	57.8834	9,188.96	63.9473	9,188.96	60.717	9,188.96	57.2353	9,188.96	55.7173	9,188.96	48.8769	9,188.96	48.9343	9,188.96	49.2611	9,188.96	54.4172	9,188.96	54.608	9,188.96	55.1492	9,188.96	48.3816	9,188.96	55.807
9,514.16	86.6339	9,514.16	86.0987	9,514.16	86.1099	9,514.16	85.6847	9,514.16	85.2771	9,514.16	84.2267	9,514.16	83.9049	9,514.16	84.1277	9,514.16	84.5842	9,514.16	81.1966	9,514.16	81.9452	9,514.16	78.3559	9,514.16	80.6939	9,514.16	74.7302	9,514.16	74.5631	9,514.16	74.9044	9,514.16	73.9648	9,514.16	71.6418	9,514.16	71.808	9,514.16	62.5684	9,514.16	64.2228	9,514.16	64.7534	9,514.16	60.6521	9,514.16	59.0154	9,514.16	62.2726	9,514.16	52.2443	9,514.16	57.8864	9,514.16	56.7344	9,514.16	39.3077	9,514.16	55.1303	9,514.16	50.9841	9,514.16	53.2732	9,514.16	51.1324	9,514.16	53.2974	9,514.16	48.8223	9,514.16	51.5514
9,849.61	86.1415	9,849.61	85.9632	9,849.61	86.1428	9,849.61	85.1089	9,849.61	85.324	9,849.61	84.562	9,849.61	84.6171	9,849.61	84.0255	9,849.61	84.7665	9,849.61	80.0438	9,849.61	83.1444	9,849.61	77.6446	9,849.61	80.5385	9,849.61	71.964	9,849.61	75.1039	9,849.61	73.331	9,849.61	72.7607	9,849.61	71.6138	9,849.61	72.1931	9,849.61	62.6934	9,849.61	65.8278	9,849.61	61.0995	9,849.61	54.1162	9,849.61	54.5175	9,849.61	63.1577	9,849.61	56.4034	9,849.61	62.7472	9,849.61	56.8647	9,849.61	50.9363	9,849.61	55.6826	9,849.61	50.3311	9,849.61	43.7307	9,849.61	50.7233	9,849.61	40.8674	9,849.61	45.476	9,849.61	55.9435
10,196.8	85.5059	10,196.8	86.3956	10,196.8	86.7525	10,196.8	84.2585	10,196.8	85.5451	10,196.8	84.4984	10,196.8	85.8106	10,196.8	84.2118	10,196.8	84.9008	10,196.8	81.2978	10,196.8	84.7264	10,196.8	79.0588	10,196.8	81.2462	10,196.8	72.4839	10,196.8	78.1135	10,196.8	75.495	10,196.8	73.9495	10,196.8	73.1246	10,196.8	74.3358	10,196.8	61.9668	10,196.8	65.5478	10,196.8	60.3358	10,196.8	59.042	10,196.8	54.3345	10,196.8	59.401	10,196.8	52.7028	10,196.8	60.6133	10,196.8	51.0811	10,196.8	52.173	10,196.8	54.5111	10,196.8	48.4816	10,196.8	51.6146	10,196.8	51.836	10,196.8	51.3504	10,196.8	52.9193	10,196.8	56.3503
10,555.7	85.8457	10,555.7	86.4728	10,555.7	86.3876	10,555.7	84.8596	10,555.7	86.7114	10,555.7	84.1749	10,555.7	85.7843	10,555.7	84.6961	10,555.7	85.0089	10,555.7	81.1837	10,555.7	83.8655	10,555.7	79.8147	10,555.7	81.816	10,555.7	73.8742	10,555.7	78.383	10,555.7	75.541	10,555.7	74.5261	10,555.7	72.0885	10,555.7	74.0677	10,555.7	61.66	10,555.7	63.9873	10,555.7	59.535	10,555.7	55.4067	10,555.7	46.7144	10,555.7	48.2219	10,555.7	47.3826	10,555.7	51.4074	10,555.7	53.1481	10,555.7	52.7704	10,555.7	42.38	10,555.7	43.6599	10,555.7	52.7286	10,555.7	51.0138	10,555.7	54.2608	10,555.7	54.2445	10,555.7	55.8437
10,927.7	86.6349	10,927.7	86.7677	10,927.7	86.6043	10,927.7	85.6409	10,927.7	86.2104	10,927.7	84.7047	10,927.7	86.1081	10,927.7	83.5115	10,927.7	84.6334	10,927.7	81.6861	10,927.7	82.934	10,927.7	80.0243	10,927.7	81.1128	10,927.7	73.3417	10,927.7	77.5389	10,927.7	73.1872	10,927.7	72.4125	10,927.7	70.9977	10,927.7	72.3569	10,927.7	59.2779	10,927.7	64.1356	10,927.7	57.3927	10,927.7	55.0494	10,927.7	54.0337	10,927.7	59.0892	10,927.7	53.7404	10,927.7	57.9753	10,927.7	55.0888	10,927.7	43.4461	10,927.7	51.0216	10,927.7	55.3326	10,927.7	50.894	10,927.7	52.0741	10,927.7	52.0266	10,927.7	51.7699	10,927.7	52.6124
11,313	86.9793	11,313	86.8655	11,313	87.2802	11,313	86.144	11,313	86.1577	11,313	85.1451	11,313	85.3717	11,313	83.1841	11,313	83.5739	11,313	82.7139	11,313	81.3518	11,313	79.9067	11,313	79.2082	11,313	73.2499	11,313	75.1324	11,313	70.6066	11,313	68.8237	11,313	68.5345	11,313	69.1895	11,313	56.897	11,313	59.4978	11,313	49.3584	11,313	55.4416	11,313	56.0357	11,313	57.6333	11,313	49.8567	11,313	54.6856	11,313	56.1119	11,313	46.8463	11,313	50.785	11,313	49.5016	11,313	49.3088	11,313	42.1644	11,313	44.364	11,313	43.2139	11,313	50.0719
11,712.9	87.9807	11,712.9	87.7365	11,712.9	87.7723	11,712.9	86.7357	11,712.9	87.0572	11,712.9	84.8396	11,712.9	85.0937	11,712.9	82.4657	11,712.9	82.9407	11,712.9	81.7473	11,712.9	80.254	11,712.9	78.4288	11,712.9	76.7878	11,712.9	71.5992	11,712.9	71.0696	11,712.9	68.1106	11,712.9	64.2903	11,712.9	65.5541	11,712.9	64.4796	11,712.9	53.8828	11,712.9	56.3752	11,712.9	54.9048	11,712.9	51.1891	11,712.9	49.848	11,712.9	55.5893	11,712.9	46.4179	11,712.9	52.3467	11,712.9	40.949	11,712.9	39.4909	11,712.9	53.512	11,712.9	34.7692	11,712.9	54.6444	11,712.9	51.466	11,712.9	41.7194	11,712.9	46.0749	11,712.9	40.551
12,126	87.7659	12,126	87.361	12,126	87.6417	12,126	86.0379	12,126	86.4744	12,126	84.2869	12,126	84.3409	12,126	81.0065	12,126	81.3663	12,126	80.0164	12,126	78.2803	12,126	74.8276	12,126	72.3383	12,126	68.1949	12,126	61.4585	12,126	63.572	12,126	58.3539	12,126	61.4857	12,126	56.353	12,126	53.6788	12,126	53.9872	12,126	51.2897	12,126	41.3484	12,126	47.445	12,126	49.0582	12,126	52.2498	12,126	45.2933	12,126	40.7317	12,126	42.9586	12,126	51.8375	12,126	51.9799	12,126	29.7487	12,126	46.7342	12,126	46.0176	12,126	30.1494	12,126	51.7998
12,553.7	88.1519	12,553.7	87.4829	12,553.7	87.6242	12,553.7	86.437	12,553.7	86.7558	12,553.7	83.4062	12,553.7	83.7249	12,553.7	80.8543	12,553.7	80.4498	12,553.7	77.426	12,553.7	75.9387	12,553.7	71.9558	12,553.7	67.9748	12,553.7	65.5884	12,553.7	57.248	12,553.7	54.2458	12,553.7	53.3388	12,553.7	55.7952	12,553.7	45.0985	12,553.7	52.5361	12,553.7	47.073	12,553.7	52.9154	12,553.7	41.153	12,553.7	52.1421	12,553.7	45.7761	12,553.7	56.3188	12,553.7	48.7568	12,553.7	44.7415	12,553.7	49.131	12,553.7	46.9259	12,553.7	46.4531	12,553.7	51.352	12,553.7	54.2683	12,553.7	47.0003	12,553.7	45.2052	12,553.7	43.5581
12,996.1	88.1609	12,996.1	87.3789	12,996.1	87.8033	12,996.1	86.1444	12,996.1	86.5014	12,996.1	83.4709	12,996.1	83.7133	12,996.1	79.5474	12,996.1	80.1416	12,996.1	75.6842	12,996.1	75.1172	12,996.1	71.0343	12,996.1	68.8679	12,996.1	63.4688	12,996.1	56.7886	12,996.1	48.0217	12,996.1	61.8948	12,996.1	51.0723	12,996.1	55.7885	12,996.1	47.445	12,996.1	46.6334	12,996.1	52.6466	12,996.1	46.6826	12,996.1	42.714	12,996.1	41.2462	12,996.1	52.2934	12,996.1	39.5444	12,996.1	42.872	12,996.1	41.7074	12,996.1	51.734	12,996.1	49.2229	12,996.1	50.2781	12,996.1	38.0045	12,996.1	49.2266	12,996.1	34.2431	12,996.1	50.8224
13,454.6	88.6301	13,454.6	87.5563	13,454.6	88.298	13,454.6	85.9595	13,454.6	86.8726	13,454.6	83.0702	13,454.6	84.2422	13,454.6	78.6687	13,454.6	80.267	13,454.6	75.6724	13,454.6	75.1919	13,454.6	69.1006	13,454.6	68.0789	13,454.6	61.4327	13,454.6	62.8217	13,454.6	56.2295	13,454.6	63.2481	13,454.6	47.6194	13,454.6	60.4101	13,454.6	32.6741	13,454.6	50.6832	13,454.6	40.9787	13,454.6	33.2143	13,454.6	40.7346	13,454.6	42.8309	13,454.6	46.627	13,454.6	47.252	13,454.6	40.3502	13,454.6	39.836	13,454.6	45.7924	13,454.6	44.6872	13,454.6	53.2541	13,454.6	43.1698	13,454.6	47.6756	13,454.6	42.7456	13,454.6	46.6431
13,929.2	88.5331	13,929.2	87.5183	13,929.2	88.423	13,929.2	85.5083	13,929.2	86.7154	13,929.2	82.1701	13,929.2	83.743	13,929.2	76.7348	13,929.2	79.32	13,929.2	72.6113	13,929.2	74.2809	13,929.2	66.9548	13,929.2	66.6384	13,929.2	57.7502	13,929.2	64.6854	13,929.2	51.2396	13,929.2	64.2244	13,929.2	39.8519	13,929.2	60.1316	13,929.2	49.6515	13,929.2	51.2235	13,929.2	50.546	13,929.2	41.8566	13,929.2	43.8937	13,929.2	46.3639	13,929.2	54.8088	13,929.2	53.3747	13,929.2	45.3403	13,929.2	36.5254	13,929.2	46.14	13,929.2	49.2362	13,929.2	50.8989	13,929.2	47.8775	13,929.2	44.8088	13,929.2	43.584	13,929.2	43.4157
14,419.9	87.9374	14,419.9	86.7577	14,419.9	87.5764	14,419.9	84.6454	14,419.9	85.9165	14,419.9	79.9453	14,419.9	82.7942	14,419.9	75.3756	14,419.9	77.7543	14,419.9	68.4211	14,419.9	72.5417	14,419.9	64.0147	14,419.9	65.8362	14,419.9	55.166	14,419.9	63.998	14,419.9	49.6684	14,419.9	63.3527	14,419.9	47.629	14,419.9	60.1218	14,419.9	51.6663	14,419.9	53.723	14,419.9	40.4851	14,419.9	41.8481	14,419.9	27.8595	14,419.9	43.8513	14,419.9	51.6408	14,419.9	48.9372	14,419.9	47.5854	14,419.9	38.8704	14,419.9	47.7353	14,419.9	40.5188	14,419.9	54.3035	14,419.9	51.9705	14,419.9	45.0031	14,419.9	47.6289	14,419.9	45.4197
14,928.2	87.2096	14,928.2	85.989	14,928.2	86.9944	14,928.2	83.0729	14,928.2	85.2706	14,928.2	78.5778	14,928.2	81.302	14,928.2	73.417	14,928.2	76.5762	14,928.2	63.811	14,928.2	69.125	14,928.2	63.0059	14,928.2	64.4238	14,928.2	57.0055	14,928.2	65.7684	14,928.2	46.5067	14,928.2	61.9591	14,928.2	50.0569	14,928.2	59.4021	14,928.2	51.5231	14,928.2	54.7685	14,928.2	38.6435	14,928.2	43.7951	14,928.2	31.7163	14,928.2	46.29	14,928.2	49.8638	14,928.2	51.5352	14,928.2	44.4251	14,928.2	38.1174	14,928.2	47.2626	14,928.2	49.1579	14,928.2	54.1211	14,928.2	44.2538	14,928.2	48.9441	14,928.2	45.1065	14,928.2	40.0141
15,455.6	86.9455	15,455.6	85.6306	15,455.6	86.4124	15,455.6	81.8675	15,455.6	84.6965	15,455.6	76.0789	15,455.6	79.751	15,455.6	66.2492	15,455.6	73.5044	15,455.6	62.614	15,455.6	65.2928	15,455.6	65.7505	15,455.6	66.4586	15,455.6	60.2453	15,455.6	63.2906	15,455.6	55.5768	15,455.6	55.3968	15,455.6	47.2999	15,455.6	54.2238	15,455.6	44.3191	15,455.6	54.1063	15,455.6	40.8222	15,455.6	43.5815	15,455.6	40.6614	15,455.6	43.6723	15,455.6	48.2185	15,455.6	47.7511	15,455.6	41.1895	15,455.6	40.6375	15,455.6	44.6796	15,455.6	43.9504	15,455.6	48.8612	15,455.6	50.9381	15,455.6	45.8268	15,455.6	43.4017	15,455.6	34.5025
16,000.5	87.2724	16,000.5	85.8227	16,000.5	86.7524	16,000.5	81.5094	16,000.5	84.5584	16,000.5	74.4924	16,000.5	79.0063	16,000.5	49.1513	16,000.5	72.8989	16,000.5	64.7853	16,000.5	67.4637	16,000.5	69.3665	16,000.5	69.0342	16,000.5	63.1256	16,000.5	66.9243	16,000.5	62.5156	16,000.5	57.9972	16,000.5	49.1291	16,000.5	49.7465	16,000.5	49.697	16,000.5	53.9271	16,000.5	42.5027	16,000.5	46.6849	16,000.5	40.2031	16,000.5	47.7824	16,000.5	42.6841	16,000.5	49.9081	16,000.5	36.8457	16,000.5	44.6529	16,000.5	36.9979	16,000.5	44.734	16,000.5	42.1112	16,000.5	49.2745	16,000.5	45.4896	16,000.5	44.4468	16,000.5	43.4341
16,564.5	87.178	16,564.5	85.676	16,564.5	86.6291	16,564.5	81.414	16,564.5	84.068	16,564.5	73.9096	16,564.5	78.4976	16,564.5	62.605	16,564.5	71.8512	16,564.5	68.81	16,564.5	69.831	16,564.5	69.2272	16,564.5	69.3911	16,564.5	61.2745	16,564.5	67.8441	16,564.5	62.3408	16,564.5	60.3011	16,564.5	49.5282	16,564.5	51.921	16,564.5	50.1096	16,564.5	50.2783	16,564.5	41.2237	16,564.5	43.7641	16,564.5	22.5456	16,564.5	49.0569	16,564.5	36.7252	16,564.5	51.1968	16,564.5	44.6966	16,564.5	34.9653	16,564.5	41.6118	16,564.5	42.4154	16,564.5	45.3857	16,564.5	40.4794	16,564.5	45.5567	16,564.5	42.3338	16,564.5	40.3434
17,148.9	86.2911	17,148.9	85.1453	17,148.9	85.9398	17,148.9	80.7159	17,148.9	82.429	17,148.9	74.0696	17,148.9	77.7614	17,148.9	67.603	17,148.9	69.8591	17,148.9	70.6909	17,148.9	67.8972	17,148.9	68.6805	17,148.9	67.0672	17,148.9	62.4185	17,148.9	63.5825	17,148.9	61.84	17,148.9	45.8268	17,148.9	55.0815	17,148.9	39.5383	17,148.9	52.7101	17,148.9	48.1449	17,148.9	39.5655	17,148.9	35.4219	17,148.9	44.7305	17,148.9	51.0375	17,148.9	41.0323	17,148.9	47.0205	17,148.9	36.4831	17,148.9	44.4001	17,148.9	24.8088	17,148.9	48.995	17,148.9	42.769	17,148.9	44.166	17,148.9	46.1325	17,148.9	37.8067	17,148.9	40.3437
17,752.4	84.8921	17,752.4	84.4283	17,752.4	84.9854	17,752.4	79.6258	17,752.4	80.7083	17,752.4	73.4067	17,752.4	75.6906	17,752.4	69.6975	17,752.4	67.2756	17,752.4	72.6683	17,752.4	70.3235	17,752.4	69.7938	17,752.4	68.9896	17,752.4	68.6981	17,752.4	66.3117	17,752.4	63.4331	17,752.4	61.2352	17,752.4	56.8961	17,752.4	55.0032	17,752.4	51.5275	17,752.4	53.7437	17,752.4	48.1791	17,752.4	45.9495	17,752.4	45.8634	17,752.4	50.6099	17,752.4	47.6003	17,752.4	50.5042	17,752.4	39.8598	17,752.4	44.9953	17,752.4	42.0223	17,752.4	46.8557	17,752.4	45.4323	17,752.4	44.958	17,752.4	44.7345	17,752.4	37.4532	17,752.4	49.1544
18,379.4	83.6686	18,379.4	82.9445	18,379.4	83.5457	18,379.4	78.7409	18,379.4	79.9416	18,379.4	72.0379	18,379.4	73.1344	18,379.4	68.8555	18,379.4	68.47	18,379.4	71.6076	18,379.4	71.2964	18,379.4	70.6922	18,379.4	70.2456	18,379.4	70.8246	18,379.4	71.1457	18,379.4	64.1615	18,379.4	66.3684	18,379.4	55.2036	18,379.4	57.9862	18,379.4	45.5002	18,379.4	51.0671	18,379.4	46.5042	18,379.4	45.0735	18,379.4	39.6454	18,379.4	48.461	18,379.4	49.3015	18,379.4	46.826	18,379.4	38.6848	18,379.4	43.4789	18,379.4	41.769	18,379.4	43.4914	18,379.4	38.6722	18,379.4	39.9514	18,379.4	33.8174	18,379.4	43.2265	18,379.4	44.8044
19,026.9	82.3575	19,026.9	81.142	19,026.9	81.2275	19,026.9	78.417	19,026.9	78.6189	19,026.9	69.2571	19,026.9	71.8417	19,026.9	65.6517	19,026.9	68.4652	19,026.9	69.6979	19,026.9	69.0193	19,026.9	71.6203	19,026.9	70.131	19,026.9	69.9811	19,026.9	71.7824	19,026.9	63.3772	19,026.9	65.7765	19,026.9	51.4634	19,026.9	56.0403	19,026.9	34.27	19,026.9	35.8541	19,026.9	34.9405	19,026.9	30.255	19,026.9	33.4416	19,026.9	29.2259	19,026.9	44.0291	19,026.9	44.8469	19,026.9	37.3118	19,026.9	43.3924	19,026.9	41.7023	19,026.9	40.0963	19,026.9	40.8758	19,026.9	38.9874	19,026.9	35.7007	19,026.9	48.1089	19,026.9	36.6505
19,697.8	81.5151	19,697.8	78.9623	19,697.8	79.3455	19,697.8	76.794	19,697.8	77.4609	19,697.8	67.1445	19,697.8	70.9684	19,697.8	63.4943	19,697.8	66.8306	19,697.8	68.2778	19,697.8	66.4924	19,697.8	70.4109	19,697.8	70.2421	19,697.8	68.4578	19,697.8	68.4319	19,697.8	60.6081	19,697.8	61.9512	19,697.8	47.4505	19,697.8	50.0418	19,697.8	46.6523	19,697.8	46.4275	19,697.8	42.299	19,697.8	35.9796	19,697.8	40.9322	19,697.8	33.9436	19,697.8	40.2026	19,697.8	43.6544	19,697.8	35.9341	19,697.8	31.9797	19,697.8	28.829	19,697.8	36.1563	19,697.8	39.8332	19,697.8	40.1805	19,697.8	43.5416	19,697.8	45.5011	19,697.8	37.3174
19,999.5	80.9329	19,999.5	78.4526	19,999.5	79.1209	19,999.5	76.1731	19,999.5	76.6089	19,999.5	68.236	19,999.5	71.4684	19,999.5	65.5569	19,999.5	66.9726	19,999.5	68.3511	19,999.5	66.5323	19,999.5	69.5633	19,999.5	69.6488	19,999.5	67.5497	19,999.5	67.0271	19,999.5	57.7606	19,999.5	59.8154	19,999.5	50.6328	19,999.5	45.5555	19,999.5	51.4368	19,999.5	46.2355	19,999.5	44.9427	19,999.5	41.8914	19,999.5	45.293	19,999.5	42.4201	19,999.5	42.4746	19,999.5	47.6095	19,999.5	34.0474	19,999.5	38.9599	19,999.5	28.4355	19,999.5	38.2797	19,999.5	44.4689	19,999.5	48.6677	19,999.5	44.4676	19,999.5	43.6593	19,999.5	48.8133
