"SPL Vertical"
"On-Axis"		"10°"		"-10°"		"20°"		"-20°"		"30°"		"-30°"		"40°"		"-40°"		"50°"		"-50°"		"60°"		"-60°"		"70°"		"-70°"		"80°"		"-80°"		"90°"		"-90°"		"100°"		"-100°"		"110°"		"-110°"		"120°"		"-120°"		"130°"		"-130°"		"140°"		"-140°"		"150°"		"-150°"		"160°"		"-160°"		"170°"		"-170°"		"180°"
"Frequency / Hz"	"Sound Pressure Level / dB (re 20 µPa/V)  [2.83  V @ 1. m]"	"Frequency / Hz"	"Sound Pressure Level / dB (re 20 µPa/V)  [2.83  V @ 1. m]"	"Frequency / Hz"	"Sound Pressure Level / dB (re 20 µPa/V)  [2.83  V @ 1. m]"	"Frequency / Hz"	"Sound Pressure Level / dB (re 20 µPa/V)  [2.83  V @ 1. m]"	"Frequency / Hz"	"Sound Pressure Level / dB (re 20 µPa/V)  [2.83  V @ 1. m]"	"Frequency / Hz"	"Sound Pressure Level / dB (re 20 µPa/V)  [2.83  V @ 1. m]"	"Frequency / Hz"	"Sound Pressure Level / dB (re 20 µPa/V)  [2.83  V @ 1. m]"	"Frequency / Hz"	"Sound Pressure Level / dB (re 20 µPa/V)  [2.83  V @ 1. m]"	"Frequency / Hz"	"Sound Pressure Level / dB (re 20 µPa/V)  [2.83  V @ 1. m]"	"Frequency / Hz"	"Sound Pressure Level / dB (re 20 µPa/V)  [2.83  V @ 1. m]"	"Frequency / Hz"	"Sound Pressure Level / dB (re 20 µPa/V)  [2.83  V @ 1. m]"	"Frequency / Hz"	"Sound Pressure Level / dB (re 20 µPa/V)  [2.83  V @ 1. m]"	"Frequency / Hz"	"Sound Pressure Level / dB (re 20 µPa/V)  [2.83  V @ 1. m]"	"Frequency / Hz"	"Sound Pressure Level / dB (re 20 µPa/V)  [2.83  V @ 1. m]"	"Frequency / Hz"	"Sound Pressure Level / dB (re 20 µPa/V)  [2.83  V @ 1. m]"	"Frequency / Hz"	"Sound Pressure Level / dB (re 20 µPa/V)  [2.83  V @ 1. m]"	"Frequency / Hz"	"Sound Pressure Level / dB (re 20 µPa/V)  [2.83  V @ 1. m]"	"Frequency / Hz"	"Sound Pressure Level / dB (re 20 µPa/V)  [2.83  V @ 1. m]"	"Frequency / Hz"	"Sound Pressure Level / dB (re 20 µPa/V)  [2.83  V @ 1. m]"	"Frequency / Hz"	"Sound Pressure Level / dB (re 20 µPa/V)  [2.83  V @ 1. m]"	"Frequency / Hz"	"Sound Pressure Level / dB (re 20 µPa/V)  [2.83  V @ 1. m]"	"Frequency / Hz"	"Sound Pressure Level / dB (re 20 µPa/V)  [2.83  V @ 1. m]"	"Frequency / Hz"	"Sound Pressure Level / dB (re 20 µPa/V)  [2.83  V @ 1. m]"	"Frequency / Hz"	"Sound Pressure Level / dB (re 20 µPa/V)  [2.83  V @ 1. m]"	"Frequency / Hz"	"Sound Pressure Level / dB (re 20 µPa/V)  [2.83  V @ 1. m]"	"Frequency / Hz"	"Sound Pressure Level / dB (re 20 µPa/V)  [2.83  V @ 1. m]"	"Frequency / Hz"	"Sound Pressure Level / dB (re 20 µPa/V)  [2.83  V @ 1. m]"	"Frequency / Hz"	"Sound Pressure Level / dB (re 20 µPa/V)  [2.83  V @ 1. m]"	"Frequency / Hz"	"Sound Pressure Level / dB (re 20 µPa/V)  [2.83  V @ 1. m]"	"Frequency / Hz"	"Sound Pressure Level / dB (re 20 µPa/V)  [2.83  V @ 1. m]"	"Frequency / Hz"	"Sound Pressure Level / dB (re 20 µPa/V)  [2.83  V @ 1. m]"	"Frequency / Hz"	"Sound Pressure Level / dB (re 20 µPa/V)  [2.83  V @ 1. m]"	"Frequency / Hz"	"Sound Pressure Level / dB (re 20 µPa/V)  [2.83  V @ 1. m]"	"Frequency / Hz"	"Sound Pressure Level / dB (re 20 µPa/V)  [2.83  V @ 1. m]"	"Frequency / Hz"	"Sound Pressure Level / dB (re 20 µPa/V)  [2.83  V @ 1. m]"	"Frequency / Hz"	"Sound Pressure Level / dB (re 20 µPa/V)  [2.83  V @ 1. m]"
20.5078	63.3146	20.5078	63.2968	20.5078	63.3312	20.5078	63.2779	20.5078	63.3466	20.5078	63.2576	20.5078	63.3602	20.5078	63.2358	20.5078	63.3715	20.5078	63.2125	20.5078	63.3796	20.5078	63.1879	20.5078	63.3838	20.5078	63.1626	20.5078	63.3833	20.5078	63.1376	20.5078	63.3774	20.5078	63.1142	20.5078	63.366	20.5078	63.0936	20.5078	63.3489	20.5078	63.0772	20.5078	63.3267	20.5078	63.0662	20.5078	63.3001	20.5078	63.0611	20.5078	63.2702	20.5078	63.0621	20.5078	63.2383	20.5078	63.069	20.5078	63.2061	20.5078	63.0813	20.5078	63.1749	20.5078	63.0986	20.5078	63.146	20.5078	63.1203
21.9727	61.4638	21.9727	61.4016	21.9727	61.5053	21.9727	61.3189	21.9727	61.5262	21.9727	61.2163	21.9727	61.5266	21.9727	61.0946	21.9727	61.5066	21.9727	60.956	21.9727	61.4665	21.9727	60.8034	21.9727	61.4066	21.9727	60.6411	21.9727	61.3278	21.9727	60.4747	21.9727	61.2309	21.9727	60.3107	21.9727	61.1175	21.9727	60.1566	21.9727	60.9897	21.9727	60.02	21.9727	60.8501	21.9727	59.9075	21.9727	60.7022	21.9727	59.8248	21.9727	60.5501	21.9727	59.7749	21.9727	60.3986	21.9727	59.759	21.9727	60.2528	21.9727	59.7761	21.9727	60.1177	21.9727	59.8238	21.9727	59.9984	21.9727	59.8991
23.4375	64.4758	23.4375	64.4368	23.4375	64.4989	23.4375	64.382	23.4375	64.5063	23.4375	64.3115	23.4375	64.4979	23.4375	64.226	23.4375	64.4741	23.4375	64.1265	23.4375	64.4349	23.4375	64.0146	23.4375	64.3807	23.4375	63.8928	23.4375	64.3119	23.4375	63.7641	23.4375	64.2292	23.4375	63.6326	23.4375	64.1335	23.4375	63.5027	23.4375	64.0262	23.4375	63.3798	23.4375	63.9091	23.4375	63.2693	23.4375	63.7846	23.4375	63.1768	23.4375	63.6561	23.4375	63.1074	23.4375	63.5276	23.4375	63.0652	23.4375	63.404	23.4375	63.053	23.4375	63.291	23.4375	63.0715	23.4375	63.1943	23.4375	63.1196
24.9023	65.4354	24.9023	65.3898	24.9023	65.4641	24.9023	65.3278	24.9023	65.4759	24.9023	65.2499	24.9023	65.4708	24.9023	65.157	24.9023	65.4488	24.9023	65.0506	24.9023	65.4103	24.9023	64.9325	24.9023	65.3558	24.9023	64.8054	24.9023	65.2858	24.9023	64.6724	24.9023	65.201	24.9023	64.5375	24.9023	65.1027	24.9023	64.4053	24.9023	64.9922	24.9023	64.281	24.9023	64.8715	24.9023	64.1703	24.9023	64.743	24.9023	64.0788	24.9023	64.61	24.9023	64.0117	24.9023	64.4766	24.9023	63.9731	24.9023	64.3476	24.9023	63.9657	24.9023	64.2286	24.9023	63.99	24.9023	64.1257	24.9023	64.0445
26.3672	66.1195	26.3672	66.0682	26.3672	66.1551	26.3672	66.0017	26.3672	66.175	26.3672	65.9202	26.3672	66.1787	26.3672	65.8245	26.3672	66.1661	26.3672	65.7157	26.3672	66.1369	26.3672	65.5953	26.3672	66.0911	26.3672	65.4657	26.3672	66.0288	26.3672	65.33	26.3672	65.9503	26.3672	65.1922	26.3672	65.8563	26.3672	65.0574	26.3672	65.7479	26.3672	64.9312	26.3672	65.6267	26.3672	64.8197	26.3672	65.4951	26.3672	64.7292	26.3672	65.3563	26.3672	64.6652	26.3672	65.2145	26.3672	64.6323	26.3672	65.0751	26.3672	64.633	26.3672	64.944	26.3672	64.6676	26.3672	64.8282	26.3672	64.7341
27.832	67.4127	27.832	67.3603	27.832	67.4465	27.832	67.2896	27.832	67.4618	27.832	67.201	27.832	67.4586	27.832	67.0953	27.832	67.4371	27.832	66.974	27.832	67.3976	27.832	66.8392	27.832	67.3403	27.832	66.6938	27.832	67.2658	27.832	66.5415	27.832	67.1748	27.832	66.3871	27.832	67.068	27.832	66.2361	27.832	66.9469	27.832	66.0948	27.832	66.8134	27.832	65.9698	27.832	66.6698	27.832	65.868	27.832	66.5196	27.832	65.7953	27.832	66.3672	27.832	65.7563	27.832	66.2181	27.832	65.7539	27.832	66.0787	27.832	65.7883	27.832	65.956	27.832	65.8572
29.2969	67.8166	29.2969	67.7516	29.2969	67.8624	29.2969	67.6677	29.2969	67.8889	29.2969	67.5658	29.2969	67.8959	29.2969	67.4469	29.2969	67.8836	29.2969	67.3131	29.2969	67.8521	29.2969	67.1669	29.2969	67.8017	29.2969	67.0116	29.2969	67.7327	29.2969	66.8517	29.2969	67.6455	29.2969	66.6923	29.2969	67.5411	29.2969	66.5394	29.2969	67.4205	29.2969	66.3998	29.2969	67.2854	29.2969	66.2803	29.2969	67.1381	29.2969	66.1874	29.2969	66.982	29.2969	66.1269	29.2969	66.8212	29.2969	66.1029	29.2969	66.6613	29.2969	66.1172	29.2969	66.5089	29.2969	66.1692	29.2969	66.3712	29.2969	66.2557
30.7617	68.6161	30.7617	68.5486	30.7617	68.6645	30.7617	68.4622	30.7617	68.6934	30.7617	68.3576	30.7617	68.7028	30.7617	68.236	30.7617	68.6926	30.7617	68.0992	30.7617	68.663	30.7617	67.9496	30.7617	68.6141	30.7617	67.7907	30.7617	68.5461	30.7617	67.6268	30.7617	68.4595	30.7617	67.4634	30.7617	68.3552	30.7617	67.3066	30.7617	68.2341	30.7617	67.1635	30.7617	68.0979	30.7617	67.0412	30.7617	67.9487	30.7617	66.9468	30.7617	67.7896	30.7617	66.8864	30.7617	67.6248	30.7617	66.8644	30.7617	67.4596	30.7617	66.8825	30.7617	67.3008	30.7617	66.9401	30.7617	67.156	30.7617	67.0332
32.2266	69.322	32.2266	69.2558	32.2266	69.3687	32.2266	69.1705	32.2266	69.3957	32.2266	69.0667	32.2266	69.4029	32.2266	68.9456	32.2266	69.3903	32.2266	68.8088	32.2266	69.3579	32.2266	68.6589	32.2266	69.3057	32.2266	68.499	32.2266	69.2338	32.2266	68.3333	32.2266	69.1426	32.2266	68.167	32.2266	69.0328	32.2266	68.0061	32.2266	68.9053	32.2266	67.8572	32.2266	68.7617	32.2266	67.7275	32.2266	68.6046	32.2266	67.6242	32.2266	68.4374	32.2266	67.5535	32.2266	68.265	32.2266	67.5207	32.2266	68.0937	32.2266	67.5287	32.2266	67.931	32.2266	67.5777	32.2266	67.7853	32.2266	67.6651
33.6914	69.8733	33.6914	69.8048	33.6914	69.9225	33.6914	69.7177	33.6914	69.9521	33.6914	69.6127	33.6914	69.9621	33.6914	69.4913	33.6914	69.9523	33.6914	69.3555	33.6914	69.9227	33.6914	69.2079	33.6914	69.8735	33.6914	69.0522	33.6914	69.8046	33.6914	68.8924	33.6914	69.7166	33.6914	68.7335	33.6914	69.6099	33.6914	68.5812	33.6914	69.4855	33.6914	68.4415	33.6914	69.3452	33.6914	68.3207	33.6914	69.1913	33.6914	68.2251	33.6914	69.0274	33.6914	68.1602	33.6914	68.8585	33.6914	68.1309	33.6914	68.6907	33.6914	68.1399	33.6914	68.5317	33.6914	68.188	33.6914	68.3897	33.6914	68.2728
35.1562	70.4438	35.1562	70.3827	35.1562	70.4876	35.1562	70.305	35.1562	70.5134	35.1562	70.2118	35.1562	70.5209	35.1562	70.1046	35.1562	70.5099	35.1562	69.9853	35.1562	70.4802	35.1562	69.8565	35.1562	70.4319	35.1562	69.7211	35.1562	70.3649	35.1562	69.5825	35.1562	70.2798	35.1562	69.4447	35.1562	70.1773	35.1562	69.3119	35.1562	70.0585	35.1562	69.1886	35.1562	69.9254	35.1562	69.0796	35.1562	69.7808	35.1562	68.9898	35.1562	69.6287	35.1562	68.924	35.1562	69.4743	35.1562	68.8866	35.1562	69.324	35.1562	68.8812	35.1562	69.1853	35.1562	68.9098	35.1562	69.0658	35.1562	68.9723
36.6211	71.1983	36.6211	71.156	36.6211	71.227	36.6211	71.101	36.6211	71.2414	36.6211	71.0345	36.6211	71.2408	36.6211	70.9576	36.6211	71.2249	36.6211	70.8718	36.6211	71.1934	36.6211	70.7788	36.6211	71.1462	36.6211	70.6802	36.6211	71.0834	36.6211	70.5781	36.6211	71.0056	36.6211	70.4746	36.6211	70.9136	36.6211	70.372	36.6211	70.8089	36.6211	70.273	36.6211	70.6936	36.6211	70.1803	36.6211	70.5709	36.6211	70.0976	36.6211	70.445	36.6211	70.0285	36.6211	70.3212	36.6211	69.9775	36.6211	70.2057	36.6211	69.9488	36.6211	70.1052	36.6211	69.9462	36.6211	70.0257	36.6211	69.9719
38.0859	71.5609	38.0859	71.5385	38.0859	71.5742	38.0859	71.5078	38.0859	71.578	38.0859	71.4695	38.0859	71.5716	38.0859	71.4245	38.0859	71.5547	38.0859	71.3738	38.0859	71.5271	38.0859	71.3182	38.0859	71.4888	38.0859	71.2586	38.0859	71.4399	38.0859	71.1959	38.0859	71.3808	38.0859	71.131	38.0859	71.3122	38.0859	71.0648	38.0859	71.2355	38.0859	70.9982	38.0859	71.1527	38.0859	70.9326	38.0859	71.0664	38.0859	70.8698	38.0859	70.9801	38.0859	70.8125	38.0859	70.8983	38.0859	70.7637	38.0859	70.8258	38.0859	70.7274	38.0859	70.7673	38.0859	70.7074	38.0859	70.7267	38.0859	70.7066
39.5508	72.0524	39.5508	72.055	39.5508	72.0449	39.5508	72.0526	39.5508	72.0321	39.5508	72.0453	39.5508	72.0141	39.5508	72.0333	39.5508	71.9907	39.5508	72.0164	39.5508	71.9619	39.5508	71.9948	39.5508	71.9275	39.5508	71.9683	39.5508	71.8877	39.5508	71.9367	39.5508	71.8428	39.5508	71.9	39.5508	71.7932	39.5508	71.858	39.5508	71.7402	39.5508	71.8109	39.5508	71.6851	39.5508	71.7592	39.5508	71.6301	39.5508	71.7043	39.5508	71.5782	39.5508	71.648	39.5508	71.5327	39.5508	71.5935	39.5508	71.4972	39.5508	71.5446	39.5508	71.475	39.5508	71.5052	39.5508	71.4687	39.5508	71.479
41.0156	72.6991	41.0156	72.7187	41.0156	72.677	41.0156	72.7354	41.0156	72.6527	41.0156	72.7487	41.0156	72.6264	41.0156	72.7583	41.0156	72.5984	41.0156	72.7636	41.0156	72.5689	41.0156	72.7641	41.0156	72.5381	41.0156	72.7589	41.0156	72.5061	41.0156	72.7475	41.0156	72.4731	41.0156	72.7291	41.0156	72.4397	41.0156	72.7034	41.0156	72.4064	41.0156	72.67	41.0156	72.3742	41.0156	72.6293	41.0156	72.3447	41.0156	72.5822	41.0156	72.3198	41.0156	72.5305	41.0156	72.3018	41.0156	72.4768	41.0156	72.2931	41.0156	72.4245	41.0156	72.2957	41.0156	72.3772	41.0156	72.3108	41.0156	72.3384
42.4805	73.0528	42.4805	73.0824	42.4805	73.0236	42.4805	73.1117	42.4805	72.9953	42.4805	73.1399	42.4805	72.9683	42.4805	73.166	42.4805	72.9429	42.4805	73.189	42.4805	72.9193	42.4805	73.2078	42.4805	72.8976	42.4805	73.2213	42.4805	72.8778	42.4805	73.2283	42.4805	72.86	42.4805	73.2279	42.4805	72.8444	42.4805	73.2191	42.4805	72.8311	42.4805	73.2016	42.4805	72.8207	42.4805	73.1752	42.4805	72.8139	42.4805	73.1406	42.4805	72.812	42.4805	73.099	42.4805	72.8161	42.4805	73.0526	42.4805	72.8276	42.4805	73.0041	42.4805	72.8476	42.4805	72.9566	42.4805	72.8763	42.4805	72.9132
43.9453	73.6816	43.9453	73.7206	43.9453	73.6435	43.9453	73.7592	43.9453	73.6071	43.9453	73.7964	43.9453	73.5732	43.9453	73.8309	43.9453	73.5424	43.9453	73.8613	43.9453	73.5149	43.9453	73.8861	43.9453	73.4912	43.9453	73.9041	43.9453	73.4712	43.9453	73.914	43.9453	73.455	43.9453	73.9148	43.9453	73.4427	43.9453	73.9057	43.9453	73.4342	43.9453	73.8864	43.9453	73.4297	43.9453	73.8571	43.9453	73.4298	43.9453	73.8188	43.9453	73.435	43.9453	73.773	43.9453	73.4464	43.9453	73.7221	43.9453	73.4649	43.9453	73.6689	43.9453	73.4913	43.9453	73.6166	43.9453	73.5259	43.9453	73.5682
45.4102	74.3957	45.4102	74.4373	45.4102	74.3547	45.4102	74.4784	45.4102	74.3156	45.4102	74.5175	45.4102	74.2791	45.4102	74.5532	45.4102	74.2462	45.4102	74.5842	45.4102	74.2174	45.4102	74.609	45.4102	74.1932	45.4102	74.6264	45.4102	74.1736	45.4102	74.6352	45.4102	74.1588	45.4102	74.6346	45.4102	74.1486	45.4102	74.6241	45.4102	74.143	45.4102	74.6036	45.4102	74.1419	45.4102	74.5735	45.4102	74.1455	45.4102	74.535	45.4102	74.154	45.4102	74.4897	45.4102	74.1682	45.4102	74.44	45.4102	74.1886	45.4102	74.3886	45.4102	74.2159	45.4102	74.3382	45.4102	74.2503	45.4102	74.2914
46.875	75.0332	46.875	75.0765	46.875	74.9902	46.875	75.1188	46.875	74.9488	46.875	75.1587	46.875	74.91	46.875	75.1948	46.875	74.8748	46.875	75.2257	46.875	74.8441	46.875	75.2501	46.875	74.8183	46.875	75.2668	46.875	74.7978	46.875	75.2748	46.875	74.7828	46.875	75.2733	46.875	74.773	46.875	75.262	46.875	74.7685	46.875	75.2409	46.875	74.7691	46.875	75.2105	46.875	74.7747	46.875	75.1719	46.875	74.7856	46.875	75.127	46.875	74.802	46.875	75.0778	46.875	74.8244	46.875	75.0269	46.875	74.8532	46.875	74.977	46.875	74.8887	46.875	74.9303
48.3398	75.6184	48.3398	75.6583	48.3398	75.5784	48.3398	75.6966	48.3398	75.5394	48.3398	75.7319	48.3398	75.5028	48.3398	75.7631	48.3398	75.4696	48.3398	75.7888	48.3398	75.4406	48.3398	75.808	48.3398	75.4165	48.3398	75.8196	48.3398	75.3977	48.3398	75.823	48.3398	75.3843	48.3398	75.8177	48.3398	75.376	48.3398	75.8036	48.3398	75.3726	48.3398	75.781	48.3398	75.3737	48.3398	75.7507	48.3398	75.379	48.3398	75.7141	48.3398	75.3883	48.3398	75.6729	48.3398	75.4019	48.3398	75.6292	48.3398	75.4199	48.3398	75.5853	48.3398	75.4429	48.3398	75.5432	48.3398	75.4712	48.3398	75.5048
51.2695	76.754	51.2695	76.7922	51.2695	76.7151	51.2695	76.8282	51.2695	76.677	51.2695	76.8607	51.2695	76.641	51.2695	76.8882	51.2695	76.6084	51.2695	76.9095	51.2695	76.5801	51.2695	76.9236	51.2695	76.5567	51.2695	76.9297	51.2695	76.5387	51.2695	76.9273	51.2695	76.526	51.2695	76.9162	51.2695	76.5185	51.2695	76.8967	51.2695	76.5154	51.2695	76.8695	51.2695	76.5163	51.2695	76.8359	51.2695	76.5204	51.2695	76.7977	51.2695	76.5273	51.2695	76.7569	51.2695	76.5368	51.2695	76.716	51.2695	76.5493	51.2695	76.6769	51.2695	76.5653	51.2695	76.6415	51.2695	76.5856	51.2695	76.6109
52.7344	77.3546	52.7344	77.3997	52.7344	77.3076	52.7344	77.4413	52.7344	77.2607	52.7344	77.4778	52.7344	77.2155	52.7344	77.5077	52.7344	77.1735	52.7344	77.5298	52.7344	77.1361	52.7344	77.543	52.7344	77.1042	52.7344	77.5466	52.7344	77.0786	52.7344	77.5402	52.7344	77.0594	52.7344	77.5238	52.7344	77.0465	52.7344	77.4979	52.7344	77.0395	52.7344	77.4635	52.7344	77.0377	52.7344	77.422	52.7344	77.0405	52.7344	77.3755	52.7344	77.0475	52.7344	77.3263	52.7344	77.0584	52.7344	77.2769	52.7344	77.0734	52.7344	77.2298	52.7344	77.0932	52.7344	77.1869	52.7344	77.1183	52.7344	77.1496
54.1992	78.0883	54.1992	78.131	54.1992	78.0427	54.1992	78.1692	54.1992	77.9958	54.1992	78.2016	54.1992	77.9492	54.1992	78.2269	54.1992	77.9045	54.1992	78.2439	54.1992	77.8631	54.1992	78.2519	54.1992	77.8262	54.1992	78.2502	54.1992	77.7947	54.1992	78.2386	54.1992	77.7693	54.1992	78.2172	54.1992	77.75	54.1992	78.1868	54.1992	77.7368	54.1992	78.1483	54.1992	77.7294	54.1992	78.1036	54.1992	77.7274	54.1992	78.0546	54.1992	77.7304	54.1992	78.0036	54.1992	77.7383	54.1992	77.9531	54.1992	77.7513	54.1992	77.9054	54.1992	77.7697	54.1992	77.8623	54.1992	77.7942	54.1992	77.825
55.6641	78.7552	55.6641	78.7935	55.6641	78.7133	55.6641	78.8267	55.6641	78.6692	55.6641	78.8532	55.6641	78.6246	55.6641	78.8719	55.6641	78.5809	55.6641	78.8815	55.6641	78.5392	55.6641	78.8813	55.6641	78.5008	55.6641	78.8707	55.6641	78.4662	55.6641	78.8496	55.6641	78.436	55.6641	78.8184	55.6641	78.4104	55.6641	78.778	55.6641	78.3892	55.6641	78.73	55.6641	78.3722	55.6641	78.6764	55.6641	78.3594	55.6641	78.62	55.6641	78.3506	55.6641	78.5636	55.6641	78.3461	55.6641	78.5101	55.6641	78.3468	55.6641	78.4622	55.6641	78.3536	55.6641	78.4219	55.6641	78.3678	55.6641	78.3903
58.5938	80.506	58.5938	80.5311	58.5938	80.4766	58.5938	80.5506	58.5938	80.4442	58.5938	80.5635	58.5938	80.4103	58.5938	80.5688	58.5938	80.3762	58.5938	80.5659	58.5938	80.3431	58.5938	80.5546	58.5938	80.312	58.5938	80.5349	58.5938	80.2836	58.5938	80.5072	58.5938	80.2583	58.5938	80.4725	58.5938	80.2361	58.5938	80.4319	58.5938	80.2169	58.5938	80.3874	58.5938	80.2003	58.5938	80.3411	58.5938	80.1857	58.5938	80.2955	58.5938	80.1729	58.5938	80.2531	58.5938	80.1618	58.5938	80.2162	58.5938	80.153	58.5938	80.1865	58.5938	80.1475	58.5938	80.1652	58.5938	80.1467	58.5938	80.1521
60.0586	81.1374	60.0586	81.1592	60.0586	81.1107	60.0586	81.1749	60.0586	81.0804	60.0586	81.1834	60.0586	81.0478	60.0586	81.1842	60.0586	81.0143	60.0586	81.1765	60.0586	80.981	60.0586	81.1603	60.0586	80.949	60.0586	81.1357	60.0586	80.919	60.0586	81.1032	60.0586	80.8916	60.0586	81.064	60.0586	80.8668	60.0586	81.0196	60.0586	80.8445	60.0586	80.9719	60.0586	80.8243	60.0586	80.9233	60.0586	80.8058	60.0586	80.8765	60.0586	80.7888	60.0586	80.8341	60.0586	80.7733	60.0586	80.7985	60.0586	80.7598	60.0586	80.7713	60.0586	80.7494	60.0586	80.7534	60.0586	80.7437	60.0586	80.7445
62.9883	82.5532	62.9883	82.568	62.9883	82.5321	62.9883	82.5754	62.9883	82.5059	62.9883	82.5745	62.9883	82.4761	62.9883	82.5647	62.9883	82.4439	62.9883	82.546	62.9883	82.4107	62.9883	82.5184	62.9883	82.3776	62.9883	82.4826	62.9883	82.3454	62.9883	82.4397	62.9883	82.3148	62.9883	82.3912	62.9883	82.2858	62.9883	82.3391	62.9883	82.2585	62.9883	82.2859	62.9883	82.2323	62.9883	82.2343	62.9883	82.2071	62.9883	82.1873	62.9883	82.1824	62.9883	82.1474	62.9883	82.1584	62.9883	82.1168	62.9883	82.1355	62.9883	82.097	62.9883	82.1152	62.9883	82.0881	62.9883	82.099	62.9883	82.0893
64.4531	83.2564	64.4531	83.2663	64.4531	83.2398	64.4531	83.2684	64.4531	83.2176	64.4531	83.2621	64.4531	83.1913	64.4531	83.2469	64.4531	83.1621	64.4531	83.2229	64.4531	83.1315	64.4531	83.1904	64.4531	83.1006	64.4531	83.1504	64.4531	83.0702	64.4531	83.1042	64.4531	83.0409	64.4531	83.0536	64.4531	83.0128	64.4531	83.0009	64.4531	82.9859	64.4531	82.9485	64.4531	82.9597	64.4531	82.8995	64.4531	82.9338	64.4531	82.8565	64.4531	82.9077	64.4531	82.8221	64.4531	82.8813	64.4531	82.7982	64.4531	82.8551	64.4531	82.7855	64.4531	82.8302	64.4531	82.784	64.4531	82.8086	64.4531	82.7924
67.3828	84.7899	67.3828	84.7916	67.3828	84.7795	67.3828	84.7837	67.3828	84.7618	67.3828	84.7657	67.3828	84.7381	67.3828	84.7373	67.3828	84.71	67.3828	84.6988	67.3828	84.6787	67.3828	84.651	67.3828	84.6456	67.3828	84.5953	67.3828	84.6117	67.3828	84.5338	67.3828	84.5776	67.3828	84.4688	67.3828	84.5436	67.3828	84.4035	67.3828	84.5096	67.3828	84.3413	67.3828	84.4752	67.3828	84.2858	67.3828	84.4397	67.3828	84.2403	67.3828	84.4028	67.3828	84.2075	67.3828	84.3644	67.3828	84.1892	67.3828	84.325	67.3828	84.1858	67.3828	84.2859	67.3828	84.1963	67.3828	84.2494	67.3828	84.2185
68.8477	85.5733	68.8477	85.5742	68.8477	85.5629	68.8477	85.5645	68.8477	85.5442	68.8477	85.5436	68.8477	85.5189	68.8477	85.5112	68.8477	85.4885	68.8477	85.4679	68.8477	85.4546	68.8477	85.4145	68.8477	85.4186	68.8477	85.3525	68.8477	85.3817	68.8477	85.2843	68.8477	85.3445	68.8477	85.2127	68.8477	85.3074	68.8477	85.141	68.8477	85.2703	68.8477	85.0732	68.8477	85.2327	68.8477	85.013	68.8477	85.1939	68.8477	84.9642	68.8477	85.1535	68.8477	84.9298	68.8477	85.1113	68.8477	84.9114	68.8477	85.0677	68.8477	84.9094	68.8477	85.0243	68.8477	84.9225	68.8477	84.9835	68.8477	84.9484
71.7773	87.1227	71.7773	87.1235	71.7773	87.1104	71.7773	87.1118	71.7773	87.088	71.7773	87.0869	71.7773	87.0573	71.7773	87.0487	71.7773	87.0201	71.7773	86.9977	71.7773	86.9781	71.7773	86.9351	71.7773	86.9333	71.7773	86.8628	71.7773	86.887	71.7773	86.7832	71.7773	86.8403	71.7773	86.6997	71.7773	86.7938	71.7773	86.6161	71.7773	86.7477	71.7773	86.537	71.7773	86.7018	71.7773	86.4666	71.7773	86.6555	71.7773	86.4093	71.7773	86.6082	71.7773	86.3682	71.7773	86.5599	71.7773	86.3453	71.7773	86.5111	71.7773	86.341	71.7773	86.4632	71.7773	86.3538	71.7773	86.4186	71.7773	86.3809
74.707	88.703	74.707	88.7012	74.707	88.6916	74.707	88.6853	74.707	88.6684	74.707	88.6546	74.707	88.635	74.707	88.6094	74.707	88.5933	74.707	88.5503	74.707	88.5453	74.707	88.4788	74.707	88.493	74.707	88.397	74.707	88.438	74.707	88.3078	74.707	88.3818	74.707	88.2148	74.707	88.3254	74.707	88.1224	74.707	88.2693	74.707	88.0352	74.707	88.2138	74.707	87.9578	74.707	88.1586	74.707	87.8947	74.707	88.1035	74.707	87.8491	74.707	88.0486	74.707	87.8231	74.707	87.9944	74.707	87.8168	74.707	87.9425	74.707	87.8288	74.707	87.8954	74.707	87.8562
77.6367	90.2072	77.6367	90.2007	77.6367	90.1987	77.6367	90.1782	77.6367	90.1765	77.6367	90.1395	77.6367	90.1423	77.6367	90.0849	77.6367	90.0981	77.6367	90.0154	77.6367	90.0461	77.6367	89.9329	77.6367	89.9883	77.6367	89.8399	77.6367	89.9268	77.6367	89.74	77.6367	89.8633	77.6367	89.6373	77.6367	89.799	77.6367	89.5366	77.6367	89.735	77.6367	89.443	77.6367	89.6717	77.6367	89.3616	77.6367	89.6091	77.6367	89.2967	77.6367	89.5471	77.6367	89.2515	77.6367	89.486	77.6367	89.2275	77.6367	89.4261	77.6367	89.2246	77.6367	89.3689	77.6367	89.2407	77.6367	89.3167	77.6367	89.2727
79.1016	90.8568	79.1016	90.8473	79.1016	90.8503	79.1016	90.8211	79.1016	90.8292	79.1016	90.7777	79.1016	90.7951	79.1016	90.7178	79.1016	90.7501	79.1016	90.6424	79.1016	90.6963	79.1016	90.5537	79.1016	90.636	79.1016	90.4544	79.1016	90.5711	79.1016	90.3483	79.1016	90.5037	79.1016	90.24	79.1016	90.4351	79.1016	90.1345	79.1016	90.3664	79.1016	90.0373	79.1016	90.2983	79.1016	89.9535	79.1016	90.2311	79.1016	89.8875	79.1016	90.1647	79.1016	89.8425	79.1016	90.0994	79.1016	89.8198	79.1016	90.0358	79.1016	89.8189	79.1016	89.9751	79.1016	89.8376	79.1016	89.9196	79.1016	89.8725
82.0312	91.7588	82.0312	91.7417	82.0312	91.7578	82.0312	91.7057	82.0312	91.7401	82.0312	91.6508	82.0312	91.7073	82.0312	91.5777	82.0312	91.6615	82.0312	91.4879	82.0312	91.6049	82.0312	91.384	82.0312	91.5399	82.0312	91.2694	82.0312	91.4688	82.0312	91.1486	82.0312	91.3935	82.0312	91.0271	82.0312	91.3159	82.0312	90.9108	82.0312	91.2374	82.0312	90.8057	82.0312	91.159	82.0312	90.7174	82.0312	91.0812	82.0312	90.6504	82.0312	91.0045	82.0312	90.6077	82.0312	90.9292	82.0312	90.5899	82.0312	90.856	82.0312	90.5958	82.0312	90.7861	82.0312	90.6224	82.0312	90.7216	82.0312	90.6658
84.9609	91.9129	84.9609	91.8901	84.9609	91.9161	84.9609	91.8469	84.9609	91.901	84.9609	91.7833	84.9609	91.8695	84.9609	91.6999	84.9609	91.8236	84.9609	91.5986	84.9609	91.7657	84.9609	91.4822	84.9609	91.6981	84.9609	91.3547	84.9609	91.6233	84.9609	91.2212	84.9609	91.5432	84.9609	91.0878	84.9609	91.4599	84.9609	90.9612	84.9609	91.3747	84.9609	90.8483	84.9609	91.2889	84.9609	90.7551	84.9609	91.203	84.9609	90.6866	84.9609	91.1177	84.9609	90.6453	84.9609	91.0333	84.9609	90.6319	84.9609	90.9506	84.9609	90.6443	84.9609	90.8711	84.9609	90.679	84.9609	90.7969	84.9609	90.7315
87.8906	91.3445	87.8906	91.3114	87.8906	91.3539	87.8906	91.2537	87.8906	91.3407	87.8906	91.1719	87.8906	91.307	87.8906	91.0671	87.8906	91.2552	87.8906	90.9418	87.8906	91.188	87.8906	90.7998	87.8906	91.1083	87.8906	90.6462	87.8906	91.0193	87.8906	90.4876	87.8906	90.9238	87.8906	90.3317	87.8906	90.8245	87.8906	90.1867	87.8906	90.7236	87.8906	90.0606	87.8906	90.6229	87.8906	89.9605	87.8906	90.5234	87.8906	89.8911	87.8906	90.4257	87.8906	89.8545	87.8906	90.3301	87.8906	89.8498	87.8906	90.2369	87.8906	89.8736	87.8906	90.147	87.8906	89.9206	87.8906	90.0622	87.8906	89.9853
90.8203	90.3463	90.8203	90.3041	90.8203	90.3623	90.8203	90.2352	90.8203	90.3533	90.8203	90.1401	90.8203	90.3213	90.8203	90.0204	90.8203	90.2684	90.8203	89.8789	90.8203	90.1975	90.8203	89.7199	90.8203	90.1118	90.8203	89.5492	90.8203	90.0144	90.8203	89.3742	90.8203	89.9087	90.8203	89.2036	90.8203	89.7978	90.8203	89.0466	90.8203	89.6845	90.8203	88.9122	90.8203	89.5712	90.8203	88.8077	90.8203	89.4594	90.8203	88.7381	90.8203	89.3503	90.8203	88.7048	90.8203	89.2443	90.8203	88.7062	90.8203	89.1418	90.8203	88.7375	90.8203	89.0434	90.8203	88.7927	90.8203	88.9505	90.8203	88.8655
95.2148	88.7647	95.2148	88.7129	95.2148	88.7855	95.2148	88.6299	95.2148	88.7766	95.2148	88.5165	95.2148	88.7399	95.2148	88.3745	95.2148	88.6779	95.2148	88.2076	95.2148	88.5938	95.2148	88.0209	95.2148	88.491	95.2148	87.8215	95.2148	88.3735	95.2148	87.6183	95.2148	88.2454	95.2148	87.4214	95.2148	88.1109	95.2148	87.2419	95.2148	87.9737	95.2148	87.09	95.2148	87.8375	95.2148	86.974	95.2148	87.7049	95.2148	86.8987	95.2148	87.5777	95.2148	86.8647	95.2148	87.457	95.2148	86.8689	95.2148	87.3429	95.2148	86.905	95.2148	87.2356	95.2148	86.9658	95.2148	87.1356	95.2148	87.0445
98.1445	87.7215	98.1445	87.6677	98.1445	87.7423	98.1445	87.5806	98.1445	87.7311	98.1445	87.4612	98.1445	87.69	98.1445	87.3116	98.1445	87.6215	98.1445	87.1355	98.1445	87.5291	98.1445	86.9386	98.1445	87.4165	98.1445	86.7281	98.1445	87.2882	98.1445	86.5136	98.1445	87.1487	98.1445	86.3059	98.1445	87.003	98.1445	86.1167	98.1445	86.8555	98.1445	85.9569	98.1445	86.7103	98.1445	85.8353	98.1445	86.5707	98.1445	85.7566	98.1445	86.4386	98.1445	85.7213	98.1445	86.315	98.1445	85.7253	98.1445	86.1997	98.1445	85.762	98.1445	86.0923	98.1445	85.8233	98.1445	85.9926	98.1445	85.9019
101.074	86.7132	101.074	86.6657	101.074	86.7241	101.074	86.5816	101.074	86.6993	101.074	86.4623	101.074	86.6406	101.074	86.3106	101.074	86.5512	101.074	86.1309	101.074	86.4348	101.074	85.9296	101.074	86.2962	101.074	85.7146	101.074	86.1412	101.074	85.4961	101.074	85.976	101.074	85.2851	101.074	85.8075	101.074	85.0933	101.074	85.6424	101.074	84.9313	101.074	85.4865	101.074	84.8068	101.074	85.3442	101.074	84.7237	101.074	85.2181	101.074	84.681	101.074	85.1084	101.074	84.6741	101.074	85.0135	101.074	84.6954	101.074	84.9306	101.074	84.737	101.074	84.8573	101.074	84.7924
105.469	85.6172	105.469	85.5517	105.469	85.6406	105.469	85.4461	105.469	85.6214	105.469	85.3031	105.469	85.5599	105.469	85.1275	105.469	85.4575	105.469	84.9252	105.469	85.3167	105.469	84.7045	105.469	85.1414	105.469	84.475	105.469	84.9373	105.469	84.2477	105.469	84.7121	105.469	84.034	105.469	84.4753	105.469	83.8442	105.469	84.2386	105.469	83.686	105.469	84.0144	105.469	83.5628	105.469	83.8146	105.469	83.474	105.469	83.6487	105.469	83.4148	105.469	83.5218	105.469	83.378	105.469	83.434	105.469	83.3567	105.469	83.3803	105.469	83.3457	105.469	83.353	105.469	83.3435
108.398	85.1139	108.398	85.0166	108.398	85.1661	108.398	84.8763	108.398	85.1718	108.398	84.6968	108.398	85.1312	108.398	84.484	108.398	85.0451	108.398	84.2456	108.398	84.9153	108.398	83.9921	108.398	84.7452	108.398	83.7358	108.398	84.5394	108.398	83.4903	108.398	84.3047	108.398	83.2692	108.398	84.0505	108.398	83.0834	108.398	83.7884	108.398	82.9393	108.398	83.5321	108.398	82.8375	108.398	83.2964	108.398	82.7727	108.398	83.0942	108.398	82.7358	108.398	82.935	108.398	82.7164	108.398	82.8218	108.398	82.7062	108.398	82.7514	108.398	82.7008	108.398	82.715	108.398	82.7016
112.793	84.2087	112.793	84.0761	112.793	84.2915	112.793	83.8962	112.793	84.3232	112.793	83.6737	112.793	84.3038	112.793	83.4154	112.793	84.2339	112.793	83.1314	112.793	84.115	112.793	82.8353	112.793	83.9496	112.793	82.5437	112.793	83.7418	112.793	82.2749	112.793	83.4978	112.793	82.0462	112.793	83.2267	112.793	81.8706	112.793	82.9408	112.793	81.7532	112.793	82.6556	112.793	81.69	112.793	82.3885	112.793	81.669	112.793	82.1568	112.793	81.6738	112.793	81.9735	112.793	81.6884	112.793	81.8445	112.793	81.7016	112.793	81.7665	112.793	81.7089	112.793	81.7283	112.793	81.7142
117.188	83.4654	117.188	83.3064	117.188	83.5695	117.188	83.0952	117.188	83.6176	117.188	82.8363	117.188	83.6094	117.188	82.5376	117.188	83.5454	117.188	82.2107	117.188	83.427	117.188	81.8714	117.188	83.2562	117.188	81.5402	117.188	83.0368	117.188	81.2399	117.188	82.7749	117.188	80.9923	117.188	82.4797	117.188	80.8129	117.188	82.1642	117.188	80.7066	117.188	81.8457	117.188	80.6657	117.188	81.5447	117.188	80.6724	117.188	81.2818	117.188	80.7045	117.188	81.0738	117.188	80.7413	117.188	80.9286	117.188	80.769	117.188	80.843	117.188	80.7834	117.188	80.8033	117.188	80.79
120.117	82.9912	120.117	82.8101	120.117	83.113	120.117	82.5733	120.117	83.1737	120.117	82.2866	120.117	83.1726	120.117	81.9596	120.117	83.1096	120.117	81.6065	120.117	82.9854	120.117	81.2466	120.117	82.8018	120.117	80.9043	120.117	82.5622	120.117	80.6059	120.117	82.2729	120.117	80.3747	120.117	81.9439	120.117	80.2245	120.117	81.5905	120.117	80.1547	120.117	81.2335	120.117	80.1502	120.117	80.8987	120.117	80.1856	120.117	80.6129	120.117	80.2334	120.117	80.3982	120.117	80.2704	120.117	80.2648	120.117	80.2827	120.117	80.2076	120.117	80.2681	120.117	80.207	120.117	80.2361
124.512	82.3334	124.512	82.1036	124.512	82.4962	124.512	81.8102	124.512	82.5908	124.512	81.4594	124.512	82.6168	124.512	81.0624	124.512	82.574	124.512	80.6372	124.512	82.4628	124.512	80.2097	124.512	82.2843	124.512	79.8139	124.512	82.0405	124.512	79.487	124.512	81.7363	124.512	79.2607	124.512	81.3804	124.512	79.1498	124.512	80.9878	124.512	79.1457	124.512	80.5808	124.512	79.2179	124.512	80.1899	124.512	79.3257	124.512	79.8498	124.512	79.4297	124.512	79.5924	124.512	79.5007	124.512	79.436	124.512	79.5239	124.512	79.3778	124.512	79.5006	124.512	79.3938	124.512	79.4473
128.906	81.7854	128.906	81.514	128.906	81.9817	128.906	81.1698	128.906	82.1019	128.906	80.759	128.906	82.1462	128.906	80.294	128.906	82.1147	128.906	79.796	128.906	82.0075	128.906	79.2984	128.906	81.8249	128.906	78.8464	128.906	81.5685	128.906	78.4911	128.906	81.242	128.906	78.2749	128.906	80.8536	128.906	78.2128	128.906	80.4186	128.906	78.2842	128.906	79.9618	128.906	78.4403	128.906	79.519	128.906	78.623	128.906	79.1336	128.906	78.782	128.906	78.8473	128.906	78.8834	128.906	78.6857	128.906	78.9124	128.906	78.6458	128.906	78.8732	128.906	78.696	128.906	78.7882
133.301	81.3148	133.301	80.9982	133.301	81.5454	133.301	80.5963	133.301	81.6907	133.301	80.1141	133.301	81.7519	133.301	79.5635	133.301	81.7296	133.301	78.969	133.301	81.6239	133.301	78.3726	133.301	81.4346	133.301	77.8361	133.301	81.1619	133.301	77.4327	133.301	80.8081	133.301	77.223	133.301	80.3801	133.301	77.2233	133.301	79.8926	133.301	77.3934	133.301	79.3721	133.301	77.6563	133.301	78.86	133.301	77.931	133.301	78.4109	133.301	78.1544	133.301	78.0814	133.301	78.2887	133.301	77.9084	133.301	78.3203	133.301	77.8904	133.301	78.2574	133.301	77.9855	133.301	78.1293
139.16	80.769	139.16	80.3948	139.16	81.0452	139.16	79.9214	139.16	81.2259	139.16	79.3514	139.16	81.3131	139.16	78.6958	139.16	81.3078	139.16	77.9818	139.16	81.2094	139.16	77.2622	139.16	81.0165	139.16	76.623	139.16	80.7275	139.16	76.1726	139.16	80.342	139.16	75.9983	139.16	79.8644	139.16	76.1106	139.16	79.3075	139.16	76.4307	139.16	78.6989	139.16	76.8378	139.16	78.0872	139.16	77.2236	139.16	77.5436	139.16	77.5155	139.16	77.1488	139.16	77.6756	139.16	76.9612	139.16	77.6937	139.16	76.9824	139.16	77.5834	139.16	77.1529	139.16	77.382
143.555	80.4489	143.555	80.0085	143.555	80.7787	143.555	79.4531	143.555	81.0023	143.555	78.7824	143.555	81.1229	143.555	78.0056	143.555	81.1418	143.555	77.1539	143.555	81.0578	143.555	76.2976	143.555	80.8682	143.555	75.5624	143.555	80.5692	143.555	75.1109	143.555	80.1579	143.555	75.0585	143.555	79.6351	143.555	75.3768	143.555	79.0108	143.555	75.9114	143.555	78.3121	143.555	76.4885	143.555	77.5937	143.555	76.9836	143.555	76.9454	143.555	77.328	143.555	76.4799	143.555	77.4925	143.555	76.286	143.555	77.4745	143.555	76.3701	143.555	77.2931	143.555	76.6472	143.555	76.9919
147.949	80.2296	147.949	79.7229	147.949	80.6096	147.949	79.0788	147.949	80.8719	147.949	78.2885	147.949	81.0223	147.949	77.351	147.949	81.0639	147.949	76.2899	147.949	80.9961	147.949	75.1843	147.949	80.8156	147.949	74.2125	147.949	80.5172	147.949	73.6483	147.949	80.0952	147.949	73.6928	147.949	79.5461	147.949	74.2627	147.949	78.8742	147.949	75.0725	147.949	78.1	147.949	75.8684	147.949	77.275	147.949	76.5091	147.949	76.4969	147.949	76.9348	147.949	75.9074	147.949	77.1288	147.949	75.6398	147.949	77.0979	147.949	75.726	147.949	76.8683	147.949	76.0647	147.949	76.4928
153.809	79.9584	153.809	79.3935	153.809	80.3809	153.809	78.6674	153.809	80.6749	153.809	77.7584	153.809	80.8499	153.809	76.6464	153.809	80.9103	153.809	75.3289	153.809	80.8564	153.809	73.8659	153.809	80.6841	153.809	72.4837	153.809	80.3864	153.809	71.6687	153.809	79.9546	153.809	71.857	153.809	79.3805	153.809	72.8442	153.809	78.6622	153.809	74.0684	153.809	77.8134	153.809	75.1656	153.809	76.881	153.809	75.9987	153.809	75.9707	153.809	76.5351	153.809	75.2587	153.809	76.7787	153.809	74.9328	153.809	76.7483	153.809	75.053	153.809	76.4761	153.809	75.4872	153.809	76.0202
159.668	79.9936	159.668	79.4287	159.668	80.4096	159.668	78.6911	159.668	80.6941	159.668	77.7491	159.668	80.8578	159.668	76.564	159.668	80.9063	159.668	75.0964	159.668	80.84	159.668	73.3398	159.668	80.6547	159.668	71.446	159.668	80.3425	159.668	70.0284	159.668	79.8935	159.668	70.0471	159.668	79.2976	159.668	71.3822	159.668	78.5506	159.668	73.033	159.668	77.6633	159.668	74.4501	159.668	76.682	159.668	75.499	159.668	75.7176	159.668	76.178	159.668	74.9636	159.668	76.5136	159.668	74.6309	159.668	76.5375	159.668	74.7828	159.668	76.2881	159.668	75.2618	159.668	75.8261
165.527	79.8975	165.527	79.2903	165.527	80.3415	165.527	78.4928	165.527	80.6411	165.527	77.4678	165.527	80.8077	165.527	76.1691	165.527	80.8459	165.527	74.5506	165.527	80.7546	165.527	72.6199	165.527	80.527	165.527	70.6503	165.527	80.1515	165.527	69.5935	165.527	79.613	165.527	70.3561	165.527	78.8951	165.527	72.1398	165.527	77.9865	165.527	73.9018	165.527	76.8952	165.527	75.298	165.527	75.6829	165.527	76.2877	165.527	74.5271	165.527	76.8962	165.527	73.7615	165.527	77.1532	165.527	73.7022	165.527	77.0818	165.527	74.2997	165.527	76.7032	165.527	75.1905	165.527	76.0487
171.387	79.7449	171.387	79.0471	171.387	80.2601	171.387	78.1273	171.387	80.618	171.387	76.9276	171.387	80.8338	171.387	75.363	171.387	80.9137	171.387	73.3144	171.387	80.8563	171.387	70.6726	171.387	80.6528	171.387	67.7951	171.387	80.2878	171.387	67.0316	171.387	79.7397	171.387	69.4234	171.387	78.9816	171.387	72.1615	171.387	77.9845	171.387	74.2744	171.387	76.7281	171.387	75.7754	171.387	75.2362	171.387	76.7697	171.387	73.677	171.387	77.3328	171.387	72.533	171.387	77.5088	171.387	72.4463	171.387	77.3201	171.387	73.3897	171.387	76.7762	171.387	74.6982	171.387	75.887
177.246	79.6946	177.246	78.9342	177.246	80.2586	177.246	77.928	177.246	80.6579	177.246	76.5975	177.246	80.9106	177.246	74.8141	177.246	81.0245	177.246	72.3522	177.246	80.9984	177.246	68.8045	177.246	80.8227	177.246	64.0363	177.246	80.4799	177.246	64.1183	177.246	79.9449	177.246	68.8492	177.246	79.1843	177.246	72.2974	177.246	78.1578	177.246	74.6081	177.246	76.8229	177.246	76.1591	177.246	75.1624	177.246	77.1487	177.246	73.2898	177.246	77.6784	177.246	71.7392	177.246	77.7985	177.246	71.5149	177.246	77.5291	177.246	72.7265	177.246	76.8697	177.246	74.3726	177.246	75.8115
183.105	79.7473	183.105	78.9373	183.105	80.3511	183.105	77.8624	183.105	80.7849	183.105	76.4256	183.105	81.0697	183.105	74.4556	183.105	81.2141	183.105	71.6021	183.105	81.2169	183.105	66.9414	183.105	81.0675	183.105	56.5234	183.105	80.7468	183.105	62.0184	183.105	80.2266	183.105	69.175	183.105	79.4692	183.105	72.9026	183.105	78.4257	183.105	75.2475	183.105	77.0374	183.105	76.7855	183.105	75.2536	183.105	77.7478	183.105	73.1325	183.105	78.2417	183.105	71.2277	183.105	78.3164	183.105	70.9231	183.105	77.987	183.105	72.4562	183.105	77.2438	183.105	74.4189	183.105	76.0597
188.965	79.9281	188.965	79.1108	188.965	80.5394	188.965	78.0251	188.965	80.983	188.965	76.5684	188.965	81.2806	188.965	74.5576	188.965	81.4412	188.965	71.6128	188.965	81.4628	188.965	66.7009	188.965	81.3335	188.965	55.5701	188.965	81.0318	188.965	63.5793	188.965	80.5262	188.965	70.1575	188.965	79.774	188.965	73.7221	188.965	78.7178	188.965	75.9965	188.965	77.2826	188.965	77.4957	188.965	75.3835	188.965	78.431	188.965	73.0144	188.965	78.9002	188.965	70.7337	188.965	78.9464	188.965	70.4175	188.965	78.5784	188.965	72.3888	188.965	77.7767	188.965	74.6795	188.965	76.4958
196.289	80.3323	196.289	79.5549	196.289	80.9221	196.289	78.5343	196.289	81.3591	196.289	77.1846	196.289	81.6629	196.289	75.3684	196.289	81.8404	196.289	72.8635	196.289	81.8872	196.289	69.4054	196.289	81.7887	196.289	66.126	196.289	81.5204	196.289	68.1121	196.289	81.0475	196.289	72.0322	196.289	80.323	196.289	74.9835	196.289	79.2832	196.289	77.0531	196.289	77.8412	196.289	78.4694	196.289	75.886	196.289	79.366	196.289	73.3526	196.289	79.8127	196.289	70.7615	196.289	79.8396	196.289	70.4285	196.289	79.447	196.289	72.7776	196.289	78.6069	196.289	75.3185	196.289	77.2596
203.613	80.3289	203.613	79.688	203.613	80.7838	203.613	78.8127	203.613	81.0833	203.613	77.6287	203.613	81.2448	203.613	76.0178	203.613	81.2734	203.613	73.7839	203.613	81.1632	203.613	70.6143	203.613	80.8973	203.613	66.5695	203.613	80.4465	203.613	66.2407	203.613	79.7679	203.613	70.3937	203.613	78.8002	203.613	73.8118	203.613	77.455	203.613	76.1878	203.613	75.6051	203.613	77.8171	203.613	73.0916	203.613	78.8814	203.613	70.0019	203.613	79.4778	203.613	68.3556	203.613	79.654	203.613	70.5933	203.613	79.4249	203.613	73.6381	203.613	78.7767	203.613	75.9948	203.613	77.6632
210.938	80.7622	210.938	79.9505	210.938	81.3645	210.938	78.8705	210.938	81.7941	210.938	77.4308	210.938	82.0706	210.938	75.4916	210.938	82.1997	210.938	72.8714	210.938	82.1743	210.938	69.6904	210.938	81.9755	210.938	68.4531	210.938	81.5709	210.938	71.2855	210.938	80.9124	210.938	74.5385	210.938	79.9279	210.938	77.0136	210.938	78.5033	210.938	78.7949	210.938	76.4362	210.938	80.0272	210.938	73.3015	210.938	80.8018	210.938	67.9453	210.938	81.1691	210.938	59.5719	210.938	81.1494	210.938	68.0193	210.938	80.7376	210.938	73.3762	210.938	79.8981	210.938	76.5081	210.938	78.5473
218.262	81.3725	218.262	80.5895	218.262	81.9897	218.262	79.6049	218.262	82.4667	218.262	78.382	218.262	82.8171	218.262	76.9188	218.262	83.0417	218.262	75.3661	218.262	83.1299	218.262	74.2882	218.262	83.0597	218.262	74.5396	218.262	82.798	218.262	76.0436	218.262	82.2985	218.262	77.9006	218.262	81.4964	218.262	79.5635	218.262	80.2942	218.262	80.8728	218.262	78.527	218.262	81.805	218.262	75.8664	218.262	82.3665	218.262	71.4556	218.262	82.5619	218.262	61.3482	218.262	82.384	218.262	64.8178	218.262	81.8068	218.262	72.7924	218.262	80.7723	218.262	76.7193	218.262	79.1616
225.586	81.9761	225.586	81.3865	225.586	82.4389	225.586	80.6464	225.586	82.7933	225.586	79.7366	225.586	83.0479	225.586	78.6674	225.586	83.1999	225.586	77.5395	225.586	83.2343	225.586	76.6505	225.586	83.1244	225.586	76.4856	225.586	82.8315	225.586	77.2634	225.586	82.3031	225.586	78.6112	225.586	81.4663	225.586	80.0341	225.586	80.2123	225.586	81.2587	225.586	78.3557	225.586	82.1809	225.586	75.5173	225.586	82.7669	225.586	70.6529	225.586	83.0034	225.586	58.6613	225.586	82.8766	225.586	67.26	225.586	82.3597	225.586	74.02	225.586	81.3993	225.586	77.6095	225.586	79.8898
232.91	82.5932	232.91	82.0713	232.91	83.0106	232.91	81.4282	232.91	83.337	232.91	80.6554	232.91	83.5773	232.91	79.7752	232.91	83.7251	232.91	78.8865	232.91	83.762	232.91	78.2247	232.91	83.6579	232.91	78.1257	232.91	83.3706	232.91	78.7468	232.91	82.844	232.91	79.8614	232.91	82.0014	232.91	81.1009	232.91	80.7281	232.91	82.2114	232.91	78.8267	232.91	83.07	232.91	75.8833	232.91	83.6239	232.91	70.688	232.91	83.8477	232.91	54.185	232.91	83.7207	232.91	68.5486	232.91	83.2132	232.91	75.0731	232.91	82.2713	232.91	78.5635	232.91	80.7923
241.699	83.1164	241.699	82.646	241.699	83.4875	241.699	82.0598	241.699	83.772	241.699	81.3478	241.699	83.9736	241.699	80.527	241.699	84.0843	241.699	79.6829	241.699	84.0838	241.699	79.0253	241.699	83.9396	241.699	78.8713	241.699	83.6065	241.699	79.4065	241.699	83.0248	241.699	80.4562	241.699	82.1122	241.699	81.6679	241.699	80.7454	241.699	82.7766	241.699	78.7123	241.699	83.6481	241.699	75.5798	241.699	84.2244	241.699	70.2997	241.699	84.4796	241.699	64.9948	241.699	84.3957	241.699	72.0055	241.699	83.949	241.699	76.8032	241.699	83.0968	241.699	79.7747	241.699	81.7585
250.488	84.3032	250.488	83.8236	250.488	84.7205	250.488	83.2767	250.488	85.0807	250.488	82.6717	250.488	85.3807	250.488	82.056	250.488	85.6068	250.488	81.545	250.488	85.7346	250.488	81.3248	250.488	85.73	250.488	81.5635	250.488	85.5508	250.488	82.2596	250.488	85.1464	250.488	83.2259	250.488	84.4542	250.488	84.2334	250.488	83.3922	250.488	85.1158	250.488	81.8426	250.488	85.7776	250.488	79.6303	250.488	86.1669	250.488	76.5731	250.488	86.2528	250.488	73.4429	250.488	86.0099	250.488	74.3137	250.488	85.4077	250.488	77.8441	250.488	84.3985	250.488	80.7804	250.488	82.9017
259.277	84.4686	259.277	84.1124	259.277	84.8098	259.277	83.7366	259.277	85.1393	259.277	83.349	259.277	85.4507	259.277	82.9869	259.277	85.7242	259.277	82.7299	259.277	85.9276	259.277	82.6896	259.277	86.0195	259.277	82.9559	259.277	85.9517	259.277	83.5261	259.277	85.6702	259.277	84.2933	259.277	85.1132	259.277	85.1069	259.277	84.2037	259.277	85.8341	259.277	82.8362	259.277	86.3801	259.277	80.855	259.277	86.6816	259.277	78.0614	259.277	86.6942	259.277	74.7214	259.277	86.3806	259.277	74.1805	259.277	85.699	259.277	77.4853	259.277	84.5899	259.277	80.6466	259.277	82.9576
268.066	85.6299	268.066	85.3143	268.066	85.9725	268.066	85.0286	268.066	86.3356	268.066	84.7846	268.066	86.7022	268.066	84.6133	268.066	87.0432	268.066	84.5686	268.066	87.3194	268.066	84.7114	268.066	87.4856	268.066	85.0764	268.066	87.4932	268.066	85.6412	268.066	87.2915	268.066	86.3272	268.066	86.825	268.066	87.0295	268.066	86.0287	268.066	87.6469	268.066	84.8187	268.066	88.0967	268.066	83.0816	268.066	88.3163	268.066	80.7	268.066	88.2572	268.066	77.8987	268.066	87.8775	268.066	76.7645	268.066	87.1319	268.066	79.0404	268.066	85.9604	268.066	81.9615	268.066	84.2752
276.855	86.3003	276.855	86.2318	276.855	86.5306	276.855	86.3002	276.855	86.9187	276.855	86.4744	276.855	87.4228	276.855	86.7353	276.855	87.9741	276.855	87.0789	276.855	88.496	276.855	87.5054	276.855	88.9175	276.855	88.005	276.855	89.178	276.855	88.5499	276.855	89.2251	276.855	89.0966	276.855	89.0109	276.855	89.5927	276.855	88.485	276.855	89.9826	276.855	87.5869	276.855	90.2113	276.855	86.2373	276.855	90.2264	276.855	84.3428	276.855	89.9776	276.855	81.9095	276.855	89.4136	276.855	79.7363	276.855	88.4761	276.855	80.1333	276.855	87.0908	276.855	82.6678	276.855	85.1664
287.109	86.2304	287.109	86.6863	287.109	85.9834	287.109	87.2437	287.109	86.0388	287.109	87.8221	287.109	86.4135	287.109	88.3736	287.109	87.0249	287.109	88.873	287.109	87.7353	287.109	89.3069	287.109	88.4098	287.109	89.6677	287.109	88.9437	287.109	89.9531	287.109	89.261	287.109	90.1642	287.109	89.3036	287.109	90.3013	287.109	89.0178	287.109	90.3536	287.109	88.3392	287.109	90.2915	287.109	87.1723	287.109	90.0636	287.109	85.3543	287.109	89.6001	287.109	82.5862	287.109	88.8138	287.109	78.4229	287.109	87.59	287.109	75.045	287.109	85.7577	287.109	78.9305	287.109	83.0232
297.363	84.5981	297.363	85.3668	297.363	83.7531	297.363	86.0168	297.363	82.9332	297.363	86.5351	297.363	82.3237	297.363	86.919	297.363	82.1402	297.363	87.1676	297.363	82.4568	297.363	87.2796	297.363	83.1078	297.363	87.2566	297.363	83.822	297.363	87.1118	297.363	84.3801	297.363	86.8791	297.363	84.6435	297.363	86.6155	297.363	84.5172	297.363	86.3815	297.363	83.9069	297.363	86.2002	297.363	82.6721	297.363	86.0253	297.363	80.5461	297.363	85.7482	297.363	76.8923	297.363	85.2287	297.363	69.6335	297.363	84.3108	297.363	67.9252	297.363	82.7983	297.363	76.2438	297.363	80.3635
307.617	85.9152	307.617	86.3407	307.617	85.4691	307.617	86.7084	307.617	85.0565	307.617	86.9954	307.617	84.7405	307.617	87.1897	307.617	84.57	307.617	87.2865	307.617	84.5483	307.617	87.29	307.617	84.6184	307.617	87.2181	307.617	84.6774	307.617	87.1108	307.617	84.6042	307.617	87.0311	307.617	84.275	307.617	87.0451	307.617	83.5568	307.617	87.1787	307.617	82.2746	307.617	87.385	307.617	80.1286	307.617	87.558	307.617	76.438	307.617	87.5756	307.617	69.256	307.617	87.3289	307.617	69.9036	307.617	86.7226	307.617	77.3614	307.617	85.6554	307.617	81.4306	307.617	83.9819
319.336	85.9853	319.336	86.4674	319.336	85.4806	319.336	86.8852	319.336	85.0178	319.336	87.2145	319.336	84.6786	319.336	87.4413	319.336	84.5314	319.336	87.5575	319.336	84.5848	319.336	87.5613	319.336	84.7653	319.336	87.4633	319.336	84.9434	319.336	87.2971	319.336	84.9777	319.336	87.1295	319.336	84.7376	319.336	87.0483	319.336	84.0952	319.336	87.1142	319.336	82.8933	319.336	87.3042	319.336	80.8797	319.336	87.5097	319.336	77.5751	319.336	87.5911	319.336	72.5216	319.336	87.4235	319.336	72.8868	319.336	86.9041	319.336	78.3251	319.336	85.9319	319.336	81.9895	319.336	84.3715
329.59	85.9291	329.59	86.4005	329.59	85.4048	329.59	86.7906	329.59	84.8807	329.59	87.0865	329.59	84.4377	329.59	87.2821	329.59	84.1652	329.59	87.3735	329.59	84.1113	329.59	87.3605	329.59	84.2345	329.59	87.253	329.59	84.411	329.59	87.0851	329.59	84.4847	329.59	86.9271	329.59	84.3063	329.59	86.874	329.59	83.7344	329.59	86.9903	329.59	82.6068	329.59	87.2466	329.59	80.6838	329.59	87.5221	329.59	77.5773	329.59	87.6679	329.59	73.4306	329.59	87.5564	329.59	74.3495	329.59	87.0873	329.59	79.0092	329.59	86.1658	329.59	82.4011	329.59	84.6702
341.309	86.2245	341.309	86.7015	341.309	85.7614	341.309	87.1429	341.309	85.3872	341.309	87.5191	341.309	85.1907	341.309	87.812	341.309	85.235	341.309	88.01	341.309	85.5076	341.309	88.1083	341.309	85.9109	341.309	88.1153	341.309	86.3039	341.309	88.0639	341.309	86.5506	341.309	88.0183	341.309	86.5401	341.309	88.0588	341.309	86.1788	341.309	88.2305	341.309	85.3733	341.309	88.4948	341.309	84.0144	341.309	88.7381	341.309	82.0032	341.309	88.8257	341.309	79.5674	341.309	88.6414	341.309	78.5209	341.309	88.0916	341.309	80.5487	341.309	87.0891	341.309	83.3265	341.309	85.5352
353.027	85.2224	353.027	85.866	353.027	84.5659	353.027	86.45	353.027	83.9939	353.027	86.9567	353.027	83.6575	353.027	87.3804	353.027	83.6987	353.027	87.7169	353.027	84.1324	353.027	87.9608	353.027	84.8069	353.027	88.1087	353.027	85.5033	353.027	88.1695	353.027	86.0372	353.027	88.1763	353.027	86.2808	353.027	88.1854	353.027	86.1387	353.027	88.2471	353.027	85.5133	353.027	88.3595	353.027	84.2698	353.027	88.4497	353.027	82.1939	353.027	88.4004	353.027	79.022	353.027	88.0877	353.027	75.7653	353.027	87.3931	353.027	77.5844	353.027	86.1877	353.027	81.4578	353.027	84.2962
366.211	84.9412	366.211	85.6855	366.211	84.0726	366.211	86.3111	366.211	83.1148	366.211	86.8313	366.211	82.2008	366.211	87.2518	366.211	81.6076	366.211	87.5654	366.211	81.6303	366.211	87.755	366.211	82.2532	366.211	87.8029	366.211	83.1221	366.211	87.7078	366.211	83.8709	366.211	87.507	366.211	84.2738	366.211	87.2913	366.211	84.1948	366.211	87.1798	366.211	83.5039	366.211	87.2371	366.211	81.9925	366.211	87.4014	366.211	79.22	366.211	87.5135	366.211	74.1014	366.211	87.399	366.211	69.5573	366.211	86.9075	366.211	76.7528	366.211	85.8957	366.211	81.396	366.211	84.174
379.395	85.0176	379.395	85.6633	379.395	84.2742	379.395	86.2243	379.395	83.4483	379.395	86.7165	379.395	82.6253	379.395	87.1448	379.395	82.0033	379.395	87.4981	379.395	81.8393	379.395	87.752	379.395	82.2124	379.395	87.8808	379.395	82.8869	379.395	87.8776	379.395	83.5174	379.395	87.7805	379.395	83.8459	379.395	87.6844	379.395	83.7054	379.395	87.7051	379.395	82.9465	379.395	87.8879	379.395	81.3597	379.395	88.1522	379.395	78.6193	379.395	88.3395	379.395	74.9186	379.395	88.2942	379.395	75.5028	379.395	87.8929	379.395	79.9279	379.395	87.0264	379.395	83.3053	379.395	85.5642
392.578	85.4783	392.578	86.103	392.578	84.764	392.578	86.6647	392.578	83.9597	392.578	87.1874	392.578	83.1387	392.578	87.676	392.578	82.5018	392.578	88.1115	392.578	82.3361	392.578	88.457	392.578	82.7549	392.578	88.6717	392.578	83.5214	392.578	88.7313	392.578	84.273	392.578	88.6525	392.578	84.7491	392.578	88.5107	392.578	84.796	392.578	88.423	392.578	84.2961	392.578	88.473	392.578	83.1169	392.578	88.6321	392.578	81.1362	392.578	88.7687	392.578	78.7189	392.578	88.7228	392.578	78.3962	392.578	88.354	392.578	81.1684	392.578	87.5406	392.578	84.0545	392.578	86.1562
405.762	83.9633	405.762	84.4744	405.762	83.334	405.762	84.9358	405.762	82.5436	405.762	85.4032	405.762	81.6339	405.762	85.8913	405.762	80.8305	405.762	86.365	405.762	80.5735	405.762	86.7554	405.762	81.1432	405.762	86.9868	405.762	82.2407	405.762	87.0056	405.762	83.353	405.762	86.811	405.762	84.1589	405.762	86.491	405.762	84.505	405.762	86.2277	405.762	84.2903	405.762	86.204	405.762	83.3988	405.762	86.4334	405.762	81.6854	405.762	86.7286	405.762	79.1622	405.762	86.8464	405.762	77.3294	405.762	86.5909	405.762	79.0906	405.762	85.8107	405.762	82.0847	405.762	84.3597
420.41	85.5162	420.41	85.7903	420.41	85.0895	420.41	85.986	420.41	84.4687	420.41	86.1842	420.41	83.6775	420.41	86.4384	420.41	82.8648	420.41	86.7451	420.41	82.3548	420.41	87.0436	420.41	82.4723	420.41	87.2486	420.41	83.1558	420.41	87.2936	420.41	83.9979	420.41	87.1765	420.41	84.627	420.41	87.0008	420.41	84.818	420.41	86.9627	420.41	84.409	420.41	87.2106	420.41	83.2113	420.41	87.679	420.41	80.95	420.41	88.1354	420.41	77.5477	420.41	88.3483	420.41	76.3908	420.41	88.1531	420.41	80.2161	420.41	87.4219	420.41	83.7038	420.41	86.0108
435.059	83.5811	435.059	83.8752	435.059	82.9667	435.059	84.0373	435.059	81.8618	435.059	84.2704	435.059	80.101	435.059	84.7178	435.059	77.698	435.059	85.3692	435.059	76.0782	435.059	86.0763	435.059	77.8955	435.059	86.6571	435.059	80.9706	435.059	86.9758	435.059	83.3737	435.059	86.9791	435.059	84.9234	435.059	86.7279	435.059	85.6903	435.059	86.4221	435.059	85.6879	435.059	86.3324	435.059	84.824	435.059	86.575	435.059	82.8438	435.059	86.9793	435.059	79.1974	435.059	87.2464	435.059	74.2171	435.059	87.1182	435.059	77.2416	435.059	86.3846	435.059	81.9791	435.059	84.8054
451.172	87.3592	451.172	87.0611	451.172	87.3667	451.172	86.5391	451.172	87.034	451.172	85.908	451.172	86.3055	451.172	85.3435	451.172	85.1118	451.172	85.0197	451.172	83.3958	451.172	84.9714	451.172	81.2538	451.172	85.0428	451.172	79.365	451.172	85.0127	451.172	78.9794	451.172	84.7663	451.172	79.8407	451.172	84.4484	451.172	80.5641	451.172	84.526	451.172	80.4008	451.172	85.374	451.172	78.9255	451.172	86.709	451.172	75.7969	451.172	87.9797	451.172	74.4948	451.172	88.8576	451.172	79.4092	451.172	89.2094	451.172	83.6126	451.172	88.9684	451.172	86.3575	451.172	88.0608
465.82	86.7609	465.82	86.5771	465.82	86.7051	465.82	86.197	465.82	86.3855	465.82	85.7021	465.82	85.7884	465.82	85.2219	465.82	84.9279	465.82	84.9009	465.82	83.908	465.82	84.8108	465.82	83.0239	465.82	84.8919	465.82	82.7095	465.82	85.0163	465.82	83.0889	465.82	85.1294	465.82	83.7668	465.82	85.3528	465.82	84.2657	465.82	85.9138	465.82	84.2801	465.82	86.8687	465.82	83.6362	465.82	87.9839	465.82	82.3308	465.82	88.9535	465.82	81.0457	465.82	89.5679	465.82	81.6559	465.82	89.7081	465.82	84.0955	465.82	89.2941	465.82	86.5095	465.82	88.2518
483.398	84.9958	483.398	85.0095	483.398	84.696	483.398	84.8544	483.398	84.0323	483.398	84.7065	483.398	82.9588	483.398	84.7689	483.398	81.5432	483.398	85.1547	483.398	80.2852	483.398	85.7894	483.398	80.3168	483.398	86.4672	483.398	81.8499	483.398	86.9873	483.398	83.7218	483.398	87.2501	483.398	85.1993	483.398	87.3109	483.398	86.0741	483.398	87.3809	483.398	86.2619	483.398	87.689	483.398	85.6526	483.398	88.2456	483.398	84.0708	483.398	88.8229	483.398	81.385	483.398	89.1531	483.398	78.9659	483.398	89.0359	483.398	80.9336	483.398	88.3174	483.398	84.3735	483.398	86.8333
499.512	85.8857	499.512	85.441	499.512	85.9578	499.512	84.6683	499.512	85.6224	499.512	83.6949	499.512	84.8117	499.512	82.8323	499.512	83.3958	499.512	82.5506	499.512	81.1808	499.512	83.0482	499.512	78.1284	499.512	83.9513	499.512	75.9722	499.512	84.7486	499.512	77.7413	499.512	85.174	499.512	80.4197	499.512	85.2592	499.512	82.1284	499.512	85.3083	499.512	82.7231	499.512	85.7129	499.512	82.1242	499.512	86.5431	499.512	80.0349	499.512	87.4811	499.512	76.2062	499.512	88.1719	499.512	75.895	499.512	88.3881	499.512	80.9532	499.512	87.9805	499.512	84.5963	499.512	86.7963
517.09	87.8783	517.09	87.3109	517.09	88.0697	517.09	86.3835	517.09	87.8552	517.09	85.1416	517.09	87.1825	517.09	83.8081	517.09	85.9735	517.09	83.0136	517.09	84.1318	517.09	83.3703	517.09	81.7101	517.09	84.4399	517.09	79.9184	517.09	85.422	517.09	81.0606	517.09	85.9912	517.09	83.4177	517.09	86.1662	517.09	85.001	517.09	86.1756	517.09	85.45	517.09	86.4502	517.09	84.6833	517.09	87.289	517.09	82.4746	517.09	88.4175	517.09	78.6904	517.09	89.3308	517.09	78.0977	517.09	89.7176	517.09	82.7482	517.09	89.4298	517.09	86.2416	517.09	88.3418
536.133	88.492	536.133	87.9217	536.133	88.7289	536.133	86.97	536.133	88.629	536.133	85.5346	536.133	88.1364	536.133	83.4677	536.133	87.1312	536.133	80.6954	536.133	85.4028	536.133	78.0073	536.133	82.6062	536.133	77.9978	536.133	78.4379	536.133	79.9361	536.133	76.1743	536.133	81.4625	536.133	79.7298	536.133	82.3704	536.133	82.6743	536.133	83.2973	536.133	83.9683	536.133	84.7905	536.133	83.731	536.133	86.6541	536.133	81.8276	536.133	88.3594	536.133	78.4881	536.133	89.5746	536.133	79.2995	536.133	90.1583	536.133	83.9111	536.133	90.0338	536.133	87.1756	536.133	89.1023
555.176	86.7777	555.176	86.5024	555.176	86.8481	555.176	85.9771	555.176	86.7186	555.176	85.1302	555.176	86.3398	555.176	83.8817	555.176	85.5923	555.176	82.189	555.176	84.2722	555.176	80.2427	555.176	82.0692	555.176	78.9868	555.176	78.5671	555.176	79.5201	555.176	74.6019	555.176	81.0227	555.176	76.4705	555.176	82.4928	555.176	80.167	555.176	83.8784	555.176	82.2153	555.176	85.3666	555.176	82.6694	555.176	86.9161	555.176	81.5233	555.176	88.2807	555.176	78.7747	555.176	89.2141	555.176	77.7908	555.176	89.552	555.176	81.973	555.176	89.1775	555.176	85.6604	555.176	87.9549
574.219	86.6766	574.219	86.4179	574.219	86.916	574.219	86.0959	574.219	87.1024	574.219	85.5897	574.219	87.1486	574.219	84.7273	574.219	86.9481	574.219	83.3465	574.219	86.3828	574.219	81.4501	574.219	85.2865	574.219	79.6741	574.219	83.4083	574.219	79.5601	574.219	80.5525	574.219	81.0908	574.219	77.8018	574.219	82.7122	574.219	78.444	574.219	83.9509	574.219	80.398	574.219	85.1267	574.219	81.1039	574.219	86.4808	574.219	80.1619	574.219	87.7981	574.219	78.0062	574.219	88.7517	574.219	78.6385	574.219	89.1539	574.219	82.6521	574.219	88.8999	574.219	85.8751	574.219	87.8713
594.727	86.484	594.727	86.6159	594.727	86.3783	594.727	86.6411	594.727	86.3819	594.727	86.4247	594.727	86.4661	594.727	85.8393	594.727	86.4816	594.727	84.7547	594.727	86.2154	594.727	83.048	594.727	85.4641	594.727	80.8217	594.727	84.1128	594.727	79.2705	594.727	82.3734	594.727	80.0428	594.727	81.3434	594.727	81.802	594.727	82.0243	594.727	83.2483	594.727	83.1653	594.727	84.4118	594.727	83.4689	594.727	85.6057	594.727	82.4633	594.727	86.8345	594.727	80.0975	594.727	87.7979	594.727	78.5246	594.727	88.2172	594.727	81.3471	594.727	87.9318	594.727	84.661	594.727	86.8101
615.234	85.6678	615.234	86.087	615.234	85.1177	615.234	86.3158	615.234	84.5224	615.234	86.2997	615.234	83.9684	615.234	85.9577	615.234	83.4604	615.234	85.1694	615.234	82.8538	615.234	83.8116	615.234	81.8872	615.234	81.9161	615.234	80.3804	615.234	80.1592	615.234	78.9808	615.234	79.9615	615.234	79.745	615.234	81.0518	615.234	82.1111	615.234	82.0824	615.234	83.952	615.234	82.9199	615.234	84.6131	615.234	84.0568	615.234	83.9221	615.234	85.4932	615.234	81.7686	615.234	86.7156	615.234	79.1622	615.234	87.3308	615.234	80.4854	615.234	87.1529	615.234	83.7857	615.234	86.038
637.207	86.7644	637.207	86.8271	637.207	86.5655	637.207	86.6983	637.207	86.299	637.207	86.3351	637.207	86.0163	637.207	85.6878	637.207	85.6949	637.207	84.6835	637.207	85.1901	637.207	83.242	637.207	84.2227	637.207	81.4158	637.207	82.3905	637.207	79.8654	637.207	79.2437	637.207	79.8127	637.207	75.83	637.207	80.8504	637.207	77.556	637.207	81.8506	637.207	80.4635	637.207	82.8527	637.207	81.4496	637.207	84.2737	637.207	80.2501	637.207	85.913	637.207	76.2858	637.207	87.2391	637.207	74.2491	637.207	87.9222	637.207	80.5012	637.207	87.8148	637.207	84.5592	637.207	86.7848
659.18	85.5201	659.18	85.658	659.18	85.2044	659.18	85.5632	659.18	84.8137	659.18	85.21	659.18	84.4563	659.18	84.5515	659.18	84.1496	659.18	83.4788	659.18	83.7601	659.18	81.867	659.18	83.0702	659.18	79.9448	659.18	81.9549	659.18	79.1794	659.18	80.6932	659.18	80.5451	659.18	80.2949	659.18	82.2846	659.18	81.262	659.18	83.4057	659.18	82.4391	659.18	84.0474	659.18	82.8205	659.18	84.7007	659.18	82.0067	659.18	85.5871	659.18	79.9333	659.18	86.3951	659.18	78.0612	659.18	86.7258	659.18	79.8933	659.18	86.3597	659.18	82.9861	659.18	85.1638
682.617	85.275	682.617	85.9231	682.617	84.5949	682.617	86.419	682.617	84.0446	682.617	86.6707	682.617	83.744	682.617	86.5711	682.617	83.6226	682.617	85.9632	682.617	83.381	682.617	84.5966	682.617	82.5525	682.617	82.0057	682.617	80.4466	682.617	77.1184	682.617	75.8138	682.617	69.4453	682.617	72.076	682.617	74.9133	682.617	78.8189	682.617	78.5077	682.617	82.635	682.617	79.5096	682.617	84.0673	682.617	80.1797	682.617	83.6866	682.617	82.0045	682.617	81.5386	682.617	84.0191	682.617	78.0592	682.617	85.2094	682.617	78.2444	682.617	85.3333	682.617	81.8691	682.617	84.2934
707.52	86.4011	707.52	86.5635	707.52	85.9605	707.52	86.4383	707.52	85.3712	707.52	86.0993	707.52	84.8703	707.52	85.6321	707.52	84.641	707.52	85.0178	707.52	84.55	707.52	84.0468	707.52	84.142	707.52	82.3601	707.52	82.8622	707.52	79.6499	707.52	80.1031	707.52	76.5301	707.52	75.5838	707.52	76.2089	707.52	75.0107	707.52	78.2159	707.52	78.4612	707.52	79.9793	707.52	79.6916	707.52	81.7351	707.52	78.2775	707.52	83.7603	707.52	73.0487	707.52	85.5066	707.52	71.1797	707.52	86.4974	707.52	79.3113	707.52	86.5715	707.52	83.4659	707.52	85.6415
732.422	85.2834	732.422	85.5576	732.422	84.6939	732.422	85.5414	732.422	83.8682	732.422	85.3187	732.422	83.0435	732.422	84.9792	732.422	82.5584	732.422	84.5322	732.422	82.4943	732.422	83.8344	732.422	82.4233	732.422	82.6097	732.422	81.712	732.422	80.5623	732.422	79.7659	732.422	77.8948	732.422	76.2935	732.422	76.8718	732.422	75.0394	732.422	78.0919	732.422	78.5596	732.422	78.9394	732.422	80.8505	732.422	79.7546	732.422	81.012	732.422	81.6028	732.422	79.0107	732.422	83.5589	732.422	76.018	732.422	84.7196	732.422	78.1176	732.422	84.8895	732.422	81.817	732.422	83.9971
757.324	84.352	757.324	84.7736	757.324	83.7065	757.324	84.9977	757.324	82.9379	757.324	85.1192	757.324	82.3169	757.324	85.2064	757.324	82.2061	757.324	85.1844	757.324	82.644	757.324	84.7971	757.324	83.0991	757.324	83.6574	757.324	82.8896	757.324	81.2871	757.324	81.4017	757.324	77.6764	757.324	78.0341	757.324	76.4517	757.324	75.4014	757.324	78.1068	757.324	79.176	757.324	78.5311	757.324	81.9893	757.324	78.6096	757.324	82.473	757.324	80.4736	757.324	80.5359	757.324	82.8788	757.324	75.1354	757.324	84.3441	757.324	73.5933	757.324	84.568	757.324	80.17	757.324	83.3751
785.156	83.9519	785.156	83.9995	785.156	83.7318	785.156	83.9378	785.156	83.3782	785.156	83.8739	785.156	83.0482	785.156	83.8734	785.156	82.9665	785.156	83.8809	785.156	83.2163	785.156	83.6918	785.156	83.5072	785.156	83.015	785.156	83.3016	785.156	81.7329	785.156	82.1019	785.156	80.5484	785.156	79.805	785.156	80.617	785.156	78.131	785.156	81.177	785.156	79.1006	785.156	81.1466	785.156	79.815	785.156	80.8524	785.156	78.3527	785.156	81.7366	785.156	74.1855	785.156	83.7045	785.156	74.7635	785.156	85.2591	785.156	80.2465	785.156	85.811	785.156	83.5597	785.156	85.2795
811.523	84.8003	811.523	84.9085	811.523	84.372	811.523	84.7349	811.523	83.6421	811.523	84.4223	811.523	82.6814	811.523	84.2218	811.523	81.841	811.523	84.301	811.523	81.8777	811.523	84.3509	811.523	82.7283	811.523	83.5965	811.523	83.2072	811.523	81.1907	811.523	82.3382	811.523	76.5617	811.523	79.4351	811.523	74.0567	811.523	76.1357	811.523	77.2032	811.523	79.212	811.523	78.5101	811.523	81.8161	811.523	78.0462	811.523	81.7331	811.523	79.0566	811.523	78.9669	811.523	82.1389	811.523	75.0477	811.523	84.4513	811.523	78.8152	811.523	85.364	811.523	82.8891	811.523	84.8978
840.82	85.3113	840.82	85.4088	840.82	84.9989	840.82	85.2776	840.82	84.4451	840.82	84.909	840.82	83.5774	840.82	84.3698	840.82	82.4264	840.82	83.7972	840.82	81.5237	840.82	83.1329	840.82	81.6765	840.82	81.9794	840.82	82.373	840.82	80.1627	840.82	82.3229	840.82	79.0831	840.82	80.9619	840.82	80.4686	840.82	79.5424	840.82	81.8663	840.82	80.6475	840.82	81.463	840.82	82.1785	840.82	79.692	840.82	81.8457	840.82	80.6391	840.82	78.4081	840.82	83.8352	840.82	73.3449	840.82	85.9168	840.82	80.0446	840.82	86.6527	840.82	84.2792	840.82	86.1776
870.117	84.7825	870.117	84.5631	870.117	84.4021	870.117	83.7894	870.117	83.5534	870.117	82.7629	870.117	82.4515	870.117	82.0156	870.117	81.3891	870.117	81.8517	870.117	80.8938	870.117	81.7579	870.117	81.2786	870.117	80.6651	870.117	81.6547	870.117	77.029	870.117	80.5842	870.117	65.8404	870.117	76.7175	870.117	75.721	870.117	74.7013	870.117	81.0776	870.117	80.6177	870.117	82.2248	870.117	83.8357	870.117	81.1134	870.117	84.4246	870.117	81.0114	870.117	82.374	870.117	83.4278	870.117	77.77	870.117	85.487	870.117	79.4317	870.117	86.337	870.117	83.7971	870.117	85.8809
900.879	86.7407	900.879	86.5056	900.879	86.1613	900.879	85.3799	900.879	84.9611	900.879	83.4385	900.879	83.5427	900.879	81.4806	900.879	82.5867	900.879	81.5453	900.879	82.6926	900.879	82.9853	900.879	83.5274	900.879	83.4806	900.879	84.0159	900.879	81.9738	900.879	83.1858	900.879	76.6001	900.879	79.9045	900.879	68.4116	900.879	69.8435	900.879	78.9092	900.879	75.5876	900.879	81.1008	900.879	82.2484	900.879	79.2938	900.879	84.0672	900.879	77.3829	900.879	81.9511	900.879	82.1952	900.879	73.587	900.879	86.0876	900.879	81.0165	900.879	87.97	900.879	86.3111	900.879	88.1358
933.105	87.8962	933.105	87.0062	933.105	87.886	933.105	85.2155	933.105	87.0116	933.105	82.6276	933.105	85.1983	933.105	79.2294	933.105	82.1434	933.105	75.1562	933.105	77.6796	933.105	76.2912	933.105	76.6025	933.105	79.676	933.105	80.1238	933.105	79.9714	933.105	81.5459	933.105	75.7034	933.105	79.8168	933.105	69.4788	933.105	73.0094	933.105	78.5627	933.105	76.5126	933.105	81.1372	933.105	82.7879	933.105	80.4992	933.105	83.9279	933.105	79.1283	933.105	81.1948	933.105	82.1341	933.105	79.0796	933.105	85.8473	933.105	83.843	933.105	87.7804	933.105	86.9332	933.105	88.1091
965.332	86.0418	965.332	85.2651	965.332	86.495	965.332	84.3424	965.332	86.4539	965.332	83.1102	965.332	85.7854	965.332	80.8362	965.332	84.2139	965.332	76.1555	965.332	81.4155	965.332	70.3146	965.332	78.7005	965.332	75.5355	965.332	79.83	965.332	78.4704	965.332	81.2849	965.332	77.7902	965.332	79.9611	965.332	70.2223	965.332	73.8274	965.332	71.5681	965.332	66.5844	965.332	79.0751	965.332	76.0121	965.332	79.3891	965.332	79.7915	965.332	75.6415	965.332	79.9028	965.332	80.0197	965.332	76.1971	965.332	85.3329	965.332	80.4872	965.332	87.6267	965.332	85.6173	965.332	87.7139
1,000.49	86.3735	1,000.49	86.2735	1,000.49	86.2073	1,000.49	85.7976	1,000.49	85.9516	1,000.49	84.9732	1,000.49	85.5661	1,000.49	83.6073	1,000.49	84.6222	1,000.49	80.6867	1,000.49	82.4893	1,000.49	73.6298	1,000.49	79.2607	1,000.49	73.8861	1,000.49	78.593	1,000.49	78.7722	1,000.49	80.8504	1,000.49	78.0397	1,000.49	82.0025	1,000.49	72.6636	1,000.49	80.6262	1,000.49	77.0475	1,000.49	76.0794	1,000.49	81.1932	1,000.49	80.1404	1,000.49	81.4182	1,000.49	82.9768	1,000.49	78.2401	1,000.49	80.2857	1,000.49	77.4441	1,000.49	75.3389	1,000.49	82.7758	1,000.49	82.2517	1,000.49	85.7013	1,000.49	85.5893	1,000.49	86.5227
1,035.64	86.4174	1,035.64	86.523	1,035.64	86.0345	1,035.64	86.4191	1,035.64	85.5087	1,035.64	86.1007	1,035.64	84.895	1,035.64	85.0569	1,035.64	83.9045	1,035.64	82.2374	1,035.64	82.148	1,035.64	75.6165	1,035.64	79.1196	1,035.64	54.6701	1,035.64	74.7399	1,035.64	68.6287	1,035.64	76.2255	1,035.64	70.0261	1,035.64	78.2301	1,035.64	63.0251	1,035.64	75.2334	1,035.64	75.1003	1,035.64	73.4857	1,035.64	80.3424	1,035.64	79.7734	1,035.64	80.288	1,035.64	80.8524	1,035.64	72.7036	1,035.64	79.3823	1,035.64	75.0651	1,035.64	78.0694	1,035.64	82.8785	1,035.64	79.5755	1,035.64	85.0568	1,035.64	82.7529	1,035.64	84.774
1,072.27	86.2258	1,072.27	86.3455	1,072.27	85.2506	1,072.27	85.5992	1,072.27	83.7034	1,072.27	84.195	1,072.27	82.4313	1,072.27	82.3147	1,072.27	82.3967	1,072.27	79.7368	1,072.27	82.8213	1,072.27	76.5907	1,072.27	82.5972	1,072.27	72.7155	1,072.27	81.8874	1,072.27	66.7445	1,072.27	81.6193	1,072.27	68.0298	1,072.27	81.1968	1,072.27	57.9682	1,072.27	78.672	1,072.27	76.6387	1,072.27	72.3105	1,072.27	81.4101	1,072.27	77.0968	1,072.27	81.9112	1,072.27	81.6351	1,072.27	78.4773	1,072.27	80.9001	1,072.27	75.14	1,072.27	74.7338	1,072.27	82.0645	1,072.27	78.3314	1,072.27	85.1743	1,072.27	83.4884	1,072.27	85.4594
1,108.89	85.6131	1,108.89	85.6337	1,108.89	85.4698	1,108.89	85.7182	1,108.89	85.048	1,108.89	85.707	1,108.89	84.3753	1,108.89	85.1148	1,108.89	83.557	1,108.89	83.5296	1,108.89	82.3662	1,108.89	80.6689	1,108.89	79.9387	1,108.89	75.4904	1,108.89	75.7719	1,108.89	71.63	1,108.89	76.4869	1,108.89	77.0748	1,108.89	78.8748	1,108.89	77.1317	1,108.89	76.2502	1,108.89	72.1003	1,108.89	71.3576	1,108.89	75.5444	1,108.89	80.0479	1,108.89	78.5375	1,108.89	81.1451	1,108.89	74.7111	1,108.89	77.874	1,108.89	67.5277	1,108.89	75.0689	1,108.89	79.134	1,108.89	79.4565	1,108.89	82.5796	1,108.89	82.5176	1,108.89	83.4342
1,148.44	84.5275	1,148.44	84.7466	1,148.44	84.1199	1,148.44	84.6113	1,148.44	83.4455	1,148.44	83.8315	1,148.44	82.222	1,148.44	82.372	1,148.44	80.7955	1,148.44	80.8942	1,148.44	80.1552	1,148.44	79.576	1,148.44	80.1329	1,148.44	75.8666	1,148.44	80.0727	1,148.44	68.3298	1,148.44	80.0137	1,148.44	75.3905	1,148.44	79.3201	1,148.44	74.0175	1,148.44	76.1578	1,148.44	61.5079	1,148.44	68.6542	1,148.44	78.2497	1,148.44	68.2619	1,148.44	80.9943	1,148.44	79.045	1,148.44	77.936	1,148.44	81.5088	1,148.44	69.8553	1,148.44	77.7306	1,148.44	81.6471	1,148.44	73.4134	1,148.44	85.2325	1,148.44	82.131	1,148.44	85.2344
1,189.45	85.9305	1,189.45	86.113	1,189.45	85.1592	1,189.45	85.7531	1,189.45	83.8671	1,189.45	84.9615	1,189.45	82.7758	1,189.45	84.0904	1,189.45	82.9729	1,189.45	83.6378	1,189.45	83.6049	1,189.45	83.1881	1,189.45	83.0209	1,189.45	80.0987	1,189.45	80.456	1,189.45	63.9775	1,189.45	78.9429	1,189.45	78.2467	1,189.45	81.2383	1,189.45	80.116	1,189.45	80.7387	1,189.45	74.8314	1,189.45	73.9889	1,189.45	69.6534	1,189.45	69.4539	1,189.45	78.2564	1,189.45	78.5277	1,189.45	77.4154	1,189.45	78.6558	1,189.45	60.9757	1,189.45	71.8361	1,189.45	78.5157	1,189.45	80.1397	1,189.45	83.9509	1,189.45	84.8647	1,189.45	85.7507
1,230.47	86.2773	1,230.47	85.6875	1,230.47	86.3062	1,230.47	85.0397	1,230.47	85.1792	1,230.47	84.3263	1,230.47	82.5883	1,230.47	83.2393	1,230.47	79.2417	1,230.47	82.4691	1,230.47	78.2308	1,230.47	82.7613	1,230.47	79.3958	1,230.47	81.9229	1,230.47	78.9757	1,230.47	77.0289	1,230.47	78.398	1,230.47	73.5206	1,230.47	80.7836	1,230.47	77.6065	1,230.47	81.1751	1,230.47	75.3591	1,230.47	77.4395	1,230.47	77.2222	1,230.47	65.9784	1,230.47	81.1627	1,230.47	75.458	1,230.47	79.2593	1,230.47	81.4774	1,230.47	66.4989	1,230.47	79.4067	1,230.47	81.4706	1,230.47	72.9392	1,230.47	85.7235	1,230.47	82.8642	1,230.47	86.0844
1,274.41	85.8025	1,274.41	85.033	1,274.41	86.5838	1,274.41	85.2366	1,274.41	86.5231	1,274.41	85.8493	1,274.41	85.0807	1,274.41	85.8341	1,274.41	81.5805	1,274.41	85.2264	1,274.41	76.6451	1,274.41	84.5212	1,274.41	77.5377	1,274.41	82.9584	1,274.41	78.9094	1,274.41	78.4039	1,274.41	76.1957	1,274.41	66.9268	1,274.41	73.9685	1,274.41	59.43	1,274.41	77.0046	1,274.41	59.1236	1,274.41	76.2119	1,274.41	73.839	1,274.41	70.9004	1,274.41	79.3145	1,274.41	76.0096	1,274.41	77.7755	1,274.41	79.0056	1,274.41	55.4823	1,274.41	77.8206	1,274.41	79.3904	1,274.41	79.9012	1,274.41	84.4672	1,274.41	83.7429	1,274.41	85.4059
1,319.82	86.1492	1,319.82	86.3385	1,319.82	86.5045	1,319.82	86.7001	1,319.82	86.7856	1,319.82	86.4625	1,319.82	86.2612	1,319.82	85.4238	1,319.82	84.2612	1,319.82	83.9594	1,319.82	80.758	1,319.82	82.8498	1,319.82	79.2094	1,319.82	81.6845	1,319.82	80.0457	1,319.82	77.6746	1,319.82	78.881	1,319.82	67.7108	1,319.82	77.7752	1,319.82	74.6281	1,319.82	78.5291	1,319.82	72.2261	1,319.82	77.7117	1,319.82	74.2818	1,319.82	68.9691	1,319.82	81.1393	1,319.82	76.8123	1,319.82	81.5418	1,319.82	82.5889	1,319.82	73.5111	1,319.82	80.2203	1,319.82	76.1317	1,319.82	73.578	1,319.82	83.4037	1,319.82	82.6512	1,319.82	84.9811
1,366.7	85.433	1,366.7	86.0294	1,366.7	85.2309	1,366.7	86.5974	1,366.7	85.31	1,366.7	86.3599	1,366.7	85.2153	1,366.7	84.7921	1,366.7	84.472	1,366.7	82.6772	1,366.7	83.1568	1,366.7	82.1669	1,366.7	82.3084	1,366.7	83.3814	1,366.7	81.4059	1,366.7	82.0227	1,366.7	78.1592	1,366.7	73.5362	1,366.7	77.4189	1,366.7	71.0494	1,366.7	81.2447	1,366.7	75.9622	1,366.7	81.5439	1,366.7	63.8455	1,366.7	75.9263	1,366.7	76.6981	1,366.7	74.9748	1,366.7	80.9345	1,366.7	81.5314	1,366.7	77.2527	1,366.7	78.367	1,366.7	71.284	1,366.7	65.8658	1,366.7	80.8866	1,366.7	80.4929	1,366.7	83.0193
1,413.57	86.1778	1,413.57	86.6926	1,413.57	85.7613	1,413.57	86.7682	1,413.57	85.8377	1,413.57	86.4246	1,413.57	85.7096	1,413.57	85.8882	1,413.57	84.4876	1,413.57	84.7256	1,413.57	81.9262	1,413.57	81.6515	1,413.57	79.4183	1,413.57	79.0465	1,413.57	80.5977	1,413.57	78.5922	1,413.57	80.1481	1,413.57	74.8408	1,413.57	76.0555	1,413.57	65.6384	1,413.57	78.6375	1,413.57	75.1563	1,413.57	81.4303	1,413.57	71.8425	1,413.57	79.4801	1,413.57	69.2821	1,413.57	74.12	1,413.57	77.1506	1,413.57	78.2335	1,413.57	75.7092	1,413.57	74.1894	1,413.57	66.144	1,413.57	71.8283	1,413.57	76.9667	1,413.57	80.4213	1,413.57	81.1283
1,463.38	86.8424	1,463.38	87.4437	1,463.38	85.5926	1,463.38	86.9019	1,463.38	84.7818	1,463.38	85.2499	1,463.38	85.0769	1,463.38	83.4821	1,463.38	85.0415	1,463.38	82.0856	1,463.38	83.2021	1,463.38	79.2546	1,463.38	79.494	1,463.38	72.2806	1,463.38	78.8469	1,463.38	63.7243	1,463.38	79.4671	1,463.38	56.1934	1,463.38	78.7518	1,463.38	69.1492	1,463.38	81.0098	1,463.38	75.292	1,463.38	81.4018	1,463.38	75.5083	1,463.38	78.1611	1,463.38	71.7586	1,463.38	76.2581	1,463.38	72.8911	1,463.38	74.968	1,463.38	72.1961	1,463.38	64.0136	1,463.38	71.1345	1,463.38	74.2365	1,463.38	77.3775	1,463.38	79.6198	1,463.38	80.3424
1,516.11	88.0424	1,516.11	87.7749	1,516.11	87.3631	1,516.11	86.9748	1,516.11	86.1281	1,516.11	86.0693	1,516.11	85.1892	1,516.11	84.6749	1,516.11	84.5421	1,516.11	82.2928	1,516.11	83.1075	1,516.11	79.2853	1,516.11	79.8351	1,516.11	77.707	1,516.11	76.5275	1,516.11	77.5421	1,516.11	76.0461	1,516.11	73.0325	1,516.11	76.2261	1,516.11	65.6942	1,516.11	78.6865	1,516.11	74.8991	1,516.11	78.4735	1,516.11	76.2843	1,516.11	77.1793	1,516.11	77.2546	1,516.11	79.4601	1,516.11	78.7426	1,516.11	77.1492	1,516.11	75.1719	1,516.11	67.1063	1,516.11	67.0145	1,516.11	71.9346	1,516.11	77.6471	1,516.11	77.1409	1,516.11	79.3268
1,568.85	86.9088	1,568.85	87.191	1,568.85	86.7891	1,568.85	87.223	1,568.85	86.4412	1,568.85	86.3655	1,568.85	85.9561	1,568.85	85.6602	1,568.85	85.9799	1,568.85	85.2532	1,568.85	85.6356	1,568.85	83.3408	1,568.85	83.3606	1,568.85	81.6697	1,568.85	79.5223	1,568.85	81.0685	1,568.85	76.3348	1,568.85	76.4993	1,568.85	72.7447	1,568.85	63.9076	1,568.85	72.6279	1,568.85	76.5848	1,568.85	69.8371	1,568.85	75.4715	1,568.85	65.6248	1,568.85	69.5556	1,568.85	76.2808	1,568.85	78.2595	1,568.85	77.2673	1,568.85	79.0029	1,568.85	66.5418	1,568.85	71.1653	1,568.85	76.7659	1,568.85	77.3871	1,568.85	81.3225	1,568.85	81.5702
1,624.51	87.3088	1,624.51	87.0531	1,624.51	87.6551	1,624.51	87.1894	1,624.51	87.2471	1,624.51	87.6766	1,624.51	86.0779	1,624.51	87.7825	1,624.51	85.5014	1,624.51	86.5591	1,624.51	85.2725	1,624.51	84.0944	1,624.51	84.1183	1,624.51	81.9124	1,624.51	80.8072	1,624.51	81.1775	1,624.51	76.508	1,624.51	79.1239	1,624.51	74.5222	1,624.51	70.1742	1,624.51	78.2178	1,624.51	72.62	1,624.51	78.9179	1,624.51	76.9892	1,624.51	72.3184	1,624.51	76.3427	1,624.51	71.9349	1,624.51	79.5077	1,624.51	76.6458	1,624.51	80.3787	1,624.51	71.1105	1,624.51	75.9925	1,624.51	75.3449	1,624.51	78.3563	1,624.51	81.2608	1,624.51	82.0086
1,681.64	87.6882	1,681.64	87.6663	1,681.64	87.4067	1,681.64	87.5	1,681.64	86.8159	1,681.64	87.3676	1,681.64	86.0503	1,681.64	86.3208	1,681.64	85.8308	1,681.64	84.0246	1,681.64	85.9078	1,681.64	83.6267	1,681.64	84.7866	1,681.64	83.5006	1,681.64	80.2968	1,681.64	82.0066	1,681.64	70.8781	1,681.64	81.3775	1,681.64	65.3905	1,681.64	79.2169	1,681.64	67.972	1,681.64	77.4494	1,681.64	75.7556	1,681.64	76.6995	1,681.64	72.6881	1,681.64	76.215	1,681.64	71.8658	1,681.64	79.8864	1,681.64	77.2489	1,681.64	79.7612	1,681.64	73.7733	1,681.64	76.1725	1,681.64	78.0481	1,681.64	79.0226	1,681.64	82.4645	1,681.64	82.5492
1,741.7	87.8316	1,741.7	88.2296	1,741.7	87.0117	1,741.7	87.7604	1,741.7	86.6489	1,741.7	87.246	1,741.7	86.7533	1,741.7	86.8824	1,741.7	87.0399	1,741.7	86.5644	1,741.7	86.865	1,741.7	86.1285	1,741.7	85.6662	1,741.7	83.5262	1,741.7	81.9207	1,741.7	76.7159	1,741.7	76.6911	1,741.7	74.8852	1,741.7	74.2475	1,741.7	75.5131	1,741.7	73.7239	1,741.7	76.5992	1,741.7	75.9884	1,741.7	79.8879	1,741.7	72.7002	1,741.7	79.2746	1,741.7	75.4553	1,741.7	79.8571	1,741.7	77.8569	1,741.7	80.2737	1,741.7	74.0015	1,741.7	76.1036	1,741.7	76.0004	1,741.7	80.7023	1,741.7	82.2103	1,741.7	83.7343
1,803.22	88.9378	1,803.22	88.6269	1,803.22	88.7746	1,803.22	88.5948	1,803.22	87.7964	1,803.22	88.4164	1,803.22	86.8208	1,803.22	87.1182	1,803.22	86.5656	1,803.22	85.1878	1,803.22	86.9638	1,803.22	84.7861	1,803.22	86.5528	1,803.22	82.3566	1,803.22	83.8233	1,803.22	70.9169	1,803.22	79.1495	1,803.22	63.8202	1,803.22	73.0329	1,803.22	59.5853	1,803.22	75.4909	1,803.22	77.2354	1,803.22	80.4139	1,803.22	81.4953	1,803.22	76.314	1,803.22	79.7507	1,803.22	76.3852	1,803.22	79.7887	1,803.22	80.6803	1,803.22	80.4968	1,803.22	78.4637	1,803.22	75.0133	1,803.22	79.5977	1,803.22	80.1547	1,803.22	81.7715	1,803.22	82.6164
1,866.21	87.6692	1,866.21	88.0426	1,866.21	87.9884	1,866.21	88.662	1,866.21	88.4204	1,866.21	88.1905	1,866.21	88.3709	1,866.21	87.0514	1,866.21	86.7182	1,866.21	87.4997	1,866.21	84.2796	1,866.21	85.5049	1,866.21	83.5737	1,866.21	79.9627	1,866.21	81.9581	1,866.21	76.6788	1,866.21	79.9346	1,866.21	70.8807	1,866.21	78.0908	1,866.21	70.2649	1,866.21	74.2722	1,866.21	55.0968	1,866.21	78.2643	1,866.21	73.9962	1,866.21	76.237	1,866.21	75.9036	1,866.21	62.7746	1,866.21	72.6943	1,866.21	77.7372	1,866.21	78.7827	1,866.21	78.9645	1,866.21	75.985	1,866.21	71.8289	1,866.21	77.6261	1,866.21	81.492	1,866.21	83.0385
1,932.13	87.825	1,932.13	88.0357	1,932.13	88.1899	1,932.13	88.5253	1,932.13	88.6543	1,932.13	87.9874	1,932.13	88.6759	1,932.13	86.887	1,932.13	87.9156	1,932.13	86.8352	1,932.13	86.3665	1,932.13	84.0718	1,932.13	85.6437	1,932.13	81.2829	1,932.13	85.1336	1,932.13	82.837	1,932.13	84.505	1,932.13	79.6439	1,932.13	80.5047	1,932.13	71.7556	1,932.13	69.761	1,932.13	62.0813	1,932.13	74.63	1,932.13	71.847	1,932.13	73.9644	1,932.13	70.3646	1,932.13	69.9584	1,932.13	70.3814	1,932.13	78.0482	1,932.13	77.3177	1,932.13	79.8315	1,932.13	75.4808	1,932.13	73.3942	1,932.13	74.277	1,932.13	78.4658	1,932.13	79.9896
1,999.51	88.8538	1,999.51	88.4817	1,999.51	89.2185	1,999.51	88.3495	1,999.51	88.8436	1,999.51	87.9166	1,999.51	88.0131	1,999.51	86.8228	1,999.51	86.752	1,999.51	86.5212	1,999.51	86.1566	1,999.51	86.0798	1,999.51	85.9293	1,999.51	84.1698	1,999.51	83.0406	1,999.51	83.4984	1,999.51	80.2539	1,999.51	81.2285	1,999.51	77.2795	1,999.51	77.1071	1,999.51	71.812	1,999.51	74.1278	1,999.51	78.5646	1,999.51	61.1079	1,999.51	81.2899	1,999.51	73.5399	1,999.51	74.5634	1,999.51	73.3979	1,999.51	78.6759	1,999.51	73.4467	1,999.51	79.7384	1,999.51	70.0682	1,999.51	71.8487	1,999.51	71.9564	1,999.51	72.0311	1,999.51	77.1713
2,069.82	88.9452	2,069.82	89.1803	2,069.82	89.2164	2,069.82	88.4434	2,069.82	89.3621	2,069.82	87.3034	2,069.82	88.5007	2,069.82	87.7438	2,069.82	87.1687	2,069.82	87.6787	2,069.82	86.8611	2,069.82	86.8108	2,069.82	86.0713	2,069.82	86.0384	2,069.82	84.2594	2,069.82	84.0687	2,069.82	82.0356	2,069.82	82.4853	2,069.82	78.9644	2,069.82	79.5711	2,069.82	75.3456	2,069.82	76.3193	2,069.82	75.1545	2,069.82	72.0756	2,069.82	81.3698	2,069.82	73.8031	2,069.82	76.4814	2,069.82	74.2057	2,069.82	76.6657	2,069.82	73.2222	2,069.82	79.2814	2,069.82	73.0071	2,069.82	72.9548	2,069.82	62.9387	2,069.82	72.686	2,069.82	76.5559
2,143.07	88.1312	2,143.07	88.823	2,143.07	88.4015	2,143.07	88.4038	2,143.07	89.0958	2,143.07	87.7492	2,143.07	88.6178	2,143.07	87.8724	2,143.07	87.4699	2,143.07	87.2393	2,143.07	86.4953	2,143.07	86.9686	2,143.07	85.6363	2,143.07	85.3942	2,143.07	85.1808	2,143.07	81.1662	2,143.07	82.6096	2,143.07	79.9737	2,143.07	78.7722	2,143.07	78.1299	2,143.07	78.7923	2,143.07	76.0231	2,143.07	71.9612	2,143.07	73.3992	2,143.07	79.2333	2,143.07	74.2051	2,143.07	77.5273	2,143.07	75.5232	2,143.07	73.1662	2,143.07	74.0842	2,143.07	76.0803	2,143.07	73.9124	2,143.07	69.6059	2,143.07	59.8251	2,143.07	72.2936	2,143.07	72.4513
2,219.24	87.7767	2,219.24	87.4418	2,219.24	87.2594	2,219.24	87.6627	2,219.24	87.5573	2,219.24	89.1049	2,219.24	88.5213	2,219.24	88.351	2,219.24	87.8665	2,219.24	86.4865	2,219.24	86.4211	2,219.24	85.1054	2,219.24	85.0298	2,219.24	83.3005	2,219.24	84.0043	2,219.24	83.7458	2,219.24	81.0789	2,219.24	81.7805	2,219.24	77.9818	2,219.24	79.0546	2,219.24	79.5167	2,219.24	76.704	2,219.24	78.5609	2,219.24	73.9865	2,219.24	77.9943	2,219.24	74.5653	2,219.24	77.5316	2,219.24	75.8282	2,219.24	72.5755	2,219.24	74.2623	2,219.24	73.9716	2,219.24	72.854	2,219.24	69.0597	2,219.24	59.8098	2,219.24	69.5064	2,219.24	69.3841
2,296.88	88.5028	2,296.88	87.8939	2,296.88	88.5629	2,296.88	88.4875	2,296.88	87.873	2,296.88	88.7029	2,296.88	87.7389	2,296.88	87.0013	2,296.88	87.3334	2,296.88	85.557	2,296.88	86.8773	2,296.88	85.192	2,296.88	85.1817	2,296.88	84.1923	2,296.88	83.8686	2,296.88	81.6226	2,296.88	83.8873	2,296.88	80.4949	2,296.88	81.5983	2,296.88	78.2374	2,296.88	79.9258	2,296.88	75.7673	2,296.88	77.9413	2,296.88	75.0513	2,296.88	80.6078	2,296.88	73.4634	2,296.88	76.0637	2,296.88	76.047	2,296.88	72.2729	2,296.88	74.9455	2,296.88	72.7381	2,296.88	75.878	2,296.88	71.1015	2,296.88	69.2087	2,296.88	71.0644	2,296.88	69.8614
2,378.91	87.7454	2,378.91	87.9395	2,378.91	88.6394	2,378.91	88.2314	2,378.91	88.8045	2,378.91	87.8322	2,378.91	88.1807	2,378.91	87.0859	2,378.91	87.3429	2,378.91	87.3009	2,378.91	86.9249	2,378.91	85.1243	2,378.91	84.8771	2,378.91	82.0913	2,378.91	83.5013	2,378.91	83.3112	2,378.91	84.4349	2,378.91	80.4024	2,378.91	82.1742	2,378.91	78.3808	2,378.91	80.9797	2,378.91	76.3424	2,378.91	75.4563	2,378.91	73.7901	2,378.91	76.5522	2,378.91	74.0406	2,378.91	77.5983	2,378.91	75.9878	2,378.91	67.1032	2,378.91	74.7061	2,378.91	70.0052	2,378.91	75.4751	2,378.91	70.4911	2,378.91	70.7438	2,378.91	71.8665	2,378.91	67.8145
2,462.4	87.3156	2,462.4	87.6244	2,462.4	87.6036	2,462.4	87.9823	2,462.4	88.4475	2,462.4	88.0192	2,462.4	88.2592	2,462.4	88.012	2,462.4	87.4403	2,462.4	87.5512	2,462.4	87.0693	2,462.4	84.785	2,462.4	85.506	2,462.4	85.1084	2,462.4	81.6251	2,462.4	81.633	2,462.4	77.8322	2,462.4	77.7234	2,462.4	77.9776	2,462.4	76.8369	2,462.4	78.2741	2,462.4	75.2117	2,462.4	78.1937	2,462.4	74.697	2,462.4	70.0918	2,462.4	72.2776	2,462.4	75.2885	2,462.4	75.0074	2,462.4	70.2902	2,462.4	74.3034	2,462.4	70.8968	2,462.4	73.1747	2,462.4	66.73	2,462.4	68.5734	2,462.4	71.8665	2,462.4	69.0369
2,548.83	87.8954	2,548.83	87.5479	2,548.83	87.8128	2,548.83	88.3389	2,548.83	87.8899	2,548.83	88.5121	2,548.83	88.0968	2,548.83	88.1172	2,548.83	87.9115	2,548.83	86.6921	2,548.83	87.2738	2,548.83	84.7134	2,548.83	86.1474	2,548.83	83.8758	2,548.83	83.3989	2,548.83	80.3047	2,548.83	79.0755	2,548.83	80.5061	2,548.83	81.2504	2,548.83	78.6116	2,548.83	80.2069	2,548.83	76.1439	2,548.83	76.5723	2,548.83	75.1682	2,548.83	70.8272	2,548.83	72.3841	2,548.83	69.0271	2,548.83	74.9443	2,548.83	69.3782	2,548.83	72.9692	2,548.83	71.9653	2,548.83	75.3059	2,548.83	68.9201	2,548.83	69.9116	2,548.83	69.8599	2,548.83	63.719
2,639.65	87.5591	2,639.65	87.8532	2,639.65	87.9824	2,639.65	88.6265	2,639.65	88.0931	2,639.65	87.9174	2,639.65	87.4746	2,639.65	87.8002	2,639.65	87.6042	2,639.65	85.1254	2,639.65	86.8737	2,639.65	85.4895	2,639.65	86.1557	2,639.65	83.3854	2,639.65	83.9523	2,639.65	80.1006	2,639.65	80.4451	2,639.65	78.9015	2,639.65	78.5773	2,639.65	75.5685	2,639.65	74.4336	2,639.65	74.9304	2,639.65	70.6283	2,639.65	74.2523	2,639.65	61.7933	2,639.65	70.1894	2,639.65	71.9455	2,639.65	73.2532	2,639.65	70.357	2,639.65	71.063	2,639.65	73.7323	2,639.65	72.7906	2,639.65	72.0444	2,639.65	69.8124	2,639.65	72.095	2,639.65	68.4337
2,731.93	87.066	2,731.93	87.7605	2,731.93	87.5569	2,731.93	88.3814	2,731.93	88.0192	2,731.93	88.1068	2,731.93	88.1301	2,731.93	87.151	2,731.93	87.7782	2,731.93	85.793	2,731.93	85.8248	2,731.93	84.6565	2,731.93	84.5946	2,731.93	80.0799	2,731.93	81.8868	2,731.93	81.4934	2,731.93	81.2141	2,731.93	75.073	2,731.93	78.5813	2,731.93	76.5387	2,731.93	65.57	2,731.93	74.2218	2,731.93	55.4643	2,731.93	73.168	2,731.93	67.8143	2,731.93	72.1814	2,731.93	73.4303	2,731.93	71.1563	2,731.93	73.0338	2,731.93	73.0016	2,731.93	68.4469	2,731.93	72.3451	2,731.93	70.4781	2,731.93	70.5269	2,731.93	71.156	2,731.93	68.4154
2,828.61	87.009	2,828.61	87.8362	2,828.61	87.2078	2,828.61	87.368	2,828.61	87.8481	2,828.61	87.2301	2,828.61	87.5486	2,828.61	86.7855	2,828.61	86.8137	2,828.61	85.416	2,828.61	85.6156	2,828.61	84.3358	2,828.61	82.9829	2,828.61	81.5644	2,828.61	81.8397	2,828.61	79.8137	2,828.61	81.8272	2,828.61	77.1709	2,828.61	76.7276	2,828.61	76.6916	2,828.61	69.6526	2,828.61	74.848	2,828.61	71.9221	2,828.61	74.1717	2,828.61	75.7526	2,828.61	73.0151	2,828.61	68.8726	2,828.61	68.5358	2,828.61	73.4344	2,828.61	69.8802	2,828.61	62.6205	2,828.61	70.1012	2,828.61	63.1193	2,828.61	64.8682	2,828.61	70.0113	2,828.61	68.7119
2,928.22	85.7732	2,928.22	86.0818	2,928.22	85.9406	2,928.22	86.0881	2,928.22	86.9419	2,928.22	87.6867	2,928.22	87.1076	2,928.22	86.0583	2,928.22	86.4086	2,928.22	85.8717	2,928.22	84.6113	2,928.22	82.8006	2,928.22	81.9016	2,928.22	82.8023	2,928.22	79.9613	2,928.22	81.1962	2,928.22	78.2937	2,928.22	80.1509	2,928.22	71.1829	2,928.22	76.8461	2,928.22	76.5882	2,928.22	72.3759	2,928.22	75.2258	2,928.22	69.805	2,928.22	74.733	2,928.22	73.4903	2,928.22	72.3407	2,928.22	70.6482	2,928.22	69.275	2,928.22	67.1473	2,928.22	67.4226	2,928.22	69.9905	2,928.22	56.6338	2,928.22	68.4186	2,928.22	71.0052	2,928.22	69.2129
3,030.76	84.4545	3,030.76	84.0672	3,030.76	84.7172	3,030.76	85.6613	3,030.76	85.6962	3,030.76	86.0602	3,030.76	86.7224	3,030.76	85.2006	3,030.76	86.1669	3,030.76	84.1407	3,030.76	84.0026	3,030.76	81.8892	3,030.76	81.9042	3,030.76	82.1071	3,030.76	82.7816	3,030.76	78.8196	3,030.76	79.0202	3,030.76	78.5542	3,030.76	78.986	3,030.76	75.3803	3,030.76	79.1125	3,030.76	75.1872	3,030.76	76.4106	3,030.76	68.5316	3,030.76	72.5843	3,030.76	70.1303	3,030.76	69.886	3,030.76	72.0779	3,030.76	66.7262	3,030.76	68.6094	3,030.76	69.5325	3,030.76	60.6815	3,030.76	69.0344	3,030.76	62.3667	3,030.76	66.2203	3,030.76	68.861
3,137.7	84.7764	3,137.7	84.8855	3,137.7	85.1521	3,137.7	86.4886	3,137.7	85.1502	3,137.7	85.6227	3,137.7	86.0436	3,137.7	84.9023	3,137.7	85.8068	3,137.7	83.046	3,137.7	83.7262	3,137.7	82.6524	3,137.7	82.3262	3,137.7	80.5247	3,137.7	82.6102	3,137.7	76.945	3,137.7	81.5479	3,137.7	74.8618	3,137.7	82.0244	3,137.7	75.3554	3,137.7	81.4139	3,137.7	76.041	3,137.7	75.4313	3,137.7	72.2846	3,137.7	67.6836	3,137.7	71.2374	3,137.7	67.1277	3,137.7	71.5375	3,137.7	67.1547	3,137.7	73.1147	3,137.7	68.114	3,137.7	62.3866	3,137.7	67.5615	3,137.7	55.9466	3,137.7	63.5767	3,137.7	60.7459
3,249.02	83.9512	3,249.02	84.2582	3,249.02	85.1124	3,249.02	85.0943	3,249.02	86.012	3,249.02	85.6732	3,249.02	85.7978	3,249.02	85.2474	3,249.02	84.4821	3,249.02	83.1596	3,249.02	82.2015	3,249.02	83.1605	3,249.02	81.9138	3,249.02	79.8675	3,249.02	82.3796	3,249.02	80.0176	3,249.02	82.0589	3,249.02	78.3963	3,249.02	82.8104	3,249.02	76.6577	3,249.02	80.9923	3,249.02	75.0692	3,249.02	71.8703	3,249.02	74.3827	3,249.02	65.2972	3,249.02	68.5898	3,249.02	65.469	3,249.02	72.0056	3,249.02	67.0645	3,249.02	72.9351	3,249.02	66.977	3,249.02	65.8783	3,249.02	70.4788	3,249.02	61.9884	3,249.02	66.6026	3,249.02	65.9556
3,363.28	84.2433	3,363.28	84.8416	3,363.28	84.4459	3,363.28	85.1063	3,363.28	85.412	3,363.28	85.4732	3,363.28	85.7167	3,363.28	84.5336	3,363.28	84.4577	3,363.28	84.2415	3,363.28	83.2584	3,363.28	81.9425	3,363.28	83.6197	3,363.28	80.0146	3,363.28	82.2331	3,363.28	80.2328	3,363.28	80.2454	3,363.28	78.6434	3,363.28	81.5884	3,363.28	75.6317	3,363.28	80.6059	3,363.28	73.1185	3,363.28	73.8567	3,363.28	73.4215	3,363.28	65.6094	3,363.28	70.2763	3,363.28	61.8142	3,363.28	69.7844	3,363.28	71.5972	3,363.28	73.1817	3,363.28	60.5904	3,363.28	69.3863	3,363.28	66.8934	3,363.28	63.7507	3,363.28	65.4471	3,363.28	65.4474
3,481.93	85.253	3,481.93	85.4582	3,481.93	85.5454	3,481.93	85.0101	3,481.93	85.8624	3,481.93	84.8252	3,481.93	85.2643	3,481.93	83.7163	3,481.93	84.6367	3,481.93	83.9627	3,481.93	84.5017	3,481.93	81.6392	3,481.93	85.4427	3,481.93	82.2127	3,481.93	80.9105	3,481.93	78.15	3,481.93	81.8115	3,481.93	74.0718	3,481.93	79.6854	3,481.93	75.3018	3,481.93	74.6315	3,481.93	74.2321	3,481.93	73.2379	3,481.93	74.5274	3,481.93	75.6572	3,481.93	69.7081	3,481.93	65.805	3,481.93	68.969	3,481.93	68.4291	3,481.93	71.7655	3,481.93	63.3298	3,481.93	70.9067	3,481.93	63.6405	3,481.93	68.1674	3,481.93	66.0106	3,481.93	63.2652
3,604.98	85.8628	3,604.98	85.7988	3,604.98	85.3376	3,604.98	85.4709	3,604.98	86.2394	3,604.98	85.167	3,604.98	85.3501	3,604.98	85.1971	3,604.98	84.4295	3,604.98	84.3533	3,604.98	85.2751	3,604.98	84.2722	3,604.98	85.621	3,604.98	82.3332	3,604.98	82.8365	3,604.98	78.4285	3,604.98	79.8323	3,604.98	78.2536	3,604.98	76.69	3,604.98	75.9398	3,604.98	75.5007	3,604.98	73.7646	3,604.98	76.3514	3,604.98	71.6846	3,604.98	73.8721	3,604.98	71.6489	3,604.98	67.7223	3,604.98	69.707	3,604.98	68.8475	3,604.98	69.4828	3,604.98	66.2548	3,604.98	69.091	3,604.98	62.7021	3,604.98	66.9788	3,604.98	65.7744	3,604.98	60.4808
3,732.42	86.2977	3,732.42	85.4749	3,732.42	85.2918	3,732.42	84.8516	3,732.42	85.0683	3,732.42	85.4686	3,732.42	85.8535	3,732.42	85.3162	3,732.42	85.0651	3,732.42	84.4987	3,732.42	85.6228	3,732.42	84.6781	3,732.42	85.0535	3,732.42	80.7686	3,732.42	83.089	3,732.42	80.427	3,732.42	79.5445	3,732.42	78.5267	3,732.42	75.8228	3,732.42	74.778	3,732.42	77.2122	3,732.42	73.835	3,732.42	75.8899	3,732.42	71.5818	3,732.42	71.141	3,732.42	70.5583	3,732.42	69.8316	3,732.42	68.6431	3,732.42	61.9405	3,732.42	69.7211	3,732.42	61.5022	3,732.42	67.1441	3,732.42	65.2118	3,732.42	65.6292	3,732.42	63.0034	3,732.42	60.4951
3,864.26	86.8905	3,864.26	86.6334	3,864.26	86.1806	3,864.26	85.8178	3,864.26	84.8834	3,864.26	85.2176	3,864.26	85.0525	3,864.26	85.3276	3,864.26	84.5993	3,864.26	85.6159	3,864.26	86.6404	3,864.26	84.1045	3,864.26	84.5686	3,864.26	82.6786	3,864.26	82.5191	3,864.26	81.7804	3,864.26	77.1557	3,864.26	76.5158	3,864.26	75.1493	3,864.26	76.6302	3,864.26	74.0363	3,864.26	73.643	3,864.26	70.0872	3,864.26	70.7604	3,864.26	63.9198	3,864.26	68.3988	3,864.26	64.1941	3,864.26	68.2927	3,864.26	64.6932	3,864.26	70.0875	3,864.26	64.9874	3,864.26	66.3665	3,864.26	66.994	3,864.26	67.817	3,864.26	62.7876	3,864.26	64.0427
4,000.49	87.4893	4,000.49	86.7753	4,000.49	86.2224	4,000.49	85.9592	4,000.49	84.8451	4,000.49	86.5962	4,000.49	85.149	4,000.49	85.4756	4,000.49	84.228	4,000.49	85.2548	4,000.49	87.1289	4,000.49	82.834	4,000.49	85.2055	4,000.49	83.2315	4,000.49	79.4375	4,000.49	76.7391	4,000.49	77.1129	4,000.49	76.4018	4,000.49	76.1128	4,000.49	73.279	4,000.49	73.4128	4,000.49	73.8138	4,000.49	76.8153	4,000.49	71.401	4,000.49	72.7191	4,000.49	68.04	4,000.49	65.9986	4,000.49	66.3772	4,000.49	58.383	4,000.49	70.0954	4,000.49	58.3697	4,000.49	67.9178	4,000.49	64.2616	4,000.49	66.2996	4,000.49	61.3033	4,000.49	59.8217
4,141.11	87.6631	4,141.11	87.0662	4,141.11	87.2087	4,141.11	85.7723	4,141.11	84.6897	4,141.11	85.4645	4,141.11	83.9209	4,141.11	85.1299	4,141.11	85.4026	4,141.11	84.298	4,141.11	87.1637	4,141.11	83.6571	4,141.11	83.9834	4,141.11	79.8071	4,141.11	78.3266	4,141.11	79.3647	4,141.11	76.3786	4,141.11	77.6848	4,141.11	74.0027	4,141.11	75.2008	4,141.11	77.603	4,141.11	73.4161	4,141.11	79.7533	4,141.11	72.095	4,141.11	74.1147	4,141.11	66.2201	4,141.11	63.5725	4,141.11	62.6805	4,141.11	56.2539	4,141.11	69.0837	4,141.11	60.2855	4,141.11	66.8404	4,141.11	64.5376	4,141.11	68.733	4,141.11	58.8844	4,141.11	62.968
4,287.6	86.998	4,287.6	85.9494	4,287.6	87.3265	4,287.6	84.7607	4,287.6	85.4625	4,287.6	83.4786	4,287.6	83.3643	4,287.6	84.4825	4,287.6	85.1536	4,287.6	82.7246	4,287.6	86.4997	4,287.6	82.5009	4,287.6	80.3595	4,287.6	80.5375	4,287.6	79.883	4,287.6	80.7262	4,287.6	80.7478	4,287.6	74.1829	4,287.6	79.2093	4,287.6	73.1432	4,287.6	78.0099	4,287.6	71.936	4,287.6	78.6673	4,287.6	71.8384	4,287.6	71.9683	4,287.6	64.8939	4,287.6	58.93	4,287.6	63.7801	4,287.6	64.3297	4,287.6	66.3865	4,287.6	62.7857	4,287.6	59.7177	4,287.6	62.1785	4,287.6	69.4148	4,287.6	58.1242	4,287.6	64.6433
4,438.48	86.3067	4,438.48	84.7546	4,438.48	86.4699	4,438.48	83.7823	4,438.48	85.1237	4,438.48	83.7388	4,438.48	83.4153	4,438.48	82.7413	4,438.48	85.0576	4,438.48	83.6593	4,438.48	84.5369	4,438.48	81.2766	4,438.48	78.307	4,438.48	81.9324	4,438.48	82.8672	4,438.48	73.0969	4,438.48	80.4897	4,438.48	74.8686	4,438.48	79.63	4,438.48	72.3583	4,438.48	74.2401	4,438.48	73.5659	4,438.48	73.3167	4,438.48	71.0406	4,438.48	72.1494	4,438.48	68.2056	4,438.48	68.1053	4,438.48	64.2111	4,438.48	59.2575	4,438.48	60.4493	4,438.48	63.2296	4,438.48	63.8753	4,438.48	63.8768	4,438.48	66.8667	4,438.48	58.5352	4,438.48	62.762
4,595.21	86.5007	4,595.21	85.8603	4,595.21	85.7852	4,595.21	84.6067	4,595.21	85.2276	4,595.21	83.266	4,595.21	83.3545	4,595.21	83.2258	4,595.21	84.2102	4,595.21	82.8663	4,595.21	82.3327	4,595.21	82.6107	4,595.21	81.7469	4,595.21	77.615	4,595.21	82.6322	4,595.21	78.7946	4,595.21	79.6597	4,595.21	76.353	4,595.21	75.2547	4,595.21	72.032	4,595.21	66.6133	4,595.21	69.7375	4,595.21	71.3817	4,595.21	70.9949	4,595.21	76.2999	4,595.21	68.879	4,595.21	64.9854	4,595.21	57.5428	4,595.21	63.1641	4,595.21	59.3484	4,595.21	56.3918	4,595.21	65.6334	4,595.21	62.553	4,595.21	65.5008	4,595.21	62.3463	4,595.21	64.8591
4,756.35	85.7554	4,756.35	86.1045	4,756.35	84.6048	4,756.35	83.1938	4,756.35	84.594	4,756.35	82.5038	4,756.35	84.3617	4,756.35	82.2824	4,756.35	83.0188	4,756.35	82.4997	4,756.35	76.7336	4,756.35	80.5466	4,756.35	84.167	4,756.35	80.1967	4,756.35	81.1878	4,756.35	78.1865	4,756.35	77.2802	4,756.35	71.8709	4,756.35	71.2277	4,756.35	71.8299	4,756.35	71.1548	4,756.35	69.0447	4,756.35	71.3228	4,756.35	70.4019	4,756.35	72.6274	4,756.35	68.4399	4,756.35	49.4491	4,756.35	62.1088	4,756.35	63.8661	4,756.35	59.552	4,756.35	57.7444	4,756.35	61.9878	4,756.35	64.5519	4,756.35	63.5269	4,756.35	63.3747	4,756.35	58.0117
4,924.8	84.6945	4,924.8	84.6758	4,924.8	85.6364	4,924.8	82.2316	4,924.8	84.456	4,924.8	82.5108	4,924.8	83.871	4,924.8	83.2791	4,924.8	82.6936	4,924.8	82.5029	4,924.8	80.5043	4,924.8	81.2018	4,924.8	83.9752	4,924.8	80.1028	4,924.8	78.5182	4,924.8	75.251	4,924.8	74.9791	4,924.8	76.0244	4,924.8	69.8748	4,924.8	70.7402	4,924.8	72.4374	4,924.8	71.7459	4,924.8	70.7451	4,924.8	68.5719	4,924.8	67.641	4,924.8	69.6845	4,924.8	66.8321	4,924.8	66.4605	4,924.8	61.8518	4,924.8	59.4089	4,924.8	63.9982	4,924.8	56.2209	4,924.8	65.8572	4,924.8	64.0257	4,924.8	51.7054	4,924.8	60.5016
5,097.66	85.501	5,097.66	83.5426	5,097.66	84.828	5,097.66	84.3162	5,097.66	85.1602	5,097.66	84.559	5,097.66	83.979	5,097.66	82.0016	5,097.66	82.4167	5,097.66	82.06	5,097.66	84.0868	5,097.66	82.555	5,097.66	83.5294	5,097.66	78.8773	5,097.66	78.7907	5,097.66	78.9343	5,097.66	75.8146	5,097.66	73.7283	5,097.66	75.1823	5,097.66	71.9584	5,097.66	70.2414	5,097.66	70.0168	5,097.66	69.1813	5,097.66	66.9861	5,097.66	71.1705	5,097.66	68.1612	5,097.66	66.1363	5,097.66	65.4057	5,097.66	64.1547	5,097.66	57.8891	5,097.66	58.5799	5,097.66	55.6908	5,097.66	61.4331	5,097.66	66.8059	5,097.66	56.7224	5,097.66	60.9526
5,277.83	84.7711	5,277.83	85.0169	5,277.83	84.4996	5,277.83	85.5532	5,277.83	84.209	5,277.83	83.265	5,277.83	83.9933	5,277.83	82.6108	5,277.83	80.9402	5,277.83	82.454	5,277.83	84.2161	5,277.83	81.2613	5,277.83	79.9396	5,277.83	79.6529	5,277.83	77.0793	5,277.83	73.5852	5,277.83	71.8755	5,277.83	73.3491	5,277.83	72.8081	5,277.83	69.7849	5,277.83	66.9495	5,277.83	69.703	5,277.83	70.0068	5,277.83	62.7526	5,277.83	63.9143	5,277.83	68.5592	5,277.83	53.4091	5,277.83	64.4002	5,277.83	52.0705	5,277.83	59.3058	5,277.83	54.1648	5,277.83	56.864	5,277.83	61.7528	5,277.83	64.7365	5,277.83	53.0622	5,277.83	60.9291
5,463.87	84.7064	5,463.87	86.0797	5,463.87	84.2162	5,463.87	84.8295	5,463.87	84.4223	5,463.87	82.8289	5,463.87	83.514	5,463.87	82.5617	5,463.87	82.0227	5,463.87	82.2859	5,463.87	84.7635	5,463.87	80.2135	5,463.87	79.5674	5,463.87	77.8613	5,463.87	77.4023	5,463.87	74.8138	5,463.87	73.5703	5,463.87	73.6095	5,463.87	70.0769	5,463.87	69.6954	5,463.87	68.2005	5,463.87	67.6984	5,463.87	69.085	5,463.87	65.1342	5,463.87	67.3802	5,463.87	64.411	5,463.87	62.4585	5,463.87	63.4127	5,463.87	60.569	5,463.87	60.6535	5,463.87	61.0422	5,463.87	60.063	5,463.87	48.3149	5,463.87	60.4877	5,463.87	56.3379	5,463.87	60.6988
5,657.23	85.4279	5,657.23	85.0186	5,657.23	85.7811	5,657.23	84.4669	5,657.23	85.2985	5,657.23	84.5119	5,657.23	83.9642	5,657.23	82.9997	5,657.23	82.8547	5,657.23	81.8878	5,657.23	82.5548	5,657.23	79.4991	5,657.23	78.1059	5,657.23	77.2751	5,657.23	77.0677	5,657.23	75.5114	5,657.23	75.5467	5,657.23	69.4556	5,657.23	72.1943	5,657.23	69.2205	5,657.23	66.6621	5,657.23	67.4278	5,657.23	67.6375	5,657.23	67.2657	5,657.23	70.5808	5,657.23	58.8646	5,657.23	65.0295	5,657.23	56.7129	5,657.23	63.1469	5,657.23	59.5595	5,657.23	65.7255	5,657.23	64.1837	5,657.23	48.4845	5,657.23	63.8513	5,657.23	59.9581	5,657.23	56.4855
5,856.45	86.148	5,856.45	85.268	5,856.45	86.4449	5,856.45	85.5972	5,856.45	86.2309	5,856.45	84.489	5,856.45	84.3416	5,856.45	81.2061	5,856.45	82.916	5,856.45	80.7737	5,856.45	81.4003	5,856.45	79.1914	5,856.45	78.508	5,856.45	77.106	5,856.45	75.9472	5,856.45	74.2952	5,856.45	76.7209	5,856.45	70.8514	5,856.45	71.0674	5,856.45	68.653	5,856.45	70.1292	5,856.45	68.7689	5,856.45	67.6663	5,856.45	66.1979	5,856.45	72.3187	5,856.45	62.8176	5,856.45	62.3541	5,856.45	53.3816	5,856.45	63.0556	5,856.45	57.4764	5,856.45	62.0358	5,856.45	63.3717	5,856.45	50.3024	5,856.45	64.1608	5,856.45	57.5879	5,856.45	52.3141
6,062.99	85.9931	6,062.99	86.5739	6,062.99	86.8329	6,062.99	86.269	6,062.99	86.6897	6,062.99	82.7431	6,062.99	85.001	6,062.99	81.5445	6,062.99	82.7751	6,062.99	80.2304	6,062.99	78.8877	6,062.99	79.0345	6,062.99	78.911	6,062.99	76.833	6,062.99	78.232	6,062.99	74.7779	6,062.99	77.4681	6,062.99	70.0434	6,062.99	69.8886	6,062.99	67.7734	6,062.99	68.4352	6,062.99	66.244	6,062.99	68.3669	6,062.99	67.991	6,062.99	68.7717	6,062.99	58.7562	6,062.99	59.3097	6,062.99	58.0798	6,062.99	53.8936	6,062.99	57.5983	6,062.99	56.9507	6,062.99	62.9037	6,062.99	50.8542	6,062.99	64.1088	6,062.99	62.1098	6,062.99	57.3775
6,276.86	86.4699	6,276.86	86.9573	6,276.86	86.6975	6,276.86	84.988	6,276.86	86.4518	6,276.86	83.7123	6,276.86	83.8747	6,276.86	80.5644	6,276.86	80.3021	6,276.86	80.0878	6,276.86	78.9747	6,276.86	79.3947	6,276.86	78.8331	6,276.86	77.7228	6,276.86	78.6276	6,276.86	74.2899	6,276.86	76.8877	6,276.86	72.0103	6,276.86	71.904	6,276.86	68.1972	6,276.86	70.6464	6,276.86	65.5396	6,276.86	69.8445	6,276.86	67.3274	6,276.86	70.4624	6,276.86	65.2986	6,276.86	64.8807	6,276.86	56.1449	6,276.86	56.2993	6,276.86	51.0713	6,276.86	49.8197	6,276.86	63.6316	6,276.86	56.6633	6,276.86	65.6076	6,276.86	58.8787	6,276.86	55.3721
6,498.05	86.6162	6,498.05	86.4762	6,498.05	85.921	6,498.05	84.879	6,498.05	86.1236	6,498.05	82.9406	6,498.05	81.8181	6,498.05	79.4708	6,498.05	78.358	6,498.05	79.3015	6,498.05	79.1911	6,498.05	80.1932	6,498.05	79.1415	6,498.05	76.8846	6,498.05	79.7208	6,498.05	75.6525	6,498.05	70.4258	6,498.05	71.102	6,498.05	67.3037	6,498.05	68.7169	6,498.05	64.5501	6,498.05	66.6179	6,498.05	68.4386	6,498.05	64.8598	6,498.05	70.3412	6,498.05	66.2703	6,498.05	65.3585	6,498.05	58.3178	6,498.05	56.1146	6,498.05	48.1154	6,498.05	62.4188	6,498.05	65.1361	6,498.05	60.5955	6,498.05	61.9232	6,498.05	58.8629	6,498.05	53.2654
6,726.56	87.0884	6,726.56	87.0176	6,726.56	87.1177	6,726.56	86.0873	6,726.56	85.1706	6,726.56	82.9314	6,726.56	81.1972	6,726.56	80.9284	6,726.56	79.7778	6,726.56	79.9287	6,726.56	79.7477	6,726.56	79.0336	6,726.56	80.7102	6,726.56	78.7087	6,726.56	76.0242	6,726.56	72.86	6,726.56	71.195	6,726.56	70.7586	6,726.56	69.1775	6,726.56	66.7294	6,726.56	66.7298	6,726.56	66.0546	6,726.56	63.3193	6,726.56	65.6514	6,726.56	65.8844	6,726.56	64.1317	6,726.56	64.2105	6,726.56	61.658	6,726.56	58.8165	6,726.56	58.2977	6,726.56	63.1249	6,726.56	63.6309	6,726.56	58.823	6,726.56	62.0813	6,726.56	58.0225	6,726.56	48.8358
6,963.87	87.3083	6,963.87	87.4289	6,963.87	87.3521	6,963.87	86.4816	6,963.87	84.7463	6,963.87	84.6418	6,963.87	83.5452	6,963.87	81.4225	6,963.87	82.7497	6,963.87	80.9013	6,963.87	79.9146	6,963.87	80.0921	6,963.87	81.335	6,963.87	77.7427	6,963.87	70.3922	6,963.87	76.6764	6,963.87	77.3781	6,963.87	71.4009	6,963.87	71.9308	6,963.87	68.1525	6,963.87	69.0025	6,963.87	64.8192	6,963.87	62.4531	6,963.87	68.4225	6,963.87	65.5546	6,963.87	63.938	6,963.87	59.4233	6,963.87	62.3436	6,963.87	53.8747	6,963.87	57.0065	6,963.87	61.384	6,963.87	62.8169	6,963.87	36.5163	6,963.87	67.4422	6,963.87	41.5107	6,963.87	46.4631
7,209.96	87.794	7,209.96	87.4526	7,209.96	86.8646	7,209.96	87.1142	7,209.96	86.0883	7,209.96	85.3914	7,209.96	85.1138	7,209.96	81.9959	7,209.96	82.9639	7,209.96	81.8003	7,209.96	81.8936	7,209.96	80.4167	7,209.96	80.1331	7,209.96	78.7737	7,209.96	78.6124	7,209.96	75.4243	7,209.96	78.1978	7,209.96	71.6404	7,209.96	72.4405	7,209.96	66.6133	7,209.96	69.6592	7,209.96	64.4668	7,209.96	63.597	7,209.96	66.9045	7,209.96	67.5953	7,209.96	62.6858	7,209.96	60.6009	7,209.96	63.0059	7,209.96	56.2277	7,209.96	55.8999	7,209.96	43.8592	7,209.96	64.529	7,209.96	54.0562	7,209.96	66.8573	7,209.96	54.9976	7,209.96	43.5324
7,464.84	87.697	7,464.84	87.3109	7,464.84	86.8337	7,464.84	87.0053	7,464.84	87.8158	7,464.84	85.09	7,464.84	85.1624	7,464.84	82.6749	7,464.84	81.9755	7,464.84	82.0205	7,464.84	83.0623	7,464.84	81.2488	7,464.84	76.6707	7,464.84	78.1858	7,464.84	81.8168	7,464.84	76.7233	7,464.84	74.8364	7,464.84	72.0781	7,464.84	72.3841	7,464.84	66.2788	7,464.84	63.2681	7,464.84	64.2751	7,464.84	64.7208	7,464.84	65.6235	7,464.84	66.3051	7,464.84	64.3016	7,464.84	58.0024	7,464.84	64.5736	7,464.84	53.8696	7,464.84	55.1778	7,464.84	47.6908	7,464.84	65.187	7,464.84	55.5379	7,464.84	61.9424	7,464.84	52.2808	7,464.84	53.6425
7,727.05	87.5624	7,727.05	87.4827	7,727.05	86.9502	7,727.05	86.681	7,727.05	87.1257	7,727.05	85.0747	7,727.05	84.6537	7,727.05	82.9046	7,727.05	81.3643	7,727.05	81.9885	7,727.05	82.1919	7,727.05	80.7208	7,727.05	78.832	7,727.05	77.9591	7,727.05	80.4561	7,727.05	74.2978	7,727.05	71.1896	7,727.05	71.3705	7,727.05	66.2961	7,727.05	67.5713	7,727.05	67.7753	7,727.05	61.3343	7,727.05	65.8442	7,727.05	65.6432	7,727.05	67.1839	7,727.05	65.6145	7,727.05	57.4927	7,727.05	65.2791	7,727.05	53.94	7,727.05	44.5213	7,727.05	53.1644	7,727.05	59.271	7,727.05	56.5651	7,727.05	65.0671	7,727.05	57.4391	7,727.05	51.4923
7,999.51	86.7085	7,999.51	86.556	7,999.51	86.0861	7,999.51	86.0265	7,999.51	84.9381	7,999.51	85.4884	7,999.51	84.6835	7,999.51	82.8535	7,999.51	82.0715	7,999.51	81.7934	7,999.51	79.2573	7,999.51	79.6746	7,999.51	81.0743	7,999.51	76.4468	7,999.51	74.181	7,999.51	73.1159	7,999.51	70.9213	7,999.51	68.0363	7,999.51	65.891	7,999.51	68.0037	7,999.51	64.3873	7,999.51	58.0771	7,999.51	63.5718	7,999.51	65.8608	7,999.51	63.3394	7,999.51	62.9884	7,999.51	47.2445	7,999.51	62.9612	7,999.51	47.3597	7,999.51	49.5238	7,999.51	43.5291	7,999.51	51.1798	7,999.51	54.8207	7,999.51	64.3298	7,999.51	54.9437	7,999.51	50.4713
8,282.23	86.8125	8,282.23	86.693	8,282.23	85.1125	8,282.23	86.5539	8,282.23	84.0297	8,282.23	85.8069	8,282.23	84.1817	8,282.23	82.6403	8,282.23	82.7845	8,282.23	81.1766	8,282.23	78.0923	8,282.23	79.1866	8,282.23	80.7522	8,282.23	75.8956	8,282.23	68.847	8,282.23	72.1832	8,282.23	71.4948	8,282.23	69.0174	8,282.23	69.5249	8,282.23	63.9897	8,282.23	59.6938	8,282.23	60.1546	8,282.23	64.0848	8,282.23	64.5479	8,282.23	62.2485	8,282.23	59.3037	8,282.23	64.7822	8,282.23	62.7801	8,282.23	55.5032	8,282.23	54.829	8,282.23	43.7626	8,282.23	59.0625	8,282.23	53.0618	8,282.23	64.4473	8,282.23	57.6933	8,282.23	46.4038
8,573.73	87.2177	8,573.73	86.6442	8,573.73	86.856	8,573.73	86.1868	8,573.73	86.496	8,573.73	85.5127	8,573.73	83.5322	8,573.73	82.7505	8,573.73	83.1201	8,573.73	80.9982	8,573.73	80.9963	8,573.73	78.6653	8,573.73	77.8997	8,573.73	75.8055	8,573.73	76.7644	8,573.73	72.2987	8,573.73	72.7706	8,573.73	68.5518	8,573.73	69.7433	8,573.73	64.4619	8,573.73	66.3913	8,573.73	63.3859	8,573.73	63.1127	8,573.73	57.7201	8,573.73	62.9204	8,573.73	57.2562	8,573.73	63.5498	8,573.73	64.3814	8,573.73	52.8042	8,573.73	51.4182	8,573.73	51.4597	8,573.73	62.9898	8,573.73	36.2436	8,573.73	63.8978	8,573.73	56.8366	8,573.73	50.8701
8,876.95	86.7806	8,876.95	86.6509	8,876.95	86.8351	8,876.95	86.3097	8,876.95	87.1512	8,876.95	85.6702	8,876.95	83.9346	8,876.95	82.6175	8,876.95	82.8605	8,876.95	80.3214	8,876.95	81.9702	8,876.95	78.9586	8,876.95	73.0811	8,876.95	74.6304	8,876.95	77.4687	8,876.95	73.6791	8,876.95	71.1863	8,876.95	67.4693	8,876.95	67.0431	8,876.95	63.4651	8,876.95	66.7114	8,876.95	61.7266	8,876.95	64.4559	8,876.95	54.7477	8,876.95	65.1096	8,876.95	55.6514	8,876.95	62.7794	8,876.95	64.2997	8,876.95	54.9647	8,876.95	52.2825	8,876.95	42.2032	8,876.95	63.7875	8,876.95	52.0045	8,876.95	64.2492	8,876.95	57.0538	8,876.95	54.3212
9,188.96	86.6387	9,188.96	86.9577	9,188.96	86.063	9,188.96	86.5246	9,188.96	86.5149	9,188.96	85.401	9,188.96	85.1633	9,188.96	82.174	9,188.96	82.3872	9,188.96	80.2095	9,188.96	79.3301	9,188.96	78.2418	9,188.96	75.3458	9,188.96	75.6348	9,188.96	74.8451	9,188.96	72.2083	9,188.96	69.8847	9,188.96	68.4863	9,188.96	65.8419	9,188.96	64.676	9,188.96	65.5326	9,188.96	60.2551	9,188.96	64.9414	9,188.96	60.4015	9,188.96	66.6745	9,188.96	59.9013	9,188.96	63.8887	9,188.96	60.9012	9,188.96	51.4909	9,188.96	50.8937	9,188.96	49.1033	9,188.96	60.9828	9,188.96	48.6926	9,188.96	62.7078	9,188.96	53.5871	9,188.96	55.807
9,514.16	86.6339	9,514.16	86.3294	9,514.16	85.7902	9,514.16	86.1062	9,514.16	85.3452	9,514.16	85.1333	9,514.16	84.7765	9,514.16	81.704	9,514.16	80.5064	9,514.16	79.4272	9,514.16	75.9987	9,514.16	77.0612	9,514.16	78.0773	9,514.16	74.7329	9,514.16	71.876	9,514.16	69.8628	9,514.16	69.7471	9,514.16	66.9075	9,514.16	66.6326	9,514.16	64.2018	9,514.16	58.2883	9,514.16	56.273	9,514.16	61.7359	9,514.16	59.8745	9,514.16	64.8898	9,514.16	59.0169	9,514.16	62.735	9,514.16	58.9372	9,514.16	48.2366	9,514.16	45.4886	9,514.16	46.2476	9,514.16	53.5878	9,514.16	49.9816	9,514.16	57.9429	9,514.16	49.2224	9,514.16	51.5514
9,849.61	86.1415	9,849.61	86.2	9,849.61	86.4865	9,849.61	85.4461	9,849.61	85.3966	9,849.61	84.537	9,849.61	84.2859	9,849.61	80.4267	9,849.61	79.9522	9,849.61	78.3107	9,849.61	77.3913	9,849.61	76.2284	9,849.61	76.3282	9,849.61	72.0844	9,849.61	70.2338	9,849.61	69.3313	9,849.61	69.1942	9,849.61	64.4752	9,849.61	61.7521	9,849.61	60.0281	9,849.61	52.9094	9,849.61	58.3437	9,849.61	58.8807	9,849.61	56.4489	9,849.61	65.1388	9,849.61	41.4399	9,849.61	63.8754	9,849.61	57.3678	9,849.61	49.7648	9,849.61	53.1021	9,849.61	45.2607	9,849.61	55.0059	9,849.61	42.2667	9,849.61	60.6665	9,849.61	50.726	9,849.61	55.9435
10,196.8	85.5059	10,196.8	85.8431	10,196.8	85.5588	10,196.8	84.9759	10,196.8	85.4719	10,196.8	83.8521	10,196.8	82.4612	10,196.8	79.6918	10,196.8	79.61	10,196.8	77.2916	10,196.8	75.8115	10,196.8	75.1596	10,196.8	70.7527	10,196.8	71.2285	10,196.8	68.3912	10,196.8	67.2961	10,196.8	64.8944	10,196.8	62.954	10,196.8	58.9721	10,196.8	52.7814	10,196.8	46.3446	10,196.8	58.3674	10,196.8	61.7578	10,196.8	51.1371	10,196.8	67.422	10,196.8	51.17	10,196.8	67.2941	10,196.8	60.3318	10,196.8	54.5245	10,196.8	35.6007	10,196.8	45.6256	10,196.8	60.2483	10,196.8	49.689	10,196.8	61.1992	10,196.8	53.4762	10,196.8	56.3503
10,555.7	85.8457	10,555.7	85.7869	10,555.7	85.0987	10,555.7	84.6946	10,555.7	84.2589	10,555.7	83.108	10,555.7	81.2179	10,555.7	79.392	10,555.7	77.3143	10,555.7	76.8406	10,555.7	72.8045	10,555.7	73.6887	10,555.7	68.7548	10,555.7	70.0083	10,555.7	66.882	10,555.7	64.5356	10,555.7	55.8772	10,555.7	59.0233	10,555.7	49.1418	10,555.7	54.7293	10,555.7	42.6713	10,555.7	54.2973	10,555.7	61.2652	10,555.7	43.7609	10,555.7	68.2875	10,555.7	49.0901	10,555.7	66.7646	10,555.7	61.1397	10,555.7	49.4784	10,555.7	51.727	10,555.7	42.9884	10,555.7	58.23	10,555.7	46.9589	10,555.7	60.4165	10,555.7	49.5595	10,555.7	55.8437
10,927.7	86.6349	10,927.7	86.18	10,927.7	86.2044	10,927.7	85.0355	10,927.7	84.5684	10,927.7	83.643	10,927.7	81.2414	10,927.7	79.4088	10,927.7	78.6098	10,927.7	76.1978	10,927.7	74.551	10,927.7	75.4429	10,927.7	72.4856	10,927.7	69.3132	10,927.7	66.1946	10,927.7	65.0705	10,927.7	62.8542	10,927.7	61.4737	10,927.7	60.1397	10,927.7	55.3666	10,927.7	55.5359	10,927.7	51.3095	10,927.7	60.1392	10,927.7	49.1529	10,927.7	70.0035	10,927.7	50.3926	10,927.7	68.0778	10,927.7	56.1751	10,927.7	51.0838	10,927.7	53.236	10,927.7	47.0334	10,927.7	47.527	10,927.7	36.4125	10,927.7	56.9755	10,927.7	38.0375	10,927.7	52.6124
11,313	86.9793	11,313	87.0273	11,313	86.6487	11,313	85.9891	11,313	85.9367	11,313	83.6548	11,313	81.7836	11,313	79.9018	11,313	80.0087	11,313	76.8845	11,313	76.1428	11,313	75.2314	11,313	73.168	11,313	69.4662	11,313	68.2439	11,313	63.577	11,313	66.1403	11,313	60.6436	11,313	65.4167	11,313	55.4174	11,313	57.6096	11,313	39.7974	11,313	62.2679	11,313	54.8946	11,313	71.4149	11,313	54.1308	11,313	71.0344	11,313	55.7961	11,313	60.9906	11,313	54.5365	11,313	50.9065	11,313	46.3753	11,313	50.7072	11,313	55.5257	11,313	41.293	11,313	50.0719
11,712.9	87.9807	11,712.9	87.434	11,712.9	87.64	11,712.9	86.2601	11,712.9	86.6291	11,712.9	83.8165	11,712.9	83.2581	11,712.9	79.9389	11,712.9	79.8815	11,712.9	77.0399	11,712.9	76.1202	11,712.9	73.8092	11,712.9	71.5313	11,712.9	68.0298	11,712.9	69.8389	11,712.9	63.6542	11,712.9	68.2828	11,712.9	61.8314	11,712.9	64.4359	11,712.9	56.8392	11,712.9	59.7533	11,712.9	54.374	11,712.9	61.7606	11,712.9	54.1735	11,712.9	72.3595	11,712.9	53.8988	11,712.9	71.6557	11,712.9	52.8583	11,712.9	57.0445	11,712.9	52.3395	11,712.9	55.8935	11,712.9	49.6938	11,712.9	50.1411	11,712.9	44.786	11,712.9	44.6309	11,712.9	40.551
12,126	87.7659	12,126	87.6943	12,126	87.4722	12,126	86.5356	12,126	86.6567	12,126	84.031	12,126	83.8133	12,126	79.6873	12,126	79.1083	12,126	76.4548	12,126	73.7506	12,126	72.8909	12,126	71.7653	12,126	68.8633	12,126	71.2573	12,126	64.9478	12,126	66.236	12,126	63.224	12,126	64.0486	12,126	56.5084	12,126	60.0028	12,126	52.2823	12,126	61.658	12,126	49.0733	12,126	72.5778	12,126	49.7704	12,126	71.6848	12,126	48.8357	12,126	57.676	12,126	50.1696	12,126	34.8139	12,126	38.5131	12,126	40.6132	12,126	44.1764	12,126	41.8699	12,126	51.7998
12,553.7	88.1519	12,553.7	87.6888	12,553.7	87.307	12,553.7	86.3567	12,553.7	86.3603	12,553.7	84.1263	12,553.7	82.9254	12,553.7	79.6941	12,553.7	79.56	12,553.7	75.7354	12,553.7	75.1066	12,553.7	72.6446	12,553.7	70.4687	12,553.7	70.2566	12,553.7	71.1216	12,553.7	66.2252	12,553.7	68.778	12,553.7	63.2173	12,553.7	65.6345	12,553.7	58.7229	12,553.7	60.2973	12,553.7	54.4826	12,553.7	61.6089	12,553.7	41.4726	12,553.7	73.1548	12,553.7	54.9628	12,553.7	71.7023	12,553.7	55.0963	12,553.7	58.8164	12,553.7	52.8874	12,553.7	48.4636	12,553.7	48.9475	12,553.7	48.4593	12,553.7	54.6217	12,553.7	50.5356	12,553.7	43.5581
12,996.1	88.1609	12,996.1	87.8214	12,996.1	87.5942	12,996.1	86.4581	12,996.1	86.561	12,996.1	84.4934	12,996.1	82.889	12,996.1	80.4033	12,996.1	80.3695	12,996.1	75.4505	12,996.1	75.6235	12,996.1	73.9712	12,996.1	73.9953	12,996.1	70.7277	12,996.1	72.4173	12,996.1	66.5142	12,996.1	69.0358	12,996.1	63.2904	12,996.1	66.8411	12,996.1	57.8664	12,996.1	58.4854	12,996.1	50.5658	12,996.1	62.8949	12,996.1	51.4071	12,996.1	74.4143	12,996.1	55.02	12,996.1	72.2987	12,996.1	53.0359	12,996.1	60.8232	12,996.1	39.8167	12,996.1	53.0606	12,996.1	55.3438	12,996.1	50.8795	12,996.1	57.1422	12,996.1	50.1099	12,996.1	50.8224
13,454.6	88.6301	13,454.6	88.2844	13,454.6	88.1166	13,454.6	86.7304	13,454.6	86.6913	13,454.6	84.3561	13,454.6	83.1235	13,454.6	80.2103	13,454.6	80.066	13,454.6	75.806	13,454.6	75.0235	13,454.6	73.4482	13,454.6	73.4949	13,454.6	69.7797	13,454.6	70.9048	13,454.6	64.1335	13,454.6	67.6619	13,454.6	59.7282	13,454.6	62.7627	13,454.6	54.0534	13,454.6	60.9043	13,454.6	51.1983	13,454.6	63.9417	13,454.6	43.8076	13,454.6	73.4405	13,454.6	47.661	13,454.6	71.6398	13,454.6	43.681	13,454.6	56.6688	13,454.6	51.5939	13,454.6	50.003	13,454.6	52.6826	13,454.6	40.8555	13,454.6	55.4013	13,454.6	35.8112	13,454.6	46.6431
13,929.2	88.5331	13,929.2	88.1041	13,929.2	87.9855	13,929.2	86.2033	13,929.2	87.1442	13,929.2	83.5637	13,929.2	83.3234	13,929.2	78.7003	13,929.2	79.4703	13,929.2	73.8578	13,929.2	76.7561	13,929.2	71.7428	13,929.2	71.6397	13,929.2	65.8621	13,929.2	71.5467	13,929.2	58.3878	13,929.2	66.4687	13,929.2	54.955	13,929.2	62.8213	13,929.2	50.4944	13,929.2	61.4681	13,929.2	44.4415	13,929.2	63.4661	13,929.2	37.1587	13,929.2	72.8668	13,929.2	50.0903	13,929.2	71.7776	13,929.2	43.268	13,929.2	60.9739	13,929.2	47.9465	13,929.2	51.8754	13,929.2	56.1844	13,929.2	45.6963	13,929.2	53.7704	13,929.2	42.1214	13,929.2	43.4157
14,419.9	87.9374	14,419.9	87.2121	14,419.9	87.8834	14,419.9	85.1632	14,419.9	86.6596	14,419.9	81.996	14,419.9	83.405	14,419.9	76.0575	14,419.9	79.7846	14,419.9	71.2314	14,419.9	75.6164	14,419.9	66.7881	14,419.9	73.593	14,419.9	54.0241	14,419.9	69.1342	14,419.9	46.2653	14,419.9	69.9142	14,419.9	49.4253	14,419.9	63.5853	14,419.9	46.2916	14,419.9	63.2805	14,419.9	40.5975	14,419.9	62.4851	14,419.9	49.2982	14,419.9	72.544	14,419.9	48.3087	14,419.9	70.9953	14,419.9	39.4219	14,419.9	60.8457	14,419.9	40.2907	14,419.9	52.9225	14,419.9	51.7084	14,419.9	41.59	14,419.9	51.545	14,419.9	39.4235	14,419.9	45.4197
14,928.2	87.2096	14,928.2	86.4389	14,928.2	86.7715	14,928.2	84.0921	14,928.2	85.8876	14,928.2	80.5881	14,928.2	82.4394	14,928.2	73.6578	14,928.2	79.3107	14,928.2	65.9408	14,928.2	74.8345	14,928.2	61.5285	14,928.2	74.0872	14,928.2	59.6678	14,928.2	72.1122	14,928.2	58.1055	14,928.2	67.0941	14,928.2	53.8985	14,928.2	63.3162	14,928.2	49.432	14,928.2	61.3274	14,928.2	43.7809	14,928.2	59.4874	14,928.2	49.5227	14,928.2	71.8677	14,928.2	37.1152	14,928.2	71.0164	14,928.2	43.3141	14,928.2	59.275	14,928.2	43.8013	14,928.2	52.6307	14,928.2	49.6392	14,928.2	49.2131	14,928.2	53.2664	14,928.2	46.3143	14,928.2	40.0141
15,455.6	86.9455	15,455.6	86.2284	15,455.6	86.4307	15,455.6	84.0403	15,455.6	85.4494	15,455.6	80.7105	15,455.6	82.6796	15,455.6	74.2694	15,455.6	80.2173	15,455.6	67.4777	15,455.6	76.295	15,455.6	64.1153	15,455.6	71.7566	15,455.6	64.3129	15,455.6	71.7405	15,455.6	61.1404	15,455.6	68.4782	15,455.6	53.8935	15,455.6	62.2899	15,455.6	51.9661	15,455.6	61.0322	15,455.6	44.3094	15,455.6	61.4064	15,455.6	47.0155	15,455.6	71.2649	15,455.6	47.5622	15,455.6	70.7148	15,455.6	44.4827	15,455.6	60.8897	15,455.6	34.4744	15,455.6	47.7764	15,455.6	50.1943	15,455.6	47.6468	15,455.6	55.1739	15,455.6	48.6313	15,455.6	34.5025
16,000.5	87.2724	16,000.5	86.6777	16,000.5	86.7156	16,000.5	84.409	16,000.5	85.3399	16,000.5	81.2152	16,000.5	81.3903	16,000.5	75.6727	16,000.5	79.2237	16,000.5	69.204	16,000.5	75.8298	16,000.5	63.8179	16,000.5	72.617	16,000.5	62.4788	16,000.5	69.0246	16,000.5	55.2647	16,000.5	66.6487	16,000.5	51.0699	16,000.5	61.8332	16,000.5	40.2967	16,000.5	60.1062	16,000.5	48.3451	16,000.5	59.0814	16,000.5	44.073	16,000.5	69.2885	16,000.5	45.1104	16,000.5	68.605	16,000.5	38.4671	16,000.5	54.7973	16,000.5	40.5071	16,000.5	48.9478	16,000.5	49.3667	16,000.5	47.3685	16,000.5	50.371	16,000.5	50.4309	16,000.5	43.4341
16,564.5	87.178	16,564.5	86.4867	16,564.5	86.3964	16,564.5	84.4602	16,564.5	84.7499	16,564.5	80.3656	16,564.5	81.5755	16,564.5	74.1329	16,564.5	78.181	16,564.5	67.1562	16,564.5	74.2923	16,564.5	60.1086	16,564.5	70.5192	16,564.5	46.9503	16,564.5	68.0352	16,564.5	45.5413	16,564.5	63.4422	16,564.5	40.7507	16,564.5	57.1617	16,564.5	43.6667	16,564.5	57.4333	16,564.5	40.6209	16,564.5	56.3849	16,564.5	29.038	16,564.5	64.9162	16,564.5	41.1033	16,564.5	64.1193	16,564.5	38.0812	16,564.5	52.121	16,564.5	32.0383	16,564.5	38.94	16,564.5	42.2247	16,564.5	42.3357	16,564.5	41.5609	16,564.5	44.348	16,564.5	40.3434
17,148.9	86.2911	17,148.9	85.6649	17,148.9	85.4097	17,148.9	83.3203	17,148.9	83.5205	17,148.9	78.5227	17,148.9	78.8643	17,148.9	70.3673	17,148.9	75.4903	17,148.9	62.7948	17,148.9	71.1416	17,148.9	60.1816	17,148.9	66.7806	17,148.9	59.7612	17,148.9	61.2533	17,148.9	57.3621	17,148.9	59.5854	17,148.9	50.9166	17,148.9	54.6643	17,148.9	45.7599	17,148.9	50.4994	17,148.9	39.491	17,148.9	49.8039	17,148.9	31.7321	17,148.9	49.7829	17,148.9	38.2538	17,148.9	52.9505	17,148.9	28.3282	17,148.9	41.9658	17,148.9	39.2937	17,148.9	43.5406	17,148.9	39.4209	17,148.9	36.6868	17,148.9	40.8055	17,148.9	44.7872	17,148.9	40.3437
17,752.4	84.8921	17,752.4	84.2162	17,752.4	83.9069	17,752.4	81.174	17,752.4	81.1725	17,752.4	75.2864	17,752.4	74.9695	17,752.4	61.9517	17,752.4	70.4427	17,752.4	61.4751	17,752.4	66.9498	17,752.4	64.5676	17,752.4	61.8036	17,752.4	62.9877	17,752.4	59.0871	17,752.4	59.9151	17,752.4	58.0316	17,752.4	54.9727	17,752.4	50.8864	17,752.4	50.7032	17,752.4	52.5693	17,752.4	44.8173	17,752.4	49.971	17,752.4	36.727	17,752.4	54.4911	17,752.4	41.3861	17,752.4	50.1093	17,752.4	35.2578	17,752.4	48.2863	17,752.4	43.3415	17,752.4	30.2307	17,752.4	43.1726	17,752.4	45.7397	17,752.4	44.5029	17,752.4	46.6214	17,752.4	49.1544
18,379.4	83.6686	18,379.4	82.8788	18,379.4	82.1269	18,379.4	79.8502	18,379.4	79.0102	18,379.4	71.689	18,379.4	71.2515	18,379.4	45.0394	18,379.4	64.9175	18,379.4	63.8402	18,379.4	63.6918	18,379.4	65.3088	18,379.4	61.8599	18,379.4	64.8387	18,379.4	59.9906	18,379.4	61.4097	18,379.4	59.0191	18,379.4	56.2411	18,379.4	50.4284	18,379.4	52.7777	18,379.4	51.0623	18,379.4	44.6627	18,379.4	50.3003	18,379.4	36.9127	18,379.4	58.2741	18,379.4	40.9795	18,379.4	54.1493	18,379.4	39.5559	18,379.4	49.8666	18,379.4	19.3613	18,379.4	34.8266	18,379.4	48.7636	18,379.4	45.9723	18,379.4	38.4649	18,379.4	42.9246	18,379.4	44.8044
19,026.9	82.3575	19,026.9	81.417	19,026.9	80.5662	19,026.9	78.3173	19,026.9	76.9911	19,026.9	70.2323	19,026.9	66.4241	19,026.9	56.6823	19,026.9	58.7469	19,026.9	64.8589	19,026.9	63.6829	19,026.9	65.7883	19,026.9	63.2331	19,026.9	64.494	19,026.9	61.6194	19,026.9	60.9197	19,026.9	58.6166	19,026.9	53.7639	19,026.9	44.5288	19,026.9	50.2036	19,026.9	48.5004	19,026.9	43.3022	19,026.9	51.2106	19,026.9	39.0616	19,026.9	60.139	19,026.9	30.0838	19,026.9	56.7017	19,026.9	45.4151	19,026.9	48.2453	19,026.9	39.7599	19,026.9	28.4483	19,026.9	50.3543	19,026.9	39.1239	19,026.9	44.3862	19,026.9	34.1648	19,026.9	36.6505
19,697.8	81.5151	19,697.8	80.6465	19,697.8	79.4633	19,697.8	77.0111	19,697.8	75.004	19,697.8	69.7247	19,697.8	65.3713	19,697.8	56.9394	19,697.8	52.1311	19,697.8	64.3846	19,697.8	62.8399	19,697.8	65.4361	19,697.8	62.2706	19,697.8	62.6959	19,697.8	58.5564	19,697.8	58.7684	19,697.8	55.0041	19,697.8	52.8372	19,697.8	47.0296	19,697.8	45.4872	19,697.8	44.3385	19,697.8	42.3498	19,697.8	51.0984	19,697.8	38.689	19,697.8	59.4392	19,697.8	42.0221	19,697.8	56.5127	19,697.8	42.4568	19,697.8	48.9342	19,697.8	30.49	19,697.8	30.6861	19,697.8	46.719	19,697.8	32.046	19,697.8	46.07	19,697.8	40.4236	19,697.8	37.3174
19,999.5	80.9329	19,999.5	80.3907	19,999.5	79.0563	19,999.5	76.6122	19,999.5	74.0516	19,999.5	70.0606	19,999.5	65.4145	19,999.5	52.6688	19,999.5	48.2143	19,999.5	65.1679	19,999.5	60.2784	19,999.5	65.3448	19,999.5	63.3804	19,999.5	63.0665	19,999.5	58.7311	19,999.5	58.2141	19,999.5	49.6716	19,999.5	52.8454	19,999.5	45.9548	19,999.5	44.7624	19,999.5	46.524	19,999.5	44.1399	19,999.5	51.7615	19,999.5	38.4276	19,999.5	59.4192	19,999.5	38.0492	19,999.5	57.0981	19,999.5	46.9371	19,999.5	51.9197	19,999.5	49.4802	19,999.5	30.5032	19,999.5	55.4742	19,999.5	41.2162	19,999.5	46.1038	19,999.5	48.5347	19,999.5	48.8133
