"SPL Horizontal"
"On-Axis"		"10°"		"-10°"		"20°"		"-20°"		"30°"		"-30°"		"40°"		"-40°"		"50°"		"-50°"		"60°"		"-60°"		"70°"		"-70°"		"80°"		"-80°"		"90°"		"-90°"		"100°"		"-100°"		"110°"		"-110°"		"120°"		"-120°"		"130°"		"-130°"		"140°"		"-140°"		"150°"		"-150°"		"160°"		"-160°"		"170°"		"-170°"		"180°"
"Frequency [Hz]"	"Sound Pessure Level [dB]  / [2.83V 1m] "	"Frequency [Hz]"	"Sound Pessure Level [dB]  / [2.83V 1m] "	"Frequency [Hz]"	"Sound Pessure Level [dB]  / [2.83V 1m] "	"Frequency [Hz]"	"Sound Pessure Level [dB]  / [2.83V 1m] "	"Frequency [Hz]"	"Sound Pessure Level [dB]  / [2.83V 1m] "	"Frequency [Hz]"	"Sound Pessure Level [dB]  / [2.83V 1m] "	"Frequency [Hz]"	"Sound Pessure Level [dB]  / [2.83V 1m] "	"Frequency [Hz]"	"Sound Pessure Level [dB]  / [2.83V 1m] "	"Frequency [Hz]"	"Sound Pessure Level [dB]  / [2.83V 1m] "	"Frequency [Hz]"	"Sound Pessure Level [dB]  / [2.83V 1m] "	"Frequency [Hz]"	"Sound Pessure Level [dB]  / [2.83V 1m] "	"Frequency [Hz]"	"Sound Pessure Level [dB]  / [2.83V 1m] "	"Frequency [Hz]"	"Sound Pessure Level [dB]  / [2.83V 1m] "	"Frequency [Hz]"	"Sound Pessure Level [dB]  / [2.83V 1m] "	"Frequency [Hz]"	"Sound Pessure Level [dB]  / [2.83V 1m] "	"Frequency [Hz]"	"Sound Pessure Level [dB]  / [2.83V 1m] "	"Frequency [Hz]"	"Sound Pessure Level [dB]  / [2.83V 1m] "	"Frequency [Hz]"	"Sound Pessure Level [dB]  / [2.83V 1m] "	"Frequency [Hz]"	"Sound Pessure Level [dB]  / [2.83V 1m] "	"Frequency [Hz]"	"Sound Pessure Level [dB]  / [2.83V 1m] "	"Frequency [Hz]"	"Sound Pessure Level [dB]  / [2.83V 1m] "	"Frequency [Hz]"	"Sound Pessure Level [dB]  / [2.83V 1m] "	"Frequency [Hz]"	"Sound Pessure Level [dB]  / [2.83V 1m] "	"Frequency [Hz]"	"Sound Pessure Level [dB]  / [2.83V 1m] "	"Frequency [Hz]"	"Sound Pessure Level [dB]  / [2.83V 1m] "	"Frequency [Hz]"	"Sound Pessure Level [dB]  / [2.83V 1m] "	"Frequency [Hz]"	"Sound Pessure Level [dB]  / [2.83V 1m] "	"Frequency [Hz]"	"Sound Pessure Level [dB]  / [2.83V 1m] "	"Frequency [Hz]"	"Sound Pessure Level [dB]  / [2.83V 1m] "	"Frequency [Hz]"	"Sound Pessure Level [dB]  / [2.83V 1m] "	"Frequency [Hz]"	"Sound Pessure Level [dB]  / [2.83V 1m] "	"Frequency [Hz]"	"Sound Pessure Level [dB]  / [2.83V 1m] "	"Frequency [Hz]"	"Sound Pessure Level [dB]  / [2.83V 1m] "	"Frequency [Hz]"	"Sound Pessure Level [dB]  / [2.83V 1m] "	"Frequency [Hz]"	"Sound Pessure Level [dB]  / [2.83V 1m] "	"Frequency [Hz]"	"Sound Pessure Level [dB]  / [2.83V 1m] "
20.5078	56.8705	20.5078	56.9401	20.5078	56.7895	20.5078	56.9965	20.5078	56.6995	20.5078	57.0387	20.5078	56.6037	20.5078	57.0663	20.5078	56.5058	20.5078	57.0793	20.5078	56.4107	20.5078	57.0788	20.5078	56.3233	20.5078	57.0668	20.5078	56.2487	20.5078	57.0457	20.5078	56.1913	20.5078	57.0181	20.5078	56.1547	20.5078	56.9864	20.5078	56.1408	20.5078	56.9519	20.5078	56.1501	20.5078	56.9152	20.5078	56.181	20.5078	56.8756	20.5078	56.2303	20.5078	56.832	20.5078	56.2937	20.5078	56.783	20.5078	56.3665	20.5078	56.7276	20.5078	56.4438	20.5078	56.6651	20.5078	56.5214	20.5078	56.596
21.9727	58.717	21.9727	58.7077	21.9727	58.7142	21.9727	58.6874	21.9727	58.6987	21.9727	58.657	21.9727	58.6701	21.9727	58.6173	21.9727	58.6289	21.9727	58.5689	21.9727	58.5762	21.9727	58.5123	21.9727	58.5135	21.9727	58.4486	21.9727	58.443	21.9727	58.3793	21.9727	58.3666	21.9727	58.3065	21.9727	58.2867	21.9727	58.2327	21.9727	58.2058	21.9727	58.1602	21.9727	58.1267	21.9727	58.0913	21.9727	58.0522	21.9727	58.028	21.9727	57.9854	21.9727	57.9717	21.9727	57.929	21.9727	57.9237	21.9727	57.8856	21.9727	57.8853	21.9727	57.8565	21.9727	57.858	21.9727	57.8425	21.9727	57.8433
23.4375	59.5829	23.4375	59.5723	23.4375	59.582	23.4375	59.5517	23.4375	59.5684	23.4375	59.5225	23.4375	59.5413	23.4375	59.4859	23.4375	59.5007	23.4375	59.4428	23.4375	59.4476	23.4375	59.3939	23.4375	59.3838	23.4375	59.3397	23.4375	59.3123	23.4375	59.2811	23.4375	59.2363	23.4375	59.219	23.4375	59.1592	23.4375	59.155	23.4375	59.0843	23.4375	59.0906	23.4375	59.0138	23.4375	59.0277	23.4375	58.9496	23.4375	58.9681	23.4375	58.8933	23.4375	58.9135	23.4375	58.8462	23.4375	58.8655	23.4375	58.81	23.4375	58.826	23.4375	58.7862	23.4375	58.7968	23.4375	58.776	23.4375	58.7797
24.9023	60.4099	24.9023	60.4052	24.9023	60.4006	24.9023	60.3868	24.9023	60.377	24.9023	60.355	24.9023	60.3392	24.9023	60.3104	24.9023	60.2875	24.9023	60.2541	24.9023	60.2227	24.9023	60.1874	24.9023	60.1464	24.9023	60.1125	24.9023	60.0611	24.9023	60.0321	24.9023	59.97	24.9023	59.9493	24.9023	59.8769	24.9023	59.8671	24.9023	59.7859	24.9023	59.7882	24.9023	59.7009	24.9023	59.7146	24.9023	59.6249	24.9023	59.6478	24.9023	59.5606	24.9023	59.5889	24.9023	59.5094	24.9023	59.5384	24.9023	59.4725	24.9023	59.4975	24.9023	59.4501	24.9023	59.467	24.9023	59.4422	24.9023	59.4482
26.3672	60.8139	26.3672	60.7992	26.3672	60.8214	26.3672	60.7778	26.3672	60.8211	26.3672	60.7505	26.3672	60.8129	26.3672	60.7176	26.3672	60.7969	26.3672	60.6797	26.3672	60.7737	26.3672	60.6376	26.3672	60.744	26.3672	60.5922	26.3672	60.709	26.3672	60.5448	26.3672	60.6698	26.3672	60.497	26.3672	60.6275	26.3672	60.4508	26.3672	60.5831	26.3672	60.4078	26.3672	60.5378	26.3672	60.3698	26.3672	60.4928	26.3672	60.3382	26.3672	60.4493	26.3672	60.314	26.3672	60.4087	26.3672	60.2979	26.3672	60.3724	26.3672	60.2903	26.3672	60.3416	26.3672	60.2911	26.3672	60.3173	26.3672	60.3003
27.832	62.4352	27.832	62.4302	27.832	62.432	27.832	62.4174	27.832	62.4204	27.832	62.3976	27.832	62.4002	27.832	62.3715	27.832	62.372	27.832	62.3401	27.832	62.3364	27.832	62.3045	27.832	62.2951	27.832	62.2657	27.832	62.2499	27.832	62.2249	27.832	62.203	27.832	62.1831	27.832	62.1567	27.832	62.1413	27.832	62.1127	27.832	62.1005	27.832	62.0724	27.832	62.0618	27.832	62.0367	27.832	62.0264	27.832	62.0058	27.832	61.9954	27.832	61.98	27.832	61.9699	27.832	61.9594	27.832	61.9508	27.832	61.9445	27.832	61.9386	27.832	61.9358	27.832	61.9337
29.2969	63.1287	29.2969	63.1061	29.2969	63.138	29.2969	63.0703	29.2969	63.1344	29.2969	63.022	29.2969	63.1185	29.2969	62.9621	29.2969	63.0915	29.2969	62.8922	29.2969	63.0546	29.2969	62.8145	29.2969	63.0094	29.2969	62.7316	29.2969	62.9572	29.2969	62.647	29.2969	62.8994	29.2969	62.5645	29.2969	62.8375	29.2969	62.4882	29.2969	62.7728	29.2969	62.4216	29.2969	62.7069	29.2969	62.3677	29.2969	62.6414	29.2969	62.3282	29.2969	62.5778	29.2969	62.3037	29.2969	62.5177	29.2969	62.2936	29.2969	62.4624	29.2969	62.2968	29.2969	62.4132	29.2969	62.3117	29.2969	62.3711	29.2969	62.3369
30.7617	63.9131	30.7617	63.9121	30.7617	63.9064	30.7617	63.9034	30.7617	63.8921	30.7617	63.8865	30.7617	63.8704	30.7617	63.8613	30.7617	63.8416	30.7617	63.8277	30.7617	63.8063	30.7617	63.7856	30.7617	63.765	30.7617	63.7359	30.7617	63.7188	30.7617	63.6797	30.7617	63.6684	30.7617	63.6189	30.7617	63.6148	30.7617	63.5556	30.7617	63.5589	30.7617	63.4926	30.7617	63.5019	30.7617	63.4324	30.7617	63.4455	30.7617	63.3774	30.7617	63.3916	30.7617	63.3297	30.7617	63.3427	30.7617	63.291	30.7617	63.3012	30.7617	63.2627	30.7617	63.2694	30.7617	63.2458	30.7617	63.2491	30.7617	63.2411
32.2266	64.5335	32.2266	64.5271	32.2266	64.5312	32.2266	64.5121	32.2266	64.52	32.2266	64.4891	32.2266	64.5002	32.2266	64.4587	32.2266	64.4723	32.2266	64.4217	32.2266	64.4373	32.2266	64.3791	32.2266	64.3963	32.2266	64.3321	32.2266	64.3506	32.2266	64.2817	32.2266	64.302	32.2266	64.2296	32.2266	64.2519	32.2266	64.1771	32.2266	64.2019	32.2266	64.1262	32.2266	64.1535	32.2266	64.0786	32.2266	64.1078	32.2266	64.0363	32.2266	64.066	32.2266	64.001	32.2266	64.029	32.2266	63.9739	32.2266	63.9979	32.2266	63.9558	32.2266	63.9734	32.2266	63.9469	32.2266	63.9563	32.2266	63.9473
33.6914	65.1716	33.6914	65.1658	33.6914	65.1679	33.6914	65.151	33.6914	65.1547	33.6914	65.1278	33.6914	65.1321	33.6914	65.0971	33.6914	65.1006	33.6914	65.0599	33.6914	65.061	33.6914	65.0173	33.6914	65.0145	33.6914	64.9706	33.6914	64.9625	33.6914	64.9211	33.6914	64.9069	33.6914	64.8701	33.6914	64.8495	33.6914	64.819	33.6914	64.7928	33.6914	64.7693	33.6914	64.7389	33.6914	64.7222	33.6914	64.6899	33.6914	64.6791	33.6914	64.6472	33.6914	64.6411	33.6914	64.6123	33.6914	64.6094	33.6914	64.5857	33.6914	64.5847	33.6914	64.568	33.6914	64.5678	33.6914	64.5592	33.6914	64.5592
35.1562	65.7677	35.1562	65.7544	35.1562	65.7714	35.1562	65.7317	35.1562	65.7655	35.1562	65.7004	35.1562	65.7502	35.1562	65.6615	35.1562	65.7262	35.1562	65.6161	35.1562	65.6946	35.1562	65.5658	35.1562	65.6564	35.1562	65.5122	35.1562	65.613	35.1562	65.4571	35.1562	65.5657	35.1562	65.4025	35.1562	65.5159	35.1562	65.3501	35.1562	65.4649	35.1562	65.3019	35.1562	65.4141	35.1562	65.2592	35.1562	65.3649	35.1562	65.2235	35.1562	65.3186	35.1562	65.1956	35.1562	65.2766	35.1562	65.1762	35.1562	65.24	35.1562	65.1657	35.1562	65.2097	35.1562	65.1641	35.1562	65.1865	35.1562	65.1712
36.6211	66.3675	36.6211	66.3562	36.6211	66.3695	36.6211	66.3362	36.6211	66.3617	36.6211	66.3081	36.6211	66.3444	36.6211	66.2729	36.6211	66.3178	36.6211	66.2318	36.6211	66.2827	36.6211	66.186	36.6211	66.2401	36.6211	66.1366	36.6211	66.1914	36.6211	66.085	36.6211	66.1382	36.6211	66.0324	36.6211	66.0823	36.6211	65.9801	36.6211	66.0254	36.6211	65.9296	36.6211	65.9695	36.6211	65.8823	36.6211	65.9164	36.6211	65.8397	36.6211	65.8679	36.6211	65.8031	36.6211	65.8254	36.6211	65.7739	36.6211	65.7904	36.6211	65.7531	36.6211	65.7639	36.6211	65.7413	36.6211	65.7467	36.6211	65.7392
38.0859	66.9343	38.0859	66.9253	38.0859	66.9338	38.0859	66.9072	38.0859	66.9241	38.0859	66.8801	38.0859	66.9053	38.0859	66.8447	38.0859	66.8783	38.0859	66.8017	38.0859	66.8438	38.0859	66.7521	38.0859	66.8032	38.0859	66.6973	38.0859	66.7577	38.0859	66.639	38.0859	66.7087	38.0859	66.579	38.0859	66.6575	38.0859	66.5195	38.0859	66.6053	38.0859	66.4628	38.0859	66.553	38.0859	66.411	38.0859	66.5019	38.0859	66.3661	38.0859	66.4531	38.0859	66.33	38.0859	66.4078	38.0859	66.3038	38.0859	66.3676	38.0859	66.2885	38.0859	66.3337	38.0859	66.2843	38.0859	66.3078	38.0859	66.291
39.5508	67.3921	39.5508	67.3832	39.5508	67.3904	39.5508	67.3645	39.5508	67.3782	39.5508	67.3367	39.5508	67.3558	39.5508	67.3008	39.5508	67.324	39.5508	67.2579	39.5508	67.2844	39.5508	67.2092	39.5508	67.2387	39.5508	67.1559	39.5508	67.1888	39.5508	67.0995	39.5508	67.1365	39.5508	67.0414	39.5508	67.0834	39.5508	66.9834	39.5508	67.0307	39.5508	66.9274	39.5508	66.9795	39.5508	66.8756	39.5508	66.9305	39.5508	66.83	39.5508	66.8847	39.5508	66.7924	39.5508	66.8431	39.5508	66.7642	39.5508	66.8068	39.5508	66.7463	39.5508	66.7771	39.5508	66.739	39.5508	66.7552	39.5508	66.7422
41.0156	68.0486	41.0156	68.0763	41.0156	68.0153	41.0156	68.0979	41.0156	67.9767	41.0156	68.1133	41.0156	67.934	41.0156	68.1224	41.0156	67.8883	41.0156	68.1251	41.0156	67.8415	41.0156	68.1216	41.0156	67.7954	41.0156	68.1118	41.0156	67.7519	41.0156	68.096	41.0156	67.7128	41.0156	68.0742	41.0156	67.679	41.0156	68.0466	41.0156	67.6514	41.0156	68.0138	41.0156	67.6304	41.0156	67.9763	41.0156	67.6166	41.0156	67.9349	41.0156	67.6107	41.0156	67.8907	41.0156	67.6135	41.0156	67.8448	41.0156	67.6254	41.0156	67.7986	41.0156	67.6465	41.0156	67.7538	41.0156	67.6759	41.0156	67.7123
42.4805	68.8008	42.4805	68.803	42.4805	68.7881	42.4805	68.7953	42.4805	68.7645	42.4805	68.7785	42.4805	68.7303	42.4805	68.7539	42.4805	68.6862	42.4805	68.7227	42.4805	68.6333	42.4805	68.6861	42.4805	68.5737	42.4805	68.6455	42.4805	68.5099	42.4805	68.6021	42.4805	68.4449	42.4805	68.557	42.4805	68.3819	42.4805	68.5115	42.4805	68.3237	42.4805	68.4666	42.4805	68.2728	42.4805	68.4228	42.4805	68.231	42.4805	68.3806	42.4805	68.1995	42.4805	68.3401	42.4805	68.1791	42.4805	68.3015	42.4805	68.1701	42.4805	68.2654	42.4805	68.1722	42.4805	68.2327	42.4805	68.1843	42.4805	68.2051
43.9453	69.0903	43.9453	69.0785	43.9453	69.091	43.9453	69.0559	43.9453	69.0806	43.9453	69.0231	43.9453	69.0595	43.9453	68.9811	43.9453	69.0281	43.9453	68.9312	43.9453	68.9873	43.9453	68.875	43.9453	68.9383	43.9453	68.8141	43.9453	68.8823	43.9453	68.7505	43.9453	68.8211	43.9453	68.6861	43.9453	68.7566	43.9453	68.6229	43.9453	68.6907	43.9453	68.5628	43.9453	68.6256	43.9453	68.5075	43.9453	68.5633	43.9453	68.4587	43.9453	68.5058	43.9453	68.4177	43.9453	68.4552	43.9453	68.3854	43.9453	68.413	43.9453	68.3627	43.9453	68.3808	43.9453	68.3505	43.9453	68.3593	43.9453	68.3493
45.4102	69.5872	45.4102	69.5814	45.4102	69.5829	45.4102	69.5653	45.4102	69.5686	45.4102	69.5394	45.4102	69.545	45.4102	69.5044	45.4102	69.5128	45.4102	69.4615	45.4102	69.4729	45.4102	69.4119	45.4102	69.4263	45.4102	69.3569	45.4102	69.374	45.4102	69.2981	45.4102	69.3173	45.4102	69.2372	45.4102	69.2577	45.4102	69.1757	45.4102	69.1968	45.4102	69.1156	45.4102	69.1364	45.4102	69.0588	45.4102	69.0782	45.4102	69.007	45.4102	69.0243	45.4102	68.9621	45.4102	68.9765	45.4102	68.9257	45.4102	68.9367	45.4102	68.8991	45.4102	68.9065	45.4102	68.8834	45.4102	68.8871	45.4102	68.8794
46.875	69.8865	46.875	69.8774	46.875	69.8882	46.875	69.8609	46.875	69.8825	46.875	69.8374	46.875	69.8696	46.875	69.8074	46.875	69.8497	46.875	69.7714	46.875	69.8231	46.875	69.7303	46.875	69.79	46.875	69.6852	46.875	69.751	46.875	69.637	46.875	69.7066	46.875	69.5869	46.875	69.6579	46.875	69.5364	46.875	69.6059	46.875	69.4868	46.875	69.5522	46.875	69.4398	46.875	69.4987	46.875	69.397	46.875	69.4475	46.875	69.36	46.875	69.4008	46.875	69.3302	46.875	69.3607	46.875	69.3092	46.875	69.3293	46.875	69.2979	46.875	69.3079	46.875	69.2974
48.3398	70.7003	48.3398	70.6939	48.3398	70.6957	48.3398	70.6764	48.3398	70.6803	48.3398	70.6483	48.3398	70.6546	48.3398	70.6102	48.3398	70.6195	48.3398	70.5633	48.3398	70.5759	48.3398	70.5089	48.3398	70.525	48.3398	70.4487	48.3398	70.4679	48.3398	70.3844	48.3398	70.4062	48.3398	70.3179	48.3398	70.3413	48.3398	70.2513	48.3398	70.2752	48.3398	70.1864	48.3398	70.2096	48.3398	70.1254	48.3398	70.1466	48.3398	70.0701	48.3398	70.0882	48.3398	70.0222	48.3398	70.0368	48.3398	69.9834	48.3398	69.9941	48.3398	69.9549	48.3398	69.9618	48.3398	69.938	48.3398	69.9414	48.3398	69.9333
51.2695	71.1958	51.2695	71.178	51.2695	71.2041	51.2695	71.1509	51.2695	71.2031	51.2695	71.1148	51.2695	71.1933	51.2695	71.0704	51.2695	71.1751	51.2695	71.0188	51.2695	71.1492	51.2695	70.9615	51.2695	71.1163	51.2695	70.9004	51.2695	71.0773	51.2695	70.8377	51.2695	71.0329	51.2695	70.776	51.2695	70.9841	51.2695	70.7178	51.2695	70.9318	51.2695	70.6653	51.2695	70.8772	51.2695	70.6208	51.2695	70.8218	51.2695	70.5856	51.2695	70.767	51.2695	70.5608	51.2695	70.7149	51.2695	70.5465	51.2695	70.6671	51.2695	70.5428	51.2695	70.6254	51.2695	70.5493	51.2695	70.5913	51.2695	70.5656
52.7344	71.5746	52.7344	71.5566	52.7344	71.5843	52.7344	71.5306	52.7344	71.5857	52.7344	71.4971	52.7344	71.5792	52.7344	71.4574	52.7344	71.5655	52.7344	71.4127	52.7344	71.5451	52.7344	71.3649	52.7344	71.5191	52.7344	71.3159	52.7344	71.4881	52.7344	71.2674	52.7344	71.4531	52.7344	71.2214	52.7344	71.4146	52.7344	71.1794	52.7344	71.3735	52.7344	71.1426	52.7344	71.3304	52.7344	71.112	52.7344	71.2862	52.7344	71.0883	52.7344	71.2423	52.7344	71.0716	52.7344	71.2002	52.7344	71.0624	52.7344	71.1615	52.7344	71.0606	52.7344	71.1277	52.7344	71.0663	52.7344	71.1001	52.7344	71.0795
54.1992	72.0163	54.1992	72.0075	54.1992	72.0163	54.1992	71.99	54.1992	72.0078	54.1992	71.9644	54.1992	71.9915	54.1992	71.9319	54.1992	71.9686	54.1992	71.894	54.1992	71.9402	54.1992	71.8524	54.1992	71.9076	54.1992	71.8088	54.1992	71.8721	54.1992	71.7648	54.1992	71.8348	54.1992	71.7217	54.1992	71.7964	54.1992	71.6808	54.1992	71.7579	54.1992	71.643	54.1992	71.7199	54.1992	71.6095	54.1992	71.6833	54.1992	71.5811	54.1992	71.6488	54.1992	71.5587	54.1992	71.6172	54.1992	71.5429	54.1992	71.5895	54.1992	71.534	54.1992	71.5665	54.1992	71.5322	54.1992	71.5489	54.1992	71.5373
55.6641	72.5817	55.6641	72.5731	55.6641	72.5784	55.6641	72.5528	55.6641	72.5635	55.6641	72.5217	55.6641	72.5379	55.6641	72.4812	55.6641	72.503	55.6641	72.4333	55.6641	72.4605	55.6641	72.3803	55.6641	72.4123	55.6641	72.3245	55.6641	72.3606	55.6641	72.2681	55.6641	72.3074	55.6641	72.213	55.6641	72.2548	55.6641	72.161	55.6641	72.2043	55.6641	72.1134	55.6641	72.1576	55.6641	72.0716	55.6641	72.1156	55.6641	72.0367	55.6641	72.0792	55.6641	72.0096	55.6641	72.0484	55.6641	71.9906	55.6641	72.0233	55.6641	71.9798	55.6641	72.0035	55.6641	71.9764	55.6641	71.9889	55.6641	71.9797
58.5938	73.156	58.5938	73.1363	58.5938	73.1625	58.5938	73.1038	58.5938	73.1556	58.5938	73.0591	58.5938	73.1356	58.5938	73.0036	58.5938	73.1032	58.5938	72.9388	58.5938	73.0591	58.5938	72.8668	58.5938	73.0046	58.5938	72.79	58.5938	72.9414	58.5938	72.7112	58.5938	72.8712	58.5938	72.6334	58.5938	72.7963	58.5938	72.5592	58.5938	72.719	58.5938	72.4911	58.5938	72.6418	58.5938	72.431	58.5938	72.5672	58.5938	72.3801	58.5938	72.4977	58.5938	72.3396	58.5938	72.4355	58.5938	72.3099	58.5938	72.3824	58.5938	72.2917	58.5938	72.3401	58.5938	72.2853	58.5938	72.3095	58.5938	72.2912
60.0586	73.5831	60.0586	73.5544	60.0586	73.5957	60.0586	73.5105	60.0586	73.5919	60.0586	73.4526	60.0586	73.5719	60.0586	73.3826	60.0586	73.5361	60.0586	73.3027	60.0586	73.4854	60.0586	73.2153	60.0586	73.4211	60.0586	73.1232	60.0586	73.3449	60.0586	73.0292	60.0586	73.259	60.0586	72.9361	60.0586	73.1658	60.0586	72.8464	60.0586	73.0682	60.0586	72.7626	60.0586	72.9689	60.0586	72.6868	60.0586	72.8713	60.0586	72.6208	60.0586	72.7785	60.0586	72.5663	60.0586	72.694	60.0586	72.525	60.0586	72.621	60.0586	72.4984	60.0586	72.5622	60.0586	72.488	60.0586	72.5198	60.0586	72.4949
62.9883	74.4167	62.9883	74.3928	62.9883	74.4284	62.9883	74.3572	62.9883	74.4276	62.9883	74.3108	62.9883	74.414	62.9883	74.2547	62.9883	74.3878	62.9883	74.1903	62.9883	74.3494	62.9883	74.1193	62.9883	74.2993	62.9883	74.0435	62.9883	74.2387	62.9883	73.965	62.9883	74.1692	62.9883	73.886	62.9883	74.0928	62.9883	73.8087	62.9883	74.0118	62.9883	73.7354	62.9883	73.9288	62.9883	73.6686	62.9883	73.8468	62.9883	73.6105	62.9883	73.7683	62.9883	73.5633	62.9883	73.6961	62.9883	73.5289	62.9883	73.6326	62.9883	73.5089	62.9883	73.58	62.9883	73.504	62.9883	73.5402	62.9883	73.5145
64.4531	74.6595	64.4531	74.6308	64.4531	74.6768	64.4531	74.5913	64.4531	74.6825	64.4531	74.5418	64.4531	74.6767	64.4531	74.4836	64.4531	74.6597	64.4531	74.4185	64.4531	74.6323	64.4531	74.3484	64.4531	74.595	64.4531	74.2759	64.4531	74.5491	64.4531	74.2037	64.4531	74.4959	64.4531	74.1342	64.4531	74.437	64.4531	74.0701	64.4531	74.374	64.4531	74.0137	64.4531	74.3088	64.4531	73.9668	64.4531	74.2433	64.4531	73.9308	64.4531	74.1791	64.4531	73.9068	64.4531	74.118	64.4531	73.8952	64.4531	74.0614	64.4531	73.896	64.4531	74.0107	64.4531	73.909	64.4531	73.9675	64.4531	73.9332
67.3828	74.9098	67.3828	74.8698	67.3828	74.9432	67.3828	74.824	67.3828	74.969	67.3828	74.7739	67.3828	74.987	67.3828	74.721	67.3828	74.9969	67.3828	74.6673	67.3828	74.9988	67.3828	74.6148	67.3828	74.9931	67.3828	74.5657	67.3828	74.9803	67.3828	74.5222	67.3828	74.9609	67.3828	74.4863	67.3828	74.936	67.3828	74.4598	67.3828	74.9062	67.3828	74.4439	67.3828	74.8726	67.3828	74.4391	67.3828	74.8359	67.3828	74.4452	67.3828	74.7971	67.3828	74.4611	67.3828	74.7567	67.3828	74.4855	67.3828	74.7154	67.3828	74.5165	67.3828	74.6737	67.3828	74.5523	67.3828	74.632	67.3828	74.5912
68.8477	75.2483	68.8477	75.2204	68.8477	75.2692	68.8477	75.1859	68.8477	75.2831	68.8477	75.1455	68.8477	75.2902	68.8477	75.1006	68.8477	75.2911	68.8477	75.0527	68.8477	75.2863	68.8477	75.0038	68.8477	75.2768	68.8477	74.9563	68.8477	75.2634	68.8477	74.9128	68.8477	75.2467	68.8477	74.8759	68.8477	75.2273	68.8477	74.848	68.8477	75.2055	68.8477	74.8307	68.8477	75.1814	68.8477	74.8247	68.8477	75.1552	68.8477	74.8299	68.8477	75.127	68.8477	74.845	68.8477	75.0971	68.8477	74.8682	68.8477	75.0655	68.8477	74.8972	68.8477	75.0326	68.8477	74.9298	68.8477	74.9986	68.8477	74.9641
71.7773	75.9406	71.7773	75.915	71.7773	75.9569	71.7773	75.8802	71.7773	75.9645	71.7773	75.8366	71.7773	75.9643	71.7773	75.7854	71.7773	75.9576	71.7773	75.7282	71.7773	75.9457	71.7773	75.6674	71.7773	75.9303	71.7773	75.6057	71.7773	75.9124	71.7773	75.5461	71.7773	75.8929	71.7773	75.4921	71.7773	75.8719	71.7773	75.447	71.7773	75.8492	71.7773	75.4137	71.7773	75.8241	71.7773	75.3945	71.7773	75.7959	71.7773	75.3904	71.7773	75.764	71.7773	75.4012	71.7773	75.7279	71.7773	75.4253	71.7773	75.6876	71.7773	75.4602	71.7773	75.6436	71.7773	75.5025	71.7773	75.5968	71.7773	75.549
74.707	76.6094	74.707	76.5864	74.707	76.6234	74.707	76.5545	74.707	76.6284	74.707	76.5143	74.707	76.625	74.707	76.4668	74.707	76.6137	74.707	76.4133	74.707	76.5954	74.707	76.3554	74.707	76.571	74.707	76.2947	74.707	76.5411	74.707	76.2332	74.707	76.5066	74.707	76.1727	74.707	76.468	74.707	76.1158	74.707	76.4258	74.707	76.0648	74.707	76.3803	74.707	76.0226	74.707	76.3319	74.707	75.9917	74.707	76.2813	74.707	75.974	74.707	76.2293	74.707	75.9705	74.707	76.1772	74.707	75.9809	74.707	76.1265	74.707	76.0039	74.707	76.0792	74.707	76.0375
77.6367	77.0403	77.6367	77.0172	77.6367	77.0554	77.6367	76.987	77.6367	77.0623	77.6367	76.9505	77.6367	77.0611	77.6367	76.9092	77.6367	77.0523	77.6367	76.8649	77.6367	77.0363	77.6367	76.8194	77.6367	77.0141	77.6367	76.7745	77.6367	76.9866	77.6367	76.7321	77.6367	76.955	77.6367	76.6937	77.6367	76.9206	77.6367	76.6606	77.6367	76.8846	77.6367	76.6336	77.6367	76.848	77.6367	76.6135	77.6367	76.8117	77.6367	76.6004	77.6367	76.7765	77.6367	76.5943	77.6367	76.7427	77.6367	76.595	77.6367	76.7108	77.6367	76.602	77.6367	76.6815	77.6367	76.6148	77.6367	76.6552	77.6367	76.6328
79.1016	77.2506	79.1016	77.2338	79.1016	77.2577	79.1016	77.2078	79.1016	77.2552	79.1016	77.1736	79.1016	77.2436	79.1016	77.1328	79.1016	77.2236	79.1016	77.0873	79.1016	77.1965	79.1016	77.0394	79.1016	77.1638	79.1016	76.9916	79.1016	77.1269	79.1016	76.9463	79.1016	77.0879	79.1016	76.9059	79.1016	77.0483	79.1016	76.8717	79.1016	77.0098	79.1016	76.8448	79.1016	76.9738	79.1016	76.8251	79.1016	76.9409	79.1016	76.812	79.1016	76.9117	79.1016	76.8048	79.1016	76.8861	79.1016	76.8024	79.1016	76.864	79.1016	76.8041	79.1016	76.8454	79.1016	76.8095	79.1016	76.8301	79.1016	76.8181
82.0312	77.7166	82.0312	77.7055	82.0312	77.715	82.0312	77.682	82.0312	77.701	82.0312	77.6469	82.0312	77.6756	82.0312	77.6021	82.0312	77.6404	82.0312	77.5496	82.0312	77.5977	82.0312	77.4922	82.0312	77.5498	82.0312	77.4332	82.0312	77.4997	82.0312	77.3756	82.0312	77.4502	82.0312	77.3225	82.0312	77.4036	82.0312	77.2766	82.0312	77.362	82.0312	77.2395	82.0312	77.3265	82.0312	77.2121	82.0312	77.2972	82.0312	77.1944	82.0312	77.2737	82.0312	77.1853	82.0312	77.2549	82.0312	77.1834	82.0312	77.2395	82.0312	77.1869	82.0312	77.2262	82.0312	77.1941	82.0312	77.2143	82.0312	77.2035
84.9609	78.1361	84.9609	78.1464	84.9609	78.1148	84.9609	78.1451	84.9609	78.0834	84.9609	78.1323	84.9609	78.0437	84.9609	78.1089	84.9609	77.9979	84.9609	78.0765	84.9609	77.9483	84.9609	78.0372	84.9609	77.8977	84.9609	77.9934	84.9609	77.8487	84.9609	77.9481	84.9609	77.8037	84.9609	77.9042	84.9609	77.7652	84.9609	77.864	84.9609	77.7349	84.9609	77.8296	84.9609	77.7138	84.9609	77.802	84.9609	77.7021	84.9609	77.7814	84.9609	77.699	84.9609	77.7671	84.9609	77.7027	84.9609	77.7575	84.9609	77.7107	84.9609	77.7508	84.9609	77.7205	84.9609	77.745	84.9609	77.7302	84.9609	77.7384
87.8906	78.6699	87.8906	78.6768	87.8906	78.6502	87.8906	78.671	87.8906	78.6184	87.8906	78.6536	87.8906	78.5761	87.8906	78.6262	87.8906	78.5256	87.8906	78.5913	87.8906	78.4697	87.8906	78.5516	87.8906	78.4118	87.8906	78.5101	87.8906	78.3551	87.8906	78.4694	87.8906	78.3029	87.8906	78.432	87.8906	78.258	87.8906	78.3993	87.8906	78.2227	87.8906	78.3722	87.8906	78.1983	87.8906	78.3507	87.8906	78.1854	87.8906	78.3338	87.8906	78.1836	87.8906	78.3202	87.8906	78.1912	87.8906	78.3081	87.8906	78.2059	87.8906	78.2956	87.8906	78.2247	87.8906	78.2812	87.8906	78.245	87.8906	78.2643
90.8203	79.2796	90.8203	79.2733	90.8203	79.267	90.8203	79.2484	90.8203	79.2359	90.8203	79.2067	90.8203	79.188	90.8203	79.1507	90.8203	79.1255	90.8203	79.0836	90.8203	79.052	90.8203	79.0093	90.8203	78.9712	90.8203	78.9321	90.8203	78.8872	90.8203	78.8561	90.8203	78.8042	90.8203	78.7847	90.8203	78.7258	90.8203	78.7208	90.8203	78.6553	90.8203	78.6659	90.8203	78.5952	90.8203	78.6205	90.8203	78.5469	90.8203	78.5841	90.8203	78.5113	90.8203	78.5553	90.8203	78.4878	90.8203	78.5324	90.8203	78.4754	90.8203	78.5137	90.8203	78.4723	90.8203	78.4982	90.8203	78.4764	90.8203	78.4855
95.2148	79.838	95.2148	79.8375	95.2148	79.8216	95.2148	79.8201	95.2148	79.789	95.2148	79.787	95.2148	79.7415	95.2148	79.7397	95.2148	79.6815	95.2148	79.6806	95.2148	79.6116	95.2148	79.6125	95.2148	79.5347	95.2148	79.5389	95.2148	79.454	95.2148	79.463	95.2148	79.3728	95.2148	79.3882	95.2148	79.2941	95.2148	79.3174	95.2148	79.2208	95.2148	79.2531	95.2148	79.1556	95.2148	79.1965	95.2148	79.1006	95.2148	79.1484	95.2148	79.0572	95.2148	79.1082	95.2148	79.0262	95.2148	79.0752	95.2148	79.0073	95.2148	79.0483	95.2148	78.9995	95.2148	79.0268	95.2148	79.0012	95.2148	79.0108
98.1445	80.2128	98.1445	80.21	98.1445	80.1978	98.1445	80.1899	98.1445	80.1653	98.1445	80.1541	98.1445	80.1167	98.1445	80.1045	98.1445	80.0541	98.1445	80.0437	98.1445	79.9803	98.1445	79.9749	98.1445	79.8987	98.1445	79.9009	98.1445	79.8131	98.1445	79.8247	98.1445	79.7272	98.1445	79.749	98.1445	79.6447	98.1445	79.6763	98.1445	79.5685	98.1445	79.6085	98.1445	79.5013	98.1445	79.5474	98.1445	79.4449	98.1445	79.4939	98.1445	79.4004	98.1445	79.4485	98.1445	79.368	98.1445	79.4111	98.1445	79.3472	98.1445	79.3815	98.1445	79.3371	98.1445	79.3592	98.1445	79.3364	98.1445	79.3441
101.074	80.4031	101.074	80.4079	101.074	80.3841	101.074	80.3982	101.074	80.352	101.074	80.375	101.074	80.3089	101.074	80.3397	101.074	80.2572	101.074	80.2947	101.074	80.1998	101.074	80.2426	101.074	80.1395	101.074	80.1863	101.074	80.0788	101.074	80.1283	101.074	80.0199	101.074	80.071	101.074	79.9642	101.074	80.0161	101.074	79.9132	101.074	79.9651	101.074	79.8679	101.074	79.9189	101.074	79.8292	101.074	79.878	101.074	79.7979	101.074	79.8426	101.074	79.7744	101.074	79.8129	101.074	79.759	101.074	79.7887	101.074	79.7514	101.074	79.7703	101.074	79.7511	101.074	79.7576
105.469	80.9238	105.469	80.9224	105.469	80.906	105.469	80.902	105.469	80.8698	105.469	80.8642	105.469	80.8176	105.469	80.8113	105.469	80.7532	105.469	80.7466	105.469	80.6814	105.469	80.674	105.469	80.6081	105.469	80.598	105.469	80.5391	105.469	80.5235	105.469	80.4795	105.469	80.4551	105.469	80.4329	105.469	80.3968	105.469	80.4006	105.469	80.3515	105.469	80.3818	105.469	80.3205	105.469	80.3737	105.469	80.3039	105.469	80.3724	105.469	80.2999	105.469	80.3737	105.469	80.3059	105.469	80.3741	105.469	80.3187	105.469	80.3708	105.469	80.3345	105.469	80.3627	105.469	80.3501
108.398	81.2665	108.398	81.2559	108.398	81.2567	108.398	81.2266	108.398	81.2253	108.398	81.1814	108.398	81.1729	108.398	81.1234	108.398	81.1012	108.398	81.0562	108.398	81.0138	108.398	80.983	108.398	80.9154	108.398	80.9073	108.398	80.8115	108.398	80.8319	108.398	80.7081	108.398	80.7596	108.398	80.6113	108.398	80.6924	108.398	80.5262	108.398	80.6319	108.398	80.4569	108.398	80.5789	108.398	80.406	108.398	80.5338	108.398	80.3738	108.398	80.4962	108.398	80.3587	108.398	80.4651	108.398	80.3573	108.398	80.4392	108.398	80.3656	108.398	80.417	108.398	80.3798	108.398	80.3973
112.793	81.4971	112.793	81.4666	112.793	81.5057	112.793	81.4161	112.793	81.4915	112.793	81.3489	112.793	81.4549	112.793	81.2689	112.793	81.3974	112.793	81.1811	112.793	81.3219	112.793	81.0906	112.793	81.2324	112.793	81.0028	112.793	81.1338	112.793	80.9221	112.793	81.0317	112.793	80.8523	112.793	80.9316	112.793	80.7951	112.793	80.8385	112.793	80.7505	112.793	80.7563	112.793	80.7167	112.793	80.6879	112.793	80.6905	112.793	80.6348	112.793	80.6685	112.793	80.5977	112.793	80.6477	112.793	80.5762	112.793	80.6266	112.793	80.5689	112.793	80.6057	112.793	80.5736	112.793	80.587
117.188	81.9706	117.188	81.9507	117.188	81.9688	117.188	81.9098	117.188	81.9456	117.188	81.8497	117.188	81.9022	117.188	81.773	117.188	81.8408	117.188	81.6834	117.188	81.7643	117.188	81.5849	117.188	81.6764	117.188	81.4821	117.188	81.5814	117.188	81.3795	117.188	81.4842	117.188	81.2815	117.188	81.3896	117.188	81.1921	117.188	81.302	117.188	81.1146	117.188	81.2246	117.188	81.0515	117.188	81.1594	117.188	81.0043	117.188	81.1065	117.188	80.9731	117.188	81.0646	117.188	80.9564	117.188	81.0318	117.188	80.952	117.188	81.0058	117.188	80.9568	117.188	80.985	117.188	80.9684
120.117	82.2509	120.117	82.2287	120.117	82.2522	120.117	82.1864	120.117	82.2326	120.117	82.1255	120.117	82.1932	120.117	82.0487	120.117	82.1354	120.117	81.9589	120.117	82.0617	120.117	81.8596	120.117	81.9746	120.117	81.7544	120.117	81.8773	120.117	81.647	120.117	81.7731	120.117	81.5409	120.117	81.6659	120.117	81.4396	120.117	81.5598	120.117	81.3462	120.117	81.4587	120.117	81.2637	120.117	81.3664	120.117	81.1946	120.117	81.2858	120.117	81.1406	120.117	81.2185	120.117	81.1026	120.117	81.1647	120.117	81.0802	120.117	81.1237	120.117	81.0724	120.117	81.0949	120.117	81.0776
124.512	82.2841	124.512	82.2577	124.512	82.293	124.512	82.2152	124.512	82.2842	124.512	82.1588	124.512	82.2584	124.512	82.0914	124.512	82.2172	124.512	82.0166	124.512	82.163	124.512	81.9381	124.512	82.0988	124.512	81.8596	124.512	82.0278	124.512	81.7848	124.512	81.9535	124.512	81.7167	124.512	81.8792	124.512	81.6576	124.512	81.8083	124.512	81.6093	124.512	81.7439	124.512	81.5726	124.512	81.6887	124.512	81.5476	124.512	81.6443	124.512	81.5335	124.512	81.6107	124.512	81.5286	124.512	81.5866	124.512	81.5307	124.512	81.5695	124.512	81.5371	124.512	81.5566	124.512	81.5461
128.906	82.4144	128.906	82.4218	128.906	82.393	128.906	82.4151	128.906	82.3586	128.906	82.3949	128.906	82.3129	128.906	82.3627	128.906	82.2587	128.906	82.3206	128.906	82.199	128.906	82.2713	128.906	82.1372	128.906	82.2176	128.906	82.0767	128.906	82.1624	128.906	82.0206	128.906	82.1083	128.906	81.971	128.906	82.0572	128.906	81.9296	128.906	82.0108	128.906	81.897	128.906	81.97	128.906	81.8733	128.906	81.9355	128.906	81.8577	128.906	81.9076	128.906	81.849	128.906	81.8861	128.906	81.8455	128.906	81.8705	128.906	81.8456	128.906	81.8598	128.906	81.8481	128.906	81.8527
133.301	82.7155	133.301	82.7119	133.301	82.7015	133.301	82.6919	133.301	82.6701	133.301	82.6578	133.301	82.6229	133.301	82.6128	133.301	82.5629	133.301	82.5609	133.301	82.4941	133.301	82.5056	133.301	82.4212	133.301	82.4504	133.301	82.3492	133.301	82.3978	133.301	82.2825	133.301	82.3494	133.301	82.225	133.301	82.3061	133.301	82.179	133.301	82.2679	133.301	82.1457	133.301	82.2348	133.301	82.1246	133.301	82.2066	133.301	82.114	133.301	82.1833	133.301	82.1114	133.301	82.1647	133.301	82.1139	133.301	82.1506	133.301	82.119	133.301	82.14	133.301	82.1252	133.301	82.132
139.16	82.9154	139.16	82.8869	139.16	82.9208	139.16	82.8376	139.16	82.9025	139.16	82.7717	139.16	82.8619	139.16	82.695	139.16	82.8021	139.16	82.614	139.16	82.7276	139.16	82.535	139.16	82.644	139.16	82.4639	139.16	82.5571	139.16	82.4041	139.16	82.4725	139.16	82.357	139.16	82.3947	139.16	82.3211	139.16	82.327	139.16	82.2935	139.16	82.2714	139.16	82.2704	139.16	82.228	139.16	82.2486	139.16	82.1963	139.16	82.2269	139.16	82.1746	139.16	82.2056	139.16	82.1612	139.16	82.1862	139.16	82.1547	139.16	82.1704	139.16	82.1543	139.16	82.1595
143.555	82.9593	143.555	82.9233	143.555	82.9705	143.555	82.8646	143.555	82.9565	143.555	82.787	143.555	82.9185	143.555	82.6955	143.555	82.8597	143.555	82.5966	143.555	82.7844	143.555	82.4973	143.555	82.6984	143.555	82.405	143.555	82.6081	143.555	82.3264	143.555	82.5201	143.555	82.2665	143.555	82.4404	143.555	82.2282	143.555	82.3741	143.555	82.211	143.555	82.3244	143.555	82.212	143.555	82.2924	143.555	82.2259	143.555	82.2769	143.555	82.2466	143.555	82.2748	143.555	82.2684	143.555	82.2811	143.555	82.2865	143.555	82.2908	143.555	82.2982	143.555	82.2991	143.555	82.3023
147.949	83.1063	147.949	83.0816	147.949	83.1072	147.949	83.0343	147.949	83.0849	147.949	82.9674	147.949	83.0417	147.949	82.8854	147.949	82.9811	147.949	82.7942	147.949	82.9083	147.949	82.7007	147.949	82.8287	147.949	82.6117	147.949	82.7486	147.949	82.5335	147.949	82.6733	147.949	82.4709	147.949	82.6076	147.949	82.4269	147.949	82.5544	147.949	82.4021	147.949	82.5153	147.949	82.3948	147.949	82.4901	147.949	82.4017	147.949	82.4773	147.949	82.4179	147.949	82.4741	147.949	82.4383	147.949	82.4769	147.949	82.4579	147.949	82.4816	147.949	82.4733	147.949	82.4844	147.949	82.4821
153.809	83.1213	153.809	83.0955	153.809	83.1222	153.809	83.0464	153.809	83.0985	153.809	82.9775	153.809	83.0522	153.809	82.8936	153.809	82.9869	153.809	82.8007	153.809	82.9078	153.809	82.7054	153.809	82.8213	153.809	82.6151	153.809	82.7344	153.809	82.5364	153.809	82.6542	153.809	82.4752	153.809	82.5873	153.809	82.4356	153.809	82.538	153.809	82.4192	153.809	82.5084	153.809	82.4243	153.809	82.4975	153.809	82.4467	153.809	82.5021	153.809	82.4796	153.809	82.5174	153.809	82.5153	153.809	82.5378	153.809	82.5465	153.809	82.5577	153.809	82.5677	153.809	82.5719	153.809	82.5761
159.668	83.3477	159.668	83.3269	159.668	83.3419	159.668	83.2816	159.668	83.3098	159.668	83.2158	159.668	83.2538	159.668	83.135	159.668	83.1785	159.668	83.0457	159.668	83.09	159.668	82.9548	159.668	82.9953	159.668	82.8685	159.668	82.9016	159.668	82.7922	159.668	82.816	159.668	82.73	159.668	82.7446	159.668	82.6845	159.668	82.6922	159.668	82.6573	159.668	82.6615	159.668	82.6482	159.668	82.6526	159.668	82.6553	159.668	82.6624	159.668	82.6747	159.668	82.6849	159.668	82.7009	159.668	82.7125	159.668	82.7273	159.668	82.7376	159.668	82.7478	159.668	82.7538	159.668	82.7574
165.527	83.4146	165.527	83.382	165.527	83.4185	165.527	83.323	165.527	83.3938	165.527	83.2423	165.527	83.3429	165.527	83.1466	165.527	83.2703	165.527	83.0441	165.527	83.1823	165.527	82.9435	165.527	83.0862	165.527	82.8528	165.527	82.9902	165.527	82.7786	165.527	82.9018	165.527	82.7249	165.527	82.8278	165.527	82.6931	165.527	82.7729	165.527	82.6822	165.527	82.7394	165.527	82.6888	165.527	82.727	165.527	82.7083	165.527	82.7325	165.527	82.7353	165.527	82.7505	165.527	82.7643	165.527	82.7741	165.527	82.7901	165.527	82.7964	165.527	82.8083	165.527	82.8115	165.527	82.8158
171.387	83.5054	171.387	83.4728	171.387	83.507	171.387	83.4112	171.387	83.4782	171.387	83.3247	171.387	83.4212	171.387	83.2199	171.387	83.3405	171.387	83.1051	171.387	83.2418	171.387	82.9897	171.387	83.1321	171.387	82.8831	171.387	83.019	171.387	82.7929	171.387	82.9103	171.387	82.7244	171.387	82.813	171.387	82.6795	171.387	82.733	171.387	82.6568	171.387	82.6743	171.387	82.6521	171.387	82.6383	171.387	82.6596	171.387	82.6237	171.387	82.673	171.387	82.6265	171.387	82.6867	171.387	82.6409	171.387	82.6962	171.387	82.6603	171.387	82.6986	171.387	82.679	171.387	82.6926
177.246	83.537	177.246	83.5161	177.246	83.5212	177.246	83.4595	177.246	83.4706	177.246	83.3712	177.246	83.3899	177.246	83.2573	177.246	83.2861	177.246	83.1264	177.246	83.1678	177.246	82.9888	177.246	83.044	177.246	82.8555	177.246	82.9231	177.246	82.7376	177.246	82.8125	177.246	82.6442	177.246	82.7182	177.246	82.5815	177.246	82.6445	177.246	82.5512	177.246	82.5941	177.246	82.55	177.246	82.5674	177.246	82.5703	177.246	82.5626	177.246	82.6021	177.246	82.5755	177.246	82.6351	177.246	82.5998	177.246	82.6605	177.246	82.6283	177.246	82.6727	177.246	82.6537	177.246	82.67
183.105	83.4495	183.105	83.4355	183.105	83.4306	183.105	83.3908	183.105	83.3781	183.105	83.3194	183.105	83.294	183.105	83.2265	183.105	83.1832	183.105	83.1187	183.105	83.0535	183.105	83.004	183.105	82.915	183.105	82.8913	183.105	82.779	183.105	82.7894	183.105	82.6562	183.105	82.7061	183.105	82.5555	183.105	82.6462	183.105	82.4829	183.105	82.6114	183.105	82.4413	183.105	82.5995	183.105	82.4301	183.105	82.6052	183.105	82.4456	183.105	82.6213	183.105	82.4807	183.105	82.6396	183.105	82.5267	183.105	82.6528	183.105	82.574	183.105	82.6549	183.105	82.6145	183.105	82.6423
188.965	83.3357	188.965	83.2989	188.965	83.3376	188.965	83.2312	188.965	83.3022	188.965	83.1386	188.965	83.2297	188.965	83.0279	188.965	83.1232	188.965	82.9075	188.965	82.99	188.965	82.7864	188.965	82.841	188.965	82.6739	188.965	82.6905	188.965	82.5788	188.965	82.553	188.965	82.5078	188.965	82.4409	188.965	82.4644	188.965	82.3623	188.965	82.4481	188.965	82.32	188.965	82.4548	188.965	82.3127	188.965	82.4773	188.965	82.3354	188.965	82.5079	188.965	82.3802	188.965	82.5386	188.965	82.4363	188.965	82.5622	188.965	82.4922	188.965	82.5725	188.965	82.5373	188.965	82.5649
196.289	83.3424	196.289	83.3071	196.289	83.338	196.289	83.2346	196.289	83.2948	196.289	83.13	196.289	83.2156	196.289	83.0015	196.289	83.1059	196.289	82.8596	196.289	82.9731	196.289	82.7161	196.289	82.8269	196.289	82.5831	196.289	82.6795	196.289	82.4715	196.289	82.544	196.289	82.3895	196.289	82.4329	196.289	82.3413	196.289	82.3547	196.289	82.3257	196.289	82.3115	196.289	82.336	196.289	82.2995	196.289	82.3618	196.289	82.3098	196.289	82.3913	196.289	82.3328	196.289	82.4153	196.289	82.3601	196.289	82.4287	196.289	82.386	196.289	82.4307	196.289	82.4075	196.289	82.423
203.613	83.3078	203.613	83.2701	203.613	83.302	203.613	83.1909	203.613	83.2538	203.613	83.0749	203.613	83.1674	203.613	82.9297	203.613	83.0495	203.613	82.7649	203.613	82.9087	203.613	82.5917	203.613	82.7549	203.613	82.4225	203.613	82.5983	203.613	82.2695	203.613	82.4493	203.613	82.1446	203.613	82.3177	203.613	82.0572	203.613	82.2113	203.613	82.0121	203.613	82.1353	203.613	82.0079	203.613	82.0904	203.613	82.0354	203.613	82.0733	203.613	82.0799	203.613	82.0778	203.613	82.1253	203.613	82.0968	203.613	82.1584	203.613	82.1228	203.613	82.1726	203.613	82.149	203.613	82.1679
210.938	83.1041	210.938	83.0558	210.938	83.1114	210.938	82.9696	210.938	83.0773	210.938	82.8512	210.938	83.005	210.938	82.7082	210.938	82.9004	210.938	82.5499	210.938	82.7727	210.938	82.3865	210.938	82.6328	210.938	82.2286	210.938	82.4928	210.938	82.0868	210.938	82.3645	210.938	81.9706	210.938	82.257	210.938	81.8882	210.938	82.1757	210.938	81.8444	210.938	82.1218	210.938	81.8391	210.938	82.0932	210.938	81.8669	210.938	82.0849	210.938	81.917	210.938	82.0907	210.938	81.9763	210.938	82.103	210.938	82.0327	210.938	82.1141	210.938	82.0773	210.938	82.1168	210.938	82.1055
218.262	82.848	218.262	82.8146	218.262	82.8411	218.262	82.7461	218.262	82.7926	218.262	82.6507	218.262	82.7063	218.262	82.5374	218.262	82.5902	218.262	82.4147	218.262	82.4556	218.262	82.2893	218.262	82.3153	218.262	82.1666	218.262	82.1829	218.262	82.0518	218.262	82.0722	218.262	81.9519	218.262	81.9955	218.262	81.8772	218.262	81.9608	218.262	81.8393	218.262	81.9688	218.262	81.8471	218.262	82.0119	218.262	81.9004	218.262	82.076	218.262	81.9878	218.262	82.146	218.262	82.0884	218.262	82.2094	218.262	82.1803	218.262	82.2573	218.262	82.2471	218.262	82.2832	218.262	82.2813
225.586	82.8408	225.586	82.8287	225.586	82.8093	225.586	82.7784	225.586	82.7333	225.586	82.6986	225.586	82.6168	225.586	82.6004	225.586	82.4682	225.586	82.4963	225.586	82.2995	225.586	82.3978	225.586	82.1236	225.586	82.3125	225.586	81.9529	225.586	82.2421	225.586	81.7991	225.586	82.1827	225.586	81.6728	225.586	82.129	225.586	81.5842	225.586	82.0793	225.586	81.5408	225.586	82.038	225.586	81.5452	225.586	82.0132	225.586	81.5935	225.586	82.0105	225.586	81.6757	225.586	82.0258	225.586	81.777	225.586	82.0454	225.586	81.8801	225.586	82.0505	225.586	81.9677	225.586	82.0264
232.91	82.7675	232.91	82.7279	232.91	82.7542	232.91	82.6408	232.91	82.6863	232.91	82.5158	232.91	82.5668	232.91	82.3661	232.91	82.4035	232.91	82.208	232.91	82.2091	232.91	82.0593	232.91	82.0002	232.91	81.9357	232.91	81.7953	232.91	81.8464	232.91	81.6125	232.91	81.7906	232.91	81.4673	232.91	81.7592	232.91	81.3698	232.91	81.7392	232.91	81.3239	232.91	81.7215	232.91	81.3267	232.91	81.7046	232.91	81.3701	232.91	81.6933	232.91	81.4414	232.91	81.6925	232.91	81.5253	232.91	81.7006	232.91	81.605	232.91	81.7076	232.91	81.6658	232.91	81.6995
241.699	82.2849	241.699	82.2586	241.699	82.2744	241.699	82.1971	241.699	82.2289	241.699	82.1051	241.699	82.1529	241.699	81.9905	241.699	82.0538	241.699	81.8643	241.699	81.9397	241.699	81.7398	241.699	81.8178	241.699	81.6306	241.699	81.6936	241.699	81.5465	241.699	81.5722	241.699	81.4894	241.699	81.4601	241.699	81.4529	241.699	81.3659	241.699	81.4256	241.699	81.2984	241.699	81.3971	241.699	81.2621	241.699	81.3633	241.699	81.2539	241.699	81.3273	241.699	81.264	241.699	81.297	241.699	81.2795	241.699	81.2796	241.699	81.2897	241.699	81.2767	241.699	81.2901	241.699	81.2832
250.488	81.92	250.488	81.8826	250.488	81.9004	250.488	81.7978	250.488	81.8225	250.488	81.6806	250.488	81.6942	250.488	81.5498	250.488	81.5331	250.488	81.4243	250.488	81.3644	250.488	81.3206	250.488	81.2161	250.488	81.2506	250.488	81.1112	250.488	81.2202	250.488	81.062	250.488	81.2276	250.488	81.069	250.488	81.2637	250.488	81.1242	250.488	81.3147	250.488	81.2153	250.488	81.3681	250.488	81.3272	250.488	81.4173	250.488	81.443	250.488	81.4628	250.488	81.5456	250.488	81.5086	250.488	81.621	250.488	81.5571	250.488	81.662	250.488	81.6056	250.488	81.6683	250.488	81.6462
259.277	81.1214	259.277	81.0736	259.277	81.119	259.277	80.9879	259.277	81.0627	259.277	80.8842	259.277	80.9582	259.277	80.789	259.277	80.8216	259.277	80.7324	259.277	80.6789	259.277	80.7419	259.277	80.5623	259.277	80.8348	259.277	80.5027	259.277	81.0101	259.277	80.521	259.277	81.2468	259.277	80.6228	259.277	81.5107	259.277	80.799	259.277	81.7658	259.277	81.0303	259.277	81.9851	259.277	81.2914	259.277	82.1554	259.277	81.5562	259.277	82.2761	259.277	81.8016	259.277	82.353	259.277	82.0109	259.277	82.3927	259.277	82.1755	259.277	82.3976	259.277	82.2932	259.277	82.3658
268.066	82.0096	268.066	81.8714	268.066	82.0119	268.066	81.606	268.066	81.8787	268.066	81.2334	268.066	81.6212	268.066	80.7889	268.066	81.2657	268.066	80.3305	268.066	80.8585	268.066	79.9439	268.066	80.4658	268.066	79.7347	268.066	80.1614	268.066	79.7915	268.066	80.0029	268.066	80.1301	268.066	80.0139	268.066	80.6727	268.066	80.1863	268.066	81.2912	268.066	80.4949	268.066	81.8693	268.066	80.9045	268.066	82.3343	268.066	81.367	268.066	82.6583	268.066	81.8252	268.066	82.8482	268.066	82.2256	268.066	82.9302	268.066	82.5351	268.066	82.9335	268.066	82.7468	268.066	82.8738
276.855	82.8365	276.855	82.7195	276.855	82.8487	276.855	82.5044	276.855	82.7506	276.855	82.201	276.855	82.5377	276.855	81.8222	276.855	82.2089	276.855	81.3848	276.855	81.773	276.855	80.9098	276.855	81.2594	276.855	80.4283	276.855	80.7278	276.855	79.9947	276.855	80.2685	276.855	79.6972	276.855	79.9771	276.855	79.6408	276.855	79.9079	276.855	79.8828	276.855	80.0467	276.855	80.3712	276.855	80.3294	276.855	80.9672	276.855	80.6845	276.855	81.525	276.855	81.0575	276.855	81.9468	276.855	81.4142	276.855	82.1915	276.855	81.7333	276.855	82.2612	276.855	81.9975	276.855	82.1843
287.109	82.6901	287.109	82.6336	287.109	82.6622	287.109	82.4917	287.109	82.554	287.109	82.2701	287.109	82.3703	287.109	81.9827	287.109	82.1138	287.109	81.6506	287.109	81.7866	287.109	81.2989	287.109	81.3957	287.109	80.9501	287.109	80.9598	287.109	80.6215	287.109	80.513	287.109	80.3335	287.109	80.1024	287.109	80.1241	287.109	79.7811	287.109	80.0529	287.109	79.6016	287.109	80.1722	287.109	79.6052	287.109	80.478	287.109	79.8048	287.109	80.8936	287.109	80.1691	287.109	81.305	287.109	80.6254	287.109	81.6114	287.109	81.0839	287.109	81.7496	287.109	81.4618	287.109	81.6964
297.363	82.8945	297.363	82.7809	297.363	82.8842	297.363	82.5471	297.363	82.7502	297.363	82.2024	297.363	82.4971	297.363	81.7646	297.363	82.1328	297.363	81.2689	297.363	81.6687	297.363	80.7771	297.363	81.1223	297.363	80.378	297.363	80.5253	297.363	80.1579	297.363	79.9354	297.363	80.1476	297.363	79.4393	297.363	80.2957	297.363	79.1306	297.363	80.5048	297.363	79.0609	297.363	80.6923	297.363	79.2076	297.363	80.8217	297.363	79.4963	297.363	80.8989	297.363	79.848	297.363	80.946	297.363	80.2019	297.363	80.9734	297.363	80.5136	297.363	80.9676	297.363	80.7517	297.363	80.9013
307.617	82.9718	307.617	82.9352	307.617	82.9192	307.617	82.7968	307.617	82.786	307.617	82.5452	307.617	82.5751	307.617	82.1767	307.617	82.2884	307.617	81.6998	307.617	81.9327	307.617	81.1375	307.617	81.525	307.617	80.5314	307.617	81.0929	307.617	79.952	307.617	80.6687	307.617	79.5047	307.617	80.2831	307.617	79.3021	307.617	79.9654	307.617	79.3897	307.617	79.7466	307.617	79.6977	307.617	79.6581	307.617	80.0905	307.617	79.7179	307.617	80.4524	307.617	79.9141	307.617	80.7246	307.617	80.1978	307.617	80.8908	307.617	80.4979	307.617	80.9508	307.617	80.7471	307.617	80.903
319.336	82.5805	319.336	82.437	319.336	82.6249	319.336	82.203	319.336	82.5633	319.336	81.8857	319.336	82.3927	319.336	81.4905	319.336	82.1125	319.336	81.0261	319.336	81.7218	319.336	80.5125	319.336	81.2224	319.336	79.9863	319.336	80.6316	319.336	79.4984	319.336	80.0047	319.336	79.1055	319.336	79.4496	319.336	78.8626	319.336	79.1001	319.336	78.8176	319.336	79.0337	319.336	78.9936	319.336	79.2083	319.336	79.3579	319.336	79.5052	319.336	79.8161	319.336	79.8211	319.336	80.2501	319.336	80.1095	319.336	80.5652	319.336	80.3621	319.336	80.7154	319.336	80.5707	319.336	80.7043
329.59	82.288	329.59	82.1745	329.59	82.3288	329.59	81.9957	329.59	82.286	329.59	81.7558	329.59	82.1503	329.59	81.4577	329.59	81.9198	329.59	81.1058	329.59	81.6009	329.59	80.7074	329.59	81.2034	329.59	80.277	329.59	80.7342	329.59	79.842	329.59	80.2021	329.59	79.4457	329.59	79.6373	329.59	79.1384	329.59	79.1165	329.59	78.9614	329.59	78.7626	329.59	78.9377	329.59	78.6837	329.59	79.0719	329.59	78.8859	329.59	79.3441	329.59	79.2658	329.59	79.6976	329.59	79.6895	329.59	80.0437	329.59	80.0551	329.59	80.2922	329.59	80.2992	329.59	80.3834
341.309	82.5145	341.309	82.4089	341.309	82.4895	341.309	82.1804	341.309	82.3329	341.309	81.8415	341.309	82.0504	341.309	81.4078	341.309	81.6553	341.309	80.8989	341.309	81.1702	341.309	80.3468	341.309	80.6281	341.309	79.8061	341.309	80.0705	341.309	79.3537	341.309	79.5438	341.309	79.063	341.309	79.1003	341.309	78.9626	341.309	78.804	341.309	79.0168	341.309	78.7238	341.309	79.1546	341.309	78.8919	341.309	79.3165	341.309	79.255	341.309	79.4818	341.309	79.6868	341.309	79.6609	341.309	80.0564	341.309	79.8647	341.309	80.2817	341.309	80.0778	341.309	80.3403	341.309	80.2556
353.027	82.5256	353.027	82.3958	353.027	82.5353	353.027	82.1482	353.027	82.425	353.027	81.7884	353.027	82.1995	353.027	81.3279	353.027	81.8693	353.027	80.7888	353.027	81.4513	353.027	80.2056	353.027	80.9653	353.027	79.6217	353.027	80.4266	353.027	79.0886	353.027	79.8391	353.027	78.6717	353.027	79.2008	353.027	78.4496	353.027	78.532	353.027	78.4771	353.027	77.9195	353.027	78.7275	353.027	77.5295	353.027	79.0907	353.027	77.516	353.027	79.4406	353.027	77.8701	353.027	79.6951	353.027	78.419	353.027	79.8242	353.027	78.9699	353.027	79.8239	353.027	79.4063	353.027	79.6893
366.211	82.4976	366.211	82.33	366.211	82.559	366.211	82.0535	366.211	82.513	366.211	81.6702	366.211	82.3492	366.211	81.1918	366.211	82.0506	366.211	80.6363	366.211	81.608	366.211	80.0252	366.211	81.0383	366.211	79.3868	366.211	80.3985	366.211	78.7722	366.211	79.7776	366.211	78.271	366.211	79.2558	366.211	77.995	366.211	78.8612	366.211	78.013	366.211	78.5781	366.211	78.2885	366.211	78.4031	366.211	78.7015	366.211	78.3719	366.211	79.1234	366.211	78.5199	366.211	79.4651	366.211	78.8196	366.211	79.6819	366.211	79.1769	366.211	79.7583	366.211	79.4895	366.211	79.692
379.395	82.5217	379.395	82.4283	379.395	82.5254	379.395	82.2367	379.395	82.4467	379.395	81.9352	379.395	82.2903	379.395	81.51	379.395	82.0514	379.395	80.9529	379.395	81.7115	379.395	80.274	379.395	81.2463	379.395	79.5127	379.395	80.6461	379.395	78.7456	379.395	79.9428	379.395	78.0874	379.395	79.2291	379.395	77.6736	379.395	78.6477	379.395	77.6067	379.395	78.3283	379.395	77.8869	379.395	78.3064	379.395	78.3972	379.395	78.5151	379.395	78.9725	379.395	78.8508	379.395	79.4758	379.395	79.2259	379.395	79.8284	379.395	79.5753	379.395	80.0021	379.395	79.8477	379.395	80.0011
392.578	82.4731	392.578	82.3535	392.578	82.4612	392.578	82.115	392.578	82.3173	392.578	81.776	392.578	82.0548	392.578	81.3548	392.578	81.6936	392.578	80.8676	392.578	81.2486	392.578	80.3288	392.578	80.7236	392.578	79.7504	392.578	80.119	392.578	79.1436	392.578	79.4545	392.578	78.531	392.578	78.7919	392.578	77.9746	392.578	78.237	392.578	77.5954	392.578	77.897	392.578	77.5244	392.578	77.8161	392.578	77.7819	392.578	77.9524	392.578	78.2349	392.578	78.22	392.578	78.7001	392.578	78.5378	392.578	79.0472	392.578	78.8432	392.578	79.222	392.578	79.0867	392.578	79.2256
405.762	82.4087	405.762	82.2178	405.762	82.4768	405.762	81.9266	405.762	82.3926	405.762	81.5409	405.762	82.1399	405.762	81.054	405.762	81.7318	405.762	80.4601	405.762	81.2083	405.762	79.7768	405.762	80.6104	405.762	79.0692	405.762	79.9511	405.762	78.4549	405.762	79.2211	405.762	78.0501	405.762	78.4394	405.762	77.8803	405.762	77.7202	405.762	77.8746	405.762	77.2745	405.762	77.9645	405.762	77.2556	405.762	78.1527	405.762	77.5879	405.762	78.4655	405.762	78.0603	405.762	78.8603	405.762	78.5232	405.762	79.2186	405.762	78.9251	405.762	79.4247	405.762	79.2418	405.762	79.4266
420.41	82.4776	420.41	82.3971	420.41	82.4647	420.41	82.1942	420.41	82.3725	420.41	81.8478	420.41	82.1897	420.41	81.3568	420.41	81.8919	420.41	80.7345	420.41	81.4646	420.41	79.9921	420.41	80.9188	420.41	79.1377	420.41	80.2863	420.41	78.2112	420.41	79.5963	420.41	77.3555	420.41	78.857	420.41	76.8414	420.41	78.0793	420.41	76.877	420.41	77.3494	420.41	77.3507	420.41	76.8753	420.41	77.9667	420.41	76.8706	420.41	78.5311	420.41	77.3326	420.41	78.9932	420.41	78.0402	420.41	79.346	420.41	78.7439	420.41	79.552	420.41	79.2727	420.41	79.5442
435.059	82.3961	435.059	82.327	435.059	82.3551	435.059	82.1465	435.059	82.2159	435.059	81.8469	435.059	82.0018	435.059	81.404	435.059	81.7272	435.059	80.7927	435.059	81.3792	435.059	80.0172	435.059	80.9203	435.059	79.1222	435.059	80.3122	435.059	78.1732	435.059	79.5459	435.059	77.2401	435.059	78.6743	435.059	76.4455	435.059	77.8413	435.059	76.0298	435.059	77.2707	435.059	76.2185	435.059	77.1559	435.059	76.9255	435.059	77.5069	435.059	77.8117	435.059	78.1422	435.059	78.6017	435.059	78.8242	435.059	79.1904	435.059	79.3698	435.059	79.5702	435.059	79.6826	435.059	79.7418
451.172	82.7422	451.172	82.5241	451.172	82.8127	451.172	82.1791	451.172	82.7245	451.172	81.7498	451.172	82.4649	451.172	81.2856	451.172	82.0276	451.172	80.8019	451.172	81.4331	451.172	80.2525	451.172	80.7454	451.172	79.5553	451.172	80.0529	451.172	78.6684	451.172	79.4057	451.172	77.6924	451.172	78.7646	451.172	76.9161	451.172	78.051	451.172	76.6262	451.172	77.2906	451.172	76.7909	451.172	76.7243	451.172	77.1513	451.172	76.6419	451.172	77.5231	451.172	76.9943	451.172	77.8433	451.172	77.4658	451.172	78.0807	451.172	77.8438	451.172	78.2044	451.172	78.0845	451.172	78.2035
465.82	82.3844	465.82	82.35	465.82	82.3301	465.82	82.195	465.82	82.2087	465.82	81.8839	465.82	82.0257	465.82	81.3934	465.82	81.7621	465.82	80.7366	465.82	81.3749	465.82	79.9778	465.82	80.8155	465.82	79.1971	465.82	80.0664	465.82	78.4185	465.82	79.1769	465.82	77.6105	465.82	78.2734	465.82	76.8238	465.82	77.5108	465.82	76.3373	465.82	76.9897	465.82	76.4867	465.82	76.7651	465.82	77.1909	465.82	76.9142	465.82	78.0257	465.82	77.4526	465.82	78.6891	465.82	78.1976	465.82	79.1133	465.82	78.8661	465.82	79.3453	465.82	79.278	465.82	79.415
483.398	82.4121	483.398	82.267	483.398	82.4961	483.398	82.0769	483.398	82.4902	483.398	81.8346	483.398	82.3725	483.398	81.5139	483.398	82.1378	483.398	81.081	483.398	81.7862	483.398	80.5052	483.398	81.3055	483.398	79.7739	483.398	80.6688	483.398	78.9145	483.398	79.8624	483.398	78.0092	483.398	78.9299	483.398	77.1914	483.398	77.9984	483.398	76.6367	483.398	77.2487	483.398	76.5489	483.398	76.8408	483.398	77.0337	483.398	76.8639	483.398	77.9155	483.398	77.3109	483.398	78.8437	483.398	78.0391	483.398	79.5437	483.398	78.8205	483.398	79.886	483.398	79.4632	483.398	79.8455
499.512	83.3746	499.512	83.1514	499.512	83.4493	499.512	82.8253	499.512	83.3481	499.512	82.4269	499.512	83.0783	499.512	81.9476	499.512	82.6763	499.512	81.3492	499.512	82.1841	499.512	80.605	499.512	81.6208	499.512	79.7309	499.512	80.9678	499.512	78.7924	499.512	80.1848	499.512	77.9053	499.512	79.2571	499.512	77.2429	499.512	78.266	499.512	76.9902	499.512	77.4542	499.512	77.21	499.512	77.1353	499.512	77.792	499.512	77.3727	499.512	78.5647	499.512	77.9341	499.512	79.3629	499.512	78.6115	499.512	80.0145	499.512	79.3105	499.512	80.3623	499.512	79.9308	499.512	80.3239
517.09	83.4569	517.09	83.3917	517.09	83.4257	517.09	83.1844	517.09	83.3204	517.09	82.8076	517.09	83.1227	517.09	82.2736	517.09	82.7949	517.09	81.611	517.09	82.3176	517.09	80.8177	517.09	81.7074	517.09	79.8466	517.09	80.9995	517.09	78.6568	517.09	80.2085	517.09	77.3283	517.09	79.3136	517.09	76.1873	517.09	78.3089	517.09	75.7181	517.09	77.3189	517.09	76.0718	517.09	76.6713	517.09	76.9085	517.09	76.6891	517.09	77.8634	517.09	77.326	517.09	78.7581	517.09	78.2507	517.09	79.4978	517.09	79.1505	517.09	79.9796	517.09	79.8104	517.09	80.1002
536.133	83.7103	536.133	83.5422	536.133	83.6835	536.133	83.1784	536.133	83.4968	536.133	82.6669	536.133	83.1849	536.133	82.0869	536.133	82.7495	536.133	81.5056	536.133	82.1642	536.133	80.9286	536.133	81.414	536.133	80.2781	536.133	80.5259	536.133	79.4226	536.133	79.5529	536.133	78.2562	536.133	78.5169	536.133	76.8417	536.133	77.3941	536.133	75.6694	536.133	76.2602	536.133	75.581	536.133	75.5393	536.133	76.5375	536.133	75.8263	536.133	77.6339	536.133	76.9572	536.133	78.3815	536.133	78.1487	536.133	78.788	536.133	78.9267	536.133	79.0273	536.133	79.2287	536.133	79.2
555.176	83.4686	555.176	83.3671	555.176	83.5606	555.176	83.2587	555.176	83.5858	555.176	83.0573	555.176	83.4924	555.176	82.6272	555.176	83.2572	555.176	81.8644	555.176	82.8662	555.176	80.7653	555.176	82.2959	555.176	79.4512	555.176	81.5273	555.176	78.1226	555.176	80.5748	555.176	76.9332	555.176	79.4869	555.176	75.8991	555.176	78.3039	555.176	75.0425	555.176	77.0442	555.176	74.6852	555.176	75.8484	555.176	75.2637	555.176	75.2102	555.176	76.5586	555.176	75.5931	555.176	77.8809	555.176	76.6252	555.176	78.7757	555.176	77.6705	555.176	79.1192	555.176	78.4717	555.176	78.9782
574.219	83.8269	574.219	83.632	574.219	83.8381	574.219	83.3172	574.219	83.6358	574.219	82.9183	574.219	83.2607	574.219	82.4382	574.219	82.7973	574.219	81.8916	574.219	82.3137	574.219	81.2966	574.219	81.8121	574.219	80.5856	574.219	81.2128	574.219	79.5647	574.219	80.3883	574.219	78.0384	574.219	79.2467	574.219	76.1075	574.219	77.8476	574.219	74.5513	574.219	76.4884	574.219	74.2775	574.219	75.5754	574.219	74.9495	574.219	75.2693	574.219	75.9915	574.219	75.5455	574.219	77.2503	574.219	76.438	574.219	78.4699	574.219	77.72	574.219	79.2874	574.219	78.8649	574.219	79.4431
594.727	83.7476	594.727	83.6325	594.727	83.7279	594.727	83.3782	594.727	83.5932	594.727	82.9816	594.727	83.3696	594.727	82.4399	594.727	83.0496	594.727	81.7606	594.727	82.5732	594.727	80.9575	594.727	81.8809	594.727	80.035	594.727	80.9933	594.727	78.9751	594.727	80.0143	594.727	77.7465	594.727	79.0021	594.727	76.3702	594.727	77.839	594.727	75.1332	594.727	76.3172	594.727	74.7487	594.727	74.5269	594.727	75.5381	594.727	73.556	594.727	76.8153	594.727	74.4974	594.727	77.9174	594.727	76.1293	594.727	78.5933	594.727	77.3643	594.727	78.7992	594.727	78.1345	594.727	78.6082
615.234	84.8403	615.234	84.7051	615.234	84.8662	615.234	84.4527	615.234	84.7836	615.234	84.0763	615.234	84.5678	615.234	83.559	615.234	84.1866	615.234	82.8848	615.234	83.6459	615.234	82.0717	615.234	82.9927	615.234	81.1631	615.234	82.2532	615.234	80.1401	615.234	81.391	615.234	78.8632	615.234	80.3418	615.234	77.184	615.234	79.0528	615.234	75.2959	615.234	77.4972	615.234	74.2135	615.234	75.8354	615.234	74.7581	615.234	74.7261	615.234	75.9742	615.234	74.8518	615.234	77.0019	615.234	75.8917	615.234	77.7605	615.234	77.1295	615.234	78.2967	615.234	78.0745	615.234	78.465
637.207	84.7727	637.207	84.6078	637.207	84.7556	637.207	84.3097	637.207	84.5793	637.207	83.9429	637.207	84.2896	637.207	83.4991	637.207	83.8978	637.207	82.9209	637.207	83.4048	637.207	82.197	637.207	82.8428	637.207	81.3752	637.207	82.2344	637.207	80.4556	637.207	81.5225	637.207	79.3071	637.207	80.5977	637.207	77.7646	637.207	79.4117	637.207	75.8717	637.207	78.0262	637.207	74.2414	637.207	76.5705	637.207	74.0174	637.207	75.3734	637.207	75.2189	637.207	75.1833	637.207	76.7086	637.207	76.2457	637.207	77.8243	637.207	77.5671	637.207	78.4491	637.207	78.3915	637.207	78.644
659.18	84.4189	659.18	84.2726	659.18	84.3727	659.18	83.9312	659.18	84.1798	659.18	83.4582	659.18	83.8926	659.18	82.9542	659.18	83.5356	659.18	82.4431	659.18	83.0891	659.18	81.7997	659.18	82.5057	659.18	80.8713	659.18	81.7576	659.18	79.6386	659.18	80.8794	659.18	78.2355	659.18	79.9128	659.18	76.8001	659.18	78.7815	659.18	75.3698	659.18	77.2845	659.18	74.2602	659.18	75.3641	659.18	74.4053	659.18	73.8397	659.18	75.8402	659.18	74.1098	659.18	77.4008	659.18	75.4902	659.18	78.4403	659.18	76.8425	659.18	78.835	659.18	77.9137	659.18	78.6226
682.617	84.5664	682.617	84.4369	682.617	84.6551	682.617	84.2377	682.617	84.6214	682.617	83.8714	682.617	84.3646	682.617	83.2992	682.617	83.8818	682.617	82.6018	682.617	83.2943	682.617	81.8912	682.617	82.7326	682.617	81.1492	682.617	82.1678	682.617	80.1909	682.617	81.4233	682.617	78.812	682.617	80.3541	682.617	76.977	682.617	78.9594	682.617	75.0521	682.617	77.3654	682.617	73.9944	682.617	75.7754	682.617	74.4742	682.617	74.6422	682.617	75.8065	682.617	74.7006	682.617	77.1042	682.617	75.8118	682.617	77.9917	682.617	77.0337	682.617	78.3916	682.617	77.8932	682.617	78.3428
707.52	84.5519	707.52	84.345	707.52	84.4724	707.52	83.957	707.52	84.2134	707.52	83.5633	707.52	83.9578	707.52	83.1874	707.52	83.7093	707.52	82.6988	707.52	83.3046	707.52	82.0039	707.52	82.6684	707.52	81.1504	707.52	81.8993	707.52	80.2476	707.52	81.0693	707.52	79.2852	707.52	80.0583	707.52	78.0904	707.52	78.7002	707.52	76.505	707.52	77.0091	707.52	74.7127	707.52	75.2422	707.52	73.7106	707.52	73.8448	707.52	74.2632	707.52	73.6122	707.52	75.4512	707.52	74.8998	707.52	76.473	707.52	76.4855	707.52	77.1769	707.52	77.3915	707.52	77.5387
732.422	84.2249	732.422	84.0922	732.422	84.2703	732.422	83.8385	732.422	84.1706	732.422	83.4018	732.422	83.8754	732.422	82.8224	732.422	83.4221	732.422	82.1901	732.422	82.8899	732.422	81.4874	732.422	82.3321	732.422	80.6188	732.422	81.7704	732.422	79.5543	732.422	81.1973	732.422	78.291	732.422	80.5344	732.422	76.6506	732.422	79.6213	732.422	74.4677	732.422	78.2691	732.422	72.7664	732.422	76.353	732.422	73.5153	732.422	74.1582	732.422	75.3983	732.422	73.1033	732.422	76.9731	732.422	74.2158	732.422	78.1417	732.422	76.1657	732.422	78.8279	732.422	77.829	732.422	78.7636
757.324	84.9438	757.324	84.6734	757.324	84.9879	757.324	84.282	757.324	84.78	757.324	83.837	757.324	84.3828	757.324	83.3075	757.324	83.8791	757.324	82.6957	757.324	83.3328	757.324	82.1249	757.324	82.7783	757.324	81.623	757.324	82.1914	757.324	80.9263	757.324	81.5043	757.324	79.6997	757.324	80.6502	757.324	77.8446	757.324	79.5532	757.324	75.5452	757.324	78.1031	757.324	72.969	757.324	76.259	757.324	71.1193	757.324	74.4083	757.324	73.0864	757.324	73.699	757.324	76.3305	757.324	74.6142	757.324	78.3218	757.324	76.1019	757.324	78.934	757.324	77.4606	757.324	78.5001
785.156	84.4861	785.156	84.2985	785.156	84.4639	785.156	83.9034	785.156	84.2846	785.156	83.37	785.156	84.0011	785.156	82.8019	785.156	83.5996	785.156	82.2387	785.156	83.0199	785.156	81.6072	785.156	82.311	785.156	80.8268	785.156	81.6708	785.156	79.9366	785.156	81.1737	785.156	79.0307	785.156	80.5611	785.156	77.987	785.156	79.4975	785.156	76.4058	785.156	77.9022	785.156	74.2492	785.156	75.9974	785.156	73.0078	785.156	74.1732	785.156	73.8763	785.156	73.2514	785.156	75.3051	785.156	74.1476	785.156	76.3588	785.156	75.7501	785.156	76.9547	785.156	76.796	785.156	77.1319
811.523	84.8038	811.523	84.5277	811.523	84.9327	811.523	84.2305	811.523	84.7639	811.523	83.8022	811.523	84.3212	811.523	83.0639	811.523	83.7585	811.523	82.1181	811.523	83.1958	811.523	81.3393	811.523	82.6426	811.523	80.8732	811.523	82.0624	811.523	80.3859	811.523	81.4288	811.523	79.4633	811.523	80.6916	811.523	77.9198	811.523	79.7405	811.523	75.7808	811.523	78.4686	811.523	73.457	811.523	76.8324	811.523	72.7354	811.523	74.8882	811.523	74.6364	811.523	73.5644	811.523	76.8509	811.523	74.9676	811.523	78.3179	811.523	77.4878	811.523	79.1381	811.523	79.0244	811.523	79.4456
840.82	85.3797	840.82	85.2244	840.82	85.3337	840.82	84.7626	840.82	85.1077	840.82	83.9831	840.82	84.6814	840.82	83.0914	840.82	84.093	840.82	82.2978	840.82	83.4094	840.82	81.5561	840.82	82.6719	840.82	80.7142	840.82	81.9484	840.82	79.8381	840.82	81.3125	840.82	79.0784	840.82	80.6911	840.82	78.239	840.82	79.8778	840.82	76.7977	840.82	78.6081	840.82	74.2775	840.82	76.5029	840.82	71.6034	840.82	73.6209	840.82	72.961	840.82	72.277	840.82	75.7426	840.82	74.0028	840.82	77.4345	840.82	76.2745	840.82	78.3086	840.82	77.8741	840.82	78.5179
870.117	85.8888	870.117	85.64	870.117	85.8942	870.117	85.1375	870.117	85.6631	870.117	84.3702	870.117	85.1713	870.117	83.379	870.117	84.3767	870.117	82.3682	870.117	83.3629	870.117	81.5829	870.117	82.4021	870.117	81.0021	870.117	81.6393	870.117	80.3008	870.117	80.8476	870.117	79.1443	870.117	79.8682	870.117	77.4253	870.117	78.906	870.117	75.1722	870.117	77.9548	870.117	72.6977	870.117	76.3876	870.117	71.6835	870.117	73.8645	870.117	73.2744	870.117	72.411	870.117	75.9444	870.117	74.4532	870.117	78.2453	870.117	76.8316	870.117	79.4284	870.117	78.4334	870.117	79.3852
900.879	86.1465	900.879	85.9251	900.879	86.1026	900.879	85.4933	900.879	85.7814	900.879	84.8487	900.879	85.2968	900.879	83.9768	900.879	84.7567	900.879	82.9448	900.879	84.0783	900.879	81.815	900.879	83.1167	900.879	80.5424	900.879	82.0049	900.879	79.2086	900.879	81.1288	900.879	78.2126	900.879	80.474	900.879	77.5957	900.879	79.4422	900.879	76.4856	900.879	77.5921	900.879	73.972	900.879	75.1501	900.879	70.7193	900.879	72.898	900.879	72.0693	900.879	71.9287	900.879	75.7991	900.879	73.7105	900.879	77.9514	900.879	76.3523	900.879	78.6773	900.879	77.9572	900.879	78.6118
933.105	85.707	933.105	85.4501	933.105	85.6411	933.105	84.8117	933.105	85.3709	933.105	83.9885	933.105	84.845	933.105	83.268	933.105	83.9389	933.105	82.6359	933.105	82.8343	933.105	81.8577	933.105	82.0153	933.105	80.9626	933.105	81.4796	933.105	80.1198	933.105	80.5809	933.105	79.0411	933.105	79.1866	933.105	77.2002	933.105	78.1484	933.105	74.5516	933.105	77.5029	933.105	71.2842	933.105	75.526	933.105	69.1212	933.105	70.6674	933.105	72.8889	933.105	68.7766	933.105	76.3077	933.105	73.3783	933.105	78.1283	933.105	76.8185	933.105	79.2532	933.105	78.9642	933.105	79.7045
965.332	85.3619	965.332	85.085	965.332	85.3214	965.332	84.6528	965.332	84.8495	965.332	83.9573	965.332	84.2174	965.332	82.9329	965.332	83.7195	965.332	81.8832	965.332	83.108	965.332	81.0894	965.332	82.0044	965.332	80.4285	965.332	80.8024	965.332	79.7582	965.332	80.3263	965.332	79.1957	965.332	80.3801	965.332	78.565	965.332	79.8147	965.332	77.053	965.332	78.0295	965.332	73.1263	965.332	75.4662	965.332	62.5333	965.332	71.6941	965.332	66.5877	965.332	61.5772	965.332	73.5594	965.332	69.6691	965.332	77.0715	965.332	75.3649	965.332	78.7686	965.332	77.7097	965.332	78.8513
1,000.49	86.2058	1,000.49	86.1022	1,000.49	86.0937	1,000.49	85.3788	1,000.49	86.0371	1,000.49	84.2534	1,000.49	85.5207	1,000.49	83.1647	1,000.49	84.0612	1,000.49	82.0601	1,000.49	82.2373	1,000.49	80.8713	1,000.49	81.1917	1,000.49	80.3045	1,000.49	80.6917	1,000.49	80.5154	1,000.49	79.8716	1,000.49	80.4992	1,000.49	79.1095	1,000.49	79.5463	1,000.49	78.9674	1,000.49	77.6371	1,000.49	78.6299	1,000.49	75.1699	1,000.49	77.0182	1,000.49	71.5202	1,000.49	73.6746	1,000.49	65.4405	1,000.49	68.0691	1,000.49	72.2175	1,000.49	63.1017	1,000.49	76.4011	1,000.49	71.3671	1,000.49	77.8558	1,000.49	76.0022	1,000.49	77.8098
1,035.64	86.1633	1,035.64	85.7972	1,035.64	86.0646	1,035.64	85.1973	1,035.64	85.4912	1,035.64	84.3217	1,035.64	84.7442	1,035.64	82.9831	1,035.64	83.9429	1,035.64	81.4268	1,035.64	82.7803	1,035.64	80.2401	1,035.64	80.9606	1,035.64	79.1437	1,035.64	78.908	1,035.64	77.5735	1,035.64	77.8892	1,035.64	76.5206	1,035.64	77.9539	1,035.64	76.6538	1,035.64	77.8597	1,035.64	76.0947	1,035.64	77.1654	1,035.64	73.7403	1,035.64	76.2769	1,035.64	69.9666	1,035.64	74.7608	1,035.64	68.8874	1,035.64	69.841	1,035.64	71.4102	1,035.64	59.1106	1,035.64	74.4829	1,035.64	71.92	1,035.64	76.0669	1,035.64	75.3386	1,035.64	76.3228
1,072.27	85.0358	1,072.27	84.8713	1,072.27	85.0082	1,072.27	84.3593	1,072.27	84.7503	1,072.27	83.2584	1,072.27	84.2194	1,072.27	81.7744	1,072.27	83.3627	1,072.27	80.3503	1,072.27	81.9752	1,072.27	78.6985	1,072.27	80.1472	1,072.27	76.6185	1,072.27	78.3465	1,072.27	75.7353	1,072.27	77.0775	1,072.27	75.6461	1,072.27	76.5259	1,072.27	75.095	1,072.27	76.1427	1,072.27	74.1106	1,072.27	75.1047	1,072.27	71.6371	1,072.27	73.712	1,072.27	65.7242	1,072.27	72.2012	1,072.27	63.6207	1,072.27	68.8245	1,072.27	70.2314	1,072.27	57.0425	1,072.27	74.1003	1,072.27	67.879	1,072.27	75.6818	1,072.27	73.1402	1,072.27	75.2634
1,108.89	83.5711	1,108.89	83.2453	1,108.89	83.7189	1,108.89	82.5909	1,108.89	83.362	1,108.89	81.4419	1,108.89	82.3063	1,108.89	80.103	1,108.89	80.9634	1,108.89	78.4696	1,108.89	79.881	1,108.89	76.1501	1,108.89	78.7973	1,108.89	74.1255	1,108.89	76.9388	1,108.89	73.4311	1,108.89	74.6254	1,108.89	73.1721	1,108.89	73.4322	1,108.89	72.9843	1,108.89	73.9189	1,108.89	72.6007	1,108.89	74.4198	1,108.89	70.6254	1,108.89	73.5022	1,108.89	65.3776	1,108.89	70.621	1,108.89	52.8883	1,108.89	65.2635	1,108.89	65.2367	1,108.89	57.2672	1,108.89	70.5578	1,108.89	66.6166	1,108.89	72.0517	1,108.89	70.8069	1,108.89	71.9629
1,148.44	81.2402	1,148.44	80.7032	1,148.44	81.3527	1,148.44	79.8834	1,148.44	81.0103	1,148.44	78.8165	1,148.44	80.3712	1,148.44	77.4874	1,148.44	79.3303	1,148.44	75.6959	1,148.44	77.5885	1,148.44	73.3441	1,148.44	75.6966	1,148.44	70.7558	1,148.44	74.425	1,148.44	68.6706	1,148.44	73.1067	1,148.44	67.6702	1,148.44	71.5309	1,148.44	67.1115	1,148.44	70.7894	1,148.44	65.8367	1,148.44	69.554	1,148.44	64.1054	1,148.44	68.3937	1,148.44	55.1498	1,148.44	67.5451	1,148.44	60.1251	1,148.44	62.1682	1,148.44	66.7052	1,148.44	51.9724	1,148.44	69.1681	1,148.44	61.964	1,148.44	70.7518	1,148.44	67.5212	1,148.44	70.4735
1,189.45	78.1581	1,189.45	77.8664	1,189.45	78.2129	1,189.45	76.7556	1,189.45	78.2032	1,189.45	75.1999	1,189.45	78.0684	1,189.45	74.117	1,189.45	77.5937	1,189.45	72.691	1,189.45	76.1898	1,189.45	69.7997	1,189.45	74.3919	1,189.45	64.8497	1,189.45	72.8686	1,189.45	60.568	1,189.45	70.2066	1,189.45	62.495	1,189.45	67.6224	1,189.45	65.1308	1,189.45	67.6073	1,189.45	64.7594	1,189.45	67.5759	1,189.45	62.6454	1,189.45	67.0562	1,189.45	59.7452	1,189.45	66.505	1,189.45	56.8294	1,189.45	63.7163	1,189.45	64.0484	1,189.45	46.9897	1,189.45	67.7494	1,189.45	62.1762	1,189.45	69.8182	1,189.45	67.5873	1,189.45	70.0448
1,230.47	73.8119	1,230.47	72.7094	1,230.47	74.0312	1,230.47	71.4472	1,230.47	74.1463	1,230.47	70.312	1,230.47	73.4819	1,230.47	66.976	1,230.47	71.9481	1,230.47	61.8198	1,230.47	71.6184	1,230.47	62.6432	1,230.47	71.0967	1,230.47	62.3322	1,230.47	68.3955	1,230.47	56.4739	1,230.47	66.5228	1,230.47	56.6159	1,230.47	66.186	1,230.47	63.1751	1,230.47	66.8593	1,230.47	63.1201	1,230.47	68.2383	1,230.47	62.369	1,230.47	67.7496	1,230.47	65.3294	1,230.47	64.875	1,230.47	65.2863	1,230.47	62.4783	1,230.47	63.9544	1,230.47	60.855	1,230.47	63.9162	1,230.47	63.3128	1,230.47	64.4198	1,230.47	64.3148	1,230.47	64.823
1,274.41	75.5251	1,274.41	74.9007	1,274.41	75.882	1,274.41	74.2468	1,274.41	75.6641	1,274.41	73.4659	1,274.41	75.1077	1,274.41	72.2983	1,274.41	74.4843	1,274.41	71.184	1,274.41	73.7637	1,274.41	70.9784	1,274.41	72.649	1,274.41	70.3895	1,274.41	71.4494	1,274.41	68.1107	1,274.41	70.4132	1,274.41	66.2776	1,274.41	69.3091	1,274.41	66.6939	1,274.41	68.7151	1,274.41	66.4861	1,274.41	67.7493	1,274.41	65.7807	1,274.41	68.4433	1,274.41	66.2698	1,274.41	70.5939	1,274.41	66.4971	1,274.41	69.5602	1,274.41	65.3969	1,274.41	65.8149	1,274.41	63.9444	1,274.41	62.3726	1,274.41	62.0216	1,274.41	59.6464	1,274.41	60.5445
1,319.82	78.7401	1,319.82	77.8937	1,319.82	78.5839	1,319.82	76.9042	1,319.82	78.275	1,319.82	76.1725	1,319.82	78.2441	1,319.82	74.9531	1,319.82	77.7237	1,319.82	74.0591	1,319.82	76.6724	1,319.82	72.9063	1,319.82	75.6739	1,319.82	71.5964	1,319.82	74.9899	1,319.82	71.4738	1,319.82	74.061	1,319.82	70.4712	1,319.82	72.4862	1,319.82	69.9007	1,319.82	70.2585	1,319.82	71.5204	1,319.82	70.096	1,319.82	72.9114	1,319.82	72.5143	1,319.82	72.4189	1,319.82	72.7692	1,319.82	70.2092	1,319.82	71.9789	1,319.82	67.9387	1,319.82	70.8297	1,319.82	64.2853	1,319.82	65.7996	1,319.82	61.3887	1,319.82	62.8893	1,319.82	61.0527
1,366.7	80.0174	1,366.7	79.9021	1,366.7	79.7094	1,366.7	78.8476	1,366.7	79.5813	1,366.7	77.9804	1,366.7	79.0808	1,366.7	77.2604	1,366.7	78.4663	1,366.7	76.3497	1,366.7	77.832	1,366.7	75.0902	1,366.7	77.0934	1,366.7	74.4272	1,366.7	75.9257	1,366.7	74.2947	1,366.7	73.8236	1,366.7	71.008	1,366.7	71.7561	1,366.7	68.3161	1,366.7	70.9835	1,366.7	70.988	1,366.7	71.3017	1,366.7	72.0808	1,366.7	73.3636	1,366.7	72.0465	1,366.7	74.5976	1,366.7	71.6387	1,366.7	73.3987	1,366.7	69.9886	1,366.7	71.3602	1,366.7	67.2487	1,366.7	69.9743	1,366.7	64.7372	1,366.7	66.2274	1,366.7	62.8246
1,413.57	80.9473	1,413.57	80.9141	1,413.57	80.9342	1,413.57	80.426	1,413.57	80.5479	1,413.57	79.5846	1,413.57	79.6829	1,413.57	78.4786	1,413.57	79.4415	1,413.57	77.7799	1,413.57	78.2962	1,413.57	77.2306	1,413.57	76.9348	1,413.57	76.5435	1,413.57	76.7851	1,413.57	74.9957	1,413.57	75.6742	1,413.57	73.5932	1,413.57	73.607	1,413.57	72.9463	1,413.57	71.735	1,413.57	72.1186	1,413.57	70.4373	1,413.57	71.7757	1,413.57	70.6108	1,413.57	71.9292	1,413.57	71.5224	1,413.57	72.1055	1,413.57	72.5971	1,413.57	71.635	1,413.57	71.8034	1,413.57	69.4846	1,413.57	69.3518	1,413.57	65.2977	1,413.57	66.083	1,413.57	63.1581
1,463.38	81.1676	1,463.38	80.9147	1,463.38	81.2241	1,463.38	80.3437	1,463.38	80.9589	1,463.38	79.3273	1,463.38	80.2601	1,463.38	78.4276	1,463.38	79.0567	1,463.38	77.4724	1,463.38	78.2347	1,463.38	76.3518	1,463.38	77.668	1,463.38	75.6191	1,463.38	75.9699	1,463.38	74.2208	1,463.38	74.4849	1,463.38	72.6583	1,463.38	73.74	1,463.38	71.4924	1,463.38	71.4256	1,463.38	71.3191	1,463.38	69.0578	1,463.38	71.1568	1,463.38	69.7716	1,463.38	71.3662	1,463.38	71.5467	1,463.38	70.7645	1,463.38	71.9591	1,463.38	65.7703	1,463.38	70.2676	1,463.38	63.5435	1,463.38	67.3242	1,463.38	62.8221	1,463.38	64.5271	1,463.38	61.3071
1,516.11	81.1535	1,516.11	80.7491	1,516.11	81.1071	1,516.11	79.6679	1,516.11	80.7179	1,516.11	78.3966	1,516.11	79.883	1,516.11	77.6367	1,516.11	78.5799	1,516.11	76.8582	1,516.11	77.7246	1,516.11	75.7391	1,516.11	77.1052	1,516.11	75.1567	1,516.11	76.3962	1,516.11	74.2443	1,516.11	75.477	1,516.11	72.7594	1,516.11	73.6814	1,516.11	71.832	1,516.11	72.3086	1,516.11	71.7584	1,516.11	71.0895	1,516.11	72.2343	1,516.11	70.0496	1,516.11	72.6803	1,516.11	71.6468	1,516.11	70.8733	1,516.11	72.112	1,516.11	67.4785	1,516.11	71.1074	1,516.11	63.7407	1,516.11	68.7179	1,516.11	62.7205	1,516.11	65.0507	1,516.11	64.4428
1,568.85	80.9613	1,568.85	80.906	1,568.85	81.0677	1,568.85	79.933	1,568.85	81.1646	1,568.85	78.7532	1,568.85	80.0063	1,568.85	77.5654	1,568.85	78.8847	1,568.85	76.2405	1,568.85	77.8896	1,568.85	75.6869	1,568.85	76.2388	1,568.85	74.4337	1,568.85	75.2168	1,568.85	73.1283	1,568.85	74.35	1,568.85	72.0856	1,568.85	72.6393	1,568.85	69.7439	1,568.85	69.5729	1,568.85	67.7699	1,568.85	68.372	1,568.85	69.7146	1,568.85	69.5817	1,568.85	71.451	1,568.85	71.054	1,568.85	70.4632	1,568.85	71.4525	1,568.85	68.179	1,568.85	68.4155	1,568.85	63.2863	1,568.85	66.8007	1,568.85	63.2013	1,568.85	63.8378	1,568.85	63.9036
1,624.51	82.2943	1,624.51	81.9266	1,624.51	82.2475	1,624.51	80.9773	1,624.51	82.1589	1,624.51	80.1291	1,624.51	80.7753	1,624.51	78.3001	1,624.51	80.055	1,624.51	77.3753	1,624.51	78.2619	1,624.51	76.0287	1,624.51	76.9052	1,624.51	74.1197	1,624.51	76.2565	1,624.51	73.4619	1,624.51	75.7759	1,624.51	73.2935	1,624.51	74.1066	1,624.51	70.9262	1,624.51	71.8468	1,624.51	70.4785	1,624.51	71.4375	1,624.51	71.422	1,624.51	70.5997	1,624.51	70.8681	1,624.51	72.3499	1,624.51	69.588	1,624.51	71.2438	1,624.51	64.2895	1,624.51	71.9154	1,624.51	63.8877	1,624.51	68.647	1,624.51	63.39	1,624.51	66.7555	1,624.51	65.2364
1,681.64	82.4011	1,681.64	81.8877	1,681.64	82.6639	1,681.64	81.3378	1,681.64	82.1538	1,681.64	80.5569	1,681.64	81.3626	1,681.64	78.9905	1,681.64	80.2967	1,681.64	77.4912	1,681.64	79.1929	1,681.64	76.8261	1,681.64	77.9091	1,681.64	75.4237	1,681.64	77.0281	1,681.64	74.7601	1,681.64	75.4615	1,681.64	72.9764	1,681.64	75.1704	1,681.64	68.4861	1,681.64	74.798	1,681.64	68.8488	1,681.64	71.8977	1,681.64	69.4664	1,681.64	72.3728	1,681.64	71.7048	1,681.64	72.2721	1,681.64	71.7961	1,681.64	72.08	1,681.64	70.7745	1,681.64	71.8083	1,681.64	67.4349	1,681.64	69.9487	1,681.64	65.0578	1,681.64	69.4488	1,681.64	67.9655
1,741.7	83.3199	1,741.7	83.335	1,741.7	83.2256	1,741.7	82.3143	1,741.7	82.6844	1,741.7	81.1066	1,741.7	81.8941	1,741.7	79.9584	1,741.7	80.3431	1,741.7	79.3047	1,741.7	79.3478	1,741.7	77.8956	1,741.7	78.4732	1,741.7	76.7171	1,741.7	77.6908	1,741.7	76.8189	1,741.7	76.5708	1,741.7	75.2694	1,741.7	75.0617	1,741.7	73.2332	1,741.7	73.521	1,741.7	72.3828	1,741.7	72.4175	1,741.7	73.1293	1,741.7	70.8144	1,741.7	73.174	1,741.7	70.8	1,741.7	72.4494	1,741.7	71.7201	1,741.7	69.5981	1,741.7	71.9359	1,741.7	65.4555	1,741.7	63.8848	1,741.7	64.4367	1,741.7	61.8253	1,741.7	60.2893
1,803.22	83.4486	1,803.22	82.7731	1,803.22	83.4883	1,803.22	82.1802	1,803.22	83.4156	1,803.22	81.3508	1,803.22	81.5516	1,803.22	80.4719	1,803.22	81.2815	1,803.22	79.9623	1,803.22	79.3566	1,803.22	78.0543	1,803.22	77.5233	1,803.22	77.7218	1,803.22	76.6854	1,803.22	76.0131	1,803.22	74.2174	1,803.22	73.5348	1,803.22	73.6136	1,803.22	68.0985	1,803.22	70.5505	1,803.22	59.394	1,803.22	64.7748	1,803.22	63.1662	1,803.22	67.5939	1,803.22	69.6924	1,803.22	69.0953	1,803.22	69.5598	1,803.22	71.5606	1,803.22	65.4504	1,803.22	69.672	1,803.22	64.3926	1,803.22	70.5518	1,803.22	62.7387	1,803.22	62.5249	1,803.22	68.5174
1,866.21	82.6338	1,866.21	80.8758	1,866.21	82.6692	1,866.21	80.4014	1,866.21	82.3508	1,866.21	80.7319	1,866.21	80.8856	1,866.21	80.0487	1,866.21	80.4488	1,866.21	78.137	1,866.21	79.5236	1,866.21	76.1912	1,866.21	77.7978	1,866.21	76.1697	1,866.21	76.6556	1,866.21	75.3167	1,866.21	75.364	1,866.21	75.3473	1,866.21	75.032	1,866.21	74.1123	1,866.21	75.143	1,866.21	70.6637	1,866.21	74.7655	1,866.21	71.3282	1,866.21	73.5438	1,866.21	72.1876	1,866.21	72.3304	1,866.21	71.5657	1,866.21	71.0804	1,866.21	68.5554	1,866.21	72.7997	1,866.21	64.7045	1,866.21	70.3836	1,866.21	56.8584	1,866.21	60.0179	1,866.21	63.463
1,932.13	83.0347	1,932.13	81.5655	1,932.13	83.1032	1,932.13	81.4238	1,932.13	82.6203	1,932.13	80.7004	1,932.13	81.9454	1,932.13	78.8662	1,932.13	81.5933	1,932.13	78.2132	1,932.13	80.0808	1,932.13	77.3869	1,932.13	78.5131	1,932.13	77.0251	1,932.13	77.9596	1,932.13	76.7346	1,932.13	76.9658	1,932.13	76.1275	1,932.13	76.433	1,932.13	73.9528	1,932.13	75.5469	1,932.13	71.6366	1,932.13	72.822	1,932.13	66.7085	1,932.13	68.5461	1,932.13	68.4415	1,932.13	69.1329	1,932.13	72.1186	1,932.13	68.6755	1,932.13	67.4489	1,932.13	71.5811	1,932.13	60.234	1,932.13	68.2846	1,932.13	61.1734	1,932.13	65.8092	1,932.13	64.2682
1,999.51	83.4761	1,999.51	82.7933	1,999.51	83.5728	1,999.51	81.8941	1,999.51	83.2901	1,999.51	80.4992	1,999.51	82.3395	1,999.51	79.112	1,999.51	81.1713	1,999.51	77.0303	1,999.51	79.6649	1,999.51	74.3445	1,999.51	78.0663	1,999.51	73.5302	1,999.51	75.7937	1,999.51	72.0185	1,999.51	74.4545	1,999.51	71.4133	1,999.51	73.6921	1,999.51	69.407	1,999.51	72.0687	1,999.51	67.5947	1,999.51	70.9709	1,999.51	63.9885	1,999.51	69.1237	1,999.51	66.3265	1,999.51	65.4887	1,999.51	66.7398	1,999.51	67.2742	1,999.51	65.9625	1,999.51	68.454	1,999.51	58.4368	1,999.51	65.7594	1,999.51	51.2651	1,999.51	62.0083	1,999.51	55.9193
2,069.82	85.0101	2,069.82	84.354	2,069.82	84.9702	2,069.82	83.2195	2,069.82	84.2777	2,069.82	81.5648	2,069.82	82.9454	2,069.82	79.6802	2,069.82	81.3679	2,069.82	77.8239	2,069.82	79.6238	2,069.82	75.9046	2,069.82	77.9292	2,069.82	73.2284	2,069.82	76.538	2,069.82	70.7362	2,069.82	74.8645	2,069.82	71.0043	2,069.82	73.6596	2,069.82	70.9411	2,069.82	72.2877	2,069.82	69.1455	2,069.82	71.9548	2,069.82	65.9886	2,069.82	68.7699	2,069.82	66.4157	2,069.82	67.7421	2,069.82	66.307	2,069.82	68.6086	2,069.82	65.149	2,069.82	69.8129	2,069.82	63.4721	2,069.82	68.2065	2,069.82	58.005	2,069.82	63.3442	2,069.82	55.9266
2,143.07	84.9495	2,143.07	84.3596	2,143.07	84.8146	2,143.07	83.2199	2,143.07	83.8441	2,143.07	81.5814	2,143.07	82.6609	2,143.07	79.7897	2,143.07	80.7405	2,143.07	78.2645	2,143.07	79.2505	2,143.07	76.8422	2,143.07	77.6796	2,143.07	74.6417	2,143.07	76.2877	2,143.07	73.5681	2,143.07	73.9956	2,143.07	71.7162	2,143.07	73.1887	2,143.07	70.82	2,143.07	73.2979	2,143.07	69.242	2,143.07	71.6147	2,143.07	65.8563	2,143.07	69.6278	2,143.07	66.8827	2,143.07	67.3102	2,143.07	68.3708	2,143.07	69.2025	2,143.07	68.8536	2,143.07	69.5115	2,143.07	64.5124	2,143.07	68.4086	2,143.07	61.9424	2,143.07	65.1105	2,143.07	62.2938
2,219.24	83.4697	2,219.24	83.1112	2,219.24	83.3667	2,219.24	81.8844	2,219.24	82.9998	2,219.24	80.5199	2,219.24	81.4689	2,219.24	78.7675	2,219.24	80.3167	2,219.24	76.8986	2,219.24	78.4636	2,219.24	76.0026	2,219.24	76.9227	2,219.24	74.7079	2,219.24	74.9564	2,219.24	73.0377	2,219.24	74.1871	2,219.24	72.5937	2,219.24	72.373	2,219.24	70.5826	2,219.24	70.9814	2,219.24	68.9892	2,219.24	71.587	2,219.24	68.1831	2,219.24	70.6121	2,219.24	64.9749	2,219.24	64.8287	2,219.24	68.4473	2,219.24	68.3055	2,219.24	70.5739	2,219.24	69.5341	2,219.24	65.3965	2,219.24	69.0785	2,219.24	62.059	2,219.24	65.9513	2,219.24	62.389
2,296.88	82.3215	2,296.88	81.8182	2,296.88	82.4763	2,296.88	80.759	2,296.88	81.6879	2,296.88	79.2087	2,296.88	80.7617	2,296.88	78.0167	2,296.88	79.6489	2,296.88	77.1298	2,296.88	78.6268	2,296.88	75.3302	2,296.88	77.4268	2,296.88	74.4213	2,296.88	76.0403	2,296.88	73.2433	2,296.88	74.8366	2,296.88	70.5262	2,296.88	72.9071	2,296.88	72.2961	2,296.88	70.9942	2,296.88	71.3771	2,296.88	71.4585	2,296.88	69.183	2,296.88	70.8583	2,296.88	66.8994	2,296.88	68.3367	2,296.88	68.6188	2,296.88	66.0274	2,296.88	66.0578	2,296.88	68.692	2,296.88	65.9921	2,296.88	68.7879	2,296.88	64.2117	2,296.88	65.4359	2,296.88	65.3059
2,378.91	82.6088	2,378.91	82.2098	2,378.91	82.6266	2,378.91	80.7951	2,378.91	82.3503	2,378.91	79.4319	2,378.91	81.6968	2,378.91	77.4869	2,378.91	81.7047	2,378.91	76.5034	2,378.91	80.6095	2,378.91	75.1648	2,378.91	79.5054	2,378.91	73.6857	2,378.91	78.0868	2,378.91	71.0638	2,378.91	76.1578	2,378.91	69.9319	2,378.91	74.811	2,378.91	69.3992	2,378.91	73.2472	2,378.91	69.7378	2,378.91	71.0014	2,378.91	68.727	2,378.91	70.3919	2,378.91	64.8884	2,378.91	70.5893	2,378.91	68.0014	2,378.91	66.679	2,378.91	66.9958	2,378.91	67.1405	2,378.91	64.0307	2,378.91	65.5393	2,378.91	61.5277	2,378.91	64.6087	2,378.91	63.4868
2,462.4	83.86	2,462.4	82.027	2,462.4	84.3338	2,462.4	79.9238	2,462.4	84.2576	2,462.4	77.2721	2,462.4	83.5098	2,462.4	75.7726	2,462.4	82.3384	2,462.4	73.4871	2,462.4	80.8339	2,462.4	73.2574	2,462.4	79.5843	2,462.4	72.9243	2,462.4	77.7313	2,462.4	71.3235	2,462.4	75.6477	2,462.4	70.5323	2,462.4	73.5894	2,462.4	68.9017	2,462.4	72.3725	2,462.4	68.8379	2,462.4	71.1459	2,462.4	66.7078	2,462.4	71.2053	2,462.4	66.0964	2,462.4	69.3825	2,462.4	63.8234	2,462.4	68.1082	2,462.4	65.0769	2,462.4	68.7467	2,462.4	62.5417	2,462.4	68.3347	2,462.4	59.0024	2,462.4	63.5473	2,462.4	56.6441
2,548.83	81.0336	2,548.83	78.8575	2,548.83	81.799	2,548.83	76.6295	2,548.83	81.431	2,548.83	74.1782	2,548.83	80.5167	2,548.83	74.1851	2,548.83	78.9237	2,548.83	74.7833	2,548.83	78.1405	2,548.83	73.9269	2,548.83	76.9817	2,548.83	73.673	2,548.83	76.1313	2,548.83	73.592	2,548.83	74.3459	2,548.83	71.0615	2,548.83	73.0476	2,548.83	69.5669	2,548.83	71.3329	2,548.83	67.8296	2,548.83	70.4768	2,548.83	67.6703	2,548.83	70.008	2,548.83	66.8137	2,548.83	69.2689	2,548.83	63.2199	2,548.83	67.561	2,548.83	62.4293	2,548.83	68.3658	2,548.83	60.4183	2,548.83	67.9082	2,548.83	60.7077	2,548.83	63.8385	2,548.83	60.5154
2,639.65	75.9948	2,639.65	74.8477	2,639.65	76.593	2,639.65	73.3074	2,639.65	75.7984	2,639.65	73.4051	2,639.65	74.9182	2,639.65	72.5506	2,639.65	73.5884	2,639.65	73.4655	2,639.65	72.8322	2,639.65	72.8596	2,639.65	72.0921	2,639.65	71.7233	2,639.65	72.333	2,639.65	70.893	2,639.65	72.0449	2,639.65	70.5391	2,639.65	70.9408	2,639.65	69.3227	2,639.65	68.9886	2,639.65	64.2516	2,639.65	68.1915	2,639.65	64.9344	2,639.65	67.7559	2,639.65	66.4161	2,639.65	66.4799	2,639.65	66.8644	2,639.65	68.6966	2,639.65	66.7602	2,639.65	68.3326	2,639.65	63.4369	2,639.65	67.41	2,639.65	57.6735	2,639.65	64.8612	2,639.65	55.1113
2,731.93	74.9474	2,731.93	74.7411	2,731.93	75.0638	2,731.93	73.736	2,731.93	75.2249	2,731.93	74.3419	2,731.93	74.8259	2,731.93	74.4482	2,731.93	75.0268	2,731.93	72.0102	2,731.93	73.9359	2,731.93	71.7092	2,731.93	73.4164	2,731.93	71.6079	2,731.93	72.5516	2,731.93	70.112	2,731.93	71.6184	2,731.93	70.6617	2,731.93	69.7294	2,731.93	68.6986	2,731.93	68.4232	2,731.93	66.0822	2,731.93	67.6237	2,731.93	66.3535	2,731.93	64.5975	2,731.93	64.9744	2,731.93	65.9689	2,731.93	65.2316	2,731.93	64.7694	2,731.93	65.1642	2,731.93	66.6818	2,731.93	64.7291	2,731.93	67.9757	2,731.93	62.2051	2,731.93	64.3754	2,731.93	64.9489
2,828.61	75.5368	2,828.61	74.9095	2,828.61	75.6366	2,828.61	76.4652	2,828.61	76.6673	2,828.61	77.263	2,828.61	77.2108	2,828.61	77.5368	2,828.61	77.8405	2,828.61	76.1183	2,828.61	77.5699	2,828.61	74.5208	2,828.61	76.6311	2,828.61	72.444	2,828.61	75.3015	2,828.61	71.439	2,828.61	73.8134	2,828.61	71.657	2,828.61	72.4917	2,828.61	70.8051	2,828.61	71.3565	2,828.61	68.4836	2,828.61	68.4077	2,828.61	66.9368	2,828.61	66.2164	2,828.61	68.4639	2,828.61	65.7363	2,828.61	66.6594	2,828.61	63.6112	2,828.61	66.3938	2,828.61	65.9593	2,828.61	65.5713	2,828.61	66.1898	2,828.61	60.5106	2,828.61	66.6959	2,828.61	64.2868
2,928.22	79.2969	2,928.22	79.3739	2,928.22	79.3132	2,928.22	80.2348	2,928.22	79.6331	2,928.22	80.7342	2,928.22	80.1279	2,928.22	80.6192	2,928.22	80.3745	2,928.22	79.9818	2,928.22	80.2844	2,928.22	78.3713	2,928.22	79.1184	2,928.22	76.1175	2,928.22	76.9902	2,928.22	75.1624	2,928.22	75.761	2,928.22	73.9704	2,928.22	73.6474	2,928.22	73.3255	2,928.22	72.7767	2,928.22	72.9449	2,928.22	70.0293	2,928.22	68.6088	2,928.22	70.0137	2,928.22	66.8613	2,928.22	66.8519	2,928.22	68.2273	2,928.22	67.9113	2,928.22	69.2692	2,928.22	67.4203	2,928.22	67.7673	2,928.22	68.6779	2,928.22	68.3717	2,928.22	67.2922	2,928.22	66.4683
3,030.76	79.6385	3,030.76	79.9757	3,030.76	80.0121	3,030.76	81.3841	3,030.76	80.0273	3,030.76	82.2363	3,030.76	81.4708	3,030.76	82.0072	3,030.76	81.7833	3,030.76	81.5661	3,030.76	81.5376	3,030.76	79.9705	3,030.76	80.5731	3,030.76	78.0004	3,030.76	78.6171	3,030.76	76.7498	3,030.76	75.9761	3,030.76	73.8483	3,030.76	74.1016	3,030.76	73.6475	3,030.76	73.1948	3,030.76	73.0481	3,030.76	72.2161	3,030.76	71.6656	3,030.76	71.2403	3,030.76	69.3537	3,030.76	69.3029	3,030.76	70.4937	3,030.76	68.0165	3,030.76	70.7247	3,030.76	65.4456	3,030.76	69.4281	3,030.76	68.8566	3,030.76	69.331	3,030.76	67.2444	3,030.76	68.0748
3,137.7	80.8311	3,137.7	81.5782	3,137.7	81.2328	3,137.7	82.5355	3,137.7	81.8779	3,137.7	83.066	3,137.7	82.7541	3,137.7	83.1508	3,137.7	83.1535	3,137.7	82.3999	3,137.7	82.3356	3,137.7	80.7024	3,137.7	81.1519	3,137.7	79.1243	3,137.7	79.4641	3,137.7	77.0205	3,137.7	77.0512	3,137.7	75.7636	3,137.7	75.541	3,137.7	74.0985	3,137.7	73.7793	3,137.7	73.3432	3,137.7	71.9756	3,137.7	71.431	3,137.7	70.952	3,137.7	70.6509	3,137.7	70.05	3,137.7	70.6112	3,137.7	68.5681	3,137.7	71.478	3,137.7	68.703	3,137.7	70.4867	3,137.7	69.1181	3,137.7	68.3123	3,137.7	68.3665	3,137.7	67.1819
3,249.02	80.5851	3,249.02	81.8784	3,249.02	80.7746	3,249.02	82.9882	3,249.02	82.022	3,249.02	83.5705	3,249.02	83.01	3,249.02	83.0966	3,249.02	83.6516	3,249.02	81.8607	3,249.02	82.8558	3,249.02	80.7879	3,249.02	81.7848	3,249.02	79.2831	3,249.02	80.1489	3,249.02	76.5414	3,249.02	78.1918	3,249.02	75.064	3,249.02	76.7385	3,249.02	74.505	3,249.02	74.605	3,249.02	73.2908	3,249.02	74.2418	3,249.02	71.4903	3,249.02	72.0503	3,249.02	70.4856	3,249.02	70.7099	3,249.02	70.6577	3,249.02	70.9293	3,249.02	70.7006	3,249.02	69.7074	3,249.02	70.0781	3,249.02	70.5084	3,249.02	65.1926	3,249.02	68.4949	3,249.02	64.3559
3,363.28	81.3963	3,363.28	82.5246	3,363.28	81.2248	3,363.28	83.4011	3,363.28	83.1702	3,363.28	83.91	3,363.28	83.775	3,363.28	83.971	3,363.28	84.3112	3,363.28	82.188	3,363.28	82.9776	3,363.28	80.84	3,363.28	81.655	3,363.28	79.5475	3,363.28	79.6527	3,363.28	76.7378	3,363.28	77.8848	3,363.28	74.7877	3,363.28	75.9653	3,363.28	74.3377	3,363.28	73.7026	3,363.28	73.1287	3,363.28	74.4436	3,363.28	72.0141	3,363.28	72.9059	3,363.28	71.0401	3,363.28	71.1563	3,363.28	69.6999	3,363.28	69.5566	3,363.28	69.8768	3,363.28	69.5721	3,363.28	67.8167	3,363.28	69.156	3,363.28	66.9822	3,363.28	64.5145	3,363.28	67.5877
3,481.93	81.8309	3,481.93	83.1239	3,481.93	81.7856	3,481.93	84.5852	3,481.93	83.3197	3,481.93	85.0102	3,481.93	84.2895	3,481.93	84.281	3,481.93	84.0283	3,481.93	82.2903	3,481.93	82.9703	3,481.93	80.9119	3,481.93	81.8756	3,481.93	79.6449	3,481.93	80.2061	3,481.93	77.3738	3,481.93	78.3019	3,481.93	74.775	3,481.93	76.5305	3,481.93	73.7984	3,481.93	73.8442	3,481.93	74.0649	3,481.93	72.4831	3,481.93	71.7661	3,481.93	71.7588	3,481.93	71.9972	3,481.93	69.8643	3,481.93	71.2851	3,481.93	68.4001	3,481.93	68.9243	3,481.93	70.0325	3,481.93	66.7832	3,481.93	69.8882	3,481.93	66.7776	3,481.93	68.249	3,481.93	68.0397
3,604.98	82.5589	3,604.98	83.2462	3,604.98	82.7359	3,604.98	84.4106	3,604.98	83.7073	3,604.98	84.9334	3,604.98	85.0678	3,604.98	84.115	3,604.98	84.9753	3,604.98	82.5841	3,604.98	84.6178	3,604.98	80.3705	3,604.98	83.1439	3,604.98	78.8679	3,604.98	81.2821	3,604.98	76.9814	3,604.98	79.6605	3,604.98	75.2355	3,604.98	77.9087	3,604.98	74.1373	3,604.98	75.6827	3,604.98	73.3633	3,604.98	73.6934	3,604.98	71.4369	3,604.98	73.5815	3,604.98	71.8345	3,604.98	72.7158	3,604.98	71.921	3,604.98	72.6212	3,604.98	71.0657	3,604.98	72.0923	3,604.98	66.6082	3,604.98	70.1905	3,604.98	65.2484	3,604.98	66.8379	3,604.98	66.4948
3,732.42	82.8193	3,732.42	83.5104	3,732.42	83.8939	3,732.42	84.9747	3,732.42	84.4732	3,732.42	85.4895	3,732.42	85.5012	3,732.42	83.9865	3,732.42	85.2569	3,732.42	83.2191	3,732.42	84.5792	3,732.42	81.2128	3,732.42	83.2099	3,732.42	79.6526	3,732.42	81.0666	3,732.42	77.7662	3,732.42	79.1191	3,732.42	75.5205	3,732.42	77.6332	3,732.42	74.0809	3,732.42	75.559	3,732.42	73.4731	3,732.42	73.8528	3,732.42	71.8544	3,732.42	73.2573	3,732.42	70.3686	3,732.42	71.6638	3,732.42	72.0094	3,732.42	71.9493	3,732.42	72.4047	3,732.42	72.1601	3,732.42	68.3047	3,732.42	71.2614	3,732.42	59.4815	3,732.42	67.0056	3,732.42	63.7992
3,864.26	79.7715	3,864.26	81.141	3,864.26	80.8687	3,864.26	83.0545	3,864.26	82.6142	3,864.26	83.5858	3,864.26	84.2586	3,864.26	82.9982	3,864.26	84.2425	3,864.26	82.194	3,864.26	83.4532	3,864.26	80.4304	3,864.26	81.2034	3,864.26	78.9477	3,864.26	79.8416	3,864.26	76.9145	3,864.26	78.2603	3,864.26	75.6807	3,864.26	76.2786	3,864.26	73.2317	3,864.26	74.7232	3,864.26	73.8412	3,864.26	72.0054	3,864.26	71.5417	3,864.26	72.0846	3,864.26	67.3871	3,864.26	71.5954	3,864.26	70.6674	3,864.26	68.955	3,864.26	71.5273	3,864.26	69.8842	3,864.26	68.5652	3,864.26	69.6714	3,864.26	57.6126	3,864.26	63.5751	3,864.26	54.2203
4,000.49	76.6422	4,000.49	79.6496	4,000.49	76.6878	4,000.49	80.9459	4,000.49	81.0325	4,000.49	81.7144	4,000.49	82.7549	4,000.49	82.179	4,000.49	83.1849	4,000.49	81.1187	4,000.49	82.2214	4,000.49	79.2535	4,000.49	80.3421	4,000.49	77.1039	4,000.49	79.8927	4,000.49	75.04	4,000.49	77.6841	4,000.49	73.4295	4,000.49	75.4187	4,000.49	71.671	4,000.49	75.1028	4,000.49	71.1926	4,000.49	72.8691	4,000.49	70.861	4,000.49	72.7378	4,000.49	66.1598	4,000.49	71.7697	4,000.49	63.0958	4,000.49	68.6086	4,000.49	68.4596	4,000.49	69.7782	4,000.49	66.2092	4,000.49	69.8407	4,000.49	62.1886	4,000.49	64.7331	4,000.49	60.8633
4,141.11	78.2755	4,141.11	80.1017	4,141.11	78.2186	4,141.11	81.3945	4,141.11	79.5146	4,141.11	81.769	4,141.11	81.7405	4,141.11	81.7763	4,141.11	81.2752	4,141.11	81.1141	4,141.11	80.3515	4,141.11	80.0839	4,141.11	80.4261	4,141.11	77.7327	4,141.11	80.0443	4,141.11	77.5745	4,141.11	77.5356	4,141.11	73.8786	4,141.11	76.5811	4,141.11	73.0579	4,141.11	74.432	4,141.11	69.016	4,141.11	72.9903	4,141.11	71.3558	4,141.11	70.9025	4,141.11	69.0189	4,141.11	71.8436	4,141.11	67.5902	4,141.11	69.9319	4,141.11	67.2201	4,141.11	68.4438	4,141.11	66.0275	4,141.11	68.7225	4,141.11	58.5545	4,141.11	65.058	4,141.11	57.3577
4,287.6	81.3107	4,287.6	80.3952	4,287.6	80.9374	4,287.6	82.0878	4,287.6	80.23	4,287.6	81.2093	4,287.6	80.9353	4,287.6	80.8049	4,287.6	81.2582	4,287.6	80.7576	4,287.6	80.7819	4,287.6	81.3015	4,287.6	81.1736	4,287.6	78.9136	4,287.6	80.7568	4,287.6	77.0601	4,287.6	78.3512	4,287.6	74.6657	4,287.6	77.3769	4,287.6	73.1685	4,287.6	74.22	4,287.6	73.6159	4,287.6	72.8499	4,287.6	71.2315	4,287.6	72.3362	4,287.6	73.5253	4,287.6	71.4129	4,287.6	70.6462	4,287.6	69.7001	4,287.6	68.7426	4,287.6	68.7716	4,287.6	67.7627	4,287.6	69.1478	4,287.6	53.8097	4,287.6	64.6456	4,287.6	52.4154
4,438.48	82.0138	4,438.48	81.9195	4,438.48	81.6967	4,438.48	80.7192	4,438.48	81.0894	4,438.48	81.5651	4,438.48	79.9462	4,438.48	81.3677	4,438.48	81.4186	4,438.48	82.1732	4,438.48	82.1269	4,438.48	80.7761	4,438.48	81.6094	4,438.48	78.4481	4,438.48	80.6886	4,438.48	76.6649	4,438.48	79.2854	4,438.48	75.3204	4,438.48	77.1544	4,438.48	74.5038	4,438.48	74.9434	4,438.48	71.9577	4,438.48	72.8254	4,438.48	70.4867	4,438.48	71.7795	4,438.48	70.119	4,438.48	69.6589	4,438.48	68.5945	4,438.48	70.2697	4,438.48	67.6717	4,438.48	69.7169	4,438.48	68.3129	4,438.48	69.0573	4,438.48	60.4439	4,438.48	65.6405	4,438.48	60.3646
4,595.21	82.6381	4,595.21	80.641	4,595.21	82.7391	4,595.21	80.0063	4,595.21	80.2972	4,595.21	80.8178	4,595.21	79.4926	4,595.21	83.5121	4,595.21	79.8104	4,595.21	83.062	4,595.21	80.7014	4,595.21	81.5639	4,595.21	81.4264	4,595.21	79.1819	4,595.21	80.027	4,595.21	77.758	4,595.21	78.6797	4,595.21	75.06	4,595.21	76.967	4,595.21	75.31	4,595.21	74.1832	4,595.21	70.6889	4,595.21	72.7746	4,595.21	69.1031	4,595.21	70.3497	4,595.21	68.8404	4,595.21	69.6111	4,595.21	66.7232	4,595.21	69.3755	4,595.21	68.4172	4,595.21	67.5841	4,595.21	67.7918	4,595.21	68.6379	4,595.21	55.8801	4,595.21	65.9321	4,595.21	59.4734
4,756.35	83.9084	4,756.35	82.4511	4,756.35	83.4676	4,756.35	82.1895	4,756.35	80.9549	4,756.35	83.4077	4,756.35	80.2312	4,756.35	84.4833	4,756.35	81.2415	4,756.35	83.6028	4,756.35	82.7765	4,756.35	82.3856	4,756.35	82.6754	4,756.35	80.2064	4,756.35	81.2748	4,756.35	77.7185	4,756.35	79.9811	4,756.35	74.9402	4,756.35	77.4566	4,756.35	71.4675	4,756.35	75.2384	4,756.35	72.8556	4,756.35	71.6144	4,756.35	71.1234	4,756.35	70.5523	4,756.35	71.3979	4,756.35	70.2115	4,756.35	70.2697	4,756.35	67.4	4,756.35	70.3627	4,756.35	67.62	4,756.35	66.278	4,756.35	68.9336	4,756.35	63.0575	4,756.35	67.359	4,756.35	53.9558
4,924.8	84.1637	4,924.8	83.0032	4,924.8	83.2112	4,924.8	81.5186	4,924.8	81.3379	4,924.8	84.0817	4,924.8	79.6515	4,924.8	84.4561	4,924.8	82.8227	4,924.8	84.2593	4,924.8	84.4453	4,924.8	83.1602	4,924.8	83.4473	4,924.8	81.9268	4,924.8	80.7189	4,924.8	78.5486	4,924.8	80.5579	4,924.8	77.0906	4,924.8	76.3169	4,924.8	73.0497	4,924.8	74.5431	4,924.8	72.3244	4,924.8	72.7922	4,924.8	70.4698	4,924.8	69.2482	4,924.8	69.0048	4,924.8	69.5543	4,924.8	73.219	4,924.8	69.3048	4,924.8	69.1009	4,924.8	69.6435	4,924.8	68.821	4,924.8	69.781	4,924.8	59.9199	4,924.8	67.1838	4,924.8	39.3065
5,097.66	84.4904	5,097.66	83.5897	5,097.66	84.3804	5,097.66	82.6788	5,097.66	82.3286	5,097.66	83.3832	5,097.66	82.5211	5,097.66	84.6756	5,097.66	83.2472	5,097.66	83.7799	5,097.66	84.101	5,097.66	81.9786	5,097.66	83.3885	5,097.66	79.2737	5,097.66	80.8623	5,097.66	77.139	5,097.66	77.4962	5,097.66	75.1899	5,097.66	76.2628	5,097.66	75.7194	5,097.66	73.7884	5,097.66	71.6184	5,097.66	71.8875	5,097.66	69.646	5,097.66	71.3474	5,097.66	68.518	5,097.66	69.4766	5,097.66	68.6796	5,097.66	70.4865	5,097.66	68.4729	5,097.66	70.1214	5,097.66	67.8935	5,097.66	67.9738	5,097.66	58.9807	5,097.66	65.438	5,097.66	55.1735
5,277.83	84.7359	5,277.83	84.4999	5,277.83	84.5977	5,277.83	84.3014	5,277.83	83.4409	5,277.83	85.4471	5,277.83	83.1178	5,277.83	85.8458	5,277.83	84.1378	5,277.83	84.8944	5,277.83	84.0476	5,277.83	82.6351	5,277.83	82.2437	5,277.83	79.8413	5,277.83	78.5526	5,277.83	78.3042	5,277.83	77.9362	5,277.83	74.7435	5,277.83	74.3835	5,277.83	72.3784	5,277.83	73.9193	5,277.83	71.1633	5,277.83	70.069	5,277.83	70.9555	5,277.83	69.1999	5,277.83	72.5142	5,277.83	68.5635	5,277.83	70.9638	5,277.83	68.2375	5,277.83	71.0087	5,277.83	68.2549	5,277.83	66.9216	5,277.83	67.7292	5,277.83	61.642	5,277.83	66.619	5,277.83	51.1936
5,463.87	84.4805	5,463.87	84.1634	5,463.87	84.0282	5,463.87	84.9987	5,463.87	84.0401	5,463.87	85.4139	5,463.87	84.1481	5,463.87	84.6498	5,463.87	84.9346	5,463.87	83.4245	5,463.87	84.6554	5,463.87	81.8689	5,463.87	81.6447	5,463.87	81.1789	5,463.87	79.1826	5,463.87	77.3104	5,463.87	78.5627	5,463.87	76.1706	5,463.87	73.8148	5,463.87	69.9668	5,463.87	72.7187	5,463.87	70.4349	5,463.87	71.4436	5,463.87	71.5596	5,463.87	68.6121	5,463.87	71.7068	5,463.87	69.3007	5,463.87	73.1702	5,463.87	70.038	5,463.87	68.3202	5,463.87	69.5238	5,463.87	67.6249	5,463.87	67.4238	5,463.87	58.501	5,463.87	67.6262	5,463.87	53.2599
5,657.23	84.022	5,657.23	84.6689	5,657.23	83.8117	5,657.23	85.3448	5,657.23	83.882	5,657.23	85.3738	5,657.23	85.0085	5,657.23	84.9831	5,657.23	84.5113	5,657.23	83.7668	5,657.23	83.2771	5,657.23	82.0824	5,657.23	81.9617	5,657.23	79.5882	5,657.23	80.3821	5,657.23	76.9186	5,657.23	76.3646	5,657.23	73.8082	5,657.23	74.8065	5,657.23	73.9743	5,657.23	73.2037	5,657.23	71.0687	5,657.23	71.1506	5,657.23	71.5955	5,657.23	69.7626	5,657.23	70.8836	5,657.23	69.2629	5,657.23	71.6108	5,657.23	69.4586	5,657.23	69.3399	5,657.23	69.8117	5,657.23	67.7781	5,657.23	69.465	5,657.23	56.9733	5,657.23	66.6256	5,657.23	56.4606
5,856.45	84.5601	5,856.45	84.7169	5,856.45	84.765	5,856.45	84.6284	5,856.45	84.11	5,856.45	84.5726	5,856.45	84.4452	5,856.45	84.538	5,856.45	84.7073	5,856.45	83.3933	5,856.45	83.5005	5,856.45	81.8999	5,856.45	81.7785	5,856.45	77.8231	5,856.45	79.3063	5,856.45	78.3428	5,856.45	78.6104	5,856.45	74.6566	5,856.45	75.9379	5,856.45	74.9467	5,856.45	72.7626	5,856.45	73.2873	5,856.45	71.9979	5,856.45	71.6748	5,856.45	68.4704	5,856.45	73.13	5,856.45	69.5534	5,856.45	72.647	5,856.45	65.7225	5,856.45	70.4951	5,856.45	69.9632	5,856.45	64.3865	5,856.45	63.2236	5,856.45	58.6909	5,856.45	64.6855	5,856.45	59.2278
6,062.99	84.7428	6,062.99	85.2109	6,062.99	84.3267	6,062.99	85.1153	6,062.99	85.1288	6,062.99	85.3118	6,062.99	84.6132	6,062.99	85.2217	6,062.99	84.5015	6,062.99	84.4668	6,062.99	83.7641	6,062.99	83.591	6,062.99	82.5939	6,062.99	81.9411	6,062.99	82.0454	6,062.99	78.9385	6,062.99	79.3901	6,062.99	76.5202	6,062.99	77.0365	6,062.99	72.9276	6,062.99	74.7015	6,062.99	70.5648	6,062.99	72.1144	6,062.99	70.9015	6,062.99	69.9333	6,062.99	70.6877	6,062.99	66.4326	6,062.99	70.6654	6,062.99	69.0337	6,062.99	67.8306	6,062.99	69.1451	6,062.99	66.3554	6,062.99	67.7573	6,062.99	60.9665	6,062.99	65.0694	6,062.99	62.3916
6,276.86	83.5634	6,276.86	85.2343	6,276.86	84.449	6,276.86	85.2318	6,276.86	85.5494	6,276.86	84.4813	6,276.86	85.6617	6,276.86	83.8995	6,276.86	83.298	6,276.86	83.269	6,276.86	82.0938	6,276.86	82.2829	6,276.86	82.4733	6,276.86	81.1159	6,276.86	81.7002	6,276.86	78.572	6,276.86	78.8559	6,276.86	76.2948	6,276.86	77.0404	6,276.86	74.1918	6,276.86	74.6038	6,276.86	72.1098	6,276.86	71.8514	6,276.86	71.0729	6,276.86	70.7134	6,276.86	63.5968	6,276.86	67.5885	6,276.86	72.164	6,276.86	69.0783	6,276.86	68.4013	6,276.86	69.8739	6,276.86	62.3333	6,276.86	67.7162	6,276.86	62.8804	6,276.86	64.6064	6,276.86	62.9975
6,498.05	84.3121	6,498.05	86.2756	6,498.05	84.5387	6,498.05	86.0855	6,498.05	86.6193	6,498.05	84.3571	6,498.05	85.5398	6,498.05	83.883	6,498.05	83.9683	6,498.05	83.0546	6,498.05	83.6428	6,498.05	83.0254	6,498.05	83.081	6,498.05	80.5675	6,498.05	81.6691	6,498.05	78.2842	6,498.05	80.3659	6,498.05	75.6807	6,498.05	77.5865	6,498.05	73.1408	6,498.05	74.728	6,498.05	73.014	6,498.05	73.295	6,498.05	71.0657	6,498.05	69.8178	6,498.05	65.1495	6,498.05	68.8537	6,498.05	66.4431	6,498.05	68.3427	6,498.05	66.4429	6,498.05	68.7972	6,498.05	59.031	6,498.05	67.4067	6,498.05	62.6214	6,498.05	62.7134	6,498.05	63.7182
6,726.56	83.7221	6,726.56	86.3999	6,726.56	84.4481	6,726.56	85.9573	6,726.56	86.8496	6,726.56	83.7202	6,726.56	85.1058	6,726.56	83.326	6,726.56	82.6908	6,726.56	84.45	6,726.56	83.7708	6,726.56	82.3883	6,726.56	83.8011	6,726.56	80.1765	6,726.56	82.3626	6,726.56	78.1975	6,726.56	80.2893	6,726.56	75.8835	6,726.56	77.1994	6,726.56	71.9598	6,726.56	75.8638	6,726.56	71.8886	6,726.56	72.5061	6,726.56	67.1293	6,726.56	70.8974	6,726.56	68.2679	6,726.56	69.5067	6,726.56	67.8956	6,726.56	70.4243	6,726.56	69.706	6,726.56	70.0307	6,726.56	63.8635	6,726.56	68.8594	6,726.56	66.0251	6,726.56	61.1092	6,726.56	65.743
6,963.87	84.0154	6,963.87	85.5973	6,963.87	85.2497	6,963.87	85.677	6,963.87	86.0046	6,963.87	84.0278	6,963.87	85.238	6,963.87	83.6444	6,963.87	83.8445	6,963.87	82.7567	6,963.87	84.1964	6,963.87	81.1002	6,963.87	83.4185	6,963.87	77.7363	6,963.87	80.6376	6,963.87	75.4981	6,963.87	79.4827	6,963.87	71.588	6,963.87	74.9142	6,963.87	68.8555	6,963.87	73.3606	6,963.87	63.2832	6,963.87	70.0161	6,963.87	68.4142	6,963.87	70.4001	6,963.87	64.4964	6,963.87	68.4171	6,963.87	65.7992	6,963.87	66.5082	6,963.87	65.8029	6,963.87	66.7949	6,963.87	60.5021	6,963.87	65.0761	6,963.87	68.4907	6,963.87	62.4109	6,963.87	65.2693
7,209.96	85.5648	7,209.96	86.0445	7,209.96	84.9042	7,209.96	85.149	7,209.96	85.774	7,209.96	84.4034	7,209.96	85.0167	7,209.96	84.1316	7,209.96	85.4131	7,209.96	82.3032	7,209.96	85.4456	7,209.96	80.3013	7,209.96	83.646	7,209.96	77.4496	7,209.96	80.7648	7,209.96	74.698	7,209.96	77.8633	7,209.96	72.8254	7,209.96	74.2803	7,209.96	67.5542	7,209.96	71.7934	7,209.96	67.8691	7,209.96	70.9715	7,209.96	68.5178	7,209.96	68.2681	7,209.96	68.8066	7,209.96	68.4621	7,209.96	68.8047	7,209.96	68.2129	7,209.96	69.4893	7,209.96	69.6049	7,209.96	63.952	7,209.96	69.9928	7,209.96	67.0249	7,209.96	63.6937	7,209.96	65.7913
7,464.84	84.1774	7,464.84	85.0838	7,464.84	83.918	7,464.84	85.161	7,464.84	84.9343	7,464.84	84.5761	7,464.84	84.9017	7,464.84	84.3945	7,464.84	84.4482	7,464.84	82.2733	7,464.84	83.8595	7,464.84	79.1239	7,464.84	81.8452	7,464.84	77.6475	7,464.84	79.2285	7,464.84	72.5824	7,464.84	75.6895	7,464.84	73.3467	7,464.84	72.7237	7,464.84	66.6656	7,464.84	70.5715	7,464.84	67.4109	7,464.84	65.943	7,464.84	67.7779	7,464.84	68.2628	7,464.84	68.3217	7,464.84	65.7482	7,464.84	68.0169	7,464.84	66.1669	7,464.84	67.4354	7,464.84	67.5431	7,464.84	62.3151	7,464.84	66.8658	7,464.84	67.4675	7,464.84	62.7453	7,464.84	65.0683
7,727.05	84.3733	7,727.05	85.1436	7,727.05	84.1642	7,727.05	86.0328	7,727.05	84.863	7,727.05	86.2665	7,727.05	85.3518	7,727.05	83.7695	7,727.05	86.1703	7,727.05	80.817	7,727.05	84.3789	7,727.05	78.9144	7,727.05	81.9497	7,727.05	76.9539	7,727.05	78.3021	7,727.05	73.8606	7,727.05	75.6362	7,727.05	71.0365	7,727.05	72.9279	7,727.05	69.2509	7,727.05	71.1341	7,727.05	68.8891	7,727.05	68.0999	7,727.05	67.8507	7,727.05	67.8272	7,727.05	69.0294	7,727.05	62.869	7,727.05	68.9348	7,727.05	67.6648	7,727.05	69.7665	7,727.05	67.6876	7,727.05	63.116	7,727.05	67.3914	7,727.05	64.55	7,727.05	60.9994	7,727.05	66.2363
7,999.51	83.9713	7,999.51	83.3182	7,999.51	84.0844	7,999.51	85.9686	7,999.51	82.8046	7,999.51	86.4174	7,999.51	84.971	7,999.51	83.838	7,999.51	85.6616	7,999.51	81.4968	7,999.51	82.6058	7,999.51	79.6317	7,999.51	79.0979	7,999.51	77.5527	7,999.51	77.197	7,999.51	76.2856	7,999.51	74.987	7,999.51	72.0891	7,999.51	72.6873	7,999.51	71.8589	7,999.51	70.1694	7,999.51	69.9542	7,999.51	67.3648	7,999.51	68.8436	7,999.51	62.3787	7,999.51	68.0462	7,999.51	66.1469	7,999.51	70.1225	7,999.51	65.5759	7,999.51	69.6812	7,999.51	66.521	7,999.51	62.6483	7,999.51	66.7819	7,999.51	64.473	7,999.51	58.5254	7,999.51	65.3062
8,282.23	84.8895	8,282.23	83.5444	8,282.23	84.8095	8,282.23	86.029	8,282.23	83.1515	8,282.23	86.5884	8,282.23	85.6703	8,282.23	84.2806	8,282.23	85.2552	8,282.23	82.6376	8,282.23	81.6296	8,282.23	81.624	8,282.23	79.6847	8,282.23	78.1356	8,282.23	78.6804	8,282.23	76.027	8,282.23	76.7866	8,282.23	72.0472	8,282.23	72.6113	8,282.23	71.1496	8,282.23	70.1107	8,282.23	69.4044	8,282.23	66.8652	8,282.23	67.3657	8,282.23	66.0694	8,282.23	67.1285	8,282.23	61.1561	8,282.23	67.7225	8,282.23	64.5638	8,282.23	68.5963	8,282.23	65.4052	8,282.23	61.2257	8,282.23	67.0759	8,282.23	63.2689	8,282.23	56.4469	8,282.23	64.2143
8,573.73	85.0844	8,573.73	84.1879	8,573.73	84.451	8,573.73	85.7564	8,573.73	84.2567	8,573.73	85.6592	8,573.73	85.1039	8,573.73	84.7041	8,573.73	83.5179	8,573.73	83.0091	8,573.73	81.188	8,573.73	80.5271	8,573.73	80.2304	8,573.73	77.8601	8,573.73	78.1248	8,573.73	74.3358	8,573.73	75.0474	8,573.73	70.6303	8,573.73	70.298	8,573.73	69.0056	8,573.73	66.3286	8,573.73	67.2891	8,573.73	64.1285	8,573.73	65.915	8,573.73	60.5106	8,573.73	64.8079	8,573.73	60.7833	8,573.73	67.1391	8,573.73	61.4862	8,573.73	67.9043	8,573.73	63.2206	8,573.73	58.2606	8,573.73	64.7514	8,573.73	60.9754	8,573.73	57.6587	8,573.73	62.8634
8,876.95	84.9208	8,876.95	84.0108	8,876.95	84.6703	8,876.95	84.8849	8,876.95	84.5697	8,876.95	85.4715	8,876.95	84.7938	8,876.95	84.3542	8,876.95	83.8036	8,876.95	82.1547	8,876.95	82.5945	8,876.95	79.1512	8,876.95	80.5122	8,876.95	74.8516	8,876.95	76.6078	8,876.95	70.5424	8,876.95	71.7651	8,876.95	69.3253	8,876.95	64.3698	8,876.95	65.6336	8,876.95	61.1726	8,876.95	64.2451	8,876.95	61.4641	8,876.95	61.7355	8,876.95	60.1837	8,876.95	65.0617	8,876.95	57.3049	8,876.95	66.3801	8,876.95	57.8889	8,876.95	66.4229	8,876.95	63.367	8,876.95	58.8223	8,876.95	64.6652	8,876.95	58.9472	8,876.95	58.2227	8,876.95	59.2096
9,188.96	84.6519	9,188.96	84.6131	9,188.96	84.4529	9,188.96	84.6746	9,188.96	84.7381	9,188.96	84.384	9,188.96	83.5409	9,188.96	83.9596	9,188.96	83.1424	9,188.96	81.9928	9,188.96	82.4572	9,188.96	77.3199	9,188.96	79.188	9,188.96	72.5343	9,188.96	72.4622	9,188.96	68.7053	9,188.96	64.4169	9,188.96	64.7652	9,188.96	60.0648	9,188.96	65.6242	9,188.96	60.5016	9,188.96	62.942	9,188.96	56.8266	9,188.96	63.7628	9,188.96	52.9369	9,188.96	64.7837	9,188.96	59.5653	9,188.96	65.7461	9,188.96	58.4689	9,188.96	65.481	9,188.96	60.3858	9,188.96	59.9296	9,188.96	62.6241	9,188.96	57.9567	9,188.96	59.4486	9,188.96	55.1023
9,514.16	84.9612	9,514.16	85.0544	9,514.16	85.1619	9,514.16	84.0687	9,514.16	84.8141	9,514.16	84.4471	9,514.16	83.2497	9,514.16	84.6427	9,514.16	83.5986	9,514.16	81.2617	9,514.16	82.9933	9,514.16	75.8494	9,514.16	77.8867	9,514.16	71.6135	9,514.16	70.9009	9,514.16	68.956	9,514.16	65.7341	9,514.16	66.3889	9,514.16	65.4291	9,514.16	63.8858	9,514.16	62.1986	9,514.16	61.6153	9,514.16	60.349	9,514.16	62.1026	9,514.16	57.7857	9,514.16	61.7902	9,514.16	58.8389	9,514.16	65.4148	9,514.16	57.0064	9,514.16	65.1314	9,514.16	61.0383	9,514.16	57.4347	9,514.16	62.062	9,514.16	56.0453	9,514.16	59.6686	9,514.16	53.8289
9,849.61	85.1199	9,849.61	85.4413	9,849.61	85.006	9,849.61	83.5169	9,849.61	84.9024	9,849.61	84.4852	9,849.61	83.0628	9,849.61	84.7204	9,849.61	84.1064	9,849.61	80.7421	9,849.61	82.3425	9,849.61	76.9913	9,849.61	76.8728	9,849.61	74.6253	9,849.61	74.6853	9,849.61	70.2742	9,849.61	72.4954	9,849.61	67.1496	9,849.61	69.4962	9,849.61	63.4636	9,849.61	63.7907	9,849.61	61.1023	9,849.61	63.6737	9,849.61	60.7428	9,849.61	59.097	9,849.61	61.5726	9,849.61	60.2732	9,849.61	64.0128	9,849.61	58.4327	9,849.61	63.8403	9,849.61	59.5628	9,849.61	57.0121	9,849.61	61.0555	9,849.61	54.3787	9,849.61	58.5032	9,849.61	54.4987
10,196.8	85.7768	10,196.8	85.6387	10,196.8	85.9192	10,196.8	83.9578	10,196.8	85.2888	10,196.8	84.7199	10,196.8	83.967	10,196.8	83.7691	10,196.8	84.0414	10,196.8	80.8301	10,196.8	81.0633	10,196.8	78.6115	10,196.8	78.4084	10,196.8	74.9173	10,196.8	76.8594	10,196.8	71.4238	10,196.8	72.9658	10,196.8	66.7833	10,196.8	68.7086	10,196.8	64.4096	10,196.8	64.0223	10,196.8	61.1009	10,196.8	63.8552	10,196.8	60.5177	10,196.8	58.9186	10,196.8	60.8982	10,196.8	60.9421	10,196.8	62.6208	10,196.8	58.5741	10,196.8	62.4326	10,196.8	61.452	10,196.8	53.7076	10,196.8	56.7965	10,196.8	53.2367	10,196.8	55.2809	10,196.8	50.3448
10,555.7	86.5151	10,555.7	85.4487	10,555.7	86.2466	10,555.7	84.6597	10,555.7	84.9983	10,555.7	84.4938	10,555.7	84.5903	10,555.7	82.7926	10,555.7	83.3848	10,555.7	81.5788	10,555.7	81.2813	10,555.7	79.0859	10,555.7	80.1366	10,555.7	74.2258	10,555.7	76.1577	10,555.7	70.0668	10,555.7	70.8998	10,555.7	65.7475	10,555.7	65.9907	10,555.7	63.2923	10,555.7	62.6499	10,555.7	60.009	10,555.7	59.4441	10,555.7	57.9739	10,555.7	58.2197	10,555.7	60.2249	10,555.7	59.5435	10,555.7	61.9154	10,555.7	58.2247	10,555.7	59.9949	10,555.7	59.6359	10,555.7	53.4757	10,555.7	56.4573	10,555.7	51.5662	10,555.7	52.9963	10,555.7	48.6633
10,927.7	86.8223	10,927.7	85.3588	10,927.7	86.4274	10,927.7	85.3154	10,927.7	85.2302	10,927.7	84.0318	10,927.7	84.6762	10,927.7	83.0249	10,927.7	82.9198	10,927.7	81.6421	10,927.7	82.2729	10,927.7	77.9787	10,927.7	80.4456	10,927.7	72.0559	10,927.7	74.9931	10,927.7	67.7651	10,927.7	70.281	10,927.7	64.3084	10,927.7	67.2404	10,927.7	61.1814	10,927.7	63.7099	10,927.7	59.2225	10,927.7	60.3581	10,927.7	56.6992	10,927.7	56.7221	10,927.7	60.4499	10,927.7	59.1388	10,927.7	59.9626	10,927.7	57.6497	10,927.7	57.3047	10,927.7	59.3762	10,927.7	48.2715	10,927.7	52.818	10,927.7	44.458	10,927.7	49.9167	10,927.7	42.0151
11,313	87.1512	11,313	85.7014	11,313	86.829	11,313	85.3754	11,313	85.6286	11,313	83.3844	11,313	84.871	11,313	83.1599	11,313	82.786	11,313	81.1315	11,313	82.8279	11,313	76.2633	11,313	79.6653	11,313	71.8726	11,313	75.1176	11,313	69.0633	11,313	72.9657	11,313	64.5757	11,313	69.6104	11,313	61.7412	11,313	66.052	11,313	57.3182	11,313	62.7464	11,313	56.6633	11,313	57.67	11,313	58.4923	11,313	58.8998	11,313	58.4743	11,313	58.1667	11,313	55.4681	11,313	59.0283	11,313	42.4315	11,313	50.9582	11,313	45.7424	11,313	47.1075	11,313	43.6751
11,712.9	87.0938	11,712.9	86.4055	11,712.9	87.064	11,712.9	85.1173	11,712.9	86.0195	11,712.9	83.723	11,712.9	84.7515	11,712.9	82.905	11,712.9	83.2197	11,712.9	79.9279	11,712.9	82.0496	11,712.9	76.3779	11,712.9	78.8872	11,712.9	72.9556	11,712.9	76.538	11,712.9	69.5582	11,712.9	73.5246	11,712.9	64.9261	11,712.9	69.1942	11,712.9	61.5312	11,712.9	64.9799	11,712.9	56.6971	11,712.9	62.3005	11,712.9	56.2073	11,712.9	58.4059	11,712.9	56.7769	11,712.9	56.8246	11,712.9	56.909	11,712.9	58.0617	11,712.9	53.8045	11,712.9	57.7586	11,712.9	46.2703	11,712.9	44.9071	11,712.9	45.8892	11,712.9	40.7378	11,712.9	45.6987
12,126	87.1805	12,126	86.594	12,126	87.2165	12,126	85.1143	12,126	86.3188	12,126	84.1742	12,126	84.9015	12,126	82.2994	12,126	83.702	12,126	79.3604	12,126	81.2023	12,126	76.5925	12,126	78.9481	12,126	72.2731	12,126	76.0231	12,126	67.6893	12,126	71.4443	12,126	63.4463	12,126	66.1533	12,126	59.5565	12,126	61.8375	12,126	55.1503	12,126	59.1925	12,126	54.1195	12,126	57.9258	12,126	53.0012	12,126	55.5713	12,126	56.3629	12,126	57.2097	12,126	51.9194	12,126	55.875	12,126	48.504	12,126	49.3997	12,126	46.181	12,126	43.9257	12,126	48.813
12,553.7	87.2987	12,553.7	86.6606	12,553.7	87.1414	12,553.7	85.1316	12,553.7	86.3511	12,553.7	84.1459	12,553.7	85.125	12,553.7	81.739	12,553.7	83.7625	12,553.7	79.0793	12,553.7	81.1424	12,553.7	75.6441	12,553.7	78.7233	12,553.7	70.1091	12,553.7	74.0243	12,553.7	64.9559	12,553.7	68.9188	12,553.7	59.9281	12,553.7	64.5841	12,553.7	58.0429	12,553.7	60.6316	12,553.7	53.2761	12,553.7	57.205	12,553.7	52.0421	12,553.7	56.6578	12,553.7	53.2583	12,553.7	52.421	12,553.7	54.6317	12,553.7	54.4911	12,553.7	49.4497	12,553.7	56.1207	12,553.7	47.0676	12,553.7	53.5025	12,553.7	49.6616	12,553.7	46.1482	12,553.7	49.4462
12,996.1	87.1172	12,996.1	86.4938	12,996.1	86.9622	12,996.1	85.204	12,996.1	86.0874	12,996.1	83.7676	12,996.1	85.0429	12,996.1	81.2472	12,996.1	83.2622	12,996.1	78.6471	12,996.1	80.9578	12,996.1	73.7641	12,996.1	77.7459	12,996.1	67.7875	12,996.1	71.3937	12,996.1	64.7561	12,996.1	68.6263	12,996.1	60.4985	12,996.1	65.4041	12,996.1	58.4502	12,996.1	61.405	12,996.1	54.0434	12,996.1	57.9651	12,996.1	53.5396	12,996.1	54.8293	12,996.1	53.2486	12,996.1	52.632	12,996.1	55.7911	12,996.1	52.132	12,996.1	47.9877	12,996.1	56.9807	12,996.1	46.2211	12,996.1	53.875	12,996.1	51.5096	12,996.1	47.1596	12,996.1	50.4813
13,454.6	86.9687	13,454.6	86.0711	13,454.6	86.8275	13,454.6	85.0222	13,454.6	85.3758	13,454.6	82.9197	13,454.6	84.499	13,454.6	80.313	13,454.6	82.5159	13,454.6	76.9131	13,454.6	80.2028	13,454.6	72.1936	13,454.6	75.2997	13,454.6	69.5032	13,454.6	69.7183	13,454.6	66.0439	13,454.6	69.3309	13,454.6	63.1754	13,454.6	65.8509	13,454.6	57.4868	13,454.6	61.8376	13,454.6	56.7064	13,454.6	58.1874	13,454.6	53.8327	13,454.6	55.0085	13,454.6	54.6535	13,454.6	47.412	13,454.6	54.3221	13,454.6	48.4609	13,454.6	46.9179	13,454.6	57.6101	13,454.6	48.6121	13,454.6	53.4024	13,454.6	53.7486	13,454.6	48.1569	13,454.6	52.5399
13,929.2	87.1707	13,929.2	85.8782	13,929.2	86.9211	13,929.2	84.7394	13,929.2	84.745	13,929.2	82.2469	13,929.2	83.4986	13,929.2	79.7983	13,929.2	81.8442	13,929.2	74.6258	13,929.2	78.8927	13,929.2	72.2269	13,929.2	72.2124	13,929.2	70.7929	13,929.2	69.8212	13,929.2	66.5445	13,929.2	67.5358	13,929.2	63.6115	13,929.2	65.1658	13,929.2	55.2118	13,929.2	61.9049	13,929.2	55.9271	13,929.2	57.4417	13,929.2	53.3004	13,929.2	55.3692	13,929.2	53.7329	13,929.2	40.3965	13,929.2	51.0976	13,929.2	52.6483	13,929.2	48.349	13,929.2	57.3114	13,929.2	50.7458	13,929.2	52.8549	13,929.2	52.7795	13,929.2	49.747	13,929.2	52.4405
14,419.9	87.5263	14,419.9	85.9466	14,419.9	87.3025	14,419.9	84.4229	14,419.9	84.8036	14,419.9	82.2009	14,419.9	82.2276	14,419.9	78.9618	14,419.9	81.353	14,419.9	72.2883	14,419.9	76.8683	14,419.9	71.9383	14,419.9	71.1357	14,419.9	69.1529	14,419.9	71.4929	14,419.9	64.2676	14,419.9	69.4016	14,419.9	60.3626	14,419.9	66.5027	14,419.9	53.4041	14,419.9	62.1389	14,419.9	50.5373	14,419.9	59.69	14,419.9	52.8841	14,419.9	54.1416	14,419.9	51.2545	14,419.9	55.9598	14,419.9	52.3912	14,419.9	57.5166	14,419.9	52.1247	14,419.9	57.7538	14,419.9	53.1908	14,419.9	52.5177	14,419.9	49.7158	14,419.9	51.1817	14,419.9	52.6046
14,928.2	88.1205	14,928.2	86.1341	14,928.2	87.8834	14,928.2	83.9644	14,928.2	85.3888	14,928.2	82.556	14,928.2	81.529	14,928.2	76.7752	14,928.2	80.114	14,928.2	71.0454	14,928.2	74.1001	14,928.2	67.3598	14,928.2	72.9209	14,928.2	63.6449	14,928.2	73.6044	14,928.2	61.8338	14,928.2	73.5937	14,928.2	57.5107	14,928.2	70.2583	14,928.2	56.6786	14,928.2	65.9798	14,928.2	52.1024	14,928.2	63.4475	14,928.2	51.4873	14,928.2	57.2985	14,928.2	51.4386	14,928.2	61.2056	14,928.2	55.3354	14,928.2	60.8405	14,928.2	52.3442	14,928.2	57.9749	14,928.2	52.6601	14,928.2	46.9467	14,928.2	51.7709	14,928.2	50.5873	14,928.2	50.8404
15,455.6	88.4498	15,455.6	85.9595	15,455.6	88.3527	15,455.6	82.9084	15,455.6	85.9229	15,455.6	82.3163	15,455.6	81.1113	15,455.6	73.6233	15,455.6	79.6238	15,455.6	67.2739	15,455.6	73.6876	15,455.6	67.098	15,455.6	74.4288	15,455.6	69.4585	15,455.6	76.4014	15,455.6	66.6655	15,455.6	76.1836	15,455.6	60.7765	15,455.6	71.8077	15,455.6	60.7425	15,455.6	68.0904	15,455.6	56.2924	15,455.6	64.8257	15,455.6	54.2386	15,455.6	60.7277	15,455.6	56.5897	15,455.6	63.4429	15,455.6	57.3106	15,455.6	61.1503	15,455.6	53.7122	15,455.6	55.3553	15,455.6	51.7901	15,455.6	28.7692	15,455.6	56.1662	15,455.6	49.7944	15,455.6	48.2645
16,000.5	88.5629	16,000.5	85.3468	16,000.5	88.5009	16,000.5	81.3057	16,000.5	85.9004	16,000.5	80.7124	16,000.5	80.1033	16,000.5	72.6592	16,000.5	78.5318	16,000.5	65.6458	16,000.5	74.4549	16,000.5	74.1348	16,000.5	75.5532	16,000.5	72.1112	16,000.5	77.1845	16,000.5	68.3255	16,000.5	76.2848	16,000.5	63.0084	16,000.5	71.4727	16,000.5	62.4842	16,000.5	67.3149	16,000.5	58.2916	16,000.5	64.3944	16,000.5	57.6148	16,000.5	61.2248	16,000.5	59.0473	16,000.5	63.1542	16,000.5	57.5868	16,000.5	59.4158	16,000.5	50.5959	16,000.5	50.2205	16,000.5	52.5346	16,000.5	48.3446	16,000.5	56.4011	16,000.5	48.557	16,000.5	43.4659
16,564.5	88.4511	16,564.5	84.2108	16,564.5	88.7106	16,564.5	78.3622	16,564.5	85.6883	16,564.5	77.6166	16,564.5	78.9242	16,564.5	68.6855	16,564.5	76.1806	16,564.5	72.5794	16,564.5	73.8453	16,564.5	75.4348	16,564.5	77.0995	16,564.5	73.1557	16,564.5	76.0221	16,564.5	69.2637	16,564.5	75.0838	16,564.5	63.3854	16,564.5	70.8346	16,564.5	62.8751	16,564.5	65.0904	16,564.5	59.2466	16,564.5	63.8421	16,564.5	58.3635	16,564.5	60.4765	16,564.5	57.7595	16,564.5	61.312	16,564.5	54.978	16,564.5	57.301	16,564.5	46.8452	16,564.5	49.3244	16,564.5	54.0303	16,564.5	49.4913	16,564.5	52.7957	16,564.5	47.7788	16,564.5	38.3912
17,148.9	88.4043	17,148.9	83.0601	17,148.9	88.7948	17,148.9	73.3219	17,148.9	85.4418	17,148.9	73.7933	17,148.9	75.7568	17,148.9	58.4787	17,148.9	73.8999	17,148.9	74.0773	17,148.9	71.6618	17,148.9	75.5978	17,148.9	76.2569	17,148.9	74.0126	17,148.9	75.1576	17,148.9	69.8901	17,148.9	75.3033	17,148.9	64.8354	17,148.9	71.3148	17,148.9	61.8175	17,148.9	64.4709	17,148.9	59.0846	17,148.9	63.6899	17,148.9	58.8148	17,148.9	61.2693	17,148.9	57.2059	17,148.9	59.4988	17,148.9	53.9858	17,148.9	56.4893	17,148.9	47.8417	17,148.9	50.8986	17,148.9	55.9745	17,148.9	51.3412	17,148.9	43.191	17,148.9	48.6614	17,148.9	47.4195
17,752.4	88.2487	17,752.4	82.3197	17,752.4	88.7699	17,752.4	59.1524	17,752.4	85.1515	17,752.4	72.2059	17,752.4	73.9071	17,752.4	64.8317	17,752.4	69.0967	17,752.4	73.1733	17,752.4	69.2227	17,752.4	75.3641	17,752.4	75.3565	17,752.4	72.9034	17,752.4	75.4258	17,752.4	67.6648	17,752.4	74.1797	17,752.4	63.5387	17,752.4	70.0891	17,752.4	57.8232	17,752.4	64.3127	17,752.4	59.07	17,752.4	62.1501	17,752.4	57.5568	17,752.4	61.1934	17,752.4	57.7877	17,752.4	59.298	17,752.4	53.1807	17,752.4	53.8712	17,752.4	44.1215	17,752.4	50.8783	17,752.4	55.839	17,752.4	47.8648	17,752.4	44.5788	17,752.4	48.5016	17,752.4	48.7289
18,379.4	87.7952	18,379.4	81.5185	18,379.4	88.3745	18,379.4	67.4734	18,379.4	84.5925	18,379.4	72.4759	18,379.4	73.6303	18,379.4	66.8764	18,379.4	60.9106	18,379.4	73.3138	18,379.4	67.8269	18,379.4	74.2875	18,379.4	74.5396	18,379.4	70.845	18,379.4	74.363	18,379.4	65.8803	18,379.4	72.406	18,379.4	60.5918	18,379.4	69.4484	18,379.4	56.7849	18,379.4	64.5165	18,379.4	57.4293	18,379.4	60.8717	18,379.4	55.8284	18,379.4	61.0564	18,379.4	56.4339	18,379.4	56.3554	18,379.4	53.0677	18,379.4	53.0134	18,379.4	44.454	18,379.4	53.7804	18,379.4	54.7445	18,379.4	37.5555	18,379.4	34.1346	18,379.4	47.6573	18,379.4	45.3409
19,026.9	86.8649	19,026.9	80.8487	19,026.9	87.7467	19,026.9	72.1758	19,026.9	83.8995	19,026.9	72.9601	19,026.9	75.4872	19,026.9	68.6683	19,026.9	54.4999	19,026.9	73.2684	19,026.9	63.4201	19,026.9	71.6485	19,026.9	73.5869	19,026.9	69.825	19,026.9	73.5236	19,026.9	65.5909	19,026.9	72.3445	19,026.9	59.0953	19,026.9	69.0825	19,026.9	56.0283	19,026.9	63.6086	19,026.9	54.479	19,026.9	61.2314	19,026.9	51.2249	19,026.9	59.2826	19,026.9	53.1596	19,026.9	54.8915	19,026.9	50.2929	19,026.9	52.7287	19,026.9	46.3371	19,026.9	51.149	19,026.9	51.3709	19,026.9	44.0688	19,026.9	46.8658	19,026.9	52.1861	19,026.9	43.1758
19,697.8	85.5629	19,697.8	79.9154	19,697.8	86.7978	19,697.8	72.9472	19,697.8	83.3203	19,697.8	72.7101	19,697.8	75.9421	19,697.8	71.0453	19,697.8	62.7658	19,697.8	70.2315	19,697.8	61.9848	19,697.8	70.2245	19,697.8	71.4959	19,697.8	66.2965	19,697.8	73.2143	19,697.8	60.3828	19,697.8	70.9886	19,697.8	56.0334	19,697.8	67.1997	19,697.8	51.6596	19,697.8	61.6099	19,697.8	53.9936	19,697.8	58.8337	19,697.8	50.4054	19,697.8	58.1178	19,697.8	52.6694	19,697.8	55.7265	19,697.8	48.1493	19,697.8	50.6669	19,697.8	48.4907	19,697.8	45.9697	19,697.8	50.1805	19,697.8	48.133	19,697.8	48.5955	19,697.8	53.258	19,697.8	47.6623
19,999.5	84.8741	19,999.5	79.4223	19,999.5	86.2052	19,999.5	73.2782	19,999.5	83.12	19,999.5	72.7426	19,999.5	76.3605	19,999.5	70.9498	19,999.5	63.7435	19,999.5	69.1882	19,999.5	62.2936	19,999.5	69.1933	19,999.5	70.8011	19,999.5	63.625	19,999.5	72.9053	19,999.5	56.176	19,999.5	69.9454	19,999.5	53.172	19,999.5	66.3208	19,999.5	50.6607	19,999.5	61.1361	19,999.5	53.6778	19,999.5	50.8078	19,999.5	46.5719	19,999.5	59.5044	19,999.5	48.2378	19,999.5	57.0782	19,999.5	48.7418	19,999.5	53.8199	19,999.5	49.7258	19,999.5	47.2925	19,999.5	52.1683	19,999.5	48.0051	19,999.5	47.5418	19,999.5	53.5117	19,999.5	46.8032
