"SPL Vertical"
"On-Axis"		"10°"		"-10°"		"20°"		"-20°"		"30°"		"-30°"		"40°"		"-40°"		"50°"		"-50°"		"60°"		"-60°"		"70°"		"-70°"		"80°"		"-80°"		"90°"		"-90°"		"100°"		"-100°"		"110°"		"-110°"		"120°"		"-120°"		"130°"		"-130°"		"140°"		"-140°"		"150°"		"-150°"		"160°"		"-160°"		"170°"		"-170°"		"180°"
"Frequency [Hz]"	"Sound Pessure Level [dB]  / [2.83V 1m] "	"Frequency [Hz]"	"Sound Pessure Level [dB]  / [2.83V 1m] "	"Frequency [Hz]"	"Sound Pessure Level [dB]  / [2.83V 1m] "	"Frequency [Hz]"	"Sound Pessure Level [dB]  / [2.83V 1m] "	"Frequency [Hz]"	"Sound Pessure Level [dB]  / [2.83V 1m] "	"Frequency [Hz]"	"Sound Pessure Level [dB]  / [2.83V 1m] "	"Frequency [Hz]"	"Sound Pessure Level [dB]  / [2.83V 1m] "	"Frequency [Hz]"	"Sound Pessure Level [dB]  / [2.83V 1m] "	"Frequency [Hz]"	"Sound Pessure Level [dB]  / [2.83V 1m] "	"Frequency [Hz]"	"Sound Pessure Level [dB]  / [2.83V 1m] "	"Frequency [Hz]"	"Sound Pessure Level [dB]  / [2.83V 1m] "	"Frequency [Hz]"	"Sound Pessure Level [dB]  / [2.83V 1m] "	"Frequency [Hz]"	"Sound Pessure Level [dB]  / [2.83V 1m] "	"Frequency [Hz]"	"Sound Pessure Level [dB]  / [2.83V 1m] "	"Frequency [Hz]"	"Sound Pessure Level [dB]  / [2.83V 1m] "	"Frequency [Hz]"	"Sound Pessure Level [dB]  / [2.83V 1m] "	"Frequency [Hz]"	"Sound Pessure Level [dB]  / [2.83V 1m] "	"Frequency [Hz]"	"Sound Pessure Level [dB]  / [2.83V 1m] "	"Frequency [Hz]"	"Sound Pessure Level [dB]  / [2.83V 1m] "	"Frequency [Hz]"	"Sound Pessure Level [dB]  / [2.83V 1m] "	"Frequency [Hz]"	"Sound Pessure Level [dB]  / [2.83V 1m] "	"Frequency [Hz]"	"Sound Pessure Level [dB]  / [2.83V 1m] "	"Frequency [Hz]"	"Sound Pessure Level [dB]  / [2.83V 1m] "	"Frequency [Hz]"	"Sound Pessure Level [dB]  / [2.83V 1m] "	"Frequency [Hz]"	"Sound Pessure Level [dB]  / [2.83V 1m] "	"Frequency [Hz]"	"Sound Pessure Level [dB]  / [2.83V 1m] "	"Frequency [Hz]"	"Sound Pessure Level [dB]  / [2.83V 1m] "	"Frequency [Hz]"	"Sound Pessure Level [dB]  / [2.83V 1m] "	"Frequency [Hz]"	"Sound Pessure Level [dB]  / [2.83V 1m] "	"Frequency [Hz]"	"Sound Pessure Level [dB]  / [2.83V 1m] "	"Frequency [Hz]"	"Sound Pessure Level [dB]  / [2.83V 1m] "	"Frequency [Hz]"	"Sound Pessure Level [dB]  / [2.83V 1m] "	"Frequency [Hz]"	"Sound Pessure Level [dB]  / [2.83V 1m] "	"Frequency [Hz]"	"Sound Pessure Level [dB]  / [2.83V 1m] "	"Frequency [Hz]"	"Sound Pessure Level [dB]  / [2.83V 1m] "	"Frequency [Hz]"	"Sound Pessure Level [dB]  / [2.83V 1m] "
20.5078	56.8705	20.5078	56.7494	20.5078	56.9858	20.5078	56.6264	20.5078	57.0913	20.5078	56.5058	20.5078	57.1834	20.5078	56.3916	20.5078	57.2588	20.5078	56.2878	20.5078	57.3148	20.5078	56.1977	20.5078	57.3495	20.5078	56.1245	20.5078	57.362	20.5078	56.0706	20.5078	57.3529	20.5078	56.038	20.5078	57.324	20.5078	56.0276	20.5078	57.2781	20.5078	56.0398	20.5078	57.2187	20.5078	56.074	20.5078	57.149	20.5078	56.1286	20.5078	57.0714	20.5078	56.2011	20.5078	56.9873	20.5078	56.2882	20.5078	56.8973	20.5078	56.3859	20.5078	56.8016	20.5078	56.4899	20.5078	56.7007	20.5078	56.596
21.9727	58.717	21.9727	58.5842	21.9727	58.8405	21.9727	58.447	21.9727	58.95	21.9727	58.3095	21.9727	59.0408	21.9727	58.1758	21.9727	59.1083	21.9727	58.0492	21.9727	59.149	21.9727	57.9327	21.9727	59.1601	21.9727	57.8288	21.9727	59.1403	21.9727	57.7396	21.9727	59.0898	21.9727	57.6668	21.9727	59.0107	21.9727	57.6116	21.9727	58.9064	21.9727	57.5749	21.9727	58.782	21.9727	57.5572	21.9727	58.6436	21.9727	57.5587	21.9727	58.4977	21.9727	57.5793	21.9727	58.3504	21.9727	57.6186	21.9727	58.2074	21.9727	57.6762	21.9727	58.0732	21.9727	57.7513	21.9727	57.9511	21.9727	57.8433
23.4375	59.5829	23.4375	59.4671	23.4375	59.6895	23.4375	59.3458	23.4375	59.7829	23.4375	59.2229	23.4375	59.8595	23.4375	59.1018	23.4375	59.9157	23.4375	58.9858	23.4375	59.9486	23.4375	58.8778	23.4375	59.9562	23.4375	58.7802	23.4375	59.9372	23.4375	58.6953	23.4375	59.8921	23.4375	58.625	23.4375	59.8224	23.4375	58.5706	23.4375	59.7313	23.4375	58.5336	23.4375	59.6228	23.4375	58.5145	23.4375	59.5019	23.4375	58.5139	23.4375	59.3737	23.4375	58.5318	23.4375	59.2432	23.4375	58.5681	23.4375	59.115	23.4375	58.6222	23.4375	58.993	23.4375	58.6931	23.4375	58.8803	23.4375	58.7797
24.9023	60.4099	24.9023	60.29	24.9023	60.5185	24.9023	60.163	24.9023	60.6116	24.9023	60.033	24.9023	60.6853	24.9023	59.9039	24.9023	60.7361	24.9023	59.779	24.9023	60.7611	24.9023	59.6615	24.9023	60.7584	24.9023	59.5539	24.9023	60.7272	24.9023	59.4587	24.9023	60.6681	24.9023	59.3777	24.9023	60.583	24.9023	59.3125	24.9023	60.4753	24.9023	59.2643	24.9023	60.35	24.9023	59.2342	24.9023	60.2127	24.9023	59.2227	24.9023	60.0695	24.9023	59.2301	24.9023	59.9266	24.9023	59.2567	24.9023	59.7892	24.9023	59.3021	24.9023	59.6616	24.9023	59.3662	24.9023	59.5471	24.9023	59.4482
26.3672	60.8139	26.3672	60.7005	26.3672	60.9245	26.3672	60.5871	26.3672	61.029	26.3672	60.4763	26.3672	61.1238	26.3672	60.3706	26.3672	61.2049	26.3672	60.2721	26.3672	61.2681	26.3672	60.1829	26.3672	61.3095	26.3672	60.105	26.3672	61.326	26.3672	60.0401	26.3672	61.3156	26.3672	59.9898	26.3672	61.2781	26.3672	59.9553	26.3672	61.215	26.3672	59.9378	26.3672	61.1294	26.3672	59.9378	26.3672	61.0257	26.3672	59.9557	26.3672	60.909	26.3672	59.9915	26.3672	60.7845	26.3672	60.045	26.3672	60.6571	26.3672	60.1151	26.3672	60.5314	26.3672	60.2008	26.3672	60.4114	26.3672	60.3003
27.832	62.4352	27.832	62.3265	27.832	62.5392	27.832	62.2167	27.832	62.6351	27.832	62.1091	27.832	62.7189	27.832	62.0064	27.832	62.7872	27.832	61.9113	27.832	62.8367	27.832	61.8259	27.832	62.8649	27.832	61.7521	27.832	62.87	27.832	61.6914	27.832	62.8515	27.832	61.6452	27.832	62.8101	27.832	61.6143	27.832	62.7478	27.832	61.5994	27.832	62.6677	27.832	61.6009	27.832	62.5737	27.832	61.6189	27.832	62.4697	27.832	61.653	27.832	62.36	27.832	61.7027	27.832	62.2483	27.832	61.767	27.832	62.1381	27.832	61.8446	27.832	62.0323	27.832	61.9337
29.2969	63.1287	29.2969	63.016	29.2969	63.2326	29.2969	62.8982	29.2969	63.3238	29.2969	62.779	29.2969	63.3987	29.2969	62.6617	29.2969	63.4537	29.2969	62.5494	29.2969	63.4861	29.2969	62.4448	29.2969	63.4935	29.2969	62.3502	29.2969	63.4748	29.2969	62.2678	29.2969	63.43	29.2969	62.1992	29.2969	63.3606	29.2969	62.1459	29.2969	63.2694	29.2969	62.1091	29.2969	63.1609	29.2969	62.0896	29.2969	63.0401	29.2969	62.0878	29.2969	62.9127	29.2969	62.1038	29.2969	62.7841	29.2969	62.1374	29.2969	62.6588	29.2969	62.188	29.2969	62.5408	29.2969	62.2549	29.2969	62.4327	29.2969	62.3369
30.7617	63.9131	30.7617	63.8065	30.7617	64.0135	30.7617	63.6972	30.7617	64.1044	30.7617	63.5883	30.7617	64.182	30.7617	63.4825	30.7617	64.2427	30.7617	63.3825	30.7617	64.2831	30.7617	63.2906	30.7617	64.3004	30.7617	63.2087	30.7617	64.2925	30.7617	63.1385	30.7617	64.2588	30.7617	63.0813	30.7617	64.2001	30.7617	63.0383	30.7617	64.119	30.7617	63.0102	30.7617	64.0194	30.7617	62.9974	30.7617	63.9067	30.7617	63.0002	30.7617	63.7865	30.7617	63.0186	30.7617	63.6644	30.7617	63.0522	30.7617	63.5454	30.7617	63.1009	30.7617	63.4334	30.7617	63.1641	30.7617	63.3313	30.7617	63.2411
32.2266	64.5335	32.2266	64.4243	32.2266	64.6366	32.2266	64.3125	32.2266	64.7298	32.2266	64.2016	32.2266	64.8095	32.2266	64.0945	32.2266	64.8725	32.2266	63.9941	32.2266	64.9157	32.2266	63.9029	32.2266	64.937	32.2266	63.8229	32.2266	64.9349	32.2266	63.7558	32.2266	64.909	32.2266	63.7031	32.2266	64.8604	32.2266	63.6659	32.2266	64.7911	32.2266	63.6448	32.2266	64.7042	32.2266	63.6403	32.2266	64.6037	32.2266	63.6526	32.2266	64.494	32.2266	63.6814	32.2266	64.3793	32.2266	63.7262	32.2266	64.2639	32.2266	63.7862	32.2266	64.1514	32.2266	63.8604	32.2266	64.045	32.2266	63.9473
33.6914	65.1716	33.6914	65.0605	33.6914	65.2758	33.6914	64.9461	33.6914	65.3693	33.6914	64.8318	33.6914	65.4486	33.6914	64.7211	33.6914	65.5105	33.6914	64.6167	33.6914	65.552	33.6914	64.5214	33.6914	65.5712	33.6914	64.4375	33.6914	65.5667	33.6914	64.3668	33.6914	65.5384	33.6914	64.3111	33.6914	65.4873	33.6914	64.2714	33.6914	65.4158	33.6914	64.2486	33.6914	65.327	33.6914	64.2434	33.6914	65.2249	33.6914	64.2557	33.6914	65.1138	33.6914	64.2854	33.6914	64.9979	33.6914	64.3317	33.6914	64.8811	33.6914	64.3937	33.6914	64.7671	33.6914	64.4701	33.6914	64.6589	33.6914	64.5592
35.1562	65.7677	35.1562	65.6615	35.1562	65.8673	35.1562	65.5519	35.1562	65.9567	35.1562	65.4423	35.1562	66.0329	35.1562	65.3357	35.1562	66.0926	35.1562	65.2349	35.1562	66.1334	35.1562	65.1426	35.1562	66.1529	35.1562	65.0611	35.1562	66.1499	35.1562	64.9921	35.1562	66.1239	35.1562	64.9373	35.1562	66.0757	35.1562	64.8979	35.1562	66.0073	35.1562	64.8748	35.1562	65.9216	35.1562	64.8685	35.1562	65.8225	35.1562	64.8793	35.1562	65.7142	35.1562	64.9069	35.1562	65.6008	35.1562	64.951	35.1562	65.4865	35.1562	65.0105	35.1562	65.3747	35.1562	65.0845	35.1562	65.2687	35.1562	65.1712
36.6211	66.3675	36.6211	66.2591	36.6211	66.4691	36.6211	66.1474	36.6211	66.5602	36.6211	66.0356	36.6211	66.6374	36.6211	65.927	36.6211	66.6973	36.6211	65.8243	36.6211	66.7371	36.6211	65.7302	36.6211	66.7545	36.6211	65.6468	36.6211	66.7481	36.6211	65.5762	36.6211	66.7179	36.6211	65.5198	36.6211	66.6648	36.6211	65.4788	36.6211	66.5912	36.6211	65.4542	36.6211	66.5005	36.6211	65.4464	36.6211	66.3969	36.6211	65.4556	36.6211	66.285	36.6211	65.4817	36.6211	66.1691	36.6211	65.524	36.6211	66.0532	36.6211	65.5818	36.6211	65.9411	36.6211	65.654	36.6211	65.8355	36.6211	65.7392
38.0859	66.9343	38.0859	66.8252	38.0859	67.0366	38.0859	66.7131	38.0859	67.1287	38.0859	66.6012	38.0859	67.2068	38.0859	66.4924	38.0859	67.2675	38.0859	66.3897	38.0859	67.3078	38.0859	66.2954	38.0859	67.3254	38.0859	66.2116	38.0859	67.3189	38.0859	66.1403	38.0859	67.288	38.0859	66.0829	38.0859	67.2339	38.0859	66.0406	38.0859	67.159	38.0859	66.0144	38.0859	67.0665	38.0859	66.0048	38.0859	66.9608	38.0859	66.0122	38.0859	66.8464	38.0859	66.0364	38.0859	66.728	38.0859	66.0772	38.0859	66.6097	38.0859	66.1339	38.0859	66.4954	38.0859	66.2056	38.0859	66.3883	38.0859	66.291
39.5508	67.3921	39.5508	67.2816	39.5508	67.4953	39.5508	67.1677	39.5508	67.5878	39.5508	67.0538	39.5508	67.6659	39.5508	66.9431	39.5508	67.7263	39.5508	66.8387	39.5508	67.7662	39.5508	66.743	39.5508	67.7836	39.5508	66.6584	39.5508	67.777	39.5508	66.5865	39.5508	67.7463	39.5508	66.529	39.5508	67.6926	39.5508	66.4869	39.5508	67.6179	39.5508	66.4611	39.5508	67.5255	39.5508	66.4519	39.5508	67.4196	39.5508	66.4598	39.5508	67.3045	39.5508	66.4845	39.5508	67.185	39.5508	66.5258	39.5508	67.0653	39.5508	66.5832	39.5508	66.9495	39.5508	66.6558	39.5508	66.8408	39.5508	66.7422
41.0156	68.0486	41.0156	67.9304	41.0156	68.1635	41.0156	67.8127	41.0156	68.271	41.0156	67.699	41.0156	68.3673	41.0156	67.5927	41.0156	68.4486	41.0156	67.4966	41.0156	68.5116	41.0156	67.4134	41.0156	68.5536	41.0156	67.345	41.0156	68.5728	41.0156	67.2931	41.0156	68.5686	41.0156	67.2588	41.0156	68.5416	41.0156	67.2429	41.0156	68.4935	41.0156	67.2456	41.0156	68.4271	41.0156	67.2666	41.0156	68.3453	41.0156	67.3055	41.0156	68.2518	41.0156	67.361	41.0156	68.1496	41.0156	67.4315	41.0156	68.0417	41.0156	67.5152	41.0156	67.9311	41.0156	67.6096	41.0156	67.8203	41.0156	67.7123
42.4805	68.8008	42.4805	68.6859	42.4805	68.9079	42.4805	68.5668	42.4805	69.0033	42.4805	68.4475	42.4805	69.0836	42.4805	68.3314	42.4805	69.1456	42.4805	68.2218	42.4805	69.1868	42.4805	68.1218	42.4805	69.2055	42.4805	68.0341	42.4805	69.2009	42.4805	67.9608	42.4805	69.1732	42.4805	67.904	42.4805	69.1237	42.4805	67.8649	42.4805	69.0549	42.4805	67.8446	42.4805	68.9698	42.4805	67.8436	42.4805	68.8719	42.4805	67.8619	42.4805	68.7649	42.4805	67.8989	42.4805	68.652	42.4805	67.9535	42.4805	68.5367	42.4805	68.0241	42.4805	68.4218	42.4805	68.1088	42.4805	68.3104	42.4805	68.2051
43.9453	69.0903	43.9453	68.9708	43.9453	69.2004	43.9453	68.8458	43.9453	69.2968	43.9453	68.7195	43.9453	69.376	43.9453	68.5956	43.9453	69.4346	43.9453	68.4777	43.9453	69.4699	43.9453	68.369	43.9453	69.4803	43.9453	68.2722	43.9453	69.465	43.9453	68.1897	43.9453	69.4243	43.9453	68.1234	43.9453	69.3601	43.9453	68.0747	43.9453	69.2753	43.9453	68.0447	43.9453	69.1736	43.9453	68.0339	43.9453	69.0594	43.9453	68.0425	43.9453	68.9375	43.9453	68.07	43.9453	68.8122	43.9453	68.1158	43.9453	68.6876	43.9453	68.1786	43.9453	68.5669	43.9453	68.257	43.9453	68.4533	43.9453	68.3493
45.4102	69.5872	45.4102	69.4736	45.4102	69.6929	45.4102	69.3557	45.4102	69.7867	45.4102	69.2373	45.4102	69.865	45.4102	69.1217	45.4102	69.9244	45.4102	69.0119	45.4102	69.9622	45.4102	68.9108	45.4102	69.9762	45.4102	68.8205	45.4102	69.9653	45.4102	68.7431	45.4102	69.9296	45.4102	68.6803	45.4102	69.8702	45.4102	68.6332	45.4102	69.7896	45.4102	68.603	45.4102	69.6915	45.4102	68.5903	45.4102	69.5801	45.4102	68.5954	45.4102	69.4601	45.4102	68.6184	45.4102	69.336	45.4102	68.6592	45.4102	69.2122	45.4102	68.7169	45.4102	69.0927	45.4102	68.7908	45.4102	68.9808	45.4102	68.8794
46.875	69.8865	46.875	69.7815	46.875	69.9866	46.875	69.675	46.875	70.0783	46.875	69.5698	46.875	70.1579	46.875	69.4685	46.875	70.2218	46.875	69.3737	46.875	70.2665	46.875	69.2872	46.875	70.2895	46.875	69.2109	46.875	70.2886	46.875	69.1463	46.875	70.2633	46.875	69.0946	46.875	70.2143	46.875	69.0568	46.875	70.1437	46.875	69.0336	46.875	70.0548	46.875	69.0256	46.875	69.9519	46.875	69.0329	46.875	69.8398	46.875	69.0559	46.875	69.7234	46.875	69.0942	46.875	69.6072	46.875	69.1477	46.875	69.4954	46.875	69.2157	46.875	69.3912	46.875	69.2974
48.3398	70.7003	48.3398	70.5922	48.3398	70.8005	48.3398	70.4796	48.3398	70.8891	48.3398	70.3657	48.3398	70.9627	48.3398	70.2534	48.3398	71.0177	48.3398	70.1456	48.3398	71.051	48.3398	70.0448	48.3398	71.0602	48.3398	69.9534	48.3398	71.0442	48.3398	69.8734	48.3398	71.0028	48.3398	69.8065	48.3398	70.9374	48.3398	69.7541	48.3398	70.8509	48.3398	69.7174	48.3398	70.747	48.3398	69.6971	48.3398	70.6305	48.3398	69.6937	48.3398	70.5063	48.3398	69.7077	48.3398	70.3796	48.3398	69.7389	48.3398	70.2551	48.3398	69.7873	48.3398	70.137	48.3398	69.8524	48.3398	70.0289	48.3398	69.9333
51.2695	71.1958	51.2695	71.0803	51.2695	71.3028	51.2695	70.9605	51.2695	71.3976	51.2695	70.8403	51.2695	71.4763	51.2695	70.7236	51.2695	71.536	51.2695	70.6138	51.2695	71.5742	51.2695	70.5141	51.2695	71.5894	51.2695	70.4269	51.2695	71.581	51.2695	70.3545	51.2695	71.5494	51.2695	70.2984	51.2695	71.4961	51.2695	70.2597	51.2695	71.4233	51.2695	70.2389	51.2695	71.3342	51.2695	70.2362	51.2695	71.2324	51.2695	70.2514	51.2695	71.1218	51.2695	70.2839	51.2695	71.0063	51.2695	70.3328	51.2695	70.8897	51.2695	70.3971	51.2695	70.7754	51.2695	70.4752	51.2695	70.6665	51.2695	70.5656
52.7344	71.5746	52.7344	71.4686	52.7344	71.6742	52.7344	71.3597	52.7344	71.764	52.7344	71.2515	52.7344	71.8407	52.7344	71.1472	52.7344	71.9015	52.7344	71.0499	52.7344	71.9442	52.7344	70.9623	52.7344	71.9672	52.7344	70.8869	52.7344	71.9695	52.7344	70.8253	52.7344	71.951	52.7344	70.779	52.7344	71.9127	52.7344	70.7489	52.7344	71.8559	52.7344	70.7356	52.7344	71.783	52.7344	70.7391	52.7344	71.6966	52.7344	70.7591	52.7344	71.5999	52.7344	70.7952	52.7344	71.4962	52.7344	70.8466	52.7344	71.3889	52.7344	70.9121	52.7344	71.2816	52.7344	70.9903	52.7344	71.1775	52.7344	71.0795
54.1992	72.0163	54.1992	71.9158	54.1992	72.1101	54.1992	71.812	54.1992	72.194	54.1992	71.7081	54.1992	72.2651	54.1992	71.6075	54.1992	72.3208	54.1992	71.5133	54.1992	72.3591	54.1992	71.4283	54.1992	72.3784	54.1992	71.3549	54.1992	72.3781	54.1992	71.2949	54.1992	72.3583	54.1992	71.2499	54.1992	72.3197	54.1992	71.2208	54.1992	72.2643	54.1992	71.2081	54.1992	72.1943	54.1992	71.2117	54.1992	72.1125	54.1992	71.2314	54.1992	72.0218	54.1992	71.2666	54.1992	71.9253	54.1992	71.3161	54.1992	71.8258	54.1992	71.3788	54.1992	71.7261	54.1992	71.4531	54.1992	71.6291	54.1992	71.5373
55.6641	72.5817	55.6641	72.4754	55.6641	72.6792	55.6641	72.3638	55.6641	72.7641	55.6641	72.2509	55.6641	72.8333	55.6641	72.1402	55.6641	72.8839	55.6641	72.0352	55.6641	72.9137	55.6641	71.9391	55.6641	72.9214	55.6641	71.8547	55.6641	72.9066	55.6641	71.7842	55.6641	72.8704	55.6641	71.7295	55.6641	72.8147	55.6641	71.6918	55.6641	72.7426	55.6641	71.6719	55.6641	72.6579	55.6641	71.6697	55.6641	72.5645	55.6641	71.6851	55.6641	72.4657	55.6641	71.717	55.6641	72.3647	55.6641	71.7642	55.6641	72.2638	55.6641	71.825	55.6641	72.1647	55.6641	71.8976	55.6641	72.0695	55.6641	71.9797
58.5938	73.156	58.5938	73.041	58.5938	73.2594	58.5938	72.9182	58.5938	73.3475	58.5938	72.7913	58.5938	73.4166	58.5938	72.664	58.5938	73.4638	58.5938	72.5401	58.5938	73.4866	58.5938	72.4228	58.5938	73.4832	58.5938	72.3155	58.5938	73.4535	58.5938	72.2211	58.5938	73.3984	58.5938	72.142	58.5938	73.3205	58.5938	72.0806	58.5938	73.2236	58.5938	72.0383	58.5938	73.1124	58.5938	72.0163	58.5938	72.9918	58.5938	72.015	58.5938	72.8667	58.5938	72.0342	58.5938	72.7411	58.5938	72.073	58.5938	72.6183	58.5938	72.13	58.5938	72.5008	58.5938	72.2034	58.5938	72.3911	58.5938	72.2912
60.0586	73.5831	60.0586	73.4597	60.0586	73.6934	60.0586	73.3276	60.0586	73.7865	60.0586	73.1908	60.0586	73.8584	60.0586	73.0532	60.0586	73.9055	60.0586	72.9184	60.0586	73.9248	60.0586	72.7897	60.0586	73.9146	60.0586	72.67	60.0586	73.8741	60.0586	72.5619	60.0586	73.8042	60.0586	72.4679	60.0586	73.7074	60.0586	72.3902	60.0586	73.588	60.0586	72.3304	60.0586	73.4513	60.0586	72.2902	60.0586	73.3036	60.0586	72.2707	60.0586	73.1513	60.0586	72.2728	60.0586	73	60.0586	72.2966	60.0586	72.8551	60.0586	72.3421	60.0586	72.7205	60.0586	72.4086	60.0586	72.5996	60.0586	72.4949
62.9883	74.4167	62.9883	74.307	62.9883	74.5177	62.9883	74.1919	62.9883	74.6063	62.9883	74.0747	62.9883	74.6787	62.9883	73.9585	62.9883	74.7313	62.9883	73.8458	62.9883	74.7611	62.9883	73.7392	62.9883	74.7654	62.9883	73.6407	62.9883	74.743	62.9883	73.5522	62.9883	74.6935	62.9883	73.4754	62.9883	74.6184	62.9883	73.4117	62.9883	74.5205	62.9883	73.3624	62.9883	74.4037	62.9883	73.3289	62.9883	74.2731	62.9883	73.3123	62.9883	74.1345	62.9883	73.3137	62.9883	73.9937	62.9883	73.3341	62.9883	73.8565	62.9883	73.3743	62.9883	73.7282	62.9883	73.4345	62.9883	73.6131	62.9883	73.5145
64.4531	74.6595	64.4531	74.5493	64.4531	74.7618	64.4531	74.4351	64.4531	74.8527	64.4531	74.3201	64.4531	74.9284	64.4531	74.2077	64.4531	74.9855	64.4531	74.1008	64.4531	75.0212	64.4531	74.0019	64.4531	75.0334	64.4531	73.9133	64.4531	75.0209	64.4531	73.8368	64.4531	74.9837	64.4531	73.7739	64.4531	74.9233	64.4531	73.7257	64.4531	74.8419	64.4531	73.6931	64.4531	74.7431	64.4531	73.6767	64.4531	74.6309	64.4531	73.677	64.4531	74.51	64.4531	73.6944	64.4531	74.3851	64.4531	73.729	64.4531	74.2609	64.4531	73.7807	64.4531	74.1418	64.4531	73.8491	64.4531	74.0315	64.4531	73.9332
67.3828	74.9098	67.3828	74.796	67.3828	75.019	67.3828	74.6812	67.3828	75.1196	67.3828	74.5692	67.3828	75.2084	67.3828	74.4639	67.3828	75.2821	67.3828	74.3685	67.3828	75.3384	67.3828	74.286	67.3828	75.3752	67.3828	74.2188	67.3828	75.3915	67.3828	74.1688	67.3828	75.3871	67.3828	74.1371	67.3828	75.3626	67.3828	74.1242	67.3828	75.3193	67.3828	74.1301	67.3828	75.2593	67.3828	74.1539	67.3828	75.185	67.3828	74.1947	67.3828	75.099	67.3828	74.2509	67.3828	75.0042	67.3828	74.3207	67.3828	74.9032	67.3828	74.4022	67.3828	74.7989	67.3828	74.4931	67.3828	74.694	67.3828	74.5912
68.8477	75.2483	68.8477	75.1347	68.8477	75.3573	68.8477	75.0203	68.8477	75.4581	68.8477	74.9089	68.8477	75.5471	68.8477	74.8041	68.8477	75.6214	68.8477	74.7093	68.8477	75.6784	68.8477	74.6275	68.8477	75.7163	68.8477	74.5614	68.8477	75.7343	68.8477	74.5127	68.8477	75.7321	68.8477	74.4827	68.8477	75.7107	68.8477	74.4721	68.8477	75.6712	68.8477	74.4807	68.8477	75.6156	68.8477	74.5078	68.8477	75.5459	68.8477	74.5522	68.8477	75.4643	68.8477	74.6121	68.8477	75.3731	68.8477	74.6856	68.8477	75.2749	68.8477	74.7704	68.8477	75.1722	68.8477	74.8641	68.8477	75.0677	68.8477	74.9641
71.7773	75.9406	71.7773	75.8248	71.7773	76.0498	71.7773	75.7066	71.7773	76.1485	71.7773	75.5899	71.7773	76.233	71.7773	75.4787	71.7773	76.3005	71.7773	75.3764	71.7773	76.3486	71.7773	75.2862	71.7773	76.3761	71.7773	75.2109	71.7773	76.3829	71.7773	75.1526	71.7773	76.3696	71.7773	75.1127	71.7773	76.3377	71.7773	75.0924	71.7773	76.2891	71.7773	75.0918	71.7773	76.2259	71.7773	75.1106	71.7773	76.1502	71.7773	75.148	71.7773	76.0638	71.7773	75.2025	71.7773	75.9687	71.7773	75.2722	71.7773	75.8671	71.7773	75.355	71.7773	75.7615	71.7773	75.4482	71.7773	75.6544	71.7773	75.549
74.707	76.6094	74.707	76.5037	74.707	76.7079	74.707	76.3941	74.707	76.7956	74.707	76.2845	74.707	76.8693	74.707	76.1781	74.707	76.9263	74.707	76.0781	74.707	76.9643	74.707	75.9873	74.707	76.9816	74.707	75.908	74.707	76.9777	74.707	75.8422	74.707	76.9524	74.707	75.7911	74.707	76.9069	74.707	75.7556	74.707	76.843	74.707	75.7363	74.707	76.7631	74.707	75.7331	74.707	76.6703	74.707	75.7461	74.707	76.5677	74.707	75.775	74.707	76.459	74.707	75.8194	74.707	76.348	74.707	75.8786	74.707	76.2385	74.707	75.9518	74.707	76.1339	74.707	76.0375
77.6367	77.0403	77.6367	76.9256	77.6367	77.1491	77.6367	76.809	77.6367	77.2481	77.6367	76.6945	77.6367	77.3339	77.6367	76.5859	77.6367	77.4032	77.6367	76.4866	77.6367	77.4535	77.6367	76.3997	77.6367	77.4831	77.6367	76.3277	77.6367	77.4912	77.6367	76.2725	77.6367	77.4781	77.6367	76.2351	77.6367	77.4449	77.6367	76.2162	77.6367	77.3934	77.6367	76.2155	77.6367	77.3258	77.6367	76.2324	77.6367	77.2446	77.6367	76.2658	77.6367	77.1525	77.6367	76.3146	77.6367	77.0522	77.6367	76.3773	77.6367	76.947	77.6367	76.4523	77.6367	76.84	77.6367	76.5381	77.6367	76.7343	77.6367	76.6328
79.1016	77.2506	79.1016	77.1343	79.1016	77.3593	79.1016	77.0147	79.1016	77.4566	79.1016	76.8959	79.1016	77.539	79.1016	76.782	79.1016	77.6037	79.1016	76.6768	79.1016	77.6485	79.1016	76.5839	79.1016	77.6722	79.1016	76.5061	79.1016	77.6749	79.1016	76.4458	79.1016	77.6573	79.1016	76.4044	79.1016	77.6211	79.1016	76.3828	79.1016	77.5685	79.1016	76.381	79.1016	77.5015	79.1016	76.3983	79.1016	77.4223	79.1016	76.4337	79.1016	77.3331	79.1016	76.4855	79.1016	77.2358	79.1016	76.552	79.1016	77.133	79.1016	76.6311	79.1016	77.0272	79.1016	76.7206	79.1016	76.9213	79.1016	76.8181
82.0312	77.7166	82.0312	77.6034	82.0312	77.8194	82.0312	77.4839	82.0312	77.9081	82.0312	77.3624	82.0312	77.9796	82.0312	77.2436	82.0312	78.0318	82.0312	77.1314	82.0312	78.0635	82.0312	77.03	82.0312	78.0746	82.0312	76.9427	82.0312	78.0659	82.0312	76.8725	82.0312	78.0392	82.0312	76.8213	82.0312	77.9966	82.0312	76.7906	82.0312	77.9404	82.0312	76.7808	82.0312	77.8725	82.0312	76.7919	82.0312	77.7946	82.0312	76.8227	82.0312	77.708	82.0312	76.8717	82.0312	77.614	82.0312	76.937	82.0312	77.5142	82.0312	77.0158	82.0312	77.4108	82.0312	77.1057	82.0312	77.3062	82.0312	77.2035
84.9609	78.1361	84.9609	78.0297	84.9609	78.2332	84.9609	77.9176	84.9609	78.3176	84.9609	77.8041	84.9609	78.3871	84.9609	77.6936	84.9609	78.4398	84.9609	77.5901	84.9609	78.475	84.9609	77.4977	84.9609	78.4925	84.9609	77.4196	84.9609	78.4929	84.9609	77.3584	84.9609	78.4774	84.9609	77.3161	84.9609	78.4473	84.9609	77.2937	84.9609	78.4042	84.9609	77.2917	84.9609	78.3495	84.9609	77.3096	84.9609	78.2844	84.9609	77.3463	84.9609	78.2095	84.9609	77.4003	84.9609	78.126	84.9609	77.4692	84.9609	78.035	84.9609	77.5505	84.9609	77.9383	84.9609	77.6413	84.9609	77.8385	84.9609	77.7384
87.8906	78.6699	87.8906	78.5619	87.8906	78.7685	87.8906	78.4483	87.8906	78.8547	87.8906	78.333	87.8906	78.9259	87.8906	78.2202	87.8906	78.9802	87.8906	78.1142	87.8906	79.0161	87.8906	78.019	87.8906	79.0331	87.8906	77.9383	87.8906	79.0316	87.8906	77.8751	87.8906	79.0126	87.8906	77.8314	87.8906	78.9781	87.8906	77.8088	87.8906	78.9305	87.8906	77.8074	87.8906	78.8717	87.8906	77.8269	87.8906	78.8038	87.8906	77.8658	87.8906	78.7277	87.8906	77.9222	87.8906	78.6445	87.8906	77.9934	87.8906	78.555	87.8906	78.0763	87.8906	78.4605	87.8906	78.1677	87.8906	78.3628	87.8906	78.2643
90.8203	79.2796	90.8203	79.1637	90.8203	79.3803	90.8203	79.0364	90.8203	79.4623	90.8203	78.9023	90.8203	79.523	90.8203	78.7662	90.8203	79.5607	90.8203	78.6331	90.8203	79.5745	90.8203	78.5078	90.8203	79.5647	90.8203	78.395	90.8203	79.5326	90.8203	78.2986	90.8203	79.4806	90.8203	78.2218	90.8203	79.4118	90.8203	78.1669	90.8203	79.3296	90.8203	78.1352	90.8203	79.2371	90.8203	78.127	90.8203	79.1369	90.8203	78.1415	90.8203	79.0311	90.8203	78.1774	90.8203	78.9215	90.8203	78.2325	90.8203	78.81	90.8203	78.3041	90.8203	78.6985	90.8203	78.3894	90.8203	78.5895	90.8203	78.4855
95.2148	79.838	95.2148	79.7188	95.2148	79.9432	95.2148	79.5898	95.2148	80.0304	95.2148	79.4557	95.2148	80.0964	95.2148	79.3211	95.2148	80.1388	95.2148	79.1904	95.2148	80.1561	95.2148	79.0678	95.2148	80.1482	95.2148	78.957	95.2148	80.1162	95.2148	78.8614	95.2148	80.0624	95.2148	78.7835	95.2148	79.9901	95.2148	78.7255	95.2148	79.9029	95.2148	78.6886	95.2148	79.8045	95.2148	78.6738	95.2148	79.6979	95.2148	78.6812	95.2148	79.5855	95.2148	78.7103	95.2148	79.4692	95.2148	78.7599	95.2148	79.351	95.2148	78.8282	95.2148	79.2332	95.2148	78.9129	95.2148	79.1188	95.2148	79.0108
98.1445	80.2128	98.1445	80.0866	98.1445	80.3242	98.1445	79.9506	98.1445	80.4167	98.1445	79.8096	98.1445	80.4867	98.1445	79.669	98.1445	80.5316	98.1445	79.5336	98.1445	80.5498	98.1445	79.4078	98.1445	80.5409	98.1445	79.2957	98.1445	80.5059	98.1445	79.2002	98.1445	80.447	98.1445	79.1237	98.1445	80.3674	98.1445	79.0679	98.1445	80.2712	98.1445	79.0334	98.1445	80.1626	98.1445	79.0205	98.1445	80.0457	98.1445	79.0289	98.1445	79.9242	98.1445	79.0575	98.1445	79.8012	98.1445	79.1052	98.1445	79.6792	98.1445	79.1702	98.1445	79.5608	98.1445	79.2506	98.1445	79.4483	98.1445	79.3441
101.074	80.4031	101.074	80.2632	101.074	80.5309	101.074	80.1169	101.074	80.6415	101.074	79.9701	101.074	80.7309	101.074	79.8288	101.074	80.7957	101.074	79.6985	101.074	80.8339	101.074	79.5838	101.074	80.8446	101.074	79.4886	101.074	80.8281	101.074	79.4153	101.074	80.7861	101.074	79.3652	101.074	80.7214	101.074	79.3382	101.074	80.6377	101.074	79.3335	101.074	80.5393	101.074	79.3494	101.074	80.4307	101.074	79.3837	101.074	80.3161	101.074	79.4343	101.074	80.1991	101.074	79.4989	101.074	80.0827	101.074	79.5754	101.074	79.9692	101.074	79.6622	101.074	79.8604	101.074	79.7576
105.469	80.9238	105.469	80.8027	105.469	81.0302	105.469	80.6716	105.469	81.1179	105.469	80.5359	105.469	81.1842	105.469	80.401	105.469	81.2277	105.469	80.2727	105.469	81.2484	105.469	80.1562	105.469	81.2474	105.469	80.0562	105.469	81.2271	105.469	79.9766	105.469	81.1904	105.469	79.9201	105.469	81.1401	105.469	79.8882	105.469	81.0788	105.469	79.8814	105.469	81.0083	105.469	79.8986	105.469	80.9297	105.469	79.9377	105.469	80.8439	105.469	79.996	105.469	80.752	105.469	80.0699	105.469	80.6551	105.469	80.1559	105.469	80.5546	105.469	80.2504	105.469	80.4523	105.469	80.3501
108.398	81.2665	108.398	81.1504	108.398	81.3614	108.398	81.0179	108.398	81.4312	108.398	80.8752	108.398	81.4738	108.398	80.7285	108.398	81.4886	108.398	80.5845	108.398	81.477	108.398	80.4493	108.398	81.4418	108.398	80.3283	108.398	81.3873	108.398	80.2261	108.398	81.3179	108.398	80.1459	108.398	81.2383	108.398	80.0899	108.398	81.1522	108.398	80.0586	108.398	81.0622	108.398	80.0518	108.398	80.9698	108.398	80.068	108.398	80.8755	108.398	80.105	108.398	80.7799	108.398	80.1597	108.398	80.6832	108.398	80.2289	108.398	80.5863	108.398	80.3092	108.398	80.4905	108.398	80.3973
112.793	81.4971	112.793	81.3615	112.793	81.6107	112.793	81.2102	112.793	81.6973	112.793	81.0504	112.793	81.7534	112.793	80.8896	112.793	81.7777	112.793	80.7349	112.793	81.7706	112.793	80.5931	112.793	81.7348	112.793	80.4696	112.793	81.6741	112.793	80.3687	112.793	81.594	112.793	80.293	112.793	81.5	112.793	80.2439	112.793	81.3974	112.793	80.221	112.793	81.2909	112.793	80.2229	112.793	81.1834	112.793	80.2471	112.793	81.0771	112.793	80.2904	112.793	80.9731	112.793	80.3493	112.793	80.8718	112.793	80.4203	112.793	80.7735	112.793	80.5004	112.793	80.6784	112.793	80.587
117.188	81.9706	117.188	81.852	117.188	82.0691	117.188	81.7184	117.188	82.1435	117.188	81.5755	117.188	82.1909	117.188	81.4292	117.188	82.2099	117.188	81.2853	117.188	82.2006	117.188	81.1492	117.188	82.1645	117.188	81.0258	117.188	82.1043	117.188	80.9189	117.188	82.0241	117.188	80.8314	117.188	81.9283	117.188	80.7654	117.188	81.8216	117.188	80.722	117.188	81.7084	117.188	80.7012	117.188	81.5926	117.188	80.7024	117.188	81.4772	117.188	80.724	117.188	81.3646	117.188	80.7639	117.188	81.2563	117.188	80.8196	117.188	81.1535	117.188	80.8886	117.188	81.0572	117.188	80.9684
120.117	82.2509	120.117	82.1265	120.117	82.3565	120.117	81.9882	120.117	82.4389	120.117	81.8416	120.117	82.4947	120.117	81.6921	120.117	82.5217	120.117	81.5451	120.117	82.5192	120.117	81.4054	120.117	82.4873	120.117	81.2768	120.117	82.4279	120.117	81.1626	120.117	82.3435	120.117	81.0652	120.117	82.2378	120.117	80.9862	120.117	82.115	120.117	80.9267	120.117	81.9797	120.117	80.8875	120.117	81.8367	120.117	80.869	120.117	81.6912	120.117	80.8711	120.117	81.548	120.117	80.8937	120.117	81.4119	120.117	80.9363	120.117	81.2863	120.117	80.9979	120.117	81.1743	120.117	81.0776
124.512	82.2841	124.512	82.1525	124.512	82.399	124.512	82.0102	124.512	82.4925	124.512	81.864	124.512	82.5612	124.512	81.7205	124.512	82.6034	124.512	81.5863	124.512	82.6191	124.512	81.4668	124.512	82.6095	124.512	81.3663	124.512	82.5771	124.512	81.2873	124.512	82.5249	124.512	81.2311	124.512	82.4562	124.512	81.1976	124.512	82.3738	124.512	81.1854	124.512	82.2804	124.512	81.1931	124.512	82.1787	124.512	81.2184	124.512	82.0712	124.512	81.2594	124.512	81.9608	124.512	81.3143	124.512	81.8507	124.512	81.3813	124.512	81.7434	124.512	81.459	124.512	81.6413	124.512	81.5461
128.906	82.4144	128.906	82.2837	128.906	82.529	128.906	82.1435	128.906	82.6227	128.906	82.001	128.906	82.6925	128.906	81.8638	128.906	82.7373	128.906	81.7389	128.906	82.7579	128.906	81.6322	128.906	82.7564	128.906	81.5477	128.906	82.7357	128.906	81.4875	128.906	82.699	128.906	81.4516	128.906	82.6488	128.906	81.4385	128.906	82.5867	128.906	81.4456	128.906	82.5137	128.906	81.47	128.906	82.4309	128.906	81.5086	128.906	82.3396	128.906	81.5592	128.906	82.2422	128.906	81.62	128.906	82.1418	128.906	81.6897	128.906	82.0416	128.906	81.7675	128.906	81.9446	128.906	81.8527
133.301	82.7155	133.301	82.5765	133.301	82.8386	133.301	82.4286	133.301	82.9404	133.301	82.279	133.301	83.0169	133.301	82.1354	133.301	83.0661	133.301	82.0049	133.301	83.0881	133.301	81.8932	133.301	83.0848	133.301	81.8047	133.301	83.0593	133.301	81.7415	133.301	83.0155	133.301	81.7039	133.301	82.9571	133.301	81.6904	133.301	82.887	133.301	81.6986	133.301	82.8072	133.301	81.7254	133.301	82.7192	133.301	81.7676	133.301	82.6245	133.301	81.8226	133.301	82.5254	133.301	81.888	133.301	82.4242	133.301	81.9622	133.301	82.3235	133.301	82.0438	133.301	82.2256	133.301	82.132
139.16	82.9154	139.16	82.7676	139.16	83.0406	139.16	82.6044	139.16	83.1374	139.16	82.4349	139.16	83.2031	139.16	82.2683	139.16	83.2371	139.16	82.114	139.16	83.2417	139.16	81.98	139.16	83.2213	139.16	81.8724	139.16	83.1811	139.16	81.7947	139.16	83.1264	139.16	81.7472	139.16	83.0607	139.16	81.728	139.16	82.9859	139.16	81.7332	139.16	82.9021	139.16	81.7583	139.16	82.8087	139.16	81.799	139.16	82.7058	139.16	81.8518	139.16	82.5956	139.16	81.9147	139.16	82.4816	139.16	81.9869	139.16	82.3683	139.16	82.0684	139.16	82.26	139.16	82.1595
143.555	82.9593	143.555	82.8161	143.555	83.0772	143.555	82.655	143.555	83.1649	143.555	82.4844	143.555	83.2199	143.555	82.3138	143.555	83.2425	143.555	82.1527	143.555	83.2359	143.555	82.01	143.555	83.2057	143.555	81.8929	143.555	83.1586	143.555	81.8068	143.555	83.1014	143.555	81.7542	143.555	83.0392	143.555	81.7349	143.555	82.975	143.555	81.7465	143.555	82.909	143.555	81.7846	143.555	82.8397	143.555	81.8443	143.555	82.765	143.555	81.9202	143.555	82.6835	143.555	82.0075	143.555	82.5953	143.555	82.1023	143.555	82.5011	143.555	82.2014	143.555	82.4028	143.555	82.3023
147.949	83.1063	147.949	82.9536	147.949	83.2327	147.949	82.7823	147.949	83.3275	147.949	82.6016	147.949	83.3883	147.949	82.4219	147.949	83.4157	147.949	82.2536	147.949	83.4135	147.949	82.1061	147.949	83.3876	147.949	81.9871	147.949	83.345	147.949	81.902	147.949	83.2923	147.949	81.8532	147.949	83.2343	147.949	81.8403	147.949	83.1731	147.949	81.8604	147.949	83.1084	147.949	81.9086	147.949	83.0385	147.949	81.9792	147.949	82.9618	147.949	82.0663	147.949	82.8775	147.949	82.1643	147.949	82.7861	147.949	82.2685	147.949	82.6888	147.949	82.3753	147.949	82.5871	147.949	82.4821
153.809	83.1213	153.809	82.9799	153.809	83.2333	153.809	82.8164	153.809	83.3113	153.809	82.6399	153.809	83.3543	153.809	82.4608	153.809	83.3643	153.809	82.2899	153.809	83.3468	153.809	82.1371	153.809	83.3093	153.809	82.0111	153.809	83.2608	153.809	81.9184	153.809	83.2095	153.809	81.8628	153.809	83.1613	153.809	81.8456	153.809	83.1188	153.809	81.865	153.809	83.0804	153.809	81.9172	153.809	83.0417	153.809	81.9969	153.809	82.9969	153.809	82.0974	153.809	82.9411	153.809	82.2119	153.809	82.8711	153.809	82.3338	153.809	82.7861	153.809	82.4569	153.809	82.687	153.809	82.5761
159.668	83.3477	159.668	83.207	159.668	83.4644	159.668	83.0496	159.668	83.5521	159.668	82.8839	159.668	83.6084	159.668	82.7193	159.668	83.6333	159.668	82.5649	159.668	83.6294	159.668	82.4288	159.668	83.6016	159.668	82.3174	159.668	83.5561	159.668	82.2349	159.668	83.4999	159.668	82.1833	159.668	83.4387	159.668	82.1626	159.668	83.3768	159.668	82.1712	159.668	83.3154	159.668	82.2066	159.668	83.2538	159.668	82.2655	159.668	83.1897	159.668	82.3439	159.668	83.1203	159.668	82.4374	159.668	83.0431	159.668	82.5409	159.668	82.9566	159.668	82.6493	159.668	82.8609	159.668	82.7574
165.527	83.4146	165.527	83.2714	165.527	83.5312	165.527	83.1097	165.527	83.6153	165.527	82.9392	165.527	83.6638	165.527	82.7701	165.527	83.6769	165.527	82.6125	165.527	83.6581	165.527	82.4755	165.527	83.6141	165.527	82.3661	165.527	83.5535	165.527	82.2886	165.527	83.4852	165.527	82.2446	165.527	83.4165	165.527	82.2331	165.527	83.3515	165.527	82.2511	165.527	83.2914	165.527	82.2945	165.527	83.2345	165.527	82.3585	165.527	83.178	165.527	82.4382	165.527	83.119	165.527	82.5286	165.527	83.0547	165.527	82.6247	165.527	82.9832	165.527	82.7219	165.527	82.9035	165.527	82.8158
171.387	83.5054	171.387	83.3492	171.387	83.6301	171.387	83.1704	171.387	83.7171	171.387	82.9795	171.387	83.7633	171.387	82.788	171.387	83.7693	171.387	82.6074	171.387	83.7392	171.387	82.4482	171.387	83.6802	171.387	82.3183	171.387	83.6014	171.387	82.2228	171.387	83.5122	171.387	82.1638	171.387	83.4206	171.387	82.1402	171.387	83.3317	171.387	82.1487	171.387	83.2477	171.387	82.1848	171.387	83.1684	171.387	82.2435	171.387	83.0926	171.387	82.3194	171.387	83.0182	171.387	82.4073	171.387	82.9432	171.387	82.502	171.387	82.865	171.387	82.5985	171.387	82.7818	171.387	82.6926
177.246	83.537	177.246	83.3773	177.246	83.6618	177.246	83.1918	177.246	83.7458	177.246	82.9916	177.246	83.7864	177.246	82.7891	177.246	83.7851	177.246	82.5971	177.246	83.747	177.246	82.4274	177.246	83.6803	177.246	82.2894	177.246	83.5944	177.246	82.1895	177.246	83.4985	177.246	82.1303	177.246	83.4001	177.246	82.1105	177.246	83.3038	177.246	82.1257	177.246	83.2122	177.246	82.1695	177.246	83.1259	177.246	82.2351	177.246	83.0452	177.246	82.3153	177.246	82.9692	177.246	82.4037	177.246	82.8964	177.246	82.495	177.246	82.8242	177.246	82.5848	177.246	82.7495	177.246	82.67
183.105	83.4495	183.105	83.3018	183.105	83.5619	183.105	83.1268	183.105	83.6342	183.105	82.9346	183.105	83.6653	183.105	82.7369	183.105	83.6581	183.105	82.5463	183.105	83.6193	183.105	82.3749	183.105	83.5584	183.105	82.2332	183.105	83.4857	183.105	82.1291	183.105	83.4094	183.105	82.067	183.105	83.3342	183.105	82.0466	183.105	83.2608	183.105	82.0643	183.105	83.1877	183.105	82.1131	183.105	83.113	183.105	82.1851	183.105	83.0364	183.105	82.2718	183.105	82.9589	183.105	82.3659	183.105	82.8816	183.105	82.4615	183.105	82.8042	183.105	82.5543	183.105	82.7252	183.105	82.6423
188.965	83.3357	188.965	83.1768	188.965	83.4519	188.965	82.9838	188.965	83.5202	188.965	82.768	188.965	83.5393	188.965	82.5425	188.965	83.5125	188.965	82.3216	188.965	83.4476	188.965	82.1195	188.965	83.3566	188.965	81.9495	188.965	83.254	188.965	81.8223	188.965	83.1537	188.965	81.7449	188.965	83.0663	188.965	81.7198	188.965	82.9969	188.965	81.7449	188.965	82.9445	188.965	81.8137	188.965	82.9045	188.965	81.9168	188.965	82.8701	188.965	82.0431	188.965	82.8346	188.965	82.1811	188.965	82.7914	188.965	82.3199	188.965	82.7348	188.965	82.4502	188.965	82.66	188.965	82.5649
196.289	83.3424	196.289	83.188	196.289	83.4571	196.289	83.0045	196.289	83.5247	196.289	82.8036	196.289	83.5411	196.289	82.5984	196.289	83.5073	196.289	82.4016	196.289	83.4294	196.289	82.2251	196.289	83.3192	196.289	82.0788	196.289	83.1921	196.289	81.9696	196.289	83.0644	196.289	81.9009	196.289	82.9496	196.289	81.8723	196.289	82.8555	196.289	81.8804	196.289	82.7832	196.289	81.9194	196.289	82.7287	196.289	81.9825	196.289	82.6855	196.289	82.0628	196.289	82.6464	196.289	82.1532	196.289	82.6051	196.289	82.2473	196.289	82.5561	196.289	82.3389	196.289	82.4958	196.289	82.423
203.613	83.3078	203.613	83.1393	203.613	83.4263	203.613	82.9312	203.613	83.4875	203.613	82.6969	203.613	83.4884	203.613	82.4509	203.613	83.4315	203.613	82.2087	203.613	83.3251	203.613	81.9856	203.613	83.1825	203.613	81.7952	203.613	83.0206	203.613	81.6484	203.613	82.8565	203.613	81.5518	203.613	82.7053	203.613	81.5074	203.613	82.5772	203.613	81.5124	203.613	82.4775	203.613	81.5601	203.613	82.4065	203.613	81.6411	203.613	82.3603	203.613	81.7447	203.613	82.331	203.613	81.8595	203.613	82.3078	203.613	81.9745	203.613	82.2788	203.613	82.0799	203.613	82.234	203.613	82.1679
210.938	83.1041	210.938	82.9435	210.938	83.2198	210.938	82.748	210.938	83.2844	210.938	82.5305	210.938	83.2965	210.938	82.3063	210.938	83.2593	210.938	82.0915	210.938	83.181	210.938	81.9012	210.938	83.0735	210.938	81.748	210.938	82.9508	210.938	81.6403	210.938	82.8259	210.938	81.5807	210.938	82.7086	210.938	81.5667	210.938	82.6041	210.938	81.5912	210.938	82.5141	210.938	81.6444	210.938	82.4375	210.938	81.7162	210.938	82.3726	210.938	81.7974	210.938	82.3168	210.938	81.8812	210.938	82.2665	210.938	81.9624	210.938	82.2174	210.938	82.0379	210.938	82.1648	210.938	82.1055
218.262	82.848	218.262	82.6777	218.262	82.972	218.262	82.4733	218.262	83.0413	218.262	82.2502	218.262	83.0536	218.262	82.025	218.262	83.0128	218.262	81.8142	218.262	82.9294	218.262	81.6322	218.262	82.8191	218.262	81.4909	218.262	82.7001	218.262	81.3982	218.262	82.5898	218.262	81.3577	218.262	82.5009	218.262	81.3688	218.262	82.4401	218.262	81.4265	218.262	82.4075	218.262	81.5226	218.262	82.3982	218.262	81.6462	218.262	82.4033	218.262	81.7853	218.262	82.4119	218.262	81.9281	218.262	82.4124	218.262	82.0639	218.262	82.3947	218.262	82.1839	218.262	82.3519	218.262	82.2813
225.586	82.8408	225.586	82.6548	225.586	82.9749	225.586	82.4311	225.586	83.048	225.586	82.1872	225.586	83.0569	225.586	81.9423	225.586	83.0046	225.586	81.7156	225.586	82.9007	225.586	81.523	225.586	82.7605	225.586	81.376	225.586	82.6021	225.586	81.2794	225.586	82.4439	225.586	81.2325	225.586	82.3013	225.586	81.2308	225.586	82.1854	225.586	81.268	225.586	82.1032	225.586	81.3382	225.586	82.0578	225.586	81.4357	225.586	82.0472	225.586	81.5544	225.586	82.0621	225.586	81.6855	225.586	82.0856	225.586	81.8173	225.586	82.0976	225.586	81.9354	225.586	82.0808	225.586	82.0264
232.91	82.7675	232.91	82.5805	232.91	82.9011	232.91	82.3529	232.91	82.9727	232.91	82.1006	232.91	82.9783	232.91	81.8422	232.91	82.9199	232.91	81.5974	232.91	82.8062	232.91	81.3854	232.91	82.6518	232.91	81.2216	232.91	82.4755	232.91	81.1155	232.91	82.2964	232.91	81.0681	232.91	82.13	232.91	81.0733	232.91	81.9863	232.91	81.1196	232.91	81.8711	232.91	81.1941	232.91	81.788	232.91	81.2852	232.91	81.7387	232.91	81.3836	232.91	81.7203	232.91	81.4816	232.91	81.7228	232.91	81.572	232.91	81.7302	232.91	81.647	232.91	81.7262	232.91	81.6995
241.699	82.2849	241.699	82.079	241.699	82.4393	241.699	81.8346	241.699	82.5359	241.699	81.5697	241.699	82.5749	241.699	81.3063	241.699	82.5636	241.699	81.0677	241.699	82.5143	241.699	80.8746	241.699	82.4416	241.699	80.7411	241.699	82.3575	241.699	80.6712	241.699	82.2676	241.699	80.6594	241.699	82.1703	241.699	80.6924	241.699	82.0598	241.699	80.7546	241.699	81.933	241.699	80.832	241.699	81.7949	241.699	80.9151	241.699	81.6587	241.699	80.9986	241.699	81.5406	241.699	81.0797	241.699	81.4502	241.699	81.156	241.699	81.3852	241.699	81.2245	241.699	81.3339	241.699	81.2832
250.488	81.92	250.488	81.6619	250.488	82.1183	250.488	81.3621	250.488	82.2461	250.488	81.044	250.488	82.3003	250.488	80.7357	250.488	82.2877	250.488	80.4672	250.488	82.2255	250.488	80.2671	250.488	82.1408	250.488	80.1566	250.488	82.065	250.488	80.1441	250.488	82.0239	250.488	80.2219	250.488	82.0278	250.488	80.368	250.488	82.067	250.488	80.5528	250.488	82.1174	250.488	80.7482	250.488	82.1516	250.488	80.9339	250.488	82.1497	250.488	81.1004	250.488	82.1045	250.488	81.248	250.488	82.0199	250.488	81.3834	250.488	81.907	250.488	81.5144	250.488	81.779	250.488	81.6462
259.277	81.1214	259.277	80.8214	259.277	81.3616	259.277	80.4841	259.277	81.53	259.277	80.1421	259.277	81.6262	259.277	79.8356	259.277	81.661	259.277	79.6073	259.277	81.6554	259.277	79.4949	259.277	81.6367	259.277	79.5204	259.277	81.6319	259.277	79.6825	259.277	81.6605	259.277	79.9564	259.277	81.7288	259.277	80.3021	259.277	81.8313	259.277	80.6771	259.277	81.955	259.277	81.0457	259.277	82.0852	259.277	81.3834	259.277	82.2088	259.277	81.6769	259.277	82.3139	259.277	81.9213	259.277	82.3896	259.277	82.1168	259.277	82.4269	259.277	82.2647	259.277	82.4198	259.277	82.3658
268.066	82.0096	268.066	81.729	268.066	82.1565	268.066	81.3247	268.066	82.1694	268.066	80.8173	268.066	82.059	268.066	80.2416	268.066	81.8503	268.066	79.6515	268.066	81.5876	268.066	79.1232	268.066	81.3352	268.066	78.7497	268.066	81.1671	268.066	78.6155	268.066	81.1425	268.066	78.7573	268.066	81.2781	268.066	79.1422	268.066	81.5425	268.066	79.6877	268.066	81.8767	268.066	80.3018	268.066	82.221	268.066	80.9121	268.066	82.5303	268.066	81.4722	268.066	82.7753	268.066	81.957	268.066	82.9392	268.066	82.355	268.066	83.0125	268.066	82.6613	268.066	82.9911	268.066	82.8738
276.855	82.8365	276.855	82.5693	276.855	82.9867	276.855	82.2005	276.855	83.0091	276.855	81.7494	276.855	82.8986	276.855	81.24	276.855	82.6596	276.855	80.7016	276.855	82.3106	276.855	80.1714	276.855	81.8893	276.855	79.6973	276.855	81.4541	276.855	79.3374	276.855	81.078	276.855	79.1506	276.855	80.8318	276.855	79.1762	276.855	80.7603	276.855	79.4116	276.855	80.8666	276.855	79.81	276.855	81.1121	276.855	80.2994	276.855	81.4327	276.855	80.8088	276.855	81.7586	276.855	81.2831	276.855	82.0292	276.855	81.6848	276.855	82.2025	276.855	81.9904	276.855	82.2563	276.855	82.1843
287.109	82.6901	287.109	82.4682	287.109	82.7986	287.109	82.1468	287.109	82.7858	287.109	81.7458	287.109	82.6512	287.109	81.2903	287.109	82.4042	287.109	80.81	287.109	82.0663	287.109	80.3377	287.109	81.6742	287.109	79.9083	287.109	81.2776	287.109	79.5568	287.109	80.9325	287.109	79.3165	287.109	80.6877	287.109	79.2155	287.109	80.5731	287.109	79.2709	287.109	80.5965	287.109	79.4813	287.109	80.7455	287.109	79.8221	287.109	80.9887	287.109	80.2479	287.109	81.2751	287.109	80.7014	287.109	81.5407	287.109	81.1254	287.109	81.7243	287.109	81.4697	287.109	81.7826	287.109	81.6964
297.363	82.8945	297.363	82.6255	297.363	83.0314	297.363	82.2379	297.363	83.0269	297.363	81.7505	297.363	82.8777	297.363	81.1909	297.363	82.5906	297.363	80.5987	297.363	82.1883	297.363	80.028	297.363	81.7141	297.363	79.5428	297.363	81.2322	297.363	79.2025	297.363	80.817	297.363	79.0396	297.363	80.5309	297.363	79.046	297.363	80.399	297.363	79.1816	297.363	80.403	297.363	79.3976	297.363	80.4992	297.363	79.6559	297.363	80.6423	297.363	79.9339	297.363	80.7944	297.363	80.2172	297.363	80.9231	297.363	80.489	297.363	80.9977	297.363	80.7259	297.363	80.9941	297.363	80.9013
307.617	82.9718	307.617	82.7219	307.617	83.1056	307.617	82.3711	307.617	83.1098	307.617	81.9354	307.617	82.9753	307.617	81.4321	307.617	82.7011	307.617	80.8834	307.617	82.2986	307.617	80.3208	307.617	81.7958	307.617	79.7903	307.617	81.2405	307.617	79.3509	307.617	80.6992	307.617	79.0641	307.617	80.2486	307.617	78.969	307.617	79.9553	307.617	79.0624	307.617	79.8526	307.617	79.3001	307.617	79.9286	307.617	79.6198	307.617	80.1328	307.617	79.9641	307.617	80.3953	307.617	80.2908	307.617	80.6468	307.617	80.5705	307.617	80.8332	307.617	80.7809	307.617	80.9222	307.617	80.903
319.336	82.5805	319.336	82.3002	319.336	82.7462	319.336	81.9241	319.336	82.7834	319.336	81.4746	319.336	82.6849	319.336	80.9766	319.336	82.4516	319.336	80.4567	319.336	82.0945	319.336	79.9436	319.336	81.6357	319.336	79.4698	319.336	81.1097	319.336	79.0749	319.336	80.5646	319.336	78.8035	319.336	80.0644	319.336	78.6946	319.336	79.686	319.336	78.7641	319.336	79.4985	319.336	78.9912	319.336	79.5277	319.336	79.3251	319.336	79.7341	319.336	79.7029	319.336	80.0325	319.336	80.0674	319.336	80.3324	319.336	80.3746	319.336	80.5662	319.336	80.5937	319.336	80.6953	319.336	80.7043
329.59	82.288	329.59	82.0195	329.59	82.4317	329.59	81.6438	329.59	82.4415	329.59	81.1857	329.59	82.3179	329.59	80.6755	329.59	82.0712	329.59	80.1467	329.59	81.7214	329.59	79.6338	329.59	81.297	329.59	79.1711	329.59	80.8313	329.59	78.7914	329.59	80.3575	329.59	78.5236	329.59	79.9068	329.59	78.3897	329.59	79.5158	329.59	78.4015	329.59	79.2394	329.59	78.5563	329.59	79.1434	329.59	78.834	329.59	79.2614	329.59	79.1961	329.59	79.55	329.59	79.5895	329.59	79.9016	329.59	79.9545	329.59	80.202	329.59	80.2344	329.59	80.3736	329.59	80.3834
341.309	82.5145	341.309	82.2474	341.309	82.6534	341.309	81.8592	341.309	82.6613	341.309	81.363	341.309	82.5403	341.309	80.7797	341.309	82.2994	341.309	80.1407	341.309	81.9586	341.309	79.492	341.309	81.5512	341.309	78.8946	341.309	81.1212	341.309	78.4179	341.309	80.7104	341.309	78.1196	341.309	80.345	341.309	78.0231	341.309	80.0336	341.309	78.1109	341.309	79.785	341.309	78.3397	341.309	79.6284	341.309	78.6628	341.309	79.6056	341.309	79.0397	341.309	79.7279	341.309	79.4323	341.309	79.9434	341.309	79.7975	341.309	80.1561	341.309	80.0868	341.309	80.2767	341.309	80.2556
353.027	82.5256	353.027	82.222	353.027	82.6763	353.027	81.7886	353.027	82.6597	353.027	81.2547	353.027	82.4738	353.027	80.6528	353.027	82.1332	353.027	80.0169	353.027	81.6722	353.027	79.3825	353.027	81.143	353.027	78.7894	353.027	80.6057	353.027	78.2849	353.027	80.1128	353.027	77.9205	353.027	79.6956	353.027	77.7366	353.027	79.3664	353.027	77.7424	353.027	79.1366	353.027	77.9105	353.027	79.0309	353.027	78.1916	353.027	79.0709	353.027	78.5348	353.027	79.2375	353.027	78.8962	353.027	79.4605	353.027	79.2358	353.027	79.6499	353.027	79.5131	353.027	79.7364	353.027	79.6893
366.211	82.4976	366.211	82.1972	366.211	82.6614	366.211	81.7738	366.211	82.6783	366.211	81.244	366.211	82.5409	366.211	80.6279	366.211	82.2453	366.211	79.9506	366.211	81.7963	366.211	79.2481	366.211	81.2184	366.211	78.5744	366.211	80.5713	366.211	78.0047	366.211	79.9552	366.211	77.6221	366.211	79.4834	366.211	77.4813	366.211	79.2227	366.211	77.5752	366.211	79.1586	366.211	77.8394	366.211	79.2253	366.211	78.192	366.211	79.3594	366.211	78.5685	366.211	79.5175	366.211	78.9292	366.211	79.664	366.211	79.2502	366.211	79.7612	366.211	79.5113	366.211	79.7762	366.211	79.692
379.395	82.5217	379.395	82.1996	379.395	82.7205	379.395	81.7725	379.395	82.7818	379.395	81.2611	379.395	82.6951	379.395	80.6859	379.395	82.4538	379.395	80.0656	379.395	82.0574	379.395	79.4208	379.395	81.5158	379.395	78.7825	379.395	80.8557	379.395	78.2033	379.395	80.1222	379.395	77.7573	379.395	79.382	379.395	77.5182	379.395	78.7321	379.395	77.5212	379.395	78.3038	379.395	77.7421	379.395	78.2197	379.395	78.1151	379.395	78.4908	379.395	78.5664	379.395	78.9758	379.395	79.0323	379.395	79.4774	379.395	79.4593	379.395	79.8499	379.395	79.798	379.395	80.027	379.395	80.0011
392.578	82.4731	392.578	82.16	392.578	82.6499	392.578	81.7351	392.578	82.6695	392.578	81.226	392.578	82.5153	392.578	80.6606	392.578	82.1807	392.578	80.0619	392.578	81.6795	392.578	79.4459	392.578	81.0576	392.578	78.8262	392.578	80.3905	392.578	78.2279	392.578	79.7602	392.578	77.7017	392.578	79.2176	392.578	77.3248	392.578	78.7651	392.578	77.1727	392.578	78.3869	392.578	77.2714	392.578	78.1094	392.578	77.5762	392.578	78.0179	392.578	77.9974	392.578	78.1748	392.578	78.4417	392.578	78.5187	392.578	78.8325	392.578	78.8916	392.578	79.1096	392.578	79.1507	392.578	79.2256
405.762	82.4087	405.762	82.114	405.762	82.5476	405.762	81.6827	405.762	82.5157	405.762	81.1356	405.762	82.3075	405.762	80.4966	405.762	81.9364	405.762	79.7949	405.762	81.4396	405.762	79.0689	405.762	80.8754	405.762	78.3676	405.762	80.309	405.762	77.7496	405.762	79.7939	405.762	77.277	405.762	79.358	405.762	77.0026	405.762	79.0022	405.762	76.9545	405.762	78.721	405.762	77.1259	405.762	78.5368	405.762	77.4757	405.762	78.5041	405.762	77.9389	405.762	78.6552	405.762	78.4383	405.762	78.9385	405.762	78.8964	405.762	79.2326	405.762	79.2436	405.762	79.4183	405.762	79.4266
420.41	82.4776	420.41	82.18	420.41	82.604	420.41	81.7343	420.41	82.5507	420.41	81.1733	420.41	82.3284	420.41	80.5351	420.41	81.9662	420.41	79.8595	420.41	81.5034	420.41	79.1872	420.41	80.976	420.41	78.5616	420.41	80.4074	420.41	78.0303	420.41	79.8138	420.41	77.6412	420.41	79.2209	420.41	77.4286	420.41	78.6829	420.41	77.4015	420.41	78.288	420.41	77.5443	420.41	78.1299	420.41	77.8275	420.41	78.2445	420.41	78.2121	420.41	78.5679	420.41	78.6447	420.41	78.9693	420.41	79.0571	420.41	79.3182	420.41	79.377	420.41	79.5243	420.41	79.5442
435.059	82.3961	435.059	82.0921	435.059	82.5562	435.059	81.6573	435.059	82.5675	435.059	81.1099	435.059	82.4315	435.059	80.4683	435.059	82.1539	435.059	79.7489	435.059	81.7461	435.059	78.9736	435.059	81.2335	435.059	78.1879	435.059	80.6596	435.059	77.4814	435.059	80.0726	435.059	76.9817	435.059	79.4997	435.059	76.7951	435.059	78.946	435.059	76.9318	435.059	78.4441	435.059	77.3029	435.059	78.1126	435.059	77.7913	435.059	78.1116	435.059	78.3087	435.059	78.4642	435.059	78.8025	435.059	78.9863	435.059	79.2357	435.059	79.4475	435.059	79.5663	435.059	79.711	435.059	79.7418
451.172	82.7422	451.172	82.3775	451.172	82.9353	451.172	81.8573	451.172	82.9409	451.172	81.2009	451.172	82.7423	451.172	80.4319	451.172	82.3273	451.172	79.5782	451.172	81.7031	451.172	78.672	451.172	80.917	451.172	77.7531	451.172	80.0688	451.172	76.8765	451.172	79.2949	451.172	76.1228	451.172	78.702	451.172	75.6	451.172	78.2896	451.172	75.4127	451.172	77.9582	451.172	75.5938	451.172	77.6239	451.172	76.0651	451.172	77.3239	451.172	76.6802	451.172	77.205	451.172	77.2954	451.172	77.3655	451.172	77.801	451.172	77.714	451.172	78.1196	451.172	78.0466	451.172	78.2035
465.82	82.3844	465.82	82.0387	465.82	82.56	465.82	81.537	465.82	82.553	465.82	80.8953	465.82	82.3558	465.82	80.133	465.82	81.9708	465.82	79.2771	465.82	81.418	465.82	78.3699	465.82	80.7397	465.82	77.4774	465.82	79.9993	465.82	76.6906	465.82	79.2744	465.82	76.111	465.82	78.6483	465.82	75.8182	465.82	78.1978	465.82	75.8426	465.82	77.9744	465.82	76.1616	465.82	77.9872	465.82	76.7113	465.82	78.2006	465.82	77.3959	465.82	78.5444	465.82	78.102	465.82	78.9268	465.82	78.722	465.82	79.2508	465.82	79.1749	465.82	79.4324	465.82	79.415
483.398	82.4121	483.398	82.0751	483.398	82.5563	483.398	81.5671	483.398	82.4925	483.398	80.9164	483.398	82.2151	483.398	80.1551	483.398	81.7364	483.398	79.3138	483.398	81.0967	483.398	78.4172	483.398	80.3675	483.398	77.4942	483.398	79.6465	483.398	76.6084	483.398	79.0418	483.398	75.8878	483.398	78.635	483.398	75.4978	483.398	78.4349	483.398	75.5277	483.398	78.3907	483.398	75.9187	483.398	78.4709	483.398	76.5415	483.398	78.6943	483.398	77.2891	483.398	79.0625	483.398	78.0809	483.398	79.4907	483.398	78.8318	483.398	79.8361	483.398	79.4476	483.398	79.9751	483.398	79.8455
499.512	83.3746	499.512	82.9754	499.512	83.5644	499.512	82.3857	499.512	83.5348	499.512	81.6344	499.512	83.2853	499.512	80.7592	499.512	82.8258	499.512	79.8021	499.512	82.1767	499.512	78.803	499.512	81.366	499.512	77.7993	499.512	80.4264	499.512	76.8398	499.512	79.4028	499.512	76.0105	499.512	78.3852	499.512	75.4501	499.512	77.5591	499.512	75.3055	499.512	77.1902	499.512	75.6298	499.512	77.4315	499.512	76.3352	499.512	78.1377	499.512	77.2593	499.512	78.9975	499.512	78.242	499.512	79.7554	499.512	79.1484	499.512	80.266	499.512	79.8694	499.512	80.4618	499.512	80.3239
517.09	83.4569	517.09	83.057	517.09	83.6353	517.09	82.4579	517.09	83.591	517.09	81.7046	517.09	83.3416	517.09	80.8599	517.09	82.9194	517.09	79.9907	517.09	82.3633	517.09	79.1438	517.09	81.7105	517.09	78.3303	517.09	80.9923	517.09	77.5364	517.09	80.2268	517.09	76.7625	517.09	79.4055	517.09	76.0613	517.09	78.4979	517.09	75.548	517.09	77.5188	517.09	75.3826	517.09	76.6843	517.09	75.7113	517.09	76.488	517.09	76.5413	517.09	77.2046	517.09	77.6691	517.09	78.3874	517.09	78.7925	517.09	79.4328	517.09	79.6574	517.09	80.0323	517.09	80.1002
536.133	83.7103	536.133	83.2664	536.133	83.8762	536.133	82.5766	536.133	83.7517	536.133	81.6951	536.133	83.3453	536.133	80.6991	536.133	82.6897	536.133	79.6785	536.133	81.85	536.133	78.7087	536.133	80.9373	536.133	77.8243	536.133	80.1112	536.133	77.0225	536.133	79.5186	536.133	76.3081	536.133	79.1697	536.133	75.7415	536.133	78.9083	536.133	75.4304	536.133	78.5623	536.133	75.4523	536.133	78.1199	536.133	75.8023	536.133	77.7897	536.133	76.4236	536.133	77.8488	536.133	77.2289	536.133	78.3095	536.133	78.0778	536.133	78.8716	536.133	78.7889	536.133	79.2218	536.133	79.2
555.176	83.4686	555.176	82.9954	555.176	83.6827	555.176	82.2737	555.176	83.6484	555.176	81.3463	555.176	83.3864	555.176	80.2941	555.176	82.9145	555.176	79.2287	555.176	82.2384	555.176	78.2643	555.176	81.3571	555.176	77.4794	555.176	80.2916	555.176	76.8894	555.176	79.133	555.176	76.4511	555.176	78.0776	555.176	76.1004	555.176	77.3751	555.176	75.8059	555.176	77.1557	555.176	75.6177	555.176	77.3377	555.176	75.671	555.176	77.75	555.176	76.0913	555.176	78.2488	555.176	76.8419	555.176	78.7196	555.176	77.7145	555.176	79.0567	555.176	78.4765	555.176	79.1653	555.176	78.9782
574.219	83.8269	574.219	83.3097	574.219	84.0934	574.219	82.5628	574.219	84.1068	574.219	81.6265	574.219	83.8747	574.219	80.5532	574.219	83.4042	574.219	79.3982	574.219	82.7058	574.219	78.219	574.219	81.8164	574.219	77.0942	574.219	80.817	574.219	76.1396	574.219	79.7999	574.219	75.4733	574.219	78.8035	574.219	75.1261	574.219	77.8199	574.219	75.0129	574.219	76.9358	574.219	75.0423	574.219	76.4532	574.219	75.2512	574.219	76.6714	574.219	75.795	574.219	77.4731	574.219	76.729	574.219	78.4379	574.219	77.8472	574.219	79.2061	574.219	78.8309	574.219	79.5708	574.219	79.4431
594.727	83.7476	594.727	83.2531	594.727	83.9673	594.727	82.5014	594.727	83.9156	594.727	81.5331	594.727	83.6126	594.727	80.4105	594.727	83.0899	594.727	79.2037	594.727	82.3868	594.727	77.9643	594.727	81.5592	594.727	76.7041	594.727	80.6964	594.727	75.414	594.727	79.9055	594.727	74.1528	594.727	79.2132	594.727	73.1679	594.727	78.4784	594.727	72.8203	594.727	77.4972	594.727	73.1692	594.727	76.3101	594.727	73.9148	594.727	75.5661	594.727	74.8364	594.727	76.0413	594.727	75.8904	594.727	77.2508	594.727	77.0013	594.727	78.2722	594.727	77.9781	594.727	78.7351	594.727	78.6082
615.234	84.8403	615.234	84.4266	615.234	84.9508	615.234	83.7361	615.234	84.7653	615.234	82.8347	615.234	84.3117	615.234	81.8144	615.234	83.6257	615.234	80.7608	615.234	82.7502	615.234	79.7195	615.234	81.7501	615.234	78.6908	615.234	80.7313	615.234	77.6476	615.234	79.8315	615.234	76.5648	615.234	79.154	615.234	75.4726	615.234	78.6887	615.234	74.5144	615.234	78.3283	615.234	73.9291	615.234	77.9798	615.234	73.9119	615.234	77.6599	615.234	74.493	615.234	77.5231	615.234	75.5369	615.234	77.7377	615.234	76.7649	615.234	78.2053	615.234	77.8319	615.234	78.5553	615.234	78.465
637.207	84.7727	637.207	84.2739	637.207	85.0121	637.207	83.5621	637.207	84.9808	637.207	82.7108	637.207	84.6903	637.207	81.7934	637.207	84.1537	637.207	80.8553	637.207	83.3679	637.207	79.9155	637.207	82.3221	637.207	78.9922	637.207	81.0389	637.207	78.121	637.207	79.6355	637.207	77.3483	637.207	78.3584	637.207	76.7087	637.207	77.4533	637.207	76.205	637.207	76.9131	637.207	75.8157	637.207	76.5698	637.207	75.5557	637.207	76.4614	637.207	75.5619	637.207	76.8248	637.207	76.0386	637.207	77.6188	637.207	76.9569	637.207	78.4112	637.207	77.9554	637.207	78.8071	637.207	78.644
659.18	84.4189	659.18	84.0437	659.18	84.5173	659.18	83.4305	659.18	84.3279	659.18	82.6379	659.18	83.8757	659.18	81.7344	659.18	83.2139	659.18	80.7873	659.18	82.3895	659.18	79.8468	659.18	81.4188	659.18	78.9307	659.18	80.333	659.18	78.0208	659.18	79.2468	659.18	77.1081	659.18	78.312	659.18	76.2815	659.18	77.5678	659.18	75.7517	659.18	76.9009	659.18	75.6613	659.18	76.2153	659.18	75.8994	659.18	75.6623	659.18	76.2981	659.18	75.6934	659.18	76.8475	659.18	76.5196	659.18	77.5606	659.18	77.6369	659.18	78.2559	659.18	78.4274	659.18	78.6226
682.617	84.5664	682.617	84.1525	682.617	84.6929	682.617	83.4976	682.617	84.5091	682.617	82.6564	682.617	84.0321	682.617	81.6771	682.617	83.3253	682.617	80.5953	682.617	82.4749	682.617	79.4562	682.617	81.5643	682.617	78.3486	682.617	80.7044	682.617	77.3993	682.617	80.0344	682.617	76.7001	682.617	79.5737	682.617	76.243	682.617	79.1513	682.617	75.961	682.617	78.6403	682.617	75.8184	682.617	78.1546	682.617	75.8431	682.617	77.8839	682.617	76.0996	682.617	77.8282	682.617	76.6286	682.617	77.896	682.617	77.3422	682.617	78.0844	682.617	77.9964	682.617	78.3149	682.617	78.3428
707.52	84.5519	707.52	84.1103	707.52	84.7329	707.52	83.4211	707.52	84.6785	707.52	82.5474	707.52	84.4282	707.52	81.6033	707.52	83.9908	707.52	80.7233	707.52	83.3163	707.52	79.9948	707.52	82.3479	707.52	79.3944	707.52	81.1156	707.52	78.7697	707.52	79.7653	707.52	77.9262	707.52	78.4743	707.52	76.8171	707.52	77.3379	707.52	75.7151	707.52	76.3604	707.52	75.1032	707.52	75.5753	707.52	75.1235	707.52	75.1684	707.52	75.4536	707.52	75.3839	707.52	75.8723	707.52	76.1531	707.52	76.4215	707.52	77.0222	707.52	77.0689	707.52	77.5482	707.52	77.5387
732.422	84.2249	732.422	83.8539	732.422	84.3586	732.422	83.2933	732.422	84.2567	732.422	82.6396	732.422	83.9486	732.422	81.9774	732.422	83.4516	732.422	81.2912	732.422	82.7178	732.422	80.4804	732.422	81.654	732.422	79.4873	732.422	80.2725	732.422	78.3775	732.422	78.8501	732.422	77.2985	732.422	77.8633	732.422	76.4146	732.422	77.5643	732.422	75.8845	732.422	77.6415	732.422	75.7982	732.422	77.5365	732.422	76.0748	732.422	76.9432	732.422	76.5246	732.422	76.2122	732.422	77.0595	732.422	76.4066	732.422	77.7095	732.422	77.5598	732.422	78.3818	732.422	78.5213	732.422	78.7636
757.324	84.9438	757.324	84.6214	757.324	85.0258	757.324	84.0955	757.324	84.8944	757.324	83.4291	757.324	84.6033	757.324	82.6415	757.324	84.1275	757.324	81.6759	757.324	83.3389	757.324	80.4593	757.324	82.1818	757.324	79.0072	757.324	80.8637	757.324	77.4929	757.324	79.7378	757.324	76.2265	757.324	78.9385	757.324	75.4821	757.324	78.3428	757.324	75.2616	757.324	77.9377	757.324	75.3397	757.324	77.9323	757.324	75.5642	757.324	78.2559	757.324	75.976	757.324	78.4837	757.324	76.6514	757.324	78.4226	757.324	77.4841	757.324	78.3298	757.324	78.1848	757.324	78.439	757.324	78.5001
785.156	84.4861	785.156	84.1639	785.156	84.6486	785.156	83.7383	785.156	84.6169	785.156	83.2539	785.156	84.3566	785.156	82.6909	785.156	83.8114	785.156	81.9714	785.156	82.9474	785.156	81.0321	785.156	81.822	785.156	79.8843	785.156	80.5723	785.156	78.5998	785.156	79.3628	785.156	77.268	785.156	78.3726	785.156	76.0378	785.156	77.6234	785.156	75.2015	785.156	76.8815	785.156	75.0511	785.156	75.9975	785.156	75.4662	785.156	75.2084	785.156	75.9861	785.156	75.0313	785.156	76.3598	785.156	75.5691	785.156	76.6668	785.156	76.3427	785.156	76.9789	785.156	76.9263	785.156	77.1319
811.523	84.8038	811.523	84.4611	811.523	84.9878	811.523	84.0181	811.523	84.9849	811.523	83.5212	811.523	84.8024	811.523	82.962	811.523	84.4125	811.523	82.2728	811.523	83.6647	811.523	81.3732	811.523	82.3799	811.523	80.2263	811.523	80.6049	811.523	78.8537	811.523	78.7438	811.523	77.3278	811.523	77.4641	811.523	75.816	811.523	77.298	811.523	74.7352	811.523	77.8321	811.523	74.6542	811.523	78.1639	811.523	75.4701	811.523	77.8042	811.523	76.5084	811.523	76.8594	811.523	77.455	811.523	76.5123	811.523	78.3457	811.523	77.6821	811.523	79.1153	811.523	78.9805	811.523	79.4456
840.82	85.3797	840.82	85.142	840.82	85.4367	840.82	84.741	840.82	85.3845	840.82	84.2529	840.82	85.2503	840.82	83.6828	840.82	84.8874	840.82	82.9055	840.82	84.0912	840.82	81.774	840.82	82.8699	840.82	80.2997	840.82	81.4743	840.82	78.7385	840.82	80.0251	840.82	77.4368	840.82	78.4412	840.82	76.487	840.82	76.7553	840.82	75.7109	840.82	75.3686	840.82	75.1095	840.82	75.2976	840.82	75.0223	840.82	76.5388	840.82	75.6126	840.82	77.6598	840.82	76.5918	840.82	78.0583	840.82	77.5763	840.82	78.1329	840.82	78.2771	840.82	78.3501	840.82	78.5179
870.117	85.8888	870.117	85.4623	870.117	85.9439	870.117	84.7538	870.117	85.6381	870.117	83.912	870.117	85.0717	870.117	83.0456	870.117	84.3898	870.117	82.1507	870.117	83.6808	870.117	81.156	870.117	82.8504	870.117	80.0392	870.117	81.6665	870.117	78.8842	870.117	80.0842	870.117	77.7953	870.117	78.6258	870.117	76.763	870.117	77.9629	870.117	75.7274	870.117	77.839	870.117	74.8661	870.117	77.6388	870.117	74.6058	870.117	77.0966	870.117	75.0687	870.117	76.5569	870.117	76.0201	870.117	77.0839	870.117	77.2676	870.117	78.4833	870.117	78.5356	870.117	79.4176	870.117	79.3852
900.879	86.1465	900.879	85.7538	900.879	86.1847	900.879	85.064	900.879	85.9669	900.879	84.254	900.879	85.6172	900.879	83.4119	900.879	85.1316	900.879	82.3991	900.879	84.3666	900.879	80.9986	900.879	83.17	900.879	79.2046	900.879	81.4868	900.879	77.432	900.879	79.3578	900.879	76.3361	900.879	76.9932	900.879	76.0464	900.879	75.0619	900.879	76.1098	900.879	74.5673	900.879	76.2246	900.879	75.7577	900.879	76.334	900.879	77.3942	900.879	76.5511	900.879	78.2015	900.879	77.1156	900.879	77.9184	900.879	77.9833	900.879	77.4267	900.879	78.6493	900.879	77.8841	900.879	78.6118
933.105	85.707	933.105	85.2441	933.105	85.7701	933.105	84.5703	933.105	85.4055	933.105	83.8495	933.105	84.7763	933.105	83.0643	933.105	84.0646	933.105	82.0626	933.105	83.3307	933.105	80.7449	933.105	82.5884	933.105	79.2169	933.105	81.8461	933.105	77.7064	933.105	80.8822	933.105	76.2227	933.105	79.3038	933.105	74.8188	933.105	77.2575	933.105	74.3444	933.105	75.6649	933.105	74.9991	933.105	75.0723	933.105	75.628	933.105	75.3164	933.105	75.7648	933.105	76.1265	933.105	76.069	933.105	77.1736	933.105	77.3688	933.105	78.3526	933.105	78.9366	933.105	79.3968	933.105	79.7045
965.332	85.3619	965.332	84.9701	965.332	85.3893	965.332	84.2487	965.332	85.0802	965.332	83.2896	965.332	84.5215	965.332	82.2495	965.332	83.8438	965.332	81.2437	965.332	83.1052	965.332	80.2305	965.332	82.1684	965.332	79.3212	965.332	80.9125	965.332	78.8226	965.332	79.4857	965.332	78.5055	965.332	78.0947	965.332	77.4949	965.332	76.5883	965.332	75.0573	965.332	74.5659	965.332	72.23	965.332	72.4232	965.332	73.3517	965.332	72.2221	965.332	75.8834	965.332	73.8792	965.332	77.3243	965.332	75.3134	965.332	78.0341	965.332	76.7057	965.332	78.6115	965.332	78.1712	965.332	78.8513
1,000.49	86.2058	1,000.49	85.8822	1,000.49	86.3287	1,000.49	85.3701	1,000.49	86.281	1,000.49	84.6324	1,000.49	86.015	1,000.49	83.5224	1,000.49	85.4004	1,000.49	81.9173	1,000.49	84.4095	1,000.49	79.9766	1,000.49	83.1003	1,000.49	78.5271	1,000.49	81.4669	1,000.49	78.4815	1,000.49	79.5074	1,000.49	79.1705	1,000.49	77.646	1,000.49	79.1347	1,000.49	77.0371	1,000.49	77.7645	1,000.49	77.4088	1,000.49	75.3914	1,000.49	77.4527	1,000.49	73.0405	1,000.49	76.9975	1,000.49	72.1554	1,000.49	76.2304	1,000.49	73.3082	1,000.49	74.7843	1,000.49	75.7955	1,000.49	73.5787	1,000.49	77.7168	1,000.49	75.7684	1,000.49	77.8098
1,035.64	86.1633	1,035.64	86.4323	1,035.64	85.9819	1,035.64	86.3807	1,035.64	86.0451	1,035.64	85.7241	1,035.64	86.0424	1,035.64	84.3803	1,035.64	85.6846	1,035.64	82.4147	1,035.64	85.0622	1,035.64	80.0404	1,035.64	84.2718	1,035.64	77.8048	1,035.64	83.0736	1,035.64	76.4188	1,035.64	81.3274	1,035.64	76.3721	1,035.64	79.3619	1,035.64	76.9746	1,035.64	77.5776	1,035.64	76.9501	1,035.64	76.0812	1,035.64	76.3329	1,035.64	75.8123	1,035.64	75.9799	1,035.64	77.334	1,035.64	75.9913	1,035.64	78.6547	1,035.64	75.7639	1,035.64	77.941	1,035.64	75.7798	1,035.64	74.8417	1,035.64	76.5515	1,035.64	74.1312	1,035.64	76.3228
1,072.27	85.0358	1,072.27	85.098	1,072.27	85.2672	1,072.27	85.2229	1,072.27	85.6317	1,072.27	84.9378	1,072.27	85.8151	1,072.27	83.879	1,072.27	85.6963	1,072.27	82.1544	1,072.27	85.2574	1,072.27	80.4446	1,072.27	84.2912	1,072.27	79.2776	1,072.27	82.652	1,072.27	78.2559	1,072.27	80.6638	1,072.27	77.6581	1,072.27	78.5854	1,072.27	77.919	1,072.27	76.5942	1,072.27	77.8202	1,072.27	75.9091	1,072.27	76.6961	1,072.27	76.7105	1,072.27	74.1153	1,072.27	77.7139	1,072.27	72.9252	1,072.27	77.8607	1,072.27	75.2709	1,072.27	76.5293	1,072.27	76.5023	1,072.27	73.9037	1,072.27	76.3932	1,072.27	73.2797	1,072.27	75.2634
1,108.89	83.5711	1,108.89	83.8097	1,108.89	84.0302	1,108.89	84.4474	1,108.89	84.7001	1,108.89	84.8074	1,108.89	84.9599	1,108.89	84.292	1,108.89	84.7561	1,108.89	82.673	1,108.89	84.3903	1,108.89	80.5345	1,108.89	83.8484	1,108.89	79.2041	1,108.89	82.7808	1,108.89	79.0345	1,108.89	81.0206	1,108.89	78.9811	1,108.89	78.7538	1,108.89	78.4327	1,108.89	76.6391	1,108.89	77.7073	1,108.89	74.5157	1,108.89	77.0325	1,108.89	72.6896	1,108.89	76.3665	1,108.89	74.8139	1,108.89	76.0377	1,108.89	77.9669	1,108.89	75.9751	1,108.89	78.0513	1,108.89	75.3285	1,108.89	74.2344	1,108.89	73.9886	1,108.89	69.3144	1,108.89	71.9629
1,148.44	81.2402	1,148.44	81.4237	1,148.44	82.0984	1,148.44	82.3967	1,148.44	83.284	1,148.44	83.2124	1,148.44	84.1595	1,148.44	83.1337	1,148.44	84.5126	1,148.44	82.1264	1,148.44	84.2829	1,148.44	81.1492	1,148.44	83.4165	1,148.44	80.755	1,148.44	81.979	1,148.44	80.2152	1,148.44	80.1506	1,148.44	79.248	1,148.44	77.7069	1,148.44	78.233	1,148.44	74.4742	1,148.44	77.7765	1,148.44	74.1786	1,148.44	77.3642	1,148.44	76.6989	1,148.44	75.8931	1,148.44	77.8384	1,148.44	74.0155	1,148.44	77.4371	1,148.44	73.7008	1,148.44	76.0316	1,148.44	73.7567	1,148.44	72.9657	1,148.44	72.7606	1,148.44	69.0813	1,148.44	70.4735
1,189.45	78.1581	1,189.45	77.9338	1,189.45	80.405	1,189.45	79.5203	1,189.45	82.5929	1,189.45	80.5848	1,189.45	83.9016	1,189.45	80.2763	1,189.45	84.2732	1,189.45	79.3571	1,189.45	83.7339	1,189.45	79.6345	1,189.45	82.4017	1,189.45	80.5198	1,189.45	80.9901	1,189.45	80.2187	1,189.45	80.1749	1,189.45	78.6404	1,189.45	78.7995	1,189.45	77.4656	1,189.45	75.1998	1,189.45	77.8027	1,189.45	71.0441	1,189.45	77.8787	1,189.45	72.0943	1,189.45	76.0568	1,189.45	74.6882	1,189.45	73.1752	1,189.45	76.7788	1,189.45	73.3848	1,189.45	77.3367	1,189.45	74.751	1,189.45	74.1845	1,189.45	74.0464	1,189.45	65.8979	1,189.45	70.0448
1,230.47	73.8119	1,230.47	74.0629	1,230.47	78.8138	1,230.47	77.58	1,230.47	82.3474	1,230.47	79.4619	1,230.47	83.7272	1,230.47	79.7124	1,230.47	83.7343	1,230.47	79.6562	1,230.47	83.4367	1,230.47	80.3885	1,230.47	82.9508	1,230.47	80.3284	1,230.47	81.4248	1,230.47	78.526	1,230.47	78.7412	1,230.47	76.0984	1,230.47	75.7066	1,230.47	75.5292	1,230.47	73.3084	1,230.47	76.8839	1,230.47	71.9446	1,230.47	77.8004	1,230.47	71.8949	1,230.47	77.1411	1,230.47	74.9703	1,230.47	75.1968	1,230.47	77.2977	1,230.47	73.5595	1,230.47	76.5692	1,230.47	73.0298	1,230.47	72.1768	1,230.47	70.9107	1,230.47	62.1253	1,230.47	64.823
1,274.41	75.5251	1,274.41	63.5049	1,274.41	80.7911	1,274.41	72.83	1,274.41	83.2552	1,274.41	77.0842	1,274.41	84.1337	1,274.41	77.895	1,274.41	84.1668	1,274.41	78.0875	1,274.41	83.611	1,274.41	79.0418	1,274.41	82.2701	1,274.41	79.0497	1,274.41	80.3557	1,274.41	77.3667	1,274.41	78.5365	1,274.41	75.0968	1,274.41	76.7597	1,274.41	73.9902	1,274.41	73.7222	1,274.41	74.162	1,274.41	69.9	1,274.41	75.1611	1,274.41	72.0074	1,274.41	74.9131	1,274.41	75.4014	1,274.41	72.825	1,274.41	76.7107	1,274.41	70.1432	1,274.41	76.4089	1,274.41	70.6499	1,274.41	73.6597	1,274.41	69.696	1,274.41	65.8727	1,274.41	60.5445
1,319.82	78.7401	1,319.82	70.1102	1,319.82	82.5103	1,319.82	68.2921	1,319.82	84.5554	1,319.82	74.6569	1,319.82	85.2179	1,319.82	75.3589	1,319.82	84.687	1,319.82	77.3102	1,319.82	83.3962	1,319.82	78.8734	1,319.82	81.5199	1,319.82	77.6692	1,319.82	78.9171	1,319.82	74.4268	1,319.82	75.8347	1,319.82	73.3725	1,319.82	72.1103	1,319.82	73.5811	1,319.82	69.707	1,319.82	72.5852	1,319.82	69.6688	1,319.82	72.9786	1,319.82	66.6382	1,319.82	75.2184	1,319.82	70.0049	1,319.82	75.7066	1,319.82	75.7908	1,319.82	72.5823	1,319.82	77.2125	1,319.82	68.7343	1,319.82	75.5198	1,319.82	69.1579	1,319.82	69.178	1,319.82	61.0527
1,366.7	80.0174	1,366.7	74.1966	1,366.7	83.153	1,366.7	70.3029	1,366.7	84.7414	1,366.7	73.814	1,366.7	84.9504	1,366.7	74.7495	1,366.7	83.9159	1,366.7	76.6695	1,366.7	81.9351	1,366.7	77.1009	1,366.7	79.8561	1,366.7	75.7724	1,366.7	78.4834	1,366.7	73.8586	1,366.7	77.15	1,366.7	73.436	1,366.7	74.3589	1,366.7	73.2252	1,366.7	70.5255	1,366.7	73.705	1,366.7	66.6372	1,366.7	73.6507	1,366.7	64.2755	1,366.7	72.1722	1,366.7	70.6627	1,366.7	73.331	1,366.7	74.8487	1,366.7	74.1845	1,366.7	75.6996	1,366.7	72.5228	1,366.7	73.5127	1,366.7	69.7614	1,366.7	64.8624	1,366.7	62.8246
1,413.57	80.9473	1,413.57	77.3598	1,413.57	83.1571	1,413.57	74.1252	1,413.57	84.4303	1,413.57	72.5228	1,413.57	84.5931	1,413.57	72.1819	1,413.57	83.4335	1,413.57	76.5247	1,413.57	81.248	1,413.57	76.3134	1,413.57	78.8222	1,413.57	73.6534	1,413.57	76.3359	1,413.57	75.6031	1,413.57	72.5047	1,413.57	76.826	1,413.57	66.8202	1,413.57	75.3091	1,413.57	66.1336	1,413.57	73.0405	1,413.57	67.0466	1,413.57	71.6064	1,413.57	63.6553	1,413.57	71.2168	1,413.57	65.9782	1,413.57	70.9442	1,413.57	72.6378	1,413.57	68.8851	1,413.57	75.2987	1,413.57	66.4231	1,413.57	74.2482	1,413.57	65.7047	1,413.57	68.2032	1,413.57	63.1581
1,463.38	81.1676	1,463.38	78.3155	1,463.38	82.7668	1,463.38	74.8678	1,463.38	83.8219	1,463.38	70.9837	1,463.38	83.9224	1,463.38	71.4505	1,463.38	82.2794	1,463.38	75.609	1,463.38	78.9769	1,463.38	74.9553	1,463.38	75.0602	1,463.38	74.3662	1,463.38	72.5061	1,463.38	76.275	1,463.38	70.8415	1,463.38	75.777	1,463.38	67.1804	1,463.38	74.1764	1,463.38	62.0888	1,463.38	73.1505	1,463.38	57.5532	1,463.38	71.7322	1,463.38	59.4217	1,463.38	69.7265	1,463.38	67.8304	1,463.38	68.6587	1,463.38	70.2875	1,463.38	69.161	1,463.38	71.7281	1,463.38	68.2795	1,463.38	72.2942	1,463.38	66.1875	1,463.38	68.5991	1,463.38	61.3071
1,516.11	81.1535	1,516.11	78.5942	1,516.11	82.4882	1,516.11	74.9403	1,516.11	82.914	1,516.11	66.0607	1,516.11	82.5283	1,516.11	68.5336	1,516.11	80.81	1,516.11	72.2373	1,516.11	77.7877	1,516.11	71.3732	1,516.11	74.0284	1,516.11	73.8821	1,516.11	70.1802	1,516.11	74.3915	1,516.11	66.9495	1,516.11	72.1842	1,516.11	62.8591	1,516.11	72.2268	1,516.11	62.0789	1,516.11	73.714	1,516.11	65.7132	1,516.11	72.7421	1,516.11	60.9211	1,516.11	69.958	1,516.11	63.1452	1,516.11	68.1699	1,516.11	67.3355	1,516.11	68.3389	1,516.11	70.8416	1,516.11	65.2946	1,516.11	71.1793	1,516.11	52.9955	1,516.11	67.9415	1,516.11	64.4428
1,568.85	80.9613	1,568.85	78.1456	1,568.85	82.6093	1,568.85	74.6712	1,568.85	82.4857	1,568.85	67.3508	1,568.85	81.1473	1,568.85	68.3826	1,568.85	79.2046	1,568.85	70.1446	1,568.85	76.2904	1,568.85	72.1111	1,568.85	71.6262	1,568.85	74.3272	1,568.85	67.9972	1,568.85	72.1577	1,568.85	67.3424	1,568.85	69.4	1,568.85	65.7061	1,568.85	70.0192	1,568.85	63.4069	1,568.85	69.5378	1,568.85	58.6792	1,568.85	69.8285	1,568.85	62.9907	1,568.85	71.676	1,568.85	67.2163	1,568.85	69.6077	1,568.85	67.5977	1,568.85	65.4536	1,568.85	69.2879	1,568.85	65.1579	1,568.85	68.9867	1,568.85	55.9569	1,568.85	66.7673	1,568.85	63.9036
1,624.51	82.2943	1,624.51	79.4205	1,624.51	82.9188	1,624.51	73.997	1,624.51	81.8716	1,624.51	63.7323	1,624.51	80.2227	1,624.51	59.3378	1,624.51	77.631	1,624.51	67.342	1,624.51	73.4811	1,624.51	71.5138	1,624.51	69.3192	1,624.51	72.5286	1,624.51	65.3075	1,624.51	72.4406	1,624.51	63.8688	1,624.51	72.1626	1,624.51	65.4428	1,624.51	71.4397	1,624.51	65.0627	1,624.51	71.7338	1,624.51	62.5357	1,624.51	70.2904	1,624.51	59.8548	1,624.51	67.7674	1,624.51	58.7702	1,624.51	67.1957	1,624.51	63.4281	1,624.51	64.2624	1,624.51	67.3768	1,624.51	62.8863	1,624.51	68.1883	1,624.51	55.7979	1,624.51	67.8643	1,624.51	65.2364
1,681.64	82.4011	1,681.64	80.3093	1,681.64	83.365	1,681.64	76	1,681.64	83.017	1,681.64	67.4196	1,681.64	80.5731	1,681.64	68.6686	1,681.64	75.3218	1,681.64	72.0253	1,681.64	69.241	1,681.64	72.4896	1,681.64	65.6	1,681.64	70.2046	1,681.64	63.451	1,681.64	72.3701	1,681.64	68.9923	1,681.64	75.486	1,681.64	72.1114	1,681.64	75.8373	1,681.64	73.624	1,681.64	75.7257	1,681.64	75.0935	1,681.64	72.8733	1,681.64	74.1946	1,681.64	63.0812	1,681.64	70.0815	1,681.64	63.0005	1,681.64	52.5128	1,681.64	69.5705	1,681.64	66.0503	1,681.64	62.3812	1,681.64	69.7206	1,681.64	63.9997	1,681.64	71.5525	1,681.64	67.9655
1,741.7	83.3199	1,741.7	81.5791	1,741.7	83.7879	1,741.7	76.6445	1,741.7	83.5632	1,741.7	61.9276	1,741.7	81.2856	1,741.7	68.7118	1,741.7	75.4257	1,741.7	63.8224	1,741.7	70.618	1,741.7	69.5739	1,741.7	72.55	1,741.7	75.7669	1,741.7	73.1758	1,741.7	78.2378	1,741.7	72.7038	1,741.7	78.5183	1,741.7	72.7513	1,741.7	77.7157	1,741.7	75.1949	1,741.7	76.6037	1,741.7	75.8528	1,741.7	75.8232	1,741.7	73.151	1,741.7	71.8908	1,741.7	65.413	1,741.7	66.3374	1,741.7	59.9722	1,741.7	65.1942	1,741.7	62.8291	1,741.7	61.7979	1,741.7	72.2674	1,741.7	57.4399	1,741.7	72.0201	1,741.7	60.2893
1,803.22	83.4486	1,803.22	81.0414	1,803.22	84.3237	1,803.22	75.8706	1,803.22	82.3814	1,803.22	65.5407	1,803.22	78.3121	1,803.22	64.7483	1,803.22	76.3677	1,803.22	74.8838	1,803.22	73.3431	1,803.22	78.2339	1,803.22	74.2855	1,803.22	79.6964	1,803.22	74.3706	1,803.22	74.7126	1,803.22	72.3455	1,803.22	71.812	1,803.22	74.956	1,803.22	79.6406	1,803.22	77.9846	1,803.22	80.9248	1,803.22	77.8175	1,803.22	79.2472	1,803.22	78.5613	1,803.22	78.5769	1,803.22	80.2457	1,803.22	77.7259	1,803.22	77.9751	1,803.22	75.1201	1,803.22	74.0458	1,803.22	66.1523	1,803.22	70.8064	1,803.22	59.861	1,803.22	69.343	1,803.22	68.5174
1,866.21	82.6338	1,866.21	81.4375	1,866.21	83.0777	1,866.21	75.9331	1,866.21	83.5709	1,866.21	64.6844	1,866.21	80.4761	1,866.21	75.5017	1,866.21	67.8247	1,866.21	75.0066	1,866.21	60.0503	1,866.21	72.6796	1,866.21	64.5417	1,866.21	75.4052	1,866.21	69.3552	1,866.21	76.9842	1,866.21	73.1838	1,866.21	78.1063	1,866.21	74.5054	1,866.21	79.5749	1,866.21	76.5017	1,866.21	80.3097	1,866.21	77.1502	1,866.21	77.1078	1,866.21	74.3517	1,866.21	77.1865	1,866.21	60.9651	1,866.21	75.2268	1,866.21	72.8279	1,866.21	66.1167	1,866.21	68.3382	1,866.21	64.4703	1,866.21	71.8194	1,866.21	59.1654	1,866.21	69.0838	1,866.21	63.463
1,932.13	83.0347	1,932.13	78.6148	1,932.13	83.2873	1,932.13	68.3008	1,932.13	82.6044	1,932.13	71.6849	1,932.13	81.8483	1,932.13	67.9919	1,932.13	77.5584	1,932.13	77.8401	1,932.13	71.0273	1,932.13	83.095	1,932.13	78.021	1,932.13	83.433	1,932.13	79.8574	1,932.13	82.3933	1,932.13	80.641	1,932.13	83.3156	1,932.13	81.4199	1,932.13	83.4057	1,932.13	81.7234	1,932.13	82.5512	1,932.13	81.0537	1,932.13	81.011	1,932.13	78.2386	1,932.13	78.4241	1,932.13	71.0362	1,932.13	74.147	1,932.13	73.0808	1,932.13	61.7873	1,932.13	61.0196	1,932.13	65.6592	1,932.13	67.8917	1,932.13	59.0706	1,932.13	69.1382	1,932.13	64.2682
1,999.51	83.4761	1,999.51	79.2177	1,999.51	83.9463	1,999.51	67.1919	1,999.51	82.9448	1,999.51	65.1963	1,999.51	80.6301	1,999.51	74.1873	1,999.51	75.935	1,999.51	76.6757	1,999.51	63.1643	1,999.51	77.7235	1,999.51	64.4088	1,999.51	77.5761	1,999.51	67.2972	1,999.51	75.1926	1,999.51	68.0535	1,999.51	72.8179	1,999.51	61.3323	1,999.51	70.809	1,999.51	64.9577	1,999.51	73.086	1,999.51	68.2991	1,999.51	72.0173	1,999.51	65.9114	1,999.51	70.2228	1,999.51	65.9363	1,999.51	73.0944	1,999.51	65.899	1,999.51	71.2954	1,999.51	54.4257	1,999.51	68.3567	1,999.51	66.5334	1,999.51	63.9714	1,999.51	66.9102	1,999.51	55.9193
2,069.82	85.0101	2,069.82	80.7586	2,069.82	85.5271	2,069.82	70.8559	2,069.82	84.104	2,069.82	70.3128	2,069.82	80.1658	2,069.82	77.0255	2,069.82	74.2673	2,069.82	76.8458	2,069.82	63.4086	2,069.82	77.1698	2,069.82	63.5629	2,069.82	76.0493	2,069.82	67.6499	2,069.82	74.0558	2,069.82	69.8104	2,069.82	73.7077	2,069.82	70.9393	2,069.82	71.2014	2,069.82	70.3208	2,069.82	70.7967	2,069.82	67.2802	2,069.82	71.9915	2,069.82	67.5405	2,069.82	69.5951	2,069.82	65.8971	2,069.82	71.7442	2,069.82	65.5475	2,069.82	70.3842	2,069.82	45.5413	2,069.82	65.0146	2,069.82	69.0545	2,069.82	63.6172	2,069.82	69.2872	2,069.82	55.9266
2,143.07	84.9495	2,143.07	80.7081	2,143.07	85.7506	2,143.07	71.7537	2,143.07	84.5175	2,143.07	75.1496	2,143.07	80.9033	2,143.07	79.2776	2,143.07	71.4375	2,143.07	79.5095	2,143.07	61.9923	2,143.07	79.2713	2,143.07	68.3631	2,143.07	77.3588	2,143.07	71.2915	2,143.07	77.0757	2,143.07	71.4246	2,143.07	75.9841	2,143.07	73.7266	2,143.07	74.3035	2,143.07	72.2572	2,143.07	71.2548	2,143.07	71.9725	2,143.07	72.3786	2,143.07	69.6844	2,143.07	72.0503	2,143.07	67.3135	2,143.07	69.9659	2,143.07	65.1129	2,143.07	71.7362	2,143.07	40.4676	2,143.07	68.4972	2,143.07	70.8828	2,143.07	61.7998	2,143.07	70.5835	2,143.07	62.2938
2,219.24	83.4697	2,219.24	79.1712	2,219.24	85.1451	2,219.24	73.0101	2,219.24	84.5356	2,219.24	77.4327	2,219.24	81.5629	2,219.24	79.7078	2,219.24	70.8609	2,219.24	80.5051	2,219.24	64.0838	2,219.24	80.0655	2,219.24	71.2986	2,219.24	76.8706	2,219.24	70.8866	2,219.24	76.704	2,219.24	69.573	2,219.24	75.6385	2,219.24	73.561	2,219.24	74.0221	2,219.24	71.8233	2,219.24	70.235	2,219.24	74.1214	2,219.24	70.4286	2,219.24	71.0779	2,219.24	71.5073	2,219.24	68.8852	2,219.24	70.5216	2,219.24	67.0155	2,219.24	72.3744	2,219.24	53.1834	2,219.24	69.3468	2,219.24	72.1473	2,219.24	62.7235	2,219.24	70.7037	2,219.24	62.389
2,296.88	82.3215	2,296.88	77.7673	2,296.88	84.0947	2,296.88	75.0857	2,296.88	83.6922	2,296.88	78.6108	2,296.88	81.7111	2,296.88	80.1676	2,296.88	74.174	2,296.88	82.3519	2,296.88	65.8527	2,296.88	81.0436	2,296.88	72.4238	2,296.88	80.1305	2,296.88	70.6778	2,296.88	77.2169	2,296.88	69.1841	2,296.88	70.3251	2,296.88	70.059	2,296.88	73.8787	2,296.88	69.9456	2,296.88	72.8379	2,296.88	73.7154	2,296.88	67.8851	2,296.88	71.0822	2,296.88	72.3456	2,296.88	68.992	2,296.88	71.0049	2,296.88	68.9466	2,296.88	70.1572	2,296.88	58.1279	2,296.88	68.7677	2,296.88	73.1836	2,296.88	63.7148	2,296.88	70.2716	2,296.88	65.3059
2,378.91	82.6088	2,378.91	76.5457	2,378.91	84.0811	2,378.91	77.5438	2,378.91	81.9562	2,378.91	80.5746	2,378.91	79.6978	2,378.91	82.0866	2,378.91	76.0518	2,378.91	82.3414	2,378.91	46.4666	2,378.91	80.6933	2,378.91	71.6479	2,378.91	78.4871	2,378.91	73.6499	2,378.91	74.4855	2,378.91	73.315	2,378.91	73.319	2,378.91	70.8732	2,378.91	69.4104	2,378.91	72.73	2,378.91	70.3727	2,378.91	66.5482	2,378.91	69.5543	2,378.91	68.6547	2,378.91	67.7401	2,378.91	67.4996	2,378.91	68.7857	2,378.91	68.2248	2,378.91	67.3478	2,378.91	57.5638	2,378.91	66.4624	2,378.91	70.7512	2,378.91	60.7865	2,378.91	70.5873	2,378.91	63.4868
2,462.4	83.86	2,462.4	75.5647	2,462.4	86.8085	2,462.4	80.5989	2,462.4	85.3079	2,462.4	83.6518	2,462.4	79.1297	2,462.4	83.9727	2,462.4	74.6079	2,462.4	81.5515	2,462.4	66.8913	2,462.4	78.0852	2,462.4	75.1145	2,462.4	76.6761	2,462.4	76.6552	2,462.4	73.3366	2,462.4	73.2681	2,462.4	70.2207	2,462.4	72.9393	2,462.4	66.5635	2,462.4	73.1712	2,462.4	66.095	2,462.4	69.2939	2,462.4	65.1409	2,462.4	66.4212	2,462.4	64.6489	2,462.4	66.0148	2,462.4	65.2712	2,462.4	66.7469	2,462.4	66.6861	2,462.4	54.1408	2,462.4	66.1791	2,462.4	70.0108	2,462.4	61.3804	2,462.4	69.7414	2,462.4	56.6441
2,548.83	81.0336	2,548.83	75.1516	2,548.83	86.2363	2,548.83	82.7478	2,548.83	86.7647	2,548.83	84.8128	2,548.83	81.6448	2,548.83	84.1544	2,548.83	68.6149	2,548.83	80.8562	2,548.83	68.6474	2,548.83	78.0252	2,548.83	73.1968	2,548.83	73.9619	2,548.83	74.1942	2,548.83	74.1949	2,548.83	74.72	2,548.83	73.3531	2,548.83	75.3865	2,548.83	68.9756	2,548.83	70.5603	2,548.83	58.1416	2,548.83	67.4568	2,548.83	65.8982	2,548.83	70.9222	2,548.83	64.3331	2,548.83	65.3784	2,548.83	66.9617	2,548.83	70.4919	2,548.83	66.1896	2,548.83	61.0082	2,548.83	68.2533	2,548.83	70.0536	2,548.83	66.038	2,548.83	71.5262	2,548.83	60.5154
2,639.65	75.9948	2,639.65	76.5177	2,639.65	83.9702	2,639.65	84.2248	2,639.65	86.325	2,639.65	85.3025	2,639.65	83.5614	2,639.65	82.9449	2,639.65	70.4997	2,639.65	80.5203	2,639.65	74.0834	2,639.65	77.6261	2,639.65	74.6526	2,639.65	75.2556	2,639.65	76.418	2,639.65	71.502	2,639.65	76.021	2,639.65	69.9304	2,639.65	75.2587	2,639.65	69.3406	2,639.65	69.2596	2,639.65	69.0457	2,639.65	71.4397	2,639.65	63.2616	2,639.65	71.1046	2,639.65	65.5629	2,639.65	66.7228	2,639.65	63.9714	2,639.65	69.8226	2,639.65	64.0053	2,639.65	58.6923	2,639.65	65.7549	2,639.65	71.2449	2,639.65	61.9149	2,639.65	69.5428	2,639.65	55.1113
2,731.93	74.9474	2,731.93	77.9805	2,731.93	83.0365	2,731.93	83.9986	2,731.93	84.4859	2,731.93	84.2535	2,731.93	82.5604	2,731.93	82.2849	2,731.93	73.6609	2,731.93	80.1359	2,731.93	73.7891	2,731.93	77.4227	2,731.93	76.5324	2,731.93	75.976	2,731.93	75.8311	2,731.93	74.9447	2,731.93	74.3629	2,731.93	74.2991	2,731.93	72.9883	2,731.93	71.9921	2,731.93	63.9933	2,731.93	70.3135	2,731.93	72.0818	2,731.93	68.2785	2,731.93	72.7507	2,731.93	66.9469	2,731.93	69.5293	2,731.93	65.9129	2,731.93	64.1483	2,731.93	64.6153	2,731.93	59.1001	2,731.93	66.2299	2,731.93	72.2369	2,731.93	63.2411	2,731.93	64.1458	2,731.93	64.9489
2,828.61	75.5368	2,828.61	79.8775	2,828.61	83.1036	2,828.61	83.6212	2,828.61	83.513	2,828.61	83.1856	2,828.61	81.0559	2,828.61	82.0559	2,828.61	76.136	2,828.61	80.1739	2,828.61	73.7342	2,828.61	77.9984	2,828.61	76.7069	2,828.61	76.315	2,828.61	75.8265	2,828.61	75.9672	2,828.61	76.2643	2,828.61	75.4044	2,828.61	73.2428	2,828.61	71.4543	2,828.61	62.7632	2,828.61	69.5654	2,828.61	67.423	2,828.61	68.8492	2,828.61	74.5438	2,828.61	67.223	2,828.61	67.0496	2,828.61	67.7308	2,828.61	68.5516	2,828.61	65.8809	2,828.61	64.1791	2,828.61	63.7255	2,828.61	71.3326	2,828.61	63.5203	2,828.61	66.1571	2,828.61	64.2868
2,928.22	79.2969	2,928.22	81.3895	2,928.22	83.8014	2,928.22	84.15	2,928.22	84.2191	2,928.22	83.3168	2,928.22	79.7483	2,928.22	81.9846	2,928.22	76.4575	2,928.22	81.0867	2,928.22	75.8724	2,928.22	79.7224	2,928.22	78.8423	2,928.22	79.1551	2,928.22	78.5231	2,928.22	76.9719	2,928.22	76.4925	2,928.22	73.2863	2,928.22	67.3876	2,928.22	73.9114	2,928.22	64.1072	2,928.22	73.5667	2,928.22	57.0182	2,928.22	71.3871	2,928.22	73.0348	2,928.22	70.0251	2,928.22	68.8455	2,928.22	67.6717	2,928.22	68.8145	2,928.22	70.0353	2,928.22	65.3014	2,928.22	66.7953	2,928.22	71.3573	2,928.22	67.9583	2,928.22	68.4634	2,928.22	66.4683
3,030.76	79.6385	3,030.76	81.2836	3,030.76	83.6715	3,030.76	84.5871	3,030.76	84.9364	3,030.76	83.7057	3,030.76	78.9681	3,030.76	82.9503	3,030.76	73.9608	3,030.76	81.7475	3,030.76	78.3227	3,030.76	81.2062	3,030.76	80.203	3,030.76	78.5009	3,030.76	80.2699	3,030.76	75.3774	3,030.76	78.3376	3,030.76	76.2497	3,030.76	63.3457	3,030.76	74.5313	3,030.76	66.5651	3,030.76	72.9018	3,030.76	68.1027	3,030.76	71.1466	3,030.76	71.1805	3,030.76	70.7965	3,030.76	73.1235	3,030.76	67.7143	3,030.76	68.8649	3,030.76	69.5352	3,030.76	65.2592	3,030.76	67.144	3,030.76	72.0859	3,030.76	67.6805	3,030.76	68.3345	3,030.76	68.0748
3,137.7	80.8311	3,137.7	82.2716	3,137.7	83.972	3,137.7	84.1992	3,137.7	84.6256	3,137.7	83.8043	3,137.7	80.8128	3,137.7	83.6683	3,137.7	73.1407	3,137.7	82.3656	3,137.7	81.2202	3,137.7	79.6284	3,137.7	80.1603	3,137.7	77.8201	3,137.7	80.4019	3,137.7	78.6641	3,137.7	78.0754	3,137.7	76.1898	3,137.7	69.681	3,137.7	71.6279	3,137.7	70.1505	3,137.7	71.5094	3,137.7	61.3	3,137.7	70.4923	3,137.7	71.967	3,137.7	68.4533	3,137.7	75.6929	3,137.7	68.908	3,137.7	70.5175	3,137.7	68.3791	3,137.7	65.1126	3,137.7	66.3381	3,137.7	70.6078	3,137.7	66.4781	3,137.7	68.8861	3,137.7	67.1819
3,249.02	80.5851	3,249.02	81.7008	3,249.02	84.2268	3,249.02	82.6863	3,249.02	84.746	3,249.02	84.5286	3,249.02	82.2398	3,249.02	84.338	3,249.02	74.3823	3,249.02	81.8696	3,249.02	81.0579	3,249.02	79.6433	3,249.02	81.1327	3,249.02	80.0695	3,249.02	81.1977	3,249.02	76.9342	3,249.02	76.6703	3,249.02	73.176	3,249.02	74.5934	3,249.02	74.1077	3,249.02	73.3686	3,249.02	73.1414	3,249.02	68.1912	3,249.02	70.4583	3,249.02	67.4989	3,249.02	69.8879	3,249.02	77.7914	3,249.02	68.422	3,249.02	71.4366	3,249.02	69.2103	3,249.02	66.805	3,249.02	65.8704	3,249.02	70.6116	3,249.02	67.7688	3,249.02	68.9439	3,249.02	64.3559
3,363.28	81.3963	3,363.28	81.8043	3,363.28	84.1732	3,363.28	82.7381	3,363.28	84.9924	3,363.28	84.0758	3,363.28	81.5467	3,363.28	84.0657	3,363.28	75.606	3,363.28	81.9651	3,363.28	80.5363	3,363.28	80.6515	3,363.28	82.1191	3,363.28	77.6716	3,363.28	83.1943	3,363.28	75.7337	3,363.28	75.6109	3,363.28	76.8479	3,363.28	78.3875	3,363.28	73.4698	3,363.28	77.0888	3,363.28	72.103	3,363.28	67.1215	3,363.28	68.8794	3,363.28	67.1535	3,363.28	68.0803	3,363.28	76.9148	3,363.28	67.9049	3,363.28	70.7265	3,363.28	66.2961	3,363.28	65.2877	3,363.28	66.6824	3,363.28	69.257	3,363.28	66.015	3,363.28	70.1061	3,363.28	67.5877
3,481.93	81.8309	3,481.93	80.3158	3,481.93	83.6743	3,481.93	84.0571	3,481.93	85.0582	3,481.93	84.8033	3,481.93	82.5558	3,481.93	83.3736	3,481.93	78.018	3,481.93	81.5312	3,481.93	79.6929	3,481.93	80.5858	3,481.93	82.6532	3,481.93	76.8199	3,481.93	84.1808	3,481.93	77.1972	3,481.93	76.387	3,481.93	71.3291	3,481.93	79.8329	3,481.93	72.569	3,481.93	76.4391	3,481.93	71.0024	3,481.93	72.3868	3,481.93	69.8403	3,481.93	68.2122	3,481.93	66.574	3,481.93	74.2174	3,481.93	66.365	3,481.93	68.4823	3,481.93	63.8628	3,481.93	64.8398	3,481.93	64.1588	3,481.93	69.7695	3,481.93	61.0769	3,481.93	69.671	3,481.93	68.0397
3,604.98	82.5589	3,604.98	80.1791	3,604.98	84.0027	3,604.98	84.6054	3,604.98	83.8795	3,604.98	84.6548	3,604.98	82.3626	3,604.98	83.0477	3,604.98	79.2914	3,604.98	80.8602	3,604.98	79.4606	3,604.98	77.1803	3,604.98	84.4734	3,604.98	76.8584	3,604.98	82.6265	3,604.98	71.327	3,604.98	79.916	3,604.98	71.1298	3,604.98	80.0947	3,604.98	69.9867	3,604.98	75.7688	3,604.98	67.8854	3,604.98	73.0288	3,604.98	67.5936	3,604.98	70.7543	3,604.98	66.4746	3,604.98	72.1452	3,604.98	66.9851	3,604.98	65.96	3,604.98	62.7027	3,604.98	66.8692	3,604.98	62.8056	3,604.98	70.3558	3,604.98	60.6193	3,604.98	68.2369	3,604.98	66.4948
3,732.42	82.8193	3,732.42	80.2527	3,732.42	85.6811	3,732.42	84.7499	3,732.42	83.9288	3,732.42	83.3789	3,732.42	80.2599	3,732.42	82.9705	3,732.42	79.0766	3,732.42	79.736	3,732.42	78.7284	3,732.42	77.0434	3,732.42	83.874	3,732.42	73.0842	3,732.42	82.0385	3,732.42	74.3461	3,732.42	79.5913	3,732.42	71.7774	3,732.42	78.1946	3,732.42	69.1709	3,732.42	73.498	3,732.42	67.5333	3,732.42	72.2153	3,732.42	66.4065	3,732.42	71.5332	3,732.42	65.2622	3,732.42	71.3884	3,732.42	65.9905	3,732.42	65.1915	3,732.42	61.1734	3,732.42	68.136	3,732.42	62.6381	3,732.42	70.1822	3,732.42	60.5025	3,732.42	70.3974	3,732.42	63.7992
3,864.26	79.7715	3,864.26	80.7444	3,864.26	85.7458	3,864.26	84.5583	3,864.26	85.0169	3,864.26	84.0337	3,864.26	79.8678	3,864.26	82.5367	3,864.26	80.8677	3,864.26	79.7246	3,864.26	81.085	3,864.26	74.5278	3,864.26	83.1826	3,864.26	74.2594	3,864.26	79.7842	3,864.26	71.4215	3,864.26	77.1664	3,864.26	67.8083	3,864.26	75.898	3,864.26	67.3374	3,864.26	65.0001	3,864.26	67.826	3,864.26	71.0323	3,864.26	66.2314	3,864.26	69.2928	3,864.26	67.4402	3,864.26	70.759	3,864.26	66.0943	3,864.26	62.3362	3,864.26	65.7571	3,864.26	69.0996	3,864.26	54.2449	3,864.26	70.0115	3,864.26	57.2908	3,864.26	70.8508	3,864.26	54.2203
4,000.49	76.6422	4,000.49	83.0525	4,000.49	84.3773	4,000.49	85.0324	4,000.49	84.6169	4,000.49	84.5679	4,000.49	79.432	4,000.49	81.1145	4,000.49	80.0647	4,000.49	75.5347	4,000.49	82.6229	4,000.49	70.7034	4,000.49	81.5102	4,000.49	67.2529	4,000.49	78.4319	4,000.49	71.2765	4,000.49	76.1128	4,000.49	71.6332	4,000.49	77.4756	4,000.49	71.0181	4,000.49	61.0067	4,000.49	68.5062	4,000.49	66.7668	4,000.49	67.5421	4,000.49	69.0225	4,000.49	65.7912	4,000.49	67.3068	4,000.49	66.4406	4,000.49	57.7387	4,000.49	66.5984	4,000.49	69.2672	4,000.49	55.1178	4,000.49	68.5702	4,000.49	51.7533	4,000.49	67.6705	4,000.49	60.8633
4,141.11	78.2755	4,141.11	84.5499	4,141.11	84.9897	4,141.11	85.6533	4,141.11	84.9154	4,141.11	83.6975	4,141.11	80.9305	4,141.11	78.3022	4,141.11	81.8181	4,141.11	72.8427	4,141.11	82.2747	4,141.11	73.1039	4,141.11	79.8568	4,141.11	74.2625	4,141.11	77.7849	4,141.11	74.895	4,141.11	78.6005	4,141.11	69.0673	4,141.11	76.3829	4,141.11	69.7516	4,141.11	67.1739	4,141.11	71.066	4,141.11	57.7973	4,141.11	70.3599	4,141.11	67.7353	4,141.11	68.4812	4,141.11	62.9375	4,141.11	69.5195	4,141.11	61.7598	4,141.11	67.7196	4,141.11	67.2359	4,141.11	65.5587	4,141.11	70.4261	4,141.11	56.3872	4,141.11	66.3396	4,141.11	57.3577
4,287.6	81.3107	4,287.6	85.6786	4,287.6	84.3742	4,287.6	86.1641	4,287.6	85.216	4,287.6	81.1288	4,287.6	80.4611	4,287.6	78.1344	4,287.6	84.0812	4,287.6	74.8478	4,287.6	82.3185	4,287.6	76.4677	4,287.6	80.2221	4,287.6	76.4469	4,287.6	77.7367	4,287.6	75.3716	4,287.6	81.3034	4,287.6	76.9999	4,287.6	74.0323	4,287.6	72.7214	4,287.6	68.8607	4,287.6	71.3792	4,287.6	60.6031	4,287.6	70.3857	4,287.6	68.1031	4,287.6	70.0872	4,287.6	67.9788	4,287.6	68.1729	4,287.6	62.3528	4,287.6	68.9343	4,287.6	66.263	4,287.6	67.331	4,287.6	70.0212	4,287.6	61.0066	4,287.6	69.0616	4,287.6	52.4154
4,438.48	82.0138	4,438.48	84.9329	4,438.48	85.1186	4,438.48	84.4987	4,438.48	86.5869	4,438.48	80.1772	4,438.48	78.9843	4,438.48	77.4489	4,438.48	84.5245	4,438.48	76.9474	4,438.48	84.3901	4,438.48	78.7698	4,438.48	79.8842	4,438.48	79.5919	4,438.48	78.2302	4,438.48	77.9182	4,438.48	78.4402	4,438.48	72.0855	4,438.48	74.5353	4,438.48	72.2267	4,438.48	66.4337	4,438.48	69.8446	4,438.48	67.9956	4,438.48	70.4886	4,438.48	70.9318	4,438.48	68.7201	4,438.48	67.391	4,438.48	68.1885	4,438.48	62.2082	4,438.48	70.4062	4,438.48	67.5481	4,438.48	63.3023	4,438.48	69.3039	4,438.48	59.4361	4,438.48	69.7115	4,438.48	60.3646
4,595.21	82.6381	4,595.21	85.163	4,595.21	85.085	4,595.21	83.7311	4,595.21	87.2856	4,595.21	78.3373	4,595.21	82.6618	4,595.21	77.7331	4,595.21	84.7042	4,595.21	78.8698	4,595.21	83.6595	4,595.21	79.8899	4,595.21	79.629	4,595.21	78.5238	4,595.21	78.457	4,595.21	72.6188	4,595.21	74.4093	4,595.21	73.6124	4,595.21	71.9704	4,595.21	69.5323	4,595.21	65.9812	4,595.21	68.0877	4,595.21	67.4215	4,595.21	68.0474	4,595.21	70.2221	4,595.21	66.499	4,595.21	66.0226	4,595.21	64.1162	4,595.21	63.6734	4,595.21	68.6714	4,595.21	67.8848	4,595.21	65.1004	4,595.21	70.8734	4,595.21	56.7498	4,595.21	65.7627	4,595.21	59.4734
4,756.35	83.9084	4,756.35	85.5527	4,756.35	85.3071	4,756.35	84.1387	4,756.35	86.7279	4,756.35	80.1491	4,756.35	84.4028	4,756.35	78.5446	4,756.35	83.4512	4,756.35	79.3915	4,756.35	81.2716	4,756.35	78.9079	4,756.35	78.0986	4,756.35	75.5673	4,756.35	79.6428	4,756.35	74.8335	4,756.35	73.9743	4,756.35	68.9973	4,756.35	74.092	4,756.35	69.8268	4,756.35	62.7852	4,756.35	67.8077	4,756.35	65.1005	4,756.35	67.6001	4,756.35	71.8462	4,756.35	67.0584	4,756.35	68.0366	4,756.35	62.456	4,756.35	63.9764	4,756.35	64.9707	4,756.35	68.8149	4,756.35	66.226	4,756.35	70.8989	4,756.35	56.8103	4,756.35	64.5648	4,756.35	53.9558
4,924.8	84.1637	4,924.8	85.6811	4,924.8	86.7066	4,924.8	82.6377	4,924.8	86.9107	4,924.8	80.2547	4,924.8	83.8776	4,924.8	79.161	4,924.8	83.2816	4,924.8	79.8485	4,924.8	76.7148	4,924.8	77.5973	4,924.8	77.8024	4,924.8	76.1404	4,924.8	76.6813	4,924.8	71.3548	4,924.8	70.8202	4,924.8	71.7434	4,924.8	72.9416	4,924.8	69.3022	4,924.8	66.3737	4,924.8	67.7514	4,924.8	60.8066	4,924.8	69.3678	4,924.8	72.4907	4,924.8	67.1124	4,924.8	68.5026	4,924.8	66.3112	4,924.8	62.8361	4,924.8	66.6589	4,924.8	68.5284	4,924.8	64.087	4,924.8	69.2995	4,924.8	59.2873	4,924.8	65.0415	4,924.8	39.3065
5,097.66	84.4904	5,097.66	84.9976	5,097.66	86.2413	5,097.66	83.26	5,097.66	87.5189	5,097.66	81.1605	5,097.66	84.0165	5,097.66	80.2957	5,097.66	83.0848	5,097.66	79.5887	5,097.66	76.8643	5,097.66	76.7487	5,097.66	75.7327	5,097.66	75.8881	5,097.66	71.8185	5,097.66	74.4424	5,097.66	72.3847	5,097.66	71.5514	5,097.66	74.9551	5,097.66	70.1847	5,097.66	67.319	5,097.66	68.3614	5,097.66	47.8214	5,097.66	68.6307	5,097.66	71.7702	5,097.66	68.3174	5,097.66	69.606	5,097.66	67.096	5,097.66	58.4666	5,097.66	63.9031	5,097.66	68.0885	5,097.66	66.2623	5,097.66	69.1714	5,097.66	59.5459	5,097.66	63.1705	5,097.66	55.1735
5,277.83	84.7359	5,277.83	84.7232	5,277.83	86.0897	5,277.83	83.1426	5,277.83	86.6841	5,277.83	80.4491	5,277.83	83.6258	5,277.83	81.9295	5,277.83	82.835	5,277.83	79.2457	5,277.83	77.1157	5,277.83	76.8022	5,277.83	69.3283	5,277.83	75.182	5,277.83	73.0503	5,277.83	72.9639	5,277.83	74.8008	5,277.83	70.9699	5,277.83	73.5538	5,277.83	69.2205	5,277.83	62.9196	5,277.83	66.9755	5,277.83	61.0825	5,277.83	66.9263	5,277.83	71.2815	5,277.83	68.5474	5,277.83	67.2457	5,277.83	66.4426	5,277.83	59.9104	5,277.83	64.6592	5,277.83	69.9133	5,277.83	65.2621	5,277.83	68.0925	5,277.83	59.7111	5,277.83	63.0877	5,277.83	51.1936
5,463.87	84.4805	5,463.87	84.437	5,463.87	86.1835	5,463.87	83.7484	5,463.87	85.8505	5,463.87	81.4033	5,463.87	83.127	5,463.87	81.8516	5,463.87	83.6372	5,463.87	77.7245	5,463.87	76.8115	5,463.87	75.2999	5,463.87	61.4003	5,463.87	75.5312	5,463.87	70.547	5,463.87	72.6509	5,463.87	74.1033	5,463.87	71.4131	5,463.87	72.4856	5,463.87	69.8146	5,463.87	63.6944	5,463.87	68.9886	5,463.87	60.4896	5,463.87	68.3983	5,463.87	69.6613	5,463.87	68.0119	5,463.87	70.5385	5,463.87	66.9208	5,463.87	58.9302	5,463.87	65.8677	5,463.87	69.4316	5,463.87	62.9903	5,463.87	69.23	5,463.87	64.9784	5,463.87	64.0857	5,463.87	53.2599
5,657.23	84.022	5,657.23	84.7665	5,657.23	85.7672	5,657.23	83.4315	5,657.23	86.4216	5,657.23	81.8578	5,657.23	82.8781	5,657.23	79.3328	5,657.23	84.1948	5,657.23	78.0831	5,657.23	79.1449	5,657.23	77.281	5,657.23	57.816	5,657.23	75.1422	5,657.23	73.5588	5,657.23	76.6999	5,657.23	75.0615	5,657.23	74.715	5,657.23	70.072	5,657.23	72.0141	5,657.23	67.735	5,657.23	70.6877	5,657.23	58.444	5,657.23	67.6589	5,657.23	69.9652	5,657.23	69.7474	5,657.23	69.0145	5,657.23	67.7983	5,657.23	65.4722	5,657.23	66.1973	5,657.23	67.9354	5,657.23	65.5337	5,657.23	68.7166	5,657.23	61.8636	5,657.23	56.9028	5,657.23	56.4606
5,856.45	84.5601	5,856.45	85.3192	5,856.45	84.5474	5,856.45	82.5457	5,856.45	87.1971	5,856.45	79.411	5,856.45	82.706	5,856.45	76.5378	5,856.45	83.4201	5,856.45	79.5149	5,856.45	79.7937	5,856.45	78.4959	5,856.45	67.176	5,856.45	78.5009	5,856.45	77.3892	5,856.45	75.9897	5,856.45	76.2756	5,856.45	75.6816	5,856.45	74.2318	5,856.45	71.6883	5,856.45	69.8384	5,856.45	71.0991	5,856.45	55.4899	5,856.45	68.1742	5,856.45	69.7317	5,856.45	69.8815	5,856.45	64.9151	5,856.45	68.6867	5,856.45	69.4061	5,856.45	67.2273	5,856.45	66.1609	5,856.45	63.8337	5,856.45	64.9262	5,856.45	64.9736	5,856.45	58.5024	5,856.45	59.2278
6,062.99	84.7428	6,062.99	84.3002	6,062.99	86.1764	6,062.99	78.1679	6,062.99	86.0785	6,062.99	78.4386	6,062.99	84.3227	6,062.99	79.842	6,062.99	82.0929	6,062.99	78.7166	6,062.99	78.1768	6,062.99	79.9648	6,062.99	71.6065	6,062.99	77.3555	6,062.99	77.2547	6,062.99	75.8395	6,062.99	73.6598	6,062.99	74.2107	6,062.99	75.0767	6,062.99	71.0966	6,062.99	70.7184	6,062.99	70.6047	6,062.99	58.0278	6,062.99	67.333	6,062.99	65.0035	6,062.99	69.5996	6,062.99	67.6936	6,062.99	69.0461	6,062.99	70.3199	6,062.99	66.5164	6,062.99	66.0286	6,062.99	63.4148	6,062.99	66.2728	6,062.99	64.6424	6,062.99	62.4345	6,062.99	62.3916
6,276.86	83.5634	6,276.86	81.2797	6,276.86	85.6208	6,276.86	78.1575	6,276.86	84.7828	6,276.86	79.4156	6,276.86	83.7228	6,276.86	80.557	6,276.86	80.7707	6,276.86	79.458	6,276.86	77.1891	6,276.86	79.7788	6,276.86	74.7061	6,276.86	77.2311	6,276.86	74.4284	6,276.86	75.5022	6,276.86	72.6104	6,276.86	75.9467	6,276.86	73.5756	6,276.86	72.9936	6,276.86	69.5544	6,276.86	70.9049	6,276.86	59.3393	6,276.86	69.7998	6,276.86	47.5845	6,276.86	69.4064	6,276.86	68.8007	6,276.86	70.5234	6,276.86	65.2856	6,276.86	67.4925	6,276.86	65.3634	6,276.86	66.3415	6,276.86	70.0287	6,276.86	66.7517	6,276.86	59.2567	6,276.86	62.9975
6,498.05	84.3121	6,498.05	81.9658	6,498.05	84.7541	6,498.05	79.0117	6,498.05	84.1792	6,498.05	80.0837	6,498.05	82.1895	6,498.05	79.9478	6,498.05	79.4529	6,498.05	80.7421	6,498.05	79.2341	6,498.05	79.2784	6,498.05	77.5175	6,498.05	79.3367	6,498.05	74.4525	6,498.05	76.5401	6,498.05	74.2242	6,498.05	76.6544	6,498.05	74.06	6,498.05	73.9984	6,498.05	66.1205	6,498.05	70.8405	6,498.05	60.545	6,498.05	69.2479	6,498.05	43.6381	6,498.05	70.1244	6,498.05	67.8267	6,498.05	71.2269	6,498.05	48.5	6,498.05	67.1927	6,498.05	65.8722	6,498.05	69.0816	6,498.05	68.2687	6,498.05	67.4045	6,498.05	52.8687	6,498.05	63.7182
6,726.56	83.7221	6,726.56	83.2352	6,726.56	86.4395	6,726.56	80.3174	6,726.56	85.6625	6,726.56	80.5556	6,726.56	81.5518	6,726.56	80.8227	6,726.56	79.7638	6,726.56	81.2273	6,726.56	81.363	6,726.56	80.6507	6,726.56	79.1007	6,726.56	80.3549	6,726.56	73.7401	6,726.56	77.8107	6,726.56	75.9148	6,726.56	75.8467	6,726.56	71.0863	6,726.56	73.8475	6,726.56	69.4209	6,726.56	71.2877	6,726.56	55.6	6,726.56	69.7118	6,726.56	58.6465	6,726.56	70.1784	6,726.56	66.0347	6,726.56	70.3026	6,726.56	63.1775	6,726.56	67.6316	6,726.56	65.7489	6,726.56	69.1266	6,726.56	63.6132	6,726.56	66.2485	6,726.56	58.8562	6,726.56	65.743
6,963.87	84.0154	6,963.87	84.4129	6,963.87	84.8182	6,963.87	81.8465	6,963.87	85.1518	6,963.87	81.3051	6,963.87	84.3832	6,963.87	82.2122	6,963.87	80.0759	6,963.87	81.6413	6,963.87	83.5107	6,963.87	82.0248	6,963.87	79.3471	6,963.87	80.5998	6,963.87	68.5574	6,963.87	77.5777	6,963.87	77.3883	6,963.87	76.6316	6,963.87	74.2327	6,963.87	73.599	6,963.87	70.1137	6,963.87	71.5084	6,963.87	42.3044	6,963.87	70.9092	6,963.87	62.4669	6,963.87	70.7675	6,963.87	66.9648	6,963.87	71.6834	6,963.87	62.4804	6,963.87	67.9769	6,963.87	64.0139	6,963.87	67.7935	6,963.87	67.0053	6,963.87	67.9425	6,963.87	58.8901	6,963.87	65.2693
7,209.96	85.5648	7,209.96	84.9605	7,209.96	85.4004	7,209.96	84.6054	7,209.96	82.7584	7,209.96	82.9995	7,209.96	85.1094	7,209.96	82.4249	7,209.96	80.8615	7,209.96	83.8347	7,209.96	84.7287	7,209.96	82.2484	7,209.96	78.5996	7,209.96	81.0076	7,209.96	62.0445	7,209.96	78.2096	7,209.96	76.2767	7,209.96	76.894	7,209.96	73.2193	7,209.96	74.4551	7,209.96	69.6065	7,209.96	71.4769	7,209.96	53.4179	7,209.96	69.8566	7,209.96	60.9829	7,209.96	70.7957	7,209.96	64.4767	7,209.96	71.9489	7,209.96	59.7347	7,209.96	68.1886	7,209.96	63.0579	7,209.96	70.2017	7,209.96	68.0231	7,209.96	68.4383	7,209.96	51.5769	7,209.96	65.7913
7,464.84	84.1774	7,464.84	85.9734	7,464.84	84.9905	7,464.84	85.2749	7,464.84	82.0885	7,464.84	84.1382	7,464.84	82.4698	7,464.84	83.6962	7,464.84	82.8006	7,464.84	84.2426	7,464.84	83.6301	7,464.84	82.27	7,464.84	78.6956	7,464.84	81.3584	7,464.84	61.6269	7,464.84	78.5549	7,464.84	75.6286	7,464.84	75.7679	7,464.84	66.1787	7,464.84	73.7764	7,464.84	69.3445	7,464.84	70.7564	7,464.84	54.1434	7,464.84	70.1412	7,464.84	57.3744	7,464.84	68.9647	7,464.84	62.2318	7,464.84	71.077	7,464.84	56.1161	7,464.84	68.2463	7,464.84	59.7052	7,464.84	68.1818	7,464.84	66.5705	7,464.84	67.3006	7,464.84	57.0467	7,464.84	65.0683
7,727.05	84.3733	7,727.05	86.5825	7,727.05	81.2308	7,727.05	86.1384	7,727.05	79.5136	7,727.05	85.1919	7,727.05	81.1806	7,727.05	84.4899	7,727.05	83.1552	7,727.05	83.7943	7,727.05	81.6581	7,727.05	82.9968	7,727.05	78.4059	7,727.05	80.357	7,727.05	64.4408	7,727.05	77.1574	7,727.05	71.0988	7,727.05	74.8803	7,727.05	70.5281	7,727.05	72.4635	7,727.05	66.7762	7,727.05	70.2217	7,727.05	52.0058	7,727.05	68.5709	7,727.05	51.1108	7,727.05	68.2598	7,727.05	57.5689	7,727.05	70.8282	7,727.05	63.242	7,727.05	67.1074	7,727.05	58.8392	7,727.05	66.7162	7,727.05	69.0771	7,727.05	69.2658	7,727.05	55.9814	7,727.05	66.2363
7,999.51	83.9713	7,999.51	86.6449	7,999.51	83.4149	7,999.51	86.4874	7,999.51	82.8807	7,999.51	85.4016	7,999.51	83.0333	7,999.51	84.5944	7,999.51	83.4158	7,999.51	83.4697	7,999.51	80.0797	7,999.51	82.1869	7,999.51	77.0329	7,999.51	79.0963	7,999.51	67.3049	7,999.51	76.6829	7,999.51	68.3598	7,999.51	74.1456	7,999.51	60.3109	7,999.51	71.8357	7,999.51	63.9531	7,999.51	68.9008	7,999.51	52.0767	7,999.51	68.5896	7,999.51	51.08	7,999.51	67.2747	7,999.51	58.4213	7,999.51	69.1355	7,999.51	62.3396	7,999.51	66.7893	7,999.51	59.5518	7,999.51	66.061	7,999.51	65.5005	7,999.51	67.1354	7,999.51	43.4886	7,999.51	65.3062
8,282.23	84.8895	8,282.23	86.6556	8,282.23	83.5385	8,282.23	86.7139	8,282.23	85.2465	8,282.23	86.2932	8,282.23	84.4789	8,282.23	84.413	8,282.23	81.711	8,282.23	82.9182	8,282.23	77.7817	8,282.23	80.8738	8,282.23	75.1075	8,282.23	78.3356	8,282.23	67.7619	8,282.23	75.2107	8,282.23	63.9959	8,282.23	72.4777	8,282.23	54.8971	8,282.23	69.0691	8,282.23	68.1746	8,282.23	66.5312	8,282.23	52.3315	8,282.23	65.3649	8,282.23	56.5394	8,282.23	66.4124	8,282.23	60.7263	8,282.23	67.1552	8,282.23	63.7604	8,282.23	64.3208	8,282.23	57.231	8,282.23	64.7873	8,282.23	64.168	8,282.23	66.1426	8,282.23	55.3318	8,282.23	64.2143
8,573.73	85.0844	8,573.73	86.2359	8,573.73	85.1948	8,573.73	86.4717	8,573.73	85.6567	8,573.73	85.9348	8,573.73	86.0944	8,573.73	84.5977	8,573.73	81.3344	8,573.73	82.3991	8,573.73	78.89	8,573.73	81.0187	8,573.73	71.7545	8,573.73	77.0173	8,573.73	71.5516	8,573.73	73.8216	8,573.73	65.4659	8,573.73	70.3043	8,573.73	64.7912	8,573.73	66.7706	8,573.73	62.5257	8,573.73	65.7367	8,573.73	58.3264	8,573.73	63.1947	8,573.73	56.6529	8,573.73	64.0385	8,573.73	57.4509	8,573.73	65.328	8,573.73	63.8232	8,573.73	62.5626	8,573.73	54.614	8,573.73	61.8022	8,573.73	60.9192	8,573.73	62.4652	8,573.73	51.6594	8,573.73	62.8634
8,876.95	84.9208	8,876.95	85.7846	8,876.95	84.9086	8,876.95	86.4707	8,876.95	85.0874	8,876.95	85.8522	8,876.95	85.8368	8,876.95	84.7327	8,876.95	80.3481	8,876.95	82.6379	8,876.95	78.0749	8,876.95	80.074	8,876.95	71.3066	8,876.95	76.0742	8,876.95	75.2804	8,876.95	72.2285	8,876.95	65.8385	8,876.95	69.4738	8,876.95	62.8424	8,876.95	65.942	8,876.95	62.8767	8,876.95	62.4454	8,876.95	56.0556	8,876.95	60.7187	8,876.95	56.5292	8,876.95	62.8309	8,876.95	57.2996	8,876.95	64.4359	8,876.95	61.1415	8,876.95	60.7315	8,876.95	40.9206	8,876.95	59.677	8,876.95	56.9622	8,876.95	61.6544	8,876.95	47.3192	8,876.95	59.2096
9,188.96	84.6519	9,188.96	84.6877	9,188.96	85.7942	9,188.96	85.6754	9,188.96	84.5382	9,188.96	86.0847	9,188.96	83.2284	9,188.96	84.5041	9,188.96	79.2459	9,188.96	82.4363	9,188.96	74.6635	9,188.96	79.5362	9,188.96	72.8122	9,188.96	74.8247	9,188.96	78.0393	9,188.96	71.8073	9,188.96	69.9162	9,188.96	67.1072	9,188.96	68.6373	9,188.96	62.6369	9,188.96	62.4395	9,188.96	61.5461	9,188.96	52.3953	9,188.96	58.583	9,188.96	49.5211	9,188.96	60.6937	9,188.96	52.9544	9,188.96	62.7878	9,188.96	60.2936	9,188.96	60.6013	9,188.96	47.5023	9,188.96	56.342	9,188.96	55.7741	9,188.96	53.1786	9,188.96	51.5181	9,188.96	55.1023
9,514.16	84.9612	9,514.16	84.9398	9,514.16	85.7746	9,514.16	85.9531	9,514.16	85.171	9,514.16	85.6995	9,514.16	82.1358	9,514.16	84.4817	9,514.16	80.3406	9,514.16	82.3224	9,514.16	75.4386	9,514.16	79.0799	9,514.16	78.7603	9,514.16	73.1847	9,514.16	78.1366	9,514.16	69.529	9,514.16	65.1201	9,514.16	64.9656	9,514.16	67.8436	9,514.16	61.474	9,514.16	66.1065	9,514.16	59.4694	9,514.16	59.4359	9,514.16	59.1078	9,514.16	52.3205	9,514.16	57.9387	9,514.16	55.8232	9,514.16	62.0558	9,514.16	56.9515	9,514.16	59.6569	9,514.16	43.3712	9,514.16	55.2422	9,514.16	58.1195	9,514.16	52.1007	9,514.16	48.1391	9,514.16	53.8289
9,849.61	85.1199	9,849.61	85.6485	9,849.61	85.4482	9,849.61	85.7339	9,849.61	83.1577	9,849.61	85.4334	9,849.61	82.3549	9,849.61	84.0093	9,849.61	81.2609	9,849.61	81.2111	9,849.61	77.7562	9,849.61	78.2756	9,849.61	80.9663	9,849.61	72.4171	9,849.61	74.61	9,849.61	70.3903	9,849.61	61.8836	9,849.61	64.0905	9,849.61	65.4906	9,849.61	61.6107	9,849.61	65.2104	9,849.61	55.3713	9,849.61	58.3218	9,849.61	57.9415	9,849.61	49.3976	9,849.61	57.5552	9,849.61	45.3163	9,849.61	60.7525	9,849.61	55.1223	9,849.61	58.6689	9,849.61	46.8822	9,849.61	55.9005	9,849.61	56.7686	9,849.61	57.0822	9,849.61	49.6712	9,849.61	54.4987
10,196.8	85.7768	10,196.8	86.2486	10,196.8	85.2136	10,196.8	85.6362	10,196.8	82.843	10,196.8	85.0601	10,196.8	81.9935	10,196.8	83.1543	10,196.8	80.7644	10,196.8	80.4466	10,196.8	77.5377	10,196.8	77.2524	10,196.8	79.6989	10,196.8	71.2847	10,196.8	69.4501	10,196.8	68.1887	10,196.8	56.3293	10,196.8	62.561	10,196.8	61.2535	10,196.8	60.6274	10,196.8	60.8275	10,196.8	57.4356	10,196.8	44.1485	10,196.8	56.2208	10,196.8	36.1174	10,196.8	56.8932	10,196.8	51.7288	10,196.8	57.3601	10,196.8	55.7095	10,196.8	57.9627	10,196.8	44.874	10,196.8	55.5797	10,196.8	55.9583	10,196.8	53.9467	10,196.8	38.6225	10,196.8	50.3448
10,555.7	86.5151	10,555.7	87.0006	10,555.7	85.1575	10,555.7	86.0164	10,555.7	82.4812	10,555.7	84.9185	10,555.7	80.4362	10,555.7	82.6947	10,555.7	80.7011	10,555.7	78.8466	10,555.7	75.3767	10,555.7	76.2936	10,555.7	75.4456	10,555.7	68.5924	10,555.7	66.2638	10,555.7	67.6202	10,555.7	58.5589	10,555.7	63.4103	10,555.7	41.7524	10,555.7	58.9967	10,555.7	57.3041	10,555.7	55.1702	10,555.7	46.2142	10,555.7	54.2035	10,555.7	42.3941	10,555.7	53.5474	10,555.7	51.7954	10,555.7	54.7229	10,555.7	54.6831	10,555.7	56.9657	10,555.7	42.3028	10,555.7	53.6877	10,555.7	56.1736	10,555.7	50.9498	10,555.7	43.1228	10,555.7	48.6633
10,927.7	86.8223	10,927.7	87.4852	10,927.7	85.7227	10,927.7	86.3499	10,927.7	83.7652	10,927.7	85.0553	10,927.7	81.3735	10,927.7	81.9799	10,927.7	78.2918	10,927.7	78.0885	10,927.7	76.844	10,927.7	74.36	10,927.7	70.1163	10,927.7	67.9433	10,927.7	68.8997	10,927.7	64.9031	10,927.7	54.6934	10,927.7	58.7219	10,927.7	50.62	10,927.7	55.0843	10,927.7	51.8127	10,927.7	50.9855	10,927.7	47.212	10,927.7	46.3943	10,927.7	46.9865	10,927.7	53.0392	10,927.7	51.9309	10,927.7	51.5328	10,927.7	54.0007	10,927.7	51.1256	10,927.7	47.1333	10,927.7	45.927	10,927.7	52.7674	10,927.7	43.5584	10,927.7	40.7832	10,927.7	42.0151
11,313	87.1512	11,313	87.704	11,313	85.8879	11,313	86.6	11,313	84.0475	11,313	85.0221	11,313	82.8963	11,313	81.8033	11,313	76.7932	11,313	77.0187	11,313	77.4082	11,313	73.0047	11,313	67.4809	11,313	63.729	11,313	67.4692	11,313	61.9451	11,313	57.1764	11,313	57.272	11,313	49.767	11,313	53.1778	11,313	52.1811	11,313	50.3278	11,313	51.2629	11,313	49.6264	11,313	47.8772	11,313	52.7791	11,313	50.788	11,313	48.8867	11,313	52.592	11,313	46.5051	11,313	46.6845	11,313	44.328	11,313	51.8982	11,313	41.706	11,313	43.4981	11,313	43.6751
11,712.9	87.0938	11,712.9	87.8345	11,712.9	86.3396	11,712.9	86.5103	11,712.9	84.2834	11,712.9	85.1139	11,712.9	82.6751	11,712.9	81.605	11,712.9	77.7297	11,712.9	76.4218	11,712.9	75.8941	11,712.9	71.2756	11,712.9	67.3953	11,712.9	63.5163	11,712.9	61.2617	11,712.9	61.5127	11,712.9	57.3034	11,712.9	57.8421	11,712.9	43.8307	11,712.9	55.3137	11,712.9	48.9461	11,712.9	49.4829	11,712.9	49.8098	11,712.9	52.1576	11,712.9	45.3222	11,712.9	52.1693	11,712.9	49.7533	11,712.9	51.4988	11,712.9	49.093	11,712.9	50.9197	11,712.9	44.1377	11,712.9	46.0443	11,712.9	48.425	11,712.9	41.378	11,712.9	43.5977	11,712.9	45.6987
12,126	87.1805	12,126	87.8478	12,126	86.4141	12,126	86.5012	12,126	85.0775	12,126	84.9182	12,126	82.655	12,126	81.4113	12,126	79.8235	12,126	75.9663	12,126	72.9319	12,126	71.5313	12,126	63.4818	12,126	67.058	12,126	54.2656	12,126	64.127	12,126	56.349	12,126	60.1211	12,126	45.1368	12,126	58.0942	12,126	48.2628	12,126	49.6241	12,126	55.3394	12,126	52.8982	12,126	45.8082	12,126	53.3714	12,126	49.9757	12,126	53.6468	12,126	41.0005	12,126	52.4321	12,126	29.1713	12,126	48.7434	12,126	47.444	12,126	43.4338	12,126	45.3306	12,126	48.813
12,553.7	87.2987	12,553.7	88.1188	12,553.7	86.528	12,553.7	86.5614	12,553.7	85.2268	12,553.7	84.5529	12,553.7	82.9393	12,553.7	80.4724	12,553.7	79.3584	12,553.7	75.3186	12,553.7	70.0464	12,553.7	72.3146	12,553.7	65.3151	12,553.7	68.5995	12,553.7	56.2682	12,553.7	64.9072	12,553.7	54.1398	12,553.7	60.04	12,553.7	43.3086	12,553.7	58.2896	12,553.7	49.3488	12,553.7	49.5895	12,553.7	56.0582	12,553.7	52.6879	12,553.7	43.8901	12,553.7	53.2243	12,553.7	49.0455	12,553.7	54.3418	12,553.7	38.8282	12,553.7	53.7416	12,553.7	39.0983	12,553.7	51.6516	12,553.7	48.8523	12,553.7	46.3908	12,553.7	44.8442	12,553.7	49.4462
12,996.1	87.1172	12,996.1	88.2558	12,996.1	86.6013	12,996.1	86.4431	12,996.1	84.9725	12,996.1	83.9618	12,996.1	82.274	12,996.1	79.357	12,996.1	77.5286	12,996.1	74.9585	12,996.1	71.333	12,996.1	72.4846	12,996.1	65.6277	12,996.1	69.5051	12,996.1	59.1012	12,996.1	66.0768	12,996.1	51.8069	12,996.1	62.0384	12,996.1	40.8116	12,996.1	57.7922	12,996.1	55.4832	12,996.1	51.2348	12,996.1	58.509	12,996.1	52.9821	12,996.1	45.7461	12,996.1	50.358	12,996.1	47.0077	12,996.1	55.4346	12,996.1	37.4696	12,996.1	54.8798	12,996.1	43.6931	12,996.1	53.2124	12,996.1	42.9013	12,996.1	47.8692	12,996.1	48.3855	12,996.1	50.4813
13,454.6	86.9687	13,454.6	88.1495	13,454.6	86.5786	13,454.6	86.5037	13,454.6	84.4355	13,454.6	83.5781	13,454.6	80.8327	13,454.6	78.2934	13,454.6	74.7382	13,454.6	74.954	13,454.6	72.3066	13,454.6	73.4358	13,454.6	65.7577	13,454.6	70.2863	13,454.6	59.4503	13,454.6	66.3164	13,454.6	44.1699	13,454.6	62.5449	13,454.6	47.1103	13,454.6	56.8804	13,454.6	56.7696	13,454.6	54.0998	13,454.6	60.0576	13,454.6	52.9587	13,454.6	50.4369	13,454.6	50.7433	13,454.6	20.4664	13,454.6	56.7112	13,454.6	46.0987	13,454.6	56.6157	13,454.6	47.741	13,454.6	54.7868	13,454.6	37.4315	13,454.6	49.9155	13,454.6	50.9604	13,454.6	52.5399
13,929.2	87.1707	13,929.2	87.9226	13,929.2	86.894	13,929.2	86.5025	13,929.2	84.7427	13,929.2	83.526	13,929.2	80.9968	13,929.2	77.8155	13,929.2	76.4052	13,929.2	75.263	13,929.2	71.1656	13,929.2	74.1096	13,929.2	61.7376	13,929.2	70.5608	13,929.2	61.7577	13,929.2	65.7203	13,929.2	54.8124	13,929.2	61.5462	13,929.2	49.9844	13,929.2	56.6247	13,929.2	59.202	13,929.2	52.381	13,929.2	62.3616	13,929.2	53.9943	13,929.2	50.8647	13,929.2	51.9991	13,929.2	36.6605	13,929.2	57.0488	13,929.2	48.4932	13,929.2	57.5577	13,929.2	49.9165	13,929.2	54.6273	13,929.2	41.5108	13,929.2	49.0398	13,929.2	47.7882	13,929.2	52.4405
14,419.9	87.5263	14,419.9	87.6545	14,419.9	87.41	14,419.9	86.375	14,419.9	85.1834	14,419.9	83.4922	14,419.9	82.3427	14,419.9	77.8515	14,419.9	76.1426	14,419.9	75.8462	14,419.9	68.4794	14,419.9	74.4023	14,419.9	61.0871	14,419.9	70.191	14,419.9	60.745	14,419.9	65.2907	14,419.9	60.7956	14,419.9	61.7584	14,419.9	51.3266	14,419.9	57.2615	14,419.9	60.7666	14,419.9	51.406	14,419.9	63.439	14,419.9	52.6775	14,419.9	50.1511	14,419.9	51.3725	14,419.9	46.1665	14,419.9	57.045	14,419.9	46.1681	14,419.9	57.2948	14,419.9	50.0761	14,419.9	53.7376	14,419.9	30.3418	14,419.9	45.2355	14,419.9	44.8942	14,419.9	52.6046
14,928.2	88.1205	14,928.2	87.8345	14,928.2	88.0373	14,928.2	86.3561	14,928.2	85.8644	14,928.2	83.3295	14,928.2	83.0488	14,928.2	78.2189	14,928.2	75.6584	14,928.2	75.9039	14,928.2	65.9807	14,928.2	74.0324	14,928.2	62.8769	14,928.2	68.586	14,928.2	64.1987	14,928.2	62.4788	14,928.2	60.7816	14,928.2	59.2953	14,928.2	55.071	14,928.2	55.1461	14,928.2	61.7755	14,928.2	48.1156	14,928.2	63.1283	14,928.2	49.1259	14,928.2	49.7945	14,928.2	47.7121	14,928.2	49.8016	14,928.2	54.5702	14,928.2	44.3394	14,928.2	53.5019	14,928.2	51.9636	14,928.2	50.5533	14,928.2	36.5098	14,928.2	40.5478	14,928.2	49.3995	14,928.2	50.8404
15,455.6	88.4498	15,455.6	88.542	15,455.6	88.3706	15,455.6	86.6572	15,455.6	86.249	15,455.6	83.4861	15,455.6	82.6066	15,455.6	78.7496	15,455.6	72.7537	15,455.6	75.455	15,455.6	65.1591	15,455.6	72.6599	15,455.6	58.7754	15,455.6	64.4431	15,455.6	66.0228	15,455.6	57.8815	15,455.6	61.8298	15,455.6	55.5687	15,455.6	53.5478	15,455.6	43.1532	15,455.6	60.8375	15,455.6	41.6195	15,455.6	63.3536	15,455.6	41.1651	15,455.6	49.0762	15,455.6	46.5399	15,455.6	47.9167	15,455.6	52.8219	15,455.6	44.1252	15,455.6	48.3996	15,455.6	51.1596	15,455.6	48.7834	15,455.6	18.7791	15,455.6	46.9315	15,455.6	52.7129	15,455.6	48.2645
16,000.5	88.5629	16,000.5	89.0763	16,000.5	88.1513	16,000.5	86.9421	16,000.5	85.7646	16,000.5	83.7324	16,000.5	81.7892	16,000.5	79.0261	16,000.5	71.6788	16,000.5	75.8355	16,000.5	66.3435	16,000.5	69.8789	16,000.5	65.5716	16,000.5	63.0803	16,000.5	64.6232	16,000.5	58.2496	16,000.5	64.344	16,000.5	56.7838	16,000.5	57.3877	16,000.5	52.2985	16,000.5	64.6376	16,000.5	42.6519	16,000.5	64.9073	16,000.5	39.9653	16,000.5	47.1322	16,000.5	53.8599	16,000.5	37.8646	16,000.5	55.0617	16,000.5	39.3285	16,000.5	50.1538	16,000.5	49.5985	16,000.5	48.5096	16,000.5	31.4311	16,000.5	45.8153	16,000.5	52.4307	16,000.5	43.4659
16,564.5	88.4511	16,564.5	89.4863	16,564.5	87.612	16,564.5	87.0803	16,564.5	84.7104	16,564.5	83.806	16,564.5	80.397	16,564.5	79.2186	16,564.5	69.1934	16,564.5	75.4656	16,564.5	68.6759	16,564.5	67.4649	16,564.5	67.5551	16,564.5	66.2586	16,564.5	68.5296	16,564.5	60.1163	16,564.5	63.6706	16,564.5	57.3397	16,564.5	55.4856	16,564.5	54.2627	16,564.5	66.8851	16,564.5	44.9452	16,564.5	66.0799	16,564.5	47.2692	16,564.5	51.3996	16,564.5	55.2634	16,564.5	47.7586	16,564.5	54.3197	16,564.5	51.9833	16,564.5	48.6899	16,564.5	50.3694	16,564.5	49.7529	16,564.5	38.8623	16,564.5	41.0465	16,564.5	49.8792	16,564.5	38.3912
17,148.9	88.4043	17,148.9	89.8082	17,148.9	87.0024	17,148.9	87.0313	17,148.9	83.9903	17,148.9	83.235	17,148.9	77.5396	17,148.9	78.2539	17,148.9	67.2622	17,148.9	73.9496	17,148.9	70.128	17,148.9	67.1809	17,148.9	69.9442	17,148.9	66.6178	17,148.9	68.124	17,148.9	60.7945	17,148.9	62.3054	17,148.9	54.3712	17,148.9	56.9924	17,148.9	53.9832	17,148.9	67.8131	17,148.9	49.4214	17,148.9	67.9951	17,148.9	49.7281	17,148.9	49.0099	17,148.9	54.8098	17,148.9	49.9888	17,148.9	52.2031	17,148.9	53.9084	17,148.9	45.4937	17,148.9	51.9912	17,148.9	50.5218	17,148.9	46.3437	17,148.9	44.2789	17,148.9	46.5269	17,148.9	47.4195
17,752.4	88.2487	17,752.4	89.5796	17,752.4	86.2907	17,752.4	86.1262	17,752.4	82.4331	17,752.4	81.9546	17,752.4	75.2848	17,752.4	76.5368	17,752.4	66.4629	17,752.4	72.4655	17,752.4	71.1273	17,752.4	67.3325	17,752.4	72.4343	17,752.4	66.0367	17,752.4	61.036	17,752.4	57.6109	17,752.4	63.1532	17,752.4	49.4915	17,752.4	60.2161	17,752.4	54.086	17,752.4	67.8307	17,752.4	51.5814	17,752.4	67.5533	17,752.4	47.1226	17,752.4	51.9239	17,752.4	50.6381	17,752.4	50.4403	17,752.4	46.2274	17,752.4	56.133	17,752.4	47.8607	17,752.4	49.1518	17,752.4	46.5442	17,752.4	47.2237	17,752.4	46.5819	17,752.4	39.1829	17,752.4	48.7289
18,379.4	87.7952	18,379.4	88.9322	18,379.4	85.4384	18,379.4	84.3149	18,379.4	80.5693	18,379.4	80.1763	18,379.4	70.5543	18,379.4	74.8946	18,379.4	66.8278	18,379.4	71.621	18,379.4	71.5895	18,379.4	66.9213	18,379.4	72.2512	18,379.4	63.4103	18,379.4	67.6262	18,379.4	56.7245	18,379.4	56.3555	18,379.4	48.8542	18,379.4	58.778	18,379.4	49.0911	18,379.4	67.9799	18,379.4	52.7907	18,379.4	66.9425	18,379.4	44.8848	18,379.4	50.707	18,379.4	45.9414	18,379.4	51.9304	18,379.4	44.4813	18,379.4	53.6587	18,379.4	49.9538	18,379.4	47.731	18,379.4	43.4096	18,379.4	37.4624	18,379.4	46.1856	18,379.4	40.735	18,379.4	45.3409
19,026.9	86.8649	19,026.9	87.7145	19,026.9	84.2376	19,026.9	81.9803	19,026.9	78.7685	19,026.9	78.8961	19,026.9	67.1749	19,026.9	74.1766	19,026.9	67.9607	19,026.9	70.6561	19,026.9	71.8392	19,026.9	64.7487	19,026.9	69.0543	19,026.9	58.2569	19,026.9	63.9172	19,026.9	58.2402	19,026.9	57.1337	19,026.9	54.7164	19,026.9	57.4757	19,026.9	47.5187	19,026.9	66.1083	19,026.9	52.9545	19,026.9	66.1878	19,026.9	44.156	19,026.9	49.2364	19,026.9	42.4632	19,026.9	45.678	19,026.9	45.5477	19,026.9	50.7518	19,026.9	51.0287	19,026.9	47.9716	19,026.9	44.6677	19,026.9	38.5264	19,026.9	42.1128	19,026.9	46.1102	19,026.9	43.1758
19,697.8	85.5629	19,697.8	86.0118	19,697.8	83.0276	19,697.8	79.7117	19,697.8	76.9667	19,697.8	77.6093	19,697.8	58.4468	19,697.8	73.2082	19,697.8	68.801	19,697.8	67.2583	19,697.8	71.454	19,697.8	61.1637	19,697.8	68.0521	19,697.8	57.6282	19,697.8	59.7635	19,697.8	60.5387	19,697.8	57.9869	19,697.8	56.6095	19,697.8	55.8113	19,697.8	46.0906	19,697.8	64.2737	19,697.8	53.0158	19,697.8	63.9618	19,697.8	41.4193	19,697.8	49.8069	19,697.8	45.7912	19,697.8	46.4552	19,697.8	46.5787	19,697.8	48.0416	19,697.8	51.3389	19,697.8	49.3256	19,697.8	42.6734	19,697.8	42.9519	19,697.8	46.1986	19,697.8	44.0156	19,697.8	47.6623
19,999.5	84.8741	19,999.5	85.1806	19,999.5	82.4075	19,999.5	78.5543	19,999.5	75.3708	19,999.5	76.6705	19,999.5	59.3042	19,999.5	72.5753	19,999.5	68.9974	19,999.5	65.65	19,999.5	71.5921	19,999.5	60.4067	19,999.5	66.2916	19,999.5	59.2652	19,999.5	59.4849	19,999.5	61.0921	19,999.5	57.6151	19,999.5	55.2337	19,999.5	56.475	19,999.5	48.4391	19,999.5	62.3555	19,999.5	53.6854	19,999.5	62.2619	19,999.5	43.0943	19,999.5	53.0832	19,999.5	52.0707	19,999.5	37.7928	19,999.5	44.3373	19,999.5	44.372	19,999.5	50.9841	19,999.5	53.8932	19,999.5	46.2677	19,999.5	44.8468	19,999.5	46.1412	19,999.5	43.0863	19,999.5	46.8032
