"SPL Horizontal"
"On-Axis"		"10°"		"-10°"		"20°"		"-20°"		"30°"		"-30°"		"40°"		"-40°"		"50°"		"-50°"		"60°"		"-60°"		"70°"		"-70°"		"80°"		"-80°"		"90°"		"-90°"		"100°"		"-100°"		"110°"		"-110°"		"120°"		"-120°"		"130°"		"-130°"		"140°"		"-140°"		"150°"		"-150°"		"160°"		"-160°"		"170°"		"-170°"		"180°"
"Frequency / Hz"	"Sound Pressure Level / dB (re 20 µPa/V)  [2.83  V @ 1. m]"	"Frequency / Hz"	"Sound Pressure Level / dB (re 20 µPa/V)  [2.83  V @ 1. m]"	"Frequency / Hz"	"Sound Pressure Level / dB (re 20 µPa/V)  [2.83  V @ 1. m]"	"Frequency / Hz"	"Sound Pressure Level / dB (re 20 µPa/V)  [2.83  V @ 1. m]"	"Frequency / Hz"	"Sound Pressure Level / dB (re 20 µPa/V)  [2.83  V @ 1. m]"	"Frequency / Hz"	"Sound Pressure Level / dB (re 20 µPa/V)  [2.83  V @ 1. m]"	"Frequency / Hz"	"Sound Pressure Level / dB (re 20 µPa/V)  [2.83  V @ 1. m]"	"Frequency / Hz"	"Sound Pressure Level / dB (re 20 µPa/V)  [2.83  V @ 1. m]"	"Frequency / Hz"	"Sound Pressure Level / dB (re 20 µPa/V)  [2.83  V @ 1. m]"	"Frequency / Hz"	"Sound Pressure Level / dB (re 20 µPa/V)  [2.83  V @ 1. m]"	"Frequency / Hz"	"Sound Pressure Level / dB (re 20 µPa/V)  [2.83  V @ 1. m]"	"Frequency / Hz"	"Sound Pressure Level / dB (re 20 µPa/V)  [2.83  V @ 1. m]"	"Frequency / Hz"	"Sound Pressure Level / dB (re 20 µPa/V)  [2.83  V @ 1. m]"	"Frequency / Hz"	"Sound Pressure Level / dB (re 20 µPa/V)  [2.83  V @ 1. m]"	"Frequency / Hz"	"Sound Pressure Level / dB (re 20 µPa/V)  [2.83  V @ 1. m]"	"Frequency / Hz"	"Sound Pressure Level / dB (re 20 µPa/V)  [2.83  V @ 1. m]"	"Frequency / Hz"	"Sound Pressure Level / dB (re 20 µPa/V)  [2.83  V @ 1. m]"	"Frequency / Hz"	"Sound Pressure Level / dB (re 20 µPa/V)  [2.83  V @ 1. m]"	"Frequency / Hz"	"Sound Pressure Level / dB (re 20 µPa/V)  [2.83  V @ 1. m]"	"Frequency / Hz"	"Sound Pressure Level / dB (re 20 µPa/V)  [2.83  V @ 1. m]"	"Frequency / Hz"	"Sound Pressure Level / dB (re 20 µPa/V)  [2.83  V @ 1. m]"	"Frequency / Hz"	"Sound Pressure Level / dB (re 20 µPa/V)  [2.83  V @ 1. m]"	"Frequency / Hz"	"Sound Pressure Level / dB (re 20 µPa/V)  [2.83  V @ 1. m]"	"Frequency / Hz"	"Sound Pressure Level / dB (re 20 µPa/V)  [2.83  V @ 1. m]"	"Frequency / Hz"	"Sound Pressure Level / dB (re 20 µPa/V)  [2.83  V @ 1. m]"	"Frequency / Hz"	"Sound Pressure Level / dB (re 20 µPa/V)  [2.83  V @ 1. m]"	"Frequency / Hz"	"Sound Pressure Level / dB (re 20 µPa/V)  [2.83  V @ 1. m]"	"Frequency / Hz"	"Sound Pressure Level / dB (re 20 µPa/V)  [2.83  V @ 1. m]"	"Frequency / Hz"	"Sound Pressure Level / dB (re 20 µPa/V)  [2.83  V @ 1. m]"	"Frequency / Hz"	"Sound Pressure Level / dB (re 20 µPa/V)  [2.83  V @ 1. m]"	"Frequency / Hz"	"Sound Pressure Level / dB (re 20 µPa/V)  [2.83  V @ 1. m]"	"Frequency / Hz"	"Sound Pressure Level / dB (re 20 µPa/V)  [2.83  V @ 1. m]"	"Frequency / Hz"	"Sound Pressure Level / dB (re 20 µPa/V)  [2.83  V @ 1. m]"	"Frequency / Hz"	"Sound Pressure Level / dB (re 20 µPa/V)  [2.83  V @ 1. m]"	"Frequency / Hz"	"Sound Pressure Level / dB (re 20 µPa/V)  [2.83  V @ 1. m]"	"Frequency / Hz"	"Sound Pressure Level / dB (re 20 µPa/V)  [2.83  V @ 1. m]"
20.5078	58.869	20.5078	58.8179	20.5078	58.9376	20.5078	58.7878	20.5078	59.0193	20.5078	58.7819	20.5078	59.1093	20.5078	58.8031	20.5078	59.2025	20.5078	58.8541	20.5078	59.2948	20.5078	58.9362	20.5078	59.3834	20.5078	59.048	20.5078	59.467	20.5078	59.1835	20.5078	59.5449	20.5078	59.3317	20.5078	59.6166	20.5078	59.478	20.5078	59.6804	20.5078	59.6075	20.5078	59.7332	20.5078	59.7079	20.5078	59.7708	20.5078	59.7724	20.5078	59.7898	20.5078	59.8006	20.5078	59.7898	20.5078	59.7992	20.5078	59.7754	20.5078	59.7797	20.5078	59.7558	20.5078	59.7564	20.5078	59.7419	20.5078	59.7416
21.9727	57.9156	21.9727	57.8659	21.9727	57.9573	21.9727	57.808	21.9727	57.9903	21.9727	57.7416	21.9727	58.0137	21.9727	57.6661	21.9727	58.0267	21.9727	57.5819	21.9727	58.0283	21.9727	57.4901	21.9727	58.0179	21.9727	57.3934	21.9727	57.9943	21.9727	57.2956	21.9727	57.9568	21.9727	57.2014	21.9727	57.9044	21.9727	57.1154	21.9727	57.8377	21.9727	57.0424	21.9727	57.7583	21.9727	56.9868	21.9727	57.6691	21.9727	56.952	21.9727	57.5738	21.9727	56.9401	21.9727	57.4756	21.9727	56.9514	21.9727	57.3773	21.9727	56.9851	21.9727	57.2814	21.9727	57.0385	21.9727	57.1906	21.9727	57.1084
23.4375	60.341	23.4375	60.2967	23.4375	60.3802	23.4375	60.2475	23.4375	60.4141	23.4375	60.193	23.4375	60.4414	23.4375	60.133	23.4375	60.4606	23.4375	60.0676	23.4375	60.47	23.4375	59.9976	23.4375	60.4679	23.4375	59.9242	23.4375	60.4532	23.4375	59.8488	23.4375	60.4246	23.4375	59.7731	23.4375	60.3816	23.4375	59.6995	23.4375	60.324	23.4375	59.6311	23.4375	60.2525	23.4375	59.5722	23.4375	60.1689	23.4375	59.5277	23.4375	60.0757	23.4375	59.5019	23.4375	59.9766	23.4375	59.4977	23.4375	59.8763	23.4375	59.516	23.4375	59.7795	23.4375	59.556	23.4375	59.691	23.4375	59.6153
24.9023	61.3012	24.9023	61.2799	24.9023	61.3136	24.9023	61.25	24.9023	61.3168	24.9023	61.2114	24.9023	61.31	24.9023	61.1643	24.9023	61.2921	24.9023	61.1089	24.9023	61.2625	24.9023	61.046	24.9023	61.2208	24.9023	60.9769	24.9023	61.1673	24.9023	60.9029	24.9023	61.103	24.9023	60.8253	24.9023	61.0294	24.9023	60.7457	24.9023	60.9487	24.9023	60.666	24.9023	60.8635	24.9023	60.5889	24.9023	60.7765	24.9023	60.518	24.9023	60.6902	24.9023	60.4574	24.9023	60.6077	24.9023	60.411	24.9023	60.5322	24.9023	60.3823	24.9023	60.4675	24.9023	60.3734	24.9023	60.4174	24.9023	60.3853
26.3672	62.2069	26.3672	62.1834	26.3672	62.2195	26.3672	62.149	26.3672	62.2213	26.3672	62.104	26.3672	62.2122	26.3672	62.0488	26.3672	62.192	26.3672	61.9845	26.3672	62.1606	26.3672	61.9123	26.3672	62.118	26.3672	61.834	26.3672	62.0643	26.3672	61.7512	26.3672	61.9999	26.3672	61.666	26.3672	61.9253	26.3672	61.5807	26.3672	61.8416	26.3672	61.4981	26.3672	61.7506	26.3672	61.4215	26.3672	61.6554	26.3672	61.354	26.3672	61.5599	26.3672	61.2987	26.3672	61.4687	26.3672	61.2577	26.3672	61.3869	26.3672	61.2327	26.3672	61.3189	26.3672	61.2253	26.3672	61.2683	26.3672	61.2369
27.832	63.1264	27.832	63.096	27.832	63.1489	27.832	63.0589	27.832	63.1632	27.832	63.0159	27.832	63.1686	27.832	62.9683	27.832	63.1652	27.832	62.9178	27.832	63.153	27.832	62.8658	27.832	63.1324	27.832	62.8138	27.832	63.104	27.832	62.7632	27.832	63.0685	27.832	62.7149	27.832	63.0266	27.832	62.6696	27.832	62.9792	27.832	62.6282	27.832	62.9268	27.832	62.5919	27.832	62.8705	27.832	62.5623	27.832	62.8115	27.832	62.5408	27.832	62.7517	27.832	62.5288	27.832	62.6936	27.832	62.5275	27.832	62.6405	27.832	62.538	27.832	62.5953	27.832	62.5607
29.2969	64.3497	29.2969	64.3367	29.2969	64.3509	29.2969	64.3119	29.2969	64.3402	29.2969	64.2761	29.2969	64.318	29.2969	64.2299	29.2969	64.2846	29.2969	64.1747	29.2969	64.2409	29.2969	64.1121	29.2969	64.188	29.2969	64.044	29.2969	64.1271	29.2969	63.9724	29.2969	64.0595	29.2969	63.8991	29.2969	63.9867	29.2969	63.8259	29.2969	63.9101	29.2969	63.7545	29.2969	63.8317	29.2969	63.6865	29.2969	63.7534	29.2969	63.6237	29.2969	63.678	29.2969	63.5679	29.2969	63.6086	29.2969	63.5211	29.2969	63.5488	29.2969	63.4856	29.2969	63.5021	29.2969	63.4641	29.2969	63.4716	29.2969	63.459
30.7617	64.8725	30.7617	64.8579	30.7617	64.8751	30.7617	64.8318	30.7617	64.8649	30.7617	64.7955	30.7617	64.8417	30.7617	64.75	30.7617	64.8058	30.7617	64.6967	30.7617	64.7577	30.7617	64.637	30.7617	64.6984	30.7617	64.5722	30.7617	64.6296	30.7617	64.5033	30.7617	64.5531	30.7617	64.4317	30.7617	64.4712	30.7617	64.3589	30.7617	64.3864	30.7617	64.2865	30.7617	64.3015	30.7617	64.2166	30.7617	64.2194	30.7617	64.1513	30.7617	64.1433	30.7617	64.0923	30.7617	64.0764	30.7617	64.0415	30.7617	64.0221	30.7617	64.0006	30.7617	63.9833	30.7617	63.9721	30.7617	63.9619	30.7617	63.9585
32.2266	65.8192	32.2266	65.8108	32.2266	65.8163	32.2266	65.7919	32.2266	65.802	32.2266	65.7636	32.2266	65.7761	32.2266	65.7271	32.2266	65.7394	32.2266	65.6839	32.2266	65.693	32.2266	65.6354	32.2266	65.6383	32.2266	65.5832	32.2266	65.5774	32.2266	65.529	32.2266	65.5121	32.2266	65.4739	32.2266	65.4446	32.2266	65.4191	32.2266	65.377	32.2266	65.3653	32.2266	65.3113	32.2266	65.313	32.2266	65.2496	32.2266	65.2626	32.2266	65.194	32.2266	65.2149	32.2266	65.1471	32.2266	65.1712	32.2266	65.1111	32.2266	65.1333	32.2266	65.0882	32.2266	65.1038	32.2266	65.0795	32.2266	65.0851
33.6914	66.1863	33.6914	66.1799	33.6914	66.1831	33.6914	66.1645	33.6914	66.17	33.6914	66.1408	33.6914	66.1471	33.6914	66.1101	33.6914	66.1147	33.6914	66.0734	33.6914	66.0738	33.6914	66.0321	33.6914	66.0255	33.6914	65.9875	33.6914	65.9715	33.6914	65.9407	33.6914	65.9134	33.6914	65.8928	33.6914	65.8533	33.6914	65.8447	33.6914	65.7931	33.6914	65.7971	33.6914	65.7346	33.6914	65.7503	33.6914	65.6797	33.6914	65.7049	33.6914	65.6305	33.6914	65.6616	33.6914	65.5892	33.6914	65.6214	33.6914	65.558	33.6914	65.5861	33.6914	65.5387	33.6914	65.5579	33.6914	65.5325	33.6914	65.5393
35.1562	66.8688	35.1562	66.8643	35.1562	66.8655	35.1562	66.8524	35.1562	66.8541	35.1562	66.834	35.1562	66.8346	35.1562	66.81	35.1562	66.8074	35.1562	66.7814	35.1562	66.7732	35.1562	66.7496	35.1562	66.7329	35.1562	66.7159	35.1562	66.688	35.1562	66.6812	35.1562	66.6402	35.1562	66.6464	35.1562	66.5914	35.1562	66.6121	35.1562	66.5436	35.1562	66.5784	35.1562	66.4989	35.1562	66.5453	35.1562	66.4588	35.1562	66.5127	35.1562	66.4248	35.1562	66.4808	35.1562	66.398	35.1562	66.4501	35.1562	66.3796	35.1562	66.4219	35.1562	66.3704	35.1562	66.398	35.1562	66.3707	35.1562	66.3803
36.6211	67.5524	36.6211	67.5523	36.6211	67.543	36.6211	67.5429	36.6211	67.5241	36.6211	67.525	36.6211	67.4958	36.6211	67.4995	36.6211	67.4591	36.6211	67.4676	36.6211	67.4147	36.6211	67.4306	36.6211	67.3641	36.6211	67.3899	36.6211	67.3089	36.6211	67.3471	36.6211	67.2511	36.6211	67.3035	36.6211	67.1929	36.6211	67.26	36.6211	67.1368	36.6211	67.2175	36.6211	67.085	36.6211	67.1763	36.6211	67.0397	36.6211	67.1365	36.6211	67.0028	36.6211	67.0983	36.6211	66.9757	36.6211	67.0621	36.6211	66.9594	36.6211	67.0287	36.6211	66.9544	36.6211	66.9993	36.6211	66.9602	36.6211	66.9758
38.0859	68.3516	38.0859	68.3491	38.0859	68.3404	38.0859	68.3332	38.0859	68.3154	38.0859	68.3048	38.0859	68.2769	38.0859	68.265	38.0859	68.2257	38.0859	68.2153	38.0859	68.1626	38.0859	68.1573	38.0859	68.0889	38.0859	68.0928	38.0859	68.0064	38.0859	68.0233	38.0859	67.9175	38.0859	67.9507	38.0859	67.8251	38.0859	67.8763	38.0859	67.7328	38.0859	67.8018	38.0859	67.6447	38.0859	67.7285	38.0859	67.5648	38.0859	67.658	38.0859	67.4969	38.0859	67.5918	38.0859	67.444	38.0859	67.5315	38.0859	67.408	38.0859	67.4789	38.0859	67.3899	38.0859	67.4361	38.0859	67.3895	38.0859	67.4056
39.5508	68.615	39.5508	68.6034	39.5508	68.6204	39.5508	68.5863	39.5508	68.6191	39.5508	68.5646	39.5508	68.6111	39.5508	68.5395	39.5508	68.5965	39.5508	68.5123	39.5508	68.576	39.5508	68.4841	39.5508	68.5504	39.5508	68.4561	39.5508	68.5208	39.5508	68.4292	39.5508	68.4883	39.5508	68.4041	39.5508	68.4539	39.5508	68.3812	39.5508	68.4187	39.5508	68.3606	39.5508	68.3837	39.5508	68.3422	39.5508	68.3503	39.5508	68.3255	39.5508	68.32	39.5508	68.31	39.5508	68.2946	39.5508	68.2954	39.5508	68.2756	39.5508	68.282	39.5508	68.264	39.5508	68.2706	39.5508	68.26	39.5508	68.2627
41.0156	69.0773	41.0156	69.0763	41.0156	69.0707	41.0156	69.0682	41.0156	69.0564	41.0156	69.054	41.0156	69.0346	41.0156	69.0351	41.0156	69.0065	41.0156	69.0129	41.0156	68.9733	41.0156	68.9889	41.0156	68.9369	41.0156	68.9645	41.0156	68.8994	41.0156	68.9411	41.0156	68.8627	41.0156	68.9194	41.0156	68.8285	41.0156	68.9	41.0156	68.7982	41.0156	68.8831	41.0156	68.7727	41.0156	68.868	41.0156	68.7527	41.0156	68.8539	41.0156	68.7389	41.0156	68.8394	41.0156	68.732	41.0156	68.8237	41.0156	68.7322	41.0156	68.8063	41.0156	68.7393	41.0156	68.7877	41.0156	68.7521	41.0156	68.769
42.4805	69.1678	42.4805	69.1413	42.4805	69.1781	42.4805	69.0993	42.4805	69.1722	42.4805	69.043	42.4805	69.1506	42.4805	68.9744	42.4805	69.1143	42.4805	68.8958	42.4805	69.0645	42.4805	68.8106	42.4805	69.003	42.4805	68.7221	42.4805	68.9317	42.4805	68.6343	42.4805	68.8528	42.4805	68.5508	42.4805	68.7686	42.4805	68.4748	42.4805	68.6816	42.4805	68.4086	42.4805	68.5947	42.4805	68.3532	42.4805	68.5109	42.4805	68.3083	42.4805	68.4332	42.4805	68.2733	42.4805	68.365	42.4805	68.2472	42.4805	68.3087	42.4805	68.2298	42.4805	68.2662	42.4805	68.2215	42.4805	68.2381	42.4805	68.2237
43.9453	69.9957	43.9453	69.9874	43.9453	69.9968	43.9453	69.9721	43.9453	69.9909	43.9453	69.9503	43.9453	69.9783	43.9453	69.9228	43.9453	69.9596	43.9453	69.8907	43.9453	69.9357	43.9453	69.8551	43.9453	69.9076	43.9453	69.8176	43.9453	69.8763	43.9453	69.7797	43.9453	69.843	43.9453	69.7431	43.9453	69.8088	43.9453	69.7094	43.9453	69.7749	43.9453	69.68	43.9453	69.7427	43.9453	69.6558	43.9453	69.7132	43.9453	69.6373	43.9453	69.6872	43.9453	69.6245	43.9453	69.6654	43.9453	69.6169	43.9453	69.6479	43.9453	69.6138	43.9453	69.6345	43.9453	69.6145	43.9453	69.6248	43.9453	69.6182
45.4102	70.6443	45.4102	70.6397	45.4102	70.6369	45.4102	70.6233	45.4102	70.6176	45.4102	70.5959	45.4102	70.587	45.4102	70.5584	45.4102	70.5463	45.4102	70.5121	45.4102	70.4968	45.4102	70.4588	45.4102	70.4401	45.4102	70.4002	45.4102	70.3783	45.4102	70.3385	45.4102	70.3135	45.4102	70.2758	45.4102	70.2479	45.4102	70.2145	45.4102	70.1839	45.4102	70.1565	45.4102	70.1238	45.4102	70.1034	45.4102	70.0699	45.4102	70.0566	45.4102	70.024	45.4102	70.0168	45.4102	69.9872	45.4102	69.9846	45.4102	69.9602	45.4102	69.9604	45.4102	69.943	45.4102	69.944	45.4102	69.9349	45.4102	69.9354
46.875	71.132	46.875	71.1201	46.875	71.1327	46.875	71.0975	46.875	71.1219	46.875	71.065	46.875	71.1001	46.875	71.0237	46.875	71.0677	46.875	70.975	46.875	71.0256	46.875	70.9205	46.875	70.9752	46.875	70.8619	46.875	70.918	46.875	70.8011	46.875	70.8558	46.875	70.7402	46.875	70.7909	46.875	70.6812	46.875	70.7255	46.875	70.626	46.875	70.6622	46.875	70.576	46.875	70.6032	46.875	70.5325	46.875	70.5509	46.875	70.4963	46.875	70.507	46.875	70.4678	46.875	70.4728	46.875	70.4471	46.875	70.4488	46.875	70.4346	46.875	70.4348	46.875	70.4303
48.3398	71.4633	48.3398	71.4519	48.3398	71.4651	48.3398	71.4312	48.3398	71.4573	48.3398	71.4019	48.3398	71.4401	48.3398	71.3649	48.3398	71.4143	48.3398	71.3214	48.3398	71.3806	48.3398	71.2726	48.3398	71.3403	48.3398	71.2199	48.3398	71.2947	48.3398	71.165	48.3398	71.245	48.3398	71.1098	48.3398	71.1927	48.3398	71.0559	48.3398	71.1391	48.3398	71.0053	48.3398	71.0856	48.3398	70.9596	48.3398	71.0338	48.3398	70.9203	48.3398	70.9855	48.3398	70.8886	48.3398	70.9425	48.3398	70.8652	48.3398	70.9063	48.3398	70.8506	48.3398	70.8782	48.3398	70.8447	48.3398	70.8585	48.3398	70.8473
51.2695	72.1013	51.2695	72.107	51.2695	72.0898	51.2695	72.1073	51.2695	72.0728	51.2695	72.1027	51.2695	72.0509	51.2695	72.0941	51.2695	72.0251	51.2695	72.0825	51.2695	71.9966	51.2695	72.0688	51.2695	71.967	51.2695	72.0539	51.2695	71.938	51.2695	72.0382	51.2695	71.911	51.2695	72.0219	51.2695	71.8874	51.2695	72.0047	51.2695	71.868	51.2695	71.9864	51.2695	71.8534	51.2695	71.9668	51.2695	71.8435	51.2695	71.9462	51.2695	71.8379	51.2695	71.9252	51.2695	71.8361	51.2695	71.9051	51.2695	71.8376	51.2695	71.8868	51.2695	71.8419	51.2695	71.8712	51.2695	71.8489	51.2695	71.8586
52.7344	72.4175	52.7344	72.4217	52.7344	72.4108	52.7344	72.4238	52.7344	72.4015	52.7344	72.4249	52.7344	72.3905	52.7344	72.4261	52.7344	72.3788	52.7344	72.429	52.7344	72.3682	52.7344	72.4349	52.7344	72.3607	52.7344	72.445	52.7344	72.3583	52.7344	72.46	52.7344	72.363	52.7344	72.4803	52.7344	72.3763	52.7344	72.5057	52.7344	72.3992	52.7344	72.5352	52.7344	72.4315	52.7344	72.5674	52.7344	72.4718	52.7344	72.6003	52.7344	72.5173	52.7344	72.6314	52.7344	72.5642	52.7344	72.6581	52.7344	72.6082	52.7344	72.6777	52.7344	72.6451	52.7344	72.6877	52.7344	72.6717	52.7344	72.6861
54.1992	72.7961	54.1992	72.8003	54.1992	72.7827	54.1992	72.7958	54.1992	72.7608	54.1992	72.7835	54.1992	72.7317	54.1992	72.7648	54.1992	72.6974	54.1992	72.7418	54.1992	72.6607	54.1992	72.7169	54.1992	72.6251	54.1992	72.6927	54.1992	72.594	54.1992	72.6724	54.1992	72.5713	54.1992	72.6589	54.1992	72.5603	54.1992	72.6549	54.1992	72.5633	54.1992	72.6617	54.1992	72.5812	54.1992	72.6794	54.1992	72.6128	54.1992	72.706	54.1992	72.6546	54.1992	72.738	54.1992	72.7012	54.1992	72.7705	54.1992	72.7464	54.1992	72.7982	54.1992	72.7843	54.1992	72.8162	54.1992	72.8099	54.1992	72.8207
55.6641	73.6405	55.6641	73.661	55.6641	73.5993	55.6641	73.6607	55.6641	73.5378	55.6641	73.64	55.6641	73.4576	55.6641	73.6003	55.6641	73.3605	55.6641	73.5436	55.6641	73.2491	55.6641	73.4727	55.6641	73.1269	55.6641	73.3912	55.6641	72.9981	55.6641	73.3033	55.6641	72.8676	55.6641	73.2132	55.6641	72.7415	55.6641	73.1248	55.6641	72.6263	55.6641	73.0406	55.6641	72.5287	55.6641	72.9618	55.6641	72.4548	55.6641	72.8881	55.6641	72.4087	55.6641	72.8179	55.6641	72.3916	55.6641	72.7495	55.6641	72.4019	55.6641	72.6813	55.6641	72.4352	55.6641	72.6131	55.6641	72.4855	55.6641	72.5467
58.5938	74.6331	58.5938	74.6026	58.5938	74.6405	58.5938	74.5494	58.5938	74.6249	58.5938	74.4745	58.5938	74.5872	58.5938	74.3798	58.5938	74.5282	58.5938	74.2677	58.5938	74.4495	58.5938	74.1415	58.5938	74.353	58.5938	74.0049	58.5938	74.2408	58.5938	73.8621	58.5938	74.1158	58.5938	73.7177	58.5938	73.9812	58.5938	73.5766	58.5938	73.8408	58.5938	73.4435	58.5938	73.6991	58.5938	73.3228	58.5938	73.5605	58.5938	73.2183	58.5938	73.4299	58.5938	73.1331	58.5938	73.3115	58.5938	73.0699	58.5938	73.2092	58.5938	73.0307	58.5938	73.1263	58.5938	73.0166	58.5938	73.0654	58.5938	73.0284
60.0586	74.8076	60.0586	74.7788	60.0586	74.8174	60.0586	74.7316	60.0586	74.8078	60.0586	74.6667	60.0586	74.7784	60.0586	74.585	60.0586	74.7293	60.0586	74.4874	60.0586	74.6605	60.0586	74.3756	60.0586	74.5728	60.0586	74.2513	60.0586	74.4677	60.0586	74.1171	60.0586	74.3472	60.0586	73.9767	60.0586	74.2145	60.0586	73.8342	60.0586	74.0734	60.0586	73.6951	60.0586	73.9284	60.0586	73.565	60.0586	73.7845	60.0586	73.4496	60.0586	73.6471	60.0586	73.3537	60.0586	73.5216	60.0586	73.2813	60.0586	73.4129	60.0586	73.235	60.0586	73.3254	60.0586	73.2162	60.0586	73.2622	60.0586	73.2254
62.9883	75.1494	62.9883	75.1556	62.9883	75.1284	62.9883	75.1473	62.9883	75.0926	62.9883	75.125	62.9883	75.0427	62.9883	75.0896	62.9883	74.9798	62.9883	75.0418	62.9883	74.9054	62.9883	74.983	62.9883	74.8217	62.9883	74.9142	62.9883	74.7313	62.9883	74.8368	62.9883	74.6369	62.9883	74.7525	62.9883	74.5419	62.9883	74.6632	62.9883	74.4493	62.9883	74.5712	62.9883	74.3623	62.9883	74.4792	62.9883	74.2837	62.9883	74.3903	62.9883	74.2162	62.9883	74.308	62.9883	74.1617	62.9883	74.2356	62.9883	74.122	62.9883	74.1758	62.9883	74.0984	62.9883	74.131	62.9883	74.0919	62.9883	74.1028
64.4531	75.2926	64.4531	75.2969	64.4531	75.2766	64.4531	75.2897	64.4531	75.2491	64.4531	75.2716	64.4531	75.2107	64.4531	75.2433	64.4531	75.1623	64.4531	75.2059	64.4531	75.1052	64.4531	75.1606	64.4531	75.0411	64.4531	75.1085	64.4531	74.9717	64.4531	75.051	64.4531	74.8991	64.4531	74.9894	64.4531	74.8258	64.4531	74.925	64.4531	74.7542	64.4531	74.8592	64.4531	74.6868	64.4531	74.7935	64.4531	74.6262	64.4531	74.7295	64.4531	74.5745	64.4531	74.6691	64.4531	74.5337	64.4531	74.6142	64.4531	74.5055	64.4531	74.5668	64.4531	74.4907	64.4531	74.5292	64.4531	74.49	64.4531	74.5031
67.3828	75.6394	67.3828	75.6279	67.3828	75.6425	67.3828	75.6085	67.3828	75.6372	67.3828	75.5818	67.3828	75.6239	67.3828	75.549	67.3828	75.6032	67.3828	75.5116	67.3828	75.5762	67.3828	75.4711	67.3828	75.5438	67.3828	75.4295	67.3828	75.5075	67.3828	75.3884	67.3828	75.4683	67.3828	75.3495	67.3828	75.4278	67.3828	75.3139	67.3828	75.3873	67.3828	75.2826	67.3828	75.348	67.3828	75.2559	67.3828	75.3113	67.3828	75.234	67.3828	75.2783	67.3828	75.2167	67.3828	75.25	67.3828	75.2038	67.3828	75.2269	67.3828	75.1953	67.3828	75.2096	67.3828	75.1912	67.3828	75.198	67.3828	75.192
68.8477	75.8745	68.8477	75.8556	68.8477	75.8852	68.8477	75.8293	68.8477	75.8876	68.8477	75.7966	68.8477	75.8818	68.8477	75.7589	68.8477	75.8684	68.8477	75.7181	68.8477	75.8485	68.8477	75.676	68.8477	75.8233	68.8477	75.6347	68.8477	75.7942	68.8477	75.596	68.8477	75.7627	68.8477	75.5616	68.8477	75.7303	68.8477	75.5327	68.8477	75.6982	68.8477	75.5103	68.8477	75.6675	68.8477	75.4945	68.8477	75.6389	68.8477	75.4853	68.8477	75.6127	68.8477	75.4821	68.8477	75.5889	68.8477	75.4843	68.8477	75.5675	68.8477	75.4911	68.8477	75.548	68.8477	75.5015	68.8477	75.5305	68.8477	75.5149
71.7773	76.6368	71.7773	76.6191	71.7773	76.6432	71.7773	76.5905	71.7773	76.6386	71.7773	76.552	71.7773	76.6236	71.7773	76.505	71.7773	76.5991	71.7773	76.4513	71.7773	76.5666	71.7773	76.3936	71.7773	76.5278	71.7773	76.3344	71.7773	76.4847	71.7773	76.2767	71.7773	76.4393	71.7773	76.2233	71.7773	76.3936	71.7773	76.1767	71.7773	76.3494	71.7773	76.1387	71.7773	76.3082	71.7773	76.1105	71.7773	76.2709	71.7773	76.0924	71.7773	76.2376	71.7773	76.0838	71.7773	76.2083	71.7773	76.0838	71.7773	76.1824	71.7773	76.0907	71.7773	76.1591	71.7773	76.103	71.7773	76.138	71.7773	76.1191
74.707	77.1459	74.707	77.1327	74.707	77.1466	74.707	77.107	74.707	77.1349	74.707	77.0697	74.707	77.1117	74.707	77.0222	74.707	77.0783	74.707	76.9662	74.707	77.0366	74.707	76.9042	74.707	76.9887	74.707	76.8387	74.707	76.9368	74.707	76.7728	74.707	76.8834	74.707	76.7095	74.707	76.8307	74.707	76.6517	74.707	76.7805	74.707	76.602	74.707	76.7342	74.707	76.5622	74.707	76.6925	74.707	76.5332	74.707	76.6557	74.707	76.5151	74.707	76.6235	74.707	76.5072	74.707	76.5951	74.707	76.5081	74.707	76.5701	74.707	76.5163	74.707	76.5484	74.707	76.5301
77.6367	77.4711	77.6367	77.455	77.6367	77.4747	77.6367	77.4268	77.6367	77.4658	77.6367	77.3876	77.6367	77.4454	77.6367	77.3392	77.6367	77.4147	77.6367	77.2838	77.6367	77.3756	77.6367	77.224	77.6367	77.3302	77.6367	77.1627	77.6367	77.281	77.6367	77.1027	77.6367	77.2303	77.6367	77.0467	77.6367	77.1803	77.6367	76.997	77.6367	77.133	77.6367	76.9555	77.6367	77.0896	77.6367	76.9233	77.6367	77.0511	77.6367	76.9009	77.6367	77.0174	77.6367	76.8879	77.6367	76.9883	77.6367	76.8833	77.6367	76.9632	77.6367	76.8858	77.6367	76.9414	77.6367	76.894	77.6367	76.9225	77.6367	76.9065
79.1016	77.7591	79.1016	77.7391	79.1016	77.7663	79.1016	77.707	79.1016	77.7608	79.1016	77.664	79.1016	77.7435	79.1016	77.6119	79.1016	77.7156	79.1016	77.553	79.1016	77.6788	79.1016	77.4901	79.1016	77.6354	79.1016	77.4263	79.1016	77.5877	79.1016	77.3646	79.1016	77.5379	79.1016	77.3078	79.1016	77.4885	79.1016	77.2582	79.1016	77.4411	79.1016	77.2178	79.1016	77.3971	79.1016	77.1877	79.1016	77.3573	79.1016	77.168	79.1016	77.3218	79.1016	77.1585	79.1016	77.2903	79.1016	77.1579	79.1016	77.2622	79.1016	77.1648	79.1016	77.237	79.1016	77.1774	79.1016	77.2144	79.1016	77.1943
82.0312	78.266	82.0312	78.2535	82.0312	78.2656	82.0312	78.2285	82.0312	78.2527	82.0312	78.1921	82.0312	78.228	82.0312	78.1456	82.0312	78.1929	82.0312	78.0911	82.0312	78.1493	82.0312	78.0309	82.0312	78.0993	82.0312	77.9679	82.0312	78.0455	82.0312	77.905	82.0312	77.9904	82.0312	77.845	82.0312	77.9365	82.0312	77.7904	82.0312	77.8857	82.0312	77.7434	82.0312	77.8396	82.0312	77.7053	82.0312	77.7991	82.0312	77.6769	82.0312	77.7644	82.0312	77.6581	82.0312	77.7351	82.0312	77.6483	82.0312	77.7106	82.0312	77.6464	82.0312	77.6902	82.0312	77.6507	82.0312	77.6734	82.0312	77.6601
84.9609	78.2612	84.9609	78.2372	84.9609	78.2781	84.9609	78.2069	84.9609	78.288	84.9609	78.1717	84.9609	78.2912	84.9609	78.1336	84.9609	78.2889	84.9609	78.0947	84.9609	78.2825	84.9609	78.0578	84.9609	78.2737	84.9609	78.0254	84.9609	78.2642	84.9609	77.9999	84.9609	78.2554	84.9609	77.983	84.9609	78.2485	84.9609	77.976	84.9609	78.2436	84.9609	77.9792	84.9609	78.2404	84.9609	77.992	84.9609	78.238	84.9609	78.013	84.9609	78.2348	84.9609	78.0403	84.9609	78.2293	84.9609	78.0714	84.9609	78.2201	84.9609	78.1038	84.9609	78.2063	84.9609	78.1351	84.9609	78.1874	84.9609	78.1634
87.8906	78.8461	87.8906	78.8247	87.8906	78.8518	87.8906	78.7875	87.8906	78.843	87.8906	78.7356	87.8906	78.8218	87.8906	78.6714	87.8906	78.791	87.8906	78.5987	87.8906	78.7542	87.8906	78.5223	87.8906	78.7149	87.8906	78.4478	87.8906	78.6767	87.8906	78.3814	87.8906	78.643	87.8906	78.3286	87.8906	78.6161	87.8906	78.2939	87.8906	78.5976	87.8906	78.2796	87.8906	78.5877	87.8906	78.286	87.8906	78.5849	87.8906	78.3108	87.8906	78.5868	87.8906	78.3495	87.8906	78.5895	87.8906	78.3968	87.8906	78.5887	87.8906	78.4466	87.8906	78.5806	87.8906	78.4935	87.8906	78.5624	87.8906	78.533
90.8203	79.2253	90.8203	79.2228	90.8203	79.2101	90.8203	79.2018	90.8203	79.1789	90.8203	79.1629	90.8203	79.1345	90.8203	79.1079	90.8203	79.0808	90.8203	79.0397	90.8203	79.0219	90.8203	78.9628	90.8203	78.9625	90.8203	78.8822	90.8203	78.9066	90.8203	78.804	90.8203	78.8579	90.8203	78.7342	90.8203	78.8185	90.8203	78.6782	90.8203	78.7894	90.8203	78.6398	90.8203	78.7704	90.8203	78.6204	90.8203	78.7599	90.8203	78.6187	90.8203	78.7559	90.8203	78.6314	90.8203	78.7553	90.8203	78.6535	90.8203	78.7548	90.8203	78.6797	90.8203	78.7513	90.8203	78.7054	90.8203	78.7425	90.8203	78.727
95.2148	79.8867	95.2148	79.8988	95.2148	79.849	95.2148	79.8864	95.2148	79.7856	95.2148	79.8514	95.2148	79.6981	95.2148	79.7967	95.2148	79.5893	95.2148	79.7257	95.2148	79.4641	95.2148	79.6423	95.2148	79.3291	95.2148	79.5508	95.2148	79.1922	95.2148	79.4556	95.2148	79.0626	95.2148	79.3614	95.2148	78.9487	95.2148	79.2721	95.2148	78.8576	95.2148	79.1914	95.2148	78.7936	95.2148	79.1216	95.2148	78.7575	95.2148	79.0634	95.2148	78.747	95.2148	79.0162	95.2148	78.7571	95.2148	78.9777	95.2148	78.7813	95.2148	78.9445	95.2148	78.8134	95.2148	78.9134	95.2148	78.8479	95.2148	78.8816
98.1445	80.2171	98.1445	80.193	98.1445	80.2156	98.1445	80.1448	98.1445	80.1881	98.1445	80.0749	98.1445	80.1352	98.1445	79.9867	98.1445	80.0588	98.1445	79.8842	98.1445	79.9619	98.1445	79.772	98.1445	79.8491	98.1445	79.6553	98.1445	79.7261	98.1445	79.5394	98.1445	79.5997	98.1445	79.4295	98.1445	79.4767	98.1445	79.3302	98.1445	79.3639	98.1445	79.2453	98.1445	79.2667	98.1445	79.1771	98.1445	79.1887	98.1445	79.1262	98.1445	79.131	98.1445	79.0916	98.1445	79.0924	98.1445	79.0706	98.1445	79.0697	98.1445	79.0594	98.1445	79.0582	98.1445	79.0544	98.1445	79.0537	98.1445	79.0528
101.074	80.4014	101.074	80.382	101.074	80.4006	101.074	80.3435	101.074	80.3796	101.074	80.287	101.074	80.3389	101.074	80.2149	101.074	80.28	101.074	80.1299	101.074	80.2049	101.074	80.0353	101.074	80.1169	101.074	79.935	101.074	80.0199	101.074	79.8332	101.074	79.9188	101.074	79.7341	101.074	79.8187	101.074	79.6419	101.074	79.7247	101.074	79.5603	101.074	79.6409	101.074	79.4924	101.074	79.5701	101.074	79.4399	101.074	79.5132	101.074	79.4035	101.074	79.4695	101.074	79.3822	101.074	79.437	101.074	79.3735	101.074	79.413	101.074	79.3745	101.074	79.3952	101.074	79.3823
105.469	80.547	105.469	80.5385	105.469	80.5333	105.469	80.5076	105.469	80.4989	105.469	80.4553	105.469	80.4462	105.469	80.3837	105.469	80.3783	105.469	80.2961	105.469	80.2991	105.469	80.197	105.469	80.2127	105.469	80.0914	105.469	80.1236	105.469	79.9847	105.469	80.0358	105.469	79.8825	105.469	79.953	105.469	79.7895	105.469	79.8784	105.469	79.7098	105.469	79.8137	105.469	79.6461	105.469	79.7595	105.469	79.5997	105.469	79.7153	105.469	79.5707	105.469	79.6795	105.469	79.5575	105.469	79.6499	105.469	79.5572	105.469	79.6246	105.469	79.5667	105.469	79.6022	105.469	79.5825
108.398	80.8734	108.398	80.8572	108.398	80.866	108.398	80.818	108.398	80.8348	108.398	80.7579	108.398	80.7812	108.398	80.6796	108.398	80.7071	108.398	80.5868	108.398	80.6155	108.398	80.4838	108.398	80.5106	108.398	80.3752	108.398	80.397	108.398	80.266	108.398	80.2803	108.398	80.1608	108.398	80.1662	108.398	80.0636	108.398	80.0601	108.398	79.9778	108.398	79.9666	108.398	79.9054	108.398	79.8888	108.398	79.8472	108.398	79.8279	108.398	79.8028	108.398	79.7834	108.398	79.7707	108.398	79.7537	108.398	79.7488	108.398	79.7362	108.398	79.7351	108.398	79.7284	108.398	79.7284
112.793	81.2434	112.793	81.205	112.793	81.2584	112.793	81.1433	112.793	81.2514	112.793	81.0601	112.793	81.2252	112.793	80.9591	112.793	81.1836	112.793	80.8456	112.793	81.1309	112.793	80.7264	112.793	81.0716	112.793	80.6094	112.793	81.0099	112.793	80.5022	112.793	80.9493	112.793	80.4118	112.793	80.8924	112.793	80.3433	112.793	80.8407	112.793	80.2995	112.793	80.7946	112.793	80.2806	112.793	80.7536	112.793	80.2848	112.793	80.7159	112.793	80.3088	112.793	80.6796	112.793	80.3479	112.793	80.642	112.793	80.3969	112.793	80.601	112.793	80.4507	112.793	80.5552	112.793	80.5046
117.188	81.287	117.188	81.2859	117.188	81.255	117.188	81.2519	117.188	81.1912	117.188	81.1864	117.188	81.0987	117.188	81.093	117.188	80.9822	117.188	80.9767	117.188	80.8485	117.188	80.8449	117.188	80.7059	117.188	80.7069	117.188	80.5642	117.188	80.5732	117.188	80.4338	117.188	80.4548	117.188	80.3241	117.188	80.3611	117.188	80.2425	117.188	80.2979	117.188	80.1926	117.188	80.2658	117.188	80.1734	117.188	80.2607	117.188	80.1803	117.188	80.274	117.188	80.2057	117.188	80.2956	117.188	80.2407	117.188	80.3157	117.188	80.2766	117.188	80.3265	117.188	80.3061	117.188	80.3236
120.117	81.5244	120.117	81.5205	120.117	81.4974	120.117	81.4863	120.117	81.44	120.117	81.4231	120.117	81.3536	120.117	81.3333	120.117	81.2411	120.117	81.2199	120.117	81.1068	120.117	81.0872	120.117	80.9567	120.117	80.941	120.117	80.7986	120.117	80.7884	120.117	80.6415	120.117	80.6379	120.117	80.4951	120.117	80.4987	120.117	80.3686	120.117	80.3794	120.117	80.2693	120.117	80.2863	120.117	80.2007	120.117	80.2222	120.117	80.1619	120.117	80.1854	120.117	80.1479	120.117	80.1703	120.117	80.1504	120.117	80.1688	120.117	80.1603	120.117	80.1723	120.117	80.1697	120.117	80.1739
124.512	81.6447	124.512	81.6452	124.512	81.6173	124.512	81.6201	124.512	81.5627	124.512	81.5714	124.512	81.4821	124.512	81.5021	124.512	81.3781	124.512	81.4157	124.512	81.2545	124.512	81.3161	124.512	81.1168	124.512	81.2074	124.512	80.9717	124.512	81.0938	124.512	80.8271	124.512	80.98	124.512	80.6912	124.512	80.8705	124.512	80.5717	124.512	80.7697	124.512	80.4749	124.512	80.681	124.512	80.4047	124.512	80.6067	124.512	80.3619	124.512	80.5471	124.512	80.3437	124.512	80.5005	124.512	80.3449	124.512	80.4639	124.512	80.3593	124.512	80.4334	124.512	80.3811	124.512	80.4062
128.906	81.8851	128.906	81.8636	128.906	81.8789	128.906	81.8161	128.906	81.8443	128.906	81.7454	128.906	81.7819	128.906	81.6551	128.906	81.6932	128.906	81.5497	128.906	81.5813	128.906	81.4342	128.906	81.4503	128.906	81.3137	128.906	81.3058	128.906	81.1934	128.906	81.1544	128.906	81.0778	128.906	81.0039	128.906	80.9706	128.906	80.8621	128.906	80.8742	128.906	80.7365	128.906	80.7898	128.906	80.6329	128.906	80.7171	128.906	80.5547	128.906	80.6549	128.906	80.5024	128.906	80.6018	128.906	80.4737	128.906	80.5569	128.906	80.4648	128.906	80.5197	128.906	80.4717	128.906	80.4908
133.301	81.9384	133.301	81.9108	133.301	81.9385	133.301	81.8564	133.301	81.9111	133.301	81.7775	133.301	81.8573	133.301	81.6773	133.301	81.7791	133.301	81.5602	133.301	81.6793	133.301	81.4315	133.301	81.5618	133.301	81.2974	133.301	81.431	133.301	81.1641	133.301	81.2924	133.301	81.0375	133.301	81.1518	133.301	80.9227	133.301	81.0153	133.301	80.823	133.301	80.8889	133.301	80.7399	133.301	80.7777	133.301	80.6728	133.301	80.6854	133.301	80.62	133.301	80.6139	133.301	80.5791	133.301	80.5631	133.301	80.5484	133.301	80.5315	133.301	80.5271	133.301	80.5167	133.301	80.516
139.16	81.2973	139.16	81.2704	139.16	81.3054	139.16	81.2261	139.16	81.2951	139.16	81.1677	139.16	81.268	139.16	81.0999	139.16	81.2273	139.16	81.0288	139.16	81.1772	139.16	80.9615	139.16	81.1226	139.16	80.9052	139.16	81.0689	139.16	80.8663	139.16	81.0216	139.16	80.8494	139.16	80.9856	139.16	80.8564	139.16	80.965	139.16	80.886	139.16	80.9617	139.16	80.9334	139.16	80.9756	139.16	80.9914	139.16	81.0041	139.16	81.0513	139.16	81.0425	139.16	81.1047	139.16	81.0846	139.16	81.1446	139.16	81.1238	139.16	81.1667	139.16	81.1538	139.16	81.1693
143.555	81.7441	143.555	81.7078	143.555	81.741	143.555	81.6327	143.555	81.7004	143.555	81.5224	143.555	81.6267	143.555	81.3833	143.555	81.5268	143.555	81.2242	143.555	81.409	143.555	81.0567	143.555	81.2828	143.555	80.8941	143.555	81.1582	143.555	80.7504	143.555	81.0446	143.555	80.6388	143.555	80.9506	143.555	80.5696	143.555	80.8829	143.555	80.5476	143.555	80.8455	143.555	80.5709	143.555	80.8384	143.555	80.6307	143.555	80.8573	143.555	80.7132	143.555	80.8934	143.555	80.8024	143.555	80.9351	143.555	80.8835	143.555	80.9702	143.555	80.9452	143.555	80.9878	143.555	80.9805
147.949	81.9444	147.949	81.9295	147.949	81.9164	147.949	81.8724	147.949	81.8465	147.949	81.7758	147.949	81.7376	147.949	81.6439	147.949	81.5948	147.949	81.4829	147.949	81.4255	147.949	81.3009	147.949	81.2389	147.949	81.1076	147.949	81.0462	147.949	80.9139	147.949	80.8594	147.949	80.7312	147.949	80.6897	147.949	80.5699	147.949	80.5465	147.949	80.4382	147.949	80.4357	147.949	80.3408	147.949	80.359	147.949	80.278	147.949	80.313	147.949	80.2459	147.949	80.291	147.949	80.2374	147.949	80.2836	147.949	80.2439	147.949	80.2817	147.949	80.257	147.949	80.2782	147.949	80.2698
153.809	81.561	153.809	81.5584	153.809	81.531	153.809	81.524	153.809	81.4683	153.809	81.4596	153.809	81.3739	153.809	81.3676	153.809	81.2503	153.809	81.2519	153.809	81.1015	153.809	81.1172	153.809	80.9337	153.809	80.9697	153.809	80.7552	153.809	80.8166	153.809	80.5762	153.809	80.6653	153.809	80.4078	153.809	80.5233	153.809	80.2607	153.809	80.397	153.809	80.1432	153.809	80.291	153.809	80.0595	153.809	80.2074	153.809	80.009	153.809	80.1457	153.809	79.987	153.809	80.1027	153.809	79.9861	153.809	80.0734	153.809	79.9978	153.809	80.0519	153.809	80.0151	153.809	80.0333
159.668	81.5046	159.668	81.4834	159.668	81.4908	159.668	81.4282	159.668	81.4427	159.668	81.3411	159.668	81.3626	159.668	81.2262	159.668	81.2539	159.668	81.0891	159.668	81.1219	159.668	80.9375	159.668	80.973	159.668	80.7805	159.668	80.8149	159.668	80.6285	159.668	80.6568	159.668	80.4917	159.668	80.5084	159.668	80.3784	159.668	80.38	159.668	80.2938	159.668	80.2803	159.668	80.2394	159.668	80.2148	159.668	80.2129	159.668	80.1839	159.668	80.2089	159.668	80.1823	159.668	80.2199	159.668	80.1999	159.668	80.2369	159.668	80.2246	159.668	80.2509	159.668	80.2454	159.668	80.2548
165.527	81.5396	165.527	81.5248	165.527	81.5191	165.527	81.4757	165.527	81.4645	165.527	81.3952	165.527	81.3787	165.527	81.288	165.527	81.267	165.527	81.1606	165.527	81.1364	165.527	81.0208	165.527	80.9959	165.527	80.8771	165.527	80.8554	165.527	80.7386	165.527	80.7246	165.527	80.6139	165.527	80.6117	165.527	80.5102	165.527	80.522	165.527	80.4324	165.527	80.4574	165.527	80.3821	165.527	80.4168	165.527	80.3574	165.527	80.3965	165.527	80.3536	165.527	80.3913	165.527	80.3635	165.527	80.3951	165.527	80.3795	165.527	80.4018	165.527	80.3946	165.527	80.406	165.527	80.404
171.387	81.1754	171.387	81.152	171.387	81.1621	171.387	81.093	171.387	81.1129	171.387	81.002	171.387	81.0309	171.387	80.8845	171.387	80.9212	171.387	80.7487	171.387	80.7914	171.387	80.6043	171.387	80.6511	171.387	80.4626	171.387	80.5121	171.387	80.3347	171.387	80.3866	171.387	80.2307	171.387	80.2854	171.387	80.1576	171.387	80.2158	171.387	80.1186	171.387	80.1801	171.387	80.1121	171.387	80.1752	171.387	80.1322	171.387	80.1937	171.387	80.1702	171.387	80.2258	171.387	80.2158	171.387	80.2615	171.387	80.2592	171.387	80.2916	171.387	80.2923	171.387	80.3091	171.387	80.3097
177.246	80.8232	177.246	80.7959	177.246	80.8122	177.246	80.7325	177.246	80.7631	177.246	80.6375	177.246	80.6785	177.246	80.5177	177.246	80.5629	177.246	80.382	177.246	80.4234	177.246	80.2407	177.246	80.2691	177.246	80.1052	177.246	80.1119	177.246	79.9865	177.246	79.9652	177.246	79.8939	177.246	79.8432	177.246	79.8337	177.246	79.7577	177.246	79.8077	177.246	79.7155	177.246	79.8133	177.246	79.716	177.246	79.8435	177.246	79.752	177.246	79.8885	177.246	79.8108	177.246	79.9371	177.246	79.8779	177.246	79.9785	177.246	79.9394	177.246	80.0037	177.246	79.9844	177.246	80.0065
183.105	80.8096	183.105	80.7877	183.105	80.7893	183.105	80.7246	183.105	80.7281	183.105	80.6233	183.105	80.6294	183.105	80.4893	183.105	80.498	183.105	80.3309	183.105	80.3406	183.105	80.1593	183.105	80.1658	183.105	79.9879	183.105	79.9844	183.105	79.8319	183.105	79.8092	183.105	79.7055	183.105	79.655	183.105	79.6195	183.105	79.5359	183.105	79.5781	183.105	79.4623	183.105	79.578	183.105	79.4376	183.105	79.6088	183.105	79.4569	183.105	79.6563	183.105	79.5086	183.105	79.7051	183.105	79.5775	183.105	79.7418	183.105	79.6482	183.105	79.7568	183.105	79.7073	183.105	79.7452
188.965	80.5036	188.965	80.4882	188.965	80.4725	188.965	80.4276	188.965	80.3965	188.965	80.3261	188.965	80.2798	188.965	80.1907	188.965	80.1298	188.965	80.0308	188.965	79.9559	188.965	79.8582	188.965	79.7696	188.965	79.6861	188.965	79.5835	188.965	79.5288	188.965	79.4112	188.965	79.3998	188.965	79.2664	188.965	79.31	188.965	79.1617	188.965	79.2658	188.965	79.1065	188.965	79.2665	188.965	79.1039	188.965	79.3044	188.965	79.1484	188.965	79.3659	188.965	79.2269	188.965	79.4338	188.965	79.3212	188.965	79.491	188.965	79.412	188.965	79.5232	188.965	79.4825	188.965	79.5212
196.289	80.7102	196.289	80.6876	196.289	80.6844	196.289	80.6177	196.289	80.6106	196.289	80.5031	196.289	80.4911	196.289	80.3483	196.289	80.3304	196.289	80.1603	196.289	80.1367	196.289	79.9484	196.289	79.9223	196.289	79.7243	196.289	79.7033	196.289	79.502	196.289	79.4974	196.289	79.2971	196.289	79.3213	196.289	79.1261	196.289	79.1876	196.289	79.0039	196.289	79.1022	196.289	78.9399	196.289	79.0644	196.289	78.9347	196.289	79.0676	196.289	78.9778	196.289	79.1007	196.289	79.0502	196.289	79.149	196.289	79.1285	196.289	79.1959	196.289	79.1917	196.289	79.2254	196.289	79.2256
203.613	80.3741	203.613	80.3397	203.613	80.3596	203.613	80.259	203.613	80.2958	203.613	80.1367	203.613	80.1843	203.613	79.9805	203.613	80.0289	203.613	79.8004	203.613	79.8358	203.613	79.6083	203.613	79.6143	203.613	79.4172	203.613	79.3775	203.613	79.2393	203.613	79.1425	203.613	79.0847	203.613	78.9294	203.613	78.9606	203.613	78.758	203.613	78.8705	203.613	78.6437	203.613	78.8152	203.613	78.5922	203.613	78.7928	203.613	78.5981	203.613	78.7981	203.613	78.6463	203.613	78.822	203.613	78.7164	203.613	78.8516	203.613	78.7874	203.613	78.8722	203.613	78.8425	203.613	78.8713
210.938	80.1788	210.938	80.1424	210.938	80.1586	210.938	80.0506	210.938	80.0839	210.938	79.9078	210.938	79.9598	210.938	79.722	210.938	79.794	210.938	79.5053	210.938	79.5966	210.938	79.2729	210.938	79.3798	210.938	79.0428	210.938	79.1574	210.938	78.8336	210.938	78.945	210.938	78.6619	210.938	78.7583	210.938	78.5392	210.938	78.6115	210.938	78.4701	210.938	78.5145	210.938	78.4514	210.938	78.4697	210.938	78.4731	210.938	78.4717	210.938	78.5211	210.938	78.508	210.938	78.5792	210.938	78.5623	210.938	78.6322	210.938	78.6174	210.938	78.6675	210.938	78.6591	210.938	78.6771
218.262	79.9765	218.262	79.9391	218.262	79.9589	218.262	79.8501	218.262	79.8856	218.262	79.7153	218.262	79.7598	218.262	79.5424	218.262	79.5883	218.262	79.3414	218.262	79.3821	218.262	79.1256	218.262	79.1558	218.262	78.9115	218.262	78.9267	218.262	78.7174	218.262	78.7138	218.262	78.5604	218.262	78.5354	218.262	78.4523	218.262	78.4067	218.262	78.3968	218.262	78.3359	218.262	78.3888	218.262	78.3215	218.262	78.4168	218.262	78.3527	218.262	78.4655	218.262	78.4119	218.262	78.5197	218.262	78.4799	218.262	78.5662	218.262	78.5407	218.262	78.5956	218.262	78.5834	218.262	78.6021
225.586	79.7231	225.586	79.691	225.586	79.6954	225.586	79.6017	225.586	79.6079	225.586	79.4604	225.586	79.4633	225.586	79.2748	225.586	79.2683	225.586	79.0558	225.586	79.034	225.586	78.8191	225.586	78.7766	225.586	78.5851	225.586	78.517	225.586	78.3774	225.586	78.2791	225.586	78.2191	225.586	78.0868	225.586	78.1258	225.586	77.9592	225.586	78.1008	225.586	77.9062	225.586	78.1341	225.586	77.9261	225.586	78.2061	225.586	78.0047	225.586	78.2943	225.586	78.1191	225.586	78.3784	225.586	78.2429	225.586	78.4429	225.586	78.353	225.586	78.4773	225.586	78.4331	225.586	78.4751
232.91	79.581	232.91	79.5443	232.91	79.5513	232.91	79.4437	232.91	79.4557	232.91	79.284	232.91	79.2975	232.91	79.073	232.91	79.0833	232.91	78.8221	232.91	78.8239	232.91	78.547	232.91	78.5355	232.91	78.2697	232.91	78.2402	232.91	78.0179	232.91	77.965	232.91	77.8211	232.91	77.7392	232.91	77.7029	232.91	77.5867	232.91	77.6719	232.91	77.5201	232.91	77.7177	232.91	77.5367	232.91	77.8153	232.91	77.6196	232.91	77.9344	232.91	77.7438	232.91	78.0469	232.91	77.8823	232.91	78.1312	232.91	78.0105	232.91	78.1731	232.91	78.1094	232.91	78.1658
241.699	79.3844	241.699	79.3555	241.699	79.346	241.699	79.2608	241.699	79.2411	241.699	79.1042	241.699	79.0733	241.699	78.8919	241.699	78.8489	241.699	78.6326	241.699	78.5778	241.699	78.3382	241.699	78.2732	241.699	78.026	241.699	77.9525	241.699	77.7205	241.699	77.6376	241.699	77.4526	241.699	77.3547	241.699	77.2547	241.699	77.1329	241.699	77.1492	241.699	76.9983	241.699	77.1392	241.699	76.9659	241.699	77.2074	241.699	77.0303	241.699	77.323	241.699	77.1643	241.699	77.4515	241.699	77.3275	241.699	77.562	241.699	77.4796	241.699	77.6305	241.699	77.59	241.699	77.6419
250.488	79.2931	250.488	79.2374	250.488	79.2701	250.488	79.1062	250.488	79.168	250.488	78.9059	250.488	78.9891	250.488	78.6464	250.488	78.7395	250.488	78.3408	250.488	78.4303	250.488	78.0059	250.488	78.0808	250.488	77.6637	250.488	77.7193	250.488	77.3426	250.488	77.3823	250.488	77.0767	250.488	77.1078	250.488	76.8983	250.488	76.924	250.488	76.8249	250.488	76.8409	250.488	76.8484	250.488	76.8486	250.488	76.9388	250.488	76.924	250.488	77.0583	250.488	77.0382	250.488	77.1759	250.488	77.1616	250.488	77.2724	250.488	77.2677	250.488	77.3365	250.488	77.337	250.488	77.36
259.277	79.5016	259.277	79.4615	259.277	79.4792	259.277	79.3596	259.277	79.3934	259.277	79.1967	259.277	79.2444	259.277	78.9742	259.277	79.0337	259.277	78.6958	259.277	78.7657	259.277	78.3689	259.277	78.4494	259.277	78.0064	259.277	78.0997	259.277	77.6293	259.277	77.7402	259.277	77.2686	259.277	77.4036	259.277	76.9642	259.277	77.128	259.277	76.7566	259.277	76.9465	259.277	76.6718	259.277	76.8741	259.277	76.7059	259.277	76.9001	259.277	76.8251	259.277	76.9926	259.277	76.981	259.277	77.1105	259.277	77.1289	259.277	77.216	259.277	77.2376	259.277	77.2812	259.277	77.2901
268.066	79.1526	268.066	79.1027	268.066	79.1268	268.066	78.9788	268.066	79.0264	268.066	78.7862	268.066	78.8543	268.066	78.5351	268.066	78.6154	268.066	78.2419	268.066	78.3177	268.066	77.929	268.066	77.9743	268.066	77.6229	268.066	77.6067	268.066	77.3489	268.066	77.2469	268.066	77.1255	268.066	76.9354	268.066	76.9608	268.066	76.7119	268.066	76.8555	268.066	76.6014	268.066	76.8078	268.066	76.6037	268.066	76.8167	268.066	76.6944	268.066	76.878	268.066	76.8358	268.066	76.9774	268.066	76.9887	268.066	77.0885	268.066	77.1192	268.066	77.1792	268.066	77.2018	268.066	77.2219
276.855	78.9582	276.855	78.9086	276.855	78.9363	276.855	78.7856	276.855	78.8463	276.855	78.5891	276.855	78.6929	276.855	78.3208	276.855	78.4805	276.855	77.9862	276.855	78.2126	276.855	77.5979	276.855	77.893	276.855	77.1819	276.855	77.5292	276.855	76.7831	276.855	77.138	276.855	76.4603	276.855	76.7506	276.855	76.2637	276.855	76.4124	276.855	76.2035	276.855	76.1742	276.855	76.243	276.855	76.0727	276.855	76.3257	276.855	76.1097	276.855	76.4108	276.855	76.2468	276.855	76.4875	276.855	76.4215	276.855	76.561	276.855	76.5721	276.855	76.6293	276.855	76.6586	276.855	76.6717
287.109	79.0405	287.109	78.9945	287.109	79.0081	287.109	78.8735	287.109	78.8952	287.109	78.6791	287.109	78.7053	287.109	78.4109	287.109	78.4491	287.109	78.0695	287.109	78.144	287.109	77.6616	287.109	77.8109	287.109	77.208	287.109	77.4704	287.109	76.7495	287.109	77.1401	287.109	76.3473	287.109	76.8355	287.109	76.0687	287.109	76.5699	287.109	75.9549	287.109	76.3534	287.109	75.9925	287.109	76.1921	287.109	76.1191	287.109	76.0896	287.109	76.2597	287.109	76.0473	287.109	76.3594	287.109	76.0618	287.109	76.3947	287.109	76.1213	287.109	76.368	287.109	76.2072	287.109	76.2974
297.363	78.7687	297.363	78.7963	297.363	78.6786	297.363	78.7586	297.363	78.5298	297.363	78.6549	297.363	78.3263	297.363	78.4875	297.363	78.0713	297.363	78.2606	297.363	77.7683	297.363	77.9793	297.363	77.4238	297.363	77.6487	297.363	77.0507	297.363	77.2763	297.363	76.6718	297.363	76.8788	297.363	76.3203	297.363	76.4918	297.363	76.0386	297.363	76.1741	297.363	75.8692	297.363	75.9932	297.363	75.8386	297.363	75.988	297.363	75.9418	297.363	76.1374	297.363	76.1412	297.363	76.3694	297.363	76.3803	297.363	76.5985	297.363	76.6015	297.363	76.7586	297.363	76.7569	297.363	76.8141
307.617	78.6603	307.617	78.5637	307.617	78.6772	307.617	78.3981	307.617	78.6103	307.617	78.1798	307.617	78.4632	307.617	77.9288	307.617	78.2478	307.617	77.6656	307.617	77.9836	307.617	77.4082	307.617	77.6945	307.617	77.1694	307.617	77.4041	307.617	76.9572	307.617	77.1299	307.617	76.7749	307.617	76.8791	307.617	76.6187	307.617	76.6498	307.617	76.4757	307.617	76.4369	307.617	76.3295	307.617	76.2402	307.617	76.1732	307.617	76.069	307.617	76.0207	307.617	75.9389	307.617	75.9005	307.617	75.8606	307.617	75.8334	307.617	75.8283	307.617	75.8138	307.617	75.8207	307.617	75.8165
319.336	77.4422	319.336	77.4088	319.336	77.3749	319.336	77.2816	319.336	77.2118	319.336	77.0776	319.336	76.9717	319.336	76.8237	319.336	76.6875	319.336	76.5578	319.336	76.4048	319.336	76.3277	319.336	76.177	319.336	76.1798	319.336	76.0538	319.336	76.1395	319.336	76.0617	319.336	76.1968	319.336	76.188	319.336	76.3136	319.336	76.3852	319.336	76.4452	319.336	76.5945	319.336	76.5584	319.336	76.7681	319.336	76.6354	319.336	76.8781	319.336	76.6719	319.336	76.9149	319.336	76.6744	319.336	76.8854	319.336	76.6596	319.336	76.8127	319.336	76.6515	319.336	76.7312	319.336	76.6726
329.59	78.3409	329.59	78.2567	329.59	78.2696	329.59	78.0238	329.59	78.035	329.59	77.6472	329.59	77.6329	329.59	77.1344	329.59	77.0693	329.59	76.5092	329.59	76.3708	329.59	75.8336	329.59	75.602	329.59	75.2315	329.59	74.8921	329.59	74.8776	329.59	74.4396	329.59	74.9092	329.59	74.4254	329.59	75.313	329.59	74.8575	329.59	75.9362	329.59	75.5591	329.59	76.6044	329.59	76.323	329.59	77.2015	329.59	77.0153	329.59	77.6763	329.59	77.5753	329.59	78.0215	329.59	77.9854	329.59	78.2513	329.59	78.2518	329.59	78.3844	329.59	78.3935	329.59	78.4325
341.309	79.537	341.309	79.4447	341.309	79.4704	341.309	79.1923	341.309	79.2489	341.309	78.7832	341.309	78.8772	341.309	78.2262	341.309	78.3589	341.309	77.5349	341.309	77.6983	341.309	76.7303	341.309	76.9082	341.309	75.8544	341.309	76.0275	341.309	74.9994	341.309	75.151	341.309	74.3332	341.309	74.4521	341.309	74.0539	341.309	74.1444	341.309	74.2469	341.309	74.3363	341.309	74.8022	341.309	74.9236	341.309	75.5176	341.309	75.6813	341.309	76.2268	341.309	76.4155	341.309	76.832	341.309	77.0142	341.309	77.2878	341.309	77.4313	341.309	77.5797	341.309	77.6586	341.309	77.7048
353.027	79.3923	353.027	79.3254	353.027	79.3518	353.027	79.1563	353.027	79.1907	353.027	78.8792	353.027	78.894	353.027	78.476	353.027	78.4482	353.027	77.9219	353.027	77.8426	353.027	77.1977	353.027	77.0721	353.027	76.3107	353.027	76.151	353.027	75.3275	353.027	75.1448	353.027	74.4118	353.027	74.2079	353.027	73.8168	353.027	73.57	353.027	73.7443	353.027	73.4104	353.027	74.1609	353.027	73.724	353.027	74.8461	353.027	74.359	353.027	75.585	353.027	75.135	353.027	76.2462	353.027	75.8976	353.027	76.7562	353.027	76.531	353.027	77.0656	353.027	76.9581	353.027	77.1389
366.211	79.5408	366.211	79.4615	366.211	79.5013	366.211	79.257	366.211	79.3446	366.211	78.9218	366.211	79.0647	366.211	78.4568	366.211	78.6515	366.211	77.8711	366.211	78.0981	366.211	77.1796	366.211	77.407	366.211	76.4017	366.211	76.5912	366.211	75.5729	366.211	75.6763	366.211	74.7803	366.211	74.7249	366.211	74.1977	366.211	73.8907	366.211	74.024	366.211	73.4348	366.211	74.2982	366.211	73.5467	366.211	74.8403	366.211	74.1095	366.211	75.4264	366.211	74.825	366.211	75.9228	366.211	75.4778	366.211	76.2778	366.211	75.9846	366.211	76.4706	366.211	76.3244	366.211	76.488
379.395	79.7194	379.395	79.6759	379.395	79.6859	379.395	79.5509	379.395	79.5736	379.395	79.3343	379.395	79.3744	379.395	79.0116	379.395	79.0734	379.395	78.5668	379.395	78.6513	379.395	77.9889	379.395	78.0905	379.395	77.2798	379.395	77.386	379.395	76.4627	379.395	76.5608	379.395	75.5916	379.395	75.685	379.395	74.7696	379.395	74.8874	379.395	74.1698	379.395	74.3341	379.395	73.9889	379.395	74.1548	379.395	74.2861	379.395	74.3643	379.395	74.8921	379.395	74.8524	379.395	75.5519	379.395	75.4457	379.395	76.0849	379.395	75.9815	379.395	76.4087	379.395	76.35	379.395	76.4978
392.578	79.3772	392.578	79.3423	392.578	79.317	392.578	79.2104	392.578	79.1627	392.578	78.9757	392.578	78.9136	392.578	78.6276	392.578	78.5629	392.578	78.1526	392.578	78.0936	392.578	77.5396	392.578	77.4831	392.578	76.7906	392.578	76.722	392.578	75.9419	392.578	75.8443	392.578	75.1017	392.578	74.958	392.578	74.4684	392.578	74.2506	392.578	74.2436	392.578	73.9251	392.578	74.4543	392.578	74.0673	392.578	74.9333	392.578	74.5727	392.578	75.488	392.578	75.2316	392.578	75.9998	392.578	75.8589	392.578	76.4071	392.578	76.3462	392.578	76.6689	392.578	76.6487	392.578	76.755
405.762	79.0953	405.762	79.0264	405.762	79.0821	405.762	78.8761	405.762	78.9771	405.762	78.6328	405.762	78.7674	405.762	78.2742	405.762	78.4409	405.762	77.7738	405.762	77.9849	405.762	77.1099	405.762	77.3806	405.762	76.2733	405.762	76.6042	405.762	75.2838	405.762	75.6494	405.762	74.2311	405.762	74.5868	405.762	73.3458	405.762	73.6454	405.762	72.9883	405.762	73.1809	405.762	73.3456	405.762	73.367	405.762	74.167	405.762	73.9949	405.762	75.0492	405.762	74.7436	405.762	75.7504	405.762	75.4152	405.762	76.2004	405.762	75.9296	405.762	76.4146	405.762	76.2668	405.762	76.4292
420.41	79.6722	420.41	79.5853	420.41	79.6534	420.41	79.3918	420.41	79.5273	420.41	79.0916	420.41	79.2855	420.41	78.6845	420.41	78.913	420.41	78.1649	420.41	78.3923	420.41	77.5191	420.41	77.7095	420.41	76.729	420.41	76.8593	420.41	75.7768	420.41	75.846	420.41	74.6569	420.41	74.688	420.41	73.4341	420.41	73.4604	420.41	72.3928	420.41	72.4105	420.41	72.0807	420.41	71.9974	420.41	72.7101	420.41	72.4487	420.41	73.7693	420.41	73.3868	420.41	74.725	420.41	74.3317	420.41	75.3778	420.41	75.0658	420.41	75.7132	420.41	75.5427	420.41	75.7607
435.059	79.3321	435.059	79.2955	435.059	79.2615	435.059	79.147	435.059	79.102	435.059	78.8942	435.059	78.8746	435.059	78.5438	435.059	78.588	435.059	78.0878	435.059	78.2285	435.059	77.4999	435.059	77.7616	435.059	76.7518	435.059	77.1466	435.059	75.8484	435.059	76.359	435.059	74.8716	435.059	75.4256	435.059	73.9988	435.059	74.4708	435.059	73.4428	435.059	73.7378	435.059	73.3351	435.059	73.4859	435.059	73.6684	435.059	73.776	435.059	74.3129	435.059	74.4235	435.059	75.0649	435.059	75.1702	435.059	75.7295	435.059	75.8123	435.059	76.1791	435.059	76.2254	435.059	76.3516
451.172	79.3764	451.172	79.3405	451.172	79.3334	451.172	79.2325	451.172	79.2072	451.172	79.0526	451.172	78.9978	451.172	78.7885	451.172	78.6984	451.172	78.4145	451.172	78.2799	451.172	77.8876	451.172	77.6905	451.172	77.1381	451.172	76.8771	451.172	76.0723	451.172	75.8109	451.172	74.6124	451.172	74.4963	451.172	72.8335	451.172	72.9836	451.172	71.2859	451.172	71.4952	451.172	71.0065	451.172	70.7242	451.172	72.0887	451.172	71.4143	451.172	73.5752	451.172	73.0315	451.172	74.881	451.172	74.6041	451.172	75.8383	451.172	75.7359	451.172	76.4119	451.172	76.3844	451.172	76.5973
465.82	79.4767	465.82	79.4672	465.82	79.4855	465.82	79.4465	465.82	79.4598	465.82	79.3696	465.82	79.3532	465.82	79.1936	465.82	79.146	465.82	78.9016	465.82	78.8495	465.82	78.4962	465.82	78.4643	465.82	77.9723	465.82	77.9413	465.82	77.2938	465.82	77.1962	465.82	76.3921	465.82	76.1728	465.82	75.2003	465.82	74.9108	465.82	73.7539	465.82	73.5862	465.82	72.4109	465.82	72.5002	465.82	71.9171	465.82	71.9978	465.82	72.5307	465.82	72.261	465.82	73.5863	465.82	73.0837	465.82	74.4898	465.82	74.029	465.82	75.0176	465.82	74.759	465.82	75.1079
483.398	79.5542	483.398	79.475	483.398	79.5416	483.398	79.3258	483.398	79.4225	483.398	79.1201	483.398	79.1919	483.398	78.8489	483.398	78.8537	483.398	78.4862	483.398	78.4241	483.398	78.0083	483.398	77.9318	483.398	77.4033	483.398	77.3928	483.398	76.6579	483.398	76.7687	483.398	75.7443	483.398	75.9698	483.398	74.6565	483.398	74.9486	483.398	73.5162	483.398	73.8562	483.398	72.6797	483.398	73.1134	483.398	72.5658	483.398	73.0686	483.398	73.1471	483.398	73.5563	483.398	73.9814	483.398	74.1932	483.398	74.7062	483.398	74.7572	483.398	75.1626	483.398	75.1518	483.398	75.3056
499.512	79.7346	499.512	79.6726	499.512	79.6624	499.512	79.4858	499.512	79.5	499.512	79.2329	499.512	79.2998	499.512	78.9627	499.512	79.0676	499.512	78.6558	499.512	78.7495	499.512	78.237	499.512	78.275	499.512	77.6496	499.512	77.6093	499.512	76.9123	499.512	76.7717	499.512	76.0988	499.512	75.8175	499.512	75.2499	499.512	74.807	499.512	74.3457	499.512	73.8097	499.512	73.4696	499.512	72.9791	499.512	72.9938	499.512	72.6096	499.512	73.2543	499.512	72.8959	499.512	73.9906	499.512	73.6114	499.512	74.6967	499.512	74.3567	499.512	75.1043	499.512	74.9	499.512	75.1623
517.09	80.0559	517.09	80.0978	517.09	79.9456	517.09	80.0385	517.09	79.7806	517.09	79.8421	517.09	79.5581	517.09	79.493	517.09	79.2722	517.09	79.0069	517.09	78.9176	517.09	78.4039	517.09	78.472	517.09	77.6672	517.09	77.8796	517.09	76.7476	517.09	77.0654	517.09	75.634	517.09	75.9882	517.09	74.4432	517.09	74.7221	517.09	73.4541	517.09	73.5351	517.09	72.9809	517.09	72.8549	517.09	73.1521	517.09	72.9798	517.09	73.8487	517.09	73.7644	517.09	74.7757	517.09	74.768	517.09	75.6053	517.09	75.62	517.09	76.1385	517.09	76.1493	517.09	76.3206
536.133	79.7119	536.133	79.5747	536.133	79.756	536.133	79.3857	536.133	79.6605	536.133	79.1533	536.133	79.4069	536.133	78.8618	536.133	79.0147	536.133	78.5069	536.133	78.5192	536.133	78.096	536.133	77.9339	536.133	77.5884	536.133	77.2365	536.133	76.8589	536.133	76.3934	536.133	75.7812	536.133	75.3783	536.133	74.3905	536.133	74.1683	536.133	73.0452	536.133	72.8625	536.133	72.3581	536.133	72.0115	536.133	72.582	536.133	72.293	536.133	73.3655	536.133	73.3254	536.133	74.3256	536.133	74.3802	536.133	75.2328	536.133	75.2371	536.133	75.8815	536.133	75.8516	536.133	76.1011
555.176	80.3022	555.176	80.1872	555.176	80.3258	555.176	80.0061	555.176	80.249	555.176	79.7949	555.176	80.0735	555.176	79.5531	555.176	79.8041	555.176	79.2052	555.176	79.4321	555.176	78.6572	555.176	78.923	555.176	77.8844	555.176	78.2226	555.176	76.9069	555.176	77.2674	555.176	75.6712	555.176	76.004	555.176	74.0706	555.176	74.4439	555.176	72.2317	555.176	72.7396	555.176	70.9414	555.176	71.2259	555.176	71.2312	555.176	70.546	555.176	72.6765	555.176	71.413	555.176	74.1631	555.176	73.2115	555.176	75.1824	555.176	74.7362	555.176	75.6991	555.176	75.5708	555.176	75.8302
574.219	80.4201	574.219	80.4319	574.219	80.3196	574.219	80.3171	574.219	80.1743	574.219	80.0713	574.219	79.999	574.219	79.7248	574.219	79.7731	574.219	79.3063	574.219	79.4764	574.219	78.8143	574.219	79.108	574.219	78.2412	574.219	78.6402	574.219	77.5836	574.219	77.9794	574.219	76.7622	574.219	77.0166	574.219	75.5718	574.219	75.704	574.219	73.8767	574.219	74.094	574.219	72.1484	574.219	72.5143	574.219	71.6383	574.219	71.8751	574.219	72.5455	574.219	72.6231	574.219	73.9449	574.219	73.8658	574.219	75.2556	574.219	74.9785	574.219	76.1037	574.219	75.8334	574.219	76.279
594.727	80.6664	594.727	80.5859	594.727	80.6076	594.727	80.359	594.727	80.4398	594.727	80.0247	594.727	80.1996	594.727	79.6684	594.727	79.9062	594.727	79.3611	594.727	79.5403	594.727	79.0499	594.727	79.0711	594.727	78.5381	594.727	78.4997	594.727	77.6602	594.727	77.8175	594.727	76.4668	594.727	76.8947	594.727	75.1592	594.727	75.5096	594.727	73.8143	594.727	73.6128	594.727	72.4985	594.727	71.8147	594.727	71.9407	594.727	71.4108	594.727	72.8376	594.727	72.4702	594.727	74.2502	594.727	73.9185	594.727	75.3316	594.727	75.1693	594.727	75.995	594.727	75.9827	594.727	76.2456
615.234	80.611	615.234	80.5067	615.234	80.6193	615.234	80.3468	615.234	80.4864	615.234	80.1182	615.234	80.2323	615.234	79.7737	615.234	79.9337	615.234	79.2851	615.234	79.6309	615.234	78.6949	615.234	79.264	615.234	78.082	615.234	78.7253	615.234	77.4024	615.234	77.9478	615.234	76.423	615.234	76.903	615.234	74.8739	615.234	75.5461	615.234	72.6665	615.234	73.8595	615.234	70.3954	615.234	72.1119	615.234	69.9048	615.234	71.1775	615.234	71.4551	615.234	71.7626	615.234	73.345	615.234	73.1968	615.234	74.8117	615.234	74.5659	615.234	75.6556	615.234	75.4826	615.234	75.8595
637.207	80.8958	637.207	80.8448	637.207	80.8593	637.207	80.7018	637.207	80.7479	637.207	80.4783	637.207	80.5599	637.207	80.1779	637.207	80.2879	637.207	79.7936	637.207	79.9194	637.207	79.31	637.207	79.4407	637.207	78.6926	637.207	78.8647	637.207	77.9042	637.207	78.2054	637.207	76.9089	637.207	77.3815	637.207	75.5835	637.207	76.1625	637.207	73.6835	637.207	74.2421	637.207	71.3362	637.207	71.6137	637.207	70.3982	637.207	69.9054	637.207	71.9514	637.207	71.1537	637.207	73.8649	637.207	73.2583	637.207	75.2877	637.207	74.8709	637.207	76.1292	637.207	75.8931	637.207	76.3288
659.18	81.015	659.18	80.9444	659.18	80.9278	659.18	80.7298	659.18	80.6861	659.18	80.3955	659.18	80.342	659.18	80.0006	659.18	79.9845	659.18	79.6041	659.18	79.6775	659.18	79.1862	659.18	79.3969	659.18	78.6611	659.18	79.0149	659.18	77.91	659.18	78.3548	659.18	76.7966	659.18	77.3	659.18	75.2944	659.18	75.8869	659.18	73.5444	659.18	74.2198	659.18	71.6481	659.18	72.2553	659.18	70.1635	659.18	70.169	659.18	70.8629	659.18	69.8438	659.18	72.9394	659.18	72.14	659.18	74.5761	659.18	74.4179	659.18	75.5476	659.18	75.6578	659.18	75.9495
682.617	81.3156	682.617	81.2392	682.617	81.1899	682.617	80.9412	682.617	80.9348	682.617	80.4987	682.617	80.6141	682.617	80.0515	682.617	80.2483	682.617	79.7053	682.617	79.8208	682.617	79.4375	682.617	79.328	682.617	79.078	682.617	78.8291	682.617	78.4714	682.617	78.329	682.617	77.6028	682.617	77.6213	682.617	76.4062	682.617	76.4024	682.617	74.5852	682.617	74.4701	682.617	71.8673	682.617	71.7855	682.617	69.2031	682.617	69.2086	682.617	69.9668	682.617	69.7345	682.617	72.5885	682.617	72.1964	682.617	74.4964	682.617	74.125	682.617	75.505	682.617	75.2898	682.617	75.7527
707.52	81.6426	707.52	81.5728	707.52	81.5368	707.52	81.3188	707.52	81.3213	707.52	80.9493	707.52	81	707.52	80.4998	707.52	80.5391	707.52	79.9592	707.52	80.018	707.52	79.4145	707.52	79.5898	707.52	79.0106	707.52	79.2755	707.52	78.6486	707.52	78.9305	707.52	77.9726	707.52	78.3721	707.52	76.6986	707.52	77.3744	707.52	74.7868	707.52	75.5559	707.52	72.3279	707.52	72.444	707.52	69.5848	707.52	68.5305	707.52	68.9767	707.52	68.829	707.52	71.641	707.52	72.061	707.52	73.9344	707.52	74.2516	707.52	75.1566	707.52	75.3269	707.52	75.5887
732.422	81.3482	732.422	81.2863	732.422	81.3321	732.422	81.1479	732.422	81.0721	732.422	80.7525	732.422	80.5829	732.422	80.1239	732.422	80.0549	732.422	79.5332	732.422	79.583	732.422	79.1058	732.422	79.1446	732.422	78.7013	732.422	78.7474	732.422	78.2047	732.422	78.3606	732.422	77.6136	732.422	77.7925	732.422	76.7451	732.422	76.7836	732.422	75.0536	732.422	75.1893	732.422	72.0802	732.422	73.0694	732.422	68.8562	732.422	70.65	732.422	68.5899	732.422	69.1263	732.422	70.9008	732.422	70.5365	732.422	73.581	732.422	72.9012	732.422	75.31	732.422	74.7069	732.422	75.632
757.324	81.8517	757.324	81.6894	757.324	81.6823	757.324	81.1472	757.324	81.2701	757.324	80.4331	757.324	80.6186	757.324	79.8656	757.324	79.8552	757.324	79.4781	757.324	79.2862	757.324	79.1086	757.324	78.9659	757.324	78.7609	757.324	78.6449	757.324	78.4011	757.324	78.221	757.324	77.7854	757.324	77.7465	757.324	76.7562	757.324	77.091	757.324	75.3562	757.324	75.8013	757.324	73.3277	757.324	73.2615	757.324	69.9182	757.324	69.6406	757.324	68.04	757.324	68.8756	757.324	71.0723	757.324	71.2238	757.324	73.4795	757.324	73.0916	757.324	74.6134	757.324	74.2142	757.324	74.7717
785.156	81.6615	785.156	81.6171	785.156	81.5748	785.156	81.3765	785.156	81.2743	785.156	80.804	785.156	80.6813	785.156	79.9373	785.156	79.8415	785.156	79.0621	785.156	78.8882	785.156	78.4368	785.156	78.1178	785.156	78.1305	785.156	77.9065	785.156	78.0818	785.156	78.0261	785.156	77.8767	785.156	77.8034	785.156	76.8964	785.156	76.8883	785.156	74.7636	785.156	75.4183	785.156	71.5158	785.156	73.3965	785.156	67.356	785.156	69.721	785.156	64.6507	785.156	65.0971	785.156	68.6139	785.156	69.7613	785.156	72.0287	785.156	73.2389	785.156	73.697	785.156	74.3412	785.156	74.3484
811.523	82.0995	811.523	81.8636	811.523	82.1063	811.523	81.4557	811.523	81.8267	811.523	80.8691	811.523	81.2595	811.523	80.1091	811.523	80.4615	811.523	79.3042	811.523	79.5899	811.523	78.6555	811.523	78.8655	811.523	78.1704	811.523	78.346	811.523	77.7357	811.523	77.8657	811.523	77.3219	811.523	77.3535	811.523	76.7791	811.523	76.7481	811.523	75.8061	811.523	75.4904	811.523	74.0254	811.523	72.9802	811.523	71.2277	811.523	69.1776	811.523	68.5745	811.523	65.7387	811.523	69.8376	811.523	68.0093	811.523	72.4869	811.523	71.8127	811.523	73.904	811.523	73.8901	811.523	74.4049
840.82	81.7312	840.82	81.6298	840.82	81.7212	840.82	81.3698	840.82	81.3761	840.82	80.7184	840.82	80.6196	840.82	79.7263	840.82	79.7162	840.82	78.7257	840.82	78.8811	840.82	77.9759	840.82	78.0642	840.82	77.6839	840.82	77.5467	840.82	77.8511	840.82	77.6014	840.82	78.027	840.82	77.546	840.82	77.5605	840.82	76.9137	840.82	76.1898	840.82	75.8844	840.82	74.013	840.82	74.0852	840.82	70.3935	840.82	70.7675	840.82	65.8962	840.82	67.8478	840.82	67.6644	840.82	68.724	840.82	70.5292	840.82	70.8273	840.82	72.5802	840.82	72.8262	840.82	73.5239
870.117	82.5918	870.117	82.5177	870.117	82.3136	870.117	82.0045	870.117	81.8273	870.117	81.1212	870.117	81.1538	870.117	80.0441	870.117	80.1636	870.117	78.8963	870.117	78.8711	870.117	77.8027	870.117	77.7593	870.117	77.2209	870.117	77.242	870.117	77.0331	870.117	77.0684	870.117	76.5988	870.117	77.0729	870.117	76.1333	870.117	77.0512	870.117	75.5632	870.117	76.5066	870.117	73.8592	870.117	75.0598	870.117	70.6122	870.117	72.1838	870.117	67.6278	870.117	68.7268	870.117	69.4391	870.117	70.8039	870.117	72.6282	870.117	73.0455	870.117	74.3616	870.117	73.9588	870.117	74.5931
900.879	83.7087	900.879	83.5021	900.879	83.6528	900.879	83.0265	900.879	83.2186	900.879	82.1996	900.879	82.4233	900.879	81.1603	900.879	81.4137	900.879	80.0191	900.879	80.2779	900.879	78.4885	900.879	79.0655	900.879	76.8277	900.879	77.9812	900.879	76.6364	900.879	77.3912	900.879	77.389	900.879	77.3937	900.879	77.1178	900.879	77.2283	900.879	75.8294	900.879	76.0711	900.879	73.8408	900.879	73.7206	900.879	70.2051	900.879	70.4581	900.879	63.618	900.879	67.3577	900.879	67.5783	900.879	68.3062	900.879	72.7477	900.879	72.6729	900.879	74.9465	900.879	75.1601	900.879	75.6684
933.105	83.9901	933.105	83.697	933.105	83.9305	933.105	83.203	933.105	83.5279	933.105	82.6622	933.105	82.8174	933.105	81.8883	933.105	81.9405	933.105	80.5601	933.105	81.0957	933.105	79.2402	933.105	80.0165	933.105	78.6908	933.105	78.8167	933.105	78.1609	933.105	78.3776	933.105	77.9895	933.105	78.2315	933.105	78.0657	933.105	78.0288	933.105	76.7919	933.105	77.6441	933.105	74.1926	933.105	75.7728	933.105	70.9772	933.105	71.0459	933.105	66.9778	933.105	64.1782	933.105	69.1574	933.105	67.6402	933.105	72.8652	933.105	71.7473	933.105	74.3216	933.105	73.8425	933.105	74.4743
965.332	84.7747	965.332	84.6387	965.332	84.5845	965.332	84.1874	965.332	84.1188	965.332	83.3097	965.332	83.5237	965.332	82.1526	965.332	82.5334	965.332	81.0441	965.332	80.7974	965.332	79.5856	965.332	78.8559	965.332	77.8606	965.332	77.6172	965.332	77.4113	965.332	77.2898	965.332	77.9774	965.332	77.7756	965.332	77.7209	965.332	78.3414	965.332	75.8951	965.332	77.8404	965.332	73.2702	965.332	76.1729	965.332	70.5444	965.332	72.8474	965.332	64.2898	965.332	64.6252	965.332	65.8575	965.332	68.8187	965.332	73.1283	965.332	74.0516	965.332	75.9893	965.332	75.8799	965.332	76.4851
1,000.49	84.4156	1,000.49	84.3088	1,000.49	84.2842	1,000.49	84.0048	1,000.49	83.981	1,000.49	83.588	1,000.49	83.4351	1,000.49	82.8156	1,000.49	82.6125	1,000.49	81.5558	1,000.49	81.6679	1,000.49	80.3132	1,000.49	80.5097	1,000.49	79.0244	1,000.49	79.045	1,000.49	77.8449	1,000.49	77.8867	1,000.49	77.9168	1,000.49	77.4483	1,000.49	78.6853	1,000.49	77.1603	1,000.49	78.445	1,000.49	76.7972	1,000.49	76.3769	1,000.49	75.789	1,000.49	73.2053	1,000.49	72.7816	1,000.49	68.694	1,000.49	67.5896	1,000.49	64.7818	1,000.49	64.9223	1,000.49	71.9436	1,000.49	71.0958	1,000.49	75.1437	1,000.49	74.8997	1,000.49	76.0311
1,035.64	83.9866	1,035.64	83.8715	1,035.64	83.9637	1,035.64	83.7347	1,035.64	83.5938	1,035.64	83.2387	1,035.64	83.0633	1,035.64	82.3126	1,035.64	82.2778	1,035.64	81.0041	1,035.64	80.9475	1,035.64	79.3113	1,035.64	78.9765	1,035.64	77.7669	1,035.64	76.6466	1,035.64	76.8866	1,035.64	75.3929	1,035.64	77.1376	1,035.64	75.3821	1,035.64	78.0541	1,035.64	76.6101	1,035.64	78.0284	1,035.64	77.937	1,035.64	77.0077	1,035.64	77.6438	1,035.64	74.7669	1,035.64	74.7731	1,035.64	68.6682	1,035.64	69.047	1,035.64	58.9174	1,035.64	62.4623	1,035.64	69.0983	1,035.64	68.8028	1,035.64	72.9728	1,035.64	73.4502	1,035.64	74.2617
1,072.27	84.2491	1,072.27	84.1625	1,072.27	84.0242	1,072.27	83.6659	1,072.27	83.7989	1,072.27	83.0854	1,072.27	83.4075	1,072.27	82.2391	1,072.27	82.697	1,072.27	81.0589	1,072.27	81.7567	1,072.27	79.4874	1,072.27	80.7922	1,072.27	77.468	1,072.27	79.43	1,072.27	76.22	1,072.27	77.067	1,072.27	75.8443	1,072.27	74.9658	1,072.27	76.5053	1,072.27	75.734	1,072.27	77.218	1,072.27	76.7682	1,072.27	75.8616	1,072.27	76.5254	1,072.27	73.9116	1,072.27	74.9318	1,072.27	71.6443	1,072.27	70.5475	1,072.27	66.0571	1,072.27	63.0664	1,072.27	69.1197	1,072.27	68.4431	1,072.27	73.242	1,072.27	71.8777	1,072.27	73.9646
1,108.89	84.1212	1,108.89	83.9781	1,108.89	84.0928	1,108.89	83.8451	1,108.89	83.708	1,108.89	83.2657	1,108.89	83.1928	1,108.89	82.4076	1,108.89	82.4101	1,108.89	81.3092	1,108.89	81.2097	1,108.89	79.7251	1,108.89	79.7192	1,108.89	78.3425	1,108.89	78.153	1,108.89	76.7273	1,108.89	77.3132	1,108.89	75.3343	1,108.89	76.4396	1,108.89	75.3518	1,108.89	75.0298	1,108.89	75.6332	1,108.89	74.6683	1,108.89	75.1484	1,108.89	74.3945	1,108.89	72.5311	1,108.89	73.1785	1,108.89	67.8013	1,108.89	69.5431	1,108.89	60.4418	1,108.89	62.8983	1,108.89	68.5334	1,108.89	68.0816	1,108.89	72.8584	1,108.89	72.8909	1,108.89	73.9378
1,148.44	84.6447	1,148.44	84.5079	1,148.44	84.4275	1,148.44	83.82	1,148.44	84.1843	1,148.44	83.1359	1,148.44	83.5712	1,148.44	82.2355	1,148.44	82.6566	1,148.44	80.8926	1,148.44	81.6684	1,148.44	79.3701	1,148.44	80.3309	1,148.44	77.1285	1,148.44	78.7593	1,148.44	75.0126	1,148.44	76.4434	1,148.44	73.9036	1,148.44	74.872	1,148.44	75.057	1,148.44	75.2616	1,148.44	76.5572	1,148.44	75.717	1,148.44	75.8374	1,148.44	75.7562	1,148.44	74.6352	1,148.44	74.6325	1,148.44	71.037	1,148.44	72.0597	1,148.44	65.0494	1,148.44	66.3336	1,148.44	68.3423	1,148.44	67.4094	1,148.44	71.6856	1,148.44	71.4477	1,148.44	73.3623
1,189.45	84.8946	1,189.45	84.6355	1,189.45	84.9076	1,189.45	84.3935	1,189.45	84.334	1,189.45	83.7106	1,189.45	83.5095	1,189.45	82.5631	1,189.45	82.8163	1,189.45	81.3957	1,189.45	81.933	1,189.45	80.1111	1,189.45	80.5966	1,189.45	77.8088	1,189.45	79.272	1,189.45	75.3229	1,189.45	77.6894	1,189.45	75.0068	1,189.45	75.928	1,189.45	75.5824	1,189.45	75.6326	1,189.45	76.4585	1,189.45	76.2804	1,189.45	75.796	1,189.45	75.8076	1,189.45	73.0347	1,189.45	74.993	1,189.45	69.3714	1,189.45	72.3736	1,189.45	62.0631	1,189.45	67.4163	1,189.45	68.8401	1,189.45	67.5667	1,189.45	73.3624	1,189.45	72.6367	1,189.45	74.114
1,230.47	85.6286	1,230.47	85.3091	1,230.47	85.3951	1,230.47	84.4939	1,230.47	85.0649	1,230.47	83.8806	1,230.47	84.4904	1,230.47	83.1257	1,230.47	83.6044	1,230.47	81.9388	1,230.47	82.3699	1,230.47	80.7855	1,230.47	80.7048	1,230.47	79.547	1,230.47	79.1033	1,230.47	76.9426	1,230.47	77.3055	1,230.47	74.4503	1,230.47	75.2795	1,230.47	74.8178	1,230.47	75.1825	1,230.47	75.8746	1,230.47	75.4456	1,230.47	76.8289	1,230.47	75.4668	1,230.47	75.626	1,230.47	73.2793	1,230.47	71.0202	1,230.47	70.3049	1,230.47	64.8755	1,230.47	67.6127	1,230.47	69.0962	1,230.47	69.5183	1,230.47	73.2512	1,230.47	73.6273	1,230.47	74.8976
1,274.41	85.1077	1,274.41	85.1616	1,274.41	84.8538	1,274.41	84.652	1,274.41	84.3866	1,274.41	83.671	1,274.41	83.606	1,274.41	83.2324	1,274.41	82.4908	1,274.41	82.5523	1,274.41	81.7359	1,274.41	80.8601	1,274.41	80.6466	1,274.41	78.5577	1,274.41	78.8586	1,274.41	76.0295	1,274.41	77.7059	1,274.41	74.9808	1,274.41	76.1525	1,274.41	73.5515	1,274.41	75.0542	1,274.41	73.9818	1,274.41	74.4572	1,274.41	75.3923	1,274.41	74.8236	1,274.41	73.8196	1,274.41	74.5435	1,274.41	67.184	1,274.41	70.9907	1,274.41	56.5697	1,274.41	61.1238	1,274.41	67.1427	1,274.41	67.619	1,274.41	73.7097	1,274.41	72.5647	1,274.41	74.1214
1,319.82	84.9385	1,319.82	84.4914	1,319.82	84.9409	1,319.82	83.8186	1,319.82	84.3785	1,319.82	82.9168	1,319.82	83.4699	1,319.82	82.087	1,319.82	82.3106	1,319.82	81.4703	1,319.82	81.1235	1,319.82	80.1374	1,319.82	79.689	1,319.82	78.0691	1,319.82	77.7579	1,319.82	76.6055	1,319.82	76.0331	1,319.82	74.3097	1,319.82	75.2661	1,319.82	72.0982	1,319.82	73.6715	1,319.82	72.1883	1,319.82	74.681	1,319.82	74.4483	1,319.82	74.6283	1,319.82	74.4912	1,319.82	73.5415	1,319.82	71.204	1,319.82	69.9524	1,319.82	62.0873	1,319.82	59.7826	1,319.82	68.6223	1,319.82	64.5685	1,319.82	72.9296	1,319.82	70.6607	1,319.82	73.3839
1,366.7	84.6163	1,366.7	84.4372	1,366.7	84.4512	1,366.7	83.7849	1,366.7	84.0158	1,366.7	82.9543	1,366.7	83.0092	1,366.7	81.6646	1,366.7	82.0147	1,366.7	80.3482	1,366.7	80.7162	1,366.7	79.1527	1,366.7	78.6927	1,366.7	77.4866	1,366.7	76.4585	1,366.7	75.3117	1,366.7	74.9312	1,366.7	72.8964	1,366.7	74.6138	1,366.7	71.131	1,366.7	73.8947	1,366.7	71.5002	1,366.7	73.1145	1,366.7	74.1589	1,366.7	73.6461	1,366.7	73.6085	1,366.7	74.0018	1,366.7	69.6791	1,366.7	71.265	1,366.7	49.6841	1,366.7	63.8113	1,366.7	64.2511	1,366.7	61.9547	1,366.7	69.429	1,366.7	69.9459	1,366.7	70.9376
1,413.57	84.5155	1,413.57	84.245	1,413.57	84.5006	1,413.57	83.219	1,413.57	84.0508	1,413.57	82.0282	1,413.57	83.0833	1,413.57	80.8956	1,413.57	81.8996	1,413.57	79.2532	1,413.57	80.4838	1,413.57	77.9826	1,413.57	79.2352	1,413.57	77.2691	1,413.57	77.7125	1,413.57	76.0194	1,413.57	75.4984	1,413.57	74.5771	1,413.57	74.0139	1,413.57	72.2839	1,413.57	72.3779	1,413.57	72.2264	1,413.57	72.2979	1,413.57	72.1007	1,413.57	73.1044	1,413.57	72.6167	1,413.57	73.1622	1,413.57	68.4322	1,413.57	70.9658	1,413.57	62.4473	1,413.57	63.565	1,413.57	62.3057	1,413.57	61.9392	1,413.57	65.9496	1,413.57	70.084	1,413.57	70.7132
1,463.38	84.1178	1,463.38	83.8394	1,463.38	83.9238	1,463.38	83.1709	1,463.38	83.1863	1,463.38	82.0175	1,463.38	82.5234	1,463.38	80.4432	1,463.38	81.5837	1,463.38	79.0121	1,463.38	80.0731	1,463.38	77.3896	1,463.38	79.0534	1,463.38	76.6159	1,463.38	77.6013	1,463.38	76.4367	1,463.38	76.4346	1,463.38	74.2173	1,463.38	73.8963	1,463.38	73.0957	1,463.38	72.9788	1,463.38	71.5911	1,463.38	73.4757	1,463.38	72.6335	1,463.38	73.2031	1,463.38	73.0922	1,463.38	70.387	1,463.38	70.1396	1,463.38	71.3072	1,463.38	62.2251	1,463.38	65.7634	1,463.38	55.9108	1,463.38	52.5942	1,463.38	67.634	1,463.38	68.1029	1,463.38	69.0032
1,516.11	83.9441	1,516.11	83.9963	1,516.11	83.4156	1,516.11	82.5352	1,516.11	83.0138	1,516.11	81.5385	1,516.11	82.3253	1,516.11	80.2718	1,516.11	80.87	1,516.11	78.6584	1,516.11	79.2326	1,516.11	77.2541	1,516.11	77.8258	1,516.11	75.877	1,516.11	76.7053	1,516.11	75.3541	1,516.11	75.3611	1,516.11	73.5744	1,516.11	72.1574	1,516.11	71.8794	1,516.11	71.211	1,516.11	70.0368	1,516.11	71.9243	1,516.11	72.6615	1,516.11	74.2497	1,516.11	73.561	1,516.11	74.7042	1,516.11	72.2903	1,516.11	72.1551	1,516.11	65.001	1,516.11	70.4012	1,516.11	56.9398	1,516.11	55.0694	1,516.11	67.468	1,516.11	63.8767	1,516.11	69.5599
1,568.85	83.7519	1,568.85	83.515	1,568.85	83.7414	1,568.85	83.0386	1,568.85	83.012	1,568.85	81.7805	1,568.85	81.6731	1,568.85	80.2429	1,568.85	80.6124	1,568.85	77.7552	1,568.85	79.2334	1,568.85	76.0451	1,568.85	78.414	1,568.85	76.1295	1,568.85	77.5539	1,568.85	73.3837	1,568.85	75.8335	1,568.85	72.4275	1,568.85	73.3156	1,568.85	70.5871	1,568.85	69.4486	1,568.85	69.8817	1,568.85	69.4056	1,568.85	71.3827	1,568.85	71.1514	1,568.85	73.3625	1,568.85	72.3789	1,568.85	73.0883	1,568.85	71.9359	1,568.85	67.1262	1,568.85	65.0369	1,568.85	53.0128	1,568.85	56.2552	1,568.85	66.208	1,568.85	67.8004	1,568.85	69.321
1,624.51	83.5992	1,624.51	82.9932	1,624.51	83.2022	1,624.51	82.4131	1,624.51	82.7098	1,624.51	81.2862	1,624.51	82.1251	1,624.51	79.9566	1,624.51	80.4474	1,624.51	78.8089	1,624.51	78.8645	1,624.51	76.4146	1,624.51	77.6126	1,624.51	74.841	1,624.51	75.7189	1,624.51	74.6671	1,624.51	75.6056	1,624.51	72.8458	1,624.51	72.9291	1,624.51	70.504	1,624.51	70.8108	1,624.51	69.9823	1,624.51	67.4283	1,624.51	71.1855	1,624.51	69.9988	1,624.51	71.4795	1,624.51	73.7076	1,624.51	73.4193	1,624.51	71.9714	1,624.51	69.0252	1,624.51	67.7417	1,624.51	56.8889	1,624.51	61.2863	1,624.51	64.8281	1,624.51	68.7964	1,624.51	70.5485
1,681.64	83.0837	1,681.64	82.8299	1,681.64	82.6205	1,681.64	81.9786	1,681.64	82.177	1,681.64	80.2866	1,681.64	81.4288	1,681.64	78.406	1,681.64	79.786	1,681.64	77.4753	1,681.64	79.0182	1,681.64	75.0345	1,681.64	76.848	1,681.64	73.5408	1,681.64	74.4052	1,681.64	72.8713	1,681.64	73.1935	1,681.64	74.1654	1,681.64	72.3233	1,681.64	73.3912	1,681.64	73.3871	1,681.64	67.825	1,681.64	69.4476	1,681.64	68.057	1,681.64	68.2959	1,681.64	70.2376	1,681.64	70.9962	1,681.64	73.4492	1,681.64	71.3864	1,681.64	71.4305	1,681.64	67.5412	1,681.64	38.4054	1,681.64	58.35	1,681.64	60.3413	1,681.64	60.8459	1,681.64	66.6908
1,741.7	83.2051	1,741.7	82.6381	1,741.7	83.3919	1,741.7	81.8143	1,741.7	82.6524	1,741.7	80.8396	1,741.7	81.4597	1,741.7	79.831	1,741.7	80.0487	1,741.7	78.3709	1,741.7	78.1671	1,741.7	75.8448	1,741.7	77.4958	1,741.7	75.6732	1,741.7	77.1958	1,741.7	72.4802	1,741.7	75.6525	1,741.7	73.783	1,741.7	72.9266	1,741.7	71.4853	1,741.7	69.6774	1,741.7	69.9353	1,741.7	69.2461	1,741.7	69.6672	1,741.7	66.3607	1,741.7	70.6651	1,741.7	70.7769	1,741.7	70.6903	1,741.7	72.1791	1,741.7	68.4269	1,741.7	68.7405	1,741.7	57.5714	1,741.7	62.6139	1,741.7	61.6871	1,741.7	63.2596	1,741.7	67.4733
1,803.22	84.6678	1,803.22	83.4941	1,803.22	83.793	1,803.22	82.9459	1,803.22	83.6595	1,803.22	82.0844	1,803.22	82.1776	1,803.22	80.7011	1,803.22	82.1322	1,803.22	79.3615	1,803.22	80.6545	1,803.22	79.2274	1,803.22	79.3652	1,803.22	77.2649	1,803.22	77.4624	1,803.22	75.056	1,803.22	75.8319	1,803.22	75.0023	1,803.22	75.0132	1,803.22	73.097	1,803.22	73.5046	1,803.22	69.7497	1,803.22	70.1598	1,803.22	68.0386	1,803.22	72.5649	1,803.22	72.923	1,803.22	72.0556	1,803.22	74.0816	1,803.22	73.761	1,803.22	71.9402	1,803.22	72.1046	1,803.22	66.2577	1,803.22	60.1749	1,803.22	65.9599	1,803.22	58.87	1,803.22	56.0752
1,866.21	84.8375	1,866.21	83.9986	1,866.21	84.0842	1,866.21	83.4644	1,866.21	83.3003	1,866.21	82.145	1,866.21	82.0648	1,866.21	80.7144	1,866.21	81.3465	1,866.21	79.1534	1,866.21	79.5514	1,866.21	77.9415	1,866.21	78.3523	1,866.21	77.2343	1,866.21	76.8027	1,866.21	76.1771	1,866.21	76.7555	1,866.21	74.9684	1,866.21	75.3593	1,866.21	74.5702	1,866.21	73.5614	1,866.21	70.9792	1,866.21	71.0883	1,866.21	68.7027	1,866.21	68.4689	1,866.21	70.7838	1,866.21	72.0743	1,866.21	72.68	1,866.21	71.6763	1,866.21	68.8386	1,866.21	72.2621	1,866.21	68.2631	1,866.21	62.5328	1,866.21	66.8011	1,866.21	60.9561	1,866.21	68.6973
1,932.13	83.952	1,932.13	83.4112	1,932.13	83.6545	1,932.13	82.9183	1,932.13	83.0184	1,932.13	82.0021	1,932.13	81.6307	1,932.13	80.3862	1,932.13	80.2688	1,932.13	78.9059	1,932.13	78.6574	1,932.13	77.5227	1,932.13	77.6628	1,932.13	76.0043	1,932.13	75.5073	1,932.13	76.5047	1,932.13	75.1625	1,932.13	74.6673	1,932.13	73.1351	1,932.13	73.008	1,932.13	71.5	1,932.13	70.1456	1,932.13	70.077	1,932.13	68.2073	1,932.13	66.7109	1,932.13	71.3509	1,932.13	69.084	1,932.13	71.7776	1,932.13	70.8404	1,932.13	71.2644	1,932.13	71.6017	1,932.13	62.7528	1,932.13	64.1348	1,932.13	61.9295	1,932.13	40.6112	1,932.13	67.5952
1,999.51	83.8521	1,999.51	83.5857	1,999.51	83.7312	1,999.51	82.8571	1,999.51	83.1838	1,999.51	81.8537	1,999.51	82.0703	1,999.51	80.388	1,999.51	80.9959	1,999.51	78.3691	1,999.51	79.0648	1,999.51	77.1165	1,999.51	77.877	1,999.51	75.0687	1,999.51	75.5006	1,999.51	74.3285	1,999.51	74.7553	1,999.51	73.8132	1,999.51	73.7268	1,999.51	71.6634	1,999.51	72.2292	1,999.51	70.425	1,999.51	70.8607	1,999.51	67.9108	1,999.51	69.4466	1,999.51	68.7073	1,999.51	68.4262	1,999.51	70.9953	1,999.51	72.0711	1,999.51	69.6388	1,999.51	71.7029	1,999.51	63.3962	1,999.51	66.3669	1,999.51	63.0279	1,999.51	59.88	1,999.51	65.1182
2,069.82	84.8053	2,069.82	84.4095	2,069.82	84.6702	2,069.82	83.6422	2,069.82	84.0318	2,069.82	82.7991	2,069.82	83.1768	2,069.82	81.9344	2,069.82	81.8928	2,069.82	80.2435	2,069.82	80.3732	2,069.82	78.1219	2,069.82	78.7109	2,069.82	76.2951	2,069.82	77.3023	2,069.82	75.3148	2,069.82	75.263	2,069.82	73.6757	2,069.82	74.3849	2,069.82	72.9559	2,069.82	71.975	2,069.82	71.346	2,069.82	72.6132	2,069.82	68.2303	2,069.82	68.3497	2,069.82	67.5493	2,069.82	69.2921	2,069.82	70.8464	2,069.82	71.8247	2,069.82	70.9336	2,069.82	70.7362	2,069.82	64.4649	2,069.82	65.2747	2,069.82	64.2003	2,069.82	61.2273	2,069.82	65.8104
2,143.07	84.8531	2,143.07	84.4458	2,143.07	84.6964	2,143.07	83.7008	2,143.07	83.9433	2,143.07	83.0911	2,143.07	82.9695	2,143.07	81.9681	2,143.07	81.7079	2,143.07	80.7149	2,143.07	80.5111	2,143.07	79.0478	2,143.07	78.5937	2,143.07	76.7774	2,143.07	76.7581	2,143.07	75.5575	2,143.07	75.3664	2,143.07	74.0138	2,143.07	74.0163	2,143.07	72.6638	2,143.07	71.8265	2,143.07	71.488	2,143.07	71.4577	2,143.07	69.4469	2,143.07	70.2497	2,143.07	69.5157	2,143.07	67.1272	2,143.07	71.5924	2,143.07	71.3996	2,143.07	71.4754	2,143.07	71.1406	2,143.07	65.0031	2,143.07	65.8685	2,143.07	56.0488	2,143.07	57.6377	2,143.07	65.2072
2,219.24	83.5165	2,219.24	83.3579	2,219.24	83.5165	2,219.24	82.654	2,219.24	82.8901	2,219.24	81.8434	2,219.24	81.8078	2,219.24	80.7466	2,219.24	80.84	2,219.24	79.7721	2,219.24	79.7568	2,219.24	78.7624	2,219.24	78.1127	2,219.24	76.8932	2,219.24	75.8996	2,219.24	75.9183	2,219.24	74.4706	2,219.24	73.579	2,219.24	74.0994	2,219.24	71.8722	2,219.24	70.9174	2,219.24	71.3003	2,219.24	71.0809	2,219.24	69.0123	2,219.24	69.3173	2,219.24	65.1	2,219.24	66.0722	2,219.24	70.792	2,219.24	69.2857	2,219.24	71.5391	2,219.24	71.9804	2,219.24	65.2685	2,219.24	64.4118	2,219.24	61.2808	2,219.24	48.1591	2,219.24	64.7521
2,296.88	83.7298	2,296.88	83.2388	2,296.88	83.4138	2,296.88	82.4221	2,296.88	82.9393	2,296.88	81.7538	2,296.88	81.897	2,296.88	80.5015	2,296.88	80.8578	2,296.88	79.4008	2,296.88	79.8731	2,296.88	77.001	2,296.88	78.3187	2,296.88	75.54	2,296.88	76.2676	2,296.88	73.3251	2,296.88	74.6394	2,296.88	73.1707	2,296.88	73.2955	2,296.88	70.8606	2,296.88	71.3245	2,296.88	69.1661	2,296.88	70.7439	2,296.88	69.7048	2,296.88	70.2242	2,296.88	65.7243	2,296.88	67.9502	2,296.88	69.135	2,296.88	69.7635	2,296.88	70.3312	2,296.88	70.4069	2,296.88	65.7394	2,296.88	68.2755	2,296.88	56.8778	2,296.88	63.0886	2,296.88	63.4493
2,378.91	84.1311	2,378.91	83.6318	2,378.91	83.7226	2,378.91	83.0212	2,378.91	83.0462	2,378.91	82.0623	2,378.91	81.986	2,378.91	80.8548	2,378.91	80.855	2,378.91	80.2068	2,378.91	80.0614	2,378.91	78.2032	2,378.91	78.4868	2,378.91	76.244	2,378.91	76.5614	2,378.91	74.6363	2,378.91	74.1008	2,378.91	73.4585	2,378.91	73.9165	2,378.91	71.2647	2,378.91	72.3205	2,378.91	69.338	2,378.91	69.5068	2,378.91	70.2498	2,378.91	69.5751	2,378.91	68.3703	2,378.91	67.808	2,378.91	67.4298	2,378.91	68.0695	2,378.91	69.2513	2,378.91	69.9359	2,378.91	63.4432	2,378.91	67.0562	2,378.91	57.7545	2,378.91	62.5174	2,378.91	62.4018
2,462.4	83.5894	2,462.4	83.1946	2,462.4	83.4168	2,462.4	82.4384	2,462.4	82.8072	2,462.4	81.7205	2,462.4	81.7615	2,462.4	80.8959	2,462.4	80.7002	2,462.4	79.9533	2,462.4	79.5407	2,462.4	78.4329	2,462.4	78.2174	2,462.4	76.4258	2,462.4	76.2779	2,462.4	75.0205	2,462.4	73.7469	2,462.4	73.4614	2,462.4	72.5591	2,462.4	71.8947	2,462.4	72.0272	2,462.4	69.6824	2,462.4	67.7412	2,462.4	70.1016	2,462.4	69.5214	2,462.4	68.2338	2,462.4	68.3157	2,462.4	68.0205	2,462.4	66.5545	2,462.4	69.6446	2,462.4	69.6267	2,462.4	64.7508	2,462.4	67.0594	2,462.4	61.9181	2,462.4	56.9161	2,462.4	64.2144
2,548.83	83.0753	2,548.83	82.6004	2,548.83	82.8939	2,548.83	82.1819	2,548.83	82.5026	2,548.83	81.1733	2,548.83	81.6947	2,548.83	80.2042	2,548.83	80.2935	2,548.83	78.3729	2,548.83	79.4215	2,548.83	77.3413	2,548.83	78.4305	2,548.83	75.0414	2,548.83	76.5016	2,548.83	73.2269	2,548.83	73.8682	2,548.83	72.9253	2,548.83	72.0279	2,548.83	70.7284	2,548.83	72.2661	2,548.83	69.012	2,548.83	69.2278	2,548.83	69.2147	2,548.83	68.8169	2,548.83	67.9314	2,548.83	68.3295	2,548.83	65.2091	2,548.83	65.7666	2,548.83	68.6687	2,548.83	68.5746	2,548.83	65.0279	2,548.83	68.512	2,548.83	61.6838	2,548.83	64.3721	2,548.83	65.8536
2,639.65	83.021	2,639.65	83.1093	2,639.65	82.9685	2,639.65	82.4434	2,639.65	82.7248	2,639.65	81.7545	2,639.65	81.8664	2,639.65	80.4719	2,639.65	81.0626	2,639.65	79.5642	2,639.65	79.4914	2,639.65	77.773	2,639.65	77.8479	2,639.65	76.8442	2,639.65	76.4129	2,639.65	73.6856	2,639.65	73.8077	2,639.65	70.822	2,639.65	72.5534	2,639.65	70.7011	2,639.65	70.6002	2,639.65	68.8029	2,639.65	68.5929	2,639.65	67.9909	2,639.65	67.5711	2,639.65	67.787	2,639.65	68.4006	2,639.65	65.2981	2,639.65	64.5296	2,639.65	66.0174	2,639.65	68.1905	2,639.65	65.8168	2,639.65	66.0855	2,639.65	60.2547	2,639.65	61.6253	2,639.65	64.0615
2,731.93	82.0475	2,731.93	81.9696	2,731.93	81.9546	2,731.93	81.4999	2,731.93	81.3083	2,731.93	81.0462	2,731.93	80.8188	2,731.93	79.7676	2,731.93	79.601	2,731.93	78.7434	2,731.93	78.3823	2,731.93	77.6524	2,731.93	76.9983	2,731.93	75.2216	2,731.93	75.2914	2,731.93	72.3976	2,731.93	72.8439	2,731.93	70.7175	2,731.93	69.579	2,731.93	71.3323	2,731.93	68.5149	2,731.93	67.4426	2,731.93	66.3099	2,731.93	67.2087	2,731.93	66.2356	2,731.93	68.3152	2,731.93	65.4669	2,731.93	65.6358	2,731.93	62.7667	2,731.93	67.8587	2,731.93	66.2586	2,731.93	66.6138	2,731.93	61.2695	2,731.93	61.4685	2,731.93	59.578	2,731.93	63.7284
2,828.61	81.9018	2,828.61	81.9856	2,828.61	81.4935	2,828.61	81.3905	2,828.61	81.4499	2,828.61	81.015	2,828.61	80.4139	2,828.61	79.5008	2,828.61	79.6214	2,828.61	78.3011	2,828.61	77.7868	2,828.61	76.8578	2,828.61	76.2932	2,828.61	76.257	2,828.61	75.2082	2,828.61	72.6622	2,828.61	72.4111	2,828.61	70.4751	2,828.61	69.8632	2,828.61	69.6827	2,828.61	68.7219	2,828.61	65.5582	2,828.61	67.0736	2,828.61	65.4693	2,828.61	64.2137	2,828.61	67.8893	2,828.61	66.2065	2,828.61	64.6104	2,828.61	64.0864	2,828.61	66.0992	2,828.61	65.4186	2,828.61	65.0346	2,828.61	65.0082	2,828.61	56.7913	2,828.61	54.996	2,828.61	61.2363
2,928.22	82.0451	2,928.22	82.0596	2,928.22	81.5028	2,928.22	81.7952	2,928.22	81.1209	2,928.22	81.2322	2,928.22	80.0743	2,928.22	79.8929	2,928.22	78.9302	2,928.22	77.8871	2,928.22	77.0693	2,928.22	76.5491	2,928.22	75.4508	2,928.22	75.076	2,928.22	73.979	2,928.22	71.2996	2,928.22	72.117	2,928.22	70.9649	2,928.22	70.3151	2,928.22	68.909	2,928.22	68.4058	2,928.22	67.0834	2,928.22	65.4099	2,928.22	62.1578	2,928.22	60.0598	2,928.22	66.4544	2,928.22	64.0992	2,928.22	65.1221	2,928.22	58.8955	2,928.22	64.4709	2,928.22	64.4223	2,928.22	65.3883	2,928.22	62.7705	2,928.22	63.4875	2,928.22	48.2074	2,928.22	61.9366
3,030.76	80.944	3,030.76	81.2243	3,030.76	80.3404	3,030.76	81.1152	3,030.76	80.23	3,030.76	80.4044	3,030.76	79.3719	3,030.76	79.1214	3,030.76	78.1504	3,030.76	76.9346	3,030.76	76.1285	3,030.76	75.3412	3,030.76	74.436	3,030.76	72.3597	3,030.76	71.0249	3,030.76	70.1431	3,030.76	69.542	3,030.76	69.6738	3,030.76	67.5397	3,030.76	68.7863	3,030.76	65.9844	3,030.76	66.1756	3,030.76	64.469	3,030.76	61.0652	3,030.76	61.2985	3,030.76	64.2236	3,030.76	60.5747	3,030.76	63.5619	3,030.76	63.4834	3,030.76	64.4734	3,030.76	62.0956	3,030.76	62.975	3,030.76	62.3916	3,030.76	58.3756	3,030.76	57.7252	3,030.76	60.733
3,137.7	81.1147	3,137.7	81.1852	3,137.7	81.0464	3,137.7	81.3381	3,137.7	79.9487	3,137.7	80.6311	3,137.7	79.884	3,137.7	79.5761	3,137.7	78.6241	3,137.7	77.2309	3,137.7	77.0542	3,137.7	75.0053	3,137.7	74.1193	3,137.7	72.0972	3,137.7	71.1009	3,137.7	70.8851	3,137.7	70.0989	3,137.7	68.6045	3,137.7	67.8686	3,137.7	67.7672	3,137.7	66.3968	3,137.7	67.8276	3,137.7	66.6969	3,137.7	63.7061	3,137.7	61.5827	3,137.7	64.6444	3,137.7	63.3827	3,137.7	63.1966	3,137.7	63.7903	3,137.7	61.4506	3,137.7	59.6875	3,137.7	60.75	3,137.7	64.2549	3,137.7	53.4741	3,137.7	55.8925	3,137.7	56.3383
3,249.02	80.4766	3,249.02	80.6081	3,249.02	80.631	3,249.02	80.7054	3,249.02	79.9574	3,249.02	80.1672	3,249.02	79.9722	3,249.02	79.2532	3,249.02	78.7769	3,249.02	78.0515	3,249.02	76.5966	3,249.02	74.0076	3,249.02	74.1727	3,249.02	71.8294	3,249.02	71.9075	3,249.02	70.6558	3,249.02	69.7133	3,249.02	68.5488	3,249.02	68.1207	3,249.02	67.1287	3,249.02	65.6377	3,249.02	67.3481	3,249.02	65.3453	3,249.02	63.809	3,249.02	63.6598	3,249.02	64.5127	3,249.02	64.2994	3,249.02	64.6159	3,249.02	62.5752	3,249.02	61.1137	3,249.02	58.2173	3,249.02	59.9212	3,249.02	61.0658	3,249.02	56.5715	3,249.02	53.9222	3,249.02	59.3736
3,363.28	80.1122	3,363.28	80.3637	3,363.28	80.1262	3,363.28	80.5183	3,363.28	79.9589	3,363.28	79.833	3,363.28	79.7589	3,363.28	79.1915	3,363.28	78.336	3,363.28	77.5795	3,363.28	75.8942	3,363.28	74.2768	3,363.28	73.6687	3,363.28	71.7441	3,363.28	71.5932	3,363.28	70.7107	3,363.28	69.0421	3,363.28	67.9225	3,363.28	68.2467	3,363.28	65.6249	3,363.28	66.4586	3,363.28	65.2846	3,363.28	65.5251	3,363.28	64.1525	3,363.28	63.6431	3,363.28	64.4175	3,363.28	62.8522	3,363.28	62.3794	3,363.28	64.1386	3,363.28	60.021	3,363.28	58.9016	3,363.28	61.4182	3,363.28	60.893	3,363.28	61.1213	3,363.28	52.7896	3,363.28	61.1892
3,481.93	81.1716	3,481.93	81.1182	3,481.93	81.4712	3,481.93	80.6931	3,481.93	81.2422	3,481.93	80.2389	3,481.93	80.3097	3,481.93	79.1143	3,481.93	78.957	3,481.93	77.9767	3,481.93	76.2213	3,481.93	74.7289	3,481.93	73.6736	3,481.93	72.5049	3,481.93	70.8992	3,481.93	69.5696	3,481.93	69.3958	3,481.93	67.7648	3,481.93	68.1743	3,481.93	66.5196	3,481.93	66.7572	3,481.93	66.4292	3,481.93	66.8456	3,481.93	63.7807	3,481.93	63.9875	3,481.93	62.4166	3,481.93	61.8429	3,481.93	64.4367	3,481.93	65.0256	3,481.93	62.4104	3,481.93	58.8252	3,481.93	63.1568	3,481.93	61.6588	3,481.93	50.6226	3,481.93	55.05	3,481.93	58.1729
3,604.98	81.4991	3,604.98	81.852	3,604.98	80.9379	3,604.98	81.068	3,604.98	81.4225	3,604.98	80.2669	3,604.98	80.044	3,604.98	79.197	3,604.98	78.181	3,604.98	76.3236	3,604.98	74.7803	3,604.98	74.1572	3,604.98	73.1415	3,604.98	72.1088	3,604.98	70.6482	3,604.98	70.0582	3,604.98	68.3711	3,604.98	66.8997	3,604.98	66.5537	3,604.98	67.4293	3,604.98	66.7013	3,604.98	64.6131	3,604.98	65.4147	3,604.98	63.354	3,604.98	64.907	3,604.98	60.6386	3,604.98	61.2805	3,604.98	63.6165	3,604.98	61.5495	3,604.98	62.9496	3,604.98	60.0888	3,604.98	62.4736	3,604.98	59.9034	3,604.98	51.3574	3,604.98	51.7609	3,604.98	44.392
3,732.42	81.2167	3,732.42	81.0923	3,732.42	80.6963	3,732.42	80.6945	3,732.42	80.2943	3,732.42	79.0401	3,732.42	79.0779	3,732.42	76.605	3,732.42	77.0241	3,732.42	72.572	3,732.42	74.3409	3,732.42	72.2675	3,732.42	71.8157	3,732.42	68.7159	3,732.42	69.0613	3,732.42	66.8018	3,732.42	66.3957	3,732.42	62.7968	3,732.42	65.2449	3,732.42	65.2064	3,732.42	66.0639	3,732.42	64.0723	3,732.42	62.6399	3,732.42	62.1832	3,732.42	60.4698	3,732.42	60.1034	3,732.42	57.8713	3,732.42	62.5532	3,732.42	61.2391	3,732.42	62.8826	3,732.42	59.4682	3,732.42	59.0647	3,732.42	59.6377	3,732.42	59.6259	3,732.42	54.8912	3,732.42	52.9792
3,864.26	80.5643	3,864.26	80.4925	3,864.26	80.1544	3,864.26	79.9578	3,864.26	79.5535	3,864.26	78.0063	3,864.26	78.1704	3,864.26	75.5969	3,864.26	74.1373	3,864.26	68.5934	3,864.26	70.3855	3,864.26	65.9043	3,864.26	67.7776	3,864.26	59.1431	3,864.26	62.2468	3,864.26	61.461	3,864.26	62.8414	3,864.26	54.9373	3,864.26	62.209	3,864.26	59.8604	3,864.26	61.3524	3,864.26	61.5868	3,864.26	60.8625	3,864.26	58.027	3,864.26	60.3802	3,864.26	58.7807	3,864.26	59.5787	3,864.26	59.7582	3,864.26	59.1695	3,864.26	52.5634	3,864.26	60.0242	3,864.26	56.4081	3,864.26	59.3677	3,864.26	58.8346	3,864.26	57.9547	3,864.26	58.671
4,000.49	77.9275	4,000.49	77.7934	4,000.49	77.6958	4,000.49	76.3442	4,000.49	75.8508	4,000.49	74.5386	4,000.49	73.8862	4,000.49	69.7042	4,000.49	69.3303	4,000.49	51.8393	4,000.49	60.7736	4,000.49	55.13	4,000.49	56.1643	4,000.49	62.3625	4,000.49	59.8008	4,000.49	58.1059	4,000.49	60.9037	4,000.49	62.7178	4,000.49	61.5174	4,000.49	56.488	4,000.49	56.9266	4,000.49	54.9898	4,000.49	59.4154	4,000.49	58.7026	4,000.49	56.7552	4,000.49	56.3421	4,000.49	58.1116	4,000.49	59.1404	4,000.49	60.6981	4,000.49	56.2279	4,000.49	58.3299	4,000.49	59.8834	4,000.49	56.8273	4,000.49	56.0176	4,000.49	54.7523	4,000.49	60.3244
4,141.11	76.3625	4,141.11	74.2525	4,141.11	77.0345	4,141.11	72.2587	4,141.11	73.3734	4,141.11	69.6946	4,141.11	70.7866	4,141.11	45.7298	4,141.11	61.4291	4,141.11	60.6821	4,141.11	58.4015	4,141.11	63.0415	4,141.11	59.7576	4,141.11	65.1798	4,141.11	63.1752	4,141.11	63.2444	4,141.11	62.373	4,141.11	64.6094	4,141.11	62.7003	4,141.11	57.2578	4,141.11	59.0623	4,141.11	60.0144	4,141.11	57.2436	4,141.11	59.6935	4,141.11	60.2171	4,141.11	52.2735	4,141.11	59.1984	4,141.11	60.6271	4,141.11	59.8085	4,141.11	60.2779	4,141.11	57.4681	4,141.11	60.1799	4,141.11	58.6083	4,141.11	58.5361	4,141.11	55.5971	4,141.11	58.4226
4,287.6	75.5379	4,287.6	73.3351	4,287.6	74.9973	4,287.6	72.4601	4,287.6	73.2693	4,287.6	65.5505	4,287.6	68.2782	4,287.6	64.7855	4,287.6	63.9995	4,287.6	63.6221	4,287.6	57.583	4,287.6	66.3339	4,287.6	61.7471	4,287.6	66.1112	4,287.6	64.8967	4,287.6	65.5168	4,287.6	65.617	4,287.6	65.3867	4,287.6	61.5304	4,287.6	62.7514	4,287.6	60.0021	4,287.6	59.7547	4,287.6	58.1923	4,287.6	59.2587	4,287.6	59.1461	4,287.6	54.5548	4,287.6	56.006	4,287.6	59.7446	4,287.6	59.5914	4,287.6	58.8346	4,287.6	57.0837	4,287.6	59.001	4,287.6	60.5833	4,287.6	56.9347	4,287.6	51.7597	4,287.6	55.7241
4,438.48	74.3778	4,438.48	75.6365	4,438.48	72.9382	4,438.48	71.9784	4,438.48	73.3752	4,438.48	69.2639	4,438.48	68.6777	4,438.48	67.7455	4,438.48	61.433	4,438.48	62.3541	4,438.48	54.6995	4,438.48	64.0284	4,438.48	65.2164	4,438.48	66.0698	4,438.48	65.3217	4,438.48	66.8281	4,438.48	61.67	4,438.48	63.8742	4,438.48	62.6726	4,438.48	60.6131	4,438.48	60.1557	4,438.48	56.1654	4,438.48	58.1276	4,438.48	59.1095	4,438.48	55.7003	4,438.48	55.6072	4,438.48	56.807	4,438.48	59.1572	4,438.48	58.2483	4,438.48	60.711	4,438.48	59.4104	4,438.48	59.0506	4,438.48	58.7543	4,438.48	59.8729	4,438.48	54.7069	4,438.48	57.0171
4,595.21	76.5553	4,595.21	76.2894	4,595.21	76.9681	4,595.21	74.8537	4,595.21	74.5134	4,595.21	70.971	4,595.21	72.8164	4,595.21	67.091	4,595.21	59.4827	4,595.21	56.8566	4,595.21	63.7503	4,595.21	64.8468	4,595.21	64.3042	4,595.21	65.4333	4,595.21	65.183	4,595.21	64.0065	4,595.21	66.6921	4,595.21	58.131	4,595.21	62.6482	4,595.21	56.1458	4,595.21	60.5223	4,595.21	55.2636	4,595.21	55.9818	4,595.21	57.7118	4,595.21	57.4415	4,595.21	55.4939	4,595.21	51.4068	4,595.21	57.2055	4,595.21	55.362	4,595.21	57.0149	4,595.21	59.6892	4,595.21	58.5777	4,595.21	59.4837	4,595.21	52.8793	4,595.21	59.2926	4,595.21	56.825
4,756.35	79.0939	4,756.35	77.9926	4,756.35	78.9472	4,756.35	77.7515	4,756.35	76.7867	4,756.35	73.2987	4,756.35	74.0405	4,756.35	70.0509	4,756.35	67.1151	4,756.35	68.4773	4,756.35	63.7002	4,756.35	66.5446	4,756.35	66.7182	4,756.35	67.1891	4,756.35	65.3572	4,756.35	62.9326	4,756.35	63.2599	4,756.35	65.0052	4,756.35	63.2126	4,756.35	62.4895	4,756.35	59.7533	4,756.35	59.2681	4,756.35	57.4019	4,756.35	55.0551	4,756.35	57.0258	4,756.35	59.4403	4,756.35	55.5882	4,756.35	56.5449	4,756.35	55.6255	4,756.35	57.4727	4,756.35	59.0231	4,756.35	57.6699	4,756.35	58.8103	4,756.35	58.1645	4,756.35	55.7386	4,756.35	55.2568
4,924.8	80.6312	4,924.8	80.0111	4,924.8	79.6764	4,924.8	78.569	4,924.8	78.3946	4,924.8	75.1576	4,924.8	75.1561	4,924.8	73.0213	4,924.8	72.2855	4,924.8	72.5851	4,924.8	70.4684	4,924.8	70.2682	4,924.8	69.2683	4,924.8	66.933	4,924.8	68.3519	4,924.8	66.3232	4,924.8	66.9938	4,924.8	61.9858	4,924.8	64.0614	4,924.8	63.8022	4,924.8	60.2571	4,924.8	57.5023	4,924.8	55.5583	4,924.8	54.863	4,924.8	55.361	4,924.8	46.3876	4,924.8	55.53	4,924.8	55.2509	4,924.8	51.2269	4,924.8	55.0397	4,924.8	58.3007	4,924.8	58.541	4,924.8	59.1526	4,924.8	56.2873	4,924.8	54.3945	4,924.8	57.4376
5,097.66	79.3157	5,097.66	79.3207	5,097.66	78.8997	5,097.66	76.021	5,097.66	78.1678	5,097.66	75.0028	5,097.66	75.3608	5,097.66	73.1926	5,097.66	74.3996	5,097.66	72.2563	5,097.66	73.6729	5,097.66	71.598	5,097.66	71.4476	5,097.66	70.0672	5,097.66	68.9529	5,097.66	67.7581	5,097.66	66.8137	5,097.66	63.7288	5,097.66	62.7636	5,097.66	60.6819	5,097.66	60.5786	5,097.66	61.4846	5,097.66	58.1248	5,097.66	57.0433	5,097.66	54.8653	5,097.66	54.8637	5,097.66	54.8413	5,097.66	51.4476	5,097.66	52.9132	5,097.66	57.2112	5,097.66	54.1817	5,097.66	59.1024	5,097.66	54.0824	5,097.66	52.3326	5,097.66	55.0513	5,097.66	55.563
5,277.83	79.5787	5,277.83	78.9443	5,277.83	79.5397	5,277.83	77.4115	5,277.83	77.6343	5,277.83	74.9168	5,277.83	76.271	5,277.83	74.1611	5,277.83	74.6551	5,277.83	73.6405	5,277.83	73.6871	5,277.83	72.6369	5,277.83	72.2013	5,277.83	71.7686	5,277.83	69.6405	5,277.83	67.7877	5,277.83	66.0424	5,277.83	67.1473	5,277.83	63.1942	5,277.83	61.352	5,277.83	60.4093	5,277.83	60.3522	5,277.83	61.0431	5,277.83	53.5806	5,277.83	54.8631	5,277.83	55.5684	5,277.83	51.9246	5,277.83	53.8592	5,277.83	47.0917	5,277.83	58.1926	5,277.83	55.3343	5,277.83	54.3526	5,277.83	55.2297	5,277.83	56.3558	5,277.83	53.2844	5,277.83	56.993
5,463.87	78.7206	5,463.87	78.3141	5,463.87	78.6888	5,463.87	77.4585	5,463.87	77.8284	5,463.87	74.8904	5,463.87	76.1437	5,463.87	74.7402	5,463.87	74.5875	5,463.87	73.0174	5,463.87	73.2606	5,463.87	71.4714	5,463.87	71.7659	5,463.87	67.62	5,463.87	69.5899	5,463.87	67.2432	5,463.87	64.8813	5,463.87	63.3096	5,463.87	63.2366	5,463.87	63.7622	5,463.87	59.9994	5,463.87	57.6684	5,463.87	56.3917	5,463.87	54.0636	5,463.87	57.7818	5,463.87	48.6142	5,463.87	51.6336	5,463.87	56.3179	5,463.87	51.3751	5,463.87	55.3241	5,463.87	55.2809	5,463.87	57.3543	5,463.87	51.701	5,463.87	56.659	5,463.87	56.0253	5,463.87	55.888
5,657.23	78.1147	5,657.23	77.678	5,657.23	77.7353	5,657.23	76.8264	5,657.23	77.5001	5,657.23	76.3996	5,657.23	75.3352	5,657.23	75.591	5,657.23	75.2684	5,657.23	74.5178	5,657.23	74.4669	5,657.23	72.7391	5,657.23	72.4754	5,657.23	70.8784	5,657.23	69.7047	5,657.23	68.8786	5,657.23	67.9165	5,657.23	65.2214	5,657.23	64.8858	5,657.23	62.073	5,657.23	62.0128	5,657.23	59.6436	5,657.23	60.3195	5,657.23	60.3147	5,657.23	56.1335	5,657.23	58.8342	5,657.23	52.8365	5,657.23	48.9759	5,657.23	46.9179	5,657.23	57.2723	5,657.23	53.161	5,657.23	58.6403	5,657.23	56.7309	5,657.23	49.5382	5,657.23	54.8058	5,657.23	56.7963
5,856.45	77.0784	5,856.45	77.1516	5,856.45	77.3963	5,856.45	76.7553	5,856.45	76.4125	5,856.45	75.0398	5,856.45	75.256	5,856.45	74.2897	5,856.45	74.0477	5,856.45	73.7438	5,856.45	73.351	5,856.45	72.6202	5,856.45	72.3498	5,856.45	71.8835	5,856.45	71.3611	5,856.45	66.4282	5,856.45	66.7907	5,856.45	65.3483	5,856.45	64.5284	5,856.45	60.3613	5,856.45	61.5649	5,856.45	60.0279	5,856.45	59.2892	5,856.45	55.2998	5,856.45	58.574	5,856.45	57.7465	5,856.45	52.8465	5,856.45	56.5005	5,856.45	54.034	5,856.45	58.1323	5,856.45	56.2931	5,856.45	55.9096	5,856.45	55.3079	5,856.45	56.1044	5,856.45	57.3378	5,856.45	55.1318
6,062.99	78.3159	6,062.99	78.5345	6,062.99	78.5221	6,062.99	77.8209	6,062.99	77.94	6,062.99	75.3862	6,062.99	75.9496	6,062.99	74.0095	6,062.99	73.9929	6,062.99	72.5387	6,062.99	71.9908	6,062.99	70.8095	6,062.99	71.1752	6,062.99	68.5228	6,062.99	68.2388	6,062.99	64.428	6,062.99	65.4482	6,062.99	61.7927	6,062.99	63.9601	6,062.99	62.0028	6,062.99	59.3642	6,062.99	56.9213	6,062.99	58.1291	6,062.99	57.8464	6,062.99	55.4672	6,062.99	54.2697	6,062.99	57.0474	6,062.99	51.3345	6,062.99	54.7776	6,062.99	53.8452	6,062.99	52.2831	6,062.99	54.8828	6,062.99	52.8798	6,062.99	54.1951	6,062.99	56.1273	6,062.99	49.5274
6,276.86	78.5699	6,276.86	78.4799	6,276.86	78.5488	6,276.86	77.7372	6,276.86	78.5655	6,276.86	75.7453	6,276.86	76.1103	6,276.86	74.9646	6,276.86	75.5273	6,276.86	74.0398	6,276.86	74.5632	6,276.86	72.2494	6,276.86	72.371	6,276.86	68.4611	6,276.86	70.305	6,276.86	68.0235	6,276.86	67.5125	6,276.86	64.1944	6,276.86	65.1538	6,276.86	62.1548	6,276.86	60.4653	6,276.86	61.054	6,276.86	60.3502	6,276.86	55.7457	6,276.86	54.5818	6,276.86	56.2939	6,276.86	55.0812	6,276.86	52.1095	6,276.86	51.1092	6,276.86	54.9938	6,276.86	53.4523	6,276.86	55.6743	6,276.86	53.7801	6,276.86	53.761	6,276.86	55.5952	6,276.86	49.9237
6,498.05	78.1608	6,498.05	78.303	6,498.05	78.7458	6,498.05	77.5918	6,498.05	77.9235	6,498.05	75.4009	6,498.05	76.197	6,498.05	74.2484	6,498.05	73.9347	6,498.05	74.1863	6,498.05	73.5873	6,498.05	72.7047	6,498.05	72.8681	6,498.05	71.3685	6,498.05	71.1455	6,498.05	67.9866	6,498.05	66.9465	6,498.05	64.8798	6,498.05	63.999	6,498.05	61.1979	6,498.05	63.1878	6,498.05	58.0258	6,498.05	59.0839	6,498.05	56.5061	6,498.05	55.7054	6,498.05	58.2	6,498.05	56.9472	6,498.05	54.899	6,498.05	50.7447	6,498.05	53.0716	6,498.05	53.3973	6,498.05	53.4632	6,498.05	49.9045	6,498.05	54.3486	6,498.05	56.0935	6,498.05	50.757
6,726.56	78.6625	6,726.56	78.8309	6,726.56	78.8158	6,726.56	78.3373	6,726.56	78.5599	6,726.56	75.6285	6,726.56	75.9028	6,726.56	74.8089	6,726.56	75.2015	6,726.56	73.7934	6,726.56	73.9982	6,726.56	72.7192	6,726.56	72.6575	6,726.56	70.7837	6,726.56	69.597	6,726.56	67.3023	6,726.56	66.8606	6,726.56	63.9086	6,726.56	64.2309	6,726.56	59.9954	6,726.56	61.5585	6,726.56	56.4075	6,726.56	57.4876	6,726.56	54.4707	6,726.56	58.4695	6,726.56	49.9075	6,726.56	55.1112	6,726.56	52.8987	6,726.56	52.3095	6,726.56	54.377	6,726.56	51.3211	6,726.56	52.3669	6,726.56	52.1724	6,726.56	53.3853	6,726.56	56.4223	6,726.56	49.0604
6,963.87	78.673	6,963.87	79.0145	6,963.87	78.9702	6,963.87	78.058	6,963.87	78.2225	6,963.87	75.6453	6,963.87	75.5143	6,963.87	74.3492	6,963.87	74.9109	6,963.87	72.8927	6,963.87	74.9874	6,963.87	72.5636	6,963.87	73.1212	6,963.87	69.0378	6,963.87	70.54	6,963.87	65.3191	6,963.87	66.6732	6,963.87	62.2484	6,963.87	64.2926	6,963.87	60.165	6,963.87	61.3763	6,963.87	57.6964	6,963.87	59.2527	6,963.87	54.3882	6,963.87	57.4881	6,963.87	51.146	6,963.87	52.7638	6,963.87	53.7781	6,963.87	47.6061	6,963.87	53.4724	6,963.87	51.8991	6,963.87	52.1165	6,963.87	52.7309	6,963.87	53.8267	6,963.87	55.6879	6,963.87	44.5832
7,209.96	78.3948	7,209.96	78.4899	7,209.96	78.7764	7,209.96	77.5563	7,209.96	77.5653	7,209.96	75.1951	7,209.96	75.676	7,209.96	73.8197	7,209.96	74.279	7,209.96	73.9025	7,209.96	73.5051	7,209.96	70.907	7,209.96	72.63	7,209.96	68.2177	7,209.96	69.8288	7,209.96	65.5233	7,209.96	66.6073	7,209.96	63.1195	7,209.96	63.7696	7,209.96	60.0607	7,209.96	60.8258	7,209.96	58.6612	7,209.96	57.796	7,209.96	54.02	7,209.96	57.3113	7,209.96	52.6977	7,209.96	52.4546	7,209.96	44.4483	7,209.96	50.6631	7,209.96	50.2963	7,209.96	52.0824	7,209.96	53.2448	7,209.96	53.4996	7,209.96	52.8969	7,209.96	56.1835	7,209.96	44.7805
7,464.84	78.6386	7,464.84	78.2835	7,464.84	78.3975	7,464.84	77.4294	7,464.84	77.4788	7,464.84	75.3374	7,464.84	75.1537	7,464.84	74.0928	7,464.84	74.5325	7,464.84	72.6242	7,464.84	73.2739	7,464.84	71.2937	7,464.84	71.3615	7,464.84	68.5798	7,464.84	68.3788	7,464.84	66.345	7,464.84	66.2563	7,464.84	62.6391	7,464.84	64.0485	7,464.84	61.4824	7,464.84	59.5055	7,464.84	56.6647	7,464.84	59.1646	7,464.84	56.3403	7,464.84	54.9844	7,464.84	52.849	7,464.84	55.7841	7,464.84	44.2039	7,464.84	49.2464	7,464.84	52.5182	7,464.84	52.0718	7,464.84	53.8242	7,464.84	54.0971	7,464.84	53.1015	7,464.84	56.0163	7,464.84	47.1551
7,727.05	78.8329	7,727.05	78.4551	7,727.05	78.4849	7,727.05	77.6221	7,727.05	77.4261	7,727.05	75.7986	7,727.05	75.4927	7,727.05	74.5878	7,727.05	74.1739	7,727.05	72.9938	7,727.05	73.3052	7,727.05	71.826	7,727.05	71.1683	7,727.05	68.6755	7,727.05	69.3159	7,727.05	66.2346	7,727.05	65.3523	7,727.05	62.8354	7,727.05	63.1596	7,727.05	60.9008	7,727.05	60.0755	7,727.05	58.7148	7,727.05	58.5405	7,727.05	56.8728	7,727.05	55.0613	7,727.05	51.8037	7,727.05	56.0389	7,727.05	42.7083	7,727.05	50.652	7,727.05	49.5539	7,727.05	48.2324	7,727.05	55.5897	7,727.05	52.759	7,727.05	52.1606	7,727.05	54.8692	7,727.05	43.2043
7,999.51	78.988	7,999.51	78.4546	7,999.51	78.2223	7,999.51	77.6742	7,999.51	77.723	7,999.51	75.7512	7,999.51	75.9265	7,999.51	74.5828	7,999.51	73.9224	7,999.51	72.9179	7,999.51	72.3154	7,999.51	70.6814	7,999.51	71.2493	7,999.51	68.0367	7,999.51	68.9364	7,999.51	65.787	7,999.51	65.7845	7,999.51	62.2378	7,999.51	62.5044	7,999.51	60.1292	7,999.51	59.9585	7,999.51	56.6214	7,999.51	56.7841	7,999.51	56.2368	7,999.51	55.6503	7,999.51	51.713	7,999.51	55.8289	7,999.51	47.6718	7,999.51	48.3051	7,999.51	44.6584	7,999.51	47.9205	7,999.51	54.6514	7,999.51	51.1273	7,999.51	53.9437	7,999.51	54.0905	7,999.51	31.5097
8,282.23	78.9676	8,282.23	78.0808	8,282.23	77.9556	8,282.23	76.9025	8,282.23	77.1139	8,282.23	75.4822	8,282.23	75.5527	8,282.23	73.9522	8,282.23	73.7539	8,282.23	71.674	8,282.23	72.3784	8,282.23	70.4797	8,282.23	70.8904	8,282.23	67.2665	8,282.23	69.1476	8,282.23	64.0539	8,282.23	63.4584	8,282.23	60.571	8,282.23	61.4233	8,282.23	57.1794	8,282.23	58.1219	8,282.23	55.3042	8,282.23	56.4396	8,282.23	52.4752	8,282.23	55.2671	8,282.23	51.0356	8,282.23	46.3725	8,282.23	47.2564	8,282.23	51.2934	8,282.23	45.6089	8,282.23	37.9296	8,282.23	53.2034	8,282.23	48.3373	8,282.23	52.7589	8,282.23	53.6875	8,282.23	36.1753
8,573.73	78.8544	8,573.73	77.4103	8,573.73	77.7557	8,573.73	77.006	8,573.73	77.1689	8,573.73	75.3855	8,573.73	75.6014	8,573.73	73.5879	8,573.73	73.2831	8,573.73	71.5398	8,573.73	71.9241	8,573.73	69.3788	8,573.73	70.3702	8,573.73	67.0058	8,573.73	67.0958	8,573.73	61.2231	8,573.73	63.8628	8,573.73	59.6585	8,573.73	60.8093	8,573.73	55.8074	8,573.73	56.7762	8,573.73	54.0454	8,573.73	54.3784	8,573.73	50.3885	8,573.73	50.5679	8,573.73	51.4455	8,573.73	52.7115	8,573.73	46.1853	8,573.73	49.7338	8,573.73	42.2042	8,573.73	42.24	8,573.73	50.259	8,573.73	42.6719	8,573.73	51.9203	8,573.73	51.6503	8,573.73	26.8462
8,876.95	78.6693	8,876.95	77.5495	8,876.95	77.914	8,876.95	76.8796	8,876.95	77.0966	8,876.95	75.4365	8,876.95	75.5159	8,876.95	73.1615	8,876.95	73.3483	8,876.95	71.2624	8,876.95	72.0197	8,876.95	69.0625	8,876.95	69.6091	8,876.95	64.744	8,876.95	66.7752	8,876.95	61.4995	8,876.95	62.4094	8,876.95	58.9032	8,876.95	60.8634	8,876.95	56.4939	8,876.95	57.3806	8,876.95	54.7385	8,876.95	55.9252	8,876.95	52.5287	8,876.95	52.8487	8,876.95	48.8305	8,876.95	46.428	8,876.95	45.7536	8,876.95	48.7752	8,876.95	39.9307	8,876.95	43.6216	8,876.95	48.2735	8,876.95	49.4623	8,876.95	49.4152	8,876.95	51.3316	8,876.95	29.0673
9,188.96	79.0204	9,188.96	77.8868	9,188.96	78.1242	9,188.96	77.0663	9,188.96	77.3421	9,188.96	75.3448	9,188.96	75.5939	9,188.96	73.1178	9,188.96	73.2062	9,188.96	71.1278	9,188.96	71.3579	9,188.96	68.7872	9,188.96	69.4629	9,188.96	65.6029	9,188.96	66.8878	9,188.96	62.2722	9,188.96	63.4229	9,188.96	59.0869	9,188.96	61.0996	9,188.96	56.3743	9,188.96	56.8073	9,188.96	53.8104	9,188.96	56.6839	9,188.96	52.9803	9,188.96	51.876	9,188.96	51.0843	9,188.96	49.8519	9,188.96	46.2582	9,188.96	51.9569	9,188.96	32.9196	9,188.96	49.9331	9,188.96	49.6707	9,188.96	50.6143	9,188.96	51.015	9,188.96	51.7308	9,188.96	31.8358
9,514.16	78.8649	9,514.16	77.6464	9,514.16	78.0688	9,514.16	77.1775	9,514.16	77.343	9,514.16	74.9645	9,514.16	75.3134	9,514.16	72.8333	9,514.16	72.81	9,514.16	70.656	9,514.16	71.1026	9,514.16	68.3386	9,514.16	69.2652	9,514.16	64.8565	9,514.16	67.4772	9,514.16	61.788	9,514.16	62.8824	9,514.16	60.7054	9,514.16	60.97	9,514.16	56.8752	9,514.16	57.8725	9,514.16	54.7509	9,514.16	57.1018	9,514.16	50.3223	9,514.16	52.4001	9,514.16	46.9767	9,514.16	50.2022	9,514.16	48.2764	9,514.16	53.0552	9,514.16	43.8854	9,514.16	46.7383	9,514.16	49.7618	9,514.16	50.1128	9,514.16	49.6194	9,514.16	50.4479	9,514.16	40.6963
9,849.61	78.9449	9,849.61	77.9493	9,849.61	78.3871	9,849.61	77.1684	9,849.61	77.4356	9,849.61	74.6748	9,849.61	75.4336	9,849.61	72.3694	9,849.61	72.5166	9,849.61	69.9763	9,849.61	70.6115	9,849.61	67.4971	9,849.61	69.7148	9,849.61	65.4056	9,849.61	67.771	9,849.61	62.36	9,849.61	63.5034	9,849.61	59.2852	9,849.61	61.2482	9,849.61	55.5484	9,849.61	57.6893	9,849.61	55.6332	9,849.61	55.9036	9,849.61	53.164	9,849.61	53.7204	9,849.61	42.487	9,849.61	51.9745	9,849.61	47.525	9,849.61	53.6901	9,849.61	44.9371	9,849.61	46.8525	9,849.61	48.3991	9,849.61	47.4989	9,849.61	51.7939	9,849.61	52.2367	9,849.61	32.1263
10,196.8	78.4776	10,196.8	78.0141	10,196.8	78.2889	10,196.8	76.69	10,196.8	77.1093	10,196.8	74.6965	10,196.8	75.0825	10,196.8	71.7583	10,196.8	72.2121	10,196.8	69.5069	10,196.8	70.31	10,196.8	67.9472	10,196.8	69.3382	10,196.8	65.3675	10,196.8	67.2363	10,196.8	60.9888	10,196.8	62.7267	10,196.8	58.4056	10,196.8	60.4429	10,196.8	55.4976	10,196.8	56.2058	10,196.8	54.737	10,196.8	55.159	10,196.8	48.5634	10,196.8	50.7503	10,196.8	48.8898	10,196.8	50.6106	10,196.8	50.2984	10,196.8	52.1137	10,196.8	45.9011	10,196.8	45.1159	10,196.8	47.3656	10,196.8	43.621	10,196.8	50.282	10,196.8	49.9217	10,196.8	40.1703
10,555.7	78.2813	10,555.7	78.0478	10,555.7	78.5068	10,555.7	76.5392	10,555.7	76.9407	10,555.7	74.955	10,555.7	75.4274	10,555.7	72.0835	10,555.7	72.6931	10,555.7	69.8078	10,555.7	69.9417	10,555.7	67.098	10,555.7	68.7598	10,555.7	64.2326	10,555.7	65.8371	10,555.7	60.8009	10,555.7	62.7916	10,555.7	58.7274	10,555.7	59.5286	10,555.7	55.0018	10,555.7	57.378	10,555.7	54.0643	10,555.7	53.1171	10,555.7	48.7132	10,555.7	51.5642	10,555.7	51.2869	10,555.7	50.5618	10,555.7	47.7921	10,555.7	51.4994	10,555.7	47.9321	10,555.7	42.8155	10,555.7	48.0653	10,555.7	46.617	10,555.7	49.9743	10,555.7	47.9461	10,555.7	30.2805
10,927.7	78.1002	10,927.7	78.1694	10,927.7	78.6401	10,927.7	76.649	10,927.7	77.0169	10,927.7	75.3384	10,927.7	75.6642	10,927.7	72.505	10,927.7	72.9971	10,927.7	69.6257	10,927.7	70.0234	10,927.7	67.7825	10,927.7	68.3164	10,927.7	64.1475	10,927.7	65.0426	10,927.7	62.3829	10,927.7	63.0075	10,927.7	58.6756	10,927.7	59.6183	10,927.7	55.0189	10,927.7	57.3177	10,927.7	53.0964	10,927.7	54.87	10,927.7	49.5692	10,927.7	53.759	10,927.7	52.7281	10,927.7	51.6077	10,927.7	49.0264	10,927.7	52.0521	10,927.7	44.1942	10,927.7	47.6576	10,927.7	50.9653	10,927.7	48.0046	10,927.7	49.6594	10,927.7	47.534	10,927.7	37.7619
11,313	77.9525	11,313	78.0502	11,313	78.6825	11,313	76.3355	11,313	76.9362	11,313	74.9563	11,313	75.803	11,313	72.0087	11,313	72.8064	11,313	69.1247	11,313	70.079	11,313	67.5687	11,313	68.1904	11,313	64.5301	11,313	66.2035	11,313	62.5718	11,313	62.4986	11,313	59.7827	11,313	60.0739	11,313	56.121	11,313	57.3553	11,313	53.4965	11,313	53.8986	11,313	52.4577	11,313	50.5024	11,313	52.4901	11,313	55.183	11,313	50.1033	11,313	52.742	11,313	43.6017	11,313	45.2351	11,313	49.9764	11,313	44.3855	11,313	48.3298	11,313	48.1302	11,313	42.7797
11,712.9	77.5551	11,712.9	77.7786	11,712.9	78.0389	11,712.9	76.4648	11,712.9	77.0533	11,712.9	74.984	11,712.9	75.2619	11,712.9	72.1655	11,712.9	72.7659	11,712.9	68.1568	11,712.9	69.2045	11,712.9	68.0552	11,712.9	67.818	11,712.9	64.983	11,712.9	65.4572	11,712.9	62.3901	11,712.9	63.1847	11,712.9	58.5615	11,712.9	59.4311	11,712.9	56.7472	11,712.9	57.2946	11,712.9	54.2232	11,712.9	53.1983	11,712.9	49.7407	11,712.9	50.7866	11,712.9	52.1228	11,712.9	54.5021	11,712.9	52.3062	11,712.9	52.3192	11,712.9	44.9841	11,712.9	47.3876	11,712.9	51.3503	11,712.9	47.3827	11,712.9	50.4227	11,712.9	46.8333	11,712.9	39.1769
12,126	77.8432	12,126	77.5914	12,126	77.7165	12,126	76.8115	12,126	77.2514	12,126	74.3404	12,126	74.7939	12,126	72.1347	12,126	72.5586	12,126	68.7645	12,126	68.4558	12,126	67.9493	12,126	67.8799	12,126	64.3039	12,126	65.0466	12,126	61.7653	12,126	61.6905	12,126	58.7441	12,126	59.1707	12,126	57.185	12,126	56.4589	12,126	53.8881	12,126	52.0993	12,126	50.4627	12,126	52.5531	12,126	54.1073	12,126	55.5326	12,126	50.7328	12,126	52.0513	12,126	43.5611	12,126	47.7739	12,126	52.6736	12,126	48.1382	12,126	50.0522	12,126	46.0726	12,126	40.3828
12,553.7	78.1745	12,553.7	77.7761	12,553.7	77.6735	12,553.7	76.9493	12,553.7	77.1699	12,553.7	74.3784	12,553.7	74.851	12,553.7	72.1543	12,553.7	72.4117	12,553.7	68.9606	12,553.7	68.7885	12,553.7	66.8541	12,553.7	66.686	12,553.7	63.4307	12,553.7	63.078	12,553.7	61.9582	12,553.7	60.1005	12,553.7	59.9353	12,553.7	59.0405	12,553.7	57.2866	12,553.7	53.9813	12,553.7	54.2474	12,553.7	52.0544	12,553.7	50.1147	12,553.7	51.0981	12,553.7	54.4793	12,553.7	53.0206	12,553.7	49.8934	12,553.7	49.243	12,553.7	43.4898	12,553.7	44.5004	12,553.7	52.6741	12,553.7	43.9319	12,553.7	49.9102	12,553.7	46.5625	12,553.7	40.0299
12,996.1	78.9059	12,996.1	78.3084	12,996.1	78.4535	12,996.1	77.1828	12,996.1	77.1527	12,996.1	74.5695	12,996.1	74.8317	12,996.1	71.9967	12,996.1	71.5693	12,996.1	68.1565	12,996.1	67.993	12,996.1	65.025	12,996.1	63.7963	12,996.1	61.993	12,996.1	62.5085	12,996.1	61.1185	12,996.1	60.819	12,996.1	58.9174	12,996.1	59.2932	12,996.1	55.3312	12,996.1	55.0949	12,996.1	53.5651	12,996.1	51.195	12,996.1	48.4506	12,996.1	50.3367	12,996.1	52.1371	12,996.1	51.4271	12,996.1	49.9154	12,996.1	48.8383	12,996.1	42.2478	12,996.1	43.769	12,996.1	50.6941	12,996.1	45.5566	12,996.1	48.5751	12,996.1	42.8474	12,996.1	41.6026
13,454.6	80.3118	13,454.6	79.2693	13,454.6	79.5001	13,454.6	77.4637	13,454.6	77.8838	13,454.6	74.5354	13,454.6	74.8491	13,454.6	71.6742	13,454.6	71.1317	13,454.6	66.7495	13,454.6	65.1456	13,454.6	63.2641	13,454.6	60.3006	13,454.6	60.2591	13,454.6	59.9214	13,454.6	58.0858	13,454.6	57.5606	13,454.6	56.7197	13,454.6	56.872	13,454.6	53.067	13,454.6	52.6734	13,454.6	50.8198	13,454.6	50.2511	13,454.6	46.4572	13,454.6	47.9824	13,454.6	48.2011	13,454.6	48.8712	13,454.6	46.8104	13,454.6	45.8052	13,454.6	37.3062	13,454.6	40.5465	13,454.6	48.1463	13,454.6	44.6922	13,454.6	45.9197	13,454.6	42.9935	13,454.6	38.2053
13,929.2	81.3801	13,929.2	80.1516	13,929.2	80.5293	13,929.2	77.9468	13,929.2	78.332	13,929.2	74.5308	13,929.2	74.5906	13,929.2	70.377	13,929.2	69.7843	13,929.2	64.3818	13,929.2	62.4111	13,929.2	59.3978	13,929.2	55.0521	13,929.2	52.4342	13,929.2	45.9764	13,929.2	53.6162	13,929.2	53.3205	13,929.2	53.5632	13,929.2	52.3753	13,929.2	49.7501	13,929.2	49.1886	13,929.2	46.647	13,929.2	46.4527	13,929.2	42.7152	13,929.2	45.2874	13,929.2	46.4043	13,929.2	45.3222	13,929.2	44.4409	13,929.2	40.378	13,929.2	37.8652	13,929.2	33.8901	13,929.2	45.4692	13,929.2	37.7686	13,929.2	43.6985	13,929.2	41.2593	13,929.2	36.5568
14,419.9	81.8088	14,419.9	80.5423	14,419.9	80.9881	14,419.9	77.718	14,419.9	78.1524	14,419.9	73.1906	14,419.9	73.3827	14,419.9	67.4419	14,419.9	66.2443	14,419.9	61.7124	14,419.9	59.7124	14,419.9	56.4004	14,419.9	57.8804	14,419.9	49.6725	14,419.9	56.5906	14,419.9	51.3227	14,419.9	53.9955	14,419.9	49.7635	14,419.9	49.2721	14,419.9	44.4169	14,419.9	44.5887	14,419.9	42.1258	14,419.9	41.4331	14,419.9	38.8943	14,419.9	41.1492	14,419.9	41.4886	14,419.9	34.1153	14,419.9	36.1148	14,419.9	33.9611	14,419.9	30.7559	14,419.9	27.7035	14,419.9	39.4221	14,419.9	24.9608	14,419.9	34.4398	14,419.9	38.2034	14,419.9	35.1101
14,928.2	81.126	14,928.2	79.9044	14,928.2	80.3215	14,928.2	76.4883	14,928.2	77.1068	14,928.2	70.6039	14,928.2	71.0583	14,928.2	62.4577	14,928.2	59.367	14,928.2	61.0433	14,928.2	61.2535	14,928.2	59.6274	14,928.2	62.5188	14,928.2	57.3145	14,928.2	61.2934	14,928.2	53.6955	14,928.2	57.2735	14,928.2	48.8544	14,928.2	50.5491	14,928.2	41.4896	14,928.2	46.0893	14,928.2	39.1983	14,928.2	41.2864	14,928.2	33.3388	14,928.2	41.1189	14,928.2	31.479	14,928.2	31.3207	14,928.2	29.9492	14,928.2	32.6774	14,928.2	28.3695	14,928.2	26.3344	14,928.2	32.8556	14,928.2	33.7387	14,928.2	31.5488	14,928.2	35.7507	14,928.2	32.8032
15,455.6	80.2982	15,455.6	79.0452	15,455.6	79.3851	15,455.6	74.9163	15,455.6	75.9027	15,455.6	67.6211	15,455.6	68.6087	15,455.6	56.6888	15,455.6	49.0225	15,455.6	62.0848	15,455.6	63.5876	15,455.6	61.4738	15,455.6	64.1467	15,455.6	58.5998	15,455.6	62.7088	15,455.6	54.6356	15,455.6	58.0577	15,455.6	48.0011	15,455.6	51.2034	15,455.6	42.9985	15,455.6	46.7795	15,455.6	37.2747	15,455.6	42.5686	15,455.6	23.9203	15,455.6	40.6392	15,455.6	26.6119	15,455.6	29.4028	15,455.6	31.9624	15,455.6	33.4693	15,455.6	23.7476	15,455.6	21.7711	15,455.6	33.879	15,455.6	37.8803	15,455.6	27.2805	15,455.6	31.1416	15,455.6	26.6939
16,000.5	79.4458	16,000.5	77.916	16,000.5	78.3279	16,000.5	73.1264	16,000.5	74.4925	16,000.5	64.1774	16,000.5	66.0489	16,000.5	57.907	16,000.5	55.5302	16,000.5	62.7743	16,000.5	64.4443	16,000.5	61.7653	16,000.5	64.5	16,000.5	57.3129	16,000.5	62.1953	16,000.5	53.0392	16,000.5	57.582	16,000.5	44.8442	16,000.5	49.7884	16,000.5	40.4889	16,000.5	46.1001	16,000.5	30.184	16,000.5	40.9512	16,000.5	27.3812	16,000.5	41.2155	16,000.5	28.4194	16,000.5	28.0281	16,000.5	33.2697	16,000.5	33.2143	16,000.5	13.8716	16,000.5	22.0925	16,000.5	25.0938	16,000.5	37.068	16,000.5	27.3613	16,000.5	29.317	16,000.5	23.6428
16,564.5	78.5901	16,564.5	76.5141	16,564.5	77.3187	16,564.5	71.458	16,564.5	72.9509	16,564.5	59.5222	16,564.5	63.6913	16,564.5	60.9883	16,564.5	59.4647	16,564.5	62.559	16,564.5	64.4	16,564.5	60.9012	16,564.5	63.5604	16,564.5	54.3449	16,564.5	60.5934	16,564.5	47.6692	16,564.5	55.3903	16,564.5	38.862	16,564.5	47.7793	16,564.5	30.3792	16,564.5	41.7195	16,564.5	29.6872	16,564.5	40.921	16,564.5	27.1228	16,564.5	39.1831	16,564.5	32.7398	16,564.5	32.2668	16,564.5	30.0194	16,564.5	23.0809	16,564.5	22.8747	16,564.5	26.6604	16,564.5	24.368	16,564.5	38.1035	16,564.5	20.8265	16,564.5	27.4486	16,564.5	29.396
17,148.9	77.6014	17,148.9	75.0632	17,148.9	76.0851	17,148.9	69.8425	17,148.9	71.5435	17,148.9	57.0695	17,148.9	61.6996	17,148.9	61.9133	17,148.9	61.5685	17,148.9	61.371	17,148.9	63.8154	17,148.9	58.5704	17,148.9	62.7502	17,148.9	52.1336	17,148.9	59.9251	17,148.9	37.999	17,148.9	53.2428	17,148.9	17.8936	17,148.9	46.3898	17,148.9	21.9635	17,148.9	42.4315	17,148.9	31.02	17,148.9	40.4061	17,148.9	34.2537	17,148.9	36.3873	17,148.9	34.6057	17,148.9	31.1883	17,148.9	34.167	17,148.9	25.8145	17,148.9	22.5355	17,148.9	28.9953	17,148.9	32.5733	17,148.9	38.5043	17,148.9	35.4533	17,148.9	25.5599	17,148.9	26.4899
17,752.4	76.4342	17,752.4	73.7692	17,752.4	75.0455	17,752.4	68.5872	17,752.4	70.2117	17,752.4	57.4493	17,752.4	59.6039	17,752.4	61.4619	17,752.4	61.4071	17,752.4	59.6885	17,752.4	63.2079	17,752.4	57.1041	17,752.4	62.0763	17,752.4	49.9422	17,752.4	59.137	17,752.4	26.9073	17,752.4	53.8074	17,752.4	33.2259	17,752.4	47.367	17,752.4	32.8106	17,752.4	44.2865	17,752.4	33.357	17,752.4	41.8662	17,752.4	29.6849	17,752.4	38.0536	17,752.4	33.1685	17,752.4	31.6995	17,752.4	33.6702	17,752.4	30.6233	17,752.4	27.0803	17,752.4	32.7437	17,752.4	29.3931	17,752.4	37.4501	17,752.4	36.8699	17,752.4	25.9067	17,752.4	24.3878
18,379.4	74.8193	18,379.4	72.8434	18,379.4	73.9347	18,379.4	67.6275	18,379.4	68.1217	18,379.4	58.8487	18,379.4	57.958	18,379.4	60.2847	18,379.4	61.1487	18,379.4	58.3107	18,379.4	63.7074	18,379.4	57.4052	18,379.4	61.4065	18,379.4	47.4207	18,379.4	58.3101	18,379.4	46.2176	18,379.4	53.1316	18,379.4	45.389	18,379.4	47.6705	18,379.4	41.2847	18,379.4	46.1766	18,379.4	38.2658	18,379.4	42.4967	18,379.4	35.0217	18,379.4	36.372	18,379.4	33.416	18,379.4	28.9335	18,379.4	30.3001	18,379.4	33.9423	18,379.4	25.8524	18,379.4	32.4894	18,379.4	29.3246	18,379.4	37.7788	18,379.4	37.7916	18,379.4	28.6084	18,379.4	27.8902
19,026.9	72.8001	19,026.9	72.3145	19,026.9	72.6367	19,026.9	66.2343	19,026.9	65.084	19,026.9	59.351	19,026.9	56.5409	19,026.9	57.5853	19,026.9	61.7814	19,026.9	59.2489	19,026.9	63.8012	19,026.9	56.3509	19,026.9	60.6483	19,026.9	50.9435	19,026.9	56.9539	19,026.9	51.8887	19,026.9	55.2493	19,026.9	47.9967	19,026.9	49.054	19,026.9	43.5036	19,026.9	46.9119	19,026.9	40.9254	19,026.9	42.7562	19,026.9	35.8786	19,026.9	35.4135	19,026.9	35.9057	19,026.9	33.3088	19,026.9	31.7379	19,026.9	32.1051	19,026.9	28.5514	19,026.9	31.1331	19,026.9	16.0403	19,026.9	36.1372	19,026.9	35.6574	19,026.9	28.3436	19,026.9	27.0041
19,697.8	72.4311	19,697.8	71.7945	19,697.8	71.7046	19,697.8	65.7023	19,697.8	64.1683	19,697.8	57.5264	19,697.8	56.3978	19,697.8	57.8016	19,697.8	61.7857	19,697.8	58.385	19,697.8	63.7196	19,697.8	55.6624	19,697.8	60.3419	19,697.8	53.302	19,697.8	56.9094	19,697.8	49.659	19,697.8	53.4241	19,697.8	45.0558	19,697.8	46.6964	19,697.8	40.1533	19,697.8	43.9532	19,697.8	37.2964	19,697.8	40.1179	19,697.8	35.3388	19,697.8	32.5263	19,697.8	37.3806	19,697.8	36.333	19,697.8	28.3531	19,697.8	26.5083	19,697.8	30.2667	19,697.8	24.4178	19,697.8	21.1941	19,697.8	35.1519	19,697.8	31.1611	19,697.8	17.3635	19,697.8	27.6667
19,999.5	72.7167	19,999.5	71.5339	19,999.5	71.5082	19,999.5	65.1711	19,999.5	64.4813	19,999.5	56.4874	19,999.5	57.6521	19,999.5	57.4835	19,999.5	61.9442	19,999.5	57.25	19,999.5	63.5344	19,999.5	56.4035	19,999.5	60.0267	19,999.5	53.9361	19,999.5	56.468	19,999.5	49.8564	19,999.5	51.239	19,999.5	39.0731	19,999.5	45.0423	19,999.5	39.81	19,999.5	41.3461	19,999.5	29.2101	19,999.5	42.3934	19,999.5	39.9163	19,999.5	37.4361	19,999.5	36.1917	19,999.5	38.0918	19,999.5	35.8024	19,999.5	33.0656	19,999.5	42.4903	19,999.5	37.616	19,999.5	38.8058	19,999.5	42.7907	19,999.5	33.9623	19,999.5	24.9979	19,999.5	32.013
