"SPL Vertical"
"On-Axis"		"10°"		"-10°"		"20°"		"-20°"		"30°"		"-30°"		"40°"		"-40°"		"50°"		"-50°"		"60°"		"-60°"		"70°"		"-70°"		"80°"		"-80°"		"90°"		"-90°"		"100°"		"-100°"		"110°"		"-110°"		"120°"		"-120°"		"130°"		"-130°"		"140°"		"-140°"		"150°"		"-150°"		"160°"		"-160°"		"170°"		"-170°"		"180°"
"Frequency / Hz"	"Sound Pressure Level / dB (re 20 µPa/V)  [2.83  V @ 1. m]"	"Frequency / Hz"	"Sound Pressure Level / dB (re 20 µPa/V)  [2.83  V @ 1. m]"	"Frequency / Hz"	"Sound Pressure Level / dB (re 20 µPa/V)  [2.83  V @ 1. m]"	"Frequency / Hz"	"Sound Pressure Level / dB (re 20 µPa/V)  [2.83  V @ 1. m]"	"Frequency / Hz"	"Sound Pressure Level / dB (re 20 µPa/V)  [2.83  V @ 1. m]"	"Frequency / Hz"	"Sound Pressure Level / dB (re 20 µPa/V)  [2.83  V @ 1. m]"	"Frequency / Hz"	"Sound Pressure Level / dB (re 20 µPa/V)  [2.83  V @ 1. m]"	"Frequency / Hz"	"Sound Pressure Level / dB (re 20 µPa/V)  [2.83  V @ 1. m]"	"Frequency / Hz"	"Sound Pressure Level / dB (re 20 µPa/V)  [2.83  V @ 1. m]"	"Frequency / Hz"	"Sound Pressure Level / dB (re 20 µPa/V)  [2.83  V @ 1. m]"	"Frequency / Hz"	"Sound Pressure Level / dB (re 20 µPa/V)  [2.83  V @ 1. m]"	"Frequency / Hz"	"Sound Pressure Level / dB (re 20 µPa/V)  [2.83  V @ 1. m]"	"Frequency / Hz"	"Sound Pressure Level / dB (re 20 µPa/V)  [2.83  V @ 1. m]"	"Frequency / Hz"	"Sound Pressure Level / dB (re 20 µPa/V)  [2.83  V @ 1. m]"	"Frequency / Hz"	"Sound Pressure Level / dB (re 20 µPa/V)  [2.83  V @ 1. m]"	"Frequency / Hz"	"Sound Pressure Level / dB (re 20 µPa/V)  [2.83  V @ 1. m]"	"Frequency / Hz"	"Sound Pressure Level / dB (re 20 µPa/V)  [2.83  V @ 1. m]"	"Frequency / Hz"	"Sound Pressure Level / dB (re 20 µPa/V)  [2.83  V @ 1. m]"	"Frequency / Hz"	"Sound Pressure Level / dB (re 20 µPa/V)  [2.83  V @ 1. m]"	"Frequency / Hz"	"Sound Pressure Level / dB (re 20 µPa/V)  [2.83  V @ 1. m]"	"Frequency / Hz"	"Sound Pressure Level / dB (re 20 µPa/V)  [2.83  V @ 1. m]"	"Frequency / Hz"	"Sound Pressure Level / dB (re 20 µPa/V)  [2.83  V @ 1. m]"	"Frequency / Hz"	"Sound Pressure Level / dB (re 20 µPa/V)  [2.83  V @ 1. m]"	"Frequency / Hz"	"Sound Pressure Level / dB (re 20 µPa/V)  [2.83  V @ 1. m]"	"Frequency / Hz"	"Sound Pressure Level / dB (re 20 µPa/V)  [2.83  V @ 1. m]"	"Frequency / Hz"	"Sound Pressure Level / dB (re 20 µPa/V)  [2.83  V @ 1. m]"	"Frequency / Hz"	"Sound Pressure Level / dB (re 20 µPa/V)  [2.83  V @ 1. m]"	"Frequency / Hz"	"Sound Pressure Level / dB (re 20 µPa/V)  [2.83  V @ 1. m]"	"Frequency / Hz"	"Sound Pressure Level / dB (re 20 µPa/V)  [2.83  V @ 1. m]"	"Frequency / Hz"	"Sound Pressure Level / dB (re 20 µPa/V)  [2.83  V @ 1. m]"	"Frequency / Hz"	"Sound Pressure Level / dB (re 20 µPa/V)  [2.83  V @ 1. m]"	"Frequency / Hz"	"Sound Pressure Level / dB (re 20 µPa/V)  [2.83  V @ 1. m]"	"Frequency / Hz"	"Sound Pressure Level / dB (re 20 µPa/V)  [2.83  V @ 1. m]"	"Frequency / Hz"	"Sound Pressure Level / dB (re 20 µPa/V)  [2.83  V @ 1. m]"	"Frequency / Hz"	"Sound Pressure Level / dB (re 20 µPa/V)  [2.83  V @ 1. m]"	"Frequency / Hz"	"Sound Pressure Level / dB (re 20 µPa/V)  [2.83  V @ 1. m]"
20.5078	58.869	20.5078	58.8438	20.5078	58.9145	20.5078	58.8459	20.5078	58.972	20.5078	58.8791	20.5078	59.0331	20.5078	58.943	20.5078	59.0915	20.5078	59.0334	20.5078	59.1432	20.5078	59.1434	20.5078	59.1868	20.5078	59.2646	20.5078	59.2229	20.5078	59.3887	20.5078	59.254	20.5078	59.5084	20.5078	59.283	20.5078	59.6172	20.5078	59.3133	20.5078	59.7101	20.5078	59.3475	20.5078	59.7831	20.5078	59.3874	20.5078	59.8333	20.5078	59.4341	20.5078	59.8589	20.5078	59.4878	20.5078	59.8598	20.5078	59.5477	20.5078	59.8379	20.5078	59.6122	20.5078	59.7968	20.5078	59.6782	20.5078	59.7416
21.9727	57.9156	21.9727	57.7255	21.9727	58.0899	21.9727	57.5305	21.9727	58.2393	21.9727	57.3424	21.9727	58.3569	21.9727	57.1722	21.9727	58.4379	21.9727	57.0291	21.9727	58.4791	21.9727	56.9186	21.9727	58.4793	21.9727	56.8425	21.9727	58.4391	21.9727	56.7993	21.9727	58.3607	21.9727	56.7848	21.9727	58.2489	21.9727	56.7936	21.9727	58.1106	21.9727	56.8194	21.9727	57.9544	21.9727	56.8561	21.9727	57.7907	21.9727	56.8979	21.9727	57.63	21.9727	56.9405	21.9727	57.482	21.9727	56.9813	21.9727	57.354	21.9727	57.0205	21.9727	57.2498	21.9727	57.061	21.9727	57.1692	21.9727	57.1084
23.4375	60.341	23.4375	60.1859	23.4375	60.4869	23.4375	60.0299	23.4375	60.616	23.4375	59.8808	23.4375	60.7216	23.4375	59.7454	23.4375	60.799	23.4375	59.6281	23.4375	60.8447	23.4375	59.5316	23.4375	60.8574	23.4375	59.4562	23.4375	60.837	23.4375	59.401	23.4375	60.7853	23.4375	59.3642	23.4375	60.7053	23.4375	59.3437	23.4375	60.6016	23.4375	59.3373	23.4375	60.4796	23.4375	59.3434	23.4375	60.3457	23.4375	59.3607	23.4375	60.2063	23.4375	59.3884	23.4375	60.0677	23.4375	59.4267	23.4375	59.9356	23.4375	59.4763	23.4375	59.8145	23.4375	59.5387	23.4375	59.7072	23.4375	59.6153
24.9023	61.3012	24.9023	61.1556	24.9023	61.4363	24.9023	61.0062	24.9023	61.5546	24.9023	60.8591	24.9023	61.6508	24.9023	60.7198	24.9023	61.7204	24.9023	60.5923	24.9023	61.7604	24.9023	60.4793	24.9023	61.7692	24.9023	60.3821	24.9023	61.7463	24.9023	60.3012	24.9023	61.6926	24.9023	60.2364	24.9023	61.6102	24.9023	60.1872	24.9023	61.5026	24.9023	60.1531	24.9023	61.3743	24.9023	60.1342	24.9023	61.2307	24.9023	60.1308	24.9023	61.0779	24.9023	60.1436	24.9023	60.9221	24.9023	60.1741	24.9023	60.7695	24.9023	60.2239	24.9023	60.6261	24.9023	60.2941	24.9023	60.4967	24.9023	60.3853
26.3672	62.2069	26.3672	62.0836	26.3672	62.319	26.3672	61.9546	26.3672	62.4148	26.3672	61.825	26.3672	62.4899	26.3672	61.6993	26.3672	62.5406	26.3672	61.5813	26.3672	62.5643	26.3672	61.4736	26.3672	62.5593	26.3672	61.3778	26.3672	62.5252	26.3672	61.2947	26.3672	62.4627	26.3672	61.2247	26.3672	62.3742	26.3672	61.1676	26.3672	62.263	26.3672	61.1236	26.3672	62.1341	26.3672	61.0928	26.3672	61.9931	26.3672	61.0757	26.3672	61.8466	26.3672	61.0732	26.3672	61.701	26.3672	61.0865	26.3672	61.5625	26.3672	61.1173	26.3672	61.4365	26.3672	61.1671	26.3672	61.3271	26.3672	61.2369
27.832	63.1264	27.832	63.0136	27.832	63.234	27.832	62.9002	27.832	63.3319	27.832	62.7903	27.832	63.4156	27.832	62.6873	27.832	63.481	27.832	62.594	27.832	63.5249	27.832	62.5123	27.832	63.5448	27.832	62.4433	27.832	63.5396	27.832	62.3878	27.832	63.5095	27.832	62.3458	27.832	63.4558	27.832	62.3174	27.832	63.3815	27.832	62.3023	27.832	63.2902	27.832	62.3005	27.832	63.1867	27.832	62.3118	27.832	63.0758	27.832	62.336	27.832	62.9624	27.832	62.373	27.832	62.8509	27.832	62.4229	27.832	62.745	27.832	62.4856	27.832	62.6476	27.832	62.5607
29.2969	64.3497	29.2969	64.2315	29.2969	64.4583	29.2969	64.1083	29.2969	64.5524	29.2969	63.9845	29.2969	64.6278	29.2969	63.8642	29.2969	64.6806	29.2969	63.7504	29.2969	64.7081	29.2969	63.6455	29.2969	64.7085	29.2969	63.5514	29.2969	64.681	29.2969	63.4693	29.2969	64.6264	29.2969	63.4	29.2969	64.5465	29.2969	63.3443	29.2969	64.4448	29.2969	63.3028	29.2969	64.3255	29.2969	63.2758	29.2969	64.194	29.2969	63.2642	29.2969	64.056	29.2969	63.2684	29.2969	63.9176	29.2969	63.2893	29.2969	63.7844	29.2969	63.3276	29.2969	63.6611	29.2969	63.3841	29.2969	63.5518	29.2969	63.459
30.7617	64.8725	30.7617	64.7599	30.7617	64.9756	30.7617	64.6421	30.7617	65.0648	30.7617	64.5229	30.7617	65.1362	30.7617	64.406	30.7617	65.1862	30.7617	64.2942	30.7617	65.2121	30.7617	64.1897	30.7617	65.212	30.7617	64.0942	30.7617	65.1851	30.7617	64.0092	30.7617	65.1318	30.7617	63.9357	30.7617	65.0537	30.7617	63.8747	30.7617	64.9536	30.7617	63.8271	30.7617	64.8354	30.7617	63.7939	30.7617	64.7043	30.7617	63.7762	30.7617	64.5658	30.7617	63.7751	30.7617	64.426	30.7617	63.7919	30.7617	64.2905	30.7617	63.8276	30.7617	64.1647	30.7617	63.8831	30.7617	64.053	30.7617	63.9585
32.2266	65.8192	32.2266	65.7156	32.2266	65.9149	32.2266	65.6076	32.2266	65.9992	32.2266	65.4987	32.2266	66.0687	32.2266	65.3916	32.2266	66.1202	32.2266	65.2892	32.2266	66.1512	32.2266	65.1936	32.2266	66.1598	32.2266	65.1069	32.2266	66.145	32.2266	65.0307	32.2266	66.1069	32.2266	64.9664	32.2266	66.0466	32.2266	64.9154	32.2266	65.9665	32.2266	64.8788	32.2266	65.8698	32.2266	64.8575	32.2266	65.7605	32.2266	64.8524	32.2266	65.643	32.2266	64.8644	32.2266	65.5219	32.2266	64.8938	32.2266	65.4016	32.2266	64.9408	32.2266	65.2863	32.2266	65.0049	32.2266	65.1797	32.2266	65.0851
33.6914	66.1863	33.6914	66.0791	33.6914	66.2869	33.6914	65.9688	33.6914	66.3772	33.6914	65.8588	33.6914	66.4535	33.6914	65.7522	33.6914	66.5123	33.6914	65.6516	33.6914	66.5507	33.6914	65.5594	33.6914	66.5665	33.6914	65.4774	33.6914	66.5583	33.6914	65.4073	33.6914	66.526	33.6914	65.3504	33.6914	66.4709	33.6914	65.3079	33.6914	66.3953	33.6914	65.2806	33.6914	66.3027	33.6914	65.2694	33.6914	66.1973	33.6914	65.2745	33.6914	66.0838	33.6914	65.2962	33.6914	65.9667	33.6914	65.3343	33.6914	65.8502	33.6914	65.3882	33.6914	65.7382	33.6914	65.4569	33.6914	65.6337	33.6914	65.5393
35.1562	66.8688	35.1562	66.7569	35.1562	66.9759	35.1562	66.644	35.1562	67.0741	35.1562	66.5339	35.1562	67.1594	35.1562	66.4296	35.1562	67.2279	35.1562	66.3339	35.1562	67.2765	35.1562	66.2489	35.1562	67.3029	35.1562	66.1764	35.1562	67.3057	35.1562	66.1179	35.1562	67.2848	35.1562	66.0745	35.1562	67.2413	35.1562	66.047	35.1562	67.1774	35.1562	66.0359	35.1562	67.0965	35.1562	66.0413	35.1562	67.0026	35.1562	66.0629	35.1562	66.8998	35.1562	66.1002	35.1562	66.7923	35.1562	66.1519	35.1562	66.6838	35.1562	66.2169	35.1562	66.5773	35.1562	66.2936	35.1562	66.4755	35.1562	66.3803
36.6211	67.5524	36.6211	67.4507	36.6211	67.6479	36.6211	67.3462	36.6211	67.7335	36.6211	67.2421	36.6211	67.8054	36.6211	67.1412	36.6211	67.8603	36.6211	67.0462	36.6211	67.8953	36.6211	66.9593	36.6211	67.9084	36.6211	66.8824	36.6211	67.8986	36.6211	66.8173	36.6211	67.8662	36.6211	66.7655	36.6211	67.8129	36.6211	66.7283	36.6211	67.7415	36.6211	66.7065	36.6211	67.6557	36.6211	66.7008	36.6211	67.5599	36.6211	66.7113	36.6211	67.4582	36.6211	66.7374	36.6211	67.3546	36.6211	66.7784	36.6211	67.2523	36.6211	66.8328	36.6211	67.1539	36.6211	66.8992	36.6211	67.0612	36.6211	66.9758
38.0859	68.3516	38.0859	68.242	38.0859	68.4496	38.0859	68.1246	38.0859	68.5324	38.0859	68.003	38.0859	68.5969	38.0859	67.8807	38.0859	68.6401	38.0859	67.7611	38.0859	68.66	38.0859	67.6469	38.0859	68.6549	38.0859	67.541	38.0859	68.6244	38.0859	67.4456	38.0859	68.5689	38.0859	67.3628	38.0859	68.49	38.0859	67.2945	38.0859	68.3906	38.0859	67.2423	38.0859	68.2744	38.0859	67.2077	38.0859	68.1462	38.0859	67.1917	38.0859	68.0111	38.0859	67.1952	38.0859	67.8746	38.0859	67.2185	38.0859	67.7416	38.0859	67.2617	38.0859	67.6168	38.0859	67.3244	38.0859	67.5038	38.0859	67.4056
39.5508	68.615	39.5508	68.5154	39.5508	68.7118	39.5508	68.4163	39.5508	68.8024	39.5508	68.3206	39.5508	68.8829	39.5508	68.2308	39.5508	68.9499	39.5508	68.1492	39.5508	68.9999	39.5508	68.0779	39.5508	69.0305	39.5508	68.0186	39.5508	69.04	39.5508	67.9726	39.5508	69.028	39.5508	67.941	39.5508	68.9952	39.5508	67.9243	39.5508	68.9437	39.5508	67.9228	39.5508	68.8764	39.5508	67.936	39.5508	68.7969	39.5508	67.9633	39.5508	68.7092	39.5508	68.0035	39.5508	68.6172	39.5508	68.055	39.5508	68.5243	39.5508	68.1164	39.5508	68.433	39.5508	68.186	39.5508	68.3454	39.5508	68.2627
41.0156	69.0773	41.0156	68.9791	41.0156	69.1718	41.0156	68.8807	41.0156	69.259	41.0156	68.7854	41.0156	69.3349	41.0156	68.696	41.0156	69.3963	41.0156	68.6153	41.0156	69.4401	41.0156	68.5456	41.0156	69.4642	41.0156	68.4888	41.0156	69.4677	41.0156	68.4463	41.0156	69.4508	41.0156	68.4194	41.0156	69.4151	41.0156	68.4085	41.0156	69.3634	41.0156	68.4135	41.0156	69.2992	41.0156	68.4338	41.0156	69.2264	41.0156	68.468	41.0156	69.1488	41.0156	68.5141	41.0156	69.0698	41.0156	68.5696	41.0156	68.9916	41.0156	68.632	41.0156	68.9152	41.0156	68.699	41.0156	68.8411	41.0156	68.769
42.4805	69.1678	42.4805	69.0271	42.4805	69.2962	42.4805	68.8781	42.4805	69.4081	42.4805	68.7253	42.4805	69.4997	42.4805	68.5729	42.4805	69.5673	42.4805	68.4253	42.4805	69.6077	42.4805	68.2871	42.4805	69.6188	42.4805	68.1626	42.4805	69.5991	42.4805	68.0558	42.4805	69.5487	42.4805	67.97	42.4805	69.469	42.4805	67.9076	42.4805	69.3629	42.4805	67.8699	42.4805	69.2349	42.4805	67.8572	42.4805	69.0907	42.4805	67.8685	42.4805	68.9367	42.4805	67.9022	42.4805	68.7794	42.4805	67.9563	42.4805	68.6251	42.4805	68.0288	42.4805	68.4789	42.4805	68.1182	42.4805	68.3443	42.4805	68.2237
43.9453	69.9957	43.9453	69.8809	43.9453	70.1069	43.9453	69.7662	43.9453	70.2105	43.9453	69.6552	43.9453	70.3024	43.9453	69.5513	43.9453	70.3788	43.9453	69.4573	43.9453	70.4361	43.9453	69.3759	43.9453	70.4718	43.9453	69.3093	43.9453	70.4841	43.9453	69.2593	43.9453	70.4724	43.9453	69.2268	43.9453	70.4376	43.9453	69.2124	43.9453	70.3817	43.9453	69.2157	43.9453	70.3079	43.9453	69.2358	43.9453	70.2199	43.9453	69.2714	43.9453	70.1221	43.9453	69.3206	43.9453	70.0187	43.9453	69.3814	43.9453	69.9139	43.9453	69.4521	43.9453	69.8107	43.9453	69.5314	43.9453	69.7116	43.9453	69.6182
45.4102	70.6443	45.4102	70.5287	45.4102	70.7508	45.4102	70.4072	45.4102	70.8447	45.4102	70.2834	45.4102	70.9228	45.4102	70.1609	45.4102	70.9822	45.4102	70.0432	45.4102	71.0201	45.4102	69.9337	45.4102	71.0346	45.4102	69.8356	45.4102	71.0245	45.4102	69.7518	45.4102	70.9897	45.4102	69.6848	45.4102	70.9315	45.4102	69.6364	45.4102	70.852	45.4102	69.608	45.4102	70.7547	45.4102	69.6001	45.4102	70.6438	45.4102	69.6126	45.4102	70.5237	45.4102	69.6446	45.4102	70.3992	45.4102	69.6947	45.4102	70.2747	45.4102	69.7611	45.4102	70.1539	45.4102	69.8419	45.4102	70.0401	45.4102	69.9354
46.875	71.132	46.875	71.0232	46.875	71.2328	46.875	70.9095	46.875	71.3226	46.875	70.7936	46.875	71.3985	46.875	70.6781	46.875	71.4574	46.875	70.5658	46.875	71.497	46.875	70.4591	46.875	71.5151	46.875	70.3607	46.875	71.5105	46.875	70.2735	46.875	71.4828	46.875	70.1999	46.875	71.4327	46.875	70.1427	46.875	71.3619	46.875	70.1042	46.875	71.2728	46.875	70.0864	46.875	71.1685	46.875	70.0905	46.875	71.0525	46.875	70.1172	46.875	70.9285	46.875	70.1663	46.875	70.8003	46.875	70.2365	46.875	70.6718	46.875	70.3255	46.875	70.5471	46.875	70.4303
48.3398	71.4633	48.3398	71.3462	48.3398	71.5738	48.3398	71.2265	48.3398	71.6734	48.3398	71.1079	48.3398	71.7583	48.3398	70.9936	48.3398	71.8248	48.3398	70.886	48.3398	71.8704	48.3398	70.7872	48.3398	71.893	48.3398	70.6988	48.3398	71.8917	48.3398	70.6223	48.3398	71.8666	48.3398	70.5594	48.3398	71.819	48.3398	70.512	48.3398	71.7509	48.3398	70.4821	48.3398	71.6652	48.3398	70.4717	48.3398	71.5651	48.3398	70.4825	48.3398	71.4542	48.3398	70.5154	48.3398	71.3356	48.3398	70.5705	48.3398	71.2124	48.3398	70.6461	48.3398	71.0877	48.3398	70.7397	48.3398	70.9647	48.3398	70.8473
51.2695	72.1013	51.2695	71.9942	51.2695	72.2072	51.2695	71.8898	51.2695	72.3082	51.2695	71.7911	51.2695	72.3999	51.2695	71.7011	51.2695	72.4786	51.2695	71.6222	51.2695	72.5405	51.2695	71.5563	51.2695	72.5826	51.2695	71.5049	51.2695	72.603	51.2695	71.4693	51.2695	72.601	51.2695	71.4499	51.2695	72.5771	51.2695	71.4468	51.2695	72.533	51.2695	71.4592	51.2695	72.4715	51.2695	71.4861	51.2695	72.3961	51.2695	71.5259	51.2695	72.3108	51.2695	71.5767	51.2695	72.2194	51.2695	71.6368	51.2695	72.1259	51.2695	71.7045	51.2695	72.0333	51.2695	71.7787	51.2695	71.9437	51.2695	71.8586
52.7344	72.4175	52.7344	72.2993	52.7344	72.5369	52.7344	72.1871	52.7344	72.6527	52.7344	72.0852	52.7344	72.7604	52.7344	71.9977	52.7344	72.8561	52.7344	71.9282	52.7344	72.9365	52.7344	71.8795	52.7344	72.9997	52.7344	71.8537	52.7344	73.0449	52.7344	71.8519	52.7344	73.0725	52.7344	71.8741	52.7344	73.0839	52.7344	71.9192	52.7344	73.0811	52.7344	71.9849	52.7344	73.0662	52.7344	72.068	52.7344	73.0407	52.7344	72.1644	52.7344	73.0059	52.7344	72.2697	52.7344	72.962	52.7344	72.3789	52.7344	72.9087	52.7344	72.4873	52.7344	72.8454	52.7344	72.5908	52.7344	72.7712	52.7344	72.6861
54.1992	72.7961	54.1992	72.672	54.1992	72.9146	54.1992	72.5474	54.1992	73.0232	54.1992	72.4269	54.1992	73.1175	54.1992	72.3156	54.1992	73.1942	54.1992	72.218	54.1992	73.251	54.1992	72.1386	54.1992	73.2871	54.1992	72.0813	54.1992	73.3032	54.1992	72.049	54.1992	73.3013	54.1992	72.0436	54.1992	73.2849	54.1992	72.0658	54.1992	73.2575	54.1992	72.1145	54.1992	73.2229	54.1992	72.1869	54.1992	73.1838	54.1992	72.2788	54.1992	73.1412	54.1992	72.3847	54.1992	73.0947	54.1992	72.4981	54.1992	73.0421	54.1992	72.6125	54.1992	72.9805	54.1992	72.7216	54.1992	72.9072	54.1992	72.8207
55.6641	73.6405	55.6641	73.5386	55.6641	73.7248	55.6641	73.4217	55.6641	73.7887	55.6641	73.293	55.6641	73.8302	55.6641	73.1563	55.6641	73.8475	55.6641	73.0157	55.6641	73.8392	55.6641	72.8759	55.6641	73.8049	55.6641	72.7417	55.6641	73.7453	55.6641	72.6183	55.6641	73.6625	55.6641	72.5105	55.6641	73.5601	55.6641	72.4226	55.6641	73.443	55.6641	72.3579	55.6641	73.3171	55.6641	72.3186	55.6641	73.1883	55.6641	72.3052	55.6641	73.0619	55.6641	72.3166	55.6641	72.942	55.6641	72.3502	55.6641	72.8304	55.6641	72.4023	55.6641	72.7276	55.6641	72.469	55.6641	72.6331	55.6641	72.5467
58.5938	74.6331	58.5938	74.5262	58.5938	74.7185	58.5938	74.4008	58.5938	74.7799	58.5938	74.2604	58.5938	74.8151	58.5938	74.1088	58.5938	74.8223	58.5938	73.9503	58.5938	74.8004	58.5938	73.7894	58.5938	74.7488	58.5938	73.6305	58.5938	74.668	58.5938	73.4781	58.5938	74.5595	58.5938	73.3365	58.5938	74.4258	58.5938	73.2095	58.5938	74.2713	58.5938	73.1006	58.5938	74.1012	58.5938	73.0128	58.5938	73.9219	58.5938	72.9484	58.5938	73.7405	58.5938	72.9093	58.5938	73.5641	58.5938	72.8971	58.5938	73.3995	58.5938	72.9126	58.5938	73.2525	58.5938	72.9564	58.5938	73.1277	58.5938	73.0284
60.0586	74.8076	60.0586	74.6919	60.0586	74.9043	60.0586	74.5608	60.0586	74.9787	60.0586	74.4184	60.0586	75.0279	60.0586	74.2683	60.0586	75.0496	60.0586	74.1145	60.0586	75.0425	60.0586	73.9603	60.0586	75.0058	60.0586	73.809	60.0586	74.9393	60.0586	73.6638	60.0586	74.844	60.0586	73.5277	60.0586	74.7217	60.0586	73.4035	60.0586	74.5751	60.0586	73.2943	60.0586	74.4083	60.0586	73.2032	60.0586	74.2265	60.0586	73.1337	60.0586	74.0361	60.0586	73.0892	60.0586	73.8445	60.0586	73.0736	60.0586	73.6598	60.0586	73.0899	60.0586	73.4902	60.0586	73.1403	60.0586	73.3433	60.0586	73.2254
62.9883	75.1494	62.9883	75.0468	62.9883	75.2386	62.9883	74.9337	62.9883	75.3118	62.9883	74.8133	62.9883	75.367	62.9883	74.6891	62.9883	75.4024	62.9883	74.5645	62.9883	75.4166	62.9883	74.4431	62.9883	75.4085	62.9883	74.328	62.9883	75.3774	62.9883	74.2222	62.9883	75.3232	62.9883	74.1281	62.9883	75.2466	62.9883	74.0481	62.9883	75.1491	62.9883	73.9839	62.9883	75.0333	62.9883	73.9374	62.9883	74.9027	62.9883	73.9099	62.9883	74.7618	62.9883	73.903	62.9883	74.616	62.9883	73.918	62.9883	74.4712	62.9883	73.9561	62.9883	74.3336	62.9883	74.0178	62.9883	74.2092	62.9883	74.1028
64.4531	75.2926	64.4531	75.1911	64.4531	75.3839	64.4531	75.0819	64.4531	75.4627	64.4531	74.968	64.4531	75.5271	64.4531	74.8527	64.4531	75.575	64.4531	74.7392	64.4531	75.6048	64.4531	74.6312	64.4531	75.6148	64.4531	74.5316	64.4531	75.6039	64.4531	74.4432	64.4531	75.5713	64.4531	74.3684	64.4531	75.5174	64.4531	74.3089	64.4531	75.4432	64.4531	74.2662	64.4531	75.3506	64.4531	74.2414	64.4531	75.2423	64.4531	74.2355	64.4531	75.1218	64.4531	74.249	64.4531	74.9936	64.4531	74.2826	64.4531	74.8623	64.4531	74.3365	64.4531	74.7333	64.4531	74.4104	64.4531	74.612	64.4531	74.5031
67.3828	75.6394	67.3828	75.5269	67.3828	75.7462	67.3828	75.4121	67.3828	75.8439	67.3828	75.2985	67.3828	75.9292	67.3828	75.1896	67.3828	75.999	67.3828	75.0887	67.3828	76.0505	67.3828	74.9988	67.3828	76.0816	67.3828	74.9225	67.3828	76.091	67.3828	74.8617	67.3828	76.0786	67.3828	74.818	67.3828	76.045	67.3828	74.792	67.3828	75.9922	67.3828	74.7841	67.3828	75.9222	67.3828	74.7941	67.3828	75.8379	67.3828	74.8218	67.3828	75.7418	67.3828	74.8664	67.3828	75.6369	67.3828	74.9271	67.3828	75.5261	67.3828	75.0028	67.3828	75.4127	67.3828	75.0919	67.3828	75.3	67.3828	75.192
68.8477	75.8745	68.8477	75.7537	68.8477	75.9903	68.8477	75.6321	68.8477	76.0969	68.8477	75.5139	68.8477	76.1901	68.8477	75.4028	68.8477	76.2663	68.8477	75.3023	68.8477	76.3222	68.8477	75.2155	68.8477	76.3559	68.8477	75.1448	68.8477	76.3664	68.8477	75.0918	68.8477	76.3541	68.8477	75.0579	68.8477	76.3205	68.8477	75.0433	68.8477	76.2682	68.8477	75.048	68.8477	76.2003	68.8477	75.0712	68.8477	76.1199	68.8477	75.1118	68.8477	76.0299	68.8477	75.1684	68.8477	75.9327	68.8477	75.2392	68.8477	75.8304	68.8477	75.3222	68.8477	75.7252	68.8477	75.4149	68.8477	75.6192	68.8477	75.5149
71.7773	76.6368	71.7773	76.513	71.7773	76.752	71.7773	76.3856	71.7773	76.854	71.7773	76.2594	71.7773	76.9386	71.7773	76.1391	71.7773	77.0022	71.7773	76.0286	71.7773	77.0422	71.7773	75.9316	71.7773	77.0574	71.7773	75.8507	71.7773	77.0479	71.7773	75.7881	71.7773	77.0148	71.7773	75.7449	71.7773	76.9609	71.7773	75.7217	71.7773	76.8898	71.7773	75.7182	71.7773	76.8054	71.7773	75.7334	71.7773	76.712	71.7773	75.766	71.7773	76.6132	71.7773	75.8141	71.7773	76.512	71.7773	75.8756	71.7773	76.4107	71.7773	75.9485	71.7773	76.3106	71.7773	76.0303	71.7773	76.213	71.7773	76.1191
74.707	77.1459	74.707	77.0278	74.707	77.2535	74.707	76.9035	74.707	77.3464	74.707	76.7779	74.707	77.421	74.707	76.6555	74.707	77.4746	74.707	76.5408	74.707	77.5052	74.707	76.4377	74.707	77.5119	74.707	76.3493	74.707	77.495	74.707	76.2783	74.707	77.4559	74.707	76.2263	74.707	77.3971	74.707	76.194	74.707	77.3216	74.707	76.1813	74.707	77.2333	74.707	76.1875	74.707	77.1358	74.707	76.2111	74.707	77.0329	74.707	76.2506	74.707	76.9276	74.707	76.304	74.707	76.8227	74.707	76.3695	74.707	76.7203	74.707	76.4454	74.707	76.6222	74.707	76.5301
77.6367	77.4711	77.6367	77.353	77.6367	77.5794	77.6367	77.2292	77.6367	77.674	77.6367	77.1041	77.6367	77.7514	77.6367	76.9822	77.6367	77.8091	77.6367	76.8677	77.6367	77.8449	77.6367	76.7645	77.6367	77.8581	77.6367	76.6759	77.6367	77.8486	77.6367	76.6046	77.6367	77.8176	77.6367	76.5525	77.6367	77.7671	77.6367	76.5207	77.6367	77.6997	77.6367	76.5094	77.6367	77.6188	77.6367	76.5182	77.6367	77.5273	77.6367	76.5461	77.6367	77.4284	77.6367	76.5914	77.6367	77.3246	77.6367	76.6524	77.6367	77.2184	77.6367	76.7267	77.6367	77.1118	77.6367	76.8122	77.6367	77.0071	77.6367	76.9065
79.1016	77.7591	79.1016	77.6431	79.1016	77.8654	79.1016	77.5218	79.1016	77.9585	79.1016	77.3993	79.1016	78.0347	79.1016	77.2799	79.1016	78.0913	79.1016	77.1675	79.1016	78.1264	79.1016	77.0658	79.1016	78.139	79.1016	76.978	79.1016	78.1291	79.1016	76.9066	79.1016	78.098	79.1016	76.8534	79.1016	78.0478	79.1016	76.8197	79.1016	77.9813	79.1016	76.806	79.1016	77.9017	79.1016	76.812	79.1016	77.812	79.1016	76.8371	79.1016	77.7148	79.1016	76.8803	79.1016	77.6125	79.1016	76.9397	79.1016	77.5072	79.1016	77.0135	79.1016	77.4008	79.1016	77.0993	79.1016	77.2957	79.1016	77.1943
82.0312	78.266	82.0312	78.1459	82.0312	78.3754	82.0312	78.02	82.0312	78.4698	82.0312	77.8932	82.0312	78.5457	82.0312	77.7704	82.0312	78.6	82.0312	77.6563	82.0312	78.6308	82.0312	77.5549	82.0312	78.6371	82.0312	77.4694	82.0312	78.6193	82.0312	77.402	82.0312	78.5788	82.0312	77.3541	82.0312	78.5182	82.0312	77.3259	82.0312	78.4411	82.0312	77.3167	82.0312	78.3514	82.0312	77.3254	82.0312	78.2532	82.0312	77.3505	82.0312	78.1504	82.0312	77.3901	82.0312	78.0461	82.0312	77.4424	82.0312	77.9431	82.0312	77.5057	82.0312	77.8434	82.0312	77.5787	82.0312	77.7487	82.0312	77.6601
84.9609	78.2612	84.9609	78.1351	84.9609	78.3834	84.9609	78.01	84.9609	78.497	84.9609	77.8909	84.9609	78.5977	84.9609	77.7825	84.9609	78.6818	84.9609	77.6892	84.9609	78.7468	84.9609	77.6147	84.9609	78.7912	84.9609	77.5615	84.9609	78.815	84.9609	77.5313	84.9609	78.8191	84.9609	77.5244	84.9609	78.8057	84.9609	77.5397	84.9609	78.7769	84.9609	77.5752	84.9609	78.7347	84.9609	77.6284	84.9609	78.6808	84.9609	77.6963	84.9609	78.6159	84.9609	77.7759	84.9609	78.5408	84.9609	77.8648	84.9609	78.4563	84.9609	77.9606	84.9609	78.3638	84.9609	78.0609	84.9609	78.2653	84.9609	78.1634
87.8906	78.8461	87.8906	78.7116	87.8906	78.9696	87.8906	78.5722	87.8906	79.0764	87.8906	78.4339	87.8906	79.1615	87.8906	78.3027	87.8906	79.2217	87.8906	78.1841	87.8906	79.2553	87.8906	78.0828	87.8906	79.2626	87.8906	78.0033	87.8906	79.2461	87.8906	77.9486	87.8906	79.2096	87.8906	77.9207	87.8906	79.1583	87.8906	77.9202	87.8906	79.0978	87.8906	77.946	87.8906	79.0328	87.8906	77.9956	87.8906	78.9667	87.8906	78.0651	87.8906	78.9012	87.8906	78.1498	87.8906	78.8357	87.8906	78.244	87.8906	78.7685	87.8906	78.3425	87.8906	78.6969	87.8906	78.4401	87.8906	78.6188	87.8906	78.533
90.8203	79.2253	90.8203	79.0963	90.8203	79.3395	90.8203	78.9577	90.8203	79.4343	90.8203	78.8152	90.8203	79.5059	90.8203	78.6746	90.8203	79.5518	90.8203	78.542	90.8203	79.5708	90.8203	78.4232	90.8203	79.5634	90.8203	78.3236	90.8203	79.532	90.8203	78.2479	90.8203	79.4805	90.8203	78.1995	90.8203	79.4142	90.8203	78.1799	90.8203	79.3392	90.8203	78.189	90.8203	79.2609	90.8203	78.2247	90.8203	79.1835	90.8203	78.2833	90.8203	79.1088	90.8203	78.3595	90.8203	79.0367	90.8203	78.4475	90.8203	78.9652	90.8203	78.5414	90.8203	78.8912	90.8203	78.6359	90.8203	78.8122	90.8203	78.727
95.2148	79.8867	95.2148	79.7464	95.2148	80.0067	95.2148	79.5922	95.2148	80.1007	95.2148	79.431	95.2148	80.164	95.2148	79.2692	95.2148	80.1936	95.2148	79.1131	95.2148	80.1882	95.2148	78.9682	95.2148	80.1488	95.2148	78.8394	95.2148	80.078	95.2148	78.7308	95.2148	79.9809	95.2148	78.6458	95.2148	79.8642	95.2148	78.5865	95.2148	79.7354	95.2148	78.5539	95.2148	79.6027	95.2148	78.5476	95.2148	79.4731	95.2148	78.5654	95.2148	79.3519	95.2148	78.6042	95.2148	79.2413	95.2148	78.6597	95.2148	79.1413	95.2148	78.7271	95.2148	79.0498	95.2148	78.8022	95.2148	78.964	95.2148	78.8816
98.1445	80.2171	98.1445	80.0894	98.1445	80.323	98.1445	79.9447	98.1445	80.403	98.1445	79.7886	98.1445	80.454	98.1445	79.6266	98.1445	80.474	98.1445	79.4647	98.1445	80.4622	98.1445	79.3088	98.1445	80.4189	98.1445	79.1645	98.1445	80.3463	98.1445	79.0371	98.1445	80.2477	98.1445	78.9312	98.1445	80.1282	98.1445	78.8505	98.1445	79.9938	98.1445	78.7973	98.1445	79.8517	98.1445	78.7723	98.1445	79.709	98.1445	78.7742	98.1445	79.5721	98.1445	78.8	98.1445	79.4455	98.1445	78.8452	98.1445	79.3312	98.1445	78.9051	98.1445	79.2291	98.1445	78.9753	98.1445	79.137	98.1445	79.0528
101.074	80.4014	101.074	80.2792	101.074	80.5049	101.074	80.143	101.074	80.5859	101.074	79.9977	101.074	80.6415	101.074	79.8487	101.074	80.6697	101.074	79.7012	101.074	80.6697	101.074	79.5603	101.074	80.6419	101.074	79.4307	101.074	80.588	101.074	79.3168	101.074	80.5109	101.074	79.2224	101.074	80.4143	101.074	79.1503	101.074	80.3029	101.074	79.1029	101.074	80.1818	101.074	79.0809	101.074	80.0558	101.074	79.084	101.074	79.9296	101.074	79.1103	101.074	79.8066	101.074	79.1568	101.074	79.6895	101.074	79.2199	101.074	79.5795	101.074	79.296	101.074	79.4771	101.074	79.3823
105.469	80.547	105.469	80.4088	105.469	80.6649	105.469	80.2562	105.469	80.7575	105.469	80.0959	105.469	80.8211	105.469	79.9349	105.469	80.8533	105.469	79.7803	105.469	80.8533	105.469	79.6384	105.469	80.8217	105.469	79.5149	105.469	80.761	105.469	79.4138	105.469	80.6752	105.469	79.3377	105.469	80.5696	105.469	79.2875	105.469	80.4505	105.469	79.2628	105.469	80.3245	105.469	79.2619	105.469	80.1975	105.469	79.282	105.469	80.0746	105.469	79.3199	105.469	79.9591	105.469	79.3719	105.469	79.8526	105.469	79.4347	105.469	79.7551	105.469	79.5054	105.469	79.6655	105.469	79.5825
108.398	80.8734	108.398	80.728	108.398	80.998	108.398	80.5672	108.398	81.0968	108.398	80.3976	108.398	81.1662	108.398	80.2258	108.398	81.2038	108.398	80.0587	108.398	81.2085	108.398	79.9025	108.398	81.1805	108.398	79.763	108.398	81.1214	108.398	79.6446	108.398	81.0341	108.398	79.5507	108.398	80.9225	108.398	79.4829	108.398	80.7918	108.398	79.4417	108.398	80.6479	108.398	79.426	108.398	80.4969	108.398	79.4338	108.398	80.3453	108.398	79.4623	108.398	80.1988	108.398	79.5083	108.398	80.0619	108.398	79.5691	108.398	79.9375	108.398	79.6427	108.398	79.8264	108.398	79.7284
112.793	81.2434	112.793	81.1213	112.793	81.3454	112.793	80.9846	112.793	81.4234	112.793	80.8394	112.793	81.4746	112.793	80.6928	112.793	81.4984	112.793	80.5515	112.793	81.4957	112.793	80.4222	112.793	81.4693	112.793	80.3106	112.793	81.4233	112.793	80.2208	112.793	81.3627	112.793	80.1555	112.793	81.2926	112.793	80.1158	112.793	81.2172	112.793	80.1011	112.793	81.1391	112.793	80.1097	112.793	81.0588	112.793	80.1392	112.793	80.9757	112.793	80.1868	112.793	80.8884	112.793	80.2498	112.793	80.7964	112.793	80.3256	112.793	80.7002	112.793	80.4114	112.793	80.6019	112.793	80.5046
117.188	81.287	117.188	81.137	117.188	81.4093	117.188	80.9645	117.188	81.4999	117.188	80.7763	117.188	81.5558	117.188	80.5802	117.188	81.5751	117.188	80.3855	117.188	81.5575	117.188	80.2021	117.188	81.5043	117.188	80.0399	117.188	81.4191	117.188	79.9082	117.188	81.3084	117.188	79.8139	117.188	81.181	117.188	79.7614	117.188	81.0478	117.188	79.7511	117.188	80.9191	117.188	79.7799	117.188	80.8033	117.188	79.8413	117.188	80.7044	117.188	79.9264	117.188	80.6214	117.188	80.0257	117.188	80.5489	117.188	80.1297	117.188	80.4795	117.188	80.2308	117.188	80.406	117.188	80.3236
120.117	81.5244	120.117	81.377	120.117	81.6476	120.117	81.2107	120.117	81.7418	120.117	81.0306	120.117	81.8026	120.117	80.8426	120.117	81.8263	120.117	80.6526	120.117	81.8103	120.117	80.4674	120.117	81.754	120.117	80.2941	120.117	81.6592	120.117	80.1398	120.117	81.5305	120.117	80.0115	120.117	81.3753	120.117	79.9148	120.117	81.2035	120.117	79.8536	120.117	81.0266	120.117	79.8289	120.117	80.8557	120.117	79.8382	120.117	80.6999	120.117	79.8766	120.117	80.564	120.117	79.9365	120.117	80.4482	120.117	80.0102	120.117	80.3484	120.117	80.0908	120.117	80.2588	120.117	80.1739
124.512	81.6447	124.512	81.4944	124.512	81.7746	124.512	81.3295	124.512	81.8782	124.512	81.1557	124.512	81.9501	124.512	80.9786	124.512	81.9862	124.512	80.8039	124.512	81.9836	124.512	80.6373	124.512	81.9418	124.512	80.4847	124.512	81.8625	124.512	80.3516	124.512	81.75	124.512	80.2431	124.512	81.6107	124.512	80.1629	124.512	81.4528	124.512	80.1133	124.512	81.286	124.512	80.0941	124.512	81.1198	124.512	80.1032	124.512	80.9627	124.512	80.1363	124.512	80.8207	124.512	80.1881	124.512	80.6961	124.512	80.2529	124.512	80.5878	124.512	80.3264	124.512	80.4925	124.512	80.4062
128.906	81.8851	128.906	81.7378	128.906	82.0092	128.906	81.5737	128.906	82.1046	128.906	81.3989	128.906	82.1665	128.906	81.2196	128.906	82.1918	128.906	81.0413	128.906	82.1794	128.906	80.8693	128.906	82.1296	128.906	80.7086	128.906	82.0449	128.906	80.5641	128.906	81.9291	128.906	80.4407	128.906	81.7876	128.906	80.3425	128.906	81.627	128.906	80.2729	128.906	81.4551	128.906	80.2334	128.906	81.2804	128.906	80.2235	128.906	81.1111	128.906	80.2406	128.906	80.9542	128.906	80.2803	128.906	80.8138	128.906	80.3377	128.906	80.691	128.906	80.4087	128.906	80.5842	128.906	80.4908
133.301	81.9384	133.301	81.8038	133.301	82.0494	133.301	81.651	133.301	82.1325	133.301	81.4862	133.301	82.1848	133.301	81.3153	133.301	82.205	133.301	81.1439	133.301	82.1937	133.301	80.977	133.301	82.1522	133.301	80.8191	133.301	82.0828	133.301	80.674	133.301	81.9881	133.301	80.5456	133.301	81.8707	133.301	80.4376	133.301	81.7336	133.301	80.3534	133.301	81.5801	133.301	80.2959	133.301	81.415	133.301	80.267	133.301	81.2439	133.301	80.2668	133.301	81.0739	133.301	80.2941	133.301	80.9115	133.301	80.3464	133.301	80.7625	133.301	80.4211	133.301	80.6301	133.301	80.516
139.16	81.2973	139.16	81.139	139.16	81.4362	139.16	80.9694	139.16	81.5498	139.16	80.7985	139.16	81.6349	139.16	80.6379	139.16	81.6903	139.16	80.4991	139.16	81.7176	139.16	80.3925	139.16	81.7208	139.16	80.325	139.16	81.7061	139.16	80.2994	139.16	81.6808	139.16	80.3139	139.16	81.6519	139.16	80.3627	139.16	81.6243	139.16	80.4375	139.16	81.5989	139.16	80.5298	139.16	81.5728	139.16	80.6321	139.16	81.5405	139.16	80.7389	139.16	81.4963	139.16	80.8473	139.16	81.4362	139.16	80.9559	139.16	81.3598	139.16	81.0638	139.16	81.2694	139.16	81.1693
143.555	81.7441	143.555	81.5768	143.555	81.8816	143.555	81.3869	143.555	81.9827	143.555	81.1827	143.555	82.0423	143.555	80.9729	143.555	82.0574	143.555	80.7676	143.555	82.0275	143.555	80.578	143.555	81.9552	143.555	80.4162	143.555	81.8471	143.555	80.2938	143.555	81.7138	143.555	80.2204	143.555	81.5694	143.555	80.2007	143.555	81.4297	143.555	80.2331	143.555	81.3095	143.555	80.3097	143.555	81.2185	143.555	80.4182	143.555	81.1587	143.555	80.5439	143.555	81.1235	143.555	80.6731	143.555	81.1008	143.555	80.7941	143.555	81.0766	143.555	80.8983	143.555	81.039	143.555	80.9805
147.949	81.9444	147.949	81.7921	147.949	82.0652	147.949	81.6131	147.949	82.15	147.949	81.4121	147.949	82.195	147.949	81.1943	147.949	82.1967	147.949	80.9658	147.949	82.1534	147.949	80.7336	147.949	82.0655	147.949	80.5066	147.949	81.936	147.949	80.2953	147.949	81.7706	147.949	80.1114	147.949	81.5784	147.949	79.9664	147.949	81.3716	147.949	79.8697	147.949	81.164	147.949	79.826	147.949	80.9697	147.949	79.834	147.949	80.7998	147.949	79.8857	147.949	80.6593	147.949	79.9685	147.949	80.5457	147.949	80.0679	147.949	80.4501	147.949	80.1712	147.949	80.3613	147.949	80.2698
153.809	81.561	153.809	81.4134	153.809	81.6778	153.809	81.2416	153.809	81.7584	153.809	81.0536	153.809	81.8001	153.809	80.8571	153.809	81.8026	153.809	80.6596	153.809	81.768	153.809	80.4674	153.809	81.7002	153.809	80.286	153.809	81.6041	153.809	80.1204	153.809	81.4849	153.809	79.9753	153.809	81.3476	153.809	79.8557	153.809	81.1968	153.809	79.7666	153.809	81.0372	153.809	79.7119	153.809	80.8737	153.809	79.6938	153.809	80.7115	153.809	79.7115	153.809	80.5555	153.809	79.7607	153.809	80.409	153.809	79.8351	153.809	80.2736	153.809	79.9279	153.809	80.1487	153.809	80.0333
159.668	81.5046	159.668	81.3361	159.668	81.6433	159.668	81.1455	159.668	81.7465	159.668	80.9414	159.668	81.8102	159.668	80.733	159.668	81.8328	159.668	80.5293	159.668	81.8152	159.668	80.3384	159.668	81.7602	159.668	80.1675	159.668	81.6727	159.668	80.0223	159.668	81.5589	159.668	79.9075	159.668	81.4263	159.668	79.8262	159.668	81.2825	159.668	79.7804	159.668	81.135	159.668	79.7705	159.668	80.9902	159.668	79.7949	159.668	80.8525	159.668	79.8503	159.668	80.7236	159.668	79.9309	159.668	80.6023	159.668	80.0299	159.668	80.4856	159.668	80.14	159.668	80.3704	159.668	80.2548
165.527	81.5396	165.527	81.3804	165.527	81.6677	165.527	81.1978	165.527	81.7595	165.527	81.0009	165.527	81.8123	165.527	80.8	165.527	81.826	165.527	80.605	165.527	81.8033	165.527	80.4252	165.527	81.7489	165.527	80.2684	165.527	81.6686	165.527	80.1401	165.527	81.5689	165.527	80.0438	165.527	81.4557	165.527	79.9812	165.527	81.3343	165.527	79.9517	165.527	81.2091	165.527	79.9538	165.527	81.0835	165.527	79.9845	165.527	80.9603	165.527	80.0396	165.527	80.8413	165.527	80.1143	165.527	80.727	165.527	80.2032	165.527	80.6168	165.527	80.3012	165.527	80.5094	165.527	80.404
171.387	81.1754	171.387	81.0219	171.387	81.2961	171.387	80.8432	171.387	81.3792	171.387	80.6498	171.387	81.4233	171.387	80.4538	171.387	81.4296	171.387	80.2677	171.387	81.4017	171.387	80.1024	171.387	81.3448	171.387	79.9666	171.387	81.2655	171.387	79.8656	171.387	81.1709	171.387	79.8013	171.387	81.0681	171.387	79.7733	171.387	80.9633	171.387	79.7788	171.387	80.8616	171.387	79.8136	171.387	80.7666	171.387	79.8726	171.387	80.6801	171.387	79.9497	171.387	80.6022	171.387	80.0384	171.387	80.5303	171.387	80.1317	171.387	80.4606	171.387	80.2236	171.387	80.3883	171.387	80.3097
177.246	80.8232	177.246	80.6583	177.246	80.9569	177.246	80.469	177.246	81.0545	177.246	80.2639	177.246	81.1128	177.246	80.0538	177.246	81.1314	177.246	79.851	177.246	81.1124	177.246	79.6687	177.246	81.061	177.246	79.519	177.246	80.9848	177.246	79.4115	177.246	80.8929	177.246	79.3512	177.246	80.7939	177.246	79.3379	177.246	80.695	177.246	79.3665	177.246	80.5999	177.246	79.4285	177.246	80.5099	177.246	79.5137	177.246	80.424	177.246	79.6123	177.246	80.3406	177.246	79.7157	177.246	80.2585	177.246	79.8178	177.246	80.1764	177.246	79.915	177.246	80.093	177.246	80.0065
183.105	80.8096	183.105	80.6336	183.105	80.9509	183.105	80.4308	183.105	81.0512	183.105	80.2103	183.105	81.1056	183.105	79.9818	183.105	81.1124	183.105	79.7561	183.105	81.0728	183.105	79.5449	183.105	80.9919	183.105	79.3601	183.105	80.8784	183.105	79.2129	183.105	80.7436	183.105	79.1123	183.105	80.5997	183.105	79.063	183.105	80.4586	183.105	79.0646	183.105	80.3296	183.105	79.111	183.105	80.2183	183.105	79.1926	183.105	80.1255	183.105	79.2975	183.105	80.0478	183.105	79.4141	183.105	79.9784	183.105	79.5323	183.105	79.9092	183.105	79.6443	183.105	79.833	183.105	79.7452
188.965	80.5036	188.965	80.3311	188.965	80.6376	188.965	80.1289	188.965	80.7272	188.965	79.9072	188.965	80.7697	188.965	79.6773	188.965	80.7656	188.965	79.4507	188.965	80.7191	188.965	79.2382	188.965	80.6376	188.965	79.0501	188.965	80.5309	188.965	78.8959	188.965	80.4106	188.965	78.7842	188.965	80.2887	188.965	78.7215	188.965	80.1755	188.965	78.7114	188.965	80.0773	188.965	78.7525	188.965	79.9958	188.965	78.8386	188.965	79.9274	188.965	78.9589	188.965	79.8651	188.965	79.0999	188.965	79.8002	188.965	79.248	188.965	79.7247	188.965	79.3913	188.965	79.6326	188.965	79.5212
196.289	80.7102	196.289	80.5124	196.289	80.8653	196.289	80.2819	196.289	80.9698	196.289	80.0304	196.289	81.0186	196.289	79.771	196.289	81.0098	196.289	79.5169	196.289	80.9451	196.289	79.281	196.289	80.8302	196.289	79.0748	196.289	80.6736	196.289	78.9073	196.289	80.4869	196.289	78.7844	196.289	80.283	196.289	78.7091	196.289	80.0764	196.289	78.6811	196.289	79.8819	196.289	78.6971	196.289	79.7129	196.289	78.7509	196.289	79.5783	196.289	78.8336	196.289	79.4794	196.289	78.934	196.289	79.4087	196.289	79.0398	196.289	79.3522	196.289	79.1397	196.289	79.295	196.289	79.2256
203.613	80.3741	203.613	80.2175	203.613	80.4903	203.613	80.027	203.613	80.5619	203.613	79.8112	203.613	80.5873	203.613	79.5803	203.613	80.5674	203.613	79.3447	203.613	80.5063	203.613	79.1153	203.613	80.4104	203.613	78.9026	203.613	80.2889	203.613	78.7167	203.613	80.1513	203.613	78.5666	203.613	80.0064	203.613	78.4598	203.613	79.86	203.613	78.4004	203.613	79.7146	203.613	78.3887	203.613	79.5714	203.613	78.42	203.613	79.4322	203.613	78.4854	203.613	79.3001	203.613	78.5734	203.613	79.1787	203.613	78.6722	203.613	79.069	203.613	78.773	203.613	78.9684	203.613	78.8713
210.938	80.1788	210.938	79.9867	210.938	80.3269	210.938	79.7603	210.938	80.4231	210.938	79.5108	210.938	80.462	210.938	79.2505	210.938	80.4413	210.938	78.9919	210.938	80.3626	210.938	78.7475	210.938	80.2327	210.938	78.5287	210.938	80.0629	210.938	78.3457	210.938	79.8686	210.938	78.2069	210.938	79.667	210.938	78.1183	210.938	79.4743	210.938	78.0825	210.938	79.3036	210.938	78.0975	210.938	79.1622	210.938	78.1564	210.938	79.0508	210.938	78.2478	210.938	78.9645	210.938	78.3578	210.938	78.8939	210.938	78.4726	210.938	78.8285	210.938	78.5812	210.938	78.7585	210.938	78.6771
218.262	79.9765	218.262	79.7863	218.262	80.1244	218.262	79.5647	218.262	80.2219	218.262	79.3241	218.262	80.2638	218.262	79.0777	218.262	80.2491	218.262	78.8383	218.262	80.1813	218.262	78.6176	218.262	80.0686	218.262	78.4249	218.262	79.9234	218.262	78.2674	218.262	79.7604	218.262	78.15	218.262	79.5943	218.262	78.0758	218.262	79.437	218.262	78.0456	218.262	79.2956	218.262	78.0576	218.262	79.1721	218.262	78.107	218.262	79.0643	218.262	78.1858	218.262	78.9678	218.262	78.2841	218.262	78.8776	218.262	78.3915	218.262	78.7891	218.262	78.4993	218.262	78.6983	218.262	78.6021
225.586	79.7231	225.586	79.5199	225.586	79.8782	225.586	79.2805	225.586	79.9765	225.586	79.0189	225.586	80.0124	225.586	78.7506	225.586	79.9853	225.586	78.4909	225.586	79.8993	225.586	78.2546	225.586	79.7642	225.586	78.0539	225.586	79.5944	225.586	77.8983	225.586	79.4073	225.586	77.794	225.586	79.2208	225.586	77.7436	225.586	79.0508	225.586	77.7461	225.586	78.9093	225.586	77.7964	225.586	78.8023	225.586	77.8855	225.586	78.7289	225.586	78.0013	225.586	78.6805	225.586	78.1303	225.586	78.644	225.586	78.2592	225.586	78.6046	225.586	78.3767	225.586	78.5506	225.586	78.4751
232.91	79.581	232.91	79.3745	232.91	79.7309	232.91	79.124	232.91	79.8155	232.91	78.8445	232.91	79.8303	232.91	78.5527	232.91	79.7762	232.91	78.2664	232.91	79.6602	232.91	78.0021	232.91	79.4947	232.91	77.7745	232.91	79.2971	232.91	77.5955	232.91	79.0868	232.91	77.4731	232.91	78.8826	232.91	77.4113	232.91	78.7001	232.91	77.4093	232.91	78.55	232.91	77.4617	232.91	78.4377	232.91	77.5578	232.91	78.3626	232.91	77.6832	232.91	78.3181	232.91	77.8214	232.91	78.2916	232.91	77.9563	232.91	78.2669	232.91	78.0741	232.91	78.2286	232.91	78.1658
241.699	79.3844	241.699	79.1634	241.699	79.5499	241.699	78.9004	241.699	79.6502	241.699	78.6115	241.699	79.6799	241.699	78.3138	241.699	79.6387	241.699	78.0231	241.699	79.5313	241.699	77.7529	241.699	79.3681	241.699	77.5135	241.699	79.1637	241.699	77.3131	241.699	78.9357	241.699	77.1595	241.699	78.7011	241.699	77.0599	241.699	78.4742	241.699	77.0196	241.699	78.2658	241.699	77.0391	241.699	78.0846	241.699	77.1109	241.699	77.9384	241.699	77.2198	241.699	77.8324	241.699	77.3456	241.699	77.7647	241.699	77.4673	241.699	77.7234	241.699	77.5688	241.699	77.6891	241.699	77.6419
250.488	79.2931	250.488	79.0155	250.488	79.502	250.488	78.6842	250.488	79.6318	250.488	78.3195	250.488	79.6762	250.488	77.9462	250.488	79.6341	250.488	77.5917	250.488	79.5096	250.488	77.2823	250.488	79.3133	250.488	77.0381	250.488	79.0635	250.488	76.868	250.488	78.7851	250.488	76.7695	250.488	78.5068	250.488	76.7323	250.488	78.2561	250.488	76.7432	250.488	78.0512	250.488	76.791	250.488	77.8957	250.488	76.8663	250.488	77.7798	250.488	76.9609	250.488	77.6875	250.488	77.0652	250.488	77.6051	250.488	77.1703	250.488	77.525	250.488	77.2693	250.488	77.4442	250.488	77.36
259.277	79.5016	259.277	79.2874	259.277	79.6585	259.277	79.0238	259.277	79.7516	259.277	78.7197	259.277	79.7773	259.277	78.3847	259.277	79.7359	259.277	78.0297	259.277	79.6323	259.277	77.6689	259.277	79.4752	259.277	77.3203	259.277	79.2757	259.277	77.0057	259.277	79.0449	259.277	76.7483	259.277	78.7934	259.277	76.5674	259.277	78.5325	259.277	76.4737	259.277	78.2768	259.277	76.4663	259.277	78.0439	259.277	76.5335	259.277	77.8506	259.277	76.6566	259.277	77.7038	259.277	76.8137	259.277	77.5951	259.277	76.9832	259.277	77.5041	259.277	77.1466	259.277	77.4077	259.277	77.2901
268.066	79.1526	268.066	78.9209	268.066	79.3173	268.066	78.6363	268.066	79.4053	268.066	78.3159	268.066	79.4128	268.066	77.9789	268.066	79.3427	268.066	77.6456	268.066	79.2057	268.066	77.3354	268.066	79.0191	268.066	77.0651	268.066	78.8047	268.066	76.8473	268.066	78.5839	268.066	76.689	268.066	78.3728	268.066	76.592	268.066	78.179	268.066	76.5545	268.066	78.0026	268.066	76.572	268.066	77.8415	268.066	76.6375	268.066	77.6962	268.066	76.7401	268.066	77.5709	268.066	76.8655	268.066	77.4683	268.066	76.9967	268.066	77.3845	268.066	77.1186	268.066	77.3072	268.066	77.2219
276.855	78.9582	276.855	78.7266	276.855	79.1214	276.855	78.4376	276.855	79.2081	276.855	78.1049	276.855	79.2145	276.855	77.7431	276.855	79.1417	276.855	77.3689	276.855	78.9963	276.855	77.0007	276.855	78.7912	276.855	76.6599	276.855	78.5452	276.855	76.3698	276.855	78.2815	276.855	76.1512	276.855	78.0238	276.855	76.0164	276.855	77.7896	276.855	75.9654	276.855	77.5857	276.855	75.9865	276.855	77.4088	276.855	76.0621	276.855	77.2519	276.855	76.1734	276.855	77.1104	276.855	76.3032	276.855	76.9843	276.855	76.4362	276.855	76.8734	276.855	76.5607	276.855	76.7726	276.855	76.6717
287.109	79.0405	287.109	78.8318	287.109	79.1854	287.109	78.5729	287.109	79.2564	287.109	78.2795	287.109	79.2486	287.109	77.9673	287.109	79.1631	287.109	77.6496	287.109	79.0079	287.109	77.336	287.109	78.7967	287.109	77.0326	287.109	78.5482	287.109	76.7444	287.109	78.284	287.109	76.4782	287.109	78.0264	287.109	76.2448	287.109	77.7933	287.109	76.0575	287.109	77.5929	287.109	75.9277	287.109	77.4195	287.109	75.8609	287.109	77.2563	287.109	75.8554	287.109	77.0847	287.109	75.9042	287.109	76.8953	287.109	75.9989	287.109	76.6919	287.109	76.1321	287.109	76.4877	287.109	76.2974
297.363	78.7687	297.363	78.5544	297.363	78.9147	297.363	78.2906	297.363	78.9794	297.363	77.9995	297.363	78.9578	297.363	77.7021	297.363	78.8544	297.363	77.4156	297.363	78.6826	297.363	77.1503	297.363	78.4624	297.363	76.9105	297.363	78.2168	297.363	76.6962	297.363	77.9678	297.363	76.508	297.363	77.733	297.363	76.3512	297.363	77.5255	297.363	76.2367	297.363	77.3559	297.363	76.1777	297.363	77.2311	297.363	76.1836	297.363	77.1499	297.363	76.2528	297.363	77.1	297.363	76.3723	297.363	77.0598	297.363	76.5205	297.363	77.007	297.363	76.6743	297.363	76.9267	297.363	76.8141
307.617	78.6603	307.617	78.438	307.617	78.8166	307.617	78.1697	307.617	78.8943	307.617	77.8809	307.617	78.8894	307.617	77.599	307.617	78.8075	307.617	77.3469	307.617	78.665	307.617	77.136	307.617	78.4875	307.617	76.962	307.617	78.3031	307.617	76.8061	307.617	78.132	307.617	76.6436	307.617	77.9764	307.617	76.4547	307.617	77.819	307.617	76.2346	307.617	77.634	307.617	75.9989	307.617	77.4026	307.617	75.781	307.617	77.1252	307.617	75.6205	307.617	76.8218	307.617	75.5466	307.617	76.5217	307.617	75.5655	307.617	76.2486	307.617	75.6626	307.617	76.0131	307.617	75.8165
319.336	77.4422	319.336	77.1897	319.336	77.6174	319.336	76.893	319.336	77.6948	319.336	76.5961	319.336	77.6684	319.336	76.3483	319.336	77.5498	319.336	76.1938	319.336	77.3716	319.336	76.1564	319.336	77.1861	319.336	76.229	319.336	77.0551	319.336	76.3746	319.336	77.0267	319.336	76.5407	319.336	77.1089	319.336	76.6768	319.336	77.2634	319.336	76.7479	319.336	77.4257	319.336	76.7419	319.336	77.5357	319.336	76.6715	319.336	77.5571	319.336	76.5709	319.336	77.4818	319.336	76.4868	319.336	77.3235	319.336	76.4631	319.336	77.1107	319.336	76.5254	319.336	76.8803	319.336	76.6726
329.59	78.3409	329.59	77.9077	329.59	78.6138	329.59	77.3432	329.59	78.7057	329.59	76.6908	329.59	78.6023	329.59	76.02	329.59	78.2993	329.59	75.436	329.59	77.8121	329.59	75.068	329.59	77.1905	329.59	75.0169	329.59	76.5397	329.59	75.2874	329.59	76.0266	329.59	75.7804	329.59	75.8255	329.59	76.3584	329.59	76.0003	329.59	76.9108	329.59	76.45	329.59	77.3756	329.59	76.9998	329.59	77.7335	329.59	77.5115	329.59	77.993	329.59	77.915	329.59	78.1753	329.59	78.1929	329.59	78.3021	329.59	78.3564	329.59	78.3872	329.59	78.4284	329.59	78.4325
341.309	79.537	341.309	79.1808	341.309	79.7557	341.309	78.7011	341.309	79.8251	341.309	78.1153	341.309	79.7353	341.309	77.4474	341.309	79.4781	341.309	76.7335	341.309	79.0498	341.309	76.0307	341.309	78.4561	341.309	75.4252	341.309	77.7258	341.309	75.0226	341.309	76.9353	341.309	74.9054	341.309	76.2313	341.309	75.0775	341.309	75.8034	341.309	75.4582	341.309	75.7648	341.309	75.9346	341.309	76.0506	341.309	76.415	341.309	76.4853	341.309	76.8453	341.309	76.9183	341.309	77.1995	341.309	77.2726	341.309	77.4658	341.309	77.5236	341.309	77.6362	341.309	77.6677	341.309	77.7048
353.027	79.3923	353.027	79.0327	353.027	79.6245	353.027	78.5537	353.027	79.7163	353.027	77.9632	353.027	79.6519	353.027	77.2768	353.027	79.4172	353.027	76.5295	353.027	79.0069	353.027	75.7874	353.027	78.4285	353.027	75.1513	353.027	77.7052	353.027	74.7346	353.027	76.8834	353.027	74.6107	353.027	76.0558	353.027	74.7659	353.027	75.3915	353.027	75.113	353.027	75.0977	353.027	75.5471	353.027	75.256	353.027	75.9871	353.027	75.7174	353.027	76.383	353.027	76.2419	353.027	76.7064	353.027	76.6698	353.027	76.9426	353.027	76.9512	353.027	77.0864	353.027	77.0987	353.027	77.1389
366.211	79.5408	366.211	79.1995	366.211	79.7611	366.211	78.7536	366.211	79.8454	366.211	78.2209	366.211	79.7824	366.211	77.6227	366.211	79.5675	366.211	76.9889	366.211	79.2037	366.211	76.3631	366.211	78.6999	366.211	75.8027	366.211	78.0694	366.211	75.3682	366.211	77.3354	366.211	75.1006	366.211	76.5499	366.211	75.0027	366.211	75.821	366.211	75.0447	366.211	75.3151	366.211	75.1862	366.211	75.173	366.211	75.3945	366.211	75.3773	366.211	75.6446	366.211	75.7564	366.211	75.9112	366.211	76.1269	366.211	76.1631	366.211	76.3849	366.211	76.366	366.211	76.5019	366.211	76.488
379.395	79.7194	379.395	79.4448	379.395	79.8893	379.395	79.0736	379.395	79.9429	379.395	78.6106	379.395	79.8688	379.395	78.0591	379.395	79.661	379.395	77.4289	379.395	79.3237	379.395	76.7492	379.395	78.8705	379.395	76.0829	379.395	78.3209	379.395	75.5274	379.395	77.697	379.395	75.1805	379.395	77.0293	379.395	75.0773	379.395	76.3742	379.395	75.164	379.395	75.8312	379.395	75.3461	379.395	75.5254	379.395	75.5523	379.395	75.527	379.395	75.7577	379.395	75.774	379.395	75.965	379.395	76.1081	379.395	76.1752	379.395	76.381	379.395	76.3675	379.395	76.514	379.395	76.4978
392.578	79.3772	392.578	79.068	392.578	79.5719	392.578	78.6613	392.578	79.6356	392.578	78.1726	392.578	79.5579	392.578	77.6177	392.578	79.3404	392.578	77.0158	392.578	78.9971	392.578	76.3972	392.578	78.5467	392.578	75.812	392.578	78.0034	392.578	75.3353	392.578	77.3795	392.578	75.0478	392.578	76.708	392.578	74.9914	392.578	76.0746	392.578	75.1377	392.578	75.6221	392.578	75.4098	392.578	75.4741	392.578	75.7306	392.578	75.623	392.578	76.0493	392.578	75.9338	392.578	76.3353	392.578	76.2614	392.578	76.5637	392.578	76.5241	392.578	76.7099	392.578	76.6919	392.578	76.755
405.762	79.0953	405.762	78.8397	405.762	79.2417	405.762	78.4891	405.762	79.2656	405.762	78.0531	405.762	79.1609	405.762	77.5368	405.762	78.933	405.762	76.9465	405.762	78.5952	405.762	76.3017	405.762	78.1601	405.762	75.6517	405.762	77.6312	405.762	75.0862	405.762	77.0054	405.762	74.7133	405.762	76.2904	405.762	74.5957	405.762	75.5438	405.762	74.7033	405.762	74.9176	405.762	74.9464	405.762	74.6324	405.762	75.2444	405.762	74.798	405.762	75.5545	405.762	75.2697	405.762	75.8553	405.762	75.7895	405.762	76.1237	405.762	76.1827	405.762	76.3273	405.762	76.3922	405.762	76.4292
420.41	79.6722	420.41	79.3984	420.41	79.8284	420.41	79.0124	420.41	79.8627	420.41	78.5186	420.41	79.7725	420.41	77.9207	420.41	79.5567	420.41	77.2245	420.41	79.2142	420.41	76.4503	420.41	78.7425	420.41	75.6545	420.41	78.1384	420.41	74.9476	420.41	77.4019	420.41	74.4717	420.41	76.547	420.41	74.3122	420.41	75.6237	420.41	74.4227	420.41	74.7566	420.41	74.6708	420.41	74.1565	420.41	74.9438	420.41	74.011	420.41	75.1951	420.41	74.2972	420.41	75.421	420.41	74.7928	420.41	75.6163	420.41	75.2719	420.41	75.7475	420.41	75.6076	420.41	75.7607
435.059	79.3321	435.059	79.0884	435.059	79.4666	435.059	78.7442	435.059	79.482	435.059	78.3051	435.059	79.3719	435.059	77.7738	435.059	79.1392	435.059	77.152	435.059	78.7985	435.059	76.4464	435.059	78.3732	435.059	75.6896	435.059	77.8869	435.059	74.976	435.059	77.3557	435.059	74.4766	435.059	76.789	435.059	74.3514	435.059	76.205	435.059	74.5954	435.059	75.6597	435.059	75.0372	435.059	75.2639	435.059	75.4964	435.059	75.135	435.059	75.8764	435.059	75.2887	435.059	76.1505	435.059	75.6081	435.059	76.3204	435.059	75.9439	435.059	76.3887	435.059	76.2026	435.059	76.3516
451.172	79.3764	451.172	79.1134	451.172	79.5435	451.172	78.7631	451.172	79.5938	451.172	78.3183	451.172	79.5075	451.172	77.7606	451.172	79.2792	451.172	77.0678	451.172	78.9228	451.172	76.2226	451.172	78.4586	451.172	75.2305	451.172	77.8938	451.172	74.1649	451.172	77.2133	451.172	73.2396	451.172	76.3987	451.172	72.8007	451.172	75.4771	451.172	73.0497	451.172	74.5911	451.172	73.7896	451.172	74.0214	451.172	74.6642	451.172	74.0103	451.172	75.4458	451.172	74.4952	451.172	76.0482	451.172	75.1875	451.172	76.4484	451.172	75.8409	451.172	76.6354	451.172	76.328	451.172	76.5973
465.82	79.4767	465.82	79.2319	465.82	79.6156	465.82	78.9139	465.82	79.6232	465.82	78.5421	465.82	79.4964	465.82	78.1083	465.82	79.257	465.82	77.5775	465.82	78.9401	465.82	76.9059	465.82	78.5756	465.82	76.0664	465.82	78.1728	465.82	75.0776	465.82	77.7104	465.82	74.0363	465.82	77.1342	465.82	73.1403	465.82	76.3799	465.82	72.6359	465.82	75.4451	465.82	72.6461	465.82	74.5036	465.82	73.0615	465.82	73.9359	465.82	73.6571	465.82	73.9866	465.82	74.2412	465.82	74.4135	465.82	74.7001	465.82	74.8295	465.82	74.9887	465.82	75.0622	465.82	75.1079
483.398	79.5542	483.398	79.3111	483.398	79.6752	483.398	78.9614	483.398	79.6691	483.398	78.5312	483.398	79.5391	483.398	78.0492	483.398	79.2942	483.398	77.529	483.398	78.9465	483.398	76.9531	483.398	78.5078	483.398	76.28	483.398	77.9884	483.398	75.4853	483.398	77.3995	483.398	74.6235	483.398	76.7498	483.398	73.8656	483.398	76.0393	483.398	73.4288	483.398	75.2785	483.398	73.3983	483.398	74.5523	483.398	73.6686	483.398	74.0665	483.398	74.0815	483.398	74.022	483.398	74.5259	483.398	74.3666	483.398	74.9252	483.398	74.83	483.398	75.2074	483.398	75.1772	483.398	75.3056
499.512	79.7346	499.512	79.4678	499.512	79.8791	499.512	79.106	499.512	79.8809	499.512	78.6782	499.512	79.7324	499.512	78.2064	499.512	79.4415	499.512	77.6934	499.512	79.0287	499.512	77.1162	499.512	78.5182	499.512	76.4368	499.512	77.9343	499.512	75.6354	499.512	77.3068	499.512	74.7589	499.512	76.6728	499.512	73.9577	499.512	76.062	499.512	73.442	499.512	75.4873	499.512	73.3249	499.512	74.9733	499.512	73.5288	499.512	74.6071	499.512	73.8944	499.512	74.5094	499.512	74.3035	499.512	74.6851	499.512	74.6869	499.512	74.9648	499.512	74.9912	499.512	75.1546	499.512	75.1623
517.09	80.0559	517.09	79.8814	517.09	80.146	517.09	79.6314	517.09	80.1359	517.09	79.307	517.09	80.0087	517.09	78.8978	517.09	79.756	517.09	78.3779	517.09	79.3846	517.09	77.7108	517.09	78.9132	517.09	76.8717	517.09	78.365	517.09	75.8825	517.09	77.7628	517.09	74.8497	517.09	77.1205	517.09	73.9757	517.09	76.4388	517.09	73.4888	517.09	75.7322	517.09	73.4877	517.09	75.102	517.09	73.8748	517.09	74.7666	517.09	74.4673	517.09	74.8923	517.09	75.1098	517.09	75.3651	517.09	75.6906	517.09	75.8921	517.09	76.1197	517.09	76.2435	517.09	76.3206
536.133	79.7119	536.133	79.411	536.133	79.8705	536.133	79.0176	536.133	79.8381	536.133	78.575	536.133	79.598	536.133	78.121	536.133	79.1965	536.133	77.6757	536.133	78.7362	536.133	77.2195	536.133	78.3166	536.133	76.6973	536.133	77.9737	536.133	76.0593	536.133	77.6781	536.133	75.3146	536.133	77.3636	536.133	74.572	536.133	76.95	536.133	74.028	536.133	76.3828	536.133	73.8461	536.133	75.7121	536.133	74.0295	536.133	75.1594	536.133	74.4614	536.133	75.0041	536.133	75.0071	536.133	75.2685	536.133	75.5386	536.133	75.6888	536.133	75.9335	536.133	76.0084	536.133	76.1011
555.176	80.3022	555.176	79.954	555.176	80.445	555.176	79.4419	555.176	80.3573	555.176	78.8063	555.176	80.0608	555.176	78.0898	555.176	79.6295	555.176	77.3408	555.176	79.1459	555.176	76.594	555.176	78.6439	555.176	75.8495	555.176	78.106	555.176	75.0897	555.176	77.506	555.176	74.3405	555.176	76.8396	555.176	73.7518	555.176	76.1429	555.176	73.5603	555.176	75.505	555.176	73.8266	555.176	75.037	555.176	74.3395	555.176	74.7983	555.176	74.8693	555.176	74.7846	555.176	75.3129	555.176	74.9753	555.176	75.6407	555.176	75.3069	555.176	75.8258	555.176	75.6382	555.176	75.8302
574.219	80.4201	574.219	80.0988	574.219	80.5628	574.219	79.6113	574.219	80.5213	574.219	78.9788	574.219	80.3016	574.219	78.2468	574.219	79.9218	574.219	77.5021	574.219	79.4001	574.219	76.8502	574.219	78.7444	574.219	76.3206	574.219	77.976	574.219	75.7875	574.219	77.1772	574.219	75.0583	574.219	76.4809	574.219	74.1044	574.219	75.9498	574.219	73.2558	574.219	75.4822	574.219	73.0337	574.219	74.9383	574.219	73.5235	574.219	74.4247	574.219	74.3279	574.219	74.3633	574.219	75.105	574.219	74.9117	574.219	75.7175	574.219	75.638	574.219	76.1217	574.219	76.1308	574.219	76.279
594.727	80.6664	594.727	80.4069	594.727	80.7382	594.727	79.9976	594.727	80.5962	594.727	79.459	594.727	80.261	594.727	78.7916	594.727	79.797	594.727	77.9975	594.727	79.2571	594.727	77.1169	594.727	78.6348	594.727	76.2387	594.727	77.8953	594.727	75.4402	594.727	77.0592	594.727	74.6931	594.727	76.2571	594.727	73.8947	594.727	75.6693	594.727	73.0801	594.727	75.3368	594.727	72.5845	594.727	75.1129	594.727	72.7634	594.727	74.9204	594.727	73.5179	594.727	74.9371	594.727	74.4666	594.727	75.3162	594.727	75.3211	594.727	75.8494	594.727	75.937	594.727	76.2113	594.727	76.2456
615.234	80.611	615.234	80.2287	615.234	80.7802	615.234	79.6852	615.234	80.7118	615.234	79.0384	615.234	80.4139	615.234	78.3308	615.234	79.922	615.234	77.6011	615.234	79.2923	615.234	76.9162	615.234	78.5758	615.234	76.3498	615.234	77.7778	615.234	75.874	615.234	76.8661	615.234	75.3119	615.234	75.8607	615.234	74.497	615.234	74.9449	615.234	73.5386	615.234	74.3864	615.234	72.9221	615.234	74.1764	615.234	73.0692	615.234	74.0433	615.234	73.7726	615.234	74.0058	615.234	74.5737	615.234	74.3931	615.234	75.2348	615.234	75.1082	615.234	75.6833	615.234	75.676	615.234	75.8595
637.207	80.8958	637.207	80.5213	637.207	81.0805	637.207	79.9842	637.207	81.0504	637.207	79.2971	637.207	80.8317	637.207	78.4912	637.207	80.5028	637.207	77.6423	637.207	80.1017	637.207	76.8443	637.207	79.5478	637.207	76.1489	637.207	78.72	637.207	75.5276	637.207	77.5955	637.207	74.8668	637.207	76.295	637.207	74.0279	637.207	75.0345	637.207	73.0475	637.207	74.0499	637.207	72.3553	637.207	73.4762	637.207	72.5308	637.207	73.2581	637.207	73.5169	637.207	73.4001	637.207	74.705	637.207	74.0707	637.207	75.6592	637.207	75.084	637.207	76.2211	637.207	75.9358	637.207	76.3288
659.18	81.015	659.18	80.6666	659.18	81.1094	659.18	80.1249	659.18	80.9451	659.18	79.4638	659.18	80.5875	659.18	78.7323	659.18	80.1297	659.18	77.9573	659.18	79.6119	659.18	77.1634	659.18	79.0129	659.18	76.3561	659.18	78.341	659.18	75.5102	659.18	77.6514	659.18	74.6471	659.18	76.9256	659.18	73.8689	659.18	76.0395	659.18	73.2188	659.18	74.9778	659.18	72.695	659.18	74.0591	659.18	72.5175	659.18	73.6274	659.18	73.0317	659.18	73.694	659.18	74.0635	659.18	74.2842	659.18	75.0466	659.18	75.159	659.18	75.6867	659.18	75.7902	659.18	75.9495
682.617	81.3156	682.617	80.8993	682.617	81.4123	682.617	80.2118	682.617	81.2177	682.617	79.3634	682.617	80.8327	682.617	78.4759	682.617	80.3635	682.617	77.6274	682.617	79.8137	682.617	76.8671	682.617	79.1044	682.617	76.2157	682.617	78.2235	682.617	75.5707	682.617	77.2955	682.617	74.7332	682.617	76.4743	682.617	73.6791	682.617	75.7487	682.617	72.739	682.617	74.971	682.617	72.3323	682.617	74.1539	682.617	72.5377	682.617	73.5013	682.617	73.1842	682.617	73.0257	682.617	74.0977	682.617	72.9026	682.617	75.0377	682.617	73.7368	682.617	75.6922	682.617	75.0191	682.617	75.7527
707.52	81.6426	707.52	81.3133	707.52	81.6486	707.52	80.6142	707.52	81.3866	707.52	79.5447	707.52	80.9418	707.52	78.2793	707.52	80.3795	707.52	77.2012	707.52	79.6847	707.52	76.584	707.52	78.8481	707.52	76.2518	707.52	77.9296	707.52	75.8264	707.52	76.9426	707.52	75.1119	707.52	75.8328	707.52	74.1474	707.52	74.8378	707.52	73.0755	707.52	74.641	707.52	72.1924	707.52	74.8826	707.52	72.0401	707.52	74.3767	707.52	72.7792	707.52	73.3019	707.52	73.8561	707.52	73.436	707.52	74.7772	707.52	74.6063	707.52	75.3677	707.52	75.3879	707.52	75.5887
732.422	81.3482	732.422	81.0833	732.422	81.346	732.422	80.5158	732.422	81.1466	732.422	79.6559	732.422	80.8177	732.422	78.5853	732.422	80.3627	732.422	77.4686	732.422	79.7335	732.422	76.5366	732.422	78.8991	732.422	76.0389	732.422	77.879	732.422	75.9848	732.422	76.8317	732.422	75.917	732.422	76.0378	732.422	75.3468	732.422	75.4981	732.422	74.2799	732.422	74.9438	732.422	73.2862	732.422	74.4801	732.422	73.0488	732.422	74.3597	732.422	73.5573	732.422	74.0599	732.422	74.3	732.422	73.5469	732.422	74.9831	732.422	74.0139	732.422	75.4945	732.422	75.0997	732.422	75.632
757.324	81.8517	757.324	81.5768	757.324	81.8293	757.324	80.9757	757.324	81.5903	757.324	80.1013	757.324	81.2146	757.324	79.0726	757.324	80.714	757.324	78.0172	757.324	80.0177	757.324	77.067	757.324	79.0384	757.324	76.3769	757.324	77.7365	757.324	76.0085	757.324	76.2217	757.324	75.7598	757.324	74.9054	757.324	75.2994	757.324	74.3	757.324	74.4666	757.324	74.2586	757.324	73.3398	757.324	74.1591	757.324	72.3551	757.324	73.9054	757.324	72.4761	757.324	73.6414	757.324	73.6959	757.324	73.3091	757.324	74.8108	757.324	73.2436	757.324	75.186	757.324	73.8859	757.324	74.7717
785.156	81.6615	785.156	81.6344	785.156	81.6453	785.156	81.2009	785.156	81.6444	785.156	80.0948	785.156	81.4745	785.156	78.5464	785.156	81.0081	785.156	77.4401	785.156	80.257	785.156	77.3222	785.156	79.3545	785.156	77.2813	785.156	78.4123	785.156	76.5083	785.156	77.3496	785.156	75.3176	785.156	76.098	785.156	74.2866	785.156	74.9537	785.156	73.437	785.156	74.2898	785.156	72.7243	785.156	73.8618	785.156	71.9985	785.156	73.9001	785.156	71.4819	785.156	74.2746	785.156	71.9925	785.156	73.8837	785.156	73.3125	785.156	73.1611	785.156	74.3041	785.156	73.5735	785.156	74.3484
811.523	82.0995	811.523	81.7803	811.523	82.2633	811.523	81.2631	811.523	82.2057	811.523	80.5088	811.523	81.8144	811.523	79.5649	811.523	81.0253	811.523	78.4942	811.523	79.8617	811.523	77.4019	811.523	78.4817	811.523	76.3588	811.523	77.189	811.523	74.9658	811.523	76.3231	811.523	73.1359	811.523	75.896	811.523	72.2319	811.523	75.4723	811.523	72.4996	811.523	74.8128	811.523	72.5142	811.523	74.1686	811.523	72.3261	811.523	73.4898	811.523	73.2061	811.523	72.8976	811.523	74.6283	811.523	73.0726	811.523	75.3271	811.523	73.467	811.523	75.1211	811.523	73.7646	811.523	74.4049
840.82	81.7312	840.82	81.647	840.82	82.0064	840.82	81.6815	840.82	82.0854	840.82	81.3412	840.82	81.7028	840.82	80.3876	840.82	80.862	840.82	79.002	840.82	79.7721	840.82	77.5044	840.82	78.8046	840.82	76.1601	840.82	78.1241	840.82	75.2678	840.82	77.31	840.82	74.5703	840.82	75.7952	840.82	73.63	840.82	73.954	840.82	72.9605	840.82	73.1292	840.82	72.9789	840.82	72.8824	840.82	72.8695	840.82	72.565	840.82	72.6898	840.82	72.6263	840.82	73.454	840.82	72.4909	840.82	74.2397	840.82	72.4118	840.82	74.1312	840.82	72.8992	840.82	73.5239
870.117	82.5918	870.117	82.5939	870.117	82.2946	870.117	82.051	870.117	82.0507	870.117	80.9752	870.117	81.8846	870.117	79.6087	870.117	81.4802	870.117	78.3956	870.117	80.6439	870.117	77.7227	870.117	79.4209	870.117	77.3538	870.117	77.9075	870.117	76.6357	870.117	76.3504	870.117	75.253	870.117	75.2077	870.117	73.7762	870.117	74.7851	870.117	73.3019	870.117	74.7477	870.117	73.5047	870.117	74.204	870.117	73.4122	870.117	73.0159	870.117	73.1375	870.117	71.9937	870.117	73.3911	870.117	72.1379	870.117	74.009	870.117	73.5471	870.117	74.3515	870.117	74.5638	870.117	74.5931
900.879	83.7087	900.879	83.3657	900.879	83.6492	900.879	82.9429	900.879	82.9713	900.879	82.2686	900.879	81.9638	900.879	80.9382	900.879	81.0644	900.879	78.9395	900.879	80.3514	900.879	76.9879	900.879	79.778	900.879	76.0755	900.879	79.3422	900.879	75.8649	900.879	78.765	900.879	75.3238	900.879	77.4796	900.879	74.3069	900.879	75.1241	900.879	73.7868	900.879	72.7707	900.879	74.0415	900.879	72.6392	900.879	73.7551	900.879	73.0834	900.879	72.7986	900.879	72.4049	900.879	73.0574	900.879	71.386	900.879	74.6445	900.879	72.3441	900.879	75.7339	900.879	74.398	900.879	75.6684
933.105	83.9901	933.105	83.5841	933.105	83.9543	933.105	82.9411	933.105	83.3973	933.105	82.1404	933.105	82.5273	933.105	81.1127	933.105	81.5236	933.105	79.6796	933.105	80.5277	933.105	77.822	933.105	79.7516	933.105	75.8478	933.105	78.9342	933.105	74.4937	933.105	77.8165	933.105	74.6043	933.105	76.8319	933.105	74.7789	933.105	76.2956	933.105	73.6612	933.105	75.8058	933.105	72.2347	933.105	74.8426	933.105	72.5554	933.105	74.035	933.105	73.5205	933.105	73.8544	933.105	74.2462	933.105	72.9076	933.105	74.7691	933.105	72.6963	933.105	74.7932	933.105	73.9155	933.105	74.4743
965.332	84.7747	965.332	84.4457	965.332	84.4163	965.332	83.4527	965.332	83.8034	965.332	82.2528	965.332	83.1719	965.332	81.1265	965.332	82.3535	965.332	79.7934	965.332	81.3316	965.332	78.2918	965.332	80.0863	965.332	77.3499	965.332	78.8577	965.332	76.7435	965.332	78.1738	965.332	75.9499	965.332	77.4266	965.332	75.2664	965.332	75.6049	965.332	74.551	965.332	73.9125	965.332	73.7443	965.332	73.5509	965.332	73.6263	965.332	73.1792	965.332	73.6509	965.332	74.14	965.332	73.2532	965.332	73.7959	965.332	73.5302	965.332	72.7635	965.332	75.1706	965.332	75.499	965.332	76.4851
1,000.49	84.4156	1,000.49	84.2986	1,000.49	84.2956	1,000.49	83.876	1,000.49	83.6901	1,000.49	82.9143	1,000.49	82.7484	1,000.49	81.6288	1,000.49	81.9712	1,000.49	80.2426	1,000.49	81.36	1,000.49	78.3305	1,000.49	80.5672	1,000.49	76.2038	1,000.49	79.3513	1,000.49	74.6542	1,000.49	77.983	1,000.49	73.1649	1,000.49	76.9856	1,000.49	73.6102	1,000.49	75.7978	1,000.49	74.6063	1,000.49	74.5008	1,000.49	73.8851	1,000.49	75.299	1,000.49	72.5595	1,000.49	75.4106	1,000.49	73.8481	1,000.49	72.9131	1,000.49	75.4498	1,000.49	70.8368	1,000.49	75.6512	1,000.49	71.9517	1,000.49	75.7484	1,000.49	74.8533	1,000.49	76.0311
1,035.64	83.9866	1,035.64	84.5652	1,035.64	83.5185	1,035.64	84.6792	1,035.64	83.4131	1,035.64	84.0903	1,035.64	83.1141	1,035.64	82.7234	1,035.64	82.356	1,035.64	80.2885	1,035.64	81.7132	1,035.64	76.8854	1,035.64	81.1019	1,035.64	74.5979	1,035.64	79.9371	1,035.64	74.3018	1,035.64	78.6142	1,035.64	74.5114	1,035.64	77.083	1,035.64	74.9449	1,035.64	75.3961	1,035.64	75.2659	1,035.64	75.1592	1,035.64	74.5985	1,035.64	74.5878	1,035.64	72.7972	1,035.64	73.7891	1,035.64	72.3203	1,035.64	74.443	1,035.64	74.4521	1,035.64	72.6696	1,035.64	75.5452	1,035.64	70.6743	1,035.64	75.1347	1,035.64	72.8182	1,035.64	74.2617
1,072.27	84.2491	1,072.27	84.2981	1,072.27	83.8087	1,072.27	84.1972	1,072.27	83.2976	1,072.27	83.9561	1,072.27	83.0096	1,072.27	83.1527	1,072.27	82.6657	1,072.27	81.489	1,072.27	82.055	1,072.27	78.8194	1,072.27	80.6911	1,072.27	75.6721	1,072.27	78.505	1,072.27	74.6392	1,072.27	77.2223	1,072.27	75.7788	1,072.27	77.7978	1,072.27	74.1946	1,072.27	76.9928	1,072.27	71.1597	1,072.27	73.0214	1,072.27	72.5704	1,072.27	74.4027	1,072.27	73.8824	1,072.27	75.8249	1,072.27	74.0225	1,072.27	74.1337	1,072.27	74.9819	1,072.27	74.1092	1,072.27	75.1835	1,072.27	71.4916	1,072.27	74.9645	1,072.27	70.1672	1,072.27	73.9646
1,108.89	84.1212	1,108.89	84.2183	1,108.89	84.0991	1,108.89	84.4648	1,108.89	83.6729	1,108.89	84.0582	1,108.89	82.8905	1,108.89	82.5408	1,108.89	82.2238	1,108.89	80.363	1,108.89	81.9481	1,108.89	78.4022	1,108.89	81.4013	1,108.89	76.8228	1,108.89	79.8558	1,108.89	74.9041	1,108.89	77.7286	1,108.89	72.5611	1,108.89	75.94	1,108.89	72.1334	1,108.89	74.6495	1,108.89	72.9055	1,108.89	73.9301	1,108.89	72.287	1,108.89	72.4787	1,108.89	71.4779	1,108.89	72.2346	1,108.89	71.9213	1,108.89	74.3625	1,108.89	73.1955	1,108.89	74.4814	1,108.89	74.0873	1,108.89	73.1655	1,108.89	74.171	1,108.89	73.2064	1,108.89	73.9378
1,148.44	84.6447	1,148.44	84.5416	1,148.44	84.2291	1,148.44	84.1284	1,148.44	83.6956	1,148.44	83.5144	1,148.44	83.4988	1,148.44	82.5082	1,148.44	83.3295	1,148.44	81.2316	1,148.44	82.4602	1,148.44	80.0349	1,148.44	80.407	1,148.44	78.6628	1,148.44	77.9974	1,148.44	76.5433	1,148.44	76.5981	1,148.44	74.3462	1,148.44	76.4559	1,148.44	74.3418	1,148.44	76.3451	1,148.44	74.4623	1,148.44	75.0047	1,148.44	72.732	1,148.44	74.3133	1,148.44	71.5904	1,148.44	75.5901	1,148.44	72.3553	1,148.44	74.958	1,148.44	73.3156	1,148.44	74.0134	1,148.44	73.3806	1,148.44	71.9113	1,148.44	73.391	1,148.44	71.332	1,148.44	73.3623
1,189.45	84.8946	1,189.45	84.9141	1,189.45	84.5294	1,189.45	84.3216	1,189.45	84.0518	1,189.45	83.1307	1,189.45	83.4879	1,189.45	81.6478	1,189.45	83.0279	1,189.45	80.2496	1,189.45	82.3221	1,189.45	78.9532	1,189.45	80.9238	1,189.45	78.012	1,189.45	79.2974	1,189.45	77.209	1,189.45	77.4752	1,189.45	75.9887	1,189.45	74.9761	1,189.45	75.5913	1,189.45	74.006	1,189.45	75.2572	1,189.45	72.4983	1,189.45	73.8056	1,189.45	71.057	1,189.45	72.2728	1,189.45	71.5793	1,189.45	66.2093	1,189.45	73.4008	1,189.45	69.3617	1,189.45	75.0382	1,189.45	72.2888	1,189.45	72.6845	1,189.45	73.7758	1,189.45	71.7832	1,189.45	74.114
1,230.47	85.6286	1,230.47	85.4462	1,230.47	84.9796	1,230.47	84.37	1,230.47	84.344	1,230.47	83.0261	1,230.47	83.5871	1,230.47	81.6604	1,230.47	82.7608	1,230.47	80.8115	1,230.47	82.3395	1,230.47	80.3918	1,230.47	81.9373	1,230.47	78.6315	1,230.47	80.5318	1,230.47	74.974	1,230.47	77.6457	1,230.47	72.4943	1,230.47	75.2339	1,230.47	73.9233	1,230.47	74.7026	1,230.47	75.9638	1,230.47	74.9056	1,230.47	76.9506	1,230.47	73.0299	1,230.47	75.8577	1,230.47	69.4014	1,230.47	71.54	1,230.47	71.9918	1,230.47	68.3851	1,230.47	74.0002	1,230.47	71.8049	1,230.47	74.2248	1,230.47	74.9544	1,230.47	73.6115	1,230.47	74.8976
1,274.41	85.1077	1,274.41	85.1082	1,274.41	84.6868	1,274.41	84.2508	1,274.41	84.1951	1,274.41	82.9736	1,274.41	83.6238	1,274.41	81.9805	1,274.41	83.3092	1,274.41	80.9983	1,274.41	82.8002	1,274.41	79.1059	1,274.41	81.5023	1,274.41	76.3726	1,274.41	80.2172	1,274.41	75.0017	1,274.41	78.5041	1,274.41	74.255	1,274.41	76.5426	1,274.41	70.1787	1,274.41	75.1465	1,274.41	72.8035	1,274.41	73.8522	1,274.41	76.2339	1,274.41	72.4057	1,274.41	76.8304	1,274.41	71.8215	1,274.41	73.0067	1,274.41	68.5038	1,274.41	67.709	1,274.41	73.7636	1,274.41	70.4869	1,274.41	74.8234	1,274.41	73.6146	1,274.41	71.4318	1,274.41	74.1214
1,319.82	84.9385	1,319.82	84.9033	1,319.82	84.7969	1,319.82	84.303	1,319.82	84.5051	1,319.82	83.3791	1,319.82	83.7839	1,319.82	82.3173	1,319.82	82.8621	1,319.82	80.6223	1,319.82	81.821	1,319.82	79.0071	1,319.82	80.9876	1,319.82	78.457	1,319.82	79.9908	1,319.82	77.3626	1,319.82	78.3398	1,319.82	75.61	1,319.82	76.7388	1,319.82	73.7417	1,319.82	74.3484	1,319.82	71.5627	1,319.82	72.5587	1,319.82	73.9662	1,319.82	74.4781	1,319.82	75.8805	1,319.82	73.0263	1,319.82	73.1433	1,319.82	72.9726	1,319.82	70.7604	1,319.82	75.329	1,319.82	72.8528	1,319.82	74.7757	1,319.82	73.4834	1,319.82	73.6667	1,319.82	73.3839
1,366.7	84.6163	1,366.7	84.5934	1,366.7	84.6274	1,366.7	84.4971	1,366.7	84.1209	1,366.7	83.4276	1,366.7	83.6549	1,366.7	81.3923	1,366.7	83.1391	1,366.7	79.5948	1,366.7	81.7855	1,366.7	78.5542	1,366.7	80.9442	1,366.7	77.0113	1,366.7	80.4578	1,366.7	75.635	1,366.7	78.9142	1,366.7	73.6634	1,366.7	76.9322	1,366.7	72.3062	1,366.7	75.0702	1,366.7	73.9212	1,366.7	72.579	1,366.7	74.1749	1,366.7	71.7895	1,366.7	74.2377	1,366.7	71.7205	1,366.7	73.8655	1,366.7	73.6358	1,366.7	69.2992	1,366.7	74.1546	1,366.7	68.3518	1,366.7	74.2228	1,366.7	70.3754	1,366.7	71.5473	1,366.7	70.9376
1,413.57	84.5155	1,413.57	84.3762	1,413.57	84.2213	1,413.57	83.544	1,413.57	84.2646	1,413.57	82.5019	1,413.57	83.7277	1,413.57	81.4057	1,413.57	82.5663	1,413.57	80.8639	1,413.57	81.7376	1,413.57	79.2175	1,413.57	81.339	1,413.57	74.8952	1,413.57	79.9584	1,413.57	70.0401	1,413.57	77.8993	1,413.57	69.7709	1,413.57	75.2996	1,413.57	66.3311	1,413.57	71.2798	1,413.57	64.5773	1,413.57	70.5417	1,413.57	72.0151	1,413.57	72.368	1,413.57	76.2162	1,413.57	71.6065	1,413.57	75.0978	1,413.57	69.3941	1,413.57	69.9361	1,413.57	72.7482	1,413.57	70.6743	1,413.57	74.3468	1,413.57	73.4855	1,413.57	70.0392	1,413.57	70.7132
1,463.38	84.1178	1,463.38	83.5863	1,463.38	84.0462	1,463.38	82.6113	1,463.38	83.8265	1,463.38	81.8906	1,463.38	83.3339	1,463.38	81.5932	1,463.38	81.8933	1,463.38	80.8712	1,463.38	80.1883	1,463.38	79.1077	1,463.38	79.3231	1,463.38	76.2558	1,463.38	78.7481	1,463.38	73.3004	1,463.38	76.8379	1,463.38	71.2895	1,463.38	73.9978	1,463.38	72.0631	1,463.38	70.9436	1,463.38	70.638	1,463.38	68.8842	1,463.38	67.6882	1,463.38	66.0944	1,463.38	73.8499	1,463.38	69.3711	1,463.38	75.5127	1,463.38	67.9351	1,463.38	73.2722	1,463.38	72.426	1,463.38	70.9597	1,463.38	72.9794	1,463.38	70.3889	1,463.38	70.3051	1,463.38	69.0032
1,516.11	83.9441	1,516.11	83.2463	1,516.11	83.9947	1,516.11	81.6598	1,516.11	83.5291	1,516.11	80.815	1,516.11	82.6575	1,516.11	80.5452	1,516.11	81.8521	1,516.11	78.8338	1,516.11	80.0176	1,516.11	76.2698	1,516.11	78.1673	1,516.11	74.5377	1,516.11	78.2014	1,516.11	73.0117	1,516.11	78.1966	1,516.11	70.6827	1,516.11	76.0845	1,516.11	70.7045	1,516.11	73.995	1,516.11	69.6189	1,516.11	70.6588	1,516.11	67.2253	1,516.11	68.9863	1,516.11	71.7765	1,516.11	66.6297	1,516.11	72.8878	1,516.11	69.3068	1,516.11	69.5517	1,516.11	71.6369	1,516.11	68.7552	1,516.11	73.384	1,516.11	69.8179	1,516.11	72.705	1,516.11	69.5599
1,568.85	83.7519	1,568.85	83.0157	1,568.85	84.4752	1,568.85	82.2876	1,568.85	84.4666	1,568.85	80.1638	1,568.85	84.0267	1,568.85	77.5434	1,568.85	81.9545	1,568.85	76.152	1,568.85	80.2056	1,568.85	76.1087	1,568.85	78.8021	1,568.85	75.4331	1,568.85	77.1712	1,568.85	74.0163	1,568.85	76.7572	1,568.85	71.2115	1,568.85	74.7265	1,568.85	71.6748	1,568.85	72.8483	1,568.85	75.4325	1,568.85	71.6386	1,568.85	71.6004	1,568.85	71.9756	1,568.85	67.1535	1,568.85	73.1765	1,568.85	72.4589	1,568.85	68.5227	1,568.85	69.2676	1,568.85	68.2675	1,568.85	65.8708	1,568.85	71.7553	1,568.85	69.2479	1,568.85	69.9617	1,568.85	69.321
1,624.51	83.5992	1,624.51	82.8791	1,624.51	83.9225	1,624.51	81.5604	1,624.51	84.221	1,624.51	81.0687	1,624.51	83.4387	1,624.51	80.5408	1,624.51	82.0761	1,624.51	78.9966	1,624.51	80.1993	1,624.51	77.7563	1,624.51	78.3816	1,624.51	76.4841	1,624.51	76.7077	1,624.51	72.599	1,624.51	74.8776	1,624.51	71.7431	1,624.51	72.931	1,624.51	66.7653	1,624.51	71.8246	1,624.51	70.7815	1,624.51	72.1694	1,624.51	70.7604	1,624.51	70.7159	1,624.51	68.329	1,624.51	68.7845	1,624.51	73.1924	1,624.51	70.1711	1,624.51	72.1981	1,624.51	70.952	1,624.51	67.5849	1,624.51	73.0766	1,624.51	69.3213	1,624.51	70.3749	1,624.51	70.5485
1,681.64	83.0837	1,681.64	82.3541	1,681.64	83.3997	1,681.64	82.5007	1,681.64	83.2915	1,681.64	81.9104	1,681.64	82.5014	1,681.64	80.7053	1,681.64	81.8462	1,681.64	78.2511	1,681.64	80.0347	1,681.64	74.4266	1,681.64	76.8533	1,681.64	74.1512	1,681.64	76.3426	1,681.64	73.7208	1,681.64	75.9882	1,681.64	73.3788	1,681.64	74.9433	1,681.64	74.6507	1,681.64	71.7933	1,681.64	72.6122	1,681.64	67.7659	1,681.64	71.4236	1,681.64	65.6641	1,681.64	68.8159	1,681.64	72.5109	1,681.64	68.5698	1,681.64	71.0044	1,681.64	69.7856	1,681.64	69.5842	1,681.64	66.8422	1,681.64	70.9727	1,681.64	66.8932	1,681.64	69.0395	1,681.64	66.6908
1,741.7	83.2051	1,741.7	82.427	1,741.7	83.6919	1,741.7	82.2193	1,741.7	83.0251	1,741.7	81.9381	1,741.7	82.8427	1,741.7	80.0361	1,741.7	80.6351	1,741.7	75.5222	1,741.7	78.762	1,741.7	77.5543	1,741.7	78.0061	1,741.7	77.8327	1,741.7	77.523	1,741.7	74.3799	1,741.7	76.1042	1,741.7	73.4042	1,741.7	75.2245	1,741.7	66.6188	1,741.7	73.3138	1,741.7	66.8262	1,741.7	69.0014	1,741.7	68.8204	1,741.7	70.562	1,741.7	72.1724	1,741.7	65.7897	1,741.7	72.4285	1,741.7	70.8314	1,741.7	68.8808	1,741.7	69.4916	1,741.7	68.6232	1,741.7	72.468	1,741.7	68.3017	1,741.7	73.282	1,741.7	67.4733
1,803.22	84.6678	1,803.22	83.0812	1,803.22	84.6194	1,803.22	80.8493	1,803.22	84.5213	1,803.22	80.9182	1,803.22	82.893	1,803.22	80.4356	1,803.22	81.0217	1,803.22	79.236	1,803.22	78.2781	1,803.22	78.7321	1,803.22	76.3031	1,803.22	75.8249	1,803.22	77.4315	1,803.22	73.3588	1,803.22	76.2337	1,803.22	75.0917	1,803.22	73.9405	1,803.22	72.4231	1,803.22	74.1074	1,803.22	68.1969	1,803.22	70.5541	1,803.22	69.2135	1,803.22	65.8228	1,803.22	70.0624	1,803.22	67.4535	1,803.22	68.337	1,803.22	71.3692	1,803.22	70.4503	1,803.22	71.7921	1,803.22	68.7672	1,803.22	73.3814	1,803.22	63.9131	1,803.22	71.5588	1,803.22	56.0752
1,866.21	84.8375	1,866.21	83.1232	1,866.21	84.8862	1,866.21	81.9753	1,866.21	84.3019	1,866.21	81.7792	1,866.21	82.6649	1,866.21	79.4997	1,866.21	81.3282	1,866.21	79.0213	1,866.21	77.8449	1,866.21	79.4201	1,866.21	75.5884	1,866.21	76.861	1,866.21	72.9219	1,866.21	75.603	1,866.21	70.7261	1,866.21	73.3324	1,866.21	74.6795	1,866.21	72.2219	1,866.21	74.8806	1,866.21	71.1494	1,866.21	71.3068	1,866.21	64.7931	1,866.21	68.6967	1,866.21	72.2819	1,866.21	71.5104	1,866.21	73.6448	1,866.21	69.1736	1,866.21	71.2322	1,866.21	69.0675	1,866.21	66.8585	1,866.21	71.3748	1,866.21	63.7834	1,866.21	70.611	1,866.21	68.6973
1,932.13	83.952	1,932.13	83.0247	1,932.13	84.4962	1,932.13	82.0096	1,932.13	84.6012	1,932.13	79.8925	1,932.13	83.6364	1,932.13	78.7289	1,932.13	81.6628	1,932.13	78.9618	1,932.13	77.51	1,932.13	78.3677	1,932.13	76.4437	1,932.13	76.5411	1,932.13	73.0025	1,932.13	71.6248	1,932.13	72.9137	1,932.13	69.5058	1,932.13	73.4014	1,932.13	69.1046	1,932.13	75.8217	1,932.13	71.678	1,932.13	74.2628	1,932.13	69.5133	1,932.13	69.5546	1,932.13	70.811	1,932.13	68.4998	1,932.13	71.8457	1,932.13	69.8387	1,932.13	66.7193	1,932.13	69.3453	1,932.13	65.632	1,932.13	70.9986	1,932.13	64.1666	1,932.13	71.1247	1,932.13	67.5952
1,999.51	83.8521	1,999.51	81.7364	1,999.51	84.5145	1,999.51	80.2711	1,999.51	83.927	1,999.51	80.3828	1,999.51	82.5083	1,999.51	80.5863	1,999.51	81.0365	1,999.51	79.6969	1,999.51	79.434	1,999.51	78.8404	1,999.51	76.6685	1,999.51	76.8395	1,999.51	75.2575	1,999.51	74.6825	1,999.51	71.5252	1,999.51	72.5999	1,999.51	72.718	1,999.51	70.3143	1,999.51	74.454	1,999.51	72.8361	1,999.51	75.2598	1,999.51	70.1312	1,999.51	71.3901	1,999.51	69.9443	1,999.51	70.6053	1,999.51	73.5915	1,999.51	70.6849	1,999.51	70.4755	1,999.51	70.544	1,999.51	66.8813	1,999.51	70.8802	1,999.51	64.5452	1,999.51	71.221	1,999.51	65.1182
2,069.82	84.8053	2,069.82	81.793	2,069.82	85.4994	2,069.82	79.3616	2,069.82	84.0737	2,069.82	80.7721	2,069.82	82.3465	2,069.82	81.2432	2,069.82	81.5134	2,069.82	80.0807	2,069.82	79.2901	2,069.82	78.9616	2,069.82	77.7263	2,069.82	75.029	2,069.82	77.1529	2,069.82	72.9377	2,069.82	74.2214	2,069.82	73.6145	2,069.82	72.4975	2,069.82	69.4051	2,069.82	72.5414	2,069.82	71.1451	2,069.82	72.5978	2,069.82	73.157	2,069.82	68.9462	2,069.82	67.2428	2,069.82	66.1973	2,069.82	72.0024	2,069.82	69.9874	2,069.82	71.3524	2,069.82	69.9418	2,069.82	65.2193	2,069.82	71.8615	2,069.82	62.6373	2,069.82	71.4206	2,069.82	65.8104
2,143.07	84.8531	2,143.07	81.9336	2,143.07	85.8695	2,143.07	80.011	2,143.07	84.9275	2,143.07	80.0866	2,143.07	82.8984	2,143.07	80.4576	2,143.07	81.0086	2,143.07	80.2271	2,143.07	78.7684	2,143.07	78.3083	2,143.07	77.4601	2,143.07	76.2173	2,143.07	77.1534	2,143.07	75.6171	2,143.07	76.3908	2,143.07	73.0634	2,143.07	75.2638	2,143.07	71.8439	2,143.07	72.9104	2,143.07	66.8401	2,143.07	70.5671	2,143.07	72.1398	2,143.07	67.9919	2,143.07	68.7921	2,143.07	63.5865	2,143.07	71.4938	2,143.07	69.0635	2,143.07	72.3521	2,143.07	70.6472	2,143.07	64.6149	2,143.07	70.5864	2,143.07	59.1694	2,143.07	71.1004	2,143.07	65.2072
2,219.24	83.5165	2,219.24	81.2519	2,219.24	85.2986	2,219.24	80.4402	2,219.24	84.8708	2,219.24	79.9045	2,219.24	82.9472	2,219.24	79.9857	2,219.24	80.388	2,219.24	79.6862	2,219.24	78.4663	2,219.24	79.4021	2,219.24	76.3888	2,219.24	77.3124	2,219.24	75.1833	2,219.24	72.7001	2,219.24	76.3843	2,219.24	75.0917	2,219.24	75.4725	2,219.24	72.3027	2,219.24	74.1715	2,219.24	67.5883	2,219.24	72.062	2,219.24	72.1243	2,219.24	71.2602	2,219.24	71.9197	2,219.24	65.3748	2,219.24	69.1142	2,219.24	66.5882	2,219.24	72.1747	2,219.24	70.5955	2,219.24	66.135	2,219.24	69.3773	2,219.24	54.8335	2,219.24	71.387	2,219.24	64.7521
2,296.88	83.7298	2,296.88	80.4785	2,296.88	85.0607	2,296.88	79.2511	2,296.88	84.1844	2,296.88	80.0588	2,296.88	82.0779	2,296.88	79.759	2,296.88	81.0304	2,296.88	80.2836	2,296.88	78.3818	2,296.88	80.0848	2,296.88	76.1984	2,296.88	78.3819	2,296.88	73.5214	2,296.88	76.5406	2,296.88	71.8836	2,296.88	73.9582	2,296.88	71.9734	2,296.88	73.015	2,296.88	69.1176	2,296.88	69.7331	2,296.88	70.0791	2,296.88	70.0808	2,296.88	70.2281	2,296.88	73.7015	2,296.88	67.4274	2,296.88	69.3595	2,296.88	66.3794	2,296.88	71.3736	2,296.88	66.9317	2,296.88	66.1502	2,296.88	68.0224	2,296.88	55.5953	2,296.88	69.3236	2,296.88	63.4493
2,378.91	84.1311	2,378.91	81.0921	2,378.91	85.236	2,378.91	78.3397	2,378.91	84.0735	2,378.91	79.2391	2,378.91	82.1178	2,378.91	80.9578	2,378.91	80.4101	2,378.91	81.3502	2,378.91	77.733	2,378.91	80.1988	2,378.91	76.323	2,378.91	78.8244	2,378.91	71.8675	2,378.91	74.7144	2,378.91	72.5596	2,378.91	69.8807	2,378.91	72.4946	2,378.91	71.2096	2,378.91	65.9072	2,378.91	72.1766	2,378.91	59.5844	2,378.91	66.8851	2,378.91	66.7173	2,378.91	72.77	2,378.91	65.7642	2,378.91	71.6505	2,378.91	62.5366	2,378.91	70.6289	2,378.91	67.1968	2,378.91	67.3484	2,378.91	65.7483	2,378.91	42.5239	2,378.91	70.4187	2,378.91	62.4018
2,462.4	83.5894	2,462.4	81.0415	2,462.4	84.6849	2,462.4	77.9111	2,462.4	84.505	2,462.4	79.4799	2,462.4	82.9455	2,462.4	82.0399	2,462.4	80.3694	2,462.4	81.9835	2,462.4	77.6487	2,462.4	80.2449	2,462.4	75.2969	2,462.4	75.5062	2,462.4	72.6566	2,462.4	76.7394	2,462.4	72.3681	2,462.4	74.942	2,462.4	73.6327	2,462.4	71.6985	2,462.4	72.2292	2,462.4	70.3889	2,462.4	67.2669	2,462.4	69.1504	2,462.4	62.798	2,462.4	70.8984	2,462.4	69.6473	2,462.4	71.7401	2,462.4	63.7584	2,462.4	69.1065	2,462.4	62.8094	2,462.4	67.1452	2,462.4	66.3054	2,462.4	47.0397	2,462.4	71.281	2,462.4	64.2144
2,548.83	83.0753	2,548.83	80.0135	2,548.83	83.8822	2,548.83	79.0647	2,548.83	83.4171	2,548.83	80.3428	2,548.83	82.6933	2,548.83	81.3738	2,548.83	80.0196	2,548.83	81.4287	2,548.83	77.5866	2,548.83	79.333	2,548.83	75.941	2,548.83	77.3548	2,548.83	72.0932	2,548.83	73.0313	2,548.83	69.8207	2,548.83	71.7511	2,548.83	72.8776	2,548.83	69.8616	2,548.83	70.0655	2,548.83	69.0433	2,548.83	68.5384	2,548.83	69.5368	2,548.83	68.8038	2,548.83	69.4693	2,548.83	69.6846	2,548.83	72.1447	2,548.83	60.9311	2,548.83	69.2772	2,548.83	64.6837	2,548.83	66.9811	2,548.83	66.2216	2,548.83	53.9414	2,548.83	70.3754	2,548.83	65.8536
2,639.65	83.021	2,639.65	79.388	2,639.65	84.072	2,639.65	78.3475	2,639.65	83.5094	2,639.65	80.7609	2,639.65	81.7234	2,639.65	80.8549	2,639.65	78.5046	2,639.65	80.4082	2,639.65	74.8659	2,639.65	79.7846	2,639.65	73.4694	2,639.65	77.4294	2,639.65	69.7792	2,639.65	75.6159	2,639.65	76.2382	2,639.65	73.1204	2,639.65	74.4814	2,639.65	69.663	2,639.65	69.6393	2,639.65	65.5119	2,639.65	59.6199	2,639.65	69.3488	2,639.65	66.0494	2,639.65	68.3533	2,639.65	66.4479	2,639.65	70.9206	2,639.65	66.1527	2,639.65	69.9948	2,639.65	66.8974	2,639.65	65.6889	2,639.65	67.9068	2,639.65	54.1748	2,639.65	70.3995	2,639.65	64.0615
2,731.93	82.0475	2,731.93	79.3666	2,731.93	83.7667	2,731.93	78.3525	2,731.93	83.8161	2,731.93	79.7283	2,731.93	81.9436	2,731.93	80.9345	2,731.93	78.3773	2,731.93	81.1155	2,731.93	74.2942	2,731.93	79.6772	2,731.93	72.6545	2,731.93	77.9699	2,731.93	71.7514	2,731.93	73.1141	2,731.93	74.5403	2,731.93	69.0562	2,731.93	75.012	2,731.93	68.7579	2,731.93	71.1111	2,731.93	69.0718	2,731.93	68.8611	2,731.93	65.6036	2,731.93	64.1482	2,731.93	69.7331	2,731.93	63.8713	2,731.93	69.0388	2,731.93	64.8472	2,731.93	69.5397	2,731.93	68.7429	2,731.93	65.2474	2,731.93	65.3738	2,731.93	49.6262	2,731.93	69.4343	2,731.93	63.7284
2,828.61	81.9018	2,828.61	78.8805	2,828.61	83.2529	2,828.61	77.3485	2,828.61	83.8925	2,828.61	78.7935	2,828.61	82.5267	2,828.61	81.436	2,828.61	78.4167	2,828.61	80.8019	2,828.61	74.9848	2,828.61	79.5359	2,828.61	73.2455	2,828.61	75.2316	2,828.61	70.1677	2,828.61	73.9004	2,828.61	72.2233	2,828.61	69.2177	2,828.61	74.1173	2,828.61	70.3331	2,828.61	75.3631	2,828.61	65.9646	2,828.61	71.4012	2,828.61	66.8382	2,828.61	64.6155	2,828.61	67.5175	2,828.61	63.1644	2,828.61	68.8054	2,828.61	65.602	2,828.61	69.3653	2,828.61	65.5249	2,828.61	64.5819	2,828.61	66.5918	2,828.61	53.933	2,828.61	68.7597	2,828.61	61.2363
2,928.22	82.0451	2,928.22	78.8626	2,928.22	83.0063	2,928.22	77.1013	2,928.22	84.1539	2,928.22	80.0897	2,928.22	82.8514	2,928.22	80.5261	2,928.22	77.9266	2,928.22	81.0117	2,928.22	76.0392	2,928.22	78.7194	2,928.22	74.3322	2,928.22	74.679	2,928.22	75.1387	2,928.22	71.1376	2,928.22	71.2416	2,928.22	70.3298	2,928.22	72.3859	2,928.22	65.4229	2,928.22	78.4317	2,928.22	65.1848	2,928.22	76.1225	2,928.22	62.0063	2,928.22	66.0347	2,928.22	66.4873	2,928.22	54.7436	2,928.22	67.9237	2,928.22	64.8018	2,928.22	66.3456	2,928.22	66.2833	2,928.22	65.0087	2,928.22	65.7597	2,928.22	52.4202	2,928.22	68.1162	2,928.22	61.9366
3,030.76	80.944	3,030.76	77.972	3,030.76	82.3656	3,030.76	78.101	3,030.76	83.1106	3,030.76	80.3809	3,030.76	82.2884	3,030.76	80.879	3,030.76	78.1247	3,030.76	80.8607	3,030.76	76.2654	3,030.76	76.2844	3,030.76	75.2039	3,030.76	74.1091	3,030.76	73.4348	3,030.76	71.9373	3,030.76	64.4637	3,030.76	66.2462	3,030.76	73.3131	3,030.76	62.4745	3,030.76	78.7514	3,030.76	55.0316	3,030.76	76.6152	3,030.76	62.0024	3,030.76	64.5539	3,030.76	62.5676	3,030.76	66.5053	3,030.76	66.679	3,030.76	64.718	3,030.76	66.0064	3,030.76	66.3394	3,030.76	62.9958	3,030.76	65.4943	3,030.76	51.9535	3,030.76	66.8954	3,030.76	60.733
3,137.7	81.1147	3,137.7	78.4877	3,137.7	82.8455	3,137.7	79.2795	3,137.7	82.9399	3,137.7	80.673	3,137.7	81.2392	3,137.7	81.4324	3,137.7	78.5961	3,137.7	79.5749	3,137.7	76.1025	3,137.7	75.96	3,137.7	75.6508	3,137.7	73.3284	3,137.7	74.2079	3,137.7	64.4966	3,137.7	60.1215	3,137.7	56.2201	3,137.7	73.5385	3,137.7	58.0524	3,137.7	77.3763	3,137.7	54.2866	3,137.7	72.6233	3,137.7	61.3001	3,137.7	67.15	3,137.7	61.5587	3,137.7	68.5221	3,137.7	65.7882	3,137.7	64.2045	3,137.7	64.5421	3,137.7	64.2188	3,137.7	63.0275	3,137.7	66.0777	3,137.7	56.7198	3,137.7	67.1788	3,137.7	56.3383
3,249.02	80.4766	3,249.02	77.4643	3,249.02	83.4056	3,249.02	80.0917	3,249.02	83.7767	3,249.02	81.6234	3,249.02	81.9235	3,249.02	81.0651	3,249.02	78.2905	3,249.02	78.5704	3,249.02	77.5993	3,249.02	74.2033	3,249.02	77.1311	3,249.02	68.603	3,249.02	75.4936	3,249.02	60.4017	3,249.02	72.0314	3,249.02	63.2805	3,249.02	74.7921	3,249.02	49.2481	3,249.02	76.8027	3,249.02	54.9182	3,249.02	73.0043	3,249.02	53.4419	3,249.02	69.8014	3,249.02	60.8884	3,249.02	68.1059	3,249.02	61.6177	3,249.02	58.2623	3,249.02	64.5489	3,249.02	62.0199	3,249.02	60.1548	3,249.02	65.0114	3,249.02	49.8572	3,249.02	66.8551	3,249.02	59.3736
3,363.28	80.1122	3,363.28	78.9032	3,363.28	83.4679	3,363.28	81.5508	3,363.28	84.2712	3,363.28	82.3962	3,363.28	82.4539	3,363.28	80.4702	3,363.28	78.6472	3,363.28	77.5196	3,363.28	77.56	3,363.28	73.0591	3,363.28	77.621	3,363.28	65.9512	3,363.28	76.9726	3,363.28	67.2146	3,363.28	73.376	3,363.28	58.6652	3,363.28	76.5516	3,363.28	44.0122	3,363.28	77.1461	3,363.28	55.8748	3,363.28	73.4975	3,363.28	44.7776	3,363.28	71.201	3,363.28	57.4489	3,363.28	67.4872	3,363.28	61.3626	3,363.28	59.8461	3,363.28	62.4873	3,363.28	59.8131	3,363.28	63.2704	3,363.28	64.7752	3,363.28	48.3868	3,363.28	65.1466	3,363.28	61.1892
3,481.93	81.1716	3,481.93	80.2073	3,481.93	83.2168	3,481.93	82.2815	3,481.93	84.2376	3,481.93	82.0162	3,481.93	82.3532	3,481.93	80.4639	3,481.93	79.0867	3,481.93	76.6963	3,481.93	78.8692	3,481.93	72.1836	3,481.93	79.0158	3,481.93	68.5517	3,481.93	78.0857	3,481.93	64.5519	3,481.93	74.2636	3,481.93	51.6637	3,481.93	77.1365	3,481.93	55.2669	3,481.93	76.5608	3,481.93	52.7234	3,481.93	74.6256	3,481.93	51.383	3,481.93	69.9955	3,481.93	57.1253	3,481.93	65.2714	3,481.93	61.917	3,481.93	61.4262	3,481.93	59.8108	3,481.93	59.3046	3,481.93	61.9132	3,481.93	64.9218	3,481.93	50.2406	3,481.93	65.3649	3,481.93	58.1729
3,604.98	81.4991	3,604.98	81.1162	3,604.98	84.1704	3,604.98	83.3189	3,604.98	84.6656	3,604.98	82.7067	3,604.98	82.5627	3,604.98	79.7346	3,604.98	80.5551	3,604.98	75.518	3,604.98	77.5318	3,604.98	70.1486	3,604.98	81.341	3,604.98	68.633	3,604.98	80.1951	3,604.98	63.115	3,604.98	73.1559	3,604.98	49.7105	3,604.98	76.1709	3,604.98	55.4366	3,604.98	77.2932	3,604.98	58.0363	3,604.98	72.8735	3,604.98	60.2866	3,604.98	69.3474	3,604.98	58.2119	3,604.98	62.0996	3,604.98	63.3678	3,604.98	63.4379	3,604.98	61.8962	3,604.98	62.5266	3,604.98	61.5647	3,604.98	65.1978	3,604.98	53.5133	3,604.98	65.8704	3,604.98	44.392
3,732.42	81.2167	3,732.42	81.3507	3,732.42	83.9863	3,732.42	83.7763	3,732.42	84.6311	3,732.42	82.2022	3,732.42	82.6937	3,732.42	77.7256	3,732.42	80.0514	3,732.42	72.5329	3,732.42	78.0467	3,732.42	69.0327	3,732.42	81.7592	3,732.42	68.4683	3,732.42	80.6108	3,732.42	60.6014	3,732.42	63.6912	3,732.42	66.2312	3,732.42	71.4127	3,732.42	64.8419	3,732.42	76.5738	3,732.42	58.7184	3,732.42	70.9228	3,732.42	62.9401	3,732.42	67.0427	3,732.42	62.8116	3,732.42	62.1182	3,732.42	63.439	3,732.42	63.7351	3,732.42	60.0488	3,732.42	61.8403	3,732.42	53.081	3,732.42	65.8094	3,732.42	53.1544	3,732.42	65.1965	3,732.42	52.9792
3,864.26	80.5643	3,864.26	81.974	3,864.26	83.4865	3,864.26	83.654	3,864.26	84.2525	3,864.26	80.7737	3,864.26	82.5585	3,864.26	73.6236	3,864.26	79.9732	3,864.26	68.1391	3,864.26	78.5148	3,864.26	71.6754	3,864.26	81.1953	3,864.26	71.2952	3,864.26	80.0558	3,864.26	69.6583	3,864.26	69.0316	3,864.26	70.37	3,864.26	67.6626	3,864.26	63.6582	3,864.26	76.6798	3,864.26	66.2087	3,864.26	76.7316	3,864.26	63.7218	3,864.26	70.3499	3,864.26	64.1744	3,864.26	64.3344	3,864.26	62.2161	3,864.26	60.4073	3,864.26	58.2363	3,864.26	59.9827	3,864.26	49.7087	3,864.26	64.8267	3,864.26	56.4641	3,864.26	63.3684	3,864.26	58.671
4,000.49	77.9275	4,000.49	81.4536	4,000.49	81.6505	4,000.49	82.7651	4,000.49	83.6088	4,000.49	78.7546	4,000.49	81.6885	4,000.49	67.1937	4,000.49	76.8507	4,000.49	68.601	4,000.49	78.2861	4,000.49	72.5254	4,000.49	79.6052	4,000.49	72.8792	4,000.49	78.3867	4,000.49	71.7333	4,000.49	69.4354	4,000.49	69.0602	4,000.49	70.7825	4,000.49	65.7312	4,000.49	77.7724	4,000.49	65.1221	4,000.49	77.4091	4,000.49	62.7565	4,000.49	66.0849	4,000.49	61.9167	4,000.49	63.2974	4,000.49	62.8598	4,000.49	62.1673	4,000.49	57.4074	4,000.49	57.7089	4,000.49	44.9437	4,000.49	62.4412	4,000.49	55.7345	4,000.49	61.8812	4,000.49	60.3244
4,141.11	76.3625	4,141.11	79.5524	4,141.11	80.3839	4,141.11	79.7075	4,141.11	83.1575	4,141.11	74.744	4,141.11	81.0198	4,141.11	60.8482	4,141.11	74.9226	4,141.11	69.6507	4,141.11	77.6525	4,141.11	71.0241	4,141.11	78.9294	4,141.11	71.3255	4,141.11	75.8751	4,141.11	66.9922	4,141.11	72.5135	4,141.11	64.1989	4,141.11	63.8351	4,141.11	63.3533	4,141.11	79.98	4,141.11	59.4879	4,141.11	77.4736	4,141.11	60.5071	4,141.11	69.2767	4,141.11	57.7209	4,141.11	62.1954	4,141.11	56.8663	4,141.11	61.78	4,141.11	55.353	4,141.11	55.6261	4,141.11	46.873	4,141.11	59.8396	4,141.11	54.3546	4,141.11	60.6982	4,141.11	58.4226
4,287.6	75.5379	4,287.6	78.6529	4,287.6	80.5636	4,287.6	79.3188	4,287.6	83.2843	4,287.6	73.4367	4,287.6	81.0852	4,287.6	68.0676	4,287.6	73.486	4,287.6	68.4192	4,287.6	77.3759	4,287.6	70.7977	4,287.6	78.6447	4,287.6	68.2637	4,287.6	74.1748	4,287.6	66.9774	4,287.6	74.713	4,287.6	64.6381	4,287.6	58.2712	4,287.6	60.4124	4,287.6	78.7858	4,287.6	60.5406	4,287.6	74.1933	4,287.6	59.6619	4,287.6	68.1741	4,287.6	52.3482	4,287.6	62.3725	4,287.6	55.6397	4,287.6	60.968	4,287.6	48.7879	4,287.6	54.2422	4,287.6	44.5315	4,287.6	60.4808	4,287.6	53.181	4,287.6	58.9941	4,287.6	55.7241
4,438.48	74.3778	4,438.48	80.813	4,438.48	80.1176	4,438.48	80.4475	4,438.48	82.8217	4,438.48	77.9507	4,438.48	80.2186	4,438.48	62.6447	4,438.48	70.7138	4,438.48	67.3379	4,438.48	75.6149	4,438.48	66.0638	4,438.48	76.289	4,438.48	68.9252	4,438.48	73.9723	4,438.48	62.4814	4,438.48	75.031	4,438.48	65.5824	4,438.48	66.3099	4,438.48	63.2043	4,438.48	74.8306	4,438.48	57.5968	4,438.48	73.4212	4,438.48	60.9795	4,438.48	62.1563	4,438.48	59.1924	4,438.48	61.2406	4,438.48	60.5047	4,438.48	57.688	4,438.48	53.0359	4,438.48	54.0924	4,438.48	53.353	4,438.48	60.1119	4,438.48	49.7671	4,438.48	59.144	4,438.48	57.0171
4,595.21	76.5553	4,595.21	81.9552	4,595.21	79.3702	4,595.21	81.8524	4,595.21	81.5823	4,595.21	74.0983	4,595.21	78.0867	4,595.21	59.7625	4,595.21	68.3781	4,595.21	71.4272	4,595.21	72.9618	4,595.21	73.5458	4,595.21	67.4585	4,595.21	70.689	4,595.21	74.5337	4,595.21	70.5823	4,595.21	72.407	4,595.21	66.7713	4,595.21	67.5058	4,595.21	64.6746	4,595.21	74.6273	4,595.21	63.6411	4,595.21	74.0171	4,595.21	63.3139	4,595.21	56.0148	4,595.21	61.258	4,595.21	59.3459	4,595.21	63.0149	4,595.21	58.0217	4,595.21	58.934	4,595.21	54.3519	4,595.21	49.6967	4,595.21	57.8821	4,595.21	53.117	4,595.21	56.9747	4,595.21	56.825
4,756.35	79.0939	4,756.35	82.7614	4,756.35	80.1211	4,756.35	81.0031	4,756.35	82.9241	4,756.35	71.6172	4,756.35	77.437	4,756.35	69.7408	4,756.35	59.578	4,756.35	75.2465	4,756.35	70.0033	4,756.35	74.3676	4,756.35	68.9927	4,756.35	73.0758	4,756.35	74.9298	4,756.35	69.569	4,756.35	70.1216	4,756.35	67.3415	4,756.35	66.4938	4,756.35	65.4481	4,756.35	76.5064	4,756.35	61.3064	4,756.35	74.0084	4,756.35	61.9362	4,756.35	62.5802	4,756.35	60.6955	4,756.35	55.2952	4,756.35	63.0264	4,756.35	56.5894	4,756.35	59.4791	4,756.35	54.8848	4,756.35	56.2876	4,756.35	57.0123	4,756.35	52.4721	4,756.35	59.7952	4,756.35	55.2568
4,924.8	80.6312	4,924.8	83.7082	4,924.8	78.47	4,924.8	79.6125	4,924.8	82.8789	4,924.8	65.5359	4,924.8	78.6014	4,924.8	74.3142	4,924.8	63.0291	4,924.8	76.0844	4,924.8	64.5747	4,924.8	74.817	4,924.8	73.279	4,924.8	72.5184	4,924.8	76.2193	4,924.8	69.1125	4,924.8	70.0404	4,924.8	66.6457	4,924.8	61.0256	4,924.8	62.9358	4,924.8	76.2791	4,924.8	62.7059	4,924.8	74.8563	4,924.8	60.2965	4,924.8	65.9154	4,924.8	59.5418	4,924.8	52.6257	4,924.8	60.9259	4,924.8	51.0115	4,924.8	60.094	4,924.8	49.9236	4,924.8	54.3027	4,924.8	56.9135	4,924.8	56.4701	4,924.8	55.0412	4,924.8	57.4376
5,097.66	79.3157	5,097.66	82.3885	5,097.66	74.4769	5,097.66	76.026	5,097.66	81.7921	5,097.66	70.5578	5,097.66	78.4672	5,097.66	76.3423	5,097.66	65.9748	5,097.66	75.9695	5,097.66	59.2118	5,097.66	72.3087	5,097.66	74.9638	5,097.66	71.0137	5,097.66	74.5135	5,097.66	67.3489	5,097.66	71.4203	5,097.66	65.2535	5,097.66	52.1171	5,097.66	61.2038	5,097.66	73.7502	5,097.66	60.9452	5,097.66	73.6046	5,097.66	57.2889	5,097.66	63.8521	5,097.66	56.7702	5,097.66	54.0412	5,097.66	58.9581	5,097.66	35.9089	5,097.66	55.5486	5,097.66	56.9148	5,097.66	51.0025	5,097.66	52.3455	5,097.66	51.3047	5,097.66	55.2155	5,097.66	55.563
5,277.83	79.5787	5,277.83	80.9885	5,277.83	70.1998	5,277.83	70.6205	5,277.83	80.647	5,277.83	73.1271	5,277.83	76.6885	5,277.83	75.8113	5,277.83	69.2249	5,277.83	74.7447	5,277.83	64.9608	5,277.83	71.1535	5,277.83	74.5116	5,277.83	69.5257	5,277.83	71.4834	5,277.83	64.303	5,277.83	70.5158	5,277.83	63.7101	5,277.83	59.0675	5,277.83	59.3066	5,277.83	69.8692	5,277.83	59.497	5,277.83	71.2303	5,277.83	57.4236	5,277.83	55.3	5,277.83	54.7557	5,277.83	55.0489	5,277.83	55.8262	5,277.83	46.6361	5,277.83	58.1891	5,277.83	56.5447	5,277.83	56.1871	5,277.83	52.0952	5,277.83	37.1401	5,277.83	53.7847	5,277.83	56.993
5,463.87	78.7206	5,463.87	79.6531	5,463.87	68.4332	5,463.87	69.3273	5,463.87	79.6842	5,463.87	74.9483	5,463.87	74.9385	5,463.87	76.2107	5,463.87	71.5948	5,463.87	74.3877	5,463.87	68.5996	5,463.87	69.4254	5,463.87	72.0046	5,463.87	69.3897	5,463.87	69.6833	5,463.87	66.0432	5,463.87	71.2361	5,463.87	63.9778	5,463.87	65.9986	5,463.87	61.14	5,463.87	62.132	5,463.87	60.7291	5,463.87	68.2464	5,463.87	56.9598	5,463.87	47.271	5,463.87	56.6105	5,463.87	54.1196	5,463.87	56.8671	5,463.87	52.1454	5,463.87	55.7357	5,463.87	55.5461	5,463.87	54.7816	5,463.87	53.7343	5,463.87	43.4179	5,463.87	52.7699	5,463.87	55.888
5,657.23	78.1147	5,657.23	79.0315	5,657.23	71.3446	5,657.23	69.8981	5,657.23	77.6832	5,657.23	76.1304	5,657.23	73.7909	5,657.23	75.4403	5,657.23	74.7842	5,657.23	73.3891	5,657.23	71.6969	5,657.23	71.0358	5,657.23	68.2735	5,657.23	69.9371	5,657.23	70.3649	5,657.23	66.9406	5,657.23	69.1083	5,657.23	65.4071	5,657.23	67.2194	5,657.23	60.3765	5,657.23	50.8157	5,657.23	60.931	5,657.23	61.0493	5,657.23	57.9609	5,657.23	43.5	5,657.23	58.2094	5,657.23	58.4451	5,657.23	55.1468	5,657.23	52.0195	5,657.23	55.4359	5,657.23	55.0361	5,657.23	56.4096	5,657.23	51.264	5,657.23	46.7863	5,657.23	41.6878	5,657.23	56.7963
5,856.45	77.0784	5,856.45	78.4226	5,856.45	72.9537	5,856.45	72.4382	5,856.45	77.6111	5,856.45	75.5461	5,856.45	72.9685	5,856.45	74.6507	5,856.45	75.8036	5,856.45	73.4761	5,856.45	72.0428	5,856.45	71.7428	5,856.45	65.475	5,856.45	70.2314	5,856.45	69.8626	5,856.45	65.0577	5,856.45	68.1629	5,856.45	60.5826	5,856.45	66.7775	5,856.45	59.6519	5,856.45	39.0605	5,856.45	57.4723	5,856.45	48.0964	5,856.45	57.4404	5,856.45	49.618	5,856.45	55.1773	5,856.45	56.1767	5,856.45	50.8233	5,856.45	46.6855	5,856.45	53.9077	5,856.45	55.8915	5,856.45	53.8515	5,856.45	40.6101	5,856.45	49.5431	5,856.45	53.2866	5,856.45	55.1318
6,062.99	78.3159	6,062.99	78.5991	6,062.99	71.9713	6,062.99	71.8786	6,062.99	80.0406	6,062.99	76.0953	6,062.99	74.8578	6,062.99	75.7168	6,062.99	76.3825	6,062.99	73.1782	6,062.99	74.1565	6,062.99	71.2103	6,062.99	63.9839	6,062.99	66.4445	6,062.99	69.4668	6,062.99	63.9524	6,062.99	66.6807	6,062.99	60.712	6,062.99	64.2341	6,062.99	57.976	6,062.99	52.5636	6,062.99	57.6559	6,062.99	61.0177	6,062.99	55.8363	6,062.99	45.2285	6,062.99	59.0129	6,062.99	46.4819	6,062.99	52.3384	6,062.99	38.5191	6,062.99	55.2057	6,062.99	53.1665	6,062.99	55.8563	6,062.99	53.7541	6,062.99	49.2308	6,062.99	54.539	6,062.99	49.5274
6,276.86	78.5699	6,276.86	77.5766	6,276.86	71.9694	6,276.86	73.7216	6,276.86	79.2929	6,276.86	76.2305	6,276.86	75.528	6,276.86	74.5964	6,276.86	75.7938	6,276.86	73.31	6,276.86	71.9111	6,276.86	70.7043	6,276.86	65.1006	6,276.86	68.1279	6,276.86	70.2212	6,276.86	64.0394	6,276.86	68.4096	6,276.86	62.8943	6,276.86	61.4996	6,276.86	59.6945	6,276.86	57.5911	6,276.86	60.5644	6,276.86	63.5283	6,276.86	56.6316	6,276.86	44.9934	6,276.86	59.2981	6,276.86	53.4695	6,276.86	54.2065	6,276.86	46.5836	6,276.86	55.4196	6,276.86	52.0087	6,276.86	56.1538	6,276.86	52.2969	6,276.86	50.4519	6,276.86	52.4924	6,276.86	49.9237
6,498.05	78.1608	6,498.05	76.9995	6,498.05	71.8314	6,498.05	74.7685	6,498.05	77.6293	6,498.05	75.9843	6,498.05	74.7348	6,498.05	74.3847	6,498.05	74.6657	6,498.05	73.347	6,498.05	71.7768	6,498.05	71.0405	6,498.05	63.2144	6,498.05	69.057	6,498.05	70.3635	6,498.05	65.3581	6,498.05	68.0131	6,498.05	60.2674	6,498.05	62.808	6,498.05	59.2983	6,498.05	59.6301	6,498.05	57.9162	6,498.05	59.4296	6,498.05	54.626	6,498.05	49.1279	6,498.05	57.6407	6,498.05	44.8334	6,498.05	53.2509	6,498.05	48.348	6,498.05	57.8239	6,498.05	44.886	6,498.05	54.0693	6,498.05	49.3861	6,498.05	50.9967	6,498.05	48.5811	6,498.05	50.757
6,726.56	78.6625	6,726.56	76.9519	6,726.56	73.0524	6,726.56	75.2163	6,726.56	77.1834	6,726.56	75.437	6,726.56	73.001	6,726.56	74.8511	6,726.56	72.5408	6,726.56	72.7695	6,726.56	72.4262	6,726.56	71.02	6,726.56	64.7316	6,726.56	67.6263	6,726.56	69.5862	6,726.56	63.636	6,726.56	63.4139	6,726.56	60.0938	6,726.56	63.4493	6,726.56	56.6636	6,726.56	58.7975	6,726.56	56.874	6,726.56	45.6208	6,726.56	54.2262	6,726.56	31.1931	6,726.56	56.7696	6,726.56	51.4315	6,726.56	52.7537	6,726.56	51.5928	6,726.56	57.4979	6,726.56	49.9866	6,726.56	54.1873	6,726.56	49.0382	6,726.56	51.6875	6,726.56	48.7224	6,726.56	49.0604
6,963.87	78.673	6,963.87	76.7482	6,963.87	74.8769	6,963.87	75.2881	6,963.87	78.394	6,963.87	75.9078	6,963.87	71.7503	6,963.87	74.8258	6,963.87	73.1443	6,963.87	72.0675	6,963.87	71.9803	6,963.87	70.4471	6,963.87	66.5244	6,963.87	66.7936	6,963.87	66.5406	6,963.87	62.5568	6,963.87	62.4473	6,963.87	59.4827	6,963.87	62.2137	6,963.87	57.9501	6,963.87	52.7161	6,963.87	56.2019	6,963.87	52.4925	6,963.87	57.1601	6,963.87	34.2253	6,963.87	55.8558	6,963.87	46.5641	6,963.87	53.5748	6,963.87	52.2156	6,963.87	58.0591	6,963.87	51.2256	6,963.87	54.4692	6,963.87	49.929	6,963.87	55.2617	6,963.87	51.1063	6,963.87	44.5832
7,209.96	78.3948	7,209.96	76.5534	7,209.96	74.3245	7,209.96	76.1111	7,209.96	77.7183	7,209.96	75.9945	7,209.96	72.7862	7,209.96	74.0994	7,209.96	74.731	7,209.96	72.1268	7,209.96	71.8344	7,209.96	70.4494	7,209.96	67.8341	7,209.96	67.4571	7,209.96	61.7316	7,209.96	64.3973	7,209.96	66.2336	7,209.96	60.7576	7,209.96	60.4185	7,209.96	59.3646	7,209.96	46.9216	7,209.96	55.0672	7,209.96	55.7608	7,209.96	56.1887	7,209.96	50.2112	7,209.96	55.6225	7,209.96	40.684	7,209.96	54.186	7,209.96	53.5199	7,209.96	56.6701	7,209.96	47.1804	7,209.96	56.4154	7,209.96	52.2076	7,209.96	54.7232	7,209.96	51.3417	7,209.96	44.7805
7,464.84	78.6386	7,464.84	76.7295	7,464.84	74.8794	7,464.84	77.2777	7,464.84	76.6307	7,464.84	75.253	7,464.84	75.0718	7,464.84	73.62	7,464.84	74.8007	7,464.84	72.486	7,464.84	72.0499	7,464.84	70.2141	7,464.84	65.8861	7,464.84	68.0623	7,464.84	62.3992	7,464.84	63.8721	7,464.84	67.9046	7,464.84	61.8281	7,464.84	61.3287	7,464.84	57.8333	7,464.84	55.7043	7,464.84	55.9175	7,464.84	56.8685	7,464.84	54.386	7,464.84	49.4038	7,464.84	53.7454	7,464.84	41.5781	7,464.84	53.6651	7,464.84	49.9724	7,464.84	56.5922	7,464.84	27.9013	7,464.84	57.3541	7,464.84	46.7479	7,464.84	52.2168	7,464.84	48.1557	7,464.84	47.1551
7,727.05	78.8329	7,727.05	76.6412	7,727.05	76.5046	7,727.05	77.5252	7,727.05	77.1944	7,727.05	74.5642	7,727.05	75.2156	7,727.05	74.1763	7,727.05	73.1465	7,727.05	72.0111	7,727.05	73.1265	7,727.05	70.2933	7,727.05	62.5537	7,727.05	67.5475	7,727.05	66.5676	7,727.05	61.9042	7,727.05	64.501	7,727.05	60.9928	7,727.05	61.5054	7,727.05	55.9713	7,727.05	58.4259	7,727.05	56.4095	7,727.05	57.228	7,727.05	54.3834	7,727.05	51.2974	7,727.05	53.6528	7,727.05	42.3455	7,727.05	53.281	7,727.05	51.6112	7,727.05	55.705	7,727.05	43.552	7,727.05	56.2551	7,727.05	46.461	7,727.05	51.4733	7,727.05	49.3396	7,727.05	43.2043
7,999.51	78.988	7,999.51	77.2022	7,999.51	76.2834	7,999.51	77.7726	7,999.51	77.3081	7,999.51	73.5138	7,999.51	74.2318	7,999.51	74.0722	7,999.51	71.5182	7,999.51	71.5135	7,999.51	73.7967	7,999.51	70.2286	7,999.51	65.6857	7,999.51	67.0629	7,999.51	67.3674	7,999.51	62.3921	7,999.51	60.4014	7,999.51	59.821	7,999.51	62.7852	7,999.51	55.8701	7,999.51	48.8344	7,999.51	54.9571	7,999.51	47.3151	7,999.51	53.4525	7,999.51	40.8745	7,999.51	55.2086	7,999.51	39.9214	7,999.51	52.6012	7,999.51	51.6566	7,999.51	54.7317	7,999.51	43.6133	7,999.51	55.7519	7,999.51	47.4183	7,999.51	52.6237	7,999.51	52.6099	7,999.51	31.5097
8,282.23	78.9676	8,282.23	77.3825	8,282.23	76.2993	8,282.23	77.9047	8,282.23	76.8983	8,282.23	73.5048	8,282.23	72.6831	8,282.23	73.6196	8,282.23	71.3602	8,282.23	71.828	8,282.23	73.2366	8,282.23	69.5267	8,282.23	67.7811	8,282.23	67.492	8,282.23	64.8687	8,282.23	62.2961	8,282.23	62.4827	8,282.23	57.819	8,282.23	60.7029	8,282.23	57.2354	8,282.23	55.7581	8,282.23	51.5013	8,282.23	53.4726	8,282.23	54.5158	8,282.23	38.4153	8,282.23	52.6399	8,282.23	35.3692	8,282.23	51.3961	8,282.23	52.5864	8,282.23	54.1631	8,282.23	46.9294	8,282.23	55.2343	8,282.23	44.4614	8,282.23	54.4659	8,282.23	50.101	8,282.23	36.1753
8,573.73	78.8544	8,573.73	78.062	8,573.73	77.5097	8,573.73	77.8052	8,573.73	77.0326	8,573.73	73.8988	8,573.73	72.7544	8,573.73	73.5686	8,573.73	72.3113	8,573.73	71.7753	8,573.73	70.9018	8,573.73	69.7796	8,573.73	67.8373	8,573.73	66.3996	8,573.73	57.6924	8,573.73	62.4939	8,573.73	63.6202	8,573.73	58.1084	8,573.73	55.8453	8,573.73	56.6187	8,573.73	56.0619	8,573.73	52.7379	8,573.73	55.0125	8,573.73	54.6175	8,573.73	43.7504	8,573.73	49.7616	8,573.73	43.0417	8,573.73	51.0876	8,573.73	50.4725	8,573.73	52.7956	8,573.73	41.574	8,573.73	53.9313	8,573.73	47.3234	8,573.73	52.021	8,573.73	50.0004	8,573.73	26.8462
8,876.95	78.6693	8,876.95	78.4534	8,876.95	77.4521	8,876.95	77.791	8,876.95	77.7888	8,876.95	73.9354	8,876.95	74.3639	8,876.95	73.5632	8,876.95	73.0398	8,876.95	71.4761	8,876.95	69.8517	8,876.95	69.7673	8,876.95	67.0056	8,876.95	65.7052	8,876.95	52.7271	8,876.95	62.0751	8,876.95	62.6262	8,876.95	57.9367	8,876.95	53.8621	8,876.95	55.5108	8,876.95	55.7558	8,876.95	53.3025	8,876.95	55.8845	8,876.95	54.3224	8,876.95	31.4651	8,876.95	50.5427	8,876.95	42.1758	8,876.95	52.6614	8,876.95	52.158	8,876.95	53.421	8,876.95	42.5004	8,876.95	53.2787	8,876.95	40.5483	8,876.95	52.8113	8,876.95	48.6367	8,876.95	29.0673
9,188.96	79.0204	9,188.96	78.4706	9,188.96	77.9219	9,188.96	77.6129	9,188.96	77.1501	9,188.96	74.3436	9,188.96	75.2371	9,188.96	73.4689	9,188.96	71.3565	9,188.96	71.3949	9,188.96	71.8339	9,188.96	68.9421	9,188.96	65.3055	9,188.96	64.8912	9,188.96	57.485	9,188.96	60.1376	9,188.96	60.8385	9,188.96	55.9062	9,188.96	55.3424	9,188.96	55.2046	9,188.96	51.3174	9,188.96	50.1836	9,188.96	54.1308	9,188.96	52.728	9,188.96	45.1829	9,188.96	51.814	9,188.96	34.0563	9,188.96	51.3063	9,188.96	53.4395	9,188.96	52.3251	9,188.96	48.1793	9,188.96	53.1124	9,188.96	43.2655	9,188.96	52.3369	9,188.96	49.8775	9,188.96	31.8358
9,514.16	78.8649	9,514.16	78.63	9,514.16	77.7592	9,514.16	77.6308	9,514.16	76.1686	9,514.16	74.8149	9,514.16	73.6153	9,514.16	73.2144	9,514.16	71.3829	9,514.16	70.9361	9,514.16	72.2475	9,514.16	67.7702	9,514.16	64.68	9,514.16	63.0772	9,514.16	57.6914	9,514.16	60.6509	9,514.16	60.5421	9,514.16	55.3687	9,514.16	53.7588	9,514.16	55.0824	9,514.16	54.6132	9,514.16	50.1377	9,514.16	45.9632	9,514.16	52.3751	9,514.16	47.4592	9,514.16	49.3838	9,514.16	36.3434	9,514.16	50.5713	9,514.16	52.3982	9,514.16	50.9913	9,514.16	46.5979	9,514.16	53.7502	9,514.16	41.2918	9,514.16	51.6791	9,514.16	51.0144	9,514.16	40.6963
9,849.61	78.9449	9,849.61	78.4352	9,849.61	77.5396	9,849.61	77.6995	9,849.61	76.7786	9,849.61	75.0069	9,849.61	73.2608	9,849.61	72.7467	9,849.61	72.323	9,849.61	70.506	9,849.61	70.3938	9,849.61	66.0797	9,849.61	65.3142	9,849.61	63.0803	9,849.61	54.2404	9,849.61	60.3969	9,849.61	59.8234	9,849.61	54.5453	9,849.61	52.1976	9,849.61	54.3904	9,849.61	57.3739	9,849.61	51.423	9,849.61	50.6569	9,849.61	52.984	9,849.61	44.4102	9,849.61	45.2647	9,849.61	39.9952	9,849.61	50.3562	9,849.61	50.1408	9,849.61	48.8074	9,849.61	44.008	9,849.61	53.489	9,849.61	40.955	9,849.61	50.6243	9,849.61	48.7463	9,849.61	32.1263
10,196.8	78.4776	10,196.8	77.9143	10,196.8	76.9861	10,196.8	77.3934	10,196.8	76.7078	10,196.8	75.0425	10,196.8	74.8974	10,196.8	72.8362	10,196.8	72.1046	10,196.8	69.165	10,196.8	66.4839	10,196.8	65.9415	10,196.8	67.0523	10,196.8	62.6681	10,196.8	58.5953	10,196.8	60.2649	10,196.8	61.1939	10,196.8	54.8378	10,196.8	53.4367	10,196.8	53.2791	10,196.8	52.477	10,196.8	53.2196	10,196.8	51.9943	10,196.8	52.1114	10,196.8	37.9488	10,196.8	47.3903	10,196.8	42.0228	10,196.8	51.9307	10,196.8	48.6567	10,196.8	49.3464	10,196.8	44.2321	10,196.8	52.3201	10,196.8	45.4622	10,196.8	50.2338	10,196.8	47.5536	10,196.8	40.1703
10,555.7	78.2813	10,555.7	77.606	10,555.7	76.9376	10,555.7	76.9026	10,555.7	76.7288	10,555.7	75.3439	10,555.7	75.7448	10,555.7	71.9077	10,555.7	71.0956	10,555.7	67.6488	10,555.7	67.269	10,555.7	66.1339	10,555.7	66.559	10,555.7	62.4009	10,555.7	60.3082	10,555.7	59.3981	10,555.7	61.4821	10,555.7	55.024	10,555.7	56.737	10,555.7	51.7187	10,555.7	52.8708	10,555.7	52.3895	10,555.7	52.2758	10,555.7	49.0586	10,555.7	34.7549	10,555.7	49.1517	10,555.7	41.5431	10,555.7	48.6166	10,555.7	47.5641	10,555.7	48.0051	10,555.7	41.6701	10,555.7	52.6022	10,555.7	46.5916	10,555.7	50.101	10,555.7	47.942	10,555.7	30.2805
10,927.7	78.1002	10,927.7	77.1231	10,927.7	77.0949	10,927.7	76.7245	10,927.7	76.5575	10,927.7	74.597	10,927.7	74.8178	10,927.7	71.1644	10,927.7	69.9671	10,927.7	67.7022	10,927.7	68.6887	10,927.7	65.2149	10,927.7	64.6083	10,927.7	62.1479	10,927.7	63.1697	10,927.7	56.7128	10,927.7	60.6723	10,927.7	51.5828	10,927.7	53.159	10,927.7	48.4645	10,927.7	50.2102	10,927.7	46.955	10,927.7	46.7571	10,927.7	48.0004	10,927.7	42.4901	10,927.7	49.9144	10,927.7	42.8663	10,927.7	45.7684	10,927.7	47.5062	10,927.7	48.0724	10,927.7	38.174	10,927.7	49.4762	10,927.7	44.838	10,927.7	46.9698	10,927.7	47.6779	10,927.7	37.7619
11,313	77.9525	11,313	76.6499	11,313	77.2215	11,313	76.6345	11,313	76.4886	11,313	73.7786	11,313	72.7723	11,313	70.4339	11,313	69.4698	11,313	66.8314	11,313	69.003	11,313	64.5182	11,313	64.0275	11,313	58.1023	11,313	62.6586	11,313	55.3525	11,313	55.4727	11,313	51.554	11,313	51.9731	11,313	50.1012	11,313	53.4063	11,313	45.8771	11,313	48.6011	11,313	45.3541	11,313	48.0344	11,313	48.5878	11,313	38.8121	11,313	45.1892	11,313	44.1205	11,313	43.7157	11,313	33.8525	11,313	44.419	11,313	40.3473	11,313	47.3592	11,313	48.3733	11,313	42.7797
11,712.9	77.5551	11,712.9	77.1758	11,712.9	77.721	11,712.9	76.3345	11,712.9	77.2007	11,712.9	73.0835	11,712.9	72.772	11,712.9	69.1925	11,712.9	71.8003	11,712.9	67.4623	11,712.9	68.8944	11,712.9	62.6798	11,712.9	64.3711	11,712.9	58.4073	11,712.9	62.2449	11,712.9	56.4343	11,712.9	58.1443	11,712.9	51.5171	11,712.9	53.0001	11,712.9	49.3476	11,712.9	50.8446	11,712.9	47.3421	11,712.9	51.7053	11,712.9	45.2129	11,712.9	47.9091	11,712.9	46.294	11,712.9	44.4083	11,712.9	46.3919	11,712.9	44.0619	11,712.9	41.5284	11,712.9	39.4514	11,712.9	43.8555	11,712.9	42.3952	11,712.9	48.816	11,712.9	46.7839	11,712.9	39.1769
12,126	77.8432	12,126	77.3988	12,126	77.8453	12,126	76.4629	12,126	76.8791	12,126	72.4038	12,126	74.8279	12,126	69.9676	12,126	71.618	12,126	66.0027	12,126	68.7767	12,126	62.4961	12,126	64.4829	12,126	57.2206	12,126	61.4501	12,126	56.3967	12,126	57.8307	12,126	53.173	12,126	50.8147	12,126	50.2706	12,126	52.2124	12,126	49.5143	12,126	51.6805	12,126	47.7445	12,126	48.5979	12,126	44.1557	12,126	41.5521	12,126	45.0242	12,126	45.8793	12,126	43.2722	12,126	38.6422	12,126	46.6184	12,126	43.7099	12,126	49.4055	12,126	46.9349	12,126	40.3828
12,553.7	78.1745	12,553.7	77.8755	12,553.7	78.3357	12,553.7	76.1639	12,553.7	76.7125	12,553.7	73.1439	12,553.7	73.9803	12,553.7	69.9685	12,553.7	71.7132	12,553.7	65.0217	12,553.7	67.4707	12,553.7	61.7498	12,553.7	62.635	12,553.7	58.4311	12,553.7	58.5159	12,553.7	57.3564	12,553.7	53.7346	12,553.7	53.9323	12,553.7	53.8046	12,553.7	48.0993	12,553.7	45.7197	12,553.7	49.9036	12,553.7	44.4156	12,553.7	46.9326	12,553.7	47.1012	12,553.7	42.3325	12,553.7	39.7699	12,553.7	45.3567	12,553.7	46.5249	12,553.7	44.5836	12,553.7	33.2732	12,553.7	44.1644	12,553.7	45.1174	12,553.7	44.3617	12,553.7	45.2151	12,553.7	40.0299
12,996.1	78.9059	12,996.1	78.6596	12,996.1	79.023	12,996.1	76.5587	12,996.1	77.3226	12,996.1	73.426	12,996.1	73.5221	12,996.1	70.1837	12,996.1	72.4648	12,996.1	64.2703	12,996.1	65.6583	12,996.1	60.8396	12,996.1	60.9724	12,996.1	56.6609	12,996.1	57.8148	12,996.1	54.8023	12,996.1	47.2671	12,996.1	50.589	12,996.1	49.4126	12,996.1	47.796	12,996.1	46.1414	12,996.1	46.4886	12,996.1	48.6128	12,996.1	45.5607	12,996.1	45.623	12,996.1	44.4507	12,996.1	34.8069	12,996.1	44.9493	12,996.1	43.9651	12,996.1	41.5863	12,996.1	35.7318	12,996.1	41.4044	12,996.1	34.5353	12,996.1	36.8818	12,996.1	43.3182	12,996.1	41.6026
13,454.6	80.3118	13,454.6	79.551	13,454.6	79.5974	13,454.6	77.0306	13,454.6	77.6536	13,454.6	74.0181	13,454.6	74.696	13,454.6	69.2404	13,454.6	71.0609	13,454.6	63.3232	13,454.6	64.6323	13,454.6	58.4541	13,454.6	56.8081	13,454.6	55.3368	13,454.6	52.5873	13,454.6	54.0685	13,454.6	40.507	13,454.6	50.2949	13,454.6	45.2265	13,454.6	46.3878	13,454.6	46.2119	13,454.6	46.8672	13,454.6	48.9445	13,454.6	44.2601	13,454.6	44.5086	13,454.6	42.0713	13,454.6	39.9647	13,454.6	43.6948	13,454.6	41.5025	13,454.6	42.758	13,454.6	37.2657	13,454.6	41.9547	13,454.6	31.9023	13,454.6	37.7508	13,454.6	42.8772	13,454.6	38.2053
13,929.2	81.3801	13,929.2	80.245	13,929.2	80.3112	13,929.2	77.7243	13,929.2	77.8051	13,929.2	73.6655	13,929.2	73.811	13,929.2	67.6244	13,929.2	68.6215	13,929.2	60.6266	13,929.2	61.505	13,929.2	51.0284	13,929.2	48.9414	13,929.2	51.7968	13,929.2	46.7741	13,929.2	52.3742	13,929.2	43.2423	13,929.2	48.5917	13,929.2	44.4913	13,929.2	45.5449	13,929.2	42.3901	13,929.2	43.3718	13,929.2	45.6689	13,929.2	42.3544	13,929.2	39.7729	13,929.2	42.4209	13,929.2	32.8653	13,929.2	40.379	13,929.2	37.9188	13,929.2	37.6367	13,929.2	30.5066	13,929.2	39.6065	13,929.2	35.0059	13,929.2	35.9644	13,929.2	35.5287	13,929.2	36.5568
14,419.9	81.8088	14,419.9	80.5344	14,419.9	80.3131	14,419.9	77.9885	14,419.9	77.7521	14,419.9	72.4992	14,419.9	72.3727	14,419.9	64.9854	14,419.9	65.6874	14,419.9	54.1262	14,419.9	56.1281	14,419.9	49.3434	14,419.9	43.8851	14,419.9	52.5184	14,419.9	49.2402	14,419.9	49.3856	14,419.9	44.6594	14,419.9	45.5649	14,419.9	38.6224	14,419.9	40.9494	14,419.9	39.1628	14,419.9	40.2924	14,419.9	44.1765	14,419.9	35.736	14,419.9	36.1803	14,419.9	37.3563	14,419.9	21.4844	14,419.9	34.6001	14,419.9	22.8167	14,419.9	17.1967	14,419.9	16.8719	14,419.9	28.8086	14,419.9	32.8152	14,419.9	27.1893	14,419.9	30.169	14,419.9	35.1101
14,928.2	81.126	14,928.2	80.0971	14,928.2	79.6791	14,928.2	77.2076	14,928.2	76.5687	14,928.2	71.0213	14,928.2	69.6793	14,928.2	60.147	14,928.2	59.8589	14,928.2	48.8503	14,928.2	56.0101	14,928.2	57.358	14,928.2	55.83	14,928.2	55.4405	14,928.2	52.4597	14,928.2	51.3678	14,928.2	47.127	14,928.2	44.8144	14,928.2	37.4777	14,928.2	38.2683	14,928.2	30.4985	14,928.2	37.1142	14,928.2	44.4297	14,928.2	35.7664	14,928.2	34.8318	14,928.2	37.4721	14,928.2	24.2204	14,928.2	29.6728	14,928.2	31.1872	14,928.2	29.9239	14,928.2	24.5508	14,928.2	30.8551	14,928.2	34.1063	14,928.2	34.4845	14,928.2	31.0049	14,928.2	32.8032
15,455.6	80.2982	15,455.6	79.185	15,455.6	78.5438	15,455.6	75.9068	15,455.6	74.56	15,455.6	68.9764	15,455.6	66.6045	15,455.6	50.8875	15,455.6	49.8568	15,455.6	54.3524	15,455.6	59.2092	15,455.6	59.5077	15,455.6	59.0633	15,455.6	57.6009	15,455.6	53.4427	15,455.6	52.2741	15,455.6	48.0731	15,455.6	45.5827	15,455.6	35.5385	15,455.6	38.7171	15,455.6	27.7498	15,455.6	36.6571	15,455.6	41.7175	15,455.6	37.8171	15,455.6	30.4473	15,455.6	37.3543	15,455.6	23.8228	15,455.6	33.8193	15,455.6	23.997	15,455.6	32.5025	15,455.6	18.5677	15,455.6	33.7148	15,455.6	32.286	15,455.6	34.2395	15,455.6	29.0112	15,455.6	26.6939
16,000.5	79.4458	16,000.5	78.1753	16,000.5	77.4341	16,000.5	74.5727	16,000.5	73.0301	16,000.5	66.6448	16,000.5	62.727	16,000.5	48.0638	16,000.5	46.7475	16,000.5	57.7251	16,000.5	60.1473	16,000.5	60.2209	16,000.5	58.6619	16,000.5	56.4597	16,000.5	53.1669	16,000.5	51.1158	16,000.5	41.6622	16,000.5	44.7914	16,000.5	37.4192	16,000.5	35.7395	16,000.5	29.8263	16,000.5	36.5655	16,000.5	43.7531	16,000.5	36.0523	16,000.5	37.4224	16,000.5	36.0225	16,000.5	27.1487	16,000.5	34.9198	16,000.5	33.9414	16,000.5	29.0907	16,000.5	26.911	16,000.5	31.1145	16,000.5	32.538	16,000.5	30.2396	16,000.5	28.9076	16,000.5	23.6428
16,564.5	78.5901	16,564.5	77.045	16,564.5	76.2833	16,564.5	73.2343	16,564.5	71.7286	16,564.5	64.6069	16,564.5	57.5608	16,564.5	53.4586	16,564.5	52.6259	16,564.5	58.9155	16,564.5	60.1751	16,564.5	59.7974	16,564.5	58.2153	16,564.5	55.2787	16,564.5	50.3785	16,564.5	49.6724	16,564.5	37.546	16,564.5	42.8242	16,564.5	31.4665	16,564.5	33.5454	16,564.5	39.3625	16,564.5	36.8629	16,564.5	47.0954	16,564.5	32.7612	16,564.5	40.9458	16,564.5	30.7181	16,564.5	32.5558	16,564.5	29.3504	16,564.5	35.0166	16,564.5	23.6005	16,564.5	29.0156	16,564.5	30.5555	16,564.5	32.7888	16,564.5	34.2974	16,564.5	34.4287	16,564.5	29.396
17,148.9	77.6014	17,148.9	75.793	17,148.9	74.9542	17,148.9	71.839	17,148.9	70.1081	17,148.9	62.6195	17,148.9	56.6388	17,148.9	55.9032	17,148.9	56.3134	17,148.9	57.6574	17,148.9	60.0253	17,148.9	58.1229	17,148.9	58.8662	17,148.9	50.6615	17,148.9	46.1348	17,148.9	42.6077	17,148.9	38.9723	17,148.9	37.7058	17,148.9	30.4855	17,148.9	19.5787	17,148.9	41.9224	17,148.9	32.016	17,148.9	46.7762	17,148.9	19.5783	17,148.9	39.63	17,148.9	21.6281	17,148.9	33.7818	17,148.9	26.9615	17,148.9	36.5595	17,148.9	19.9129	17,148.9	27.5268	17,148.9	34.5226	17,148.9	34.8639	17,148.9	35.9216	17,148.9	34.9697	17,148.9	26.4899
17,752.4	76.4342	17,752.4	74.6169	17,752.4	73.8265	17,752.4	70.4033	17,752.4	69.1057	17,752.4	60.6466	17,752.4	55.0665	17,752.4	56.4996	17,752.4	57.5857	17,752.4	56.132	17,752.4	60.3636	17,752.4	55.7441	17,752.4	57.0428	17,752.4	48.2361	17,752.4	51.0212	17,752.4	38.3609	17,752.4	43.1679	17,752.4	32.9238	17,752.4	27.525	17,752.4	23.7732	17,752.4	43.5426	17,752.4	25.0713	17,752.4	47.791	17,752.4	23.3506	17,752.4	40.0837	17,752.4	13.2921	17,752.4	31.9132	17,752.4	23.2183	17,752.4	31.4521	17,752.4	24.7994	17,752.4	27.0478	17,752.4	29.6943	17,752.4	36.0691	17,752.4	32.2082	17,752.4	35.5973	17,752.4	24.3878
18,379.4	74.8193	18,379.4	73.3686	18,379.4	72.9638	18,379.4	68.3156	18,379.4	67.3356	18,379.4	59.4285	18,379.4	54.6472	18,379.4	56.9166	18,379.4	56.9613	18,379.4	53.7357	18,379.4	58.5332	18,379.4	54.4848	18,379.4	58.1949	18,379.4	47.9827	18,379.4	51.7635	18,379.4	34.979	18,379.4	44.847	18,379.4	29.0391	18,379.4	24.1623	18,379.4	30.1841	18,379.4	43.2245	18,379.4	29.7252	18,379.4	48.2029	18,379.4	27.1833	18,379.4	36.3921	18,379.4	33.3216	18,379.4	28.4588	18,379.4	26.5859	18,379.4	32.6231	18,379.4	26.8454	18,379.4	27.5842	18,379.4	29.9193	18,379.4	33.67	18,379.4	29.6477	18,379.4	34.2018	18,379.4	27.8902
19,026.9	72.8001	19,026.9	72.4216	19,026.9	71.6057	19,026.9	66.9324	19,026.9	64.2827	19,026.9	58.7929	19,026.9	50.5523	19,026.9	56.1497	19,026.9	57.8191	19,026.9	54.2127	19,026.9	60.8209	19,026.9	54.6558	19,026.9	56.6524	19,026.9	47.8176	19,026.9	52.1299	19,026.9	30.9016	19,026.9	45.3838	19,026.9	29.5309	19,026.9	29.1938	19,026.9	28.9662	19,026.9	42.8023	19,026.9	29.127	19,026.9	48.095	19,026.9	30.8475	19,026.9	35.2987	19,026.9	31.5622	19,026.9	26.2178	19,026.9	30.362	19,026.9	30.2142	19,026.9	15.8772	19,026.9	26.8493	19,026.9	27.933	19,026.9	23.4268	19,026.9	26.9845	19,026.9	32.4448	19,026.9	27.0041
19,697.8	72.4311	19,697.8	71.9136	19,697.8	70.6078	19,697.8	66.5796	19,697.8	62.6157	19,697.8	57.3998	19,697.8	55.6732	19,697.8	56.1661	19,697.8	58.672	19,697.8	55.6015	19,697.8	60.3528	19,697.8	53.3446	19,697.8	56.9725	19,697.8	47.4774	19,697.8	51.3073	19,697.8	37.5544	19,697.8	43.9449	19,697.8	23.9417	19,697.8	35.8667	19,697.8	29.9708	19,697.8	41.1295	19,697.8	17.2601	19,697.8	47.1519	19,697.8	27.493	19,697.8	36.0029	19,697.8	28.3587	19,697.8	21.8428	19,697.8	30.3338	19,697.8	28.1689	19,697.8	23.1371	19,697.8	25.9692	19,697.8	27.1403	19,697.8	17.9757	19,697.8	23.3199	19,697.8	29.2327	19,697.8	27.6667
19,999.5	72.7167	19,999.5	71.7529	19,999.5	70.2831	19,999.5	65.9491	19,999.5	62.7492	19,999.5	57.2879	19,999.5	55.6686	19,999.5	56.2977	19,999.5	57.7236	19,999.5	55.9305	19,999.5	59.857	19,999.5	53.549	19,999.5	56.4901	19,999.5	45.9457	19,999.5	52.9925	19,999.5	39.0353	19,999.5	44.605	19,999.5	27.3715	19,999.5	40.2465	19,999.5	21.5659	19,999.5	37.9954	19,999.5	27.6498	19,999.5	44.6495	19,999.5	34.5661	19,999.5	39.5911	19,999.5	34.1795	19,999.5	35.46	19,999.5	35.855	19,999.5	37.1555	19,999.5	41.0402	19,999.5	38.0657	19,999.5	42.0813	19,999.5	30.6906	19,999.5	32.035	19,999.5	26.943	19,999.5	32.013
