"SPL Vertical"
"On-Axis"		"10°"		"-10°"		"20°"		"-20°"		"30°"		"-30°"		"40°"		"-40°"		"50°"		"-50°"		"60°"		"-60°"		"70°"		"-70°"		"80°"		"-80°"		"90°"		"-90°"		"100°"		"-100°"		"110°"		"-110°"		"120°"		"-120°"		"130°"		"-130°"		"140°"		"-140°"		"150°"		"-150°"		"160°"		"-160°"		"170°"		"-170°"		"180°"
"Frequency [Hz]"	"Sound Pessure Level [dB]  / [2.83V 1m] "	"Frequency [Hz]"	"Sound Pessure Level [dB]  / [2.83V 1m] "	"Frequency [Hz]"	"Sound Pessure Level [dB]  / [2.83V 1m] "	"Frequency [Hz]"	"Sound Pessure Level [dB]  / [2.83V 1m] "	"Frequency [Hz]"	"Sound Pessure Level [dB]  / [2.83V 1m] "	"Frequency [Hz]"	"Sound Pessure Level [dB]  / [2.83V 1m] "	"Frequency [Hz]"	"Sound Pessure Level [dB]  / [2.83V 1m] "	"Frequency [Hz]"	"Sound Pessure Level [dB]  / [2.83V 1m] "	"Frequency [Hz]"	"Sound Pessure Level [dB]  / [2.83V 1m] "	"Frequency [Hz]"	"Sound Pessure Level [dB]  / [2.83V 1m] "	"Frequency [Hz]"	"Sound Pessure Level [dB]  / [2.83V 1m] "	"Frequency [Hz]"	"Sound Pessure Level [dB]  / [2.83V 1m] "	"Frequency [Hz]"	"Sound Pessure Level [dB]  / [2.83V 1m] "	"Frequency [Hz]"	"Sound Pessure Level [dB]  / [2.83V 1m] "	"Frequency [Hz]"	"Sound Pessure Level [dB]  / [2.83V 1m] "	"Frequency [Hz]"	"Sound Pessure Level [dB]  / [2.83V 1m] "	"Frequency [Hz]"	"Sound Pessure Level [dB]  / [2.83V 1m] "	"Frequency [Hz]"	"Sound Pessure Level [dB]  / [2.83V 1m] "	"Frequency [Hz]"	"Sound Pessure Level [dB]  / [2.83V 1m] "	"Frequency [Hz]"	"Sound Pessure Level [dB]  / [2.83V 1m] "	"Frequency [Hz]"	"Sound Pessure Level [dB]  / [2.83V 1m] "	"Frequency [Hz]"	"Sound Pessure Level [dB]  / [2.83V 1m] "	"Frequency [Hz]"	"Sound Pessure Level [dB]  / [2.83V 1m] "	"Frequency [Hz]"	"Sound Pessure Level [dB]  / [2.83V 1m] "	"Frequency [Hz]"	"Sound Pessure Level [dB]  / [2.83V 1m] "	"Frequency [Hz]"	"Sound Pessure Level [dB]  / [2.83V 1m] "	"Frequency [Hz]"	"Sound Pessure Level [dB]  / [2.83V 1m] "	"Frequency [Hz]"	"Sound Pessure Level [dB]  / [2.83V 1m] "	"Frequency [Hz]"	"Sound Pessure Level [dB]  / [2.83V 1m] "	"Frequency [Hz]"	"Sound Pessure Level [dB]  / [2.83V 1m] "	"Frequency [Hz]"	"Sound Pessure Level [dB]  / [2.83V 1m] "	"Frequency [Hz]"	"Sound Pessure Level [dB]  / [2.83V 1m] "	"Frequency [Hz]"	"Sound Pessure Level [dB]  / [2.83V 1m] "	"Frequency [Hz]"	"Sound Pessure Level [dB]  / [2.83V 1m] "	"Frequency [Hz]"	"Sound Pessure Level [dB]  / [2.83V 1m] "	"Frequency [Hz]"	"Sound Pessure Level [dB]  / [2.83V 1m] "
20.5078	58.4306	20.5078	58.6045	20.5078	58.3048	20.5078	58.8321	20.5078	58.2241	20.5078	59.1202	20.5078	58.1884	20.5078	59.4757	20.5078	58.2002	20.5078	59.9029	20.5078	58.2656	20.5078	60.401	20.5078	58.3938	20.5078	60.962	20.5078	58.5964	20.5078	61.5698	20.5078	58.8854	20.5078	62.2011	20.5078	59.2694	20.5078	62.8273	20.5078	59.7492	20.5078	63.4172	20.5078	60.3154	20.5078	63.9398	20.5078	60.9477	20.5078	64.3666	20.5078	61.6186	20.5078	64.6733	20.5078	62.2964	20.5078	64.8421	20.5078	62.9489	20.5078	64.8628	20.5078	63.5454	20.5078	64.7333	20.5078	64.0575	20.5078	64.4602
21.9727	60.5889	21.9727	60.595	21.9727	60.6064	21.9727	60.6459	21.9727	60.6335	21.9727	60.7683	21.9727	60.6634	21.9727	60.9907	21.9727	60.6972	21.9727	61.3366	21.9727	60.7437	21.9727	61.8159	21.9727	60.8204	21.9727	62.4186	21.9727	60.9521	21.9727	63.1157	21.9727	61.1679	21.9727	63.8641	21.9727	61.4935	21.9727	64.6161	21.9727	61.942	21.9727	65.3256	21.9727	62.5067	21.9727	65.9528	21.9727	63.1613	21.9727	66.4659	21.9727	63.8664	21.9727	66.8413	21.9727	64.5789	21.9727	67.0637	21.9727	65.2581	21.9727	67.1254	21.9727	65.869	21.9727	67.0267	21.9727	66.3824	21.9727	66.7746
23.4375	63.5356	23.4375	63.6881	23.4375	63.4422	23.4375	63.9171	23.4375	63.3943	23.4375	64.2384	23.4375	63.3842	23.4375	64.6626	23.4375	63.4121	23.4375	65.1899	23.4375	63.4874	23.4375	65.8093	23.4375	63.6274	23.4375	66.4987	23.4375	63.8549	23.4375	67.2285	23.4375	64.1918	23.4375	67.9652	23.4375	64.6512	23.4375	68.6747	23.4375	65.2301	23.4375	69.325	23.4375	65.9083	23.4375	69.8875	23.4375	66.652	23.4375	70.338	23.4375	67.4215	23.4375	70.6578	23.4375	68.1777	23.4375	70.8336	23.4375	68.8863	23.4375	70.8585	23.4375	69.518	23.4375	70.7316	23.4375	70.0485	23.4375	70.4581
24.9023	66.8649	24.9023	67.0135	24.9023	66.7783	24.9023	67.2347	24.9023	66.7454	24.9023	67.5385	24.9023	66.7619	24.9023	67.9315	24.9023	66.8287	24.9023	68.4139	24.9023	66.9519	24.9023	68.9778	24.9023	67.142	24.9023	69.6062	24.9023	67.4116	24.9023	70.2752	24.9023	67.7717	24.9023	70.9556	24.9023	68.2265	24.9023	71.6165	24.9023	68.7704	24.9023	72.2277	24.9023	69.3866	24.9023	72.7615	24.9023	70.0498	24.9023	73.1942	24.9023	70.73	24.9023	73.5074	24.9023	71.3964	24.9023	73.6881	24.9023	72.0205	24.9023	73.7297	24.9023	72.5766	24.9023	73.6316	24.9023	73.0423	24.9023	73.399
26.3672	71.1527	26.3672	71.2747	26.3672	71.075	26.3672	71.4477	26.3672	71.0368	26.3672	71.6785	26.3672	71.0353	26.3672	71.9728	26.3672	71.071	26.3672	72.333	26.3672	71.1478	26.3672	72.7572	26.3672	71.2727	26.3672	73.237	26.3672	71.4548	26.3672	73.7573	26.3672	71.7038	26.3672	74.2972	26.3672	72.0261	26.3672	74.8316	26.3672	72.4227	26.3672	75.3335	26.3672	72.8862	26.3672	75.7763	26.3672	73.4012	26.3672	76.1364	26.3672	73.9461	26.3672	76.3946	26.3672	74.4955	26.3672	76.5377	26.3672	75.0232	26.3672	76.5586	26.3672	75.5044	26.3672	76.4571	26.3672	75.9163	26.3672	76.2392
27.832	74.2732	27.832	74.3663	27.832	74.2186	27.832	74.5043	27.832	74.1974	27.832	74.6946	27.832	74.2071	27.832	74.9434	27.832	74.248	27.832	75.2545	27.832	74.3234	27.832	75.6275	27.832	74.4396	27.832	76.056	27.832	74.6047	27.832	76.5272	27.832	74.8273	27.832	77.022	27.832	75.1135	27.832	77.5171	27.832	75.465	27.832	77.9867	27.832	75.8767	27.832	78.4051	27.832	76.336	27.832	78.7491	27.832	76.8244	27.832	78.9997	27.832	77.3193	27.832	79.1435	27.832	77.7966	27.832	79.1736	27.832	78.2327	27.832	79.0893	27.832	78.6056	27.832	78.8963
29.2969	76.794	29.2969	76.8891	29.2969	76.7364	29.2969	77.0265	29.2969	76.7126	29.2969	77.2116	29.2969	76.7205	29.2969	77.4489	29.2969	76.7602	29.2969	77.7409	29.2969	76.8343	29.2969	78.0867	29.2969	76.9475	29.2969	78.4809	29.2969	77.1061	29.2969	78.9125	29.2969	77.3166	29.2969	79.3653	29.2969	77.5841	29.2969	79.8188	29.2969	77.9096	29.2969	80.2499	29.2969	78.2887	29.2969	80.6351	29.2969	78.7109	29.2969	80.9526	29.2969	79.1602	29.2969	81.1842	29.2969	79.6166	29.2969	81.3168	29.2969	80.0582	29.2969	81.3436	29.2969	80.4631	29.2969	81.2637	29.2969	80.8106	29.2969	81.0825
30.7617	79.0996	30.7617	79.185	30.7617	79.05	30.7617	79.3101	30.7617	79.0332	30.7617	79.479	30.7617	79.0476	30.7617	79.6952	30.7617	79.0931	30.7617	79.9607	30.7617	79.171	30.7617	80.2749	30.7617	79.2843	30.7617	80.633	30.7617	79.4373	30.7617	81.0255	30.7617	79.6344	30.7617	81.4383	30.7617	79.8787	30.7617	81.853	30.7617	80.1713	30.7617	82.2487	30.7617	80.5088	30.7617	82.6035	30.7617	80.8835	30.7617	82.897	30.7617	81.2829	30.7617	83.1116	30.7617	81.6905	30.7617	83.235	30.7617	82.0876	30.7617	83.2602	30.7617	82.4543	30.7617	83.1868	30.7617	82.7711	30.7617	83.0202
32.2266	81.0366	32.2266	81.1365	32.2266	80.9718	32.2266	81.2736	32.2266	80.9403	32.2266	81.4502	32.2266	80.9416	32.2266	81.668	32.2266	80.9758	32.2266	81.9275	32.2266	81.0443	32.2266	82.2268	32.2266	81.1496	32.2266	82.5611	32.2266	81.2944	32.2266	82.922	32.2266	81.4816	32.2266	83.2972	32.2266	81.7131	32.2266	83.6712	32.2266	81.9886	32.2266	84.0259	32.2266	82.305	32.2266	84.3423	32.2266	82.6551	32.2266	84.6022	32.2266	83.0278	32.2266	84.7897	32.2266	83.4086	32.2266	84.8932	32.2266	83.7807	32.2266	84.9063	32.2266	84.126	32.2266	84.8286	32.2266	84.4263	32.2266	84.6652
33.6914	82.3277	33.6914	82.4194	33.6914	82.2696	33.6914	82.5461	33.6914	82.2438	33.6914	82.7093	33.6914	82.2495	33.6914	82.91	33.6914	82.2865	33.6914	83.1477	33.6914	82.3556	33.6914	83.4206	33.6914	82.4578	33.6914	83.7241	33.6914	82.5948	33.6914	84.051	33.6914	82.7684	33.6914	84.3906	33.6914	82.9796	33.6914	84.7296	33.6914	83.2283	33.6914	85.052	33.6914	83.5119	33.6914	85.3406	33.6914	83.8248	33.6914	85.5787	33.6914	84.1584	33.6914	85.7512	33.6914	84.5004	33.6914	85.8472	33.6914	84.8362	33.6914	85.8603	33.6914	85.1492	33.6914	85.7899	33.6914	85.4227	33.6914	85.6408
35.1562	83.192	35.1562	83.2723	35.1562	83.1429	35.1562	83.3849	35.1562	83.1238	35.1562	83.5311	35.1562	83.1336	35.1562	83.7111	35.1562	83.1717	35.1562	83.9245	35.1562	83.238	35.1562	84.1692	35.1562	83.333	35.1562	84.4412	35.1562	83.4578	35.1562	84.7339	35.1562	83.6133	35.1562	85.0381	35.1562	83.8005	35.1562	85.3417	35.1562	84.0192	35.1562	85.6305	35.1562	84.2677	35.1562	85.889	35.1562	84.5417	35.1562	86.102	35.1562	84.8342	35.1562	86.2559	35.1562	85.135	35.1562	86.3406	35.1562	85.4317	35.1562	86.3505	35.1562	85.7098	35.1562	86.2854	35.1562	85.9541	35.1562	86.1502
36.6211	83.6459	36.6211	83.7262	36.6211	83.5942	36.6211	83.8358	36.6211	83.5705	36.6211	83.9752	36.6211	83.5741	36.6211	84.1444	36.6211	83.6046	36.6211	84.3425	36.6211	83.6622	36.6211	84.5674	36.6211	83.7471	36.6211	84.815	36.6211	83.8598	36.6211	85.0796	36.6211	84.001	36.6211	85.3529	36.6211	84.171	36.6211	85.6245	36.6211	84.3694	36.6211	85.8817	36.6211	84.5942	36.6211	86.1109	36.6211	84.8419	36.6211	86.2984	36.6211	85.1065	36.6211	86.432	36.6211	85.3792	36.6211	86.5026	36.6211	85.6492	36.6211	86.5053	36.6211	85.9036	36.6211	86.4401	36.6211	86.1289	36.6211	86.3116
38.0859	83.8174	38.0859	83.8916	38.0859	83.7699	38.0859	83.9929	38.0859	83.7484	38.0859	84.1213	38.0859	83.7525	38.0859	84.2767	38.0859	83.7819	38.0859	84.458	38.0859	83.8363	38.0859	84.663	38.0859	83.9158	38.0859	84.8884	38.0859	84.0204	38.0859	85.1287	38.0859	84.1502	38.0859	85.3768	38.0859	84.305	38.0859	85.6232	38.0859	84.4843	38.0859	85.8567	38.0859	84.6863	38.0859	86.0646	38.0859	84.9082	38.0859	86.2344	38.0859	85.145	38.0859	86.3547	38.0859	85.3896	38.0859	86.4172	38.0859	85.6326	38.0859	86.4173	38.0859	85.863	38.0859	86.3554	38.0859	86.0683	38.0859	86.2361
39.5508	83.8911	39.5508	83.9602	39.5508	83.8477	39.5508	84.0553	39.5508	83.8296	39.5508	84.1763	39.5508	83.8363	39.5508	84.3225	39.5508	83.8673	39.5508	84.4928	39.5508	83.922	39.5508	84.6848	39.5508	84	39.5508	84.895	39.5508	84.1008	39.5508	85.1184	39.5508	84.224	39.5508	85.3482	39.5508	84.369	39.5508	85.5757	39.5508	84.535	39.5508	85.7905	39.5508	84.7204	39.5508	85.9814	39.5508	84.9228	39.5508	86.1367	39.5508	85.138	39.5508	86.2463	39.5508	85.36	39.5508	86.3025	39.5508	85.5809	39.5508	86.3013	39.5508	85.7908	39.5508	86.2432	39.5508	85.9786	39.5508	86.1329
41.0156	84.0113	41.0156	84.0795	41.0156	83.967	41.0156	84.1717	41.0156	83.9467	41.0156	84.2873	41.0156	83.9499	41.0156	84.4256	41.0156	83.9763	41.0156	84.5851	41.0156	84.0253	41.0156	84.7635	41.0156	84.0965	41.0156	84.9573	41.0156	84.1891	41.0156	85.1619	41.0156	84.3024	41.0156	85.3711	41.0156	84.4358	41.0156	85.5771	41.0156	84.5881	41.0156	85.7707	41.0156	84.758	41.0156	85.9418	41.0156	84.9432	41.0156	86.08	41.0156	85.14	41.0156	86.1762	41.0156	85.3432	41.0156	86.2234	41.0156	85.5459	41.0156	86.2183	41.0156	85.7393	41.0156	86.1614	41.0156	85.9131	41.0156	86.0571
42.4805	84.089	42.4805	84.154	42.4805	84.0462	42.4805	84.241	42.4805	84.0256	42.4805	84.3494	42.4805	84.0271	42.4805	84.478	42.4805	84.0503	42.4805	84.6254	42.4805	84.0948	42.4805	84.7891	42.4805	84.1598	42.4805	84.966	42.4805	84.2447	42.4805	85.1515	42.4805	84.3485	42.4805	85.34	42.4805	84.4703	42.4805	85.5247	42.4805	84.6088	42.4805	85.6973	42.4805	84.7625	42.4805	85.8488	42.4805	84.9292	42.4805	85.9702	42.4805	85.106	42.4805	86.0535	42.4805	85.2884	42.4805	86.0925	42.4805	85.4704	42.4805	86.0844	42.4805	85.6446	42.4805	86.0299	42.4805	85.802	42.4805	85.9334
43.9453	84.163	43.9453	84.2226	43.9453	84.124	43.9453	84.3026	43.9453	84.1057	43.9453	84.4023	43.9453	84.1081	43.9453	84.5206	43.9453	84.1308	43.9453	84.6558	43.9453	84.1732	43.9453	84.8057	43.9453	84.2347	43.9453	84.9672	43.9453	84.3142	43.9453	85.136	43.9453	84.4106	43.9453	85.3071	43.9453	84.5228	43.9453	85.474	43.9453	84.6493	43.9453	85.6297	43.9453	84.7887	43.9453	85.7659	43.9453	84.939	43.9453	85.8748	43.9453	85.0977	43.9453	85.949	43.9453	85.2609	43.9453	85.9834	43.9453	85.4237	43.9453	85.9754	43.9453	85.5795	43.9453	85.9258	43.9453	85.7207	43.9453	85.8388
45.4102	84.1276	45.4102	84.1857	45.4102	84.0891	45.4102	84.2629	45.4102	84.0705	45.4102	84.3583	45.4102	84.072	45.4102	84.4706	45.4102	84.0932	45.4102	84.5982	45.4102	84.1336	45.4102	84.7385	45.4102	84.1923	45.4102	84.8886	45.4102	84.2683	45.4102	85.0445	45.4102	84.3601	45.4102	85.2015	45.4102	84.4663	45.4102	85.3537	45.4102	84.5852	45.4102	85.4945	45.4102	84.715	45.4102	85.6169	45.4102	84.854	45.4102	85.7138	45.4102	84.9994	45.4102	85.7789	45.4102	85.1481	45.4102	85.8078	45.4102	85.2957	45.4102	85.7984	45.4102	85.4367	45.4102	85.7518	45.4102	85.5645	45.4102	85.6719
46.875	84.1702	46.875	84.2285	46.875	84.1305	46.875	84.3048	46.875	84.1098	46.875	84.3979	46.875	84.1083	46.875	84.5064	46.875	84.1257	46.875	84.6282	46.875	84.1614	46.875	84.761	46.875	84.2147	46.875	84.9012	46.875	84.2841	46.875	85.0452	46.875	84.3683	46.875	85.188	46.875	84.4654	46.875	85.3245	46.875	84.5739	46.875	85.4485	46.875	84.6918	46.875	85.5541	46.875	84.8173	46.875	85.635	46.875	84.9483	46.875	85.6861	46.875	85.0821	46.875	85.7041	46.875	85.2152	46.875	85.6879	46.875	85.3432	46.875	85.639	46.875	85.4607	46.875	85.5614
48.3398	84.2446	48.3398	84.3028	48.3398	84.2037	48.3398	84.3776	48.3398	84.1807	48.3398	84.4676	48.3398	84.176	48.3398	84.5713	48.3398	84.1895	48.3398	84.6865	48.3398	84.2205	48.3398	84.8105	48.3398	84.2683	48.3398	84.9402	48.3398	84.3316	48.3398	85.0717	48.3398	84.4085	48.3398	85.2006	48.3398	84.4975	48.3398	85.322	48.3398	84.5965	48.3398	85.4308	48.3398	84.7037	48.3398	85.5214	48.3398	84.8173	48.3398	85.589	48.3398	84.9355	48.3398	85.6291	48.3398	85.0562	48.3398	85.6391	48.3398	85.1765	48.3398	85.6186	48.3398	85.293	48.3398	85.5692	48.3398	85.4009	48.3398	85.4949
51.2695	84.3295	51.2695	84.3877	51.2695	84.2855	51.2695	84.4589	51.2695	84.2567	51.2695	84.5418	51.2695	84.244	51.2695	84.6345	51.2695	84.2478	51.2695	84.7352	51.2695	84.2682	51.2695	84.8413	51.2695	84.3046	51.2695	84.9499	51.2695	84.3561	51.2695	85.0577	51.2695	84.4208	51.2695	85.1611	51.2695	84.497	51.2695	85.2561	51.2695	84.5822	51.2695	85.3387	51.2695	84.6744	51.2695	85.405	51.2695	84.7714	51.2695	85.4515	51.2695	84.8715	51.2695	85.4754	51.2695	84.9727	51.2695	85.4754	51.2695	85.0731	51.2695	85.4514	51.2695	85.17	51.2695	85.4052	51.2695	85.2604	51.2695	85.3402
52.7344	84.3305	52.7344	84.3914	52.7344	84.2827	52.7344	84.4639	52.7344	84.2494	52.7344	84.5463	52.7344	84.2316	52.7344	84.6366	52.7344	84.23	52.7344	84.7326	52.7344	84.2449	52.7344	84.8318	52.7344	84.2759	52.7344	84.9314	52.7344	84.322	52.7344	85.0281	52.7344	84.3815	52.7344	85.1187	52.7344	84.4524	52.7344	85.1999	52.7344	84.5322	52.7344	85.2684	52.7344	84.6184	52.7344	85.3211	52.7344	84.7087	52.7344	85.3556	52.7344	84.8013	52.7344	85.3699	52.7344	84.8944	52.7344	85.3634	52.7344	84.986	52.7344	85.3366	52.7344	85.0743	52.7344	85.2912	52.7344	85.1567	52.7344	85.2301
54.1992	84.3111	54.1992	84.373	54.1992	84.2612	54.1992	84.4454	54.1992	84.225	54.1992	84.5263	54.1992	84.2037	54.1992	84.6137	54.1992	84.1982	54.1992	84.7054	54.1992	84.2088	54.1992	84.7988	54.1992	84.2355	54.1992	84.8911	54.1992	84.2772	54.1992	84.9794	54.1992	84.3322	54.1992	85.0607	54.1992	84.3983	54.1992	85.132	54.1992	84.473	54.1992	85.1904	54.1992	84.5538	54.1992	85.2334	54.1992	84.6381	54.1992	85.2592	54.1992	84.7241	54.1992	85.2664	54.1992	84.8101	54.1992	85.2549	54.1992	84.8946	54.1992	85.2255	54.1992	84.976	54.1992	85.1801	54.1992	85.0524	54.1992	85.1214
55.6641	84.2743	55.6641	84.3347	55.6641	84.2244	55.6641	84.4039	55.6641	84.1867	55.6641	84.4801	55.6641	84.1625	55.6641	84.5615	55.6641	84.153	55.6641	84.6459	55.6641	84.1588	55.6641	84.7312	55.6641	84.1799	55.6641	84.8148	55.6641	84.2155	55.6641	84.894	55.6641	84.2641	55.6641	84.966	55.6641	84.3236	55.6641	85.0279	55.6641	84.3916	55.6641	85.0774	55.6641	84.4654	55.6641	85.1122	55.6641	84.5427	55.6641	85.131	55.6641	84.6215	55.6641	85.1329	55.6641	84.7002	55.6641	85.118	55.6641	84.7775	55.6641	85.0873	55.6641	84.8522	55.6641	85.0428	55.6641	84.9227	55.6641	84.9871
58.5938	84.2442	58.5938	84.3023	58.5938	84.1946	58.5938	84.3672	58.5938	84.1553	58.5938	84.4372	58.5938	84.128	58.5938	84.5107	58.5938	84.1142	58.5938	84.5856	58.5938	84.1148	58.5938	84.6599	58.5938	84.1304	58.5938	84.7312	58.5938	84.1603	58.5938	84.7971	58.5938	84.2032	58.5938	84.8549	58.5938	84.2569	58.5938	84.9024	58.5938	84.3184	58.5938	84.9376	58.5938	84.3848	58.5938	84.9592	58.5938	84.4531	58.5938	84.9666	58.5938	84.5212	58.5938	84.96	58.5938	84.5875	58.5938	84.9405	58.5938	84.6512	58.5938	84.9095	58.5938	84.7118	58.5938	84.8693	58.5938	84.7689	58.5938	84.8218
60.0586	84.1976	60.0586	84.2545	60.0586	84.1481	60.0586	84.317	60.0586	84.1081	60.0586	84.3835	60.0586	84.0793	60.0586	84.4521	60.0586	84.0635	60.0586	84.5212	60.0586	84.0621	60.0586	84.5887	60.0586	84.0755	60.0586	84.6525	60.0586	84.1035	60.0586	84.7103	60.0586	84.1444	60.0586	84.7598	60.0586	84.1961	60.0586	84.799	60.0586	84.2555	60.0586	84.8263	60.0586	84.3191	60.0586	84.8411	60.0586	84.3839	60.0586	84.8432	60.0586	84.4473	60.0586	84.8335	60.0586	84.5076	60.0586	84.8135	60.0586	84.5641	60.0586	84.785	60.0586	84.6164	60.0586	84.7498	60.0586	84.6648	60.0586	84.7094
62.9883	84.0281	62.9883	84.0821	62.9883	83.9793	62.9883	84.1394	62.9883	83.9376	62.9883	84.1986	62.9883	83.9051	62.9883	84.2583	62.9883	83.8839	62.9883	84.3169	62.9883	83.8756	62.9883	84.3729	62.9883	83.8814	62.9883	84.4245	62.9883	83.9012	62.9883	84.4695	62.9883	83.9339	62.9883	84.5061	62.9883	83.9774	62.9883	84.5325	62.9883	84.0285	62.9883	84.5478	62.9883	84.0837	62.9883	84.5516	62.9883	84.1395	62.9883	84.5447	62.9883	84.1935	62.9883	84.5284	62.9883	84.2439	62.9883	84.5046	62.9883	84.29	62.9883	84.4756	62.9883	84.3322	62.9883	84.4431	62.9883	84.3714	62.9883	84.4082
64.4531	83.938	64.4531	83.9922	64.4531	83.8884	64.4531	84.0493	64.4531	83.8456	64.4531	84.1077	64.4531	83.8119	64.4531	84.1658	64.4531	83.7895	64.4531	84.2224	64.4531	83.7803	64.4531	84.2758	64.4531	83.7855	64.4531	84.3243	64.4531	83.8053	64.4531	84.366	64.4531	83.8385	64.4531	84.3992	64.4531	83.8828	64.4531	84.4223	64.4531	83.9348	64.4531	84.4346	64.4531	83.9908	64.4531	84.436	64.4531	84.0471	64.4531	84.4276	64.4531	84.1007	64.4531	84.4109	64.4531	84.1499	64.4531	84.3881	64.4531	84.1939	64.4531	84.3613	64.4531	84.233	64.4531	84.3321	64.4531	84.2684	64.4531	84.3011
67.3828	83.801	67.3828	83.8504	67.3828	83.7543	67.3828	83.9005	67.3828	83.7124	67.3828	83.9501	67.3828	83.678	67.3828	83.9978	67.3828	83.6536	67.3828	84.0425	67.3828	83.6416	67.3828	84.0832	67.3828	83.6436	67.3828	84.1185	67.3828	83.66	67.3828	84.1471	67.3828	83.6899	67.3828	84.1676	67.3828	83.7307	67.3828	84.1791	67.3828	83.7789	67.3828	84.1814	67.3828	83.8302	67.3828	84.1749	67.3828	83.8806	67.3828	84.1615	67.3828	83.9266	67.3828	84.1432	67.3828	83.966	67.3828	84.1228	67.3828	83.9983	67.3828	84.1022	67.3828	84.0241	67.3828	84.0827	67.3828	84.0453	67.3828	84.0641
68.8477	83.7519	68.8477	83.7984	68.8477	83.7069	68.8477	83.8444	68.8477	83.6656	68.8477	83.8886	68.8477	83.6307	68.8477	83.93	68.8477	83.6052	68.8477	83.9678	68.8477	83.5916	68.8477	84.0013	68.8477	83.5919	68.8477	84.0293	68.8477	83.6066	68.8477	84.0509	68.8477	83.635	68.8477	84.0651	68.8477	83.6746	68.8477	84.0713	68.8477	83.7217	68.8477	84.0695	68.8477	83.7717	68.8477	84.0606	68.8477	83.8202	68.8477	84.0464	68.8477	83.8634	68.8477	84.0294	68.8477	83.8991	68.8477	84.0121	68.8477	83.9264	68.8477	83.9965	68.8477	83.9461	68.8477	83.9833	68.8477	83.9604	68.8477	83.9719
71.7773	83.7215	71.7773	83.7669	71.7773	83.6746	71.7773	83.809	71.7773	83.6287	71.7773	83.8468	71.7773	83.5869	71.7773	83.8799	71.7773	83.5526	71.7773	83.9078	71.7773	83.5291	71.7773	83.9304	71.7773	83.5192	71.7773	83.9473	71.7773	83.524	71.7773	83.9579	71.7773	83.5434	71.7773	83.9616	71.7773	83.5751	71.7773	83.958	71.7773	83.6153	71.7773	83.9473	71.7773	83.6595	71.7773	83.9307	71.7773	83.7028	71.7773	83.9102	71.7773	83.7411	71.7773	83.8884	71.7773	83.7719	71.7773	83.8679	71.7773	83.7943	71.7773	83.8508	71.7773	83.8095	71.7773	83.8378	71.7773	83.8198	71.7773	83.8282
74.707	83.7409	74.707	83.7884	74.707	83.6899	74.707	83.8305	74.707	83.638	74.707	83.8664	74.707	83.5887	74.707	83.8958	74.707	83.5459	74.707	83.9188	74.707	83.5137	74.707	83.9354	74.707	83.4953	74.707	83.9457	74.707	83.4926	74.707	83.9492	74.707	83.5055	74.707	83.9456	74.707	83.5322	74.707	83.9345	74.707	83.5688	74.707	83.9165	74.707	83.6103	74.707	83.8927	74.707	83.6516	74.707	83.8656	74.707	83.6881	74.707	83.8379	74.707	83.7171	74.707	83.8128	74.707	83.7378	74.707	83.7924	74.707	83.7511	74.707	83.7777	74.707	83.76	74.707	83.7677
77.6367	83.8208	77.6367	83.8675	77.6367	83.7686	77.6367	83.9068	77.6367	83.7138	77.6367	83.9382	77.6367	83.6602	77.6367	83.9615	77.6367	83.6123	77.6367	83.9774	77.6367	83.5745	77.6367	83.9864	77.6367	83.5507	77.6367	83.9891	77.6367	83.5433	77.6367	83.9855	77.6367	83.5528	77.6367	83.9756	77.6367	83.5773	77.6367	83.9598	77.6367	83.613	77.6367	83.9385	77.6367	83.6547	77.6367	83.9132	77.6367	83.6968	77.6367	83.8863	77.6367	83.7344	77.6367	83.8606	77.6367	83.7642	77.6367	83.8389	77.6367	83.7847	77.6367	83.8228	77.6367	83.7969	77.6367	83.8128	77.6367	83.8032	77.6367	83.8072
79.1016	83.8738	79.1016	83.92	79.1016	83.821	79.1016	83.9579	79.1016	83.7647	79.1016	83.987	79.1016	83.7087	79.1016	84.0075	79.1016	83.6578	79.1016	84.0201	79.1016	83.6168	79.1016	84.0258	79.1016	83.5899	79.1016	84.0252	79.1016	83.5799	79.1016	84.0189	79.1016	83.5876	79.1016	84.0068	79.1016	83.6113	79.1016	83.9894	79.1016	83.6471	79.1016	83.9672	79.1016	83.6898	79.1016	83.9417	79.1016	83.7334	79.1016	83.9154	79.1016	83.7727	79.1016	83.8909	79.1016	83.8039	79.1016	83.8709	79.1016	83.8254	79.1016	83.8571	79.1016	83.8377	79.1016	83.8493	79.1016	83.8433	79.1016	83.8459
82.0312	84.0355	82.0312	84.0813	82.0312	83.9808	82.0312	84.1164	82.0312	83.9202	82.0312	84.1406	82.0312	83.858	82.0312	84.1545	82.0312	83.7997	82.0312	84.1594	82.0312	83.7507	82.0312	84.1567	82.0312	83.7161	82.0312	84.1477	82.0312	83.6994	82.0312	84.1332	82.0312	83.7019	82.0312	84.1135	82.0312	83.722	82.0312	84.0891	82.0312	83.7559	82.0312	84.061	82.0312	83.7977	82.0312	84.0306	82.0312	83.841	82.0312	84.0006	82.0312	83.8799	82.0312	83.974	82.0312	83.9099	82.0312	83.9538	82.0312	83.9292	82.0312	83.9415	82.0312	83.9382	82.0312	83.9368	82.0312	83.9395	82.0312	83.9375
84.9609	84.2032	84.9609	84.25	84.9609	84.1457	84.9609	84.2845	84.9609	84.081	84.9609	84.3066	84.9609	84.0139	84.9609	84.3173	84.9609	83.9506	84.9609	84.3184	84.9609	83.8973	84.9609	84.3118	84.9609	83.86	84.9609	84.2992	84.9609	83.8426	84.9609	84.2819	84.9609	83.8468	84.9609	84.2605	84.9609	83.871	84.9609	84.2357	84.9609	83.9108	84.9609	84.2086	84.9609	83.9598	84.9609	84.1807	84.9609	84.0104	84.9609	84.1546	84.9609	84.056	84.9609	84.1331	84.9609	84.0914	84.9609	84.1188	84.9609	84.114	84.9609	84.1126	84.9609	84.1241	84.9609	84.1137	84.9609	84.1244	84.9609	84.1192
87.8906	84.4001	87.8906	84.4455	87.8906	84.3408	87.8906	84.4753	87.8906	84.2713	87.8906	84.4892	87.8906	84.1968	87.8906	84.4886	87.8906	84.1242	87.8906	84.4755	87.8906	84.0604	87.8906	84.4524	87.8906	84.0122	87.8906	84.4218	87.8906	83.9842	87.8906	84.3855	87.8906	83.9787	87.8906	84.3455	87.8906	83.9946	87.8906	84.3032	87.8906	84.0276	87.8906	84.2608	87.8906	84.0708	87.8906	84.2207	87.8906	84.1163	87.8906	84.1863	87.8906	84.1566	87.8906	84.1611	87.8906	84.1857	87.8906	84.1477	87.8906	84.2006	87.8906	84.1469	87.8906	84.2011	87.8906	84.1569	87.8906	84.1902	87.8906	84.1734
90.8203	84.5183	90.8203	84.5562	90.8203	84.4632	90.8203	84.5759	90.8203	84.3944	90.8203	84.578	90.8203	84.3173	90.8203	84.5648	90.8203	84.2389	90.8203	84.5396	90.8203	84.167	90.8203	84.5057	90.8203	84.109	90.8203	84.4663	90.8203	84.0707	90.8203	84.4239	90.8203	84.0549	90.8203	84.3803	90.8203	84.0612	90.8203	84.3366	90.8203	84.0855	90.8203	84.2942	90.8203	84.1212	90.8203	84.2549	90.8203	84.1604	90.8203	84.2214	90.8203	84.1955	90.8203	84.1964	90.8203	84.2206	90.8203	84.1825	90.8203	84.2326	90.8203	84.1805	90.8203	84.2315	90.8203	84.1889	90.8203	84.2203	90.8203	84.2041
95.2148	84.684	95.2148	84.7235	95.2148	84.6255	95.2148	84.7424	95.2148	84.5517	95.2148	84.7416	95.2148	84.4688	95.2148	84.7235	95.2148	84.3847	95.2148	84.6918	95.2148	84.3085	95.2148	84.6508	95.2148	84.2484	95.2148	84.6044	95.2148	84.2113	95.2148	84.5561	95.2148	84.2006	95.2148	84.5088	95.2148	84.2157	95.2148	84.4644	95.2148	84.252	95.2148	84.425	95.2148	84.3017	95.2148	84.3927	95.2148	84.3554	95.2148	84.3698	95.2148	84.404	95.2148	84.3587	95.2148	84.4401	95.2148	84.3604	95.2148	84.4595	95.2148	84.3745	95.2148	84.4612	95.2148	84.3975	95.2148	84.4477	95.2148	84.4242
98.1445	84.7685	98.1445	84.8024	98.1445	84.7126	98.1445	84.8135	98.1445	84.6387	98.1445	84.803	98.1445	84.5531	98.1445	84.7745	98.1445	84.4643	98.1445	84.7327	98.1445	84.382	98.1445	84.6827	98.1445	84.3155	98.1445	84.6293	98.1445	84.2725	98.1445	84.5767	98.1445	84.2571	98.1445	84.5279	98.1445	84.2693	98.1445	84.4848	98.1445	84.3047	98.1445	84.4492	98.1445	84.3553	98.1445	84.4225	98.1445	84.4115	98.1445	84.4064	98.1445	84.4633	98.1445	84.4025	98.1445	84.5029	98.1445	84.4113	98.1445	84.5251	98.1445	84.4317	98.1445	84.5284	98.1445	84.4598	98.1445	84.5151	98.1445	84.4899
101.074	84.792	101.074	84.8314	101.074	84.7268	101.074	84.8435	101.074	84.6399	101.074	84.8299	101.074	84.5386	101.074	84.7941	101.074	84.4325	101.074	84.7414	101.074	84.3325	101.074	84.6774	101.074	84.2498	101.074	84.608	101.074	84.1933	101.074	84.5385	101.074	84.1688	101.074	84.4732	101.074	84.1769	101.074	84.4158	101.074	84.2133	101.074	84.3693	101.074	84.2693	101.074	84.3364	101.074	84.334	101.074	84.3193	101.074	84.3958	101.074	84.3194	101.074	84.4451	101.074	84.3361	101.074	84.4751	101.074	84.3661	101.074	84.4831	101.074	84.4039	101.074	84.4702	101.074	84.4414
105.469	85.0367	105.469	85.0804	105.469	84.9578	105.469	85.0879	105.469	84.8478	105.469	85.0615	105.469	84.7147	105.469	85.0058	105.469	84.569	105.469	84.9275	105.469	84.4233	105.469	84.8339	105.469	84.2909	105.469	84.7325	105.469	84.1834	105.469	84.63	105.469	84.1095	105.469	84.532	105.469	84.0729	105.469	84.4433	105.469	84.0719	105.469	84.3677	105.469	84.0997	105.469	84.3087	105.469	84.1465	105.469	84.2689	105.469	84.2008	105.469	84.2493	105.469	84.2517	105.469	84.2486	105.469	84.2908	105.469	84.2626	105.469	84.3128	105.469	84.2843	105.469	84.3167	105.469	84.3051
108.398	85.155	108.398	85.1999	108.398	85.0727	108.398	85.2065	108.398	84.9576	108.398	85.1774	108.398	84.8181	108.398	85.1178	108.398	84.6655	108.398	85.0348	108.398	84.5134	108.398	84.9362	108.398	84.3755	108.398	84.8295	108.398	84.2639	108.398	84.721	108.398	84.1865	108.398	84.6161	108.398	84.1462	108.398	84.5187	108.398	84.1403	108.398	84.4326	108.398	84.1612	108.398	84.3612	108.398	84.1987	108.398	84.308	108.398	84.2418	108.398	84.2751	108.398	84.2806	108.398	84.2626	108.398	84.3081	108.398	84.2676	108.398	84.3205	108.398	84.2838	108.398	84.3177	108.398	84.3033
112.793	85.2052	112.793	85.248	112.793	85.1241	112.793	85.2511	112.793	85.0101	112.793	85.2169	112.793	84.8725	112.793	85.1506	112.793	84.7239	112.793	85.0596	112.793	84.5792	112.793	84.9522	112.793	84.4531	112.793	84.8368	112.793	84.3585	112.793	84.7212	112.793	84.3034	112.793	84.612	112.793	84.2894	112.793	84.5146	112.793	84.3115	112.793	84.4339	112.793	84.3592	112.793	84.3739	112.793	84.419	112.793	84.338	112.793	84.477	112.793	84.3279	112.793	84.5215	112.793	84.3428	112.793	84.5445	112.793	84.3781	112.793	84.5429	112.793	84.4259	112.793	84.5182	112.793	84.4761
117.188	85.3057	117.188	85.3466	117.188	85.22	117.188	85.3418	117.188	85.0945	117.188	85.2945	117.188	84.9388	117.188	85.2108	117.188	84.7659	117.188	85.0992	117.188	84.592	117.188	84.9695	117.188	84.4338	117.188	84.8317	117.188	84.3068	117.188	84.695	117.188	84.2219	117.188	84.5672	117.188	84.1838	117.188	84.4548	117.188	84.1896	117.188	84.3632	117.188	84.2297	117.188	84.2967	117.188	84.2901	117.188	84.2585	117.188	84.3554	117.188	84.2496	117.188	84.4115	117.188	84.2678	117.188	84.4478	117.188	84.3068	117.188	84.4584	117.188	84.3569	117.188	84.4429	117.188	84.4061
120.117	85.3494	120.117	85.391	120.117	85.2593	120.117	85.3837	120.117	85.1259	120.117	85.3314	120.117	84.959	120.117	85.2415	120.117	84.7729	120.117	85.1239	120.117	84.5849	120.117	84.9894	120.117	84.4134	120.117	84.8491	120.117	84.2752	120.117	84.7126	120.117	84.1825	120.117	84.5876	120.117	84.1407	120.117	84.4801	120.117	84.1469	120.117	84.3943	120.117	84.1915	120.117	84.3338	120.117	84.2596	120.117	84.3005	120.117	84.335	120.117	84.295	120.117	84.4027	120.117	84.3143	120.117	84.4511	120.117	84.352	120.117	84.4735	120.117	84.398	120.117	84.4687	120.117	84.4407
124.512	85.4218	124.512	85.4554	124.512	85.3368	124.512	85.4378	124.512	85.2052	124.512	85.3739	124.512	85.0373	124.512	85.2724	124.512	84.8481	124.512	85.1447	124.512	84.6558	124.512	85.0031	124.512	84.4802	124.512	84.8597	124.512	84.3392	124.512	84.7248	124.512	84.2462	124.512	84.6065	124.512	84.2068	124.512	84.5103	124.512	84.2184	124.512	84.4396	124.512	84.2707	124.512	84.3964	124.512	84.3481	124.512	84.3813	124.512	84.4335	124.512	84.3927	124.512	84.5108	124.512	84.4263	124.512	84.5679	124.512	84.4743	124.512	84.5973	124.512	84.5264	124.512	84.5972	124.512	84.5709
128.906	85.4377	128.906	85.4695	128.906	85.3507	128.906	85.4462	128.906	85.2137	128.906	85.373	128.906	85.0378	128.906	85.2593	128.906	84.8389	128.906	85.1172	128.906	84.6368	128.906	84.9605	128.906	84.4525	128.906	84.8026	128.906	84.3055	128.906	84.6557	128.906	84.2101	128.906	84.5294	128.906	84.1727	128.906	84.4307	128.906	84.1907	128.906	84.3641	128.906	84.2531	128.906	84.3319	128.906	84.3432	128.906	84.3337	128.906	84.4425	128.906	84.3659	128.906	84.5333	128.906	84.4214	128.906	84.6017	128.906	84.4896	128.906	84.6388	128.906	84.5574	128.906	84.6414	128.906	84.6118
133.301	85.5021	133.301	85.5304	133.301	85.4139	133.301	85.4989	133.301	85.2714	133.301	85.4134	133.301	85.0861	133.301	85.2838	133.301	84.8749	133.301	85.1233	133.301	84.6587	133.301	84.9468	133.301	84.4599	133.301	84.7691	133.301	84.2995	133.301	84.6037	133.301	84.1929	133.301	84.4615	133.301	84.1473	133.301	84.3509	133.301	84.1601	133.301	84.2775	133.301	84.22	133.301	84.2444	133.301	84.31	133.301	84.2512	133.301	84.4107	133.301	84.2933	133.301	84.5039	133.301	84.3616	133.301	84.5749	133.301	84.4428	133.301	84.6139	133.301	84.5215	133.301	84.6162	133.301	84.5832
139.16	85.5478	139.16	85.573	139.16	85.4546	139.16	85.5304	139.16	85.2992	139.16	85.4268	139.16	85.0947	139.16	85.2737	139.16	84.86	139.16	85.0865	139.16	84.6188	139.16	84.8825	139.16	84.397	139.16	84.6789	139.16	84.2186	139.16	84.491	139.16	84.1015	139.16	84.3312	139.16	84.0537	139.16	84.2082	139.16	84.0717	139.16	84.1274	139.16	84.1415	139.16	84.0915	139.16	84.2425	139.16	84.0995	139.16	84.3518	139.16	84.1466	139.16	84.4487	139.16	84.2235	139.16	84.5171	139.16	84.3167	139.16	84.5475	139.16	84.4102	139.16	84.5367	139.16	84.488
143.555	85.5197	143.555	85.5408	143.555	85.4253	143.555	85.4892	143.555	85.2639	143.555	85.372	143.555	85.0491	143.555	85.2015	143.555	84.8007	143.555	84.9946	143.555	84.5441	143.555	84.7702	143.555	84.3072	143.555	84.5479	143.555	84.1162	143.555	84.3456	143.555	83.9914	143.555	84.1784	143.555	83.9427	143.555	84.057	143.555	83.9675	143.555	83.9876	143.555	84.0514	143.555	83.9716	143.555	84.1719	143.555	84.0056	143.555	84.3036	143.555	84.081	143.555	84.4223	143.555	84.1847	143.555	84.5094	143.555	84.3004	143.555	84.5527	143.555	84.4102	143.555	84.5477	143.555	84.4972
147.949	85.5591	147.949	85.5783	147.949	85.4596	147.949	85.5176	147.949	85.2867	147.949	85.3844	147.949	85.0543	147.949	85.1913	147.949	84.7838	147.949	84.9559	147.949	84.5019	147.949	84.6986	147.949	84.2384	147.949	84.4409	147.949	84.0221	147.949	84.2037	147.949	83.8753	147.949	84.0052	147.949	83.8099	147.949	83.86	147.949	83.8245	147.949	83.7776	147.949	83.9051	147.949	83.7612	147.949	84.0288	147.949	83.807	147.949	84.1688	147.949	83.9032	147.949	84.299	147.949	84.0321	147.949	84.3982	147.949	84.1718	147.949	84.4512	147.949	84.3002	147.949	84.451	147.949	84.3981
153.809	85.7263	153.809	85.7505	153.809	85.6121	153.809	85.6856	153.809	85.415	153.809	85.5397	153.809	85.15	153.809	85.3267	153.809	84.8402	153.809	85.0655	153.809	84.5152	153.809	84.7778	153.809	84.2083	153.809	84.4862	153.809	83.9516	153.809	84.2126	153.809	83.7709	153.809	83.9766	153.809	83.6803	153.809	83.7945	153.809	83.6792	153.809	83.6789	153.809	83.7533	153.809	83.6369	153.809	83.8787	153.809	83.6679	153.809	84.0264	153.809	83.7613	153.809	84.1682	153.809	83.897	153.809	84.2796	153.809	84.0487	153.809	84.3429	153.809	84.1889	153.809	84.3482	153.809	84.2943
159.668	85.7472	159.668	85.7717	159.668	85.6297	159.668	85.7042	159.668	85.4264	159.668	85.5538	159.668	85.1537	159.668	85.3363	159.668	84.8363	159.668	85.0726	159.668	84.5058	159.668	84.7864	159.668	84.1974	159.668	84.5022	159.668	83.9449	159.668	84.2424	159.668	83.7744	159.668	84.0259	159.668	83.6992	159.668	83.8674	159.668	83.7171	159.668	83.7771	159.668	83.8119	159.668	83.7597	159.668	83.9582	159.668	83.8128	159.668	84.1267	159.668	83.9246	159.668	84.2887	159.668	84.0742	159.668	84.4198	159.668	84.2343	159.668	84.5013	159.668	84.3769	159.668	84.5216	159.668	84.478
165.527	85.8441	165.527	85.8803	165.527	85.708	165.527	85.8185	165.527	85.4792	165.527	85.6688	165.527	85.1747	165.527	85.4489	165.527	84.8207	165.527	85.1815	165.527	84.4521	165.527	84.8926	165.527	84.1092	165.527	84.6082	165.527	83.8323	165.527	84.3514	165.527	83.6543	165.527	84.1404	165.527	83.5925	165.527	83.9881	165.527	83.6441	165.527	83.9023	165.527	83.7872	165.527	83.8859	165.527	83.9871	165.527	83.9367	165.527	84.205	165.527	84.0452	165.527	84.4051	165.527	84.1934	165.527	84.5597	165.527	84.3566	165.527	84.6504	165.527	84.5066	165.527	84.6691	165.527	84.6174
171.387	85.8372	171.387	85.8536	171.387	85.7099	171.387	85.7613	171.387	85.4786	171.387	85.571	171.387	85.16	171.387	85.3009	171.387	84.7808	171.387	84.9753	171.387	84.3764	171.387	84.6232	171.387	83.9889	171.387	84.275	171.387	83.6612	171.387	83.9609	171.387	83.4307	171.387	83.7072	171.387	83.3205	171.387	83.5342	171.387	83.3346	171.387	83.4537	171.387	83.4565	171.387	83.4674	171.387	83.6537	171.387	83.5658	171.387	83.886	171.387	83.7286	171.387	84.1126	171.387	83.9269	171.387	84.2988	171.387	84.1282	171.387	84.4191	171.387	84.3005	171.387	84.4595	171.387	84.4172
177.246	85.6727	177.246	85.6887	177.246	85.5376	177.246	85.5879	177.246	85.2907	177.246	85.3815	177.246	84.9497	177.246	85.089	177.246	84.5427	177.246	84.7363	177.246	84.1077	177.246	84.3545	177.246	83.6899	177.246	83.9764	177.246	83.3367	177.246	83.6344	177.246	83.0897	177.246	83.3566	177.246	82.9754	177.246	83.1646	177.246	82.9979	177.246	83.0717	177.246	83.1377	177.246	83.0811	177.246	83.357	177.246	83.1841	177.246	83.6097	177.246	83.3601	177.246	83.851	177.246	83.5785	177.246	84.044	177.246	83.8034	177.246	84.1629	177.246	83.9992	177.246	84.1942	177.246	84.1364
183.105	85.367	183.105	85.3706	183.105	85.2378	183.105	85.2513	183.105	84.9904	183.105	85.0211	183.105	84.6427	183.105	84.7007	183.105	84.2231	183.105	84.3183	183.105	83.7701	183.105	83.9076	183.105	83.3301	183.105	83.5051	183.105	82.9521	183.105	83.1468	183.105	82.6806	183.105	82.8647	183.105	82.5467	183.105	82.6835	183.105	82.5595	183.105	82.6172	183.105	82.704	183.105	82.6666	183.105	82.9435	183.105	82.817	183.105	83.229	183.105	83.0402	183.105	83.5099	183.105	83.2989	183.105	83.7425	183.105	83.5527	183.105	83.8951	183.105	83.7643	183.105	83.9501	183.105	83.9035
188.965	85.2879	188.965	85.3041	188.965	85.1361	188.965	85.1868	188.965	84.8569	188.965	84.9478	188.965	84.47	188.965	84.6075	188.965	84.0072	188.965	84.1936	188.965	83.5112	188.965	83.7394	188.965	83.0334	188.965	83.2821	188.965	82.6273	188.965	82.8599	188.965	82.3399	188.965	82.5108	188.965	82.2019	188.965	82.2683	188.965	82.2202	188.965	82.1578	188.965	82.3762	188.965	82.1886	188.965	82.6308	188.965	82.3483	188.965	82.9327	188.965	82.603	188.965	83.2288	188.965	82.9047	188.965	83.4726	188.965	83.2025	188.965	83.6297	188.965	83.4515	188.965	83.6799	188.965	83.6178
196.289	85.3608	196.289	85.3975	196.289	85.1781	196.289	85.291	196.289	84.8577	196.289	85.0539	196.289	84.42	196.289	84.708	196.289	83.8981	196.289	84.2822	196.289	83.3379	196.289	83.8107	196.289	82.7955	196.289	83.331	196.289	82.3308	196.289	82.8812	196.289	81.9974	196.289	82.4981	196.289	81.831	196.289	82.2158	196.289	81.8403	196.289	82.0618	196.289	82.0049	196.289	82.051	196.289	82.2813	196.289	82.1781	196.289	82.6137	196.289	82.4138	196.289	82.9443	196.289	82.7098	196.289	83.2222	196.289	83.0103	196.289	83.4085	196.289	83.2632	196.289	83.4796	196.289	83.4281
203.613	85.2654	203.613	85.2815	203.613	85.0934	203.613	85.1451	203.613	84.7722	203.613	84.8688	203.613	84.3201	203.613	84.4739	203.613	83.7681	203.613	83.9886	203.613	83.1603	203.613	83.4472	203.613	82.5529	203.613	82.8883	203.613	82.0084	203.613	82.3534	203.613	81.5861	203.613	81.8863	203.613	81.3302	203.613	81.531	203.613	81.2591	203.613	81.3275	203.613	81.3619	203.613	81.3006	203.613	81.602	203.613	81.4464	203.613	81.9256	203.613	81.7262	203.613	82.2714	203.613	82.0747	203.613	82.5799	203.613	82.4196	203.613	82.8018	203.613	82.6985	203.613	82.903	203.613	82.8674
210.938	85.373	210.938	85.355	210.938	85.219	210.938	85.1695	210.938	84.8995	210.938	84.8309	210.938	84.4337	210.938	84.3629	210.938	83.8557	210.938	83.7979	210.938	83.2158	210.938	83.1773	210.938	82.5786	210.938	82.5488	210.938	82.0164	210.938	81.9632	210.938	81.5961	210.938	81.4691	210.938	81.362	210.938	81.108	210.938	81.3227	210.938	80.9119	210.938	81.4512	210.938	80.8995	210.938	81.6966	210.938	81.0673	210.938	82.0003	210.938	81.3804	210.938	82.3066	210.938	81.7742	210.938	82.5671	210.938	82.171	210.938	82.7411	210.938	82.5013	210.938	82.7973	210.938	82.7176
218.262	85.1448	218.262	85.1543	218.262	84.9621	218.262	84.9955	218.262	84.6139	218.262	84.6843	218.262	84.1216	218.262	84.2472	218.262	83.5229	218.262	83.7205	218.262	82.8721	218.262	83.1491	218.262	82.2384	218.262	82.5826	218.262	81.6983	218.262	82.0706	218.262	81.3217	218.262	81.6567	218.262	81.1532	218.262	81.3755	218.262	81.1985	218.262	81.251	218.262	81.4229	218.262	81.2933	218.262	81.7652	218.262	81.4917	218.262	82.1553	218.262	81.8086	218.262	82.5291	218.262	82.1847	218.262	82.8354	218.262	82.5531	218.262	83.0373	218.262	82.8552	218.262	83.1117	218.262	83.0491
225.586	85.3478	225.586	85.3593	225.586	85.1399	225.586	85.1831	225.586	84.7403	225.586	84.84	225.586	84.169	225.586	84.3623	225.586	83.4648	225.586	83.7934	225.586	82.6873	225.586	83.1855	225.586	81.9184	225.586	82.5949	225.586	81.2562	225.586	82.0751	225.586	80.7986	225.586	81.6693	225.586	80.6149	225.586	81.4089	225.586	80.7186	225.586	81.3152	225.586	81.062	225.586	81.3999	225.586	81.5578	225.586	81.6558	225.586	82.1105	225.586	82.0441	225.586	82.6367	225.586	82.496	225.586	83.0729	225.586	82.93	225.586	83.3742	225.586	83.274	225.586	83.5128	225.586	83.4773
232.91	85.6483	232.91	85.6569	232.91	85.4331	232.91	85.4658	232.91	85.0174	232.91	85.0946	232.91	84.4214	232.91	84.5754	232.91	83.6813	232.91	83.9527	232.91	82.8509	232.91	83.2806	232.91	82.0031	232.91	82.6187	232.91	81.2271	232.91	82.0237	232.91	80.6189	232.91	81.5423	232.91	80.2609	232.91	81.2083	232.91	80.1941	232.91	81.0441	232.91	80.4	232.91	81.0613	232.91	80.8085	232.91	81.2537	232.91	81.325	232.91	81.5864	232.91	81.8567	232.91	81.9933	232.91	82.3261	232.91	82.3913	232.91	82.6744	232.91	82.7026	232.91	82.8618	232.91	82.8697
241.699	85.6063	241.699	85.5868	241.699	85.4153	241.699	85.3639	241.699	85.0183	241.699	84.9566	241.699	84.4337	241.699	84.3957	241.699	83.6958	241.699	83.7247	241.699	82.8571	241.699	82.9989	241.699	81.9892	241.699	82.2824	241.699	81.1799	241.699	81.6401	241.699	80.5245	241.699	81.129	241.699	80.1088	241.699	80.7908	241.699	79.9835	241.699	80.6485	241.699	80.1423	241.699	80.7038	241.699	80.5204	241.699	80.9337	241.699	81.0189	241.699	81.2879	241.699	81.5375	241.699	81.6956	241.699	81.9941	241.699	82.0798	241.699	82.3313	241.699	82.3728	241.699	82.5137	241.699	82.5261
250.488	85.7847	250.488	85.7516	250.488	85.6002	250.488	85.5089	250.488	85.2021	250.488	85.0765	250.488	84.609	250.488	84.4866	250.488	83.8566	250.488	83.7833	250.488	83.0005	250.488	83.0225	250.488	82.1171	250.488	82.2674	250.488	81.3003	250.488	81.5835	250.488	80.6494	250.488	81.032	250.488	80.2479	250.488	80.6663	250.488	80.1385	250.488	80.5263	250.488	80.3081	250.488	80.6261	250.488	80.6939	250.488	80.9393	250.488	81.2057	250.488	81.3959	250.488	81.7493	250.488	81.8999	250.488	82.2413	250.488	82.3561	250.488	82.6164	250.488	82.6901	250.488	82.829	250.488	82.8546
259.277	86.0418	259.277	86.0252	259.277	85.8346	259.277	85.7948	259.277	85.4067	259.277	85.3725	259.277	84.7757	259.277	84.7907	259.277	83.9763	259.277	84.0916	259.277	83.0618	259.277	83.3247	259.277	82.1062	259.277	82.5435	259.277	81.204	259.277	81.8026	259.277	80.4641	259.277	81.1577	259.277	79.9906	259.277	80.667	259.277	79.8474	259.277	80.3875	259.277	80.0237	259.277	80.3579	259.277	80.4369	259.277	80.5733	259.277	80.9719	259.277	80.9747	259.277	81.5208	259.277	81.4646	259.277	81.9999	259.277	81.9379	259.277	82.3488	259.277	82.3067	259.277	82.5268	259.277	82.5124
268.066	85.6971	268.066	85.6522	268.066	85.5183	268.066	85.3904	268.066	85.1212	268.066	84.9302	268.066	84.525	268.066	84.3022	268.066	83.7639	268.066	83.5479	268.066	82.8893	268.066	82.7189	268.066	81.9703	268.066	81.8743	268.066	81.0936	268.066	81.0784	268.066	80.3594	268.066	80.4	268.066	79.8686	268.066	79.9101	268.066	79.6968	268.066	79.6716	268.066	79.8579	268.066	79.7183	268.066	80.286	268.066	80.0322	268.066	80.8605	268.066	80.5393	268.066	81.4536	268.066	81.1313	268.066	81.9621	268.066	81.6969	268.066	82.3157	268.066	82.1448	268.066	82.4724	268.066	82.4138
276.855	85.7095	276.855	85.6507	276.855	85.5437	276.855	85.3751	276.855	85.1577	276.855	84.9008	276.855	84.5683	276.855	84.2554	276.855	83.8066	276.855	83.4728	276.855	82.9201	276.855	82.5903	276.855	81.9749	276.855	81.6486	276.855	81.0566	276.855	80.6985	276.855	80.2669	276.855	79.8162	276.855	79.711	276.855	79.1181	276.855	79.4734	276.855	78.743	276.855	79.5842	276.855	78.7783	276.855	79.994	276.855	79.1868	276.855	80.585	276.855	79.8284	276.855	81.2123	276.855	80.5459	276.855	81.7478	276.855	81.2168	276.855	82.1016	276.855	81.756	276.855	82.225	276.855	82.1047
287.109	85.6626	287.109	85.6214	287.109	85.4626	287.109	85.3456	287.109	85.0266	287.109	84.854	287.109	84.374	287.109	84.1775	287.109	83.5418	287.109	83.3583	287.109	82.5895	287.109	82.4454	287.109	81.6007	287.109	81.4864	287.109	80.6779	287.109	80.5216	287.109	79.9256	287.109	79.59	287.109	79.4271	287.109	78.7583	287.109	79.227	287.109	78.1693	287.109	79.3287	287.109	78.04	287.109	79.6989	287.109	78.5002	287.109	80.2684	287.109	79.4043	287.109	80.9323	287.109	80.4358	287.109	81.5676	287.109	81.3369	287.109	82.0602	287.109	81.9749	287.109	82.3237	287.109	82.3042
297.363	86.0672	297.363	86.0406	297.363	85.8289	297.363	85.757	297.363	85.3299	297.363	85.2334	297.363	84.5889	297.363	84.496	297.363	83.6431	297.363	83.583	297.363	82.5525	297.363	82.5492	297.363	81.405	297.363	81.4708	297.363	80.3219	297.363	80.4405	297.363	79.4536	297.363	79.5459	297.363	78.9437	297.363	78.837	297.363	78.8605	297.363	78.3181	297.363	79.1529	297.363	77.997	297.363	79.6871	297.363	77.9569	297.363	80.3213	297.363	78.329	297.363	80.9409	297.363	79.1111	297.363	81.4534	297.363	80.08	297.363	81.7747	297.363	80.9562	297.363	81.829	297.363	81.5604
307.617	86.33	307.617	86.2844	307.617	86.1148	307.617	85.9871	307.617	85.6399	307.617	85.4564	307.617	84.9198	307.617	84.7194	307.617	83.9853	307.617	83.8143	307.617	82.8887	307.617	82.7937	307.617	81.7072	307.617	81.73	307.617	80.5438	307.617	80.7176	307.617	79.52	307.617	79.863	307.617	78.757	307.617	79.2554	307.617	78.341	307.617	78.9261	307.617	78.2878	307.617	78.8382	307.617	78.5355	307.617	78.923	307.617	78.9736	307.617	79.1284	307.617	79.4818	307.617	79.4275	307.617	79.9507	307.617	79.786	307.617	80.2902	307.617	80.1334	307.617	80.4387	307.617	80.3763
319.336	86.2873	319.336	86.1526	319.336	86.1681	319.336	85.7747	319.336	85.7924	319.336	85.1717	319.336	85.1672	319.336	84.3681	319.336	84.3108	319.336	83.3947	319.336	83.2559	319.336	82.2915	319.336	82.0547	319.336	81.1162	319.336	80.7886	319.336	79.9569	319.336	79.5815	319.336	78.9423	319.336	78.607	319.336	78.2244	319.336	78.0504	319.336	77.913	319.336	78.0018	319.336	78.0013	319.336	78.3767	319.336	78.372	319.336	78.9773	319.336	78.8816	319.336	79.6112	319.336	79.4224	319.336	80.1469	319.336	79.9247	319.336	80.5081	319.336	80.3325	319.336	80.6582	319.336	80.592
329.59	85.919	329.59	85.7925	329.59	85.8027	329.59	85.4345	329.59	85.4422	329.59	84.8645	329.59	84.8476	329.59	84.108	329.59	84.0413	329.59	83.1944	329.59	83.0584	329.59	82.1586	329.59	81.9463	329.59	81.0449	329.59	80.7664	329.59	79.9169	329.59	79.601	329.59	78.8685	329.59	78.5614	329.59	78.0282	329.59	77.7817	329.59	77.5302	329.59	77.378	329.59	77.4419	329.59	77.3837	329.59	77.7043	329.59	77.7245	329.59	78.168	329.59	78.2552	329.59	78.6813	329.59	78.8167	329.59	79.1361	329.59	79.2776	329.59	79.463	329.59	79.5542	329.59	79.6134
341.309	85.9681	341.309	85.8387	341.309	85.8469	341.309	85.4716	341.309	85.475	341.309	84.8895	341.309	84.8661	341.309	84.1205	341.309	84.0493	341.309	83.1934	341.309	83.0697	341.309	82.1345	341.309	81.9871	341.309	80.9739	341.309	80.8716	341.309	79.7662	341.309	79.7992	341.309	78.627	341.309	78.8546	341.309	77.762	341.309	78.1437	341.309	77.4065	341.309	77.787	341.309	77.6324	341.309	77.8531	341.309	78.253	341.309	78.2771	341.309	78.9902	341.309	78.8842	341.309	79.6455	341.309	79.4954	341.309	80.1239	341.309	79.9937	341.309	80.3958	341.309	80.3225	341.309	80.4598
353.027	85.7919	353.027	85.6406	353.027	85.6979	353.027	85.2595	353.027	85.3566	353.027	84.6764	353.027	84.7818	353.027	83.93	353.027	84.0055	353.027	83.0668	353.027	83.0782	353.027	82.1342	353.027	82.0664	353.027	81.1721	353.027	81.0443	353.027	80.2067	353.027	80.0817	353.027	79.2606	353.027	79.2331	353.027	78.383	353.027	78.539	353.027	77.6913	353.027	78.0453	353.027	77.3619	353.027	77.824	353.027	77.5026	353.027	77.9422	353.027	78.0198	353.027	78.3728	353.027	78.6867	353.027	78.9581	353.027	79.2999	353.027	79.497	353.027	79.7345	353.027	79.8422	353.027	79.9247
366.211	85.7486	366.211	85.6592	366.211	85.5834	366.211	85.3242	366.211	85.1681	366.211	84.7617	366.211	84.5253	366.211	83.9985	366.211	83.6991	366.211	83.0754	366.211	82.7569	366.211	82.0547	366.211	81.788	366.211	81.021	366.211	80.8943	366.211	80.0589	366.211	80.1649	366.211	79.2119	366.211	79.6391	366.211	78.4649	366.211	79.2846	366.211	77.7986	366.211	79.023	366.211	77.2854	366.211	78.7933	366.211	77.1004	366.211	78.6112	366.211	77.3443	366.211	78.5605	366.211	77.8828	366.211	78.6923	366.211	78.4659	366.211	78.9309	366.211	78.9096	366.211	79.1198	366.211	79.1311
379.395	86.4351	379.395	86.2388	379.395	86.3728	379.395	85.8097	379.395	86.0382	379.395	85.1805	379.395	85.4338	379.395	84.3853	379.395	84.5813	379.395	83.4554	379.395	83.5279	379.395	82.4223	379.395	82.3518	379.395	81.3301	379.395	81.1619	379.395	80.2543	379.395	80.0795	379.395	79.3042	379.395	79.2132	379.395	78.5745	379.395	78.6474	379.395	78.071	379.395	78.4339	379.395	77.7226	379.395	78.556	379.395	77.4942	379.395	78.9034	379.395	77.4611	379.395	79.3184	379.395	77.7323	379.395	79.6627	379.395	78.2841	379.395	79.8396	379.395	78.9326	379.395	79.7858	379.395	79.4733
392.578	85.4985	392.578	85.335	392.578	85.483	392.578	84.9926	392.578	85.293	392.578	84.4786	392.578	84.9347	392.578	83.8079	392.578	84.415	392.578	83.0011	392.578	83.7437	392.578	82.0856	392.578	82.938	392.578	81.1052	392.578	82.026	392.578	80.1421	392.578	81.0478	392.578	79.3286	392.578	80.0571	392.578	78.7963	392.578	79.1304	392.578	78.5647	392.578	78.3931	392.578	78.5191	392.578	78.0312	392.578	78.5378	392.578	78.1851	392.578	78.6051	392.578	78.7575	392.578	78.7943	392.578	79.4399	392.578	79.1513	392.578	79.9441	392.578	79.6016	392.578	80.1266	392.578	79.9807
405.762	85.9677	405.762	85.7705	405.762	85.9204	405.762	85.3461	405.762	85.6211	405.762	84.7208	405.762	85.0771	405.762	83.9277	405.762	84.3201	405.762	82.9998	405.762	83.415	405.762	81.957	405.762	82.456	405.762	80.8	405.762	81.5425	405.762	79.5336	405.762	80.7416	405.762	78.2617	405.762	80.0671	405.762	77.3278	405.762	79.4895	405.762	77.1669	405.762	78.9687	405.762	77.6984	405.762	78.5007	405.762	78.3831	405.762	78.1746	405.762	78.8624	405.762	78.155	405.762	79.1033	405.762	78.4893	405.762	79.2395	405.762	78.9738	405.762	79.3722	405.762	79.3353	405.762	79.4493
420.41	86.0258	420.41	85.8366	420.41	85.985	420.41	85.4365	420.41	85.7096	420.41	84.8566	420.41	85.2149	420.41	84.1372	420.41	84.5415	420.41	83.3204	420.41	83.7493	420.41	82.4377	420.41	82.8916	420.41	81.5042	420.41	81.9842	420.41	80.5275	420.41	81.0062	420.41	79.5251	420.41	79.9657	420.41	78.5461	420.41	78.9972	420.41	77.7002	420.41	78.3477	420.41	77.1716	420.41	78.1249	420.41	77.1215	420.41	78.1622	420.41	77.5107	420.41	78.2909	420.41	78.1133	420.41	78.5175	420.41	78.7025	420.41	78.8584	420.41	79.1283	420.41	79.179	420.41	79.2968
435.059	85.4779	435.059	85.311	435.059	85.4044	435.059	84.9329	435.059	85.0745	435.059	84.3751	435.059	84.4987	435.059	83.6651	435.059	83.7285	435.059	82.824	435.059	82.8659	435.059	81.8738	435.059	82.053	435.059	80.8565	435.059	81.4092	435.059	79.8595	435.059	80.9418	435.059	79.0155	435.059	80.5404	435.059	78.4447	435.059	80.0904	435.059	78.179	435.059	79.5857	435.059	78.165	435.059	79.134	435.059	78.3272	435.059	78.853	435.059	78.5981	435.059	78.77	435.059	78.908	435.059	78.8467	435.059	79.1831	435.059	79.0325	435.059	79.3554	435.059	79.2454	435.059	79.3764
451.172	85.9561	451.172	85.6469	451.172	86.042	451.172	85.1521	451.172	85.8712	451.172	84.5076	451.172	85.4258	451.172	83.7442	451.172	84.7156	451.172	82.8909	451.172	83.7907	451.172	81.978	451.172	82.7503	451.172	81.0353	451.172	81.7266	451.172	80.075	451.172	80.8238	451.172	79.0877	451.172	80.0447	451.172	78.1052	451.172	79.3136	451.172	77.3331	451.172	78.6342	451.172	77.1082	451.172	78.2596	451.172	77.4786	451.172	78.5341	451.172	78.1258	451.172	79.3551	451.172	78.8119	451.172	80.2257	451.172	79.496	451.172	80.7824	451.172	80.1508	451.172	80.9173	451.172	80.6703
465.82	85.5159	465.82	85.2168	465.82	85.5915	465.82	84.7339	465.82	85.4265	465.82	84.1337	465.82	85.0189	465.82	83.4991	465.82	84.3809	465.82	82.8939	465.82	83.547	465.82	82.3223	465.82	82.5894	465.82	81.7231	465.82	81.6282	465.82	81.0056	465.82	80.7998	465.82	80.1033	465.82	80.1609	465.82	79.0235	465.82	79.6251	465.82	77.8913	465.82	79.0407	465.82	76.9727	465.82	78.3512	465.82	76.575	465.82	77.7317	465.82	76.7792	465.82	77.5533	465.82	77.3617	465.82	77.9529	465.82	78.0423	465.82	78.5667	465.82	78.6284	465.82	78.9661	465.82	78.9762
483.398	85.4715	483.398	85.2019	483.398	85.4495	483.398	84.6762	483.398	85.1516	483.398	83.9768	483.398	84.6418	483.398	83.2165	483.398	84.0158	483.398	82.5037	483.398	83.3657	483.398	81.9028	483.398	82.7399	483.398	81.4208	483.398	82.1323	483.398	81.0318	483.398	81.5136	483.398	80.6962	483.398	80.8747	483.398	80.3432	483.398	80.2265	483.398	79.8589	483.398	79.5495	483.398	79.1411	483.398	78.7944	483.398	78.2204	483.398	78.0525	483.398	77.4169	483.398	77.763	483.398	77.3108	483.398	78.2943	483.398	78.0712	483.398	79.2097	483.398	79.1025	483.398	79.8145	483.398	79.7789
499.512	85.9877	499.512	85.6237	499.512	86.0096	499.512	84.9608	499.512	85.6677	499.512	84.0529	499.512	84.9688	499.512	82.9499	499.512	83.9601	499.512	81.6938	499.512	82.7713	499.512	80.3524	499.512	81.6755	499.512	79.1026	499.512	81.0063	499.512	78.26	499.512	80.8117	499.512	78.0187	499.512	80.7696	499.512	78.1804	499.512	80.5761	499.512	78.4256	499.512	80.1778	499.512	78.6356	499.512	79.709	499.512	78.8544	499.512	79.3227	499.512	79.0954	499.512	79.1067	499.512	79.2893	499.512	79.1384	499.512	79.433	499.512	79.4098	499.512	79.6056	499.512	79.6931	499.512	79.7525
517.09	86.0289	517.09	85.5972	517.09	86.2107	517.09	84.9842	517.09	86.1148	517.09	84.2874	517.09	85.7454	517.09	83.5901	517.09	85.1262	517.09	82.909	517.09	84.2956	517.09	82.1734	517.09	83.3068	517.09	81.2592	517.09	82.2287	517.09	80.0852	517.09	81.1659	517.09	78.7866	517.09	80.2994	517.09	77.827	517.09	79.8254	517.09	77.4802	517.09	79.7088	517.09	77.2936	517.09	79.6493	517.09	76.8964	517.09	79.4538	517.09	76.7229	517.09	79.3131	517.09	77.4423	517.09	79.5676	517.09	78.7237	517.09	80.1175	517.09	79.8349	517.09	80.5133	517.09	80.4496
536.133	85.7103	536.133	85.3929	536.133	85.7504	536.133	84.84	536.133	85.4761	536.133	84.0968	536.133	84.8631	536.133	83.2132	536.133	83.9242	536.133	82.2467	536.133	82.7638	536.133	81.2563	536.133	81.6503	536.133	80.2604	536.133	80.949	536.133	79.2022	536.133	80.7452	536.133	78.0623	536.133	80.6734	536.133	77.1461	536.133	80.3208	536.133	77.0581	536.133	79.5726	536.133	77.7666	536.133	78.7243	536.133	78.4662	536.133	78.3304	536.133	78.5447	536.133	78.5529	536.133	77.8891	536.133	78.9843	536.133	77.0635	536.133	79.2159	536.133	77.1877	536.133	78.986	536.133	78.1796
555.176	85.8972	555.176	85.638	555.176	85.9419	555.176	85.246	555.176	85.6999	555.176	84.7919	555.176	85.1143	555.176	84.2992	555.176	84.1563	555.176	83.7278	555.176	82.8635	555.176	83.0008	555.176	81.4309	555.176	82.0523	555.176	80.317	555.176	80.8559	555.176	79.9841	555.176	79.4408	555.176	80.2366	555.176	77.9717	555.176	80.4283	555.176	76.9516	555.176	80.1108	555.176	76.9774	555.176	79.1242	555.176	77.7222	555.176	77.6358	555.176	78.3304	555.176	76.5809	555.176	78.4329	555.176	77.0888	555.176	78.2612	555.176	78.2715	555.176	78.3577	555.176	78.8991	555.176	78.7737
574.219	85.7585	574.219	85.1775	574.219	86.1591	574.219	84.5374	574.219	86.27	574.219	83.9338	574.219	85.9969	574.219	83.4023	574.219	85.2529	574.219	82.9151	574.219	83.9762	574.219	82.3773	574.219	82.2205	574.219	81.6325	574.219	80.3842	574.219	80.5313	574.219	79.3315	574.219	79.0483	574.219	79.4324	574.219	77.387	574.219	79.9854	574.219	76.0079	574.219	80.3804	574.219	75.4963	574.219	80.3973	574.219	76.0847	574.219	79.9449	574.219	77.1949	574.219	79.1301	574.219	78.078	574.219	78.5347	574.219	78.5347	574.219	78.6918	574.219	78.8336	574.219	79.0888	574.219	79.1107
594.727	86.0345	594.727	85.7858	594.727	86.2336	594.727	85.4755	594.727	86.3148	594.727	85.0381	594.727	86.1645	594.727	84.4284	594.727	85.6695	594.727	83.6946	594.727	84.7242	594.727	82.9847	594.727	83.2171	594.727	82.393	594.727	81.077	594.727	81.7502	594.727	78.5635	594.727	80.705	594.727	76.8951	594.727	79.0774	594.727	77.1256	594.727	77.3596	594.727	78.1816	594.727	76.8213	594.727	79.1433	594.727	77.558	594.727	79.7953	594.727	78.492	594.727	80.0496	594.727	79.1446	594.727	79.9465	594.727	79.4562	594.727	79.7307	594.727	79.5359	594.727	79.6077	594.727	79.56
615.234	86.3514	615.234	86.3305	615.234	86.1989	615.234	86.1285	615.234	85.9039	615.234	85.7535	615.234	85.484	615.234	85.1951	615.234	84.897	615.234	84.4122	615.234	84.0493	615.234	83.3712	615.234	82.8773	615.234	82.1206	615.234	81.4645	615.234	80.828	615.234	80.1228	615.234	79.622	615.234	79.1983	615.234	78.3472	615.234	78.5573	615.234	76.7991	615.234	77.6052	615.234	75.5466	615.234	75.8913	615.234	75.7334	615.234	74.0088	615.234	76.5986	615.234	74.3735	615.234	76.8995	615.234	76.458	615.234	76.7855	615.234	77.9867	615.234	77.1645	615.234	78.4645	615.234	78.0186
637.207	85.781	637.207	85.6578	637.207	85.7201	637.207	85.359	637.207	85.4677	637.207	84.8942	637.207	85.017	637.207	84.2719	637.207	84.3586	637.207	83.5134	637.207	83.4662	637.207	82.6755	637.207	82.3156	637.207	81.8198	637.207	81.0017	637.207	80.9211	637.207	79.8702	637.207	79.853	637.207	79.3083	637.207	78.5219	637.207	79.2659	637.207	77.014	637.207	79.3623	637.207	75.6878	637.207	79.2558	637.207	75.2707	637.207	78.6888	637.207	76.2579	637.207	77.6848	637.207	77.818	637.207	77.1723	637.207	78.9808	637.207	78.0203	637.207	79.5468	637.207	79.1245	637.207	79.6208
659.18	85.7492	659.18	85.6911	659.18	85.8147	659.18	85.6108	659.18	85.8082	659.18	85.4026	659.18	85.5643	659.18	84.9508	659.18	84.8965	659.18	84.2104	659.18	83.6851	659.18	83.2543	659.18	82.0161	659.18	82.2328	659.18	80.3477	659.18	81.2293	659.18	79.2713	659.18	80.1063	659.18	78.7829	659.18	78.5812	659.18	78.616	659.18	76.7433	659.18	78.8722	659.18	75.7325	659.18	79.3312	659.18	76.1824	659.18	79.3168	659.18	76.7841	659.18	78.5343	659.18	76.7865	659.18	77.5198	659.18	76.5451	659.18	77.2987	659.18	76.8509	659.18	77.6367	659.18	77.5036
682.617	85.6191	682.617	85.7382	682.617	85.5315	682.617	85.7914	682.617	85.4516	682.617	85.6348	682.617	85.2407	682.617	85.1572	682.617	84.7304	682.617	84.3603	682.617	83.7365	682.617	83.4195	682.617	82.0443	682.617	82.6123	682.617	79.5647	682.617	82.0161	682.617	77.0332	682.617	81.307	682.617	76.6113	682.617	79.9975	682.617	77.8133	682.617	77.7318	682.617	78.5441	682.617	74.9933	682.617	78.381	682.617	75.0079	682.617	77.5349	682.617	77.2568	682.617	76.4587	682.617	78.5001	682.617	76.2554	682.617	78.5256	682.617	77.2835	682.617	78.2134	682.617	78.148	682.617	78.2583
707.52	85.4678	707.52	85.8095	707.52	85.1196	707.52	85.963	707.52	84.8858	707.52	85.7827	707.52	84.6945	707.52	85.1957	707.52	84.2898	707.52	84.2251	707.52	83.4067	707.52	82.9745	707.52	81.9319	707.52	81.5919	707.52	79.9929	707.52	80.3104	707.52	78.1323	707.52	79.4257	707.52	77.2883	707.52	78.8346	707.52	77.5624	707.52	77.8102	707.52	78.149	707.52	75.6974	707.52	78.5598	707.52	73.5506	707.52	78.4959	707.52	74.6039	707.52	77.7908	707.52	76.4795	707.52	77.0081	707.52	77.2218	707.52	77.1213	707.52	77.3956	707.52	77.6012	707.52	77.6214
732.422	85.7881	732.422	85.9531	732.422	85.5246	732.422	85.9765	732.422	85.2432	732.422	85.7775	732.422	84.9996	732.422	85.1936	732.422	84.6582	732.422	84.0648	732.422	83.9231	732.422	82.4477	732.422	82.5469	732.422	80.8256	732.422	80.4477	732.422	79.7425	732.422	77.9117	732.422	78.9315	732.422	76.1911	732.422	77.6619	732.422	76.3788	732.422	75.8304	732.422	77.3597	732.422	74.7596	732.422	78.1188	732.422	75.4044	732.422	78.3055	732.422	76.4169	732.422	77.724	732.422	76.9872	732.422	76.6568	732.422	76.9365	732.422	76.176	732.422	76.5366	732.422	76.3828	732.422	76.4233
757.324	85.6919	757.324	85.9641	757.324	85.1254	757.324	85.8017	757.324	84.4818	757.324	85.1513	757.324	83.9158	757.324	84.0578	757.324	83.3283	757.324	82.7062	757.324	82.377	757.324	81.3706	757.324	80.6908	757.324	80.3736	757.324	78.1026	757.324	79.9821	757.324	75.2197	757.324	80.0937	757.324	74.0707	757.324	79.917	757.324	74.8306	757.324	78.2902	757.324	76.027	757.324	73.9874	757.324	77.0449	757.324	69.4953	757.324	77.1254	757.324	74.3552	757.324	75.7831	757.324	76.9448	757.324	73.894	757.324	77.0788	757.324	73.8795	757.324	75.9498	757.324	74.743	757.324	75.1028
785.156	85.5434	785.156	85.761	785.156	85.1216	785.156	85.616	785.156	84.676	785.156	84.9301	785.156	84.3071	785.156	83.5651	785.156	83.8968	785.156	81.6821	785.156	83.1646	785.156	79.9254	785.156	81.7953	785.156	79.011	785.156	79.5513	785.156	78.8761	785.156	76.3102	785.156	78.981	785.156	72.6994	785.156	79.0949	785.156	72.7426	785.156	78.8868	785.156	75.5797	785.156	77.6679	785.156	77.4031	785.156	74.7353	785.156	77.8456	785.156	72.0075	785.156	77.2244	785.156	74.2153	785.156	76.3959	785.156	76.1452	785.156	76.2843	785.156	76.5958	785.156	76.497	785.156	76.5645
811.523	85.7362	811.523	85.9118	811.523	85.0435	811.523	85.5386	811.523	84.1121	811.523	84.7312	811.523	83.3462	811.523	83.5969	811.523	82.8664	811.523	82.1614	811.523	82.3587	811.523	80.3903	811.523	81.5087	811.523	78.1718	811.523	80.1356	811.523	75.6147	811.523	77.9114	811.523	74.4546	811.523	74.544	811.523	75.974	811.523	71.0199	811.523	77.4736	811.523	71.3598	811.523	77.1493	811.523	74.461	811.523	74.1227	811.523	76.5755	811.523	71.4855	811.523	76.7745	811.523	75.0877	811.523	75.2009	811.523	76.7767	811.523	73.3009	811.523	76.0087	811.523	72.9544	811.523	74.1376
840.82	85.3967	840.82	85.1226	840.82	85.1492	840.82	84.5515	840.82	84.3897	840.82	83.9244	840.82	83.3324	840.82	83.1902	840.82	82.2069	840.82	82.1406	840.82	81.0811	840.82	80.8154	840.82	79.8939	840.82	79.4445	840.82	78.5717	840.82	78.2268	840.82	77.2339	840.82	77.1959	840.82	76.2354	840.82	76.2084	840.82	75.7933	840.82	75.3806	840.82	75.5894	840.82	74.4774	840.82	74.9993	840.82	72.2625	840.82	73.5256	840.82	68.4877	840.82	71.1874	840.82	69.8385	840.82	70.7851	840.82	72.9402	840.82	73.2033	840.82	74.3022	840.82	74.647	840.82	74.8012
870.117	85.8123	870.117	85.7845	870.117	85.2993	870.117	85.1095	870.117	84.4639	870.117	83.7984	870.117	83.6571	870.117	82.0944	870.117	83.1275	870.117	80.529	870.117	82.5963	870.117	79.4611	870.117	81.5063	870.117	78.5695	870.117	79.4583	870.117	77.4309	870.117	76.284	870.117	76.5053	870.117	72.4078	870.117	76.6569	870.117	70.7392	870.117	77.2469	870.117	73.3961	870.117	76.9675	870.117	76.2645	870.117	75.2301	870.117	77.5356	870.117	72.6913	870.117	76.8923	870.117	72.3931	870.117	74.3505	870.117	73.8573	870.117	71.8599	870.117	74.4264	870.117	72.8478	870.117	74.0902
900.879	85.7541	900.879	85.3625	900.879	85.5819	900.879	84.4991	900.879	84.7767	900.879	83.2923	900.879	83.4417	900.879	81.9803	900.879	81.9355	900.879	80.7475	900.879	80.5358	900.879	79.505	900.879	79.0226	900.879	77.8714	900.879	77.1634	900.879	75.4401	900.879	75.3041	900.879	73.434	900.879	73.7809	900.879	75.3075	900.879	72.7785	900.879	77.912	900.879	73.241	900.879	78.1799	900.879	74.3611	900.879	75.5315	900.879	74.9194	900.879	71.2229	900.879	74.9237	900.879	73.3785	900.879	73.8423	900.879	75.2791	900.879	71.8924	900.879	74.4654	900.879	71.5815	900.879	72.6915
933.105	86.4813	933.105	86.0979	933.105	86.1136	933.105	84.9843	933.105	85.0788	933.105	83.2858	933.105	83.7037	933.105	81.3558	933.105	82.5389	933.105	79.5476	933.105	81.6828	933.105	77.8179	933.105	80.3354	933.105	75.9492	933.105	77.5136	933.105	73.9723	933.105	72.5065	933.105	72.6561	933.105	68.4206	933.105	73.499	933.105	72.2976	933.105	75.1284	933.105	74.8506	933.105	75.4488	933.105	76.2789	933.105	73.8797	933.105	77.1227	933.105	70.0315	933.105	76.6045	933.105	69.3606	933.105	74.8539	933.105	72.5876	933.105	73.5264	933.105	73.1255	933.105	72.8951	933.105	72.5695
965.332	86.1991	965.332	85.7978	965.332	86.1335	965.332	84.966	965.332	85.3788	965.332	83.5131	965.332	83.807	965.332	81.5377	965.332	81.613	965.332	79.6621	965.332	79.58	965.332	78.3526	965.332	78.4184	965.332	77.3516	965.332	77.6577	965.332	75.8026	965.332	76.2842	965.332	72.6162	965.332	73.0688	965.332	67.1307	965.332	66.5479	965.332	72.2546	965.332	65.6258	965.332	75.9941	965.332	67.5918	965.332	75.5353	965.332	69.7814	965.332	71.7006	965.332	73.0372	965.332	68.2402	965.332	73.4452	965.332	70.9412	965.332	71.7141	965.332	72.2197	965.332	70.9832	965.332	71.6388
1,000.49	86.2308	1,000.49	86.1464	1,000.49	86.0109	1,000.49	85.6045	1,000.49	85.3585	1,000.49	84.3833	1,000.49	84.0703	1,000.49	82.546	1,000.49	82.2494	1,000.49	80.4332	1,000.49	80.4593	1,000.49	78.3004	1,000.49	79.0568	1,000.49	76.3756	1,000.49	77.4022	1,000.49	75.1765	1,000.49	74.8419	1,000.49	74.3129	1,000.49	71.2445	1,000.49	71.4371	1,000.49	69.0404	1,000.49	66.5311	1,000.49	70.435	1,000.49	71.4806	1,000.49	72.809	1,000.49	74.3405	1,000.49	74.1692	1,000.49	72.3813	1,000.49	74.2014	1,000.49	68.2738	1,000.49	73.6493	1,000.49	71.8829	1,000.49	72.3781	1,000.49	72.3488	1,000.49	70.4513	1,000.49	70.6932
1,035.64	85.874	1,035.64	85.8022	1,035.64	85.6654	1,035.64	85.2354	1,035.64	85.1865	1,035.64	84.0319	1,035.64	84.2647	1,035.64	82.4592	1,035.64	82.5517	1,035.64	80.6481	1,035.64	80.0492	1,035.64	78.4289	1,035.64	77.7549	1,035.64	75.7749	1,035.64	76.427	1,035.64	71.8942	1,035.64	74.3933	1,035.64	69.2472	1,035.64	69.9935	1,035.64	72.9969	1,035.64	68.8439	1,035.64	74.5744	1,035.64	70.7724	1,035.64	73.772	1,035.64	69.8745	1,035.64	73.6385	1,035.64	69.9996	1,035.64	72.9108	1,035.64	71.5499	1,035.64	70.3221	1,035.64	71.7407	1,035.64	70.4774	1,035.64	71.7091	1,035.64	71.2233	1,035.64	71.4776	1,035.64	71.0947
1,072.27	85.6673	1,072.27	85.7148	1,072.27	85.4138	1,072.27	85.2318	1,072.27	84.9484	1,072.27	84.2365	1,072.27	83.993	1,072.27	83.1418	1,072.27	82.7332	1,072.27	81.6731	1,072.27	81.531	1,072.27	78.8097	1,072.27	79.979	1,072.27	74.892	1,072.27	77.7476	1,072.27	73.439	1,072.27	75.5122	1,072.27	74.1007	1,072.27	72.4925	1,072.27	71.3823	1,072.27	68.9323	1,072.27	70.4949	1,072.27	71.4398	1,072.27	73.9253	1,072.27	73.7502	1,072.27	74.1411	1,072.27	74.1142	1,072.27	70.5456	1,072.27	73.9569	1,072.27	66.872	1,072.27	73.5434	1,072.27	71.1608	1,072.27	71.7577	1,072.27	71.3646	1,072.27	70.4878	1,072.27	70.3331
1,108.89	85.0148	1,108.89	85.3077	1,108.89	84.7572	1,108.89	85.1117	1,108.89	84.4896	1,108.89	84.264	1,108.89	83.772	1,108.89	83.0174	1,108.89	82.6202	1,108.89	81.2325	1,108.89	81.2934	1,108.89	79.147	1,108.89	79.7022	1,108.89	77.5011	1,108.89	77.2542	1,108.89	75.975	1,108.89	74.0366	1,108.89	72.3441	1,108.89	70.4692	1,108.89	68.7088	1,108.89	60.9262	1,108.89	68.4812	1,108.89	67.2717	1,108.89	69.8576	1,108.89	72.9225	1,108.89	74.9927	1,108.89	74.4098	1,108.89	75.9714	1,108.89	74.2793	1,108.89	71.246	1,108.89	72.8851	1,108.89	71.415	1,108.89	71.971	1,108.89	73.4857	1,108.89	71.0885	1,108.89	71.7888
1,148.44	85.1558	1,148.44	85.2085	1,148.44	84.7345	1,148.44	84.8034	1,148.44	84.1725	1,148.44	84.1958	1,148.44	83.3932	1,148.44	83.2484	1,148.44	82.3886	1,148.44	81.1453	1,148.44	81.4828	1,148.44	78.6124	1,148.44	80.4506	1,148.44	77.7301	1,148.44	78.6393	1,148.44	77.0192	1,148.44	75.872	1,148.44	74.5832	1,148.44	71.0736	1,148.44	70.842	1,148.44	62.2523	1,148.44	63.4229	1,148.44	66.4633	1,148.44	69.1994	1,148.44	73.1315	1,148.44	74.1483	1,148.44	75.938	1,148.44	72.872	1,148.44	75.4784	1,148.44	60.2746	1,148.44	71.6368	1,148.44	70.898	1,148.44	69.0457	1,148.44	72.3885	1,148.44	68.7245	1,148.44	69.1822
1,189.45	85.7192	1,189.45	85.6496	1,189.45	84.7968	1,189.45	84.6477	1,189.45	83.824	1,189.45	83.7608	1,189.45	83.2827	1,189.45	82.6582	1,189.45	82.4918	1,189.45	80.7494	1,189.45	80.9104	1,189.45	79.9836	1,189.45	79.5645	1,189.45	79.2102	1,189.45	79.4002	1,189.45	75.8994	1,189.45	78.0523	1,189.45	74.3517	1,189.45	72.9781	1,189.45	75.2069	1,189.45	63.9734	1,189.45	70.5687	1,189.45	57.7741	1,189.45	61.1667	1,189.45	67.5415	1,189.45	73.5519	1,189.45	72.2859	1,189.45	76.1295	1,189.45	74.8752	1,189.45	73.3046	1,189.45	74.2106	1,189.45	69.9369	1,189.45	69.6931	1,189.45	72.9131	1,189.45	67.1551	1,189.45	70.7248
1,230.47	86.0981	1,230.47	85.9468	1,230.47	85.1741	1,230.47	84.8074	1,230.47	83.9139	1,230.47	83.5837	1,230.47	83.0327	1,230.47	82.1781	1,230.47	82.1411	1,230.47	80.3021	1,230.47	80.6932	1,230.47	79.0536	1,230.47	79.7079	1,230.47	76.7735	1,230.47	79.1259	1,230.47	74.0766	1,230.47	77.1082	1,230.47	74.807	1,230.47	74.2582	1,230.47	75.7145	1,230.47	69.6743	1,230.47	73.5561	1,230.47	52.2534	1,230.47	68.2929	1,230.47	70.9874	1,230.47	70.7384	1,230.47	74.9281	1,230.47	74.1876	1,230.47	74.6887	1,230.47	70.3162	1,230.47	71.1096	1,230.47	67.4786	1,230.47	72.7311	1,230.47	71.586	1,230.47	71.395	1,230.47	70.3935
1,274.41	86.3807	1,274.41	85.9512	1,274.41	85.8015	1,274.41	84.732	1,274.41	84.5745	1,274.41	83.321	1,274.41	83.4009	1,274.41	81.6426	1,274.41	82.7502	1,274.41	79.7039	1,274.41	81.3147	1,274.41	78.3683	1,274.41	78.5399	1,274.41	78.0793	1,274.41	77.7171	1,274.41	77.3497	1,274.41	78.3316	1,274.41	74.3083	1,274.41	75.6225	1,274.41	72.7345	1,274.41	69.0758	1,274.41	71.4157	1,274.41	65.7077	1,274.41	66.7786	1,274.41	67.9756	1,274.41	72.1699	1,274.41	69.3508	1,274.41	73.2702	1,274.41	72.04	1,274.41	71.5009	1,274.41	74.1773	1,274.41	66.9224	1,274.41	71.6986	1,274.41	69.0192	1,274.41	66.9129	1,274.41	71.1855
1,319.82	86.466	1,319.82	85.7935	1,319.82	86.0538	1,319.82	84.6861	1,319.82	84.894	1,319.82	83.1877	1,319.82	83.7063	1,319.82	81.0251	1,319.82	82.3867	1,319.82	80.3822	1,319.82	80.6242	1,319.82	79.7194	1,319.82	79.1934	1,319.82	77.0073	1,319.82	77.8995	1,319.82	74.391	1,319.82	75.6804	1,319.82	74.4028	1,319.82	74.9527	1,319.82	75.1701	1,319.82	71.7769	1,319.82	73.7663	1,319.82	57.9385	1,319.82	68.7255	1,319.82	70.5403	1,319.82	69.09	1,319.82	72.8176	1,319.82	75.6034	1,319.82	75.6508	1,319.82	73.0766	1,319.82	74.2607	1,319.82	65.2982	1,319.82	73.22	1,319.82	73.4324	1,319.82	72.5344	1,319.82	72.7577
1,366.7	86.6938	1,366.7	85.8836	1,366.7	86.5769	1,366.7	84.7471	1,366.7	85.623	1,366.7	83.7265	1,366.7	83.8438	1,366.7	82.5289	1,366.7	82.2945	1,366.7	81.9176	1,366.7	80.5649	1,366.7	81.1787	1,366.7	77.9002	1,366.7	78.6214	1,366.7	77.3025	1,366.7	72.5711	1,366.7	78.288	1,366.7	70.342	1,366.7	76.7542	1,366.7	72.722	1,366.7	71.2671	1,366.7	72.4344	1,366.7	56.6657	1,366.7	71.9209	1,366.7	66.0685	1,366.7	67.4183	1,366.7	71.7391	1,366.7	74.5548	1,366.7	74.3317	1,366.7	73.3744	1,366.7	73.1479	1,366.7	70.2912	1,366.7	68.2811	1,366.7	69.1901	1,366.7	66.5026	1,366.7	66.7609
1,413.57	86.1057	1,413.57	85.0983	1,413.57	86.412	1,413.57	85.1455	1,413.57	85.4625	1,413.57	85.0914	1,413.57	84.07	1,413.57	83.9982	1,413.57	82.9172	1,413.57	83.4679	1,413.57	81.4278	1,413.57	81.6935	1,413.57	79.5984	1,413.57	78.4294	1,413.57	77.4242	1,413.57	78.1346	1,413.57	74.9013	1,413.57	75.8124	1,413.57	74.4119	1,413.57	71.9604	1,413.57	73.3441	1,413.57	71.0089	1,413.57	68.0753	1,413.57	68.1884	1,413.57	57.1363	1,413.57	70.1061	1,413.57	65.4791	1,413.57	72.4329	1,413.57	69.0711	1,413.57	71.3574	1,413.57	75.2786	1,413.57	62.8387	1,413.57	69.9519	1,413.57	70.3119	1,413.57	62.2489	1,413.57	69.2089
1,463.38	85.1158	1,463.38	84.7809	1,463.38	85.9838	1,463.38	85.4046	1,463.38	85.9263	1,463.38	84.9412	1,463.38	84.7641	1,463.38	83.8198	1,463.38	83.0499	1,463.38	82.9076	1,463.38	82.1342	1,463.38	80.9556	1,463.38	80.2335	1,463.38	77.8421	1,463.38	76.1288	1,463.38	75.9569	1,463.38	75.564	1,463.38	76.5382	1,463.38	75.9755	1,463.38	70.6483	1,463.38	72.3509	1,463.38	72.2082	1,463.38	68.8874	1,463.38	73.455	1,463.38	54.114	1,463.38	60.7716	1,463.38	66.2756	1,463.38	74.4076	1,463.38	70.9492	1,463.38	73.652	1,463.38	71.9883	1,463.38	67.4172	1,463.38	71.4482	1,463.38	66.8904	1,463.38	70.936	1,463.38	69.2166
1,516.11	84.6988	1,516.11	84.7306	1,516.11	85.2885	1,516.11	85.1391	1,516.11	85.295	1,516.11	84.9548	1,516.11	84.7327	1,516.11	85.153	1,516.11	83.6137	1,516.11	82.1853	1,516.11	81.9207	1,516.11	76.7124	1,516.11	80.3474	1,516.11	77.3319	1,516.11	78.4371	1,516.11	76.9277	1,516.11	74.4224	1,516.11	73.9063	1,516.11	72.5204	1,516.11	74.4475	1,516.11	74.147	1,516.11	76.4268	1,516.11	69.6506	1,516.11	71.8712	1,516.11	69.7245	1,516.11	63.7808	1,516.11	75.5019	1,516.11	69.8974	1,516.11	74.7564	1,516.11	75.982	1,516.11	73.7016	1,516.11	71.3856	1,516.11	73.0515	1,516.11	71.4803	1,516.11	64.1219	1,516.11	67.2958
1,568.85	84.5398	1,568.85	84.4655	1,568.85	84.428	1,568.85	84.2014	1,568.85	84.6628	1,568.85	83.7422	1,568.85	84.4246	1,568.85	83.1708	1,568.85	82.8157	1,568.85	81.5535	1,568.85	81.2113	1,568.85	79.8855	1,568.85	79.132	1,568.85	78.0067	1,568.85	77.6989	1,568.85	76.3271	1,568.85	75.3778	1,568.85	73.2165	1,568.85	74.0562	1,568.85	60.7531	1,568.85	73.747	1,568.85	72.8318	1,568.85	61.6846	1,568.85	76.3529	1,568.85	71.1535	1,568.85	72.7253	1,568.85	70.9761	1,568.85	65.785	1,568.85	68.0102	1,568.85	74.0869	1,568.85	70.5478	1,568.85	70.3165	1,568.85	71.054	1,568.85	64.0776	1,568.85	69.5112	1,568.85	67.0494
1,624.51	84.414	1,624.51	84.5219	1,624.51	84.2429	1,624.51	83.8287	1,624.51	84.1203	1,624.51	83.6599	1,624.51	84.0956	1,624.51	83.5258	1,624.51	82.8815	1,624.51	80.8631	1,624.51	81.4025	1,624.51	80.5637	1,624.51	79.396	1,624.51	77.9182	1,624.51	76.7468	1,624.51	74.6411	1,624.51	75.8485	1,624.51	75.4994	1,624.51	71.9551	1,624.51	69.7187	1,624.51	68.6293	1,624.51	54.7959	1,624.51	63.6828	1,624.51	72.4548	1,624.51	59.1183	1,624.51	72.8696	1,624.51	65.7353	1,624.51	62.8246	1,624.51	71.5097	1,624.51	74.259	1,624.51	72.6717	1,624.51	69.2252	1,624.51	64.6602	1,624.51	62.5549	1,624.51	62.8382	1,624.51	58.6507
1,681.64	85.6245	1,681.64	85.3122	1,681.64	85.3849	1,681.64	84.2427	1,681.64	84.5327	1,681.64	84.6436	1,681.64	84.3072	1,681.64	83.8984	1,681.64	83.9068	1,681.64	81.8198	1,681.64	81.4608	1,681.64	81.4782	1,681.64	80.1906	1,681.64	76.2526	1,681.64	78.4006	1,681.64	70.0696	1,681.64	73.9401	1,681.64	65.7025	1,681.64	69.251	1,681.64	68.7281	1,681.64	73.9286	1,681.64	70.3514	1,681.64	69.6704	1,681.64	74.039	1,681.64	68.3558	1,681.64	69.4135	1,681.64	71.9441	1,681.64	67.7615	1,681.64	70.3124	1,681.64	75.679	1,681.64	70.7441	1,681.64	70.1047	1,681.64	72.1934	1,681.64	63.4709	1,681.64	65.6612	1,681.64	66.5596
1,741.7	85.5885	1,741.7	85.9465	1,741.7	85.474	1,741.7	85.6033	1,741.7	84.7842	1,741.7	84.2222	1,741.7	84.3074	1,741.7	81.4028	1,741.7	83.9009	1,741.7	81.1745	1,741.7	82.0289	1,741.7	80.643	1,741.7	80.0493	1,741.7	74.7284	1,741.7	77.023	1,741.7	73.0991	1,741.7	73.2812	1,741.7	74.1067	1,741.7	74.3107	1,741.7	72.847	1,741.7	71.4475	1,741.7	67.5112	1,741.7	69.043	1,741.7	65.4113	1,741.7	66.1848	1,741.7	75.9008	1,741.7	73.1566	1,741.7	61.1252	1,741.7	72.936	1,741.7	73.4815	1,741.7	72.1242	1,741.7	70.9331	1,741.7	60.8835	1,741.7	67.2088	1,741.7	55.2118	1,741.7	66.6921
1,803.22	85.5858	1,803.22	86.0633	1,803.22	85.9005	1,803.22	86.3422	1,803.22	86.1863	1,803.22	84.5466	1,803.22	85.6702	1,803.22	82.4163	1,803.22	83.4912	1,803.22	81.807	1,803.22	81.751	1,803.22	79.5772	1,803.22	79.7325	1,803.22	74.9344	1,803.22	79.1279	1,803.22	72.4771	1,803.22	75.8372	1,803.22	72.3867	1,803.22	70.3359	1,803.22	69.5658	1,803.22	71.3831	1,803.22	61.9051	1,803.22	59.6772	1,803.22	68.9533	1,803.22	63.6623	1,803.22	72.0347	1,803.22	71.4275	1,803.22	66.1105	1,803.22	72.4598	1,803.22	71.4964	1,803.22	73.6823	1,803.22	72.7329	1,803.22	66.1121	1,803.22	63.5892	1,803.22	62.6569	1,803.22	59.1412
1,866.21	84.7379	1,866.21	85.9816	1,866.21	85.4104	1,866.21	86.5029	1,866.21	86.1357	1,866.21	84.9954	1,866.21	85.802	1,866.21	83.2437	1,866.21	84.1223	1,866.21	80.883	1,866.21	81.6787	1,866.21	79.4016	1,866.21	79.8619	1,866.21	77.7542	1,866.21	77.1315	1,866.21	74.866	1,866.21	75.8824	1,866.21	73.2262	1,866.21	74.0368	1,866.21	71.7139	1,866.21	71.5074	1,866.21	69.3101	1,866.21	64.0723	1,866.21	68.236	1,866.21	58.6471	1,866.21	71.9612	1,866.21	67.8259	1,866.21	71.1582	1,866.21	70.7175	1,866.21	66.1731	1,866.21	72.0987	1,866.21	74.2859	1,866.21	66.5881	1,866.21	56.4184	1,866.21	66.1534	1,866.21	66.5374
1,932.13	84.6879	1,932.13	85.7158	1,932.13	84.4406	1,932.13	85.3705	1,932.13	85.467	1,932.13	85.7036	1,932.13	85.5378	1,932.13	83.6257	1,932.13	84.337	1,932.13	81.3146	1,932.13	81.0266	1,932.13	80.7968	1,932.13	78.3351	1,932.13	78.3412	1,932.13	78.0073	1,932.13	75.8418	1,932.13	74.2429	1,932.13	70.126	1,932.13	72.6314	1,932.13	63.9219	1,932.13	63.725	1,932.13	72.1835	1,932.13	61.3455	1,932.13	59.8547	1,932.13	65.9952	1,932.13	72.2189	1,932.13	67.9437	1,932.13	71.1217	1,932.13	73.4677	1,932.13	71.0757	1,932.13	69.0415	1,932.13	73.6008	1,932.13	69.9029	1,932.13	64.835	1,932.13	63.0083	1,932.13	64.4098
1,999.51	85.6161	1,999.51	84.879	1,999.51	84.9412	1,999.51	84.9195	1,999.51	84.7595	1,999.51	85.8058	1,999.51	85.0653	1,999.51	83.8442	1,999.51	84.3143	1,999.51	81.6329	1,999.51	81.9834	1,999.51	79.5093	1,999.51	80.0515	1,999.51	78.8159	1,999.51	78.2776	1,999.51	77.1152	1,999.51	75.9101	1,999.51	74.1263	1,999.51	72.9244	1,999.51	71.6745	1,999.51	70.0669	1,999.51	68.4531	1,999.51	62.3808	1,999.51	65.5433	1,999.51	60.4099	1,999.51	70.6971	1,999.51	68.2151	1,999.51	72.508	1,999.51	70.7332	1,999.51	66.7156	1,999.51	70.5973	1,999.51	73.2924	1,999.51	67.051	1,999.51	65.7251	1,999.51	57.4002	1,999.51	56.4499
2,069.82	85.8126	2,069.82	85.2473	2,069.82	85.2157	2,069.82	84.8636	2,069.82	85.2709	2,069.82	83.8997	2,069.82	84.3762	2,069.82	83.4504	2,069.82	83.6546	2,069.82	81.6469	2,069.82	82.3252	2,069.82	78.9096	2,069.82	80.3195	2,069.82	77.3048	2,069.82	77.4998	2,069.82	71.7035	2,069.82	77.2564	2,069.82	71.8138	2,069.82	73.1487	2,069.82	67.9046	2,069.82	70.9547	2,069.82	69.3128	2,069.82	69.0829	2,069.82	67.8644	2,069.82	61.8559	2,069.82	68.5291	2,069.82	66.3608	2,069.82	72.6966	2,069.82	69.1042	2,069.82	65.875	2,069.82	70.0103	2,069.82	71.7109	2,069.82	64.8477	2,069.82	65.3565	2,069.82	59.876	2,069.82	54.8052
2,143.07	85.6853	2,143.07	85.7996	2,143.07	85.4873	2,143.07	84.7654	2,143.07	85.5463	2,143.07	82.4023	2,143.07	84.2754	2,143.07	83.0983	2,143.07	82.5082	2,143.07	81.3982	2,143.07	81.0669	2,143.07	78.1077	2,143.07	79.7832	2,143.07	75.1706	2,143.07	78.204	2,143.07	74.8085	2,143.07	75.106	2,143.07	72.736	2,143.07	73.4358	2,143.07	72.0415	2,143.07	64.8627	2,143.07	67.6818	2,143.07	69.9239	2,143.07	70.5732	2,143.07	61.6207	2,143.07	62.2996	2,143.07	64.2271	2,143.07	73.4397	2,143.07	70.596	2,143.07	60.8354	2,143.07	68.4707	2,143.07	71.8867	2,143.07	66.9806	2,143.07	64.2949	2,143.07	56.6106	2,143.07	53.3929
2,219.24	84.4224	2,219.24	85.0723	2,219.24	84.5977	2,219.24	85.3652	2,219.24	85.6295	2,219.24	83.4804	2,219.24	85.2658	2,219.24	81.9534	2,219.24	81.8327	2,219.24	80.3684	2,219.24	79.9438	2,219.24	78.207	2,219.24	78.0306	2,219.24	74.016	2,219.24	76.5838	2,219.24	71.5199	2,219.24	75.0354	2,219.24	70.6763	2,219.24	72.2081	2,219.24	69.4945	2,219.24	62.4939	2,219.24	69.0044	2,219.24	68.7393	2,219.24	69.4713	2,219.24	62.2569	2,219.24	63.4336	2,219.24	63.2471	2,219.24	73.7984	2,219.24	69.9749	2,219.24	62.0541	2,219.24	66.8277	2,219.24	72.3032	2,219.24	63.3861	2,219.24	58.3933	2,219.24	60.1201	2,219.24	55.8764
2,296.88	83.5778	2,296.88	84.3672	2,296.88	83.8498	2,296.88	85.3648	2,296.88	85.011	2,296.88	85.2131	2,296.88	85.9866	2,296.88	81.4588	2,296.88	83.064	2,296.88	80.5593	2,296.88	79.232	2,296.88	78.0001	2,296.88	77.637	2,296.88	76.1353	2,296.88	76.8579	2,296.88	74.7125	2,296.88	73.7872	2,296.88	68.0157	2,296.88	69.0039	2,296.88	70.2867	2,296.88	58.1813	2,296.88	66.9382	2,296.88	70.0042	2,296.88	70.227	2,296.88	63.8827	2,296.88	67.4197	2,296.88	60.9094	2,296.88	72.8496	2,296.88	69.6994	2,296.88	65.6254	2,296.88	66.9349	2,296.88	71.8763	2,296.88	65.332	2,296.88	61.8654	2,296.88	62.4107	2,296.88	52.5698
2,378.91	83.8858	2,378.91	84.0049	2,378.91	83.9663	2,378.91	84.9524	2,378.91	84.1744	2,378.91	85.1457	2,378.91	85.7847	2,378.91	82.465	2,378.91	84.0775	2,378.91	79.2383	2,378.91	80.253	2,378.91	77.6518	2,378.91	77.1684	2,378.91	74.5328	2,378.91	75.1692	2,378.91	70.0903	2,378.91	74.8922	2,378.91	71.5161	2,378.91	68.2803	2,378.91	64.642	2,378.91	66.356	2,378.91	68.1964	2,378.91	63.5225	2,378.91	68.7953	2,378.91	61.7561	2,378.91	69.2481	2,378.91	63.8228	2,378.91	69.8352	2,378.91	69.1639	2,378.91	69.0264	2,378.91	63.4623	2,378.91	69.3333	2,378.91	64.3247	2,378.91	63.9209	2,378.91	58.8674	2,378.91	52.2386
2,462.4	85.646	2,462.4	85.441	2,462.4	85.358	2,462.4	84.7505	2,462.4	83.0979	2,462.4	84.1252	2,462.4	82.8089	2,462.4	83.0562	2,462.4	83.6285	2,462.4	79.15	2,462.4	82.0005	2,462.4	77.9982	2,462.4	78.7583	2,462.4	76.8385	2,462.4	74.7194	2,462.4	73.1362	2,462.4	75.4807	2,462.4	65.3741	2,462.4	71.9487	2,462.4	66.1515	2,462.4	64.7719	2,462.4	65.4567	2,462.4	63.649	2,462.4	68.2439	2,462.4	57.2602	2,462.4	66.4801	2,462.4	62.6187	2,462.4	68.8205	2,462.4	66.0747	2,462.4	68.7038	2,462.4	63.7651	2,462.4	68.5838	2,462.4	59.7984	2,462.4	65.4135	2,462.4	61.8847	2,462.4	48.1544
2,548.83	86.5646	2,548.83	85.8241	2,548.83	85.9852	2,548.83	84.3712	2,548.83	83.8982	2,548.83	83.019	2,548.83	81.2218	2,548.83	83.251	2,548.83	82.3627	2,548.83	81.589	2,548.83	82.0048	2,548.83	77.6006	2,548.83	78.8691	2,548.83	75.6901	2,548.83	75.8552	2,548.83	73.532	2,548.83	72.7237	2,548.83	70.4937	2,548.83	68.878	2,548.83	65.2348	2,548.83	66.5581	2,548.83	62.6857	2,548.83	68.647	2,548.83	64.0667	2,548.83	53.3474	2,548.83	65.6791	2,548.83	56.9033	2,548.83	67.1002	2,548.83	62.3735	2,548.83	68.989	2,548.83	62.9716	2,548.83	65.0313	2,548.83	57.9911	2,548.83	66.223	2,548.83	60.6629	2,548.83	55.1077
2,639.65	85.4922	2,639.65	84.8104	2,639.65	85.3642	2,639.65	84.4667	2,639.65	84.9025	2,639.65	83.4782	2,639.65	83.0082	2,639.65	82.2764	2,639.65	81.4715	2,639.65	81.1946	2,639.65	81.1434	2,639.65	78.3791	2,639.65	78.897	2,639.65	74.9854	2,639.65	76.2841	2,639.65	72.362	2,639.65	68.1941	2,639.65	69.9931	2,639.65	63.638	2,639.65	65.6716	2,639.65	66.2854	2,639.65	62.0486	2,639.65	70.6617	2,639.65	56.8426	2,639.65	61.4026	2,639.65	68.3921	2,639.65	60.7664	2,639.65	63.7014	2,639.65	64.1897	2,639.65	69.7671	2,639.65	64.3304	2,639.65	64.6846	2,639.65	57.833	2,639.65	66.2879	2,639.65	60.0451	2,639.65	61.1831
2,731.93	84.4725	2,731.93	83.3976	2,731.93	84.571	2,731.93	83.2356	2,731.93	83.612	2,731.93	82.9645	2,731.93	83.2834	2,731.93	81.4543	2,731.93	81.819	2,731.93	81.0918	2,731.93	80.1795	2,731.93	78.6078	2,731.93	78.5891	2,731.93	74.405	2,731.93	76.9512	2,731.93	72.1286	2,731.93	71.6199	2,731.93	69.3792	2,731.93	64.5574	2,731.93	67.3033	2,731.93	65.8874	2,731.93	64.9128	2,731.93	67.3312	2,731.93	56.333	2,731.93	56.0579	2,731.93	69.14	2,731.93	59.8151	2,731.93	55.5447	2,731.93	61.9415	2,731.93	70.3827	2,731.93	63.2407	2,731.93	60.6061	2,731.93	37.7814	2,731.93	64.4199	2,731.93	53.8665	2,731.93	58.0451
2,828.61	84.4107	2,828.61	83.9685	2,828.61	83.8171	2,828.61	82.3563	2,828.61	82.5951	2,828.61	82.2799	2,828.61	82.6703	2,828.61	81.6251	2,828.61	82.2431	2,828.61	80.3525	2,828.61	80.1542	2,828.61	78.0437	2,828.61	78.1009	2,828.61	74.7885	2,828.61	75.8475	2,828.61	71.0103	2,828.61	71.5111	2,828.61	68.2713	2,828.61	71.4659	2,828.61	67.2642	2,828.61	64.932	2,828.61	65.2855	2,828.61	65.9554	2,828.61	63.1591	2,828.61	53.7337	2,828.61	67.0364	2,828.61	59.0459	2,828.61	59.7507	2,828.61	60.3864	2,828.61	70.092	2,828.61	61.1657	2,828.61	60.5623	2,828.61	55.6986	2,828.61	64.7134	2,828.61	59.1807	2,828.61	58.719
2,928.22	85.0157	2,928.22	85.1341	2,928.22	84.2394	2,928.22	83.6285	2,928.22	82.8938	2,928.22	82.3463	2,928.22	82.027	2,928.22	81.7809	2,928.22	82.0615	2,928.22	79.9664	2,928.22	79.8272	2,928.22	78.1165	2,928.22	76.8197	2,928.22	75.0268	2,928.22	74.3334	2,928.22	70.6189	2,928.22	72.6075	2,928.22	62.4785	2,928.22	75.5226	2,928.22	63.6652	2,928.22	63.5953	2,928.22	62.1577	2,928.22	64.0088	2,928.22	64.9481	2,928.22	59.3906	2,928.22	63.6152	2,928.22	51.7158	2,928.22	64.8981	2,928.22	56.6376	2,928.22	69.8311	2,928.22	63.1806	2,928.22	59.8513	2,928.22	56.332	2,928.22	63.6706	2,928.22	45.2088	2,928.22	58.6529
3,030.76	85.281	3,030.76	85.0843	3,030.76	84.006	3,030.76	83.9909	3,030.76	83.0271	3,030.76	82.4864	3,030.76	82.047	3,030.76	81.8479	3,030.76	81.9048	3,030.76	79.9748	3,030.76	79.5624	3,030.76	77.1074	3,030.76	77.5029	3,030.76	73.64	3,030.76	74.1922	3,030.76	69.9788	3,030.76	73.2041	3,030.76	68.8523	3,030.76	74.2582	3,030.76	63.236	3,030.76	63.2851	3,030.76	62.9862	3,030.76	57.2767	3,030.76	65.9114	3,030.76	57.7195	3,030.76	60.3437	3,030.76	50.6547	3,030.76	66.583	3,030.76	59.5303	3,030.76	69.2847	3,030.76	60.6174	3,030.76	62.6435	3,030.76	53.5114	3,030.76	63.728	3,030.76	60.2461	3,030.76	62.4075
3,137.7	85.4948	3,137.7	84.5599	3,137.7	84.9061	3,137.7	83.535	3,137.7	83.4481	3,137.7	82.6892	3,137.7	82.9116	3,137.7	81.9984	3,137.7	81.9506	3,137.7	79.7414	3,137.7	80.429	3,137.7	75.4369	3,137.7	77.7093	3,137.7	72.7044	3,137.7	74.2325	3,137.7	73.0976	3,137.7	74.203	3,137.7	69.9425	3,137.7	73.0848	3,137.7	64.5386	3,137.7	64.5477	3,137.7	61.1151	3,137.7	59.9192	3,137.7	66.2133	3,137.7	62.0805	3,137.7	54.0167	3,137.7	52.0413	3,137.7	68.9476	3,137.7	63.8664	3,137.7	67.7347	3,137.7	59.706	3,137.7	64.8994	3,137.7	49.0201	3,137.7	63.2035	3,137.7	57.6226	3,137.7	62.8611
3,249.02	85.5011	3,249.02	84.3555	3,249.02	84.7855	3,249.02	82.8115	3,249.02	83.8176	3,249.02	84.0726	3,249.02	84.0915	3,249.02	82.6398	3,249.02	82.3841	3,249.02	79.4158	3,249.02	80.6303	3,249.02	77.0334	3,249.02	77.9013	3,249.02	75.0504	3,249.02	72.0845	3,249.02	70.8494	3,249.02	72.6102	3,249.02	66.142	3,249.02	70.2891	3,249.02	67.5837	3,249.02	63.4324	3,249.02	63.2627	3,249.02	65.0573	3,249.02	65.4437	3,249.02	63.893	3,249.02	63.5462	3,249.02	52.1857	3,249.02	69.453	3,249.02	63.8163	3,249.02	65.3222	3,249.02	64.1142	3,249.02	66.8164	3,249.02	52.9467	3,249.02	63.0652	3,249.02	55.4047	3,249.02	64.8342
3,363.28	85.8127	3,363.28	84.4843	3,363.28	84.5122	3,363.28	82.7547	3,363.28	83.7855	3,363.28	83.5381	3,363.28	84.1516	3,363.28	81.7896	3,363.28	82.724	3,363.28	79.3218	3,363.28	80.6301	3,363.28	77.0894	3,363.28	78.3471	3,363.28	73.5507	3,363.28	71.65	3,363.28	71.2477	3,363.28	71.2207	3,363.28	71.0758	3,363.28	58.8779	3,363.28	67.9238	3,363.28	41.339	3,363.28	63.3084	3,363.28	61.7092	3,363.28	62.2112	3,363.28	65.1302	3,363.28	64.9988	3,363.28	48.7563	3,363.28	67.3983	3,363.28	63.4301	3,363.28	62.8261	3,363.28	61.9989	3,363.28	66.449	3,363.28	55.3896	3,363.28	56.7105	3,363.28	48.7631	3,363.28	63.1273
3,481.93	85.4206	3,481.93	85.3241	3,481.93	85.0587	3,481.93	84.4686	3,481.93	85.025	3,481.93	83.1926	3,481.93	83.9241	3,481.93	81.8695	3,481.93	82.9456	3,481.93	81.09	3,481.93	81.7531	3,481.93	78.7192	3,481.93	77.7201	3,481.93	75.0959	3,481.93	73.3898	3,481.93	71.8156	3,481.93	68.0165	3,481.93	66.9885	3,481.93	62.0622	3,481.93	61.4526	3,481.93	63.5881	3,481.93	63.2652	3,481.93	60.5181	3,481.93	61.7665	3,481.93	62.529	3,481.93	64.1474	3,481.93	53.5253	3,481.93	66.3198	3,481.93	63.6346	3,481.93	63.8898	3,481.93	61.6908	3,481.93	66.6539	3,481.93	52.5425	3,481.93	52.9975	3,481.93	49.7539	3,481.93	61.673
3,604.98	86.088	3,604.98	85.4716	3,604.98	84.7071	3,604.98	85.4828	3,604.98	84.8921	3,604.98	83.6452	3,604.98	84.5534	3,604.98	81.7305	3,604.98	83.1069	3,604.98	80.7859	3,604.98	82.0982	3,604.98	78.0895	3,604.98	76.4151	3,604.98	74.8964	3,604.98	73.1519	3,604.98	66.8289	3,604.98	66.0899	3,604.98	64.365	3,604.98	69.3676	3,604.98	60.9408	3,604.98	66.9975	3,604.98	66.036	3,604.98	58.4961	3,604.98	58.9325	3,604.98	59.6549	3,604.98	64.065	3,604.98	49.6449	3,604.98	64.5701	3,604.98	62.2838	3,604.98	66.2184	3,604.98	58.5622	3,604.98	65.9574	3,604.98	51.3565	3,604.98	52.8367	3,604.98	55.4234	3,604.98	59.3087
3,732.42	86.6522	3,732.42	85.7488	3,732.42	86.1823	3,732.42	85.2965	3,732.42	84.3379	3,732.42	83.2758	3,732.42	83.6423	3,732.42	82.1192	3,732.42	82.8597	3,732.42	80.9235	3,732.42	81.199	3,732.42	78.0256	3,732.42	76.5292	3,732.42	74.4977	3,732.42	72.8519	3,732.42	72.669	3,732.42	71.1672	3,732.42	67.1495	3,732.42	73.1223	3,732.42	63.09	3,732.42	69.3452	3,732.42	62.7326	3,732.42	43.8163	3,732.42	60.5374	3,732.42	50.6944	3,732.42	61.9173	3,732.42	42.5546	3,732.42	63.7484	3,732.42	61.513	3,732.42	66.532	3,732.42	59.3237	3,732.42	64.2199	3,732.42	48.4394	3,732.42	46.8763	3,732.42	58.6208	3,732.42	61.9707
3,864.26	85.5711	3,864.26	86.2296	3,864.26	87.0983	3,864.26	85.3742	3,864.26	85.8364	3,864.26	83.0406	3,864.26	83.1311	3,864.26	83.0869	3,864.26	83.1431	3,864.26	81.147	3,864.26	81.5311	3,864.26	77.6615	3,864.26	76.8079	3,864.26	73.6508	3,864.26	74.7864	3,864.26	73.3789	3,864.26	66.2766	3,864.26	68.5969	3,864.26	71.5942	3,864.26	65.7984	3,864.26	67.93	3,864.26	60.5109	3,864.26	56.7142	3,864.26	63.1604	3,864.26	55.4015	3,864.26	60.5243	3,864.26	52.0854	3,864.26	64.1864	3,864.26	60.8441	3,864.26	67.682	3,864.26	56.5319	3,864.26	63.6035	3,864.26	57.538	3,864.26	53.5083	3,864.26	58.9577	3,864.26	60.7589
4,000.49	85.3176	4,000.49	85.9959	4,000.49	85.7801	4,000.49	85.1845	4,000.49	85.5114	4,000.49	82.9673	4,000.49	83.3058	4,000.49	82.663	4,000.49	82.3778	4,000.49	80.19	4,000.49	81.2071	4,000.49	78.6929	4,000.49	77.3437	4,000.49	73.7824	4,000.49	75.1577	4,000.49	67.1231	4,000.49	70.6563	4,000.49	67.9455	4,000.49	72.0974	4,000.49	65.0874	4,000.49	66.3652	4,000.49	56.4037	4,000.49	55.7213	4,000.49	62.546	4,000.49	57.4471	4,000.49	61.3426	4,000.49	53.73	4,000.49	61.4244	4,000.49	60.4923	4,000.49	66.1754	4,000.49	57.4203	4,000.49	62.1833	4,000.49	58.0336	4,000.49	52.2178	4,000.49	56.5146	4,000.49	60.8929
4,141.11	85.5176	4,141.11	86.3374	4,141.11	86.5258	4,141.11	85.28	4,141.11	85.3396	4,141.11	83.1635	4,141.11	83.0736	4,141.11	81.8143	4,141.11	82.2689	4,141.11	80.85	4,141.11	79.7961	4,141.11	77.4248	4,141.11	76.8432	4,141.11	75.3527	4,141.11	75.2158	4,141.11	70.8013	4,141.11	75.4069	4,141.11	62.1305	4,141.11	73.2352	4,141.11	62.845	4,141.11	68.3776	4,141.11	59.8904	4,141.11	58.9206	4,141.11	60.7654	4,141.11	59.0022	4,141.11	57.8957	4,141.11	50.8845	4,141.11	60.2698	4,141.11	55.3966	4,141.11	66.9706	4,141.11	56.2364	4,141.11	64.2438	4,141.11	53.0548	4,141.11	53.1609	4,141.11	54.7879	4,141.11	58.7967
4,287.6	85.3418	4,287.6	86.3585	4,287.6	86.3598	4,287.6	85.1521	4,287.6	85.469	4,287.6	83.6959	4,287.6	82.9102	4,287.6	82.1601	4,287.6	82.6604	4,287.6	80.6858	4,287.6	78.861	4,287.6	77.4452	4,287.6	77.6398	4,287.6	74.1231	4,287.6	76.7441	4,287.6	71.2376	4,287.6	74.8103	4,287.6	70.1396	4,287.6	70.7749	4,287.6	65.0461	4,287.6	66.708	4,287.6	62.3006	4,287.6	61.4155	4,287.6	56.7779	4,287.6	54.717	4,287.6	56.3985	4,287.6	43.0507	4,287.6	62.8506	4,287.6	52.9464	4,287.6	65.3588	4,287.6	57.1932	4,287.6	63.393	4,287.6	46.6437	4,287.6	55.0224	4,287.6	56.3163	4,287.6	55.5492
4,438.48	85.9668	4,438.48	86.132	4,438.48	86.2606	4,438.48	85.2518	4,438.48	85.5411	4,438.48	83.3202	4,438.48	83.1005	4,438.48	81.2418	4,438.48	82.0361	4,438.48	79.9813	4,438.48	78.2327	4,438.48	78.1247	4,438.48	79.1108	4,438.48	73.8457	4,438.48	76.5607	4,438.48	71.8262	4,438.48	72.726	4,438.48	69.2084	4,438.48	67.5452	4,438.48	56.479	4,438.48	51.6187	4,438.48	58.2304	4,438.48	56.1167	4,438.48	57.3257	4,438.48	43.1288	4,438.48	57.408	4,438.48	54.9356	4,438.48	63.0966	4,438.48	59.7197	4,438.48	61.3882	4,438.48	51.7955	4,438.48	61.6381	4,438.48	52.111	4,438.48	54.4495	4,438.48	61.3265	4,438.48	58.7507
4,595.21	85.5348	4,595.21	85.0705	4,595.21	85.456	4,595.21	84.5583	4,595.21	85.7552	4,595.21	82.9226	4,595.21	84.492	4,595.21	80.7631	4,595.21	80.4364	4,595.21	79.5164	4,595.21	79.4677	4,595.21	77.0659	4,595.21	80.2128	4,595.21	75.0164	4,595.21	76.6627	4,595.21	67.4481	4,595.21	70.4469	4,595.21	63.0028	4,595.21	67.7209	4,595.21	63.1128	4,595.21	63.1279	4,595.21	59.9607	4,595.21	54.3903	4,595.21	55.8976	4,595.21	35.8687	4,595.21	51.7155	4,595.21	54.2344	4,595.21	57.3527	4,595.21	59.5442	4,595.21	58.994	4,595.21	48.8089	4,595.21	60.8919	4,595.21	53.8498	4,595.21	47.8596	4,595.21	56.4179	4,595.21	55.8845
4,756.35	86.0855	4,756.35	85.3543	4,756.35	84.8655	4,756.35	85.0567	4,756.35	85.6263	4,756.35	83.9298	4,756.35	85.1586	4,756.35	80.9158	4,756.35	80.149	4,756.35	79.5251	4,756.35	79.2154	4,756.35	77.3919	4,756.35	79.5527	4,756.35	73.148	4,756.35	73.7955	4,756.35	71.8339	4,756.35	69.7217	4,756.35	67.0239	4,756.35	66.3102	4,756.35	63.1043	4,756.35	63.8441	4,756.35	60.1392	4,756.35	55.4614	4,756.35	57.2635	4,756.35	54.1095	4,756.35	53.5591	4,756.35	44.4422	4,756.35	59.6298	4,756.35	57.1299	4,756.35	59.7102	4,756.35	53.1456	4,756.35	60.1641	4,756.35	51.6113	4,756.35	51.1957	4,756.35	57.5193	4,756.35	56.329
4,924.8	86.1761	4,924.8	85.624	4,924.8	86.1228	4,924.8	84.368	4,924.8	84.5039	4,924.8	82.811	4,924.8	83.9775	4,924.8	79.9706	4,924.8	81.2029	4,924.8	78.8102	4,924.8	79.8698	4,924.8	75.8524	4,924.8	78.6879	4,924.8	73.36	4,924.8	71.3097	4,924.8	67.3112	4,924.8	66.7125	4,924.8	64.4611	4,924.8	63.34	4,924.8	57.7049	4,924.8	69.5325	4,924.8	58.1947	4,924.8	61.4616	4,924.8	55.9431	4,924.8	57.633	4,924.8	54.2617	4,924.8	52.7786	4,924.8	58.8079	4,924.8	54.0773	4,924.8	61.927	4,924.8	51.3875	4,924.8	61.5654	4,924.8	47.3284	4,924.8	49.27	4,924.8	51.9259	4,924.8	56.0425
5,097.66	85.4584	5,097.66	84.5988	5,097.66	85.3252	5,097.66	84.5039	5,097.66	84.8606	5,097.66	83.0493	5,097.66	83.405	5,097.66	80.6136	5,097.66	81.912	5,097.66	78.8937	5,097.66	80.5786	5,097.66	75.3147	5,097.66	77.3852	5,097.66	71.4563	5,097.66	69.4572	5,097.66	70.4487	5,097.66	63.6646	5,097.66	66.7225	5,097.66	65.5551	5,097.66	60.2133	5,097.66	67.4693	5,097.66	60.0278	5,097.66	63.6932	5,097.66	58.0726	5,097.66	52.7267	5,097.66	58.4993	5,097.66	48.4205	5,097.66	61.0995	5,097.66	34.9758	5,097.66	60.2156	5,097.66	42.9645	5,097.66	57.5664	5,097.66	32.3488	5,097.66	52.6517	5,097.66	47.2888	5,097.66	56.8717
5,277.83	85.6075	5,277.83	84.7064	5,277.83	84.5441	5,277.83	84.2362	5,277.83	85.097	5,277.83	82.6045	5,277.83	83.5969	5,277.83	80.0329	5,277.83	80.8829	5,277.83	78.3423	5,277.83	80.4512	5,277.83	75.636	5,277.83	75.9016	5,277.83	72.6325	5,277.83	70.3744	5,277.83	67.9304	5,277.83	66.8782	5,277.83	64.5546	5,277.83	55.5513	5,277.83	62.9167	5,277.83	65.8819	5,277.83	58.3003	5,277.83	61.042	5,277.83	57.7583	5,277.83	50.4372	5,277.83	56.508	5,277.83	47.8783	5,277.83	58.5161	5,277.83	52.2243	5,277.83	60.7398	5,277.83	47.2523	5,277.83	54.5774	5,277.83	48.9719	5,277.83	55.9045	5,277.83	55.6526	5,277.83	54.6709
5,463.87	85.7535	5,463.87	84.8832	5,463.87	85.4008	5,463.87	84.5443	5,463.87	85.1219	5,463.87	82.563	5,463.87	83.907	5,463.87	80.4655	5,463.87	81.5912	5,463.87	77.8828	5,463.87	80.1896	5,463.87	76.2339	5,463.87	74.2396	5,463.87	71.6434	5,463.87	72.2419	5,463.87	69.4826	5,463.87	68.5633	5,463.87	59.3194	5,463.87	63.3	5,463.87	61.0878	5,463.87	63.9626	5,463.87	55.8648	5,463.87	61.0699	5,463.87	54.373	5,463.87	51.9976	5,463.87	50.1288	5,463.87	51.0208	5,463.87	51.3838	5,463.87	46.3488	5,463.87	61.6282	5,463.87	41.2376	5,463.87	56.856	5,463.87	45.346	5,463.87	53.4022	5,463.87	55.7057	5,463.87	55.4499
5,657.23	85.9037	5,657.23	84.7898	5,657.23	85.6069	5,657.23	84.25	5,657.23	84.9922	5,657.23	83.0134	5,657.23	83.1016	5,657.23	80.3729	5,657.23	82.1985	5,657.23	78.1512	5,657.23	78.5871	5,657.23	76.1684	5,657.23	74.7734	5,657.23	71.0996	5,657.23	73.1923	5,657.23	68.1972	5,657.23	70.5504	5,657.23	64.6297	5,657.23	64.3326	5,657.23	58.775	5,657.23	59.2488	5,657.23	56.3493	5,657.23	56.632	5,657.23	50.964	5,657.23	45.1771	5,657.23	53.8423	5,657.23	44.299	5,657.23	38.0211	5,657.23	35.2814	5,657.23	59.4786	5,657.23	43.3481	5,657.23	58.1261	5,657.23	45.7758	5,657.23	51.0348	5,657.23	49.8442	5,657.23	55.7753
5,856.45	85.066	5,856.45	85.324	5,856.45	84.9593	5,856.45	84.6516	5,856.45	85.1428	5,856.45	82.6768	5,856.45	83.0326	5,856.45	80.8262	5,856.45	81.986	5,856.45	78.2508	5,856.45	78.0797	5,856.45	76.3408	5,856.45	75.0552	5,856.45	71.5201	5,856.45	73.4077	5,856.45	68.8377	5,856.45	70.5236	5,856.45	63.126	5,856.45	67.7207	5,856.45	61.4332	5,856.45	54.623	5,856.45	59.0158	5,856.45	46.5265	5,856.45	52.0183	5,856.45	50.0611	5,856.45	54.2962	5,856.45	43.1234	5,856.45	45.3163	5,856.45	36.0908	5,856.45	58.6031	5,856.45	45.8747	5,856.45	54.796	5,856.45	46.701	5,856.45	50.6042	5,856.45	40.7494	5,856.45	54.8346
6,062.99	86.4676	6,062.99	85.3174	6,062.99	85.977	6,062.99	84.7946	6,062.99	84.9441	6,062.99	83.0821	6,062.99	84.0115	6,062.99	80.0315	6,062.99	80.909	6,062.99	79.0232	6,062.99	77.2029	6,062.99	75.87	6,062.99	76.9494	6,062.99	72.4771	6,062.99	71.5804	6,062.99	68.757	6,062.99	70.9022	6,062.99	62.7156	6,062.99	70.395	6,062.99	60.1197	6,062.99	66.3834	6,062.99	58.073	6,062.99	46.5083	6,062.99	50.7575	6,062.99	49.1297	6,062.99	50.5224	6,062.99	53.1209	6,062.99	46.592	6,062.99	55.33	6,062.99	58.1144	6,062.99	53.8033	6,062.99	38.1565	6,062.99	43.7333	6,062.99	52.2281	6,062.99	50.9751	6,062.99	51.6075
6,276.86	85.8123	6,276.86	85.1053	6,276.86	85.6837	6,276.86	84.2012	6,276.86	85.5303	6,276.86	83.2367	6,276.86	83.6762	6,276.86	80.84	6,276.86	79.7158	6,276.86	78.2461	6,276.86	77.869	6,276.86	76.2378	6,276.86	76.6711	6,276.86	72.5476	6,276.86	73.5333	6,276.86	67.0915	6,276.86	70.7517	6,276.86	65.899	6,276.86	67.5206	6,276.86	58.6668	6,276.86	65.0423	6,276.86	53.6739	6,276.86	51.3797	6,276.86	47.0725	6,276.86	47.9924	6,276.86	45.2618	6,276.86	39.7335	6,276.86	48.732	6,276.86	51.4946	6,276.86	62.3135	6,276.86	52.3462	6,276.86	54.4493	6,276.86	46.3147	6,276.86	54.2889	6,276.86	50.7346	6,276.86	38.4106
6,498.05	85.5986	6,498.05	85.0138	6,498.05	84.8831	6,498.05	84.0488	6,498.05	84.8445	6,498.05	82.465	6,498.05	82.1241	6,498.05	80.2222	6,498.05	79.9551	6,498.05	78.0763	6,498.05	78.4286	6,498.05	75.3042	6,498.05	76.6561	6,498.05	71.914	6,498.05	74.4318	6,498.05	66.7646	6,498.05	69.2044	6,498.05	64.3819	6,498.05	65.5428	6,498.05	60.3246	6,498.05	67.2669	6,498.05	56.002	6,498.05	57.2316	6,498.05	52.2939	6,498.05	28.8223	6,498.05	45.3712	6,498.05	44.3521	6,498.05	49.9954	6,498.05	49.9501	6,498.05	60.2363	6,498.05	53.1651	6,498.05	54.409	6,498.05	53.0824	6,498.05	49.368	6,498.05	54.2675	6,498.05	41.6693
6,726.56	86.1185	6,726.56	84.5682	6,726.56	85.2097	6,726.56	83.6621	6,726.56	83.524	6,726.56	82.2294	6,726.56	81.8574	6,726.56	79.8714	6,726.56	80.8292	6,726.56	77.5607	6,726.56	77.2634	6,726.56	75.3424	6,726.56	76.6027	6,726.56	70.1066	6,726.56	74.0434	6,726.56	66.8485	6,726.56	66.3976	6,726.56	61.8608	6,726.56	60.0084	6,726.56	57.1953	6,726.56	65.3193	6,726.56	53.2659	6,726.56	43.0614	6,726.56	51.8736	6,726.56	41.1666	6,726.56	49.5098	6,726.56	43.2159	6,726.56	48.0142	6,726.56	49.189	6,726.56	56.4949	6,726.56	55.0689	6,726.56	55.11	6,726.56	48.1765	6,726.56	50.857	6,726.56	48.507	6,726.56	47.6136
6,963.87	84.9762	6,963.87	84.3211	6,963.87	85.1002	6,963.87	83.0073	6,963.87	84.0138	6,963.87	82.0551	6,963.87	82.1418	6,963.87	79.4064	6,963.87	80.9194	6,963.87	77.1764	6,963.87	77.3478	6,963.87	74.725	6,963.87	76.2084	6,963.87	69.8599	6,963.87	72.1968	6,963.87	64.8958	6,963.87	63.9283	6,963.87	63.7464	6,963.87	60.9566	6,963.87	58.1396	6,963.87	63.7742	6,963.87	51.9476	6,963.87	51.9638	6,963.87	53.323	6,963.87	44.5565	6,963.87	46.3586	6,963.87	44.543	6,963.87	48.1858	6,963.87	44.988	6,963.87	53.7663	6,963.87	48.4555	6,963.87	54.9014	6,963.87	49.3735	6,963.87	48.7279	6,963.87	43.5417	6,963.87	46.9936
7,209.96	85.7584	7,209.96	84.738	7,209.96	84.8729	7,209.96	83.5942	7,209.96	84.1125	7,209.96	81.6969	7,209.96	83.4016	7,209.96	79.1418	7,209.96	80.367	7,209.96	77.3558	7,209.96	76.8944	7,209.96	73.8782	7,209.96	76.9053	7,209.96	70.8906	7,209.96	70.5239	7,209.96	64.7777	7,209.96	62.0613	7,209.96	62.8146	7,209.96	59.4615	7,209.96	57.6073	7,209.96	54.8376	7,209.96	51.8149	7,209.96	49.5631	7,209.96	48.7793	7,209.96	45.9677	7,209.96	48.698	7,209.96	43.9656	7,209.96	48.9002	7,209.96	41.9162	7,209.96	51.2046	7,209.96	52.0564	7,209.96	52.4187	7,209.96	52.7331	7,209.96	54.9129	7,209.96	47.1819	7,209.96	49.4483
7,464.84	85.4771	7,464.84	84.4425	7,464.84	85.0295	7,464.84	83.048	7,464.84	83.6837	7,464.84	82.0538	7,464.84	82.4423	7,464.84	79.3771	7,464.84	79.598	7,464.84	77.0501	7,464.84	77.5755	7,464.84	75.234	7,464.84	76.8263	7,464.84	70.765	7,464.84	63.6209	7,464.84	62.6464	7,464.84	66.6846	7,464.84	62.3223	7,464.84	57.8282	7,464.84	56.2236	7,464.84	61.7602	7,464.84	47.4916	7,464.84	55.8212	7,464.84	47.4196	7,464.84	49.1602	7,464.84	45.0503	7,464.84	51.1295	7,464.84	44.2301	7,464.84	49.6136	7,464.84	48.1907	7,464.84	53.3821	7,464.84	53.6278	7,464.84	53.092	7,464.84	55.343	7,464.84	40.172	7,464.84	51.8812
7,727.05	85.9854	7,727.05	85.0442	7,727.05	85.13	7,727.05	83.6786	7,727.05	83.6301	7,727.05	82.1974	7,727.05	81.7132	7,727.05	79.3362	7,727.05	79.3299	7,727.05	77.4251	7,727.05	79.0761	7,727.05	74.154	7,727.05	75.1414	7,727.05	70.8325	7,727.05	68.3758	7,727.05	65.3503	7,727.05	71.8842	7,727.05	64.1027	7,727.05	61.9214	7,727.05	49.3503	7,727.05	52.6337	7,727.05	43.3909	7,727.05	54.4955	7,727.05	47.8346	7,727.05	44.8375	7,727.05	49.144	7,727.05	44.3941	7,727.05	48.4331	7,727.05	51.7305	7,727.05	50.5285	7,727.05	50.8866	7,727.05	55.26	7,727.05	53.1563	7,727.05	51.4476	7,727.05	47.0303	7,727.05	48.0726
7,999.51	85.7587	7,999.51	84.9029	7,999.51	85.0884	7,999.51	83.6349	7,999.51	84.17	7,999.51	82.4075	7,999.51	82.6377	7,999.51	79.9768	7,999.51	80.1544	7,999.51	77.5736	7,999.51	79.5613	7,999.51	75.0003	7,999.51	71.1332	7,999.51	71.0367	7,999.51	74.3607	7,999.51	66.8635	7,999.51	69.9957	7,999.51	62.151	7,999.51	64.3879	7,999.51	54.0682	7,999.51	62.4181	7,999.51	48.0453	7,999.51	50.4678	7,999.51	44.8764	7,999.51	45.3409	7,999.51	44.9729	7,999.51	47.8899	7,999.51	39.7664	7,999.51	49.0087	7,999.51	55.4945	7,999.51	47.6589	7,999.51	53.4448	7,999.51	49.8921	7,999.51	51.2281	7,999.51	45.9615	7,999.51	48.6267
8,282.23	85.7891	8,282.23	85.4002	8,282.23	84.7559	8,282.23	84.0318	8,282.23	83.4066	8,282.23	82.6383	8,282.23	82.6771	8,282.23	80.3235	8,282.23	81.608	8,282.23	77.3599	8,282.23	79.0452	8,282.23	75.6991	8,282.23	70.6733	8,282.23	70.7958	8,282.23	76.4474	8,282.23	63.0335	8,282.23	63.3192	8,282.23	64.1215	8,282.23	67.4685	8,282.23	54.6645	8,282.23	60.9067	8,282.23	51.0898	8,282.23	46.6961	8,282.23	50.2096	8,282.23	50.8136	8,282.23	48.1811	8,282.23	44.2326	8,282.23	47.5768	8,282.23	47.3022	8,282.23	54.5573	8,282.23	47.9013	8,282.23	48.8397	8,282.23	46.8474	8,282.23	46.6063	8,282.23	49.7459	8,282.23	49.9452
8,573.73	85.6902	8,573.73	84.7748	8,573.73	84.9471	8,573.73	83.6191	8,573.73	83.6295	8,573.73	82.4672	8,573.73	83.0704	8,573.73	80.0764	8,573.73	81.881	8,573.73	77.3754	8,573.73	75.6472	8,573.73	74.1965	8,573.73	76.9115	8,573.73	71.2322	8,573.73	75.7661	8,573.73	64.3609	8,573.73	64.081	8,573.73	64.1533	8,573.73	64.5093	8,573.73	54.4036	8,573.73	54.1248	8,573.73	45.3466	8,573.73	54.3979	8,573.73	43.5001	8,573.73	49.7396	8,573.73	43.8521	8,573.73	47.1636	8,573.73	36.0976	8,573.73	49.4323	8,573.73	52.9392	8,573.73	48.7747	8,573.73	44.1209	8,573.73	51.8969	8,573.73	51.6359	8,573.73	47.5624	8,573.73	52.1714
8,876.95	85.2707	8,876.95	84.9145	8,876.95	84.013	8,876.95	83.753	8,876.95	83.8241	8,876.95	82.2462	8,876.95	83.4445	8,876.95	80.0518	8,876.95	81.8232	8,876.95	77.3152	8,876.95	75.2482	8,876.95	74.269	8,876.95	77.8767	8,876.95	71.1007	8,876.95	69.7143	8,876.95	65.7254	8,876.95	65.1895	8,876.95	63.0089	8,876.95	65.1171	8,876.95	50.0847	8,876.95	59.1323	8,876.95	47.1214	8,876.95	50.294	8,876.95	36.4156	8,876.95	47.2304	8,876.95	42.3951	8,876.95	51.8441	8,876.95	43.6231	8,876.95	52.771	8,876.95	49.8066	8,876.95	48.7733	8,876.95	44.442	8,876.95	47.2027	8,876.95	48.8575	8,876.95	44.9327	8,876.95	55.4922
9,188.96	85.2062	9,188.96	84.6158	9,188.96	84.1933	9,188.96	83.4526	9,188.96	83.8621	9,188.96	82.2961	9,188.96	83.3984	9,188.96	80.0589	9,188.96	81.3234	9,188.96	77.3912	9,188.96	77.4375	9,188.96	74.1749	9,188.96	76.827	9,188.96	69.9755	9,188.96	69.8932	9,188.96	65.5285	9,188.96	68.7451	9,188.96	63.0161	9,188.96	60.6173	9,188.96	47.0871	9,188.96	61.3223	9,188.96	46.5088	9,188.96	49.2533	9,188.96	38.8506	9,188.96	46.303	9,188.96	46.5629	9,188.96	51.6212	9,188.96	44.8787	9,188.96	43.0326	9,188.96	48.2932	9,188.96	46.8564	9,188.96	48.1493	9,188.96	42.0917	9,188.96	42.1744	9,188.96	45.4767	9,188.96	54.2099
9,514.16	85.253	9,514.16	84.6759	9,514.16	84.1676	9,514.16	83.6245	9,514.16	84.1872	9,514.16	82.3007	9,514.16	83.049	9,514.16	80.168	9,514.16	79.9693	9,514.16	77.5015	9,514.16	78.6665	9,514.16	73.8299	9,514.16	75.1163	9,514.16	69.6163	9,514.16	70.6961	9,514.16	64.9739	9,514.16	67.1634	9,514.16	58.101	9,514.16	58.2273	9,514.16	53.8421	9,514.16	56.2412	9,514.16	48.3552	9,514.16	53.7744	9,514.16	34.2597	9,514.16	41.736	9,514.16	47.5698	9,514.16	44.1061	9,514.16	46.9913	9,514.16	43.6491	9,514.16	49.5762	9,514.16	39.1811	9,514.16	49.5148	9,514.16	49.5762	9,514.16	49.6963	9,514.16	50.6344	9,514.16	54.276
9,849.61	84.8929	9,849.61	84.4959	9,849.61	84.2375	9,849.61	83.5134	9,849.61	83.7031	9,849.61	82.3107	9,849.61	82.8612	9,849.61	80.0736	9,849.61	80.089	9,849.61	77.4723	9,849.61	78.4582	9,849.61	73.9715	9,849.61	71.8752	9,849.61	70.0644	9,849.61	71.2768	9,849.61	63.6688	9,849.61	62.0048	9,849.61	57.3966	9,849.61	58.478	9,849.61	49.1712	9,849.61	48.8612	9,849.61	44.4322	9,849.61	58.9633	9,849.61	29.9017	9,849.61	44.4881	9,849.61	44.2206	9,849.61	37.8653	9,849.61	46.2438	9,849.61	40.4615	9,849.61	42.8151	9,849.61	39.5889	9,849.61	47.3782	9,849.61	50.8301	9,849.61	44.084	9,849.61	48.735	9,849.61	52.6826
10,196.8	84.7693	10,196.8	84.8262	10,196.8	84.3786	10,196.8	83.8358	10,196.8	83.9532	10,196.8	82.4744	10,196.8	82.6044	10,196.8	79.9779	10,196.8	79.3271	10,196.8	77.5724	10,196.8	79.2886	10,196.8	73.655	10,196.8	72.8862	10,196.8	69.6414	10,196.8	71.0016	10,196.8	64.4124	10,196.8	65.183	10,196.8	60.9536	10,196.8	62.4546	10,196.8	52.2452	10,196.8	55.8646	10,196.8	46.4054	10,196.8	60.1203	10,196.8	31.1443	10,196.8	47.4658	10,196.8	45.5464	10,196.8	42.3992	10,196.8	45.8535	10,196.8	28.9375	10,196.8	40.6057	10,196.8	37.5794	10,196.8	48.0501	10,196.8	53.2191	10,196.8	38.0592	10,196.8	48.5328	10,196.8	53.5296
10,555.7	84.5278	10,555.7	84.6285	10,555.7	83.8473	10,555.7	84.1768	10,555.7	84.3124	10,555.7	82.5183	10,555.7	82.7304	10,555.7	80.0515	10,555.7	80.5191	10,555.7	77.5114	10,555.7	78.4543	10,555.7	73.2262	10,555.7	73.2746	10,555.7	68.6956	10,555.7	71.883	10,555.7	62.9079	10,555.7	65.6673	10,555.7	59.7412	10,555.7	64.6357	10,555.7	51.7931	10,555.7	59.9103	10,555.7	35.1798	10,555.7	62.1752	10,555.7	43.5862	10,555.7	49.1839	10,555.7	38.4441	10,555.7	45.8335	10,555.7	45.9712	10,555.7	48.0763	10,555.7	39.8696	10,555.7	48.0871	10,555.7	42.4834	10,555.7	53.2945	10,555.7	47.1494	10,555.7	49.8276	10,555.7	53.1841
10,927.7	84.5572	10,927.7	84.5975	10,927.7	84.1754	10,927.7	84.2087	10,927.7	84.0897	10,927.7	82.7285	10,927.7	82.3368	10,927.7	80.1783	10,927.7	82.3787	10,927.7	77.1265	10,927.7	77.3765	10,927.7	73.2748	10,927.7	74.9409	10,927.7	68.8241	10,927.7	71.7642	10,927.7	63.8309	10,927.7	58.7099	10,927.7	58.0021	10,927.7	63.5639	10,927.7	50.0599	10,927.7	58.9397	10,927.7	39.8319	10,927.7	62.4899	10,927.7	39.9659	10,927.7	43.1517	10,927.7	21.9925	10,927.7	39.1787	10,927.7	40.6174	10,927.7	44.2568	10,927.7	41.7951	10,927.7	46.3833	10,927.7	39.1496	10,927.7	43.5382	10,927.7	38.3426	10,927.7	43.0519	10,927.7	50.128
11,313	84.7126	11,313	84.8356	11,313	84.3663	11,313	84.471	11,313	84.2926	11,313	82.9669	11,313	83.4801	11,313	80.5034	11,313	82.5059	11,313	77.2707	11,313	76.674	11,313	72.8795	11,313	75.5746	11,313	69.1182	11,313	66.8504	11,313	62.8442	11,313	65.8051	11,313	61.195	11,313	58.804	11,313	51.9201	11,313	59.4515	11,313	45.5245	11,313	61.5473	11,313	40.0609	11,313	45.6486	11,313	38.1315	11,313	44.478	11,313	39.0778	11,313	41.9112	11,313	47.6863	11,313	47.2287	11,313	39.3521	11,313	44.4337	11,313	39.5629	11,313	43.0781	11,313	52.8281
11,712.9	84.5256	11,712.9	84.5782	11,712.9	84.7238	11,712.9	84.5028	11,712.9	84.4971	11,712.9	83.1201	11,712.9	83.575	11,712.9	80.4998	11,712.9	81.2097	11,712.9	77.449	11,712.9	78.0225	11,712.9	72.9765	11,712.9	72.8446	11,712.9	68.9185	11,712.9	68.6427	11,712.9	62.3624	11,712.9	65.9411	11,712.9	57.4187	11,712.9	57.8214	11,712.9	49.7275	11,712.9	57.777	11,712.9	45.4549	11,712.9	57.5584	11,712.9	40.9815	11,712.9	33.7323	11,712.9	31.6445	11,712.9	41.8921	11,712.9	37.1618	11,712.9	36.5944	11,712.9	40.5419	11,712.9	47.8555	11,712.9	47.5712	11,712.9	47.4279	11,712.9	37.3472	11,712.9	46.1573	11,712.9	52.5066
12,126	84.2487	12,126	84.3903	12,126	84.7281	12,126	84.5008	12,126	84.3963	12,126	83.0617	12,126	82.6946	12,126	80.5946	12,126	80.4612	12,126	77.1841	12,126	78.1589	12,126	72.8166	12,126	72.47	12,126	68.9564	12,126	70.2191	12,126	62.2682	12,126	63.8523	12,126	58.0782	12,126	59.8861	12,126	52.0109	12,126	52.2655	12,126	38.5713	12,126	62.2429	12,126	40.4442	12,126	52.7013	12,126	29.3701	12,126	43.1082	12,126	19.5528	12,126	37.4315	12,126	39.8558	12,126	42.5349	12,126	46.5553	12,126	36.6904	12,126	45.2729	12,126	41.8007	12,126	46.4562
12,553.7	84.0785	12,553.7	84.2392	12,553.7	84.0792	12,553.7	84.3067	12,553.7	84.1748	12,553.7	83.012	12,553.7	82.9569	12,553.7	80.2746	12,553.7	80.6002	12,553.7	76.9164	12,553.7	77.3719	12,553.7	72.5854	12,553.7	73.0469	12,553.7	68.604	12,553.7	69.9988	12,553.7	61.2982	12,553.7	59.5767	12,553.7	57.698	12,553.7	57.4548	12,553.7	45.7566	12,553.7	61.2766	12,553.7	37.7685	12,553.7	65.5358	12,553.7	29.0163	12,553.7	46.6425	12,553.7	37.3403	12,553.7	42.0953	12,553.7	30.7389	12,553.7	39.951	12,553.7	36.3304	12,553.7	35.3385	12,553.7	44.9978	12,553.7	45.1354	12,553.7	37.9494	12,553.7	44.4259	12,553.7	46.0761
12,996.1	84.2408	12,996.1	84.2129	12,996.1	84.1922	12,996.1	83.9656	12,996.1	83.6283	12,996.1	82.4789	12,996.1	82.9851	12,996.1	79.5195	12,996.1	80.2518	12,996.1	76.3453	12,996.1	77.2294	12,996.1	71.9409	12,996.1	71.9295	12,996.1	67.7357	12,996.1	67.4629	12,996.1	60.8889	12,996.1	62.3201	12,996.1	54.8557	12,996.1	55.6806	12,996.1	48.0262	12,996.1	62.263	12,996.1	31.3429	12,996.1	64.8354	12,996.1	39.8834	12,996.1	36.1609	12,996.1	34.6002	12,996.1	36.9379	12,996.1	35.4562	12,996.1	37.3275	12,996.1	40.0821	12,996.1	43.4683	12,996.1	40.2095	12,996.1	44.031	12,996.1	42.1468	12,996.1	47.7367	12,996.1	39.9014
13,454.6	84.9333	13,454.6	84.5005	13,454.6	84.3344	13,454.6	83.8164	13,454.6	83.2576	13,454.6	82.041	13,454.6	82.2321	13,454.6	78.9134	13,454.6	79.5291	13,454.6	75.8846	13,454.6	75.5198	13,454.6	71.4413	13,454.6	71.0257	13,454.6	66.3354	13,454.6	67.1015	13,454.6	59.5597	13,454.6	62.1119	13,454.6	55.9514	13,454.6	53.9801	13,454.6	48.319	13,454.6	59.4722	13,454.6	30.5874	13,454.6	63.4839	13,454.6	37.0494	13,454.6	42.9557	13,454.6	34.0203	13,454.6	43.9764	13,454.6	39.6187	13,454.6	32.8457	13,454.6	44.4436	13,454.6	48.4935	13,454.6	29.3568	13,454.6	46.1164	13,454.6	47.3061	13,454.6	45.9038	13,454.6	44.4171
13,929.2	84.5015	13,929.2	84.0163	13,929.2	84.0447	13,929.2	83.646	13,929.2	83.2688	13,929.2	81.9809	13,929.2	82.0048	13,929.2	78.8866	13,929.2	79.029	13,929.2	75.6635	13,929.2	74.993	13,929.2	70.3838	13,929.2	70.6396	13,929.2	65.7788	13,929.2	65.1699	13,929.2	58.3174	13,929.2	61.421	13,929.2	55.0902	13,929.2	51.8568	13,929.2	42.5996	13,929.2	57.2947	13,929.2	28.0448	13,929.2	64.9533	13,929.2	41.3383	13,929.2	48.1839	13,929.2	33.5405	13,929.2	43.6985	13,929.2	34.853	13,929.2	40.6656	13,929.2	41.3216	13,929.2	47.745	13,929.2	36.7735	13,929.2	43.007	13,929.2	46.2855	13,929.2	41.4795	13,929.2	45.2004
14,419.9	84.1046	14,419.9	83.9204	14,419.9	84.0891	14,419.9	84.0545	14,419.9	83.7101	14,419.9	82.6183	14,419.9	82.5568	14,419.9	79.3516	14,419.9	79.7694	14,419.9	75.8272	14,419.9	76.4006	14,419.9	69.7866	14,419.9	69.7995	14,419.9	66.0452	14,419.9	65.8439	14,419.9	59.652	14,419.9	62.7619	14,419.9	54.766	14,419.9	53.7865	14,419.9	38.9055	14,419.9	62.2874	14,419.9	32.8297	14,419.9	67.3839	14,419.9	36.5804	14,419.9	49.2237	14,419.9	37.5555	14,419.9	42.3492	14,419.9	37.4154	14,419.9	37.226	14,419.9	43.2268	14,419.9	44.545	14,419.9	32.9335	14,419.9	43.5793	14,419.9	44.224	14,419.9	42.5123	14,419.9	43.6248
14,928.2	84.0145	14,928.2	84.0618	14,928.2	84.1552	14,928.2	84.5691	14,928.2	84.4475	14,928.2	83.2868	14,928.2	83.136	14,928.2	79.9621	14,928.2	80.4602	14,928.2	76.2276	14,928.2	75.6658	14,928.2	70.1761	14,928.2	70.1378	14,928.2	67.024	14,928.2	66.0745	14,928.2	60.5921	14,928.2	58.8116	14,928.2	52.8861	14,928.2	53.504	14,928.2	44.8115	14,928.2	64.6654	14,928.2	32.3011	14,928.2	68.1779	14,928.2	39.4061	14,928.2	44.3608	14,928.2	40.4874	14,928.2	32.8124	14,928.2	38.2912	14,928.2	39.0453	14,928.2	48.1514	14,928.2	40.7351	14,928.2	25.9891	14,928.2	42.9955	14,928.2	38.6895	14,928.2	43.0915	14,928.2	39.0137
15,455.6	83.7051	15,455.6	84.3192	15,455.6	84.0064	15,455.6	85.2362	15,455.6	84.6682	15,455.6	83.8554	15,455.6	83.6468	15,455.6	80.4324	15,455.6	80.0158	15,455.6	76.392	15,455.6	76.3405	15,455.6	70.3749	15,455.6	69.9665	15,455.6	67.2635	15,455.6	66.3648	15,455.6	60.3112	15,455.6	62.7679	15,455.6	55.08	15,455.6	47.471	15,455.6	42.85	15,455.6	64.8901	15,455.6	32.8082	15,455.6	69.3008	15,455.6	40.1702	15,455.6	50.2592	15,455.6	43.8362	15,455.6	47.3301	15,455.6	37.2118	15,455.6	33.5979	15,455.6	39.0539	15,455.6	38.1185	15,455.6	29.561	15,455.6	45.64	15,455.6	35.909	15,455.6	41.2826	15,455.6	40.8504
16,000.5	83.9413	16,000.5	84.6055	16,000.5	84.0808	16,000.5	85.3496	16,000.5	84.7191	16,000.5	83.6682	16,000.5	83.4893	16,000.5	80.1541	16,000.5	80.432	16,000.5	76.1465	16,000.5	75.6654	16,000.5	70.3491	16,000.5	71.6474	16,000.5	66.5438	16,000.5	61.1309	16,000.5	60.7701	16,000.5	64.7676	16,000.5	53.6332	16,000.5	49.4244	16,000.5	36.9386	16,000.5	66.0729	16,000.5	38.3843	16,000.5	69.7938	16,000.5	39.6416	16,000.5	49.1462	16,000.5	44.504	16,000.5	43.3877	16,000.5	40.0588	16,000.5	38.8934	16,000.5	35.5626	16,000.5	43.9208	16,000.5	31.1855	16,000.5	48.0792	16,000.5	17.5187	16,000.5	43.2893	16,000.5	41.3991
16,564.5	83.7368	16,564.5	84.2075	16,564.5	83.7161	16,564.5	84.9609	16,564.5	84.2217	16,564.5	82.9589	16,564.5	82.7562	16,564.5	79.5333	16,564.5	79.3627	16,564.5	75.4485	16,564.5	75.3525	16,564.5	70.0467	16,564.5	69.7528	16,564.5	64.8404	16,564.5	64.6364	16,564.5	58.7747	16,564.5	61.5241	16,564.5	47.635	16,564.5	48.8294	16,564.5	33.8774	16,564.5	65.0068	16,564.5	38.1354	16,564.5	69.1722	16,564.5	30.3463	16,564.5	50.3529	16,564.5	40.068	16,564.5	44.0022	16,564.5	37.4465	16,564.5	37.5833	16,564.5	39.7881	16,564.5	44.0379	16,564.5	18.3432	16,564.5	46.9169	16,564.5	38.6542	16,564.5	44.214	16,564.5	41.7518
17,148.9	82.791	17,148.9	83.2352	17,148.9	82.6078	17,148.9	84.0065	17,148.9	83.1054	17,148.9	81.9752	17,148.9	81.5594	17,148.9	78.3115	17,148.9	78.44	17,148.9	74.4444	17,148.9	74.5875	17,148.9	68.7741	17,148.9	67.2615	17,148.9	63.3136	17,148.9	63.1736	17,148.9	58.9888	17,148.9	61.8772	17,148.9	46.9201	17,148.9	45.6792	17,148.9	38.7036	17,148.9	64.224	17,148.9	34.1165	17,148.9	68.5607	17,148.9	39.2076	17,148.9	48.6553	17,148.9	21.6784	17,148.9	40.6124	17,148.9	38.1054	17,148.9	40.7361	17,148.9	48.7006	17,148.9	40.2623	17,148.9	38.8889	17,148.9	47.426	17,148.9	34.8032	17,148.9	38.7529	17,148.9	42.4749
17,752.4	82.4961	17,752.4	82.898	17,752.4	82.0308	17,752.4	83.4606	17,752.4	82.3898	17,752.4	81.0981	17,752.4	81.2484	17,752.4	77.3894	17,752.4	77.9474	17,752.4	73.735	17,752.4	74.0282	17,752.4	67.3077	17,752.4	67.9808	17,752.4	62.4761	17,752.4	60.6224	17,752.4	57.7084	17,752.4	59.9917	17,752.4	35.4418	17,752.4	50.4825	17,752.4	41.8166	17,752.4	63.5943	17,752.4	33.6678	17,752.4	68.0588	17,752.4	41.6382	17,752.4	47.9551	17,752.4	38.7804	17,752.4	39.0433	17,752.4	45.981	17,752.4	42.8923	17,752.4	47.9101	17,752.4	42.0345	17,752.4	43.0242	17,752.4	49.442	17,752.4	39.0042	17,752.4	39.3323	17,752.4	41.4965
18,379.4	81.9992	18,379.4	82.4385	18,379.4	81.9048	18,379.4	82.9088	18,379.4	81.9466	18,379.4	80.2858	18,379.4	80.5841	18,379.4	76.631	18,379.4	76.326	18,379.4	72.8242	18,379.4	73.0232	18,379.4	66.7361	18,379.4	66.4988	18,379.4	61.1144	18,379.4	58.5466	18,379.4	55.8023	18,379.4	60.0476	18,379.4	32.6703	18,379.4	49.8127	18,379.4	44.2455	18,379.4	63.163	18,379.4	35.3703	18,379.4	67.5414	18,379.4	39.7876	18,379.4	45.6275	18,379.4	43.651	18,379.4	37.2784	18,379.4	45.6587	18,379.4	39.2882	18,379.4	48.9885	18,379.4	43.4819	18,379.4	43.6503	18,379.4	47.0988	18,379.4	42.5586	18,379.4	39.3255	18,379.4	44.2913
19,026.9	81.7338	19,026.9	81.989	19,026.9	81.6043	19,026.9	82.3953	19,026.9	81.4698	19,026.9	79.6229	19,026.9	79.7476	19,026.9	75.582	19,026.9	75.6281	19,026.9	71.7853	19,026.9	71.2737	19,026.9	65.7637	19,026.9	65.0766	19,026.9	59.1507	19,026.9	57.7946	19,026.9	53.6444	19,026.9	55.992	19,026.9	38.7438	19,026.9	53.2846	19,026.9	43.0711	19,026.9	62.645	19,026.9	35.288	19,026.9	67.1665	19,026.9	42.4044	19,026.9	47.6367	19,026.9	45.8397	19,026.9	37.9573	19,026.9	42.0866	19,026.9	35.4989	19,026.9	45.3119	19,026.9	42.0937	19,026.9	39.7006	19,026.9	44.3928	19,026.9	36.4812	19,026.9	38.7103	19,026.9	39.1486
19,697.8	81.5072	19,697.8	81.7923	19,697.8	81.4366	19,697.8	81.9699	19,697.8	80.9992	19,697.8	78.973	19,697.8	79.0342	19,697.8	74.7129	19,697.8	75.4882	19,697.8	70.52	19,697.8	70.8635	19,697.8	64.9755	19,697.8	65.8643	19,697.8	56.0334	19,697.8	53.9486	19,697.8	50.8431	19,697.8	55.9611	19,697.8	44.5914	19,697.8	52.01	19,697.8	46.8368	19,697.8	63.3993	19,697.8	37.7216	19,697.8	67.0121	19,697.8	44.8846	19,697.8	47.3311	19,697.8	47.2613	19,697.8	40.031	19,697.8	43.7589	19,697.8	31.9592	19,697.8	48.7074	19,697.8	42.1301	19,697.8	45.5625	19,697.8	45.3584	19,697.8	36.4952	19,697.8	34.6555	19,697.8	37.6304
19,999.5	81.2549	19,999.5	81.7952	19,999.5	81.0726	19,999.5	81.908	19,999.5	80.8098	19,999.5	78.8083	19,999.5	78.8901	19,999.5	74.5446	19,999.5	75.5811	19,999.5	69.6327	19,999.5	70.6504	19,999.5	66.6165	19,999.5	65.092	19,999.5	54.367	19,999.5	56.1447	19,999.5	48.6048	19,999.5	54.395	19,999.5	41.5084	19,999.5	52.8135	19,999.5	50.5919	19,999.5	62.5824	19,999.5	47.6424	19,999.5	66.4715	19,999.5	47.0286	19,999.5	43.6352	19,999.5	46.2392	19,999.5	48.4779	19,999.5	51.3586	19,999.5	45.4258	19,999.5	49.7008	19,999.5	31.339	19,999.5	45.4976	19,999.5	46.8617	19,999.5	46.4073	19,999.5	44.6849	19,999.5	36.4492
