"SPL Horizontal"
"On-Axis"		"10°"		"-10°"		"20°"		"-20°"		"30°"		"-30°"		"40°"		"-40°"		"50°"		"-50°"		"60°"		"-60°"		"70°"		"-70°"		"80°"		"-80°"		"90°"		"-90°"		"100°"		"-100°"		"110°"		"-110°"		"120°"		"-120°"		"130°"		"-130°"		"140°"		"-140°"		"150°"		"-150°"		"160°"		"-160°"		"170°"		"-170°"		"180°"
"Frequency [Hz]"	"Sound Pessure Level [dB]  / [2.83V 1m] "	"Frequency [Hz]"	"Sound Pessure Level [dB]  / [2.83V 1m] "	"Frequency [Hz]"	"Sound Pessure Level [dB]  / [2.83V 1m] "	"Frequency [Hz]"	"Sound Pessure Level [dB]  / [2.83V 1m] "	"Frequency [Hz]"	"Sound Pessure Level [dB]  / [2.83V 1m] "	"Frequency [Hz]"	"Sound Pessure Level [dB]  / [2.83V 1m] "	"Frequency [Hz]"	"Sound Pessure Level [dB]  / [2.83V 1m] "	"Frequency [Hz]"	"Sound Pessure Level [dB]  / [2.83V 1m] "	"Frequency [Hz]"	"Sound Pessure Level [dB]  / [2.83V 1m] "	"Frequency [Hz]"	"Sound Pessure Level [dB]  / [2.83V 1m] "	"Frequency [Hz]"	"Sound Pessure Level [dB]  / [2.83V 1m] "	"Frequency [Hz]"	"Sound Pessure Level [dB]  / [2.83V 1m] "	"Frequency [Hz]"	"Sound Pessure Level [dB]  / [2.83V 1m] "	"Frequency [Hz]"	"Sound Pessure Level [dB]  / [2.83V 1m] "	"Frequency [Hz]"	"Sound Pessure Level [dB]  / [2.83V 1m] "	"Frequency [Hz]"	"Sound Pessure Level [dB]  / [2.83V 1m] "	"Frequency [Hz]"	"Sound Pessure Level [dB]  / [2.83V 1m] "	"Frequency [Hz]"	"Sound Pessure Level [dB]  / [2.83V 1m] "	"Frequency [Hz]"	"Sound Pessure Level [dB]  / [2.83V 1m] "	"Frequency [Hz]"	"Sound Pessure Level [dB]  / [2.83V 1m] "	"Frequency [Hz]"	"Sound Pessure Level [dB]  / [2.83V 1m] "	"Frequency [Hz]"	"Sound Pessure Level [dB]  / [2.83V 1m] "	"Frequency [Hz]"	"Sound Pessure Level [dB]  / [2.83V 1m] "	"Frequency [Hz]"	"Sound Pessure Level [dB]  / [2.83V 1m] "	"Frequency [Hz]"	"Sound Pessure Level [dB]  / [2.83V 1m] "	"Frequency [Hz]"	"Sound Pessure Level [dB]  / [2.83V 1m] "	"Frequency [Hz]"	"Sound Pessure Level [dB]  / [2.83V 1m] "	"Frequency [Hz]"	"Sound Pessure Level [dB]  / [2.83V 1m] "	"Frequency [Hz]"	"Sound Pessure Level [dB]  / [2.83V 1m] "	"Frequency [Hz]"	"Sound Pessure Level [dB]  / [2.83V 1m] "	"Frequency [Hz]"	"Sound Pessure Level [dB]  / [2.83V 1m] "	"Frequency [Hz]"	"Sound Pessure Level [dB]  / [2.83V 1m] "	"Frequency [Hz]"	"Sound Pessure Level [dB]  / [2.83V 1m] "	"Frequency [Hz]"	"Sound Pessure Level [dB]  / [2.83V 1m] "	"Frequency [Hz]"	"Sound Pessure Level [dB]  / [2.83V 1m] "	"Frequency [Hz]"	"Sound Pessure Level [dB]  / [2.83V 1m] "
20.5078	58.4306	20.5078	58.4422	20.5078	58.4694	20.5078	58.5057	20.5078	58.562	20.5078	58.6268	20.5078	58.7147	20.5078	58.8143	20.5078	58.9353	20.5078	59.0767	20.5078	59.2294	20.5078	59.4192	20.5078	59.5982	20.5078	59.8404	20.5078	60.0365	20.5078	60.3311	20.5078	60.5324	20.5078	60.8746	20.5078	61.0683	20.5078	61.4495	20.5078	61.6231	20.5078	62.0326	20.5078	62.1746	20.5078	62.6004	20.5078	62.7015	20.5078	63.1292	20.5078	63.1849	20.5078	63.5951	20.5078	63.6087	20.5078	63.9752	20.5078	63.959	20.5078	64.2516	20.5078	64.2243	20.5078	64.414	20.5078	64.3944	20.5078	64.4602
21.9727	60.5889	21.9727	60.5074	21.9727	60.6945	21.9727	60.4523	21.9727	60.8276	21.9727	60.4335	21.9727	60.9961	21.9727	60.4686	21.9727	61.2098	21.9727	60.5812	21.9727	61.4789	21.9727	60.7959	21.9727	61.8124	21.9727	61.1314	21.9727	62.2158	21.9727	61.5929	21.9727	62.6886	21.9727	62.1677	21.9727	63.221	21.9727	62.8272	21.9727	63.7941	21.9727	63.5328	21.9727	64.3824	21.9727	64.2427	21.9727	64.9572	21.9727	64.917	21.9727	65.4905	21.9727	65.5202	21.9727	65.9569	21.9727	66.0238	21.9727	66.3342	21.9727	66.4075	21.9727	66.6046	21.9727	66.6593	21.9727	66.7545	21.9727	66.7746
23.4375	63.5356	23.4375	63.553	23.4375	63.5659	23.4375	63.6236	23.4375	63.645	23.4375	63.7585	23.4375	63.7802	23.4375	63.9721	23.4375	63.9831	23.4375	64.2781	23.4375	64.2671	23.4375	64.6842	23.4375	64.6428	23.4375	65.1881	23.4375	65.114	23.4375	65.7757	23.4375	65.673	23.4375	66.4228	23.4375	66.3007	23.4375	67.0995	23.4375	66.9689	23.4375	67.775	23.4375	67.6453	23.4375	68.4202	23.4375	68.2978	23.4375	69.0093	23.4375	68.898	23.4375	69.5198	23.4375	69.4224	23.4375	69.9324	23.4375	69.8525	23.4375	70.2323	23.4375	70.1747	23.4375	70.4092	23.4375	70.3788	23.4375	70.4581
24.9023	66.8649	24.9023	66.892	24.9023	66.8874	24.9023	66.9705	24.9023	66.963	24.9023	67.1068	24.9023	67.1002	24.9023	67.3106	24.9023	67.3102	24.9023	67.5916	24.9023	67.6042	24.9023	67.9563	24.9023	67.989	24.9023	68.4046	24.9023	68.4633	24.9023	68.928	24.9023	69.0151	24.9023	69.5097	24.9023	69.6231	24.9023	70.1264	24.9023	70.2597	24.9023	70.7515	24.9023	70.895	24.9023	71.3578	24.9023	71.5008	24.9023	71.9197	24.9023	72.0518	24.9023	72.4145	24.9023	72.5272	24.9023	72.8228	24.9023	72.9104	24.9023	73.1294	24.9023	73.1888	24.9023	73.3236	24.9023	73.3534	24.9023	73.399
26.3672	71.1527	26.3672	71.156	26.3672	71.1872	26.3672	71.1975	26.3672	71.2623	26.3672	71.2812	26.3672	71.3834	26.3672	71.4133	26.3672	71.5571	26.3672	71.6015	26.3672	71.7892	26.3672	71.8523	26.3672	72.0826	26.3672	72.169	26.3672	72.4359	26.3672	72.5495	26.3672	72.8426	26.3672	72.9853	26.3672	73.2911	26.3672	73.4614	26.3672	73.766	26.3672	73.958	26.3672	74.2486	26.3672	74.4527	26.3672	74.7187	26.3672	74.9225	26.3672	75.1557	26.3672	75.3458	26.3672	75.5398	26.3672	75.7034	26.3672	75.8534	26.3672	75.9791	26.3672	76.0813	26.3672	76.1604	26.3672	76.2122	26.3672	76.2392
27.832	74.2732	27.832	74.2679	27.832	74.3116	27.832	74.2971	27.832	74.384	27.832	74.3649	27.832	74.4937	27.832	74.477	27.832	74.6453	27.832	74.6403	27.832	74.8436	27.832	74.8607	27.832	75.0928	27.832	75.1414	27.832	75.3944	27.832	75.4813	27.832	75.7464	27.832	75.8735	27.832	76.1418	27.832	76.3056	27.832	76.5684	27.832	76.7605	27.832	77.0097	27.832	77.2177	27.832	77.4463	27.832	77.6555	27.832	77.8573	27.832	78.0527	27.832	78.2222	27.832	78.3901	27.832	78.5223	27.832	78.651	27.832	78.7417	27.832	78.8226	27.832	78.8688	27.832	78.8963
29.2969	76.794	29.2969	76.8027	29.2969	76.8172	29.2969	76.8444	29.2969	76.873	29.2969	76.9222	29.2969	76.9642	29.2969	77.0403	29.2969	77.0949	29.2969	77.2036	29.2969	77.2695	29.2969	77.4163	29.2969	77.4921	29.2969	77.6803	29.2969	77.7644	29.2969	77.9944	29.2969	78.0851	29.2969	78.3528	29.2969	78.4483	29.2969	78.7454	29.2969	78.8434	29.2969	79.1576	29.2969	79.2556	29.2969	79.5718	29.2969	79.6671	29.2969	79.9688	29.2969	80.0582	29.2969	80.3293	29.2969	80.4088	29.2969	80.6352	29.2969	80.7004	29.2969	80.8705	29.2969	80.9171	29.2969	81.0225	29.2969	81.0468	29.2969	81.0825
30.7617	79.0996	30.7617	79.1089	30.7617	79.1212	30.7617	79.1496	30.7617	79.1746	30.7617	79.2237	30.7617	79.2621	30.7617	79.3343	30.7617	79.3869	30.7617	79.4846	30.7617	79.5522	30.7617	79.6779	30.7617	79.7607	30.7617	79.9155	30.7617	80.0129	30.7617	80.1966	30.7617	80.3068	30.7617	80.5169	30.7617	80.6372	30.7617	80.8686	30.7617	80.9951	30.7617	81.2397	30.7617	81.368	30.7617	81.6153	30.7617	81.7405	30.7617	81.9782	30.7617	82.095	30.7617	82.3105	30.7617	82.4136	30.7617	82.5949	30.7617	82.6786	30.7617	82.8158	30.7617	82.8751	30.7617	82.9604	30.7617	82.9912	30.7617	83.0202
32.2266	81.0366	32.2266	81.0517	32.2266	81.0527	32.2266	81.0981	32.2266	81.1005	32.2266	81.1772	32.2266	81.1818	32.2266	81.2909	32.2266	81.2987	32.2266	81.4414	32.2266	81.4537	32.2266	81.6302	32.2266	81.6482	32.2266	81.8579	32.2266	81.8824	32.2266	82.1229	32.2266	82.1542	32.2266	82.421	32.2266	82.4585	32.2266	82.7448	32.2266	82.7873	32.2266	83.0839	32.2266	83.1292	32.2266	83.4249	32.2266	83.4706	32.2266	83.7524	32.2266	83.796	32.2266	84.0503	32.2266	84.0891	32.2266	84.3028	32.2266	84.3345	32.2266	84.4961	32.2266	84.5187	32.2266	84.6193	32.2266	84.631	32.2266	84.6652
33.6914	82.3277	33.6914	82.3406	33.6914	82.3452	33.6914	82.3839	33.6914	82.3935	33.6914	82.4583	33.6914	82.4737	33.6914	82.565	33.6914	82.587	33.6914	82.7052	33.6914	82.7345	33.6914	82.8797	33.6914	82.9165	33.6914	83.0884	33.6914	83.1324	33.6914	83.3296	33.6914	83.3798	33.6914	83.5996	33.6914	83.6542	33.6914	83.8922	33.6914	83.9491	33.6914	84.1984	33.6914	84.2551	33.6914	84.5067	33.6914	84.5609	33.6914	84.8037	33.6914	84.8533	33.6914	85.0749	33.6914	85.1179	33.6914	85.3059	33.6914	85.3404	33.6914	85.4837	33.6914	85.508	33.6914	85.5977	33.6914	85.6102	33.6914	85.6408
35.1562	83.192	35.1562	83.2017	35.1562	83.21	35.1562	83.2392	35.1562	83.2559	35.1562	83.3051	35.1562	83.3303	35.1562	83.4002	35.1562	83.4337	35.1562	83.5252	35.1562	83.5668	35.1562	83.6805	35.1562	83.7298	35.1562	83.8658	35.1562	83.9219	35.1562	84.0796	35.1562	84.1413	35.1562	84.3187	35.1562	84.3842	35.1562	84.5781	35.1562	84.6451	35.1562	84.8501	35.1562	84.9163	35.1562	85.125	35.1562	85.1879	35.1562	85.3909	35.1562	85.4482	35.1562	85.635	35.1562	85.6843	35.1562	85.8439	35.1562	85.8832	35.1562	86.0056	35.1562	86.0329	35.1562	86.1099	35.1562	86.124	35.1562	86.1502
36.6211	83.6459	36.6211	83.6593	36.6211	83.6584	36.6211	83.6988	36.6211	83.697	36.6211	83.7646	36.6211	83.7621	36.6211	83.8568	36.6211	83.8539	36.6211	83.9759	36.6211	83.9728	36.6211	84.1215	36.6211	84.1187	36.6211	84.2931	36.6211	84.2908	36.6211	84.4887	36.6211	84.4873	36.6211	84.7053	36.6211	84.7052	36.6211	84.9382	36.6211	84.9395	36.6211	85.1806	36.6211	85.1834	36.6211	85.424	36.6211	85.4281	36.6211	85.6582	36.6211	85.6633	36.6211	85.872	36.6211	85.8774	36.6211	86.0539	36.6211	86.0588	36.6211	86.1931	36.6211	86.1969	36.6211	86.2809	36.6211	86.283	36.6211	86.3116
38.0859	83.8174	38.0859	83.8269	38.0859	83.832	38.0859	83.8606	38.0859	83.8706	38.0859	83.9188	38.0859	83.9332	38.0859	84.0015	38.0859	84.0198	38.0859	84.1089	38.0859	84.1304	38.0859	84.2406	38.0859	84.2645	38.0859	84.396	38.0859	84.4214	38.0859	84.5733	38.0859	84.5995	38.0859	84.7696	38.0859	84.796	38.0859	84.9809	38.0859	85.0066	38.0859	85.2011	38.0859	85.2253	38.0859	85.4227	38.0859	85.4446	38.0859	85.6363	38.0859	85.6552	38.0859	85.8317	38.0859	85.8471	38.0859	85.9983	38.0859	86.01	38.0859	86.1262	38.0859	86.134	38.0859	86.2072	38.0859	86.2111	38.0859	86.2361
39.5508	83.8911	39.5508	83.9029	39.5508	83.9024	39.5508	83.9378	39.5508	83.9371	39.5508	83.9957	39.5508	83.995	39.5508	84.0766	39.5508	84.0762	39.5508	84.1799	39.5508	84.1804	39.5508	84.3052	39.5508	84.307	39.5508	84.4512	39.5508	84.4549	39.5508	84.6163	39.5508	84.6222	39.5508	84.7977	39.5508	84.8057	39.5508	84.9916	39.5508	85.0013	39.5508	85.1927	39.5508	85.2035	39.5508	85.3944	39.5508	85.4054	39.5508	85.5885	39.5508	85.599	39.5508	85.766	39.5508	85.7752	39.5508	85.9173	39.5508	85.9247	39.5508	86.0334	39.5508	86.0386	39.5508	86.1069	39.5508	86.1096	39.5508	86.1329
41.0156	84.0113	41.0156	84.0277	41.0156	84.0163	41.0156	84.0655	41.0156	84.0431	41.0156	84.1244	41.0156	84.0917	41.0156	84.204	41.0156	84.162	41.0156	84.3038	41.0156	84.2538	41.0156	84.4228	41.0156	84.3666	41.0156	84.56	41.0156	84.4992	41.0156	84.7133	41.0156	84.6499	41.0156	84.8803	41.0156	84.8159	41.0156	85.0573	41.0156	84.9936	41.0156	85.2394	41.0156	85.178	41.0156	85.4207	41.0156	85.3633	41.0156	85.5939	41.0156	85.542	41.0156	85.7507	41.0156	85.7061	41.0156	85.8826	41.0156	85.8471	41.0156	85.9815	41.0156	85.9568	41.0156	86.0411	41.0156	86.0284	41.0156	86.0571
42.4805	84.089	42.4805	84.1023	42.4805	84.0958	42.4805	84.1357	42.4805	84.1228	42.4805	84.1889	42.4805	84.1697	42.4805	84.2613	42.4805	84.2363	42.4805	84.3522	42.4805	84.3218	42.4805	84.4608	42.4805	84.4256	42.4805	84.5855	42.4805	84.5464	42.4805	84.7246	42.4805	84.6825	42.4805	84.8755	42.4805	84.8317	42.4805	85.0351	42.4805	84.9905	42.4805	85.1991	42.4805	85.1549	42.4805	85.362	42.4805	85.3195	42.4805	85.5175	42.4805	85.478	42.4805	85.6582	42.4805	85.6234	42.4805	85.7765	42.4805	85.7481	42.4805	85.8652	42.4805	85.8451	42.4805	85.9187	42.4805	85.9083	42.4805	85.9334
43.9453	84.163	43.9453	84.1771	43.9453	84.1679	43.9453	84.2103	43.9453	84.1918	43.9453	84.2619	43.9453	84.2344	43.9453	84.3313	43.9453	84.2951	43.9453	84.4176	43.9453	84.3729	43.9453	84.5195	43.9453	84.467	43.9453	84.6355	43.9453	84.5759	43.9453	84.7638	43.9453	84.6982	43.9453	84.9019	43.9453	84.8317	43.9453	85.0469	43.9453	84.9738	43.9453	85.195	43.9453	85.1212	43.9453	85.3412	43.9453	85.2693	43.9453	85.48	43.9453	85.4128	43.9453	85.6047	43.9453	85.5454	43.9453	85.7085	43.9453	85.6604	43.9453	85.7852	43.9453	85.7511	43.9453	85.8296	43.9453	85.812	43.9453	85.8388
45.4102	84.1276	45.4102	84.1431	45.4102	84.1303	45.4102	84.1765	45.4102	84.1513	45.4102	84.2273	45.4102	84.1902	45.4102	84.2945	45.4102	84.2465	45.4102	84.377	45.4102	84.3192	45.4102	84.4734	45.4102	84.4072	45.4102	84.582	45.4102	84.5092	45.4102	84.701	45.4102	84.6234	45.4102	84.828	45.4102	84.7478	45.4102	84.9603	45.4102	84.8797	45.4102	85.0946	45.4102	85.0159	45.4102	85.2266	45.4102	85.1522	45.4102	85.3513	45.4102	85.2837	45.4102	85.463	45.4102	85.4049	45.4102	85.5558	45.4102	85.5097	45.4102	85.6243	45.4102	85.5922	45.4102	85.6639	45.4102	85.6475	45.4102	85.6719
46.875	84.1702	46.875	84.1853	46.875	84.1723	46.875	84.2173	46.875	84.1916	46.875	84.2654	46.875	84.2277	46.875	84.3287	46.875	84.28	46.875	84.4058	46.875	84.3475	46.875	84.4952	46.875	84.4289	46.875	84.595	46.875	84.5227	46.875	84.7034	46.875	84.6272	46.875	84.818	46.875	84.7402	46.875	84.9364	46.875	84.8593	46.875	85.0556	46.875	84.9815	46.875	85.172	46.875	85.1032	46.875	85.2814	46.875	85.2201	46.875	85.379	46.875	85.3272	46.875	85.46	46.875	85.4195	46.875	85.5197	46.875	85.4919	46.875	85.5543	46.875	85.5402	46.875	85.5614
48.3398	84.2446	48.3398	84.2567	48.3398	84.2486	48.3398	84.2848	48.3398	84.2687	48.3398	84.328	48.3398	84.3046	48.3398	84.3853	48.3398	84.3553	48.3398	84.4555	48.3398	84.4199	48.3398	84.5368	48.3398	84.4968	48.3398	84.6275	48.3398	84.5843	48.3398	84.7254	48.3398	84.6805	48.3398	84.8286	48.3398	84.7833	48.3398	84.9347	48.3398	84.8902	48.3398	85.0409	48.3398	84.9985	48.3398	85.1443	48.3398	85.1051	48.3398	85.2413	48.3398	85.2066	48.3398	85.3281	48.3398	85.2989	48.3398	85.4005	48.3398	85.3776	48.3398	85.4544	48.3398	85.4387	48.3398	85.4866	48.3398	85.4786	48.3398	85.4949
51.2695	84.3295	51.2695	84.3383	51.2695	84.3346	51.2695	84.3609	51.2695	84.3536	51.2695	84.3967	51.2695	84.3857	51.2695	84.4447	51.2695	84.43	51.2695	84.5035	51.2695	84.4852	51.2695	84.5715	51.2695	84.5499	51.2695	84.6469	51.2695	84.6222	51.2695	84.7278	51.2695	84.7006	51.2695	84.8121	51.2695	84.7832	51.2695	84.8979	51.2695	84.8683	51.2695	84.9828	51.2695	84.9538	51.2695	85.0648	51.2695	85.0374	51.2695	85.1412	51.2695	85.1166	51.2695	85.2091	51.2695	85.1884	51.2695	85.2657	51.2695	85.2496	51.2695	85.308	51.2695	85.297	51.2695	85.3334	51.2695	85.3278	51.2695	85.3402
52.7344	84.3305	52.7344	84.3405	52.7344	84.3336	52.7344	84.3634	52.7344	84.3497	52.7344	84.3984	52.7344	84.3783	52.7344	84.4443	52.7344	84.4184	52.7344	84.4998	52.7344	84.4687	52.7344	84.5632	52.7344	84.5275	52.7344	84.6325	52.7344	84.5933	52.7344	84.706	52.7344	84.6641	52.7344	84.7816	52.7344	84.7384	52.7344	84.8575	52.7344	84.8142	52.7344	84.9319	52.7344	84.8899	52.7344	85.0026	52.7344	84.9635	52.7344	85.0677	52.7344	85.0329	52.7344	85.1248	52.7344	85.0956	52.7344	85.1716	52.7344	85.1491	52.7344	85.2059	52.7344	85.1907	52.7344	85.2259	52.7344	85.2182	52.7344	85.2301
54.1992	84.3111	54.1992	84.3218	54.1992	84.3131	54.1992	84.3448	54.1992	84.3276	54.1992	84.3794	54.1992	84.3541	54.1992	84.4242	54.1992	84.3916	54.1992	84.4778	54.1992	84.4386	54.1992	84.5383	54.1992	84.4935	54.1992	84.6036	54.1992	84.5544	54.1992	84.6718	54.1992	84.6196	54.1992	84.7409	54.1992	84.6871	54.1992	84.809	54.1992	84.7555	54.1992	84.8744	54.1992	84.8229	54.1992	84.9354	54.1992	84.8879	54.1992	84.9905	54.1992	84.9487	54.1992	85.038	54.1992	85.0032	54.1992	85.0763	54.1992	85.0496	54.1992	85.1038	54.1992	85.0858	54.1992	85.1191	54.1992	85.1101	54.1992	85.1214
55.6641	84.2743	55.6641	84.2837	55.6641	84.2766	55.6641	84.3045	55.6641	84.2904	55.6641	84.3358	55.6641	84.3152	55.6641	84.3764	55.6641	84.3499	55.6641	84.4249	55.6641	84.3934	55.6641	84.4794	55.6641	84.4438	55.6641	84.5379	55.6641	84.4995	55.6641	84.5984	55.6641	84.5585	55.6641	84.6592	55.6641	84.6192	55.6641	84.7185	55.6641	84.6798	55.6641	84.7749	55.6641	84.7388	55.6641	84.8272	55.6641	84.7948	55.6641	84.874	55.6641	84.8463	55.6641	84.9143	55.6641	84.892	55.6641	84.9468	55.6641	84.9302	55.6641	84.9704	55.6641	84.9596	55.6641	84.9841	55.6641	84.9788	55.6641	84.9871
58.5938	84.2442	58.5938	84.2487	58.5938	84.2504	58.5938	84.2638	58.5938	84.2673	58.5938	84.2888	58.5938	84.2939	58.5938	84.3225	58.5938	84.3292	58.5938	84.3634	58.5938	84.3716	58.5938	84.4097	58.5938	84.4193	58.5938	84.4593	58.5938	84.4703	58.5938	84.5103	58.5938	84.5225	58.5938	84.5608	58.5938	84.5742	58.5938	84.609	58.5938	84.6236	58.5938	84.6538	58.5938	84.6693	58.5938	84.6942	58.5938	84.7103	58.5938	84.7295	58.5938	84.7458	58.5938	84.7596	58.5938	84.775	58.5938	84.7841	58.5938	84.7975	58.5938	84.8029	58.5938	84.8129	58.5938	84.8156	58.5938	84.821	58.5938	84.8218
60.0586	84.1976	60.0586	84.2007	60.0586	84.2046	60.0586	84.2139	60.0586	84.2215	60.0586	84.2364	60.0586	84.2475	60.0586	84.2671	60.0586	84.2814	60.0586	84.3046	60.0586	84.3217	60.0586	84.347	60.0586	84.3666	60.0586	84.3924	60.0586	84.4141	60.0586	84.4387	60.0586	84.4621	60.0586	84.4841	60.0586	84.5089	60.0586	84.5268	60.0586	84.5528	60.0586	84.5658	60.0586	84.5925	60.0586	84.6002	60.0586	84.6271	60.0586	84.6299	60.0586	84.6561	60.0586	84.6549	60.0586	84.6789	60.0586	84.6753	60.0586	84.6956	60.0586	84.6913	60.0586	84.7062	60.0586	84.7028	60.0586	84.7107	60.0586	84.7094
62.9883	84.0281	62.9883	84.0271	62.9883	84.0381	62.9883	84.035	62.9883	84.0566	62.9883	84.0512	62.9883	84.0827	62.9883	84.0748	62.9883	84.1153	62.9883	84.1045	62.9883	84.1526	62.9883	84.1386	62.9883	84.193	62.9883	84.1752	62.9883	84.2342	62.9883	84.2124	62.9883	84.2743	62.9883	84.2483	62.9883	84.3114	62.9883	84.2813	62.9883	84.3439	62.9883	84.3103	62.9883	84.3707	62.9883	84.3347	62.9883	84.3912	62.9883	84.3546	62.9883	84.4054	62.9883	84.3704	62.9883	84.4138	62.9883	84.3829	62.9883	84.4173	62.9883	84.393	62.9883	84.4168	62.9883	84.4013	62.9883	84.4135	62.9883	84.4082
64.4531	83.938	64.4531	83.9352	64.4531	83.9496	64.4531	83.9412	64.4531	83.9694	64.4531	83.9555	64.4531	83.9968	64.4531	83.9773	64.4531	84.0302	64.4531	84.0054	64.4531	84.0682	64.4531	84.038	64.4531	84.1089	64.4531	84.0735	64.4531	84.1502	64.4531	84.1098	64.4531	84.19	64.4531	84.1451	64.4531	84.2262	64.4531	84.1776	64.4531	84.2574	64.4531	84.2061	64.4531	84.2822	64.4531	84.23	64.4531	84.3001	64.4531	84.2493	64.4531	84.3113	64.4531	84.2644	64.4531	84.3164	64.4531	84.2762	64.4531	84.3165	64.4531	84.2857	64.4531	84.3132	64.4531	84.2938	64.4531	84.3078	64.4531	84.3011
67.3828	83.801	67.3828	83.7959	67.3828	83.8139	67.3828	83.7986	67.3828	83.8341	67.3828	83.8088	67.3828	83.8607	67.3828	83.8257	67.3828	83.8926	67.3828	83.8482	67.3828	83.9281	67.3828	83.8747	67.3828	83.9655	67.3828	83.9034	67.3828	84.0025	67.3828	83.9325	67.3828	84.0371	67.3828	83.9599	67.3828	84.0672	67.3828	83.9842	67.3828	84.091	67.3828	84.004	67.3828	84.1073	67.3828	84.0191	67.3828	84.1157	67.3828	84.0298	67.3828	84.1164	67.3828	84.0371	67.3828	84.1108	67.3828	84.0427	67.3828	84.1006	67.3828	84.0482	67.3828	84.0882	67.3828	84.055	67.3828	84.0755	67.3828	84.0641
68.8477	83.7519	68.8477	83.7463	68.8477	83.7647	68.8477	83.7478	68.8477	83.7842	68.8477	83.7561	68.8477	83.8096	68.8477	83.7705	68.8477	83.8398	68.8477	83.7898	68.8477	83.8733	68.8477	83.8127	68.8477	83.9082	68.8477	83.8374	68.8477	83.9424	68.8477	83.8621	68.8477	83.9739	68.8477	83.8852	68.8477	84.0005	68.8477	83.9052	68.8477	84.0206	68.8477	83.9211	68.8477	84.0332	68.8477	83.9328	68.8477	84.0378	68.8477	83.9407	68.8477	84.035	68.8477	83.946	68.8477	84.0263	68.8477	83.9503	68.8477	84.0134	68.8477	83.9552	68.8477	83.9987	68.8477	83.9621	68.8477	83.9844	68.8477	83.9719
71.7773	83.7215	71.7773	83.7139	71.7773	83.7345	71.7773	83.7117	71.7773	83.7523	71.7773	83.7149	71.7773	83.7743	71.7773	83.7228	71.7773	83.7995	71.7773	83.7348	71.7773	83.8264	71.7773	83.7496	71.7773	83.8534	71.7773	83.7659	71.7773	83.8788	71.7773	83.782	71.7773	83.9008	71.7773	83.7966	71.7773	83.9174	71.7773	83.8082	71.7773	83.9274	71.7773	83.8162	71.7773	83.9299	71.7773	83.8202	71.7773	83.9248	71.7773	83.8209	71.7773	83.913	71.7773	83.8195	71.7773	83.8963	71.7773	83.8176	71.7773	83.877	71.7773	83.8173	71.7773	83.8578	71.7773	83.8204	71.7773	83.8409	71.7773	83.8282
74.707	83.7409	74.707	83.7307	74.707	83.7559	74.707	83.7255	74.707	83.7753	74.707	83.7252	74.707	83.7982	74.707	83.7291	74.707	83.8237	74.707	83.7366	74.707	83.8503	74.707	83.7466	74.707	83.8763	74.707	83.7575	74.707	83.8998	74.707	83.7679	74.707	83.9187	74.707	83.7763	74.707	83.9312	74.707	83.7812	74.707	83.9355	74.707	83.782	74.707	83.9308	74.707	83.7787	74.707	83.9172	74.707	83.7721	74.707	83.8958	74.707	83.7641	74.707	83.8688	74.707	83.7572	74.707	83.8393	74.707	83.754	74.707	83.8107	74.707	83.7571	74.707	83.786	74.707	83.7677
77.6367	83.8208	77.6367	83.8184	77.6367	83.8273	77.6367	83.8201	77.6367	83.8378	77.6367	83.8255	77.6367	83.8518	77.6367	83.8341	77.6367	83.8687	77.6367	83.8452	77.6367	83.8872	77.6367	83.8574	77.6367	83.9061	77.6367	83.8696	77.6367	83.9236	77.6367	83.88	77.6367	83.9377	77.6367	83.887	77.6367	83.9464	77.6367	83.8893	77.6367	83.9482	77.6367	83.8859	77.6367	83.942	77.6367	83.8767	77.6367	83.928	77.6367	83.8628	77.6367	83.9074	77.6367	83.8459	77.6367	83.8826	77.6367	83.8289	77.6367	83.8568	77.6367	83.8149	77.6367	83.8337	77.6367	83.807	77.6367	83.8164	77.6367	83.8072
79.1016	83.8738	79.1016	83.8744	79.1016	83.8768	79.1016	83.8785	79.1016	83.8834	79.1016	83.886	79.1016	83.8932	79.1016	83.8961	79.1016	83.9057	79.1016	83.9083	79.1016	83.92	79.1016	83.9213	79.1016	83.9349	79.1016	83.9337	79.1016	83.9488	79.1016	83.9439	79.1016	83.96	79.1016	83.9503	79.1016	83.9667	79.1016	83.9514	79.1016	83.9673	79.1016	83.9464	79.1016	83.9609	79.1016	83.9351	79.1016	83.9477	79.1016	83.9186	79.1016	83.9288	79.1016	83.8988	79.1016	83.9065	79.1016	83.8786	79.1016	83.8839	79.1016	83.8612	79.1016	83.8644	79.1016	83.8495	79.1016	83.8511	79.1016	83.8459
82.0312	84.0355	82.0312	84.0369	82.0312	84.0365	82.0312	84.0405	82.0312	84.0397	82.0312	84.0461	82.0312	84.045	82.0312	84.0533	82.0312	84.0523	82.0312	84.0617	82.0312	84.061	82.0312	84.0702	82.0312	84.0701	82.0312	84.0775	82.0312	84.0784	82.0312	84.0823	82.0312	84.0844	82.0312	84.0829	82.0312	84.0864	82.0312	84.078	82.0312	84.0827	82.0312	84.0668	82.0312	84.0725	82.0312	84.0493	82.0312	84.0556	82.0312	84.0268	82.0312	84.033	82.0312	84.0016	82.0312	84.0072	82.0312	83.9767	82.0312	83.9812	82.0312	83.9557	82.0312	83.9589	82.0312	83.9419	82.0312	83.9435	82.0312	83.9375
84.9609	84.2032	84.9609	84.2045	84.9609	84.2039	84.9609	84.2079	84.9609	84.2064	84.9609	84.2135	84.9609	84.2107	84.9609	84.2213	84.9609	84.2164	84.9609	84.2307	84.9609	84.2231	84.9609	84.241	84.9609	84.2301	84.9609	84.251	84.9609	84.2364	84.9609	84.2591	84.9609	84.2407	84.9609	84.2636	84.9609	84.2415	84.9609	84.2627	84.9609	84.2374	84.9609	84.2553	84.9609	84.2275	84.9609	84.2411	84.9609	84.2119	84.9609	84.2207	84.9609	84.1916	84.9609	84.1961	84.9609	84.1689	84.9609	84.1702	84.9609	84.147	84.9609	84.1466	84.9609	84.1295	84.9609	84.1287	84.9609	84.1196	84.9609	84.1192
87.8906	84.4001	87.8906	84.4036	87.8906	84.3972	87.8906	84.4076	87.8906	84.3948	87.8906	84.4123	87.8906	84.3928	87.8906	84.4174	87.8906	84.3909	87.8906	84.4225	87.8906	84.3889	87.8906	84.4268	87.8906	84.386	87.8906	84.4293	87.8906	84.3814	87.8906	84.4284	87.8906	84.3739	87.8906	84.4224	87.8906	84.3622	87.8906	84.4098	87.8906	84.3455	87.8906	84.3895	87.8906	84.3232	87.8906	84.3615	87.8906	84.2957	87.8906	84.3269	87.8906	84.2648	87.8906	84.2884	87.8906	84.2332	87.8906	84.2496	87.8906	84.2045	87.8906	84.2148	87.8906	84.1828	87.8906	84.1883	87.8906	84.1717	87.8906	84.1734
90.8203	84.5183	90.8203	84.5198	90.8203	84.5161	90.8203	84.5207	90.8203	84.5133	90.8203	84.5212	90.8203	84.5098	90.8203	84.5214	90.8203	84.5055	90.8203	84.521	90.8203	84.5002	90.8203	84.5197	90.8203	84.493	90.8203	84.5165	90.8203	84.4831	90.8203	84.5102	90.8203	84.4691	90.8203	84.499	90.8203	84.4498	90.8203	84.4812	90.8203	84.4244	90.8203	84.4558	90.8203	84.3926	90.8203	84.4225	90.8203	84.3555	90.8203	84.3823	90.8203	84.3152	90.8203	84.338	90.8203	84.2753	90.8203	84.2934	90.8203	84.2401	90.8203	84.2531	90.8203	84.2142	90.8203	84.2221	90.8203	84.2015	90.8203	84.2041
95.2148	84.684	95.2148	84.6837	95.2148	84.6836	95.2148	84.6825	95.2148	84.6827	95.2148	84.6806	95.2148	84.6818	95.2148	84.6782	95.2148	84.6813	95.2148	84.6755	95.2148	84.6811	95.2148	84.6725	95.2148	84.6808	95.2148	84.6686	95.2148	84.6792	95.2148	84.6627	95.2148	84.6748	95.2148	84.6533	95.2148	84.6655	95.2148	84.6388	95.2148	84.6496	95.2148	84.6179	95.2148	84.6261	95.2148	84.5904	95.2148	84.5949	95.2148	84.5574	95.2148	84.5579	95.2148	84.5212	95.2148	84.5182	95.2148	84.4855	95.2148	84.4803	95.2148	84.4547	95.2148	84.4494	95.2148	84.4331	95.2148	84.4298	95.2148	84.4242
98.1445	84.7685	98.1445	84.7702	98.1445	84.7649	98.1445	84.77	98.1445	84.76	98.1445	84.7681	98.1445	84.7543	98.1445	84.7649	98.1445	84.7484	98.1445	84.7606	98.1445	84.7428	98.1445	84.7553	98.1445	84.7373	98.1445	84.7487	98.1445	84.7314	98.1445	84.7399	98.1445	84.7238	98.1445	84.7276	98.1445	84.7129	98.1445	84.7103	98.1445	84.697	98.1445	84.687	98.1445	84.6751	98.1445	84.6576	98.1445	84.6466	98.1445	84.6232	98.1445	84.6129	98.1445	84.5864	98.1445	84.5767	98.1445	84.5506	98.1445	84.5419	98.1445	84.52	98.1445	84.5133	98.1445	84.4987	98.1445	84.495	98.1445	84.4899
101.074	84.792	101.074	84.7945	101.074	84.7854	101.074	84.7928	101.074	84.7751	101.074	84.7874	101.074	84.7619	101.074	84.779	101.074	84.747	101.074	84.7685	101.074	84.7313	101.074	84.7563	101.074	84.7153	101.074	84.7423	101.074	84.6991	101.074	84.7262	101.074	84.6819	101.074	84.7068	101.074	84.6627	101.074	84.6831	101.074	84.6402	101.074	84.6543	101.074	84.6136	101.074	84.6205	101.074	84.5828	101.074	84.5829	101.074	84.5491	101.074	84.5438	101.074	84.5147	101.074	84.5066	101.074	84.4831	101.074	84.4748	101.074	84.4583	101.074	84.4522	101.074	84.4436	101.074	84.4414
105.469	85.0367	105.469	85.0168	105.469	85.0447	105.469	84.9862	105.469	85.0402	105.469	84.9467	105.469	85.0236	105.469	84.9007	105.469	84.9958	105.469	84.8504	105.469	84.9586	105.469	84.7981	105.469	84.9138	105.469	84.7453	105.469	84.8634	105.469	84.6929	105.469	84.809	105.469	84.6409	105.469	84.7517	105.469	84.5891	105.469	84.6923	105.469	84.5372	105.469	84.6311	105.469	84.4854	105.469	84.5689	105.469	84.4353	105.469	84.5072	105.469	84.389	105.469	84.4483	105.469	84.3498	105.469	84.3953	105.469	84.3209	105.469	84.3517	105.469	84.3053	105.469	84.3209	105.469	84.3051
108.398	85.155	108.398	85.1348	108.398	85.166	108.398	85.1056	108.398	85.1679	108.398	85.0679	108.398	85.1607	108.398	85.0225	108.398	85.1446	108.398	84.9706	108.398	85.1197	108.398	84.9134	108.398	85.0861	108.398	84.8524	108.398	85.0436	108.398	84.7886	108.398	84.9924	108.398	84.7228	108.398	84.9323	108.398	84.6554	108.398	84.8637	108.398	84.5872	108.398	84.7872	108.398	84.5194	108.398	84.7047	108.398	84.4542	108.398	84.6186	108.398	84.3949	108.398	84.5331	108.398	84.3457	108.398	84.4533	108.398	84.3113	108.398	84.3849	108.398	84.2962	108.398	84.3335	108.398	84.3033
112.793	85.2052	112.793	85.2087	112.793	85.193	112.793	85.2029	112.793	85.1733	112.793	85.1876	112.793	85.1476	112.793	85.1631	112.793	85.1173	112.793	85.1303	112.793	85.0835	112.793	85.09	112.793	85.0468	112.793	85.0432	112.793	85.0073	112.793	84.9908	112.793	84.9642	112.793	84.9334	112.793	84.917	112.793	84.8716	112.793	84.8649	112.793	84.8064	112.793	84.808	112.793	84.7393	112.793	84.7471	112.793	84.6728	112.793	84.6839	112.793	84.61	112.793	84.6218	112.793	84.5549	112.793	84.5651	112.793	84.5116	112.793	84.5189	112.793	84.4844	112.793	84.4881	112.793	84.4761
117.188	85.3057	117.188	85.3027	117.188	85.2961	117.188	85.2875	117.188	85.2746	117.188	85.2607	117.188	85.2422	117.188	85.2236	117.188	85.2006	117.188	85.1779	117.188	85.1516	117.188	85.125	117.188	85.0966	117.188	85.066	117.188	85.037	117.188	85.0019	117.188	84.9736	117.188	84.933	117.188	84.9067	117.188	84.8599	117.188	84.8369	117.188	84.7834	117.188	84.7648	117.188	84.7053	117.188	84.6917	117.188	84.6284	117.188	84.6198	117.188	84.5566	117.188	84.5524	117.188	84.4945	117.188	84.4932	117.188	84.4464	117.188	84.4467	117.188	84.4162	117.188	84.4167	117.188	84.4061
120.117	85.3494	120.117	85.3385	120.117	85.3473	120.117	85.3146	120.117	85.3327	120.117	85.2786	120.117	85.3066	120.117	85.2316	120.117	85.2705	120.117	85.1755	120.117	85.2258	120.117	85.1122	120.117	85.1739	120.117	85.0435	120.117	85.1159	120.117	84.9712	120.117	85.0528	120.117	84.8965	120.117	84.9852	120.117	84.8207	120.117	84.9136	120.117	84.7451	120.117	84.8389	120.117	84.6716	120.117	84.7626	120.117	84.6028	120.117	84.687	120.117	84.5418	120.117	84.6152	120.117	84.4921	120.117	84.551	120.117	84.4572	120.117	84.4984	120.117	84.4396	120.117	84.4607	120.117	84.4407
124.512	85.4218	124.512	85.4061	124.512	85.4252	124.512	85.378	124.512	85.4169	124.512	85.3382	124.512	85.3981	124.512	85.288	124.512	85.3702	124.512	85.2291	124.512	85.3348	124.512	85.1635	124.512	85.2932	124.512	85.0933	124.512	85.2463	124.512	85.0201	124.512	85.1944	124.512	84.9457	124.512	85.1376	124.512	84.8715	124.512	85.0756	124.512	84.7992	124.512	85.0084	124.512	84.7309	124.512	84.9368	124.512	84.6693	124.512	84.8623	124.512	84.6177	124.512	84.788	124.512	84.5796	124.512	84.7174	124.512	84.5581	124.512	84.6551	124.512	84.5549	124.512	84.6051	124.512	84.5709
128.906	85.4377	128.906	85.4305	128.906	85.4311	128.906	85.4089	128.906	85.412	128.906	85.3735	128.906	85.3823	128.906	85.3256	128.906	85.3447	128.906	85.2674	128.906	85.3015	128.906	85.2012	128.906	85.2548	128.906	85.1292	128.906	85.2061	128.906	85.0538	128.906	85.156	128.906	84.9768	128.906	85.1044	128.906	84.9001	128.906	85.0507	128.906	84.8257	128.906	84.9944	128.906	84.7562	128.906	84.9351	128.906	84.6947	128.906	84.8734	128.906	84.6447	128.906	84.8108	128.906	84.6096	128.906	84.7498	128.906	84.592	128.906	84.6938	128.906	84.5929	128.906	84.6465	128.906	84.6118
133.301	85.5021	133.301	85.511	133.301	85.4764	133.301	85.5026	133.301	85.4356	133.301	85.4775	133.301	85.3825	133.301	85.4372	133.301	85.3203	133.301	85.384	133.301	85.2525	133.301	85.3207	133.301	85.1823	133.301	85.2498	133.301	85.1123	133.301	85.1735	133.301	85.0443	133.301	85.0935	133.301	84.9789	133.301	85.0112	133.301	84.9165	133.301	84.9283	133.301	84.8568	133.301	84.847	133.301	84.7999	133.301	84.7705	133.301	84.7463	133.301	84.7027	133.301	84.6971	133.301	84.6478	133.301	84.654	133.301	84.6088	133.301	84.6191	133.301	84.5873	133.301	84.5946	133.301	84.5832
139.16	85.5478	139.16	85.5545	139.16	85.5215	139.16	85.5417	139.16	85.4767	139.16	85.5107	139.16	85.4155	139.16	85.464	139.16	85.3411	139.16	85.4048	139.16	85.2573	139.16	85.3364	139.16	85.1681	139.16	85.2621	139.16	85.077	139.16	85.1844	139.16	84.987	139.16	85.1049	139.16	84.9001	139.16	85.0241	139.16	84.8174	139.16	84.9423	139.16	84.7398	139.16	84.8598	139.16	84.6684	139.16	84.7779	139.16	84.6047	139.16	84.699	139.16	84.551	139.16	84.6267	139.16	84.5101	139.16	84.5651	139.16	84.4846	139.16	84.5178	139.16	84.4769	139.16	84.488
143.555	85.5197	143.555	85.5087	143.555	85.5096	143.555	85.4772	143.555	85.4792	143.555	85.4271	143.555	85.4308	143.555	85.3616	143.555	85.3675	143.555	85.2849	143.555	85.2931	143.555	85.2016	143.555	85.2113	143.555	85.1162	143.555	85.1259	143.555	85.0323	143.555	85.0397	143.555	84.9526	143.555	84.955	143.555	84.878	143.555	84.8732	143.555	84.8086	143.555	84.7953	143.555	84.7441	143.555	84.7223	143.555	84.6841	143.555	84.6556	143.555	84.6292	143.555	84.5973	143.555	84.5806	143.555	84.5501	143.555	84.5405	143.555	84.5165	143.555	84.5119	143.555	84.4986	143.555	84.4972
147.949	85.5591	147.949	85.5398	147.949	85.5532	147.949	85.4956	147.949	85.5232	147.949	85.429	147.949	85.4721	147.949	85.3435	147.949	85.4037	147.949	85.2441	147.949	85.3227	147.949	85.1365	147.949	85.2338	147.949	85.0261	147.949	85.1412	147.949	84.9181	147.949	85.0481	147.949	84.8163	147.949	84.9567	147.949	84.7234	147.949	84.8682	147.949	84.6412	147.949	84.7832	147.949	84.5703	147.949	84.7024	147.949	84.511	147.949	84.6268	147.949	84.4633	147.949	84.5583	147.949	84.4275	147.949	84.4989	147.949	84.4041	147.949	84.4512	147.949	84.3939	147.949	84.4172	147.949	84.3981
153.809	85.7263	153.809	85.7138	153.809	85.7068	153.809	85.67	153.809	85.6569	153.809	85.5972	153.809	85.5797	153.809	85.4995	153.809	85.4803	153.809	85.3824	153.809	85.3647	153.809	85.252	153.809	85.2395	153.809	85.1146	153.809	85.1109	153.809	84.9764	153.809	84.9847	153.809	84.8429	153.809	84.8649	153.809	84.719	153.809	84.7543	153.809	84.6086	153.809	84.6542	153.809	84.5147	153.809	84.5652	153.809	84.4387	153.809	84.4876	153.809	84.3805	153.809	84.422	153.809	84.3387	153.809	84.3692	153.809	84.3111	153.809	84.3301	153.809	84.2964	153.809	84.3052	153.809	84.2943
159.668	85.7472	159.668	85.7412	159.668	85.7237	159.668	85.7061	159.668	85.6723	159.668	85.6444	159.668	85.5963	159.668	85.5601	159.668	85.5003	159.668	85.4587	159.668	85.39	159.668	85.3464	159.668	85.2714	159.668	85.2293	159.668	85.1504	159.668	85.1127	159.668	85.0321	159.668	85.0008	159.668	84.9208	159.668	84.8966	159.668	84.8196	159.668	84.8022	159.668	84.7305	159.668	84.719	159.668	84.6545	159.668	84.6482	159.668	84.5922	159.668	84.5904	159.668	84.5436	159.668	84.5454	159.668	84.5086	159.668	84.5122	159.668	84.4865	159.668	84.4899	159.668	84.4766	159.668	84.478
165.527	85.8441	165.527	85.8323	165.527	85.8226	165.527	85.7875	165.527	85.7697	165.527	85.7123	165.527	85.6896	165.527	85.6113	165.527	85.5881	165.527	85.4912	165.527	85.4723	165.527	85.3594	165.527	85.3495	165.527	85.2241	165.527	85.2269	165.527	85.0926	165.527	85.1103	165.527	84.9711	165.527	85.0044	165.527	84.8645	165.527	84.9121	165.527	84.776	165.527	84.8346	165.527	84.7074	165.527	84.7719	165.527	84.659	165.527	84.723	165.527	84.6289	165.527	84.6862	165.527	84.6138	165.527	84.6594	165.527	84.6092	165.527	84.6403	165.527	84.6113	165.527	84.6268	165.527	84.6174
171.387	85.8372	171.387	85.8155	171.387	85.8228	171.387	85.7582	171.387	85.7737	171.387	85.6681	171.387	85.6932	171.387	85.5497	171.387	85.5867	171.387	85.4094	171.387	85.4606	171.387	85.2546	171.387	85.3223	171.387	85.0937	171.387	85.1795	171.387	84.9353	171.387	85.0392	171.387	84.7871	171.387	84.9077	171.387	84.656	171.387	84.7901	171.387	84.5476	171.387	84.6901	171.387	84.4655	171.387	84.6095	171.387	84.4114	171.387	84.5483	171.387	84.3834	171.387	84.5043	171.387	84.377	171.387	84.4737	171.387	84.3849	171.387	84.4518	171.387	84.4	171.387	84.4341	171.387	84.4172
177.246	85.6727	177.246	85.6559	177.246	85.6516	177.246	85.6013	177.246	85.5947	177.246	85.5114	177.246	85.5065	177.246	85.3907	177.246	85.3932	177.246	85.2454	177.246	85.2627	177.246	85.0831	177.246	85.1232	177.246	84.9117	177.246	84.9829	177.246	84.7394	177.246	84.8488	177.246	84.5736	177.246	84.7261	177.246	84.4215	177.246	84.6181	177.246	84.2895	177.246	84.5258	177.246	84.1833	177.246	84.4487	177.246	84.1073	177.246	84.3843	177.246	84.0634	177.246	84.3291	177.246	84.05	177.246	84.2793	177.246	84.0626	177.246	84.2313	177.246	84.0939	177.246	84.1834	177.246	84.1364
183.105	85.367	183.105	85.3753	183.105	85.3191	183.105	85.3438	183.105	85.2344	183.105	85.2747	183.105	85.118	183.105	85.1729	183.105	84.9771	183.105	85.0449	183.105	84.8206	183.105	84.8988	183.105	84.658	183.105	84.7431	183.105	84.4983	183.105	84.5861	183.105	84.3497	183.105	84.435	183.105	84.2186	183.105	84.296	183.105	84.1092	183.105	84.1739	183.105	84.024	183.105	84.073	183.105	83.9635	183.105	83.996	183.105	83.9259	183.105	83.9436	183.105	83.9075	183.105	83.9139	183.105	83.9022	183.105	83.9021	183.105	83.9033	183.105	83.901	183.105	83.9047	183.105	83.9035
188.965	85.2879	188.965	85.304	188.965	85.2236	188.965	85.2729	188.965	85.1128	188.965	85.1983	188.965	84.96	188.965	85.0865	188.965	84.7728	188.965	84.9461	188.965	84.5611	188.965	84.787	188.965	84.3375	188.965	84.6198	188.965	84.1162	188.965	84.454	188.965	83.9115	188.965	84.2978	188.965	83.7362	188.965	84.1569	188.965	83.5992	188.965	84.0351	188.965	83.5048	188.965	83.9338	188.965	83.4521	188.965	83.8526	188.965	83.436	188.965	83.7891	188.965	83.449	188.965	83.7392	188.965	83.482	188.965	83.6975	188.965	83.5261	188.965	83.6586	188.965	83.5731	188.965	83.6178
196.289	85.3608	196.289	85.3433	196.289	85.3279	196.289	85.2773	196.289	85.2446	196.289	85.1671	196.289	85.1135	196.289	85.0185	196.289	84.9395	196.289	84.839	196.289	84.73	196.289	84.6375	196.289	84.4949	196.289	84.4239	196.289	84.2461	196.289	84.2089	196.289	83.9978	196.289	84.0039	196.289	83.7658	196.289	83.8204	196.289	83.5659	196.289	83.6696	196.289	83.4117	196.289	83.5597	196.289	83.3112	196.289	83.4931	196.289	83.264	196.289	83.4638	196.289	83.2623	196.289	83.4582	196.289	83.2925	196.289	83.4591	196.289	83.3392	196.289	83.4517	196.289	83.3883	196.289	83.4281
203.613	85.2654	203.613	85.2221	203.613	85.2523	203.613	85.1235	203.613	85.1845	203.613	84.9735	203.613	85.0653	203.613	84.7792	203.613	84.8997	203.613	84.5503	203.613	84.6938	203.613	84.2987	203.613	84.4549	203.613	84.0367	203.613	84.1917	203.613	83.776	203.613	83.9148	203.613	83.5273	203.613	83.6376	203.613	83.3013	203.613	83.3763	203.613	83.1091	203.613	83.1484	203.613	82.962	203.613	82.9705	203.613	82.8678	203.613	82.8532	203.613	82.8266	203.613	82.7971	203.613	82.8268	203.613	82.7911	203.613	82.8476	203.613	82.8154	203.613	82.8664	203.613	82.8472	203.613	82.8674
210.938	85.373	210.938	85.3182	210.938	85.3742	210.938	85.2099	210.938	85.3239	210.938	85.0504	210.938	85.2257	210.938	84.8447	210.938	85.0852	210.938	84.6005	210.938	84.9095	210.938	84.3281	210.938	84.7071	210.938	84.04	210.938	84.4864	210.938	83.7494	210.938	84.2555	210.938	83.4695	210.938	84.0217	210.938	83.2125	210.938	83.7916	210.938	82.9899	210.938	83.5717	210.938	82.8124	210.938	83.3694	210.938	82.6885	210.938	83.1919	210.938	82.6211	210.938	83.0446	210.938	82.6043	210.938	82.9292	210.938	82.6248	210.938	82.8419	210.938	82.6666	210.938	82.7744	210.938	82.7176
218.262	85.1448	218.262	85.1397	218.262	85.1015	218.262	85.0838	218.262	85.014	218.262	84.9765	218.262	84.8876	218.262	84.8202	218.262	84.7289	218.262	84.6207	218.262	84.5459	218.262	84.3872	218.262	84.3483	218.262	84.1323	218.262	84.1469	218.262	83.8706	218.262	83.9529	218.262	83.6171	218.262	83.7759	218.262	83.3858	218.262	83.623	218.262	83.1888	218.262	83.4975	218.262	83.0361	218.262	83.3989	218.262	82.9348	218.262	83.3233	218.262	82.8872	218.262	83.2642	218.262	82.8884	218.262	83.2137	218.262	82.9263	218.262	83.1642	218.262	82.9847	218.262	83.11	218.262	83.0491
225.586	85.3478	225.586	85.3788	225.586	85.2554	225.586	85.3462	225.586	85.1068	225.586	85.2512	225.586	84.9099	225.586	85.0989	225.586	84.6748	225.586	84.8982	225.586	84.4137	225.586	84.662	225.586	84.141	225.586	84.4052	225.586	83.8732	225.586	84.1442	225.586	83.6285	225.586	83.8944	225.586	83.4255	225.586	83.6703	225.586	83.2801	225.586	83.4849	225.586	83.2019	225.586	83.3505	225.586	83.1899	225.586	83.276	225.586	83.2321	225.586	83.2628	225.586	83.3068	225.586	83.3002	225.586	83.3883	225.586	83.366	225.586	83.4533	225.586	83.4328	225.586	83.4853	225.586	83.4773
232.91	85.6483	232.91	85.6531	232.91	85.5736	232.91	85.588	232.91	85.4313	232.91	85.4548	232.91	85.2256	232.91	85.2582	232.91	84.9627	232.91	85.006	232.91	84.6514	232.91	84.7102	232.91	84.3029	232.91	84.3874	232.91	83.9319	232.91	84.0578	232.91	83.5576	232.91	83.7431	232.91	83.2037	232.91	83.4622	232.91	82.8975	232.91	83.228	232.91	82.6652	232.91	83.0473	232.91	82.5257	232.91	82.9237	232.91	82.4833	232.91	82.8578	232.91	82.524	232.91	82.8428	232.91	82.6179	232.91	82.8593	232.91	82.7275	232.91	82.8778	232.91	82.8186	232.91	82.8697
241.699	85.6063	241.699	85.5884	241.699	85.5612	241.699	85.5064	241.699	85.4563	241.699	85.3618	241.699	85.2967	241.699	85.1589	241.699	85.0884	241.699	84.9058	241.699	84.8377	241.699	84.6144	241.699	84.5511	241.699	84.3005	241.699	84.235	241.699	83.9827	241.699	83.8963	241.699	83.6803	241.699	83.5448	241.699	83.4094	241.699	83.1957	241.699	83.1796	241.699	82.8716	241.699	82.9924	241.699	82.6017	241.699	82.8454	241.699	82.4149	241.699	82.7361	241.699	82.3262	241.699	82.6616	241.699	82.326	241.699	82.6132	241.699	82.3832	241.699	82.5743	241.699	82.4593	241.699	82.5261
250.488	85.7847	250.488	85.7862	250.488	85.7142	250.488	85.7178	250.488	85.5766	250.488	85.58	250.488	85.3756	250.488	85.3737	250.488	85.1176	250.488	85.102	250.488	84.8129	250.488	84.7713	250.488	84.4763	250.488	84.3947	250.488	84.1288	250.488	83.9957	250.488	83.7958	250.488	83.6099	250.488	83.5029	250.488	83.2795	250.488	83.2675	250.488	83.0382	250.488	83.0934	250.488	82.8945	250.488	82.9728	250.488	82.8289	250.488	82.8943	250.488	82.8108	250.488	82.85	250.488	82.8159	250.488	82.8344	250.488	82.8308	250.488	82.8392	250.488	82.8466	250.488	82.8504	250.488	82.8546
259.277	86.0418	259.277	85.9935	259.277	86.0143	259.277	85.8722	259.277	85.9103	259.277	85.6823	259.277	85.7316	259.277	85.429	259.277	85.4834	259.277	85.1179	259.277	85.1733	259.277	84.7546	259.277	84.811	259.277	84.345	259.277	84.4081	259.277	83.8991	259.277	83.9798	259.277	83.4371	259.277	83.5478	259.277	82.9981	259.277	83.143	259.277	82.6374	259.277	82.8016	259.277	82.4059	259.277	82.555	259.277	82.3166	259.277	82.4163	259.277	82.3345	259.277	82.3734	259.277	82.4005	259.277	82.3948	259.277	82.4658	259.277	82.4434	259.277	82.5054	259.277	82.4889	259.277	82.5124
268.066	85.6971	268.066	85.655	268.066	85.6599	268.066	85.5352	268.066	85.5434	268.066	85.3413	268.066	85.3498	268.066	85.0797	268.066	85.083	268.066	84.7592	268.066	84.7503	268.066	84.3903	268.066	84.3639	268.066	83.9849	268.066	83.9439	268.066	83.5563	268.066	83.5195	268.066	83.1233	268.066	83.1265	268.066	82.7162	268.066	82.7981	268.066	82.3784	268.066	82.5532	268.066	82.1541	268.066	82.3924	268.066	82.0636	268.066	82.3056	268.066	82.0886	268.066	82.2812	268.066	82.1817	268.066	82.3057	268.066	82.2907	268.066	82.3564	268.066	82.3756	268.066	82.4022	268.066	82.4138
276.855	85.7095	276.855	85.6601	276.855	85.6735	276.855	85.5272	276.855	85.5533	276.855	85.3155	276.855	85.3534	276.855	85.0309	276.855	85.0806	276.855	84.6802	276.855	84.7414	276.855	84.2707	276.855	84.3404	276.855	83.8104	276.855	83.8796	276.855	83.3084	276.855	83.3664	276.855	82.7801	276.855	82.8282	276.855	82.2582	276.855	82.327	276.855	81.8051	276.855	81.9501	276.855	81.5033	276.855	81.762	276.855	81.4082	276.855	81.7532	276.855	81.4979	276.855	81.85	276.855	81.6855	276.855	81.972	276.855	81.8799	276.855	82.0686	276.855	82.0259	276.855	82.1166	276.855	82.1047
287.109	85.6626	287.109	85.6135	287.109	85.6416	287.109	85.4951	287.109	85.5431	287.109	85.3027	287.109	85.3559	287.109	85.0313	287.109	85.0715	287.109	84.6807	287.109	84.6916	287.109	84.2609	287.109	84.2332	287.109	83.7916	287.109	83.7274	287.109	83.2992	287.109	83.2069	287.109	82.8105	287.109	82.6908	287.109	82.3521	287.109	82.1855	287.109	81.9597	287.109	81.7111	287.109	81.6886	287.109	81.3313	287.109	81.5991	287.109	81.144	287.109	81.7041	287.109	81.2087	287.109	81.934	287.109	81.4794	287.109	82.1715	287.109	81.8297	287.109	82.3138	287.109	82.1318	287.109	82.3042
297.363	86.0672	297.363	86.1478	297.363	85.886	297.363	86.1155	297.363	85.6253	297.363	85.9681	297.363	85.3069	297.363	85.7106	297.363	84.9411	297.363	85.3515	297.363	84.5175	297.363	84.9011	297.363	84.0096	297.363	84.3707	297.363	83.395	297.363	83.7713	297.363	82.6854	297.363	83.1101	297.363	81.9542	297.363	82.3918	297.363	81.3388	297.363	81.6398	297.363	80.9808	297.363	80.9367	297.363	80.9212	297.363	80.4416	297.363	81.0704	297.363	80.3054	297.363	81.2941	297.363	80.5208	297.363	81.4978	297.363	80.9163	297.363	81.6326	297.363	81.3005	297.363	81.6649	297.363	81.5604
307.617	86.33	307.617	86.2619	307.617	86.2998	307.617	86.0989	307.617	86.1671	307.617	85.8428	307.617	85.93	307.617	85.4934	307.617	85.5921	307.617	85.0499	307.617	85.1646	307.617	84.5137	307.617	84.6617	307.617	83.896	307.617	84.09	307.617	83.2268	307.617	83.4405	307.617	82.5586	307.617	82.6944	307.617	81.9473	307.617	81.8489	307.617	81.4195	307.617	80.9555	307.617	80.9667	307.617	80.1498	307.617	80.5897	307.617	79.6204	307.617	80.3353	307.617	79.4787	307.617	80.2526	307.617	79.6516	307.617	80.3086	307.617	79.9543	307.617	80.3874	307.617	80.2253	307.617	80.3763
319.336	86.2873	319.336	86.2302	319.336	86.2319	319.336	86.0631	319.336	86.0613	319.336	85.7863	319.336	85.7743	319.336	85.3974	319.336	85.3721	319.336	84.8925	319.336	84.8574	319.336	84.2675	319.336	84.2363	319.336	83.5194	319.336	83.5226	319.336	82.6551	319.336	82.7445	319.336	81.7151	319.336	81.9503	319.336	80.8065	319.336	81.2082	319.336	80.0977	319.336	80.5978	319.336	79.7187	319.336	80.1929	319.336	79.6491	319.336	80.0347	319.336	79.7673	319.336	80.0996	319.336	79.9744	319.336	80.2945	319.336	80.2172	319.336	80.4978	319.336	80.4442	319.336	80.6122	319.336	80.592
329.59	85.919	329.59	85.8882	329.59	85.8835	329.59	85.7907	329.59	85.7769	329.59	85.6196	329.59	85.5918	329.59	85.361	329.59	85.3193	329.59	84.9971	329.59	84.9482	329.59	84.5095	329.59	84.462	329.59	83.8826	329.59	83.8381	329.59	83.1053	329.59	83.0518	329.59	82.1755	329.59	82.0916	329.59	81.1194	329.59	80.9884	329.59	80.0348	329.59	79.8562	329.59	79.1293	329.59	78.913	329.59	78.6465	329.59	78.4004	329.59	78.6478	329.59	78.3918	329.59	78.9448	329.59	78.7225	329.59	79.2962	329.59	79.1446	329.59	79.545	329.59	79.4727	329.59	79.6134
341.309	85.9681	341.309	85.9411	341.309	85.8975	341.309	85.8134	341.309	85.7357	341.309	85.5841	341.309	85.4894	341.309	85.2517	341.309	85.1617	341.309	84.8111	341.309	84.748	341.309	84.2499	341.309	84.2374	341.309	83.5461	341.309	83.6216	341.309	82.6705	341.309	82.911	341.309	81.6098	341.309	82.15	341.309	80.4246	341.309	81.417	341.309	79.3351	341.309	80.7995	341.309	78.6897	341.309	80.3619	341.309	78.6508	341.309	80.1361	341.309	79.0094	341.309	80.1197	341.309	79.4786	341.309	80.2537	341.309	79.9102	341.309	80.4244	341.309	80.2492	341.309	80.5154	341.309	80.4598
353.027	85.7919	353.027	85.7771	353.027	85.7128	353.027	85.6753	353.027	85.5319	353.027	85.4906	353.027	85.2427	353.027	85.2231	353.027	84.8408	353.027	84.8696	353.027	84.3217	353.027	84.4229	353.027	83.6766	353.027	83.8708	353.027	82.8853	353.027	83.1897	353.027	81.9122	353.027	82.3364	353.027	80.7167	353.027	81.2547	353.027	79.3105	353.027	79.9324	353.027	77.8998	353.027	78.5491	353.027	77.0197	353.027	77.6317	353.027	77.1234	353.027	77.6718	353.027	77.9078	353.027	78.3855	353.027	78.7867	353.027	79.1629	353.027	79.4593	353.027	79.6983	353.027	79.8433	353.027	79.9247
366.211	85.7486	366.211	85.6921	366.211	85.697	366.211	85.524	366.211	85.5429	366.211	85.2441	366.211	85.2892	366.211	84.8524	366.211	84.9314	366.211	84.3433	366.211	84.4562	366.211	83.706	366.211	83.8445	366.211	82.9353	366.211	83.0759	366.211	82.0457	366.211	82.1329	366.211	81.0728	366.211	81.0029	366.211	80.0491	366.211	79.6846	366.211	78.992	366.211	78.2293	366.211	77.9788	366.211	76.8585	366.211	77.2853	366.211	76.076	366.211	77.2657	366.211	76.2872	366.211	77.8487	366.211	77.1755	366.211	78.5609	366.211	78.1334	366.211	79.0353	366.211	78.8224	366.211	79.1311
379.395	86.4351	379.395	86.3842	379.395	86.381	379.395	86.229	379.395	86.2197	379.395	85.9644	379.395	85.9495	379.395	85.5782	379.395	85.5699	379.395	85.0517	379.395	85.08	379.395	84.3617	379.395	84.473	379.395	83.4811	379.395	83.7275	379.395	82.382	379.395	82.8049	379.395	81.0548	379.395	81.6631	379.395	79.5544	379.395	80.3004	379.395	78.0738	379.395	78.8374	379.395	76.9826	379.395	77.6082	379.395	76.6471	379.395	77.0529	379.395	77.0665	379.395	77.2861	379.395	77.8766	379.395	77.9783	379.395	78.6919	379.395	78.7316	379.395	79.2659	379.395	79.2787	379.395	79.4733
392.578	85.4985	392.578	85.4736	392.578	85.4742	392.578	85.3979	392.578	85.3933	392.578	85.2587	392.578	85.2413	392.578	85.0326	392.578	84.9953	392.578	84.6896	392.578	84.622	392.578	84.1939	392.578	84.0815	392.578	83.5006	392.578	83.3396	392.578	82.5546	392.578	82.3832	392.578	81.3053	392.578	81.2282	392.578	79.7495	392.578	79.9136	392.578	78.0291	392.578	78.5145	392.578	76.5962	392.578	77.2555	392.578	76.156	392.578	76.6442	392.578	76.8579	392.578	77.0477	392.578	78.0384	392.578	78.0638	392.578	79.0937	392.578	79.0657	392.578	79.7652	392.578	79.7377	392.578	79.9807
405.762	85.9677	405.762	85.9263	405.762	85.8898	405.762	85.7766	405.762	85.6936	405.762	85.5372	405.762	85.3899	405.762	85.2235	405.762	84.9922	405.762	84.8351	405.762	84.506	405.762	84.3456	405.762	83.9166	405.762	83.6986	405.762	83.1845	405.762	82.8134	405.762	82.2567	405.762	81.612	405.762	81.0969	405.762	80.0674	405.762	79.7405	405.762	78.2698	405.762	78.3817	405.762	76.5207	405.762	77.4275	405.762	75.4247	405.762	77.2555	405.762	75.5771	405.762	77.7657	405.762	76.7103	405.762	78.5153	405.762	78.0024	405.762	79.1509	405.762	78.959	405.762	79.4928	405.762	79.4493
420.41	86.0258	420.41	85.9601	420.41	85.9788	420.41	85.7917	420.41	85.8262	420.41	85.54	420.41	85.5882	420.41	85.221	420.41	85.2846	420.41	84.8357	420.41	84.9158	420.41	84.3669	420.41	84.4465	420.41	83.774	420.41	83.7994	420.41	82.9792	420.41	82.8577	420.41	81.8566	420.41	81.475	420.41	80.2622	420.41	79.4917	420.41	78.1679	420.41	76.8115	420.41	76.0613	420.41	73.8937	420.41	75.2514	420.41	72.9656	420.41	76.0721	420.41	74.7411	420.41	77.3369	420.41	76.7899	420.41	78.3826	420.41	78.2327	420.41	79.0562	420.41	79.0441	420.41	79.2968
435.059	85.4779	435.059	85.4667	435.059	85.4333	435.059	85.3983	435.059	85.323	435.059	85.2558	435.059	85.1325	435.059	85.0082	435.059	84.8507	435.059	84.6173	435.059	84.4744	435.059	84.0518	435.059	84.0106	435.059	83.3	435.059	83.4678	435.059	82.3652	435.059	82.8277	435.059	81.2292	435.059	82.0092	435.059	79.8126	435.059	80.8769	435.059	78.008	435.059	79.3313	435.059	75.9284	435.059	77.5271	435.059	74.5326	435.059	76.2191	435.059	75.0908	435.059	76.3038	435.059	76.7243	435.059	77.3533	435.059	78.1642	435.059	78.4401	435.059	79.0562	435.059	79.1548	435.059	79.3764
451.172	85.9561	451.172	85.9154	451.172	85.9177	451.172	85.7979	451.172	85.8094	451.172	85.6162	451.172	85.6437	451.172	85.3844	451.172	85.4185	451.172	85.1014	451.172	85.1039	451.172	84.7316	451.172	84.6444	451.172	84.2004	451.172	83.9789	451.172	83.4186	451.172	83.06	451.172	82.3111	451.172	81.8488	451.172	80.7991	451.172	80.2724	451.172	78.7339	451.172	78.2004	451.172	75.9893	451.172	75.6954	451.172	73.6758	451.172	74.1652	451.172	74.8283	451.172	75.5224	451.172	77.4415	451.172	77.8164	451.172	79.3038	451.172	79.4997	451.172	80.3199	451.172	80.4172	451.172	80.6703
465.82	85.5159	465.82	85.4068	465.82	85.4944	465.82	85.1984	465.82	85.3397	465.82	84.9419	465.82	85.0756	465.82	84.6843	465.82	84.7475	465.82	84.4417	465.82	84.4068	465.82	84.1874	465.82	84.0744	465.82	83.8573	465.82	83.6982	465.82	83.3606	465.82	83.1566	465.82	82.6019	465.82	82.3226	465.82	81.5045	465.82	81.1247	465.82	80.0154	465.82	79.5542	465.82	78.1019	465.82	77.6615	465.82	75.9096	465.82	75.7847	465.82	74.4386	465.82	75.0861	465.82	75.1272	465.82	76.2133	465.82	76.9182	465.82	77.788	465.82	78.3356	465.82	78.7876	465.82	78.9762
483.398	85.4715	483.398	85.4576	483.398	85.3716	483.398	85.3186	483.398	85.1958	483.398	85.0679	483.398	84.9886	483.398	84.7339	483.398	84.761	483.398	84.3467	483.398	84.4683	483.398	83.907	483.398	84.0317	483.398	83.3503	483.398	83.3828	483.398	82.5506	483.398	82.4818	483.398	81.3778	483.398	81.2908	483.398	79.7612	483.398	79.7579	483.398	77.7366	483.398	77.9381	483.398	75.5845	483.398	76.3363	483.398	74.2806	483.398	75.8898	483.398	74.9316	483.398	76.6558	483.398	76.6628	483.398	77.836	483.398	78.2509	483.398	78.9169	483.398	79.3153	483.398	79.6243	483.398	79.7789
499.512	85.9877	499.512	85.9431	499.512	85.8876	499.512	85.7718	499.512	85.6391	499.512	85.4948	499.512	85.2605	499.512	85.1242	499.512	84.7927	499.512	84.6658	499.512	84.2916	499.512	84.138	499.512	83.8048	499.512	83.563	499.512	83.3198	499.512	82.8959	499.512	82.7187	499.512	81.9676	499.512	81.8001	499.512	80.5352	499.512	80.3481	499.512	78.3962	499.512	78.1862	499.512	75.6061	499.512	75.3518	499.512	73.3068	499.512	73.2129	499.512	73.8413	499.512	74.3538	499.512	76.1346	499.512	76.7746	499.512	78.1265	499.512	78.54	499.512	79.325	499.512	79.4944	499.512	79.7525
517.09	86.0289	517.09	85.9487	517.09	86.0155	517.09	85.7971	517.09	85.9111	517.09	85.6168	517.09	85.7432	517.09	85.4461	517.09	85.5562	517.09	85.2823	517.09	85.3702	517.09	85.0646	517.09	85.1349	517.09	84.6984	517.09	84.7487	517.09	84.0988	517.09	84.1181	517.09	83.2096	517.09	83.1587	517.09	81.9501	517.09	81.7134	517.09	80.0903	517.09	79.485	517.09	77.1392	517.09	76.1476	517.09	72.589	517.09	72.6685	517.09	70.9842	517.09	73.5671	517.09	75.2942	517.09	76.5455	517.09	78.3572	517.09	78.732	517.09	79.9496	517.09	80.0223	517.09	80.4496
536.133	85.7103	536.133	85.59	536.133	85.5936	536.133	85.2597	536.133	85.2665	536.133	84.8111	536.133	84.7917	536.133	84.3843	536.133	84.2522	536.133	84.0877	536.133	83.7581	536.133	83.9142	536.133	83.4299	536.133	83.7723	536.133	83.2767	536.133	83.5425	536.133	83.1044	536.133	83.0515	536.133	82.6425	536.133	82.0787	536.133	81.7056	536.133	80.4686	536.133	80.2006	536.133	78.2974	536.133	78.043	536.133	76.0272	536.133	75.3111	536.133	74.4837	536.133	73.5487	536.133	74.6117	536.133	74.8375	536.133	76.1245	536.133	76.8147	536.133	77.545	536.133	77.9513	536.133	78.1796
555.176	85.8972	555.176	85.9755	555.176	85.6443	555.176	85.8245	555.176	85.2866	555.176	85.4282	555.176	84.8786	555.176	84.8154	555.176	84.4544	555.176	84.0846	555.176	84.0388	555.176	83.4275	555.176	83.6413	555.176	83.0079	555.176	83.2307	555.176	82.7611	555.176	82.7336	555.176	82.4509	555.176	82.0649	555.176	81.8374	555.176	81.1259	555.176	80.6511	555.176	79.7455	555.176	78.4994	555.176	77.6528	555.176	74.9316	555.176	74.7486	555.176	71.0782	555.176	72.8954	555.176	72.6714	555.176	74.8833	555.176	75.8428	555.176	77.378	555.176	77.8332	555.176	78.6741	555.176	78.7737
574.219	85.7585	574.219	85.6147	574.219	85.7501	574.219	85.3604	574.219	85.5416	574.219	85.0191	574.219	85.1409	574.219	84.6334	574.219	84.6337	574.219	84.2591	574.219	84.1306	574.219	83.9161	574.219	83.7062	574.219	83.5776	574.219	83.3729	574.219	83.1665	574.219	83.0438	574.219	82.5322	574.219	82.5145	574.219	81.4949	574.219	81.5324	574.219	79.9383	574.219	79.89	574.219	77.8465	574.219	77.5168	574.219	75.455	574.219	74.8258	574.219	74.1372	574.219	73.5459	574.219	75.4593	574.219	74.7897	574.219	77.5546	574.219	76.7938	574.219	78.8631	574.219	78.3612	574.219	79.1107
594.727	86.0345	594.727	85.8801	594.727	85.8734	594.727	85.4634	594.727	85.4248	594.727	84.8932	594.727	84.7714	594.727	84.2576	594.727	84.0365	594.727	83.6024	594.727	83.3863	594.727	83.0123	594.727	82.9604	594.727	82.6411	594.727	82.7492	594.727	82.5264	594.727	82.5766	594.727	82.4325	594.727	82.1785	594.727	82.0109	594.727	81.2732	594.727	80.9922	594.727	79.6051	594.727	79.2121	594.727	77.0364	594.727	76.6826	594.727	74.2959	594.727	74.4197	594.727	74.3497	594.727	74.9847	594.727	76.679	594.727	77.1881	594.727	78.546	594.727	78.823	594.727	79.4759	594.727	79.56
615.234	86.3514	615.234	86.3263	615.234	86.1471	615.234	86.0138	615.234	85.7369	615.234	85.4011	615.234	85.0911	615.234	84.5789	615.234	84.2007	615.234	83.7119	615.234	83.2017	615.234	82.9213	615.234	82.3897	615.234	82.2243	615.234	81.9288	615.234	81.6059	615.234	81.6263	615.234	81.0398	615.234	81.241	615.234	80.3939	615.234	80.6875	615.234	79.3977	615.234	79.7742	615.234	77.6479	615.234	78.0401	615.234	74.4806	615.234	75.0425	615.234	69.3157	615.234	71.834	615.234	70.2109	615.234	72.7761	615.234	74.987	615.234	75.5121	615.234	77.3846	615.234	77.3345	615.234	78.0186
637.207	85.781	637.207	85.6367	637.207	85.6615	637.207	85.2769	637.207	85.2461	637.207	84.732	637.207	84.5861	637.207	84.0518	637.207	83.8112	637.207	83.323	637.207	83.048	637.207	82.64	637.207	82.3658	637.207	82.1102	637.207	81.8206	637.207	81.8145	637.207	81.4464	637.207	81.616	637.207	81.1041	637.207	81.1063	637.207	80.4837	637.207	79.8145	637.207	79.301	637.207	77.4399	637.207	77.3743	637.207	74.6283	637.207	74.7574	637.207	74.3174	637.207	73.1455	637.207	76.2967	637.207	74.9958	637.207	78.1109	637.207	77.534	637.207	79.2546	637.207	79.0909	637.207	79.6208
659.18	85.7492	659.18	85.7535	659.18	85.4566	659.18	85.4492	659.18	84.9517	659.18	84.8767	659.18	84.3024	659.18	84.0942	659.18	83.5717	659.18	83.1921	659.18	82.865	659.18	82.2991	659.18	82.2363	659.18	81.4948	659.18	81.6163	659.18	80.8095	659.18	80.9885	659.18	80.2949	659.18	80.4085	659.18	79.8832	659.18	79.7048	659.18	79.2333	659.18	78.4317	659.18	77.8258	659.18	76.0692	659.18	75.1414	659.18	72.1229	659.18	71.4469	659.18	68.7118	659.18	71.3096	659.18	71.999	659.18	74.46	659.18	75.3643	659.18	76.6482	659.18	77.1018	659.18	77.5036
682.617	85.6191	682.617	85.4372	682.617	85.5528	682.617	85.0569	682.617	85.135	682.617	84.4499	682.617	84.3035	682.617	83.5646	682.617	83.1039	682.617	82.4186	682.617	81.7215	682.617	81.2355	682.617	80.5096	682.617	80.4946	682.617	79.8377	682.617	80.4289	682.617	79.7393	682.617	80.5746	682.617	79.9419	682.617	80.3559	682.617	80.0556	682.617	79.5226	682.617	79.5418	682.617	78.0202	682.617	77.8283	682.617	75.5381	682.617	74.438	682.617	70.9527	682.617	69.9463	682.617	67.9979	682.617	71.1537	682.617	73.9947	682.617	75.1298	682.617	77.2875	682.617	77.509	682.617	78.2583
707.52	85.4678	707.52	85.412	707.52	85.2621	707.52	85.0763	707.52	84.8242	707.52	84.4394	707.52	84.195	707.52	83.5464	707.52	83.3432	707.52	82.5303	707.52	82.1617	707.52	81.4996	707.52	80.6958	707.52	80.5571	707.52	79.5058	707.52	79.9155	707.52	79.2257	707.52	79.622	707.52	79.3082	707.52	79.3288	707.52	78.8586	707.52	78.507	707.52	77.6231	707.52	76.541	707.52	75.5221	707.52	72.7426	707.52	71.7866	707.52	68.8091	707.52	66.8159	707.52	71.9696	707.52	70.9486	707.52	75.428	707.52	74.9958	707.52	77.188	707.52	76.9438	707.52	77.6214
732.422	85.7881	732.422	85.7496	732.422	85.5445	732.422	85.3919	732.422	85.0672	732.422	84.7322	732.422	84.3325	732.422	83.7652	732.422	83.3346	732.422	82.4824	732.422	82.2044	732.422	80.9916	732.422	81.0545	732.422	79.5096	732.422	79.7882	732.422	78.3749	732.422	78.4595	732.422	77.9981	732.422	77.7298	732.422	78.113	732.422	77.8083	732.422	77.8548	732.422	77.626	732.422	76.5704	732.422	76.1075	732.422	73.6389	732.422	72.5657	732.422	68.4625	732.422	68.051	732.422	68.1034	732.422	70.6926	732.422	72.6126	732.422	74.5418	732.422	75.2074	732.422	76.3264	732.422	76.4233
757.324	85.6919	757.324	85.4949	757.324	85.5857	757.324	85.0653	757.324	85.142	757.324	84.4206	757.324	84.4103	757.324	83.5251	757.324	83.3953	757.324	82.3142	757.324	82.0442	757.324	80.8661	757.324	80.4905	757.324	79.5923	757.324	79.0884	757.324	78.8335	757.324	78.1656	757.324	78.6775	757.324	78.0123	757.324	78.9931	757.324	78.2803	757.324	78.8432	757.324	77.9708	757.324	77.3184	757.324	76.525	757.324	74.406	757.324	73.8175	757.324	70.849	757.324	69.4296	757.324	67.2878	757.324	65.4142	757.324	70.1555	757.324	70.1358	757.324	74.0033	757.324	73.8349	757.324	75.1028
785.156	85.5434	785.156	85.4589	785.156	85.4421	785.156	85.1402	785.156	85.1697	785.156	84.5891	785.156	84.6383	785.156	83.7867	785.156	83.8087	785.156	82.6666	785.156	82.6597	785.156	81.1084	785.156	80.9747	785.156	79	785.156	78.702	785.156	76.8276	785.156	76.886	785.156	75.8377	785.156	76.3543	785.156	75.8216	785.156	76.0223	785.156	76.0212	785.156	75.6473	785.156	76.0694	785.156	75.0766	785.156	74.7066	785.156	72.8645	785.156	70.1018	785.156	66.761	785.156	65.8243	785.156	67.6781	785.156	72.1586	785.156	73.8741	785.156	75.3778	785.156	76.2394	785.156	76.5645
811.523	85.7362	811.523	85.582	811.523	85.6779	811.523	85.2942	811.523	85.3051	811.523	84.8136	811.523	84.6271	811.523	84.0013	811.523	83.6854	811.523	82.7322	811.523	82.4915	811.523	81.0812	811.523	81.0962	811.523	79.5528	811.523	79.5483	811.523	78.6224	811.523	78.1057	811.523	78.0052	811.523	77.6501	811.523	77.433	811.523	78.0801	811.523	76.9555	811.523	77.9584	811.523	76.2219	811.523	76.4282	811.523	74.2254	811.523	73.1375	811.523	69.1068	811.523	67.3034	811.523	60.7164	811.523	63.1607	811.523	69.4965	811.523	69.7909	811.523	73.2726	811.523	73.0742	811.523	74.1376
840.82	85.3967	840.82	85.4068	840.82	85.2093	840.82	85.0864	840.82	84.9483	840.82	84.4068	840.82	84.5655	840.82	83.5012	840.82	83.8965	840.82	82.502	840.82	82.666	840.82	81.1834	840.82	80.7622	840.82	79.058	840.82	78.7576	840.82	76.2753	840.82	77.1205	840.82	74.8222	840.82	75.4743	840.82	75.3985	840.82	75.4539	840.82	75.7308	840.82	76.9306	840.82	75.2784	840.82	76.7932	840.82	74.2757	840.82	74.2139	840.82	71.8942	840.82	68.9526	840.82	63.3247	840.82	64.507	840.82	65.752	840.82	69.9245	840.82	73.2531	840.82	73.5826	840.82	74.8012
870.117	85.8123	870.117	85.6563	870.117	85.7237	870.117	85.3291	870.117	85.3288	870.117	84.8353	870.117	84.6539	870.117	84.1324	870.117	83.7866	870.117	83.0581	870.117	82.8394	870.117	81.5653	870.117	81.6695	870.117	80.1145	870.117	79.8607	870.117	78.716	870.117	77.6856	870.117	76.2764	870.117	76.3952	870.117	74.1874	870.117	75.5159	870.117	75.3869	870.117	74.6598	870.117	75.8766	870.117	74.8082	870.117	73.9352	870.117	74.2131	870.117	69.5307	870.117	70.3633	870.117	63.5086	870.117	64.8853	870.117	67.2745	870.117	71.1981	870.117	72.064	870.117	73.9958	870.117	74.0902
900.879	85.7541	900.879	85.6012	900.879	85.6252	900.879	85.2154	900.879	85.2847	900.879	84.7363	900.879	84.7329	900.879	84.0643	900.879	83.9408	900.879	83.0934	900.879	82.9317	900.879	81.971	900.879	81.6958	900.879	80.3719	900.879	80.015	900.879	77.6222	900.879	77.5819	900.879	74.9115	900.879	75.065	900.879	74.614	900.879	75.1054	900.879	74.7375	900.879	75.9621	900.879	74.9021	900.879	75.1456	900.879	74.3659	900.879	72.6901	900.879	71.0902	900.879	68.2598	900.879	60.5739	900.879	55.5718	900.879	64.1991	900.879	64.3915	900.879	71.0099	900.879	70.9281	900.879	72.6915
933.105	86.4813	933.105	86.4121	933.105	86.3625	933.105	86.05	933.105	86.0677	933.105	85.3469	933.105	85.5249	933.105	84.4177	933.105	84.7206	933.105	83.3975	933.105	83.6848	933.105	82.3683	933.105	82.3722	933.105	81.3304	933.105	80.7916	933.105	79.7871	933.105	79.0381	933.105	77.1466	933.105	76.8217	933.105	74.2478	933.105	73.9787	933.105	73.4554	933.105	72.7937	933.105	74.0361	933.105	73.6245	933.105	74.0891	933.105	73.291	933.105	71.873	933.105	70.8703	933.105	65.277	933.105	65.7673	933.105	66.2416	933.105	68.7815	933.105	70.5861	933.105	72.5406	933.105	72.5695
965.332	86.1991	965.332	85.9789	965.332	86.0768	965.332	85.587	965.332	85.5234	965.332	85.0351	965.332	84.6795	965.332	84.3207	965.332	83.7955	965.332	83.5573	965.332	82.8765	965.332	82.4276	965.332	81.7058	965.332	80.4254	965.332	80.1631	965.332	78.0226	965.332	78.2387	965.332	76.581	965.332	76.2979	965.332	75.4643	965.332	75.3765	965.332	75.1136	965.332	74.7553	965.332	75.4573	965.332	73.6158	965.332	73.7999	965.332	72.3049	965.332	69.6297	965.332	69.4035	965.332	64.6175	965.332	60.667	965.332	65.0736	965.332	66.7645	965.332	70.0328	965.332	70.8233	965.332	71.6388
1,000.49	86.2308	1,000.49	86.2655	1,000.49	85.9505	1,000.49	85.826	1,000.49	85.4474	1,000.49	85.0362	1,000.49	84.6319	1,000.49	84.2213	1,000.49	83.6393	1,000.49	83.05	1,000.49	82.6871	1,000.49	81.5871	1,000.49	81.6826	1,000.49	80.8908	1,000.49	80.2516	1,000.49	79.8939	1,000.49	78.5302	1,000.49	76.9809	1,000.49	76.9759	1,000.49	74.1981	1,000.49	75.112	1,000.49	73.8178	1,000.49	73.335	1,000.49	73.0086	1,000.49	73.7207	1,000.49	73.7642	1,000.49	73.3834	1,000.49	73.1923	1,000.49	70.1525	1,000.49	66.9509	1,000.49	62.2685	1,000.49	65.0246	1,000.49	64.834	1,000.49	69.1719	1,000.49	70.1166	1,000.49	70.6932
1,035.64	85.874	1,035.64	85.7044	1,035.64	85.6059	1,035.64	85.3536	1,035.64	84.926	1,035.64	84.7461	1,035.64	84.0669	1,035.64	83.7192	1,035.64	83.0991	1,035.64	82.7094	1,035.64	82.0927	1,035.64	81.7517	1,035.64	81.0779	1,035.64	80.125	1,035.64	79.8282	1,035.64	78.0337	1,035.64	78.0964	1,035.64	76.4738	1,035.64	75.8124	1,035.64	75.0705	1,035.64	73.8111	1,035.64	74.1148	1,035.64	73.898	1,035.64	74.4578	1,035.64	74.3016	1,035.64	73.4939	1,035.64	73.1699	1,035.64	70.2813	1,035.64	70.7963	1,035.64	65.1707	1,035.64	64.5861	1,035.64	63.3276	1,035.64	63.9374	1,035.64	68.6065	1,035.64	70.6907	1,035.64	71.0947
1,072.27	85.6673	1,072.27	85.3562	1,072.27	85.4202	1,072.27	84.7897	1,072.27	84.6696	1,072.27	84.0674	1,072.27	83.6211	1,072.27	83.1235	1,072.27	82.4557	1,072.27	82.1145	1,072.27	81.4043	1,072.27	80.7411	1,072.27	80.1452	1,072.27	78.7689	1,072.27	78.6456	1,072.27	77.579	1,072.27	77.9184	1,072.27	76.8004	1,072.27	76.9016	1,072.27	74.2879	1,072.27	74.1559	1,072.27	72.4716	1,072.27	71.6436	1,072.27	73.5029	1,072.27	71.252	1,072.27	73.9848	1,072.27	72.3617	1,072.27	73.3008	1,072.27	71.1795	1,072.27	69.569	1,072.27	63.6683	1,072.27	64.4727	1,072.27	57.5756	1,072.27	68.8608	1,072.27	67.324	1,072.27	70.3331
1,108.89	85.0148	1,108.89	85.0921	1,108.89	84.9921	1,108.89	84.6267	1,108.89	84.7449	1,108.89	83.5864	1,108.89	83.8181	1,108.89	82.4174	1,108.89	82.6442	1,108.89	80.9001	1,108.89	81.3263	1,108.89	79.7275	1,108.89	79.594	1,108.89	79.4531	1,108.89	78.1083	1,108.89	78.2092	1,108.89	76.5796	1,108.89	75.6995	1,108.89	73.9775	1,108.89	73.8539	1,108.89	71.7125	1,108.89	72.0573	1,108.89	71.6704	1,108.89	70.9939	1,108.89	72.5651	1,108.89	70.2009	1,108.89	72.0482	1,108.89	68.8936	1,108.89	69.1376	1,108.89	65.3457	1,108.89	65.8784	1,108.89	65.6233	1,108.89	66.6479	1,108.89	71.3544	1,108.89	69.3202	1,108.89	71.7888
1,148.44	85.1558	1,148.44	84.7233	1,148.44	85.249	1,148.44	84.2521	1,148.44	84.3176	1,148.44	83.1731	1,148.44	83.1031	1,148.44	81.918	1,148.44	81.9895	1,148.44	80.8712	1,148.44	80.701	1,148.44	79.7182	1,148.44	79.9284	1,148.44	78.5384	1,148.44	78.8316	1,148.44	76.6496	1,148.44	77.1196	1,148.44	74.4203	1,148.44	75.7866	1,148.44	72.9096	1,148.44	73.8957	1,148.44	69.8143	1,148.44	72.7828	1,148.44	69.7708	1,148.44	71.5694	1,148.44	70.0068	1,148.44	70.7452	1,148.44	67.0063	1,148.44	69.8732	1,148.44	62.6672	1,148.44	63.9934	1,148.44	59.8426	1,148.44	60.5398	1,148.44	65.9158	1,148.44	66.2249	1,148.44	69.1822
1,189.45	85.7192	1,189.45	85.464	1,189.45	85.1007	1,189.45	84.3733	1,189.45	84.5137	1,189.45	83.2908	1,189.45	83.821	1,189.45	82.1932	1,189.45	82.3932	1,189.45	80.6628	1,189.45	80.958	1,189.45	78.9816	1,189.45	79.927	1,189.45	77.881	1,189.45	78.692	1,189.45	77.2285	1,189.45	77.423	1,189.45	75.412	1,189.45	75.8762	1,189.45	72.6664	1,189.45	73.3338	1,189.45	71.8165	1,189.45	70.6326	1,189.45	71.6107	1,189.45	71.4292	1,189.45	70.8071	1,189.45	73.0763	1,189.45	69.5408	1,189.45	72.0121	1,189.45	65.3873	1,189.45	66.3844	1,189.45	57.2305	1,189.45	62.5249	1,189.45	68.6979	1,189.45	68.8163	1,189.45	70.7248
1,230.47	86.0981	1,230.47	86.0227	1,230.47	85.9666	1,230.47	85.3715	1,230.47	85.3993	1,230.47	83.9644	1,230.47	84.1643	1,230.47	82.2414	1,230.47	82.4318	1,230.47	80.6732	1,230.47	80.6525	1,230.47	79.5458	1,230.47	79.6905	1,230.47	78.7393	1,230.47	78.4758	1,230.47	77.2351	1,230.47	76.9616	1,230.47	76.6044	1,230.47	76.0774	1,230.47	75.8977	1,230.47	74.2481	1,230.47	70.9039	1,230.47	73.0158	1,230.47	66.9965	1,230.47	71.9817	1,230.47	69.4909	1,230.47	71.1311	1,230.47	69.9811	1,230.47	68.2424	1,230.47	62.9437	1,230.47	60.7926	1,230.47	59.0057	1,230.47	58.4767	1,230.47	66.2675	1,230.47	68.8174	1,230.47	70.3935
1,274.41	86.3807	1,274.41	86.0586	1,274.41	86.2606	1,274.41	85.4536	1,274.41	85.3782	1,274.41	84.119	1,274.41	84.1809	1,274.41	82.6065	1,274.41	83.0123	1,274.41	81.4264	1,274.41	81.7502	1,274.41	79.9371	1,274.41	79.8842	1,274.41	78.0167	1,274.41	78.7333	1,274.41	76.8412	1,274.41	78.4242	1,274.41	76.2959	1,274.41	76.6424	1,274.41	74.6135	1,274.41	74.487	1,274.41	72.5659	1,274.41	72.593	1,274.41	71.2773	1,274.41	71.5192	1,274.41	71.5389	1,274.41	70.9565	1,274.41	69.5877	1,274.41	72.3905	1,274.41	63.9679	1,274.41	67.592	1,274.41	41.4391	1,274.41	65.4816	1,274.41	67.6495	1,274.41	71.1359	1,274.41	71.1855
1,319.82	86.466	1,319.82	86.3955	1,319.82	86.2818	1,319.82	85.9849	1,319.82	85.6648	1,319.82	84.9782	1,319.82	84.6502	1,319.82	83.4375	1,319.82	83.2271	1,319.82	81.554	1,319.82	81.3317	1,319.82	80.2358	1,319.82	79.2742	1,319.82	78.372	1,319.82	77.732	1,319.82	75.9494	1,319.82	76.6326	1,319.82	75.3944	1,319.82	75.2087	1,319.82	74.9621	1,319.82	73.3113	1,319.82	71.9822	1,319.82	73.1076	1,319.82	68.3497	1,319.82	70.1362	1,319.82	70.8909	1,319.82	72.6414	1,319.82	72.4501	1,319.82	70.4456	1,319.82	70.0244	1,319.82	63.2619	1,319.82	49.1513	1,319.82	61.838	1,319.82	69.6764	1,319.82	70.0883	1,319.82	72.7577
1,366.7	86.6938	1,366.7	86.3986	1,366.7	86.507	1,366.7	85.7047	1,366.7	86.0444	1,366.7	84.6211	1,366.7	85.0435	1,366.7	83.3099	1,366.7	83.2476	1,366.7	81.8951	1,366.7	81.6549	1,366.7	80.1735	1,366.7	80.4826	1,366.7	78.1329	1,366.7	79.1057	1,366.7	75.9639	1,366.7	77.4967	1,366.7	74.9242	1,366.7	75.863	1,366.7	74.3477	1,366.7	74.907	1,366.7	72.529	1,366.7	70.1805	1,366.7	70.622	1,366.7	71.4111	1,366.7	71.287	1,366.7	70.8507	1,366.7	68.9345	1,366.7	70.9481	1,366.7	66.7847	1,366.7	68.6697	1,366.7	58.4251	1,366.7	66.8661	1,366.7	64.1233	1,366.7	66.4135	1,366.7	66.7609
1,413.57	86.1057	1,413.57	86.0136	1,413.57	85.7918	1,413.57	85.568	1,413.57	85.2176	1,413.57	84.4683	1,413.57	84.2311	1,413.57	82.975	1,413.57	82.8837	1,413.57	82.1572	1,413.57	80.2794	1,413.57	80.0795	1,413.57	78.9543	1,413.57	78.7724	1,413.57	78.047	1,413.57	78.0383	1,413.57	74.7467	1,413.57	76.8745	1,413.57	75.8793	1,413.57	74.9751	1,413.57	74.7248	1,413.57	72.8564	1,413.57	72.8203	1,413.57	70.6068	1,413.57	68.6532	1,413.57	71.3568	1,413.57	70.6203	1,413.57	74.2377	1,413.57	71.3084	1,413.57	66.53	1,413.57	63.2262	1,413.57	58.4139	1,413.57	59.7098	1,413.57	63.6092	1,413.57	68.6201	1,413.57	69.2089
1,463.38	85.1158	1,463.38	85.0757	1,463.38	84.9227	1,463.38	84.4741	1,463.38	83.9002	1,463.38	83.6091	1,463.38	82.9186	1,463.38	82.3416	1,463.38	82.0643	1,463.38	80.5885	1,463.38	81.0304	1,463.38	79.5219	1,463.38	78.7319	1,463.38	77.9266	1,463.38	76.0661	1,463.38	76.5672	1,463.38	75.2382	1,463.38	74.1695	1,463.38	73.5625	1,463.38	74.3403	1,463.38	71.6388	1,463.38	73.6434	1,463.38	71.6814	1,463.38	71.2749	1,463.38	67.4247	1,463.38	67.2732	1,463.38	69.8553	1,463.38	70.6834	1,463.38	71.1115	1,463.38	72.1754	1,463.38	62.9834	1,463.38	63.0891	1,463.38	58.9763	1,463.38	62.1916	1,463.38	66.5625	1,463.38	69.2166
1,516.11	84.6988	1,516.11	84.6487	1,516.11	84.5629	1,516.11	84.101	1,516.11	83.7677	1,516.11	82.4235	1,516.11	81.9473	1,516.11	81.0566	1,516.11	80.9015	1,516.11	79.9427	1,516.11	78.6637	1,516.11	78.1795	1,516.11	77.3199	1,516.11	77.6715	1,516.11	76.593	1,516.11	76.2757	1,516.11	76.0516	1,516.11	75.9399	1,516.11	76.189	1,516.11	74.409	1,516.11	73.6474	1,516.11	71.7497	1,516.11	72.4513	1,516.11	68.6987	1,516.11	68.9238	1,516.11	66.2026	1,516.11	69.528	1,516.11	68.0424	1,516.11	72.4821	1,516.11	68.4398	1,516.11	72.0442	1,516.11	61.7501	1,516.11	63.1984	1,516.11	61.8299	1,516.11	66.2363	1,516.11	67.2958
1,568.85	84.5398	1,568.85	84.2742	1,568.85	83.9811	1,568.85	83.7275	1,568.85	82.711	1,568.85	82.4016	1,568.85	82.8062	1,568.85	81.4672	1,568.85	81.4982	1,568.85	79.3379	1,568.85	78.6112	1,568.85	76.5319	1,568.85	77.5774	1,568.85	75.1396	1,568.85	75.425	1,568.85	73.8054	1,568.85	73.4417	1,568.85	72.7926	1,568.85	70.2682	1,568.85	71.7517	1,568.85	70.71	1,568.85	70.0132	1,568.85	72.0521	1,568.85	68.0537	1,568.85	67.9896	1,568.85	57.1711	1,568.85	68.5093	1,568.85	71.4644	1,568.85	61.6812	1,568.85	71.2826	1,568.85	68.7143	1,568.85	66.8388	1,568.85	68.5494	1,568.85	63.2162	1,568.85	55.3752	1,568.85	67.0494
1,624.51	84.414	1,624.51	84.183	1,624.51	84.0118	1,624.51	83.176	1,624.51	83.4423	1,624.51	82.2976	1,624.51	82.7454	1,624.51	81.0107	1,624.51	80.9464	1,624.51	78.1649	1,624.51	80.7299	1,624.51	78.1056	1,624.51	78.606	1,624.51	76.76	1,624.51	76.8953	1,624.51	76.1567	1,624.51	76.5213	1,624.51	75.6702	1,624.51	72.2266	1,624.51	72.4162	1,624.51	73.4033	1,624.51	70.0983	1,624.51	69.3084	1,624.51	66.4854	1,624.51	69.9078	1,624.51	64.1985	1,624.51	63.4849	1,624.51	57.2459	1,624.51	70.1414	1,624.51	64.8099	1,624.51	70.6153	1,624.51	68.0275	1,624.51	58.6861	1,624.51	51.0111	1,624.51	61.2715	1,624.51	58.6507
1,681.64	85.6245	1,681.64	85.0492	1,681.64	84.902	1,681.64	84.274	1,681.64	84.6034	1,681.64	82.9948	1,681.64	83.9837	1,681.64	81.4117	1,681.64	81.6679	1,681.64	79.4694	1,681.64	80.7672	1,681.64	77.0723	1,681.64	77.6572	1,681.64	74.2857	1,681.64	76.4418	1,681.64	73.5352	1,681.64	73.4129	1,681.64	69.8162	1,681.64	73.6075	1,681.64	68.1024	1,681.64	74.4856	1,681.64	71.7284	1,681.64	75.2487	1,681.64	75.2494	1,681.64	74.3396	1,681.64	73.0066	1,681.64	57.9926	1,681.64	60.5544	1,681.64	67.2075	1,681.64	67.6268	1,681.64	60.4619	1,681.64	63.7062	1,681.64	65.9347	1,681.64	66.4904	1,681.64	64.1482	1,681.64	66.5596
1,741.7	85.5885	1,741.7	85.4246	1,741.7	85.9183	1,741.7	84.5647	1,741.7	85.0203	1,741.7	83.8472	1,741.7	83.4818	1,741.7	83.1923	1,741.7	82.5546	1,741.7	81.6154	1,741.7	81.4716	1,741.7	79.9148	1,741.7	79.7313	1,741.7	77.8158	1,741.7	78.1735	1,741.7	76.8291	1,741.7	76.0235	1,741.7	76.2504	1,741.7	73.3218	1,741.7	72.0637	1,741.7	71.8965	1,741.7	71.9949	1,741.7	70.07	1,741.7	69.9053	1,741.7	68.8317	1,741.7	68.822	1,741.7	68.9422	1,741.7	65.4825	1,741.7	67.6346	1,741.7	66.4984	1,741.7	64.5255	1,741.7	67.5078	1,741.7	54.5419	1,741.7	61.9345	1,741.7	65.2276	1,741.7	66.6921
1,803.22	85.5858	1,803.22	85.5173	1,803.22	85.3659	1,803.22	85.0225	1,803.22	84.6369	1,803.22	83.9841	1,803.22	83.6893	1,803.22	82.955	1,803.22	82.6446	1,803.22	81.6643	1,803.22	81.509	1,803.22	80.1253	1,803.22	79.6974	1,803.22	77.5249	1,803.22	77.364	1,803.22	73.8453	1,803.22	74.8775	1,803.22	71.6163	1,803.22	73.8447	1,803.22	71.2505	1,803.22	71.6618	1,803.22	69.8597	1,803.22	71.8098	1,803.22	71.6449	1,803.22	71.3443	1,803.22	70.6463	1,803.22	67.697	1,803.22	69.4972	1,803.22	59.6769	1,803.22	68.7936	1,803.22	69.5532	1,803.22	66.4696	1,803.22	66.8268	1,803.22	57.704	1,803.22	52.9694	1,803.22	59.1412
1,866.21	84.7379	1,866.21	84.7936	1,866.21	84.7298	1,866.21	84.37	1,866.21	84.0438	1,866.21	83.2341	1,866.21	82.5293	1,866.21	81.7896	1,866.21	81.6175	1,866.21	81.3583	1,866.21	80.1494	1,866.21	80.2848	1,866.21	78.1991	1,866.21	79.1536	1,866.21	76.5244	1,866.21	76.5088	1,866.21	74.2408	1,866.21	74.7785	1,866.21	72.6036	1,866.21	72.1826	1,866.21	69.9754	1,866.21	70.0241	1,866.21	69.0712	1,866.21	70.2935	1,866.21	71.2281	1,866.21	69.5749	1,866.21	68.4414	1,866.21	62.6354	1,866.21	67.3672	1,866.21	65.5089	1,866.21	69.325	1,866.21	62.9737	1,866.21	62.3708	1,866.21	56.1965	1,866.21	62.8185	1,866.21	66.5374
1,932.13	84.6879	1,932.13	84.4634	1,932.13	84.0931	1,932.13	83.8554	1,932.13	83.7942	1,932.13	83.1282	1,932.13	83.2706	1,932.13	81.9159	1,932.13	81.6257	1,932.13	79.9986	1,932.13	79.9913	1,932.13	79.1991	1,932.13	78.6713	1,932.13	77.2737	1,932.13	77.4607	1,932.13	74.6403	1,932.13	75.2679	1,932.13	72.0112	1,932.13	72.2648	1,932.13	69.0665	1,932.13	68.5492	1,932.13	64.4061	1,932.13	67.1618	1,932.13	70.1732	1,932.13	69.2111	1,932.13	71.1163	1,932.13	69.1404	1,932.13	68.9183	1,932.13	66.7273	1,932.13	69.9057	1,932.13	63.8002	1,932.13	66.0139	1,932.13	66.3146	1,932.13	63.3193	1,932.13	53.2114	1,932.13	64.4098
1,999.51	85.6161	1,999.51	85.2144	1,999.51	85.2931	1,999.51	84.1835	1,999.51	84.9796	1,999.51	83.1367	1,999.51	84.276	1,999.51	81.6717	1,999.51	83.001	1,999.51	79.8449	1,999.51	81.2561	1,999.51	78.258	1,999.51	79.12	1,999.51	76.2884	1,999.51	76.605	1,999.51	74.5921	1,999.51	74.5818	1,999.51	73.6626	1,999.51	73.2543	1,999.51	71.7079	1,999.51	71.5665	1,999.51	66.8768	1,999.51	68.1626	1,999.51	67.5945	1,999.51	70.3247	1,999.51	69.3057	1,999.51	70.4176	1,999.51	63.6565	1,999.51	64.9831	1,999.51	65.3703	1,999.51	68.1704	1,999.51	63.4906	1,999.51	67.0366	1,999.51	55.742	1,999.51	55.8298	1,999.51	56.4499
2,069.82	85.8126	2,069.82	85.7257	2,069.82	85.8476	2,069.82	85.348	2,069.82	85.4117	2,069.82	84.4562	2,069.82	84.4166	2,069.82	82.8816	2,069.82	83.0605	2,069.82	81.0081	2,069.82	81.3335	2,069.82	78.5283	2,069.82	79.2575	2,069.82	76.5525	2,069.82	77.7426	2,069.82	74.333	2,069.82	75.9201	2,069.82	72.0747	2,069.82	74.2802	2,069.82	71.4568	2,069.82	72.2586	2,069.82	68.1879	2,069.82	67.8295	2,069.82	64.3492	2,069.82	68.3317	2,069.82	69.1083	2,069.82	69.2235	2,069.82	64.6853	2,069.82	67.7604	2,069.82	65.2423	2,069.82	66.9064	2,069.82	68.1929	2,069.82	62.3674	2,069.82	62.4217	2,069.82	45.3193	2,069.82	54.8052
2,143.07	85.6853	2,143.07	85.4702	2,143.07	85.4717	2,143.07	85.1568	2,143.07	84.7875	2,143.07	84.2353	2,143.07	84.2706	2,143.07	83.2211	2,143.07	82.9577	2,143.07	81.022	2,143.07	81.0345	2,143.07	78.84	2,143.07	78.936	2,143.07	76.8014	2,143.07	76.6186	2,143.07	74.7841	2,143.07	74.7284	2,143.07	71.6509	2,143.07	72.4799	2,143.07	70.4048	2,143.07	71.6835	2,143.07	69.2401	2,143.07	69.2499	2,143.07	66.382	2,143.07	67.025	2,143.07	68.3005	2,143.07	68.8792	2,143.07	67.7471	2,143.07	65.3708	2,143.07	64.7913	2,143.07	65.365	2,143.07	66.0364	2,143.07	65.8455	2,143.07	62.0819	2,143.07	49.6017	2,143.07	53.3929
2,219.24	84.4224	2,219.24	84.3277	2,219.24	83.8429	2,219.24	83.4217	2,219.24	83.9055	2,219.24	83.2923	2,219.24	82.8811	2,219.24	82.6511	2,219.24	81.3836	2,219.24	81.1295	2,219.24	79.5185	2,219.24	78.0027	2,219.24	77.1853	2,219.24	74.9527	2,219.24	75.4076	2,219.24	73.4114	2,219.24	73.4745	2,219.24	71.9289	2,219.24	70.9205	2,219.24	69.5257	2,219.24	70.3082	2,219.24	68.859	2,219.24	67.242	2,219.24	64.7075	2,219.24	63.9728	2,219.24	68.0614	2,219.24	67.3517	2,219.24	64.7098	2,219.24	66.1276	2,219.24	63.2437	2,219.24	65.6253	2,219.24	65.0129	2,219.24	61.7791	2,219.24	57.9331	2,219.24	48.1289	2,219.24	55.8764
2,296.88	83.5778	2,296.88	83.4312	2,296.88	83.6871	2,296.88	83.0224	2,296.88	82.7237	2,296.88	82.1246	2,296.88	81.8818	2,296.88	81.2673	2,296.88	81.0509	2,296.88	79.9545	2,296.88	79.9764	2,296.88	78.0053	2,296.88	77.7752	2,296.88	75.6154	2,296.88	75.1879	2,296.88	73.6805	2,296.88	73.0598	2,296.88	70.8966	2,296.88	70.3666	2,296.88	70.0978	2,296.88	67.3583	2,296.88	68.9419	2,296.88	66.814	2,296.88	65.266	2,296.88	64.9878	2,296.88	63.3333	2,296.88	67.0347	2,296.88	63.6289	2,296.88	66.1878	2,296.88	64.4047	2,296.88	63.836	2,296.88	65.5191	2,296.88	62.724	2,296.88	58.5877	2,296.88	52.9551	2,296.88	52.5698
2,378.91	83.8858	2,378.91	83.6748	2,378.91	84.098	2,378.91	83.0738	2,378.91	83.737	2,378.91	82.0233	2,378.91	83.0438	2,378.91	81.1206	2,378.91	82.328	2,378.91	79.4043	2,378.91	80.8063	2,378.91	76.7088	2,378.91	78.8507	2,378.91	74.3075	2,378.91	76.0155	2,378.91	72.2368	2,378.91	73.4878	2,378.91	69.2851	2,378.91	71.6985	2,378.91	66.6001	2,378.91	69.7798	2,378.91	66.3098	2,378.91	68.8333	2,378.91	64.1701	2,378.91	64.6773	2,378.91	66.1854	2,378.91	66.98	2,378.91	66.0586	2,378.91	65.5368	2,378.91	62.2006	2,378.91	63.6547	2,378.91	59.644	2,378.91	65.0068	2,378.91	43.8864	2,378.91	58.0347	2,378.91	52.2386
2,462.4	85.646	2,462.4	85.3397	2,462.4	85.998	2,462.4	85.101	2,462.4	85.497	2,462.4	83.8297	2,462.4	84.6053	2,462.4	82.1608	2,462.4	83.0667	2,462.4	80.0302	2,462.4	81.2126	2,462.4	77.591	2,462.4	79.2552	2,462.4	74.9737	2,462.4	76.9051	2,462.4	72.7714	2,462.4	74.4543	2,462.4	71.1992	2,462.4	72.1199	2,462.4	67.5392	2,462.4	69.9591	2,462.4	66.4994	2,462.4	68.8412	2,462.4	64.3111	2,462.4	65.2312	2,462.4	62.1267	2,462.4	65.8319	2,462.4	64.6837	2,462.4	66.6792	2,462.4	62.8211	2,462.4	66.6429	2,462.4	65.17	2,462.4	64.6827	2,462.4	60.4202	2,462.4	56.2562	2,462.4	48.1544
2,548.83	86.5646	2,548.83	86.677	2,548.83	86.3945	2,548.83	85.9936	2,548.83	85.6754	2,548.83	84.4129	2,548.83	84.4298	2,548.83	82.8325	2,548.83	82.1698	2,548.83	80.5988	2,548.83	79.89	2,548.83	78.6542	2,548.83	77.8988	2,548.83	76.3874	2,548.83	75.7476	2,548.83	74.058	2,548.83	73.0284	2,548.83	71.7778	2,548.83	70.7669	2,548.83	69.2384	2,548.83	68.9985	2,548.83	68.546	2,548.83	67.2497	2,548.83	67.1742	2,548.83	63.1809	2,548.83	65.1188	2,548.83	62.2912	2,548.83	65.0018	2,548.83	64.1483	2,548.83	63.5421	2,548.83	62.2251	2,548.83	67.2663	2,548.83	63.7967	2,548.83	63.7916	2,548.83	57.1304	2,548.83	55.1077
2,639.65	85.4922	2,639.65	85.3864	2,639.65	85.1121	2,639.65	85.1049	2,639.65	84.4977	2,639.65	84.2272	2,639.65	83.313	2,639.65	82.2132	2,639.65	81.3182	2,639.65	79.7756	2,639.65	79.0337	2,639.65	77.1019	2,639.65	76.4522	2,639.65	74.7979	2,639.65	74.1725	2,639.65	73.4058	2,639.65	72.0581	2,639.65	71.2741	2,639.65	70.1387	2,639.65	68.8338	2,639.65	66.4766	2,639.65	67.7901	2,639.65	66.5852	2,639.65	65.627	2,639.65	65.1969	2,639.65	59.5146	2,639.65	60.8688	2,639.65	62.0205	2,639.65	61.0914	2,639.65	59.3076	2,639.65	59.975	2,639.65	61.9699	2,639.65	61.7029	2,639.65	60.0887	2,639.65	60.2713	2,639.65	61.1831
2,731.93	84.4725	2,731.93	84.3567	2,731.93	83.7948	2,731.93	83.5521	2,731.93	83.8204	2,731.93	82.9344	2,731.93	82.6659	2,731.93	80.8569	2,731.93	80.911	2,731.93	78.4355	2,731.93	78.5418	2,731.93	75.6519	2,731.93	76.1934	2,731.93	73.4655	2,731.93	73.8787	2,731.93	70.6384	2,731.93	71.233	2,731.93	68.4533	2,731.93	69.1384	2,731.93	68.4032	2,731.93	67.5642	2,731.93	65.0766	2,731.93	66.7685	2,731.93	65.5341	2,731.93	64.8555	2,731.93	59.0174	2,731.93	60.4462	2,731.93	62.2755	2,731.93	62.5027	2,731.93	60.4257	2,731.93	60.903	2,731.93	62.7393	2,731.93	62.545	2,731.93	58.397	2,731.93	55.3301	2,731.93	58.0451
2,828.61	84.4107	2,828.61	84.3187	2,828.61	84.5718	2,828.61	83.8127	2,828.61	84.1615	2,828.61	82.3633	2,828.61	83.0461	2,828.61	80.6853	2,828.61	81.4463	2,828.61	78.6153	2,828.61	79.1668	2,828.61	76.5551	2,828.61	76.5395	2,828.61	73.8493	2,828.61	73.8737	2,828.61	71.2559	2,828.61	71.4419	2,828.61	68.9011	2,828.61	69.3049	2,828.61	67.935	2,828.61	67.9701	2,828.61	65.212	2,828.61	66.9743	2,828.61	63.5476	2,828.61	66.0583	2,828.61	54.8095	2,828.61	62.8452	2,828.61	61.8817	2,828.61	62.8117	2,828.61	54.6273	2,828.61	61.1822	2,828.61	58.101	2,828.61	62.2817	2,828.61	60.2231	2,828.61	56.4356	2,828.61	58.719
2,928.22	85.0157	2,928.22	84.8473	2,928.22	85.2789	2,928.22	84.2632	2,928.22	84.4962	2,928.22	82.9029	2,928.22	83.4855	2,928.22	81.5069	2,928.22	81.8299	2,928.22	79.1484	2,928.22	79.6143	2,928.22	76.9967	2,928.22	76.7939	2,928.22	74.3768	2,928.22	74.358	2,928.22	71.8429	2,928.22	72.3841	2,928.22	69.9066	2,928.22	69.7784	2,928.22	69.1591	2,928.22	68.3062	2,928.22	66.2995	2,928.22	66.1136	2,928.22	65.9098	2,928.22	65.7337	2,928.22	64.6922	2,928.22	63.6857	2,928.22	65.3035	2,928.22	61.7234	2,928.22	60.4061	2,928.22	57.0031	2,928.22	62.7949	2,928.22	62.1089	2,928.22	50.1238	2,928.22	59.1509	2,928.22	58.6529
3,030.76	85.281	3,030.76	85.0047	3,030.76	85.418	3,030.76	84.7299	3,030.76	84.6405	3,030.76	83.6918	3,030.76	83.5462	3,030.76	82.0377	3,030.76	82.0907	3,030.76	79.9675	3,030.76	79.9951	3,030.76	77.3058	3,030.76	77.1898	3,030.76	75.2413	3,030.76	74.2414	3,030.76	72.8911	3,030.76	72.4568	3,030.76	69.3813	3,030.76	70.3646	3,030.76	67.7134	3,030.76	67.9825	3,030.76	66.774	3,030.76	66.9159	3,030.76	65.0192	3,030.76	65.9755	3,030.76	63.1605	3,030.76	64.7512	3,030.76	63.2217	3,030.76	64.2251	3,030.76	62.64	3,030.76	58.5125	3,030.76	62.0956	3,030.76	61.8292	3,030.76	62.5922	3,030.76	58.3971	3,030.76	62.4075
3,137.7	85.4948	3,137.7	85.1488	3,137.7	84.827	3,137.7	84.4828	3,137.7	84.3675	3,137.7	83.6526	3,137.7	83.3202	3,137.7	81.8273	3,137.7	81.7416	3,137.7	79.7557	3,137.7	79.5883	3,137.7	77.5169	3,137.7	77.2091	3,137.7	75.5787	3,137.7	74.465	3,137.7	72.4792	3,137.7	72.3661	3,137.7	69.9707	3,137.7	70.397	3,137.7	66.8097	3,137.7	67.4991	3,137.7	66.2924	3,137.7	65.8786	3,137.7	64.2235	3,137.7	66.1577	3,137.7	63.0785	3,137.7	63.7477	3,137.7	64.0554	3,137.7	64.2338	3,137.7	64.1856	3,137.7	59.6791	3,137.7	63.7062	3,137.7	61.2241	3,137.7	60.7375	3,137.7	60.3119	3,137.7	62.8611
3,249.02	85.5011	3,249.02	85.4271	3,249.02	84.906	3,249.02	84.1309	3,249.02	84.2307	3,249.02	82.8991	3,249.02	82.8387	3,249.02	81.3491	3,249.02	81.2345	3,249.02	79.478	3,249.02	79.3882	3,249.02	77.3163	3,249.02	76.9534	3,249.02	74.976	3,249.02	75.0327	3,249.02	72.3307	3,249.02	72.323	3,249.02	70.0664	3,249.02	70.2267	3,249.02	67.4375	3,249.02	67.6537	3,249.02	65.793	3,249.02	65.7331	3,249.02	64.9667	3,249.02	65.7542	3,249.02	62.3186	3,249.02	63.9636	3,249.02	59.3022	3,249.02	64.015	3,249.02	64.7507	3,249.02	60.7454	3,249.02	62.7323	3,249.02	62.3675	3,249.02	62.9917	3,249.02	59.1684	3,249.02	64.8342
3,363.28	85.8127	3,363.28	85.3866	3,363.28	85.4237	3,363.28	84.4813	3,363.28	84.4011	3,363.28	83.0255	3,363.28	83.217	3,363.28	81.3496	3,363.28	81.5916	3,363.28	79.4633	3,363.28	79.5915	3,363.28	77.105	3,363.28	77.2691	3,363.28	74.4243	3,363.28	74.7833	3,363.28	71.7727	3,363.28	71.8352	3,363.28	68.9788	3,363.28	69.191	3,363.28	66.6186	3,363.28	66.553	3,363.28	65.2499	3,363.28	64.4351	3,363.28	62.8443	3,363.28	63.5478	3,363.28	61.6522	3,363.28	62.3715	3,363.28	47.4042	3,363.28	63.9226	3,363.28	61.4643	3,363.28	62.3956	3,363.28	61.0934	3,363.28	60.212	3,363.28	55.9893	3,363.28	59.7905	3,363.28	63.1273
3,481.93	85.4206	3,481.93	85.3875	3,481.93	85.3858	3,481.93	84.745	3,481.93	84.6993	3,481.93	83.4856	3,481.93	83.5102	3,481.93	82.2685	3,481.93	81.8425	3,481.93	80.5143	3,481.93	79.9208	3,481.93	78.2349	3,481.93	77.4121	3,481.93	75.2975	3,481.93	75.0507	3,481.93	72.5589	3,481.93	72.2727	3,481.93	70.0863	3,481.93	70.2615	3,481.93	67.2611	3,481.93	67.188	3,481.93	64.6255	3,481.93	64.7319	3,481.93	64.467	3,481.93	63.0001	3,481.93	65.4286	3,481.93	61.0805	3,481.93	56.6363	3,481.93	61.719	3,481.93	62.7556	3,481.93	59.6219	3,481.93	56.0889	3,481.93	55.2164	3,481.93	56.4057	3,481.93	57.8375	3,481.93	61.673
3,604.98	86.088	3,604.98	85.8408	3,604.98	86.0502	3,604.98	84.8458	3,604.98	85.3684	3,604.98	83.7455	3,604.98	84.0734	3,604.98	82.5348	3,604.98	82.6983	3,604.98	80.6795	3,604.98	80.7641	3,604.98	78.7072	3,604.98	78.3569	3,604.98	75.9186	3,604.98	75.9839	3,604.98	73.2919	3,604.98	73.6235	3,604.98	70.9059	3,604.98	70.8925	3,604.98	68.8461	3,604.98	69.1891	3,604.98	66.3586	3,604.98	67.6244	3,604.98	67.1927	3,604.98	66.0735	3,604.98	66.534	3,604.98	64.2875	3,604.98	58.8007	3,604.98	62.2576	3,604.98	61.6343	3,604.98	61.3038	3,604.98	54.757	3,604.98	55.7223	3,604.98	51.7647	3,604.98	53.5938	3,604.98	59.3087
3,732.42	86.6522	3,732.42	86.6633	3,732.42	86.532	3,732.42	85.8862	3,732.42	85.7577	3,732.42	84.7647	3,732.42	84.6153	3,732.42	83.2081	3,732.42	83.1254	3,732.42	81.1921	3,732.42	80.8642	3,732.42	78.5402	3,732.42	78.1318	3,732.42	76.3966	3,732.42	75.0265	3,732.42	72.9872	3,732.42	73.5193	3,732.42	69.2792	3,732.42	70.5287	3,732.42	68.0316	3,732.42	68.8299	3,732.42	66.6564	3,732.42	66.672	3,732.42	67.0735	3,732.42	65.5831	3,732.42	68.2762	3,732.42	65.3277	3,732.42	64.6254	3,732.42	61.2105	3,732.42	60.7871	3,732.42	62.3239	3,732.42	56.9268	3,732.42	55.9578	3,732.42	53.9084	3,732.42	52.2796	3,732.42	61.9707
3,864.26	85.5711	3,864.26	85.4332	3,864.26	84.893	3,864.26	84.7869	3,864.26	84.737	3,864.26	84.0578	3,864.26	83.423	3,864.26	82.5242	3,864.26	81.3909	3,864.26	80.6727	3,864.26	79.2982	3,864.26	78.132	3,864.26	76.963	3,864.26	75.5088	3,864.26	73.6938	3,864.26	73.1014	3,864.26	72.0472	3,864.26	70.8886	3,864.26	69.0877	3,864.26	67.6628	3,864.26	66.5368	3,864.26	64.5863	3,864.26	64.6952	3,864.26	66.3014	3,864.26	63.3849	3,864.26	68.4603	3,864.26	62.1341	3,864.26	66.4527	3,864.26	59.3145	3,864.26	59.6938	3,864.26	62.0708	3,864.26	54.5602	3,864.26	55.0416	3,864.26	55.1393	3,864.26	37.6905	3,864.26	60.7589
4,000.49	85.3176	4,000.49	84.6432	4,000.49	84.7974	4,000.49	83.9532	4,000.49	84.3794	4,000.49	83.642	4,000.49	83.7217	4,000.49	82.131	4,000.49	81.9821	4,000.49	79.3678	4,000.49	79.8447	4,000.49	77.1408	4,000.49	77.5154	4,000.49	74.0645	4,000.49	74.6914	4,000.49	72.0514	4,000.49	72.5569	4,000.49	70.3147	4,000.49	69.9426	4,000.49	66.6891	4,000.49	68.2764	4,000.49	65.4659	4,000.49	66.1758	4,000.49	64.3613	4,000.49	62.466	4,000.49	64.0488	4,000.49	60.783	4,000.49	64.9181	4,000.49	60.789	4,000.49	56.5189	4,000.49	62.6064	4,000.49	52.3398	4,000.49	58.6233	4,000.49	45.6082	4,000.49	34.1841	4,000.49	60.8929
4,141.11	85.5176	4,141.11	85.7262	4,141.11	85.7785	4,141.11	85.486	4,141.11	85.1797	4,141.11	84.4927	4,141.11	84.2167	4,141.11	83.1568	4,141.11	82.5826	4,141.11	80.9334	4,141.11	80.3615	4,141.11	78.4017	4,141.11	77.5481	4,141.11	76.5224	4,141.11	74.0927	4,141.11	73.2645	4,141.11	71.8244	4,141.11	69.8962	4,141.11	69.3466	4,141.11	68.4279	4,141.11	67.4262	4,141.11	66.8124	4,141.11	66.511	4,141.11	66.5648	4,141.11	64.557	4,141.11	64.7654	4,141.11	61.4432	4,141.11	63.595	4,141.11	58.4968	4,141.11	55.7959	4,141.11	64.2335	4,141.11	59.2872	4,141.11	53.9895	4,141.11	52.5662	4,141.11	41.8083	4,141.11	58.7967
4,287.6	85.3418	4,287.6	85.5401	4,287.6	85.2827	4,287.6	85.1318	4,287.6	84.7215	4,287.6	84.1551	4,287.6	83.812	4,287.6	82.4106	4,287.6	82.4711	4,287.6	80.2781	4,287.6	80.1729	4,287.6	77.3223	4,287.6	77.6905	4,287.6	75.1126	4,287.6	75.596	4,287.6	72.7288	4,287.6	71.9939	4,287.6	70.2833	4,287.6	69.5088	4,287.6	68.9685	4,287.6	67.52	4,287.6	66.3631	4,287.6	64.8621	4,287.6	64.8929	4,287.6	64.8615	4,287.6	65.8684	4,287.6	64.85	4,287.6	65.7223	4,287.6	57.4232	4,287.6	56.8716	4,287.6	61.9062	4,287.6	59.0123	4,287.6	56.3037	4,287.6	58.2203	4,287.6	50.1071	4,287.6	55.5492
4,438.48	85.9668	4,438.48	85.4889	4,438.48	85.7003	4,438.48	84.8491	4,438.48	85.2157	4,438.48	84.0368	4,438.48	83.7228	4,438.48	82.2628	4,438.48	81.6383	4,438.48	80.1919	4,438.48	79.3264	4,438.48	77.4803	4,438.48	76.5932	4,438.48	73.9893	4,438.48	74.2622	4,438.48	72.5513	4,438.48	71.9528	4,438.48	71.2676	4,438.48	69.2231	4,438.48	67.0217	4,438.48	67.0362	4,438.48	61.6579	4,438.48	65.6853	4,438.48	58.6777	4,438.48	62.8878	4,438.48	60.5533	4,438.48	64.9779	4,438.48	65.7079	4,438.48	61.92	4,438.48	54.6767	4,438.48	59.104	4,438.48	59.6037	4,438.48	57.4663	4,438.48	58.0353	4,438.48	56.1233	4,438.48	58.7507
4,595.21	85.5348	4,595.21	85.255	4,595.21	85.116	4,595.21	84.9293	4,595.21	84.359	4,595.21	84.1763	4,595.21	82.8192	4,595.21	81.941	4,595.21	80.9787	4,595.21	79.4145	4,595.21	79.2145	4,595.21	78.1246	4,595.21	77.5139	4,595.21	75.3905	4,595.21	74.7764	4,595.21	71.7743	4,595.21	70.6543	4,595.21	70.2167	4,595.21	68.8146	4,595.21	67.5729	4,595.21	64.8338	4,595.21	67.3861	4,595.21	64.8238	4,595.21	60.7906	4,595.21	63.3839	4,595.21	50.1916	4,595.21	61.3289	4,595.21	62.1984	4,595.21	61.0791	4,595.21	60.3943	4,595.21	58.3015	4,595.21	49.5501	4,595.21	54.9516	4,595.21	51.9278	4,595.21	49.0552	4,595.21	55.8845
4,756.35	86.0855	4,756.35	85.7973	4,756.35	85.427	4,756.35	84.0906	4,756.35	84.4793	4,756.35	82.4257	4,756.35	83.353	4,756.35	81.1992	4,756.35	82.0658	4,756.35	80.0462	4,756.35	80.323	4,756.35	76.727	4,756.35	77.0736	4,756.35	75.0318	4,756.35	74.1545	4,756.35	71.7297	4,756.35	72.0527	4,756.35	68.5681	4,756.35	68.6574	4,756.35	67.552	4,756.35	65.384	4,756.35	67.4413	4,756.35	64.026	4,756.35	63.0206	4,756.35	62.7757	4,756.35	52.0283	4,756.35	61.2591	4,756.35	61.3742	4,756.35	61.3153	4,756.35	60.6514	4,756.35	58.2308	4,756.35	56.7073	4,756.35	43.3855	4,756.35	59.1231	4,756.35	56.3766	4,756.35	56.329
4,924.8	86.1761	4,924.8	85.7343	4,924.8	85.6056	4,924.8	84.616	4,924.8	84.4696	4,924.8	83.8552	4,924.8	83.2709	4,924.8	82.8533	4,924.8	81.647	4,924.8	80.9017	4,924.8	78.8849	4,924.8	78.1886	4,924.8	76.1181	4,924.8	74.6036	4,924.8	72.6987	4,924.8	72.5807	4,924.8	71.0892	4,924.8	69.7753	4,924.8	68.3551	4,924.8	66.9354	4,924.8	65.746	4,924.8	63.3639	4,924.8	64.1957	4,924.8	65.1833	4,924.8	61.8218	4,924.8	61.9556	4,924.8	60.7697	4,924.8	46.5339	4,924.8	62.0599	4,924.8	56.9507	4,924.8	51.8064	4,924.8	53.2082	4,924.8	51.8217	4,924.8	55.9586	4,924.8	57.4155	4,924.8	56.0425
5,097.66	85.4584	5,097.66	85.0286	5,097.66	84.9814	5,097.66	84.0283	5,097.66	83.9978	5,097.66	83.4794	5,097.66	82.936	5,097.66	81.6913	5,097.66	80.9567	5,097.66	78.1801	5,097.66	78.4361	5,097.66	76.3095	5,097.66	76.1278	5,097.66	73.7987	5,097.66	72.683	5,097.66	71.1531	5,097.66	70.4464	5,097.66	68.4898	5,097.66	67.9037	5,097.66	64.5097	5,097.66	65.6806	5,097.66	63.9152	5,097.66	61.9613	5,097.66	64.7432	5,097.66	61.3938	5,097.66	64.146	5,097.66	55.4823	5,097.66	59.0489	5,097.66	61.7728	5,097.66	59.0912	5,097.66	50.9116	5,097.66	56.0983	5,097.66	52.4401	5,097.66	56.3979	5,097.66	51.1693	5,097.66	56.8717
5,277.83	85.6075	5,277.83	85.0981	5,277.83	84.8394	5,277.83	84.0273	5,277.83	83.857	5,277.83	82.8721	5,277.83	82.628	5,277.83	81.5148	5,277.83	81.211	5,277.83	79.7368	5,277.83	78.5342	5,277.83	75.9543	5,277.83	75.2191	5,277.83	74.0323	5,277.83	71.8976	5,277.83	71.2763	5,277.83	69.9111	5,277.83	67.1554	5,277.83	67.6283	5,277.83	64.1151	5,277.83	65.0577	5,277.83	62.6751	5,277.83	62.8318	5,277.83	59.5198	5,277.83	62.012	5,277.83	61.0266	5,277.83	56.0871	5,277.83	59.336	5,277.83	57.5169	5,277.83	57.5058	5,277.83	39.3055	5,277.83	58.9415	5,277.83	51.8853	5,277.83	57.9709	5,277.83	52.8959	5,277.83	54.6709
5,463.87	85.7535	5,463.87	85.1018	5,463.87	84.9452	5,463.87	84.1236	5,463.87	84.1146	5,463.87	83.4451	5,463.87	82.9763	5,463.87	81.6406	5,463.87	81.1702	5,463.87	79.9943	5,463.87	78.2865	5,463.87	77.5861	5,463.87	75.7717	5,463.87	74.3368	5,463.87	73.3342	5,463.87	72.0946	5,463.87	70.6353	5,463.87	68.7666	5,463.87	67.7008	5,463.87	66.9327	5,463.87	65.4105	5,463.87	64.4516	5,463.87	62.8519	5,463.87	62.4106	5,463.87	58.3043	5,463.87	62.2178	5,463.87	60.4662	5,463.87	52.638	5,463.87	61.1941	5,463.87	46.5382	5,463.87	54.6437	5,463.87	55.7798	5,463.87	50.486	5,463.87	58.8752	5,463.87	53.3096	5,463.87	55.4499
5,657.23	85.9037	5,657.23	85.8773	5,657.23	85.2165	5,657.23	84.8409	5,657.23	84.3512	5,657.23	84.0495	5,657.23	83.0283	5,657.23	81.7822	5,657.23	80.938	5,657.23	78.5864	5,657.23	78.7509	5,657.23	76.9303	5,657.23	76.3441	5,657.23	74.3091	5,657.23	73.5577	5,657.23	70.0109	5,657.23	70.0728	5,657.23	68.0435	5,657.23	67.0056	5,657.23	65.2038	5,657.23	66.667	5,657.23	60.5144	5,657.23	62.9942	5,657.23	60.9317	5,657.23	59.8548	5,657.23	60.9608	5,657.23	62.67	5,657.23	57.3032	5,657.23	57.9446	5,657.23	53.6258	5,657.23	52.6135	5,657.23	56.8096	5,657.23	46.9891	5,657.23	57.3327	5,657.23	51.0321	5,657.23	55.7753
5,856.45	85.066	5,856.45	84.9794	5,856.45	84.8145	5,856.45	83.8955	5,856.45	84.1493	5,856.45	82.3587	5,856.45	82.2301	5,856.45	81.2418	5,856.45	80.5847	5,856.45	79.6457	5,856.45	78.8374	5,856.45	77.0375	5,856.45	76.2726	5,856.45	75.0586	5,856.45	72.6018	5,856.45	71.7064	5,856.45	69.7943	5,856.45	69.3653	5,856.45	66.6895	5,856.45	66.9193	5,856.45	64.6617	5,856.45	63.8901	5,856.45	62.4326	5,856.45	62.3955	5,856.45	58.7193	5,856.45	62.2919	5,856.45	61.5126	5,856.45	56.1648	5,856.45	54.1664	5,856.45	51.1729	5,856.45	56.6628	5,856.45	60.6491	5,856.45	42.7752	5,856.45	51.3937	5,856.45	48.1316	5,856.45	54.8346
6,062.99	86.4676	6,062.99	86.3042	6,062.99	85.9076	6,062.99	85.6113	6,062.99	84.9256	6,062.99	84.4125	6,062.99	83.3794	6,062.99	82.3321	6,062.99	81.2354	6,062.99	80.7137	6,062.99	79.094	6,062.99	78.5008	6,062.99	76.3728	6,062.99	74.2338	6,062.99	73.1393	6,062.99	70.9357	6,062.99	70.9091	6,062.99	69.0793	6,062.99	67.1672	6,062.99	65.5017	6,062.99	64.9313	6,062.99	62.6276	6,062.99	62.0759	6,062.99	63.0296	6,062.99	60.9352	6,062.99	63.1845	6,062.99	61.5823	6,062.99	54.9145	6,062.99	55.0326	6,062.99	53.8977	6,062.99	61.1194	6,062.99	59.8286	6,062.99	50.4632	6,062.99	46.844	6,062.99	51.6946	6,062.99	51.6075
6,276.86	85.8123	6,276.86	85.7041	6,276.86	85.1755	6,276.86	84.4175	6,276.86	84.3211	6,276.86	83.3893	6,276.86	82.5357	6,276.86	81.5446	6,276.86	80.4914	6,276.86	79.2554	6,276.86	78.5906	6,276.86	76.4709	6,276.86	75.9288	6,276.86	74.4218	6,276.86	73.0974	6,276.86	72.2657	6,276.86	70.1513	6,276.86	69.5978	6,276.86	66.9091	6,276.86	67.3601	6,276.86	65.4958	6,276.86	64.7128	6,276.86	62.265	6,276.86	63.1494	6,276.86	60.2966	6,276.86	60.9447	6,276.86	61.8314	6,276.86	59.7264	6,276.86	59.279	6,276.86	58.2786	6,276.86	56.2834	6,276.86	53.9919	6,276.86	50.8379	6,276.86	53.9925	6,276.86	57.5198	6,276.86	38.4106
6,498.05	85.5986	6,498.05	85.303	6,498.05	85.2727	6,498.05	84.4205	6,498.05	83.854	6,498.05	82.9137	6,498.05	82.27	6,498.05	81.632	6,498.05	80.3223	6,498.05	79.8386	6,498.05	78.1562	6,498.05	76.3083	6,498.05	75.4401	6,498.05	73.8976	6,498.05	72.1549	6,498.05	71.1912	6,498.05	69.6344	6,498.05	67.2583	6,498.05	67.7759	6,498.05	64.0921	6,498.05	64.0266	6,498.05	63.8741	6,498.05	61.1404	6,498.05	60.652	6,498.05	60.8619	6,498.05	60.3223	6,498.05	58.9387	6,498.05	61.1728	6,498.05	55.915	6,498.05	57.348	6,498.05	57.1581	6,498.05	51.8955	6,498.05	49.0496	6,498.05	53.2312	6,498.05	55.8726	6,498.05	41.6693
6,726.56	86.1185	6,726.56	85.7493	6,726.56	85.4799	6,726.56	84.7752	6,726.56	84.1626	6,726.56	83.5695	6,726.56	82.5529	6,726.56	81.1351	6,726.56	80.3928	6,726.56	78.9361	6,726.56	78.4104	6,726.56	76.9652	6,726.56	75.4264	6,726.56	74.292	6,726.56	72.3785	6,726.56	71.2801	6,726.56	69.4728	6,726.56	68.2253	6,726.56	66.8428	6,726.56	64.4946	6,726.56	63.7737	6,726.56	62.1337	6,726.56	61.0106	6,726.56	58.4558	6,726.56	60.1778	6,726.56	57.2028	6,726.56	57.8262	6,726.56	58.4758	6,726.56	59.1008	6,726.56	56.7884	6,726.56	57.9518	6,726.56	54.6806	6,726.56	49.7513	6,726.56	51.8678	6,726.56	56.7852	6,726.56	47.6136
6,963.87	84.9762	6,963.87	84.8244	6,963.87	84.6341	6,963.87	83.6602	6,963.87	83.5483	6,963.87	82.4552	6,963.87	81.5847	6,963.87	80.5988	6,963.87	80.1998	6,963.87	78.4911	6,963.87	77.9338	6,963.87	76.2016	6,963.87	74.8896	6,963.87	72.9235	6,963.87	71.705	6,963.87	69.5267	6,963.87	69.0243	6,963.87	65.4722	6,963.87	65.6554	6,963.87	63.0233	6,963.87	63.5216	6,963.87	61.8438	6,963.87	60.1678	6,963.87	60.1949	6,963.87	59.6472	6,963.87	56.2301	6,963.87	55.7948	6,963.87	53.0759	6,963.87	58.6778	6,963.87	55.3582	6,963.87	38.3198	6,963.87	51.1293	6,963.87	44.6172	6,963.87	42.1467	6,963.87	54.9788	6,963.87	46.9936
7,209.96	85.7584	7,209.96	85.5501	7,209.96	85.1726	7,209.96	84.6371	7,209.96	83.9922	7,209.96	83.0661	7,209.96	82.4501	7,209.96	81.105	7,209.96	80.4874	7,209.96	79.256	7,209.96	77.6796	7,209.96	76.9636	7,209.96	75.1607	7,209.96	73.839	7,209.96	72.0751	7,209.96	70.6815	7,209.96	68.7327	7,209.96	68.2989	7,209.96	66.0265	7,209.96	64.3939	7,209.96	62.7542	7,209.96	61.8578	7,209.96	60.5276	7,209.96	59.562	7,209.96	60.1497	7,209.96	56.5498	7,209.96	57.4362	7,209.96	55.2167	7,209.96	54.0386	7,209.96	54.3589	7,209.96	39.8133	7,209.96	49.2735	7,209.96	45.3946	7,209.96	48.7043	7,209.96	53.1594	7,209.96	49.4483
7,464.84	85.4771	7,464.84	85.658	7,464.84	84.9655	7,464.84	84.2608	7,464.84	83.7377	7,464.84	83.1165	7,464.84	81.8973	7,464.84	81.3451	7,464.84	80.0399	7,464.84	79.2326	7,464.84	77.3531	7,464.84	76.6434	7,464.84	74.5157	7,464.84	73.7264	7,464.84	70.718	7,464.84	70.0859	7,464.84	68.4109	7,464.84	67.8094	7,464.84	65.312	7,464.84	64.5919	7,464.84	63.6192	7,464.84	61.3549	7,464.84	61.2672	7,464.84	61.2908	7,464.84	58.4568	7,464.84	53.7898	7,464.84	57.8693	7,464.84	57.7488	7,464.84	50.9046	7,464.84	55.2262	7,464.84	41.004	7,464.84	52.4627	7,464.84	50.8683	7,464.84	48.6223	7,464.84	48.0502	7,464.84	51.8812
7,727.05	85.9854	7,727.05	85.6634	7,727.05	85.4788	7,727.05	84.6523	7,727.05	84.0952	7,727.05	83.2753	7,727.05	82.8571	7,727.05	81.1801	7,727.05	80.3012	7,727.05	79.0813	7,727.05	78.1017	7,727.05	76.3482	7,727.05	75.1985	7,727.05	72.7343	7,727.05	71.984	7,727.05	70.0711	7,727.05	69.0208	7,727.05	67.0585	7,727.05	65.4409	7,727.05	64.0622	7,727.05	62.9224	7,727.05	63.6187	7,727.05	61.2294	7,727.05	58.6628	7,727.05	57.7975	7,727.05	56.9561	7,727.05	57.4812	7,727.05	56.6591	7,727.05	38.017	7,727.05	57.0688	7,727.05	50.112	7,727.05	50.2038	7,727.05	46.8004	7,727.05	44.9744	7,727.05	47.0469	7,727.05	48.0726
7,999.51	85.7587	7,999.51	85.7813	7,999.51	85.2733	7,999.51	84.8232	7,999.51	84.1369	7,999.51	83.7695	7,999.51	82.3092	7,999.51	81.9089	7,999.51	80.7335	7,999.51	80.0421	7,999.51	78.416	7,999.51	77.2135	7,999.51	75.559	7,999.51	74.3197	7,999.51	72.5479	7,999.51	71.2142	7,999.51	68.9667	7,999.51	66.7476	7,999.51	66.1806	7,999.51	65.303	7,999.51	63.1304	7,999.51	63.751	7,999.51	62.619	7,999.51	59.3806	7,999.51	60.2523	7,999.51	55.8534	7,999.51	54.4713	7,999.51	56.1548	7,999.51	50.3808	7,999.51	53.6002	7,999.51	49.0222	7,999.51	52.9093	7,999.51	46.5395	7,999.51	50.8548	7,999.51	53.0349	7,999.51	48.6267
8,282.23	85.7891	8,282.23	85.3496	8,282.23	85.3154	8,282.23	84.7556	8,282.23	84.0931	8,282.23	83.6081	8,282.23	82.8199	8,282.23	81.8853	8,282.23	80.6868	8,282.23	80.3679	8,282.23	78.6936	8,282.23	77.4044	8,282.23	75.7496	8,282.23	74.3905	8,282.23	72.8706	8,282.23	70.831	8,282.23	70.2981	8,282.23	67.1508	8,282.23	65.4927	8,282.23	63.9828	8,282.23	62.4408	8,282.23	62.9159	8,282.23	62.5619	8,282.23	60.2551	8,282.23	59.0788	8,282.23	56.1711	8,282.23	53.4873	8,282.23	57.3965	8,282.23	51.5568	8,282.23	56.0706	8,282.23	51.395	8,282.23	43.3538	8,282.23	39.5671	8,282.23	55.5582	8,282.23	50.5526	8,282.23	49.9452
8,573.73	85.6902	8,573.73	85.6851	8,573.73	84.9659	8,573.73	84.9031	8,573.73	84.3266	8,573.73	84.1095	8,573.73	82.513	8,573.73	82.5447	8,573.73	80.9452	8,573.73	80.2605	8,573.73	78.5441	8,573.73	77.3678	8,573.73	75.6703	8,573.73	74.631	8,573.73	72.0256	8,573.73	71.4002	8,573.73	69.8487	8,573.73	67.277	8,573.73	66.1732	8,573.73	65.0762	8,573.73	63.9002	8,573.73	62.1595	8,573.73	61.0635	8,573.73	58.4899	8,573.73	60.6919	8,573.73	59.9749	8,573.73	55.9793	8,573.73	53.2924	8,573.73	53.2606	8,573.73	53.6891	8,573.73	37.5795	8,573.73	46.3122	8,573.73	45.515	8,573.73	50.7854	8,573.73	49.7913	8,573.73	52.1714
8,876.95	85.2707	8,876.95	85.1049	8,876.95	84.6196	8,876.95	84.5096	8,876.95	84.1268	8,876.95	83.5038	8,876.95	82.8027	8,876.95	81.6697	8,876.95	80.9955	8,876.95	79.6269	8,876.95	78.3168	8,876.95	77.4408	8,876.95	75.5867	8,876.95	74.3257	8,876.95	72.0295	8,876.95	70.9841	8,876.95	69.2203	8,876.95	67.3763	8,876.95	65.6497	8,876.95	64.3393	8,876.95	62.8384	8,876.95	61.3762	8,876.95	60.6046	8,876.95	60.038	8,876.95	58.4469	8,876.95	57.4461	8,876.95	56.5643	8,876.95	50.3426	8,876.95	52.0379	8,876.95	51.7791	8,876.95	46.9633	8,876.95	39.5735	8,876.95	41.2419	8,876.95	55.6122	8,876.95	53.51	8,876.95	55.4922
9,188.96	85.2062	9,188.96	85.0984	9,188.96	84.5471	9,188.96	84.5019	9,188.96	83.9504	9,188.96	83.95	9,188.96	82.1417	9,188.96	82.2482	9,188.96	80.284	9,188.96	79.8444	9,188.96	78.3156	9,188.96	77.0178	9,188.96	75.3953	9,188.96	73.6548	9,188.96	71.5855	9,188.96	70.8093	9,188.96	69.1889	9,188.96	67.318	9,188.96	65.4076	9,188.96	63.9923	9,188.96	63.6716	9,188.96	62.1988	9,188.96	59.7987	9,188.96	59.0674	9,188.96	56.9916	9,188.96	57.4902	9,188.96	55.0073	9,188.96	51.3966	9,188.96	48.649	9,188.96	51.4101	9,188.96	44.5978	9,188.96	31.9799	9,188.96	35.1221	9,188.96	51.8195	9,188.96	48.6842	9,188.96	54.2099
9,514.16	85.253	9,514.16	84.9099	9,514.16	84.5555	9,514.16	84.5885	9,514.16	84.1298	9,514.16	83.7392	9,514.16	82.5091	9,514.16	81.8236	9,514.16	80.6159	9,514.16	79.4859	9,514.16	77.9759	9,514.16	77.326	9,514.16	75.3045	9,514.16	73.7363	9,514.16	72.208	9,514.16	70.4512	9,514.16	68.1926	9,514.16	66.9231	9,514.16	64.2941	9,514.16	64.6118	9,514.16	63.0406	9,514.16	60.8906	9,514.16	60.4277	9,514.16	57.652	9,514.16	54.2262	9,514.16	56.0594	9,514.16	55.4901	9,514.16	51.2099	9,514.16	41.125	9,514.16	52.2385	9,514.16	47.5472	9,514.16	43.2859	9,514.16	29.114	9,514.16	55.1693	9,514.16	49.5282	9,514.16	54.276
9,849.61	84.8929	9,849.61	84.6452	9,849.61	84.3781	9,849.61	84.388	9,849.61	83.9747	9,849.61	83.7481	9,849.61	82.4026	9,849.61	81.8605	9,849.61	80.5024	9,849.61	79.6336	9,849.61	78.1631	9,849.61	76.7238	9,849.61	75.1084	9,849.61	73.6159	9,849.61	71.7183	9,849.61	70.6062	9,849.61	68.0984	9,849.61	66.6993	9,849.61	63.7603	9,849.61	62.9575	9,849.61	62.7458	9,849.61	60.7807	9,849.61	60.1303	9,849.61	57.5272	9,849.61	53.5326	9,849.61	56.9882	9,849.61	51.9482	9,849.61	49.9508	9,849.61	47.5135	9,849.61	51.9513	9,849.61	44.2953	9,849.61	47.4067	9,849.61	39.4217	9,849.61	55.493	9,849.61	49.1166	9,849.61	52.6826
10,196.8	84.7693	10,196.8	84.6074	10,196.8	84.4143	10,196.8	84.6174	10,196.8	84.3277	10,196.8	83.8574	10,196.8	82.9235	10,196.8	81.9898	10,196.8	81.2165	10,196.8	79.7756	10,196.8	79.0235	10,196.8	77.1494	10,196.8	75.5004	10,196.8	73.5103	10,196.8	71.6329	10,196.8	70.0209	10,196.8	68.4473	10,196.8	65.9343	10,196.8	63.9332	10,196.8	63.5373	10,196.8	62.7735	10,196.8	59.5659	10,196.8	60.0123	10,196.8	57.2531	10,196.8	54.2776	10,196.8	53.8947	10,196.8	49.9229	10,196.8	53.4336	10,196.8	50.9572	10,196.8	47.872	10,196.8	41.9738	10,196.8	46.2022	10,196.8	47.2962	10,196.8	55.8549	10,196.8	50.3766	10,196.8	53.5296
10,555.7	84.5278	10,555.7	84.3815	10,555.7	84.2899	10,555.7	84.5525	10,555.7	84.1975	10,555.7	84.1059	10,555.7	82.8413	10,555.7	82.3729	10,555.7	81.1628	10,555.7	80.3934	10,555.7	78.8838	10,555.7	77.2316	10,555.7	75.0992	10,555.7	73.7702	10,555.7	71.4703	10,555.7	69.8395	10,555.7	67.3895	10,555.7	64.944	10,555.7	64.3954	10,555.7	62.9204	10,555.7	61.9392	10,555.7	58.5137	10,555.7	58.2828	10,555.7	57.6735	10,555.7	53.7054	10,555.7	51.8648	10,555.7	48.1355	10,555.7	52.2363	10,555.7	45.189	10,555.7	39.5459	10,555.7	44.4906	10,555.7	49.2823	10,555.7	47.6133	10,555.7	56.8796	10,555.7	46.7179	10,555.7	53.1841
10,927.7	84.5572	10,927.7	84.6404	10,927.7	84.4949	10,927.7	84.886	10,927.7	84.3319	10,927.7	84.2863	10,927.7	82.9896	10,927.7	82.6135	10,927.7	81.3312	10,927.7	80.2405	10,927.7	78.6789	10,927.7	77.0942	10,927.7	74.7202	10,927.7	73.436	10,927.7	70.9754	10,927.7	69.4846	10,927.7	67.2113	10,927.7	65.7827	10,927.7	64.8285	10,927.7	62.6309	10,927.7	61.9071	10,927.7	59.1512	10,927.7	56.6796	10,927.7	56.9678	10,927.7	52.6279	10,927.7	49.5493	10,927.7	44.7274	10,927.7	54.633	10,927.7	49.4158	10,927.7	43.7508	10,927.7	43.3831	10,927.7	49.3624	10,927.7	42.4783	10,927.7	46.72	10,927.7	46.766	10,927.7	50.128
11,313	84.7126	11,313	84.8361	11,313	84.4176	11,313	84.976	11,313	84.498	11,313	84.4229	11,313	83.4329	11,313	82.7112	11,313	81.6274	11,313	80.6648	11,313	78.6849	11,313	77.0729	11,313	74.8275	11,313	73.1216	11,313	71.703	11,313	69.2359	11,313	67.5421	11,313	65.5343	11,313	64.1882	11,313	63.3973	11,313	62.5434	11,313	59.9876	11,313	57.4292	11,313	55.7366	11,313	54.3977	11,313	48.0899	11,313	49.8764	11,313	52.7824	11,313	49.4447	11,313	45.5006	11,313	49.224	11,313	51.3367	11,313	44.2258	11,313	46.5762	11,313	48.5725	11,313	52.8281
11,712.9	84.5256	11,712.9	84.6522	11,712.9	84.3793	11,712.9	85.1133	11,712.9	84.4915	11,712.9	84.7586	11,712.9	83.3966	11,712.9	83.0608	11,712.9	81.6446	11,712.9	80.4028	11,712.9	78.4152	11,712.9	76.7828	11,712.9	74.6699	11,712.9	73.4086	11,712.9	71.6443	11,712.9	69.9934	11,712.9	67.7254	11,712.9	66.7574	11,712.9	65.1716	11,712.9	61.8412	11,712.9	62.0956	11,712.9	58.654	11,712.9	55.4329	11,712.9	57.5082	11,712.9	53.6397	11,712.9	44.0193	11,712.9	48.1191	11,712.9	53.8586	11,712.9	40.1074	11,712.9	34.6944	11,712.9	49.8341	11,712.9	50.3149	11,712.9	43.967	11,712.9	48.308	11,712.9	50.3653	11,712.9	52.5066
12,126	84.2487	12,126	84.365	12,126	84.2198	12,126	85.0171	12,126	84.4193	12,126	84.734	12,126	83.6088	12,126	82.9919	12,126	81.6278	12,126	80.2673	12,126	78.3555	12,126	76.6944	12,126	74.639	12,126	73.0333	12,126	71.7403	12,126	69.0213	12,126	67.5649	12,126	65.6692	12,126	64.7506	12,126	62.4238	12,126	61.6285	12,126	57.9863	12,126	55.9691	12,126	56.0093	12,126	49.8855	12,126	48.7897	12,126	47.709	12,126	55.808	12,126	46.1333	12,126	41.8314	12,126	48.2252	12,126	49.2877	12,126	30.8578	12,126	46.9478	12,126	41.0963	12,126	46.4562
12,553.7	84.0785	12,553.7	84.2994	12,553.7	84.2421	12,553.7	84.8357	12,553.7	84.4439	12,553.7	84.5698	12,553.7	83.5924	12,553.7	82.8996	12,553.7	81.4669	12,553.7	79.8875	12,553.7	78.1714	12,553.7	76.372	12,553.7	74.5125	12,553.7	73.1314	12,553.7	71.2799	12,553.7	68.9574	12,553.7	66.4146	12,553.7	65.4512	12,553.7	63.6157	12,553.7	62.2324	12,553.7	60.7923	12,553.7	56.6255	12,553.7	55.3526	12,553.7	54.9029	12,553.7	47.9929	12,553.7	46.9329	12,553.7	44.9134	12,553.7	53.6102	12,553.7	46.627	12,553.7	42.8694	12,553.7	47.7065	12,553.7	50.8508	12,553.7	42.0645	12,553.7	51.0396	12,553.7	47.248	12,553.7	46.0761
12,996.1	84.2408	12,996.1	84.333	12,996.1	84.1577	12,996.1	84.5693	12,996.1	84.2008	12,996.1	84.2162	12,996.1	83.132	12,996.1	82.3197	12,996.1	80.7828	12,996.1	79.2241	12,996.1	77.4017	12,996.1	75.8425	12,996.1	73.976	12,996.1	72.3507	12,996.1	70.3901	12,996.1	68.2854	12,996.1	65.9221	12,996.1	65.1126	12,996.1	63.1736	12,996.1	60.4079	12,996.1	60.4282	12,996.1	56.1156	12,996.1	53.3151	12,996.1	54.8373	12,996.1	48.5666	12,996.1	40.8435	12,996.1	47.6186	12,996.1	51.6056	12,996.1	50.3031	12,996.1	42.9743	12,996.1	42.5292	12,996.1	50.416	12,996.1	23.476	12,996.1	52.3724	12,996.1	43.9066	12,996.1	39.9014
13,454.6	84.9333	13,454.6	84.6648	13,454.6	84.4321	13,454.6	84.4758	13,454.6	83.9306	13,454.6	83.9914	13,454.6	82.6737	13,454.6	81.8944	13,454.6	80.0891	13,454.6	79.0302	13,454.6	77.0246	13,454.6	75.8017	13,454.6	73.6245	13,454.6	72.2973	13,454.6	69.7711	13,454.6	67.8341	13,454.6	65.1671	13,454.6	64.3125	13,454.6	62.9852	13,454.6	60.2134	13,454.6	58.7011	13,454.6	55.9532	13,454.6	51.5127	13,454.6	53.55	13,454.6	46.3304	13,454.6	43.1576	13,454.6	44.3487	13,454.6	49.9163	13,454.6	51.1201	13,454.6	38.8607	13,454.6	42.6067	13,454.6	41.9606	13,454.6	43.8092	13,454.6	48.8103	13,454.6	47.6161	13,454.6	44.4171
13,929.2	84.5015	13,929.2	84.268	13,929.2	83.9925	13,929.2	84.2592	13,929.2	83.7746	13,929.2	83.8958	13,929.2	82.5829	13,929.2	81.8451	13,929.2	79.8924	13,929.2	78.9995	13,929.2	76.9449	13,929.2	75.1366	13,929.2	72.6038	13,929.2	71.4847	13,929.2	68.4969	13,929.2	66.706	13,929.2	64.2872	13,929.2	63.6324	13,929.2	62.1756	13,929.2	58.9394	13,929.2	57.5456	13,929.2	55.1979	13,929.2	50.6026	13,929.2	54.0886	13,929.2	42.9269	13,929.2	43.0651	13,929.2	41.1815	13,929.2	52.94	13,929.2	51.0149	13,929.2	43.9815	13,929.2	45.7367	13,929.2	41.0426	13,929.2	44.6995	13,929.2	39.6739	13,929.2	46.8976	13,929.2	45.2004
14,419.9	84.1046	14,419.9	84.0593	14,419.9	84.0523	14,419.9	84.6795	14,419.9	84.1285	14,419.9	84.3484	14,419.9	83.0711	14,419.9	82.056	14,419.9	80.4005	14,419.9	79.113	14,419.9	77.0785	14,419.9	75.0641	14,419.9	72.4148	14,419.9	71.2281	14,419.9	69.3459	14,419.9	66.8582	14,419.9	64.61	14,419.9	63.5202	14,419.9	62.0589	14,419.9	59.5294	14,419.9	57.9938	14,419.9	53.4415	14,419.9	52.2623	14,419.9	53.9308	14,419.9	46.7186	14,419.9	42.3499	14,419.9	37.7474	14,419.9	50.9024	14,419.9	50.8136	14,419.9	45.0194	14,419.9	41.7623	14,419.9	38.1373	14,419.9	43.3898	14,419.9	45.8746	14,419.9	45.8652	14,419.9	43.6248
14,928.2	84.0145	14,928.2	84.2609	14,928.2	84.3174	14,928.2	85.2059	14,928.2	84.7241	14,928.2	84.9334	14,928.2	83.7113	14,928.2	82.6137	14,928.2	81.1243	14,928.2	79.5899	14,928.2	77.4584	14,928.2	75.4268	14,928.2	73.0864	14,928.2	71.6834	14,928.2	69.5195	14,928.2	67.1508	14,928.2	65.2259	14,928.2	64.0429	14,928.2	62.642	14,928.2	58.9047	14,928.2	57.6509	14,928.2	54.936	14,928.2	50.1418	14,928.2	53.7696	14,928.2	47.1165	14,928.2	32.388	14,928.2	41.705	14,928.2	46.7858	14,928.2	53.2195	14,928.2	41.8702	14,928.2	37.6614	14,928.2	35.5735	14,928.2	39.9273	14,928.2	49.1277	14,928.2	42.2064	14,928.2	39.0137
15,455.6	83.7051	15,455.6	84.2993	15,455.6	84.3739	15,455.6	85.6491	15,455.6	85.2454	15,455.6	85.5451	15,455.6	84.133	15,455.6	83.1106	15,455.6	81.4757	15,455.6	79.9191	15,455.6	77.4992	15,455.6	75.4946	15,455.6	73.2797	15,455.6	71.5538	15,455.6	69.789	15,455.6	67.0633	15,455.6	65.7177	15,455.6	64.116	15,455.6	63.0311	15,455.6	57.8394	15,455.6	57.777	15,455.6	52.863	15,455.6	52.3792	15,455.6	55.688	15,455.6	47.2159	15,455.6	46.594	15,455.6	44.6172	15,455.6	51.3391	15,455.6	50.9917	15,455.6	43.1881	15,455.6	42.2811	15,455.6	39.613	15,455.6	39.5176	15,455.6	49.4251	15,455.6	44.2777	15,455.6	40.8504
16,000.5	83.9413	16,000.5	84.4756	16,000.5	84.2181	16,000.5	85.5865	16,000.5	84.8835	16,000.5	85.2768	16,000.5	83.6027	16,000.5	82.7379	16,000.5	80.9142	16,000.5	79.2815	16,000.5	76.6746	16,000.5	74.7914	16,000.5	72.8463	16,000.5	71.1591	16,000.5	69.1628	16,000.5	66.3	16,000.5	64.0568	16,000.5	62.8331	16,000.5	61.6475	16,000.5	58.0325	16,000.5	56.7078	16,000.5	52.9438	16,000.5	50.8677	16,000.5	53.7587	16,000.5	41.0012	16,000.5	45.6134	16,000.5	43.5664	16,000.5	48.0111	16,000.5	49.0284	16,000.5	44.6413	16,000.5	46.0651	16,000.5	42.6689	16,000.5	39.8801	16,000.5	48.8005	16,000.5	45.5834	16,000.5	41.3991
16,564.5	83.7368	16,564.5	84.2511	16,564.5	83.4832	16,564.5	85.0974	16,564.5	83.8742	16,564.5	84.5865	16,564.5	82.496	16,564.5	81.9232	16,564.5	79.7744	16,564.5	78.4511	16,564.5	75.8461	16,564.5	74.3531	16,564.5	71.7809	16,564.5	70.1444	16,564.5	67.3601	16,564.5	65.5213	16,564.5	63.4999	16,564.5	62.3038	16,564.5	60.4745	16,564.5	56.4113	16,564.5	55.0122	16,564.5	53.2194	16,564.5	51.8282	16,564.5	52.8057	16,564.5	36.5341	16,564.5	25.3482	16,564.5	42.2929	16,564.5	32.2978	16,564.5	47.7624	16,564.5	38.8234	16,564.5	45.1139	16,564.5	44.7873	16,564.5	44.3758	16,564.5	47.795	16,564.5	47.9527	16,564.5	41.7518
17,148.9	82.791	17,148.9	83.3227	17,148.9	82.4413	17,148.9	84.2668	17,148.9	82.9376	17,148.9	83.7508	17,148.9	81.555	17,148.9	81.0418	17,148.9	78.9036	17,148.9	77.6868	17,148.9	75.0926	17,148.9	73.2596	17,148.9	70.7747	17,148.9	69.435	17,148.9	66.6762	17,148.9	64.8353	17,148.9	63.2741	17,148.9	61.2319	17,148.9	60.5756	17,148.9	55.7869	17,148.9	54.4387	17,148.9	52.018	17,148.9	49.9391	17,148.9	52.918	17,148.9	41.8034	17,148.9	41.991	17,148.9	38.6347	17,148.9	26.5703	17,148.9	44.4003	17,148.9	39.7933	17,148.9	45.3455	17,148.9	41.4489	17,148.9	40.7969	17,148.9	40.4624	17,148.9	43.3019	17,148.9	42.4749
17,752.4	82.4961	17,752.4	83.0107	17,752.4	82.2484	17,752.4	84.0104	17,752.4	82.6177	17,752.4	83.3991	17,752.4	81.4232	17,752.4	80.6872	17,752.4	78.8393	17,752.4	77.3852	17,752.4	75.2808	17,752.4	72.7489	17,752.4	70.8088	17,752.4	69.0356	17,752.4	67.3374	17,752.4	64.6935	17,752.4	63.2629	17,752.4	60.9239	17,752.4	60.1072	17,752.4	55.1255	17,752.4	53.5581	17,752.4	51.1507	17,752.4	51.0644	17,752.4	51.5088	17,752.4	40.7333	17,752.4	37.4661	17,752.4	41.3736	17,752.4	45.4149	17,752.4	42.3636	17,752.4	36.5237	17,752.4	45.9094	17,752.4	43.2888	17,752.4	43.8342	17,752.4	44.1568	17,752.4	45.8492	17,752.4	41.4965
18,379.4	81.9992	18,379.4	82.5677	18,379.4	81.9879	18,379.4	83.66	18,379.4	82.3972	18,379.4	82.9507	18,379.4	81.2397	18,379.4	80.3014	18,379.4	78.6898	18,379.4	77.0318	18,379.4	75.1514	18,379.4	72.3266	18,379.4	70.6076	18,379.4	68.6372	18,379.4	66.9854	18,379.4	63.7458	18,379.4	62.4701	18,379.4	60.2179	18,379.4	59.0046	18,379.4	54.4078	18,379.4	53.4577	18,379.4	50.5089	18,379.4	51.3007	18,379.4	48.9682	18,379.4	40.07	18,379.4	20.9105	18,379.4	42.1149	18,379.4	44.8269	18,379.4	25.6704	18,379.4	28.1841	18,379.4	46.1329	18,379.4	40.858	18,379.4	43.5042	18,379.4	45.0035	18,379.4	45.1215	18,379.4	44.2913
19,026.9	81.7338	19,026.9	82.2658	19,026.9	81.6247	19,026.9	83.3393	19,026.9	82.0978	19,026.9	82.6577	19,026.9	80.9615	19,026.9	79.9691	19,026.9	78.494	19,026.9	76.5965	19,026.9	74.5783	19,026.9	71.808	19,026.9	69.8593	19,026.9	67.7255	19,026.9	65.5858	19,026.9	62.5173	19,026.9	61.0424	19,026.9	58.9433	19,026.9	58.0006	19,026.9	52.9599	19,026.9	52.0804	19,026.9	48.5631	19,026.9	49.7119	19,026.9	47.538	19,026.9	39.3403	19,026.9	23.8325	19,026.9	40.1381	19,026.9	45.1586	19,026.9	41.7836	19,026.9	36.3704	19,026.9	45.0113	19,026.9	37.8568	19,026.9	42.3443	19,026.9	39.4999	19,026.9	46.1233	19,026.9	39.1486
19,697.8	81.5072	19,697.8	81.8142	19,697.8	81.465	19,697.8	82.8182	19,697.8	81.7702	19,697.8	82.1572	19,697.8	80.4912	19,697.8	79.4751	19,697.8	77.9119	19,697.8	76.0241	19,697.8	73.5183	19,697.8	70.9954	19,697.8	68.4051	19,697.8	66.3347	19,697.8	63.4696	19,697.8	61.7031	19,697.8	59.3066	19,697.8	58.2254	19,697.8	56.7327	19,697.8	51.584	19,697.8	49.9977	19,697.8	47.231	19,697.8	49.2267	19,697.8	45.6968	19,697.8	39.0948	19,697.8	26.4088	19,697.8	35.2037	19,697.8	46.0413	19,697.8	35.6318	19,697.8	33.6902	19,697.8	41.9395	19,697.8	36.7811	19,697.8	42.5422	19,697.8	46.155	19,697.8	47.6	19,697.8	37.6304
19,999.5	81.2549	19,999.5	81.7217	19,999.5	81.5693	19,999.5	82.6899	19,999.5	81.6476	19,999.5	81.7529	19,999.5	80.31	19,999.5	79.0887	19,999.5	77.561	19,999.5	75.4688	19,999.5	73.069	19,999.5	70.3791	19,999.5	66.6558	19,999.5	65.7979	19,999.5	63.2472	19,999.5	62.1455	19,999.5	58.431	19,999.5	58.9736	19,999.5	55.0628	19,999.5	50.6088	19,999.5	46.4733	19,999.5	45.6068	19,999.5	47.1269	19,999.5	41.0431	19,999.5	47.7669	19,999.5	41.2863	19,999.5	46.4302	19,999.5	46.9403	19,999.5	48.8711	19,999.5	34.2497	19,999.5	47.6932	19,999.5	37.957	19,999.5	45.4405	19,999.5	50.0037	19,999.5	52.4946	19,999.5	36.4492
