"SPL Horizontal"
"On-Axis"		"10°"		"-10°"		"20°"		"-20°"		"30°"		"-30°"		"40°"		"-40°"		"50°"		"-50°"		"60°"		"-60°"		"70°"		"-70°"		"80°"		"-80°"		"90°"		"-90°"		"100°"		"-100°"		"110°"		"-110°"		"120°"		"-120°"		"130°"		"-130°"		"140°"		"-140°"		"150°"		"-150°"		"160°"		"-160°"		"170°"		"-170°"		"180°"
"Frequency / Hz"	"Sound Pressure Level / dB (re 20 µPa/V)  [2.83  V @ 1. m]"	"Frequency / Hz"	"Sound Pressure Level / dB (re 20 µPa/V)  [2.83  V @ 1. m]"	"Frequency / Hz"	"Sound Pressure Level / dB (re 20 µPa/V)  [2.83  V @ 1. m]"	"Frequency / Hz"	"Sound Pressure Level / dB (re 20 µPa/V)  [2.83  V @ 1. m]"	"Frequency / Hz"	"Sound Pressure Level / dB (re 20 µPa/V)  [2.83  V @ 1. m]"	"Frequency / Hz"	"Sound Pressure Level / dB (re 20 µPa/V)  [2.83  V @ 1. m]"	"Frequency / Hz"	"Sound Pressure Level / dB (re 20 µPa/V)  [2.83  V @ 1. m]"	"Frequency / Hz"	"Sound Pressure Level / dB (re 20 µPa/V)  [2.83  V @ 1. m]"	"Frequency / Hz"	"Sound Pressure Level / dB (re 20 µPa/V)  [2.83  V @ 1. m]"	"Frequency / Hz"	"Sound Pressure Level / dB (re 20 µPa/V)  [2.83  V @ 1. m]"	"Frequency / Hz"	"Sound Pressure Level / dB (re 20 µPa/V)  [2.83  V @ 1. m]"	"Frequency / Hz"	"Sound Pressure Level / dB (re 20 µPa/V)  [2.83  V @ 1. m]"	"Frequency / Hz"	"Sound Pressure Level / dB (re 20 µPa/V)  [2.83  V @ 1. m]"	"Frequency / Hz"	"Sound Pressure Level / dB (re 20 µPa/V)  [2.83  V @ 1. m]"	"Frequency / Hz"	"Sound Pressure Level / dB (re 20 µPa/V)  [2.83  V @ 1. m]"	"Frequency / Hz"	"Sound Pressure Level / dB (re 20 µPa/V)  [2.83  V @ 1. m]"	"Frequency / Hz"	"Sound Pressure Level / dB (re 20 µPa/V)  [2.83  V @ 1. m]"	"Frequency / Hz"	"Sound Pressure Level / dB (re 20 µPa/V)  [2.83  V @ 1. m]"	"Frequency / Hz"	"Sound Pressure Level / dB (re 20 µPa/V)  [2.83  V @ 1. m]"	"Frequency / Hz"	"Sound Pressure Level / dB (re 20 µPa/V)  [2.83  V @ 1. m]"	"Frequency / Hz"	"Sound Pressure Level / dB (re 20 µPa/V)  [2.83  V @ 1. m]"	"Frequency / Hz"	"Sound Pressure Level / dB (re 20 µPa/V)  [2.83  V @ 1. m]"	"Frequency / Hz"	"Sound Pressure Level / dB (re 20 µPa/V)  [2.83  V @ 1. m]"	"Frequency / Hz"	"Sound Pressure Level / dB (re 20 µPa/V)  [2.83  V @ 1. m]"	"Frequency / Hz"	"Sound Pressure Level / dB (re 20 µPa/V)  [2.83  V @ 1. m]"	"Frequency / Hz"	"Sound Pressure Level / dB (re 20 µPa/V)  [2.83  V @ 1. m]"	"Frequency / Hz"	"Sound Pressure Level / dB (re 20 µPa/V)  [2.83  V @ 1. m]"	"Frequency / Hz"	"Sound Pressure Level / dB (re 20 µPa/V)  [2.83  V @ 1. m]"	"Frequency / Hz"	"Sound Pressure Level / dB (re 20 µPa/V)  [2.83  V @ 1. m]"	"Frequency / Hz"	"Sound Pressure Level / dB (re 20 µPa/V)  [2.83  V @ 1. m]"	"Frequency / Hz"	"Sound Pressure Level / dB (re 20 µPa/V)  [2.83  V @ 1. m]"	"Frequency / Hz"	"Sound Pressure Level / dB (re 20 µPa/V)  [2.83  V @ 1. m]"	"Frequency / Hz"	"Sound Pressure Level / dB (re 20 µPa/V)  [2.83  V @ 1. m]"	"Frequency / Hz"	"Sound Pressure Level / dB (re 20 µPa/V)  [2.83  V @ 1. m]"	"Frequency / Hz"	"Sound Pressure Level / dB (re 20 µPa/V)  [2.83  V @ 1. m]"	"Frequency / Hz"	"Sound Pressure Level / dB (re 20 µPa/V)  [2.83  V @ 1. m]"
20.5078	44.3272	20.5078	44.4023	20.5078	44.409	20.5078	44.6116	20.5078	44.6561	20.5078	44.9237	20.5078	45.0579	20.5078	45.3043	20.5078	45.5849	20.5078	45.7188	20.5078	46.1943	20.5078	46.1351	20.5078	46.8381	20.5078	46.5245	20.5078	47.4703	20.5078	46.8645	20.5078	48.0528	20.5078	47.1406	20.5078	48.5569	20.5078	47.3486	20.5078	48.963	20.5078	47.4955	20.5078	49.2599	20.5078	47.5988	20.5078	49.4427	20.5078	47.6842	20.5078	49.512	20.5078	47.7802	20.5078	49.4741	20.5078	47.912	20.5078	49.3415	20.5078	48.0943	20.5078	49.1332	20.5078	48.3271	20.5078	48.8746	20.5078	48.5957
21.9727	38.7763	21.9727	38.8517	21.9727	38.6529	21.9727	38.8899	21.9727	38.4831	21.9727	38.9065	21.9727	38.2896	21.9727	38.9165	21.9727	38.1202	21.9727	38.9319	21.9727	38.0389	21.9727	38.9601	21.9727	38.0985	21.9727	39.0034	21.9727	38.3076	21.9727	39.0581	21.9727	38.6206	21.9727	39.1144	21.9727	38.962	21.9727	39.1576	21.9727	39.2599	21.9727	39.1715	21.9727	39.4642	21.9727	39.1419	21.9727	39.5496	21.9727	39.0611	21.9727	39.5112	21.9727	38.9328	21.9727	39.3627	21.9727	38.7759	21.9727	39.1367	21.9727	38.6273	21.9727	38.8845	21.9727	38.5355	21.9727	38.6685	21.9727	38.544
23.4375	45.4079	23.4375	45.1674	23.4375	45.683	23.4375	44.9622	23.4375	45.9867	23.4375	44.7898	23.4375	46.3075	23.4375	44.6463	23.4375	46.6281	23.4375	44.5275	23.4375	46.9268	23.4375	44.4319	23.4375	47.1806	23.4375	44.3609	23.4375	47.3688	23.4375	44.3199	23.4375	47.4757	23.4375	44.3161	23.4375	47.4934	23.4375	44.3556	23.4375	47.423	23.4375	44.4402	23.4375	47.2741	23.4375	44.5654	23.4375	47.0643	23.4375	44.7214	23.4375	46.8154	23.4375	44.8956	23.4375	46.5507	23.4375	45.0768	23.4375	46.2899	23.4375	45.2583	23.4375	46.0467	23.4375	45.4397	23.4375	45.8262	23.4375	45.6263
24.9023	49.2762	24.9023	49.1168	24.9023	49.4656	24.9023	48.9904	24.9023	49.6807	24.9023	48.8983	24.9023	49.9143	24.9023	48.8401	24.9023	50.1558	24.9023	48.8133	24.9023	50.3915	24.9023	48.8133	24.9023	50.6065	24.9023	48.8344	24.9023	50.7873	24.9023	48.8722	24.9023	50.9239	24.9023	48.9241	24.9023	51.0108	24.9023	48.9898	24.9023	51.0474	24.9023	49.0704	24.9023	51.0358	24.9023	49.1671	24.9023	50.9804	24.9023	49.28	24.9023	50.8861	24.9023	49.4087	24.9023	50.7587	24.9023	49.5525	24.9023	50.6045	24.9023	49.7104	24.9023	50.4313	24.9023	49.8811	24.9023	50.2477	24.9023	50.0619
26.3672	46.5768	26.3672	46.3475	26.3672	46.8634	26.3672	46.1779	26.3672	47.1995	26.3672	46.0664	26.3672	47.5707	26.3672	46.0086	26.3672	47.9564	26.3672	45.9975	26.3672	48.3315	26.3672	46.0248	26.3672	48.6702	26.3672	46.0824	26.3672	48.951	26.3672	46.1636	26.3672	49.1591	26.3672	46.2646	26.3672	49.2882	26.3672	46.3838	26.3672	49.3399	26.3672	46.521	26.3672	49.3212	26.3672	46.6765	26.3672	49.242	26.3672	46.8506	26.3672	49.1121	26.3672	47.0439	26.3672	48.9403	26.3672	47.2566	26.3672	48.7342	26.3672	47.4879	26.3672	48.5015	26.3672	47.7351	26.3672	48.251	26.3672	47.9922
27.832	46.8579	27.832	46.6356	27.832	47.1158	27.832	46.4523	27.832	47.4045	27.832	46.3112	27.832	47.7162	27.832	46.2143	27.832	48.0385	27.832	46.162	27.832	48.355	27.832	46.1522	27.832	48.6476	27.832	46.181	27.832	48.8997	27.832	46.2445	27.832	49.0994	27.832	46.3401	27.832	49.2407	27.832	46.4671	27.832	49.3235	27.832	46.6256	27.832	49.3511	27.832	46.815	27.832	49.3282	27.832	47.0332	27.832	49.2591	27.832	47.2754	27.832	49.147	27.832	47.5353	27.832	48.9945	27.832	47.8049	27.832	48.8054	27.832	48.0756	27.832	48.5844	27.832	48.3384
29.2969	49.1509	29.2969	49.1147	29.2969	49.2029	29.2969	49.0877	29.2969	49.2754	29.2969	49.0634	29.2969	49.3705	29.2969	49.0367	29.2969	49.4857	29.2969	49.0045	29.2969	49.6148	29.2969	48.9661	29.2969	49.748	29.2969	48.9234	29.2969	49.8737	29.2969	48.8802	29.2969	49.9803	29.2969	48.8422	29.2969	50.0579	29.2969	48.8159	29.2969	50.0997	29.2969	48.8075	29.2969	50.1022	29.2969	48.8215	29.2969	50.0658	29.2969	48.8601	29.2969	49.994	29.2969	48.9228	29.2969	49.893	29.2969	49.0073	29.2969	49.7707	29.2969	49.1103	29.2969	49.6357	29.2969	49.2286	29.2969	49.496	29.2969	49.3585
30.7617	52.4022	30.7617	52.3206	30.7617	52.4944	30.7617	52.2489	30.7617	52.5964	30.7617	52.1856	30.7617	52.7056	30.7617	52.1286	30.7617	52.817	30.7617	52.0758	30.7617	52.9238	30.7617	52.0251	30.7617	53.0177	30.7617	51.9755	30.7617	53.0912	30.7617	51.9272	30.7617	53.1379	30.7617	51.882	30.7617	53.1542	30.7617	51.8438	30.7617	53.1393	30.7617	51.8172	30.7617	53.0944	30.7617	51.8078	30.7617	53.0223	30.7617	51.8203	30.7617	52.9265	30.7617	51.8581	30.7617	52.8111	30.7617	51.9225	30.7617	52.6804	30.7617	52.0127	30.7617	52.5399	30.7617	52.1254	30.7617	52.3959	30.7617	52.2553
32.2266	52.4934	32.2266	52.474	32.2266	52.529	32.2266	52.4693	32.2266	52.581	32.2266	52.4774	32.2266	52.6485	32.2266	52.4955	32.2266	52.729	32.2266	52.5206	32.2266	52.819	32.2266	52.5497	32.2266	52.9139	32.2266	52.5806	32.2266	53.0089	32.2266	52.6121	32.2266	53.0999	32.2266	52.6446	32.2266	53.183	32.2266	52.6798	32.2266	53.2552	32.2266	52.7205	32.2266	53.3138	32.2266	52.769	32.2266	53.3562	32.2266	52.8271	32.2266	53.3802	32.2266	52.8947	32.2266	53.3841	32.2266	52.9703	32.2266	53.3673	32.2266	53.0508	32.2266	53.3307	32.2266	53.1319	32.2266	53.2767	32.2266	53.2089
33.6914	51.066	33.6914	51.0684	33.6914	51.0773	33.6914	51.0797	33.6914	51.1058	33.6914	51.0946	33.6914	51.1524	33.6914	51.1077	33.6914	51.2157	33.6914	51.1151	33.6914	51.2912	33.6914	51.1138	33.6914	51.3726	33.6914	51.1027	33.6914	51.4525	33.6914	51.0827	33.6914	51.5236	33.6914	51.0563	33.6914	51.5791	33.6914	51.0277	33.6914	51.6142	33.6914	51.002	33.6914	51.6255	33.6914	50.9843	33.6914	51.6122	33.6914	50.9792	33.6914	51.5753	33.6914	50.9898	33.6914	51.5179	33.6914	51.0175	33.6914	51.4451	33.6914	51.0624	33.6914	51.3628	33.6914	51.1228	33.6914	51.2777	33.6914	51.1959
35.1562	53.4839	35.1562	53.4686	35.1562	53.5026	35.1562	53.4564	35.1562	53.5249	35.1562	53.4468	35.1562	53.5506	35.1562	53.4395	35.1562	53.5784	35.1562	53.4333	35.1562	53.6062	35.1562	53.4268	35.1562	53.6311	35.1562	53.4186	35.1562	53.6505	35.1562	53.4076	35.1562	53.6627	35.1562	53.3939	35.1562	53.6671	35.1562	53.3785	35.1562	53.6641	35.1562	53.3638	35.1562	53.6547	35.1562	53.3524	35.1562	53.6397	35.1562	53.3472	35.1562	53.6191	35.1562	53.3502	35.1562	53.5932	35.1562	53.3625	35.1562	53.5618	35.1562	53.3839	35.1562	53.526	35.1562	53.4135	35.1562	53.4875	35.1562	53.449
36.6211	55.3477	36.6211	55.3187	36.6211	55.3724	36.6211	55.2848	36.6211	55.3932	36.6211	55.2454	36.6211	55.4103	36.6211	55.1995	36.6211	55.4238	36.6211	55.1465	36.6211	55.4329	36.6211	55.0857	36.6211	55.4366	36.6211	55.0178	36.6211	55.433	36.6211	54.9444	36.6211	55.4205	36.6211	54.8687	36.6211	55.3972	36.6211	54.7952	36.6211	55.3623	36.6211	54.7294	36.6211	55.3152	36.6211	54.6764	36.6211	55.2563	36.6211	54.6409	36.6211	55.1866	36.6211	54.626	36.6211	55.1081	36.6211	54.633	36.6211	55.0236	36.6211	54.6618	36.6211	54.9368	36.6211	54.7103	36.6211	54.8524	36.6211	54.7753
38.0859	55.6426	38.0859	55.6553	38.0859	55.622	38.0859	55.6589	38.0859	55.5955	38.0859	55.6528	38.0859	55.5651	38.0859	55.6372	38.0859	55.5327	38.0859	55.6129	38.0859	55.4998	38.0859	55.5809	38.0859	55.4671	38.0859	55.5425	38.0859	55.4348	38.0859	55.4993	38.0859	55.4022	38.0859	55.4528	38.0859	55.3684	38.0859	55.4048	38.0859	55.3327	38.0859	55.3566	38.0859	55.295	38.0859	55.3093	38.0859	55.256	38.0859	55.2642	38.0859	55.2174	38.0859	55.2224	38.0859	55.1817	38.0859	55.1853	38.0859	55.1519	38.0859	55.1547	38.0859	55.1306	38.0859	55.1326	38.0859	55.1199	38.0859	55.1206
39.5508	56.3965	39.5508	56.3884	39.5508	56.4074	39.5508	56.3821	39.5508	56.4215	39.5508	56.376	39.5508	56.4384	39.5508	56.3685	39.5508	56.4567	39.5508	56.3584	39.5508	56.4743	39.5508	56.3447	39.5508	56.4885	39.5508	56.3271	39.5508	56.4967	39.5508	56.3063	39.5508	56.4972	39.5508	56.2831	39.5508	56.4887	39.5508	56.2591	39.5508	56.4715	39.5508	56.2355	39.5508	56.4463	39.5508	56.2137	39.5508	56.4148	39.5508	56.195	39.5508	56.3789	39.5508	56.181	39.5508	56.3403	39.5508	56.1735	39.5508	56.3013	39.5508	56.1742	39.5508	56.2638	39.5508	56.184	39.5508	56.2303	39.5508	56.2031
41.0156	56.5611	41.0156	56.5644	41.0156	56.555	41.0156	56.5647	41.0156	56.547	41.0156	56.5618	41.0156	56.538	41.0156	56.556	41.0156	56.5281	41.0156	56.5476	41.0156	56.5171	41.0156	56.5368	41.0156	56.504	41.0156	56.5232	41.0156	56.4873	41.0156	56.5064	41.0156	56.4659	41.0156	56.4858	41.0156	56.4394	41.0156	56.4611	41.0156	56.4084	41.0156	56.432	41.0156	56.3741	41.0156	56.3992	41.0156	56.3388	41.0156	56.3636	41.0156	56.3048	41.0156	56.3275	41.0156	56.2744	41.0156	56.2932	41.0156	56.2499	41.0156	56.2637	41.0156	56.2332	41.0156	56.2416	41.0156	56.2258	41.0156	56.2286
42.4805	57.8303	42.4805	57.8295	42.4805	57.8264	42.4805	57.8245	42.4805	57.8171	42.4805	57.8155	42.4805	57.8015	42.4805	57.802	42.4805	57.7788	42.4805	57.7835	42.4805	57.7483	42.4805	57.7589	42.4805	57.7094	42.4805	57.7279	42.4805	57.6617	42.4805	57.6905	42.4805	57.606	42.4805	57.6473	42.4805	57.5438	42.4805	57.5994	42.4805	57.4778	42.4805	57.5479	42.4805	57.4115	42.4805	57.494	42.4805	57.3489	42.4805	57.4389	42.4805	57.2938	42.4805	57.3843	42.4805	57.2495	42.4805	57.332	42.4805	57.2188	42.4805	57.2849	42.4805	57.2031	42.4805	57.2458	42.4805	57.2029	42.4805	57.2177
43.9453	57.9831	43.9453	57.9579	43.9453	58.0062	43.9453	57.9321	43.9453	58.026	43.9453	57.907	43.9453	58.0411	43.9453	57.8834	43.9453	58.0509	43.9453	57.8622	43.9453	58.0547	43.9453	57.8437	43.9453	58.0524	43.9453	57.8282	43.9453	58.0442	43.9453	57.816	43.9453	58.0303	43.9453	57.8069	43.9453	58.0112	43.9453	57.8008	43.9453	57.9879	43.9453	57.797	43.9453	57.9618	43.9453	57.7951	43.9453	57.9344	43.9453	57.7943	43.9453	57.9073	43.9453	57.7944	43.9453	57.8818	43.9453	57.7955	43.9453	57.8589	43.9453	57.7982	43.9453	57.8394	43.9453	57.8033	43.9453	57.8235	43.9453	57.8116
45.4102	58.7606	45.4102	58.7229	45.4102	58.7951	45.4102	58.6831	45.4102	58.8248	45.4102	58.6423	45.4102	58.8483	45.4102	58.6013	45.4102	58.8645	45.4102	58.5608	45.4102	58.8721	45.4102	58.5212	45.4102	58.8705	45.4102	58.483	45.4102	58.8593	45.4102	58.4468	45.4102	58.8383	45.4102	58.413	45.4102	58.808	45.4102	58.3825	45.4102	58.7695	45.4102	58.3561	45.4102	58.724	45.4102	58.3348	45.4102	58.6735	45.4102	58.3197	45.4102	58.6197	45.4102	58.312	45.4102	58.5648	45.4102	58.313	45.4102	58.5106	45.4102	58.3235	45.4102	58.4595	45.4102	58.3441	45.4102	58.4134	45.4102	58.3744
46.875	59.6249	46.875	59.6139	46.875	59.6289	46.875	59.5967	46.875	59.6252	46.875	59.5739	46.875	59.6137	46.875	59.5464	46.875	59.5943	46.875	59.5149	46.875	59.5678	46.875	59.4799	46.875	59.535	46.875	59.4421	46.875	59.4974	46.875	59.4024	46.875	59.4565	46.875	59.3617	46.875	59.4141	46.875	59.3211	46.875	59.3718	46.875	59.2819	46.875	59.3309	46.875	59.2456	46.875	59.2927	46.875	59.2135	46.875	59.2578	46.875	59.1871	46.875	59.2271	46.875	59.1676	46.875	59.2008	46.875	59.1554	46.875	59.1795	46.875	59.151	46.875	59.1636	46.875	59.1539
48.3398	59.9637	48.3398	59.9328	48.3398	59.9856	48.3398	59.8936	48.3398	59.9977	48.3398	59.847	48.3398	59.9992	48.3398	59.7939	48.3398	59.9895	48.3398	59.7352	48.3398	59.9681	48.3398	59.672	48.3398	59.9342	48.3398	59.6056	48.3398	59.8875	48.3398	59.5375	48.3398	59.8279	48.3398	59.4693	48.3398	59.7563	48.3398	59.4029	48.3398	59.6747	48.3398	59.3401	48.3398	59.5865	48.3398	59.2826	48.3398	59.496	48.3398	59.2322	48.3398	59.4081	48.3398	59.1905	48.3398	59.3275	48.3398	59.1589	48.3398	59.2581	48.3398	59.139	48.3398	59.2028	48.3398	59.1322	48.3398	59.1633	48.3398	59.1399
51.2695	60.8361	51.2695	60.8314	51.2695	60.8316	51.2695	60.818	51.2695	60.8175	51.2695	60.7968	51.2695	60.7938	51.2695	60.7686	51.2695	60.7611	51.2695	60.734	51.2695	60.7206	51.2695	60.6934	51.2695	60.6734	51.2695	60.6472	51.2695	60.6209	51.2695	60.5958	51.2695	60.5647	51.2695	60.5399	51.2695	60.506	51.2695	60.4805	51.2695	60.4462	51.2695	60.4192	51.2695	60.3871	51.2695	60.3582	51.2695	60.3302	51.2695	60.3001	51.2695	60.2775	51.2695	60.2476	51.2695	60.2309	51.2695	60.2034	51.2695	60.1923	51.2695	60.1699	51.2695	60.1635	51.2695	60.1488	51.2695	60.1459	51.2695	60.1408
52.7344	61.3754	52.7344	61.3851	52.7344	61.3548	52.7344	61.3848	52.7344	61.3232	52.7344	61.375	52.7344	61.2808	52.7344	61.3565	52.7344	61.2288	52.7344	61.3298	52.7344	61.1687	52.7344	61.2951	52.7344	61.1028	52.7344	61.2526	52.7344	61.0333	52.7344	61.2022	52.7344	60.9625	52.7344	61.1442	52.7344	60.8923	52.7344	61.0795	52.7344	60.8248	52.7344	61.0093	52.7344	60.762	52.7344	60.936	52.7344	60.7058	52.7344	60.8625	52.7344	60.6584	52.7344	60.792	52.7344	60.6214	52.7344	60.728	52.7344	60.5963	52.7344	60.6735	52.7344	60.5841	52.7344	60.6307	52.7344	60.5856	52.7344	60.6012
54.1992	62.0598	54.1992	62.0653	54.1992	62.0471	54.1992	62.0642	54.1992	62.027	54.1992	62.057	54.1992	61.9991	54.1992	62.044	54.1992	61.9641	54.1992	62.0255	54.1992	61.9226	54.1992	62.0016	54.1992	61.8761	54.1992	61.9726	54.1992	61.8261	54.1992	61.9388	54.1992	61.7745	54.1992	61.9007	54.1992	61.7231	54.1992	61.8589	54.1992	61.6737	54.1992	61.8141	54.1992	61.6283	54.1992	61.7676	54.1992	61.5885	54.1992	61.7206	54.1992	61.556	54.1992	61.6746	54.1992	61.5322	54.1992	61.6315	54.1992	61.5181	54.1992	61.593	54.1992	61.5142	54.1992	61.5607	54.1992	61.5203	54.1992	61.5361
55.6641	62.4812	55.6641	62.4584	55.6641	62.4951	55.6641	62.4277	55.6641	62.4993	55.6641	62.3903	55.6641	62.4931	55.6641	62.3473	55.6641	62.4765	55.6641	62.2999	55.6641	62.4496	55.6641	62.2497	55.6641	62.4136	55.6641	62.1984	55.6641	62.3697	55.6641	62.1479	55.6641	62.3199	55.6641	62.0999	55.6641	62.2665	55.6641	62.0559	55.6641	62.2118	55.6641	62.0171	55.6641	62.1577	55.6641	61.9841	55.6641	62.1062	55.6641	61.9573	55.6641	62.0588	55.6641	61.9367	55.6641	62.0168	55.6641	61.9225	55.6641	61.9814	55.6641	61.9147	55.6641	61.9531	55.6641	61.9135	55.6641	61.9325	55.6641	61.9193
58.5938	63.7304	58.5938	63.7263	58.5938	63.714	58.5938	63.7027	58.5938	63.6766	58.5938	63.6617	58.5938	63.6192	58.5938	63.6055	58.5938	63.5434	58.5938	63.5369	58.5938	63.452	58.5938	63.4584	58.5938	63.3485	58.5938	63.3723	58.5938	63.2365	58.5938	63.2808	58.5938	63.12	58.5938	63.1855	58.5938	63.0027	58.5938	63.0883	58.5938	62.8884	58.5938	62.9908	58.5938	62.781	58.5938	62.895	58.5938	62.6844	58.5938	62.8031	58.5938	62.6022	58.5938	62.7173	58.5938	62.5377	58.5938	62.6402	58.5938	62.4933	58.5938	62.5742	58.5938	62.47	58.5938	62.5219	58.5938	62.4678	58.5938	62.4857
60.0586	63.9577	60.0586	63.9402	60.0586	63.9581	60.0586	63.9068	60.0586	63.9405	60.0586	63.8593	60.0586	63.9046	60.0586	63.7994	60.0586	63.8508	60.0586	63.729	60.0586	63.7803	60.0586	63.65	60.0586	63.6951	60.0586	63.5647	60.0586	63.598	60.0586	63.4751	60.0586	63.4924	60.0586	63.3837	60.0586	63.3824	60.0586	63.2926	60.0586	63.2719	60.0586	63.2042	60.0586	63.1653	60.0586	63.1202	60.0586	63.0666	60.0586	63.0424	60.0586	62.9796	60.0586	62.9725	60.0586	62.9077	60.0586	62.9121	60.0586	62.8536	60.0586	62.8629	60.0586	62.8186	60.0586	62.827	60.0586	62.8031	60.0586	62.8064
62.9883	64.6129	62.9883	64.6208	62.9883	64.5879	62.9883	64.6122	62.9883	64.5459	62.9883	64.5875	62.9883	64.4872	62.9883	64.5475	62.9883	64.4131	62.9883	64.4932	62.9883	64.3255	62.9883	64.4258	62.9883	64.227	62.9883	64.3471	62.9883	64.121	62.9883	64.2595	62.9883	64.0112	62.9883	64.1658	62.9883	63.9014	62.9883	64.0688	62.9883	63.7954	62.9883	63.9716	62.9883	63.6972	62.9883	63.8767	62.9883	63.6105	62.9883	63.7862	62.9883	63.5386	62.9883	63.7021	62.9883	63.4844	62.9883	63.6261	62.9883	63.4498	62.9883	63.5598	62.9883	63.4355	62.9883	63.5053	62.9883	63.441	62.9883	63.4649
64.4531	64.7512	64.4531	64.7538	64.4531	64.7357	64.4531	64.7445	64.4531	64.7064	64.4531	64.7246	64.4531	64.6633	64.4531	64.6953	64.4531	64.607	64.4531	64.6576	64.4531	64.5394	64.4531	64.613	64.4531	64.4636	64.4531	64.5629	64.4531	64.3833	64.4531	64.5089	64.4531	64.3025	64.4531	64.4526	64.4531	64.2249	64.4531	64.3956	64.4531	64.1536	64.4531	64.3389	64.4531	64.0908	64.4531	64.2832	64.4531	64.0384	64.4531	64.2289	64.4531	63.9979	64.4531	64.1762	64.4531	63.9706	64.4531	64.1256	64.4531	63.9575	64.4531	64.0782	64.4531	63.9587	64.4531	64.0355	64.4531	63.9734	64.4531	63.9997
67.3828	65.7287	67.3828	65.7081	67.3828	65.7375	67.3828	65.6767	67.3828	65.7338	67.3828	65.6356	67.3828	65.7176	67.3828	65.586	67.3828	65.6891	67.3828	65.5293	67.3828	65.6491	67.3828	65.4671	67.3828	65.5993	67.3828	65.4015	67.3828	65.5415	67.3828	65.3348	67.3828	65.4782	67.3828	65.2698	67.3828	65.412	67.3828	65.2092	67.3828	65.3456	67.3828	65.1553	67.3828	65.2816	67.3828	65.11	67.3828	65.2221	67.3828	65.0743	67.3828	65.169	67.3828	65.0482	67.3828	65.1237	67.3828	65.0312	67.3828	65.0868	67.3828	65.0223	67.3828	65.0585	67.3828	65.0207	67.3828	65.0385	67.3828	65.026
68.8477	65.9665	68.8477	65.9542	68.8477	65.9656	68.8477	65.9294	68.8477	65.9511	68.8477	65.8932	68.8477	65.9234	68.8477	65.8469	68.8477	65.8833	68.8477	65.792	68.8477	65.8322	68.8477	65.7302	68.8477	65.7722	68.8477	65.6637	68.8477	65.7057	68.8477	65.5947	68.8477	65.6352	68.8477	65.5255	68.8477	65.5632	68.8477	65.4584	68.8477	65.4917	68.8477	65.3953	68.8477	65.4229	68.8477	65.338	68.8477	65.3587	68.8477	65.2875	68.8477	65.3012	68.8477	65.2449	68.8477	65.2523	68.8477	65.2107	68.8477	65.2134	68.8477	65.1855	68.8477	65.1855	68.8477	65.1697	68.8477	65.1691	68.8477	65.164
71.7773	66.7815	71.7773	66.7576	71.7773	66.7917	71.7773	66.7211	71.7773	66.7874	71.7773	66.6732	71.7773	66.7682	71.7773	66.6154	71.7773	66.7343	71.7773	66.5493	71.7773	66.6865	71.7773	66.4765	71.7773	66.6261	71.7773	66.3989	71.7773	66.5552	71.7773	66.3188	71.7773	66.4765	71.7773	66.2386	71.7773	66.3929	71.7773	66.161	71.7773	66.3079	71.7773	66.0887	71.7773	66.2247	71.7773	66.0241	71.7773	66.1463	71.7773	65.9691	71.7773	66.0754	71.7773	65.9254	71.7773	66.0137	71.7773	65.8939	71.7773	65.9622	71.7773	65.8751	71.7773	65.9218	71.7773	65.8688	71.7773	65.8925	71.7773	65.8747
74.707	67.3271	74.707	67.3204	74.707	67.3212	74.707	67.3013	74.707	67.303	74.707	67.2704	74.707	67.2735	74.707	67.2287	74.707	67.2336	74.707	67.1778	74.707	67.1849	74.707	67.1195	74.707	67.1291	74.707	67.0559	74.707	67.0681	74.707	66.9893	74.707	67.0036	74.707	66.9222	74.707	66.9375	74.707	66.8568	74.707	66.8719	74.707	66.7952	74.707	66.8086	74.707	66.7389	74.707	66.7496	74.707	66.6893	74.707	66.6968	74.707	66.6474	74.707	66.6518	74.707	66.6139	74.707	66.6159	74.707	66.5893	74.707	66.5899	74.707	66.5742	74.707	66.5743	74.707	66.5691
77.6367	68.0746	77.6367	68.0756	77.6367	68.0589	77.6367	68.0617	77.6367	68.029	77.6367	68.0333	77.6367	67.9861	77.6367	67.9916	77.6367	67.9321	77.6367	67.938	77.6367	67.8689	77.6367	67.8745	77.6367	67.7993	77.6367	67.8037	77.6367	67.7257	77.6367	67.7283	77.6367	67.6512	77.6367	67.6512	77.6367	67.5781	77.6367	67.5755	77.6367	67.5091	77.6367	67.5039	77.6367	67.4459	77.6367	67.4386	77.6367	67.3901	77.6367	67.3814	77.6367	67.3428	77.6367	67.3335	77.6367	67.3046	77.6367	67.2956	77.6367	67.2755	77.6367	67.268	77.6367	67.2556	77.6367	67.2506	77.6367	67.2447	77.6367	67.2429
79.1016	68.3358	79.1016	68.3356	79.1016	68.3227	79.1016	68.3225	79.1016	68.2963	79.1016	68.297	79.1016	68.2575	79.1016	68.2602	79.1016	68.2072	79.1016	68.2129	79.1016	68.1472	79.1016	68.1563	79.1016	68.0796	79.1016	68.0918	79.1016	68.007	79.1016	68.021	79.1016	67.9321	79.1016	67.9461	79.1016	67.8576	79.1016	67.8696	79.1016	67.786	79.1016	67.7943	79.1016	67.7196	79.1016	67.7232	79.1016	67.6599	79.1016	67.6589	79.1016	67.6084	79.1016	67.6036	79.1016	67.5657	79.1016	67.5589	79.1016	67.5326	79.1016	67.5256	79.1016	67.5095	79.1016	67.5043	79.1016	67.4967	79.1016	67.4948
82.0312	68.9713	82.0312	68.9667	82.0312	68.9613	82.0312	68.9477	82.0312	68.9368	82.0312	68.9153	82.0312	68.8988	82.0312	68.871	82.0312	68.8487	82.0312	68.8167	82.0312	68.7884	82.0312	68.7544	82.0312	68.7202	82.0312	68.6863	82.0312	68.6465	82.0312	68.6146	82.0312	68.5701	82.0312	68.5416	82.0312	68.4937	82.0312	68.4693	82.0312	68.4199	82.0312	68.3998	82.0312	68.351	82.0312	68.3348	82.0312	68.2889	82.0312	68.2761	82.0312	68.2351	82.0312	68.2252	82.0312	68.1908	82.0312	68.1831	82.0312	68.1565	82.0312	68.151	82.0312	68.133	82.0312	68.1297	82.0312	68.1206	82.0312	68.1194
84.9609	69.5149	84.9609	69.5064	84.9609	69.5105	84.9609	69.4856	84.9609	69.4933	84.9609	69.4531	84.9609	69.4636	84.9609	69.4101	84.9609	69.4222	84.9609	69.3581	84.9609	69.3701	84.9609	69.2988	84.9609	69.3087	84.9609	69.2338	84.9609	69.2397	84.9609	69.165	84.9609	69.1654	84.9609	69.0943	84.9609	69.0883	84.9609	69.0235	84.9609	69.0112	84.9609	68.9546	84.9609	68.937	84.9609	68.8896	84.9609	68.8684	84.9609	68.8305	84.9609	68.8078	84.9609	68.7788	84.9609	68.757	84.9609	68.7361	84.9609	68.7175	84.9609	68.7035	84.9609	68.69	84.9609	68.682	84.9609	68.6749	84.9609	68.6723
87.8906	70.1261	87.8906	70.116	87.8906	70.122	87.8906	70.091	87.8906	70.1052	87.8906	70.0517	87.8906	70.0777	87.8906	69.9996	87.8906	70.042	87.8906	69.9372	87.8906	70.0008	87.8906	69.8678	87.8906	69.9564	87.8906	69.7953	87.8906	69.9109	87.8906	69.7238	87.8906	69.866	87.8906	69.6573	87.8906	69.823	87.8906	69.5997	87.8906	69.7827	87.8906	69.5536	87.8906	69.7456	87.8906	69.5207	87.8906	69.7118	87.8906	69.5013	87.8906	69.6809	87.8906	69.4947	87.8906	69.6524	87.8906	69.4988	87.8906	69.6257	87.8906	69.5113	87.8906	69.6	87.8906	69.5296	87.8906	69.5752	87.8906	69.5515
90.8203	70.6335	90.8203	70.638	90.8203	70.6114	90.8203	70.6244	90.8203	70.5728	90.8203	70.5934	90.8203	70.5199	90.8203	70.5465	90.8203	70.4554	90.8203	70.486	90.8203	70.3824	90.8203	70.4145	90.8203	70.3039	90.8203	70.3353	90.8203	70.2231	90.8203	70.2516	90.8203	70.1427	90.8203	70.1669	90.8203	70.0651	90.8203	70.0841	90.8203	69.9924	90.8203	70.0062	90.8203	69.9264	90.8203	69.9356	90.8203	69.8688	90.8203	69.8741	90.8203	69.8205	90.8203	69.8229	90.8203	69.7821	90.8203	69.7825	90.8203	69.7536	90.8203	69.753	90.8203	69.7348	90.8203	69.734	90.8203	69.7252	90.8203	69.7249
95.2148	71.5426	95.2148	71.5429	95.2148	71.5237	95.2148	71.524	95.2148	71.4874	95.2148	71.4862	95.2148	71.4353	95.2148	71.4304	95.2148	71.3697	95.2148	71.3587	95.2148	71.2929	95.2148	71.2739	95.2148	71.2077	95.2148	71.1796	95.2148	71.1169	95.2148	71.08	95.2148	71.0238	95.2148	70.9792	95.2148	70.9317	95.2148	70.8816	95.2148	70.8436	95.2148	70.7909	95.2148	70.7624	95.2148	70.7102	95.2148	70.6903	95.2148	70.6416	95.2148	70.6287	95.2148	70.5862	95.2148	70.5786	95.2148	70.5441	95.2148	70.5401	95.2148	70.515	95.2148	70.5132	95.2148	70.4979	95.2148	70.4973	95.2148	70.4922
98.1445	72.0183	98.1445	72.0208	98.1445	71.9995	98.1445	72.0072	98.1445	71.9646	98.1445	71.9788	98.1445	71.9145	98.1445	71.9374	98.1445	71.8511	98.1445	71.8853	98.1445	71.7766	98.1445	71.8253	98.1445	71.694	98.1445	71.7603	98.1445	71.6071	98.1445	71.693	98.1445	71.52	98.1445	71.6257	98.1445	71.4373	98.1445	71.5601	98.1445	71.3628	98.1445	71.4977	98.1445	71.2996	98.1445	71.4393	98.1445	71.2495	98.1445	71.3854	98.1445	71.213	98.1445	71.3367	98.1445	71.1895	98.1445	71.2935	98.1445	71.178	98.1445	71.2564	98.1445	71.1771	98.1445	71.2257	98.1445	71.1854	98.1445	71.2019
101.074	72.4546	101.074	72.4455	101.074	72.447	101.074	72.4189	101.074	72.4246	101.074	72.3747	101.074	72.3898	101.074	72.3146	101.074	72.3455	101.074	72.2413	101.074	72.2942	101.074	72.1588	101.074	72.2385	101.074	72.072	101.074	72.1808	101.074	71.9864	101.074	72.123	101.074	71.9072	101.074	72.0672	101.074	71.8388	101.074	72.015	101.074	71.7842	101.074	71.9676	101.074	71.7449	101.074	71.9257	101.074	71.7207	101.074	71.8891	101.074	71.7101	101.074	71.8572	101.074	71.711	101.074	71.8288	101.074	71.7207	101.074	71.803	101.074	71.7366	101.074	71.7789	101.074	71.7566
105.469	73.0141	105.469	73.0111	105.469	73.0034	105.469	72.9941	105.469	72.9803	105.469	72.9633	105.469	72.9465	105.469	72.9195	105.469	72.9043	105.469	72.8645	105.469	72.8559	105.469	72.8006	105.469	72.8037	105.469	72.7305	105.469	72.7499	105.469	72.6574	105.469	72.6961	105.469	72.5847	105.469	72.6435	105.469	72.5156	105.469	72.5926	105.469	72.4532	105.469	72.5437	105.469	72.3995	105.469	72.4972	105.469	72.356	105.469	72.4531	105.469	72.3235	105.469	72.412	105.469	72.3018	105.469	72.3747	105.469	72.2908	105.469	72.3425	105.469	72.29	105.469	72.3168	105.469	72.2989
108.398	73.4631	108.398	73.455	108.398	73.4531	108.398	73.4293	108.398	73.4256	108.398	73.3874	108.398	73.3822	108.398	73.3318	108.398	73.3255	108.398	73.2655	108.398	73.259	108.398	73.192	108.398	73.1865	108.398	73.1152	108.398	73.1124	108.398	73.0388	108.398	73.0406	108.398	72.9662	108.398	72.9742	108.398	72.9005	108.398	72.9158	108.398	72.8437	108.398	72.8663	108.398	72.7971	108.398	72.8259	108.398	72.7613	108.398	72.7938	108.398	72.7358	108.398	72.7686	108.398	72.7196	108.398	72.7488	108.398	72.7115	108.398	72.7333	108.398	72.7099	108.398	72.7216	108.398	72.7136
112.793	74.1143	112.793	74.0908	112.793	74.1214	112.793	74.0512	112.793	74.1126	112.793	73.9966	112.793	74.0892	112.793	73.9293	112.793	74.0532	112.793	73.8525	112.793	74.0073	112.793	73.7704	112.793	73.9545	112.793	73.6882	112.793	73.8984	112.793	73.6111	112.793	73.8424	112.793	73.5442	112.793	73.7897	112.793	73.4914	112.793	73.7425	112.793	73.4551	112.793	73.7023	112.793	73.4359	112.793	73.6691	112.793	73.4324	112.793	73.6422	112.793	73.4417	112.793	73.6196	112.793	73.4601	112.793	73.5993	112.793	73.4839	112.793	73.5793	112.793	73.5095	112.793	73.558	112.793	73.5347
117.188	74.6195	117.188	74.6299	117.188	74.5899	117.188	74.6197	117.188	74.5435	117.188	74.5887	117.188	74.4838	117.188	74.5381	117.188	74.4147	117.188	74.4707	117.188	74.3404	117.188	74.3904	117.188	74.2654	117.188	74.3024	117.188	74.1935	117.188	74.2129	117.188	74.1284	117.188	74.1281	117.188	74.0726	117.188	74.0537	117.188	74.0279	117.188	73.9938	117.188	73.9946	117.188	73.9507	117.188	73.972	117.188	73.9243	117.188	73.9583	117.188	73.9123	117.188	73.9509	117.188	73.9113	117.188	73.947	117.188	73.9169	117.188	73.944	117.188	73.9253	117.188	73.9398	117.188	73.9335
120.117	75.0914	120.117	75.1006	120.117	75.0626	120.117	75.09	120.117	75.0153	120.117	75.0604	120.117	74.9519	120.117	75.0136	120.117	74.8754	120.117	74.952	120.117	74.79	120.117	74.8791	120.117	74.7006	120.117	74.7988	120.117	74.6119	120.117	74.716	120.117	74.5287	120.117	74.6351	120.117	74.4551	120.117	74.5605	120.117	74.3941	120.117	74.4955	120.117	74.3474	120.117	74.4422	120.117	74.3154	120.117	74.4011	120.117	74.2971	120.117	74.3712	120.117	74.2901	120.117	74.3506	120.117	74.2916	120.117	74.3363	120.117	74.2981	120.117	74.3255	120.117	74.3068	120.117	74.3161
124.512	75.5977	124.512	75.5972	124.512	75.5784	124.512	75.5775	124.512	75.54	124.512	75.5398	124.512	75.4841	124.512	75.4866	124.512	75.4134	124.512	75.4208	124.512	75.3318	124.512	75.3463	124.512	75.2438	124.512	75.2672	124.512	75.1545	124.512	75.188	124.512	75.0692	124.512	75.1127	124.512	74.9925	124.512	75.0449	124.512	74.9281	124.512	74.9871	124.512	74.8782	124.512	74.9407	124.512	74.8433	124.512	74.9056	124.512	74.8225	124.512	74.8805	124.512	74.8134	124.512	74.8633	124.512	74.813	124.512	74.8513	124.512	74.818	124.512	74.842	124.512	74.8255	124.512	74.8337
128.906	76.2102	128.906	76.2044	128.906	76.1929	128.906	76.1759	128.906	76.1531	128.906	76.1264	128.906	76.0925	128.906	76.0581	128.906	76.0141	128.906	75.9747	128.906	75.9218	128.906	75.8804	128.906	75.8204	128.906	75.7802	128.906	75.7155	128.906	75.6794	128.906	75.6128	128.906	75.5835	128.906	75.5177	128.906	75.4971	128.906	75.4347	128.906	75.4239	128.906	75.3671	128.906	75.3657	128.906	75.3162	128.906	75.3225	128.906	75.2814	128.906	75.2929	128.906	75.2607	128.906	75.274	128.906	75.2506	128.906	75.2627	128.906	75.2476	128.906	75.2559	128.906	75.2486	128.906	75.2515
133.301	76.677	133.301	76.6747	133.301	76.657	133.301	76.6506	133.301	76.6151	133.301	76.6061	133.301	76.5529	133.301	76.5433	133.301	76.4729	133.301	76.465	133.301	76.3789	133.301	76.375	133.301	76.2752	133.301	76.2775	133.301	76.1671	133.301	76.1769	133.301	76.0599	133.301	76.0778	133.301	75.9583	133.301	75.9845	133.301	75.8664	133.301	75.9002	133.301	75.7871	133.301	75.8271	133.301	75.7222	133.301	75.7659	133.301	75.6722	133.301	75.7164	133.301	75.6367	133.301	75.6772	133.301	75.6143	133.301	75.6472	133.301	75.6035	133.301	75.6249	133.301	75.6026	133.301	75.61
139.16	76.9696	139.16	76.9537	139.16	76.9704	139.16	76.9237	139.16	76.9556	139.16	76.8814	139.16	76.9262	139.16	76.8295	139.16	76.884	139.16	76.7709	139.16	76.8319	139.16	76.7092	139.16	76.7738	139.16	76.6483	139.16	76.7144	139.16	76.5923	139.16	76.6587	139.16	76.5453	139.16	76.611	139.16	76.5103	139.16	76.5751	139.16	76.4895	139.16	76.5528	139.16	76.483	139.16	76.5439	139.16	76.4895	139.16	76.5461	139.16	76.5057	139.16	76.5558	139.16	76.5273	139.16	76.5683	139.16	76.5497	139.16	76.5787	139.16	76.5684	139.16	76.5834	139.16	76.5801
143.555	77.4753	143.555	77.4339	143.555	77.4957	143.555	77.373	143.555	77.4952	143.555	77.2957	143.555	77.4754	143.555	77.2065	143.555	77.4392	143.555	77.1115	143.555	77.3903	143.555	77.0177	143.555	77.3331	143.555	76.9325	143.555	77.2727	143.555	76.8629	143.555	77.2137	143.555	76.8143	143.555	77.1607	143.555	76.7899	143.555	77.1173	143.555	76.7896	143.555	77.0857	143.555	76.8107	143.555	77.0667	143.555	76.8477	143.555	77.0587	143.555	76.8942	143.555	77.0587	143.555	76.9429	143.555	77.0624	143.555	76.9876	143.555	77.0648	143.555	77.0236	143.555	77.0613	143.555	77.0482
147.949	78.2255	147.949	78.2031	147.949	78.2169	147.949	78.1493	147.949	78.1799	147.949	78.066	147.949	78.1187	147.949	77.9569	147.949	78.039	147.949	77.8282	147.949	77.9476	147.949	77.6876	147.949	77.8512	147.949	77.5444	147.949	77.7556	147.949	77.4082	147.949	77.6657	147.949	77.2881	147.949	77.5848	147.949	77.1913	147.949	77.5147	147.949	77.122	147.949	77.4554	147.949	77.0807	147.949	77.406	147.949	77.0651	147.949	77.3643	147.949	77.0703	147.949	77.3278	147.949	77.0907	147.949	77.2939	147.949	77.1206	147.949	77.2606	147.949	77.1552	147.949	77.2265	147.949	77.1911
153.809	78.4658	153.809	78.4628	153.809	78.4407	153.809	78.4327	153.809	78.3881	153.809	78.378	153.809	78.3102	153.809	78.3024	153.809	78.2118	153.809	78.2105	153.809	78.0996	153.809	78.1083	153.809	77.9822	153.809	78.0027	153.809	77.8691	153.809	77.9014	153.809	77.7698	153.809	77.8117	153.809	77.692	153.809	77.7398	153.809	77.6401	153.809	77.6893	153.809	77.6148	153.809	77.6611	153.809	77.6128	153.809	77.6527	153.809	77.6276	153.809	77.6594	153.809	77.6516	153.809	77.6749	153.809	77.6774	153.809	77.6929	153.809	77.6988	153.809	77.7076	153.809	77.7118	153.809	77.7147
159.668	79.0214	159.668	79.0146	159.668	79.0006	159.668	78.9807	159.668	78.9528	159.668	78.9215	159.668	78.8803	159.668	78.8402	159.668	78.7864	159.668	78.7411	159.668	78.6762	159.668	78.6301	159.668	78.5563	159.668	78.5135	159.668	78.4343	159.668	78.3987	159.668	78.3185	159.668	78.2926	159.668	78.2169	159.668	78.2018	159.668	78.1357	159.668	78.1309	159.668	78.0787	159.668	78.0825	159.668	78.0463	159.668	78.0562	159.668	78.0355	159.668	78.0487	159.668	78.0405	159.668	78.0542	159.668	78.0542	159.668	78.0659	159.668	78.0692	159.668	78.0771	159.668	78.0798	159.668	78.0826
165.527	79.3667	165.527	79.3552	165.527	79.3499	165.527	79.3156	165.527	79.3064	165.527	79.25	165.527	79.2389	165.527	79.1624	165.527	79.1521	165.527	79.0587	165.527	79.0517	165.527	78.9464	165.527	78.9448	165.527	78.8339	165.527	78.8394	165.527	78.73	165.527	78.7435	165.527	78.6422	165.527	78.664	165.527	78.5759	165.527	78.6059	165.527	78.5336	165.527	78.5709	165.527	78.5146	165.527	78.5573	165.527	78.5154	165.527	78.5605	165.527	78.5305	165.527	78.5738	165.527	78.5533	165.527	78.5905	165.527	78.5774	165.527	78.6045	165.527	78.5973	165.527	78.6116	165.527	78.6093
171.387	79.7172	171.387	79.6982	171.387	79.7058	171.387	79.6493	171.387	79.6655	171.387	79.5725	171.387	79.5992	171.387	79.4719	171.387	79.5114	171.387	79.3539	171.387	79.4078	171.387	79.2264	171.387	79.2954	171.387	79.0992	171.387	79.1822	171.387	78.9824	171.387	79.0766	171.387	78.8851	171.387	78.9867	171.387	78.8141	171.387	78.919	171.387	78.7723	171.387	78.8768	171.387	78.7589	171.387	78.8596	171.387	78.7693	171.387	78.8628	171.387	78.7968	171.387	78.8793	171.387	78.8332	171.387	78.9003	171.387	78.8702	171.387	78.9179	171.387	78.9009	171.387	78.9257	171.387	78.9202
177.246	80.0212	177.246	80.0165	177.246	79.9949	177.246	79.98	177.246	79.9397	177.246	79.9128	177.246	79.8595	177.246	79.818	177.246	79.7597	177.246	79.7012	177.246	79.6469	177.246	79.5707	177.246	79.5289	177.246	79.4371	177.246	79.414	177.246	79.3123	177.246	79.3105	177.246	79.2079	177.246	79.2253	177.246	79.133	177.246	79.1639	177.246	79.0918	177.246	79.1286	177.246	79.0833	177.246	79.1187	177.246	79.1014	177.246	79.1302	177.246	79.1366	177.246	79.1566	177.246	79.178	177.246	79.1897	177.246	79.2154	177.246	79.2211	177.246	79.2412	177.246	79.2433	177.246	79.2508
183.105	80.3735	183.105	80.3639	183.105	80.3489	183.105	80.3201	183.105	80.2919	183.105	80.2435	183.105	80.2058	183.105	80.1376	183.105	80.0957	183.105	80.0077	183.105	79.969	183.105	79.8622	183.105	79.8351	183.105	79.7119	183.105	79.705	183.105	79.5695	183.105	79.5902	183.105	79.4479	183.105	79.5008	183.105	79.3582	183.105	79.443	183.105	79.3065	183.105	79.4181	183.105	79.2934	183.105	79.4221	183.105	79.313	183.105	79.4467	183.105	79.3555	183.105	79.4811	183.105	79.4091	183.105	79.5149	183.105	79.4628	183.105	79.539	183.105	79.5074	183.105	79.5472	183.105	79.5366
188.965	80.6743	188.965	80.6782	188.965	80.6349	188.965	80.6464	188.965	80.5619	188.965	80.58	188.965	80.4587	188.965	80.4821	188.965	80.3305	188.965	80.3573	188.965	80.1844	188.965	80.2125	188.965	80.0289	188.965	80.0573	188.965	79.8742	188.965	79.9036	188.965	79.7319	188.965	79.7647	188.965	79.6132	188.965	79.6532	188.965	79.5277	188.965	79.5784	188.965	79.4808	188.965	79.5438	188.965	79.472	188.965	79.5461	188.965	79.495	188.965	79.5754	188.965	79.5392	188.965	79.6179	188.965	79.5923	188.965	79.6591	188.965	79.642	188.965	79.6871	188.965	79.6783	188.965	79.6942
196.289	81.0923	196.289	81.0749	196.289	81.0729	196.289	81.021	196.289	81.0178	196.289	80.9326	196.289	80.9292	196.289	80.8138	196.289	80.8111	196.289	80.6707	196.289	80.6692	196.289	80.5117	196.289	80.5117	196.289	80.347	196.289	80.349	196.289	80.1881	196.289	80.1941	196.289	80.047	196.289	80.0604	196.289	79.9349	196.289	79.96	196.289	79.8603	196.289	79.9004	196.289	79.8271	196.289	79.8824	196.289	79.8329	196.289	79.899	196.289	79.8692	196.289	79.9381	196.289	79.9229	196.289	79.9848	196.289	79.9789	196.289	80.0252	196.289	80.024	196.289	80.0486	196.289	80.0486
203.613	81.3546	203.613	81.3344	203.613	81.3358	203.613	81.2752	203.613	81.2799	203.613	81.1795	203.613	81.1908	203.613	81.0523	203.613	81.0735	203.613	80.9015	203.613	80.9345	203.613	80.7371	203.613	80.7819	203.613	80.5709	203.613	80.625	203.613	80.4152	203.613	80.4746	203.613	80.2811	203.613	80.342	203.613	80.1777	203.613	80.2381	203.613	80.111	203.613	80.171	203.613	80.0825	203.613	80.1434	203.613	80.0895	203.613	80.1516	203.613	80.1242	203.613	80.1852	203.613	80.1752	203.613	80.2301	203.613	80.2291	203.613	80.2711	203.613	80.273	203.613	80.2958	203.613	80.2969
210.938	81.5304	210.938	81.5108	210.938	81.5109	210.938	81.4531	210.938	81.4537	210.938	81.3599	210.938	81.3624	210.938	81.2355	210.938	81.2429	210.938	81.0857	210.938	81.1024	210.938	80.9186	210.938	80.9495	210.938	80.7442	210.938	80.7936	210.938	80.5755	210.938	80.6453	210.938	80.4264	210.938	80.5155	210.938	80.3099	210.938	80.4143	210.938	80.2353	210.938	80.3486	210.938	80.2062	210.938	80.3204	210.938	80.2185	210.938	80.3252	210.938	80.2619	210.938	80.3533	210.938	80.3217	210.938	80.3921	210.938	80.3817	210.938	80.4285	210.938	80.4281	210.938	80.4512	210.938	80.4521
218.262	81.7192	218.262	81.7038	218.262	81.6925	218.262	81.6476	218.262	81.625	218.262	81.5543	218.262	81.5213	218.262	81.4297	218.262	81.3886	218.262	81.2817	218.262	81.237	218.262	81.1202	218.262	81.0788	218.262	80.9571	218.262	80.9269	218.262	80.8056	218.262	80.7939	218.262	80.6797	218.262	80.6904	218.262	80.5911	218.262	80.6233	218.262	80.5471	218.262	80.5954	218.262	80.5478	218.262	80.6041	218.262	80.5859	218.262	80.6424	218.262	80.6485	218.262	80.6989	218.262	80.7199	218.262	80.7601	218.262	80.785	218.262	80.8129	218.262	80.8321	218.262	80.8463	218.262	80.8534
225.586	82.0302	225.586	82.0254	225.586	81.9879	225.586	81.9743	225.586	81.9	225.586	81.8804	225.586	81.7709	225.586	81.7493	225.586	81.608	225.586	81.589	225.586	81.422	225.586	81.4099	225.586	81.2266	225.586	81.2247	225.586	81.0376	225.586	81.0479	225.586	80.8714	225.586	80.8948	225.586	80.7425	225.586	80.7791	225.586	80.6603	225.586	80.7113	225.586	80.6275	225.586	80.6949	225.586	80.6401	225.586	80.7248	225.586	80.6882	225.586	80.7871	225.586	80.7589	225.586	80.8623	225.586	80.8376	225.586	80.9302	225.586	80.9099	225.586	80.9744	225.586	80.9626	225.586	80.9858
232.91	82.1572	232.91	82.1454	232.91	82.1195	232.91	82.0849	232.91	82.0332	232.91	81.9789	232.91	81.9014	232.91	81.8332	232.91	81.7298	232.91	81.6569	232.91	81.5283	232.91	81.4622	232.91	81.3116	232.91	81.2637	232.91	81.0986	232.91	81.077	232.91	80.9107	232.91	80.917	232.91	80.767	232.91	80.7963	232.91	80.6792	232.91	80.7237	232.91	80.6486	232.91	80.702	232.91	80.667	232.91	80.7262	232.91	80.7202	232.91	80.7841	232.91	80.7922	232.91	80.8574	232.91	80.868	232.91	80.9267	232.91	80.934	232.91	80.9756	232.91	80.9788	232.91	80.9939
241.699	82.3057	241.699	82.2824	241.699	82.2781	241.699	82.2093	241.699	82.201	241.699	82.0898	241.699	82.0776	241.699	81.9296	241.699	81.9129	241.699	81.7369	241.699	81.714	241.699	81.5228	241.699	81.4915	241.699	81.3018	241.699	81.2606	241.699	81.0918	241.699	81.0417	241.699	80.9114	241.699	80.8585	241.699	80.7769	241.699	80.7321	241.699	80.6983	241.699	80.6729	241.699	80.6771	241.699	80.677	241.699	80.7057	241.699	80.7278	241.699	80.7688	241.699	80.8031	241.699	80.8471	241.699	80.8817	241.699	80.9209	241.699	80.9471	241.699	80.9744	241.699	80.9881	241.699	80.9979
250.488	82.6019	250.488	82.5777	250.488	82.5684	250.488	82.4966	250.488	82.4786	250.488	82.3628	250.488	82.3369	250.488	82.1838	250.488	82.1505	250.488	81.9697	250.488	81.9295	250.488	81.7328	250.488	81.688	250.488	81.4872	250.488	81.4438	250.488	81.2483	250.488	81.2179	250.488	81.0324	250.488	81.0323	250.488	80.8561	250.488	80.9046	250.488	80.7337	250.488	80.8424	250.488	80.6728	250.488	80.8396	250.488	80.6721	250.488	80.878	250.488	80.7198	250.488	80.9345	250.488	80.7967	250.488	80.9878	250.488	80.8816	250.488	81.0226	250.488	80.9562	250.488	81.0305	250.488	81.0079
259.277	82.7807	259.277	82.7571	259.277	82.7481	259.277	82.678	259.277	82.6612	259.277	82.5459	259.277	82.5227	259.277	82.3667	259.277	82.3373	259.277	82.1498	259.277	82.111	259.277	81.9089	259.277	81.8535	259.277	81.6617	259.277	81.58	259.277	81.4283	259.277	81.3135	259.277	81.2287	259.277	81.0845	259.277	81.0793	259.277	80.9249	259.277	80.9902	259.277	80.8565	259.277	80.9633	259.277	80.8805	259.277	80.9921	259.277	80.9749	259.277	81.0627	259.277	81.1039	259.277	81.1563	259.277	81.2305	259.277	81.2523	259.277	81.3267	259.277	81.3311	259.277	81.3767	259.277	81.3765
268.066	82.9446	268.066	82.9253	268.066	82.8989	268.066	82.8374	268.066	82.7979	268.066	82.6846	268.066	82.6534	268.066	82.4769	268.066	82.4746	268.066	82.2294	268.066	82.2647	268.066	81.9603	268.066	82.0219	268.066	81.6885	268.066	81.7453	268.066	81.4305	268.066	81.4445	268.066	81.1989	268.066	81.147	268.066	81.0059	268.066	80.8962	268.066	80.8672	268.066	80.737	268.066	80.8026	268.066	80.6944	268.066	80.8261	268.066	80.7608	268.066	80.9322	268.066	80.9025	268.066	81.089	268.066	81.0757	268.066	81.2481	268.066	81.2385	268.066	81.3621	268.066	81.3555	268.066	81.4007
276.855	82.9007	276.855	82.862	276.855	82.9	276.855	82.7842	276.855	82.8554	276.855	82.6623	276.855	82.7628	276.855	82.489	276.855	82.6217	276.855	82.2615	276.855	82.4371	276.855	81.9898	276.855	82.2169	276.855	81.7019	276.855	81.9703	276.855	81.4411	276.855	81.7075	276.855	81.2514	276.855	81.442	276.855	81.1565	276.855	81.1936	276.855	81.1466	276.855	80.9879	276.855	81.1862	276.855	80.8497	276.855	81.2355	276.855	80.7922	276.855	81.2683	276.855	80.8095	276.855	81.2752	276.855	80.8792	276.855	81.257	276.855	80.9735	276.855	81.2156	276.855	81.0694	276.855	81.1524
287.109	83.2875	287.109	83.2846	287.109	83.2225	287.109	83.2054	287.109	83.0995	287.109	83.0453	287.109	82.9295	287.109	82.8079	287.109	82.724	287.109	82.5076	287.109	82.4946	287.109	82.1704	287.109	82.2525	287.109	81.8307	287.109	82.0087	287.109	81.5248	287.109	81.7767	287.109	81.2866	287.109	81.5767	287.109	81.1421	287.109	81.4349	287.109	81.1034	287.109	81.3759	287.109	81.1633	287.109	81.409	287.109	81.2965	287.109	81.519	287.109	81.4692	287.109	81.6714	287.109	81.6492	287.109	81.8251	287.109	81.8109	287.109	81.9447	287.109	81.9341	287.109	82.0072	287.109	82.003
297.363	83.5142	297.363	83.4926	297.363	83.4631	297.363	83.4106	297.363	83.3327	297.363	83.2813	297.363	83.1258	297.363	83.1124	297.363	82.8558	297.363	82.9057	297.363	82.5457	297.363	82.6599	297.363	82.2254	297.363	82.3754	297.363	81.9259	297.363	82.0605	297.363	81.6706	297.363	81.7364	297.363	81.469	297.363	81.4395	297.363	81.3205	297.363	81.2167	297.363	81.2263	297.363	81.1102	297.363	81.1963	297.363	81.1354	297.363	81.2437	297.363	81.2697	297.363	81.3669	297.363	81.4625	297.363	81.5374	297.363	81.6552	297.363	81.7066	297.363	81.7983	297.363	81.8249	297.363	81.859
307.617	83.6766	307.617	83.6258	307.617	83.6485	307.617	83.4936	307.617	83.547	307.617	83.2835	307.617	83.3768	307.617	83.0067	307.617	83.1409	307.617	82.6813	307.617	82.8445	307.617	82.3308	307.617	82.5005	307.617	81.9827	307.617	82.136	307.617	81.6671	307.617	81.7933	307.617	81.412	307.617	81.5204	307.617	81.2374	307.617	81.3525	307.617	81.15	307.617	81.2935	307.617	81.1434	307.617	81.3164	307.617	81.2006	307.617	81.3807	307.617	81.2974	307.617	81.4527	307.617	81.4057	307.617	81.5144	307.617	81.4999	307.617	81.56	307.617	81.5632	307.617	81.5872	307.617	81.5908
319.336	83.5539	319.336	83.5327	319.336	83.5007	319.336	83.4358	319.336	83.3786	319.336	83.2652	319.336	83.1963	319.336	83.0257	319.336	82.9634	319.336	82.7262	319.336	82.6866	319.336	82.3819	319.336	82.3694	319.336	82.0147	319.336	82.0188	319.336	81.6526	319.336	81.6552	319.336	81.3251	319.336	81.3199	319.336	81.0605	319.336	81.0692	319.336	80.8833	319.336	80.95	319.336	80.8119	319.336	80.9717	319.336	80.85	319.336	81.099	319.336	80.9792	319.336	81.2732	319.336	81.1604	319.336	81.4392	319.336	81.3471	319.336	81.5592	319.336	81.4998	319.336	81.6129	319.336	81.5925
329.59	83.6001	329.59	83.5749	329.59	83.5627	329.59	83.4924	329.59	83.4557	329.59	83.3512	329.59	83.2784	329.59	83.1429	329.59	83.039	329.59	82.8604	329.59	82.7518	329.59	82.509	329.59	82.4309	329.59	82.1151	329.59	82.0882	329.59	81.7261	329.59	81.737	329.59	81.3978	329.59	81.3988	329.59	81.1719	329.59	81.1078	329.59	81.0603	329.59	80.9067	329.59	81.0496	329.59	80.8319	329.59	81.1165	329.59	80.8923	329.59	81.2382	329.59	81.0588	329.59	81.3889	329.59	81.2743	329.59	81.5358	329.59	81.4771	329.59	81.6418	329.59	81.6193	329.59	81.6753
341.309	83.7997	341.309	83.8084	341.309	83.6891	341.309	83.7127	341.309	83.4881	341.309	83.52	341.309	83.2141	341.309	83.2451	341.309	82.8855	341.309	82.9057	341.309	82.5187	341.309	82.5201	341.309	82.1279	341.309	82.1074	341.309	81.7302	341.309	81.6902	341.309	81.3556	341.309	81.2998	341.309	81.053	341.309	80.9788	341.309	80.8775	341.309	80.7757	341.309	80.8579	341.309	80.7263	341.309	80.9712	341.309	80.8298	341.309	81.1569	341.309	81.0414	341.309	81.3539	341.309	81.2909	341.309	81.5238	341.309	81.5124	341.309	81.6497	341.309	81.664	341.309	81.7228	341.309	81.7321
353.027	83.82	353.027	83.7816	353.027	83.8248	353.027	83.7115	353.027	83.7773	353.027	83.5966	353.027	83.6507	353.027	83.4183	353.027	83.4277	353.027	83.1624	353.027	83.1138	353.027	82.8279	353.027	82.7361	353.027	82.4339	353.027	82.3249	353.027	82.0233	353.027	81.8951	353.027	81.6545	353.027	81.4477	353.027	81.3787	353.027	80.9988	353.027	81.2152	353.027	80.6116	353.027	81.1495	353.027	80.3895	353.027	81.1595	353.027	80.4123	353.027	81.2373	353.027	80.6642	353.027	81.3791	353.027	81.0374	353.027	81.5565	353.027	81.401	353.027	81.7068	353.027	81.6564	353.027	81.7566
366.211	84.4826	366.211	84.426	366.211	84.4425	366.211	84.2678	366.211	84.3177	366.211	84.0123	366.211	84.1221	366.211	83.6742	366.211	83.8635	366.211	83.2763	366.211	83.5399	366.211	82.8463	366.211	83.1457	366.211	82.4092	366.211	82.6884	366.211	81.9833	366.211	82.2061	366.211	81.5846	366.211	81.7688	366.211	81.243	366.211	81.4518	366.211	81.0131	366.211	81.2926	366.211	80.9487	366.211	81.2712	366.211	81.0503	366.211	81.3328	366.211	81.2459	366.211	81.4233	366.211	81.4394	366.211	81.5083	366.211	81.5702	366.211	81.5734	366.211	81.6296	366.211	81.6165	366.211	81.638
379.395	84.2587	379.395	84.2482	379.395	84.1984	379.395	84.1666	379.395	84.0685	379.395	84.012	379.395	83.8735	379.395	83.7792	379.395	83.6219	379.395	83.4631	379.395	83.3265	379.395	83.0675	379.395	83.0018	379.395	82.6158	379.395	82.6603	379.395	82.1562	379.395	82.3124	379.395	81.75	379.395	81.9737	379.395	81.4456	379.395	81.6752	379.395	81.2594	379.395	81.4637	379.395	81.1854	379.395	81.3829	379.395	81.2206	379.395	81.4442	379.395	81.3661	379.395	81.6153	379.395	81.601	379.395	81.8357	379.395	81.8655	379.395	82.0401	379.395	82.0821	379.395	82.1722	379.395	82.1913
392.578	84.1207	392.578	84.0658	392.578	84.0875	392.578	83.9314	392.578	83.9569	392.578	83.7216	392.578	83.7256	392.578	83.4386	392.578	83.4018	392.578	83.0889	392.578	83.0067	392.578	82.6892	392.578	82.5712	392.578	82.2688	392.578	82.1302	392.578	81.8678	392.578	81.7184	392.578	81.53	392.578	81.3666	392.578	81.2927	392.578	81.1019	392.578	81.1751	392.578	80.9485	392.578	81.1726	392.578	80.9261	392.578	81.2612	392.578	81.0348	392.578	81.4065	392.578	81.2395	392.578	81.5718	392.578	81.4769	392.578	81.7217	392.578	81.6829	392.578	81.8262	392.578	81.8162	392.578	81.8626
405.762	84.2022	405.762	84.1436	405.762	84.1721	405.762	84.0001	405.762	84.043	405.762	83.7675	405.762	83.8046	405.762	83.4382	405.762	83.4534	405.762	83.0099	405.762	82.998	405.762	82.4958	405.762	82.4632	405.762	81.9329	405.762	81.8946	405.762	81.3884	405.762	81.3646	405.762	80.9546	405.762	80.9657	405.762	80.7196	405.762	80.7727	405.762	80.7186	405.762	80.7922	405.762	80.9075	405.762	80.9598	405.762	81.1923	405.762	81.1917	405.762	81.4808	405.762	81.4281	405.762	81.7145	405.762	81.6373	405.762	81.8709	405.762	81.802	405.762	81.9508	405.762	81.9121	405.762	81.9627
420.41	84.5843	420.41	84.5469	420.41	84.5086	420.41	84.3978	420.41	84.3289	420.41	84.1489	420.41	84.0617	420.41	83.8153	420.41	83.7268	420.41	83.404	420.41	83.3426	420.41	82.9119	420.41	82.918	420.41	82.3409	420.41	82.4479	420.41	81.7249	420.41	81.9234	420.41	81.1405	420.41	81.3641	420.41	80.6786	420.41	80.8545	420.41	80.3997	420.41	80.5338	420.41	80.3233	420.41	80.5031	420.41	80.4491	420.41	80.7305	420.41	80.7519	420.41	81.0869	420.41	81.1571	420.41	81.4497	420.41	81.5543	420.41	81.7454	420.41	81.8441	420.41	81.931	420.41	81.9719
435.059	84.4026	435.059	84.4184	435.059	84.3091	435.059	84.3482	435.059	84.1474	435.059	84.1834	435.059	83.9241	435.059	83.9124	435.059	83.637	435.059	83.5233	435.059	83.2766	435.059	83.0114	435.059	82.8368	435.059	82.387	435.059	82.3262	435.059	81.682	435.059	81.7701	435.059	80.9636	435.059	81.2073	435.059	80.3556	435.059	80.6965	435.059	80.0264	435.059	80.3341	435.059	80.0878	435.059	80.2445	435.059	80.4809	435.059	80.4967	435.059	81.0225	435.059	81.0104	435.059	81.5469	435.059	81.5921	435.059	81.9682	435.059	82.0628	435.059	82.2546	435.059	82.3312	435.059	82.3858
451.172	84.6371	451.172	84.5564	451.172	84.6234	451.172	84.3988	451.172	84.4939	451.172	84.1692	451.172	84.2337	451.172	83.8613	451.172	83.837	451.172	83.4668	451.172	83.3071	451.172	82.9855	451.172	82.6604	451.172	82.4316	451.172	81.9412	451.172	81.8353	451.172	81.2381	451.172	81.2461	451.172	80.6707	451.172	80.7338	451.172	80.332	451.172	80.3811	451.172	80.2289	451.172	80.2568	451.172	80.2959	451.172	80.3733	451.172	80.4597	451.172	80.6625	451.172	80.6734	451.172	81.0035	451.172	80.9074	451.172	81.2816	451.172	81.1344	451.172	81.4295	451.172	81.3229	451.172	81.4347
465.82	84.6882	465.82	84.6639	465.82	84.659	465.82	84.5784	465.82	84.5562	465.82	84.4036	465.82	84.3422	465.82	84.1067	465.82	83.9886	465.82	83.663	465.82	83.4977	465.82	83.066	465.82	82.9011	465.82	82.3411	465.82	82.2386	465.82	81.5609	465.82	81.543	465.82	80.8491	465.82	80.8577	465.82	80.3349	465.82	80.2773	465.82	80.0733	465.82	79.943	465.82	80.0369	465.82	79.9431	465.82	80.1929	465.82	80.2277	465.82	80.5257	465.82	80.6615	465.82	80.9775	465.82	81.1208	465.82	81.4281	465.82	81.5188	465.82	81.7528	465.82	81.7891	465.82	81.8775
483.398	84.4667	483.398	84.3976	483.398	84.4403	483.398	84.2549	483.398	84.3126	483.398	84.0661	483.398	84.0917	483.398	83.8435	483.398	83.7889	483.398	83.5664	483.398	83.4055	483.398	83.1857	483.398	82.9248	483.398	82.6504	483.398	82.3223	483.398	81.9462	483.398	81.5953	483.398	81.1292	483.398	80.7987	483.398	80.3378	483.398	80.0672	483.398	79.7601	483.398	79.5857	483.398	79.5371	483.398	79.4816	483.398	79.6725	483.398	79.7275	483.398	80.0612	483.398	80.1837	483.398	80.5731	483.398	80.7069	483.398	81.082	483.398	81.1844	483.398	81.464	483.398	81.5167	483.398	81.6212
499.512	84.6605	499.512	84.6647	499.512	84.5507	499.512	84.5316	499.512	84.3799	499.512	84.2597	499.512	84.1704	499.512	83.8732	499.512	83.8972	499.512	83.4015	499.512	83.5039	499.512	82.8565	499.512	82.9526	499.512	82.2248	499.512	82.2655	499.512	81.4933	499.512	81.5255	499.512	80.7081	499.512	80.8327	499.512	80.0271	499.512	80.2686	499.512	79.6701	499.512	79.9152	499.512	79.7297	499.512	79.8763	499.512	80.0858	499.512	80.19	499.512	80.5531	499.512	80.7257	499.512	81.0088	499.512	81.2632	499.512	81.3915	499.512	81.6453	499.512	81.6692	499.512	81.8244	499.512	81.8212
517.09	84.5671	517.09	84.5411	517.09	84.5327	517.09	84.4474	517.09	84.409	517.09	84.2617	517.09	84.1569	517.09	83.9734	517.09	83.772	517.09	83.583	517.09	83.2922	517.09	83.0782	517.09	82.7541	517.09	82.4279	517.09	82.1441	517.09	81.6091	517.09	81.4105	517.09	80.6471	517.09	80.5429	517.09	79.6568	517.09	79.6664	517.09	78.8762	517.09	79.0504	517.09	78.6074	517.09	78.9121	517.09	78.9551	517.09	79.1996	517.09	79.6658	517.09	79.7069	517.09	80.3924	517.09	80.2717	517.09	80.9416	517.09	80.7864	517.09	81.2561	517.09	81.1602	517.09	81.327
536.133	84.1712	536.133	84.0694	536.133	84.2011	536.133	83.9383	536.133	84.1192	536.133	83.7813	536.133	83.9192	536.133	83.5592	536.133	83.6169	536.133	83.2311	536.133	83.2203	536.133	82.7904	536.133	82.7221	536.133	82.2526	536.133	82.1232	536.133	81.6202	536.133	81.4419	536.133	80.8889	536.133	80.688	536.133	80.1055	536.133	79.8609	536.133	79.4079	536.133	79.0501	536.133	78.9866	536.133	78.5539	536.133	78.9813	536.133	78.6762	536.133	79.3681	536.133	79.2829	536.133	79.9349	536.133	79.9616	536.133	80.4264	536.133	80.4528	536.133	80.7106	536.133	80.7137	536.133	80.7934
555.176	84.2407	555.176	84.2548	555.176	84.1466	555.176	84.1666	555.176	84.0089	555.176	83.9769	555.176	83.8263	555.176	83.678	555.176	83.5461	555.176	83.2417	555.176	83.1243	555.176	82.642	555.176	82.5746	555.176	81.8655	555.176	81.9326	555.176	80.905	555.176	81.1909	555.176	79.7928	555.176	80.328	555.176	78.708	555.176	79.4362	555.176	78.0308	555.176	78.7803	555.176	78.0328	555.176	78.6068	555.176	78.5293	555.176	78.8905	555.176	79.2082	555.176	79.4207	555.176	79.928	555.176	80.0209	555.176	80.592	555.176	80.5855	555.176	81.0554	555.176	81.0169	555.176	81.2012
574.219	84.0705	574.219	84.0783	574.219	84.0067	574.219	83.9989	574.219	83.8673	574.219	83.7868	574.219	83.6222	574.219	83.4387	574.219	83.2835	574.219	82.9971	574.219	82.8821	574.219	82.5147	574.219	82.396	574.219	82.0137	574.219	81.7451	574.219	81.4419	574.219	80.8824	574.219	80.6607	574.219	79.8933	574.219	79.5502	574.219	78.9865	574.219	78.2399	574.219	78.352	574.219	77.3155	574.219	78.0779	574.219	77.4047	574.219	78.2311	574.219	78.2864	574.219	78.791	574.219	79.283	574.219	79.5055	574.219	79.9984	574.219	80.0747	574.219	80.364	574.219	80.383	574.219	80.4692
594.727	83.7365	594.727	83.675	594.727	83.7035	594.727	83.5669	594.727	83.5748	594.727	83.4563	594.727	83.3793	594.727	83.3242	594.727	83.1288	594.727	83.0849	594.727	82.8009	594.727	82.6333	594.727	82.3497	594.727	81.9062	594.727	81.7283	594.727	80.927	594.727	80.9158	594.727	79.8052	594.727	79.9228	594.727	78.683	594.727	78.7728	594.727	77.6902	594.727	77.6015	594.727	77.0253	594.727	76.9032	594.727	77.0383	594.727	77.1946	594.727	77.8191	594.727	78.1311	594.727	78.8681	594.727	79.0374	594.727	79.6613	594.727	79.6386	594.727	80.0359	594.727	79.9597	594.727	80.0923
615.234	83.8777	615.234	83.8416	615.234	83.8167	615.234	83.7069	615.234	83.6848	615.234	83.4875	615.234	83.5136	615.234	83.1896	615.234	83.2989	615.234	82.8093	615.234	82.9947	615.234	82.355	615.234	82.5619	615.234	81.8234	615.234	81.9898	615.234	81.1352	615.234	81.2515	615.234	80.1689	615.234	80.2991	615.234	78.9196	615.234	79.1637	615.234	77.6501	615.234	78.0448	615.234	76.8591	615.234	77.2797	615.234	76.9023	615.234	77.1939	615.234	77.6093	615.234	77.7982	615.234	78.5142	615.234	78.7171	615.234	79.296	615.234	79.5571	615.234	79.857	615.234	80.0668	615.234	80.1479
637.207	84.0646	637.207	84.0648	637.207	83.9841	637.207	83.9945	637.207	83.8293	637.207	83.8754	637.207	83.5981	637.207	83.7074	637.207	83.2948	637.207	83.4584	637.207	82.9414	637.207	83.0931	637.207	82.5348	637.207	82.5981	637.207	82.0251	637.207	81.9656	637.207	81.36	637.207	81.1432	637.207	80.5156	637.207	80.0514	637.207	79.532	637.207	78.7439	637.207	78.6025	637.207	77.597	637.207	78.0441	637.207	77.164	637.207	78.0802	637.207	77.6065	637.207	78.6912	637.207	78.5317	637.207	79.5476	637.207	79.4431	637.207	80.2057	637.207	80.0783	637.207	80.4746	637.207	80.4119
659.18	85.1297	659.18	85.085	659.18	85.1036	659.18	84.9745	659.18	85.005	659.18	84.8039	659.18	84.8653	659.18	84.5827	659.18	84.7111	659.18	84.2983	659.18	84.4776	659.18	83.9379	659.18	84.0681	659.18	83.5074	659.18	83.4895	659.18	82.9505	659.18	82.8237	659.18	82.1257	659.18	82.0487	659.18	80.9853	659.18	81.021	659.18	79.7576	659.18	79.8277	659.18	78.8498	659.18	79.1872	659.18	78.5719	659.18	79.6426	659.18	79.0499	659.18	80.5017	659.18	80.1096	659.18	81.1559	659.18	81.2882	659.18	81.6344	659.18	82.1068	659.18	82.07	659.18	82.3282
682.617	85.4941	682.617	85.4876	682.617	85.4683	682.617	85.4141	682.617	85.3513	682.617	85.2159	682.617	85.1136	682.617	84.9363	682.617	84.8602	682.617	84.6688	682.617	84.6883	682.617	84.3679	682.617	84.469	682.617	83.8476	682.617	83.9494	682.617	83.0365	682.617	83.0634	682.617	82.055	682.617	82.0186	682.617	80.9498	682.617	80.9747	682.617	79.5644	682.617	79.8045	682.617	78.0076	682.617	78.625	682.617	77.2775	682.617	78.3699	682.617	78.1786	682.617	79.4881	682.617	79.6952	682.617	80.8356	682.617	80.8983	682.617	81.6159	682.617	81.5999	682.617	81.8824	682.617	81.879
707.52	85.5992	707.52	85.55	707.52	85.4841	707.52	85.3687	707.52	85.3007	707.52	85.1354	707.52	85.1258	707.52	84.8549	707.52	84.9041	707.52	84.5366	707.52	84.5897	707.52	84.2876	707.52	84.2474	707.52	84.0757	707.52	83.8439	707.52	83.5753	707.52	83.0864	707.52	82.5687	707.52	81.7754	707.52	81.2404	707.52	80.2689	707.52	79.8894	707.52	79.159	707.52	78.7164	707.52	78.2976	707.52	78.101	707.52	77.6209	707.52	78.2523	707.52	78.0401	707.52	78.9031	707.52	79.1984	707.52	79.6639	707.52	80.005	707.52	80.1649	707.52	80.3108	707.52	80.3404
732.422	85.1077	732.422	85.1821	732.422	84.8899	732.422	84.9846	732.422	84.6394	732.422	84.6234	732.422	84.3352	732.422	84.3744	732.422	83.946	732.422	84.2236	732.422	83.4927	732.422	83.8524	732.422	83.0274	732.422	83.2364	732.422	82.636	732.422	82.7667	732.422	82.2315	732.422	82.4452	732.422	81.5128	732.422	81.6668	732.422	80.3438	732.422	80.0552	732.422	78.9843	732.422	78.2158	732.422	78.1685	732.422	77.8134	732.422	78.4422	732.422	78.912	732.422	79.375	732.422	80.1775	732.422	80.4506	732.422	81.2038	732.422	81.4394	732.422	81.9602	732.422	82.1165	732.422	82.3014
757.324	85.0615	757.324	84.9574	757.324	85.1171	757.324	84.7962	757.324	85.1016	757.324	84.5218	757.324	85.0079	757.324	84.1428	757.324	84.8852	757.324	83.8347	757.324	84.7952	757.324	83.6337	757.324	84.6037	757.324	83.2653	757.324	84.0543	757.324	82.4929	757.324	83.1858	757.324	81.3086	757.324	82.3012	757.324	79.9585	757.324	81.2809	757.324	78.6289	757.324	79.7335	757.324	77.0547	757.324	77.8185	757.324	75.2939	757.324	76.2939	757.324	74.9964	757.324	76.5353	757.324	76.8122	757.324	78.1936	757.324	78.8664	757.324	79.4566	757.324	80.1246	757.324	80.1442	757.324	80.4481
785.156	85.6333	785.156	85.5938	785.156	85.5126	785.156	85.4531	785.156	85.1355	785.156	85.2263	785.156	84.6183	785.156	85.0395	785.156	84.2121	785.156	84.948	785.156	83.8941	785.156	84.7986	785.156	83.5037	785.156	84.5101	785.156	83.1526	785.156	84.1324	785.156	82.7435	785.156	83.6035	785.156	81.8562	785.156	82.7218	785.156	80.5198	785.156	81.3146	785.156	79.2774	785.156	79.4942	785.156	78.0735	785.156	77.9592	785.156	76.78	785.156	77.761	785.156	76.7138	785.156	78.6916	785.156	77.7478	785.156	79.7207	785.156	78.9825	785.156	80.4438	785.156	80.1239	785.156	80.6636
811.523	85.9935	811.523	85.8715	811.523	85.805	811.523	85.5202	811.523	85.5081	811.523	85.1721	811.523	85.1695	811.523	84.8166	811.523	84.6693	811.523	84.3992	811.523	84.0569	811.523	84.024	811.523	83.531	811.523	83.6655	811.523	83.1592	811.523	83.2243	811.523	82.8915	811.523	82.7604	811.523	82.4996	811.523	82.0393	811.523	81.5942	811.523	80.5073	811.523	80.0968	811.523	78.3645	811.523	78.7266	811.523	77.3876	811.523	78.5035	811.523	78.267	811.523	79.4876	811.523	79.818	811.523	80.9514	811.523	81.1177	811.523	82.0484	811.523	81.8868	811.523	82.4556	811.523	82.324
840.82	86.0622	840.82	85.9978	840.82	86.1022	840.82	85.8371	840.82	86.0057	840.82	85.4806	840.82	85.638	840.82	84.9905	840.82	85.0924	840.82	84.4574	840.82	84.6906	840.82	84.0233	840.82	84.5806	840.82	83.9043	840.82	84.5325	840.82	83.784	840.82	84.1802	840.82	83.1633	840.82	83.3333	840.82	82.2563	840.82	82.2096	840.82	81.4953	840.82	81.1404	840.82	80.3196	840.82	79.9569	840.82	78.8094	840.82	78.4958	840.82	78.6554	840.82	77.679	840.82	79.565	840.82	78.3489	840.82	80.9123	840.82	79.8652	840.82	82.0896	840.82	81.3221	840.82	82.1993
870.117	86.8965	870.117	86.8244	870.117	86.5722	870.117	86.5665	870.117	86.0582	870.117	86.1669	870.117	85.731	870.117	85.514	870.117	85.3756	870.117	84.9176	870.117	84.6852	870.117	84.548	870.117	83.9978	870.117	84.0465	870.117	83.6164	870.117	83.6766	870.117	83.3572	870.117	83.5523	870.117	83.0815	870.117	82.6881	870.117	82.4766	870.117	80.9508	870.117	81.0961	870.117	79.6539	870.117	79.343	870.117	78.3944	870.117	78.4502	870.117	77.683	870.117	79.1563	870.117	79.7872	870.117	81.1698	870.117	81.801	870.117	83.0496	870.117	82.9465	870.117	83.8957	870.117	83.7165
900.879	88.4276	900.879	88.1419	900.879	88.4052	900.879	87.7173	900.879	87.9656	900.879	87.1903	900.879	87.2198	900.879	86.5059	900.879	86.3991	900.879	85.7488	900.879	85.644	900.879	85.1967	900.879	84.9499	900.879	84.8033	900.879	84.339	900.879	84.1176	900.879	83.7446	900.879	83.1456	900.879	82.8224	900.879	82.1454	900.879	81.6034	900.879	80.4394	900.879	80.3087	900.879	77.4634	900.879	78.5163	900.879	75.4408	900.879	77.6172	900.879	76.8309	900.879	79.1847	900.879	79.5055	900.879	80.8165	900.879	81.744	900.879	82.0308	900.879	82.9518	900.879	82.894	900.879	83.256
933.105	88.6825	933.105	88.7005	933.105	88.2859	933.105	88.2285	933.105	87.9548	933.105	87.6388	933.105	87.6743	933.105	87.1691	933.105	87.0645	933.105	86.6618	933.105	86.3111	933.105	86.0949	933.105	85.9223	933.105	85.7672	933.105	85.702	933.105	85.6608	933.105	85.291	933.105	85.2974	933.105	84.6654	933.105	84.5047	933.105	83.602	933.105	83.3871	933.105	81.8745	933.105	81.4647	933.105	79.4485	933.105	78.5008	933.105	76.8706	933.105	77.174	933.105	77.6048	933.105	79.0944	933.105	80.2995	933.105	81.5122	933.105	82.4534	933.105	83.3405	933.105	83.8787	933.105	84.2182
965.332	88.5293	965.332	88.3436	965.332	88.5439	965.332	88.216	965.332	88.0254	965.332	87.6884	965.332	87.2877	965.332	86.6564	965.332	86.6801	965.332	85.7758	965.332	85.911	965.332	85.3502	965.332	84.9845	965.332	84.9137	965.332	84.4892	965.332	84.5168	965.332	84.3606	965.332	84.5048	965.332	84.0767	965.332	84.0514	965.332	83.4216	965.332	82.415	965.332	82.0922	965.332	80.3409	965.332	79.878	965.332	78.1786	965.332	77.7655	965.332	76.0543	965.332	77.2545	965.332	78.1177	965.332	79.4759	965.332	80.6111	965.332	81.8907	965.332	82.2004	965.332	82.902	965.332	83.0031
1,000.49	89.0168	1,000.49	88.8163	1,000.49	88.876	1,000.49	88.465	1,000.49	88.5111	1,000.49	88.055	1,000.49	87.926	1,000.49	87.2697	1,000.49	86.9505	1,000.49	86.1013	1,000.49	85.7987	1,000.49	85.1423	1,000.49	84.9241	1,000.49	84.8791	1,000.49	84.4744	1,000.49	84.9353	1,000.49	84.2488	1,000.49	84.5773	1,000.49	83.9099	1,000.49	84.0409	1,000.49	83.1635	1,000.49	83.3789	1,000.49	81.641	1,000.49	81.378	1,000.49	79.2389	1,000.49	78.3582	1,000.49	76.7472	1,000.49	77.7344	1,000.49	76.4114	1,000.49	79.3989	1,000.49	78.7156	1,000.49	81.8513	1,000.49	81.4373	1,000.49	83.2632	1,000.49	83.1181	1,000.49	83.5755
1,035.64	89.311	1,035.64	89.2899	1,035.64	89.0762	1,035.64	89.0024	1,035.64	88.5065	1,035.64	88.3123	1,035.64	87.8591	1,035.64	87.4773	1,035.64	87.0816	1,035.64	86.6711	1,035.64	85.7104	1,035.64	85.556	1,035.64	84.3068	1,035.64	84.5035	1,035.64	83.6921	1,035.64	84.0724	1,035.64	83.3905	1,035.64	84.0412	1,035.64	83.0083	1,035.64	83.8938	1,035.64	82.3134	1,035.64	82.7253	1,035.64	81.2137	1,035.64	80.7415	1,035.64	79.4333	1,035.64	78.5015	1,035.64	77.1668	1,035.64	76.4275	1,035.64	76.7526	1,035.64	78.5084	1,035.64	79.162	1,035.64	80.7486	1,035.64	81.6098	1,035.64	82.7431	1,035.64	83.2477	1,035.64	83.8785
1,072.27	89.0224	1,072.27	88.8935	1,072.27	88.8754	1,072.27	88.7601	1,072.27	88.4374	1,072.27	88.5547	1,072.27	87.7602	1,072.27	87.5911	1,072.27	86.7977	1,072.27	86.0606	1,072.27	85.6208	1,072.27	85.1074	1,072.27	84.3866	1,072.27	84.6931	1,072.27	83.7576	1,072.27	84.2539	1,072.27	83.8309	1,072.27	83.4706	1,072.27	83.4701	1,072.27	82.7221	1,072.27	82.6665	1,072.27	82.163	1,072.27	81.453	1,072.27	80.1418	1,072.27	79.1151	1,072.27	75.9875	1,072.27	75.2315	1,072.27	74.3976	1,072.27	75.9789	1,072.27	77.7842	1,072.27	79.7522	1,072.27	80.9456	1,072.27	81.7651	1,072.27	83.0424	1,072.27	83.1007	1,072.27	83.7486
1,108.89	89.7319	1,108.89	89.7445	1,108.89	89.3471	1,108.89	88.9511	1,108.89	88.9324	1,108.89	87.8826	1,108.89	88.04	1,108.89	87.14	1,108.89	86.6752	1,108.89	86.1669	1,108.89	85.5798	1,108.89	84.88	1,108.89	84.8082	1,108.89	84.1834	1,108.89	83.9745	1,108.89	84.3697	1,108.89	83.6222	1,108.89	84.856	1,108.89	83.9727	1,108.89	84.7597	1,108.89	83.9852	1,108.89	83.8329	1,108.89	83.3219	1,108.89	81.9357	1,108.89	81.3488	1,108.89	78.61	1,108.89	77.3647	1,108.89	72.9193	1,108.89	73.659	1,108.89	75.8786	1,108.89	76.6715	1,108.89	79.7684	1,108.89	81.2877	1,108.89	81.289	1,108.89	83.0049	1,108.89	82.5432
1,148.44	89.5705	1,148.44	89.609	1,148.44	89.5916	1,148.44	89.3097	1,148.44	89.3656	1,148.44	88.7645	1,148.44	88.4697	1,148.44	87.9805	1,148.44	87.5001	1,148.44	86.8536	1,148.44	86.5964	1,148.44	85.783	1,148.44	85.3016	1,148.44	84.538	1,148.44	84.0905	1,148.44	83.4209	1,148.44	83.5989	1,148.44	83.3163	1,148.44	84.1641	1,148.44	83.4128	1,148.44	84.348	1,148.44	82.8292	1,148.44	82.8853	1,148.44	81.106	1,148.44	80.7655	1,148.44	78.4736	1,148.44	77.4572	1,148.44	75.8043	1,148.44	72.4132	1,148.44	76.8214	1,148.44	78.0045	1,148.44	80.4077	1,148.44	81.3621	1,148.44	82.9634	1,148.44	82.9227	1,148.44	83.7587
1,189.45	90.1582	1,189.45	89.8523	1,189.45	89.9883	1,189.45	89.5348	1,189.45	89.439	1,189.45	88.9419	1,189.45	88.9995	1,189.45	87.7305	1,189.45	88.0393	1,189.45	86.3927	1,189.45	86.4419	1,189.45	84.9284	1,189.45	85.2941	1,189.45	83.5435	1,189.45	83.9718	1,189.45	82.8143	1,189.45	82.6952	1,189.45	82.7542	1,189.45	82.3127	1,189.45	83.219	1,189.45	82.5148	1,189.45	83.0462	1,189.45	83.0511	1,189.45	81.7627	1,189.45	81.8423	1,189.45	79.0832	1,189.45	78.9694	1,189.45	75.231	1,189.45	75.8271	1,189.45	76.2931	1,189.45	77.4581	1,189.45	80.4552	1,189.45	81.2678	1,189.45	82.981	1,189.45	83.0097	1,189.45	83.6067
1,230.47	89.7504	1,230.47	89.7208	1,230.47	89.5438	1,230.47	89.3288	1,230.47	89.1611	1,230.47	88.8233	1,230.47	88.2986	1,230.47	88.1967	1,230.47	87.3676	1,230.47	87.1578	1,230.47	86.6227	1,230.47	85.7914	1,230.47	85.0274	1,230.47	84.0289	1,230.47	83.3093	1,230.47	82.4604	1,230.47	82.852	1,230.47	81.5483	1,230.47	82.8887	1,230.47	80.8111	1,230.47	83.1339	1,230.47	81.2955	1,230.47	82.265	1,230.47	80.8859	1,230.47	80.8308	1,230.47	77.954	1,230.47	77.6243	1,230.47	74.0134	1,230.47	70.7684	1,230.47	76.424	1,230.47	75.8805	1,230.47	80.1047	1,230.47	80.2709	1,230.47	82.1235	1,230.47	82.9759	1,230.47	83.2285
1,274.41	89.3572	1,274.41	89.5367	1,274.41	89.1695	1,274.41	89.3559	1,274.41	88.4246	1,274.41	88.3823	1,274.41	87.4977	1,274.41	87.1088	1,274.41	86.6863	1,274.41	85.9664	1,274.41	85.4465	1,274.41	84.6339	1,274.41	83.9006	1,274.41	83.5787	1,274.41	81.9855	1,274.41	82.7018	1,274.41	80.7967	1,274.41	81.5939	1,274.41	80.5874	1,274.41	82.151	1,274.41	81.0719	1,274.41	82.3754	1,274.41	81.9131	1,274.41	80.89	1,274.41	80.8445	1,274.41	78.3504	1,274.41	77.7882	1,274.41	73.7686	1,274.41	73.4805	1,274.41	74.5346	1,274.41	73.8375	1,274.41	80.0938	1,274.41	79.8891	1,274.41	82.2566	1,274.41	82.4339	1,274.41	82.7456
1,319.82	88.6411	1,319.82	88.6053	1,319.82	88.5602	1,319.82	88.0665	1,319.82	88.37	1,319.82	87.3999	1,319.82	87.333	1,319.82	86.4108	1,319.82	86.181	1,319.82	84.9129	1,319.82	85.5347	1,319.82	83.5419	1,319.82	84.2236	1,319.82	82.5371	1,319.82	82.1476	1,319.82	81.5738	1,319.82	80.8907	1,319.82	80.9514	1,319.82	80.6513	1,319.82	80.3298	1,319.82	81.7049	1,319.82	79.4425	1,319.82	81.4302	1,319.82	79.0144	1,319.82	80.0905	1,319.82	77.9708	1,319.82	78.9169	1,319.82	73.3761	1,319.82	72.8708	1,319.82	72.2881	1,319.82	68.4416	1,319.82	77.7378	1,319.82	74.5916	1,319.82	80.0658	1,319.82	79.0249	1,319.82	80.5277
1,366.7	88.4964	1,366.7	88.4845	1,366.7	88.5043	1,366.7	88.5239	1,366.7	88.2324	1,366.7	88.2643	1,366.7	87.4792	1,366.7	87.3149	1,366.7	86.7588	1,366.7	85.9761	1,366.7	85.6159	1,366.7	84.1064	1,366.7	83.6073	1,366.7	82.485	1,366.7	82.0736	1,366.7	81.511	1,366.7	80.1139	1,366.7	81.1296	1,366.7	79.0124	1,366.7	81.649	1,366.7	80.5647	1,366.7	80.7675	1,366.7	81.8856	1,366.7	79.9711	1,366.7	81.5008	1,366.7	78.6812	1,366.7	78.6471	1,366.7	72.1592	1,366.7	74.1448	1,366.7	65.2015	1,366.7	69.3989	1,366.7	75.0154	1,366.7	74.7817	1,366.7	80.3176	1,366.7	78.4439	1,366.7	80.3737
1,413.57	88.6039	1,413.57	88.7862	1,413.57	88.5091	1,413.57	88.524	1,413.57	87.9841	1,413.57	87.1868	1,413.57	86.9511	1,413.57	86.1588	1,413.57	85.6494	1,413.57	85.0266	1,413.57	84.3283	1,413.57	83.2392	1,413.57	82.8215	1,413.57	80.4497	1,413.57	80.7049	1,413.57	76.2451	1,413.57	79.2654	1,413.57	76.5786	1,413.57	78.2588	1,413.57	77.7767	1,413.57	79.0442	1,413.57	78.8445	1,413.57	80.5046	1,413.57	78.6474	1,413.57	80.0084	1,413.57	76.52	1,413.57	79.1053	1,413.57	67.3221	1,413.57	76.801	1,413.57	72.4476	1,413.57	71.4759	1,413.57	78.9231	1,413.57	77.8501	1,413.57	81.2615	1,413.57	80.372	1,413.57	81.0184
1,463.38	90.6829	1,463.38	90.5774	1,463.38	90.7104	1,463.38	89.9583	1,463.38	89.818	1,463.38	89.1026	1,463.38	88.8036	1,463.38	87.979	1,463.38	87.5426	1,463.38	86.7735	1,463.38	85.3959	1,463.38	85.633	1,463.38	84.1572	1,463.38	83.2425	1,463.38	82.4441	1,463.38	80.8821	1,463.38	79.5619	1,463.38	77.3261	1,463.38	77.5506	1,463.38	75.3492	1,463.38	79.2239	1,463.38	77.977	1,463.38	80.0983	1,463.38	78.8601	1,463.38	79.6731	1,463.38	77.9778	1,463.38	79.7922	1,463.38	73.6956	1,463.38	74.819	1,463.38	60.9065	1,463.38	72.6831	1,463.38	77.0665	1,463.38	78.0955	1,463.38	80.6243	1,463.38	81.9113	1,463.38	82.4924
1,516.11	91.5419	1,516.11	91.2826	1,516.11	91.3222	1,516.11	90.6433	1,516.11	90.3923	1,516.11	89.7517	1,516.11	89.6211	1,516.11	88.582	1,516.11	88.6022	1,516.11	86.8996	1,516.11	87.0541	1,516.11	85.4882	1,516.11	85.2877	1,516.11	84.0645	1,516.11	82.3646	1,516.11	81.2893	1,516.11	79.4109	1,516.11	79.4594	1,516.11	77.6248	1,516.11	79.5097	1,516.11	78.412	1,516.11	80.6286	1,516.11	80.1251	1,516.11	82.0773	1,516.11	82.1226	1,516.11	81.0002	1,516.11	80.5375	1,516.11	76.6391	1,516.11	75.0914	1,516.11	66.1158	1,516.11	70.7612	1,516.11	73.8765	1,516.11	75.7145	1,516.11	78.1611	1,516.11	79.9362	1,516.11	79.3966
1,568.85	90.213	1,568.85	90.4848	1,568.85	90.4427	1,568.85	90.8188	1,568.85	89.6029	1,568.85	89.2982	1,568.85	89.1722	1,568.85	87.6242	1,568.85	87.3358	1,568.85	86.9565	1,568.85	85.7037	1,568.85	85.6568	1,568.85	84.7616	1,568.85	83.767	1,568.85	81.3532	1,568.85	80.9933	1,568.85	79.5763	1,568.85	77.3531	1,568.85	77.2654	1,568.85	76.3986	1,568.85	75.9813	1,568.85	78.6033	1,568.85	79.9333	1,568.85	81.5956	1,568.85	80.6002	1,568.85	81.5486	1,568.85	78.693	1,568.85	80.4452	1,568.85	75.5394	1,568.85	74.7733	1,568.85	69.5067	1,568.85	58.0738	1,568.85	70.9654	1,568.85	75.2005	1,568.85	77.5935	1,568.85	79.4234
1,624.51	89.2055	1,624.51	89.4049	1,624.51	89.1094	1,624.51	88.9107	1,624.51	88.5145	1,624.51	88.3447	1,624.51	87.955	1,624.51	86.897	1,624.51	87.145	1,624.51	85.4809	1,624.51	85.36	1,624.51	85.0294	1,624.51	84.2217	1,624.51	83.1143	1,624.51	82.8738	1,624.51	80.8112	1,624.51	79.7237	1,624.51	76.6919	1,624.51	75.7295	1,624.51	70.9274	1,624.51	74.3807	1,624.51	73.1687	1,624.51	75.8121	1,624.51	76.6802	1,624.51	77.1936	1,624.51	75.322	1,624.51	76.791	1,624.51	74.2984	1,624.51	73.9252	1,624.51	70.0744	1,624.51	71.2755	1,624.51	71.6356	1,624.51	74.843	1,624.51	77.9875	1,624.51	79.1841	1,624.51	79.8363
1,681.64	88.529	1,681.64	88.2555	1,681.64	88.1809	1,681.64	87.638	1,681.64	87.7085	1,681.64	86.6235	1,681.64	86.9783	1,681.64	85.5456	1,681.64	85.9413	1,681.64	84.9799	1,681.64	85.3562	1,681.64	83.385	1,681.64	84.6081	1,681.64	82.2793	1,681.64	82.6804	1,681.64	79.8287	1,681.64	81.8259	1,681.64	76.2063	1,681.64	78.9775	1,681.64	73.9492	1,681.64	73.4367	1,681.64	73.4797	1,681.64	75.8666	1,681.64	76.7676	1,681.64	76.4196	1,681.64	77.7365	1,681.64	74.2325	1,681.64	76.5533	1,681.64	68.8011	1,681.64	70.8023	1,681.64	70.702	1,681.64	74.6102	1,681.64	75.8994	1,681.64	79.6844	1,681.64	78.8193	1,681.64	79.2726
1,741.7	90.8271	1,741.7	90.4545	1,741.7	90.4839	1,741.7	89.7381	1,741.7	89.6477	1,741.7	88.9914	1,741.7	88.5734	1,741.7	87.4107	1,741.7	87.6585	1,741.7	85.0048	1,741.7	85.8382	1,741.7	83.8958	1,741.7	84.6221	1,741.7	82.1796	1,741.7	82.5867	1,741.7	79.8762	1,741.7	80.3275	1,741.7	79.8585	1,741.7	78.5801	1,741.7	78.6975	1,741.7	75.4196	1,741.7	78.5259	1,741.7	72.3141	1,741.7	76.832	1,741.7	75.4983	1,741.7	78.562	1,741.7	77.7811	1,741.7	75.7849	1,741.7	76.8504	1,741.7	61.8714	1,741.7	53.072	1,741.7	74.2036	1,741.7	75.8453	1,741.7	78.2274	1,741.7	79.2649	1,741.7	80.9007
1,803.22	91.3342	1,803.22	91.0809	1,803.22	91.0617	1,803.22	90.5006	1,803.22	90.1437	1,803.22	89.3305	1,803.22	89.1782	1,803.22	88.1258	1,803.22	88.0118	1,803.22	86.8589	1,803.22	86.5367	1,803.22	85.794	1,803.22	84.9944	1,803.22	84.2138	1,803.22	84.0029	1,803.22	82.8818	1,803.22	82.346	1,803.22	80.1172	1,803.22	80.1457	1,803.22	78.4965	1,803.22	77.1661	1,803.22	76.578	1,803.22	75.499	1,803.22	78.0294	1,803.22	78.7166	1,803.22	79.9291	1,803.22	79.5748	1,803.22	77.8824	1,803.22	76.0867	1,803.22	72.1387	1,803.22	65.7126	1,803.22	66.5254	1,803.22	73.294	1,803.22	76.4837	1,803.22	78.9977	1,803.22	80.31
1,866.21	90.6057	1,866.21	90.6997	1,866.21	90.2647	1,866.21	89.8096	1,866.21	89.4121	1,866.21	88.6624	1,866.21	88.1067	1,866.21	87.5172	1,866.21	86.6098	1,866.21	86.3915	1,866.21	85.1192	1,866.21	84.9062	1,866.21	83.8641	1,866.21	83.2157	1,866.21	83.1838	1,866.21	81.7685	1,866.21	81.5999	1,866.21	79.2508	1,866.21	80.0785	1,866.21	77.5802	1,866.21	78.0827	1,866.21	76.566	1,866.21	73.4147	1,866.21	75.8206	1,866.21	76.8213	1,866.21	79.2014	1,866.21	78.9109	1,866.21	79.4437	1,866.21	77.2785	1,866.21	74.871	1,866.21	72.8314	1,866.21	51.7235	1,866.21	68.1585	1,866.21	75.8785	1,866.21	76.2337	1,866.21	77.2467
1,932.13	90.3613	1,932.13	90.2356	1,932.13	90.2272	1,932.13	89.4138	1,932.13	89.6584	1,932.13	88.3033	1,932.13	87.923	1,932.13	86.733	1,932.13	86.3401	1,932.13	84.6254	1,932.13	84.6548	1,932.13	83.6127	1,932.13	82.8444	1,932.13	82.2252	1,932.13	81.0558	1,932.13	80.6676	1,932.13	79.6829	1,932.13	80.06	1,932.13	79.1648	1,932.13	75.8022	1,932.13	76.9549	1,932.13	73.9479	1,932.13	72.0896	1,932.13	73.9733	1,932.13	74.1765	1,932.13	76.7623	1,932.13	77.6838	1,932.13	76.2012	1,932.13	77.0556	1,932.13	71.129	1,932.13	72.6546	1,932.13	60.1416	1,932.13	59.3489	1,932.13	74.4657	1,932.13	74.1334	1,932.13	76.341
1,999.51	91.4524	1,999.51	91.2751	1,999.51	91.4435	1,999.51	90.3142	1,999.51	90.4061	1,999.51	88.7413	1,999.51	88.9382	1,999.51	86.8875	1,999.51	87.4436	1,999.51	85.113	1,999.51	85.6937	1,999.51	82.8205	1,999.51	83.6768	1,999.51	81.9566	1,999.51	81.1899	1,999.51	80.2107	1,999.51	79.5463	1,999.51	78.5508	1,999.51	80.1011	1,999.51	76.1801	1,999.51	78.3105	1,999.51	73.1309	1,999.51	73.8271	1,999.51	72.9345	1,999.51	70.7358	1,999.51	74.8237	1,999.51	76.4026	1,999.51	76.4921	1,999.51	77.5853	1,999.51	73.8236	1,999.51	72.3166	1,999.51	55.6168	1,999.51	54.435	1,999.51	74.5445	1,999.51	75.0385	1,999.51	77.2109
2,069.82	91.9895	2,069.82	91.8011	2,069.82	91.4526	2,069.82	90.8888	2,069.82	90.6298	2,069.82	90.0702	2,069.82	89.0687	2,069.82	88.149	2,069.82	87.4153	2,069.82	86.0542	2,069.82	85.5353	2,069.82	84.1999	2,069.82	83.1248	2,069.82	82.243	2,069.82	80.4344	2,069.82	79.9668	2,069.82	78.9247	2,069.82	78.8353	2,069.82	76.9013	2,069.82	77.7472	2,069.82	77.3625	2,069.82	75.8101	2,069.82	74.2443	2,069.82	73.0454	2,069.82	69.9653	2,069.82	73.7743	2,069.82	75.1051	2,069.82	75.9535	2,069.82	77.341	2,069.82	73.7252	2,069.82	71.8289	2,069.82	61.0542	2,069.82	61.3052	2,069.82	70.2898	2,069.82	74.0355	2,069.82	75.948
2,143.07	90.9191	2,143.07	90.7203	2,143.07	90.2797	2,143.07	90.2759	2,143.07	89.6076	2,143.07	89.4106	2,143.07	88.1514	2,143.07	87.5789	2,143.07	86.0845	2,143.07	85.753	2,143.07	84.1995	2,143.07	83.8188	2,143.07	82.0983	2,143.07	81.8927	2,143.07	79.7676	2,143.07	79.168	2,143.07	77.3219	2,143.07	78.0657	2,143.07	75.7644	2,143.07	77.6666	2,143.07	75.7967	2,143.07	74.5319	2,143.07	74.8765	2,143.07	72.6766	2,143.07	69.9446	2,143.07	72.9939	2,143.07	70.9915	2,143.07	75.0532	2,143.07	75.1893	2,143.07	73.6921	2,143.07	71.5412	2,143.07	62.759	2,143.07	50.0652	2,143.07	71.3974	2,143.07	70.482	2,143.07	74.7232
2,219.24	89.9219	2,219.24	90.012	2,219.24	89.5966	2,219.24	89.3609	2,219.24	89.2597	2,219.24	88.3148	2,219.24	87.6679	2,219.24	87.3846	2,219.24	85.8566	2,219.24	84.7401	2,219.24	83.596	2,219.24	82.1241	2,219.24	81.4579	2,219.24	81.5105	2,219.24	79.6029	2,219.24	77.7959	2,219.24	78.396	2,219.24	74.8748	2,219.24	74.0328	2,219.24	75.3721	2,219.24	73.0889	2,219.24	72.4583	2,219.24	73.6759	2,219.24	71.2924	2,219.24	71.4826	2,219.24	72.6344	2,219.24	67.9578	2,219.24	72.096	2,219.24	74.1276	2,219.24	71.144	2,219.24	71.2177	2,219.24	55.3088	2,219.24	58.3352	2,219.24	68.9176	2,219.24	68.8092	2,219.24	74.0582
2,296.88	90.6223	2,296.88	90.0469	2,296.88	90.6508	2,296.88	89.3974	2,296.88	89.376	2,296.88	87.6878	2,296.88	88.437	2,296.88	85.8576	2,296.88	86.8274	2,296.88	83.9757	2,296.88	84.8531	2,296.88	81.0004	2,296.88	82.4728	2,296.88	78.8778	2,296.88	80.0947	2,296.88	78.0739	2,296.88	79.4292	2,296.88	73.7267	2,296.88	76.8007	2,296.88	71.5355	2,296.88	73.572	2,296.88	72.3452	2,296.88	74.4381	2,296.88	67.3923	2,296.88	72.5396	2,296.88	66.6949	2,296.88	70.4389	2,296.88	71.1066	2,296.88	73.3066	2,296.88	67.7761	2,296.88	71.9763	2,296.88	64.7926	2,296.88	59.4439	2,296.88	63.9048	2,296.88	67.5879	2,296.88	71.915
2,378.91	89.9563	2,378.91	89.9711	2,378.91	89.8177	2,378.91	88.9247	2,378.91	89.1184	2,378.91	87.5122	2,378.91	87.8876	2,378.91	85.978	2,378.91	86.0331	2,378.91	83.7366	2,378.91	83.2861	2,378.91	80.4657	2,378.91	81.055	2,378.91	78.3792	2,378.91	78.3422	2,378.91	76.8331	2,378.91	76.4328	2,378.91	74.2017	2,378.91	72.8596	2,378.91	68.2455	2,378.91	70.0561	2,378.91	71.5159	2,378.91	69.0127	2,378.91	69.9506	2,378.91	68.2315	2,378.91	66.3797	2,378.91	67.8895	2,378.91	68.7284	2,378.91	69.8859	2,378.91	70.6578	2,378.91	66.9155	2,378.91	66.3745	2,378.91	51.0729	2,378.91	63.4998	2,378.91	67.2991	2,378.91	67.7712
2,462.4	89.4666	2,462.4	89.1177	2,462.4	89.2475	2,462.4	88.0529	2,462.4	88.0129	2,462.4	86.3584	2,462.4	86.3817	2,462.4	84.4129	2,462.4	84.0494	2,462.4	81.1117	2,462.4	81.0991	2,462.4	78.493	2,462.4	77.9472	2,462.4	75.1778	2,462.4	75.2793	2,462.4	72.2715	2,462.4	72.852	2,462.4	71.0261	2,462.4	69.0557	2,462.4	67.8731	2,462.4	66.9209	2,462.4	67.7181	2,462.4	63.8769	2,462.4	63.9552	2,462.4	64.4311	2,462.4	65.426	2,462.4	64.1782	2,462.4	67.2311	2,462.4	67.2848	2,462.4	68.09	2,462.4	67.3543	2,462.4	62.8267	2,462.4	60.8779	2,462.4	62.0826	2,462.4	64.2397	2,462.4	66.3292
2,548.83	89.941	2,548.83	89.1182	2,548.83	89.4149	2,548.83	87.9892	2,548.83	88.005	2,548.83	85.7509	2,548.83	85.9896	2,548.83	82.421	2,548.83	83.0122	2,548.83	80.003	2,548.83	79.7534	2,548.83	76.9144	2,548.83	75.9482	2,548.83	71.8447	2,548.83	73.926	2,548.83	73.5217	2,548.83	72.159	2,548.83	73.8609	2,548.83	71.7194	2,548.83	72.4473	2,548.83	71.9272	2,548.83	70.2283	2,548.83	72.4253	2,548.83	72.2332	2,548.83	69.9198	2,548.83	70.488	2,548.83	68.068	2,548.83	70.324	2,548.83	68.3209	2,548.83	68.9211	2,548.83	71.3447	2,548.83	61.4603	2,548.83	61.0697	2,548.83	63.5849	2,548.83	69.8428	2,548.83	71.0228
2,639.65	88.8539	2,639.65	88.9023	2,639.65	88.096	2,639.65	87.5227	2,639.65	87.1748	2,639.65	85.9543	2,639.65	85.0715	2,639.65	83.7436	2,639.65	82.7147	2,639.65	81.2732	2,639.65	80.129	2,639.65	80.5838	2,639.65	78.7421	2,639.65	78.3039	2,639.65	76.9004	2,639.65	76.0718	2,639.65	73.6412	2,639.65	76.0881	2,639.65	74.5907	2,639.65	75.8659	2,639.65	73.7214	2,639.65	73.6696	2,639.65	73.811	2,639.65	74.5753	2,639.65	72.538	2,639.65	73.747	2,639.65	71.314	2,639.65	73.6502	2,639.65	70.0582	2,639.65	73.8003	2,639.65	71.7945	2,639.65	65.6249	2,639.65	53.3078	2,639.65	69.3981	2,639.65	70.8369	2,639.65	72.7789
2,731.93	88.1177	2,731.93	87.6885	2,731.93	87.2485	2,731.93	86.7566	2,731.93	86.1632	2,731.93	85.6604	2,731.93	84.7753	2,731.93	83.9018	2,731.93	83.3211	2,731.93	82.5869	2,731.93	81.5252	2,731.93	81.6485	2,731.93	79.23	2,731.93	79.4075	2,731.93	78.6343	2,731.93	76.5767	2,731.93	76.0278	2,731.93	76.1541	2,731.93	75.3624	2,731.93	76.0452	2,731.93	73.3758	2,731.93	73.3741	2,731.93	75.557	2,731.93	74.8428	2,731.93	74.0391	2,731.93	72.792	2,731.93	70.1867	2,731.93	72.6033	2,731.93	72.3023	2,731.93	74.1138	2,731.93	72.8871	2,731.93	67.6727	2,731.93	62.4361	2,731.93	65.4659	2,731.93	67.6508	2,731.93	72.5272
2,828.61	86.9292	2,828.61	87.2273	2,828.61	86.3375	2,828.61	86.7344	2,828.61	85.9168	2,828.61	85.7286	2,828.61	84.5083	2,828.61	85.2362	2,828.61	83.3434	2,828.61	83.6085	2,828.61	82.3894	2,828.61	81.8424	2,828.61	80.9357	2,828.61	80.789	2,828.61	78.7813	2,828.61	77.6036	2,828.61	77.0461	2,828.61	75.3869	2,828.61	76.206	2,828.61	74.628	2,828.61	73.7066	2,828.61	70.7373	2,828.61	73.3994	2,828.61	72.594	2,828.61	73.977	2,828.61	70.6045	2,828.61	69.9552	2,828.61	69.9628	2,828.61	71.7598	2,828.61	74.5756	2,828.61	71.6368	2,828.61	67.0327	2,828.61	63.6787	2,828.61	64.1894	2,828.61	66.3061	2,828.61	70.2513
2,928.22	84.7334	2,928.22	85.1129	2,928.22	84.6609	2,928.22	84.8975	2,928.22	84.1697	2,928.22	84.1902	2,928.22	83.1018	2,928.22	83.9521	2,928.22	82.5298	2,928.22	82.502	2,928.22	81.565	2,928.22	80.0792	2,928.22	79.5834	2,928.22	79.3891	2,928.22	77.0087	2,928.22	77.5863	2,928.22	75.289	2,928.22	74.5463	2,928.22	74.1275	2,928.22	73.4784	2,928.22	73.2643	2,928.22	70.2733	2,928.22	69.2813	2,928.22	70.7051	2,928.22	70.6618	2,928.22	71.4624	2,928.22	68.2503	2,928.22	69.3999	2,928.22	69.8833	2,928.22	73.2894	2,928.22	71.8581	2,928.22	68.7276	2,928.22	66.2	2,928.22	65.5612	2,928.22	64.7272	2,928.22	71.5647
3,030.76	84.6806	3,030.76	84.7203	3,030.76	84.8105	3,030.76	84.5163	3,030.76	83.8662	3,030.76	84.1366	3,030.76	83.2715	3,030.76	83.3658	3,030.76	81.8684	3,030.76	82.034	3,030.76	80.735	3,030.76	79.8306	3,030.76	79.1922	3,030.76	77.4822	3,030.76	77.1492	3,030.76	75.6796	3,030.76	74.925	3,030.76	73.6051	3,030.76	72.3713	3,030.76	72.535	3,030.76	69.8988	3,030.76	70.4592	3,030.76	65.9424	3,030.76	66.7991	3,030.76	69.1404	3,030.76	69.4541	3,030.76	68.9949	3,030.76	67.919	3,030.76	67.663	3,030.76	70.2501	3,030.76	69.9128	3,030.76	69.3798	3,030.76	63.7224	3,030.76	53.2339	3,030.76	55.9423	3,030.76	65.7596
3,137.7	84.9198	3,137.7	84.0867	3,137.7	85.1669	3,137.7	84.68	3,137.7	83.8496	3,137.7	84.0346	3,137.7	83.264	3,137.7	82.6561	3,137.7	81.5259	3,137.7	81.3615	3,137.7	80.3898	3,137.7	79.6681	3,137.7	78.36	3,137.7	77.4035	3,137.7	76.5975	3,137.7	75.5206	3,137.7	73.9927	3,137.7	73.5153	3,137.7	70.9731	3,137.7	71.5897	3,137.7	68.6426	3,137.7	68.5052	3,137.7	66.7944	3,137.7	67.7991	3,137.7	67.8889	3,137.7	68.0822	3,137.7	66.0878	3,137.7	65.5232	3,137.7	64.891	3,137.7	67.8695	3,137.7	67.6227	3,137.7	68.3689	3,137.7	62.9836	3,137.7	40.5351	3,137.7	57.2627	3,137.7	65.0663
3,249.02	84.4038	3,249.02	84.2209	3,249.02	84.0628	3,249.02	84.0346	3,249.02	83.6285	3,249.02	83.2145	3,249.02	82.5524	3,249.02	81.4737	3,249.02	81.1574	3,249.02	80.217	3,249.02	79.5261	3,249.02	78.3875	3,249.02	77.0741	3,249.02	75.1695	3,249.02	75.3378	3,249.02	73.6687	3,249.02	72.5978	3,249.02	71.3031	3,249.02	69.9683	3,249.02	69.5683	3,249.02	66.1106	3,249.02	66.9262	3,249.02	63.4911	3,249.02	66.8649	3,249.02	66.6551	3,249.02	66.4677	3,249.02	66.5117	3,249.02	63.51	3,249.02	62.1809	3,249.02	66.1001	3,249.02	66.2188	3,249.02	64.5436	3,249.02	61.8677	3,249.02	49.6879	3,249.02	55.144	3,249.02	63.3327
3,363.28	83.9613	3,363.28	83.9763	3,363.28	83.7353	3,363.28	83.4352	3,363.28	83.3473	3,363.28	82.9217	3,363.28	82.2743	3,363.28	81.2707	3,363.28	80.9341	3,363.28	79.6499	3,363.28	78.8702	3,363.28	77.9936	3,363.28	76.2565	3,363.28	74.6877	3,363.28	74.0629	3,363.28	72.1098	3,363.28	70.7002	3,363.28	68.8591	3,363.28	69.5276	3,363.28	67.4333	3,363.28	65.7634	3,363.28	64.8739	3,363.28	62.6737	3,363.28	64.0311	3,363.28	63.0254	3,363.28	66.529	3,363.28	64.1443	3,363.28	63.018	3,363.28	57.5495	3,363.28	63.8602	3,363.28	65.075	3,363.28	63.1717	3,363.28	61.135	3,363.28	55.9875	3,363.28	52.866	3,363.28	63.2339
3,481.93	84.3896	3,481.93	84.436	3,481.93	83.9413	3,481.93	83.6508	3,481.93	83.5516	3,481.93	82.7854	3,481.93	82.1394	3,481.93	81.0574	3,481.93	80.7891	3,481.93	79.4758	3,481.93	78.513	3,481.93	77.0885	3,481.93	75.4625	3,481.93	74.2508	3,481.93	72.8589	3,481.93	70.5989	3,481.93	69.94	3,481.93	68.2965	3,481.93	67.8761	3,481.93	67.0245	3,481.93	65.494	3,481.93	62.5999	3,481.93	63.2024	3,481.93	61.7757	3,481.93	58.7396	3,481.93	62.5916	3,481.93	62.4759	3,481.93	59.5697	3,481.93	56.4646	3,481.93	61.1622	3,481.93	63.8624	3,481.93	64.129	3,481.93	60.4093	3,481.93	50.6501	3,481.93	52.227	3,481.93	60.0085
3,604.98	83.7478	3,604.98	83.8186	3,604.98	83.1785	3,604.98	82.6598	3,604.98	82.6779	3,604.98	81.5895	3,604.98	81.1234	3,604.98	79.6436	3,604.98	79.3737	3,604.98	77.7394	3,604.98	76.7381	3,604.98	75.0285	3,604.98	73.9505	3,604.98	72.021	3,604.98	70.6794	3,604.98	69.2972	3,604.98	67.7618	3,604.98	66.4091	3,604.98	64.9323	3,604.98	64.1229	3,604.98	63.5833	3,604.98	61.836	3,604.98	61.0421	3,604.98	58.1867	3,604.98	57.6036	3,604.98	58.3048	3,604.98	60.8141	3,604.98	56.3135	3,604.98	56.0739	3,604.98	58.2338	3,604.98	57.9899	3,604.98	61.8352	3,604.98	57.5112	3,604.98	49.8647	3,604.98	52.1667	3,604.98	57.6128
3,732.42	83.2611	3,732.42	83.4296	3,732.42	82.5201	3,732.42	82.2912	3,732.42	82.1999	3,732.42	81.3956	3,732.42	80.772	3,732.42	79.7103	3,732.42	78.6786	3,732.42	77.0814	3,732.42	75.4231	3,732.42	74.289	3,732.42	72.3956	3,732.42	71.5307	3,732.42	68.7124	3,732.42	66.4985	3,732.42	66.1048	3,732.42	64.508	3,732.42	65.0565	3,732.42	62.5022	3,732.42	63.4398	3,732.42	61.3326	3,732.42	59.0267	3,732.42	55.5429	3,732.42	56.3137	3,732.42	60.1094	3,732.42	58.0059	3,732.42	57.7241	3,732.42	58.6286	3,732.42	56.3489	3,732.42	48.9261	3,732.42	57.5157	3,732.42	55.8238	3,732.42	49.4995	3,732.42	49.1066	3,732.42	51.3035
3,864.26	82.5048	3,864.26	82.369	3,864.26	82.1991	3,864.26	81.4671	3,864.26	81.2519	3,864.26	80.2538	3,864.26	79.8991	3,864.26	78.6628	3,864.26	77.3146	3,864.26	76.0352	3,864.26	73.2067	3,864.26	72.5564	3,864.26	70.7495	3,864.26	69.8202	3,864.26	67.9776	3,864.26	63.5561	3,864.26	65.3198	3,864.26	63.1356	3,864.26	62.1412	3,864.26	61.4723	3,864.26	61.6245	3,864.26	58.3338	3,864.26	60.9876	3,864.26	50.8077	3,864.26	58.4814	3,864.26	60.1495	3,864.26	54.0107	3,864.26	57.4886	3,864.26	58.6366	3,864.26	55.5403	3,864.26	45.7695	3,864.26	56.4396	3,864.26	55.3375	3,864.26	44.5505	3,864.26	48.0463	3,864.26	49.6276
4,000.49	82.1998	4,000.49	81.3429	4,000.49	82.1695	4,000.49	80.6728	4,000.49	81.1641	4,000.49	79.412	4,000.49	79.6254	4,000.49	77.246	4,000.49	77.23	4,000.49	73.6247	4,000.49	74.9621	4,000.49	71.4993	4,000.49	71.4216	4,000.49	68.9125	4,000.49	68.1122	4,000.49	64.2131	4,000.49	65.1348	4,000.49	60.3981	4,000.49	63.9197	4,000.49	54.7939	4,000.49	61.114	4,000.49	53.7843	4,000.49	58.9711	4,000.49	54.1588	4,000.49	58.0921	4,000.49	53.7566	4,000.49	58.2124	4,000.49	50.3429	4,000.49	57.6358	4,000.49	50.3892	4,000.49	55.2648	4,000.49	48.6881	4,000.49	57.7489	4,000.49	52.8483	4,000.49	49.1654	4,000.49	43.1745
4,141.11	81.1025	4,141.11	80.1054	4,141.11	81.4569	4,141.11	79.5699	4,141.11	80.6745	4,141.11	77.1154	4,141.11	79.3729	4,141.11	74.1778	4,141.11	77.5874	4,141.11	70.1652	4,141.11	75.4919	4,141.11	67.2397	4,141.11	72.4983	4,141.11	64.1438	4,141.11	70.12	4,141.11	60.3848	4,141.11	66.8353	4,141.11	58.2773	4,141.11	62.2899	4,141.11	55.9001	4,141.11	62.8819	4,141.11	56.1521	4,141.11	61.228	4,141.11	53.7245	4,141.11	54.31	4,141.11	52.0705	4,141.11	58.9908	4,141.11	46.3803	4,141.11	58.4238	4,141.11	52.5126	4,141.11	57.2531	4,141.11	40.1665	4,141.11	53.571	4,141.11	48.7546	4,141.11	47.3775	4,141.11	49.5697
4,287.6	80.7756	4,287.6	80.7247	4,287.6	80.3954	4,287.6	79.1778	4,287.6	79.6675	4,287.6	75.7367	4,287.6	78.5885	4,287.6	71.0837	4,287.6	77.3483	4,287.6	65.8703	4,287.6	75.4195	4,287.6	57.6812	4,287.6	72.8216	4,287.6	46.5463	4,287.6	69.7937	4,287.6	53.5121	4,287.6	67.1479	4,287.6	57.6388	4,287.6	64.0798	4,287.6	52.7006	4,287.6	59.5877	4,287.6	56.63	4,287.6	57.9425	4,287.6	55.9077	4,287.6	55.1821	4,287.6	49.8361	4,287.6	58.0341	4,287.6	49.2308	4,287.6	53.1003	4,287.6	53.7186	4,287.6	55.5042	4,287.6	48.41	4,287.6	50.8654	4,287.6	50.3914	4,287.6	51.7763	4,287.6	50.8076
4,438.48	80.0201	4,438.48	79.9695	4,438.48	79.0845	4,438.48	78.2626	4,438.48	77.809	4,438.48	75.4268	4,438.48	75.896	4,438.48	70.9262	4,438.48	73.959	4,438.48	65.6006	4,438.48	73.1022	4,438.48	59.7228	4,438.48	71.2805	4,438.48	56.6304	4,438.48	69.2483	4,438.48	56.1477	4,438.48	66.609	4,438.48	58.4297	4,438.48	64.5254	4,438.48	57.4211	4,438.48	61.1907	4,438.48	55.3676	4,438.48	59.2725	4,438.48	56.2619	4,438.48	58.2404	4,438.48	50.9281	4,438.48	56.8751	4,438.48	52.5644	4,438.48	55.7754	4,438.48	37.6506	4,438.48	54.5993	4,438.48	51.241	4,438.48	50.5557	4,438.48	45.0493	4,438.48	47.5653	4,438.48	50.2312
4,595.21	80.8275	4,595.21	80.2518	4,595.21	80.0183	4,595.21	78.3799	4,595.21	77.7137	4,595.21	76.3045	4,595.21	73.9628	4,595.21	71.326	4,595.21	68.9325	4,595.21	58.6778	4,595.21	69.6218	4,595.21	62.3602	4,595.21	70.8783	4,595.21	65.7692	4,595.21	70.8926	4,595.21	66.6314	4,595.21	68.585	4,595.21	65.4078	4,595.21	66.6085	4,595.21	64.4018	4,595.21	64.2475	4,595.21	61.3385	4,595.21	63.8485	4,595.21	61.9112	4,595.21	62.8196	4,595.21	59.1895	4,595.21	58.1276	4,595.21	57.5711	4,595.21	59.0103	4,595.21	56.1199	4,595.21	57.7521	4,595.21	57.4025	4,595.21	58.626	4,595.21	52.4343	4,595.21	52.0291	4,595.21	50.8704
4,756.35	82.0292	4,756.35	82.2547	4,756.35	81.3073	4,756.35	81.6069	4,756.35	79.4725	4,756.35	79.206	4,756.35	75.5217	4,756.35	74.5852	4,756.35	65.8441	4,756.35	66.1549	4,756.35	66.9782	4,756.35	68.139	4,756.35	73.3804	4,756.35	72.5996	4,756.35	73.7539	4,756.35	70.9051	4,756.35	72.5293	4,756.35	69.1554	4,756.35	72.1351	4,756.35	67.8202	4,756.35	69.3396	4,756.35	66.0803	4,756.35	69.0183	4,756.35	66.1755	4,756.35	66.7149	4,756.35	61.3306	4,756.35	63.608	4,756.35	60.7035	4,756.35	64.4623	4,756.35	61.608	4,756.35	62.0724	4,756.35	60.6462	4,756.35	62.4722	4,756.35	59.4214	4,756.35	54.848	4,756.35	45.5118
4,924.8	85.0163	4,924.8	86.0088	4,924.8	84.7233	4,924.8	85.8227	4,924.8	84.5789	4,924.8	82.9252	4,924.8	80.6844	4,924.8	76.5957	4,924.8	70.2648	4,924.8	57.0962	4,924.8	72.8465	4,924.8	75.7271	4,924.8	76.622	4,924.8	78.8411	4,924.8	77.0419	4,924.8	77.1703	4,924.8	76.1398	4,924.8	74.7191	4,924.8	75.5668	4,924.8	73.2592	4,924.8	73.3789	4,924.8	71.2174	4,924.8	72.0993	4,924.8	73.0492	4,924.8	68.2958	4,924.8	69.515	4,924.8	68.2463	4,924.8	66.7154	4,924.8	70.2134	4,924.8	68.1287	4,924.8	67.7742	4,924.8	66.3005	4,924.8	64.1758	4,924.8	64.7895	4,924.8	58.4678	4,924.8	56.5863
5,097.66	90.4573	5,097.66	90.7628	5,097.66	90.6839	5,097.66	90.6015	5,097.66	89.4378	5,097.66	88.8242	5,097.66	85.8348	5,097.66	82.7224	5,097.66	77.9663	5,097.66	78.1375	5,097.66	80.0535	5,097.66	83.0184	5,097.66	80.7557	5,097.66	82.2345	5,097.66	82.2339	5,097.66	80.4093	5,097.66	81.246	5,097.66	78.6636	5,097.66	80.3782	5,097.66	77.3456	5,097.66	76.9764	5,097.66	73.8574	5,097.66	73.0106	5,097.66	75.5734	5,097.66	73.5206	5,097.66	74.0705	5,097.66	72.0661	5,097.66	70.7612	5,097.66	70.1614	5,097.66	71.1609	5,097.66	69.983	5,097.66	67.3591	5,097.66	69.5006	5,097.66	68.6523	5,097.66	61.2092	5,097.66	61.9238
5,277.83	93.1284	5,277.83	92.6522	5,277.83	92.5668	5,277.83	91.784	5,277.83	90.3211	5,277.83	89.5457	5,277.83	86.4399	5,277.83	84.1009	5,277.83	76.8329	5,277.83	82.3618	5,277.83	81.3955	5,277.83	84.4609	5,277.83	82.8316	5,277.83	83.9127	5,277.83	84.3102	5,277.83	81.4547	5,277.83	82.9635	5,277.83	80.9984	5,277.83	81.0159	5,277.83	80.544	5,277.83	79.0937	5,277.83	77.7099	5,277.83	74.1014	5,277.83	75.437	5,277.83	72.773	5,277.83	75.8032	5,277.83	74.8246	5,277.83	73.4389	5,277.83	70.1588	5,277.83	74.2417	5,277.83	71.6206	5,277.83	67.3087	5,277.83	72.0355	5,277.83	68.6181	5,277.83	62.777	5,277.83	65.1974
5,463.87	92.3315	5,463.87	92.1306	5,463.87	91.3084	5,463.87	90.5808	5,463.87	89.0772	5,463.87	86.5469	5,463.87	82.9004	5,463.87	80.484	5,463.87	76.5203	5,463.87	80.7157	5,463.87	78.2446	5,463.87	81.3589	5,463.87	82.9649	5,463.87	82.3333	5,463.87	83.128	5,463.87	79.9093	5,463.87	81.0744	5,463.87	77.5832	5,463.87	77.505	5,463.87	78.108	5,463.87	74.4529	5,463.87	74.7861	5,463.87	72.5104	5,463.87	69.5112	5,463.87	70.2061	5,463.87	69.0059	5,463.87	69.1558	5,463.87	66.3223	5,463.87	67.7606	5,463.87	72.558	5,463.87	69.171	5,463.87	64.7347	5,463.87	68.6938	5,463.87	67.2717	5,463.87	62.0454	5,463.87	65.1547
5,657.23	89.8192	5,657.23	89.2009	5,657.23	88.4129	5,657.23	86.7143	5,657.23	85.8418	5,657.23	81.487	5,657.23	80.8343	5,657.23	73.4326	5,657.23	77.7853	5,657.23	76.5699	5,657.23	79.0322	5,657.23	77.3598	5,657.23	80.1732	5,657.23	77.2376	5,657.23	78.0859	5,657.23	76.2145	5,657.23	76.2645	5,657.23	74.357	5,657.23	73.8204	5,657.23	70.6689	5,657.23	70.5327	5,657.23	67.798	5,657.23	69.495	5,657.23	65.5385	5,657.23	67.6484	5,657.23	65.5652	5,657.23	64.1179	5,657.23	64.2081	5,657.23	64.4755	5,657.23	69.8835	5,657.23	62.1924	5,657.23	64.3818	5,657.23	63.1787	5,657.23	65.6407	5,657.23	58.6491	5,657.23	54.5296
5,856.45	87.4212	5,856.45	86.9555	5,856.45	86.1864	5,856.45	83.5212	5,856.45	83.3111	5,856.45	79.7111	5,856.45	79.1451	5,856.45	75.9797	5,856.45	76.8869	5,856.45	74.6292	5,856.45	78.006	5,856.45	75.5598	5,856.45	77.2191	5,856.45	74.4205	5,856.45	74.2091	5,856.45	73.8354	5,856.45	71.7038	5,856.45	73.1262	5,856.45	70.9338	5,856.45	66.8868	5,856.45	68.9321	5,856.45	67.0242	5,856.45	66.8616	5,856.45	66.238	5,856.45	64.977	5,856.45	62.8575	5,856.45	57.8133	5,856.45	62.2728	5,856.45	62.4488	5,856.45	63.6174	5,856.45	62.8543	5,856.45	58.8291	5,856.45	55.6768	5,856.45	61.8357	5,856.45	57.9815	5,856.45	47.2122
6,062.99	83.8722	6,062.99	83.4618	6,062.99	83.2424	6,062.99	80.7532	6,062.99	79.9022	6,062.99	77.5016	6,062.99	76.5367	6,062.99	75.4251	6,062.99	75.0426	6,062.99	73.2069	6,062.99	74.3995	6,062.99	73.3463	6,062.99	72.3195	6,062.99	71.731	6,062.99	71.0699	6,062.99	71.0863	6,062.99	68.503	6,062.99	68.8994	6,062.99	65.3016	6,062.99	64.1825	6,062.99	65.313	6,062.99	63.5942	6,062.99	63.5937	6,062.99	62.685	6,062.99	57.3991	6,062.99	59.6176	6,062.99	60.7484	6,062.99	56.8664	6,062.99	54.5867	6,062.99	53.508	6,062.99	56.775	6,062.99	44.4859	6,062.99	49.9506	6,062.99	56.5398	6,062.99	53.7231	6,062.99	46.4603
6,276.86	81.746	6,276.86	80.9801	6,276.86	81.0473	6,276.86	78.8564	6,276.86	78.9494	6,276.86	75.2636	6,276.86	75.891	6,276.86	72.409	6,276.86	72.6209	6,276.86	68.7409	6,276.86	69.4062	6,276.86	66.4509	6,276.86	67.8096	6,276.86	63.9383	6,276.86	65.0312	6,276.86	62.2163	6,276.86	63.3965	6,276.86	59.3738	6,276.86	60.4559	6,276.86	54.8398	6,276.86	56.7016	6,276.86	47.4455	6,276.86	54.8197	6,276.86	53.9874	6,276.86	51.6154	6,276.86	51.0883	6,276.86	54.098	6,276.86	42.8286	6,276.86	51.8382	6,276.86	48.7729	6,276.86	48.9841	6,276.86	42.7267	6,276.86	48.5652	6,276.86	48.1895	6,276.86	48.756	6,276.86	38.0757
6,498.05	84.0381	6,498.05	83.5739	6,498.05	83.0913	6,498.05	81.2872	6,498.05	80.2024	6,498.05	76.1703	6,498.05	74.5732	6,498.05	68.606	6,498.05	67.4593	6,498.05	59.6288	6,498.05	60.0486	6,498.05	63.4374	6,498.05	56.9038	6,498.05	63.7128	6,498.05	57.8372	6,498.05	62.8089	6,498.05	51.7344	6,498.05	57.1917	6,498.05	50.714	6,498.05	61.0161	6,498.05	42.7901	6,498.05	57.6203	6,498.05	47.6396	6,498.05	53.791	6,498.05	51.0731	6,498.05	53.2873	6,498.05	39.4687	6,498.05	51.8314	6,498.05	46.6148	6,498.05	53.7927	6,498.05	40.3888	6,498.05	51.5974	6,498.05	32.8457	6,498.05	50.0494	6,498.05	45.7932	6,498.05	45.4919
6,726.56	87.7877	6,726.56	87.0895	6,726.56	86.0416	6,726.56	84.2299	6,726.56	81.7753	6,726.56	78.4762	6,726.56	72.679	6,726.56	67.0005	6,726.56	65.1311	6,726.56	72.3112	6,726.56	72.1248	6,726.56	73.4301	6,726.56	71.2323	6,726.56	71.6457	6,726.56	71.1935	6,726.56	70.0575	6,726.56	67.6031	6,726.56	65.7584	6,726.56	65.693	6,726.56	66.3569	6,726.56	63.7754	6,726.56	63.7081	6,726.56	61.8719	6,726.56	61.1243	6,726.56	62.3264	6,726.56	57.4066	6,726.56	54.9173	6,726.56	59.4502	6,726.56	58.5398	6,726.56	58.4632	6,726.56	57.1702	6,726.56	54.8118	6,726.56	50.6828	6,726.56	55.7977	6,726.56	57.2408	6,726.56	52.8993
6,963.87	90.2114	6,963.87	89.3624	6,963.87	87.5385	6,963.87	85.9632	6,963.87	81.7763	6,963.87	80.0802	6,963.87	71.6452	6,963.87	70.3467	6,963.87	75.4257	6,963.87	76.3104	6,963.87	78.2359	6,963.87	76.9439	6,963.87	76.9231	6,963.87	75.4358	6,963.87	76.083	6,963.87	72.5689	6,963.87	72.0263	6,963.87	69.0937	6,963.87	70.8068	6,963.87	68.9465	6,963.87	69.2243	6,963.87	64.8611	6,963.87	67.1652	6,963.87	64.2233	6,963.87	65.7347	6,963.87	61.7355	6,963.87	63.1329	6,963.87	64.2452	6,963.87	60.1496	6,963.87	59.7308	6,963.87	61.3642	6,963.87	60.6079	6,963.87	52.6663	6,963.87	58.9204	6,963.87	59.6439	6,963.87	58.0786
7,209.96	89.4713	7,209.96	88.4295	7,209.96	87.1249	7,209.96	84.2346	7,209.96	81.5552	7,209.96	76.1232	7,209.96	72.9216	7,209.96	74.5039	7,209.96	77.435	7,209.96	76.5131	7,209.96	79.3238	7,209.96	76.9228	7,209.96	78.3019	7,209.96	75.3621	7,209.96	75.9052	7,209.96	70.5026	7,209.96	73.0944	7,209.96	70.0689	7,209.96	71.4356	7,209.96	67.481	7,209.96	69.2789	7,209.96	64.3314	7,209.96	67.1429	7,209.96	63.167	7,209.96	64.1085	7,209.96	59.369	7,209.96	61.211	7,209.96	62.1188	7,209.96	62.8495	7,209.96	61.2592	7,209.96	60.7457	7,209.96	58.6691	7,209.96	55.8834	7,209.96	58.3563	7,209.96	58.4273	7,209.96	56.0785
7,464.84	85.4774	7,464.84	84.7388	7,464.84	83.6106	7,464.84	79.8049	7,464.84	78.5444	7,464.84	73.0654	7,464.84	72.5688	7,464.84	73.5199	7,464.84	74.7488	7,464.84	73.8338	7,464.84	75.8574	7,464.84	71.9877	7,464.84	75.2536	7,464.84	69.9156	7,464.84	70.7586	7,464.84	64.5858	7,464.84	68.5771	7,464.84	64.7183	7,464.84	65.2928	7,464.84	61.0143	7,464.84	62.4653	7,464.84	60.1845	7,464.84	61.764	7,464.84	54.9598	7,464.84	58.1957	7,464.84	54.1581	7,464.84	60.4736	7,464.84	52.8862	7,464.84	49.3831	7,464.84	56.0606	7,464.84	59.4228	7,464.84	50.3309	7,464.84	53.7498	7,464.84	49.6406	7,464.84	48.0205	7,464.84	46.7384
7,727.05	83.3726	7,727.05	81.7876	7,727.05	81.2089	7,727.05	77.1829	7,727.05	75.9435	7,727.05	72.062	7,727.05	72.1391	7,727.05	70.8603	7,727.05	72.5886	7,727.05	71.087	7,727.05	72.2144	7,727.05	67.7327	7,727.05	71.5457	7,727.05	64.0885	7,727.05	67.0656	7,727.05	60.4994	7,727.05	64.4711	7,727.05	56.3107	7,727.05	59.7981	7,727.05	47.668	7,727.05	58.9417	7,727.05	55.5422	7,727.05	55.2148	7,727.05	43.4681	7,727.05	55.7041	7,727.05	48.9907	7,727.05	49.3276	7,727.05	48.9009	7,727.05	47.9786	7,727.05	38.8886	7,727.05	49.9718	7,727.05	43.0709	7,727.05	52.7133	7,727.05	45.0222	7,727.05	48.1826	7,727.05	39.6803
7,999.51	81.3551	7,999.51	80.0421	7,999.51	79.6725	7,999.51	76.3273	7,999.51	74.9243	7,999.51	71.5138	7,999.51	69.4894	7,999.51	68.1652	7,999.51	69.3884	7,999.51	65.1435	7,999.51	68.263	7,999.51	59.742	7,999.51	66.744	7,999.51	50.3804	7,999.51	62.7186	7,999.51	49.437	7,999.51	59.5451	7,999.51	43.3263	7,999.51	52.3925	7,999.51	49.7451	7,999.51	50.4743	7,999.51	29.3181	7,999.51	47.1299	7,999.51	46.478	7,999.51	45.6158	7,999.51	43.6089	7,999.51	39.4416	7,999.51	37.6041	7,999.51	31.7299	7,999.51	41.9758	7,999.51	43.1998	7,999.51	38.696	7,999.51	46.4313	7,999.51	32.4621	7,999.51	43.4072	7,999.51	31.3
8,282.23	82.8134	8,282.23	81.864	8,282.23	80.267	8,282.23	77.5313	8,282.23	74.6659	8,282.23	71.3277	8,282.23	67.5549	8,282.23	66.9081	8,282.23	64.7481	8,282.23	62.6504	8,282.23	59.2766	8,282.23	55.4832	8,282.23	61.4163	8,282.23	56.8569	8,282.23	61.7211	8,282.23	58.0466	8,282.23	60.2292	8,282.23	58.1129	8,282.23	57.8566	8,282.23	55.3366	8,282.23	55.9816	8,282.23	51.7389	8,282.23	53.9296	8,282.23	52.1744	8,282.23	51.1312	8,282.23	49.5485	8,282.23	48.3488	8,282.23	47.4168	8,282.23	45.5772	8,282.23	43.1815	8,282.23	49.6603	8,282.23	38.3464	8,282.23	45.5996	8,282.23	39.7064	8,282.23	42.6576	8,282.23	42.0123
8,573.73	86.8764	8,573.73	85.6524	8,573.73	83.799	8,573.73	80.3569	8,573.73	76.1865	8,573.73	73.8705	8,573.73	71.7304	8,573.73	71.3851	8,573.73	69.0577	8,573.73	68.3377	8,573.73	67.5089	8,573.73	67.0608	8,573.73	68.2806	8,573.73	68.8579	8,573.73	69.4106	8,573.73	67.2505	8,573.73	66.2345	8,573.73	64.9868	8,573.73	65.2856	8,573.73	63.7075	8,573.73	63.5808	8,573.73	61.5136	8,573.73	60.9033	8,573.73	57.6206	8,573.73	58.6949	8,573.73	58.2374	8,573.73	58.168	8,573.73	54.886	8,573.73	57.1407	8,573.73	54.4178	8,573.73	54.9603	8,573.73	55.4329	8,573.73	49.2131	8,573.73	43.4006	8,573.73	49.0172	8,573.73	51.335
8,876.95	87.1328	8,876.95	85.9775	8,876.95	84.109	8,876.95	81.059	8,876.95	78.8776	8,876.95	75.584	8,876.95	75.8657	8,876.95	74.0375	8,876.95	74.356	8,876.95	72.4774	8,876.95	69.9863	8,876.95	71.7497	8,876.95	70.6975	8,876.95	70.3906	8,876.95	71.673	8,876.95	69.0832	8,876.95	68.4382	8,876.95	65.2032	8,876.95	66.6695	8,876.95	64.3461	8,876.95	63.6847	8,876.95	61.7308	8,876.95	61.9093	8,876.95	59.359	8,876.95	57.9795	8,876.95	60.0934	8,876.95	59.3632	8,876.95	55.2648	8,876.95	58.4935	8,876.95	57.152	8,876.95	55.1937	8,876.95	58.2597	8,876.95	50.9411	8,876.95	49.2437	8,876.95	48.5488	8,876.95	53.3279
9,188.96	82.8233	9,188.96	81.7685	9,188.96	80.3768	9,188.96	77.3224	9,188.96	75.9904	9,188.96	74.6594	9,188.96	73.7593	9,188.96	71.9071	9,188.96	71.7174	9,188.96	70.3291	9,188.96	70.0141	9,188.96	69.8732	9,188.96	70.6651	9,188.96	69.2997	9,188.96	69.7008	9,188.96	67.2182	9,188.96	67.2173	9,188.96	64.4021	9,188.96	63.2791	9,188.96	59.2816	9,188.96	58.7303	9,188.96	57.9083	9,188.96	57.6509	9,188.96	56.0667	9,188.96	56.1544	9,188.96	55.8357	9,188.96	53.1303	9,188.96	55.9693	9,188.96	54.4933	9,188.96	51.6758	9,188.96	54.7135	9,188.96	50.4116	9,188.96	47.4386	9,188.96	40.8594	9,188.96	38.2578	9,188.96	49.1527
9,514.16	78.8339	9,514.16	77.8605	9,514.16	78.2919	9,514.16	75.6328	9,514.16	75.4039	9,514.16	72.9643	9,514.16	72.4978	9,514.16	68.7799	9,514.16	68.1004	9,514.16	65.0341	9,514.16	68.0136	9,514.16	66.6344	9,514.16	67.6765	9,514.16	65.2365	9,514.16	66.6346	9,514.16	61.7543	9,514.16	62.7649	9,514.16	56.1432	9,514.16	59.3962	9,514.16	53.1051	9,514.16	54.202	9,514.16	49.8236	9,514.16	54.1938	9,514.16	43.4351	9,514.16	52.7445	9,514.16	46.2866	9,514.16	53.0015	9,514.16	50.1212	9,514.16	49.9217	9,514.16	43.5462	9,514.16	49.495	9,514.16	46.4438	9,514.16	42.561	9,514.16	38.5493	9,514.16	45.5518	9,514.16	39.192
9,849.61	77.7667	9,849.61	77.9021	9,849.61	76.1799	9,849.61	75.9961	9,849.61	73.9832	9,849.61	71.6704	9,849.61	70.2927	9,849.61	64.1379	9,849.61	65.0712	9,849.61	63.6985	9,849.61	61.7461	9,849.61	61.9552	9,849.61	63.4589	9,849.61	55.1912	9,849.61	61.8226	9,849.61	49.1169	9,849.61	56.8011	9,849.61	30.7921	9,849.61	53.0199	9,849.61	35.8219	9,849.61	49.2765	9,849.61	40.2183	9,849.61	48.3355	9,849.61	32.9149	9,849.61	46.4963	9,849.61	32.208	9,849.61	46.7882	9,849.61	35.4922	9,849.61	41.1692	9,849.61	36.4546	9,849.61	41.7855	9,849.61	42.9521	9,849.61	39.4991	9,849.61	31.0625	9,849.61	39.8993	9,849.61	40.4047
10,196.8	79.342	10,196.8	79.7593	10,196.8	77.305	10,196.8	77.3133	10,196.8	74.2406	10,196.8	71.6085	10,196.8	68.8513	10,196.8	64.3642	10,196.8	61.0048	10,196.8	62.8203	10,196.8	62.2597	10,196.8	59.1855	10,196.8	60.3614	10,196.8	55.4847	10,196.8	56.0893	10,196.8	50.9584	10,196.8	50.6462	10,196.8	51.4607	10,196.8	46.3256	10,196.8	49.8547	10,196.8	37.3578	10,196.8	45.1958	10,196.8	36.0219	10,196.8	44.6272	10,196.8	27.7217	10,196.8	43.6029	10,196.8	40.3018	10,196.8	45.2601	10,196.8	40.2574	10,196.8	46.5717	10,196.8	36.8254	10,196.8	46.9232	10,196.8	30.0082	10,196.8	33.7351	10,196.8	35.9868	10,196.8	38.5545
10,555.7	77.9127	10,555.7	79.4212	10,555.7	77.2185	10,555.7	78.114	10,555.7	76.1642	10,555.7	73.2258	10,555.7	71.0386	10,555.7	66.0003	10,555.7	65.5678	10,555.7	67.4393	10,555.7	66.9294	10,555.7	66.4663	10,555.7	65.799	10,555.7	62.9051	10,555.7	61.9088	10,555.7	59.6182	10,555.7	55.1728	10,555.7	55.6922	10,555.7	49.9618	10,555.7	52.9677	10,555.7	46.69	10,555.7	42.5903	10,555.7	44.5768	10,555.7	48.0152	10,555.7	43.4846	10,555.7	47.9091	10,555.7	45.2965	10,555.7	46.7685	10,555.7	47.5863	10,555.7	46.9544	10,555.7	43.2606	10,555.7	50.0371	10,555.7	25.5707	10,555.7	41.3711	10,555.7	24.6115	10,555.7	26.8545
10,927.7	79.7302	10,927.7	78.2566	10,927.7	78.5347	10,927.7	76.6314	10,927.7	76.4679	10,927.7	71.763	10,927.7	71.8832	10,927.7	65.9008	10,927.7	69.4244	10,927.7	70.6723	10,927.7	71.0277	10,927.7	69.9079	10,927.7	69.6766	10,927.7	66.2953	10,927.7	65.5018	10,927.7	63.3367	10,927.7	58.8744	10,927.7	58.2379	10,927.7	56.1536	10,927.7	55.1907	10,927.7	52.7888	10,927.7	44.174	10,927.7	49.5286	10,927.7	46.8052	10,927.7	49.984	10,927.7	50.0106	10,927.7	48.8983	10,927.7	50.8772	10,927.7	47.7422	10,927.7	40.8679	10,927.7	48.3229	10,927.7	49.4379	10,927.7	41.3362	10,927.7	46.8547	10,927.7	39.0274	10,927.7	46.2452
11,313	83.333	11,313	81.5167	11,313	79.966	11,313	73.9462	11,313	73.8052	11,313	64.6495	11,313	67.0799	11,313	64.8027	11,313	67.6608	11,313	69.7153	11,313	69.2798	11,313	69.7314	11,313	67.5035	11,313	67.1218	11,313	62.8208	11,313	63.6313	11,313	58.7314	11,313	59.2013	11,313	56.5942	11,313	57.0084	11,313	53.6223	11,313	52.7221	11,313	51.237	11,313	52.7085	11,313	52.2926	11,313	51.7802	11,313	48.5454	11,313	51.7564	11,313	44.0237	11,313	37.7922	11,313	41.6681	11,313	49.0001	11,313	39.6887	11,313	47.0853	11,313	41.4873	11,313	49.3166
11,712.9	83.5766	11,712.9	82.1638	11,712.9	79.2094	11,712.9	74.5006	11,712.9	67.5537	11,712.9	62.8789	11,712.9	61.9776	11,712.9	65.752	11,712.9	66.3275	11,712.9	68.5163	11,712.9	65.4496	11,712.9	68.3718	11,712.9	64.5702	11,712.9	65.5314	11,712.9	61.6951	11,712.9	60.846	11,712.9	59.9585	11,712.9	56.3134	11,712.9	55.871	11,712.9	55.637	11,712.9	52.9897	11,712.9	50.2974	11,712.9	49.1017	11,712.9	52.1319	11,712.9	49.0083	11,712.9	50.9952	11,712.9	48.4416	11,712.9	46.6483	11,712.9	45.9875	11,712.9	39.5204	11,712.9	32.3299	11,712.9	50.5536	11,712.9	29.8818	11,712.9	48.0159	11,712.9	46.8807	11,712.9	46.5632
12,126	82.8692	12,126	81.7684	12,126	78.985	12,126	74.8404	12,126	69.9544	12,126	62.4152	12,126	61.9275	12,126	65.5332	12,126	63.0935	12,126	67.4002	12,126	63.7691	12,126	65.725	12,126	64.4795	12,126	62.8762	12,126	62.4923	12,126	61.2089	12,126	58.4237	12,126	57.2461	12,126	55.487	12,126	53.0368	12,126	52.9563	12,126	49.0851	12,126	49.3103	12,126	52.8324	12,126	51.0562	12,126	47.1478	12,126	48.8442	12,126	47.5836	12,126	44.8619	12,126	36.2136	12,126	37.0871	12,126	47.1796	12,126	41.3393	12,126	47.6354	12,126	45.0583	12,126	40.4615
12,553.7	82.2113	12,553.7	80.8393	12,553.7	79.184	12,553.7	73.9077	12,553.7	71.5742	12,553.7	62.8571	12,553.7	65.1044	12,553.7	68.9711	12,553.7	64.905	12,553.7	66.5434	12,553.7	66.5311	12,553.7	64.6057	12,553.7	66.6578	12,553.7	61.7964	12,553.7	63.4118	12,553.7	54.415	12,553.7	60.0105	12,553.7	55.7254	12,553.7	54.7616	12,553.7	54.6645	12,553.7	51.6095	12,553.7	48.1475	12,553.7	49.8577	12,553.7	46.8954	12,553.7	50.9278	12,553.7	44.075	12,553.7	44.7637	12,553.7	45.8028	12,553.7	44.9264	12,553.7	31.2902	12,553.7	37.4124	12,553.7	48.846	12,553.7	35.7293	12,553.7	44.5979	12,553.7	41.2619	12,553.7	42.4393
12,996.1	80.873	12,996.1	78.6954	12,996.1	78.061	12,996.1	71.9799	12,996.1	68.3168	12,996.1	60.8483	12,996.1	64.6989	12,996.1	66.2714	12,996.1	67.1267	12,996.1	60.136	12,996.1	66.9218	12,996.1	58.1856	12,996.1	63.4295	12,996.1	55.1498	12,996.1	59.4056	12,996.1	50.1191	12,996.1	55.9285	12,996.1	45.0582	12,996.1	53.5018	12,996.1	41.2155	12,996.1	50.4195	12,996.1	38.1106	12,996.1	46.7662	12,996.1	35.9351	12,996.1	48.4636	12,996.1	25.1795	12,996.1	44.1488	12,996.1	40.4939	12,996.1	38.7218	12,996.1	38.5897	12,996.1	33.1861	12,996.1	42.6187	12,996.1	33.5346	12,996.1	39.1987	12,996.1	41.5678	12,996.1	36.227
13,454.6	79.2299	13,454.6	78.2609	13,454.6	76.0612	13,454.6	71.4302	13,454.6	66.7073	13,454.6	55.7182	13,454.6	59.092	13,454.6	61.1752	13,454.6	62.6463	13,454.6	59.5909	13,454.6	57.8658	13,454.6	59.9561	13,454.6	55.7245	13,454.6	56.9944	13,454.6	56.4579	13,454.6	54.1577	13,454.6	53.658	13,454.6	52.5898	13,454.6	51.1369	13,454.6	48.6962	13,454.6	46.0345	13,454.6	46.109	13,454.6	45.2877	13,454.6	46.3632	13,454.6	44.7001	13,454.6	40.9915	13,454.6	39.7145	13,454.6	41.1098	13,454.6	31.8591	13,454.6	39.6451	13,454.6	28.0929	13,454.6	40.4488	13,454.6	35.8787	13,454.6	40.2649	13,454.6	38.0247	13,454.6	33.731
13,929.2	78.7196	13,929.2	78.4871	13,929.2	76.3116	13,929.2	73.08	13,929.2	69.3283	13,929.2	53.7763	13,929.2	54.9178	13,929.2	59.1577	13,929.2	48.0485	13,929.2	60.0951	13,929.2	51.0636	13,929.2	60.7315	13,929.2	53.6021	13,929.2	58.7885	13,929.2	48.7411	13,929.2	55.1731	13,929.2	41.4324	13,929.2	53.1031	13,929.2	40.4799	13,929.2	49.3064	13,929.2	35.9459	13,929.2	48.8552	13,929.2	38.3199	13,929.2	44.7133	13,929.2	35.9733	13,929.2	41.1198	13,929.2	29.1968	13,929.2	41.6987	13,929.2	32.6011	13,929.2	35.6512	13,929.2	33.5679	13,929.2	40.9043	13,929.2	32.5356	13,929.2	40.9738	13,929.2	36.1676	13,929.2	34.1973
14,419.9	77.3473	14,419.9	77.2724	14,419.9	76.5186	14,419.9	72.3251	14,419.9	67.9277	14,419.9	60.9746	14,419.9	57.2869	14,419.9	63.7664	14,419.9	57.6107	14,419.9	63.1736	14,419.9	58.9623	14,419.9	63.7832	14,419.9	57.9033	14,419.9	62.5478	14,419.9	55.9776	14,419.9	59.1939	14,419.9	53.41	14,419.9	56.7725	14,419.9	49.9904	14,419.9	52.503	14,419.9	45.8208	14,419.9	49.898	14,419.9	44.6499	14,419.9	48.1724	14,419.9	43.4925	14,419.9	44.3546	14,419.9	38.2806	14,419.9	42.6268	14,419.9	28.0835	14,419.9	40.6985	14,419.9	31.2973	14,419.9	45.121	14,419.9	33.1211	14,419.9	38.2357	14,419.9	41.3	14,419.9	35.4163
14,928.2	76.7423	14,928.2	77.5215	14,928.2	77.1221	14,928.2	71.9173	14,928.2	70.4251	14,928.2	64.2619	14,928.2	63.4312	14,928.2	63.8402	14,928.2	63.6226	14,928.2	63.7492	14,928.2	62.279	14,928.2	64.1551	14,928.2	61.0305	14,928.2	61.7956	14,928.2	59.8031	14,928.2	57.4593	14,928.2	57.158	14,928.2	54.8256	14,928.2	55.0496	14,928.2	51.2502	14,928.2	49.9557	14,928.2	49.9788	14,928.2	48.701	14,928.2	46.1423	14,928.2	48.0385	14,928.2	43.001	14,928.2	43.0396	14,928.2	42.6514	14,928.2	35.4802	14,928.2	41.0744	14,928.2	30.8621	14,928.2	45.0689	14,928.2	29.8912	14,928.2	37.7274	14,928.2	38.788	14,928.2	36.4188
15,455.6	73.899	15,455.6	76.5349	15,455.6	74.4997	15,455.6	71.2017	15,455.6	70.4574	15,455.6	58.8024	15,455.6	66.7985	15,455.6	60.481	15,455.6	65.1439	15,455.6	61.9107	15,455.6	62.4819	15,455.6	64.6042	15,455.6	61.5676	15,455.6	61.221	15,455.6	60.7846	15,455.6	56.7449	15,455.6	57.5465	15,455.6	55.0873	15,455.6	54.2079	15,455.6	50.442	15,455.6	50.7802	15,455.6	50.7356	15,455.6	49.7535	15,455.6	46.9349	15,455.6	47.347	15,455.6	42.1821	15,455.6	44.276	15,455.6	41.8356	15,455.6	38.2822	15,455.6	42.9095	15,455.6	34.3094	15,455.6	44.7301	15,455.6	21.8348	15,455.6	29.904	15,455.6	34.4577	15,455.6	41.331
16,000.5	72.4914	16,000.5	73.4243	16,000.5	69.1615	16,000.5	69.44	16,000.5	69.8766	16,000.5	60.2326	16,000.5	69.753	16,000.5	56.8822	16,000.5	61.2017	16,000.5	60.5146	16,000.5	52.6592	16,000.5	61.9775	16,000.5	52.6898	16,000.5	58.3548	16,000.5	50.4616	16,000.5	51.5204	16,000.5	47.975	16,000.5	48.7467	16,000.5	43.897	16,000.5	42.3105	16,000.5	43.0623	16,000.5	45.2639	16,000.5	40.6806	16,000.5	42.6815	16,000.5	34.3313	16,000.5	40.3779	16,000.5	34.3211	16,000.5	37.0873	16,000.5	29.898	16,000.5	34.7691	16,000.5	29.6378	16,000.5	36.9636	16,000.5	29.9672	16,000.5	35.6348	16,000.5	35.6927	16,000.5	43.4095
16,564.5	73.4839	16,564.5	71.8513	16,564.5	68.734	16,564.5	64.8719	16,564.5	67.6532	16,564.5	64.7089	16,564.5	68.8583	16,564.5	53.5529	16,564.5	55.555	16,564.5	58.5532	16,564.5	44.2217	16,564.5	55.7102	16,564.5	48.738	16,564.5	50.0275	16,564.5	53.1959	16,564.5	46.8502	16,564.5	50.8837	16,564.5	46.4804	16,564.5	48.9487	16,564.5	44.3642	16,564.5	44.9364	16,564.5	42.4592	16,564.5	43.5916	16,564.5	36.5156	16,564.5	41.967	16,564.5	31.6357	16,564.5	41.1567	16,564.5	23.5857	16,564.5	29.0322	16,564.5	39.0402	16,564.5	32.5715	16,564.5	36.0124	16,564.5	28.8568	16,564.5	41.0481	16,564.5	39.834	16,564.5	43.9961
17,148.9	75.6121	17,148.9	72.1551	17,148.9	68.668	17,148.9	45.324	17,148.9	68.6744	17,148.9	61.3279	17,148.9	64.7987	17,148.9	55.9245	17,148.9	50.3516	17,148.9	58.824	17,148.9	53.5847	17,148.9	52.9984	17,148.9	52.5103	17,148.9	51.8638	17,148.9	54.5766	17,148.9	49.8016	17,148.9	48.2141	17,148.9	44.6906	17,148.9	45.6179	17,148.9	43.1483	17,148.9	38.3972	17,148.9	41.3871	17,148.9	42.4949	17,148.9	31.9234	17,148.9	40.4472	17,148.9	29.0576	17,148.9	39.136	17,148.9	35.3507	17,148.9	32.9869	17,148.9	39.3291	17,148.9	29.3637	17,148.9	35.1834	17,148.9	25.7949	17,148.9	41.5827	17,148.9	39.0643	17,148.9	41.5895
17,752.4	77.3618	17,752.4	74.8413	17,752.4	73.3719	17,752.4	49.1729	17,752.4	68.2482	17,752.4	55.9697	17,752.4	62.3213	17,752.4	62.5234	17,752.4	61.476	17,752.4	58.2984	17,752.4	56.7384	17,752.4	38.2515	17,752.4	54.0053	17,752.4	46.9063	17,752.4	55.3486	17,752.4	38.8528	17,752.4	51.0224	17,752.4	36.8941	17,752.4	46.6025	17,752.4	43.3554	17,752.4	44.3567	17,752.4	37.4772	17,752.4	44.5461	17,752.4	36.429	17,752.4	43.9643	17,752.4	27.8612	17,752.4	37.5537	17,752.4	40.0459	17,752.4	36.4846	17,752.4	32.9156	17,752.4	36.9366	17,752.4	41.1595	17,752.4	35.8598	17,752.4	41.3804	17,752.4	43.0195	17,752.4	44.1516
18,379.4	75.5171	18,379.4	74.2716	18,379.4	70.2751	18,379.4	60.3809	18,379.4	61.2015	18,379.4	55.3377	18,379.4	63.5675	18,379.4	60.841	18,379.4	64.3953	18,379.4	52.2388	18,379.4	59.2544	18,379.4	40.7439	18,379.4	57.0669	18,379.4	38.0535	18,379.4	57.8149	18,379.4	44.5778	18,379.4	52.8222	18,379.4	37.7292	18,379.4	46.9551	18,379.4	38.0495	18,379.4	45.5017	18,379.4	37.3628	18,379.4	44.1809	18,379.4	30.228	18,379.4	38.8913	18,379.4	38.0505	18,379.4	32.8505	18,379.4	37.5023	18,379.4	34.8517	18,379.4	36.0456	18,379.4	39.1411	18,379.4	35.045	18,379.4	36.3496	18,379.4	35.1327	18,379.4	37.4016	18,379.4	40.4819
19,026.9	73.3402	19,026.9	71.429	19,026.9	67.3684	19,026.9	61.412	19,026.9	34.7287	19,026.9	43.7595	19,026.9	63.7319	19,026.9	59.0193	19,026.9	63.7138	19,026.9	52.4297	19,026.9	59.4782	19,026.9	55.1145	19,026.9	57.7677	19,026.9	48.909	19,026.9	55.3528	19,026.9	49.8715	19,026.9	50.2412	19,026.9	46.4519	19,026.9	40.2724	19,026.9	44.4676	19,026.9	44.7341	19,026.9	37.8729	19,026.9	41.8333	19,026.9	40.4469	19,026.9	28.9151	19,026.9	41.779	19,026.9	26.4819	19,026.9	38.107	19,026.9	35.8078	19,026.9	42.0721	19,026.9	40.0723	19,026.9	43.0479	19,026.9	33.9621	19,026.9	35.0306	19,026.9	39.0468	19,026.9	40.5035
19,697.8	72.249	19,697.8	70.5186	19,697.8	64.8039	19,697.8	61.9347	19,697.8	47.6988	19,697.8	36.4453	19,697.8	62.1836	19,697.8	55.326	19,697.8	60.5817	19,697.8	55.7071	19,697.8	59.5961	19,697.8	53.3782	19,697.8	56.7524	19,697.8	46.0925	19,697.8	52.1191	19,697.8	46.4679	19,697.8	50.2152	19,697.8	45.6507	19,697.8	42.4381	19,697.8	40.8567	19,697.8	45.388	19,697.8	37.6168	19,697.8	38.8999	19,697.8	39.9306	19,697.8	27.9399	19,697.8	40.6203	19,697.8	31.631	19,697.8	37.3951	19,697.8	34.1655	19,697.8	40.6073	19,697.8	40.0584	19,697.8	43.4541	19,697.8	33.0492	19,697.8	36.2549	19,697.8	40.4704	19,697.8	38.3682
19,999.5	71.2913	19,999.5	69.9549	19,999.5	63.1901	19,999.5	61.6831	19,999.5	53.842	19,999.5	51.4979	19,999.5	61.3146	19,999.5	53.3405	19,999.5	59.1356	19,999.5	56.1777	19,999.5	57.5118	19,999.5	51.6109	19,999.5	55.1757	19,999.5	39.7996	19,999.5	51.5765	19,999.5	42.9777	19,999.5	49.1613	19,999.5	45.5266	19,999.5	42.3831	19,999.5	39.3019	19,999.5	45.7331	19,999.5	40.1449	19,999.5	38.6218	19,999.5	39.8122	19,999.5	36.0566	19,999.5	39.9535	19,999.5	30.4982	19,999.5	36.673	19,999.5	34.8246	19,999.5	39.9402	19,999.5	37.5966	19,999.5	38.6011	19,999.5	28.8026	19,999.5	37.2157	19,999.5	42.3971	19,999.5	41.9319
