"SPL Vertical"
"On-Axis"		"10°"		"-10°"		"20°"		"-20°"		"30°"		"-30°"		"40°"		"-40°"		"50°"		"-50°"		"60°"		"-60°"		"70°"		"-70°"		"80°"		"-80°"		"90°"		"-90°"		"100°"		"-100°"		"110°"		"-110°"		"120°"		"-120°"		"130°"		"-130°"		"140°"		"-140°"		"150°"		"-150°"		"160°"		"-160°"		"170°"		"-170°"		"180°"
"Frequency / Hz"	"Sound Pressure Level / dB (re 20 µPa/V)  [2.83  V @ 1. m]"	"Frequency / Hz"	"Sound Pressure Level / dB (re 20 µPa/V)  [2.83  V @ 1. m]"	"Frequency / Hz"	"Sound Pressure Level / dB (re 20 µPa/V)  [2.83  V @ 1. m]"	"Frequency / Hz"	"Sound Pressure Level / dB (re 20 µPa/V)  [2.83  V @ 1. m]"	"Frequency / Hz"	"Sound Pressure Level / dB (re 20 µPa/V)  [2.83  V @ 1. m]"	"Frequency / Hz"	"Sound Pressure Level / dB (re 20 µPa/V)  [2.83  V @ 1. m]"	"Frequency / Hz"	"Sound Pressure Level / dB (re 20 µPa/V)  [2.83  V @ 1. m]"	"Frequency / Hz"	"Sound Pressure Level / dB (re 20 µPa/V)  [2.83  V @ 1. m]"	"Frequency / Hz"	"Sound Pressure Level / dB (re 20 µPa/V)  [2.83  V @ 1. m]"	"Frequency / Hz"	"Sound Pressure Level / dB (re 20 µPa/V)  [2.83  V @ 1. m]"	"Frequency / Hz"	"Sound Pressure Level / dB (re 20 µPa/V)  [2.83  V @ 1. m]"	"Frequency / Hz"	"Sound Pressure Level / dB (re 20 µPa/V)  [2.83  V @ 1. m]"	"Frequency / Hz"	"Sound Pressure Level / dB (re 20 µPa/V)  [2.83  V @ 1. m]"	"Frequency / Hz"	"Sound Pressure Level / dB (re 20 µPa/V)  [2.83  V @ 1. m]"	"Frequency / Hz"	"Sound Pressure Level / dB (re 20 µPa/V)  [2.83  V @ 1. m]"	"Frequency / Hz"	"Sound Pressure Level / dB (re 20 µPa/V)  [2.83  V @ 1. m]"	"Frequency / Hz"	"Sound Pressure Level / dB (re 20 µPa/V)  [2.83  V @ 1. m]"	"Frequency / Hz"	"Sound Pressure Level / dB (re 20 µPa/V)  [2.83  V @ 1. m]"	"Frequency / Hz"	"Sound Pressure Level / dB (re 20 µPa/V)  [2.83  V @ 1. m]"	"Frequency / Hz"	"Sound Pressure Level / dB (re 20 µPa/V)  [2.83  V @ 1. m]"	"Frequency / Hz"	"Sound Pressure Level / dB (re 20 µPa/V)  [2.83  V @ 1. m]"	"Frequency / Hz"	"Sound Pressure Level / dB (re 20 µPa/V)  [2.83  V @ 1. m]"	"Frequency / Hz"	"Sound Pressure Level / dB (re 20 µPa/V)  [2.83  V @ 1. m]"	"Frequency / Hz"	"Sound Pressure Level / dB (re 20 µPa/V)  [2.83  V @ 1. m]"	"Frequency / Hz"	"Sound Pressure Level / dB (re 20 µPa/V)  [2.83  V @ 1. m]"	"Frequency / Hz"	"Sound Pressure Level / dB (re 20 µPa/V)  [2.83  V @ 1. m]"	"Frequency / Hz"	"Sound Pressure Level / dB (re 20 µPa/V)  [2.83  V @ 1. m]"	"Frequency / Hz"	"Sound Pressure Level / dB (re 20 µPa/V)  [2.83  V @ 1. m]"	"Frequency / Hz"	"Sound Pressure Level / dB (re 20 µPa/V)  [2.83  V @ 1. m]"	"Frequency / Hz"	"Sound Pressure Level / dB (re 20 µPa/V)  [2.83  V @ 1. m]"	"Frequency / Hz"	"Sound Pressure Level / dB (re 20 µPa/V)  [2.83  V @ 1. m]"	"Frequency / Hz"	"Sound Pressure Level / dB (re 20 µPa/V)  [2.83  V @ 1. m]"	"Frequency / Hz"	"Sound Pressure Level / dB (re 20 µPa/V)  [2.83  V @ 1. m]"	"Frequency / Hz"	"Sound Pressure Level / dB (re 20 µPa/V)  [2.83  V @ 1. m]"	"Frequency / Hz"	"Sound Pressure Level / dB (re 20 µPa/V)  [2.83  V @ 1. m]"	"Frequency / Hz"	"Sound Pressure Level / dB (re 20 µPa/V)  [2.83  V @ 1. m]"
20.5078	44.3272	20.5078	44.6226	20.5078	44.1349	20.5078	45.0175	20.5078	44.0408	20.5078	45.4988	20.5078	44.0346	20.5078	46.0441	20.5078	44.1038	20.5078	46.6248	20.5078	44.2358	20.5078	47.2104	20.5078	44.4191	20.5078	47.7718	20.5078	44.6446	20.5078	48.2844	20.5078	44.9052	20.5078	48.7285	20.5078	45.1958	20.5078	49.0896	20.5078	45.5128	20.5078	49.3577	20.5078	45.8538	20.5078	49.5265	20.5078	46.2165	20.5078	49.5937	20.5078	46.5985	20.5078	49.5606	20.5078	46.9963	20.5078	49.4329	20.5078	47.4044	20.5078	49.2202	20.5078	47.8149	20.5078	48.9359	20.5078	48.2167	20.5078	48.5957
21.9727	38.7763	21.9727	38.4074	21.9727	39.1053	21.9727	38.0137	21.9727	39.3885	21.9727	37.628	21.9727	39.6241	21.9727	37.3047	21.9727	39.8108	21.9727	37.1123	21.9727	39.9465	21.9727	37.1068	21.9727	40.0288	21.9727	37.2982	21.9727	40.0549	21.9727	37.6401	21.9727	40.0228	21.9727	38.0532	21.9727	39.9322	21.9727	38.4585	21.9727	39.7848	21.9727	38.7967	21.9727	39.5864	21.9727	39.032	21.9727	39.3482	21.9727	39.149	21.9727	39.0892	21.9727	39.1492	21.9727	38.8372	21.9727	39.0501	21.9727	38.6274	21.9727	38.8846	21.9727	38.496	21.9727	38.6984	21.9727	38.4677	21.9727	38.544
23.4375	45.4079	23.4375	45.4991	23.4375	45.3231	23.4375	45.5979	23.4375	45.2428	23.4375	45.7043	23.4375	45.1648	23.4375	45.8172	23.4375	45.0875	23.4375	45.9344	23.4375	45.0102	23.4375	46.0527	23.4375	44.9334	23.4375	46.168	23.4375	44.8593	23.4375	46.2751	23.4375	44.7913	23.4375	46.3677	23.4375	44.7349	23.4375	46.4385	23.4375	44.6966	23.4375	46.4794	23.4375	44.6841	23.4375	46.4826	23.4375	44.7049	23.4375	46.4422	23.4375	44.7653	23.4375	46.355	23.4375	44.8684	23.4375	46.2223	23.4375	45.0137	23.4375	46.0495	23.4375	45.1956	23.4375	45.8464	23.4375	45.4043	23.4375	45.6263
24.9023	49.2762	24.9023	49.4016	24.9023	49.1735	24.9023	49.5471	24.9023	49.0949	24.9023	49.7081	24.9023	49.0398	24.9023	49.8781	24.9023	49.0067	24.9023	50.0495	24.9023	48.9934	24.9023	50.2142	24.9023	48.9973	24.9023	50.3639	24.9023	49.0162	24.9023	50.4916	24.9023	49.0484	24.9023	50.5912	24.9023	49.0926	24.9023	50.6585	24.9023	49.1488	24.9023	50.6907	24.9023	49.2174	24.9023	50.6869	24.9023	49.2991	24.9023	50.6477	24.9023	49.3949	24.9023	50.5754	24.9023	49.5051	24.9023	50.4744	24.9023	49.6293	24.9023	50.3505	24.9023	49.7658	24.9023	50.2105	24.9023	49.9116	24.9023	50.0619
26.3672	46.5768	26.3672	46.8185	26.3672	46.3753	26.3672	47.0948	26.3672	46.2158	26.3672	47.3961	26.3672	46.0974	26.3672	47.7095	26.3672	46.0175	26.3672	48.0197	26.3672	45.9731	26.3672	48.3111	26.3672	45.9613	26.3672	48.5695	26.3672	45.9799	26.3672	48.7834	26.3672	46.0278	26.3672	48.9449	26.3672	46.1049	26.3672	49.049	26.3672	46.2115	26.3672	49.0938	26.3672	46.3482	26.3672	49.0794	26.3672	46.5152	26.3672	49.0078	26.3672	46.7116	26.3672	48.883	26.3672	46.9352	26.3672	48.7108	26.3672	47.1818	26.3672	48.4986	26.3672	47.4455	26.3672	48.2557	26.3672	47.7187	26.3672	47.9922
27.832	46.8579	27.832	47.043	27.832	46.7108	27.832	47.2624	27.832	46.6027	27.832	47.5085	27.832	46.5321	27.832	47.7709	27.832	46.496	27.832	48.0369	27.832	46.4907	27.832	48.2932	27.832	46.5126	27.832	48.5271	27.832	46.5588	27.832	48.7281	27.832	46.6275	27.832	48.8884	27.832	46.7175	27.832	49.0029	27.832	46.8287	27.832	49.0693	27.832	46.9612	27.832	49.0872	27.832	47.115	27.832	49.0578	27.832	47.2891	27.832	48.9837	27.832	47.4816	27.832	48.8688	27.832	47.6887	27.832	48.7185	27.832	47.9052	27.832	48.5392	27.832	48.1244	27.832	48.3384
29.2969	49.1509	29.2969	49.1129	29.2969	49.1981	29.2969	49.0894	29.2969	49.2487	29.2969	49.0842	29.2969	49.297	29.2969	49.0993	29.2969	49.3382	29.2969	49.134	29.2969	49.3688	29.2969	49.1857	29.2969	49.3866	29.2969	49.2497	29.2969	49.3911	29.2969	49.3199	29.2969	49.3834	29.2969	49.3896	29.2969	49.3655	29.2969	49.4517	29.2969	49.3409	29.2969	49.5003	29.2969	49.3137	29.2969	49.5305	29.2969	49.2883	29.2969	49.54	29.2969	49.2692	29.2969	49.5288	29.2969	49.2604	29.2969	49.4995	29.2969	49.2646	29.2969	49.457	29.2969	49.2832	29.2969	49.4078	29.2969	49.3154	29.2969	49.3585
30.7617	52.4022	30.7617	52.4655	30.7617	52.3412	30.7617	52.5314	30.7617	52.2821	30.7617	52.599	30.7617	52.2242	30.7617	52.6669	30.7617	52.1672	30.7617	52.7321	30.7617	52.1112	30.7617	52.791	30.7617	52.057	30.7617	52.8397	30.7617	52.0059	30.7617	52.8745	30.7617	51.9596	30.7617	52.8922	30.7617	51.9205	30.7617	52.8905	30.7617	51.8912	30.7617	52.868	30.7617	51.8748	30.7617	52.8247	30.7617	51.874	30.7617	52.7613	30.7617	51.8911	30.7617	52.6798	30.7617	51.9278	30.7617	52.5837	30.7617	51.9845	30.7617	52.4772	30.7617	52.0599	30.7617	52.3658	30.7617	52.1516	30.7617	52.2553
32.2266	52.4934	32.2266	52.5426	32.2266	52.4571	32.2266	52.6047	32.2266	52.4328	32.2266	52.6789	32.2266	52.4195	32.2266	52.7633	32.2266	52.4158	32.2266	52.8552	32.2266	52.4206	32.2266	52.9511	32.2266	52.433	32.2266	53.0473	32.2266	52.4527	32.2266	53.1399	32.2266	52.4799	32.2266	53.225	32.2266	52.515	32.2266	53.2991	32.2266	52.5589	32.2266	53.3587	32.2266	52.6126	32.2266	53.4007	32.2266	52.6766	32.2266	53.4224	32.2266	52.7509	32.2266	53.422	32.2266	52.8349	32.2266	53.3988	32.2266	52.9264	32.2266	53.3536	32.2266	53.0223	32.2266	53.289	32.2266	53.1182	32.2266	53.2089
33.6914	51.066	33.6914	51.0499	33.6914	51.0891	33.6914	51.0444	33.6914	51.1151	33.6914	51.0519	33.6914	51.1401	33.6914	51.0731	33.6914	51.1607	33.6914	51.1069	33.6914	51.1745	33.6914	51.1504	33.6914	51.1802	33.6914	51.1996	33.6914	51.1776	33.6914	51.25	33.6914	51.1676	33.6914	51.2966	33.6914	51.1519	33.6914	51.3351	33.6914	51.1333	33.6914	51.3619	33.6914	51.1146	33.6914	51.3745	33.6914	51.0993	33.6914	51.3717	33.6914	51.0904	33.6914	51.3542	33.6914	51.0906	33.6914	51.324	33.6914	51.1015	33.6914	51.2846	33.6914	51.1236	33.6914	51.2403	33.6914	51.1558	33.6914	51.1959
35.1562	53.4839	35.1562	53.4854	35.1562	53.4818	35.1562	53.4878	35.1562	53.4776	35.1562	53.4925	35.1562	53.4704	35.1562	53.5005	35.1562	53.4595	35.1562	53.512	35.1562	53.4451	35.1562	53.5262	35.1562	53.4275	35.1562	53.5421	35.1562	53.4079	35.1562	53.558	35.1562	53.3876	35.1562	53.572	35.1562	53.3682	35.1562	53.5826	35.1562	53.3516	35.1562	53.5881	35.1562	53.3395	35.1562	53.5874	35.1562	53.3336	35.1562	53.5797	35.1562	53.3351	35.1562	53.5646	35.1562	53.3445	35.1562	53.5426	35.1562	53.3619	35.1562	53.5147	35.1562	53.3862	35.1562	53.4827	35.1562	53.416	35.1562	53.449
36.6211	55.3477	36.6211	55.3701	36.6211	55.3193	36.6211	55.3866	36.6211	55.2849	36.6211	55.397	36.6211	55.2444	36.6211	55.4011	36.6211	55.1982	36.6211	55.3984	36.6211	55.1466	36.6211	55.3883	36.6211	55.0907	36.6211	55.37	36.6211	55.0317	36.6211	55.3431	36.6211	54.9713	36.6211	55.3073	36.6211	54.9116	36.6211	55.2628	36.6211	54.8549	36.6211	55.2101	36.6211	54.8038	36.6211	55.1505	36.6211	54.7609	36.6211	55.0856	36.6211	54.7287	36.6211	55.0177	36.6211	54.7091	36.6211	54.9496	36.6211	54.7036	36.6211	54.8843	36.6211	54.713	36.6211	54.8252	36.6211	54.7373	36.6211	54.7753
38.0859	55.6426	38.0859	55.6463	38.0859	55.632	38.0859	55.6432	38.0859	55.6149	38.0859	55.6336	38.0859	55.5917	38.0859	55.6182	38.0859	55.5629	38.0859	55.5977	38.0859	55.5294	38.0859	55.5727	38.0859	55.4916	38.0859	55.5437	38.0859	55.4504	38.0859	55.5107	38.0859	55.4064	38.0859	55.4738	38.0859	55.3609	38.0859	55.4331	38.0859	55.3148	38.0859	55.3889	38.0859	55.2698	38.0859	55.3422	38.0859	55.2274	38.0859	55.2943	38.0859	55.1892	38.0859	55.2475	38.0859	55.1572	38.0859	55.2042	38.0859	55.1329	38.0859	55.1671	38.0859	55.118	38.0859	55.1387	38.0859	55.1137	38.0859	55.1206
39.5508	56.3965	39.5508	56.3785	39.5508	56.4122	39.5508	56.3593	39.5508	56.4245	39.5508	56.3399	39.5508	56.4326	39.5508	56.3212	39.5508	56.4357	39.5508	56.3037	39.5508	56.4335	39.5508	56.2877	39.5508	56.426	39.5508	56.273	39.5508	56.4136	39.5508	56.2595	39.5508	56.3969	39.5508	56.2469	39.5508	56.3768	39.5508	56.2352	39.5508	56.3543	39.5508	56.2243	39.5508	56.3304	39.5508	56.2144	39.5508	56.3063	39.5508	56.206	39.5508	56.283	39.5508	56.1996	39.5508	56.2613	39.5508	56.1957	39.5508	56.242	39.5508	56.1948	39.5508	56.2257	39.5508	56.1972	39.5508	56.2126	39.5508	56.2031
41.0156	56.5611	41.0156	56.5529	41.0156	56.5648	41.0156	56.5412	41.0156	56.5634	41.0156	56.5269	41.0156	56.5566	41.0156	56.5108	41.0156	56.5444	41.0156	56.4934	41.0156	56.5272	41.0156	56.4748	41.0156	56.5055	41.0156	56.4547	41.0156	56.4799	41.0156	56.4325	41.0156	56.4515	41.0156	56.408	41.0156	56.4211	41.0156	56.3814	41.0156	56.3899	41.0156	56.3532	41.0156	56.3589	41.0156	56.3248	41.0156	56.3293	41.0156	56.2977	41.0156	56.3019	41.0156	56.2734	41.0156	56.2779	41.0156	56.2535	41.0156	56.2579	41.0156	56.2391	41.0156	56.2426	41.0156	56.2307	41.0156	56.2327	41.0156	56.2286
42.4805	57.8303	42.4805	57.8231	42.4805	57.8306	42.4805	57.8098	42.4805	57.8233	42.4805	57.791	42.4805	57.8081	42.4805	57.7671	42.4805	57.7847	42.4805	57.7382	42.4805	57.7536	42.4805	57.704	42.4805	57.7155	42.4805	57.6643	42.4805	57.6715	42.4805	57.6191	42.4805	57.6227	42.4805	57.569	42.4805	57.5706	42.4805	57.515	42.4805	57.5169	42.4805	57.4589	42.4805	57.4629	42.4805	57.4029	42.4805	57.4105	42.4805	57.3498	42.4805	57.361	42.4805	57.3025	42.4805	57.3163	42.4805	57.2639	42.4805	57.2779	42.4805	57.2361	42.4805	57.2476	42.4805	57.2205	42.4805	57.2271	42.4805	57.2177
43.9453	57.9831	43.9453	57.9868	43.9453	57.9764	43.9453	57.9876	43.9453	57.9667	43.9453	57.9856	43.9453	57.9541	43.9453	57.981	43.9453	57.9389	43.9453	57.9737	43.9453	57.9213	43.9453	57.964	43.9453	57.9021	43.9453	57.9524	43.9453	57.8822	43.9453	57.9392	43.9453	57.8623	43.9453	57.9252	43.9453	57.8435	43.9453	57.9108	43.9453	57.8268	43.9453	57.8966	43.9453	57.8127	43.9453	57.8829	43.9453	57.802	43.9453	57.8697	43.9453	57.795	43.9453	57.857	43.9453	57.7919	43.9453	57.8448	43.9453	57.7924	43.9453	57.833	43.9453	57.7962	43.9453	57.8218	43.9453	57.8028	43.9453	57.8116
45.4102	58.7606	45.4102	58.7456	45.4102	58.7713	45.4102	58.7265	45.4102	58.7771	45.4102	58.7038	45.4102	58.7777	45.4102	58.6778	45.4102	58.7728	45.4102	58.6488	45.4102	58.7623	45.4102	58.6172	45.4102	58.7462	45.4102	58.5834	45.4102	58.7248	45.4102	58.548	45.4102	58.6986	45.4102	58.5118	45.4102	58.6683	45.4102	58.476	45.4102	58.6349	45.4102	58.4418	45.4102	58.5992	45.4102	58.4111	45.4102	58.5623	45.4102	58.3855	45.4102	58.5251	45.4102	58.3667	45.4102	58.4887	45.4102	58.3558	45.4102	58.4542	45.4102	58.3536	45.4102	58.4228	45.4102	58.36	45.4102	58.3957	45.4102	58.3744
46.875	59.6249	46.875	59.6246	46.875	59.6174	46.875	59.6164	46.875	59.6023	46.875	59.6006	46.875	59.58	46.875	59.5779	46.875	59.5514	46.875	59.5489	46.875	59.5176	46.875	59.5145	46.875	59.4798	46.875	59.4757	46.875	59.4393	46.875	59.4337	46.875	59.3978	46.875	59.3899	46.875	59.3566	46.875	59.3459	46.875	59.3171	46.875	59.3034	46.875	59.2805	46.875	59.2643	46.875	59.2478	46.875	59.23	46.875	59.2196	46.875	59.2017	46.875	59.1963	46.875	59.18	46.875	59.1781	46.875	59.1651	46.875	59.1649	46.875	59.1565	46.875	59.1568	46.875	59.1539
48.3398	59.9637	48.3398	59.9805	48.3398	59.9372	48.3398	59.9865	48.3398	59.9017	48.3398	59.981	48.3398	59.8584	48.3398	59.9632	48.3398	59.8082	48.3398	59.9327	48.3398	59.7521	48.3398	59.8894	48.3398	59.6912	48.3398	59.8338	48.3398	59.6268	48.3398	59.7672	48.3398	59.5603	48.3398	59.6916	48.3398	59.4931	48.3398	59.6099	48.3398	59.427	48.3398	59.5254	48.3398	59.3636	48.3398	59.4419	48.3398	59.3047	48.3398	59.3633	48.3398	59.2521	48.3398	59.293	48.3398	59.2075	48.3398	59.234	48.3398	59.1726	48.3398	59.1881	48.3398	59.1488	48.3398	59.1567	48.3398	59.1375	48.3398	59.1399
51.2695	60.8361	51.2695	60.8178	51.2695	60.8464	51.2695	60.7916	51.2695	60.848	51.2695	60.7581	51.2695	60.8408	51.2695	60.7177	51.2695	60.8246	51.2695	60.6709	51.2695	60.7994	51.2695	60.6184	51.2695	60.7657	51.2695	60.561	51.2695	60.7241	51.2695	60.4999	51.2695	60.6755	51.2695	60.4367	51.2695	60.6211	51.2695	60.3732	51.2695	60.5623	51.2695	60.3118	51.2695	60.5004	51.2695	60.2549	51.2695	60.4372	51.2695	60.2053	51.2695	60.3744	51.2695	60.1656	51.2695	60.3139	51.2695	60.1382	51.2695	60.2581	51.2695	60.1246	51.2695	60.209	51.2695	60.1256	51.2695	60.1692	51.2695	60.1408
52.7344	61.3754	52.7344	61.3513	52.7344	61.3888	52.7344	61.3172	52.7344	61.3911	52.7344	61.2741	52.7344	61.3822	52.7344	61.223	52.7344	61.3623	52.7344	61.1652	52.7344	61.3319	52.7344	61.1021	52.7344	61.292	52.7344	61.0352	52.7344	61.2435	52.7344	60.9662	52.7344	61.1878	52.7344	60.8969	52.7344	61.1263	52.7344	60.829	52.7344	61.0606	52.7344	60.7648	52.7344	60.9923	52.7344	60.7066	52.7344	60.923	52.7344	60.6569	52.7344	60.8547	52.7344	60.618	52.7344	60.7892	52.7344	60.592	52.7344	60.7288	52.7344	60.5802	52.7344	60.6759	52.7344	60.5834	52.7344	60.6326	52.7344	60.6012
54.1992	62.0598	54.1992	62.0442	54.1992	62.0678	54.1992	62.0219	54.1992	62.068	54.1992	61.9936	54.1992	62.0601	54.1992	61.9602	54.1992	62.0445	54.1992	61.9225	54.1992	62.0218	54.1992	61.8814	54.1992	61.9928	54.1992	61.8376	54.1992	61.9586	54.1992	61.7921	54.1992	61.9204	54.1992	61.7458	54.1992	61.8792	54.1992	61.6999	54.1992	61.836	54.1992	61.6559	54.1992	61.7917	54.1992	61.6153	54.1992	61.747	54.1992	61.58	54.1992	61.703	54.1992	61.5519	54.1992	61.6606	54.1992	61.5326	54.1992	61.621	54.1992	61.5233	54.1992	61.586	54.1992	61.5245	54.1992	61.5571	54.1992	61.5361
55.6641	62.4812	55.6641	62.4781	55.6641	62.4742	55.6641	62.4656	55.6641	62.457	55.6641	62.4445	55.6641	62.4302	55.6641	62.416	55.6641	62.3946	55.6641	62.3813	55.6641	62.352	55.6641	62.3413	55.6641	62.3042	55.6641	62.2973	55.6641	62.2534	55.6641	62.2505	55.6641	62.2018	55.6641	62.202	55.6641	62.1513	55.6641	62.1533	55.6641	62.1038	55.6641	62.106	55.6641	62.0605	55.6641	62.0616	55.6641	62.0224	55.6641	62.0215	55.6641	61.9899	55.6641	61.9871	55.6641	61.9633	55.6641	61.9592	55.6641	61.9428	55.6641	61.9385	55.6641	61.9285	55.6641	61.9252	55.6641	61.9205	55.6641	61.9193
58.5938	63.7304	58.5938	63.7363	58.5938	63.7064	58.5938	63.7229	58.5938	63.6657	58.5938	63.6896	58.5938	63.6102	58.5938	63.6368	58.5938	63.5419	58.5938	63.5657	58.5938	63.4627	58.5938	63.4784	58.5938	63.3747	58.5938	63.378	58.5938	63.2799	58.5938	63.2681	58.5938	63.1807	58.5938	63.1529	58.5938	63.0793	58.5938	63.0365	58.5938	62.9782	58.5938	62.9231	58.5938	62.88	58.5938	62.8168	58.5938	62.7873	58.5938	62.721	58.5938	62.7029	58.5938	62.6388	58.5938	62.6292	58.5938	62.5727	58.5938	62.5686	58.5938	62.5245	58.5938	62.5234	58.5938	62.4954	58.5938	62.4954	58.5938	62.4857
60.0586	63.9577	60.0586	63.9509	60.0586	63.948	60.0586	63.9269	60.0586	63.9227	60.0586	63.8857	60.0586	63.8828	60.0586	63.8275	60.0586	63.8296	60.0586	63.7535	60.0586	63.7645	60.0586	63.6659	60.0586	63.6891	60.0586	63.5676	60.0586	63.6054	60.0586	63.4621	60.0586	63.5156	60.0586	63.3536	60.0586	63.4218	60.0586	63.2463	60.0586	63.3266	60.0586	63.1442	60.0586	63.2325	60.0586	63.051	60.0586	63.1419	60.0586	62.9697	60.0586	63.0574	60.0586	62.9028	60.0586	62.9813	60.0586	62.8521	60.0586	62.9161	60.0586	62.8188	60.0586	62.864	60.0586	62.8035	60.0586	62.8269	60.0586	62.8064
62.9883	64.6129	62.9883	64.5889	62.9883	64.6177	62.9883	64.5462	62.9883	64.604	62.9883	64.4858	62.9883	64.573	62.9883	64.4099	62.9883	64.5266	62.9883	64.3211	62.9883	64.4668	62.9883	64.2224	62.9883	64.3959	62.9883	64.1173	62.9883	64.3163	62.9883	64.0092	62.9883	64.2301	62.9883	63.9018	62.9883	64.1395	62.9883	63.7986	62.9883	64.0466	62.9883	63.7033	62.9883	63.9533	62.9883	63.619	62.9883	63.8617	62.9883	63.5489	62.9883	63.7736	62.9883	63.4952	62.9883	63.6914	62.9883	63.4596	62.9883	63.6171	62.9883	63.4428	62.9883	63.5531	62.9883	63.4449	62.9883	63.5016	62.9883	63.4649
64.4531	64.7512	64.4531	64.7207	64.4531	64.7679	64.4531	64.6769	64.4531	64.7707	64.4531	64.6214	64.4531	64.7604	64.4531	64.5561	64.4531	64.7381	64.4531	64.4838	64.4531	64.7052	64.4531	64.4073	64.4531	64.6634	64.4531	64.3296	64.4531	64.6141	64.4531	64.2537	64.4531	64.5591	64.4531	64.1822	64.4531	64.4998	64.4531	64.1175	64.4531	64.4377	64.4531	64.0616	64.4531	64.3742	64.4531	64.0162	64.4531	64.3106	64.4531	63.9825	64.4531	64.2481	64.4531	63.9614	64.4531	64.188	64.4531	63.9529	64.4531	64.1317	64.4531	63.957	64.4531	64.0806	64.4531	63.973	64.4531	64.0361	64.4531	63.9997
67.3828	65.7287	67.3828	65.7136	67.3828	65.7322	67.3828	65.6873	67.3828	65.7239	67.3828	65.6507	67.3828	65.7043	67.3828	65.6049	67.3828	65.6739	67.3828	65.5515	67.3828	65.6339	67.3828	65.4919	67.3828	65.5857	67.3828	65.4284	67.3828	65.5311	67.3828	65.3629	67.3828	65.472	67.3828	65.298	67.3828	65.4105	67.3828	65.236	67.3828	65.3486	67.3828	65.1792	67.3828	65.2883	67.3828	65.1297	67.3828	65.2315	67.3828	65.0887	67.3828	65.1795	67.3828	65.0571	67.3828	65.1337	67.3828	65.0352	67.3828	65.0949	67.3828	65.023	67.3828	65.0637	67.3828	65.02	67.3828	65.0407	67.3828	65.026
68.8477	65.9665	68.8477	65.9447	68.8477	65.9752	68.8477	65.9103	68.8477	65.9707	68.8477	65.8643	68.8477	65.9534	68.8477	65.808	68.8477	65.9239	68.8477	65.7431	68.8477	65.8833	68.8477	65.6717	68.8477	65.8329	68.8477	65.5963	68.8477	65.7746	68.8477	65.5195	68.8477	65.7103	68.8477	65.4442	68.8477	65.6421	68.8477	65.3731	68.8477	65.5722	68.8477	65.3088	68.8477	65.5027	68.8477	65.2535	68.8477	65.4356	68.8477	65.2089	68.8477	65.3726	68.8477	65.1761	68.8477	65.3153	68.8477	65.1554	68.8477	65.2648	68.8477	65.1469	68.8477	65.2222	68.8477	65.15	68.8477	65.1884	68.8477	65.164
71.7773	66.7815	71.7773	66.7613	71.7773	66.7874	71.7773	66.7272	71.7773	66.7788	71.7773	66.6801	71.7773	66.7561	71.7773	66.6216	71.7773	66.7201	71.7773	66.5531	71.7773	66.672	71.7773	66.477	71.7773	66.6133	71.7773	66.3956	71.7773	66.546	71.7773	66.3118	71.7773	66.4722	71.7773	66.2284	71.7773	66.3944	71.7773	66.1485	71.7773	66.315	71.7773	66.0749	71.7773	66.2364	71.7773	66.01	71.7773	66.161	71.7773	65.9559	71.7773	66.0909	71.7773	65.9139	71.7773	66.028	71.7773	65.8847	71.7773	65.9738	71.7773	65.8685	71.7773	65.9296	71.7773	65.8653	71.7773	65.8963	71.7773	65.8747
74.707	67.3271	74.707	67.301	74.707	67.34	74.707	67.2627	74.707	67.3393	74.707	67.2139	74.707	67.325	74.707	67.1564	74.707	67.2976	74.707	67.0925	74.707	67.2584	74.707	67.0245	74.707	67.2089	74.707	66.9548	74.707	67.1512	74.707	66.8857	74.707	67.0874	74.707	66.8194	74.707	67.0199	74.707	66.7579	74.707	66.9512	74.707	66.7027	74.707	66.8833	74.707	66.6553	74.707	66.8184	74.707	66.6165	74.707	66.7582	74.707	66.5872	74.707	66.7042	74.707	66.5676	74.707	66.6574	74.707	66.5581	74.707	66.6189	74.707	66.5586	74.707	66.5893	74.707	66.5691
77.6367	68.0746	77.6367	68.0501	77.6367	68.084	77.6367	68.0114	77.6367	68.078	77.6367	67.9599	77.6367	68.0572	77.6367	67.8977	77.6367	68.0224	77.6367	67.8273	77.6367	67.9754	77.6367	67.7515	77.6367	67.9181	77.6367	67.6731	77.6367	67.8529	77.6367	67.5953	77.6367	67.7822	77.6367	67.5207	77.6367	67.7085	77.6367	67.4518	77.6367	67.6345	77.6367	67.3907	77.6367	67.5624	77.6367	67.3388	77.6367	67.4942	77.6367	67.2969	77.6367	67.4318	77.6367	67.2655	77.6367	67.3765	77.6367	67.2446	77.6367	67.3293	77.6367	67.234	77.6367	67.2911	77.6367	67.2335	77.6367	67.2622	77.6367	67.2429
79.1016	68.3358	79.1016	68.3162	79.1016	68.3406	79.1016	68.2824	79.1016	68.3308	79.1016	68.2355	79.1016	68.307	79.1016	68.177	79.1016	68.2702	79.1016	68.109	79.1016	68.222	79.1016	68.034	79.1016	68.1644	79.1016	67.9549	79.1016	68.0995	79.1016	67.8746	79.1016	68.0296	79.1016	67.7962	79.1016	67.9572	79.1016	67.7226	79.1016	67.8846	79.1016	67.6563	79.1016	67.8139	79.1016	67.5995	79.1016	67.7471	79.1016	67.5534	79.1016	67.6856	79.1016	67.5188	79.1016	67.6308	79.1016	67.496	79.1016	67.5837	79.1016	67.4847	79.1016	67.5449	79.1016	67.4845	79.1016	67.5151	79.1016	67.4948
82.0312	68.9713	82.0312	68.9516	82.0312	68.977	82.0312	68.9182	82.0312	68.9684	82.0312	68.8722	82.0312	68.9457	82.0312	68.815	82.0312	68.9099	82.0312	68.7486	82.0312	68.8622	82.0312	68.6751	82.0312	68.8042	82.0312	68.5972	82.0312	68.7381	82.0312	68.5177	82.0312	68.6663	82.0312	68.4394	82.0312	68.5914	82.0312	68.3652	82.0312	68.516	82.0312	68.2977	82.0312	68.4426	82.0312	68.2389	82.0312	68.3733	82.0312	68.1903	82.0312	68.3099	82.0312	68.153	82.0312	68.2539	82.0312	68.1274	82.0312	68.2062	82.0312	68.1134	82.0312	68.1675	82.0312	68.111	82.0312	68.1385	82.0312	68.1194
84.9609	69.5149	84.9609	69.4878	84.9609	69.5296	84.9609	69.4493	84.9609	69.5316	84.9609	69.4003	84.9609	69.5207	84.9609	69.3421	84.9609	69.4969	84.9609	69.2765	84.9609	69.461	84.9609	69.2051	84.9609	69.4138	84.9609	69.1304	84.9609	69.3569	84.9609	69.0546	84.9609	69.2919	84.9609	68.98	84.9609	69.2208	84.9609	68.909	84.9609	69.1457	84.9609	68.8435	84.9609	69.069	84.9609	68.7855	84.9609	68.9929	84.9609	68.7367	84.9609	68.9197	84.9609	68.6984	84.9609	68.8516	84.9609	68.672	84.9609	68.7909	84.9609	68.6585	84.9609	68.7397	84.9609	68.6585	84.9609	68.6997	84.9609	68.6723
87.8906	70.1261	87.8906	70.1015	87.8906	70.1365	87.8906	70.0641	87.8906	70.1323	87.8906	70.0159	87.8906	70.1136	87.8906	69.9596	87.8906	70.0819	87.8906	69.8981	87.8906	70.0393	87.8906	69.8346	87.8906	69.9885	87.8906	69.7721	87.8906	69.9329	87.8906	69.7135	87.8906	69.8756	87.8906	69.6612	87.8906	69.8198	87.8906	69.617	87.8906	69.7679	87.8906	69.5819	87.8906	69.7217	87.8906	69.5563	87.8906	69.6821	87.8906	69.5396	87.8906	69.6489	87.8906	69.5311	87.8906	69.6216	87.8906	69.5293	87.8906	69.5992	87.8906	69.533	87.8906	69.5805	87.8906	69.5407	87.8906	69.5648	87.8906	69.5515
90.8203	70.6335	90.8203	70.612	90.8203	70.6372	90.8203	70.5734	90.8203	70.6232	90.8203	70.5192	90.8203	70.5922	90.8203	70.4517	90.8203	70.5458	90.8203	70.3737	90.8203	70.4861	90.8203	70.2884	90.8203	70.4157	90.8203	70.1995	90.8203	70.3377	90.8203	70.1108	90.8203	70.2553	90.8203	70.0259	90.8203	70.1719	90.8203	69.948	90.8203	70.0908	90.8203	69.8799	90.8203	70.0147	90.8203	69.8233	90.8203	69.946	90.8203	69.7792	90.8203	69.8861	90.8203	69.7476	90.8203	69.8357	90.8203	69.7275	90.8203	69.795	90.8203	69.7178	90.8203	69.7634	90.8203	69.7173	90.8203	69.7402	90.8203	69.7249
95.2148	71.5426	95.2148	71.5127	95.2148	71.5557	95.2148	71.4664	95.2148	71.5516	95.2148	71.405	95.2148	71.5303	95.2148	71.3298	95.2148	71.4925	95.2148	71.243	95.2148	71.4392	95.2148	71.1474	95.2148	71.3721	95.2148	71.0463	95.2148	71.2934	95.2148	70.9437	95.2148	71.2061	95.2148	70.8436	95.2148	71.1131	95.2148	70.7502	95.2148	71.018	95.2148	70.6672	95.2148	70.924	95.2148	70.5973	95.2148	70.8343	95.2148	70.5424	95.2148	70.7516	95.2148	70.5032	95.2148	70.6779	95.2148	70.4795	95.2148	70.6144	95.2148	70.4705	95.2148	70.5622	95.2148	70.475	95.2148	70.5213	95.2148	70.4922
98.1445	72.0183	98.1445	71.987	98.1445	72.0342	98.1445	71.9417	98.1445	72.0338	98.1445	71.8844	98.1445	72.0173	98.1445	71.8178	98.1445	71.9856	98.1445	71.7448	98.1445	71.9403	98.1445	71.6683	98.1445	71.8837	98.1445	71.5912	98.1445	71.8185	98.1445	71.5165	98.1445	71.7475	98.1445	71.4463	98.1445	71.6737	98.1445	71.3827	98.1445	71.5996	98.1445	71.327	98.1445	71.5275	98.1445	71.2802	98.1445	71.4595	98.1445	71.2428	98.1445	71.3969	98.1445	71.215	98.1445	71.3412	98.1445	71.197	98.1445	71.2931	98.1445	71.1888	98.1445	71.2535	98.1445	71.1905	98.1445	71.223	98.1445	71.2019
101.074	72.4546	101.074	72.438	101.074	72.4547	101.074	72.4056	101.074	72.4385	101.074	72.3591	101.074	72.4071	101.074	72.3009	101.074	72.3624	101.074	72.2339	101.074	72.3072	101.074	72.1614	101.074	72.2448	101.074	72.0872	101.074	72.1785	101.074	72.0147	101.074	72.1119	101.074	71.9474	101.074	72.0478	101.074	71.8881	101.074	71.9888	101.074	71.8388	101.074	71.9365	101.074	71.8006	101.074	71.8917	101.074	71.7735	101.074	71.8544	101.074	71.7565	101.074	71.8243	101.074	71.7479	101.074	71.8004	101.074	71.7461	101.074	71.7817	101.074	71.7494	101.074	71.7673	101.074	71.7566
105.469	73.0141	105.469	72.9885	105.469	73.0232	105.469	72.9478	105.469	73.0157	105.469	72.8939	105.469	72.9923	105.469	72.8294	105.469	72.9547	105.469	72.7573	105.469	72.9055	105.469	72.6811	105.469	72.8476	105.469	72.6041	105.469	72.7847	105.469	72.5297	105.469	72.7202	105.469	72.461	105.469	72.6572	105.469	72.4004	105.469	72.5979	105.469	72.35	105.469	72.5439	105.469	72.3109	105.469	72.4957	105.469	72.2835	105.469	72.453	105.469	72.2677	105.469	72.4151	105.469	72.2627	105.469	72.3811	105.469	72.2673	105.469	72.3503	105.469	72.28	105.469	72.3228	105.469	72.2989
108.398	73.4631	108.398	73.4359	108.398	73.4722	108.398	73.3919	108.398	73.4629	108.398	73.3333	108.398	73.4362	108.398	73.2629	108.398	73.394	108.398	73.1844	108.398	73.339	108.398	73.1015	108.398	73.2747	108.398	73.0182	108.398	73.2052	108.398	72.9384	108.398	73.1341	108.398	72.8656	108.398	73.0652	108.398	72.8027	108.398	73.0012	108.398	72.7518	108.398	72.944	108.398	72.7139	108.398	72.8945	108.398	72.6891	108.398	72.8524	108.398	72.6766	108.398	72.8168	108.398	72.6749	108.398	72.7861	108.398	72.6818	108.398	72.7592	108.398	72.6954	108.398	72.7351	108.398	72.7136
112.793	74.1143	112.793	74.0957	112.793	74.1154	112.793	74.0606	112.793	74.0992	112.793	74.0113	112.793	74.0671	112.793	73.951	112.793	74.0216	112.793	73.8833	112.793	73.9663	112.793	73.8121	112.793	73.9051	112.793	73.7416	112.793	73.8423	112.793	73.6754	112.793	73.7821	112.793	73.6166	112.793	73.7279	112.793	73.5678	112.793	73.6821	112.793	73.5305	112.793	73.6458	112.793	73.5052	112.793	73.6187	112.793	73.4917	112.793	73.5992	112.793	73.4886	112.793	73.5849	112.793	73.4939	112.793	73.5732	112.793	73.5051	112.793	73.5617	112.793	73.5195	112.793	73.549	112.793	73.5347
117.188	74.6195	117.188	74.5964	117.188	74.6236	117.188	74.555	117.188	74.6086	117.188	74.4975	117.188	74.5759	117.188	74.4272	117.188	74.5273	117.188	74.3483	117.188	74.4658	117.188	74.2655	117.188	74.3947	117.188	74.1838	117.188	74.3182	117.188	74.1077	117.188	74.2409	117.188	74.0412	117.188	74.1673	117.188	73.9872	117.188	74.1015	117.188	73.9472	117.188	74.0468	117.188	73.9214	117.188	74.0049	117.188	73.9084	117.188	73.9756	117.188	73.9057	117.188	73.9575	117.188	73.9101	117.188	73.9476	117.188	73.918	117.188	73.9423	117.188	73.9265	117.188	73.9384	117.188	73.9335
120.117	75.0914	120.117	75.0639	120.117	75.1016	120.117	75.0202	120.117	75.0939	120.117	74.9626	120.117	75.0685	120.117	74.8936	120.117	75.0265	120.117	74.8167	120.117	74.9699	120.117	74.7357	120.117	74.9014	120.117	74.6547	120.117	74.8246	120.117	74.5774	120.117	74.7437	120.117	74.5073	120.117	74.6631	120.117	74.4468	120.117	74.5869	120.117	74.3977	120.117	74.5185	120.117	74.3606	120.117	74.4604	120.117	74.3348	120.117	74.4137	120.117	74.3191	120.117	74.3783	120.117	74.3113	120.117	74.3529	120.117	74.3093	120.117	74.3355	120.117	74.3112	120.117	74.3238	120.117	74.3161
124.512	75.5977	124.512	75.5695	124.512	75.6067	124.512	75.5238	124.512	75.5956	124.512	75.4631	124.512	75.5649	124.512	75.3903	124.512	75.5162	124.512	75.309	124.512	75.4524	124.512	75.2233	124.512	75.3774	124.512	75.1373	124.512	75.2963	124.512	75.0556	124.512	75.214	124.512	74.982	124.512	75.1356	124.512	74.9197	124.512	75.065	124.512	74.8709	124.512	75.0052	124.512	74.8362	124.512	74.9572	124.512	74.8151	124.512	74.9207	124.512	74.8058	124.512	74.8939	124.512	74.8057	124.512	74.8742	124.512	74.812	124.512	74.859	124.512	74.822	124.512	74.846	124.512	74.8337
128.906	76.2102	128.906	76.1789	128.906	76.218	128.906	76.1255	128.906	76.2026	128.906	76.0522	128.906	76.1649	128.906	75.9622	128.906	76.1073	128.906	75.8596	128.906	76.0332	128.906	75.7496	128.906	75.9469	128.906	75.6379	128.906	75.8532	128.906	75.5304	128.906	75.7572	128.906	75.433	128.906	75.6636	128.906	75.3506	128.906	75.5766	128.906	75.2866	128.906	75.4997	128.906	75.2423	128.906	75.4347	128.906	75.2169	128.906	75.3824	128.906	75.2076	128.906	75.3419	128.906	75.2104	128.906	75.3113	128.906	75.2209	128.906	75.2878	128.906	75.2354	128.906	75.2687	128.906	75.2515
133.301	76.677	133.301	76.6563	133.301	76.6729	133.301	76.6111	133.301	76.6453	133.301	76.5432	133.301	76.5967	133.301	76.4554	133.301	76.5309	133.301	76.3521	133.301	76.4521	133.301	76.2383	133.301	76.3651	133.301	76.1195	133.301	76.2746	133.301	76.0015	133.301	76.1845	133.301	75.8901	133.301	76.0982	133.301	75.7901	133.301	76.0179	133.301	75.7059	133.301	75.9447	133.301	75.6404	133.301	75.879	133.301	75.5947	133.301	75.8204	133.301	75.5685	133.301	75.7682	133.301	75.56	133.301	75.7215	133.301	75.5662	133.301	75.6796	133.301	75.5839	133.301	75.6424	133.301	75.61
139.16	76.9696	139.16	76.939	139.16	76.9817	139.16	76.8911	139.16	76.9756	139.16	76.8293	139.16	76.9535	139.16	76.7584	139.16	76.9189	139.16	76.6842	139.16	76.8759	139.16	76.6127	139.16	76.8292	139.16	76.5491	139.16	76.7836	139.16	76.4975	139.16	76.7432	139.16	76.46	139.16	76.7108	139.16	76.4371	139.16	76.6876	139.16	76.4279	139.16	76.6731	139.16	76.4305	139.16	76.6649	139.16	76.443	139.16	76.6596	139.16	76.4632	139.16	76.6537	139.16	76.4892	139.16	76.6439	139.16	76.5189	139.16	76.6285	139.16	76.55	139.16	76.6069	139.16	76.5801
143.555	77.4753	143.555	77.4361	143.555	77.4964	143.555	77.3808	143.555	77.4982	143.555	77.313	143.555	77.4811	143.555	77.2368	143.555	77.4467	143.555	77.157	143.555	77.3981	143.555	77.0789	143.555	77.3396	143.555	77.0075	143.555	77.2766	143.555	76.9476	143.555	77.215	143.555	76.9027	143.555	77.1604	143.555	76.8752	143.555	77.1171	143.555	76.8654	143.555	77.0876	143.555	76.8719	143.555	77.0718	143.555	76.8919	143.555	77.067	143.555	76.9215	143.555	77.0689	143.555	76.9561	143.555	77.0722	143.555	76.9914	143.555	77.0719	143.555	77.0232	143.555	77.0646	143.555	77.0482
147.949	78.2255	147.949	78.1851	147.949	78.241	147.949	78.1215	147.949	78.2306	147.949	78.0373	147.949	78.1943	147.949	77.9357	147.949	78.1338	147.949	77.8207	147.949	78.0524	147.949	77.6975	147.949	77.9547	147.949	77.5721	147.949	77.8468	147.949	77.4512	147.949	77.7357	147.949	77.3418	147.949	77.6281	147.949	77.25	147.949	77.5299	147.949	77.1803	147.949	77.4456	147.949	77.1345	147.949	77.3775	147.949	77.1119	147.949	77.3254	147.949	77.109	147.949	77.287	147.949	77.1209	147.949	77.2585	147.949	77.1418	147.949	77.2355	147.949	77.1665	147.949	77.2139	147.949	77.1911
153.809	78.4658	153.809	78.436	153.809	78.4672	153.809	78.3787	153.809	78.4414	153.809	78.297	153.809	78.3913	153.809	78.1958	153.809	78.3217	153.809	78.0817	153.809	78.2387	153.809	77.9624	153.809	78.1492	153.809	77.8462	153.809	78.0601	153.809	77.7411	153.809	77.9781	153.809	77.6537	153.809	77.9083	153.809	77.5889	153.809	77.8542	153.809	77.5489	153.809	77.8165	153.809	77.5333	153.809	77.7937	153.809	77.5394	153.809	77.7821	153.809	77.5628	153.809	77.7763	153.809	77.5977	153.809	77.7707	153.809	77.6384	153.809	77.7605	153.809	77.679	153.809	77.7422	153.809	77.7147
159.668	79.0214	159.668	78.9869	159.668	79.0275	159.668	78.9249	159.668	79.0061	159.668	78.8375	159.668	78.9598	159.668	78.7289	159.668	78.8924	159.668	78.6043	159.668	78.8091	159.668	78.4705	159.668	78.7158	159.668	78.3354	159.668	78.6191	159.668	78.2074	159.668	78.525	159.668	78.0946	159.668	78.4388	159.668	78.0042	159.668	78.3644	159.668	77.9413	159.668	78.3036	159.668	77.9078	159.668	78.2564	159.668	77.9022	159.668	78.2209	159.668	77.9199	159.668	78.1935	159.668	77.954	159.668	78.17	159.668	77.9968	159.668	78.1459	159.668	78.0415	159.668	78.1175	159.668	78.0826
165.527	79.3667	165.527	79.3368	165.527	79.3678	165.527	79.2803	165.527	79.3401	165.527	79.201	165.527	79.2862	165.527	79.1048	165.527	79.2107	165.527	78.9981	165.527	79.1198	165.527	78.8882	165.527	79.0215	165.527	78.7822	165.527	78.924	165.527	78.6861	165.527	78.835	165.527	78.6052	165.527	78.7608	165.527	78.5429	165.527	78.7052	165.527	78.5012	165.527	78.6689	165.527	78.48	165.527	78.6498	165.527	78.478	165.527	78.6434	165.527	78.4919	165.527	78.6438	165.527	78.5173	165.527	78.6448	165.527	78.549	165.527	78.6412	165.527	78.5812	165.527	78.6297	165.527	78.6093
171.387	79.7172	171.387	79.6815	171.387	79.7204	171.387	79.6151	171.387	79.6915	171.387	79.5221	171.387	79.6335	171.387	79.4087	171.387	79.5511	171.387	79.2826	171.387	79.4511	171.387	79.153	171.387	79.3416	171.387	79.0292	171.387	79.2314	171.387	78.9199	171.387	79.1291	171.387	78.8325	171.387	79.0422	171.387	78.7715	171.387	78.9761	171.387	78.7386	171.387	78.9331	171.387	78.7321	171.387	78.912	171.387	78.7476	171.387	78.9085	171.387	78.7787	171.387	78.9161	171.387	78.8183	171.387	78.9273	171.387	78.859	171.387	78.935	171.387	78.8945	171.387	78.9336	171.387	78.9202
177.246	80.0212	177.246	79.9889	177.246	80.0218	177.246	79.926	177.246	79.9915	177.246	79.836	177.246	79.9336	177.246	79.7243	177.246	79.8533	177.246	79.5983	177.246	79.7574	177.246	79.4666	177.246	79.654	177.246	79.3388	177.246	79.5513	177.246	79.2244	177.246	79.4573	177.246	79.132	177.246	79.3786	177.246	79.0673	177.246	79.3193	177.246	79.0331	177.246	79.2808	177.246	79.0282	177.246	79.2616	177.246	79.0478	177.246	79.2575	177.246	79.085	177.246	79.2627	177.246	79.1314	177.246	79.2703	177.246	79.1787	177.246	79.2741	177.246	79.2201	177.246	79.2686	177.246	79.2508
183.105	80.3735	183.105	80.3384	183.105	80.3751	183.105	80.2711	183.105	80.3439	183.105	80.175	183.105	80.2831	183.105	80.0555	183.105	80.1976	183.105	79.9198	183.105	80.0945	183.105	79.7769	183.105	79.9823	183.105	79.6368	183.105	79.8705	183.105	79.5096	183.105	79.7682	183.105	79.4046	183.105	79.6833	183.105	79.3286	183.105	79.6209	183.105	79.2854	183.105	79.5826	183.105	79.2747	183.105	79.5658	183.105	79.2923	183.105	79.5651	183.105	79.3316	183.105	79.5724	183.105	79.3841	183.105	79.5795	183.105	79.4408	183.105	79.5788	183.105	79.4938	183.105	79.5653	183.105	79.5366
188.965	80.6743	188.965	80.6437	188.965	80.6669	188.965	80.5769	188.965	80.622	188.965	80.4777	188.965	80.5426	188.965	80.3517	188.965	80.4345	188.965	80.206	188.965	80.3057	188.965	80.0495	188.965	80.1665	188.965	79.8924	188.965	80.028	188.965	79.746	188.965	79.9015	188.965	79.6209	188.965	79.7965	188.965	79.5262	188.965	79.7198	188.965	79.4675	188.965	79.6741	188.965	79.4456	188.965	79.6572	188.965	79.4571	188.965	79.6628	188.965	79.4942	188.965	79.6815	188.965	79.5468	188.965	79.7026	188.965	79.6041	188.965	79.7161	188.965	79.6559	188.965	79.7145	188.965	79.6942
196.289	81.0923	196.289	81.0597	196.289	81.0849	196.289	80.9885	196.289	81.0385	196.289	80.8825	196.289	80.9562	196.289	80.7477	196.289	80.8437	196.289	80.5925	196.289	80.709	196.289	80.4271	196.289	80.562	196.289	80.2634	196.289	80.4144	196.289	80.1137	196.289	80.2778	196.289	79.9889	196.289	80.1628	196.289	79.8973	196.289	80.0771	196.289	79.8429	196.289	80.024	196.289	79.8249	196.289	80.0019	196.289	79.8379	196.289	80.0046	196.289	79.8735	196.289	80.0223	196.289	79.9218	196.289	80.0442	196.289	79.9726	196.289	80.0603	196.289	80.0172	196.289	80.063	196.289	80.0486
203.613	81.3546	203.613	81.3322	203.613	81.3351	203.613	81.2691	203.613	81.2751	203.613	81.1688	203.613	81.1785	203.613	81.0372	203.613	81.0522	203.613	80.8822	203.613	80.9052	203.613	80.7136	203.613	80.7489	203.613	80.5428	203.613	80.5957	203.613	80.3822	203.613	80.4578	203.613	80.244	203.613	80.3454	203.613	80.1386	203.613	80.2654	203.613	80.0729	203.613	80.22	203.613	80.0484	203.613	80.2065	203.613	80.0608	203.613	80.2181	203.613	80.1009	203.613	80.2449	203.613	80.1566	203.613	80.2756	203.613	80.2149	203.613	80.2996	203.613	80.2644	203.613	80.3084	203.613	80.2969
210.938	81.5304	210.938	81.5062	210.938	81.5108	210.938	81.4398	210.938	81.4482	210.938	81.3353	210.938	81.3466	210.938	81.199	210.938	81.2127	210.938	81.0389	210.938	81.0563	210.938	80.8653	210.938	80.8895	210.938	80.6897	210.938	80.726	210.938	80.5248	210.938	80.5792	210.938	80.3835	210.938	80.4605	210.938	80.2765	210.938	80.3775	210.938	80.2109	210.938	80.3326	210.938	80.1884	210.938	80.323	210.938	80.2043	210.938	80.341	210.938	80.2486	210.938	80.3757	210.938	80.3083	210.938	80.4146	210.938	80.3697	210.938	80.446	210.938	80.4205	210.938	80.4604	210.938	80.4521
218.262	81.7192	218.262	81.6952	218.262	81.6978	218.262	81.6286	218.262	81.6316	218.262	81.525	218.262	81.5247	218.262	81.3924	218.262	81.3848	218.262	81.2409	218.262	81.2231	218.262	81.0818	218.262	81.0542	218.262	80.927	218.262	80.8939	218.262	80.7881	218.262	80.758	218.262	80.6754	218.262	80.6592	218.262	80.5967	218.262	80.6046	218.262	80.5564	218.262	80.5941	218.262	80.554	218.262	80.6207	218.262	80.5845	218.262	80.6725	218.262	80.6385	218.262	80.7351	218.262	80.7041	218.262	80.7942	218.262	80.769	218.262	80.8382	218.262	80.8216	218.262	80.8592	218.262	80.8534
225.586	82.0302	225.586	82.009	225.586	82.0014	225.586	81.9405	225.586	81.923	225.586	81.8298	225.586	81.7986	225.586	81.6844	225.586	81.6359	225.586	81.5137	225.586	81.4464	225.586	81.329	225.586	81.2453	225.586	81.1432	225.586	81.0503	225.586	80.9702	225.586	80.8799	225.586	80.824	225.586	80.7503	225.586	80.7166	225.586	80.6722	225.586	80.656	225.586	80.6485	225.586	80.6438	225.586	80.6735	225.586	80.6748	225.586	80.734	225.586	80.7372	225.586	80.8124	225.586	80.8151	225.586	80.8904	225.586	80.8918	225.586	80.9521	225.586	80.9525	225.586	80.9858	225.586	80.9858
232.91	82.1572	232.91	82.135	232.91	82.1284	232.91	82.0653	232.91	82.0477	232.91	81.954	232.91	81.9176	232.91	81.8091	232.91	81.7445	232.91	81.6404	232.91	81.5393	232.91	81.4593	232.91	81.317	232.91	81.278	232.91	81.0967	232.91	81.1089	232.91	80.8994	232.91	80.9636	232.91	80.7449	232.91	80.8515	232.91	80.6479	232.91	80.779	232.91	80.6138	232.91	80.7485	232.91	80.6371	232.91	80.7572	232.91	80.7026	232.91	80.7971	232.91	80.7897	232.91	80.8557	232.91	80.8771	232.91	80.9177	232.91	80.947	232.91	80.968	232.91	80.9876	232.91	80.9939
241.699	82.3057	241.699	82.2654	241.699	82.2937	241.699	82.1766	241.699	82.2286	241.699	82.045	241.699	82.1124	241.699	81.8782	241.699	81.9507	241.699	81.6864	241.699	81.7523	241.699	81.4819	241.699	81.5298	241.699	81.2797	241.699	81.2987	241.699	81.0961	241.699	81.077	241.699	80.9461	241.699	80.8837	241.699	80.8405	241.699	80.7368	241.699	80.7835	241.699	80.6492	241.699	80.7719	241.699	80.6251	241.699	80.797	241.699	80.658	241.699	80.8461	241.699	80.731	241.699	80.9045	241.699	80.8215	241.699	80.9578	241.699	80.9067	241.699	80.9924	241.699	80.9688	241.699	80.9979
250.488	82.6019	250.488	82.5409	250.488	82.6032	250.488	82.4235	250.488	82.544	250.488	82.2557	250.488	82.4272	250.488	82.046	250.488	82.2594	250.488	81.8052	250.488	82.0516	250.488	81.5469	250.488	81.8191	250.488	81.2874	250.488	81.5804	250.488	81.0452	250.488	81.3558	250.488	80.8393	250.488	81.1646	250.488	80.6864	250.488	81.0213	250.488	80.5968	250.488	80.9332	250.488	80.5722	250.488	80.8983	250.488	80.6046	250.488	80.9064	250.488	80.6785	250.488	80.9415	250.488	80.7742	250.488	80.9849	250.488	80.8715	250.488	81.0188	250.488	80.9535	250.488	81.0292	250.488	81.0079
259.277	82.7807	259.277	82.7227	259.277	82.7799	259.277	82.6092	259.277	82.7204	259.277	82.446	259.277	82.605	259.277	82.2417	259.277	82.4404	259.277	82.0082	259.277	82.2365	259.277	81.7607	259.277	82.0068	259.277	81.5175	259.277	81.768	259.277	81.2987	259.277	81.5391	259.277	81.1227	259.277	81.3404	259.277	81.0031	259.277	81.1901	259.277	80.9456	259.277	81.1011	259.277	80.9468	259.277	81.077	259.277	80.9956	259.277	81.1095	259.277	81.0766	259.277	81.1797	259.277	81.1722	259.277	81.2629	259.277	81.2645	259.277	81.3344	259.277	81.3369	259.277	81.3755	259.277	81.3765
268.066	82.9446	268.066	82.89	268.066	82.9315	268.066	82.7686	268.066	82.8532	268.066	82.5843	268.066	82.716	268.066	82.3442	268.066	82.5301	268.066	82.0596	268.066	82.3094	268.066	81.7475	268.066	82.0705	268.066	81.4313	268.066	81.831	268.066	81.1404	268.066	81.6082	268.066	80.9061	268.066	81.4175	268.066	80.7537	268.066	81.2714	268.066	80.6954	268.066	81.1785	268.066	80.7257	268.066	81.1419	268.066	80.8244	268.066	81.158	268.066	80.9633	268.066	81.2139	268.066	81.1132	268.066	81.2894	268.066	81.2481	268.066	81.3598	268.066	81.3481	268.066	81.4023	268.066	81.4007
276.855	82.9007	276.855	82.8715	276.855	82.8663	276.855	82.7858	276.855	82.7651	276.855	82.6535	276.855	82.5992	276.855	82.4838	276.855	82.3775	276.855	82.2837	276.855	82.1165	276.855	82.0569	276.855	81.84	276.855	81.8065	276.855	81.5773	276.855	81.5389	276.855	81.3579	276.855	81.2692	276.855	81.2035	276.855	81.0218	276.855	81.122	276.855	80.8262	276.855	81.1051	276.855	80.707	276.855	81.1329	276.855	80.6736	276.855	81.1813	276.855	80.7167	276.855	81.2281	276.855	80.8126	276.855	81.2568	276.855	80.9329	276.855	81.2566	276.855	81.0523	276.855	81.222	276.855	81.1524
287.109	83.2875	287.109	83.2272	287.109	83.2721	287.109	83.0932	287.109	83.1826	287.109	82.8928	287.109	83.0244	287.109	82.6393	287.109	82.8065	287.109	82.3533	287.109	82.5415	287.109	82.062	287.109	82.2466	287.109	81.7945	287.109	81.9441	287.109	81.5758	287.109	81.6629	287.109	81.4209	287.109	81.4373	287.109	81.3338	287.109	81.2998	287.109	81.3098	287.109	81.2704	287.109	81.3414	287.109	81.3451	287.109	81.42	287.109	81.4949	287.109	81.535	287.109	81.6757	287.109	81.6716	287.109	81.843	287.109	81.8102	287.109	81.9632	287.109	81.928	287.109	82.0176	287.109	82.003
297.363	83.5142	297.363	83.4886	297.363	83.4619	297.363	83.3865	297.363	83.3334	297.363	83.2127	297.363	83.1335	297.363	82.9754	297.363	82.8711	297.363	82.6878	297.363	82.5599	297.363	82.3685	297.363	82.2185	297.363	82.0424	297.363	81.8706	297.363	81.7396	297.363	81.5429	297.363	81.4917	297.363	81.2628	297.363	81.325	297.363	81.0564	297.363	81.2532	297.363	80.9449	297.363	81.2735	297.363	80.9403	297.363	81.3671	297.363	81.0382	297.363	81.505	297.363	81.2141	297.363	81.6536	297.363	81.4266	297.363	81.7801	297.363	81.629	297.363	81.8556	297.363	81.7813	297.363	81.859
307.617	83.6766	307.617	83.6323	307.617	83.6458	307.617	83.5187	307.617	83.5359	307.617	83.3414	307.617	83.3469	307.617	83.1063	307.617	83.0846	307.617	82.8204	307.617	82.7623	307.617	82.4952	307.617	82.4007	307.617	82.1486	307.617	82.0282	307.617	81.8058	307.617	81.6785	307.617	81.4973	307.617	81.3872	307.617	81.2529	307.617	81.1849	307.617	81.0945	307.617	81.0882	307.617	81.0303	307.617	81.094	307.617	81.0532	307.617	81.1791	307.617	81.1431	307.617	81.3077	307.617	81.2719	307.617	81.4412	307.617	81.4082	307.617	81.5461	307.617	81.5223	307.617	81.5995	307.617	81.5908
319.336	83.5539	319.336	83.5089	319.336	83.5231	319.336	83.395	319.336	83.414	319.336	83.2216	319.336	83.2296	319.336	82.9986	319.336	82.9782	319.336	82.7361	319.336	82.6733	319.336	82.4445	319.336	82.3326	319.336	82.1372	319.336	81.9773	319.336	81.8336	319.336	81.6327	319.336	81.5598	319.336	81.327	319.336	81.3442	319.336	81.0899	319.336	81.2089	319.336	80.9466	319.336	81.1613	319.336	80.9101	319.336	81.1915	319.336	80.9739	319.336	81.2767	319.336	81.1106	319.336	81.3882	319.336	81.279	319.336	81.4959	319.336	81.4357	319.336	81.5715	319.336	81.5465	319.336	81.5925
329.59	83.6001	329.59	83.5373	329.59	83.5826	329.59	83.4022	329.59	83.4821	329.59	83.2066	329.59	83.3022	329.59	82.9633	329.59	83.0527	329.59	82.6843	329.59	82.7479	329.59	82.3804	329.59	82.4064	329.59	82.0642	329.59	82.0499	329.59	81.7537	329.59	81.7042	329.59	81.4753	329.59	81.3985	329.59	81.2601	329.59	81.1636	329.59	81.1348	329.59	81.0254	329.59	81.11	329.59	80.996	329.59	81.174	329.59	81.0657	329.59	81.2969	329.59	81.2044	329.59	81.4404	329.59	81.3704	329.59	81.5683	329.59	81.5227	329.59	81.6524	329.59	81.6303	329.59	81.6753
341.309	83.7997	341.309	83.7279	341.309	83.7748	341.309	83.5617	341.309	83.6574	341.309	83.3111	341.309	83.4578	341.309	82.9939	341.309	83.1917	341.309	82.6355	341.309	82.8788	341.309	82.2667	341.309	82.5413	341.309	81.919	341.309	82.2027	341.309	81.6183	341.309	81.8855	341.309	81.3804	341.309	81.6101	341.309	81.2113	341.309	81.3946	341.309	81.1118	341.309	81.2553	341.309	81.0821	341.309	81.2041	341.309	81.1219	341.309	81.2421	341.309	81.2245	341.309	81.3528	341.309	81.3711	341.309	81.5002	341.309	81.5293	341.309	81.6378	341.309	81.661	341.309	81.7235	341.309	81.7321
353.027	83.82	353.027	83.7751	353.027	83.7795	353.027	83.6499	353.027	83.6518	353.027	83.4519	353.027	83.4389	353.027	83.1893	353.027	83.148	353.027	82.87	353.027	82.7943	353.027	82.5019	353.027	82.4034	353.027	82.0961	353.027	82.0106	353.027	81.6746	353.027	81.6567	353.027	81.2766	353.027	81.3776	353.027	80.9568	353.027	81.1955	353.027	80.7698	353.027	81.1151	353.027	80.7436	353.027	81.127	353.027	80.8629	353.027	81.2132	353.027	81.0763	353.027	81.3493	353.027	81.3196	353.027	81.5048	353.027	81.5366	353.027	81.6453	353.027	81.6888	353.027	81.7378	353.027	81.7566
366.211	84.4826	366.211	84.4559	366.211	84.4057	366.211	84.329	366.211	84.2221	366.211	84.1061	366.211	83.9317	366.211	83.7933	366.211	83.5404	366.211	83.4023	366.211	83.0624	366.211	82.954	366.211	82.5243	366.211	82.4806	366.211	81.9666	366.211	82.0244	366.211	81.4459	366.211	81.6296	366.211	81.0294	366.211	81.3297	366.211	80.7769	366.211	81.1374	366.211	80.7142	366.211	81.0458	366.211	80.8179	366.211	81.0395	366.211	81.0268	366.211	81.1035	366.211	81.2688	366.211	81.2227	366.211	81.4825	366.211	81.3745	366.211	81.6258	366.211	81.5258	366.211	81.6777	366.211	81.638
379.395	84.2587	379.395	84.1888	379.395	84.2399	379.395	84.0378	379.395	84.1289	379.395	83.8156	379.395	83.9266	379.395	83.5337	379.395	83.638	379.395	83.2031	379.395	83.2727	379.395	82.8352	379.395	82.845	379.395	82.4437	379.395	82.3768	379.395	82.0506	379.395	81.9014	379.395	81.6906	379.395	81.4656	379.395	81.4088	379.395	81.1271	379.395	81.2479	379.395	80.9399	379.395	81.2289	379.395	80.9326	379.395	81.3394	379.395	81.0908	379.395	81.5393	379.395	81.3597	379.395	81.7747	379.395	81.6654	379.395	81.9914	379.395	81.9369	379.395	82.1419	379.395	82.1217	379.395	82.1913
392.578	84.1207	392.578	84.0586	392.578	84.0846	392.578	83.9078	392.578	83.9456	392.578	83.6812	392.578	83.7061	392.578	83.3929	392.578	83.3771	392.578	83.0561	392.578	82.9791	392.578	82.6822	392.578	82.541	392.578	82.2829	392.578	82.0963	392.578	81.8772	392.578	81.6782	392.578	81.4979	392.578	81.3171	392.578	81.1921	392.578	81.04	392.578	81.0071	392.578	80.8706	392.578	80.9695	392.578	80.8265	392.578	81.0694	392.578	80.9097	392.578	81.2643	392.578	81.0984	392.578	81.4948	392.578	81.3454	392.578	81.7013	392.578	81.5903	392.578	81.8345	392.578	81.776	392.578	81.8626
405.762	84.2022	405.762	84.1951	405.762	84.077	405.762	84.0593	405.762	83.8238	405.762	83.8041	405.762	83.459	405.762	83.444	405.762	83.012	405.762	83.0014	405.762	82.5216	405.762	82.5093	405.762	82.0294	405.762	82.0114	405.762	81.5744	405.762	81.5568	405.762	81.1925	405.762	81.189	405.762	80.9185	405.762	80.9363	405.762	80.784	405.762	80.8084	405.762	80.8053	405.762	80.8023	405.762	80.9676	405.762	80.9066	405.762	81.2228	405.762	81.1003	405.762	81.5055	405.762	81.3488	405.762	81.755	405.762	81.6059	405.762	81.9281	405.762	81.8234	405.762	82	405.762	81.9627
420.41	84.5843	420.41	84.535	420.41	84.5168	420.41	84.3712	420.41	84.3379	420.41	84.1039	420.41	84.0584	420.41	83.7496	420.41	83.6902	420.41	83.3251	420.41	83.2448	420.41	82.844	420.41	82.736	420.41	82.3226	420.41	82.187	420.41	81.7949	420.41	81.6362	420.41	81.3266	420.41	81.1375	420.41	81.0033	420.41	80.7509	420.41	80.8851	420.41	80.5275	420.41	80.9635	420.41	80.4939	420.41	81.1722	420.41	80.6405	420.41	81.4324	420.41	80.9204	420.41	81.6818	420.41	81.2615	420.41	81.8762	420.41	81.5877	420.41	81.9814	420.41	81.837	420.41	81.9719
435.059	84.4026	435.059	84.3722	435.059	84.3366	435.059	84.2356	435.059	84.1803	435.059	83.9852	435.059	83.9336	435.059	83.6218	435.059	83.5916	435.059	83.1592	435.059	83.1519	435.059	82.6228	435.059	82.6237	435.059	82.0467	435.059	82.037	435.059	81.4743	435.059	81.4442	435.059	80.9689	435.059	80.9146	435.059	80.6198	435.059	80.5239	435.059	80.5135	435.059	80.3394	435.059	80.6728	435.059	80.3983	435.059	81.0274	435.059	80.6821	435.059	81.4583	435.059	81.1118	435.059	81.8615	435.059	81.578	435.059	82.1713	435.059	81.9824	435.059	82.3526	435.059	82.2611	435.059	82.3858
451.172	84.6371	451.172	84.5944	451.172	84.5837	451.172	84.46	451.172	84.4266	451.172	84.2308	451.172	84.1607	451.172	83.8961	451.172	83.7859	451.172	83.4425	451.172	83.3086	451.172	82.8644	451.172	82.7411	451.172	82.1756	451.172	82.1045	451.172	81.4199	451.172	81.4337	451.172	80.6764	451.172	80.7858	451.172	80.0548	451.172	80.2452	451.172	79.6703	451.172	79.9092	451.172	79.5942	451.172	79.8431	451.172	79.8096	451.172	80.031	451.172	80.2161	451.172	80.3796	451.172	80.6793	451.172	80.7728	451.172	81.0813	451.172	81.1173	451.172	81.3447	451.172	81.3513	451.172	81.4347
465.82	84.6882	465.82	84.6656	465.82	84.5913	465.82	84.5226	465.82	84.3799	465.82	84.2622	465.82	84.0609	465.82	83.8914	465.82	83.6435	465.82	83.4178	465.82	83.1409	465.82	82.8498	465.82	82.5746	465.82	82.1995	465.82	81.9775	465.82	81.4944	465.82	81.3945	465.82	80.795	465.82	80.8798	465.82	80.2083	465.82	80.4911	465.82	79.868	465.82	80.2797	465.82	79.8589	465.82	80.2767	465.82	80.1452	465.82	80.4757	465.82	80.5978	465.82	80.8221	465.82	81.0785	465.82	81.2233	465.82	81.4877	465.82	81.5792	465.82	81.7652	465.82	81.8117	465.82	81.8775
483.398	84.4667	483.398	84.4897	483.398	84.3384	483.398	84.4032	483.398	84.1126	483.398	84.2063	483.398	83.8011	483.398	83.9006	483.398	83.417	483.398	83.4898	483.398	82.9714	483.398	82.9769	483.398	82.4724	483.398	82.362	483.398	81.931	483.398	81.6496	483.398	81.3703	483.398	80.8699	483.398	80.8355	483.398	80.1107	483.398	80.3989	483.398	79.5311	483.398	80.1495	483.398	79.3005	483.398	80.1542	483.398	79.4694	483.398	80.4031	483.398	79.9223	483.398	80.7983	483.398	80.4795	483.398	81.2058	483.398	80.9982	483.398	81.5152	483.398	81.3934	483.398	81.662	483.398	81.6212
499.512	84.6605	499.512	84.6343	499.512	84.584	499.512	84.5056	499.512	84.4065	499.512	84.2766	499.512	84.1295	499.512	83.9508	499.512	83.7532	499.512	83.5325	499.512	83.2778	499.512	83.0257	499.512	82.7085	499.512	82.4357	499.512	82.0613	499.512	81.7754	499.512	81.3666	499.512	81.0782	499.512	80.6729	499.512	80.4153	499.512	80.0593	499.512	79.9009	499.512	79.6498	499.512	79.6578	499.512	79.5848	499.512	79.743	499.512	79.9119	499.512	80.1016	499.512	80.5031	499.512	80.6069	499.512	81.1329	499.512	81.1282	499.512	81.614	499.512	81.5602	499.512	81.8497	499.512	81.8212
517.09	84.5671	517.09	84.5089	517.09	84.5347	517.09	84.3729	517.09	84.3989	517.09	84.1713	517.09	84.1481	517.09	83.9082	517.09	83.7746	517.09	83.573	517.09	83.2812	517.09	83.1384	517.09	82.687	517.09	82.5717	517.09	82.0284	517.09	81.8538	517.09	81.3547	517.09	81.0014	517.09	80.7165	517.09	80.0959	517.09	80.1555	517.09	79.3203	517.09	79.709	517.09	78.9354	517.09	79.4341	517.09	79.0892	517.09	79.4131	517.09	79.6443	517.09	79.6898	517.09	80.3167	517.09	80.1867	517.09	80.8868	517.09	80.728	517.09	81.2396	517.09	81.1431	517.09	81.327
536.133	84.1712	536.133	84.1648	536.133	84.0638	536.133	84.0445	536.133	83.8407	536.133	83.8109	536.133	83.5026	536.133	83.4742	536.133	83.0563	536.133	83.0622	536.133	82.5122	536.133	82.6159	536.133	81.8808	536.133	82.1652	536.133	81.1818	536.133	81.7022	536.133	80.4712	536.133	81.1803	536.133	79.8653	536.133	80.5556	536.133	79.5072	536.133	79.8584	536.133	79.4557	536.133	79.2534	536.133	79.6203	536.133	78.9912	536.133	79.8537	536.133	79.1871	536.133	80.0788	536.133	79.6856	536.133	80.3056	536.133	80.2263	536.133	80.5461	536.133	80.6228	536.133	80.7429	536.133	80.7934
555.176	84.2407	555.176	84.2353	555.176	84.1506	555.176	84.1111	555.176	83.9806	555.176	83.8515	555.176	83.7264	555.176	83.4625	555.176	83.3626	555.176	82.9872	555.176	82.8571	555.176	82.5023	555.176	82.1954	555.176	82.0762	555.176	81.3952	555.176	81.7066	555.176	80.5016	555.176	81.3012	555.176	79.5803	555.176	80.7423	555.176	78.7506	555.176	79.9963	555.176	78.2547	555.176	79.2115	555.176	78.3782	555.176	78.7186	555.176	79.1017	555.176	78.7887	555.176	80.0414	555.176	79.3417	555.176	80.828	555.176	80.0726	555.176	81.291	555.176	80.7349	555.176	81.4038	555.176	81.2012
574.219	84.0705	574.219	83.936	574.219	84.0832	574.219	83.6915	574.219	83.9637	574.219	83.3485	574.219	83.7075	574.219	82.9249	574.219	83.3181	574.219	82.4532	574.219	82.8048	574.219	81.9825	574.219	82.1765	574.219	81.5618	574.219	81.4393	574.219	81.2113	574.219	80.6039	574.219	80.8981	574.219	79.7142	574.219	80.5508	574.219	78.8792	574.219	80.1224	574.219	78.2584	574.219	79.6635	574.219	77.9845	574.219	79.3363	574.219	78.1062	574.219	79.3032	574.219	78.5804	574.219	79.5683	574.219	79.2531	574.219	79.9724	574.219	79.899	574.219	80.3214	574.219	80.3323	574.219	80.4692
594.727	83.7365	594.727	83.6326	594.727	83.6999	594.727	83.4173	594.727	83.5182	594.727	83.1229	594.727	83.207	594.727	82.7549	594.727	82.7726	594.727	82.2829	594.727	82.1936	594.727	81.6705	594.727	81.4479	594.727	80.931	594.727	80.569	594.727	80.1598	594.727	79.6743	594.727	79.4657	594.727	78.9144	594.727	78.8636	594.727	78.3604	594.727	78.3323	594.727	77.9583	594.727	77.9737	594.727	77.6485	594.727	77.9905	594.727	77.5153	594.727	78.4318	594.727	77.749	594.727	79.0852	594.727	78.3775	594.727	79.6821	594.727	79.1534	594.727	80.048	594.727	79.7806	594.727	80.0923
615.234	83.8777	615.234	83.7928	615.234	83.84	615.234	83.5656	615.234	83.7015	615.234	83.2086	615.234	83.4573	615.234	82.7704	615.234	83.0716	615.234	82.2943	615.234	82.4986	615.234	81.7593	615.234	81.7088	615.234	81.0953	615.234	80.7067	615.234	80.2845	615.234	79.5612	615.234	79.4253	615.234	78.4628	615.234	78.6533	615.234	77.716	615.234	77.9965	615.234	77.5111	615.234	77.4335	615.234	77.7505	615.234	77.1413	615.234	78.2575	615.234	77.4101	615.234	78.9071	615.234	78.1759	615.234	79.547	615.234	79.0567	615.234	80.0187	615.234	79.7525	615.234	80.2307	615.234	80.1479
637.207	84.0646	637.207	83.8511	637.207	84.1418	637.207	83.5205	637.207	84.0735	637.207	83.0926	637.207	83.8652	637.207	82.5802	637.207	83.5327	637.207	81.9907	637.207	83.0919	637.207	81.3474	637.207	82.5428	637.207	80.7195	637.207	81.8467	637.207	80.2027	637.207	80.9179	637.207	79.8246	637.207	79.6834	637.207	79.4798	637.207	78.2677	637.207	79.0327	637.207	77.1907	637.207	78.5201	637.207	76.9603	637.207	78.2241	637.207	77.3564	637.207	78.4107	637.207	77.9892	637.207	78.9986	637.207	78.7726	637.207	79.6848	637.207	79.5926	637.207	80.211	637.207	80.1985	637.207	80.4119
659.18	85.1297	659.18	84.9435	659.18	85.1805	659.18	84.6159	659.18	85.1139	659.18	84.1732	659.18	84.9281	659.18	83.6738	659.18	84.5941	659.18	83.1934	659.18	84.0887	659.18	82.7923	659.18	83.4308	659.18	82.4653	659.18	82.6726	659.18	82.1151	659.18	81.8456	659.18	81.6014	659.18	80.9332	659.18	80.8307	659.18	79.9455	659.18	79.8366	659.18	79.0453	659.18	78.8996	659.18	78.5311	659.18	78.5968	659.18	78.5843	659.18	79.2535	659.18	79.1538	659.18	80.4196	659.18	80.0826	659.18	81.496	659.18	81.118	659.18	82.1724	659.18	81.945	659.18	82.3282
682.617	85.4941	682.617	85.5306	682.617	85.3298	682.617	85.3526	682.617	85.1243	682.617	84.9199	682.617	84.9254	682.617	84.2875	682.617	84.7197	682.617	83.6148	682.617	84.4415	682.617	83.0578	682.617	84.0202	682.617	82.611	682.617	83.4393	682.617	82.1373	682.617	82.7499	682.617	81.5841	682.617	81.9986	682.617	81.0312	682.617	81.1803	682.617	80.4424	682.617	80.3707	682.617	79.6171	682.617	79.8771	682.617	78.5939	682.617	79.9739	682.617	78.0804	682.617	80.4971	682.617	78.7886	682.617	81.1205	682.617	80.1327	682.617	81.6613	682.617	81.2644	682.617	81.9712	682.617	81.879
707.52	85.5992	707.52	85.2528	707.52	85.6405	707.52	84.5855	707.52	85.4432	707.52	83.6738	707.52	85.0468	707.52	82.6964	707.52	84.4366	707.52	81.8947	707.52	83.622	707.52	81.4341	707.52	82.6925	707.52	81.2848	707.52	81.7486	707.52	81.1958	707.52	80.8369	707.52	80.8967	707.52	80.0628	707.52	80.3796	707.52	79.5659	707.52	79.8775	707.52	79.1421	707.52	79.5357	707.52	78.408	707.52	79.2009	707.52	77.6526	707.52	78.8053	707.52	77.9345	707.52	78.6896	707.52	79.091	707.52	79.1336	707.52	80.0495	707.52	79.8318	707.52	80.448	707.52	80.3404
732.422	85.1077	732.422	84.9074	732.422	85.0339	732.422	84.3748	732.422	84.8656	732.422	83.6491	732.422	84.725	732.422	82.9637	732.422	84.5688	732.422	82.4066	732.422	84.2796	732.422	81.8854	732.422	83.7946	732.422	81.4137	732.422	83.1147	732.422	81.1716	732.422	82.2538	732.422	81.0953	732.422	81.2022	732.422	80.7392	732.422	79.9494	732.422	79.699	732.422	78.7429	732.422	77.9554	732.422	78.3564	732.422	76.2353	732.422	78.9536	732.422	76.3711	732.422	79.6847	732.422	78.4849	732.422	80.308	732.422	80.6216	732.422	81.0923	732.422	81.923	732.422	81.9106	732.422	82.3014
757.324	85.0615	757.324	84.6144	757.324	85.4527	757.324	84.1979	757.324	85.6794	757.324	83.8609	757.324	85.6208	757.324	83.567	757.324	85.2157	757.324	83.1901	757.324	84.5572	757.324	82.6125	757.324	83.8688	757.324	81.8678	757.324	83.3144	757.324	81.2087	757.324	82.8896	757.324	80.9607	757.324	82.4855	757.324	81.1048	757.324	81.8821	757.324	81.1965	757.324	80.8868	757.324	80.8698	757.324	79.8986	757.324	80.0889	757.324	79.9387	757.324	79.0832	757.324	80.8122	757.324	78.3299	757.324	81.4849	757.324	78.4107	757.324	81.6174	757.324	79.3338	757.324	81.2557	757.324	80.4481
785.156	85.6333	785.156	85.4229	785.156	85.6634	785.156	85.0071	785.156	85.5229	785.156	84.4416	785.156	85.1559	785.156	83.8506	785.156	84.549	785.156	83.3362	785.156	83.8337	785.156	82.9485	785.156	83.1692	785.156	82.6764	785.156	82.5249	785.156	82.3952	785.156	81.7359	785.156	81.9728	785.156	80.8467	785.156	81.4541	785.156	80.2564	785.156	81.0271	785.156	80.0737	785.156	80.7998	785.156	79.5719	785.156	80.6767	785.156	78.3455	785.156	80.5561	785.156	77.5854	785.156	80.4986	785.156	78.4545	785.156	80.5728	785.156	79.6635	785.156	80.6821	785.156	80.381	785.156	80.6636
811.523	85.9935	811.523	85.8922	811.523	85.9563	811.523	85.6579	811.523	85.871	811.523	85.387	811.523	85.8123	811.523	85.1802	811.523	85.6937	811.523	85.02	811.523	85.317	811.523	84.751	811.523	84.5991	811.523	84.2463	811.523	83.6662	811.523	83.4887	811.523	82.6524	811.523	82.5786	811.523	81.4798	811.523	81.782	811.523	79.9102	811.523	81.1886	811.523	78.012	811.523	80.3882	811.523	76.9937	811.523	78.996	811.523	77.6965	811.523	77.8339	811.523	78.8121	811.523	78.7241	811.523	79.8236	811.523	80.6147	811.523	80.9618	811.523	81.9079	811.523	81.9427	811.523	82.324
840.82	86.0622	840.82	85.6374	840.82	86.4489	840.82	85.224	840.82	86.7212	840.82	84.9703	840.82	86.6861	840.82	84.9688	840.82	86.234	840.82	85.0559	840.82	85.5858	840.82	84.9752	840.82	85.0879	840.82	84.6469	840.82	84.7014	840.82	84.1602	840.82	84.1277	840.82	83.5224	840.82	83.167	840.82	82.6655	840.82	81.7537	840.82	81.8869	840.82	79.8359	840.82	81.6305	840.82	77.4305	840.82	81.6464	840.82	75.5244	840.82	81.6019	840.82	76.37	840.82	81.6823	840.82	78.6789	840.82	82.0053	840.82	80.5357	840.82	82.2712	840.82	81.6659	840.82	82.1993
870.117	86.8965	870.117	86.9154	870.117	86.762	870.117	86.7525	870.117	86.5412	870.117	86.3327	870.117	86.2677	870.117	85.6566	870.117	86.0192	870.117	84.8973	870.117	85.8047	870.117	84.3323	870.117	85.4036	870.117	84.0152	870.117	84.5287	870.117	83.8247	870.117	83.1704	870.117	83.7302	870.117	81.7428	870.117	83.4928	870.117	80.7973	870.117	82.6803	870.117	80.4665	870.117	81.3033	870.117	80.4046	870.117	80.1407	870.117	80.3296	870.117	79.7618	870.117	80.4583	870.117	79.9756	870.117	81.4069	870.117	80.9691	870.117	82.9199	870.117	82.5279	870.117	83.8825	870.117	83.7165
900.879	88.4276	900.879	88.2323	900.879	88.2952	900.879	87.6694	900.879	87.9043	900.879	86.8878	900.879	87.2421	900.879	86.1525	900.879	86.3366	900.879	85.5038	900.879	85.4444	900.879	84.699	900.879	84.9441	900.879	83.7139	900.879	84.8872	900.879	82.9777	900.879	84.8512	900.879	82.8058	900.879	84.3719	900.879	83.0292	900.879	83.2229	900.879	83.2405	900.879	81.3612	900.879	83.0531	900.879	79.098	900.879	82.3608	900.879	77.8242	900.879	81.5538	900.879	78.6672	900.879	81.3532	900.879	80.4028	900.879	81.9467	900.879	82.0056	900.879	82.7805	900.879	83.0237	900.879	83.256
933.105	88.6825	933.105	88.2951	933.105	88.7341	933.105	87.6912	933.105	88.3832	933.105	87.0726	933.105	87.647	933.105	86.5618	933.105	86.6681	933.105	86.0535	933.105	85.5706	933.105	85.3164	933.105	84.3956	933.105	84.055	933.105	83.2875	933.105	82.3971	933.105	82.4907	933.105	81.2986	933.105	82.1887	933.105	81.3611	933.105	82.2557	933.105	81.7683	933.105	82.1517	933.105	81.6494	933.105	81.3817	933.105	80.7542	933.105	80.0596	933.105	79.8141	933.105	79.3499	933.105	80.3225	933.105	80.5867	933.105	81.9205	933.105	82.669	933.105	83.4003	933.105	84.0253	933.105	84.2182
965.332	88.5293	965.332	88.3074	965.332	88.5637	965.332	87.951	965.332	88.4135	965.332	87.5809	965.332	88.0051	965.332	87.1743	965.332	87.2222	965.332	86.4521	965.332	86.0875	965.332	85.2229	965.332	84.7214	965.332	83.8393	965.332	83.2564	965.332	82.9139	965.332	82.1118	965.332	82.4499	965.332	81.5164	965.332	82.0091	965.332	81.0875	965.332	81.484	965.332	80.3196	965.332	81.1443	965.332	78.8856	965.332	81.2197	965.332	77.3188	965.332	81.5017	965.332	77.6148	965.332	81.6561	965.332	79.661	965.332	81.8591	965.332	81.6259	965.332	82.4526	965.332	82.8039	965.332	83.0031
1,000.49	89.0168	1,000.49	88.7385	1,000.49	89.0846	1,000.49	88.454	1,000.49	89.0298	1,000.49	88.4546	1,000.49	88.8565	1,000.49	88.4153	1,000.49	88.3572	1,000.49	87.6154	1,000.49	87.457	1,000.49	85.8268	1,000.49	86.3903	1,000.49	83.8421	1,000.49	85.4459	1,000.49	82.9906	1,000.49	84.7848	1,000.49	83.0524	1,000.49	84.4119	1,000.49	82.8087	1,000.49	83.8706	1,000.49	82.2311	1,000.49	82.7573	1,000.49	81.5512	1,000.49	81.4881	1,000.49	80.627	1,000.49	80.2132	1,000.49	80.2562	1,000.49	78.6365	1,000.49	81.3715	1,000.49	78.53	1,000.49	82.7266	1,000.49	80.7257	1,000.49	83.5191	1,000.49	82.6913	1,000.49	83.5755
1,035.64	89.311	1,035.64	89.4167	1,035.64	88.9884	1,035.64	89.2765	1,035.64	88.4379	1,035.64	88.9176	1,035.64	87.629	1,035.64	88.2015	1,035.64	86.7499	1,035.64	86.7723	1,035.64	86.0333	1,035.64	84.7724	1,035.64	85.1979	1,035.64	83.0201	1,035.64	83.7247	1,035.64	81.2851	1,035.64	81.6096	1,035.64	78.6383	1,035.64	79.8387	1,035.64	77.8101	1,035.64	79.6624	1,035.64	79.1993	1,035.64	80.0294	1,035.64	80.1336	1,035.64	79.1334	1,035.64	80.6345	1,035.64	76.4364	1,035.64	80.7765	1,035.64	75.3256	1,035.64	80.7119	1,035.64	79.1791	1,035.64	81.5009	1,035.64	81.8693	1,035.64	83.0911	1,035.64	83.3461	1,035.64	83.8785
1,072.27	89.0224	1,072.27	88.8664	1,072.27	89.4405	1,072.27	89.2047	1,072.27	89.6839	1,072.27	89.6973	1,072.27	89.404	1,072.27	89.5741	1,072.27	88.6299	1,072.27	88.3611	1,072.27	87.6497	1,072.27	86.1901	1,072.27	86.5921	1,072.27	83.9404	1,072.27	85.4334	1,072.27	82.5332	1,072.27	84.099	1,072.27	81.9236	1,072.27	82.7264	1,072.27	81.0896	1,072.27	81.6733	1,072.27	80.5048	1,072.27	80.2771	1,072.27	80.4495	1,072.27	79.0355	1,072.27	79.4935	1,072.27	79.2515	1,072.27	77.9962	1,072.27	78.8211	1,072.27	79.2821	1,072.27	77.8036	1,072.27	81.7563	1,072.27	80.7105	1,072.27	83.2241	1,072.27	83.1625	1,072.27	83.7486
1,108.89	89.7319	1,108.89	89.6223	1,108.89	89.5675	1,108.89	89.4132	1,108.89	89.0379	1,108.89	89.2405	1,108.89	88.3053	1,108.89	88.9878	1,108.89	87.6483	1,108.89	88.1861	1,108.89	87.01	1,108.89	86.6539	1,108.89	86.0958	1,108.89	84.9901	1,108.89	84.9021	1,108.89	83.6688	1,108.89	83.6411	1,108.89	82.179	1,108.89	82.4021	1,108.89	80.5868	1,108.89	81.5148	1,108.89	80.2983	1,108.89	81.3841	1,108.89	80.4226	1,108.89	81.2314	1,108.89	79.7878	1,108.89	79.8969	1,108.89	79.7722	1,108.89	78.3063	1,108.89	80.7196	1,108.89	80.0148	1,108.89	81.4703	1,108.89	82.1545	1,108.89	82.0012	1,108.89	82.8102	1,108.89	82.5432
1,148.44	89.5705	1,148.44	89.5223	1,148.44	89.6242	1,148.44	89.574	1,148.44	89.5013	1,148.44	89.68	1,148.44	89.1223	1,148.44	89.5391	1,148.44	88.6895	1,148.44	88.7848	1,148.44	88.222	1,148.44	87.3799	1,148.44	87.1583	1,148.44	85.5894	1,148.44	85.1816	1,148.44	83.9387	1,148.44	83.049	1,148.44	82.9443	1,148.44	81.6587	1,148.44	81.7778	1,148.44	80.6672	1,148.44	80.1603	1,148.44	79.9631	1,148.44	79.3775	1,148.44	79.7159	1,148.44	78.6015	1,148.44	79.2587	1,148.44	76.9072	1,148.44	78.0947	1,148.44	78.729	1,148.44	77.1898	1,148.44	81.8902	1,148.44	79.5966	1,148.44	83.4937	1,148.44	82.5094	1,148.44	83.7587
1,189.45	90.1582	1,189.45	89.7557	1,189.45	89.9845	1,189.45	89.0672	1,189.45	89.3871	1,189.45	88.5662	1,189.45	88.6926	1,189.45	88.0437	1,189.45	88.1577	1,189.45	86.9915	1,189.45	87.6657	1,189.45	85.9536	1,189.45	86.8721	1,189.45	85.5931	1,189.45	85.6938	1,189.45	84.7577	1,189.45	84.2182	1,189.45	83.4784	1,189.45	82.2784	1,189.45	82.7726	1,189.45	79.9516	1,189.45	82.2385	1,189.45	79.384	1,189.45	81.8926	1,189.45	80.6216	1,189.45	81.7531	1,189.45	80.4306	1,189.45	79.8641	1,189.45	78.7057	1,189.45	75.9347	1,189.45	78.7919	1,189.45	77.8814	1,189.45	80.9228	1,189.45	81.8889	1,189.45	83.0896	1,189.45	83.6067
1,230.47	89.7504	1,230.47	89.3556	1,230.47	90.0985	1,230.47	89.1226	1,230.47	90.1363	1,230.47	89.0753	1,230.47	89.4831	1,230.47	88.7623	1,230.47	88.2026	1,230.47	87.8669	1,230.47	86.8655	1,230.47	87.0623	1,230.47	85.8109	1,230.47	86.475	1,230.47	85.0613	1,230.47	84.3023	1,230.47	84.5653	1,230.47	80.9061	1,230.47	83.6782	1,230.47	81.1361	1,230.47	81.8598	1,230.47	81.8966	1,230.47	80.7373	1,230.47	81.0869	1,230.47	80.4799	1,230.47	80.5605	1,230.47	79.4072	1,230.47	80.133	1,230.47	78.6968	1,230.47	79.1095	1,230.47	78.5604	1,230.47	80.1013	1,230.47	79.9327	1,230.47	82.2798	1,230.47	82.3421	1,230.47	83.2285
1,274.41	89.3572	1,274.41	88.9651	1,274.41	89.6791	1,274.41	88.7372	1,274.41	89.5072	1,274.41	88.6803	1,274.41	88.7688	1,274.41	88.4601	1,274.41	87.8482	1,274.41	87.9308	1,274.41	87.0076	1,274.41	87.667	1,274.41	86.2845	1,274.41	87.4878	1,274.41	85.4214	1,274.41	85.6811	1,274.41	83.6719	1,274.41	81.5517	1,274.41	81.4283	1,274.41	79.5313	1,274.41	80.688	1,274.41	81.2572	1,274.41	80.9793	1,274.41	81.3396	1,274.41	81.0175	1,274.41	80.7988	1,274.41	81.0797	1,274.41	80.2485	1,274.41	79.2282	1,274.41	77.788	1,274.41	76.0159	1,274.41	76.6836	1,274.41	79.9711	1,274.41	80.8498	1,274.41	82.6129	1,274.41	82.7456
1,319.82	88.6411	1,319.82	88.6437	1,319.82	89.1245	1,319.82	88.9185	1,319.82	89.6157	1,319.82	88.9684	1,319.82	89.4339	1,319.82	88.5191	1,319.82	88.5272	1,319.82	87.5572	1,319.82	87.2619	1,319.82	86.6359	1,319.82	85.7627	1,319.82	86.1348	1,319.82	84.0932	1,319.82	85.0442	1,319.82	82.8065	1,319.82	83.1524	1,319.82	82.3785	1,319.82	80.764	1,319.82	82.2086	1,319.82	78.4884	1,319.82	82.1722	1,319.82	79.7498	1,319.82	82.528	1,319.82	80.5141	1,319.82	81.7194	1,319.82	78.7403	1,319.82	79.5997	1,319.82	78.0426	1,319.82	78.9396	1,319.82	79.3082	1,319.82	79.1123	1,319.82	80.0135	1,319.82	80.2108	1,319.82	80.5277
1,366.7	88.4964	1,366.7	88.0024	1,366.7	89.2103	1,366.7	88.2381	1,366.7	89.0145	1,366.7	88.1062	1,366.7	87.978	1,366.7	87.0993	1,366.7	86.8784	1,366.7	86.1004	1,366.7	85.9786	1,366.7	85.5893	1,366.7	85.5846	1,366.7	84.5663	1,366.7	85.2935	1,366.7	83.0992	1,366.7	84.1399	1,366.7	81.554	1,366.7	82.7146	1,366.7	79.0896	1,366.7	81.5603	1,366.7	75.9109	1,366.7	81.112	1,366.7	75.4291	1,366.7	80.8515	1,366.7	79.3873	1,366.7	80.0387	1,366.7	81.4628	1,366.7	79.8978	1,366.7	81.0147	1,366.7	78.1308	1,366.7	79.0732	1,366.7	77.7102	1,366.7	78.7129	1,366.7	80.5073	1,366.7	80.3737
1,413.57	88.6039	1,413.57	89.0519	1,413.57	88.3512	1,413.57	88.9996	1,413.57	88.7182	1,413.57	87.9799	1,413.57	89.1276	1,413.57	86.295	1,413.57	88.6724	1,413.57	84.8537	1,413.57	87.4412	1,413.57	84.4326	1,413.57	85.4716	1,413.57	83.3501	1,413.57	83.5042	1,413.57	81.5351	1,413.57	82.3503	1,413.57	78.5889	1,413.57	81.5583	1,413.57	78.8334	1,413.57	81.1411	1,413.57	80.1375	1,413.57	79.7838	1,413.57	80.679	1,413.57	80.1845	1,413.57	81.3265	1,413.57	80.0433	1,413.57	79.0684	1,413.57	75.4846	1,413.57	71.2827	1,413.57	69.4742	1,413.57	78.86	1,413.57	69.6776	1,413.57	82.3859	1,413.57	75.5974	1,413.57	81.0184
1,463.38	90.6829	1,463.38	89.9972	1,463.38	90.7535	1,463.38	88.9753	1,463.38	90.129	1,463.38	87.9382	1,463.38	89.2222	1,463.38	87.1539	1,463.38	88.4835	1,463.38	87.1451	1,463.38	87.6757	1,463.38	86.663	1,463.38	87.0394	1,463.38	84.2583	1,463.38	86.2622	1,463.38	82.1577	1,463.38	83.9034	1,463.38	81.4612	1,463.38	80.6171	1,463.38	78.2825	1,463.38	79.6526	1,463.38	76.4621	1,463.38	79.2954	1,463.38	76.1838	1,463.38	79.3419	1,463.38	77.7482	1,463.38	79.443	1,463.38	80.5412	1,463.38	75.6888	1,463.38	80.0131	1,463.38	73.2173	1,463.38	78.8209	1,463.38	78.0003	1,463.38	81.4636	1,463.38	80.639	1,463.38	82.4924
1,516.11	91.5419	1,516.11	90.9805	1,516.11	91.0624	1,516.11	89.3593	1,516.11	89.866	1,516.11	87.3495	1,516.11	88.7959	1,516.11	86.1578	1,516.11	88.3818	1,516.11	85.3986	1,516.11	88.0543	1,516.11	84.0015	1,516.11	86.862	1,516.11	82.6698	1,516.11	83.6917	1,516.11	82.8233	1,516.11	80.9468	1,516.11	83.2457	1,516.11	79.9543	1,516.11	82.1514	1,516.11	76.5209	1,516.11	80.6917	1,516.11	74.3289	1,516.11	79.1907	1,516.11	75.6859	1,516.11	77.6017	1,516.11	76.1063	1,516.11	77.4783	1,516.11	77.27	1,516.11	79.6573	1,516.11	74.7109	1,516.11	81.1736	1,516.11	75.5345	1,516.11	80.683	1,516.11	78.2138	1,516.11	79.3966
1,568.85	90.213	1,568.85	89.971	1,568.85	90.1948	1,568.85	89.1359	1,568.85	89.7903	1,568.85	88.2003	1,568.85	88.7922	1,568.85	87.611	1,568.85	87.5625	1,568.85	86.278	1,568.85	86.4418	1,568.85	84.8635	1,568.85	85.5198	1,568.85	84.3428	1,568.85	84.8634	1,568.85	83.5343	1,568.85	84.0559	1,568.85	83.8163	1,568.85	83.6892	1,568.85	84.0222	1,568.85	82.4555	1,568.85	82.82	1,568.85	80.6987	1,568.85	80.7873	1,568.85	77.9287	1,568.85	77.7005	1,568.85	78.0399	1,568.85	77.0865	1,568.85	80.4051	1,568.85	79.4237	1,568.85	78.4595	1,568.85	80.6762	1,568.85	75.6336	1,568.85	80.7662	1,568.85	77.3175	1,568.85	79.4234
1,624.51	89.2055	1,624.51	88.8873	1,624.51	89.4695	1,624.51	89.1951	1,624.51	89.1148	1,624.51	89.4652	1,624.51	87.531	1,624.51	88.4932	1,624.51	85.5653	1,624.51	87.0426	1,624.51	85.7015	1,624.51	86.5737	1,624.51	85.9724	1,624.51	85.8933	1,624.51	84.9891	1,624.51	84.3025	1,624.51	84.5174	1,624.51	81.4139	1,624.51	82.9239	1,624.51	77.8552	1,624.51	80.2423	1,624.51	79.4516	1,624.51	79.0876	1,624.51	79.8291	1,624.51	76.1949	1,624.51	77.2264	1,624.51	75.4491	1,624.51	77.3049	1,624.51	74.0281	1,624.51	75.1545	1,624.51	69.7437	1,624.51	74.7771	1,624.51	69.0769	1,624.51	79.726	1,624.51	75.4894	1,624.51	79.8363
1,681.64	88.529	1,681.64	88.7631	1,681.64	88.4573	1,681.64	89.3091	1,681.64	88.6655	1,681.64	89.1468	1,681.64	88.1132	1,681.64	86.661	1,681.64	86.0639	1,681.64	82.8071	1,681.64	83.8158	1,681.64	81.3946	1,681.64	83.1724	1,681.64	83.1687	1,681.64	82.4582	1,681.64	82.0643	1,681.64	82.8928	1,681.64	75.9613	1,681.64	83.714	1,681.64	68.768	1,681.64	81.205	1,681.64	70.3446	1,681.64	79.4123	1,681.64	78.9533	1,681.64	78.2958	1,681.64	81.1492	1,681.64	74.8248	1,681.64	80.05	1,681.64	72.8044	1,681.64	77.6078	1,681.64	65.4078	1,681.64	74.2709	1,681.64	74.2816	1,681.64	74.8896	1,681.64	79.2542	1,681.64	79.2726
1,741.7	90.8271	1,741.7	89.9541	1,741.7	90.1405	1,741.7	88.5546	1,741.7	88.9509	1,741.7	87.93	1,741.7	88.3565	1,741.7	86.7163	1,741.7	87.2879	1,741.7	84.7718	1,741.7	85.6655	1,741.7	84.4848	1,741.7	84.9381	1,741.7	83.6878	1,741.7	84.2691	1,741.7	82.9067	1,741.7	83.7217	1,741.7	82.1441	1,741.7	82.5641	1,741.7	78.1723	1,741.7	80.5532	1,741.7	66.3526	1,741.7	77.3217	1,741.7	76.0134	1,741.7	76.1677	1,741.7	77.4437	1,741.7	80.2682	1,741.7	73.9723	1,741.7	77.939	1,741.7	73.6395	1,741.7	71.9812	1,741.7	78.5829	1,741.7	75.2125	1,741.7	80.7818	1,741.7	77.7043	1,741.7	80.9007
1,803.22	91.3342	1,803.22	91.0911	1,803.22	91.1835	1,803.22	90.5506	1,803.22	90.4895	1,803.22	89.0185	1,803.22	89.3972	1,803.22	86.827	1,803.22	87.3223	1,803.22	85.419	1,803.22	85.1123	1,803.22	83.3061	1,803.22	84.2014	1,803.22	81.5256	1,803.22	83.8857	1,803.22	82.8391	1,803.22	83.2377	1,803.22	83.2052	1,803.22	81.865	1,803.22	81.1478	1,803.22	79.8926	1,803.22	75.9125	1,803.22	80.2786	1,803.22	70.7081	1,803.22	79.0392	1,803.22	78.0938	1,803.22	78.725	1,803.22	77.4041	1,803.22	79.6833	1,803.22	76.039	1,803.22	78.7693	1,803.22	79.1093	1,803.22	75.5778	1,803.22	79.6944	1,803.22	78.6507	1,803.22	80.31
1,866.21	90.6057	1,866.21	90.9562	1,866.21	90.7485	1,866.21	90.8226	1,866.21	90.6783	1,866.21	88.6952	1,866.21	89.8534	1,866.21	86.395	1,866.21	88.3564	1,866.21	86.138	1,866.21	86.6075	1,866.21	84.7828	1,866.21	83.7212	1,866.21	83.388	1,866.21	81.915	1,866.21	82.6449	1,866.21	81.296	1,866.21	79.6406	1,866.21	79.5344	1,866.21	77.7753	1,866.21	80.7023	1,866.21	76.3389	1,866.21	81.725	1,866.21	64.8623	1,866.21	80.0333	1,866.21	74.9755	1,866.21	78.0649	1,866.21	76.9376	1,866.21	78.8951	1,866.21	74.4479	1,866.21	78.9858	1,866.21	77.1366	1,866.21	74.3482	1,866.21	77.1231	1,866.21	76.3127	1,866.21	77.2467
1,932.13	90.3613	1,932.13	90.3873	1,932.13	90.1599	1,932.13	89.5298	1,932.13	89.7124	1,932.13	87.7553	1,932.13	88.6883	1,932.13	86.2106	1,932.13	87.6554	1,932.13	85.6438	1,932.13	86.5069	1,932.13	85.2732	1,932.13	84.0534	1,932.13	84.2593	1,932.13	80.8467	1,932.13	81.702	1,932.13	78.8265	1,932.13	78.7819	1,932.13	77.843	1,932.13	79.3447	1,932.13	80.0815	1,932.13	78.941	1,932.13	81.0235	1,932.13	72.7002	1,932.13	78.3995	1,932.13	73.0355	1,932.13	76.1114	1,932.13	77.65	1,932.13	77.8067	1,932.13	75.2017	1,932.13	77.2346	1,932.13	74.8802	1,932.13	73.5613	1,932.13	76.7901	1,932.13	74.7152	1,932.13	76.341
1,999.51	91.4524	1,999.51	90.5687	1,999.51	90.6591	1,999.51	88.7132	1,999.51	89.1272	1,999.51	87.8782	1,999.51	88.3243	1,999.51	87.6303	1,999.51	87.0965	1,999.51	85.6423	1,999.51	86.4082	1,999.51	84.6589	1,999.51	84.4693	1,999.51	84.6229	1,999.51	80.2023	1,999.51	81.5015	1,999.51	75.6705	1,999.51	74.9237	1,999.51	69.4603	1,999.51	75.3787	1,999.51	75.7979	1,999.51	78.606	1,999.51	78.9104	1,999.51	76.7276	1,999.51	76.3508	1,999.51	68.6082	1,999.51	73.0486	1,999.51	74.6997	1,999.51	73.7593	1,999.51	75.1187	1,999.51	76.201	1,999.51	70.2064	1,999.51	73.8085	1,999.51	75.2519	1,999.51	72.6559	1,999.51	77.2109
2,069.82	91.9895	2,069.82	91.2371	2,069.82	91.0535	2,069.82	89.611	2,069.82	89.0345	2,069.82	88.1303	2,069.82	86.9285	2,069.82	87.2233	2,069.82	85.2107	2,069.82	84.6676	2,069.82	85.1151	2,069.82	83.4417	2,069.82	83.2517	2,069.82	82.0984	2,069.82	80.5391	2,069.82	79.8452	2,069.82	78.9059	2,069.82	81.2435	2,069.82	77.0443	2,069.82	76.7285	2,069.82	74.611	2,069.82	74.6866	2,069.82	75.7421	2,069.82	75.6481	2,069.82	72.5049	2,069.82	70.0466	2,069.82	71.309	2,069.82	72.4462	2,069.82	73.5419	2,069.82	76.4725	2,069.82	75.9636	2,069.82	74.6948	2,069.82	74.112	2,069.82	75.4607	2,069.82	72.6396	2,069.82	75.948
2,143.07	90.9191	2,143.07	90.5982	2,143.07	90.563	2,143.07	90.4458	2,143.07	88.9493	2,143.07	88.8239	2,143.07	86.5954	2,143.07	86.2422	2,143.07	85.1343	2,143.07	84.0091	2,143.07	84.3815	2,143.07	81.9981	2,143.07	82.3511	2,143.07	81.2375	2,143.07	80.977	2,143.07	79.8298	2,143.07	80.0722	2,143.07	78.4909	2,143.07	78.4805	2,143.07	75.6942	2,143.07	75.6364	2,143.07	73.3301	2,143.07	73.6343	2,143.07	74.761	2,143.07	72.2251	2,143.07	71.7176	2,143.07	72.4753	2,143.07	70.229	2,143.07	72.0778	2,143.07	74.838	2,143.07	74.8364	2,143.07	73.0203	2,143.07	72.2205	2,143.07	72.6598	2,143.07	73.4151	2,143.07	74.7232
2,219.24	89.9219	2,219.24	89.694	2,219.24	89.6038	2,219.24	89.8371	2,219.24	88.6075	2,219.24	88.7482	2,219.24	86.732	2,219.24	85.321	2,219.24	84.7946	2,219.24	82.5914	2,219.24	83.356	2,219.24	81.4711	2,219.24	82.0622	2,219.24	78.7118	2,219.24	80.0561	2,219.24	76.3317	2,219.24	76.9395	2,219.24	77.0295	2,219.24	77.4408	2,219.24	73.7287	2,219.24	76.4278	2,219.24	67.1247	2,219.24	74.2348	2,219.24	73.7018	2,219.24	72.8109	2,219.24	72.3609	2,219.24	73.9449	2,219.24	67.0172	2,219.24	72.8201	2,219.24	73.5538	2,219.24	73.9614	2,219.24	72.3271	2,219.24	73.8944	2,219.24	71.2485	2,219.24	72.0573	2,219.24	74.0582
2,296.88	90.6223	2,296.88	90.0807	2,296.88	90.191	2,296.88	89.3905	2,296.88	88.9869	2,296.88	87.9627	2,296.88	86.9104	2,296.88	84.4066	2,296.88	84.7814	2,296.88	82.1298	2,296.88	83.8366	2,296.88	81.5744	2,296.88	82.2948	2,296.88	80.3041	2,296.88	79.6646	2,296.88	79.8727	2,296.88	78.4879	2,296.88	77.6484	2,296.88	78.3442	2,296.88	74.9341	2,296.88	73.5563	2,296.88	72.5447	2,296.88	70.7424	2,296.88	65.1571	2,296.88	72.8976	2,296.88	72.8851	2,296.88	72.7729	2,296.88	68.4035	2,296.88	70.9326	2,296.88	70.6535	2,296.88	71.6564	2,296.88	72.2954	2,296.88	71.39	2,296.88	70.1613	2,296.88	70.1872	2,296.88	71.915
2,378.91	89.9563	2,378.91	90.4458	2,378.91	90.079	2,378.91	89.9936	2,378.91	89.4965	2,378.91	87.492	2,378.91	87.5405	2,378.91	85.8033	2,378.91	84.9692	2,378.91	83.6539	2,378.91	83.016	2,378.91	81.3176	2,378.91	80.6335	2,378.91	80.5722	2,378.91	79.706	2,378.91	76.615	2,378.91	79.8954	2,378.91	73.6225	2,378.91	77.977	2,378.91	72.7154	2,378.91	72.6035	2,378.91	72.289	2,378.91	65.0016	2,378.91	64.8288	2,378.91	66.5949	2,378.91	70.3041	2,378.91	71.3673	2,378.91	70.852	2,378.91	68.4061	2,378.91	69.2566	2,378.91	69.8582	2,378.91	70.728	2,378.91	69.7336	2,378.91	66.1468	2,378.91	66.8313	2,378.91	67.7712
2,462.4	89.4666	2,462.4	89.681	2,462.4	89.2002	2,462.4	89.5975	2,462.4	89.0009	2,462.4	87.9777	2,462.4	87.4317	2,462.4	85.8522	2,462.4	84.8961	2,462.4	83.45	2,462.4	82.276	2,462.4	79.9063	2,462.4	79.7475	2,462.4	77.7789	2,462.4	76.6596	2,462.4	76.3044	2,462.4	72.5988	2,462.4	74.8677	2,462.4	72.7617	2,462.4	71.5408	2,462.4	66.1618	2,462.4	70.1545	2,462.4	65.2135	2,462.4	66.922	2,462.4	68.5061	2,462.4	65.2683	2,462.4	69.7555	2,462.4	68.9535	2,462.4	70.1367	2,462.4	67.3825	2,462.4	68.7873	2,462.4	68.7536	2,462.4	70.9711	2,462.4	65.5136	2,462.4	67.2043	2,462.4	66.3292
2,548.83	89.941	2,548.83	89.6551	2,548.83	89.0799	2,548.83	88.5506	2,548.83	88.1836	2,548.83	87.426	2,548.83	86.126	2,548.83	85.0359	2,548.83	83.5791	2,548.83	80.6837	2,548.83	82.0998	2,548.83	76.1593	2,548.83	79.2687	2,548.83	72.4432	2,548.83	75.9215	2,548.83	68.1747	2,548.83	77.0573	2,548.83	69.9343	2,548.83	74.2078	2,548.83	65.7433	2,548.83	66.1359	2,548.83	66.8718	2,548.83	54.6583	2,548.83	66.9721	2,548.83	71.4121	2,548.83	63.0564	2,548.83	69.5353	2,548.83	68.1201	2,548.83	72.2964	2,548.83	69.4458	2,548.83	70.5027	2,548.83	70.5799	2,548.83	73.1859	2,548.83	70.3932	2,548.83	71.6607	2,548.83	71.0228
2,639.65	88.8539	2,639.65	88.7621	2,639.65	88.3419	2,639.65	87.9328	2,639.65	87.2921	2,639.65	86.5742	2,639.65	84.7016	2,639.65	83.2594	2,639.65	83.5947	2,639.65	79.4995	2,639.65	81.3969	2,639.65	77.932	2,639.65	77.8733	2,639.65	77.1175	2,639.65	80.5009	2,639.65	77.8252	2,639.65	79.8896	2,639.65	75.7404	2,639.65	74.7358	2,639.65	73.3097	2,639.65	75.8923	2,639.65	70.1507	2,639.65	73.0272	2,639.65	67.4349	2,639.65	68.4173	2,639.65	69.2505	2,639.65	71.4836	2,639.65	67.9781	2,639.65	73.63	2,639.65	73.5076	2,639.65	74.2461	2,639.65	74.9599	2,639.65	73.8899	2,639.65	71.4027	2,639.65	72.4868	2,639.65	72.7789
2,731.93	88.1177	2,731.93	87.9306	2,731.93	87.2566	2,731.93	86.9765	2,731.93	86.2272	2,731.93	84.5334	2,731.93	84.4969	2,731.93	81.4636	2,731.93	83.6109	2,731.93	79.39	2,731.93	82.136	2,731.93	77.6183	2,731.93	80.5238	2,731.93	77.4267	2,731.93	79.363	2,731.93	74.3227	2,731.93	77.241	2,731.93	73.1229	2,731.93	74.75	2,731.93	73.7222	2,731.93	78.2676	2,731.93	73.059	2,731.93	75.44	2,731.93	68.7205	2,731.93	70.7629	2,731.93	69.8142	2,731.93	70.8223	2,731.93	68.9789	2,731.93	71.9785	2,731.93	71.1834	2,731.93	73.1688	2,731.93	74.7479	2,731.93	73.8734	2,731.93	73.5985	2,731.93	71.0861	2,731.93	72.5272
2,828.61	86.9292	2,828.61	86.7247	2,828.61	86.8932	2,828.61	85.8517	2,828.61	86.0607	2,828.61	84.2311	2,828.61	84.3947	2,828.61	82.3587	2,828.61	84.0841	2,828.61	80.1277	2,828.61	82.3924	2,828.61	78.3481	2,828.61	80.2537	2,828.61	77.6103	2,828.61	80.4572	2,828.61	76.0442	2,828.61	77.7239	2,828.61	74.2496	2,828.61	76.0346	2,828.61	76.7163	2,828.61	80.2669	2,828.61	73.5018	2,828.61	76.2399	2,828.61	64.5044	2,828.61	61.3175	2,828.61	65.7935	2,828.61	69.6626	2,828.61	67.5621	2,828.61	70.72	2,828.61	69.6981	2,828.61	71.9123	2,828.61	73.3899	2,828.61	72.6141	2,828.61	70.9663	2,828.61	70.8902	2,828.61	70.2513
2,928.22	84.7334	2,928.22	85.1288	2,928.22	85.3449	2,928.22	85.2299	2,928.22	85.0429	2,928.22	84.481	2,928.22	84.324	2,928.22	81.6234	2,928.22	83.4616	2,928.22	78.5384	2,928.22	80.9334	2,928.22	78.6679	2,928.22	80.4508	2,928.22	73.9078	2,928.22	78.5321	2,928.22	74.8899	2,928.22	73.9313	2,928.22	76.3872	2,928.22	78.9427	2,928.22	71.2114	2,928.22	79.7252	2,928.22	72.4191	2,928.22	76.5164	2,928.22	68.611	2,928.22	70.6325	2,928.22	61.0198	2,928.22	65.7718	2,928.22	68.427	2,928.22	70.2234	2,928.22	68.9481	2,928.22	70.9047	2,928.22	72.3806	2,928.22	71.5038	2,928.22	72.6227	2,928.22	69.0544	2,928.22	71.5647
3,030.76	84.6806	3,030.76	84.9237	3,030.76	84.5332	3,030.76	84.9542	3,030.76	84.1691	3,030.76	83.519	3,030.76	83.9997	3,030.76	81.7417	3,030.76	83.0069	3,030.76	80.3744	3,030.76	80.2846	3,030.76	76.084	3,030.76	77.6634	3,030.76	75.5393	3,030.76	74.2593	3,030.76	76.3107	3,030.76	72.8092	3,030.76	72.5845	3,030.76	78.1775	3,030.76	65.7549	3,030.76	77.5584	3,030.76	69.447	3,030.76	74.4994	3,030.76	71.4869	3,030.76	73.223	3,030.76	63.2793	3,030.76	66.9025	3,030.76	66.2773	3,030.76	69.327	3,030.76	65.0379	3,030.76	69.5168	3,030.76	69.6472	3,030.76	71.0861	3,030.76	67.3286	3,030.76	68.9837	3,030.76	65.7596
3,137.7	84.9198	3,137.7	84.9722	3,137.7	84.2354	3,137.7	84.1603	3,137.7	83.7292	3,137.7	83.1147	3,137.7	83.3274	3,137.7	81.9233	3,137.7	82.3988	3,137.7	79.4219	3,137.7	79.9598	3,137.7	77.7794	3,137.7	77.9525	3,137.7	76.6719	3,137.7	72.9106	3,137.7	73.0326	3,137.7	73.5668	3,137.7	68.7023	3,137.7	75.9863	3,137.7	71.3855	3,137.7	72.0999	3,137.7	64.0615	3,137.7	72.0285	3,137.7	68.1298	3,137.7	72.6923	3,137.7	62.2558	3,137.7	64.435	3,137.7	63.9841	3,137.7	66.8253	3,137.7	64.3354	3,137.7	67.409	3,137.7	67.2994	3,137.7	69.5871	3,137.7	64.1682	3,137.7	66.7826	3,137.7	65.0663
3,249.02	84.4038	3,249.02	83.4648	3,249.02	84.3469	3,249.02	83.0353	3,249.02	83.8067	3,249.02	83.3105	3,249.02	82.4318	3,249.02	81.5742	3,249.02	80.6303	3,249.02	79.3512	3,249.02	77.9307	3,249.02	78.2129	3,249.02	75.861	3,249.02	73.8688	3,249.02	73.877	3,249.02	68.7149	3,249.02	74.625	3,249.02	71.0498	3,249.02	72.9385	3,249.02	68.9301	3,249.02	67.1594	3,249.02	61.6561	3,249.02	67.0793	3,249.02	62.6893	3,249.02	70.0635	3,249.02	65.5582	3,249.02	63.9612	3,249.02	56.8019	3,249.02	64.5615	3,249.02	62.841	3,249.02	67.2407	3,249.02	65.2517	3,249.02	67.8323	3,249.02	62.4833	3,249.02	64.5395	3,249.02	63.3327
3,363.28	83.9613	3,363.28	83.65	3,363.28	83.7932	3,363.28	83.0134	3,363.28	83.1241	3,363.28	82.8416	3,363.28	81.3345	3,363.28	81.674	3,363.28	78.57	3,363.28	79.1201	3,363.28	75.7842	3,363.28	77.2253	3,363.28	75.0454	3,363.28	72.5107	3,363.28	73.6433	3,363.28	71.2406	3,363.28	72.6864	3,363.28	70.3701	3,363.28	68.5573	3,363.28	62.4861	3,363.28	63.2201	3,363.28	65.1242	3,363.28	62.754	3,363.28	58.1871	3,363.28	62.7805	3,363.28	64.2985	3,363.28	61.2448	3,363.28	60.2204	3,363.28	61.6685	3,363.28	62.0794	3,363.28	63.6578	3,363.28	64.5049	3,363.28	66.1881	3,363.28	64.8584	3,363.28	63.2262	3,363.28	63.2339
3,481.93	84.3896	3,481.93	83.4801	3,481.93	84.1114	3,481.93	83.3572	3,481.93	82.6403	3,481.93	83.1175	3,481.93	81.0913	3,481.93	81.1559	3,481.93	78.1957	3,481.93	78.9258	3,481.93	75.7914	3,481.93	76.1982	3,481.93	74.9747	3,481.93	74.4572	3,481.93	72.7012	3,481.93	71.6644	3,481.93	69.2484	3,481.93	67.2875	3,481.93	55.8564	3,481.93	65.0976	3,481.93	48.2447	3,481.93	62.3706	3,481.93	55.3072	3,481.93	54.427	3,481.93	58.4216	3,481.93	61.5766	3,481.93	54.2344	3,481.93	57.4393	3,481.93	60.2068	3,481.93	61.1107	3,481.93	51.6197	3,481.93	62.7813	3,481.93	65.5866	3,481.93	61.569	3,481.93	60.723	3,481.93	60.0085
3,604.98	83.7478	3,604.98	83.2607	3,604.98	83.7598	3,604.98	82.6934	3,604.98	82.5004	3,604.98	82.5649	3,604.98	80.7785	3,604.98	81.2976	3,604.98	77.7505	3,604.98	79.0395	3,604.98	77.3172	3,604.98	75.6418	3,604.98	75.6344	3,604.98	72.9435	3,604.98	72.5673	3,604.98	68.9275	3,604.98	63.4306	3,604.98	65.1813	3,604.98	64.5038	3,604.98	64.9695	3,604.98	62.6927	3,604.98	56.3682	3,604.98	56.6457	3,604.98	57.487	3,604.98	46.9304	3,604.98	58.2245	3,604.98	53.1055	3,604.98	59.4913	3,604.98	60.4323	3,604.98	59.696	3,604.98	60.1976	3,604.98	60.3175	3,604.98	62.7431	3,604.98	59.3879	3,604.98	59.8667	3,604.98	57.6128
3,732.42	83.2611	3,732.42	82.53	3,732.42	83.4972	3,732.42	81.8074	3,732.42	82.5302	3,732.42	82.1256	3,732.42	80.9405	3,732.42	80.9057	3,732.42	78.3462	3,732.42	77.6348	3,732.42	78.1753	3,732.42	74.0271	3,732.42	76.5957	3,732.42	69.0758	3,732.42	72.0329	3,732.42	67.3617	3,732.42	68.8844	3,732.42	64.62	3,732.42	69.55	3,732.42	63.5903	3,732.42	67.9351	3,732.42	60.1829	3,732.42	65.6537	3,732.42	52.881	3,732.42	59.9285	3,732.42	55.8384	3,732.42	54.278	3,732.42	55.5885	3,732.42	60.0541	3,732.42	58.914	3,732.42	62.1855	3,732.42	59.2591	3,732.42	62.7038	3,732.42	53.6608	3,732.42	60.8851	3,732.42	51.3035
3,864.26	82.5048	3,864.26	82.2498	3,864.26	83.1041	3,864.26	82.1025	3,864.26	82.6184	3,864.26	81.2935	3,864.26	80.6568	3,864.26	79.2601	3,864.26	78.4217	3,864.26	76.0588	3,864.26	78.8271	3,864.26	71.2908	3,864.26	75.6803	3,864.26	66.4364	3,864.26	71.4649	3,864.26	66.4484	3,864.26	69.6562	3,864.26	64.4165	3,864.26	69.1097	3,864.26	60.7699	3,864.26	69.6876	3,864.26	59.7097	3,864.26	65.7901	3,864.26	54.5587	3,864.26	56.1964	3,864.26	51.7359	3,864.26	54.724	3,864.26	55.3738	3,864.26	51.1573	3,864.26	56.9208	3,864.26	61.721	3,864.26	60.0322	3,864.26	61.971	3,864.26	55.013	3,864.26	58.9901	3,864.26	49.6276
4,000.49	82.1998	4,000.49	82.303	4,000.49	81.8745	4,000.49	81.6849	4,000.49	81.5642	4,000.49	80.4442	4,000.49	79.4292	4,000.49	77.6561	4,000.49	78.5191	4,000.49	75.149	4,000.49	78.6363	4,000.49	71.9753	4,000.49	74.9685	4,000.49	69.5726	4,000.49	69.6435	4,000.49	66.9101	4,000.49	66.7287	4,000.49	60.727	4,000.49	69.6933	4,000.49	63.8175	4,000.49	69.9677	4,000.49	60.0894	4,000.49	61.6646	4,000.49	55.5628	4,000.49	48.3161	4,000.49	51.463	4,000.49	54.7549	4,000.49	55.6102	4,000.49	58.6934	4,000.49	56.69	4,000.49	58.1797	4,000.49	59.4719	4,000.49	58.4431	4,000.49	55.5319	4,000.49	58.09	4,000.49	43.1745
4,141.11	81.1025	4,141.11	82.5925	4,141.11	80.0449	4,141.11	81.611	4,141.11	79.14	4,141.11	79.7297	4,141.11	76.903	4,141.11	78.8453	4,141.11	76.1349	4,141.11	77.0865	4,141.11	76.4596	4,141.11	75.4449	4,141.11	72.2059	4,141.11	71.1727	4,141.11	67.3327	4,141.11	68.7846	4,141.11	66.8726	4,141.11	68.2357	4,141.11	68.7813	4,141.11	65.3482	4,141.11	64.0191	4,141.11	62.3794	4,141.11	42.2123	4,141.11	57.4352	4,141.11	45.9145	4,141.11	53.9296	4,141.11	58.0761	4,141.11	57.2937	4,141.11	56.8053	4,141.11	56.0916	4,141.11	42.4325	4,141.11	59.0119	4,141.11	57.4228	4,141.11	58.6465	4,141.11	47.8647	4,141.11	49.5697
4,287.6	80.7756	4,287.6	80.6784	4,287.6	79.5273	4,287.6	80.5853	4,287.6	77.4155	4,287.6	80.1606	4,287.6	73.6275	4,287.6	78.8927	4,287.6	71.6122	4,287.6	78.1537	4,287.6	67.8523	4,287.6	75.3596	4,287.6	61.4531	4,287.6	71.8345	4,287.6	60.104	4,287.6	69.9547	4,287.6	63.1535	4,287.6	65.2032	4,287.6	61.8494	4,287.6	62.2031	4,287.6	56.8838	4,287.6	61.6248	4,287.6	58.4472	4,287.6	57.6719	4,287.6	37.4682	4,287.6	52.898	4,287.6	53.3999	4,287.6	55.1364	4,287.6	54.3125	4,287.6	54.7926	4,287.6	46.773	4,287.6	55.1336	4,287.6	53.5007	4,287.6	52.0449	4,287.6	43.4387	4,287.6	50.8076
4,438.48	80.0201	4,438.48	79.6471	4,438.48	79.4262	4,438.48	79.0302	4,438.48	77.2393	4,438.48	78.5901	4,438.48	73.251	4,438.48	77.0245	4,438.48	70.4351	4,438.48	74.991	4,438.48	63.135	4,438.48	73.4735	4,438.48	55.0166	4,438.48	70.1986	4,438.48	60.6104	4,438.48	67.2165	4,438.48	59.527	4,438.48	63.7312	4,438.48	51.5007	4,438.48	62.2683	4,438.48	53.0302	4,438.48	56.4794	4,438.48	56.8928	4,438.48	56.9976	4,438.48	40.0623	4,438.48	45.9929	4,438.48	52.0934	4,438.48	44.5093	4,438.48	51.6893	4,438.48	49.0363	4,438.48	54.1814	4,438.48	50.9343	4,438.48	54.4365	4,438.48	50.1825	4,438.48	52.1978	4,438.48	50.2312
4,595.21	80.8275	4,595.21	79.8692	4,595.21	80.548	4,595.21	78.4836	4,595.21	77.8365	4,595.21	78.2288	4,595.21	74.3843	4,595.21	75.5088	4,595.21	71.221	4,595.21	72.5065	4,595.21	63.0126	4,595.21	71.0914	4,595.21	64.0627	4,595.21	67.9	4,595.21	67.6288	4,595.21	65.1888	4,595.21	63.6287	4,595.21	64.5159	4,595.21	60.1267	4,595.21	62.2756	4,595.21	59.0159	4,595.21	59.8434	4,595.21	59.3202	4,595.21	57.4506	4,595.21	53.7168	4,595.21	49.5185	4,595.21	53.6183	4,595.21	48.5985	4,595.21	58.1781	4,595.21	55.407	4,595.21	60.2059	4,595.21	58.4285	4,595.21	58.2458	4,595.21	56.13	4,595.21	62.7503	4,595.21	50.8704
4,756.35	82.0292	4,756.35	81.8772	4,756.35	82.2491	4,756.35	80.8691	4,756.35	81.2897	4,756.35	79.0359	4,756.35	78.073	4,756.35	74.5029	4,756.35	71.1466	4,756.35	67.6139	4,756.35	62.8217	4,756.35	70.7788	4,756.35	70.972	4,756.35	69.113	4,756.35	72.7322	4,756.35	68.5432	4,756.35	69.1468	4,756.35	67.0487	4,756.35	69.8592	4,756.35	65.1467	4,756.35	65.8669	4,756.35	63.2344	4,756.35	52.0557	4,756.35	63.2283	4,756.35	61.3841	4,756.35	47.4018	4,756.35	60.8564	4,756.35	53.865	4,756.35	62.7539	4,756.35	63.8112	4,756.35	65.4625	4,756.35	64.4181	4,756.35	64.1287	4,756.35	58.864	4,756.35	68.2107	4,756.35	45.5118
4,924.8	85.0163	4,924.8	87.2177	4,924.8	86.708	4,924.8	86.0292	4,924.8	86.3732	4,924.8	79.4567	4,924.8	80.9103	4,924.8	73.6771	4,924.8	73.2577	4,924.8	52.4305	4,924.8	64.4889	4,924.8	73.029	4,924.8	77.0805	4,924.8	74.286	4,924.8	73.3529	4,924.8	73.6764	4,924.8	73.0926	4,924.8	70.0277	4,924.8	74.8588	4,924.8	71.1312	4,924.8	73.1271	4,924.8	68.0084	4,924.8	70.8024	4,924.8	66.9221	4,924.8	58.5721	4,924.8	56.1917	4,924.8	64.7382	4,924.8	54.706	4,924.8	66.672	4,924.8	67.1746	4,924.8	68.3951	4,924.8	68.6018	4,924.8	71.011	4,924.8	68.6581	4,924.8	71.2322	4,924.8	56.5863
5,097.66	90.4573	5,097.66	91.5374	5,097.66	90.7735	5,097.66	90.4396	5,097.66	90.5915	5,097.66	84.252	5,097.66	84.7294	5,097.66	75.2753	5,097.66	75.1398	5,097.66	69.6893	5,097.66	75.0888	5,097.66	77.634	5,097.66	81.1511	5,097.66	79.6262	5,097.66	76.0951	5,097.66	74.988	5,097.66	78.8644	5,097.66	76.1899	5,097.66	77.256	5,097.66	74.4696	5,097.66	77.1207	5,097.66	72.05	5,097.66	77.3398	5,097.66	69.457	5,097.66	70.7833	5,097.66	66.7478	5,097.66	63.8086	5,097.66	60.3602	5,097.66	68.3945	5,097.66	69.5842	5,097.66	70.8589	5,097.66	73.2843	5,097.66	74.3183	5,097.66	72.657	5,097.66	72.4328	5,097.66	61.9238
5,277.83	93.1284	5,277.83	92.7037	5,277.83	92.6654	5,277.83	91.3734	5,277.83	91.9709	5,277.83	86.1545	5,277.83	86.9627	5,277.83	73.2399	5,277.83	75.9415	5,277.83	72.8983	5,277.83	81.5992	5,277.83	80.1092	5,277.83	79.6444	5,277.83	79.6668	5,277.83	80.7609	5,277.83	78.5755	5,277.83	80.9198	5,277.83	78.4814	5,277.83	78.1074	5,277.83	75.2626	5,277.83	79.1328	5,277.83	74.6165	5,277.83	79.92	5,277.83	66.8346	5,277.83	71.3659	5,277.83	65.3716	5,277.83	64.3346	5,277.83	65.7445	5,277.83	64.7063	5,277.83	68.2542	5,277.83	71.3641	5,277.83	75.6922	5,277.83	72.3112	5,277.83	71.7712	5,277.83	74.8613	5,277.83	65.1974
5,463.87	92.3315	5,463.87	91.3946	5,463.87	91.5121	5,463.87	89.0706	5,463.87	90.4323	5,463.87	86.4404	5,463.87	84.9086	5,463.87	76.6347	5,463.87	75.5706	5,463.87	73.7432	5,463.87	80.8659	5,463.87	78.5371	5,463.87	77.8128	5,463.87	80.8387	5,463.87	78.3827	5,463.87	77.2009	5,463.87	75.9056	5,463.87	74.9955	5,463.87	72.7715	5,463.87	74.8799	5,463.87	74.7136	5,463.87	69.56	5,463.87	75.976	5,463.87	70.5333	5,463.87	67.3822	5,463.87	62.7227	5,463.87	66.1862	5,463.87	59.3363	5,463.87	63.2086	5,463.87	66.953	5,463.87	69.1797	5,463.87	73.648	5,463.87	71.5391	5,463.87	70.0532	5,463.87	71.7571	5,463.87	65.1547
5,657.23	89.8192	5,657.23	87.5997	5,657.23	89.0437	5,657.23	86.0238	5,657.23	86.4887	5,657.23	83.7667	5,657.23	82.2834	5,657.23	75.5668	5,657.23	75.4563	5,657.23	71.965	5,657.23	75.8922	5,657.23	77.0633	5,657.23	74.9562	5,657.23	76.9769	5,657.23	76.1274	5,657.23	73.1578	5,657.23	69.5865	5,657.23	73.3803	5,657.23	67.8697	5,657.23	71.0379	5,657.23	70.5097	5,657.23	68.9349	5,657.23	72.3421	5,657.23	64.4961	5,657.23	66.3136	5,657.23	58.5504	5,657.23	63.3865	5,657.23	36.0593	5,657.23	55.6519	5,657.23	63.1425	5,657.23	64.0141	5,657.23	68.648	5,657.23	69.0896	5,657.23	62.3903	5,657.23	67.7176	5,657.23	54.5296
5,856.45	87.4212	5,856.45	84.7348	5,856.45	85.9482	5,856.45	82.5683	5,856.45	82.8147	5,856.45	79.3005	5,856.45	79.8133	5,856.45	74.5794	5,856.45	73.7386	5,856.45	72.8993	5,856.45	71.0766	5,856.45	75.0777	5,856.45	71.2878	5,856.45	74.3185	5,856.45	72.0552	5,856.45	72.2103	5,856.45	69.6885	5,856.45	69.2384	5,856.45	68.5064	5,856.45	67.9947	5,856.45	66.7358	5,856.45	65.2799	5,856.45	67.7854	5,856.45	62.6157	5,856.45	61.6818	5,856.45	53.2844	5,856.45	55.731	5,856.45	46.0692	5,856.45	56.468	5,856.45	56.5719	5,856.45	59.9312	5,856.45	63.6266	5,856.45	64.7697	5,856.45	60.3401	5,856.45	66.8502	5,856.45	47.2122
6,062.99	83.8722	6,062.99	82.5064	6,062.99	82.1811	6,062.99	79.8726	6,062.99	80.4096	6,062.99	77.6177	6,062.99	75.7931	6,062.99	73.5746	6,062.99	71.3564	6,062.99	71.7394	6,062.99	68.166	6,062.99	72.5504	6,062.99	67.9202	6,062.99	71.6246	6,062.99	68.1857	6,062.99	65.8609	6,062.99	66.7283	6,062.99	64.3542	6,062.99	63.9043	6,062.99	64.2231	6,062.99	62.0327	6,062.99	61.4251	6,062.99	66.4172	6,062.99	57.423	6,062.99	58.2003	6,062.99	52.9925	6,062.99	40.7853	6,062.99	43.452	6,062.99	56.9914	6,062.99	53.9303	6,062.99	40.0963	6,062.99	57.0538	6,062.99	57.6431	6,062.99	58.7017	6,062.99	61.9422	6,062.99	46.4603
6,276.86	81.746	6,276.86	81.0355	6,276.86	81.121	6,276.86	78.9273	6,276.86	77.8994	6,276.86	76.2318	6,276.86	72.7489	6,276.86	71.7479	6,276.86	70.3456	6,276.86	67.3827	6,276.86	63.0128	6,276.86	67.5936	6,276.86	60.5805	6,276.86	63.1108	6,276.86	59.5765	6,276.86	60.599	6,276.86	59.9994	6,276.86	56.7526	6,276.86	53.5129	6,276.86	55.6204	6,276.86	58.8372	6,276.86	54.0124	6,276.86	60.2716	6,276.86	48.8232	6,276.86	53.2482	6,276.86	46.1536	6,276.86	40.0464	6,276.86	40.085	6,276.86	45.0128	6,276.86	49.4147	6,276.86	44.0349	6,276.86	52.0512	6,276.86	51.7358	6,276.86	51.684	6,276.86	53.9272	6,276.86	38.0757
6,498.05	84.0381	6,498.05	83.0063	6,498.05	82.8698	6,498.05	79.7913	6,498.05	79.4927	6,498.05	73.985	6,498.05	72.7991	6,498.05	66.4488	6,498.05	54.621	6,498.05	60.4058	6,498.05	63.0611	6,498.05	53.3511	6,498.05	64.6733	6,498.05	53.0222	6,498.05	63.6634	6,498.05	45.0198	6,498.05	56.2397	6,498.05	48.1146	6,498.05	55.9729	6,498.05	43.4771	6,498.05	58.8004	6,498.05	41.3875	6,498.05	55.5391	6,498.05	44.5596	6,498.05	46.8335	6,498.05	22.98	6,498.05	45.5897	6,498.05	40.5834	6,498.05	44.4194	6,498.05	41.4399	6,498.05	49.75	6,498.05	47.2781	6,498.05	52.8472	6,498.05	43.854	6,498.05	45.9074	6,498.05	45.4919
6,726.56	87.7877	6,726.56	86.6196	6,726.56	86.5053	6,726.56	82.3604	6,726.56	80.962	6,726.56	74.0566	6,726.56	65.4594	6,726.56	62.5654	6,726.56	71.1347	6,726.56	70.863	6,726.56	72.4776	6,726.56	68.7115	6,726.56	72.2991	6,726.56	68.8872	6,726.56	67.7414	6,726.56	66.0085	6,726.56	62.6052	6,726.56	61.2572	6,726.56	59.3801	6,726.56	58.9816	6,726.56	59.7213	6,726.56	58.8008	6,726.56	62.7372	6,726.56	52.8554	6,726.56	54.8432	6,726.56	51.5498	6,726.56	51.0748	6,726.56	35.9276	6,726.56	54.4601	6,726.56	48.1779	6,726.56	54.2555	6,726.56	55.8184	6,726.56	58.2166	6,726.56	53.2303	6,726.56	57.8474	6,726.56	52.8993
6,963.87	90.2114	6,963.87	89.6354	6,963.87	89.4504	6,963.87	84.9416	6,963.87	81.9353	6,963.87	75.9861	6,963.87	68.2238	6,963.87	70.8095	6,963.87	75.2047	6,963.87	76.029	6,963.87	75.7178	6,963.87	72.2132	6,963.87	73.7103	6,963.87	73.0469	6,963.87	67.307	6,963.87	67.2897	6,963.87	70.0893	6,963.87	66.0837	6,963.87	62.3183	6,963.87	62.4902	6,963.87	61.5953	6,963.87	63.2221	6,963.87	67.1187	6,963.87	53.0163	6,963.87	56.8148	6,963.87	57.6781	6,963.87	54.4244	6,963.87	39.601	6,963.87	51.5391	6,963.87	57.707	6,963.87	58.0245	6,963.87	61.7254	6,963.87	61.5048	6,963.87	55.3759	6,963.87	61.2978	6,963.87	58.0786
7,209.96	89.4713	7,209.96	89.1219	7,209.96	88.1897	7,209.96	83.7681	7,209.96	80.8661	7,209.96	73.3936	7,209.96	73.8876	7,209.96	73.3325	7,209.96	75.0327	7,209.96	76.6204	7,209.96	77.682	7,209.96	74.0135	7,209.96	72.1019	7,209.96	73.0741	7,209.96	71.763	7,209.96	70.0006	7,209.96	70.4594	7,209.96	67.1064	7,209.96	65.1367	7,209.96	62.3038	7,209.96	67.7318	7,209.96	64.6225	7,209.96	68.4043	7,209.96	58.3416	7,209.96	63.9473	7,209.96	62.2173	7,209.96	53.1983	7,209.96	41.9443	7,209.96	52.3031	7,209.96	58.463	7,209.96	58.8038	7,209.96	60.6493	7,209.96	57.8599	7,209.96	55.2045	7,209.96	60.1415	7,209.96	56.0785
7,464.84	85.4774	7,464.84	84.6122	7,464.84	84.3069	7,464.84	79.013	7,464.84	80.0556	7,464.84	71.9376	7,464.84	75.5857	7,464.84	72.1215	7,464.84	73.0686	7,464.84	73.3369	7,464.84	74.8882	7,464.84	70.5885	7,464.84	68.2658	7,464.84	68.1145	7,464.84	70.9508	7,464.84	62.166	7,464.84	62.9146	7,464.84	57.6156	7,464.84	59.9568	7,464.84	57.8912	7,464.84	64.889	7,464.84	57.6014	7,464.84	65.9781	7,464.84	56.1333	7,464.84	62.1024	7,464.84	57.7206	7,464.84	52.2606	7,464.84	44.3602	7,464.84	55.2614	7,464.84	53.5797	7,464.84	53.1844	7,464.84	53.2491	7,464.84	55.0368	7,464.84	47.1956	7,464.84	53.9477	7,464.84	46.7384
7,727.05	83.3726	7,727.05	81.1367	7,727.05	82.4576	7,727.05	74.7925	7,727.05	78.8171	7,727.05	71.1749	7,727.05	74.1651	7,727.05	70.2087	7,727.05	72.2023	7,727.05	70.5088	7,727.05	72.2048	7,727.05	65.3375	7,727.05	67.0771	7,727.05	62.0352	7,727.05	66.3705	7,727.05	60.6274	7,727.05	53.4454	7,727.05	52.5147	7,727.05	54.7959	7,727.05	55.5925	7,727.05	61.0596	7,727.05	51.3691	7,727.05	64.3756	7,727.05	53.6829	7,727.05	60.2907	7,727.05	52.1397	7,727.05	54.0682	7,727.05	43.2366	7,727.05	52.2974	7,727.05	49.2475	7,727.05	43.4756	7,727.05	46.8433	7,727.05	49.2	7,727.05	48.3972	7,727.05	49.7474	7,727.05	39.6803
7,999.51	81.3551	7,999.51	79.894	7,999.51	79.8746	7,999.51	76.0502	7,999.51	76.0869	7,999.51	73.0077	7,999.51	70.237	7,999.51	69.5395	7,999.51	69.1463	7,999.51	68.8379	7,999.51	66.8587	7,999.51	63.3777	7,999.51	63.0309	7,999.51	61.0558	7,999.51	56.1711	7,999.51	59.3605	7,999.51	47.8808	7,999.51	55.7968	7,999.51	49.4621	7,999.51	55.5705	7,999.51	54.5977	7,999.51	50.4197	7,999.51	59.4219	7,999.51	51.3083	7,999.51	54.5987	7,999.51	45.2393	7,999.51	48.9075	7,999.51	43.7804	7,999.51	38.317	7,999.51	44.4619	7,999.51	41.7997	7,999.51	41.5381	7,999.51	30.5921	7,999.51	33.7078	7,999.51	33.9715	7,999.51	31.3
8,282.23	82.8134	8,282.23	81.7336	8,282.23	80.7398	8,282.23	77.0053	8,282.23	75.5106	8,282.23	71.629	8,282.23	67.0826	8,282.23	65.4111	8,282.23	62.8947	8,282.23	66.0432	8,282.23	57.2891	8,282.23	58.6372	8,282.23	54.6268	8,282.23	55.1764	8,282.23	53.3361	8,282.23	52.248	8,282.23	56.6453	8,282.23	47.7678	8,282.23	49.0979	8,282.23	50.7998	8,282.23	49.4293	8,282.23	47.1196	8,282.23	54.9786	8,282.23	48.2081	8,282.23	52.4647	8,282.23	43.9588	8,282.23	49.3157	8,282.23	29.9775	8,282.23	44.7553	8,282.23	29.4947	8,282.23	46.4221	8,282.23	43.314	8,282.23	42.4919	8,282.23	41.4441	8,282.23	49.6362	8,282.23	42.0123
8,573.73	86.8764	8,573.73	85.4636	8,573.73	84.0485	8,573.73	79.4139	8,573.73	77.4707	8,573.73	72.175	8,573.73	67.1082	8,573.73	69.7563	8,573.73	67.442	8,573.73	67.5607	8,573.73	62.4787	8,573.73	62.8518	8,573.73	66.7133	8,573.73	60.9763	8,573.73	65.6027	8,573.73	63.2588	8,573.73	65.7731	8,573.73	61.1352	8,573.73	52.2519	8,573.73	57.7101	8,573.73	53.5092	8,573.73	55.3583	8,573.73	63.8679	8,573.73	57.114	8,573.73	62.6209	8,573.73	42.3588	8,573.73	53.0832	8,573.73	46.9552	8,573.73	54.415	8,573.73	39.2939	8,573.73	52.5081	8,573.73	47.5224	8,573.73	54.5989	8,573.73	51.22	8,573.73	55.5053	8,573.73	51.335
8,876.95	87.1328	8,876.95	85.5047	8,876.95	83.6048	8,876.95	79.8108	8,876.95	77.729	8,876.95	71.6815	8,876.95	71.7255	8,876.95	73.3578	8,876.95	72.0172	8,876.95	66.5123	8,876.95	70.3207	8,876.95	71.2247	8,876.95	68.8799	8,876.95	67.4709	8,876.95	69.034	8,876.95	66.9606	8,876.95	63.6836	8,876.95	64.0616	8,876.95	57.5346	8,876.95	59.4273	8,876.95	62.1567	8,876.95	57.1539	8,876.95	66.8577	8,876.95	60.0756	8,876.95	66.8332	8,876.95	46.391	8,876.95	53.353	8,876.95	48.836	8,876.95	56.9226	8,876.95	38.6261	8,876.95	48.4873	8,876.95	33.5832	8,876.95	55.1943	8,876.95	52.9167	8,876.95	53.3613	8,876.95	53.3279
9,188.96	82.8233	9,188.96	81.0984	9,188.96	80.3134	9,188.96	77.6389	9,188.96	74.1459	9,188.96	73.7745	9,188.96	72.4952	9,188.96	71.4788	9,188.96	69.5007	9,188.96	67.7648	9,188.96	69.3208	9,188.96	71.7255	9,188.96	68.0922	9,188.96	67.7649	9,188.96	67.9265	9,188.96	66.2922	9,188.96	61.8343	9,188.96	63.2178	9,188.96	53.5373	9,188.96	59.0458	9,188.96	61.7445	9,188.96	55.9061	9,188.96	65.9005	9,188.96	57.9184	9,188.96	65.1393	9,188.96	47.7833	9,188.96	56.099	9,188.96	46.989	9,188.96	51.4909	9,188.96	41.9406	9,188.96	46.4404	9,188.96	37.5205	9,188.96	46.6974	9,188.96	49.9236	9,188.96	54.6593	9,188.96	49.1527
9,514.16	78.8339	9,514.16	78.8005	9,514.16	77.7131	9,514.16	76.2857	9,514.16	74.2679	9,514.16	73.8446	9,514.16	71.8498	9,514.16	67.2698	9,514.16	67.874	9,514.16	66.9691	9,514.16	65.9463	9,514.16	68.464	9,514.16	65.5377	9,514.16	64.7741	9,514.16	63.608	9,514.16	61.7213	9,514.16	57.7007	9,514.16	59.7347	9,514.16	44.3529	9,514.16	54.2775	9,514.16	58.423	9,514.16	51.3137	9,514.16	62.7329	9,514.16	50.3711	9,514.16	59.165	9,514.16	42.9862	9,514.16	50.4878	9,514.16	44.5143	9,514.16	45.4795	9,514.16	40.3265	9,514.16	39.7229	9,514.16	38.5036	9,514.16	37.6189	9,514.16	45.1352	9,514.16	50.7378	9,514.16	39.192
9,849.61	77.7667	9,849.61	78.2129	9,849.61	77.3284	9,849.61	76.74	9,849.61	75.1955	9,849.61	73.2792	9,849.61	70.352	9,849.61	65.6313	9,849.61	64.8046	9,849.61	66.6397	9,849.61	63.5827	9,849.61	64.5854	9,849.61	63.569	9,849.61	61.0417	9,849.61	59.522	9,849.61	56.3056	9,849.61	53.4122	9,849.61	52.9116	9,849.61	43.1917	9,849.61	47.101	9,849.61	53.4245	9,849.61	45.7316	9,849.61	58.253	9,849.61	42.5172	9,849.61	56.6	9,849.61	31.0539	9,849.61	45.9187	9,849.61	38.5504	9,849.61	40.8006	9,849.61	29.4712	9,849.61	38.5477	9,849.61	39.083	9,849.61	40.5477	9,849.61	30.517	9,849.61	43.2777	9,849.61	40.4047
10,196.8	79.342	10,196.8	79.723	10,196.8	78.1806	10,196.8	77.6626	10,196.8	75.8566	10,196.8	72.7388	10,196.8	69.7659	10,196.8	65.7206	10,196.8	64.2325	10,196.8	66.0987	10,196.8	63.9389	10,196.8	62.3967	10,196.8	62.4001	10,196.8	58.1674	10,196.8	59.1761	10,196.8	52.4533	10,196.8	54.2941	10,196.8	48.121	10,196.8	43.4352	10,196.8	44.6048	10,196.8	53.7478	10,196.8	45.7288	10,196.8	57.8555	10,196.8	40.4953	10,196.8	55.2421	10,196.8	33.7618	10,196.8	43.1573	10,196.8	39.4247	10,196.8	20.7589	10,196.8	24.5137	10,196.8	35.5223	10,196.8	37.9929	10,196.8	40.8131	10,196.8	30.4612	10,196.8	35.0173	10,196.8	38.5545
10,555.7	77.9127	10,555.7	79.8735	10,555.7	77.3868	10,555.7	79.6373	10,555.7	75.8598	10,555.7	74.9903	10,555.7	68.5975	10,555.7	68.9503	10,555.7	65.9479	10,555.7	68.2746	10,555.7	67.7029	10,555.7	63.4781	10,555.7	64.166	10,555.7	59.8544	10,555.7	61.9665	10,555.7	56.2835	10,555.7	53.2021	10,555.7	52.4797	10,555.7	37.599	10,555.7	49.1183	10,555.7	54.0472	10,555.7	49.2695	10,555.7	59.1454	10,555.7	43.7081	10,555.7	56.0204	10,555.7	43.843	10,555.7	45.8241	10,555.7	36.8642	10,555.7	29.6772	10,555.7	34.7224	10,555.7	42.2733	10,555.7	32.5453	10,555.7	42.8609	10,555.7	35.2672	10,555.7	43.3639	10,555.7	26.8545
10,927.7	79.7302	10,927.7	78.3658	10,927.7	78.1032	10,927.7	78.6393	10,927.7	73.644	10,927.7	74.9002	10,927.7	62.6247	10,927.7	70.355	10,927.7	67.9052	10,927.7	69.4927	10,927.7	69.276	10,927.7	65.5976	10,927.7	66.8397	10,927.7	64.7918	10,927.7	63.4026	10,927.7	60.4633	10,927.7	57.49	10,927.7	57.6883	10,927.7	51.9225	10,927.7	54.2033	10,927.7	45.2689	10,927.7	53.119	10,927.7	58.5366	10,927.7	48.9428	10,927.7	58.2955	10,927.7	48.7622	10,927.7	50.5287	10,927.7	44.7424	10,927.7	43.0361	10,927.7	42.5122	10,927.7	43.8842	10,927.7	38.0862	10,927.7	41.3135	10,927.7	43.1032	10,927.7	50.4357	10,927.7	46.2452
11,313	83.333	11,313	79.8009	11,313	80.1921	11,313	71.3241	11,313	71.1095	11,313	67.1074	11,313	63.1081	11,313	65.7799	11,313	64.6735	11,313	65.3154	11,313	65.4558	11,313	63.7151	11,313	62.9189	11,313	63.3185	11,313	56.6172	11,313	58.0355	11,313	56.9483	11,313	55.0656	11,313	51.2219	11,313	52.4328	11,313	47.935	11,313	50.7952	11,313	57.2978	11,313	46.4053	11,313	57.2154	11,313	46.2001	11,313	50.7338	11,313	45.4285	11,313	47.6648	11,313	45.6689	11,313	27.6704	11,313	29.3335	11,313	39.2054	11,313	44.0734	11,313	51.4041	11,313	49.3166
11,712.9	83.5766	11,712.9	80.7009	11,712.9	79.8636	11,712.9	71.5118	11,712.9	70.311	11,712.9	64.5648	11,712.9	61.5982	11,712.9	63.9403	11,712.9	63.6276	11,712.9	61.7114	11,712.9	64.4599	11,712.9	61.932	11,712.9	61.6875	11,712.9	60.1134	11,712.9	60.5514	11,712.9	54.4308	11,712.9	56.6941	11,712.9	51.9723	11,712.9	54.7719	11,712.9	50.2687	11,712.9	54.7183	11,712.9	49.4887	11,712.9	58.8893	11,712.9	45.737	11,712.9	56.7079	11,712.9	44.9686	11,712.9	47.4248	11,712.9	42.2479	11,712.9	42.6131	11,712.9	41.728	11,712.9	40.4863	11,712.9	34.8886	11,712.9	44.4972	11,712.9	43.4675	11,712.9	49.7283	11,712.9	46.5632
12,126	82.8692	12,126	80.5798	12,126	79.7369	12,126	72.7194	12,126	71.0514	12,126	66.0271	12,126	62.253	12,126	62.6937	12,126	61.0555	12,126	60.0475	12,126	62.602	12,126	62.1836	12,126	58.7791	12,126	59.7685	12,126	60.5642	12,126	56.0063	12,126	55.944	12,126	53.3567	12,126	54.6223	12,126	49.0827	12,126	54.5525	12,126	48.2452	12,126	58.6439	12,126	48.3685	12,126	57.4096	12,126	45.8607	12,126	43.9306	12,126	39.6517	12,126	42.0384	12,126	41.7727	12,126	31.1889	12,126	41.6639	12,126	43.1483	12,126	37.3835	12,126	48.2651	12,126	40.4615
12,553.7	82.2113	12,553.7	79.9355	12,553.7	78.85	12,553.7	72.3035	12,553.7	71.2133	12,553.7	66.6534	12,553.7	61.8234	12,553.7	64.5746	12,553.7	62.823	12,553.7	63.0109	12,553.7	61.7819	12,553.7	63.541	12,553.7	61.6058	12,553.7	59.1431	12,553.7	58.7001	12,553.7	54.3477	12,553.7	56.6556	12,553.7	52.1358	12,553.7	55.7011	12,553.7	48.0079	12,553.7	57.2043	12,553.7	47.2771	12,553.7	60.9623	12,553.7	47.7295	12,553.7	58.7327	12,553.7	38.5601	12,553.7	47.7625	12,553.7	38.9113	12,553.7	34.7963	12,553.7	38.7549	12,553.7	42.6702	12,553.7	40.1742	12,553.7	38.7944	12,553.7	35.0733	12,553.7	41.6104	12,553.7	42.4393
12,996.1	80.873	12,996.1	78.4274	12,996.1	77.5121	12,996.1	69.4377	12,996.1	69.7675	12,996.1	63.912	12,996.1	62.4327	12,996.1	64.091	12,996.1	65.1087	12,996.1	61.9814	12,996.1	61.2193	12,996.1	59.3886	12,996.1	59.489	12,996.1	54.3154	12,996.1	55.8082	12,996.1	47.3745	12,996.1	53.3066	12,996.1	49.8698	12,996.1	54.7961	12,996.1	41.5077	12,996.1	57.1201	12,996.1	46.0565	12,996.1	59.9283	12,996.1	42.4529	12,996.1	57.9571	12,996.1	34.3355	12,996.1	46.2252	12,996.1	35.4047	12,996.1	30.8456	12,996.1	30.0718	12,996.1	42.3596	12,996.1	33.1952	12,996.1	40.5015	12,996.1	33.0759	12,996.1	44.2506	12,996.1	36.227
13,454.6	79.2299	13,454.6	77.6218	13,454.6	76.7458	13,454.6	68.9534	13,454.6	69.6517	13,454.6	59.59	13,454.6	60.0505	13,454.6	61.6112	13,454.6	62.7422	13,454.6	57.5238	13,454.6	55.9474	13,454.6	50.3987	13,454.6	58.1396	13,454.6	51.3517	13,454.6	55.6688	13,454.6	49.8851	13,454.6	54.2631	13,454.6	47.7547	13,454.6	53.3215	13,454.6	42.4062	13,454.6	55.7974	13,454.6	43.1573	13,454.6	58.0525	13,454.6	41.5383	13,454.6	56.314	13,454.6	33.5848	13,454.6	43.7742	13,454.6	29.1306	13,454.6	29.5838	13,454.6	35.7382	13,454.6	33.9358	13,454.6	34.6742	13,454.6	35.158	13,454.6	30.6943	13,454.6	42.4497	13,454.6	33.731
13,929.2	78.7196	13,929.2	78.5633	13,929.2	76.6101	13,929.2	71.7605	13,929.2	70.1057	13,929.2	50.6238	13,929.2	53.1206	13,929.2	58.4137	13,929.2	58.2417	13,929.2	55.4125	13,929.2	52.8764	13,929.2	53.7976	13,929.2	56.3423	13,929.2	55.7749	13,929.2	54.6084	13,929.2	51.2806	13,929.2	50.8751	13,929.2	46.788	13,929.2	50.923	13,929.2	42.8098	13,929.2	53.1404	13,929.2	42.8352	13,929.2	56.2142	13,929.2	40.2364	13,929.2	55.0797	13,929.2	33.958	13,929.2	42.3609	13,929.2	14.2834	13,929.2	32.4967	13,929.2	33.7027	13,929.2	40.5088	13,929.2	32.4877	13,929.2	39.479	13,929.2	35.2823	13,929.2	41.8028	13,929.2	34.1973
14,419.9	77.3473	14,419.9	77.5146	14,419.9	75.8226	14,419.9	72.2132	14,419.9	69.2134	14,419.9	50.0067	14,419.9	49.1409	14,419.9	57.6997	14,419.9	52.8887	14,419.9	55.069	14,419.9	47.553	14,419.9	56.6359	14,419.9	55.8471	14,419.9	56.5816	14,419.9	52.2051	14,419.9	51.0654	14,419.9	49.5272	14,419.9	47.1212	14,419.9	46.0153	14,419.9	41.6184	14,419.9	51.1729	14,419.9	42.4945	14,419.9	53.3865	14,419.9	41.2791	14,419.9	52.0889	14,419.9	28.7049	14,419.9	37.624	14,419.9	19.8274	14,419.9	23.9687	14,419.9	30.5474	14,419.9	38.2144	14,419.9	24.8445	14,419.9	37.8581	14,419.9	37.5437	14,419.9	42.7899	14,419.9	35.4163
14,928.2	76.7423	14,928.2	77.0569	14,928.2	76.3059	14,928.2	72.5218	14,928.2	70.1049	14,928.2	56.7085	14,928.2	53.5676	14,928.2	59.8757	14,928.2	54.9221	14,928.2	56.2687	14,928.2	54.7382	14,928.2	56.967	14,928.2	56.5539	14,928.2	55.5926	14,928.2	51.0729	14,928.2	48.7063	14,928.2	44.0143	14,928.2	45.3342	14,928.2	44.3274	14,928.2	37.8368	14,928.2	46.823	14,928.2	41.131	14,928.2	49.6675	14,928.2	39.6855	14,928.2	48.8376	14,928.2	28.3792	14,928.2	32.5277	14,928.2	26.6295	14,928.2	34.9055	14,928.2	30.2942	14,928.2	34.2881	14,928.2	35.5881	14,928.2	30.0572	14,928.2	39.2175	14,928.2	43.0862	14,928.2	36.4188
15,455.6	73.899	15,455.6	73.1029	15,455.6	75.2918	15,455.6	70.1092	15,455.6	69.3399	15,455.6	56.2561	15,455.6	63.0942	15,455.6	57.7784	15,455.6	59.9458	15,455.6	48.0503	15,455.6	57.8574	15,455.6	50.624	15,455.6	56.7494	15,455.6	48.7722	15,455.6	48.3541	15,455.6	41.1622	15,455.6	38.5451	15,455.6	37.4863	15,455.6	42.0648	15,455.6	29.2687	15,455.6	45.3844	15,455.6	32.9129	15,455.6	43.466	15,455.6	38.1427	15,455.6	46.4121	15,455.6	36.381	15,455.6	37.1975	15,455.6	33.7396	15,455.6	35.2539	15,455.6	25.7789	15,455.6	28.6808	15,455.6	37.2773	15,455.6	37.894	15,455.6	42.3965	15,455.6	41.7216	15,455.6	41.331
16,000.5	72.4914	16,000.5	70.7456	16,000.5	71.4233	16,000.5	63.5457	16,000.5	62.2944	16,000.5	57.8134	16,000.5	64.4977	16,000.5	44.3436	16,000.5	57.5719	16,000.5	53.2426	16,000.5	51.9286	16,000.5	50.9028	16,000.5	47.6819	16,000.5	46.4774	16,000.5	40.5172	16,000.5	43.8409	16,000.5	41.6648	16,000.5	40.5243	16,000.5	38.5083	16,000.5	34.3454	16,000.5	42.4318	16,000.5	32.4436	16,000.5	34.8831	16,000.5	34.1152	16,000.5	46.2681	16,000.5	38.9479	16,000.5	42.5199	16,000.5	28.2028	16,000.5	34.8811	16,000.5	33.5217	16,000.5	31.028	16,000.5	36.9902	16,000.5	37.7332	16,000.5	42.9854	16,000.5	36.1111	16,000.5	43.4095
16,564.5	73.4839	16,564.5	69.8064	16,564.5	66.765	16,564.5	62.0068	16,564.5	59.0689	16,564.5	58.4177	16,564.5	58.9108	16,564.5	39.2162	16,564.5	56.8759	16,564.5	56.103	16,564.5	51.4615	16,564.5	48.5982	16,564.5	46.9041	16,564.5	41.0631	16,564.5	48.7841	16,564.5	44.4906	16,564.5	47.4887	16,564.5	39.8358	16,564.5	48.0882	16,564.5	31.6474	16,564.5	52.4776	16,564.5	30.7345	16,564.5	51.2322	16,564.5	30.1195	16,564.5	47.2728	16,564.5	33.3739	16,564.5	42.5229	16,564.5	33.9579	16,564.5	19.3876	16,564.5	36.2519	16,564.5	16.0973	16,564.5	37.8154	16,564.5	35.7145	16,564.5	41.8825	16,564.5	38.9955	16,564.5	43.9961
17,148.9	75.6121	17,148.9	70.3241	17,148.9	71.6523	17,148.9	43.9406	17,148.9	58.096	17,148.9	55.8225	17,148.9	44.9297	17,148.9	51.7999	17,148.9	59.4373	17,148.9	53.3213	17,148.9	57.0133	17,148.9	48.5833	17,148.9	52.4353	17,148.9	44.8513	17,148.9	53.0098	17,148.9	40.4005	17,148.9	50.2753	17,148.9	26.3945	17,148.9	51.6728	17,148.9	27.1659	17,148.9	55.8459	17,148.9	28.3407	17,148.9	55.7123	17,148.9	23.2117	17,148.9	49.0402	17,148.9	26.3481	17,148.9	42.1258	17,148.9	31.9479	17,148.9	32.4172	17,148.9	33.4049	17,148.9	36.2213	17,148.9	25.7863	17,148.9	38.6369	17,148.9	38.4397	17,148.9	38.1633	17,148.9	41.5895
17,752.4	77.3618	17,752.4	72.4013	17,752.4	74.4859	17,752.4	33.9376	17,752.4	60.4911	17,752.4	55.2051	17,752.4	54.7468	17,752.4	60.4144	17,752.4	63.1771	17,752.4	57.5723	17,752.4	58.7465	17,752.4	53.5504	17,752.4	55.647	17,752.4	46.9496	17,752.4	54.122	17,752.4	37.1472	17,752.4	49.1785	17,752.4	27.3193	17,752.4	52.1295	17,752.4	32.5359	17,752.4	57.5049	17,752.4	27.2678	17,752.4	57.201	17,752.4	33.3159	17,752.4	49.3257	17,752.4	36.0424	17,752.4	41.2452	17,752.4	23.152	17,752.4	37.9281	17,752.4	33.9636	17,752.4	41.2379	17,752.4	37.2133	17,752.4	43.7063	17,752.4	43.474	17,752.4	40.331	17,752.4	44.1516
18,379.4	75.5171	18,379.4	70.811	18,379.4	71.9199	18,379.4	56.1386	18,379.4	55.0948	18,379.4	56.7427	18,379.4	56.9726	18,379.4	61.0536	18,379.4	62.8122	18,379.4	57.8309	18,379.4	57.0111	18,379.4	54.3232	18,379.4	52.812	18,379.4	48.7755	18,379.4	47.4579	18,379.4	43.3487	18,379.4	39.4349	18,379.4	33.2527	18,379.4	47.398	18,379.4	38.047	18,379.4	54.9173	18,379.4	34.1786	18,379.4	54.9039	18,379.4	34.533	18,379.4	46.7086	18,379.4	37.761	18,379.4	32.7367	18,379.4	23.4561	18,379.4	33.2003	18,379.4	33.0176	18,379.4	38.8904	18,379.4	29.7814	18,379.4	41.31	18,379.4	40.4375	18,379.4	33.9167	18,379.4	40.4819
19,026.9	73.3402	19,026.9	69.0156	19,026.9	68.05	19,026.9	58.1719	19,026.9	48.3951	19,026.9	50.2961	19,026.9	54.8554	19,026.9	60.6259	19,026.9	56.8031	19,026.9	57.5604	19,026.9	55.1248	19,026.9	53.3282	19,026.9	44.2535	19,026.9	45.8058	19,026.9	35.4699	19,026.9	44.1541	19,026.9	32.6127	19,026.9	27.3082	19,026.9	38.7876	19,026.9	38.4372	19,026.9	47.6318	19,026.9	32.6517	19,026.9	46.7194	19,026.9	37.8624	19,026.9	35.2331	19,026.9	40.8662	19,026.9	29.1431	19,026.9	22.2279	19,026.9	29.3447	19,026.9	35.0184	19,026.9	32.03	19,026.9	35.1094	19,026.9	36.3993	19,026.9	39.7668	19,026.9	38.6709	19,026.9	40.5035
19,697.8	72.249	19,697.8	66.787	19,697.8	67.2709	19,697.8	52.8829	19,697.8	55.1231	19,697.8	50.3544	19,697.8	56.1912	19,697.8	58.9024	19,697.8	57.4516	19,697.8	55.1557	19,697.8	54.421	19,697.8	47.3606	19,697.8	42.2192	19,697.8	37.9499	19,697.8	27.0426	19,697.8	43.7522	19,697.8	32.1728	19,697.8	25.5484	19,697.8	39.5712	19,697.8	36.6125	19,697.8	45.6412	19,697.8	30.5035	19,697.8	42.6069	19,697.8	35.4642	19,697.8	23.399	19,697.8	39.0382	19,697.8	34.2783	19,697.8	21.8576	19,697.8	27.1663	19,697.8	34.3618	19,697.8	32.8517	19,697.8	34.5474	19,697.8	34.3175	19,697.8	37.1614	19,697.8	35.9107	19,697.8	38.3682
19,999.5	71.2913	19,999.5	66.3348	19,999.5	67.0699	19,999.5	55.0458	19,999.5	56.039	19,999.5	54.1759	19,999.5	57.8782	19,999.5	57.8442	19,999.5	56.8998	19,999.5	53.1105	19,999.5	52.4773	19,999.5	46.2092	19,999.5	43.7329	19,999.5	37.0983	19,999.5	33.0844	19,999.5	42.3711	19,999.5	26.2593	19,999.5	30.2461	19,999.5	34.1255	19,999.5	36.4795	19,999.5	44.7372	19,999.5	25.9955	19,999.5	40.038	19,999.5	33.639	19,999.5	14.0009	19,999.5	39.8799	19,999.5	34.3815	19,999.5	27.6178	19,999.5	31.022	19,999.5	31.432	19,999.5	35.0897	19,999.5	38.2934	19,999.5	29.8768	19,999.5	43.4528	19,999.5	38.3283	19,999.5	41.9319
