"SPL Vertical"
"On-Axis"		"10°"		"-10°"		"20°"		"-20°"		"30°"		"-30°"		"40°"		"-40°"		"50°"		"-50°"		"60°"		"-60°"		"70°"		"-70°"		"80°"		"-80°"		"90°"		"-90°"		"100°"		"-100°"		"110°"		"-110°"		"120°"		"-120°"		"130°"		"-130°"		"140°"		"-140°"		"150°"		"-150°"		"160°"		"-160°"		"170°"		"-170°"		"180°"
"Frequency / Hz"	"Sound Pressure Level / dB (re 20 µPa/V)  [2.83  V @ 1. m]"	"Frequency / Hz"	"Sound Pressure Level / dB (re 20 µPa/V)  [2.83  V @ 1. m]"	"Frequency / Hz"	"Sound Pressure Level / dB (re 20 µPa/V)  [2.83  V @ 1. m]"	"Frequency / Hz"	"Sound Pressure Level / dB (re 20 µPa/V)  [2.83  V @ 1. m]"	"Frequency / Hz"	"Sound Pressure Level / dB (re 20 µPa/V)  [2.83  V @ 1. m]"	"Frequency / Hz"	"Sound Pressure Level / dB (re 20 µPa/V)  [2.83  V @ 1. m]"	"Frequency / Hz"	"Sound Pressure Level / dB (re 20 µPa/V)  [2.83  V @ 1. m]"	"Frequency / Hz"	"Sound Pressure Level / dB (re 20 µPa/V)  [2.83  V @ 1. m]"	"Frequency / Hz"	"Sound Pressure Level / dB (re 20 µPa/V)  [2.83  V @ 1. m]"	"Frequency / Hz"	"Sound Pressure Level / dB (re 20 µPa/V)  [2.83  V @ 1. m]"	"Frequency / Hz"	"Sound Pressure Level / dB (re 20 µPa/V)  [2.83  V @ 1. m]"	"Frequency / Hz"	"Sound Pressure Level / dB (re 20 µPa/V)  [2.83  V @ 1. m]"	"Frequency / Hz"	"Sound Pressure Level / dB (re 20 µPa/V)  [2.83  V @ 1. m]"	"Frequency / Hz"	"Sound Pressure Level / dB (re 20 µPa/V)  [2.83  V @ 1. m]"	"Frequency / Hz"	"Sound Pressure Level / dB (re 20 µPa/V)  [2.83  V @ 1. m]"	"Frequency / Hz"	"Sound Pressure Level / dB (re 20 µPa/V)  [2.83  V @ 1. m]"	"Frequency / Hz"	"Sound Pressure Level / dB (re 20 µPa/V)  [2.83  V @ 1. m]"	"Frequency / Hz"	"Sound Pressure Level / dB (re 20 µPa/V)  [2.83  V @ 1. m]"	"Frequency / Hz"	"Sound Pressure Level / dB (re 20 µPa/V)  [2.83  V @ 1. m]"	"Frequency / Hz"	"Sound Pressure Level / dB (re 20 µPa/V)  [2.83  V @ 1. m]"	"Frequency / Hz"	"Sound Pressure Level / dB (re 20 µPa/V)  [2.83  V @ 1. m]"	"Frequency / Hz"	"Sound Pressure Level / dB (re 20 µPa/V)  [2.83  V @ 1. m]"	"Frequency / Hz"	"Sound Pressure Level / dB (re 20 µPa/V)  [2.83  V @ 1. m]"	"Frequency / Hz"	"Sound Pressure Level / dB (re 20 µPa/V)  [2.83  V @ 1. m]"	"Frequency / Hz"	"Sound Pressure Level / dB (re 20 µPa/V)  [2.83  V @ 1. m]"	"Frequency / Hz"	"Sound Pressure Level / dB (re 20 µPa/V)  [2.83  V @ 1. m]"	"Frequency / Hz"	"Sound Pressure Level / dB (re 20 µPa/V)  [2.83  V @ 1. m]"	"Frequency / Hz"	"Sound Pressure Level / dB (re 20 µPa/V)  [2.83  V @ 1. m]"	"Frequency / Hz"	"Sound Pressure Level / dB (re 20 µPa/V)  [2.83  V @ 1. m]"	"Frequency / Hz"	"Sound Pressure Level / dB (re 20 µPa/V)  [2.83  V @ 1. m]"	"Frequency / Hz"	"Sound Pressure Level / dB (re 20 µPa/V)  [2.83  V @ 1. m]"	"Frequency / Hz"	"Sound Pressure Level / dB (re 20 µPa/V)  [2.83  V @ 1. m]"	"Frequency / Hz"	"Sound Pressure Level / dB (re 20 µPa/V)  [2.83  V @ 1. m]"	"Frequency / Hz"	"Sound Pressure Level / dB (re 20 µPa/V)  [2.83  V @ 1. m]"	"Frequency / Hz"	"Sound Pressure Level / dB (re 20 µPa/V)  [2.83  V @ 1. m]"	"Frequency / Hz"	"Sound Pressure Level / dB (re 20 µPa/V)  [2.83  V @ 1. m]"
20.5078	60.5117	20.5078	60.6348	20.5078	60.5293	20.5078	60.8465	20.5078	60.7208	20.5078	61.0969	20.5078	61.0795	20.5078	61.3489	20.5078	61.5541	20.5078	61.5791	20.5078	62.066	20.5078	61.7755	20.5078	62.5339	20.5078	61.9331	20.5078	62.8913	20.5078	62.0515	20.5078	63.0937	20.5078	62.1325	20.5078	63.1214	20.5078	62.1795	20.5078	62.9808	20.5078	62.1966	20.5078	62.7066	20.5078	62.1887	20.5078	62.3626	20.5078	62.1613	20.5078	62.0309	20.5078	62.1189	20.5078	61.7877	20.5078	62.0644	20.5078	61.6704	20.5078	61.9982	20.5078	61.6669	20.5078	61.9187	20.5078	61.7338	20.5078	61.827
21.9727	63.9375	21.9727	63.3017	21.9727	64.6634	21.9727	62.7777	21.9727	65.442	21.9727	62.368	21.9727	66.2271	21.9727	62.058	21.9727	66.9712	21.9727	61.8228	21.9727	67.63	21.9727	61.6347	21.9727	68.1653	21.9727	61.4695	21.9727	68.5462	21.9727	61.3089	21.9727	68.7488	21.9727	61.142	21.9727	68.7563	21.9727	60.9656	21.9727	68.5594	21.9727	60.7854	21.9727	68.1565	21.9727	60.6169	21.9727	67.5557	21.9727	60.4872	21.9727	66.776	21.9727	60.4352	21.9727	65.8508	21.9727	60.5093	21.9727	64.8295	21.9727	60.7588	21.9727	63.7785	21.9727	61.2206	21.9727	62.7765	21.9727	61.903
23.4375	69.2981	23.4375	68.9451	23.4375	69.7099	23.4375	68.6551	23.4375	70.1681	23.4375	68.4254	23.4375	70.6522	23.4375	68.249	23.4375	71.1357	23.4375	68.1168	23.4375	71.5888	23.4375	68.0198	23.4375	71.9815	23.4375	67.9508	23.4375	72.2865	23.4375	67.9047	23.4375	72.4818	23.4375	67.8791	23.4375	72.5519	23.4375	67.874	23.4375	72.4894	23.4375	67.8918	23.4375	72.2958	23.4375	67.9369	23.4375	71.982	23.4375	68.0152	23.4375	71.5692	23.4375	68.1338	23.4375	71.0872	23.4375	68.3004	23.4375	70.5718	23.4375	68.523	23.4375	70.0598	23.4375	68.8087	23.4375	69.5828	23.4375	69.1623
24.9023	70.9254	24.9023	70.5925	24.9023	71.3105	24.9023	70.3145	24.9023	71.7377	24.9023	70.089	24.9023	72.1898	24.9023	69.9097	24.9023	72.6435	24.9023	69.7692	24.9023	73.0714	24.9023	69.6601	24.9023	73.4454	24.9023	69.5766	24.9023	73.7391	24.9023	69.5145	24.9023	73.9304	24.9023	69.4721	24.9023	74.0033	24.9023	69.4496	24.9023	73.9492	24.9023	69.4498	24.9023	73.7679	24.9023	69.4771	24.9023	73.4682	24.9023	69.538	24.9023	73.0683	24.9023	69.6409	24.9023	72.5953	24.9023	69.7952	24.9023	72.083	24.9023	70.0107	24.9023	71.5678	24.9023	70.2957	24.9023	71.0832	24.9023	70.6544
26.3672	72.0932	26.3672	71.8814	26.3672	72.3602	26.3672	71.7206	26.3672	72.6793	26.3672	71.6025	26.3672	73.0385	26.3672	71.5176	26.3672	73.4167	26.3672	71.4572	26.3672	73.7864	26.3672	71.4143	26.3672	74.1178	26.3672	71.3843	26.3672	74.3824	26.3672	71.3643	26.3672	74.557	26.3672	71.3536	26.3672	74.626	26.3672	71.3529	26.3672	74.5829	26.3672	71.3643	26.3672	74.4311	26.3672	71.3911	26.3672	74.184	26.3672	71.4378	26.3672	73.8641	26.3672	71.5093	26.3672	73.5005	26.3672	71.6115	26.3672	73.1242	26.3672	71.7501	26.3672	72.7632	26.3672	71.9312	26.3672	72.438	26.3672	72.1597
27.832	72.7791	27.832	72.3574	27.832	73.2444	27.832	71.9892	27.832	73.7375	27.832	71.6785	27.832	74.2372	27.832	71.4243	27.832	74.7192	27.832	71.222	27.832	75.1577	27.832	71.066	27.832	75.5275	27.832	70.9505	27.832	75.8058	27.832	70.8711	27.832	75.9741	27.832	70.825	27.832	76.0193	27.832	70.8118	27.832	75.9351	27.832	70.8326	27.832	75.723	27.832	70.8911	27.832	75.3927	27.832	70.9924	27.832	74.963	27.832	71.143	27.832	74.4606	27.832	71.3504	27.832	73.9178	27.832	71.6216	27.832	73.369	27.832	71.9616	27.832	72.8455	27.832	72.3715
29.2969	76.505	29.2969	76.1892	29.2969	76.8489	29.2969	75.9075	29.2969	77.211	29.2969	75.663	29.2969	77.5779	29.2969	75.4564	29.2969	77.9328	29.2969	75.2865	29.2969	78.2565	29.2969	75.1515	29.2969	78.5288	29.2969	75.0491	29.2969	78.7308	29.2969	74.9775	29.2969	78.8465	29.2969	74.9357	29.2969	78.8649	29.2969	74.923	29.2969	78.7813	29.2969	74.9402	29.2969	78.5986	29.2969	74.9884	29.2969	78.3272	29.2969	75.0698	29.2969	77.9855	29.2969	75.1871	29.2969	77.5974	29.2969	75.3432	29.2969	77.1896	29.2969	75.5415	29.2969	76.7876	29.2969	75.7849	29.2969	76.4117	29.2969	76.0754
30.7617	77.1133	30.7617	76.8265	30.7617	77.4277	30.7617	76.5715	30.7617	77.7624	30.7617	76.3491	30.7617	78.1053	30.7617	76.1588	30.7617	78.4409	30.7617	75.9988	30.7617	78.75	30.7617	75.8672	30.7617	79.0123	30.7617	75.7622	30.7617	79.2079	30.7617	75.6826	30.7617	79.3197	30.7617	75.6275	30.7617	79.3356	30.7617	75.5973	30.7617	79.2497	30.7617	75.5926	30.7617	79.0638	30.7617	75.6153	30.7617	78.788	30.7617	75.6681	30.7617	78.4405	30.7617	75.7546	30.7617	78.0463	30.7617	75.8795	30.7617	77.6339	30.7617	76.048	30.7617	77.2309	30.7617	76.2657	30.7617	76.8602	30.7617	76.5364
32.2266	78.3095	32.2266	78.0227	32.2266	78.6204	32.2266	77.7651	32.2266	78.9471	32.2266	77.5391	32.2266	79.2776	32.2266	77.3452	32.2266	79.5969	32.2266	77.1827	32.2266	79.8872	32.2266	77.0505	32.2266	80.13	32.2266	76.9472	32.2266	80.3077	32.2266	76.8718	32.2266	80.4054	32.2266	76.8237	32.2266	80.4131	32.2266	76.8028	32.2266	80.3267	32.2266	76.8097	32.2266	80.1494	32.2266	76.8458	32.2266	79.8916	32.2266	76.9129	32.2266	79.5708	32.2266	77.0137	32.2266	79.2094	32.2266	77.151	32.2266	78.8321	32.2266	77.3279	32.2266	78.4622	32.2266	77.5473	32.2266	78.1178	32.2266	77.811
33.6914	79.5522	33.6914	79.2836	33.6914	79.8409	33.6914	79.0398	33.6914	80.1416	33.6914	78.8237	33.6914	80.4435	33.6914	78.636	33.6914	80.7325	33.6914	78.4769	33.6914	80.9923	33.6914	78.3457	33.6914	81.2057	33.6914	78.2418	33.6914	81.3561	33.6914	78.1643	33.6914	81.4299	33.6914	78.1129	33.6914	81.4178	33.6914	78.0875	33.6914	81.3166	33.6914	78.0883	33.6914	81.1305	33.6914	78.116	33.6914	80.8708	33.6914	78.1715	33.6914	80.5561	33.6914	78.2563	33.6914	80.2094	33.6914	78.3724	33.6914	79.8553	33.6914	78.5226	33.6914	79.5159	33.6914	78.7099	33.6914	79.2071	33.6914	78.9376
35.1562	80.9494	35.1562	80.6651	35.1562	81.2519	35.1562	80.4044	35.1562	81.5645	35.1562	80.17	35.1562	81.8762	35.1562	79.9636	35.1562	82.1725	35.1562	79.7856	35.1562	82.4368	35.1562	79.636	35.1562	82.6513	35.1562	79.5148	35.1562	82.7992	35.1562	79.4218	35.1562	82.8662	35.1562	79.3573	35.1562	82.8433	35.1562	79.3216	35.1562	82.7281	35.1562	79.3156	35.1562	82.5259	35.1562	79.3404	35.1562	82.2498	35.1562	79.3973	35.1562	81.9196	35.1562	79.4881	35.1562	81.5591	35.1562	79.6147	35.1562	81.1921	35.1562	79.7793	35.1562	80.8394	35.1562	79.9837	35.1562	80.5156	35.1562	80.2292
36.6211	81.8019	36.6211	81.532	36.6211	82.0878	36.6211	81.2834	36.6211	82.3821	36.6211	81.0591	36.6211	82.6743	36.6211	80.8609	36.6211	82.9507	36.6211	80.6897	36.6211	83.1957	36.6211	80.5459	36.6211	83.3924	36.6211	80.4299	36.6211	83.525	36.6211	80.3419	36.6211	83.5801	36.6211	80.2822	36.6211	83.5497	36.6211	80.2512	36.6211	83.4323	36.6211	80.2494	36.6211	83.2342	36.6211	80.2775	36.6211	82.9693	36.6211	80.336	36.6211	82.6575	36.6211	80.4258	36.6211	82.3221	36.6211	80.5475	36.6211	81.9853	36.6211	80.7021	36.6211	81.6649	36.6211	80.8905	36.6211	81.3725	36.6211	81.1138
38.0859	82.4091	38.0859	82.137	38.0859	82.6937	38.0859	81.8829	38.0859	82.983	38.0859	81.6504	38.0859	83.2663	38.0859	81.4418	38.0859	83.5305	38.0859	81.2585	38.0859	83.7604	38.0859	81.1013	38.0859	83.9398	38.0859	80.9709	38.0859	84.053	38.0859	80.8677	38.0859	84.0874	38.0859	80.7921	38.0859	84.0353	38.0859	80.7444	38.0859	83.8954	38.0859	80.7253	38.0859	83.6745	38.0859	80.7352	38.0859	83.387	38.0859	80.7749	38.0859	83.0541	38.0859	80.8455	38.0859	82.7002	38.0859	80.9483	38.0859	82.3491	38.0859	81.0853	38.0859	82.0202	38.0859	81.259	38.0859	81.7259	38.0859	81.4719
39.5508	83.2275	39.5508	82.9655	39.5508	83.4992	39.5508	82.7186	39.5508	83.7729	39.5508	82.4906	39.5508	84.0384	39.5508	82.2843	39.5508	84.2834	39.5508	82.1012	39.5508	84.4934	39.5508	81.9427	39.5508	84.6531	39.5508	81.8097	39.5508	84.7482	39.5508	81.7026	39.5508	84.7667	39.5508	81.6221	39.5508	84.702	39.5508	81.5684	39.5508	84.5534	39.5508	81.542	39.5508	84.3281	39.5508	81.5432	39.5508	84.0409	39.5508	81.5727	39.5508	83.7127	39.5508	81.6314	39.5508	83.3673	39.5508	81.7208	39.5508	83.0281	39.5508	81.843	39.5508	82.7133	39.5508	82.0008	39.5508	82.4348	39.5508	82.1972
41.0156	84.0111	41.0156	83.7785	41.0156	84.2564	41.0156	83.5629	41.0156	84.5082	41.0156	83.3672	41.0156	84.7578	41.0156	83.1934	41.0156	84.9947	41.0156	83.0427	41.0156	85.206	41.0156	82.9162	41.0156	85.3785	41.0156	82.8147	41.0156	85.4991	41.0156	82.739	41.0156	85.5577	41.0156	82.6899	41.0156	85.548	41.0156	82.6684	41.0156	85.4691	41.0156	82.6753	41.0156	85.3259	41.0156	82.7119	41.0156	85.1288	41.0156	82.7792	41.0156	84.8914	41.0156	82.8781	41.0156	84.6292	41.0156	83.0091	41.0156	84.3565	41.0156	83.1715	41.0156	84.0855	41.0156	83.3638	41.0156	83.8254	41.0156	83.5831
42.4805	84.2189	42.4805	83.9713	42.4805	84.4766	42.4805	83.7396	42.4805	84.7366	42.4805	83.528	42.4805	84.9892	42.4805	83.3396	42.4805	85.2224	42.4805	83.1763	42.4805	85.4226	42.4805	83.0396	42.4805	85.5759	42.4805	82.9305	42.4805	85.6693	42.4805	82.8494	42.4805	85.6929	42.4805	82.7969	42.4805	85.6414	42.4805	82.773	42.4805	85.5162	42.4805	82.7776	42.4805	85.3255	42.4805	82.8106	42.4805	85.0845	42.4805	82.8714	42.4805	84.8124	42.4805	82.959	42.4805	84.5297	42.4805	83.0722	42.4805	84.2537	42.4805	83.2097	42.4805	83.9963	42.4805	83.3706	42.4805	83.7629	42.4805	83.5547
43.9453	84.7901	43.9453	84.5509	43.9453	85.0375	43.9453	84.3256	43.9453	85.2856	43.9453	84.1186	43.9453	85.525	43.9453	83.9331	43.9453	85.7443	43.9453	83.7717	43.9453	85.9311	43.9453	83.6363	43.9453	86.0724	43.9453	83.5283	43.9453	86.1563	43.9453	83.4486	43.9453	86.1741	43.9453	83.3981	43.9453	86.1217	43.9453	83.377	43.9453	86.0012	43.9453	83.3852	43.9453	85.8213	43.9453	83.4223	43.9453	85.5963	43.9453	83.4872	43.9453	85.3442	43.9453	83.5786	43.9453	85.0834	43.9453	83.6946	43.9453	84.8286	43.9453	83.8331	43.9453	84.5894	43.9453	83.9922	43.9453	84.3701	43.9453	84.1712
45.4102	85.1827	45.4102	84.9396	45.4102	85.4322	45.4102	84.7091	45.4102	85.6804	45.4102	84.4961	45.4102	85.9179	45.4102	84.3045	45.4102	86.1336	45.4102	84.1371	45.4102	86.3154	45.4102	83.9964	45.4102	86.4508	45.4102	83.8841	45.4102	86.5287	45.4102	83.8014	45.4102	86.5405	45.4102	83.7489	45.4102	86.4826	45.4102	83.7268	45.4102	86.3572	45.4102	83.7347	45.4102	86.1727	45.4102	83.7718	45.4102	85.9437	45.4102	83.8366	45.4102	85.6881	45.4102	83.9273	45.4102	85.4243	45.4102	84.0419	45.4102	85.1676	45.4102	84.1784	45.4102	84.9277	45.4102	84.3352	45.4102	84.709	45.4102	84.5118
46.875	85.5886	46.875	85.3535	46.875	85.8264	46.875	85.1272	46.875	86.0591	46.875	84.915	46.875	86.2781	46.875	84.7215	46.875	86.4731	46.875	84.5501	46.875	86.6334	46.875	84.404	46.875	86.748	46.875	84.2854	46.875	86.8073	46.875	84.1961	46.875	86.8044	46.875	84.1371	46.875	86.7368	46.875	84.1088	46.875	86.6074	46.875	84.1109	46.875	86.4251	46.875	84.1425	46.875	86.2036	46.875	84.2021	46.875	85.9597	46.875	84.2877	46.875	85.7099	46.875	84.3969	46.875	85.4677	46.875	84.5274	46.875	85.2411	46.875	84.6775	46.875	85.0339	46.875	84.8463
48.3398	86.1346	48.3398	85.9062	48.3398	86.3628	48.3398	85.6841	48.3398	86.5835	48.3398	85.4734	48.3398	86.788	48.3398	85.2788	48.3398	86.9664	48.3398	85.1041	48.3398	87.1085	48.3398	84.9524	48.3398	87.2039	48.3398	84.8263	48.3398	87.2437	48.3398	84.7279	48.3398	87.2221	48.3398	84.6585	48.3398	87.1376	48.3398	84.6189	48.3398	86.9945	48.3398	84.6091	48.3398	86.8027	48.3398	84.6287	48.3398	86.5769	48.3398	84.6765	48.3398	86.3341	48.3398	84.7507	48.3398	86.0902	48.3398	84.8492	48.3398	85.8571	48.3398	84.9695	48.3398	85.6415	48.3398	85.1097	48.3398	85.4454	48.3398	85.2684
51.2695	86.9371	51.2695	86.7124	51.2695	87.1568	51.2695	86.4889	51.2695	87.3647	51.2695	86.272	51.2695	87.5527	51.2695	86.0664	51.2695	87.7118	51.2695	85.8765	51.2695	87.8324	51.2695	85.7059	51.2695	87.9047	51.2695	85.5579	51.2695	87.9203	51.2695	85.4351	51.2695	87.8733	51.2695	85.3397	51.2695	87.7623	51.2695	85.2728	51.2695	87.5916	51.2695	85.2353	51.2695	87.3712	51.2695	85.227	51.2695	87.117	51.2695	85.2473	51.2695	86.8473	51.2695	85.295	51.2695	86.5801	51.2695	85.3688	51.2695	86.3296	51.2695	85.4671	51.2695	86.104	51.2695	85.5892	51.2695	85.906	51.2695	85.7351
52.7344	87.0814	52.7344	86.8711	52.7344	87.287	52.7344	86.6614	52.7344	87.4817	52.7344	86.4571	52.7344	87.658	52.7344	86.2621	52.7344	87.8074	52.7344	86.0801	52.7344	87.9206	52.7344	85.9145	52.7344	87.9882	52.7344	85.7683	52.7344	88.0019	52.7344	85.6441	52.7344	87.9561	52.7344	85.5442	52.7344	87.8493	52.7344	85.4701	52.7344	87.6855	52.7344	85.4232	52.7344	87.4742	52.7344	85.4041	52.7344	87.2297	52.7344	85.4131	52.7344	86.969	52.7344	85.4501	52.7344	86.7088	52.7344	85.5147	52.7344	86.4622	52.7344	85.6062	52.7344	86.2379	52.7344	85.7242	52.7344	86.0397	52.7344	85.8686
54.1992	87.3406	54.1992	87.1253	54.1992	87.5533	54.1992	86.9138	54.1992	87.7563	54.1992	86.7117	54.1992	87.9413	54.1992	86.5236	54.1992	88.0993	54.1992	86.3537	54.1992	88.2208	54.1992	86.2051	54.1992	88.2966	54.1992	86.0804	54.1992	88.319	54.1992	85.9815	54.1992	88.2832	54.1992	85.9092	54.1992	88.1884	54.1992	85.8641	54.1992	88.0395	54.1992	85.8459	54.1992	87.8462	54.1992	85.8538	54.1992	87.623	54.1992	85.8867	54.1992	87.3859	54.1992	85.9432	54.1992	87.15	54.1992	86.022	54.1992	86.9268	54.1992	86.1217	54.1992	86.7232	54.1992	86.2414	54.1992	86.5413	54.1992	86.3811
55.6641	87.7736	55.6641	87.5649	55.6641	87.978	55.6641	87.3587	55.6641	88.1705	55.6641	87.1611	55.6641	88.3429	55.6641	86.9777	55.6641	88.4864	55.6641	86.813	55.6641	88.5923	55.6641	86.6708	55.6641	88.6524	55.6641	86.5538	55.6641	88.6604	55.6641	86.4638	55.6641	88.6138	55.6641	86.4017	55.6641	88.5147	55.6641	86.3674	55.6641	88.3709	55.6641	86.3604	55.6641	88.1945	55.6641	86.3796	55.6641	88.0002	55.6641	86.4234	55.6641	87.8016	55.6641	86.4901	55.6641	87.6084	55.6641	86.578	55.6641	87.4256	55.6641	86.6847	55.6641	87.2544	55.6641	86.8079	55.6641	87.0942	55.6641	86.9451
58.5938	88.1882	58.5938	87.9759	58.5938	88.3951	58.5938	87.7648	58.5938	88.5894	58.5938	87.5612	58.5938	88.7634	58.5938	87.3708	58.5938	88.9088	58.5938	87.1987	58.5938	89.0174	58.5938	87.0495	58.5938	89.0812	58.5938	86.9265	58.5938	89.0941	58.5938	86.8323	58.5938	89.0533	58.5938	86.7684	58.5938	88.9603	58.5938	86.7353	58.5938	88.822	58.5938	86.7324	58.5938	88.6499	58.5938	86.7584	58.5938	88.458	58.5938	86.8115	58.5938	88.26	58.5938	86.8891	58.5938	88.0657	58.5938	86.9883	58.5938	87.8805	58.5938	87.1062	58.5938	87.7057	58.5938	87.2394	58.5938	87.5406	58.5938	87.3849
60.0586	88.4101	60.0586	88.1959	60.0586	88.6166	60.0586	87.9808	60.0586	88.8078	60.0586	87.7714	60.0586	88.9762	60.0586	87.5736	60.0586	89.1134	60.0586	87.393	60.0586	89.2117	60.0586	87.2342	60.0586	89.2635	60.0586	87.101	60.0586	89.2637	60.0586	86.9962	60.0586	89.2102	60.0586	86.9216	60.0586	89.1054	60.0586	86.8778	60.0586	88.957	60.0586	86.8647	60.0586	88.7767	60.0586	86.8814	60.0586	88.5785	60.0586	86.9261	60.0586	88.3754	60.0586	86.9967	60.0586	88.1768	60.0586	87.0908	60.0586	87.9876	60.0586	87.2053	60.0586	87.8091	60.0586	87.3371	60.0586	87.6409	60.0586	87.4831
62.9883	88.8128	62.9883	88.6016	62.9883	89.0146	62.9883	88.3878	62.9883	89.1994	62.9883	88.1784	62.9883	89.3598	62.9883	87.9799	62.9883	89.4883	62.9883	87.7981	62.9883	89.5778	62.9883	87.6383	62.9883	89.6221	62.9883	87.5047	62.9883	89.6171	62.9883	87.4007	62.9883	89.5622	62.9883	87.3282	62.9883	89.461	62.9883	87.2881	62.9883	89.3216	62.9883	87.2804	62.9883	89.1555	62.9883	87.3037	62.9883	88.9754	62.9883	87.3562	62.9883	88.7919	62.9883	87.4353	62.9883	88.6117	62.9883	87.5379	62.9883	88.4375	62.9883	87.6602	62.9883	88.2689	62.9883	87.7983	62.9883	88.1056	62.9883	87.9479
64.4531	89.0013	64.4531	88.7899	64.4531	89.2021	64.4531	88.5752	64.4531	89.385	64.4531	88.3642	64.4531	89.5425	64.4531	88.1637	64.4531	89.6673	64.4531	87.9798	64.4531	89.7526	64.4531	87.8181	64.4531	89.7926	64.4531	87.6829	64.4531	89.7839	64.4531	87.5777	64.4531	89.7263	64.4531	87.5047	64.4531	89.624	64.4531	87.4647	64.4531	89.4855	64.4531	87.4577	64.4531	89.3224	64.4531	87.4823	64.4531	89.1469	64.4531	87.5366	64.4531	88.9691	64.4531	87.6179	64.4531	88.7945	64.4531	87.7228	64.4531	88.6248	64.4531	87.8476	64.4531	88.4592	64.4531	87.9878	64.4531	88.297	64.4531	88.139
67.3828	89.3496	67.3828	89.1375	67.3828	89.5488	67.3828	88.9199	67.3828	89.7276	67.3828	88.7039	67.3828	89.8788	67.3828	88.4968	67.3828	89.9953	67.3828	88.3051	67.3828	90.0709	67.3828	88.1349	67.3828	90.1004	67.3828	87.9912	67.3828	90.0812	67.3828	87.8778	67.3828	90.014	67.3828	87.7976	67.3828	89.9039	67.3828	87.7518	67.3828	89.7602	67.3828	87.7405	67.3828	89.5949	67.3828	87.7626	67.3828	89.42	67.3828	87.816	67.3828	89.2447	67.3828	87.8978	67.3828	89.0739	67.3828	88.0043	67.3828	88.9077	67.3828	88.131	67.3828	88.7448	67.3828	88.2732	67.3828	88.5838	67.3828	88.4256
68.8477	89.5173	68.8477	89.3063	68.8477	89.7142	68.8477	89.0887	68.8477	89.8898	68.8477	88.8718	68.8477	90.0369	68.8477	88.6629	68.8477	90.1486	68.8477	88.4688	68.8477	90.2189	68.8477	88.2956	68.8477	90.2431	68.8477	88.1487	68.8477	90.2189	68.8477	88.032	68.8477	90.1473	68.8477	87.9484	68.8477	90.0337	68.8477	87.8995	68.8477	89.8876	68.8477	87.8853	68.8477	89.7208	68.8477	87.9047	68.8477	89.5454	68.8477	87.9557	68.8477	89.3703	68.8477	88.0353	68.8477	89.1999	68.8477	88.1396	68.8477	89.0345	68.8477	88.2645	68.8477	88.8725	68.8477	88.4048	68.8477	88.7126	68.8477	88.5557
71.7773	89.803	71.7773	89.5973	71.7773	89.9934	71.7773	89.3836	71.7773	90.1613	71.7773	89.1694	71.7773	90.2996	71.7773	88.9617	71.7773	90.402	71.7773	88.7674	71.7773	90.4627	71.7773	88.5927	71.7773	90.4776	71.7773	88.4429	71.7773	90.445	71.7773	88.3221	71.7773	90.3667	71.7773	88.2334	71.7773	90.2487	71.7773	88.1784	71.7773	90.1006	71.7773	88.1575	71.7773	89.9344	71.7773	88.17	71.7773	89.7617	71.7773	88.2141	71.7773	89.5904	71.7773	88.2872	71.7773	89.4241	71.7773	88.386	71.7773	89.2623	71.7773	88.5061	71.7773	89.1032	71.7773	88.6429	71.7773	88.9457	71.7773	88.791
74.707	90.0362	74.707	89.8322	74.707	90.2238	74.707	89.6196	74.707	90.3878	74.707	89.4063	74.707	90.5213	74.707	89.1998	74.707	90.6182	74.707	89.0074	74.707	90.6737	74.707	88.8353	74.707	90.6849	74.707	88.6888	74.707	90.651	74.707	88.572	74.707	90.575	74.707	88.4876	74.707	90.4633	74.707	88.437	74.707	90.3254	74.707	88.4202	74.707	90.1722	74.707	88.4363	74.707	90.0132	74.707	88.4836	74.707	89.8545	74.707	88.5594	74.707	89.6978	74.707	88.6606	74.707	89.5421	74.707	88.783	74.707	89.3855	74.707	88.922	74.707	89.2281	74.707	89.0722
77.6367	90.2287	77.6367	90.0212	77.6367	90.4168	77.6367	89.8025	77.6367	90.578	77.6367	89.5813	77.6367	90.7055	77.6367	89.3661	77.6367	90.7938	77.6367	89.1655	77.6367	90.8391	77.6367	88.9868	77.6367	90.8392	77.6367	88.8365	77.6367	90.7954	77.6367	88.7193	77.6367	90.7121	77.6367	88.6386	77.6367	90.5979	77.6367	88.5955	77.6367	90.4638	77.6367	88.59	77.6367	90.3214	77.6367	88.6204	77.6367	90.1797	77.6367	88.6837	77.6367	90.0424	77.6367	88.7761	77.6367	89.9083	77.6367	88.8929	77.6367	89.7729	77.6367	89.0285	77.6367	89.632	77.6367	89.1766	77.6367	89.4839	77.6367	89.3305
79.1016	90.3175	79.1016	90.108	79.1016	90.5062	79.1016	89.8859	79.1016	90.6664	79.1016	89.6601	79.1016	90.7916	79.1016	89.4393	79.1016	90.8762	79.1016	89.2322	79.1016	90.9164	79.1016	89.0467	79.1016	90.9102	79.1016	88.8897	79.1016	90.8591	79.1016	88.7665	79.1016	90.7679	79.1016	88.6807	79.1016	90.6458	79.1016	88.6341	79.1016	90.5045	79.1016	88.6267	79.1016	90.3566	79.1016	88.6567	79.1016	90.2114	79.1016	88.7209	79.1016	90.0731	79.1016	88.8149	79.1016	89.94	79.1016	88.9336	79.1016	89.8071	79.1016	89.0705	79.1016	89.6692	79.1016	89.2191	79.1016	89.5239	79.1016	89.3724
82.0312	90.5098	82.0312	90.2996	82.0312	90.6981	82.0312	90.0758	82.0312	90.8566	82.0312	89.8473	82.0312	90.9786	82.0312	89.6231	82.0312	91.0585	82.0312	89.4118	82.0312	91.0924	82.0312	89.2215	82.0312	91.0787	82.0312	89.059	82.0312	91.0188	82.0312	88.9297	82.0312	90.9184	82.0312	88.8375	82.0312	90.7871	82.0312	88.7842	82.0312	90.6374	82.0312	88.7699	82.0312	90.4821	82.0312	88.7931	82.0312	90.3311	82.0312	88.8507	82.0312	90.1883	82.0312	88.9387	82.0312	90.0518	82.0312	89.0519	82.0312	89.9165	82.0312	89.1843	82.0312	89.7771	82.0312	89.3295	82.0312	89.6313	82.0312	89.4806
84.9609	90.6738	84.9609	90.4581	84.9609	90.8649	84.9609	90.2264	84.9609	91.0234	84.9609	89.9883	84.9609	91.1428	84.9609	89.7531	84.9609	91.2181	84.9609	89.53	84.9609	91.2463	84.9609	89.3277	84.9609	91.2271	84.9609	89.1534	84.9609	91.1636	84.9609	89.0132	84.9609	91.0626	84.9609	88.9111	84.9609	90.9342	84.9609	88.8494	84.9609	90.7907	84.9609	88.8287	84.9609	90.6431	84.9609	88.8478	84.9609	90.4981	84.9609	88.9039	84.9609	90.3563	84.9609	88.9932	84.9609	90.2141	84.9609	89.111	84.9609	90.0663	84.9609	89.2516	84.9609	89.9095	84.9609	89.4088	84.9609	89.7446	84.9609	89.5755
87.8906	90.7455	87.8906	90.5323	87.8906	90.9333	87.8906	90.3024	87.8906	91.0878	87.8906	90.0655	87.8906	91.2028	87.8906	89.8314	87.8906	91.2739	87.8906	89.6095	87.8906	91.299	87.8906	89.4086	87.8906	91.2785	87.8906	89.2359	87.8906	91.2167	87.8906	89.0973	87.8906	91.1209	87.8906	88.9966	87.8906	91.0017	87.8906	88.9357	87.8906	90.8705	87.8906	88.9151	87.8906	90.7363	87.8906	88.9335	87.8906	90.6033	87.8906	88.9885	87.8906	90.4698	87.8906	89.0769	87.8906	90.3306	87.8906	89.1946	87.8906	90.1806	87.8906	89.3366	87.8906	90.018	87.8906	89.4971	87.8906	89.8456	87.8906	89.6694
90.8203	90.7416	90.8203	90.5259	90.8203	90.9303	90.8203	90.2923	90.8203	91.084	90.8203	90.0509	90.8203	91.1966	90.8203	89.8123	90.8203	91.264	90.8203	89.5864	90.8203	91.2847	90.8203	89.3828	90.8203	91.2604	90.8203	89.2096	90.8203	91.1962	90.8203	89.0729	90.8203	91.1012	90.8203	88.9771	90.8203	90.9871	90.8203	88.9242	90.8203	90.8655	90.8203	88.9144	90.8203	90.7452	90.8203	88.9457	90.8203	90.6286	90.8203	89.0152	90.8203	90.512	90.8203	89.1183	90.8203	90.3882	90.8203	89.2499	90.8203	90.2505	90.8203	89.4039	90.8203	90.0963	90.8203	89.5734	90.8203	89.9277	90.8203	89.7507
95.2148	90.9193	95.2148	90.7078	95.2148	91.0992	95.2148	90.4741	95.2148	91.2393	95.2148	90.2286	95.2148	91.3335	95.2148	89.9823	95.2148	91.3783	95.2148	89.7456	95.2148	91.3731	95.2148	89.5283	95.2148	91.3209	95.2148	89.3386	95.2148	91.2286	95.2148	89.183	95.2148	91.1072	95.2148	89.0662	95.2148	90.9702	95.2148	88.9908	95.2148	90.8307	95.2148	88.9576	95.2148	90.6975	95.2148	88.9658	95.2148	90.5723	95.2148	89.0133	95.2148	90.4499	95.2148	89.0966	95.2148	90.322	95.2148	89.2114	95.2148	90.1814	95.2148	89.3521	95.2148	90.0256	95.2148	89.5119	95.2148	89.8573	95.2148	89.6832
98.1445	90.866	98.1445	90.6495	98.1445	91.0487	98.1445	90.4093	98.1445	91.1891	98.1445	90.1568	98.1445	91.2813	98.1445	89.9035	98.1445	91.3218	98.1445	89.6608	98.1445	91.311	98.1445	89.4388	98.1445	91.2527	98.1445	89.2459	98.1445	91.1554	98.1445	89.0884	98.1445	91.0313	98.1445	88.9703	98.1445	90.8945	98.1445	88.8935	98.1445	90.7577	98.1445	88.8584	98.1445	90.6281	98.1445	88.8636	98.1445	90.5052	98.1445	88.9073	98.1445	90.3819	98.1445	88.9866	98.1445	90.2488	98.1445	89.0978	98.1445	90.0995	98.1445	89.2367	98.1445	89.9332	98.1445	89.3975	98.1445	89.7549	98.1445	89.5732
101.074	90.7172	101.074	90.4959	101.074	90.9014	101.074	90.2488	101.074	91.0397	101.074	89.9883	101.074	91.1259	101.074	89.7278	101.074	91.1575	101.074	89.4802	101.074	91.1359	101.074	89.2569	101.074	91.067	101.074	89.0673	101.074	90.9615	101.074	88.9175	101.074	90.8341	101.074	88.811	101.074	90.7005	101.074	88.748	101.074	90.5739	101.074	88.727	101.074	90.4597	101.074	88.7449	101.074	90.3545	101.074	88.7983	101.074	90.2477	101.074	88.8837	101.074	90.1277	101.074	88.9978	101.074	89.987	101.074	89.1368	101.074	89.8258	101.074	89.2964	101.074	89.6503	101.074	89.4704
105.469	91.0367	105.469	90.8009	105.469	91.2231	105.469	90.5273	105.469	91.3514	105.469	90.2294	105.469	91.416	105.469	89.9225	105.469	91.4149	105.469	89.6222	105.469	91.3507	105.469	89.3439	105.469	91.2312	105.469	89.1013	105.469	91.0703	105.469	88.9053	105.469	90.8874	105.469	88.7631	105.469	90.705	105.469	88.6778	105.469	90.5427	105.469	88.6486	105.469	90.4101	105.469	88.6715	105.469	90.3038	105.469	88.7402	105.469	90.2093	105.469	88.8473	105.469	90.1088	105.469	88.9851	105.469	89.9892	105.469	89.1456	105.469	89.8454	105.469	89.3209	105.469	89.6804	105.469	89.5023
108.398	91.1844	108.398	90.9515	108.398	91.3688	108.398	90.681	108.398	91.496	108.398	90.3856	108.398	91.5602	108.398	90.0794	108.398	91.5589	108.398	89.7773	108.398	91.4936	108.398	89.494	108.398	91.3714	108.398	89.243	108.398	91.2056	108.398	89.0358	108.398	91.0161	108.398	88.8808	108.398	90.8264	108.398	88.783	108.398	90.6581	108.398	88.7435	108.398	90.523	108.398	88.7601	108.398	90.4183	108.398	88.8273	108.398	90.329	108.398	88.938	108.398	90.2353	108.398	89.0834	108.398	90.1214	108.398	89.254	108.398	89.9803	108.398	89.4398	108.398	89.8139	108.398	89.6301
112.793	91.204	112.793	90.9782	112.793	91.3807	112.793	90.7138	112.793	91.5003	112.793	90.4231	112.793	91.5574	112.793	90.1198	112.793	91.5497	112.793	89.8184	112.793	91.4793	112.793	89.5332	112.793	91.3532	112.793	89.2779	112.793	91.1843	112.793	89.0642	112.793	90.9918	112.793	88.9014	112.793	90.7987	112.793	88.7952	112.793	90.6261	112.793	88.7483	112.793	90.4865	112.793	88.7592	112.793	90.3789	112.793	88.8234	112.793	90.2897	112.793	88.9336	112.793	90.2	112.793	89.0801	112.793	90.0934	112.793	89.2521	112.793	89.9612	112.793	89.4378	112.793	89.8031	112.793	89.6253
117.188	91.1693	117.188	90.9582	117.188	91.3301	117.188	90.7081	117.188	91.4314	117.188	90.4322	117.188	91.4672	117.188	90.144	117.188	91.4354	117.188	89.8577	117.188	91.339	117.188	89.5863	117.188	91.1877	117.188	89.3415	117.188	90.9983	117.188	89.1331	117.188	90.794	117.188	88.9688	117.188	90.6007	117.188	88.8537	117.188	90.4392	117.188	88.7907	117.188	90.3183	117.188	88.7802	117.188	90.2306	117.188	88.8201	117.188	90.1576	117.188	88.9055	117.188	90.0783	117.188	89.0291	117.188	89.9775	117.188	89.1813	117.188	89.8493	117.188	89.3511	117.188	89.6963	117.188	89.5266
120.117	91.2922	120.117	91.0632	120.117	91.4688	120.117	90.7952	120.117	91.5825	120.117	90.5028	120.117	91.6259	120.117	90.202	120.117	91.5964	120.117	89.908	120.117	91.4966	120.117	89.6349	120.117	91.3368	120.117	89.3945	120.117	91.1353	120.117	89.1957	120.117	90.9182	120.117	89.0442	120.117	90.7152	120.117	88.943	120.117	90.551	120.117	88.8928	120.117	90.4355	120.117	88.8924	120.117	90.3592	120.117	88.9391	120.117	90.2991	120.117	89.0286	120.117	90.2294	120.117	89.1548	120.117	90.1323	120.117	89.3098	120.117	90.002	120.117	89.484	120.117	89.8429	120.117	89.6659
124.512	91.2956	124.512	91.049	124.512	91.4867	124.512	90.7608	124.512	91.6114	124.512	90.4465	124.512	91.6619	124.512	90.1229	124.512	91.635	124.512	89.8068	124.512	91.5331	124.512	89.5144	124.512	91.3661	124.512	89.2592	124.512	91.1528	124.512	89.0521	124.512	90.9211	124.512	88.9005	124.512	90.704	124.512	88.808	124.512	90.5307	124.512	88.775	124.512	90.4149	124.512	88.7992	124.512	90.3482	124.512	88.8758	124.512	90.3054	124.512	88.9976	124.512	90.2565	124.512	89.1555	124.512	90.179	124.512	89.3385	124.512	90.0628	124.512	89.5343	124.512	89.9098	124.512	89.7293
128.906	91.2872	128.906	91.0261	128.906	91.4909	128.906	90.7219	128.906	91.6259	128.906	90.3907	128.906	91.684	128.906	90.0497	128.906	91.6613	128.906	89.7164	128.906	91.5595	128.906	89.4073	128.906	91.3877	128.906	89.1372	128.906	91.1643	128.906	88.9176	128.906	90.9172	128.906	88.7568	128.906	90.6815	128.906	88.6595	128.906	90.4896	128.906	88.627	128.906	90.3594	128.906	88.6575	128.906	90.2855	128.906	88.7457	128.906	90.2428	128.906	88.8837	128.906	90.1989	128.906	89.0602	128.906	90.128	128.906	89.2616	128.906	90.0167	128.906	89.4731	128.906	89.8644	128.906	89.6789
133.301	91.1815	133.301	90.903	133.301	91.4019	133.301	90.5812	133.301	91.552	133.301	90.2328	133.301	91.6231	133.301	89.8755	133.301	91.6109	133.301	89.5267	133.301	91.5166	133.301	89.2029	133.301	91.3488	133.301	88.9178	133.301	91.1249	133.301	88.6822	133.301	90.8719	133.301	88.5037	133.301	90.6233	133.301	88.387	133.301	90.4109	133.301	88.3344	133.301	90.253	133.301	88.3458	133.301	90.1461	133.301	88.4186	133.301	90.0679	133.301	88.5467	133.301	89.9891	133.301	88.7201	133.301	89.886	133.301	88.9252	133.301	89.7468	133.301	89.1462	133.301	89.571	133.301	89.3666
139.16	90.9756	139.16	90.6802	139.16	91.2085	139.16	90.3375	139.16	91.3671	139.16	89.9649	139.16	91.4431	139.16	89.5813	139.16	91.4331	139.16	89.2058	139.16	91.3394	139.16	88.8563	139.16	91.1715	139.16	88.5481	139.16	90.9475	139.16	88.293	139.16	90.6947	139.16	88.0991	139.16	90.4466	139.16	87.9707	139.16	90.2336	139.16	87.9097	139.16	90.072	139.16	87.9158	139.16	89.9559	139.16	87.9865	139.16	89.861	139.16	88.1168	139.16	89.758	139.16	88.2977	139.16	89.6246	139.16	88.5166	139.16	89.4515	139.16	88.7582	139.16	89.2415	139.16	89.0054
143.555	90.6854	143.555	90.384	143.555	90.9249	143.555	90.0362	143.555	91.0904	143.555	89.6597	143.555	91.1738	143.555	89.2737	143.555	91.1718	143.555	88.8971	143.555	91.0873	143.555	88.5473	143.555	90.9301	143.555	88.2387	143.555	90.7188	143.555	87.9818	143.555	90.4804	143.555	87.7838	143.555	90.2463	143.555	87.6487	143.555	90.0441	143.555	87.5789	143.555	89.8862	143.555	87.5757	143.555	89.7647	143.555	87.6388	143.555	89.6557	143.555	87.7652	143.555	89.5323	143.555	87.9475	143.555	89.3754	143.555	88.1736	143.555	89.1787	143.555	88.4273	143.555	88.9466	143.555	88.6909
147.949	90.438	147.949	90.1144	147.949	90.6946	147.949	89.7419	147.949	90.8705	147.949	89.3414	147.949	90.9572	147.949	88.9353	147.949	90.9527	147.949	88.5454	147.949	90.8623	147.949	88.1904	147.949	90.7004	147.949	87.8843	147.949	90.4912	147.949	87.6357	147.949	90.2663	147.949	87.4484	147.949	90.0594	147.949	87.3234	147.949	89.894	147.949	87.2611	147.949	89.773	147.949	87.2624	147.949	89.6773	147.949	87.3289	147.949	89.5759	147.949	87.4603	147.949	89.441	147.949	87.6525	147.949	89.258	147.949	87.8951	147.949	89.0267	147.949	88.1728	147.949	88.7576	147.949	88.4668
153.809	90.3211	153.809	89.9257	153.809	90.6278	153.809	89.4629	153.809	90.8305	153.809	88.959	153.809	90.9199	153.809	88.4442	153.809	90.8937	153.809	87.9502	153.809	90.7578	153.809	87.5062	153.809	90.5286	153.809	87.135	153.809	90.2364	153.809	86.8492	153.809	89.9255	153.809	86.651	153.809	89.6477	153.809	86.5347	153.809	89.4432	153.809	86.4913	153.809	89.3188	153.809	86.5132	153.809	89.2419	153.809	86.5961	153.809	89.159	153.809	86.7395	153.809	89.0236	153.809	86.9432	153.809	88.8137	153.809	87.2041	153.809	88.5331	153.809	87.5131	153.809	88.2035	153.809	87.854
159.668	90.023	159.668	89.6063	159.668	90.3475	159.668	89.114	159.668	90.5686	159.668	88.5681	159.668	90.6793	159.668	87.9958	159.668	90.6773	159.668	87.4295	159.668	90.5655	159.668	86.9036	159.668	90.3542	159.668	86.4518	159.668	90.0655	159.668	86.1011	159.668	89.7369	159.668	85.8682	159.668	89.4189	159.668	85.7573	159.668	89.1617	159.668	85.7615	159.668	88.991	159.668	85.8671	159.668	88.8928	159.668	86.0579	159.668	88.8212	159.668	86.3175	159.668	88.7248	159.668	86.6297	159.668	88.5685	159.668	86.978	159.668	88.3403	159.668	87.3442	159.668	88.0475	159.668	87.708
165.527	89.8136	165.527	89.3595	165.527	90.1887	165.527	88.844	165.527	90.4703	165.527	88.2881	165.527	90.6469	165.527	87.7163	165.527	90.7104	165.527	87.1553	165.527	90.6574	165.527	86.6332	165.527	90.4919	165.527	86.177	165.527	90.2295	165.527	85.8102	165.527	89.9018	165.527	85.5498	165.527	89.5562	165.527	85.4057	165.527	89.2454	165.527	85.3797	165.527	89.0066	165.527	85.4674	165.527	88.8413	165.527	85.6585	165.527	88.7164	165.527	85.938	165.527	88.5846	165.527	86.286	165.527	88.4068	165.527	86.6781	165.527	88.1633	165.527	87.0877	165.527	87.8528	165.527	87.4875
171.387	89.9537	171.387	89.4986	171.387	90.3367	171.387	88.9927	171.387	90.6299	171.387	88.4596	171.387	90.8193	171.387	87.9245	171.387	90.8968	171.387	87.412	171.387	90.8612	171.387	86.9449	171.387	90.721	171.387	86.5415	171.387	90.4972	171.387	86.2147	171.387	90.2231	171.387	85.972	171.387	89.9404	171.387	85.8174	171.387	89.6861	171.387	85.7539	171.387	89.4777	171.387	85.7857	171.387	89.3058	171.387	85.917	171.387	89.1419	171.387	86.1474	171.387	88.9543	171.387	86.4664	171.387	88.7203	171.387	86.8513	171.387	88.4296	171.387	87.2703	171.387	88.0829	171.387	87.6902
177.246	90.2535	177.246	89.811	177.246	90.6216	177.246	89.3181	177.246	90.8951	177.246	88.8008	177.246	91.0582	177.246	88.2853	177.246	91.102	177.246	87.7969	177.246	91.0269	177.246	87.3569	177.246	90.8454	177.246	86.9807	177.246	90.5853	177.246	86.6763	177.246	90.2892	177.246	86.445	177.246	90.0065	177.246	86.284	177.246	89.7754	177.246	86.191	177.246	89.6035	177.246	86.1682	177.246	89.4644	177.246	86.2235	177.246	89.3144	177.246	86.3669	177.246	89.1156	177.246	86.6031	177.246	88.8495	177.246	86.924	177.246	88.5174	177.246	87.307	177.246	88.1338	177.246	87.721
183.105	90.4695	183.105	90.0549	183.105	90.791	183.105	89.5703	183.105	91.0021	183.105	89.043	183.105	91.0918	183.105	88.5039	183.105	91.0573	183.105	87.9853	183.105	90.9066	183.105	87.5175	183.105	90.6615	183.105	87.1247	183.105	90.3608	183.105	86.8211	183.105	90.0585	183.105	86.6094	183.105	89.8109	183.105	86.4826	183.105	89.6527	183.105	86.4305	183.105	89.575	183.105	86.4449	183.105	89.5295	183.105	86.5248	183.105	89.4556	183.105	86.6755	183.105	89.3087	183.105	86.9031	183.105	89.072	183.105	87.2062	183.105	88.7537	183.105	87.571	183.105	88.377	183.105	87.9719
188.965	90.888	188.965	90.4837	188.965	91.1834	188.965	89.9946	188.965	91.3519	188.965	89.45	188.965	91.3821	188.965	88.8838	188.965	91.2708	188.965	88.3319	188.965	91.0248	188.965	87.8289	188.965	90.6658	188.965	87.4032	188.965	90.236	188.965	87.0724	188.965	89.802	188.965	86.8403	188.965	89.4437	188.965	86.6993	188.965	89.2214	188.965	86.6349	188.965	89.1371	188.965	86.634	188.965	89.1302	188.965	86.6904	188.965	89.1169	188.965	86.8065	188.965	89.0336	188.965	86.9887	188.965	88.8546	188.965	87.2397	188.965	88.5871	188.965	87.5507	188.965	88.2575	188.965	87.9003
196.289	91.3261	196.289	90.8717	196.289	91.658	196.289	90.3203	196.289	91.8481	196.289	89.7036	196.289	91.8834	196.289	89.0599	196.289	91.7575	196.289	88.4323	196.289	91.4725	196.289	87.8654	196.289	91.0446	196.289	87.3987	196.289	90.5126	196.289	87.0574	196.289	89.9471	196.289	86.8461	196.289	89.4466	196.289	86.7488	196.289	89.1015	196.289	86.7365	196.289	88.9362	196.289	86.7791	196.289	88.8898	196.289	86.8554	196.289	88.8625	196.289	86.9581	196.289	88.7769	196.289	87.092	196.289	88.6034	196.289	87.2678	196.289	88.3533	196.289	87.4928	196.289	88.0604	196.289	87.7631
203.613	91.0199	203.613	90.6088	203.613	91.3207	203.613	90.1026	203.613	91.4997	203.613	89.5214	203.613	91.5485	203.613	88.8904	203.613	91.4622	203.613	88.2401	203.613	91.2396	203.613	87.6065	203.613	90.8867	203.613	87.0291	203.613	90.4234	203.613	86.5471	203.613	89.8928	203.613	86.1937	203.613	89.366	203.613	85.99	203.613	88.9311	203.613	85.9403	203.613	88.6536	203.613	86.032	203.613	88.5356	203.613	86.2393	203.613	88.5161	203.613	86.5292	203.613	88.5137	203.613	86.8678	203.613	88.467	203.613	87.2239	203.613	88.3469	203.613	87.5707	203.613	88.1499	203.613	87.8858
210.938	90.9222	210.938	90.4979	210.938	91.236	210.938	89.9874	210.938	91.4199	210.938	89.4189	210.938	91.4592	210.938	88.8244	210.938	91.3453	210.938	88.238	210.938	91.0788	210.938	87.6932	210.938	90.6744	210.938	87.2182	210.938	90.1677	210.938	86.8306	210.938	89.6213	210.938	86.535	210.938	89.1187	210.938	86.3252	210.938	88.7367	210.938	86.1918	210.938	88.505	210.938	86.1307	210.938	88.3908	210.938	86.1469	210.938	88.3269	210.938	86.2511	210.938	88.2514	210.938	86.4474	210.938	88.1267	210.938	86.7231	210.938	87.9379	210.938	87.0472	210.938	87.6849	210.938	87.3799
218.262	90.8659	218.262	90.4161	218.262	91.202	218.262	89.8783	218.262	91.4032	218.262	89.2833	218.262	91.4541	218.262	88.6664	218.262	91.3455	218.262	88.0678	218.262	91.0776	218.262	87.5289	218.262	90.6643	218.262	87.0876	218.262	90.1403	218.262	86.7692	218.262	89.5675	218.262	86.5789	218.262	89.0316	218.262	86.5005	218.262	88.6164	218.262	86.5041	218.262	88.3611	218.262	86.5591	218.262	88.2388	218.262	86.6454	218.262	88.1818	218.262	86.7577	218.262	88.1266	218.262	86.9007	218.262	88.0365	218.262	87.0794	218.262	87.9	218.262	87.2882	218.262	87.7201	218.262	87.5095
225.586	90.9601	225.586	90.4698	225.586	91.3055	225.586	89.8593	225.586	91.4886	225.586	89.1622	225.586	91.4998	225.586	88.4215	225.586	91.3371	225.586	87.6899	225.586	91.0088	225.586	87.0272	225.586	90.5389	225.586	86.4922	225.586	89.9761	225.586	86.1289	225.586	89.4031	225.586	85.9515	225.586	88.9284	225.586	85.9406	225.586	88.6419	225.586	86.0535	225.586	88.5543	225.586	86.2439	225.586	88.5882	225.586	86.4774	225.586	88.6389	225.586	86.737	225.586	88.6349	225.586	87.0175	225.586	88.5515	225.586	87.3152	225.586	88.394	225.586	87.6196	225.586	88.1764	225.586	87.913
232.91	90.8983	232.91	90.4486	232.91	91.2183	232.91	89.8881	232.91	91.3931	232.91	89.2397	232.91	91.4113	232.91	88.531	232.91	91.2661	232.91	87.7958	232.91	90.958	232.91	87.0758	232.91	90.5001	232.91	86.4206	232.91	89.9266	232.91	85.8836	232.91	89.3012	232.91	85.5092	232.91	88.7142	232.91	85.3161	232.91	88.2523	232.91	85.2875	232.91	87.9488	232.91	85.3797	232.91	87.7646	232.91	85.5429	232.91	87.6261	232.91	85.7398	232.91	87.4768	232.91	85.9518	232.91	87.2969	232.91	86.1736	232.91	87.0908	232.91	86.4035	232.91	86.8685	232.91	86.6373
241.699	90.6604	241.699	90.154	241.699	91.0454	241.699	89.5639	241.699	91.2785	241.699	88.9325	241.699	91.337	241.699	88.3035	241.699	91.2071	241.699	87.7169	241.699	90.886	241.699	87.2039	241.699	90.3869	241.699	86.7838	241.699	89.7493	241.699	86.4638	241.699	89.0527	241.699	86.241	241.699	88.4193	241.699	86.1062	241.699	87.9732	241.699	86.0476	241.699	87.7597	241.699	86.0535	241.699	87.7102	241.699	86.1152	241.699	87.7065	241.699	86.2262	241.699	87.664	241.699	86.3808	241.699	87.557	241.699	86.5699	241.699	87.3974	241.699	86.7801	241.699	87.2056	241.699	86.9962
250.488	90.4753	250.488	89.9126	250.488	90.8607	250.488	89.1955	250.488	91.0549	250.488	88.358	250.488	91.0531	250.488	87.4478	250.488	90.8607	250.488	86.5291	250.488	90.4962	250.488	85.6836	250.488	89.9986	250.488	85.0017	250.488	89.4346	250.488	84.559	250.488	88.8994	250.488	84.3861	250.488	88.4903	250.488	84.4545	250.488	88.2527	250.488	84.6939	250.488	88.1469	250.488	85.0253	250.488	88.0807	250.488	85.385	250.488	87.9753	250.488	85.733	250.488	87.8014	250.488	86.0507	250.488	87.5737	250.488	86.3351	250.488	87.3243	250.488	86.5928	250.488	87.0766	250.488	86.8356
259.277	91.4312	259.277	90.8617	259.277	91.8251	259.277	90.1473	259.277	92.0171	259.277	89.3248	259.277	91.9844	259.277	88.4373	259.277	91.7077	259.277	87.5357	259.277	91.1729	259.277	86.6787	259.277	90.3823	259.277	85.9285	259.277	89.3821	259.277	85.3391	259.277	88.3162	259.277	84.9412	259.277	87.4636	259.277	84.733	259.277	87.1051	259.277	84.6892	259.277	87.2294	259.277	84.7806	259.277	87.5436	259.277	84.9873	259.277	87.7825	259.277	85.2953	259.277	87.8453	259.277	85.6836	259.277	87.7473	259.277	86.115	259.277	87.5418	259.277	86.5441	259.277	87.2671	259.277	86.9337
268.066	90.6088	268.066	89.9058	268.066	91.1657	268.066	89.0839	268.066	91.5504	268.066	88.1726	268.066	91.7372	268.066	87.208	268.066	91.7011	268.066	86.2396	268.066	91.4193	268.066	85.3376	268.066	90.8757	268.066	84.5914	268.066	90.0742	268.066	84.0863	268.066	89.0718	268.066	83.8591	268.066	88.0338	268.066	83.8703	268.066	87.2512	268.066	84.0278	268.066	86.9608	268.066	84.2418	268.066	87.0771	268.066	84.4643	268.066	87.2922	268.066	84.6962	268.066	87.3739	268.066	84.9682	268.066	87.2539	268.066	85.3066	268.066	86.967	268.066	85.7088	268.066	86.5789	268.066	86.1456
276.855	90.1468	276.855	89.4964	276.855	90.6561	276.855	88.7291	276.855	91.0023	276.855	87.8702	276.855	91.1677	276.855	86.9447	276.855	91.1385	276.855	85.9802	276.855	90.9047	276.855	85.0164	276.855	90.4622	276.855	84.1212	276.855	89.8215	276.855	83.4009	276.855	89.0297	276.855	82.9781	276.855	88.2021	276.855	82.921	276.855	87.5283	276.855	83.1826	276.855	87.1753	276.855	83.6309	276.855	87.1325	276.855	84.1343	276.855	87.2203	276.855	84.6145	276.855	87.2567	276.855	85.0491	276.855	87.157	276.855	85.4504	276.855	86.9229	276.855	85.8392	276.855	86.5968	276.855	86.2249
287.109	90.2304	287.109	89.6334	287.109	90.6787	287.109	88.9048	287.109	90.9654	287.109	88.0673	287.109	91.0799	287.109	87.149	287.109	91.0122	287.109	86.184	287.109	90.7509	287.109	85.2155	287.109	90.2857	287.109	84.3044	287.109	89.6156	287.109	83.5386	287.109	88.7685	287.109	83.0269	287.109	87.8334	287.109	82.8508	287.109	86.9831	287.109	82.9973	287.109	86.4167	287.109	83.3535	287.109	86.2018	287.109	83.7796	287.109	86.2088	287.109	84.1813	287.109	86.2467	287.109	84.5292	287.109	86.1971	287.109	84.8412	287.109	86.0307	287.109	85.1484	287.109	85.7717	287.109	85.4643
297.363	90.2391	297.363	89.7164	297.363	90.6072	297.363	89.0652	297.363	90.7996	297.363	88.3132	297.363	90.802	297.363	87.4866	297.363	90.6077	297.363	86.609	297.363	90.2176	297.363	85.706	297.363	89.642	297.363	84.813	297.363	88.9081	297.363	83.9856	297.363	88.073	297.363	83.3038	297.363	87.2389	297.363	82.8556	297.363	86.5426	297.363	82.6978	297.363	86.0941	297.363	82.8192	297.363	85.9009	297.363	83.1472	297.363	85.8723	297.363	83.5908	297.363	85.8966	297.363	84.0764	297.363	85.8926	297.363	84.5549	297.363	85.8141	297.363	84.9924	297.363	85.6384	297.363	85.3609
307.617	89.9203	307.617	89.4314	307.617	90.2689	307.617	88.8298	307.617	90.457	307.617	88.1477	307.617	90.4715	307.617	87.4158	307.617	90.3047	307.617	86.6563	307.617	89.9549	307.617	85.8813	307.617	89.4291	307.617	85.101	307.617	88.7511	307.617	84.3432	307.617	87.9702	307.617	83.6788	307.617	87.1631	307.617	83.2292	307.617	86.4155	307.617	83.1125	307.617	85.7874	307.617	83.3402	307.617	85.2977	307.617	83.7864	307.617	84.9488	307.617	84.2768	307.617	84.7504	307.617	84.6815	307.617	84.7047	307.617	84.9391	307.617	84.7786	307.617	85.0419	307.617	84.9066	307.617	85.0154
319.336	89.7169	319.336	89.1425	319.336	90.1201	319.336	88.4396	319.336	90.315	319.336	87.6531	319.336	90.2735	319.336	86.8258	319.336	89.9797	319.336	85.9961	319.336	89.4366	319.336	85.2001	319.336	88.6821	319.336	84.4775	319.336	87.8161	319.336	83.8768	319.336	87.0223	319.336	83.4497	319.336	86.5089	319.336	83.2298	319.336	86.3358	319.336	83.2105	319.336	86.3382	319.336	83.3448	319.336	86.2903	319.336	83.5707	319.336	86.0786	319.336	83.8373	319.336	85.7363	319.336	84.1121	319.336	85.3822	319.336	84.3733	319.336	85.1142	319.336	84.601	319.336	84.9356	319.336	84.7831
329.59	89.9644	329.59	89.3261	329.59	90.4357	329.59	88.5729	329.59	90.693	329.59	87.7577	329.59	90.6951	329.59	86.9247	329.59	90.4064	329.59	86.1029	329.59	89.7978	329.59	85.3056	329.59	88.8584	329.59	84.5448	329.59	87.6327	329.59	83.8526	329.59	86.3099	329.59	83.3003	329.59	85.3093	329.59	82.9902	329.59	85.036	329.59	83.0012	329.59	85.3547	329.59	83.3192	329.59	85.7804	329.59	83.833	329.59	86.0131	329.59	84.3995	329.59	86.0188	329.59	84.9053	329.59	85.9028	329.59	85.2872	329.59	85.7851	329.59	85.5281	329.59	85.7135	329.59	85.6513
341.309	90.5488	341.309	89.9011	341.309	90.9892	341.309	89.0721	341.309	91.2084	341.309	88.1092	341.309	91.1962	341.309	87.0883	341.309	90.9393	341.309	86.1086	341.309	90.4187	341.309	85.2652	341.309	89.6126	341.309	84.6077	341.309	88.5138	341.309	84.1234	341.309	87.1814	341.309	83.7701	341.309	85.8471	341.309	83.5337	341.309	84.9711	341.309	83.4615	341.309	84.8843	341.309	83.6379	341.309	85.3308	341.309	84.1007	341.309	85.8434	341.309	84.7728	341.309	86.2059	341.309	85.4947	341.309	86.4318	341.309	86.1117	341.309	86.596	341.309	86.5274	341.309	86.7116	341.309	86.715
353.027	91.211	353.027	90.582	353.027	91.6256	353.027	89.7592	353.027	91.8122	353.027	88.7711	353.027	91.7624	353.027	87.6527	353.027	91.4709	353.027	86.4414	353.027	90.9327	353.027	85.176	353.027	90.1416	353.027	83.9067	353.027	89.0974	353.027	82.7182	353.027	87.8396	353.027	81.7524	353.027	86.5343	353.027	81.19	353.027	85.5684	353.027	81.1523	353.027	85.3452	353.027	81.6041	353.027	85.7699	353.027	82.3884	353.027	86.3742	353.027	83.333	353.027	86.8358	353.027	84.3031	353.027	87.0652	353.027	85.1994	353.027	87.0774	353.027	85.9524	353.027	86.8955	353.027	86.5218
366.211	90.8039	366.211	90.1691	366.211	91.2293	366.211	89.3583	366.211	91.4193	366.211	88.4075	366.211	91.3566	366.211	87.3487	366.211	91.0327	366.211	86.2069	366.211	90.4493	366.211	85.0052	366.211	89.6231	366.211	83.7838	366.211	88.6008	366.211	82.6311	366.211	87.489	366.211	81.7083	366.211	86.4868	366.211	81.2099	366.211	85.8365	366.211	81.2239	366.211	85.6292	366.211	81.6463	366.211	85.7051	366.211	82.2946	366.211	85.8426	366.211	83.0415	366.211	85.9421	366.211	83.8226	366.211	86.0075	366.211	84.5796	366.211	86.0356	366.211	85.2333	366.211	85.9621	366.211	85.7057
379.395	90.589	379.395	89.9005	379.395	91.0399	379.395	89.005	379.395	91.2388	379.395	87.9498	379.395	91.1818	379.395	86.7916	379.395	90.8699	379.395	85.5778	379.395	90.3018	379.395	84.3274	379.395	89.4713	379.395	83.033	379.395	88.3797	379.395	81.7	379.395	87.084	379.395	80.4319	379.395	85.7868	379.395	79.5321	379.395	84.846	379.395	79.414	379.395	84.4578	379.395	80.1359	379.395	84.3831	379.395	81.2764	379.395	84.2943	379.395	82.4078	379.395	84.1289	379.395	83.3209	379.395	84.035	379.395	83.9536	379.395	84.1186	379.395	84.3048	379.395	84.2964	379.395	84.3994
392.578	89.4656	392.578	88.604	392.578	90.1041	392.578	87.5662	392.578	90.4897	392.578	86.4222	392.578	90.6028	392.578	85.2646	392.578	90.43	392.578	84.195	392.578	89.9638	392.578	83.2935	392.578	89.2082	392.578	82.5874	392.578	88.1974	392.578	82.0426	392.578	87.042	392.578	81.5884	392.578	85.987	392.578	81.1632	392.578	85.351	392.578	80.771	392.578	85.2253	392.578	80.5399	392.578	85.345	392.578	80.7058	392.578	85.4136	392.578	81.4046	392.578	85.3543	392.578	82.4672	392.578	85.2681	392.578	83.5612	392.578	85.2409	392.578	84.4329	392.578	85.1994	392.578	84.9726
405.762	89.5469	405.762	88.5402	405.762	90.2511	405.762	87.2702	405.762	90.6341	405.762	85.8099	405.762	90.689	405.762	84.2774	405.762	90.4141	405.762	82.8253	405.762	89.8069	405.762	81.5895	405.762	88.8629	405.762	80.6303	405.762	87.5971	405.762	79.9326	405.762	86.1348	405.762	79.4718	405.762	84.9088	405.762	79.2733	405.762	84.5922	405.762	79.4123	405.762	85.1873	405.762	79.9481	405.762	85.9337	405.762	80.8469	405.762	86.3045	405.762	81.9718	405.762	86.2291	405.762	83.1372	405.762	85.9219	405.762	84.1652	405.762	85.667	405.762	84.923	405.762	85.5391	405.762	85.3577
420.41	90.2664	420.41	89.3011	420.41	90.9248	420.41	88.0563	420.41	91.2721	420.41	86.587	420.41	91.3192	420.41	84.9737	420.41	91.0781	420.41	83.3092	420.41	90.5442	420.41	81.6749	420.41	89.6816	420.41	80.1187	420.41	88.4227	420.41	78.6655	420.41	86.7134	420.41	77.3834	420.41	84.7341	420.41	76.4995	420.41	83.4564	420.41	76.4002	420.41	83.9891	420.41	77.2473	420.41	85.3625	420.41	78.7074	420.41	86.3516	420.41	80.3326	420.41	86.6659	420.41	81.8485	420.41	86.4374	420.41	83.1212	420.41	85.9346	420.41	84.0991	420.41	85.3832	420.41	84.8134
435.059	90.3383	435.059	89.2696	435.059	91.0529	435.059	87.847	435.059	91.4372	435.059	86.1195	435.059	91.5206	435.059	84.2163	435.059	91.3236	435.059	82.3582	435.059	90.8467	435.059	80.778	435.059	90.0619	435.059	79.5579	435.059	88.9074	435.059	78.5824	435.059	87.2994	435.059	77.6831	435.059	85.2416	435.059	76.8213	435.059	83.2812	435.059	76.2717	435.059	82.8813	435.059	76.6079	435.059	84.0982	435.059	77.9898	435.059	85.3872	435.059	79.8397	435.059	86.1072	435.059	81.6092	435.059	86.282	435.059	83.0802	435.059	86.0887	435.059	84.2176	435.059	85.6684	435.059	85.0591
451.172	92.3586	451.172	91.3665	451.172	92.9159	451.172	89.8963	451.172	93.0866	451.172	87.9202	451.172	92.9181	451.172	85.4385	451.172	92.4573	451.172	82.4888	451.172	91.7518	451.172	79.1237	451.172	90.8408	451.172	75.3012	451.172	89.7216	451.172	70.5779	451.172	88.2924	451.172	62.8869	451.172	86.2756	451.172	51.9341	451.172	83.0731	451.172	66.7443	451.172	77.2685	451.172	72.5508	451.172	72.6498	451.172	76.7715	451.172	80.1226	451.172	80.2374	451.172	84.1787	451.172	83.0543	451.172	86.3309	451.172	85.2138	451.172	87.4363	451.172	86.7153	451.172	87.8179	451.172	87.576
465.82	92.8251	465.82	92.2306	465.82	93.1154	465.82	91.3237	465.82	93.1203	465.82	90.1178	465.82	92.8695	465.82	88.6676	465.82	92.406	465.82	87.0902	465.82	91.7869	465.82	85.5594	465.82	91.0803	465.82	84.2474	465.82	90.3487	465.82	83.225	465.82	89.6119	465.82	82.3955	465.82	88.8051	465.82	81.5261	465.82	87.7784	465.82	80.3313	465.82	86.3404	465.82	78.523	465.82	84.296	465.82	75.8332	465.82	81.4177	465.82	72.291	465.82	77.3077	465.82	69.9309	465.82	71.1042	465.82	71.0571	465.82	65.398	465.82	72.3822	465.82	69.7004	465.82	72.1586
483.398	90.7151	483.398	89.5969	483.398	91.421	483.398	88.118	483.398	91.6965	483.398	86.3721	483.398	91.543	483.398	84.5035	483.398	90.9656	483.398	82.7058	483.398	89.972	483.398	81.1918	483.398	88.6208	483.398	80.1352	483.398	87.1841	483.398	79.6183	483.398	86.3369	483.398	79.5719	483.398	86.5696	483.398	79.7486	483.398	87.2703	483.398	79.8156	483.398	87.5679	483.398	79.4591	483.398	87.0389	483.398	78.3903	483.398	85.5706	483.398	76.3159	483.398	83.2736	483.398	73.2392	483.398	80.6639	483.398	71.7192	483.398	78.7214	483.398	74.072	483.398	77.6453	483.398	76.3693
499.512	89.9391	499.512	89.1575	499.512	90.5057	499.512	88.1666	499.512	90.8441	499.512	86.968	499.512	90.922	499.512	85.5599	499.512	90.6797	499.512	83.9501	499.512	90.0339	499.512	82.1846	499.512	88.8872	499.512	80.3844	499.512	87.1599	499.512	78.806	499.512	84.9727	499.512	77.89	499.512	83.263	499.512	77.9092	499.512	83.5148	499.512	78.395	499.512	84.9132	499.512	78.5697	499.512	85.9368	499.512	77.9907	499.512	86.066	499.512	76.8044	499.512	85.1742	499.512	76.2226	499.512	83.2981	499.512	77.2463	499.512	80.9466	499.512	78.5413	499.512	79.4523	499.512	79.1062
517.09	90.1333	517.09	89.0975	517.09	90.7833	517.09	87.754	517.09	91.0294	517.09	86.2482	517.09	90.8936	517.09	84.7779	517.09	90.417	517.09	83.562	517.09	89.6417	517.09	82.7492	517.09	88.5974	517.09	82.2081	517.09	87.3028	517.09	81.4961	517.09	85.8159	517.09	80.158	517.09	84.4257	517.09	78.1008	517.09	83.9071	517.09	76.3163	517.09	84.7393	517.09	76.41	517.09	86.0143	517.09	77.1844	517.09	86.6993	517.09	76.94	517.09	86.3533	517.09	75.1969	517.09	84.876	517.09	72.9786	517.09	82.423	517.09	73.8881	517.09	79.5188	517.09	76.6908
536.133	89.2283	536.133	87.9307	536.133	90.0358	536.133	86.2389	536.133	90.3629	536.133	84.4403	536.133	90.2638	536.133	83.0486	536.133	89.7922	536.133	82.554	536.133	88.9657	536.133	82.9492	536.133	87.7527	536.133	83.7159	536.133	86.1176	536.133	84.3052	536.133	84.2736	536.133	84.4087	536.133	83.3382	536.133	83.9226	536.133	84.4259	536.133	82.8689	536.133	86.1685	536.133	81.3965	536.133	87.1219	536.133	79.7736	536.133	86.8078	536.133	78.1272	536.133	85.1067	536.133	76.178	536.133	82.1674	536.133	73.8414	536.133	78.824	536.133	72.8391	536.133	76.3378	536.133	74.359
555.176	87.5789	555.176	86.5603	555.176	88.2497	555.176	85.2809	555.176	88.4911	555.176	83.8517	555.176	88.2434	555.176	82.5065	555.176	87.5011	555.176	81.6638	555.176	86.3544	555.176	81.6131	555.176	84.9882	555.176	82.1549	555.176	83.5142	555.176	82.8939	555.176	81.6733	555.176	83.5547	555.176	79.3354	555.176	83.9711	555.176	80.5101	555.176	84.0553	555.176	85.1857	555.176	83.8265	555.176	88.4268	555.176	83.4118	555.176	89.8205	555.176	82.9598	555.176	89.6516	555.176	82.5266	555.176	88.2532	555.176	82.1238	555.176	86.1111	555.176	81.9473	555.176	83.9358	555.176	82.4509
574.219	91.3767	574.219	90.1439	574.219	92.0857	574.219	88.4025	574.219	92.2539	574.219	86.1563	574.219	91.8676	574.219	83.4178	574.219	90.9163	574.219	80.3982	574.219	89.4056	574.219	78.1365	574.219	87.4119	574.219	78.1217	574.219	85.1859	574.219	79.4075	574.219	83.0978	574.219	80.482	574.219	81.1554	574.219	81.061	574.219	79.4124	574.219	81.5836	574.219	80.2331	574.219	82.5754	574.219	83.3983	574.219	83.7815	574.219	85.759	574.219	84.4581	574.219	86.7202	574.219	84.1542	574.219	86.6298	574.219	82.9845	574.219	85.9332	574.219	82.1804	574.219	84.7575	574.219	83.1523
594.727	91.6844	594.727	90.3656	594.727	92.3502	594.727	88.4238	594.727	92.4094	594.727	86.0003	594.727	91.9545	594.727	83.3269	594.727	91.1093	594.727	80.5706	594.727	90.0072	594.727	77.619	594.727	88.7213	594.727	74.057	594.727	87.1737	594.727	70.3799	594.727	85.1127	594.727	71.7806	594.727	82.2219	594.727	75.5597	594.727	79.083	594.727	77.9717	594.727	79.5488	594.727	79.3299	594.727	82.2816	594.727	80.6141	594.727	83.8682	594.727	82.297	594.727	84.0113	594.727	83.8024	594.727	83.0898	594.727	84.5057	594.727	81.9527	594.727	84.1881	594.727	81.8691	594.727	83.0279
615.234	92.6874	615.234	91.5692	615.234	93.5295	615.234	90.2466	615.234	93.9189	615.234	88.6108	615.234	93.7008	615.234	86.4987	615.234	92.7748	615.234	83.9138	615.234	91.0947	615.234	81.2079	615.234	88.7789	615.234	79.0049	615.234	86.375	615.234	77.6002	615.234	84.5632	615.234	76.7496	615.234	83.0556	615.234	76.6013	615.234	81.8092	615.234	77.4396	615.234	82.7715	615.234	78.3176	615.234	84.787	615.234	78.7001	615.234	85.714	615.234	79.66	615.234	85.7422	615.234	81.5333	615.234	85.3426	615.234	82.91	615.234	84.4403	615.234	83.2278	615.234	83.3924	615.234	83.0413
637.207	93.34	637.207	92.3662	637.207	93.6727	637.207	90.6423	637.207	93.4914	637.207	88.1442	637.207	92.8956	637.207	85.039	637.207	91.9513	637.207	81.8367	637.207	90.7178	637.207	79.3375	637.207	89.245	637.207	78.2163	637.207	87.4941	637.207	78.4102	637.207	85.236	637.207	78.7142	637.207	82.236	637.207	78.0241	637.207	79.8249	637.207	76.4405	637.207	80.4119	637.207	76.3869	637.207	81.1909	637.207	78.398	637.207	80.7235	637.207	80.0263	637.207	80.127	637.207	81.2521	637.207	81.3242	637.207	82.8715	637.207	83.64	637.207	84.5325	637.207	85.1832	637.207	85.4392
659.18	92.6853	659.18	91.4185	659.18	93.3842	659.18	89.5474	659.18	93.5631	659.18	87.098	659.18	93.2224	659.18	84.2168	659.18	92.2913	659.18	81.2086	659.18	90.6717	659.18	78.3054	659.18	88.3504	659.18	75.6302	659.18	85.6719	659.18	74.7648	659.18	83.522	659.18	76.5364	659.18	82.0142	659.18	78.2999	659.18	80.3549	659.18	78.9654	659.18	80.903	659.18	78.6553	659.18	83.9737	659.18	78.0783	659.18	85.6198	659.18	78.3572	659.18	85.3741	659.18	79.5888	659.18	84.1435	659.18	80.8435	659.18	83.1245	659.18	81.6969	659.18	82.6225	659.18	82.232
682.617	92.9204	682.617	91.2824	682.617	93.8672	682.617	89.0703	682.617	94.0758	682.617	86.4836	682.617	93.543	682.617	83.847	682.617	92.2662	682.617	81.6216	682.617	90.2465	682.617	80.0737	682.617	87.6483	682.617	78.821	682.617	85.041	682.617	77.1536	682.617	83.0116	682.617	75.1902	682.617	81.4329	682.617	75.3745	682.617	80.348	682.617	77.4353	682.617	80.2624	682.617	78.5557	682.617	81.4531	682.617	78.3301	682.617	83.717	682.617	77.9634	682.617	85.6131	682.617	78.8	682.617	86.3905	682.617	80.5637	682.617	86.3839	682.617	82.7802	682.617	85.9359	682.617	84.7683
707.52	92.6814	707.52	91.1583	707.52	93.5645	707.52	88.7678	707.52	93.9982	707.52	85.6569	707.52	93.9271	707.52	82.888	707.52	93.0995	707.52	81.5069	707.52	91.2625	707.52	80.5335	707.52	88.3605	707.52	78.9069	707.52	84.9765	707.52	77.1685	707.52	82.4113	707.52	76.871	707.52	80.2149	707.52	77.0176	707.52	78.7931	707.52	75.436	707.52	80.9435	707.52	71.6187	707.52	82.1515	707.52	73.4895	707.52	81.7501	707.52	78.3129	707.52	82.4381	707.52	81.1468	707.52	82.8469	707.52	82.4665	707.52	82.0115	707.52	82.5752	707.52	81.5015	707.52	81.946
732.422	91.7441	732.422	90.0895	732.422	92.5401	732.422	87.7448	732.422	92.6315	732.422	85.4165	732.422	92.3237	732.422	84.013	732.422	91.7602	732.422	83.0491	732.422	90.7405	732.422	81.6319	732.422	88.9099	732.422	79.9987	732.422	86.0699	732.422	78.8203	732.422	82.7162	732.422	78.3436	732.422	80.7173	732.422	78.9025	732.422	80.7092	732.422	79.8267	732.422	81.5227	732.422	79.4251	732.422	82.5608	732.422	76.4213	732.422	82.1957	732.422	70.4853	732.422	78.8987	732.422	74.0813	732.422	75.144	732.422	78.9145	732.422	78.0092	732.422	81.1357	732.422	80.3168	732.422	81.4371
757.324	91.1358	757.324	89.2232	757.324	92.4678	757.324	86.9223	757.324	93.2053	757.324	84.929	757.324	93.178	757.324	83.52	757.324	92.1899	757.324	81.8692	757.324	90.2447	757.324	79.4131	757.324	87.667	757.324	77.1026	757.324	85.022	757.324	76.4627	757.324	82.3502	757.324	75.8152	757.324	79.3609	757.324	75.6275	757.324	78.3229	757.324	77.9395	757.324	79.6697	757.324	78.7539	757.324	81.0423	757.324	77.8421	757.324	83.2894	757.324	77.71	757.324	85.2828	757.324	78.8598	757.324	85.0332	757.324	78.9946	757.324	83.1824	757.324	79.5745	757.324	83.3275	757.324	82.5956
785.156	90.7291	785.156	88.7131	785.156	92.2429	785.156	87.0037	785.156	93.0788	785.156	86.4658	785.156	93.0178	785.156	86.6575	785.156	91.591	785.156	86.6411	785.156	89.0228	785.156	86.3093	785.156	86.5111	785.156	85.9561	785.156	84.5925	785.156	85.832	785.156	85.1802	785.156	86.6001	785.156	85.5122	785.156	87.8093	785.156	83.3882	785.156	87.8681	785.156	79.6446	785.156	87.0668	785.156	71.504	785.156	86.4025	785.156	81.0336	785.156	85.5577	785.156	87.3053	785.156	86.2185	785.156	88.3123	785.156	85.5697	785.156	85.6194	785.156	81.1937	785.156	77.3214	785.156	69.6734
811.523	91.2742	811.523	90.3024	811.523	91.7695	811.523	88.9465	811.523	91.8447	811.523	87.3688	811.523	91.8938	811.523	85.8382	811.523	92.0467	811.523	84.7381	811.523	91.6431	811.523	84.1668	811.523	89.5573	811.523	83.6179	811.523	84.7635	811.523	82.1357	811.523	79.4484	811.523	78.8809	811.523	79.108	811.523	77.8365	811.523	78.4568	811.523	79.6661	811.523	81.4374	811.523	78.317	811.523	84.6491	811.523	76.7051	811.523	85.1943	811.523	75.3924	811.523	82.7294	811.523	71.9181	811.523	80.1869	811.523	75.0351	811.523	82.2889	811.523	80.027	811.523	81.4234	811.523	81.29
840.82	91.5482	840.82	90.2416	840.82	91.5289	840.82	87.5072	840.82	91.0828	840.82	83.5285	840.82	91.5788	840.82	80.0276	840.82	92.373	840.82	80.4462	840.82	91.9385	840.82	83.2048	840.82	89.2084	840.82	85.9199	840.82	83.5762	840.82	87.7052	840.82	80.407	840.82	87.9964	840.82	82.2612	840.82	86.4424	840.82	83.4412	840.82	84.0711	840.82	84.7082	840.82	82.7589	840.82	84.6335	840.82	79.963	840.82	82.1548	840.82	74.7806	840.82	80.1455	840.82	77.3175	840.82	77.147	840.82	79.7678	840.82	72.2237	840.82	78.9521	840.82	73.7232	840.82	76.7369
870.117	90.5543	870.117	89.1136	870.117	92.0665	870.117	88.065	870.117	92.6405	870.117	86.6961	870.117	91.8664	870.117	84.6738	870.117	90.5289	870.117	82.8011	870.117	89.7757	870.117	81.9029	870.117	89.0737	870.117	81.3042	870.117	86.3184	870.117	79.6604	870.117	80.5087	870.117	77.0125	870.117	81.907	870.117	78.8184	870.117	83.0784	870.117	81.7799	870.117	79.9565	870.117	80.2775	870.117	75.6663	870.117	81.1926	870.117	77.1516	870.117	83.6021	870.117	84.4706	870.117	82.3899	870.117	86.5383	870.117	81.6411	870.117	85.2897	870.117	80.1252	870.117	78.5579	870.117	73.2591
900.879	90.647	900.879	88.9417	900.879	92.3396	900.879	87.0375	900.879	93.143	900.879	84.6159	900.879	92.3633	900.879	82.4161	900.879	90.4387	900.879	81.4073	900.879	88.7286	900.879	80.7119	900.879	87.8323	900.879	80.0037	900.879	86.178	900.879	80.2833	900.879	83.2238	900.879	81.0692	900.879	81.8614	900.879	80.5963	900.879	82.2245	900.879	79.9389	900.879	81.2666	900.879	81.0309	900.879	75.685	900.879	79.7282	900.879	68.8556	900.879	77.7152	900.879	81.6968	900.879	79.9871	900.879	85.2416	900.879	81.0154	900.879	84.9055	900.879	78.9664	900.879	81.7914	900.879	78.5814
933.105	91.8032	933.105	90.4035	933.105	92.1627	933.105	87.7813	933.105	92.0787	933.105	84.5821	933.105	92.179	933.105	82.5577	933.105	92.2174	933.105	82.9615	933.105	91.3614	933.105	85.7466	933.105	88.5304	933.105	88.3985	933.105	81.6495	933.105	89.8839	933.105	74.2157	933.105	90.1977	933.105	81.2679	933.105	89.7314	933.105	84.0458	933.105	88.8116	933.105	86.1231	933.105	87.1426	933.105	87.3617	933.105	85.527	933.105	85.9832	933.105	82.4842	933.105	79.2313	933.105	77.2108	933.105	75.8023	933.105	76.9335	933.105	82.2091	933.105	80.2164	933.105	82.9787	933.105	82.7217
965.332	91.318	965.332	89.569	965.332	92.3366	965.332	87.5788	965.332	92.0864	965.332	85.7146	965.332	91.0953	965.332	84.8624	965.332	90.5665	965.332	84.9667	965.332	90.2391	965.332	84.9025	965.332	88.8839	965.332	83.6938	965.332	85.4044	965.332	81.6136	965.332	80.459	965.332	79.2868	965.332	81.2903	965.332	74.6413	965.332	83.4546	965.332	74.4437	965.332	82.5204	965.332	79.2662	965.332	74.2437	965.332	79.698	965.332	75.6142	965.332	74.8067	965.332	80.6205	965.332	80.0615	965.332	80.2149	965.332	80.721	965.332	79.1293	965.332	78.7272	965.332	73.4868	965.332	73.2525
1,000.49	91.6216	1,000.49	90.252	1,000.49	92.0851	1,000.49	87.8236	1,000.49	92.1666	1,000.49	85.5866	1,000.49	91.8072	1,000.49	85.0966	1,000.49	90.5548	1,000.49	84.7563	1,000.49	88.5492	1,000.49	83.033	1,000.49	86.3046	1,000.49	80.6298	1,000.49	83.7459	1,000.49	80.4694	1,000.49	80.1697	1,000.49	79.8282	1,000.49	74.1323	1,000.49	75.3077	1,000.49	73.424	1,000.49	68.5406	1,000.49	78.6736	1,000.49	69.7813	1,000.49	79.6307	1,000.49	75.2876	1,000.49	76.7222	1,000.49	80.2963	1,000.49	78.5055	1,000.49	80.2392	1,000.49	81.0979	1,000.49	78.5809	1,000.49	80.1448	1,000.49	79.2124	1,000.49	77.9717	1,000.49	77.5654
1,035.64	90.7885	1,035.64	88.7803	1,035.64	92.1161	1,035.64	86.6521	1,035.64	92.369	1,035.64	85.5946	1,035.64	91.544	1,035.64	85.3207	1,035.64	90.1742	1,035.64	84.1568	1,035.64	89.2182	1,035.64	83.7241	1,035.64	88.0903	1,035.64	84.4627	1,035.64	84.6772	1,035.64	83.232	1,035.64	78.3863	1,035.64	79.4251	1,035.64	74.0743	1,035.64	77.2389	1,035.64	75.6892	1,035.64	75.3959	1,035.64	81.148	1,035.64	78.397	1,035.64	82.5325	1,035.64	82.3372	1,035.64	81.0111	1,035.64	79.8465	1,035.64	82.1735	1,035.64	76.4751	1,035.64	82.0615	1,035.64	79.8635	1,035.64	81.0384	1,035.64	77.4468	1,035.64	78.5843	1,035.64	75.4179
1,072.27	90.4841	1,072.27	89.7133	1,072.27	90.7094	1,072.27	88.4377	1,072.27	91.1612	1,072.27	87.4208	1,072.27	90.7669	1,072.27	86.1619	1,072.27	88.7748	1,072.27	85.4439	1,072.27	86.3171	1,072.27	84.5863	1,072.27	85.9622	1,072.27	81.2868	1,072.27	86.6777	1,072.27	76.543	1,072.27	84.9694	1,072.27	81.1478	1,072.27	85.0403	1,072.27	82.246	1,072.27	85.7247	1,072.27	77.8175	1,072.27	81.3884	1,072.27	71.6831	1,072.27	75.5373	1,072.27	72.7244	1,072.27	70.7147	1,072.27	76.4357	1,072.27	68.4854	1,072.27	77.6956	1,072.27	75.5178	1,072.27	76.6745	1,072.27	73.5958	1,072.27	77.9629	1,072.27	72.838	1,072.27	76.6105
1,108.89	90.0283	1,108.89	88.4525	1,108.89	91.2795	1,108.89	87.7197	1,108.89	91.1332	1,108.89	87.5695	1,108.89	90.0068	1,108.89	87.3585	1,108.89	88.8627	1,108.89	86.9445	1,108.89	87.941	1,108.89	86.1598	1,108.89	86.0383	1,108.89	84.8332	1,108.89	79.6285	1,108.89	84.3797	1,108.89	57.1036	1,108.89	85.5864	1,108.89	77.8458	1,108.89	86.4076	1,108.89	83.7143	1,108.89	84.6047	1,108.89	86.5391	1,108.89	82.3368	1,108.89	86.5601	1,108.89	83.7654	1,108.89	84.8581	1,108.89	84.5907	1,108.89	81.0421	1,108.89	80.7182	1,108.89	74.2649	1,108.89	75.5026	1,108.89	79.2607	1,108.89	72.5526	1,108.89	79.775	1,108.89	74.9465
1,148.44	91.1504	1,148.44	91.4518	1,148.44	90.845	1,148.44	90.4454	1,148.44	91.5047	1,148.44	88.1589	1,148.44	92.1124	1,148.44	85.3123	1,148.44	90.9342	1,148.44	82.2786	1,148.44	86.8352	1,148.44	80.4953	1,148.44	80.8263	1,148.44	82.7843	1,148.44	83.0329	1,148.44	85.5598	1,148.44	83.8639	1,148.44	86.4517	1,148.44	79.5057	1,148.44	86.0961	1,148.44	73.2257	1,148.44	85.5828	1,148.44	77.3072	1,148.44	85.1263	1,148.44	76.5392	1,148.44	80.4186	1,148.44	72.2489	1,148.44	77.8925	1,148.44	76.673	1,148.44	80.4787	1,148.44	75.4798	1,148.44	78.7844	1,148.44	79.4937	1,148.44	79.6488	1,148.44	80.4656	1,148.44	80.3022
1,189.45	92.3979	1,189.45	91.931	1,189.45	92.2462	1,189.45	89.9086	1,189.45	91.7219	1,189.45	86.3308	1,189.45	90.8172	1,189.45	84.1874	1,189.45	89.704	1,189.45	83.3299	1,189.45	88.7272	1,189.45	85.0829	1,189.45	86.1547	1,189.45	86.5415	1,189.45	79.7982	1,189.45	86.3206	1,189.45	77.6071	1,189.45	85.9415	1,189.45	80.9771	1,189.45	84.6241	1,189.45	79.5631	1,189.45	82.5795	1,189.45	78.0312	1,189.45	83.1221	1,189.45	78.6075	1,189.45	79.085	1,189.45	80.3646	1,189.45	67.6596	1,189.45	82.0164	1,189.45	69.8633	1,189.45	79.5714	1,189.45	76.5881	1,189.45	78.3891	1,189.45	80.6992	1,189.45	65.0958	1,189.45	79.8819
1,230.47	93.3966	1,230.47	91.376	1,230.47	92.0358	1,230.47	86.126	1,230.47	91.3678	1,230.47	85.1265	1,230.47	92.2863	1,230.47	88.3955	1,230.47	91.3142	1,230.47	90.5647	1,230.47	85.0695	1,230.47	90.7295	1,230.47	82.9541	1,230.47	89.7688	1,230.47	87.8382	1,230.47	88.9574	1,230.47	88.3651	1,230.47	87.6234	1,230.47	83.6865	1,230.47	83.4734	1,230.47	81.4993	1,230.47	83.6395	1,230.47	78.9692	1,230.47	84.1613	1,230.47	75.8006	1,230.47	85.3392	1,230.47	71.4149	1,230.47	81.5026	1,230.47	79.074	1,230.47	65.477	1,230.47	83.5378	1,230.47	73.1051	1,230.47	80.6566	1,230.47	78.9885	1,230.47	73.9062	1,230.47	77.7835
1,274.41	91.8775	1,274.41	89.3715	1,274.41	92.3371	1,274.41	86.6762	1,274.41	91.4039	1,274.41	87.1737	1,274.41	88.9713	1,274.41	88.1612	1,274.41	86.5771	1,274.41	86.8026	1,274.41	87.0866	1,274.41	82.973	1,274.41	87.4004	1,274.41	83.2913	1,274.41	84.4109	1,274.41	84.5862	1,274.41	78.5756	1,274.41	83.8307	1,274.41	78.7887	1,274.41	83.9368	1,274.41	79.9069	1,274.41	80.7598	1,274.41	81.1606	1,274.41	75.522	1,274.41	79.784	1,274.41	79.3101	1,274.41	81.2918	1,274.41	80.4601	1,274.41	81.0651	1,274.41	79.0145	1,274.41	71.8767	1,274.41	74.0022	1,274.41	70.3731	1,274.41	77.1355	1,274.41	73.8233	1,274.41	75.8366
1,319.82	90.6885	1,319.82	88.5108	1,319.82	91.5379	1,319.82	87.3915	1,319.82	92.132	1,319.82	88.1614	1,319.82	92.2312	1,319.82	88.4775	1,319.82	88.0129	1,319.82	87.9781	1,319.82	82.6094	1,319.82	84.5326	1,319.82	78.2521	1,319.82	68.0177	1,319.82	79.8316	1,319.82	73.0462	1,319.82	83.6671	1,319.82	64.6073	1,319.82	81.2635	1,319.82	66.4916	1,319.82	77.2457	1,319.82	77.8463	1,319.82	57.4324	1,319.82	82.2313	1,319.82	76.6077	1,319.82	78.4114	1,319.82	70.3018	1,319.82	78.6049	1,319.82	78.0268	1,319.82	78.9421	1,319.82	71.0869	1,319.82	77.4907	1,319.82	78.3319	1,319.82	74.561	1,319.82	68.2665	1,319.82	73.6119
1,366.7	89.8354	1,366.7	90.0348	1,366.7	90.8281	1,366.7	88.7526	1,366.7	91.8311	1,366.7	85.8954	1,366.7	90.4679	1,366.7	85.7647	1,366.7	87.5588	1,366.7	86.58	1,366.7	86.2042	1,366.7	86.6271	1,366.7	87.3441	1,366.7	86.9673	1,366.7	87.1302	1,366.7	82.4855	1,366.7	83.2977	1,366.7	79.9928	1,366.7	77.4586	1,366.7	84.0012	1,366.7	75.0745	1,366.7	78.3041	1,366.7	60.1387	1,366.7	77.6444	1,366.7	81.6467	1,366.7	73.5184	1,366.7	86.1819	1,366.7	76.6926	1,366.7	84.7058	1,366.7	81.9768	1,366.7	71.6083	1,366.7	80.2702	1,366.7	79.1416	1,366.7	76.7231	1,366.7	80.9187	1,366.7	68.8393
1,413.57	91.2624	1,413.57	89.4828	1,413.57	91.3593	1,413.57	87.4193	1,413.57	91.1256	1,413.57	87.4079	1,413.57	90.0714	1,413.57	87.5595	1,413.57	86.6757	1,413.57	85.7367	1,413.57	83.1357	1,413.57	85.2931	1,413.57	84.296	1,413.57	85.8303	1,413.57	82.263	1,413.57	84.4914	1,413.57	77.7098	1,413.57	80.7891	1,413.57	78.5449	1,413.57	61.4321	1,413.57	80.5868	1,413.57	77.8153	1,413.57	79.7323	1,413.57	77.3702	1,413.57	67.7101	1,413.57	76.7879	1,413.57	67.6598	1,413.57	78.511	1,413.57	67.1133	1,413.57	74.2736	1,413.57	65.9802	1,413.57	75.8165	1,413.57	72.019	1,413.57	75.2427	1,413.57	67.1133	1,413.57	74.1929
1,463.38	92.1998	1,463.38	90.0739	1,463.38	92.2481	1,463.38	87.3216	1,463.38	89.853	1,463.38	86.4154	1,463.38	89.2806	1,463.38	86.4167	1,463.38	88.9065	1,463.38	85.087	1,463.38	83.4582	1,463.38	85.0352	1,463.38	80.4023	1,463.38	85.8363	1,463.38	81.3917	1,463.38	85.488	1,463.38	82.382	1,463.38	82.5151	1,463.38	76.8033	1,463.38	75.6755	1,463.38	78.6228	1,463.38	74.9738	1,463.38	71.2878	1,463.38	79.879	1,463.38	71.7129	1,463.38	77.2648	1,463.38	78.5289	1,463.38	73.0603	1,463.38	81.9137	1,463.38	75.483	1,463.38	78.0178	1,463.38	75.4944	1,463.38	73.7946	1,463.38	74.0219	1,463.38	77.5313	1,463.38	72.5635
1,516.11	93.3212	1,516.11	90.1923	1,516.11	92.2407	1,516.11	87.0173	1,516.11	89.6834	1,516.11	89.2287	1,516.11	89.2915	1,516.11	89.455	1,516.11	85.3475	1,516.11	81.5479	1,516.11	75.1032	1,516.11	80.8716	1,516.11	77.5304	1,516.11	85.5102	1,516.11	84.618	1,516.11	88.3665	1,516.11	88.1492	1,516.11	87.4124	1,516.11	84.0557	1,516.11	84.6108	1,516.11	67.1178	1,516.11	82.039	1,516.11	72.7232	1,516.11	74.9833	1,516.11	72.761	1,516.11	80.1333	1,516.11	77.0971	1,516.11	81.4039	1,516.11	47.3525	1,516.11	79.4983	1,516.11	77.3295	1,516.11	74.464	1,516.11	72.8818	1,516.11	72.7063	1,516.11	66.5098	1,516.11	77.8762
1,568.85	91.8474	1,568.85	89.7097	1,568.85	92.0625	1,568.85	88.0746	1,568.85	90.6359	1,568.85	88.3142	1,568.85	86.746	1,568.85	88.2146	1,568.85	82.5361	1,568.85	86.4667	1,568.85	85.4539	1,568.85	80.7468	1,568.85	85.4089	1,568.85	67.0775	1,568.85	83.8239	1,568.85	74.3591	1,568.85	80.7859	1,568.85	80.4643	1,568.85	80.5773	1,568.85	83.5317	1,568.85	81.2016	1,568.85	84.0062	1,568.85	75.062	1,568.85	77.4222	1,568.85	66.9337	1,568.85	51.5576	1,568.85	78.67	1,568.85	76.7527	1,568.85	77.5207	1,568.85	76.7021	1,568.85	75.9056	1,568.85	63.0612	1,568.85	76.098	1,568.85	69.0117	1,568.85	73.4012	1,568.85	74.5312
1,624.51	91.5394	1,624.51	87.587	1,624.51	91.2776	1,624.51	85.0254	1,624.51	89.4568	1,624.51	88.4143	1,624.51	87.2929	1,624.51	88.7683	1,624.51	82.7563	1,624.51	83.597	1,624.51	83.8856	1,624.51	85.3741	1,624.51	87.2434	1,624.51	84.9421	1,624.51	85.6866	1,624.51	79.6033	1,624.51	82.2029	1,624.51	74.2098	1,624.51	79.1861	1,624.51	74.5806	1,624.51	72.8807	1,624.51	65.4477	1,624.51	76.0439	1,624.51	75.3237	1,624.51	79.0545	1,624.51	77.1533	1,624.51	78.8177	1,624.51	81.4817	1,624.51	68.0156	1,624.51	75.5029	1,624.51	74.4882	1,624.51	69.812	1,624.51	56.034	1,624.51	75.7322	1,624.51	65.7884	1,624.51	76.9764
1,681.64	91.9668	1,681.64	88.5766	1,681.64	91.7134	1,681.64	86.4717	1,681.64	87.9684	1,681.64	87.5215	1,681.64	84.928	1,681.64	87.6236	1,681.64	83.0142	1,681.64	86.2308	1,681.64	81.7114	1,681.64	83.5715	1,681.64	86.7534	1,681.64	80.2304	1,681.64	88.1378	1,681.64	75.4861	1,681.64	85.5557	1,681.64	75.8227	1,681.64	81.3769	1,681.64	70.2096	1,681.64	54.0447	1,681.64	76.8987	1,681.64	79.0836	1,681.64	76.1327	1,681.64	62.6492	1,681.64	72.1276	1,681.64	48.7196	1,681.64	79.1298	1,681.64	71.0097	1,681.64	79.1737	1,681.64	55.9702	1,681.64	74.2867	1,681.64	68.928	1,681.64	74.0067	1,681.64	74.1374	1,681.64	70.9352
1,741.7	92.8277	1,741.7	89.0918	1,741.7	93.0043	1,741.7	87.0411	1,741.7	89.3506	1,741.7	87.3075	1,741.7	83.7903	1,741.7	86.6245	1,741.7	82.8897	1,741.7	84.8329	1,741.7	84.2015	1,741.7	83.4242	1,741.7	84.4181	1,741.7	81.8622	1,741.7	88.5205	1,741.7	79.3054	1,741.7	87.6174	1,741.7	72.9848	1,741.7	78.4934	1,741.7	74.6744	1,741.7	78.7908	1,741.7	73.9817	1,741.7	75.7162	1,741.7	78.9454	1,741.7	76.3896	1,741.7	77.49	1,741.7	63.2465	1,741.7	73.3622	1,741.7	74.0673	1,741.7	72.7604	1,741.7	71.1632	1,741.7	71.7375	1,741.7	63.863	1,741.7	68.5225	1,741.7	75.3993	1,741.7	75.6257
1,803.22	92.8215	1,803.22	89.5861	1,803.22	93.5975	1,803.22	88.7207	1,803.22	90.8947	1,803.22	87.1716	1,803.22	84.3346	1,803.22	86.6815	1,803.22	81.921	1,803.22	86.1457	1,803.22	86.3926	1,803.22	83.1069	1,803.22	88.2158	1,803.22	81.1392	1,803.22	87.3987	1,803.22	81.1085	1,803.22	85.8014	1,803.22	80.7457	1,803.22	83.6104	1,803.22	76.9177	1,803.22	76.4141	1,803.22	75.1612	1,803.22	74.5536	1,803.22	72.2727	1,803.22	76.692	1,803.22	74.4213	1,803.22	73.1333	1,803.22	77.1347	1,803.22	78.9907	1,803.22	75.4128	1,803.22	75.0911	1,803.22	64.6563	1,803.22	68.8675	1,803.22	67.2274	1,803.22	76.0776	1,803.22	69.9012
1,866.21	91.3317	1,866.21	89.2526	1,866.21	92.5507	1,866.21	88.4476	1,866.21	89.2995	1,866.21	87.9034	1,866.21	85.764	1,866.21	86.6678	1,866.21	79.6534	1,866.21	84.9679	1,866.21	87.0113	1,866.21	84.5468	1,866.21	89.0082	1,866.21	82.0725	1,866.21	89.1294	1,866.21	78.0776	1,866.21	86.3806	1,866.21	75.6846	1,866.21	74.3928	1,866.21	74.3926	1,866.21	79.6019	1,866.21	75.7751	1,866.21	76.7228	1,866.21	78.2804	1,866.21	73.8665	1,866.21	77.3483	1,866.21	70.0013	1,866.21	72.5219	1,866.21	73.5669	1,866.21	73.5308	1,866.21	61.4241	1,866.21	71.4437	1,866.21	69.7295	1,866.21	68.7489	1,866.21	74.1472	1,866.21	76.7657
1,932.13	91.4227	1,932.13	88.5952	1,932.13	91.1859	1,932.13	86.9184	1,932.13	88.5545	1,932.13	86.9497	1,932.13	86.1842	1,932.13	85.4761	1,932.13	84.9012	1,932.13	84.6973	1,932.13	84.3243	1,932.13	81.935	1,932.13	88.821	1,932.13	80.3692	1,932.13	87.7607	1,932.13	78.4336	1,932.13	86.7491	1,932.13	76.3485	1,932.13	83.1174	1,932.13	75.0152	1,932.13	72.7161	1,932.13	75.7157	1,932.13	74.4515	1,932.13	72.6793	1,932.13	78.549	1,932.13	75.5621	1,932.13	73.5587	1,932.13	75.566	1,932.13	70.4684	1,932.13	70.0193	1,932.13	75.3139	1,932.13	61.007	1,932.13	68.0778	1,932.13	70.8386	1,932.13	72.743	1,932.13	70.0194
1,999.51	91.6316	1,999.51	88.2728	1,999.51	91.6447	1,999.51	87.6917	1,999.51	87.3583	1,999.51	87.5891	1,999.51	84.6035	1,999.51	85.8072	1,999.51	83.2814	1,999.51	85.051	1,999.51	86.8342	1,999.51	83.5034	1,999.51	88.8014	1,999.51	80.7156	1,999.51	90.1148	1,999.51	81.228	1,999.51	86.6213	1,999.51	80.1951	1,999.51	73.8305	1,999.51	77.011	1,999.51	80.1013	1,999.51	75.4785	1,999.51	77.4576	1,999.51	76.1984	1,999.51	74.3492	1,999.51	73.4645	1,999.51	75.01	1,999.51	73.4819	1,999.51	68.2091	1,999.51	69.081	1,999.51	65.3748	1,999.51	59.7535	1,999.51	68.3128	1,999.51	69.5256	1,999.51	66.4076	1,999.51	76.032
2,069.82	91.8855	2,069.82	89.1452	2,069.82	91.7553	2,069.82	88.1528	2,069.82	87.6916	2,069.82	85.4745	2,069.82	86.6036	2,069.82	84.6283	2,069.82	83.7725	2,069.82	82.9757	2,069.82	86.6414	2,069.82	82.0947	2,069.82	90.2124	2,069.82	80.8578	2,069.82	89.1956	2,069.82	75.8554	2,069.82	86.4852	2,069.82	73.0511	2,069.82	78.2237	2,069.82	74.0852	2,069.82	74.7991	2,069.82	74.572	2,069.82	77.3107	2,069.82	74.1467	2,069.82	75.8061	2,069.82	76.6785	2,069.82	73.4557	2,069.82	73.9169	2,069.82	69.9113	2,069.82	70.1354	2,069.82	68.1542	2,069.82	69.9254	2,069.82	67.7673	2,069.82	67.0579	2,069.82	72.4035	2,069.82	74.1058
2,143.07	90.0588	2,143.07	89.3181	2,143.07	90.5017	2,143.07	90.0889	2,143.07	87.3197	2,143.07	85.6699	2,143.07	87.9174	2,143.07	82.3715	2,143.07	86.0624	2,143.07	82.177	2,143.07	86.9892	2,143.07	82.2598	2,143.07	89.2877	2,143.07	80.5584	2,143.07	89.979	2,143.07	79.2553	2,143.07	85.8561	2,143.07	79.2813	2,143.07	76.9289	2,143.07	75.0783	2,143.07	76.1533	2,143.07	73.8608	2,143.07	76.823	2,143.07	75.3691	2,143.07	76.4991	2,143.07	74.1309	2,143.07	75.0652	2,143.07	73.6635	2,143.07	71.6176	2,143.07	69.6652	2,143.07	68.6136	2,143.07	64.3878	2,143.07	69.2485	2,143.07	71.2388	2,143.07	65.0749	2,143.07	72.4198
2,219.24	89.643	2,219.24	89.5896	2,219.24	88.4687	2,219.24	88.4746	2,219.24	84.8964	2,219.24	83.7782	2,219.24	87.0955	2,219.24	81.6279	2,219.24	87.2493	2,219.24	82.9053	2,219.24	86.3485	2,219.24	80.3735	2,219.24	88.7948	2,219.24	79.9721	2,219.24	87.6608	2,219.24	77.559	2,219.24	85.5128	2,219.24	77.4213	2,219.24	78.0635	2,219.24	76.7074	2,219.24	70.5603	2,219.24	74.7543	2,219.24	76.1763	2,219.24	73.3224	2,219.24	74.1284	2,219.24	76.7063	2,219.24	74.6171	2,219.24	77.142	2,219.24	72.0096	2,219.24	69.5886	2,219.24	71.6296	2,219.24	60.1592	2,219.24	69.3928	2,219.24	71.337	2,219.24	69.279	2,219.24	74.1744
2,296.88	90.9477	2,296.88	90.9801	2,296.88	87.785	2,296.88	87.6005	2,296.88	82.9061	2,296.88	81.1899	2,296.88	86.2266	2,296.88	79.8209	2,296.88	87.6865	2,296.88	83.3691	2,296.88	87.4646	2,296.88	82.6925	2,296.88	86.2649	2,296.88	81.228	2,296.88	87.6041	2,296.88	79.8083	2,296.88	83.7978	2,296.88	78.9189	2,296.88	80.382	2,296.88	74.2645	2,296.88	65.1837	2,296.88	76.6417	2,296.88	75.1826	2,296.88	76.828	2,296.88	62.8015	2,296.88	72.1933	2,296.88	70.7804	2,296.88	77.0359	2,296.88	74.3042	2,296.88	74.2885	2,296.88	68.9345	2,296.88	66.9071	2,296.88	70.976	2,296.88	70.6451	2,296.88	69.4481	2,296.88	72.6153
2,378.91	91.0347	2,378.91	90.2684	2,378.91	88.0806	2,378.91	87.2575	2,378.91	82.5622	2,378.91	80.2723	2,378.91	85.9207	2,378.91	83.1937	2,378.91	87.4103	2,378.91	84.965	2,378.91	87.6906	2,378.91	84.0996	2,378.91	86.9062	2,378.91	82.749	2,378.91	85.3696	2,378.91	82.0069	2,378.91	83.8477	2,378.91	81.4056	2,378.91	74.7628	2,378.91	78.8846	2,378.91	74.2222	2,378.91	73.1558	2,378.91	67.8244	2,378.91	74.9373	2,378.91	72.0761	2,378.91	73.4789	2,378.91	68.4993	2,378.91	72.7577	2,378.91	74.6871	2,378.91	74.8164	2,378.91	68.6979	2,378.91	66.5062	2,378.91	69.8389	2,378.91	69.8854	2,378.91	64.8976	2,378.91	72.119
2,462.4	90.6531	2,462.4	90.1316	2,462.4	86.1917	2,462.4	87.3435	2,462.4	80.173	2,462.4	75.3865	2,462.4	85.1453	2,462.4	83.4588	2,462.4	87.5971	2,462.4	83.5524	2,462.4	87.8886	2,462.4	83.7992	2,462.4	87.2965	2,462.4	82.7434	2,462.4	84.4618	2,462.4	79.9489	2,462.4	78.8382	2,462.4	78.772	2,462.4	74.9457	2,462.4	72.5794	2,462.4	67.8781	2,462.4	76.9259	2,462.4	64.3129	2,462.4	75.181	2,462.4	68.9513	2,462.4	74.7613	2,462.4	70.5467	2,462.4	73.2094	2,462.4	71.6414	2,462.4	70.4488	2,462.4	70.5499	2,462.4	62.0438	2,462.4	68.6377	2,462.4	72.056	2,462.4	69.6627	2,462.4	75.1091
2,548.83	90.6709	2,548.83	89.0754	2,548.83	86.6251	2,548.83	85.67	2,548.83	80.1965	2,548.83	76.7166	2,548.83	84.5986	2,548.83	83.7684	2,548.83	87.6255	2,548.83	85.7875	2,548.83	88.0794	2,548.83	84.3161	2,548.83	85.1773	2,548.83	82.4714	2,548.83	83.3849	2,548.83	81.6019	2,548.83	74.7117	2,548.83	80.6172	2,548.83	67.4167	2,548.83	79.9878	2,548.83	66.1523	2,548.83	73.5306	2,548.83	67.0806	2,548.83	76.0001	2,548.83	70.5093	2,548.83	73.5242	2,548.83	69.5422	2,548.83	74.7731	2,548.83	73.8641	2,548.83	74.5542	2,548.83	65.7915	2,548.83	66.9521	2,548.83	71.844	2,548.83	67.6171	2,548.83	66.2033	2,548.83	72.0255
2,639.65	89.9655	2,639.65	89.3053	2,639.65	85.9473	2,639.65	85.2851	2,639.65	79.0556	2,639.65	69.84	2,639.65	83.8775	2,639.65	84.702	2,639.65	86.9217	2,639.65	85.3789	2,639.65	87.8154	2,639.65	83.8677	2,639.65	84.65	2,639.65	83.4828	2,639.65	79.4989	2,639.65	79.5584	2,639.65	77.5102	2,639.65	79.6348	2,639.65	71.8402	2,639.65	74.2354	2,639.65	63.6933	2,639.65	76.3347	2,639.65	67.356	2,639.65	74.4967	2,639.65	70.7643	2,639.65	75.2802	2,639.65	67.5213	2,639.65	71.6086	2,639.65	71.2498	2,639.65	74.3829	2,639.65	66.6963	2,639.65	68.3491	2,639.65	69.7411	2,639.65	62.4029	2,639.65	66.5236	2,639.65	71.3285
2,731.93	89.8393	2,731.93	88.1922	2,731.93	85.198	2,731.93	84.094	2,731.93	78.1716	2,731.93	74.0157	2,731.93	82.8751	2,731.93	85.904	2,731.93	87.3133	2,731.93	86.6154	2,731.93	88.0286	2,731.93	84.8493	2,731.93	83.215	2,731.93	82.7347	2,731.93	80.1549	2,731.93	82.3666	2,731.93	71.7616	2,731.93	79.883	2,731.93	76.3026	2,731.93	77.7087	2,731.93	62.2163	2,731.93	72.8388	2,731.93	69.2029	2,731.93	73.5717	2,731.93	67.3915	2,731.93	73.9576	2,731.93	68.9996	2,731.93	75.1104	2,731.93	69.4968	2,731.93	72.847	2,731.93	65.8249	2,731.93	63.4047	2,731.93	70.6123	2,731.93	68.6547	2,731.93	66.6696	2,731.93	70.071
2,828.61	89.8798	2,828.61	88.888	2,828.61	85.539	2,828.61	83.8882	2,828.61	76.3864	2,828.61	78.1988	2,828.61	82.854	2,828.61	85.9159	2,828.61	86.5385	2,828.61	85.8665	2,828.61	87.2076	2,828.61	85.3606	2,828.61	80.7229	2,828.61	83.5816	2,828.61	79.7991	2,828.61	78.9457	2,828.61	77.6163	2,828.61	80.7238	2,828.61	73.3909	2,828.61	74.7272	2,828.61	63.6748	2,828.61	75.2841	2,828.61	61.7569	2,828.61	74.0045	2,828.61	69.6548	2,828.61	71.4945	2,828.61	69.3602	2,828.61	73.9376	2,828.61	70.9858	2,828.61	75.0727	2,828.61	64.6433	2,828.61	70.9999	2,828.61	68.6885	2,828.61	65.6438	2,828.61	68.8014	2,828.61	72.9918
2,928.22	89.2123	2,928.22	87.5354	2,928.22	84.3112	2,928.22	81.4899	2,928.22	75.0362	2,928.22	79.802	2,928.22	82.7588	2,928.22	86.826	2,928.22	85.7476	2,928.22	86.4121	2,928.22	86.7128	2,928.22	84.6027	2,928.22	81.8246	2,928.22	82.8239	2,928.22	78.9911	2,928.22	81.2843	2,928.22	80.8041	2,928.22	75.5014	2,928.22	77.2438	2,928.22	76.1841	2,928.22	66.8869	2,928.22	72.1039	2,928.22	68.1367	2,928.22	71.54	2,928.22	65.9538	2,928.22	69.7674	2,928.22	65.7994	2,928.22	73.46	2,928.22	71.0766	2,928.22	71.8478	2,928.22	66.3887	2,928.22	64.0281	2,928.22	67.3012	2,928.22	65.6764	2,928.22	69.4228	2,928.22	72.5811
3,030.76	88.518	3,030.76	87.2287	3,030.76	83.7382	3,030.76	81.5057	3,030.76	76.5007	3,030.76	82.4838	3,030.76	83.6112	3,030.76	86.6591	3,030.76	85.8371	3,030.76	86.0763	3,030.76	85.5538	3,030.76	84.777	3,030.76	81.2134	3,030.76	81.4021	3,030.76	79.7228	3,030.76	78.8922	3,030.76	80.3028	3,030.76	79.6334	3,030.76	78.8294	3,030.76	74.3276	3,030.76	69.2221	3,030.76	73.315	3,030.76	61.082	3,030.76	71.2776	3,030.76	68.6998	3,030.76	69.176	3,030.76	66.0428	3,030.76	71.8823	3,030.76	70.4897	3,030.76	73.4617	3,030.76	68.715	3,030.76	68.3764	3,030.76	66.3281	3,030.76	53.4104	3,030.76	70.7036	3,030.76	69.4578
3,137.7	88.8587	3,137.7	87.5288	3,137.7	83.5822	3,137.7	79.9562	3,137.7	78.258	3,137.7	83.9285	3,137.7	85.1942	3,137.7	86.5431	3,137.7	85.5237	3,137.7	85.775	3,137.7	84.7173	3,137.7	83.2918	3,137.7	81.4426	3,137.7	82.0944	3,137.7	81.2542	3,137.7	77.1874	3,137.7	79.7316	3,137.7	73.3308	3,137.7	77.0941	3,137.7	73.7188	3,137.7	71.0017	3,137.7	72.047	3,137.7	68.4702	3,137.7	71.0219	3,137.7	66.8658	3,137.7	67.1359	3,137.7	68.5466	3,137.7	70.2817	3,137.7	70.4981	3,137.7	70.8544	3,137.7	64.7787	3,137.7	64.7469	3,137.7	65.7455	3,137.7	63.0346	3,137.7	68.3067	3,137.7	72.2399
3,249.02	88.5458	3,249.02	87.2475	3,249.02	83.056	3,249.02	79.4735	3,249.02	79.6664	3,249.02	84.6689	3,249.02	86.1216	3,249.02	86.0013	3,249.02	84.7922	3,249.02	84.8313	3,249.02	83.4863	3,249.02	82.8815	3,249.02	83.0589	3,249.02	79.2059	3,249.02	83.4484	3,249.02	77.7602	3,249.02	81.395	3,249.02	78.0017	3,249.02	78.9644	3,249.02	75.1575	3,249.02	70.6874	3,249.02	70.6513	3,249.02	67.7596	3,249.02	71.1675	3,249.02	68.8295	3,249.02	70.3324	3,249.02	63.8391	3,249.02	61.5647	3,249.02	69.7833	3,249.02	69.8138	3,249.02	66.1819	3,249.02	66.341	3,249.02	63.8954	3,249.02	41.9857	3,249.02	70.1116	3,249.02	68.5123
3,363.28	88.9899	3,363.28	87.8835	3,363.28	82.8631	3,363.28	79.313	3,363.28	81.0005	3,363.28	85.8041	3,363.28	87.281	3,363.28	86.3213	3,363.28	85.2327	3,363.28	84.8007	3,363.28	81.7438	3,363.28	79.398	3,363.28	85.0101	3,363.28	79.071	3,363.28	85.6227	3,363.28	77.0539	3,363.28	83.4632	3,363.28	79.0609	3,363.28	79.9733	3,363.28	72.476	3,363.28	75.5658	3,363.28	74.9228	3,363.28	68.9238	3,363.28	71.5585	3,363.28	68.3681	3,363.28	72.0236	3,363.28	68.9371	3,363.28	70.7643	3,363.28	70.1032	3,363.28	66.0775	3,363.28	67.6013	3,363.28	65.4543	3,363.28	66.6178	3,363.28	60.7289	3,363.28	71.3399	3,363.28	70.7556
3,481.93	90.2876	3,481.93	88.0784	3,481.93	83.9106	3,481.93	80.3032	3,481.93	81.4748	3,481.93	85.5339	3,481.93	88.064	3,481.93	86.0023	3,481.93	85.5266	3,481.93	83.8398	3,481.93	80.8888	3,481.93	81.0942	3,481.93	85.3628	3,481.93	81.931	3,481.93	85.8719	3,481.93	80.2598	3,481.93	84.1181	3,481.93	74.6614	3,481.93	80.2031	3,481.93	77.0163	3,481.93	68.7828	3,481.93	74.4613	3,481.93	69.4897	3,481.93	72.6334	3,481.93	66.302	3,481.93	72.3681	3,481.93	69.2846	3,481.93	70.4393	3,481.93	69.5412	3,481.93	71.0151	3,481.93	65.158	3,481.93	67.8842	3,481.93	64.502	3,481.93	58.524	3,481.93	71.1869	3,481.93	69.7695
3,604.98	90.6073	3,604.98	87.777	3,604.98	85.0449	3,604.98	80.9968	3,604.98	81.8587	3,604.98	86.7731	3,604.98	88.5834	3,604.98	86.4133	3,604.98	85.7984	3,604.98	84.0967	3,604.98	80.5806	3,604.98	83.7243	3,604.98	85.0027	3,604.98	82.643	3,604.98	85.6981	3,604.98	81.6205	3,604.98	82.6452	3,604.98	79.7081	3,604.98	77.4025	3,604.98	78.226	3,604.98	68.6669	3,604.98	73.079	3,604.98	70.6834	3,604.98	73.6154	3,604.98	67.0579	3,604.98	73.2511	3,604.98	69.5592	3,604.98	71.4887	3,604.98	68.3266	3,604.98	71.9404	3,604.98	65.4971	3,604.98	65.2289	3,604.98	62.9402	3,604.98	57.6332	3,604.98	73.1839	3,604.98	67.8101
3,732.42	91.092	3,732.42	87.861	3,732.42	86.0359	3,732.42	82.0311	3,732.42	82.5235	3,732.42	87.5952	3,732.42	89.0727	3,732.42	87.1513	3,732.42	85.5188	3,732.42	84.9829	3,732.42	79.3547	3,732.42	84.0482	3,732.42	84.3262	3,732.42	82.3266	3,732.42	84.0248	3,732.42	79.6327	3,732.42	81.8759	3,732.42	79.8704	3,732.42	78.4154	3,732.42	75.3231	3,732.42	69.0834	3,732.42	73.6535	3,732.42	67.8336	3,732.42	71.01	3,732.42	70.5967	3,732.42	74.2038	3,732.42	68.205	3,732.42	72.9402	3,732.42	67.9056	3,732.42	71.5023	3,732.42	66.3584	3,732.42	65.0591	3,732.42	63.5285	3,732.42	64.2596	3,732.42	73.3312	3,732.42	67.6966
3,864.26	91.2607	3,864.26	87.5777	3,864.26	86.6739	3,864.26	83.656	3,864.26	83.7594	3,864.26	88.3754	3,864.26	89.8281	3,864.26	86.7796	3,864.26	86.243	3,864.26	85.6473	3,864.26	80.5225	3,864.26	83.7831	3,864.26	85.478	3,864.26	83.2623	3,864.26	84.0921	3,864.26	78.6197	3,864.26	80.2919	3,864.26	76.2081	3,864.26	78.5756	3,864.26	75.0074	3,864.26	64.6432	3,864.26	73.0539	3,864.26	70.32	3,864.26	70.4438	3,864.26	70.8607	3,864.26	72.7333	3,864.26	67.4082	3,864.26	71.5696	3,864.26	70.3941	3,864.26	72.1357	3,864.26	68.0656	3,864.26	68.9527	3,864.26	65.68	3,864.26	55.7615	3,864.26	71.5121	3,864.26	70.0649
4,000.49	91.6069	4,000.49	86.9531	4,000.49	87.0531	4,000.49	85.1301	4,000.49	84.5277	4,000.49	88.8434	4,000.49	89.7285	4,000.49	86.9327	4,000.49	85.673	4,000.49	85.1961	4,000.49	79.5389	4,000.49	84.2525	4,000.49	85.2782	4,000.49	81.3874	4,000.49	80.5145	4,000.49	79.8241	4,000.49	77.4695	4,000.49	75.2583	4,000.49	79.6497	4,000.49	76.4296	4,000.49	67.2819	4,000.49	72.7275	4,000.49	60.8147	4,000.49	70.8552	4,000.49	70.1888	4,000.49	69.9612	4,000.49	70.1751	4,000.49	72.9719	4,000.49	69.6511	4,000.49	73.0354	4,000.49	67.6148	4,000.49	67.8324	4,000.49	65.8275	4,000.49	63.761	4,000.49	72.748	4,000.49	67.2903
4,141.11	91.8627	4,141.11	87.1855	4,141.11	87.8485	4,141.11	86.9763	4,141.11	85.4966	4,141.11	89.2689	4,141.11	89.6405	4,141.11	87.1857	4,141.11	86.8705	4,141.11	86.0674	4,141.11	79.9461	4,141.11	83.8932	4,141.11	83.529	4,141.11	81.3818	4,141.11	81.2915	4,141.11	79.5209	4,141.11	82.2278	4,141.11	78.3332	4,141.11	80.675	4,141.11	76.0744	4,141.11	72.6929	4,141.11	72.8287	4,141.11	65.9652	4,141.11	70.7491	4,141.11	69.3972	4,141.11	72.8282	4,141.11	70.6722	4,141.11	70.3615	4,141.11	68.3997	4,141.11	71.6818	4,141.11	68.5956	4,141.11	70.1439	4,141.11	65.8785	4,141.11	56.2876	4,141.11	73.6113	4,141.11	66.4222
4,287.6	91.7569	4,287.6	86.9658	4,287.6	88.5137	4,287.6	87.8401	4,287.6	86.4837	4,287.6	89.8355	4,287.6	89.5904	4,287.6	87.1883	4,287.6	85.7371	4,287.6	86.1058	4,287.6	82.3152	4,287.6	84.1383	4,287.6	82.1799	4,287.6	82.104	4,287.6	84.0884	4,287.6	80.0876	4,287.6	86.2348	4,287.6	79.3003	4,287.6	82.7218	4,287.6	76.211	4,287.6	71.8815	4,287.6	74.8568	4,287.6	66.1029	4,287.6	72.1779	4,287.6	70.3326	4,287.6	70.2099	4,287.6	68.5357	4,287.6	71.405	4,287.6	65.3122	4,287.6	74.2726	4,287.6	69.4491	4,287.6	73.3511	4,287.6	64.522	4,287.6	67.0689	4,287.6	73.5341	4,287.6	67.6668
4,438.48	91.8917	4,438.48	87.174	4,438.48	88.0933	4,438.48	89.0689	4,438.48	87.8957	4,438.48	89.7908	4,438.48	89.2241	4,438.48	87.0203	4,438.48	87.1301	4,438.48	86.2735	4,438.48	82.6945	4,438.48	84.843	4,438.48	83.4522	4,438.48	83.3578	4,438.48	84.7229	4,438.48	80.1022	4,438.48	88.1602	4,438.48	78.8764	4,438.48	82.8128	4,438.48	74.9409	4,438.48	64.4302	4,438.48	73.6968	4,438.48	62.5922	4,438.48	70.5734	4,438.48	66.3512	4,438.48	74.7508	4,438.48	65.0385	4,438.48	71.6301	4,438.48	67.7241	4,438.48	72.5194	4,438.48	68.2598	4,438.48	72.688	4,438.48	61.6847	4,438.48	66.9474	4,438.48	71.1877	4,438.48	67.9232
4,595.21	91.9966	4,595.21	87.716	4,595.21	88.9757	4,595.21	89.9354	4,595.21	88.8	4,595.21	89.9776	4,595.21	89.0581	4,595.21	87.2281	4,595.21	87.6904	4,595.21	86.8549	4,595.21	82.2857	4,595.21	85.3708	4,595.21	82.2745	4,595.21	82.4804	4,595.21	86.4648	4,595.21	80.3818	4,595.21	87.2683	4,595.21	78.383	4,595.21	81.9052	4,595.21	77.0991	4,595.21	71.0026	4,595.21	73.6497	4,595.21	65.2486	4,595.21	71.4297	4,595.21	62.9477	4,595.21	71.7483	4,595.21	67.1656	4,595.21	72.7949	4,595.21	65.7424	4,595.21	73.758	4,595.21	70.1143	4,595.21	71.066	4,595.21	57.9647	4,595.21	61.1567	4,595.21	70.4111	4,595.21	65.7706
4,756.35	92.2181	4,756.35	87.7861	4,756.35	88.0122	4,756.35	90.4134	4,756.35	90.1237	4,756.35	89.6314	4,756.35	89.3346	4,756.35	87.9654	4,756.35	88.0443	4,756.35	87.4153	4,756.35	85.4995	4,756.35	84.8491	4,756.35	80.4029	4,756.35	83.5255	4,756.35	85.4909	4,756.35	80.2201	4,756.35	84.6	4,756.35	78.1348	4,756.35	80.5487	4,756.35	75.5244	4,756.35	73.0224	4,756.35	74.481	4,756.35	67.2831	4,756.35	69.9659	4,756.35	67.536	4,756.35	72.4591	4,756.35	60.2122	4,756.35	71.6871	4,756.35	65.2551	4,756.35	75.3774	4,756.35	70.8084	4,756.35	73.7482	4,756.35	56.3728	4,756.35	69.7614	4,756.35	71.3142	4,756.35	61.315
4,924.8	92.0898	4,924.8	88.1605	4,924.8	88.8813	4,924.8	91.2489	4,924.8	90.548	4,924.8	89.7062	4,924.8	89.2441	4,924.8	88.6757	4,924.8	88.3012	4,924.8	87.6954	4,924.8	85.8343	4,924.8	85.4794	4,924.8	80.0594	4,924.8	83.3086	4,924.8	84.1503	4,924.8	81.2238	4,924.8	83.1387	4,924.8	79.4464	4,924.8	82.1408	4,924.8	77.0526	4,924.8	68.3302	4,924.8	75.1111	4,924.8	67.6231	4,924.8	73.0476	4,924.8	68.0991	4,924.8	72.156	4,924.8	64.5161	4,924.8	73.4697	4,924.8	69.0998	4,924.8	75.4136	4,924.8	72.1499	4,924.8	73.7744	4,924.8	48.4085	4,924.8	68.6278	4,924.8	70.2665	4,924.8	66.8232
5,097.66	92.5661	5,097.66	88.8297	5,097.66	88.548	5,097.66	91.0266	5,097.66	91.2483	5,097.66	89.9877	5,097.66	89.7357	5,097.66	89.2474	5,097.66	88.741	5,097.66	87.9273	5,097.66	87.7994	5,097.66	85.47	5,097.66	76.5219	5,097.66	84.2598	5,097.66	81.2315	5,097.66	81.6854	5,097.66	86.0632	5,097.66	79.296	5,097.66	84.9885	5,097.66	77.2448	5,097.66	72.8525	5,097.66	73.6853	5,097.66	66.6653	5,097.66	71.149	5,097.66	69.0521	5,097.66	74.212	5,097.66	64.9973	5,097.66	72.8955	5,097.66	65.026	5,097.66	74.931	5,097.66	69.8305	5,097.66	74.812	5,097.66	56.5188	5,097.66	71.8995	5,097.66	71.4019	5,097.66	63.4722
5,277.83	92.0384	5,277.83	88.848	5,277.83	89.0995	5,277.83	91.3334	5,277.83	91.6248	5,277.83	90.5077	5,277.83	89.7448	5,277.83	89.5174	5,277.83	88.9842	5,277.83	88.0985	5,277.83	88.7671	5,277.83	86.2424	5,277.83	78.8223	5,277.83	84.6226	5,277.83	82.6876	5,277.83	82.4265	5,277.83	85.9541	5,277.83	79.4186	5,277.83	82.8724	5,277.83	78.7693	5,277.83	64.4347	5,277.83	75.9654	5,277.83	65.9053	5,277.83	73.3249	5,277.83	69.5447	5,277.83	71.8908	5,277.83	65.5841	5,277.83	74.2984	5,277.83	62.5471	5,277.83	76.1549	5,277.83	70.6298	5,277.83	75.6025	5,277.83	48.7015	5,277.83	71.2665	5,277.83	71.5905	5,277.83	65.003
5,463.87	92.2439	5,463.87	89.4218	5,463.87	89.5436	5,463.87	91.0132	5,463.87	91.5712	5,463.87	91.4028	5,463.87	90.0683	5,463.87	89.3967	5,463.87	88.8773	5,463.87	88.5504	5,463.87	90.0302	5,463.87	86.8364	5,463.87	81.544	5,463.87	85.418	5,463.87	84.9903	5,463.87	83.3439	5,463.87	86.9439	5,463.87	80.5443	5,463.87	86.1269	5,463.87	78.2082	5,463.87	67.6581	5,463.87	74.2268	5,463.87	61.2851	5,463.87	73.7279	5,463.87	64.0401	5,463.87	73.8467	5,463.87	70.2072	5,463.87	73.8622	5,463.87	66.2447	5,463.87	76.8321	5,463.87	67.6771	5,463.87	77.5153	5,463.87	63.2336	5,463.87	71.1877	5,463.87	71.0944	5,463.87	65.3926
5,657.23	92.0255	5,657.23	88.8593	5,657.23	89.8702	5,657.23	90.8437	5,657.23	91.4937	5,657.23	91.5781	5,657.23	90.2263	5,657.23	89.031	5,657.23	88.3232	5,657.23	88.9224	5,657.23	89.6075	5,657.23	88.0769	5,657.23	81.1586	5,657.23	86.6869	5,657.23	84.8752	5,657.23	83.9273	5,657.23	85.4457	5,657.23	80.8361	5,657.23	86.52	5,657.23	78.0487	5,657.23	69.7701	5,657.23	76.2262	5,657.23	64.3328	5,657.23	71.7422	5,657.23	65.4945	5,657.23	72.3607	5,657.23	69.2699	5,657.23	74.1862	5,657.23	62.7848	5,657.23	76.5221	5,657.23	67.8345	5,657.23	77.6022	5,657.23	55.4374	5,657.23	69.3411	5,657.23	70.4482	5,657.23	62.617
5,856.45	92.0337	5,856.45	88.593	5,856.45	89.7082	5,856.45	91.6033	5,856.45	91.1463	5,856.45	90.7367	5,856.45	90.7063	5,856.45	89.5255	5,856.45	88.2593	5,856.45	89.5383	5,856.45	90.892	5,856.45	88.8971	5,856.45	84.3453	5,856.45	86.6741	5,856.45	85.3649	5,856.45	84.0011	5,856.45	86.2394	5,856.45	81.7553	5,856.45	86.1806	5,856.45	78.2738	5,856.45	74.762	5,856.45	74.823	5,856.45	70.5191	5,856.45	73.0208	5,856.45	59.0129	5,856.45	71.4024	5,856.45	68.1205	5,856.45	74.1027	5,856.45	64.9861	5,856.45	76.9161	5,856.45	66.4532	5,856.45	77.5476	5,856.45	60.2854	5,856.45	68.921	5,856.45	70.4063	5,856.45	63.0383
6,062.99	91.3895	6,062.99	88.8865	6,062.99	89.9114	6,062.99	91.5355	6,062.99	90.8796	6,062.99	89.9541	6,062.99	90.2898	6,062.99	89.5696	6,062.99	89.242	6,062.99	90.325	6,062.99	90.5434	6,062.99	88.542	6,062.99	87.0873	6,062.99	86.4574	6,062.99	85.7884	6,062.99	82.4978	6,062.99	88.2105	6,062.99	80.9013	6,062.99	86.8584	6,062.99	77.7747	6,062.99	76.1019	6,062.99	75.1881	6,062.99	72.0479	6,062.99	73.3075	6,062.99	63.1588	6,062.99	69.8686	6,062.99	67.6389	6,062.99	72.7105	6,062.99	60.907	6,062.99	76.8142	6,062.99	65.3356	6,062.99	77.6471	6,062.99	65.252	6,062.99	67.9188	6,062.99	69.0124	6,062.99	61.6718
6,276.86	91.6241	6,276.86	89.3416	6,276.86	90.7692	6,276.86	91.2359	6,276.86	90.2114	6,276.86	89.5877	6,276.86	89.579	6,276.86	89.7983	6,276.86	89.6333	6,276.86	90.6645	6,276.86	90.5029	6,276.86	88.4431	6,276.86	88.6915	6,276.86	86.1236	6,276.86	86.0705	6,276.86	83.0595	6,276.86	88.0133	6,276.86	79.7753	6,276.86	87.3661	6,276.86	78.4235	6,276.86	77.1323	6,276.86	73.8867	6,276.86	72.1735	6,276.86	72.3055	6,276.86	65.8755	6,276.86	69.464	6,276.86	63.2127	6,276.86	71.0676	6,276.86	62.9363	6,276.86	76.1495	6,276.86	69.994	6,276.86	77.6669	6,276.86	65.3165	6,276.86	69.4613	6,276.86	67.5942	6,276.86	64.109
6,498.05	92.0258	6,498.05	90.3851	6,498.05	90.5981	6,498.05	90.7392	6,498.05	90.24	6,498.05	89.8143	6,498.05	88.9706	6,498.05	89.678	6,498.05	89.9031	6,498.05	91.2692	6,498.05	90.5394	6,498.05	88.4787	6,498.05	90.0756	6,498.05	86.0153	6,498.05	83.4163	6,498.05	83.0658	6,498.05	85.0458	6,498.05	78.8202	6,498.05	82.5631	6,498.05	77.2379	6,498.05	74.2534	6,498.05	73.8056	6,498.05	69.4766	6,498.05	73.0749	6,498.05	70.222	6,498.05	70.1748	6,498.05	63.1809	6,498.05	71.5947	6,498.05	64.2332	6,498.05	73.3698	6,498.05	69.2985	6,498.05	77.7495	6,498.05	66.4935	6,498.05	70.0797	6,498.05	66.435	6,498.05	62.1391
6,726.56	91.9531	6,726.56	90.7029	6,726.56	90.6453	6,726.56	90.5234	6,726.56	90.4776	6,726.56	89.8405	6,726.56	88.9045	6,726.56	90.3682	6,726.56	89.8644	6,726.56	91.1452	6,726.56	90.1749	6,726.56	87.9904	6,726.56	89.9352	6,726.56	85.2276	6,726.56	81.5973	6,726.56	82.8104	6,726.56	80.5414	6,726.56	80.4404	6,726.56	83.5606	6,726.56	77.6269	6,726.56	74.0557	6,726.56	72.9969	6,726.56	64.9462	6,726.56	70.6617	6,726.56	67.9768	6,726.56	69.7221	6,726.56	70.6466	6,726.56	70.9409	6,726.56	65.4841	6,726.56	73.3549	6,726.56	66.9014	6,726.56	77.0969	6,726.56	67.4497	6,726.56	69.1552	6,726.56	65.7972	6,726.56	63.1355
6,963.87	92.1906	6,963.87	91.5881	6,963.87	91.1557	6,963.87	90.6832	6,963.87	90.4126	6,963.87	90.3176	6,963.87	89.5945	6,963.87	91.0491	6,963.87	89.0227	6,963.87	90.5488	6,963.87	90.4197	6,963.87	88.6082	6,963.87	88.8408	6,963.87	85.6031	6,963.87	79.0189	6,963.87	84.5091	6,963.87	84.7546	6,963.87	79.8686	6,963.87	82.9567	6,963.87	78.5111	6,963.87	72.3163	6,963.87	75.5535	6,963.87	71.4788	6,963.87	72.82	6,963.87	60.1064	6,963.87	69.3451	6,963.87	70.0938	6,963.87	72.3013	6,963.87	65.4558	6,963.87	73.9897	6,963.87	67.9525	6,963.87	77.4484	6,963.87	68.634	6,963.87	72.2668	6,963.87	65.5636	6,963.87	65.6659
7,209.96	92.8225	7,209.96	92.0323	7,209.96	91.0843	7,209.96	90.3868	7,209.96	90.3813	7,209.96	91.2289	7,209.96	90.5012	7,209.96	90.5632	7,209.96	88.3649	7,209.96	90.8655	7,209.96	90.2047	7,209.96	89.1262	7,209.96	89.1138	7,209.96	87.2808	7,209.96	80.1908	7,209.96	84.1328	7,209.96	89.132	7,209.96	80.6167	7,209.96	87.289	7,209.96	78.0801	7,209.96	75.8017	7,209.96	75.3016	7,209.96	62.9422	7,209.96	71.7666	7,209.96	65.0905	7,209.96	70.025	7,209.96	66.3781	7,209.96	72.1609	7,209.96	65.1175	7,209.96	72.6947	7,209.96	64.1422	7,209.96	77.0574	7,209.96	68.4995	7,209.96	73.4825	7,209.96	66.9483	7,209.96	61.5374
7,464.84	93.1234	7,464.84	92.2265	7,464.84	91.3252	7,464.84	91.6114	7,464.84	91.2559	7,464.84	91.7275	7,464.84	90.8954	7,464.84	90.4817	7,464.84	89.3194	7,464.84	91.0668	7,464.84	89.3069	7,464.84	88.9604	7,464.84	89.7759	7,464.84	86.7278	7,464.84	82.3299	7,464.84	84.3985	7,464.84	87.6188	7,464.84	81.1137	7,464.84	83.6108	7,464.84	78.2111	7,464.84	74.3927	7,464.84	75.7618	7,464.84	61.8491	7,464.84	72.2417	7,464.84	45.7534	7,464.84	69.8783	7,464.84	70.2519	7,464.84	72.5886	7,464.84	68.6558	7,464.84	70.7243	7,464.84	64.461	7,464.84	76.259	7,464.84	69.1193	7,464.84	73.017	7,464.84	66.2528	7,464.84	61.2059
7,727.05	92.6532	7,727.05	91.7778	7,727.05	90.9152	7,727.05	92.4316	7,727.05	91.8535	7,727.05	90.8957	7,727.05	91.1116	7,727.05	90.5917	7,727.05	89.882	7,727.05	90.7093	7,727.05	88.021	7,727.05	89.3911	7,727.05	89.6812	7,727.05	87.4598	7,727.05	81.0747	7,727.05	84.3781	7,727.05	81.2407	7,727.05	81.2323	7,727.05	84.7876	7,727.05	77.321	7,727.05	72.2982	7,727.05	75.3825	7,727.05	69.3561	7,727.05	71.9601	7,727.05	67.6335	7,727.05	69.7843	7,727.05	67.878	7,727.05	71.3805	7,727.05	68.3447	7,727.05	71.7077	7,727.05	40.2828	7,727.05	75.414	7,727.05	70.819	7,727.05	71.2859	7,727.05	69.4798	7,727.05	56.6037
7,999.51	92.0081	7,999.51	91.8174	7,999.51	91.8529	7,999.51	92.0859	7,999.51	91.7623	7,999.51	91.6894	7,999.51	91.4258	7,999.51	89.9596	7,999.51	89.3542	7,999.51	90.8136	7,999.51	89.09	7,999.51	89.657	7,999.51	88.7455	7,999.51	87.3836	7,999.51	80.4044	7,999.51	84.225	7,999.51	83.2314	7,999.51	80.5703	7,999.51	85.3152	7,999.51	76.9398	7,999.51	74.3374	7,999.51	74.599	7,999.51	72.3355	7,999.51	70.1579	7,999.51	69.5353	7,999.51	69.5631	7,999.51	69.1209	7,999.51	69.8783	7,999.51	67.7537	7,999.51	68.6801	7,999.51	56.636	7,999.51	75.5899	7,999.51	70.3771	7,999.51	71.1443	7,999.51	66.301	7,999.51	51.9874
8,282.23	91.2551	8,282.23	92.2332	8,282.23	92.1209	8,282.23	92.3266	8,282.23	91.8382	8,282.23	91.8929	8,282.23	91.1031	8,282.23	89.3549	8,282.23	90.0658	8,282.23	91.249	8,282.23	88.9537	8,282.23	89.7061	8,282.23	88.0956	8,282.23	86.4734	8,282.23	74.7006	8,282.23	83.2354	8,282.23	85.6629	8,282.23	78.8106	8,282.23	84.7487	8,282.23	75.3262	8,282.23	75.2504	8,282.23	73.7144	8,282.23	69.97	8,282.23	71.5112	8,282.23	66.7379	8,282.23	68.0147	8,282.23	68.0061	8,282.23	71.8517	8,282.23	70.9988	8,282.23	64.9673	8,282.23	60.2155	8,282.23	73.2432	8,282.23	69.1693	8,282.23	69.7226	8,282.23	65.1034	8,282.23	58.5904
8,573.73	90.6387	8,573.73	92.161	8,573.73	91.8846	8,573.73	92.994	8,573.73	92.0071	8,573.73	91.4629	8,573.73	91.0835	8,573.73	90.4018	8,573.73	90.7661	8,573.73	91.2851	8,573.73	88.8658	8,573.73	89.6339	8,573.73	89.2894	8,573.73	84.8844	8,573.73	81.0909	8,573.73	82.5431	8,573.73	84.08	8,573.73	79.294	8,573.73	83.6767	8,573.73	75.1055	8,573.73	73.0671	8,573.73	73.2287	8,573.73	71.687	8,573.73	69.2037	8,573.73	60.0177	8,573.73	69.6084	8,573.73	66.5515	8,573.73	70.8784	8,573.73	69.6651	8,573.73	67.531	8,573.73	52.8497	8,573.73	69.8696	8,573.73	67.9765	8,573.73	69.1686	8,573.73	63.8326	8,573.73	61.8743
8,876.95	89.9922	8,876.95	92.1754	8,876.95	91.8901	8,876.95	92.6359	8,876.95	92.2647	8,876.95	91.785	8,876.95	91.0397	8,876.95	90.7455	8,876.95	91.1299	8,876.95	91.6616	8,876.95	88.8809	8,876.95	88.6662	8,876.95	88.687	8,876.95	85.783	8,876.95	81.5288	8,876.95	83.1995	8,876.95	80.4501	8,876.95	79.7425	8,876.95	82.3579	8,876.95	74.7636	8,876.95	72.6127	8,876.95	73.4431	8,876.95	70.1672	8,876.95	65.7379	8,876.95	63.5741	8,876.95	69.3308	8,876.95	61.9425	8,876.95	71.1969	8,876.95	70.3157	8,876.95	66.1347	8,876.95	57.6	8,876.95	69.9021	8,876.95	64.6442	8,876.95	69.8378	8,876.95	65.7292	8,876.95	61.6056
9,188.96	90.1633	9,188.96	92.3177	9,188.96	91.5393	9,188.96	92.7463	9,188.96	91.5441	9,188.96	91.5319	9,188.96	91.1381	9,188.96	91.2646	9,188.96	90.1817	9,188.96	90.3158	9,188.96	88.6822	9,188.96	89.1584	9,188.96	88.5866	9,188.96	85.9611	9,188.96	82.5566	9,188.96	83.0213	9,188.96	78.7487	9,188.96	79.0757	9,188.96	82.5688	9,188.96	75.751	9,188.96	74.5194	9,188.96	72.0921	9,188.96	69.2664	9,188.96	68.7799	9,188.96	67.912	9,188.96	68.5022	9,188.96	64.1954	9,188.96	71.6713	9,188.96	70.2427	9,188.96	70.1898	9,188.96	60.3914	9,188.96	68.6502	9,188.96	64.2011	9,188.96	69.079	9,188.96	65.4971	9,188.96	62.6777
9,514.16	90.5854	9,514.16	91.8752	9,514.16	91.2642	9,514.16	92.0763	9,514.16	91.1832	9,514.16	91.9272	9,514.16	90.7191	9,514.16	90.4787	9,514.16	89.9304	9,514.16	89.6379	9,514.16	88.1512	9,514.16	89.1041	9,514.16	87.9198	9,514.16	85.766	9,514.16	81.3123	9,514.16	82.2835	9,514.16	77.5728	9,514.16	77.7938	9,514.16	79.9888	9,514.16	74.0226	9,514.16	66.6217	9,514.16	71.6804	9,514.16	60.5154	9,514.16	67.1806	9,514.16	62.8607	9,514.16	66.9358	9,514.16	64.8829	9,514.16	69.8773	9,514.16	71.301	9,514.16	70.5662	9,514.16	59.7343	9,514.16	66.5313	9,514.16	61.1657	9,514.16	66.3082	9,514.16	63.1999	9,514.16	62.0554
9,849.61	91.4309	9,849.61	92.0334	9,849.61	91.2649	9,849.61	91.5888	9,849.61	90.9119	9,849.61	91.9778	9,849.61	89.8372	9,849.61	89.2032	9,849.61	89.7694	9,849.61	89.7424	9,849.61	87.5612	9,849.61	88.2848	9,849.61	87.0504	9,849.61	84.3913	9,849.61	80.3129	9,849.61	80.1874	9,849.61	74.447	9,849.61	75.9483	9,849.61	77.398	9,849.61	71.1444	9,849.61	66.8863	9,849.61	69.271	9,849.61	64.6928	9,849.61	63.9702	9,849.61	60.4922	9,849.61	66.2888	9,849.61	63.7996	9,849.61	69.1007	9,849.61	70.6535	9,849.61	68.5976	9,849.61	56.1435	9,849.61	65.0063	9,849.61	57.3674	9,849.61	65.7567	9,849.61	62.9343	9,849.61	57.684
10,196.8	92.3474	10,196.8	91.9492	10,196.8	91.1617	10,196.8	91.9749	10,196.8	90.9433	10,196.8	91.2979	10,196.8	89.5297	10,196.8	89.0553	10,196.8	89.1521	10,196.8	89.2794	10,196.8	87.0324	10,196.8	87.4275	10,196.8	85.3281	10,196.8	82.9751	10,196.8	80.4979	10,196.8	78.9783	10,196.8	74.7516	10,196.8	75.3314	10,196.8	74.6562	10,196.8	70.4428	10,196.8	62.9376	10,196.8	68.4231	10,196.8	64.1799	10,196.8	62.8446	10,196.8	59.3264	10,196.8	64.1898	10,196.8	63.451	10,196.8	67.4703	10,196.8	67.2552	10,196.8	67.7334	10,196.8	53.0535	10,196.8	63.1279	10,196.8	57.3325	10,196.8	60.1044	10,196.8	59.8096	10,196.8	61.0606
10,555.7	92.8155	10,555.7	92.036	10,555.7	91.4733	10,555.7	92.426	10,555.7	90.6591	10,555.7	90.793	10,555.7	89.3908	10,555.7	88.9818	10,555.7	88.6533	10,555.7	88.9287	10,555.7	86.0114	10,555.7	86.2658	10,555.7	83.9728	10,555.7	82.5613	10,555.7	80.5089	10,555.7	77.5804	10,555.7	74.0351	10,555.7	74.3549	10,555.7	75.0093	10,555.7	69.2496	10,555.7	62.662	10,555.7	68.8133	10,555.7	61.2323	10,555.7	62.7743	10,555.7	59.481	10,555.7	63.1765	10,555.7	58.1135	10,555.7	65.9663	10,555.7	67.2159	10,555.7	67.688	10,555.7	55.048	10,555.7	63.9707	10,555.7	51.5884	10,555.7	61.2145	10,555.7	53.9764	10,555.7	62.4664
10,927.7	92.8125	10,927.7	92.0253	10,927.7	91.5016	10,927.7	92.4118	10,927.7	90.5096	10,927.7	90.5105	10,927.7	89.4885	10,927.7	88.4877	10,927.7	87.7645	10,927.7	87.8637	10,927.7	85.5851	10,927.7	85.0314	10,927.7	84.0258	10,927.7	81.7518	10,927.7	80.2591	10,927.7	77.3779	10,927.7	62.0471	10,927.7	73.7162	10,927.7	68.5159	10,927.7	68.3706	10,927.7	63.0212	10,927.7	66.5857	10,927.7	57.1521	10,927.7	62.5702	10,927.7	56.5166	10,927.7	61.0393	10,927.7	52.4351	10,927.7	64.5825	10,927.7	66.1825	10,927.7	66.3081	10,927.7	54.5779	10,927.7	65.3837	10,927.7	52.358	10,927.7	61.9766	10,927.7	53.4401	10,927.7	58.9586
11,313	92.4203	11,313	92.3671	11,313	91.403	11,313	91.9488	11,313	90.2986	11,313	90.7541	11,313	89.5514	11,313	87.3856	11,313	87.0089	11,313	86.8786	11,313	85.0457	11,313	83.9696	11,313	83.0581	11,313	80.5674	11,313	77.8598	11,313	75.9523	11,313	72.0741	11,313	71.5603	11,313	69.9743	11,313	65.8033	11,313	62.5138	11,313	64.8473	11,313	39.4061	11,313	60.7813	11,313	62.5664	11,313	60.3227	11,313	58.5829	11,313	61.6207	11,313	64.4908	11,313	64.3121	11,313	54.0031	11,313	64.4111	11,313	44.8262	11,313	61.5197	11,313	47.5639	11,313	58.4958
11,712.9	92.2335	11,712.9	92.499	11,712.9	91.5278	11,712.9	91.6759	11,712.9	89.8592	11,712.9	90.6885	11,712.9	89.0068	11,712.9	87.0301	11,712.9	85.8267	11,712.9	85.7489	11,712.9	84.3196	11,712.9	83.4398	11,712.9	81.7439	11,712.9	78.9406	11,712.9	76.1172	11,712.9	73.6601	11,712.9	68.4507	11,712.9	68.7386	11,712.9	67.3092	11,712.9	63.6182	11,712.9	64.7471	11,712.9	62.5773	11,712.9	52.4079	11,712.9	58.4102	11,712.9	61.4985	11,712.9	58.8198	11,712.9	58.9286	11,712.9	60.1967	11,712.9	63.9327	11,712.9	63.0821	11,712.9	53.4435	11,712.9	61.5089	11,712.9	41.3392	11,712.9	61.6447	11,712.9	50.499	11,712.9	58.5873
12,126	92.1106	12,126	92.4247	12,126	91.5762	12,126	91.302	12,126	89.6074	12,126	90.4271	12,126	88.2452	12,126	86.5011	12,126	84.7156	12,126	85.2286	12,126	82.6703	12,126	82.5538	12,126	80.5855	12,126	77.7801	12,126	75.9617	12,126	72.7927	12,126	65.3085	12,126	68.7127	12,126	55.5118	12,126	63.2264	12,126	60.124	12,126	61.6107	12,126	48.4425	12,126	55.6616	12,126	58.7404	12,126	58.3745	12,126	56.0942	12,126	59.0517	12,126	62.1363	12,126	61.6646	12,126	53.3484	12,126	63.1939	12,126	48.7696	12,126	61.3942	12,126	50.5466	12,126	58.5475
12,553.7	91.9261	12,553.7	92.3001	12,553.7	91.4028	12,553.7	91.2199	12,553.7	89.4342	12,553.7	89.7049	12,553.7	87.5388	12,553.7	86.2701	12,553.7	84.2166	12,553.7	84.2534	12,553.7	81.2351	12,553.7	81.4828	12,553.7	79.4623	12,553.7	77.0558	12,553.7	73.9273	12,553.7	71.1502	12,553.7	65.1737	12,553.7	68.073	12,553.7	55.9953	12,553.7	61.6927	12,553.7	55.2202	12,553.7	59.9631	12,553.7	53.9474	12,553.7	53.3801	12,553.7	56.1777	12,553.7	55.4493	12,553.7	54.0892	12,553.7	59.0466	12,553.7	59.7216	12,553.7	60.158	12,553.7	47.7847	12,553.7	60.5866	12,553.7	50.1326	12,553.7	60.0891	12,553.7	49.2951	12,553.7	54.8256
12,996.1	91.7896	12,996.1	92.1228	12,996.1	91.1414	12,996.1	91.0797	12,996.1	89.2617	12,996.1	89.2764	12,996.1	87.0298	12,996.1	85.8564	12,996.1	84.0247	12,996.1	83.4322	12,996.1	80.0745	12,996.1	80.4275	12,996.1	77.9023	12,996.1	76.2022	12,996.1	71.5847	12,996.1	69.7998	12,996.1	65.5655	12,996.1	65.666	12,996.1	47.9848	12,996.1	59.0583	12,996.1	39.7498	12,996.1	58.7376	12,996.1	52.8282	12,996.1	47.8686	12,996.1	50.9423	12,996.1	55.3298	12,996.1	43.2744	12,996.1	57.7207	12,996.1	55.6713	12,996.1	59.6516	12,996.1	49.1104	12,996.1	57.9098	12,996.1	40.007	12,996.1	58.4048	12,996.1	43.5551	12,996.1	54.676
13,454.6	91.8958	13,454.6	92.2248	13,454.6	91.1746	13,454.6	91.0546	13,454.6	89.282	13,454.6	89.0414	13,454.6	86.6614	13,454.6	85.3714	13,454.6	83.3943	13,454.6	82.9414	13,454.6	78.8681	13,454.6	79.5539	13,454.6	76.9482	13,454.6	74.6343	13,454.6	69.4752	13,454.6	67.4776	13,454.6	64.5505	13,454.6	64.5097	13,454.6	38.9868	13,454.6	55.7147	13,454.6	46.5776	13,454.6	56.9891	13,454.6	46.8537	13,454.6	41.4083	13,454.6	43.1895	13,454.6	54.4169	13,454.6	31.3708	13,454.6	57.2325	13,454.6	56.0147	13,454.6	56.2676	13,454.6	47.8893	13,454.6	57.0986	13,454.6	43.9522	13,454.6	52.9528	13,454.6	37.2132	13,454.6	55.1936
13,929.2	91.6025	13,929.2	92.0779	13,929.2	91.0307	13,929.2	90.9005	13,929.2	88.9671	13,929.2	88.7195	13,929.2	86.3159	13,929.2	84.7606	13,929.2	82.681	13,929.2	81.9883	13,929.2	77.8314	13,929.2	78.1824	13,929.2	75.2236	13,929.2	72.9126	13,929.2	68.2835	13,929.2	64.6825	13,929.2	61.864	13,929.2	60.623	13,929.2	43.1547	13,929.2	52.7703	13,929.2	42.3081	13,929.2	54.2773	13,929.2	43.5284	13,929.2	51.8488	13,929.2	37.4069	13,929.2	50.1873	13,929.2	35.5324	13,929.2	54.8277	13,929.2	52.4891	13,929.2	51.7969	13,929.2	47.5881	13,929.2	50.4126	13,929.2	46.2949	13,929.2	48.0492	13,929.2	36.2511	13,929.2	52.3065
14,419.9	91.3514	14,419.9	91.8504	14,419.9	90.6616	14,419.9	90.7916	14,419.9	88.5714	14,419.9	88.527	14,419.9	85.7614	14,419.9	84.4529	14,419.9	81.8725	14,419.9	81.1561	14,419.9	77.2596	14,419.9	77.0696	14,419.9	73.6037	14,419.9	70.8786	14,419.9	65.4065	14,419.9	61.8298	14,419.9	61.5346	14,419.9	58.821	14,419.9	48.0273	14,419.9	51.0873	14,419.9	41.748	14,419.9	49.7621	14,419.9	42.6827	14,419.9	44.0427	14,419.9	38.6201	14,419.9	49.5945	14,419.9	39.1041	14,419.9	50.2912	14,419.9	49.4024	14,419.9	47.1829	14,419.9	46.2576	14,419.9	45.7059	14,419.9	49.938	14,419.9	48.6281	14,419.9	35.9634	14,419.9	44.3211
14,928.2	91.2567	14,928.2	91.7465	14,928.2	90.4536	14,928.2	90.5985	14,928.2	88.2119	14,928.2	88.1844	14,928.2	85.2389	14,928.2	83.8106	14,928.2	81.1212	14,928.2	79.7343	14,928.2	76.0469	14,928.2	74.7585	14,928.2	71.6785	14,928.2	68.0701	14,928.2	63.811	14,928.2	57.8817	14,928.2	59.4771	14,928.2	53.4458	14,928.2	46.1934	14,928.2	48.067	14,928.2	41.2134	14,928.2	40.8529	14,928.2	43.4405	14,928.2	41.7074	14,928.2	45.6853	14,928.2	47.5305	14,928.2	43.2291	14,928.2	45.596	14,928.2	51.6765	14,928.2	47.1404	14,928.2	49.6489	14,928.2	45.7912	14,928.2	52.2305	14,928.2	41.3898	14,928.2	42.5193	14,928.2	45.8664
15,455.6	91.3631	15,455.6	91.7984	15,455.6	90.5011	15,455.6	90.419	15,455.6	88.0534	15,455.6	87.6371	15,455.6	84.7143	15,455.6	82.838	15,455.6	80.2958	15,455.6	78.1527	15,455.6	74.4601	15,455.6	72.6951	15,455.6	70.435	15,455.6	65.3692	15,455.6	63.126	15,455.6	54.7733	15,455.6	57.4469	15,455.6	50.156	15,455.6	49.6714	15,455.6	52.187	15,455.6	46.907	15,455.6	45.4864	15,455.6	45.7897	15,455.6	43.5025	15,455.6	48.2343	15,455.6	41.7498	15,455.6	46.6301	15,455.6	41.9322	15,455.6	54.0541	15,455.6	48.8275	15,455.6	50.0776	15,455.6	49.9204	15,455.6	53.3354	15,455.6	46.0069	15,455.6	47.5511	15,455.6	45.0994
16,000.5	91.1647	16,000.5	91.529	16,000.5	90.1888	16,000.5	90.1222	16,000.5	87.7289	16,000.5	87.3288	16,000.5	84.3767	16,000.5	83.1004	16,000.5	80.7039	16,000.5	78.6467	16,000.5	75.4163	16,000.5	75.3441	16,000.5	71.9797	16,000.5	69.42	16,000.5	65.968	16,000.5	61.6861	16,000.5	62.8435	16,000.5	55.7662	16,000.5	52.5248	16,000.5	55.181	16,000.5	52.3968	16,000.5	45.5014	16,000.5	49.9884	16,000.5	33.3839	16,000.5	48.67	16,000.5	45.1121	16,000.5	46.1866	16,000.5	45.5379	16,000.5	55.1706	16,000.5	51.1164	16,000.5	40.5237	16,000.5	51.7486	16,000.5	51.5998	16,000.5	43.92	16,000.5	47.7468	16,000.5	30.4231
16,564.5	91.1735	16,564.5	91.4275	16,564.5	90.3039	16,564.5	90.0756	16,564.5	87.7289	16,564.5	87.485	16,564.5	84.3071	16,564.5	83.1896	16,564.5	79.9597	16,564.5	78.4333	16,564.5	74.7011	16,564.5	74.0739	16,564.5	69.8033	16,564.5	67.3745	16,564.5	65.1275	16,564.5	56.0807	16,564.5	58.9353	16,564.5	47.9235	16,564.5	49.8555	16,564.5	50.7428	16,564.5	51.0898	16,564.5	35.7919	16,564.5	47.2354	16,564.5	38.2805	16,564.5	41.6108	16,564.5	38.2593	16,564.5	43.8746	16,564.5	42.9155	16,564.5	53.2253	16,564.5	46.1793	16,564.5	38.0439	16,564.5	45.3882	16,564.5	50.9159	16,564.5	22.5418	16,564.5	42.6381	16,564.5	40.944
17,148.9	91.3261	17,148.9	91.3334	17,148.9	90.2318	17,148.9	89.6796	17,148.9	87.5081	17,148.9	87.0522	17,148.9	83.3983	17,148.9	82.8064	17,148.9	79.257	17,148.9	78.377	17,148.9	74.4605	17,148.9	74.4256	17,148.9	69.5863	17,148.9	67.7292	17,148.9	65.272	17,148.9	58.8585	17,148.9	61.4621	17,148.9	50.2948	17,148.9	53.6347	17,148.9	53.6482	17,148.9	49.6133	17,148.9	38.3183	17,148.9	46.361	17,148.9	44.5867	17,148.9	41.7811	17,148.9	42.8587	17,148.9	41.6981	17,148.9	44.3714	17,148.9	51.7518	17,148.9	46.024	17,148.9	37.2614	17,148.9	46.2822	17,148.9	49.8544	17,148.9	20.9644	17,148.9	35.3778	17,148.9	40.3343
17,752.4	91.4428	17,752.4	91.3215	17,752.4	90.3078	17,752.4	89.7205	17,752.4	87.598	17,752.4	86.9363	17,752.4	83.8888	17,752.4	83.1059	17,752.4	79.7902	17,752.4	79.0828	17,752.4	74.9682	17,752.4	75.1477	17,752.4	69.7091	17,752.4	69.0643	17,752.4	65.9699	17,752.4	58.6763	17,752.4	64.0441	17,752.4	51.4516	17,752.4	51.5383	17,752.4	50.3062	17,752.4	46.7501	17,752.4	35.9005	17,752.4	25.8129	17,752.4	41.4947	17,752.4	30.7494	17,752.4	41.4704	17,752.4	28.5401	17,752.4	45.8364	17,752.4	51.096	17,752.4	43.8816	17,752.4	43.528	17,752.4	41.8391	17,752.4	40.7441	17,752.4	38.7699	17,752.4	33.7421	17,752.4	38.3921
18,379.4	91.5542	18,379.4	91.4044	18,379.4	90.6169	18,379.4	90.0119	18,379.4	87.8508	18,379.4	87.1908	18,379.4	84.0457	18,379.4	83.3182	18,379.4	79.7048	18,379.4	78.7421	18,379.4	74.3364	18,379.4	74.295	18,379.4	70.9502	18,379.4	67.0272	18,379.4	66.3877	18,379.4	53.4101	18,379.4	62.1216	18,379.4	48.5642	18,379.4	54.4467	18,379.4	48.4179	18,379.4	51.5347	18,379.4	30.8198	18,379.4	37.8167	18,379.4	40.1103	18,379.4	37.1115	18,379.4	41.4061	18,379.4	29.5045	18,379.4	43.2409	18,379.4	53.9211	18,379.4	44.7928	18,379.4	43.4086	18,379.4	31.9813	18,379.4	46.7952	18,379.4	41.1394	18,379.4	40.776	18,379.4	45.2329
19,026.9	91.4563	19,026.9	91.3322	19,026.9	90.5777	19,026.9	90.13	19,026.9	87.9458	19,026.9	87.308	19,026.9	83.8586	19,026.9	83.7173	19,026.9	79.2492	19,026.9	78.9058	19,026.9	75.7761	19,026.9	73.5307	19,026.9	70.8416	19,026.9	67.3185	19,026.9	67.3153	19,026.9	56.3741	19,026.9	64.8055	19,026.9	49.0961	19,026.9	53.9056	19,026.9	46.7869	19,026.9	54.1044	19,026.9	41.5074	19,026.9	41.294	19,026.9	39.6424	19,026.9	38.0071	19,026.9	45.9809	19,026.9	27.9527	19,026.9	43.4651	19,026.9	54.0513	19,026.9	44.0869	19,026.9	48.9719	19,026.9	44.5502	19,026.9	50.6343	19,026.9	41.641	19,026.9	41.701	19,026.9	42.3511
19,697.8	91.8407	19,697.8	91.7848	19,697.8	90.8097	19,697.8	90.6853	19,697.8	88.2634	19,697.8	88.1077	19,697.8	84.7659	19,697.8	84.3191	19,697.8	80.4425	19,697.8	79.4974	19,697.8	77.4246	19,697.8	74.2564	19,697.8	72.8384	19,697.8	67.9927	19,697.8	69.7549	19,697.8	57.449	19,697.8	64.7236	19,697.8	43.4024	19,697.8	57.3809	19,697.8	49.3649	19,697.8	55.3525	19,697.8	35.8791	19,697.8	43.5947	19,697.8	35.779	19,697.8	41.7927	19,697.8	45.3731	19,697.8	43.7028	19,697.8	45.6199	19,697.8	55.0286	19,697.8	45.9867	19,697.8	47.8157	19,697.8	42.5276	19,697.8	52.0045	19,697.8	46.1262	19,697.8	45.5867	19,697.8	30.6848
19,999.5	92.0244	19,999.5	92.3899	19,999.5	91.0718	19,999.5	91.128	19,999.5	88.7134	19,999.5	88.5685	19,999.5	85.944	19,999.5	84.6049	19,999.5	81.825	19,999.5	79.753	19,999.5	79.812	19,999.5	75.3239	19,999.5	73.8424	19,999.5	69.1331	19,999.5	74.2194	19,999.5	60.9943	19,999.5	67.3127	19,999.5	50.3278	19,999.5	57.457	19,999.5	51.5143	19,999.5	59.3505	19,999.5	44.2952	19,999.5	51.7913	19,999.5	52.3074	19,999.5	43.584	19,999.5	62.5236	19,999.5	57.5365	19,999.5	43.6621	19,999.5	59.2052	19,999.5	63.6598	19,999.5	55.6787	19,999.5	63.7897	19,999.5	52.087	19,999.5	54.9084	19,999.5	37.3094	19,999.5	49.9412
