"SPL Horizontal"
"On-Axis"		"10°"		"-10°"		"20°"		"-20°"		"30°"		"-30°"		"40°"		"-40°"		"50°"		"-50°"		"60°"		"-60°"		"70°"		"-70°"		"80°"		"-80°"		"90°"		"-90°"		"100°"		"-100°"		"110°"		"-110°"		"120°"		"-120°"		"130°"		"-130°"		"140°"		"-140°"		"150°"		"-150°"		"160°"		"-160°"		"170°"		"-170°"		"180°"
"Frequency / Hz"	"Sound Pressure Level / dB (re 20 µPa/V)  [2.83  V @ 1. m]"	"Frequency / Hz"	"Sound Pressure Level / dB (re 20 µPa/V)  [2.83  V @ 1. m]"	"Frequency / Hz"	"Sound Pressure Level / dB (re 20 µPa/V)  [2.83  V @ 1. m]"	"Frequency / Hz"	"Sound Pressure Level / dB (re 20 µPa/V)  [2.83  V @ 1. m]"	"Frequency / Hz"	"Sound Pressure Level / dB (re 20 µPa/V)  [2.83  V @ 1. m]"	"Frequency / Hz"	"Sound Pressure Level / dB (re 20 µPa/V)  [2.83  V @ 1. m]"	"Frequency / Hz"	"Sound Pressure Level / dB (re 20 µPa/V)  [2.83  V @ 1. m]"	"Frequency / Hz"	"Sound Pressure Level / dB (re 20 µPa/V)  [2.83  V @ 1. m]"	"Frequency / Hz"	"Sound Pressure Level / dB (re 20 µPa/V)  [2.83  V @ 1. m]"	"Frequency / Hz"	"Sound Pressure Level / dB (re 20 µPa/V)  [2.83  V @ 1. m]"	"Frequency / Hz"	"Sound Pressure Level / dB (re 20 µPa/V)  [2.83  V @ 1. m]"	"Frequency / Hz"	"Sound Pressure Level / dB (re 20 µPa/V)  [2.83  V @ 1. m]"	"Frequency / Hz"	"Sound Pressure Level / dB (re 20 µPa/V)  [2.83  V @ 1. m]"	"Frequency / Hz"	"Sound Pressure Level / dB (re 20 µPa/V)  [2.83  V @ 1. m]"	"Frequency / Hz"	"Sound Pressure Level / dB (re 20 µPa/V)  [2.83  V @ 1. m]"	"Frequency / Hz"	"Sound Pressure Level / dB (re 20 µPa/V)  [2.83  V @ 1. m]"	"Frequency / Hz"	"Sound Pressure Level / dB (re 20 µPa/V)  [2.83  V @ 1. m]"	"Frequency / Hz"	"Sound Pressure Level / dB (re 20 µPa/V)  [2.83  V @ 1. m]"	"Frequency / Hz"	"Sound Pressure Level / dB (re 20 µPa/V)  [2.83  V @ 1. m]"	"Frequency / Hz"	"Sound Pressure Level / dB (re 20 µPa/V)  [2.83  V @ 1. m]"	"Frequency / Hz"	"Sound Pressure Level / dB (re 20 µPa/V)  [2.83  V @ 1. m]"	"Frequency / Hz"	"Sound Pressure Level / dB (re 20 µPa/V)  [2.83  V @ 1. m]"	"Frequency / Hz"	"Sound Pressure Level / dB (re 20 µPa/V)  [2.83  V @ 1. m]"	"Frequency / Hz"	"Sound Pressure Level / dB (re 20 µPa/V)  [2.83  V @ 1. m]"	"Frequency / Hz"	"Sound Pressure Level / dB (re 20 µPa/V)  [2.83  V @ 1. m]"	"Frequency / Hz"	"Sound Pressure Level / dB (re 20 µPa/V)  [2.83  V @ 1. m]"	"Frequency / Hz"	"Sound Pressure Level / dB (re 20 µPa/V)  [2.83  V @ 1. m]"	"Frequency / Hz"	"Sound Pressure Level / dB (re 20 µPa/V)  [2.83  V @ 1. m]"	"Frequency / Hz"	"Sound Pressure Level / dB (re 20 µPa/V)  [2.83  V @ 1. m]"	"Frequency / Hz"	"Sound Pressure Level / dB (re 20 µPa/V)  [2.83  V @ 1. m]"	"Frequency / Hz"	"Sound Pressure Level / dB (re 20 µPa/V)  [2.83  V @ 1. m]"	"Frequency / Hz"	"Sound Pressure Level / dB (re 20 µPa/V)  [2.83  V @ 1. m]"	"Frequency / Hz"	"Sound Pressure Level / dB (re 20 µPa/V)  [2.83  V @ 1. m]"	"Frequency / Hz"	"Sound Pressure Level / dB (re 20 µPa/V)  [2.83  V @ 1. m]"	"Frequency / Hz"	"Sound Pressure Level / dB (re 20 µPa/V)  [2.83  V @ 1. m]"	"Frequency / Hz"	"Sound Pressure Level / dB (re 20 µPa/V)  [2.83  V @ 1. m]"
20.5078	60.5117	20.5078	60.5218	20.5078	60.5193	20.5078	60.5514	20.5078	60.542	20.5078	60.6011	20.5078	60.5774	20.5078	60.6702	20.5078	60.624	20.5078	60.7559	20.5078	60.6815	20.5078	60.8547	20.5078	60.7516	20.5078	60.9626	20.5078	60.8369	20.5078	61.0765	20.5078	60.9395	20.5078	61.1946	20.5078	61.0595	20.5078	61.3153	20.5078	61.1926	20.5078	61.4361	20.5078	61.3304	20.5078	61.5523	20.5078	61.4617	20.5078	61.6564	20.5078	61.5756	20.5078	61.7404	20.5078	61.6656	20.5078	61.7982	20.5078	61.7309	20.5078	61.8289	20.5078	61.7758	20.5078	61.8362	20.5078	61.8066	20.5078	61.827
21.9727	63.9375	21.9727	63.9324	21.9727	63.9234	21.9727	63.9095	21.9727	63.8884	21.9727	63.8704	21.9727	63.8309	21.9727	63.8164	21.9727	63.7495	21.9727	63.7484	21.9727	63.6425	21.9727	63.667	21.9727	63.5085	21.9727	63.5724	21.9727	63.3465	21.9727	63.4645	21.9727	63.1568	21.9727	63.3427	21.9727	62.9424	21.9727	63.2067	21.9727	62.71	21.9727	63.0563	21.9727	62.4716	21.9727	62.8924	21.9727	62.244	21.9727	62.7175	21.9727	62.0463	21.9727	62.5363	21.9727	61.8966	21.9727	62.3553	21.9727	61.8071	21.9727	62.183	21.9727	61.7819	21.9727	62.0287	21.9727	61.817	21.9727	61.903
23.4375	69.2981	23.4375	69.2972	23.4375	69.2948	23.4375	69.293	23.4375	69.2867	23.4375	69.2862	23.4375	69.2733	23.4375	69.2775	23.4375	69.2544	23.4375	69.2674	23.4375	69.2306	23.4375	69.2562	23.4375	69.2028	23.4375	69.2444	23.4375	69.1729	23.4375	69.2327	23.4375	69.143	23.4375	69.2223	23.4375	69.1154	23.4375	69.2143	23.4375	69.0923	23.4375	69.2098	23.4375	69.0755	23.4375	69.2089	23.4375	69.0662	23.4375	69.2103	23.4375	69.0654	23.4375	69.2113	23.4375	69.0731	23.4375	69.2088	23.4375	69.0888	23.4375	69.2002	23.4375	69.1109	23.4375	69.1844	23.4375	69.1366	23.4375	69.1623
24.9023	70.9254	24.9023	70.9202	24.9023	70.929	24.9023	70.9138	24.9023	70.9305	24.9023	70.9062	24.9023	70.9293	24.9023	70.8972	24.9023	70.9247	24.9023	70.8865	24.9023	70.9162	24.9023	70.8736	24.9023	70.9036	24.9023	70.8579	24.9023	70.8869	24.9023	70.8391	24.9023	70.8665	24.9023	70.8174	24.9023	70.843	24.9023	70.7933	24.9023	70.8172	24.9023	70.768	24.9023	70.7899	24.9023	70.7426	24.9023	70.7622	24.9023	70.7185	24.9023	70.735	24.9023	70.6969	24.9023	70.7097	24.9023	70.6787	24.9023	70.6877	24.9023	70.6649	24.9023	70.6704	24.9023	70.6566	24.9023	70.659	24.9023	70.6544
26.3672	72.0932	26.3672	72.0635	26.3672	72.1239	26.3672	72.0358	26.3672	72.1546	26.3672	72.0111	26.3672	72.1845	26.3672	71.9903	26.3672	72.2128	26.3672	71.9744	26.3672	72.239	26.3672	71.9636	26.3672	72.2626	26.3672	71.9583	26.3672	72.283	26.3672	71.9582	26.3672	72.2998	26.3672	71.9632	26.3672	72.3122	26.3672	71.973	26.3672	72.3193	26.3672	71.9872	26.3672	72.3202	26.3672	72.005	26.3672	72.314	26.3672	72.026	26.3672	72.3004	26.3672	72.0493	26.3672	72.2796	26.3672	72.0744	26.3672	72.2532	26.3672	72.1011	26.3672	72.223	26.3672	72.1296	26.3672	72.1912	26.3672	72.1597
27.832	72.7791	27.832	72.7637	27.832	72.7907	27.832	72.7444	27.832	72.7983	27.832	72.7212	27.832	72.8018	27.832	72.6941	27.832	72.8009	27.832	72.6629	27.832	72.7954	27.832	72.6277	27.832	72.7848	27.832	72.5891	27.832	72.7687	27.832	72.5478	27.832	72.7471	27.832	72.5052	27.832	72.7198	27.832	72.4632	27.832	72.6871	27.832	72.4238	27.832	72.6497	27.832	72.3896	27.832	72.6084	27.832	72.3627	27.832	72.5647	27.832	72.3447	27.832	72.5202	27.832	72.3365	27.832	72.4767	27.832	72.3386	27.832	72.4362	27.832	72.3505	27.832	72.4006	27.832	72.3715
29.2969	76.505	29.2969	76.4984	29.2969	76.5063	29.2969	76.4866	29.2969	76.5023	29.2969	76.4699	29.2969	76.4927	29.2969	76.4483	29.2969	76.4776	29.2969	76.4222	29.2969	76.4569	29.2969	76.3918	29.2969	76.4309	29.2969	76.3578	29.2969	76.4	29.2969	76.3211	29.2969	76.365	29.2969	76.2827	29.2969	76.3268	29.2969	76.2443	29.2969	76.2867	29.2969	76.2073	29.2969	76.2461	29.2969	76.1733	29.2969	76.2068	29.2969	76.1435	29.2969	76.1702	29.2969	76.1186	29.2969	76.1382	29.2969	76.0992	29.2969	76.112	29.2969	76.0852	29.2969	76.0926	29.2969	76.0772	29.2969	76.0804	29.2969	76.0754
30.7617	77.1133	30.7617	77.1061	30.7617	77.1138	30.7617	77.0926	30.7617	77.1076	30.7617	77.0729	30.7617	77.0947	30.7617	77.0474	30.7617	77.075	30.7617	77.0163	30.7617	77.0489	30.7617	76.9801	30.7617	77.0166	30.7617	76.9391	30.7617	76.9788	30.7617	76.8941	30.7617	76.936	30.7617	76.8461	30.7617	76.8891	30.7617	76.7961	30.7617	76.8393	30.7617	76.7457	30.7617	76.7878	30.7617	76.6967	30.7617	76.7361	30.7617	76.6508	30.7617	76.6862	30.7617	76.61	30.7617	76.64	30.7617	76.5765	30.7617	76.5999	30.7617	76.5521	30.7617	76.5681	30.7617	76.5384	30.7617	76.5465	30.7617	76.5364
32.2266	78.3095	32.2266	78.2961	32.2266	78.3166	32.2266	78.2767	32.2266	78.3172	32.2266	78.2517	32.2266	78.3113	32.2266	78.2216	32.2266	78.2988	32.2266	78.1869	32.2266	78.2798	32.2266	78.1484	32.2266	78.2547	32.2266	78.1068	32.2266	78.2239	32.2266	78.0631	32.2266	78.1879	32.2266	78.0187	32.2266	78.1476	32.2266	77.9749	32.2266	78.1039	32.2266	77.9332	32.2266	78.0579	32.2266	77.8953	32.2266	78.0112	32.2266	77.8625	32.2266	77.9655	32.2266	77.8361	32.2266	77.9224	32.2266	77.817	32.2266	77.8839	32.2266	77.8061	32.2266	77.8516	32.2266	77.804	32.2266	77.827	32.2266	77.811
33.6914	79.5522	33.6914	79.541	33.6914	79.5556	33.6914	79.5221	33.6914	79.5511	33.6914	79.496	33.6914	79.5388	33.6914	79.4629	33.6914	79.5189	33.6914	79.4236	33.6914	79.4917	33.6914	79.3788	33.6914	79.4579	33.6914	79.3293	33.6914	79.4181	33.6914	79.2764	33.6914	79.3733	33.6914	79.2215	33.6914	79.3243	33.6914	79.1661	33.6914	79.2725	33.6914	79.1123	33.6914	79.2191	33.6914	79.062	33.6914	79.1656	33.6914	79.0173	33.6914	79.1134	33.6914	78.9803	33.6914	79.0645	33.6914	78.9528	33.6914	79.0206	33.6914	78.9361	33.6914	78.9837	33.6914	78.9309	33.6914	78.9555	33.6914	78.9376
35.1562	80.9494	35.1562	80.9393	35.1562	80.9499	35.1562	80.92	35.1562	80.9409	35.1562	80.8917	35.1562	80.9224	35.1562	80.8552	35.1562	80.8948	35.1562	80.8112	35.1562	80.8587	35.1562	80.7607	35.1562	80.8148	35.1562	80.705	35.1562	80.764	35.1562	80.6454	35.1562	80.7076	35.1562	80.5836	35.1562	80.6468	35.1562	80.5214	35.1562	80.5834	35.1562	80.4605	35.1562	80.5193	35.1562	80.403	35.1562	80.4567	35.1562	80.3507	35.1562	80.3977	35.1562	80.3056	35.1562	80.3446	35.1562	80.2696	35.1562	80.2996	35.1562	80.2441	35.1562	80.2644	35.1562	80.2304	35.1562	80.2407	35.1562	80.2292
36.6211	81.8019	36.6211	81.7913	36.6211	81.8027	36.6211	81.7712	36.6211	81.7938	36.6211	81.7421	36.6211	81.7752	36.6211	81.7047	36.6211	81.7474	36.6211	81.66	36.6211	81.711	36.6211	81.6092	36.6211	81.6667	36.6211	81.5536	36.6211	81.6156	36.6211	81.495	36.6211	81.5591	36.6211	81.435	36.6211	81.4988	36.6211	81.3755	36.6211	81.4367	36.6211	81.3184	36.6211	81.3748	36.6211	81.2655	36.6211	81.3156	36.6211	81.2184	36.6211	81.2611	36.6211	81.1787	36.6211	81.2133	36.6211	81.1476	36.6211	81.1738	36.6211	81.1261	36.6211	81.1436	36.6211	81.1147	36.6211	81.1235	36.6211	81.1138
38.0859	82.4091	38.0859	82.3953	38.0859	82.411	38.0859	82.3699	38.0859	82.4007	38.0859	82.3334	38.0859	82.3784	38.0859	82.2866	38.0859	82.3444	38.0859	82.2305	38.0859	82.2991	38.0859	82.1663	38.0859	82.2432	38.0859	82.0954	38.0859	82.1779	38.0859	82.0196	38.0859	82.1044	38.0859	81.9407	38.0859	82.0244	38.0859	81.861	38.0859	81.9401	38.0859	81.7826	38.0859	81.8543	38.0859	81.708	38.0859	81.77	38.0859	81.6398	38.0859	81.6905	38.0859	81.5803	38.0859	81.6193	38.0859	81.5318	38.0859	81.5597	38.0859	81.4965	38.0859	81.5141	38.0859	81.4761	38.0859	81.4846	38.0859	81.4719
39.5508	83.2275	39.5508	83.215	39.5508	83.2272	39.5508	83.1898	39.5508	83.2139	39.5508	83.1525	39.5508	83.1878	39.5508	83.1039	39.5508	83.1493	39.5508	83.045	39.5508	83.099	39.5508	82.9771	39.5508	83.0375	39.5508	82.9019	39.5508	82.966	39.5508	82.8211	39.5508	82.8855	39.5508	82.7368	39.5508	82.7978	39.5508	82.6513	39.5508	82.705	39.5508	82.5667	39.5508	82.6099	39.5508	82.4854	39.5508	82.5159	39.5508	82.4096	39.5508	82.4271	39.5508	82.3416	39.5508	82.3477	39.5508	82.2838	39.5508	82.2821	39.5508	82.2387	39.5508	82.2338	39.5508	82.209	39.5508	82.2052	39.5508	82.1972
41.0156	84.0111	41.0156	83.9846	41.0156	84.0299	41.0156	83.9506	41.0156	84.0407	41.0156	83.9098	41.0156	84.0438	41.0156	83.8631	41.0156	84.0394	41.0156	83.8119	41.0156	84.0278	41.0156	83.7581	41.0156	84.0095	41.0156	83.7038	41.0156	83.985	41.0156	83.6514	41.0156	83.9548	41.0156	83.6034	41.0156	83.9196	41.0156	83.5623	41.0156	83.8803	41.0156	83.5303	41.0156	83.8385	41.0156	83.5088	41.0156	83.7958	41.0156	83.4989	41.0156	83.754	41.0156	83.5002	41.0156	83.7144	41.0156	83.5116	41.0156	83.6779	41.0156	83.5308	41.0156	83.6443	41.0156	83.5554	41.0156	83.6128	41.0156	83.5831
42.4805	84.2189	42.4805	84.2126	42.4805	84.214	42.4805	84.1951	42.4805	84.1981	42.4805	84.167	42.4805	84.1719	42.4805	84.1288	42.4805	84.1362	42.4805	84.0817	42.4805	84.0923	42.4805	84.027	42.4805	84.0419	42.4805	83.9665	42.4805	83.987	42.4805	83.9024	42.4805	83.9298	42.4805	83.8372	42.4805	83.8723	42.4805	83.7736	42.4805	83.8167	42.4805	83.7144	42.4805	83.7645	42.4805	83.6623	42.4805	83.7169	42.4805	83.6193	42.4805	83.6749	42.4805	83.5866	42.4805	83.6388	42.4805	83.5646	42.4805	83.6087	42.4805	83.5526	42.4805	83.5846	42.4805	83.5497	42.4805	83.5665	42.4805	83.5547
43.9453	84.7901	43.9453	84.7878	43.9453	84.7815	43.9453	84.7747	43.9453	84.762	43.9453	84.7512	43.9453	84.7322	43.9453	84.7181	43.9453	84.6929	43.9453	84.6764	43.9453	84.6454	43.9453	84.6274	43.9453	84.5915	43.9453	84.573	43.9453	84.5335	43.9453	84.515	43.9453	84.474	43.9453	84.456	43.9453	84.4155	43.9453	84.3981	43.9453	84.3607	43.9453	84.3439	43.9453	84.3118	43.9453	84.2954	43.9453	84.2704	43.9453	84.2543	43.9453	84.2371	43.9453	84.2217	43.9453	84.2117	43.9453	84.1977	43.9453	84.1934	43.9453	84.182	43.9453	84.1811	43.9453	84.1736	43.9453	84.1738	43.9453	84.1712
45.4102	85.1827	45.4102	85.1778	45.4102	85.1758	45.4102	85.1614	45.4102	85.1574	45.4102	85.134	45.4102	85.1278	45.4102	85.0967	45.4102	85.0879	45.4102	85.0506	45.4102	85.039	45.4102	84.9974	45.4102	84.9828	45.4102	84.9389	45.4102	84.9216	45.4102	84.8774	45.4102	84.8579	45.4102	84.8153	45.4102	84.7943	45.4102	84.7549	45.4102	84.7336	45.4102	84.6986	45.4102	84.6781	45.4102	84.6482	45.4102	84.6299	45.4102	84.6052	45.4102	84.5902	45.4102	84.5706	45.4102	84.5593	45.4102	84.5445	45.4102	84.5368	45.4102	84.5265	45.4102	84.522	45.4102	84.5158	45.4102	84.5138	45.4102	84.5118
46.875	85.5886	46.875	85.5835	46.875	85.5808	46.875	85.5655	46.875	85.56	46.875	85.5355	46.875	85.5268	46.875	85.4946	46.875	85.4821	46.875	85.4441	46.875	85.4272	46.875	85.3858	46.875	85.3642	46.875	85.3219	46.875	85.2953	46.875	85.2547	46.875	85.2232	46.875	85.1868	46.875	85.151	46.875	85.1207	46.875	85.0819	46.875	85.059	46.875	85.0187	46.875	85.0037	46.875	84.9641	46.875	84.9566	46.875	84.9198	46.875	84.9183	46.875	84.8864	46.875	84.8889	46.875	84.8636	46.875	84.8677	46.875	84.8503	46.875	84.8538	46.875	84.8449	46.875	84.8463
48.3398	86.1346	48.3398	86.1314	48.3398	86.1231	48.3398	86.1136	48.3398	86.0969	48.3398	86.0821	48.3398	86.0567	48.3398	86.0378	48.3398	86.0036	48.3398	85.9825	48.3398	85.9391	48.3398	85.9179	48.3398	85.8653	48.3398	85.8464	48.3398	85.7849	48.3398	85.7704	48.3398	85.701	48.3398	85.6929	48.3398	85.6169	48.3398	85.6165	48.3398	85.5363	48.3398	85.5441	48.3398	85.4625	48.3398	85.4781	48.3398	85.3985	48.3398	85.4202	48.3398	85.3464	48.3398	85.3717	48.3398	85.3074	48.3398	85.3327	48.3398	85.2812	48.3398	85.303	48.3398	85.267	48.3398	85.2817	48.3398	85.2632	48.3398	85.2684
51.2695	86.9371	51.2695	86.9354	51.2695	86.9207	51.2695	86.9159	51.2695	86.8863	51.2695	86.8793	51.2695	86.8344	51.2695	86.8269	51.2695	86.7661	51.2695	86.7602	51.2695	86.6829	51.2695	86.6813	51.2695	86.5868	51.2695	86.5927	51.2695	86.4805	51.2695	86.4972	51.2695	86.3674	51.2695	86.3979	51.2695	86.2514	51.2695	86.298	51.2695	86.1367	51.2695	86.2002	51.2695	86.0282	51.2695	86.107	51.2695	85.9307	51.2695	86.0205	51.2695	85.8483	51.2695	85.9422	51.2695	85.7845	51.2695	85.8732	51.2695	85.7415	51.2695	85.8147	51.2695	85.7196	51.2695	85.768	51.2695	85.7181	51.2695	85.7351
52.7344	87.0814	52.7344	87.0746	52.7344	87.071	52.7344	87.051	52.7344	87.0434	52.7344	87.0115	52.7344	86.9987	52.7344	86.9573	52.7344	86.9376	52.7344	86.8897	52.7344	86.8613	52.7344	86.8107	52.7344	86.7714	52.7344	86.7225	52.7344	86.67	52.7344	86.6276	52.7344	86.5602	52.7344	86.5287	52.7344	86.4454	52.7344	86.4286	52.7344	86.3299	52.7344	86.3299	52.7344	86.2184	52.7344	86.2352	52.7344	86.1156	52.7344	86.1469	52.7344	86.026	52.7344	86.067	52.7344	85.9536	52.7344	85.9973	52.7344	85.901	52.7344	85.9398	52.7344	85.8695	52.7344	85.8962	52.7344	85.8591	52.7344	85.8686
54.1992	87.3406	54.1992	87.3269	54.1992	87.3406	54.1992	87.3001	54.1992	87.3267	54.1992	87.2612	54.1992	87.2987	54.1992	87.2111	54.1992	87.2567	54.1992	87.1512	54.1992	87.2015	54.1992	87.0831	54.1992	87.1342	54.1992	87.0086	54.1992	87.0564	54.1992	86.9298	54.1992	86.9706	54.1992	86.8491	54.1992	86.8797	54.1992	86.7688	54.1992	86.7873	54.1992	86.6915	54.1992	86.6973	54.1992	86.6193	54.1992	86.6135	54.1992	86.5542	54.1992	86.5395	54.1992	86.4979	54.1992	86.4782	54.1992	86.4516	54.1992	86.4314	54.1992	86.4162	54.1992	86.3997	54.1992	86.3924	54.1992	86.3832	54.1992	86.3811
55.6641	87.7736	55.6641	87.7605	55.6641	87.7732	55.6641	87.7346	55.6641	87.7589	55.6641	87.697	55.6641	87.7309	55.6641	87.6489	55.6641	87.6895	55.6641	87.5922	55.6641	87.6357	55.6641	87.5288	55.6641	87.571	55.6641	87.4609	55.6641	87.4978	55.6641	87.3907	55.6641	87.4186	55.6641	87.3207	55.6641	87.3367	55.6641	87.253	55.6641	87.2558	55.6641	87.1895	55.6641	87.1793	55.6641	87.1318	55.6641	87.1106	55.6641	87.081	55.6641	87.0524	55.6641	87.0378	55.6641	87.0063	55.6641	87.0024	55.6641	86.9731	55.6641	86.9751	55.6641	86.9525	55.6641	86.9558	55.6641	86.9436	55.6641	86.9451
58.5938	88.1882	58.5938	88.1714	58.5938	88.19	58.5938	88.1403	58.5938	88.1765	58.5938	88.0963	58.5938	88.1479	58.5938	88.0411	58.5938	88.1053	58.5938	87.9769	58.5938	88.05	58.5938	87.9063	58.5938	87.9843	58.5938	87.8322	58.5938	87.9107	58.5938	87.7576	58.5938	87.8324	58.5938	87.6853	58.5938	87.7531	58.5938	87.618	58.5938	87.6763	58.5938	87.5579	58.5938	87.6054	58.5938	87.5066	58.5938	87.5432	58.5938	87.465	58.5938	87.4913	58.5938	87.433	58.5938	87.4507	58.5938	87.41	58.5938	87.421	58.5938	87.3949	58.5938	87.401	58.5938	87.3867	58.5938	87.3894	58.5938	87.3849
60.0586	88.4101	60.0586	88.3877	60.0586	88.4155	60.0586	88.3492	60.0586	88.4034	60.0586	88.2961	60.0586	88.3741	60.0586	88.2304	60.0586	88.3287	60.0586	88.1549	60.0586	88.2685	60.0586	88.0723	60.0586	88.196	60.0586	87.9861	60.0586	88.1139	60.0586	87.8997	60.0586	88.0255	60.0586	87.8164	60.0586	87.9348	60.0586	87.7392	60.0586	87.8456	60.0586	87.6707	60.0586	87.7618	60.0586	87.6127	60.0586	87.6868	60.0586	87.5659	60.0586	87.6231	60.0586	87.5306	60.0586	87.572	60.0586	87.5058	60.0586	87.5337	60.0586	87.4903	60.0586	87.5072	60.0586	87.483	60.0586	87.4909	60.0586	87.4831
62.9883	88.8128	62.9883	88.7904	62.9883	88.8179	62.9883	88.7515	62.9883	88.8054	62.9883	88.6977	62.9883	88.7758	62.9883	88.6309	62.9883	88.7303	62.9883	88.5541	62.9883	88.6707	62.9883	88.4706	62.9883	88.5995	62.9883	88.3839	62.9883	88.5198	62.9883	88.2981	62.9883	88.4351	62.9883	88.2169	62.9883	88.3495	62.9883	88.1438	62.9883	88.2667	62.9883	88.0814	62.9883	88.1904	62.9883	88.0313	62.9883	88.1236	62.9883	87.9939	62.9883	88.0681	62.9883	87.9684	62.9883	88.0246	62.9883	87.953	62.9883	87.9926	62.9883	87.9457	62.9883	87.9705	62.9883	87.9444	62.9883	87.9562	62.9883	87.9479
64.4531	89.0013	64.4531	88.9779	64.4531	89.0067	64.4531	88.9374	64.4531	88.9939	64.4531	88.8815	64.4531	88.9634	64.4531	88.8124	64.4531	88.9165	64.4531	88.7331	64.4531	88.8552	64.4531	88.6472	64.4531	88.7821	64.4531	88.5584	64.4531	88.7005	64.4531	88.4711	64.4531	88.6142	64.4531	88.3893	64.4531	88.5275	64.4531	88.3165	64.4531	88.4444	64.4531	88.2554	64.4531	88.3687	64.4531	88.2075	64.4531	88.3032	64.4531	88.173	64.4531	88.2498	64.4531	88.1507	64.4531	88.2089	64.4531	88.1386	64.4531	88.1795	64.4531	88.1341	64.4531	88.1597	64.4531	88.1346	64.4531	88.1469	64.4531	88.139
67.3828	89.3496	67.3828	89.3189	67.3828	89.3605	67.3828	89.2693	67.3828	89.3514	67.3828	89.2025	67.3828	89.3228	67.3828	89.121	67.3828	89.2762	67.3828	89.0281	67.3828	89.2136	67.3828	88.9278	67.3828	89.1379	67.3828	88.8248	67.3828	89.0527	67.3828	88.7241	67.3828	88.9621	67.3828	88.6307	67.3828	88.8707	67.3828	88.5492	67.3828	88.7828	67.3828	88.4831	67.3828	88.7023	67.3828	88.4345	67.3828	88.6323	67.3828	88.4037	67.3828	88.5743	67.3828	88.3891	67.3828	88.5285	67.3828	88.3876	67.3828	88.4933	67.3828	88.3955	67.3828	88.4662	67.3828	88.409	67.3828	88.4444	67.3828	88.4256
68.8477	89.5173	68.8477	89.4863	68.8477	89.528	68.8477	89.4358	68.8477	89.5183	68.8477	89.3675	68.8477	89.4887	68.8477	89.2839	68.8477	89.4407	68.8477	89.1881	68.8477	89.3762	68.8477	89.0843	68.8477	89.2984	68.8477	88.9771	68.8477	89.2106	68.8477	88.8717	68.8477	89.1173	68.8477	88.7734	68.8477	89.023	68.8477	88.687	68.8477	88.9322	68.8477	88.6165	68.8477	88.8489	68.8477	88.5643	68.8477	88.7763	68.8477	88.5308	68.8477	88.716	68.8477	88.5147	68.8477	88.6679	68.8477	88.513	68.8477	88.6305	68.8477	88.5217	68.8477	88.6011	68.8477	88.5369	68.8477	88.5769	68.8477	88.5557
71.7773	89.803	71.7773	89.7645	71.7773	89.8204	71.7773	89.7057	71.7773	89.8165	71.7773	89.628	71.7773	89.7922	71.7773	89.5338	71.7773	89.7487	71.7773	89.4266	71.7773	89.6882	71.7773	89.3107	71.7773	89.6135	71.7773	89.1911	71.7773	89.528	71.7773	89.0739	71.7773	89.4357	71.7773	88.9652	71.7773	89.341	71.7773	88.8707	71.7773	89.2481	71.7773	88.7951	71.7773	89.1609	71.7773	88.7415	71.7773	89.0823	71.7773	88.7106	71.7773	89.0139	71.7773	88.7009	71.7773	88.9559	71.7773	88.7087	71.7773	88.9069	71.7773	88.7293	71.7773	88.8646	71.7773	88.758	71.7773	88.8265	71.7773	88.791
74.707	90.0362	74.707	90.0076	74.707	90.0436	74.707	89.9583	74.707	90.0304	74.707	89.8895	74.707	89.9977	74.707	89.8035	74.707	89.9474	74.707	89.7033	74.707	89.8823	74.707	89.593	74.707	89.8058	74.707	89.4777	74.707	89.7217	74.707	89.3629	74.707	89.6341	74.707	89.2549	74.707	89.5472	74.707	89.1595	74.707	89.4647	74.707	89.0819	74.707	89.3895	74.707	89.0257	74.707	89.3235	74.707	88.9924	74.707	89.2671	74.707	88.9809	74.707	89.2196	74.707	88.9881	74.707	89.1787	74.707	89.0092	74.707	89.1419	74.707	89.0387	74.707	89.1068	74.707	89.0722
77.6367	90.2287	77.6367	90.2061	77.6367	90.2287	77.6367	90.1611	77.6367	90.2065	77.6367	90.0954	77.6367	90.1638	77.6367	90.0114	77.6367	90.1031	77.6367	89.9126	77.6367	90.0277	77.6367	89.8035	77.6367	89.9421	77.6367	89.6897	77.6367	89.851	77.6367	89.5774	77.6367	89.7598	77.6367	89.4729	77.6367	89.6736	77.6367	89.3827	77.6367	89.5968	77.6367	89.3116	77.6367	89.5326	77.6367	89.2631	77.6367	89.4821	77.6367	89.238	77.6367	89.4446	77.6367	89.2343	77.6367	89.4174	77.6367	89.2477	77.6367	89.3965	77.6367	89.2723	77.6367	89.3772	77.6367	89.3016	77.6367	89.3559	77.6367	89.3305
79.1016	90.3175	79.1016	90.2976	79.1016	90.3134	79.1016	90.254	79.1016	90.2858	79.1016	90.1883	79.1016	90.2363	79.1016	90.103	79.1016	90.1676	79.1016	90.0018	79.1016	90.0833	79.1016	89.8893	79.1016	89.9882	79.1016	89.7713	79.1016	89.8877	79.1016	89.6541	79.1016	89.7877	79.1016	89.5446	79.1016	89.6941	79.1016	89.4492	79.1016	89.612	79.1016	89.3735	79.1016	89.5451	79.1016	89.321	79.1016	89.4948	79.1016	89.2925	79.1016	89.4602	79.1016	89.2862	79.1016	89.4378	79.1016	89.2975	79.1016	89.4226	79.1016	89.3199	79.1016	89.4093	79.1016	89.3467	79.1016	89.3934	79.1016	89.3724
82.0312	90.5098	82.0312	90.492	82.0312	90.5025	82.0312	90.4496	82.0312	90.4705	82.0312	90.3841	82.0312	90.4156	82.0312	90.2979	82.0312	90.3401	82.0312	90.1948	82.0312	90.2478	82.0312	90.0796	82.0312	90.1434	82.0312	89.958	82.0312	90.0323	82.0312	89.8367	82.0312	89.9208	82.0312	89.7225	82.0312	89.8152	82.0312	89.6222	82.0312	89.7216	82.0312	89.541	82.0312	89.6444	82.0312	89.4825	82.0312	89.5861	82.0312	89.4473	82.0312	89.5464	82.0312	89.4332	82.0312	89.5225	82.0312	89.4355	82.0312	89.5093	82.0312	89.4482	82.0312	89.501	82.0312	89.4649	82.0312	89.4925	82.0312	89.4806
84.9609	90.6738	84.9609	90.6625	84.9609	90.6584	84.9609	90.6247	84.9609	90.6168	84.9609	90.562	84.9609	90.5508	84.9609	90.4768	84.9609	90.4633	84.9609	90.3727	84.9609	90.3582	84.9609	90.2544	84.9609	90.241	84.9609	90.1278	84.9609	90.1178	84.9609	89.9998	84.9609	89.9958	84.9609	89.8776	84.9609	89.8821	84.9609	89.7684	84.9609	89.7832	84.9609	89.6783	84.9609	89.7039	84.9609	89.6114	84.9609	89.6465	84.9609	89.5689	84.9609	89.6101	84.9609	89.5487	84.9609	89.5913	84.9609	89.5459	84.9609	89.5844	84.9609	89.5537	84.9609	89.5829	84.9609	89.5654	84.9609	89.5811	84.9609	89.5755
87.8906	90.7455	87.8906	90.7322	87.8906	90.7316	87.8906	90.6924	87.8906	90.6909	87.8906	90.6278	87.8906	90.625	87.8906	90.5416	87.8906	90.5366	87.8906	90.4377	87.8906	90.4298	87.8906	90.3213	87.8906	90.3102	87.8906	90.1985	87.8906	90.1842	87.8906	90.0761	87.8906	90.0592	87.8906	89.9612	87.8906	89.9426	87.8906	89.8603	87.8906	89.8415	87.8906	89.7784	87.8906	89.7611	87.8906	89.7185	87.8906	89.7041	87.8906	89.6808	87.8906	89.67	87.8906	89.6624	87.8906	89.6553	87.8906	89.6582	87.8906	89.6544	87.8906	89.6619	87.8906	89.6602	87.8906	89.6672	87.8906	89.6666	87.8906	89.6694
90.8203	90.7416	90.8203	90.7226	90.8203	90.7316	90.8203	90.6756	90.8203	90.6931	90.8203	90.6025	90.8203	90.6278	90.8203	90.5067	90.8203	90.5387	90.8203	90.3928	90.8203	90.4305	90.8203	90.267	90.8203	90.3092	90.8203	90.1364	90.8203	90.1822	90.8203	90.0094	90.8203	90.0577	90.8203	89.8942	90.8203	89.9443	90.8203	89.7986	90.8203	89.8496	90.8203	89.7282	90.8203	89.779	90.8203	89.6856	90.8203	89.7346	90.8203	89.6695	90.8203	89.7149	90.8203	89.6751	90.8203	89.7147	90.8203	89.6944	90.8203	89.7261	90.8203	89.7185	90.8203	89.7407	90.8203	89.7393	90.8203	89.7507	90.8203	89.7507
95.2148	90.9193	95.2148	90.9051	95.2148	90.9012	95.2148	90.8596	95.2148	90.8512	95.2148	90.7845	95.2148	90.7706	95.2148	90.6833	95.2148	90.6626	95.2148	90.5602	95.2148	90.5317	95.2148	90.421	95.2148	90.3842	95.2148	90.2728	95.2148	90.2284	95.2148	90.124	95.2148	90.0738	95.2148	89.9835	95.2148	89.9308	95.2148	89.8602	95.2148	89.8092	95.2148	89.7615	95.2148	89.7168	95.2148	89.6923	95.2148	89.6572	95.2148	89.6531	95.2148	89.6296	95.2148	89.6404	95.2148	89.6277	95.2148	89.6467	95.2148	89.6422	95.2148	89.6621	95.2148	89.6621	95.2148	89.6768	95.2148	89.6778	95.2148	89.6832
98.1445	90.866	98.1445	90.8515	98.1445	90.8481	98.1445	90.8058	98.1445	90.798	98.1445	90.731	98.1445	90.7167	98.1445	90.6304	98.1445	90.6069	98.1445	90.5087	98.1445	90.4727	98.1445	90.3715	98.1445	90.3201	98.1445	90.2259	98.1445	90.1567	98.1445	90.08	98.1445	89.9923	98.1445	89.9424	98.1445	89.8374	98.1445	89.821	98.1445	89.7029	98.1445	89.7225	98.1445	89.5978	98.1445	89.6507	98.1445	89.5275	98.1445	89.6059	98.1445	89.4924	98.1445	89.5842	98.1445	89.4875	98.1445	89.5786	98.1445	89.5038	98.1445	89.5804	98.1445	89.5298	98.1445	89.5807	98.1445	89.5554	98.1445	89.5732
101.074	90.7172	101.074	90.6886	101.074	90.712	101.074	90.6277	101.074	90.673	101.074	90.5373	101.074	90.6016	101.074	90.4215	101.074	90.5005	101.074	90.2862	101.074	90.3741	101.074	90.1384	101.074	90.2284	101.074	89.9868	101.074	90.0713	101.074	89.8406	101.074	89.912	101.074	89.709	101.074	89.7607	101.074	89.6	101.074	89.6277	101.074	89.5191	101.074	89.5216	101.074	89.4681	101.074	89.4481	101.074	89.4447	101.074	89.4084	101.074	89.4425	101.074	89.3985	101.074	89.4529	101.074	89.4102	101.074	89.466	101.074	89.4327	101.074	89.4736	101.074	89.4555	101.074	89.4704
105.469	91.0367	105.469	91.0176	105.469	91.0161	105.469	90.9592	105.469	90.9566	105.469	90.8635	105.469	90.8606	105.469	90.734	105.469	90.732	105.469	90.576	105.469	90.5761	105.469	90.3967	105.469	90.4002	105.469	90.2054	105.469	90.2135	105.469	90.0133	105.469	90.0268	105.469	89.8328	105.469	89.852	105.469	89.6762	105.469	89.7007	105.469	89.554	105.469	89.5825	105.469	89.4721	105.469	89.5028	105.469	89.4306	105.469	89.4613	105.469	89.4236	105.469	89.4518	105.469	89.44	105.469	89.4635	105.469	89.4665	105.469	89.4833	105.469	89.4903	105.469	89.4991	105.469	89.5023
108.398	91.1844	108.398	91.1673	108.398	91.1639	108.398	91.1133	108.398	91.1061	108.398	91.0244	108.398	91.0126	108.398	90.9036	108.398	90.8865	108.398	90.7557	108.398	90.7325	108.398	90.587	108.398	90.5574	108.398	90.4057	108.398	90.3701	108.398	90.222	108.398	90.1812	108.398	90.0471	108.398	90.0027	108.398	89.8925	108.398	89.8463	108.398	89.768	108.398	89.7218	108.398	89.6795	108.398	89.6353	108.398	89.6276	108.398	89.5871	108.398	89.6072	108.398	89.572	108.398	89.6085	108.398	89.5803	108.398	89.6197	108.398	89.5998	108.398	89.6294	108.398	89.6192	108.398	89.6301
112.793	91.204	112.793	91.1756	112.793	91.1928	112.793	91.1092	112.793	91.1419	112.793	91.0073	112.793	91.0521	112.793	90.8736	112.793	90.9261	112.793	90.7136	112.793	90.7683	112.793	90.5343	112.793	90.5856	112.793	90.3445	112.793	90.3873	112.793	90.155	112.793	90.1854	112.793	89.9776	112.793	89.9936	112.793	89.824	112.793	89.8257	112.793	89.7038	112.793	89.6936	112.793	89.6227	112.793	89.6042	112.793	89.5806	112.793	89.5581	112.793	89.5713	112.793	89.5488	112.793	89.5837	112.793	89.5643	112.793	89.6044	112.793	89.5905	112.793	89.6212	112.793	89.6139	112.793	89.6253
117.188	91.1693	117.188	91.1375	117.188	91.1597	117.188	91.066	117.188	91.1081	117.188	90.9579	117.188	91.0154	117.188	90.8179	117.188	90.8842	117.188	90.6522	117.188	90.7188	117.188	90.4687	117.188	90.526	117.188	90.2768	117.188	90.3151	117.188	90.0877	117.188	90.0982	117.188	89.9127	117.188	89.8898	117.188	89.7627	117.188	89.7054	117.188	89.6461	117.188	89.5589	117.188	89.5673	117.188	89.4596	117.188	89.525	117.188	89.4096	117.188	89.5124	117.188	89.4028	117.188	89.5184	117.188	89.4264	117.188	89.5301	117.188	89.4643	117.188	89.5355	117.188	89.5014	117.188	89.5266
120.117	91.2922	120.117	91.2472	120.117	91.2943	120.117	91.1613	120.117	91.2533	120.117	91.0379	120.117	91.1702	120.117	90.8824	120.117	91.0477	120.117	90.702	120.117	90.8904	120.117	90.5061	120.117	90.7047	120.117	90.306	120.117	90.4996	120.117	90.1142	120.117	90.2866	120.117	89.9436	120.117	90.0795	120.117	89.8052	120.117	89.8929	120.117	89.7063	120.117	89.7405	120.117	89.6484	120.117	89.6322	120.117	89.6271	120.117	89.5716	120.117	89.6322	120.117	89.5546	120.117	89.6506	120.117	89.5702	120.117	89.6687	120.117	89.6037	120.117	89.6757	120.117	89.6397	120.117	89.6659
124.512	91.2956	124.512	91.2304	124.512	91.3154	124.512	91.1208	124.512	91.2903	124.512	90.9697	124.512	91.2218	124.512	90.7818	124.512	91.1133	124.512	90.5644	124.512	90.9695	124.512	90.3278	124.512	90.7974	124.512	90.0858	124.512	90.6061	124.512	89.855	124.512	90.4071	124.512	89.6539	124.512	90.214	124.512	89.4996	124.512	90.0409	124.512	89.404	124.512	89.9002	124.512	89.3708	124.512	89.8004	124.512	89.3933	124.512	89.7432	124.512	89.456	124.512	89.7229	124.512	89.5387	124.512	89.727	124.512	89.6213	124.512	89.7395	124.512	89.6878	124.512	89.7444	124.512	89.7293
128.906	91.2872	128.906	91.2459	128.906	91.2819	128.906	91.1575	128.906	91.2318	128.906	91.0231	128.906	91.1399	128.906	90.8451	128.906	91.0106	128.906	90.6287	128.906	90.8502	128.906	90.3823	128.906	90.6672	128.906	90.1183	128.906	90.4722	128.906	89.8538	128.906	90.2778	128.906	89.6097	128.906	90.0978	128.906	89.4089	128.906	89.9454	128.906	89.2712	128.906	89.8304	128.906	89.2077	128.906	89.7573	128.906	89.2173	128.906	89.7234	128.906	89.2855	128.906	89.7186	128.906	89.3893	128.906	89.7278	128.906	89.5029	128.906	89.7338	128.906	89.6044	128.906	89.721	128.906	89.6789
133.301	91.1815	133.301	91.1733	133.301	91.1408	133.301	91.1163	133.301	91.0522	133.301	91.0117	133.301	90.9179	133.301	90.8618	133.301	90.7424	133.301	90.6708	133.301	90.5324	133.301	90.4451	133.301	90.2978	133.301	90.1942	133.301	90.0522	133.301	89.9317	133.301	89.8123	133.301	89.6754	133.301	89.5968	133.301	89.4461	133.301	89.4236	133.301	89.2647	133.301	89.3057	133.301	89.1472	133.301	89.2473	133.301	89.0993	133.301	89.242	133.301	89.1136	133.301	89.2737	133.301	89.1714	133.301	89.3212	133.301	89.2479	133.301	89.3627	133.301	89.3191	133.301	89.3811	133.301	89.3666
139.16	90.9756	139.16	90.9515	139.16	90.9489	139.16	90.8785	139.16	90.8704	139.16	90.7593	139.16	90.7405	139.16	90.5984	139.16	90.5614	139.16	90.4015	139.16	90.3374	139.16	90.177	139.16	90.0765	139.16	89.9357	139.16	89.791	139.16	89.6916	139.16	89.4985	139.16	89.4608	139.16	89.2211	139.16	89.2605	139.16	88.9837	139.16	89.1052	139.16	88.8087	139.16	89.0039	139.16	88.7099	139.16	88.9564	139.16	88.6871	139.16	88.9529	139.16	88.7258	139.16	88.9757	139.16	88.8015	139.16	89.0039	139.16	88.8873	139.16	89.0183	139.16	88.9602	139.16	89.0054
143.555	90.6854	143.555	90.635	143.555	90.6848	143.555	90.5348	143.555	90.6326	143.555	90.3874	143.555	90.5292	143.555	90.1967	143.555	90.3765	143.555	89.9685	143.555	90.1783	143.555	89.7117	143.555	89.9411	143.555	89.4388	143.555	89.6754	143.555	89.1662	143.555	89.3964	143.555	88.9141	143.555	89.124	143.555	88.7034	143.555	88.8815	143.555	88.5523	143.555	88.6912	143.555	88.4704	143.555	88.5687	143.555	88.4549	143.555	88.5171	143.555	88.491	143.555	88.5253	143.555	88.5555	143.555	88.5713	143.555	88.6231	143.555	88.6287	143.555	88.6727	143.555	88.674	143.555	88.6909
147.949	90.438	147.949	90.3918	147.949	90.4291	147.949	90.2917	147.949	90.3655	147.949	90.14	147.949	90.2487	147.949	89.9408	147.949	90.0819	147.949	89.7004	147.949	89.8706	147.949	89.428	147.949	89.6228	147.949	89.1366	147.949	89.3503	147.949	88.8436	147.949	89.0695	147.949	88.5707	147.949	88.8013	147.949	88.342	147.949	88.5697	147.949	88.1792	147.949	88.3971	147.949	88.0957	147.949	88.2978	147.949	88.0907	147.949	88.2718	147.949	88.1483	147.949	88.3032	147.949	88.242	147.949	88.3652	147.949	88.3421	147.949	88.4281	147.949	88.4228	147.949	88.4671	147.949	88.4668
153.809	90.3211	153.809	90.295	153.809	90.2867	153.809	90.2099	153.809	90.1916	153.809	90.0684	153.809	90.0367	153.809	89.8749	153.809	89.825	153.809	89.6356	153.809	89.5616	153.809	89.3592	153.809	89.2551	153.809	89.0581	153.809	88.9186	153.809	88.7483	153.809	88.5706	153.809	88.4496	153.809	88.2352	153.809	88.1838	153.809	87.9406	153.809	87.9715	153.809	87.7147	153.809	87.8274	153.809	87.5772	153.809	87.7551	153.809	87.5323	153.809	87.745	153.809	87.5648	153.809	87.776	153.809	87.6451	153.809	87.8209	153.809	87.7381	153.809	87.8534	153.809	87.814	153.809	87.854
159.668	90.023	159.668	89.9756	159.668	90.0109	159.668	89.8697	159.668	89.9392	159.668	89.707	159.668	89.808	159.668	89.4909	159.668	89.6184	159.668	89.2271	159.668	89.3734	159.668	88.9253	159.668	89.0788	159.668	88.6007	159.668	88.745	159.668	88.2749	159.668	88.3892	159.668	87.9751	159.668	88.036	159.668	87.7302	159.668	87.7173	159.668	87.5637	159.668	87.4669	159.668	87.4851	159.668	87.3122	159.668	87.4858	159.668	87.263	159.668	87.5414	159.668	87.3061	159.668	87.6196	159.668	87.4095	159.668	87.6885	159.668	87.5333	159.668	87.723	159.668	87.6411	159.668	87.708
165.527	89.8136	165.527	89.7737	165.527	89.7978	165.527	89.679	165.527	89.7251	165.527	89.5308	165.527	89.5944	165.527	89.331	165.527	89.4053	165.527	89.0834	165.527	89.159	165.527	88.7947	165.527	88.8596	165.527	88.4764	165.527	88.5168	165.527	88.1465	165.527	88.1475	165.527	87.8296	165.527	87.7778	165.527	87.5553	165.527	87.4426	165.527	87.3523	165.527	87.1803	165.527	87.2393	165.527	87.0224	165.527	87.2171	165.527	86.9808	165.527	87.2662	165.527	87.0406	165.527	87.3528	165.527	87.1643	165.527	87.4386	165.527	87.3053	165.527	87.4908	165.527	87.4222	165.527	87.4875
171.387	89.9537	171.387	89.8545	171.387	89.9952	171.387	89.6978	171.387	89.9787	171.387	89.4839	171.387	89.904	171.387	89.2145	171.387	89.7709	171.387	88.8939	171.387	89.5803	171.387	88.5312	171.387	89.3353	171.387	88.1433	171.387	89.0425	171.387	87.757	171.387	88.7142	171.387	87.4092	171.387	88.3696	171.387	87.1418	171.387	88.0358	171.387	86.9897	171.387	87.7461	171.387	86.9658	171.387	87.5335	171.387	87.054	171.387	87.4202	171.387	87.2138	171.387	87.4072	171.387	87.3958	171.387	87.4702	171.387	87.5547	171.387	87.5674	171.387	87.6582	171.387	87.653	171.387	87.6902
177.246	90.2535	177.246	90.1995	177.246	90.2493	177.246	90.0862	177.246	90.1882	177.246	89.9117	177.246	90.0714	177.246	89.6743	177.246	89.9004	177.246	89.3734	177.246	89.6783	177.246	89.0111	177.246	89.4108	177.246	88.5956	177.246	89.1073	177.246	88.1453	177.246	88.7829	177.246	87.6932	177.246	88.4592	177.246	87.2883	177.246	88.1631	177.246	86.9877	177.246	87.9227	177.246	86.8374	177.246	87.7595	177.246	86.849	177.246	87.6803	177.246	86.9911	177.246	87.673	177.246	87.204	177.246	87.7093	177.246	87.4249	177.246	87.7521	177.246	87.6059	177.246	87.7652	177.246	87.721
183.105	90.4695	183.105	90.4483	183.105	90.4279	183.105	90.3643	183.105	90.3236	183.105	90.2172	183.105	90.1571	183.105	90.0073	183.105	89.9303	183.105	89.7353	183.105	89.6474	183.105	89.4047	183.105	89.3167	183.105	89.0233	183.105	88.9524	183.105	88.6068	183.105	88.5765	183.105	88.1827	183.105	88.2197	183.105	87.7918	183.105	87.9191	183.105	87.4838	183.105	87.7098	183.105	87.3028	183.105	87.6126	183.105	87.2673	183.105	87.6231	183.105	87.3586	183.105	87.7111	183.105	87.5282	183.105	87.8309	183.105	87.7175	183.105	87.9362	183.105	87.8763	183.105	87.9903	183.105	87.9719
188.965	90.888	188.965	90.8579	188.965	90.8475	188.965	90.7573	188.965	90.7361	188.965	90.5865	188.965	90.5539	188.965	90.3459	188.965	90.302	188.965	90.0367	188.965	89.9827	188.965	89.6624	188.965	89.6019	188.965	89.2305	188.965	89.1712	188.965	88.7573	188.965	88.7116	188.965	88.2723	188.965	88.2566	188.965	87.8219	188.965	87.853	188.965	87.4644	188.965	87.552	188.965	87.2528	188.965	87.3923	188.965	87.2081	188.965	87.3795	188.965	87.3052	188.965	87.4805	188.965	87.4841	188.965	87.6369	188.965	87.6764	188.965	87.7876	188.965	87.8266	188.965	87.8848	188.965	87.9003
196.289	91.3261	196.289	91.3047	196.289	91.2758	196.289	91.2152	196.289	91.1502	196.289	91.0611	196.289	90.9456	196.289	90.8461	196.289	90.6588	196.289	90.5738	196.289	90.2877	196.289	90.2483	196.289	89.833	196.289	89.8754	196.289	89.302	196.289	89.4639	196.289	88.7141	196.289	89.0291	196.289	88.1085	196.289	88.5969	196.289	87.549	196.289	88.2057	196.289	87.1158	196.289	87.901	196.289	86.8772	196.289	87.7178	196.289	86.8514	196.289	87.6599	196.289	86.9934	196.289	87.6923	196.289	87.2225	196.289	87.756	196.289	87.4599	196.289	87.7929	196.289	87.65	196.289	87.7631
203.613	91.0199	203.613	90.9378	203.613	91.0417	203.613	90.7956	203.613	91.0011	203.613	90.5923	203.613	90.8942	203.613	90.3268	203.613	90.7158	203.613	90	203.613	90.4601	203.613	89.6176	203.613	90.1225	203.613	89.1932	203.613	89.7015	203.613	88.7511	203.613	89.2036	203.613	88.327	203.613	88.65	203.613	87.9638	203.613	88.086	203.613	87.7013	203.613	87.5845	203.613	87.5631	203.613	87.2316	203.613	87.5459	203.613	87.0876	203.613	87.6201	203.613	87.1467	203.613	87.7386	203.613	87.3389	203.613	87.8498	203.613	87.5717	203.613	87.9091	203.613	87.7687	203.613	87.8858
210.938	90.9222	210.938	90.8143	210.938	90.9671	210.938	90.6418	210.938	90.949	210.938	90.4013	210.938	90.8656	210.938	90.0884	210.938	90.7131	210.938	89.699	210.938	90.486	210.938	89.2322	210.938	90.1783	210.938	88.6954	210.938	89.7849	210.938	88.112	210.938	89.3057	210.938	87.5298	210.938	88.7518	210.938	87.0222	210.938	88.1558	210.938	86.6716	210.938	87.5807	210.938	86.5308	210.938	87.1167	210.938	86.5896	210.938	86.8488	210.938	86.7808	210.938	86.8046	210.938	87.0175	210.938	86.9302	210.938	87.2257	210.938	87.1252	210.938	87.3554	210.938	87.2951	210.938	87.3799
218.262	90.8659	218.262	90.8214	218.262	90.8557	218.262	90.7163	218.262	90.7951	218.262	90.5436	218.262	90.6872	218.262	90.2959	218.262	90.5337	218.262	89.9658	218.262	90.3355	218.262	89.5477	218.262	90.0929	218.262	89.0409	218.262	89.8056	218.262	88.4558	218.262	89.474	218.262	87.8243	218.262	89.102	218.262	87.2104	218.262	88.7029	218.262	86.7104	218.262	88.3059	218.262	86.4224	218.262	87.957	218.262	86.3877	218.262	87.7054	218.262	86.5599	218.262	87.5765	218.262	86.8381	218.262	87.5506	218.262	87.1257	218.262	87.5708	218.262	87.3594	218.262	87.5728	218.262	87.5095
225.586	90.9601	225.586	90.989	225.586	90.8551	225.586	90.9389	225.586	90.6768	225.586	90.8066	225.586	90.4284	225.586	90.5885	225.586	90.1151	225.586	90.2803	225.586	89.7447	225.586	89.8786	225.586	89.329	225.586	89.3832	225.586	88.8853	225.586	88.8027	225.586	88.4376	225.586	88.1643	225.586	88.0168	225.586	87.5277	225.586	87.6602	225.586	86.9917	225.586	87.4076	225.586	86.6711	225.586	87.2908	225.586	86.6316	225.586	87.3175	225.586	86.8359	225.586	87.4584	225.586	87.1684	225.586	87.6527	225.586	87.5073	225.586	87.8291	225.586	87.7693	225.586	87.9283	225.586	87.913
232.91	90.8983	232.91	90.9251	232.91	90.8059	232.91	90.8878	232.91	90.6432	232.91	90.7846	232.91	90.4032	232.91	90.6104	232.91	90.0779	232.91	90.3571	232.91	89.6594	232.91	90.0149	232.91	89.1434	232.91	89.5741	232.91	88.5331	232.91	89.0287	232.91	87.8461	232.91	88.3837	232.91	87.1245	232.91	87.6665	232.91	86.4435	232.91	86.9439	232.91	85.9076	232.91	86.3295	232.91	85.6163	232.91	85.9527	232.91	85.6044	232.91	85.8764	232.91	85.8118	232.91	86.0397	232.91	86.1187	232.91	86.3018	232.91	86.4072	232.91	86.5287	232.91	86.5945	232.91	86.6373
241.699	90.6604	241.699	90.5507	241.699	90.72	241.699	90.3989	241.699	90.7192	241.699	90.209	241.699	90.6455	241.699	89.9808	241.699	90.4852	241.699	89.7096	241.699	90.2235	241.699	89.3878	241.699	89.8464	241.699	89.0094	241.699	89.3437	241.699	88.5755	241.699	88.7159	241.699	88.1021	241.699	87.985	241.699	87.6261	241.699	87.2092	241.699	87.2045	241.699	86.494	241.699	86.9014	241.699	85.976	241.699	86.7591	241.699	85.7608	241.699	86.7709	241.699	85.85	241.699	86.8792	241.699	86.1405	241.699	87.0003	241.699	86.4948	241.699	87.0566	241.699	86.8017	241.699	86.9962
250.488	90.4753	250.488	90.3511	250.488	90.5217	250.488	90.1476	250.488	90.4917	250.488	89.8643	250.488	90.3862	250.488	89.502	250.488	90.2042	250.488	89.0631	250.488	89.9415	250.488	88.5535	250.488	89.5892	250.488	87.9855	250.488	89.1352	250.488	87.3825	250.488	88.5686	250.488	86.7849	250.488	87.8926	250.488	86.2546	250.488	87.145	250.488	85.8682	250.488	86.4231	250.488	85.6915	250.488	85.8829	250.488	85.7423	250.488	85.6667	250.488	85.9717	250.488	85.7868	250.488	86.2848	250.488	86.1098	250.488	86.5809	250.488	86.4636	250.488	86.7809	250.488	86.7254	250.488	86.8356
259.277	91.4312	259.277	91.3625	259.277	91.442	259.277	91.2323	259.277	91.3935	259.277	91.0325	259.277	91.2799	259.277	90.7502	259.277	91.0913	259.277	90.3678	259.277	90.8141	259.277	89.8648	259.277	90.4333	259.277	89.2223	259.277	89.933	259.277	88.4338	259.277	89.2995	259.277	87.5258	259.277	88.526	259.277	86.5892	259.277	87.6262	259.277	85.8028	259.277	86.6618	259.277	85.3835	259.277	85.7837	259.277	85.4271	259.277	85.232	259.277	85.8104	259.277	85.1915	259.277	86.3055	259.277	85.592	259.277	86.7239	259.277	86.1632	259.277	86.9523	259.277	86.6559	259.277	86.9337
268.066	90.6088	268.066	90.596	268.066	90.5903	268.066	90.5461	268.066	90.5417	268.066	90.4477	268.066	90.4591	268.066	90.2845	268.066	90.3342	268.066	90.034	268.066	90.1561	268.066	89.6684	268.066	89.9136	268.066	89.1564	268.066	89.5975	268.066	88.468	268.066	89.2037	268.066	87.5868	268.066	88.7354	268.066	86.5367	268.066	88.2072	268.066	85.4305	268.066	87.65	268.066	84.5197	268.066	87.116	268.066	84.118	268.066	86.6729	268.066	84.3147	268.066	86.3799	268.066	84.863	268.066	86.2505	268.066	85.4497	268.066	86.2337	268.066	85.8941	268.066	86.233	268.066	86.1456
276.855	90.1468	276.855	90.1663	276.855	90.0787	276.855	90.1359	276.855	89.9646	276.855	90.0566	276.855	89.8076	276.855	89.9292	276.855	89.6068	276.855	89.7503	276.855	89.3534	276.855	89.5075	276.855	89.0277	276.855	89.1782	276.855	88.6019	276.855	88.7342	276.855	88.0516	276.855	88.1542	276.855	87.3747	276.855	87.4442	276.855	86.6196	276.855	86.6622	276.855	85.9107	276.855	85.935	276.855	85.4313	276.855	85.4305	276.855	85.3145	276.855	85.2609	276.855	85.5179	276.855	85.3953	276.855	85.8566	276.855	85.6944	276.855	86.146	276.855	86.0078	276.855	86.279	276.855	86.2249
287.109	90.2304	287.109	90.1975	287.109	90.2062	287.109	90.1138	287.109	90.1172	287.109	89.9819	287.109	89.9578	287.109	89.8007	287.109	89.7261	287.109	89.5651	287.109	89.4243	287.109	89.2661	287.109	89.0537	287.109	88.8889	287.109	88.6073	287.109	88.4105	287.109	88.0645	287.109	87.8058	287.109	87.3973	287.109	87.065	287.109	86.5953	287.109	86.2299	287.109	85.7089	287.109	85.434	287.109	84.8956	287.109	84.8896	287.109	84.3941	287.109	84.7432	287.109	84.3437	287.109	84.9214	287.109	84.6321	287.109	85.2071	287.109	85.0192	287.109	85.4177	287.109	85.3242	287.109	85.4643
297.363	90.2391	297.363	90.1433	297.363	90.2721	297.363	89.9861	297.363	90.2389	297.363	89.7664	297.363	90.1336	297.363	89.4789	297.363	89.9458	297.363	89.1146	297.363	89.6616	297.363	88.6649	297.363	89.2663	297.363	88.128	297.363	88.747	297.363	87.5158	297.363	88.0953	297.363	86.856	297.363	87.3073	297.363	86.1927	297.363	86.3903	297.363	85.5882	297.363	85.3863	297.363	85.1251	297.363	84.4219	297.363	84.8884	297.363	83.7394	297.363	84.9074	297.363	83.5785	297.363	85.1069	297.363	83.9229	297.363	85.3374	297.363	84.4984	297.363	85.4536	297.363	85.0281	297.363	85.3609
307.617	89.9203	307.617	89.8665	307.617	89.95	307.617	89.7843	307.617	89.9567	307.617	89.6666	307.617	89.9357	307.617	89.5003	307.617	89.8726	307.617	89.2631	307.617	89.7416	307.617	88.9207	307.617	89.5061	307.617	88.4308	307.617	89.1247	307.617	87.7535	307.617	88.5606	307.617	86.8716	307.617	87.7942	307.617	85.8255	307.617	86.8428	307.617	84.7632	307.617	85.7895	307.617	83.9581	307.617	84.8118	307.617	83.665	307.617	84.1534	307.617	83.8668	307.617	83.9678	307.617	84.301	307.617	84.173	307.617	84.7136	307.617	84.5371	307.617	84.9681	307.617	84.8563	307.617	85.0154
319.336	89.7169	319.336	89.6788	319.336	89.7136	319.336	89.5983	319.336	89.672	319.336	89.4736	319.336	89.5971	319.336	89.2963	319.336	89.4927	319.336	89.0471	319.336	89.3569	319.336	88.6937	319.336	89.1771	319.336	88.1927	319.336	88.9276	319.336	87.4958	319.336	88.5713	319.336	86.5606	319.336	88.0678	319.336	85.3764	319.336	87.3897	319.336	84.0229	319.336	86.549	319.336	82.7772	319.336	85.637	319.336	82.1242	319.336	84.8515	319.336	82.3308	319.336	84.4228	319.336	83.0747	319.336	84.4098	319.336	83.8776	319.336	84.6236	319.336	84.4756	319.336	84.8063	319.336	84.7831
329.59	89.9644	329.59	89.9639	329.59	89.922	329.59	89.931	329.59	89.8308	329.59	89.8765	329.59	89.6896	329.59	89.8039	329.59	89.4986	329.59	89.7004	329.59	89.2558	329.59	89.534	329.59	88.9532	329.59	89.2582	329.59	88.5721	329.59	88.8217	329.59	88.0835	329.59	88.1819	329.59	87.4563	329.59	87.3224	329.59	86.6807	329.59	86.2831	329.59	85.8123	329.59	85.21	329.59	85.0238	329.59	84.3851	329.59	84.5802	329.59	84.095	329.59	84.6276	329.59	84.3487	329.59	85.0108	329.59	84.8673	329.59	85.4317	329.59	85.3585	329.59	85.6751	329.59	85.6513
341.309	90.5488	341.309	90.499	341.309	90.5149	341.309	90.3683	341.309	90.4024	341.309	90.1701	341.309	90.2203	341.309	89.9276	341.309	89.9779	341.309	89.6619	341.309	89.6812	341.309	89.3714	341.309	89.3286	341.309	89.0152	341.309	88.9061	341.309	88.5169	341.309	88.3833	341.309	87.7933	341.309	87.7175	341.309	86.8016	341.309	86.8743	341.309	85.6153	341.309	85.8782	341.309	84.5345	341.309	84.9051	341.309	84.0582	341.309	84.3341	341.309	84.4021	341.309	84.4809	341.309	85.2022	341.309	85.1742	341.309	85.9955	341.309	85.9588	341.309	86.5322	341.309	86.5153	341.309	86.715
353.027	91.211	353.027	91.2001	353.027	91.1873	353.027	91.1632	353.027	91.1256	353.027	91.1088	353.027	91.0278	353.027	91.0383	353.027	90.8946	353.027	90.9418	353.027	90.7138	353.027	90.7963	353.027	90.4523	353.027	90.563	353.027	90.0566	353.027	90.1864	353.027	89.4632	353.027	89.5971	353.027	88.6111	353.027	88.7267	353.027	87.4594	353.027	87.5426	353.027	86.0273	353.027	86.1346	353.027	84.5135	353.027	84.8744	353.027	83.4854	353.027	84.3856	353.027	83.5759	353.027	84.8308	353.027	84.532	353.027	85.6417	353.027	85.5827	353.027	86.2822	353.027	86.2882	353.027	86.5218
366.211	90.8039	366.211	90.6322	366.211	90.8848	366.211	90.3703	366.211	90.8923	366.211	90.0386	366.211	90.8506	366.211	89.6687	366.211	90.7788	366.211	89.2854	366.211	90.6819	366.211	88.8904	366.211	90.5472	366.211	88.4587	366.211	90.3424	366.211	87.9496	366.211	90.013	366.211	87.322	366.211	89.484	366.211	86.5504	366.211	88.6671	366.211	85.6546	366.211	87.4817	366.211	84.761	366.211	85.91	366.211	84.1624	366.211	84.1604	366.211	84.1674	366.211	82.9489	366.211	84.7123	366.211	83.0671	366.211	85.3754	366.211	84.0944	366.211	85.7728	366.211	85.116	366.211	85.7057
379.395	90.589	379.395	90.5885	379.395	90.5492	379.395	90.5395	379.395	90.4767	379.395	90.4332	379.395	90.3801	379.395	90.264	379.395	90.2693	379.395	90.0306	379.395	90.1464	379.395	89.728	379.395	89.9944	379.395	89.3341	379.395	89.7722	379.395	88.7991	379.395	89.4194	379.395	88.0543	379.395	88.8695	379.395	87.0396	379.395	88.0673	379.395	85.754	379.395	86.9956	379.395	84.3368	379.395	85.7303	379.395	83.1477	379.395	84.5244	379.395	82.6314	379.395	83.7924	379.395	82.863	379.395	83.7435	379.395	83.4734	379.395	84.0876	379.395	84.0643	379.395	84.3891	379.395	84.3994
392.578	89.4656	392.578	89.4937	392.578	89.4042	392.578	89.5087	392.578	89.3092	392.578	89.541	392.578	89.1997	392.578	89.6121	392.578	89.1075	392.578	89.7125	392.578	89.0623	392.578	89.7911	392.578	89.0673	392.578	89.7617	392.578	89.0771	392.578	89.5173	392.578	88.9994	392.578	88.9436	392.578	88.7192	392.578	87.9315	392.578	88.1305	392.578	86.4154	392.578	87.1668	392.578	84.521	392.578	85.8573	392.578	82.9453	392.578	84.4504	392.578	82.7612	392.578	83.5015	392.578	83.6593	392.578	83.4412	392.578	84.547	392.578	83.9832	392.578	84.9885	392.578	84.5922	392.578	84.9726
405.762	89.5469	405.762	89.4794	405.762	89.4685	405.762	89.303	405.762	89.2506	405.762	89.0936	405.762	88.9414	405.762	88.9454	405.762	88.618	405.762	88.9257	405.762	88.3513	405.762	89.025	405.762	88.1603	405.762	89.1475	405.762	87.9943	405.762	89.1499	405.762	87.7594	405.762	88.8855	405.762	87.3577	405.762	88.2271	405.762	86.7122	405.762	87.0787	405.762	85.7945	405.762	85.4252	405.762	84.7083	405.762	83.5261	405.762	83.8358	405.762	82.2763	405.762	83.7105	405.762	82.551	405.762	84.3132	405.762	83.6957	405.762	85.046	405.762	84.7491	405.762	85.4494	405.762	85.3577
420.41	90.2664	420.41	90.0256	420.41	90.3044	420.41	89.5802	420.41	90.1777	420.41	88.985	420.41	89.9432	420.41	88.3705	420.41	89.6647	420.41	87.9292	420.41	89.4059	420.41	87.807	420.41	89.2109	420.41	87.9537	420.41	89.0605	420.41	88.1361	420.41	88.8393	420.41	88.0971	420.41	88.3576	420.41	87.6578	420.41	87.4032	420.41	86.7384	420.41	85.7733	420.41	85.4049	420.41	83.3146	420.41	84.0331	420.41	80.3017	420.41	83.3694	420.41	78.902	420.41	83.7213	420.41	80.5868	420.41	84.4429	420.41	82.691	420.41	84.8936	420.41	84.1066	420.41	84.8134
435.059	90.3383	435.059	90.3042	435.059	90.1295	435.059	90.0569	435.059	89.6891	435.059	89.6509	435.059	89.0961	435.059	89.1581	435.059	88.523	435.059	88.6611	435.059	88.2019	435.059	88.2297	435.059	88.2696	435.059	87.8699	435.059	88.6257	435.059	87.4888	435.059	89.0108	435.059	86.9161	435.059	89.1669	435.059	85.9583	435.059	88.8912	435.059	84.4428	435.059	88.0198	435.059	82.3201	435.059	86.4309	435.059	80.1828	435.059	84.1901	435.059	79.9446	435.059	82.1777	435.059	81.7198	435.059	82.1589	435.059	83.5405	435.059	83.5417	435.059	84.6798	435.059	84.6692	435.059	85.0591
451.172	92.3586	451.172	92.0741	451.172	92.2496	451.172	91.383	451.172	91.7235	451.172	90.2443	451.172	90.7214	451.172	88.6422	451.172	89.1648	451.172	86.8075	451.172	87.0549	451.172	85.6957	451.172	84.9386	451.172	86.2808	451.172	84.4973	451.172	87.6567	451.172	85.9427	451.172	88.6364	451.172	87.4409	451.172	88.7734	451.172	88.1459	451.172	87.8868	451.172	87.8647	451.172	85.7916	451.172	86.4553	451.172	82.4805	451.172	83.7074	451.172	80.4857	451.172	80.3755	451.172	83.0284	451.172	81.3809	451.172	85.7431	451.172	84.701	451.172	87.2316	451.172	86.7882	451.172	87.576
465.82	92.8251	465.82	92.7369	465.82	92.7667	465.82	92.4744	465.82	92.5586	465.82	91.9845	465.82	92.164	465.82	91.1939	465.82	91.5133	465.82	90.0114	465.82	90.5089	465.82	88.335	465.82	89.0281	465.82	86.106	465.82	86.9285	465.82	83.5696	465.82	84.0964	465.82	81.8449	465.82	80.8113	465.82	81.8533	465.82	78.8556	465.82	82.3213	465.82	79.3794	465.82	81.9885	465.82	80.0804	465.82	80.3037	465.82	79.6136	465.82	76.6081	465.82	77.4843	465.82	68.6821	465.82	72.8004	465.82	63.5211	465.82	64.1949	465.82	71.1352	465.82	68.86	465.82	72.1586
483.398	90.7151	483.398	90.6234	483.398	90.7252	483.398	90.4645	483.398	90.6517	483.398	90.2397	483.398	90.5045	483.398	89.9065	483.398	90.2882	483.398	89.3744	483.398	89.9885	483.398	88.5308	483.398	89.5726	483.398	87.2836	483.398	89.0003	483.398	85.6207	483.398	88.2347	483.398	83.7274	483.398	87.2455	483.398	82.1218	483.398	86.0061	483.398	81.3302	483.398	84.4831	483.398	81.1117	483.398	82.6129	483.398	80.7917	483.398	80.2676	483.398	80.019	483.398	77.2885	483.398	78.9052	483.398	74.0474	483.398	77.9023	483.398	73.0589	483.398	77.2207	483.398	74.7927	483.398	76.3693
499.512	89.9391	499.512	89.8987	499.512	89.8251	499.512	89.7155	499.512	89.5778	499.512	89.4351	499.512	89.2392	499.512	89.1252	499.512	88.8508	499.512	88.8408	499.512	88.43	499.512	88.578	499.512	87.9643	499.512	88.2539	499.512	87.4368	499.512	87.731	499.512	86.8582	499.512	86.8505	499.512	86.2578	499.512	85.4472	499.512	85.6233	499.512	83.368	499.512	84.8598	499.512	80.6046	499.512	83.8407	499.512	77.8717	499.512	82.5239	499.512	76.9174	499.512	81.096	499.512	77.5411	499.512	80.0044	499.512	78.2601	499.512	79.5111	499.512	78.7553	499.512	79.3277	499.512	79.1062
517.09	90.1333	517.09	90.0431	517.09	90.1268	517.09	89.8457	517.09	90.0163	517.09	89.514	517.09	89.7746	517.09	89.0118	517.09	89.3585	517.09	88.3263	517.09	88.7334	517.09	87.539	517.09	87.9209	517.09	86.879	517.09	87.0416	517.09	86.5824	517.09	86.2657	517.09	86.5674	517.09	85.6262	517.09	86.4426	517.09	84.9249	517.09	85.8192	517.09	83.901	517.09	84.4275	517.09	82.4413	517.09	82.0897	517.09	80.6922	517.09	78.8898	517.09	79.0357	517.09	76.1314	517.09	77.7931	517.09	75.7986	517.09	77.0388	517.09	76.4294	517.09	76.7464	517.09	76.6908
536.133	89.2283	536.133	89.1895	536.133	89.313	536.133	89.2023	536.133	89.3958	536.133	89.231	536.133	89.4196	536.133	89.2176	536.133	89.3519	536.133	89.0825	536.133	89.1807	536.133	88.7164	536.133	88.8746	536.133	87.9922	536.133	88.3558	536.133	86.8039	536.133	87.5175	536.133	85.1144	536.133	86.2715	536.133	83	536.133	84.5897	536.133	80.6725	536.133	82.5167	536.133	78.4457	536.133	80.1282	536.133	76.6628	536.133	77.4482	536.133	75.5601	536.133	74.4994	536.133	75.0509	536.133	72.0112	536.133	74.8449	536.133	71.8934	536.133	74.7208	536.133	73.3377	536.133	74.359
555.176	87.5789	555.176	87.4872	555.176	87.4127	555.176	87.1822	555.176	87.0273	555.176	86.8106	555.176	86.5705	555.176	86.6581	555.176	86.3203	555.176	87.0148	555.176	86.5797	555.176	87.8282	555.176	87.3868	555.176	88.7107	555.176	88.4214	555.176	89.2896	555.176	89.293	555.176	89.3408	555.176	89.7437	555.176	88.7438	555.176	89.6337	555.176	87.439	555.176	88.8829	555.176	85.4173	555.176	87.4477	555.176	82.7712	555.176	85.3674	555.176	80.0661	555.176	83.0105	555.176	79.0416	555.176	81.522	555.176	80.2197	555.176	81.6972	555.176	81.6808	555.176	82.3673	555.176	82.4509
574.219	91.3767	574.219	91.1396	574.219	91.3446	574.219	90.6289	574.219	91.0485	574.219	89.8467	574.219	90.4809	574.219	88.7962	574.219	89.6344	574.219	87.5308	574.219	88.5476	574.219	86.3581	574.219	87.3649	574.219	86.0063	574.219	86.4	574.219	86.7921	574.219	86.079	574.219	87.9179	574.219	86.4525	574.219	88.5652	574.219	86.9242	574.219	88.3483	574.219	86.828	574.219	87.0799	574.219	85.7739	574.219	84.6667	574.219	83.6027	574.219	81.3941	574.219	80.6411	574.219	79.3232	574.219	79.159	574.219	80.5349	574.219	80.7976	574.219	82.36	574.219	82.5924	574.219	83.1523
594.727	91.6844	594.727	91.5913	594.727	91.5772	594.727	91.2966	594.727	91.2859	594.727	90.8082	594.727	90.8448	594.727	90.1493	594.727	90.2747	594.727	89.3436	594.727	89.5599	594.727	88.3794	594.727	88.7084	594.727	87.2613	594.727	87.8577	594.727	86.1968	594.727	87.2446	594.727	85.5922	594.727	86.9671	594.727	85.5016	594.727	86.8523	594.727	85.4332	594.727	86.604	594.727	84.9444	594.727	85.9737	594.727	83.9787	594.727	84.8859	594.727	82.9547	594.727	83.5841	594.727	82.5369	594.727	82.6442	594.727	82.7415	594.727	82.4641	594.727	83.0143	594.727	82.7607	594.727	83.0279
615.234	92.6874	615.234	92.6044	615.234	92.61	615.234	92.327	615.234	92.3672	615.234	91.8027	615.234	91.9175	615.234	90.9888	615.234	91.2146	615.234	89.8972	615.234	90.2481	615.234	88.7071	615.234	89.0893	615.234	87.8568	615.234	87.9929	615.234	87.6917	615.234	87.4463	615.234	87.944	615.234	87.6395	615.234	88.108	615.234	88.0153	615.234	87.8603	615.234	87.9582	615.234	86.9542	615.234	87.2093	615.234	85.0685	615.234	85.7077	615.234	81.8445	615.234	83.5168	615.234	78.3596	615.234	81.3943	615.234	79.6722	615.234	81.2045	615.234	82.1994	615.234	82.4224	615.234	83.0413
637.207	93.34	637.207	93.1414	637.207	93.3354	637.207	92.7606	637.207	93.1006	637.207	92.2065	637.207	92.6281	637.207	91.4915	637.207	91.9387	637.207	90.6214	637.207	91.063	637.207	89.5811	637.207	90.032	637.207	88.4705	637.207	88.9658	637.207	87.7389	637.207	88.2276	637.207	87.7826	637.207	88.1558	637.207	88.0836	637.207	88.391	637.207	87.7525	637.207	88.1855	637.207	86.2149	637.207	87.0426	637.207	83.3136	637.207	84.807	637.207	80.8049	637.207	82.1362	637.207	82.0339	637.207	81.6548	637.207	84.0336	637.207	83.4236	637.207	85.1479	637.207	84.8909	637.207	85.4392
659.18	92.6853	659.18	92.5878	659.18	92.6358	659.18	92.3241	659.18	92.4625	659.18	91.893	659.18	92.1667	659.18	91.2771	659.18	91.721	659.18	90.412	659.18	91.0593	659.18	89.2348	659.18	90.0892	659.18	87.7899	659.18	88.766	659.18	86.3485	659.18	87.2373	659.18	85.4202	659.18	86.0196	659.18	85.3138	659.18	85.6722	659.18	85.6374	659.18	85.801	659.18	85.6376	659.18	85.4131	659.18	84.6396	659.18	83.8026	659.18	82.3197	659.18	80.9802	659.18	80.123	659.18	79.4596	659.18	80.781	659.18	80.7437	659.18	81.9365	659.18	81.8637	659.18	82.232
682.617	92.9204	682.617	92.9173	682.617	92.8129	682.617	92.7814	682.617	92.6239	682.617	92.4871	682.617	92.3594	682.617	91.9975	682.617	91.9325	682.617	91.2596	682.617	91.1607	682.617	90.2035	682.617	89.8971	682.617	88.8432	682.617	88.2784	682.617	87.6374	682.617	87.041	682.617	87.3983	682.617	86.9863	682.617	87.8152	682.617	87.56	682.617	87.867	682.617	87.7406	682.617	87.105	682.617	86.9923	682.617	85.3642	682.617	85.0165	682.617	82.2683	682.617	81.5155	682.617	77.9633	682.617	77.0097	682.617	79.6581	682.617	78.9274	682.617	83.6007	682.617	83.157	682.617	84.7683
707.52	92.6814	707.52	92.5439	707.52	92.5713	707.52	92.2277	707.52	92.2645	707.52	91.8509	707.52	91.8951	707.52	91.44	707.52	91.5056	707.52	90.8328	707.52	90.9389	707.52	89.7996	707.52	89.9956	707.52	88.2776	707.52	88.5954	707.52	86.5363	707.52	86.8702	707.52	85.1398	707.52	85.3648	707.52	84.5893	707.52	84.6024	707.52	84.6169	707.52	84.1003	707.52	84.1831	707.52	83.256	707.52	82.4285	707.52	81.8956	707.52	79.2756	707.52	79.5831	707.52	77.172	707.52	77.4725	707.52	78.8175	707.52	79.3348	707.52	80.9028	707.52	81.5003	707.52	81.946
732.422	91.7441	732.422	91.6547	732.422	91.7401	732.422	91.5028	732.422	91.5684	732.422	91.2421	732.422	91.1859	732.422	90.7767	732.422	90.6276	732.422	90.0856	732.422	89.9341	732.422	89.2796	732.422	89.0678	732.422	88.3995	732.422	88.0087	732.422	87.3811	732.422	86.8858	732.422	86.4419	732.422	85.9099	732.422	85.9183	732.422	85.345	732.422	85.5517	732.422	85.2452	732.422	84.7523	732.422	84.8114	732.422	82.7569	732.422	83.0734	732.422	78.5698	732.422	79.7738	732.422	75.5294	732.422	77.4087	732.422	78.9423	732.422	78.7412	732.422	80.9999	732.422	80.5376	732.422	81.4371
757.324	91.1358	757.324	91.1443	757.324	90.9932	757.324	91.0374	757.324	90.7511	757.324	90.8177	757.324	90.4262	757.324	90.4307	757.324	89.9508	757.324	89.8416	757.324	89.2748	757.324	88.9986	757.324	88.4309	757.324	87.6998	757.324	87.3604	757.324	85.8355	757.324	85.8968	757.324	84.1969	757.324	84.3178	757.324	84.1221	757.324	83.6632	757.324	84.6822	757.324	83.9962	757.324	84.3533	757.324	83.9948	757.324	82.9263	757.324	82.8325	757.324	81.2797	757.324	80.4028	757.324	80.4528	757.324	77.5208	757.324	81.4186	757.324	77.5831	757.324	82.8302	757.324	80.5192	757.324	82.5956
785.156	90.7291	785.156	90.4998	785.156	90.6543	785.156	89.9951	785.156	90.2351	785.156	89.3505	785.156	89.4845	785.156	88.8749	785.156	88.5346	785.156	88.6634	785.156	87.5663	785.156	88.3851	785.156	86.7433	785.156	87.9166	785.156	86.1217	785.156	87.6098	785.156	85.5241	785.156	87.3607	785.156	84.8822	785.156	86.4219	785.156	84.4919	785.156	84.9352	785.156	84.0093	785.156	84.0743	785.156	82.5119	785.156	82.9421	785.156	79.6172	785.156	80.1051	785.156	75.4003	785.156	75.7349	785.156	72.2964	785.156	70.2579	785.156	72.2473	785.156	64.356	785.156	71.7823	785.156	69.6734
811.523	91.2742	811.523	90.8756	811.523	91.3801	811.523	90.2193	811.523	91.1922	811.523	89.3549	811.523	90.7613	811.523	88.3335	811.523	90.0848	811.523	87.3027	811.523	89.0454	811.523	86.5839	811.523	87.6842	811.523	85.9632	811.523	86.3823	811.523	84.8763	811.523	85.2517	811.523	84.3015	811.523	84.1168	811.523	84.8385	811.523	83.6337	811.523	84.7218	811.523	84.0617	811.523	83.2915	811.523	84.0055	811.523	80.8495	811.523	82.6523	811.523	79.239	811.523	80.5348	811.523	79.9994	811.523	78.8358	811.523	80.8808	811.523	78.1868	811.523	81.4617	811.523	79.7093	811.523	81.29
840.82	91.5482	840.82	91.5546	840.82	91.2848	840.82	91.2849	840.82	90.8294	840.82	90.7992	840.82	90.1917	840.82	90.1885	840.82	89.3242	840.82	89.2624	840.82	88.26	840.82	87.6954	840.82	87.0867	840.82	86.1982	840.82	85.7914	840.82	85.5834	840.82	84.3098	840.82	84.3404	840.82	82.862	840.82	82.6734	840.82	82.3268	840.82	83.4253	840.82	83.0215	840.82	84.119	840.82	83.737	840.82	83.0379	840.82	83.344	840.82	80.2823	840.82	80.9278	840.82	74.0134	840.82	75.9309	840.82	70.8017	840.82	73.5195	840.82	76.8142	840.82	74.9322	840.82	76.7369
870.117	90.5543	870.117	90.1661	870.117	90.626	870.117	89.6564	870.117	90.258	870.117	89.1378	870.117	89.4294	870.117	88.4353	870.117	88.3546	870.117	87.5157	870.117	87.4371	870.117	86.6676	870.117	86.7794	870.117	85.4917	870.117	85.8866	870.117	83.1253	870.117	84.1936	870.117	81.1175	870.117	82.1812	870.117	81.8247	870.117	81.274	870.117	81.8713	870.117	81.19	870.117	81.1009	870.117	81.8166	870.117	80.4006	870.117	82.2196	870.117	77.3985	870.117	79.881	870.117	65.6031	870.117	72.2752	870.117	69.466	870.117	61.0207	870.117	73.5981	870.117	69.7956	870.117	73.2591
900.879	90.647	900.879	90.3391	900.879	90.5131	900.879	89.7502	900.879	90.1134	900.879	89.1206	900.879	89.8119	900.879	88.4623	900.879	89.5183	900.879	87.5839	900.879	88.8566	900.879	86.5026	900.879	88.0153	900.879	85.4054	900.879	87.4004	900.879	84.4921	900.879	86.7578	900.879	83.4928	900.879	85.8521	900.879	81.198	900.879	84.8032	900.879	79.6559	900.879	84.2807	900.879	80.5371	900.879	84.4687	900.879	78.3307	900.879	83.5346	900.879	71.8081	900.879	80.5352	900.879	63.7738	900.879	76.0723	900.879	71.2741	900.879	66.5174	900.879	77.4979	900.879	72.132	900.879	78.5814
933.105	91.8032	933.105	91.5581	933.105	91.7028	933.105	91.0889	933.105	91.38	933.105	90.6569	933.105	90.6897	933.105	90.128	933.105	89.5738	933.105	89.3601	933.105	88.6209	933.105	88.487	933.105	88.1166	933.105	87.5302	933.105	87.3617	933.105	85.9421	933.105	85.5698	933.105	83.8543	933.105	83.0517	933.105	83.9602	933.105	82.6406	933.105	84.7086	933.105	83.8303	933.105	85.1107	933.105	84.7841	933.105	85.7315	933.105	84.2875	933.105	84.5059	933.105	81.9479	933.105	80.8721	933.105	79.8176	933.105	79.6818	933.105	79.621	933.105	81.7069	933.105	81.6664	933.105	82.7217
965.332	91.318	965.332	91.1628	965.332	91.2691	965.332	90.7414	965.332	91.04	965.332	90.1342	965.332	90.6127	965.332	89.4944	965.332	89.9488	965.332	88.6067	965.332	89.0042	965.332	87.2128	965.332	87.8515	965.332	85.8166	965.332	86.6301	965.332	84.8783	965.332	85.6833	965.332	83.7917	965.332	84.6634	965.332	82.0638	965.332	83.3272	965.332	81.5012	965.332	83.8785	965.332	82.0262	965.332	84.3606	965.332	79.8204	965.332	82.6373	965.332	72.5865	965.332	80.0211	965.332	60.4669	965.332	76.3584	965.332	73.5417	965.332	64.0705	965.332	74.8529	965.332	71.9256	965.332	73.2525
1,000.49	91.6216	1,000.49	90.9952	1,000.49	91.7233	1,000.49	90.2112	1,000.49	91.2786	1,000.49	89.4547	1,000.49	90.6184	1,000.49	88.5716	1,000.49	89.8874	1,000.49	87.6329	1,000.49	88.91	1,000.49	86.7759	1,000.49	87.8616	1,000.49	85.4974	1,000.49	87.1601	1,000.49	83.513	1,000.49	86.2611	1,000.49	80.2004	1,000.49	84.6731	1,000.49	76.8229	1,000.49	82.1499	1,000.49	78.305	1,000.49	79.6814	1,000.49	78.7286	1,000.49	81.3032	1,000.49	78.3678	1,000.49	82.1272	1,000.49	75.8276	1,000.49	78.9189	1,000.49	58.1727	1,000.49	68.8653	1,000.49	74.362	1,000.49	66.9535	1,000.49	78.5195	1,000.49	73.4736	1,000.49	77.5654
1,035.64	90.7885	1,035.64	90.4768	1,035.64	90.8264	1,035.64	89.9886	1,035.64	90.6551	1,035.64	89.3651	1,035.64	90.3823	1,035.64	88.2445	1,035.64	89.863	1,035.64	86.9021	1,035.64	88.8342	1,035.64	86.2423	1,035.64	87.7929	1,035.64	85.7202	1,035.64	87.0453	1,035.64	84.5538	1,035.64	85.9901	1,035.64	82.8124	1,035.64	84.8051	1,035.64	80.5697	1,035.64	83.5527	1,035.64	78.8063	1,035.64	83.1135	1,035.64	79.884	1,035.64	83.4519	1,035.64	80.5862	1,035.64	83.1002	1,035.64	78.8268	1,035.64	81.5584	1,035.64	73.2015	1,035.64	77.5116	1,035.64	62.2115	1,035.64	72.9749	1,035.64	72.125	1,035.64	74.9125	1,035.64	75.4179
1,072.27	90.4841	1,072.27	90.1661	1,072.27	90.7649	1,072.27	89.5536	1,072.27	90.6393	1,072.27	88.5453	1,072.27	89.6409	1,072.27	87.3707	1,072.27	88.3559	1,072.27	85.9165	1,072.27	87.6924	1,072.27	84.4436	1,072.27	86.7824	1,072.27	83.2888	1,072.27	85.2635	1,072.27	82.3077	1,072.27	83.5168	1,072.27	81.2704	1,072.27	81.514	1,072.27	79.4406	1,072.27	80.6396	1,072.27	77.9886	1,072.27	79.8213	1,072.27	78.3141	1,072.27	79.8347	1,072.27	78.8675	1,072.27	79.7462	1,072.27	78.0995	1,072.27	77.087	1,072.27	73.5362	1,072.27	72.007	1,072.27	63.1522	1,072.27	66.9762	1,072.27	74.4358	1,072.27	75.8313	1,072.27	76.6105
1,108.89	90.0283	1,108.89	89.749	1,108.89	90.1194	1,108.89	89.3143	1,108.89	89.7778	1,108.89	88.2119	1,108.89	88.8989	1,108.89	86.6958	1,108.89	87.4325	1,108.89	85.8835	1,108.89	85.6317	1,108.89	85.059	1,108.89	83.6789	1,108.89	83.8737	1,108.89	82.0587	1,108.89	82.7752	1,108.89	82.1788	1,108.89	81.5635	1,108.89	82.6339	1,108.89	81.0881	1,108.89	82.0799	1,108.89	81.0993	1,108.89	81.4505	1,108.89	82.2938	1,108.89	80.7695	1,108.89	82.5696	1,108.89	81.081	1,108.89	81.3023	1,108.89	81.893	1,108.89	77.3033	1,108.89	78.5682	1,108.89	69.6366	1,108.89	68.7258	1,108.89	74.0782	1,108.89	69.782	1,108.89	74.9465
1,148.44	91.1504	1,148.44	91.0247	1,148.44	90.6115	1,148.44	90.2664	1,148.44	89.624	1,148.44	89.2404	1,148.44	88.5037	1,148.44	87.9574	1,148.44	87.2422	1,148.44	85.7805	1,148.44	85.2355	1,148.44	83.3017	1,148.44	84.2547	1,148.44	82.2274	1,148.44	84.3038	1,148.44	81.5107	1,148.44	82.6403	1,148.44	80.3499	1,148.44	80.7418	1,148.44	77.9604	1,148.44	79.8025	1,148.44	77.5847	1,148.44	78.5333	1,148.44	79.1382	1,148.44	81.233	1,148.44	78.994	1,148.44	81.8888	1,148.44	77.0483	1,148.44	78.9581	1,148.44	75.2337	1,148.44	77.218	1,148.44	71.5596	1,148.44	77.16	1,148.44	75.6096	1,148.44	78.8586	1,148.44	80.3022
1,189.45	92.3979	1,189.45	92.1198	1,189.45	92.0494	1,189.45	91.5323	1,189.45	91.45	1,189.45	90.9023	1,189.45	90.8245	1,189.45	89.8511	1,189.45	89.2495	1,189.45	88.205	1,189.45	87.0462	1,189.45	85.9577	1,189.45	85.6551	1,189.45	84.0273	1,189.45	84.3317	1,189.45	83.5448	1,189.45	83.3381	1,189.45	82.6192	1,189.45	82.1964	1,189.45	81.1226	1,189.45	79.1411	1,189.45	79.0826	1,189.45	75.866	1,189.45	80.5259	1,189.45	76.0272	1,189.45	81.0555	1,189.45	78.5149	1,189.45	79.7099	1,189.45	79.1607	1,189.45	75.8234	1,189.45	75.7598	1,189.45	61.5554	1,189.45	72.7901	1,189.45	74.652	1,189.45	80.8333	1,189.45	79.8819
1,230.47	93.3966	1,230.47	93.1463	1,230.47	93.2086	1,230.47	92.5172	1,230.47	92.8381	1,230.47	91.5505	1,230.47	92.1809	1,230.47	90.2934	1,230.47	90.9943	1,230.47	88.9697	1,230.47	89.8553	1,230.47	87.5268	1,230.47	88.2703	1,230.47	85.9375	1,230.47	85.5301	1,230.47	84.7444	1,230.47	82.4373	1,230.47	83.6135	1,230.47	81.1367	1,230.47	82.6288	1,230.47	81.5612	1,230.47	80.539	1,230.47	79.7426	1,230.47	77.884	1,230.47	78.5998	1,230.47	80.6086	1,230.47	79.4264	1,230.47	81.6243	1,230.47	78.5494	1,230.47	77.7326	1,230.47	69.6901	1,230.47	73.4977	1,230.47	66.683	1,230.47	77.7029	1,230.47	72.1567	1,230.47	77.7835
1,274.41	91.8775	1,274.41	91.8958	1,274.41	91.5248	1,274.41	91.351	1,274.41	90.8643	1,274.41	90.4375	1,274.41	90.2236	1,274.41	89.2308	1,274.41	89.8599	1,274.41	87.3509	1,274.41	89.0626	1,274.41	85.4888	1,274.41	87.7608	1,274.41	83.8568	1,274.41	86.0993	1,274.41	83.1696	1,274.41	83.7071	1,274.41	83.0394	1,274.41	83.3658	1,274.41	83.5889	1,274.41	82.1016	1,274.41	82.4604	1,274.41	78.0042	1,274.41	81.769	1,274.41	75.0591	1,274.41	82.7814	1,274.41	76.8867	1,274.41	81.055	1,274.41	76.8689	1,274.41	76.9101	1,274.41	73.5125	1,274.41	68.1046	1,274.41	65.224	1,274.41	73.3306	1,274.41	75.3388	1,274.41	75.8366
1,319.82	90.6885	1,319.82	90.4257	1,319.82	90.21	1,319.82	89.2729	1,319.82	89.8947	1,319.82	88.0348	1,319.82	89.3867	1,319.82	87.3673	1,319.82	88.1508	1,319.82	86.0139	1,319.82	86.858	1,319.82	84.4726	1,319.82	85.4869	1,319.82	83.2823	1,319.82	83.5827	1,319.82	81.6059	1,319.82	81.7533	1,319.82	83.0979	1,319.82	79.5292	1,319.82	82.1736	1,319.82	78.1655	1,319.82	77.7407	1,319.82	75.5867	1,319.82	74.626	1,319.82	73.5523	1,319.82	69.3345	1,319.82	75.5866	1,319.82	75.4653	1,319.82	76.306	1,319.82	75.8964	1,319.82	69.1725	1,319.82	68.9699	1,319.82	74.0036	1,319.82	75.9717	1,319.82	75.4461	1,319.82	73.6119
1,366.7	89.8354	1,366.7	89.1542	1,366.7	89.433	1,366.7	88.4622	1,366.7	88.0598	1,366.7	88.8275	1,366.7	85.8728	1,366.7	87.8142	1,366.7	85.4665	1,366.7	85.8686	1,366.7	86.2768	1,366.7	84.8322	1,366.7	85.3609	1,366.7	82.876	1,366.7	83.6764	1,366.7	81.5395	1,366.7	82.4473	1,366.7	81.455	1,366.7	82.4823	1,366.7	77.4855	1,366.7	82.6612	1,366.7	72.6361	1,366.7	79.6645	1,366.7	75.219	1,366.7	79.4786	1,366.7	79.4494	1,366.7	76.559	1,366.7	78.5936	1,366.7	76.5011	1,366.7	75.7949	1,366.7	78.0104	1,366.7	79.544	1,366.7	78.493	1,366.7	75.8721	1,366.7	71.186	1,366.7	68.8393
1,413.57	91.2624	1,413.57	91.0246	1,413.57	91.2323	1,413.57	90.5554	1,413.57	90.7976	1,413.57	88.7964	1,413.57	90.1268	1,413.57	87.5202	1,413.57	88.9148	1,413.57	86.9046	1,413.57	86.5461	1,413.57	84.0436	1,413.57	84.7207	1,413.57	82.9183	1,413.57	83.5566	1,413.57	80.1488	1,413.57	82.5666	1,413.57	76.8059	1,413.57	81.5375	1,413.57	76.1306	1,413.57	79.0938	1,413.57	80.7797	1,413.57	79.0881	1,413.57	81.6579	1,413.57	77.0181	1,413.57	78.6132	1,413.57	78.4941	1,413.57	78.0443	1,413.57	77.2399	1,413.57	75.1051	1,413.57	74.8923	1,413.57	67.0707	1,413.57	70.3201	1,413.57	75.5265	1,413.57	73.5089	1,413.57	74.1929
1,463.38	92.1998	1,463.38	91.8866	1,463.38	91.5233	1,463.38	91.111	1,463.38	90.5197	1,463.38	90.5028	1,463.38	89.5843	1,463.38	88.8586	1,463.38	88.5063	1,463.38	87.6828	1,463.38	87.3597	1,463.38	85.7636	1,463.38	86.8101	1,463.38	83.9206	1,463.38	85.7395	1,463.38	82.9091	1,463.38	83.7563	1,463.38	80.9646	1,463.38	81.1722	1,463.38	78.5001	1,463.38	79.0589	1,463.38	78.8986	1,463.38	76.2234	1,463.38	80.3926	1,463.38	78.0776	1,463.38	80.5474	1,463.38	79.6277	1,463.38	78.4315	1,463.38	79.0021	1,463.38	77.1607	1,463.38	78.2576	1,463.38	71.8331	1,463.38	73.2232	1,463.38	66.7002	1,463.38	71.2267	1,463.38	72.5635
1,516.11	93.3212	1,516.11	92.6447	1,516.11	93.1072	1,516.11	91.8404	1,516.11	92.7317	1,516.11	90.7327	1,516.11	91.5719	1,516.11	89.5984	1,516.11	89.9401	1,516.11	87.8243	1,516.11	89.0422	1,516.11	86.4266	1,516.11	86.9049	1,516.11	86.0658	1,516.11	85.4136	1,516.11	83.1873	1,516.11	85.0984	1,516.11	82.1957	1,516.11	86.0577	1,516.11	78.9653	1,516.11	82.6337	1,516.11	78.1111	1,516.11	78.1306	1,516.11	78.9804	1,516.11	81.3904	1,516.11	75.7049	1,516.11	80.541	1,516.11	78.3674	1,516.11	77.9067	1,516.11	77.5916	1,516.11	74.0734	1,516.11	72.8802	1,516.11	70.0653	1,516.11	77.1823	1,516.11	76.0938	1,516.11	77.8762
1,568.85	91.8474	1,568.85	91.2544	1,568.85	91.8173	1,568.85	90.8337	1,568.85	90.7943	1,568.85	89.5065	1,568.85	89.9949	1,568.85	88.2223	1,568.85	88.5532	1,568.85	86.172	1,568.85	86.8238	1,568.85	85.3896	1,568.85	85.3352	1,568.85	83.6634	1,568.85	83.0605	1,568.85	82.5723	1,568.85	81.2283	1,568.85	80.3977	1,568.85	80.0543	1,568.85	78.7141	1,568.85	79.0371	1,568.85	75.4734	1,568.85	78.9024	1,568.85	74.489	1,568.85	78.9191	1,568.85	79.99	1,568.85	77.0841	1,568.85	79.7557	1,568.85	79.7071	1,568.85	76.8236	1,568.85	78.652	1,568.85	70.2934	1,568.85	73.8414	1,568.85	69.7548	1,568.85	69.087	1,568.85	74.5312
1,624.51	91.5394	1,624.51	90.8378	1,624.51	91.6206	1,624.51	90.8426	1,624.51	90.2663	1,624.51	89.5902	1,624.51	89.5314	1,624.51	87.4394	1,624.51	87.3048	1,624.51	87.0187	1,624.51	86.0594	1,624.51	85.2709	1,624.51	85.3108	1,624.51	83.7015	1,624.51	84.7349	1,624.51	82.2187	1,624.51	80.9636	1,624.51	80.7222	1,624.51	82.1572	1,624.51	77.3158	1,624.51	81.7674	1,624.51	77.4164	1,624.51	80.3547	1,624.51	75.0982	1,624.51	79.1211	1,624.51	73.5612	1,624.51	78.8152	1,624.51	78.7745	1,624.51	77.3775	1,624.51	78.2832	1,624.51	76.9912	1,624.51	70.299	1,624.51	52.7506	1,624.51	74.4485	1,624.51	76.4749	1,624.51	76.9764
1,681.64	91.9668	1,681.64	91.4673	1,681.64	91.9069	1,681.64	90.7261	1,681.64	91.3903	1,681.64	89.3857	1,681.64	90.4871	1,681.64	87.6989	1,681.64	88.9252	1,681.64	86.1682	1,681.64	87.3039	1,681.64	84.8187	1,681.64	86.0262	1,681.64	83.0322	1,681.64	84.9052	1,681.64	81.0436	1,681.64	82.5292	1,681.64	79.7981	1,681.64	81.2224	1,681.64	78.9258	1,681.64	80.2785	1,681.64	77.8157	1,681.64	78.5845	1,681.64	76.5974	1,681.64	77.2564	1,681.64	75.2126	1,681.64	76.3784	1,681.64	78.4754	1,681.64	76.7883	1,681.64	77.3947	1,681.64	78.8523	1,681.64	72.8555	1,681.64	73.856	1,681.64	71.0134	1,681.64	65.0326	1,681.64	70.9352
1,741.7	92.8277	1,741.7	92.5117	1,741.7	92.6592	1,741.7	91.5774	1,741.7	92.0176	1,741.7	90.386	1,741.7	91.0121	1,741.7	88.7547	1,741.7	89.7646	1,741.7	86.9794	1,741.7	88.2552	1,741.7	85.6784	1,741.7	86.7959	1,741.7	83.8489	1,741.7	85.0661	1,741.7	81.5726	1,741.7	83.4585	1,741.7	80.7058	1,741.7	82.0793	1,741.7	78.9975	1,741.7	80.8433	1,741.7	77.581	1,741.7	78.3711	1,741.7	76.1045	1,741.7	78.272	1,741.7	74.1945	1,741.7	77.524	1,741.7	76.9232	1,741.7	78.6631	1,741.7	78.1041	1,741.7	77.9977	1,741.7	71.7504	1,741.7	75.6842	1,741.7	73.7086	1,741.7	73.4411	1,741.7	75.6257
1,803.22	92.8215	1,803.22	92.5371	1,803.22	92.6371	1,803.22	92.0188	1,803.22	92.0785	1,803.22	90.9068	1,803.22	91.0178	1,803.22	89.5962	1,803.22	89.6754	1,803.22	87.8402	1,803.22	87.8058	1,803.22	85.8673	1,803.22	86.0906	1,803.22	84.441	1,803.22	84.4935	1,803.22	83.1756	1,803.22	82.9267	1,803.22	81.4666	1,803.22	81.3353	1,803.22	80.0171	1,803.22	80.2759	1,803.22	77.9332	1,803.22	79.8281	1,803.22	79.334	1,803.22	77.7108	1,803.22	76.9514	1,803.22	75.6514	1,803.22	76.5808	1,803.22	77.1174	1,803.22	77.3396	1,803.22	78.2627	1,803.22	76.3709	1,803.22	73.8703	1,803.22	72.4665	1,803.22	70.3136	1,803.22	69.9012
1,866.21	91.3317	1,866.21	91.1646	1,866.21	91.3096	1,866.21	90.5889	1,866.21	90.4864	1,866.21	89.6255	1,866.21	89.6389	1,866.21	88.4817	1,866.21	88.2752	1,866.21	86.909	1,866.21	86.9315	1,866.21	85.4702	1,866.21	85.3398	1,866.21	84.1776	1,866.21	84.318	1,866.21	81.6263	1,866.21	81.7747	1,866.21	79.9575	1,866.21	79.2289	1,866.21	80.1057	1,866.21	79.6658	1,866.21	77.3547	1,866.21	76.3904	1,866.21	76.9132	1,866.21	77.9066	1,866.21	75.7873	1,866.21	74.8033	1,866.21	78.1811	1,866.21	75.2712	1,866.21	77.9054	1,866.21	77.0867	1,866.21	67.7461	1,866.21	71.5983	1,866.21	74.9216	1,866.21	73.359	1,866.21	76.7657
1,932.13	91.4227	1,932.13	90.8748	1,932.13	90.9862	1,932.13	90.023	1,932.13	90.5947	1,932.13	88.9747	1,932.13	89.2694	1,932.13	87.7519	1,932.13	88.3415	1,932.13	86.4071	1,932.13	86.9402	1,932.13	84.7547	1,932.13	84.9238	1,932.13	82.508	1,932.13	82.5603	1,932.13	81.8074	1,932.13	81.2877	1,932.13	80.4297	1,932.13	79.8819	1,932.13	78.3858	1,932.13	78.0867	1,932.13	77.9738	1,932.13	77.7974	1,932.13	76.4571	1,932.13	72.1332	1,932.13	76.5466	1,932.13	76.9031	1,932.13	73.7249	1,932.13	73.6502	1,932.13	75.391	1,932.13	75.5145	1,932.13	74.79	1,932.13	73.1625	1,932.13	68.9936	1,932.13	62.1401	1,932.13	70.0194
1,999.51	91.6316	1,999.51	91.3897	1,999.51	91.7177	1,999.51	90.7054	1,999.51	91.021	1,999.51	89.6631	1,999.51	90.2837	1,999.51	88.3686	1,999.51	88.8983	1,999.51	86.7814	1,999.51	87.2286	1,999.51	85.2307	1,999.51	85.599	1,999.51	83.4626	1,999.51	84.3324	1,999.51	81.1153	1,999.51	82.6477	1,999.51	77.6614	1,999.51	80.0416	1,999.51	78.4338	1,999.51	79.8768	1,999.51	75.801	1,999.51	77.0075	1,999.51	76.136	1,999.51	78.2925	1,999.51	75.6697	1,999.51	76.0394	1,999.51	76.1806	1,999.51	77.216	1,999.51	77.4351	1,999.51	78.5854	1,999.51	71.3534	1,999.51	75.077	1,999.51	71.5449	1,999.51	71.6189	1,999.51	76.032
2,069.82	91.8855	2,069.82	91.6615	2,069.82	91.4391	2,069.82	91.0928	2,069.82	90.8909	2,069.82	90.4567	2,069.82	89.825	2,069.82	89.2157	2,069.82	88.8024	2,069.82	87.8864	2,069.82	87.375	2,069.82	85.7171	2,069.82	85.4757	2,069.82	84.2236	2,069.82	83.6268	2,069.82	81.8023	2,069.82	82.0103	2,069.82	80.001	2,069.82	79.1285	2,069.82	78.7149	2,069.82	78.2325	2,069.82	76.8072	2,069.82	77.8273	2,069.82	73.7516	2,069.82	75.3727	2,069.82	75.7572	2,069.82	76.8951	2,069.82	76.4798	2,069.82	75.3903	2,069.82	78.356	2,069.82	76.4354	2,069.82	72.0073	2,069.82	72.562	2,069.82	65.4001	2,069.82	69.3618	2,069.82	74.1058
2,143.07	90.0588	2,143.07	90.1822	2,143.07	89.9732	2,143.07	90.0062	2,143.07	89.5328	2,143.07	89.2713	2,143.07	88.6592	2,143.07	88.212	2,143.07	87.362	2,143.07	86.9208	2,143.07	86.008	2,143.07	85.52	2,143.07	84.3636	2,143.07	83.7778	2,143.07	81.8013	2,143.07	82.9904	2,143.07	80.8621	2,143.07	79.6149	2,143.07	78.8993	2,143.07	78.3905	2,143.07	76.4146	2,143.07	78.0525	2,143.07	77.2564	2,143.07	75.8081	2,143.07	71.4536	2,143.07	75.442	2,143.07	74.8246	2,143.07	74.3143	2,143.07	71.8652	2,143.07	74.8214	2,143.07	74.8306	2,143.07	74.3649	2,143.07	73.4295	2,143.07	73.4517	2,143.07	69.861	2,143.07	72.4198
2,219.24	89.643	2,219.24	89.4367	2,219.24	89.2608	2,219.24	89.1945	2,219.24	88.9996	2,219.24	88.3688	2,219.24	88.3833	2,219.24	87.0324	2,219.24	87.4682	2,219.24	85.5816	2,219.24	86.0225	2,219.24	83.6763	2,219.24	83.9123	2,219.24	81.4289	2,219.24	82.6012	2,219.24	79.2541	2,219.24	79.8845	2,219.24	77.8223	2,219.24	77.1369	2,219.24	74.7729	2,219.24	74.1721	2,219.24	73.3148	2,219.24	72.661	2,219.24	72.0453	2,219.24	73.1771	2,219.24	75.9889	2,219.24	73.1221	2,219.24	73.2542	2,219.24	72.1146	2,219.24	76.9912	2,219.24	73.2814	2,219.24	70.1012	2,219.24	72.8179	2,219.24	66.9429	2,219.24	68.7953	2,219.24	74.1744
2,296.88	90.9477	2,296.88	90.9774	2,296.88	90.8125	2,296.88	90.4271	2,296.88	90.0586	2,296.88	89.8259	2,296.88	89.3153	2,296.88	88.8069	2,296.88	88.3503	2,296.88	86.9994	2,296.88	86.7426	2,296.88	85.1121	2,296.88	85.0688	2,296.88	82.522	2,296.88	81.7176	2,296.88	81.0567	2,296.88	80.7881	2,296.88	78.5046	2,296.88	79.3112	2,296.88	74.9972	2,296.88	75.6974	2,296.88	76.1409	2,296.88	76.6862	2,296.88	70.6679	2,296.88	69.0199	2,296.88	73.5315	2,296.88	75.0259	2,296.88	71.0399	2,296.88	73.2809	2,296.88	72.5871	2,296.88	74.7235	2,296.88	73.0733	2,296.88	71.2599	2,296.88	66.4324	2,296.88	67.943	2,296.88	72.6153
2,378.91	91.0347	2,378.91	91.1327	2,378.91	90.3371	2,378.91	91.2072	2,378.91	89.7738	2,378.91	90.6503	2,378.91	88.8881	2,378.91	89.827	2,378.91	87.6163	2,378.91	88.6201	2,378.91	85.9456	2,378.91	86.589	2,378.91	83.4461	2,378.91	84.3498	2,378.91	82.4929	2,378.91	81.4451	2,378.91	78.3415	2,378.91	80.1812	2,378.91	76.76	2,378.91	77.7453	2,378.91	73.6202	2,378.91	74.7093	2,378.91	70.5622	2,378.91	71.7591	2,378.91	71.8239	2,378.91	75.4376	2,378.91	70.778	2,378.91	75.0747	2,378.91	73.7077	2,378.91	75.7246	2,378.91	73.5101	2,378.91	74.0487	2,378.91	72.5502	2,378.91	73.0812	2,378.91	69.3697	2,378.91	72.119
2,462.4	90.6531	2,462.4	90.7911	2,462.4	90.6068	2,462.4	90.2046	2,462.4	89.8471	2,462.4	89.8681	2,462.4	89.1982	2,462.4	88.9406	2,462.4	88.2621	2,462.4	87.5702	2,462.4	87.0141	2,462.4	85.8581	2,462.4	85.1935	2,462.4	84.181	2,462.4	81.4958	2,462.4	82.2458	2,462.4	80.5567	2,462.4	79.944	2,462.4	78.5826	2,462.4	78.424	2,462.4	75.0807	2,462.4	77.6064	2,462.4	74.8603	2,462.4	74.9862	2,462.4	69.6079	2,462.4	75.0169	2,462.4	72.1579	2,462.4	74.7253	2,462.4	70.5576	2,462.4	75.5774	2,462.4	67.9585	2,462.4	71.7766	2,462.4	72.3096	2,462.4	70.9946	2,462.4	66.1445	2,462.4	75.1091
2,548.83	90.6709	2,548.83	90.6398	2,548.83	90.4486	2,548.83	90.7906	2,548.83	90.7344	2,548.83	90.1562	2,548.83	90.1494	2,548.83	89.0014	2,548.83	89.01	2,548.83	87.8035	2,548.83	87.5446	2,548.83	85.8911	2,548.83	85.7375	2,548.83	83.0423	2,548.83	84.0598	2,548.83	80.4176	2,548.83	80.3279	2,548.83	78.424	2,548.83	78.4171	2,548.83	75.7352	2,548.83	76.3965	2,548.83	74.799	2,548.83	72.2623	2,548.83	70.4117	2,548.83	74.1482	2,548.83	75.1496	2,548.83	72.9324	2,548.83	74.702	2,548.83	76.1971	2,548.83	74.2735	2,548.83	74.9379	2,548.83	72.6878	2,548.83	72.3049	2,548.83	69.441	2,548.83	68.7356	2,548.83	72.0255
2,639.65	89.9655	2,639.65	90.2671	2,639.65	89.9235	2,639.65	90.1091	2,639.65	89.648	2,639.65	89.9696	2,639.65	89.2884	2,639.65	88.9342	2,639.65	88.0184	2,639.65	87.5133	2,639.65	86.4213	2,639.65	85.4532	2,639.65	84.455	2,639.65	83.6486	2,639.65	81.4906	2,639.65	81.3282	2,639.65	79.5195	2,639.65	78.9626	2,639.65	77.3931	2,639.65	76.1062	2,639.65	73.7415	2,639.65	74.9804	2,639.65	72.9202	2,639.65	73.7992	2,639.65	69.9476	2,639.65	70.1464	2,639.65	67.1636	2,639.65	74.7397	2,639.65	71.444	2,639.65	75.8341	2,639.65	71.5913	2,639.65	73.6859	2,639.65	73.8336	2,639.65	68.4148	2,639.65	63.6022	2,639.65	71.3285
2,731.93	89.8393	2,731.93	89.9451	2,731.93	89.7079	2,731.93	90.3089	2,731.93	90.0635	2,731.93	90.0934	2,731.93	89.8034	2,731.93	89.1252	2,731.93	88.9115	2,731.93	87.2437	2,731.93	86.7999	2,731.93	85.6298	2,731.93	84.7788	2,731.93	82.8742	2,731.93	82.8714	2,731.93	80.3659	2,731.93	79.8093	2,731.93	78.2601	2,731.93	77.0471	2,731.93	77.0404	2,731.93	75.9283	2,731.93	72.5735	2,731.93	71.2323	2,731.93	72.1605	2,731.93	73.4092	2,731.93	72.7736	2,731.93	65.7348	2,731.93	72.1997	2,731.93	74.5244	2,731.93	70.9597	2,731.93	71.2416	2,731.93	73.6241	2,731.93	73.1676	2,731.93	70.9212	2,731.93	65.76	2,731.93	70.071
2,828.61	89.8798	2,828.61	90.152	2,828.61	89.9967	2,828.61	90.3083	2,828.61	89.8995	2,828.61	90.1258	2,828.61	89.8644	2,828.61	89.3504	2,828.61	89.1583	2,828.61	87.7366	2,828.61	87.3818	2,828.61	85.393	2,828.61	85.3084	2,828.61	82.9529	2,828.61	82.8559	2,828.61	81.3286	2,828.61	80.1576	2,828.61	78.1579	2,828.61	78.3492	2,828.61	75.3943	2,828.61	75.2034	2,828.61	75.2303	2,828.61	74.1087	2,828.61	74.9355	2,828.61	73.457	2,828.61	70.1335	2,828.61	70.6571	2,828.61	75.122	2,828.61	71.8541	2,828.61	74.0501	2,828.61	71.3504	2,828.61	71.9647	2,828.61	73.3663	2,828.61	67.673	2,828.61	68.6986	2,828.61	72.9918
2,928.22	89.2123	2,928.22	89.3705	2,928.22	89.0053	2,928.22	89.5537	2,928.22	89.2547	2,928.22	89.7883	2,928.22	88.99	2,928.22	89.0793	2,928.22	88.0203	2,928.22	87.1528	2,928.22	86.6421	2,928.22	85.1725	2,928.22	83.9465	2,928.22	83.2422	2,928.22	81.8269	2,928.22	79.882	2,928.22	80.1608	2,928.22	78.6492	2,928.22	76.068	2,928.22	76.6298	2,928.22	74.0577	2,928.22	72.5255	2,928.22	72.1424	2,928.22	72.1374	2,928.22	68.7034	2,928.22	70.5201	2,928.22	68.9602	2,928.22	72.4462	2,928.22	73.1664	2,928.22	71.8122	2,928.22	71.5972	2,928.22	73.7636	2,928.22	72.6976	2,928.22	69.6297	2,928.22	68.0861	2,928.22	72.5811
3,030.76	88.518	3,030.76	88.9366	3,030.76	89.1593	3,030.76	89.5208	3,030.76	89.573	3,030.76	89.2766	3,030.76	89.2943	3,030.76	88.4145	3,030.76	88.5968	3,030.76	86.9139	3,030.76	86.3671	3,030.76	84.516	3,030.76	84.4876	3,030.76	82.4564	3,030.76	81.9227	3,030.76	80.3731	3,030.76	78.8305	3,030.76	77.507	3,030.76	78.0052	3,030.76	75.4825	3,030.76	74.7602	3,030.76	74.8565	3,030.76	73.4211	3,030.76	73.9147	3,030.76	72.0407	3,030.76	70.8658	3,030.76	71.1032	3,030.76	74.4828	3,030.76	70.6147	3,030.76	73.5974	3,030.76	70.6558	3,030.76	71.9672	3,030.76	71.9883	3,030.76	68.2888	3,030.76	67.6594	3,030.76	69.4578
3,137.7	88.8587	3,137.7	88.9115	3,137.7	88.9817	3,137.7	88.6942	3,137.7	89.4225	3,137.7	88.7766	3,137.7	89.4155	3,137.7	88.2006	3,137.7	88.5946	3,137.7	86.7558	3,137.7	87.473	3,137.7	84.7435	3,137.7	85.3781	3,137.7	82.5367	3,137.7	83.1453	3,137.7	79.92	3,137.7	81.0208	3,137.7	77.8971	3,137.7	78.0891	3,137.7	75.1453	3,137.7	75.7383	3,137.7	73.2126	3,137.7	74.6049	3,137.7	72.4396	3,137.7	71.1317	3,137.7	72.1618	3,137.7	72.2966	3,137.7	72.8532	3,137.7	70.9764	3,137.7	71.271	3,137.7	73.3478	3,137.7	74.2043	3,137.7	73.8317	3,137.7	66.5923	3,137.7	67.6261	3,137.7	72.2399
3,249.02	88.5458	3,249.02	88.2038	3,249.02	88.858	3,249.02	88.5119	3,249.02	89.6013	3,249.02	88.4662	3,249.02	89.5386	3,249.02	87.351	3,249.02	88.5931	3,249.02	85.8752	3,249.02	87.0983	3,249.02	83.899	3,249.02	85.377	3,249.02	81.7478	3,249.02	83.2948	3,249.02	80.0633	3,249.02	81.186	3,249.02	78.2486	3,249.02	78.0464	3,249.02	76.3319	3,249.02	76.0511	3,249.02	74.6434	3,249.02	73.8358	3,249.02	73.421	3,249.02	72.028	3,249.02	73.0532	3,249.02	72.201	3,249.02	73.9944	3,249.02	71.2121	3,249.02	73.5283	3,249.02	71.6944	3,249.02	73.9135	3,249.02	73.1658	3,249.02	69.0454	3,249.02	68.6896	3,249.02	68.5123
3,363.28	88.9899	3,363.28	88.8772	3,363.28	89.6346	3,363.28	88.4333	3,363.28	89.716	3,363.28	88.4747	3,363.28	89.7585	3,363.28	87.3515	3,363.28	89.3668	3,363.28	85.9009	3,363.28	87.4849	3,363.28	83.7727	3,363.28	86.3152	3,363.28	82.1818	3,363.28	83.9896	3,363.28	79.7938	3,363.28	81.9895	3,363.28	77.9277	3,363.28	80.1012	3,363.28	75.2932	3,363.28	76.9634	3,363.28	74.1732	3,363.28	76.1369	3,363.28	71.1365	3,363.28	73.0954	3,363.28	73.901	3,363.28	74.058	3,363.28	73.6989	3,363.28	72.5433	3,363.28	73.4081	3,363.28	74.1925	3,363.28	74.0351	3,363.28	74.5457	3,363.28	63.7414	3,363.28	67.5875	3,363.28	70.7556
3,481.93	90.2876	3,481.93	89.7844	3,481.93	90.1478	3,481.93	88.5497	3,481.93	90.0797	3,481.93	88.196	3,481.93	89.8264	3,481.93	87.6825	3,481.93	89.4022	3,481.93	86.0549	3,481.93	88.2559	3,481.93	84.3183	3,481.93	86.6999	3,481.93	82.4256	3,481.93	84.7259	3,481.93	80.1605	3,481.93	82.4443	3,481.93	78.9736	3,481.93	79.6162	3,481.93	75.7392	3,481.93	77.6158	3,481.93	74.531	3,481.93	76.0031	3,481.93	71.2393	3,481.93	71.1599	3,481.93	72.7013	3,481.93	74.1053	3,481.93	73.9924	3,481.93	72.1987	3,481.93	73.2616	3,481.93	74.2825	3,481.93	75.0506	3,481.93	75.7643	3,481.93	69.1689	3,481.93	71.0375	3,481.93	69.7695
3,604.98	90.6073	3,604.98	89.5564	3,604.98	90.3045	3,604.98	88.8007	3,604.98	90.1009	3,604.98	88.0046	3,604.98	89.6625	3,604.98	87.2081	3,604.98	88.7875	3,604.98	85.6425	3,604.98	87.8584	3,604.98	84.4308	3,604.98	86.1934	3,604.98	81.9558	3,604.98	84.244	3,604.98	80.6326	3,604.98	81.3742	3,604.98	78.0036	3,604.98	79.2835	3,604.98	76.9552	3,604.98	77.1016	3,604.98	74.9332	3,604.98	75.0663	3,604.98	73.6837	3,604.98	73.2834	3,604.98	73.9491	3,604.98	73.2372	3,604.98	71.5031	3,604.98	70.6653	3,604.98	75.3318	3,604.98	74.1859	3,604.98	74.0067	3,604.98	74.24	3,604.98	68.5699	3,604.98	70.338	3,604.98	67.8101
3,732.42	91.092	3,732.42	90.3439	3,732.42	90.971	3,732.42	89.0954	3,732.42	90.3399	3,732.42	88.1988	3,732.42	89.8364	3,732.42	87.0766	3,732.42	89.1496	3,732.42	85.7997	3,732.42	87.9313	3,732.42	84.5312	3,732.42	86.5702	3,732.42	82.3379	3,732.42	84.415	3,732.42	80.3116	3,732.42	82.5236	3,732.42	77.2381	3,732.42	80.2287	3,732.42	75.6572	3,732.42	77.1396	3,732.42	72.9274	3,732.42	75.9627	3,732.42	70.5589	3,732.42	73.3241	3,732.42	73.4949	3,732.42	73.9171	3,732.42	71.7413	3,732.42	72.6471	3,732.42	74.3582	3,732.42	74.7134	3,732.42	73.9195	3,732.42	74.6758	3,732.42	67.4099	3,732.42	70.1681	3,732.42	67.6966
3,864.26	91.2607	3,864.26	90.5045	3,864.26	90.9573	3,864.26	88.5687	3,864.26	89.878	3,864.26	87.368	3,864.26	89.2274	3,864.26	86.438	3,864.26	88.7869	3,864.26	85.9113	3,864.26	87.9951	3,864.26	84.286	3,864.26	86.8296	3,864.26	82.4412	3,864.26	84.5756	3,864.26	80.519	3,864.26	82.6908	3,864.26	78.3165	3,864.26	79.5861	3,864.26	76.0476	3,864.26	77.2809	3,864.26	73.8217	3,864.26	75.9898	3,864.26	72.5574	3,864.26	72.5016	3,864.26	73.1181	3,864.26	71.6071	3,864.26	72.3	3,864.26	72.2448	3,864.26	74.1713	3,864.26	74.655	3,864.26	73.952	3,864.26	74.4187	3,864.26	69.623	3,864.26	70.8342	3,864.26	70.0649
4,000.49	91.6069	4,000.49	90.6722	4,000.49	91.0359	4,000.49	88.4811	4,000.49	89.8573	4,000.49	87.2145	4,000.49	88.8004	4,000.49	86.2885	4,000.49	88.5667	4,000.49	85.5755	4,000.49	87.7182	4,000.49	83.9495	4,000.49	86.3243	4,000.49	81.5102	4,000.49	84.4528	4,000.49	78.9571	4,000.49	82.3422	4,000.49	77.5468	4,000.49	79.6586	4,000.49	74.8677	4,000.49	77.4072	4,000.49	72.769	4,000.49	75.4587	4,000.49	73.0032	4,000.49	74.2552	4,000.49	72.3222	4,000.49	71.8403	4,000.49	69.5874	4,000.49	69.6896	4,000.49	74.9402	4,000.49	75.7828	4,000.49	73.5403	4,000.49	72.5746	4,000.49	69.2304	4,000.49	70.5248	4,000.49	67.2903
4,141.11	91.8627	4,141.11	90.5246	4,141.11	91.2173	4,141.11	88.5451	4,141.11	89.701	4,141.11	87.3956	4,141.11	88.9233	4,141.11	87.1774	4,141.11	88.5633	4,141.11	86.1999	4,141.11	88.0167	4,141.11	84.6804	4,141.11	86.5843	4,141.11	82.199	4,141.11	84.6932	4,141.11	80.4226	4,141.11	81.9418	4,141.11	77.8273	4,141.11	79.2226	4,141.11	75.357	4,141.11	76.7734	4,141.11	72.7359	4,141.11	75.0403	4,141.11	71.043	4,141.11	73.9828	4,141.11	71.7302	4,141.11	70.7807	4,141.11	68.2554	4,141.11	70.4114	4,141.11	75.2236	4,141.11	74.7132	4,141.11	72.4678	4,141.11	72.4938	4,141.11	68.5326	4,141.11	70.2462	4,141.11	66.4222
4,287.6	91.7569	4,287.6	90.659	4,287.6	90.9571	4,287.6	89.0819	4,287.6	89.002	4,287.6	88.4156	4,287.6	88.6077	4,287.6	88.405	4,287.6	87.9972	4,287.6	87.6582	4,287.6	87.747	4,287.6	85.4303	4,287.6	86.6797	4,287.6	82.4276	4,287.6	84.5559	4,287.6	79.3929	4,287.6	81.5893	4,287.6	76.568	4,287.6	78.877	4,287.6	74.7169	4,287.6	76.2882	4,287.6	71.1398	4,287.6	73.798	4,287.6	71.3895	4,287.6	72.9737	4,287.6	69.8017	4,287.6	72.3518	4,287.6	67.4115	4,287.6	73.0463	4,287.6	73.3837	4,287.6	74.9701	4,287.6	71.0143	4,287.6	73.3631	4,287.6	72.1018	4,287.6	71.9011	4,287.6	67.6668
4,438.48	91.8917	4,438.48	90.8435	4,438.48	90.9728	4,438.48	88.8977	4,438.48	89.3375	4,438.48	88.3848	4,438.48	88.4192	4,438.48	88.4401	4,438.48	88.5382	4,438.48	87.654	4,438.48	88.2367	4,438.48	86.0767	4,438.48	86.9496	4,438.48	83.5872	4,438.48	84.8737	4,438.48	81.9112	4,438.48	82.427	4,438.48	79.0737	4,438.48	79.8506	4,438.48	76.2989	4,438.48	76.8304	4,438.48	73.2163	4,438.48	75.239	4,438.48	71.1267	4,438.48	72.2003	4,438.48	72.2663	4,438.48	73.0872	4,438.48	70.2644	4,438.48	71.8088	4,438.48	74.3701	4,438.48	74.7616	4,438.48	72.7961	4,438.48	74.0357	4,438.48	69.1236	4,438.48	73.2348	4,438.48	67.9232
4,595.21	91.9966	4,595.21	91.0759	4,595.21	90.7138	4,595.21	89.7147	4,595.21	88.582	4,595.21	89.448	4,595.21	87.9014	4,595.21	89.8773	4,595.21	88.4376	4,595.21	89.1164	4,595.21	88.093	4,595.21	87.4089	4,595.21	86.8976	4,595.21	84.9511	4,595.21	84.825	4,595.21	81.6043	4,595.21	82.8163	4,595.21	78.8227	4,595.21	79.8039	4,595.21	75.7904	4,595.21	77.6033	4,595.21	73.1434	4,595.21	74.4582	4,595.21	72.2239	4,595.21	72.7004	4,595.21	69.4848	4,595.21	74.274	4,595.21	69.7728	4,595.21	68.4445	4,595.21	75.3329	4,595.21	74.5314	4,595.21	74.0003	4,595.21	72.616	4,595.21	71.2802	4,595.21	73.2528	4,595.21	65.7706
4,756.35	92.2181	4,756.35	91.3149	4,756.35	91.3193	4,756.35	89.603	4,756.35	89.467	4,756.35	89.2101	4,756.35	88.7608	4,756.35	88.96	4,756.35	89.1611	4,756.35	87.8693	4,756.35	88.6565	4,756.35	86.2357	4,756.35	87.141	4,756.35	84.1902	4,756.35	85.3459	4,756.35	82.5972	4,756.35	83.2062	4,756.35	80.0701	4,756.35	80.567	4,756.35	77.2107	4,756.35	77.7067	4,756.35	74.8241	4,756.35	75.9611	4,756.35	73.0888	4,756.35	73.0466	4,756.35	73.3601	4,756.35	73.8168	4,756.35	69.3728	4,756.35	69.2482	4,756.35	75.1621	4,756.35	74.7594	4,756.35	73.0597	4,756.35	75.0407	4,756.35	72.0421	4,756.35	72.8246	4,756.35	61.315
4,924.8	92.0898	4,924.8	91.0246	4,924.8	91.1321	4,924.8	89.6693	4,924.8	89.5043	4,924.8	89.4545	4,924.8	88.6715	4,924.8	89.9782	4,924.8	88.8903	4,924.8	89.3834	4,924.8	88.3014	4,924.8	87.751	4,924.8	87.143	4,924.8	85.9506	4,924.8	85.3812	4,924.8	83.2866	4,924.8	83.4216	4,924.8	80.3224	4,924.8	80.2772	4,924.8	77.1762	4,924.8	78.2001	4,924.8	75.0879	4,924.8	75.0725	4,924.8	72.8237	4,924.8	73.9478	4,924.8	72.3246	4,924.8	72.6266	4,924.8	69.9271	4,924.8	68.9971	4,924.8	75.6162	4,924.8	74.8601	4,924.8	74.7284	4,924.8	73.5955	4,924.8	73.4526	4,924.8	73.769	4,924.8	66.8232
5,097.66	92.5661	5,097.66	91.7638	5,097.66	91.8426	5,097.66	90.3223	5,097.66	90.3473	5,097.66	89.4859	5,097.66	89.2679	5,097.66	89.0645	5,097.66	89.1006	5,097.66	88.0864	5,097.66	88.341	5,097.66	86.8382	5,097.66	87.1257	5,097.66	84.5355	5,097.66	85.7287	5,097.66	82.7494	5,097.66	83.561	5,097.66	80.2392	5,097.66	81.3137	5,097.66	78.1143	5,097.66	78.7882	5,097.66	75.2398	5,097.66	76.5513	5,097.66	73.4197	5,097.66	73.2366	5,097.66	73.585	5,097.66	73.0462	5,097.66	71.4425	5,097.66	70.9522	5,097.66	74.9201	5,097.66	73.8376	5,097.66	74.2005	5,097.66	75.5156	5,097.66	72.3601	5,097.66	73.9881	5,097.66	63.4722
5,277.83	92.0384	5,277.83	91.4395	5,277.83	91.5724	5,277.83	89.9588	5,277.83	90.7395	5,277.83	88.8038	5,277.83	89.368	5,277.83	89.0549	5,277.83	89.1212	5,277.83	88.8453	5,277.83	88.9168	5,277.83	88.273	5,277.83	87.8594	5,277.83	87.2874	5,277.83	86.6154	5,277.83	85.0122	5,277.83	84.756	5,277.83	82.521	5,277.83	81.9	5,277.83	79.3909	5,277.83	79.0949	5,277.83	77.1062	5,277.83	77.27	5,277.83	73.8797	5,277.83	75.9034	5,277.83	73.859	5,277.83	73.0235	5,277.83	73.5059	5,277.83	71.9217	5,277.83	75.651	5,277.83	74.704	5,277.83	75.8288	5,277.83	75.9896	5,277.83	72.1307	5,277.83	74.5548	5,277.83	65.003
5,463.87	92.2439	5,463.87	92.217	5,463.87	92.0488	5,463.87	91.262	5,463.87	91.122	5,463.87	89.445	5,463.87	89.2534	5,463.87	88.9927	5,463.87	87.9827	5,463.87	89.1463	5,463.87	88.4248	5,463.87	88.3644	5,463.87	88.3016	5,463.87	86.593	5,463.87	86.9221	5,463.87	83.5671	5,463.87	84.5599	5,463.87	80.564	5,463.87	81.7455	5,463.87	77.3134	5,463.87	78.8862	5,463.87	75.6169	5,463.87	77.221	5,463.87	73.69	5,463.87	74.3977	5,463.87	70.9468	5,463.87	73.6204	5,463.87	72.5704	5,463.87	72.2003	5,463.87	74.1141	5,463.87	73.3113	5,463.87	75.593	5,463.87	76.3186	5,463.87	71.7906	5,463.87	75.1915	5,463.87	65.3926
5,657.23	92.0255	5,657.23	92.2185	5,657.23	92.1849	5,657.23	91.3278	5,657.23	91.6114	5,657.23	88.6658	5,657.23	89.0984	5,657.23	87.9382	5,657.23	87.9268	5,657.23	88.7821	5,657.23	88.6607	5,657.23	88.3131	5,657.23	88.5458	5,657.23	86.7287	5,657.23	87.125	5,657.23	84.6575	5,657.23	84.7542	5,657.23	82.3956	5,657.23	81.606	5,657.23	79.8054	5,657.23	78.4511	5,657.23	77.348	5,657.23	76.4079	5,657.23	75.6729	5,657.23	74.0284	5,657.23	74.0697	5,657.23	72.6732	5,657.23	74.2574	5,657.23	72.2249	5,657.23	75.6112	5,657.23	73.4588	5,657.23	75.7512	5,657.23	76.5421	5,657.23	70.9385	5,657.23	74.7505	5,657.23	62.617
5,856.45	92.0337	5,856.45	92.4852	5,856.45	92.5933	5,856.45	91.5289	5,856.45	92.4693	5,856.45	88.8952	5,856.45	90.0968	5,856.45	89.0966	5,856.45	88.8788	5,856.45	90.1728	5,856.45	89.8034	5,856.45	89.7853	5,856.45	89.6777	5,856.45	88.1782	5,856.45	87.7188	5,856.45	85.4515	5,856.45	85.3568	5,856.45	82.6318	5,856.45	82.3172	5,856.45	79.1464	5,856.45	79.2397	5,856.45	75.6389	5,856.45	76.1909	5,856.45	72.9296	5,856.45	73.9437	5,856.45	71.5359	5,856.45	71.8447	5,856.45	71.4458	5,856.45	71.5359	5,856.45	74.3874	5,856.45	73.4542	5,856.45	76.8621	5,856.45	75.9427	5,856.45	71.8724	5,856.45	75.4062	5,856.45	63.0383
6,062.99	91.3895	6,062.99	92.4153	6,062.99	92.247	6,062.99	91.7891	6,062.99	92.3183	6,062.99	89.531	6,062.99	89.9762	6,062.99	89.543	6,062.99	88.9573	6,062.99	90.33	6,062.99	90.0284	6,062.99	89.6331	6,062.99	89.5548	6,062.99	87.1424	6,062.99	87.6735	6,062.99	84.4817	6,062.99	85.1506	6,062.99	80.9923	6,062.99	82.077	6,062.99	78.115	6,062.99	79.2367	6,062.99	74.972	6,062.99	75.683	6,062.99	72.618	6,062.99	74.0834	6,062.99	70.4392	6,062.99	72.5355	6,062.99	71.8704	6,062.99	72.1136	6,062.99	74.2213	6,062.99	72.7342	6,062.99	75.5112	6,062.99	75.0108	6,062.99	72.3514	6,062.99	74.0552	6,062.99	61.6718
6,276.86	91.6241	6,276.86	92.822	6,276.86	92.6354	6,276.86	92.4916	6,276.86	92.3947	6,276.86	90.3019	6,276.86	90.4992	6,276.86	90.2968	6,276.86	89.7003	6,276.86	90.8025	6,276.86	90.6178	6,276.86	89.7201	6,276.86	89.6674	6,276.86	87.0005	6,276.86	87.8498	6,276.86	84.7304	6,276.86	85.5276	6,276.86	81.661	6,276.86	82.2122	6,276.86	78.9836	6,276.86	79.5149	6,276.86	75.5825	6,276.86	76.8413	6,276.86	73.1351	6,276.86	73.4237	6,276.86	72.902	6,276.86	71.3114	6,276.86	72.6644	6,276.86	70.4909	6,276.86	74.0144	6,276.86	73.487	6,276.86	76.2488	6,276.86	75.1385	6,276.86	73.1294	6,276.86	73.7279	6,276.86	64.109
6,498.05	92.0258	6,498.05	92.8636	6,498.05	92.9299	6,498.05	92.6357	6,498.05	92.8851	6,498.05	90.7217	6,498.05	91.439	6,498.05	90.422	6,498.05	90.8845	6,498.05	90.776	6,498.05	91.1931	6,498.05	89.9045	6,498.05	90.447	6,498.05	87.8803	6,498.05	88.6324	6,498.05	85.2328	6,498.05	86.217	6,498.05	82.4335	6,498.05	82.8754	6,498.05	78.725	6,498.05	79.7181	6,498.05	75.5663	6,498.05	77.9404	6,498.05	74.1329	6,498.05	73.2548	6,498.05	70.5629	6,498.05	71.4657	6,498.05	71.3011	6,498.05	71.2124	6,498.05	73.2209	6,498.05	73.1929	6,498.05	76.4557	6,498.05	74.8121	6,498.05	72.2294	6,498.05	72.4329	6,498.05	62.1391
6,726.56	91.9531	6,726.56	92.3714	6,726.56	92.5526	6,726.56	92.2449	6,726.56	92.5554	6,726.56	91.0882	6,726.56	91.6661	6,726.56	90.31	6,726.56	90.7069	6,726.56	90.5795	6,726.56	90.8252	6,726.56	89.8763	6,726.56	90.454	6,726.56	88.5599	6,726.56	89.0242	6,726.56	85.6499	6,726.56	86.8474	6,726.56	83.0499	6,726.56	83.5014	6,726.56	79.4851	6,726.56	80.1932	6,726.56	77.0192	6,726.56	78.0216	6,726.56	74.3629	6,726.56	75.6642	6,726.56	70.9389	6,726.56	69.8727	6,726.56	72.4896	6,726.56	68.4849	6,726.56	73.2897	6,726.56	71.5414	6,726.56	75.9847	6,726.56	75.6484	6,726.56	71.389	6,726.56	71.741	6,726.56	63.1355
6,963.87	92.1906	6,963.87	92.2605	6,963.87	92.0442	6,963.87	92.3474	6,963.87	92.2062	6,963.87	91.572	6,963.87	91.6981	6,963.87	90.2057	6,963.87	90.4484	6,963.87	90.6461	6,963.87	90.5015	6,963.87	90.543	6,963.87	90.5551	6,963.87	89.0096	6,963.87	89.3495	6,963.87	86.3092	6,963.87	87.0951	6,963.87	83.7923	6,963.87	83.9567	6,963.87	79.957	6,963.87	80.4175	6,963.87	77.3486	6,963.87	78.1288	6,963.87	74.8484	6,963.87	75.1069	6,963.87	71.6686	6,963.87	69.626	6,963.87	72.0492	6,963.87	68.2967	6,963.87	73.8428	6,963.87	71.3543	6,963.87	76.7907	6,963.87	76.3069	6,963.87	71.54	6,963.87	68.579	6,963.87	65.6659
7,209.96	92.8225	7,209.96	92.0559	7,209.96	92.1118	7,209.96	92.8752	7,209.96	92.3957	7,209.96	92.3481	7,209.96	92.7615	7,209.96	90.6664	7,209.96	90.7876	7,209.96	90.3748	7,209.96	90.4883	7,209.96	90.1559	7,209.96	90.6979	7,209.96	87.9441	7,209.96	89.2012	7,209.96	86.0643	7,209.96	86.4467	7,209.96	82.5312	7,209.96	83.172	7,209.96	78.9695	7,209.96	80.1736	7,209.96	74.9225	7,209.96	77.5578	7,209.96	74.5918	7,209.96	74.3573	7,209.96	70.5887	7,209.96	70.1664	7,209.96	68.8698	7,209.96	67.9635	7,209.96	73.3876	7,209.96	71.4736	7,209.96	76.3295	7,209.96	75.8248	7,209.96	71.4969	7,209.96	69.8014	7,209.96	61.5374
7,464.84	93.1234	7,464.84	92.1067	7,464.84	92.1481	7,464.84	93.2542	7,464.84	92.6733	7,464.84	92.7143	7,464.84	92.9674	7,464.84	90.269	7,464.84	90.626	7,464.84	90.2865	7,464.84	90.3034	7,464.84	90.0709	7,464.84	90.3258	7,464.84	87.8005	7,464.84	89.0584	7,464.84	84.9242	7,464.84	86.0903	7,464.84	82.3881	7,464.84	82.6147	7,464.84	78.5735	7,464.84	78.2535	7,464.84	75.1934	7,464.84	76.0548	7,464.84	73.7586	7,464.84	73.453	7,464.84	68.1997	7,464.84	66.6563	7,464.84	67.1221	7,464.84	67.611	7,464.84	72.3057	7,464.84	70.2958	7,464.84	75.8382	7,464.84	75.2483	7,464.84	72.0681	7,464.84	70.2488	7,464.84	61.2059
7,727.05	92.6532	7,727.05	92.0008	7,727.05	92.0138	7,727.05	93.013	7,727.05	92.6134	7,727.05	92.461	7,727.05	92.9044	7,727.05	90.2667	7,727.05	90.7449	7,727.05	90.3285	7,727.05	90.4252	7,727.05	90.1255	7,727.05	90.2954	7,727.05	88.0373	7,727.05	88.5089	7,727.05	85.007	7,727.05	85.3877	7,727.05	82.0203	7,727.05	81.7473	7,727.05	76.3566	7,727.05	78.8726	7,727.05	75.2651	7,727.05	76.0633	7,727.05	71.6135	7,727.05	73.7879	7,727.05	67.3184	7,727.05	69.6291	7,727.05	64.0983	7,727.05	65.4196	7,727.05	70.3518	7,727.05	66.2177	7,727.05	75.9431	7,727.05	75.5223	7,727.05	70.5185	7,727.05	70.805	7,727.05	56.6037
7,999.51	92.0081	7,999.51	91.194	7,999.51	91.384	7,999.51	92.977	7,999.51	92.2432	7,999.51	92.5242	7,999.51	92.7623	7,999.51	91.0426	7,999.51	91.1125	7,999.51	90.521	7,999.51	91.0617	7,999.51	89.5816	7,999.51	89.8178	7,999.51	87.4878	7,999.51	87.43	7,999.51	84.2647	7,999.51	84.9297	7,999.51	81.4136	7,999.51	80.8682	7,999.51	77.7614	7,999.51	78.5297	7,999.51	74.6507	7,999.51	75.5887	7,999.51	71.0549	7,999.51	70.4532	7,999.51	70.2282	7,999.51	71.0053	7,999.51	62.0107	7,999.51	65.0224	7,999.51	71.0229	7,999.51	69.1183	7,999.51	74.9732	7,999.51	74.6636	7,999.51	69.4617	7,999.51	70.4491	7,999.51	51.9874
8,282.23	91.2551	8,282.23	91.1748	8,282.23	91.4686	8,282.23	92.4939	8,282.23	92.2522	8,282.23	92.6078	8,282.23	92.9719	8,282.23	91.4977	8,282.23	91.5914	8,282.23	90.8242	8,282.23	91.0518	8,282.23	89.6942	8,282.23	90.237	8,282.23	87.1106	8,282.23	87.8537	8,282.23	84.8281	8,282.23	84.9431	8,282.23	80.6355	8,282.23	81.7578	8,282.23	77.5568	8,282.23	78.6351	8,282.23	74.4977	8,282.23	76.035	8,282.23	70.5834	8,282.23	73.4312	8,282.23	67.8798	8,282.23	72.0518	8,282.23	60.5872	8,282.23	66.0288	8,282.23	69.2417	8,282.23	66.9013	8,282.23	73.8244	8,282.23	73.3128	8,282.23	70.1159	8,282.23	68.3472	8,282.23	58.5904
8,573.73	90.6387	8,573.73	91.5741	8,573.73	91.3412	8,573.73	92.1955	8,573.73	92.3163	8,573.73	92.7023	8,573.73	92.7694	8,573.73	91.707	8,573.73	92.0247	8,573.73	90.971	8,573.73	91.1002	8,573.73	90.5376	8,573.73	90.6182	8,573.73	88.531	8,573.73	89.4128	8,573.73	85.2552	8,573.73	87.1554	8,573.73	82.7616	8,573.73	82.4203	8,573.73	77.727	8,573.73	80.1207	8,573.73	76.2888	8,573.73	73.9625	8,573.73	72.702	8,573.73	72.3621	8,573.73	70.1213	8,573.73	71.985	8,573.73	60.3996	8,573.73	66.5927	8,573.73	68.1515	8,573.73	67.5424	8,573.73	74.3233	8,573.73	72.3084	8,573.73	67.8101	8,573.73	69.9601	8,573.73	61.8743
8,876.95	89.9922	8,876.95	91.7372	8,876.95	91.6715	8,876.95	91.5722	8,876.95	91.3662	8,876.95	92.9666	8,876.95	92.6725	8,876.95	91.5201	8,876.95	92.0068	8,876.95	91.0667	8,876.95	91.0053	8,876.95	90.9138	8,876.95	90.7492	8,876.95	89.171	8,876.95	89.4907	8,876.95	85.8032	8,876.95	86.8312	8,876.95	82.6874	8,876.95	82.382	8,876.95	77.9008	8,876.95	78.7312	8,876.95	75.2525	8,876.95	76.3249	8,876.95	71.6586	8,876.95	73.8047	8,876.95	69.995	8,876.95	73.2584	8,876.95	64.0526	8,876.95	67.3436	8,876.95	67.5021	8,876.95	67.8774	8,876.95	74.0781	8,876.95	71.3955	8,876.95	67.8821	8,876.95	67.9616	8,876.95	61.6056
9,188.96	90.1633	9,188.96	91.548	9,188.96	91.7998	9,188.96	91.1696	9,188.96	90.7973	9,188.96	92.6469	9,188.96	92.0828	9,188.96	91.2348	9,188.96	91.4818	9,188.96	91.0524	9,188.96	90.87	9,188.96	90.6087	9,188.96	90.8082	9,188.96	88.8016	9,188.96	88.8777	9,188.96	85.2119	9,188.96	85.8244	9,188.96	81.875	9,188.96	81.6293	9,188.96	77.2496	9,188.96	78.4908	9,188.96	73.5515	9,188.96	75.5445	9,188.96	71.3336	9,188.96	73.356	9,188.96	68.2024	9,188.96	70.6803	9,188.96	64.3149	9,188.96	63.8139	9,188.96	69.4922	9,188.96	68.3631	9,188.96	73.2595	9,188.96	72.2643	9,188.96	64.3776	9,188.96	67.6303	9,188.96	62.6777
9,514.16	90.5854	9,514.16	91.408	9,514.16	91.6298	9,514.16	90.4675	9,514.16	90.8626	9,514.16	91.6815	9,514.16	91.4619	9,514.16	90.8885	9,514.16	90.898	9,514.16	90.4267	9,514.16	90.3105	9,514.16	89.9627	9,514.16	90.2493	9,514.16	87.0043	9,514.16	88.2141	9,514.16	84.1126	9,514.16	84.6992	9,514.16	80.6845	9,514.16	80.7541	9,514.16	76.869	9,514.16	77.572	9,514.16	73.2352	9,514.16	73.9251	9,514.16	71.5831	9,514.16	71.7898	9,514.16	68.5646	9,514.16	71.4249	9,514.16	63.1157	9,514.16	63.7665	9,514.16	66.4927	9,514.16	66.6631	9,514.16	71.7246	9,514.16	69.8887	9,514.16	65.5636	9,514.16	64.51	9,514.16	62.0554
9,849.61	91.4309	9,849.61	91.4148	9,849.61	91.7273	9,849.61	90.9878	9,849.61	91.0838	9,849.61	91.2071	9,849.61	90.9511	9,849.61	90.5738	9,849.61	90.4581	9,849.61	89.5583	9,849.61	89.6842	9,849.61	89.0894	9,849.61	89.2876	9,849.61	86.7375	9,849.61	87.4372	9,849.61	83.2689	9,849.61	84.5512	9,849.61	80.7023	9,849.61	79.5836	9,849.61	75.6646	9,849.61	76.3389	9,849.61	73.2896	9,849.61	72.883	9,849.61	71.0865	9,849.61	71.4099	9,849.61	68.1902	9,849.61	68.5857	9,849.61	61.6049	9,849.61	60.8625	9,849.61	66.9891	9,849.61	62.546	9,849.61	69.9957	9,849.61	69.6429	9,849.61	61.7855	9,849.61	62.3226	9,849.61	57.684
10,196.8	92.3474	10,196.8	91.7358	10,196.8	92.0623	10,196.8	91.3881	10,196.8	91.2347	10,196.8	90.5922	10,196.8	90.2602	10,196.8	90.1983	10,196.8	90.2557	10,196.8	88.7182	10,196.8	88.9382	10,196.8	88.2794	10,196.8	87.975	10,196.8	86.3122	10,196.8	85.7896	10,196.8	83.1019	10,196.8	82.9346	10,196.8	79.2719	10,196.8	78.6882	10,196.8	75.0226	10,196.8	75.7979	10,196.8	71.9458	10,196.8	73.0222	10,196.8	69.4851	10,196.8	71.3588	10,196.8	68.0309	10,196.8	64.8753	10,196.8	64.3876	10,196.8	58.7184	10,196.8	65.9279	10,196.8	58.8057	10,196.8	69.5697	10,196.8	67.8003	10,196.8	62.3442	10,196.8	58.5106	10,196.8	61.0606
10,555.7	92.8155	10,555.7	91.8832	10,555.7	92.2383	10,555.7	91.4553	10,555.7	91.5423	10,555.7	90.2605	10,555.7	90.1701	10,555.7	90.1162	10,555.7	89.8789	10,555.7	88.2618	10,555.7	87.9619	10,555.7	87.6382	10,555.7	87.2887	10,555.7	84.9992	10,555.7	85.6665	10,555.7	81.8407	10,555.7	82.1284	10,555.7	77.7222	10,555.7	77.3322	10,555.7	73.852	10,555.7	75.6617	10,555.7	69.6748	10,555.7	71.4999	10,555.7	69.0119	10,555.7	70.0785	10,555.7	67.1941	10,555.7	63.9213	10,555.7	63.453	10,555.7	60.1729	10,555.7	64.8058	10,555.7	61.0659	10,555.7	67.8898	10,555.7	65.6717	10,555.7	59.8036	10,555.7	52.602	10,555.7	62.4664
10,927.7	92.8125	10,927.7	91.9101	10,927.7	92.0653	10,927.7	91.586	10,927.7	91.673	10,927.7	90.1945	10,927.7	90.2748	10,927.7	89.7599	10,927.7	89.3104	10,927.7	87.5013	10,927.7	86.8846	10,927.7	87.0048	10,927.7	86.8852	10,927.7	83.9424	10,927.7	85.2051	10,927.7	80.2109	10,927.7	81.0024	10,927.7	76.8979	10,927.7	76.0834	10,927.7	72.3488	10,927.7	74.3973	10,927.7	67.7124	10,927.7	65.9128	10,927.7	67.5689	10,927.7	67.8503	10,927.7	65.312	10,927.7	62.3737	10,927.7	61.9567	10,927.7	59.9482	10,927.7	62.2099	10,927.7	58.5337	10,927.7	64.8501	10,927.7	64.0048	10,927.7	55.0258	10,927.7	50.0563	10,927.7	58.9586
11,313	92.4203	11,313	91.699	11,313	91.9547	11,313	91.4108	11,313	91.4174	11,313	89.8353	11,313	90.1749	11,313	89.0904	11,313	88.6677	11,313	86.774	11,313	86.6075	11,313	86.0239	11,313	85.4266	11,313	83.6792	11,313	83.3475	11,313	79.2964	11,313	79.4825	11,313	75.5863	11,313	74.9071	11,313	71.2099	11,313	72.403	11,313	67.6525	11,313	66.2678	11,313	66.7232	11,313	68.5916	11,313	63.1711	11,313	58.6533	11,313	61.8533	11,313	59.5824	11,313	60.424	11,313	56.0458	11,313	62.5673	11,313	62.5528	11,313	48.2854	11,313	43.9796	11,313	58.4958
11,712.9	92.2335	11,712.9	91.657	11,712.9	91.9566	11,712.9	91.1158	11,712.9	91.1018	11,712.9	89.5651	11,712.9	90.0791	11,712.9	88.2302	11,712.9	88.2602	11,712.9	85.9023	11,712.9	86.663	11,712.9	84.304	11,712.9	84.7016	11,712.9	82.4655	11,712.9	82.7507	11,712.9	77.7531	11,712.9	79.0399	11,712.9	73.5829	11,712.9	73.2683	11,712.9	70.0078	11,712.9	71.0004	11,712.9	65.0326	11,712.9	65.5553	11,712.9	64.5352	11,712.9	67.6491	11,712.9	61.159	11,712.9	60.342	11,712.9	60.8576	11,712.9	58.6296	11,712.9	61.7948	11,712.9	53.6753	11,712.9	59.3177	11,712.9	61.885	11,712.9	52.0758	11,712.9	49.0273	11,712.9	58.5873
12,126	92.1106	12,126	91.5436	12,126	91.9548	12,126	90.9817	12,126	90.7892	12,126	89.647	12,126	89.7162	12,126	87.8254	12,126	87.8306	12,126	85.2381	12,126	85.552	12,126	83.6013	12,126	83.2626	12,126	81.4312	12,126	81.1518	12,126	76.9315	12,126	77.3498	12,126	72.5007	12,126	71.5355	12,126	68.7593	12,126	67.3803	12,126	64.4056	12,126	63.3676	12,126	61.3782	12,126	63.7617	12,126	59.5876	12,126	53.7828	12,126	57.0989	12,126	58.9809	12,126	57.6855	12,126	53.411	12,126	58.8327	12,126	58.9172	12,126	46.3362	12,126	48.5362	12,126	58.5475
12,553.7	91.9261	12,553.7	91.349	12,553.7	91.7423	12,553.7	90.777	12,553.7	90.5288	12,553.7	89.0676	12,553.7	89.0685	12,553.7	87.2106	12,553.7	87.1498	12,553.7	84.5399	12,553.7	84.4305	12,553.7	82.9338	12,553.7	82.32	12,553.7	80.6551	12,553.7	79.139	12,553.7	76.0669	12,553.7	74.7286	12,553.7	71.6277	12,553.7	70.8246	12,553.7	66.9318	12,553.7	65.5365	12,553.7	60.2813	12,553.7	63.3748	12,553.7	56.5429	12,553.7	61.2017	12,553.7	62.0602	12,553.7	48.716	12,553.7	54.4407	12,553.7	56.0755	12,553.7	56.3102	12,553.7	46.5003	12,553.7	57.3495	12,553.7	54.8905	12,553.7	48.3991	12,553.7	51.2159	12,553.7	54.8256
12,996.1	91.7896	12,996.1	91.346	12,996.1	91.5809	12,996.1	90.5806	12,996.1	90.3071	12,996.1	88.7266	12,996.1	88.6716	12,996.1	86.7867	12,996.1	86.5994	12,996.1	83.9697	12,996.1	83.6702	12,996.1	81.8069	12,996.1	81.2182	12,996.1	78.8045	12,996.1	78.2085	12,996.1	74.1198	12,996.1	74.7893	12,996.1	70.3201	12,996.1	69.6774	12,996.1	65.2716	12,996.1	64.934	12,996.1	58.119	12,996.1	60.8513	12,996.1	47.669	12,996.1	56.7721	12,996.1	61.0693	12,996.1	50.7935	12,996.1	53.2473	12,996.1	58.0184	12,996.1	56.0996	12,996.1	46.7715	12,996.1	53.6203	12,996.1	54.7948	12,996.1	45.9696	12,996.1	49.7456	12,996.1	54.676
13,454.6	91.8958	13,454.6	91.4968	13,454.6	91.6894	13,454.6	90.4615	13,454.6	90.3831	13,454.6	88.4862	13,454.6	88.5004	13,454.6	86.3035	13,454.6	86.2001	13,454.6	83.2792	13,454.6	83.3608	13,454.6	80.645	13,454.6	80.2861	13,454.6	77.9173	13,454.6	77.791	13,454.6	73.6031	13,454.6	73.6101	13,454.6	68.9029	13,454.6	68.5228	13,454.6	63.1767	13,454.6	62.9995	13,454.6	56.1175	13,454.6	59.5284	13,454.6	49.9526	13,454.6	56.0013	13,454.6	59.9938	13,454.6	55.397	13,454.6	50.3834	13,454.6	57.7622	13,454.6	54.0261	13,454.6	46.9138	13,454.6	52.7851	13,454.6	54.1803	13,454.6	45.2658	13,454.6	49.8569	13,454.6	55.1936
13,929.2	91.6025	13,929.2	91.2967	13,929.2	91.5494	13,929.2	90.2929	13,929.2	90.0874	13,929.2	88.2111	13,929.2	88.1748	13,929.2	86.0133	13,929.2	85.6215	13,929.2	83.1456	13,929.2	82.6309	13,929.2	80.3663	13,929.2	79.2889	13,929.2	77.7369	13,929.2	76.6941	13,929.2	72.9062	13,929.2	71.6371	13,929.2	68.402	13,929.2	66.932	13,929.2	62.1195	13,929.2	59.859	13,929.2	53.9388	13,929.2	55.499	13,929.2	49.2249	13,929.2	54.1585	13,929.2	59.1444	13,929.2	55.4891	13,929.2	51.4301	13,929.2	56.7595	13,929.2	52.1055	13,929.2	47.0762	13,929.2	50.6385	13,929.2	50.2148	13,929.2	36.6381	13,929.2	48.3346	13,929.2	52.3065
14,419.9	91.3514	14,419.9	91.026	14,419.9	91.2952	14,419.9	89.8374	14,419.9	89.7152	14,419.9	87.6441	14,419.9	87.7576	14,419.9	85.3994	14,419.9	84.9162	14,419.9	82.2132	14,419.9	81.806	14,419.9	79.3128	14,419.9	78.4779	14,419.9	76.4661	14,419.9	75.3116	14,419.9	71.5585	14,419.9	70.6498	14,419.9	66.856	14,419.9	65.4648	14,419.9	61.5726	14,419.9	59.2234	14,419.9	54.4026	14,419.9	57.2237	14,419.9	55.6965	14,419.9	57.3303	14,419.9	56.881	14,419.9	55.956	14,419.9	51.9511	14,419.9	54.7075	14,419.9	49.9206	14,419.9	47.3002	14,419.9	47.5407	14,419.9	40.5015	14,419.9	40.7171	14,419.9	51.7018	14,419.9	44.3211
14,928.2	91.2567	14,928.2	90.975	14,928.2	91.1675	14,928.2	89.6423	14,928.2	89.568	14,928.2	87.1982	14,928.2	87.3374	14,928.2	84.8442	14,928.2	84.435	14,928.2	81.5995	14,928.2	81.4865	14,928.2	78.7077	14,928.2	78.0944	14,928.2	75.9751	14,928.2	75.4157	14,928.2	71.4482	14,928.2	71.312	14,928.2	66.6986	14,928.2	65.7711	14,928.2	61.1461	14,928.2	59.5696	14,928.2	56.8401	14,928.2	58.1281	14,928.2	55.5302	14,928.2	59.0608	14,928.2	57.164	14,928.2	56.8602	14,928.2	51.0163	14,928.2	54.2134	14,928.2	47.6126	14,928.2	49.5574	14,928.2	48.4082	14,928.2	47.6904	14,928.2	48.1484	14,928.2	52.99	14,928.2	45.8664
15,455.6	91.3631	15,455.6	91.0913	15,455.6	91.3094	15,455.6	89.6337	15,455.6	89.7611	15,455.6	87.2548	15,455.6	87.4904	15,455.6	84.4083	15,455.6	84.3414	15,455.6	81.3698	15,455.6	81.3737	15,455.6	77.8841	15,455.6	77.2897	15,455.6	75.8088	15,455.6	74.9266	15,455.6	71.4871	15,455.6	70.8641	15,455.6	67.2727	15,455.6	64.2939	15,455.6	60.8301	15,455.6	60.3057	15,455.6	56.9601	15,455.6	56.0972	15,455.6	56.5053	15,455.6	57.3578	15,455.6	57.0593	15,455.6	54.6055	15,455.6	49.3631	15,455.6	51.7294	15,455.6	47.6088	15,455.6	50.9731	15,455.6	50.8447	15,455.6	41.2606	15,455.6	49.166	15,455.6	54.235	15,455.6	45.0994
16,000.5	91.1647	16,000.5	90.9128	16,000.5	91.0768	16,000.5	89.7009	16,000.5	89.6443	16,000.5	87.4213	16,000.5	87.5752	16,000.5	84.1465	16,000.5	84.2501	16,000.5	80.0917	16,000.5	80.1511	16,000.5	75.2229	16,000.5	74.874	16,000.5	72.724	16,000.5	70.5097	16,000.5	68.8124	16,000.5	66.718	16,000.5	65.3138	16,000.5	58.3843	16,000.5	56.5552	16,000.5	56.8791	16,000.5	52.8624	16,000.5	41.1314	16,000.5	51.4644	16,000.5	48.7718	16,000.5	50.352	16,000.5	49.1269	16,000.5	40.6831	16,000.5	51.9136	16,000.5	42.9294	16,000.5	46.1599	16,000.5	48.4966	16,000.5	46.6806	16,000.5	51.3552	16,000.5	48.9026	16,000.5	30.4231
16,564.5	91.1735	16,564.5	90.7773	16,564.5	90.9914	16,564.5	89.548	16,564.5	89.4424	16,564.5	86.8991	16,564.5	87.1197	16,564.5	83.3957	16,564.5	83.6332	16,564.5	78.6734	16,564.5	79.2809	16,564.5	72.9658	16,564.5	73.6542	16,564.5	67.2652	16,564.5	66.8141	16,564.5	61.9128	16,564.5	57.2192	16,564.5	59.6467	16,564.5	53.9097	16,564.5	47.2144	16,564.5	30.5161	16,564.5	39.598	16,564.5	51.4133	16,564.5	44.4254	16,564.5	48.9439	16,564.5	49.6648	16,564.5	36.7467	16,564.5	45.0337	16,564.5	45.6985	16,564.5	30.3474	16,564.5	46.7286	16,564.5	46.8919	16,564.5	33.936	16,564.5	45.901	16,564.5	48.5819	16,564.5	40.944
17,148.9	91.3261	17,148.9	90.9026	17,148.9	91.1132	17,148.9	89.574	17,148.9	89.5452	17,148.9	86.9889	17,148.9	87.0927	17,148.9	83.3359	17,148.9	83.4679	17,148.9	78.6536	17,148.9	78.8782	17,148.9	73.4642	17,148.9	73.6468	17,148.9	69.2545	17,148.9	67.6052	17,148.9	64.2698	17,148.9	61.587	17,148.9	59.9368	17,148.9	56.2973	17,148.9	48.342	17,148.9	45.7427	17,148.9	27.5048	17,148.9	49.7378	17,148.9	49.2716	17,148.9	46.0499	17,148.9	45.8212	17,148.9	46.2657	17,148.9	44.4909	17,148.9	44.7566	17,148.9	38.1337	17,148.9	45.8665	17,148.9	46.5881	17,148.9	45.2846	17,148.9	46.3153	17,148.9	47.3462	17,148.9	40.3343
17,752.4	91.4428	17,752.4	90.8947	17,752.4	91.1524	17,752.4	89.5115	17,752.4	89.4856	17,752.4	86.7288	17,752.4	86.7176	17,752.4	82.8299	17,752.4	82.8205	17,752.4	77.1142	17,752.4	77.6373	17,752.4	70.5672	17,752.4	71.4025	17,752.4	65.1731	17,752.4	64.3788	17,752.4	61.9783	17,752.4	57.4903	17,752.4	55.7969	17,752.4	54.1156	17,752.4	40.7729	17,752.4	47.4137	17,752.4	49.6199	17,752.4	46.6533	17,752.4	49.4422	17,752.4	40.8559	17,752.4	42.2342	17,752.4	32.6072	17,752.4	30.0661	17,752.4	39.6527	17,752.4	40.9127	17,752.4	35.8834	17,752.4	37.3669	17,752.4	39.0292	17,752.4	45.669	17,752.4	43.6948	17,752.4	38.3921
18,379.4	91.5542	18,379.4	91.0019	18,379.4	91.2949	18,379.4	89.4212	18,379.4	89.464	18,379.4	86.5428	18,379.4	86.5735	18,379.4	82.6008	18,379.4	82.5201	18,379.4	77.3609	18,379.4	77.7948	18,379.4	71.0412	18,379.4	73.2211	18,379.4	64.5433	18,379.4	69.9186	18,379.4	60.178	18,379.4	66.7574	18,379.4	50.1892	18,379.4	61.6714	18,379.4	41.0008	18,379.4	54.2776	18,379.4	49.5555	18,379.4	53.82	18,379.4	46.1517	18,379.4	48.069	18,379.4	47.681	18,379.4	51.9069	18,379.4	32.5535	18,379.4	41.6562	18,379.4	25.2436	18,379.4	46.0545	18,379.4	40.1945	18,379.4	47.6096	18,379.4	38.7813	18,379.4	37.3703	18,379.4	45.2329
19,026.9	91.4563	19,026.9	90.8195	19,026.9	91.1899	19,026.9	89.3726	19,026.9	89.5013	19,026.9	86.7181	19,026.9	86.8464	19,026.9	83.0959	19,026.9	83.1937	19,026.9	77.6163	19,026.9	79.28	19,026.9	71.351	19,026.9	75.5748	19,026.9	68.3836	19,026.9	73.5335	19,026.9	63.7328	19,026.9	71.2877	19,026.9	56.4907	19,026.9	65.1709	19,026.9	46.6246	19,026.9	59.8926	19,026.9	49.9078	19,026.9	59.6825	19,026.9	45.351	19,026.9	54.0396	19,026.9	53.6542	19,026.9	56.3049	19,026.9	42.0238	19,026.9	48.0682	19,026.9	45.1354	19,026.9	49.1526	19,026.9	44.8265	19,026.9	48.8844	19,026.9	43.0691	19,026.9	36.5752	19,026.9	42.3511
19,697.8	91.8407	19,697.8	91.2985	19,697.8	91.5809	19,697.8	89.99	19,697.8	90.0938	19,697.8	87.5196	19,697.8	87.9362	19,697.8	84.0965	19,697.8	84.5252	19,697.8	79.9555	19,697.8	81.6078	19,697.8	75.3626	19,697.8	78.7988	19,697.8	72.2049	19,697.8	77.0437	19,697.8	67.9048	19,697.8	75.2587	19,697.8	61.0643	19,697.8	68.8072	19,697.8	55.8461	19,697.8	64.7265	19,697.8	45.8793	19,697.8	62.4651	19,697.8	49.8608	19,697.8	55.628	19,697.8	54.6424	19,697.8	59.7648	19,697.8	44.8887	19,697.8	46.5024	19,697.8	48.1809	19,697.8	46.4098	19,697.8	47.7139	19,697.8	48.4506	19,697.8	47.2768	19,697.8	51.3882	19,697.8	30.6848
19,999.5	92.0244	19,999.5	91.5423	19,999.5	91.4688	19,999.5	90.7601	19,999.5	90.7797	19,999.5	88.1721	19,999.5	89.1081	19,999.5	85.1727	19,999.5	85.4143	19,999.5	81.2768	19,999.5	83.0668	19,999.5	77.2095	19,999.5	79.8611	19,999.5	74.6391	19,999.5	79.1567	19,999.5	70.3021	19,999.5	76.5828	19,999.5	67.9223	19,999.5	69.9261	19,999.5	63.1756	19,999.5	66.1071	19,999.5	60.5219	19,999.5	50.7729	19,999.5	63.3991	19,999.5	56.329	19,999.5	57.8578	19,999.5	61.9119	19,999.5	58.6972	19,999.5	51.4535	19,999.5	59.3929	19,999.5	60.9266	19,999.5	55.468	19,999.5	45.5452	19,999.5	56.8106	19,999.5	53.9512	19,999.5	49.9412
