"SPL Horizontal"
"On-Axis"		"10°"		"-10°"		"20°"		"-20°"		"30°"		"-30°"		"40°"		"-40°"		"50°"		"-50°"		"60°"		"-60°"		"70°"		"-70°"		"80°"		"-80°"		"90°"		"-90°"		"100°"		"-100°"		"110°"		"-110°"		"120°"		"-120°"		"130°"		"-130°"		"140°"		"-140°"		"150°"		"-150°"		"160°"		"-160°"		"170°"		"-170°"		"180°"
"Frequency [Hz]"	"Sound Pessure Level [dB]   [2.83V at 1m]"	"Frequency [Hz]"	"Sound Pessure Level [dB]   [2.83V at 1m]"	"Frequency [Hz]"	"Sound Pessure Level [dB]   [2.83V at 1m]"	"Frequency [Hz]"	"Sound Pessure Level [dB]   [2.83V at 1m]"	"Frequency [Hz]"	"Sound Pessure Level [dB]   [2.83V at 1m]"	"Frequency [Hz]"	"Sound Pessure Level [dB]   [2.83V at 1m]"	"Frequency [Hz]"	"Sound Pessure Level [dB]   [2.83V at 1m]"	"Frequency [Hz]"	"Sound Pessure Level [dB]   [2.83V at 1m]"	"Frequency [Hz]"	"Sound Pessure Level [dB]   [2.83V at 1m]"	"Frequency [Hz]"	"Sound Pessure Level [dB]   [2.83V at 1m]"	"Frequency [Hz]"	"Sound Pessure Level [dB]   [2.83V at 1m]"	"Frequency [Hz]"	"Sound Pessure Level [dB]   [2.83V at 1m]"	"Frequency [Hz]"	"Sound Pessure Level [dB]   [2.83V at 1m]"	"Frequency [Hz]"	"Sound Pessure Level [dB]   [2.83V at 1m]"	"Frequency [Hz]"	"Sound Pessure Level [dB]   [2.83V at 1m]"	"Frequency [Hz]"	"Sound Pessure Level [dB]   [2.83V at 1m]"	"Frequency [Hz]"	"Sound Pessure Level [dB]   [2.83V at 1m]"	"Frequency [Hz]"	"Sound Pessure Level [dB]   [2.83V at 1m]"	"Frequency [Hz]"	"Sound Pessure Level [dB]   [2.83V at 1m]"	"Frequency [Hz]"	"Sound Pessure Level [dB]   [2.83V at 1m]"	"Frequency [Hz]"	"Sound Pessure Level [dB]   [2.83V at 1m]"	"Frequency [Hz]"	"Sound Pessure Level [dB]   [2.83V at 1m]"	"Frequency [Hz]"	"Sound Pessure Level [dB]   [2.83V at 1m]"	"Frequency [Hz]"	"Sound Pessure Level [dB]   [2.83V at 1m]"	"Frequency [Hz]"	"Sound Pessure Level [dB]   [2.83V at 1m]"	"Frequency [Hz]"	"Sound Pessure Level [dB]   [2.83V at 1m]"	"Frequency [Hz]"	"Sound Pessure Level [dB]   [2.83V at 1m]"	"Frequency [Hz]"	"Sound Pessure Level [dB]   [2.83V at 1m]"	"Frequency [Hz]"	"Sound Pessure Level [dB]   [2.83V at 1m]"	"Frequency [Hz]"	"Sound Pessure Level [dB]   [2.83V at 1m]"	"Frequency [Hz]"	"Sound Pessure Level [dB]   [2.83V at 1m]"	"Frequency [Hz]"	"Sound Pessure Level [dB]   [2.83V at 1m]"	"Frequency [Hz]"	"Sound Pessure Level [dB]   [2.83V at 1m]"	"Frequency [Hz]"	"Sound Pessure Level [dB]   [2.83V at 1m]"	"Frequency [Hz]"	"Sound Pessure Level [dB]   [2.83V at 1m]"	"Frequency [Hz]"	"Sound Pessure Level [dB]   [2.83V at 1m]"
20.5078	62.1724	20.5078	62.0223	20.5078	62.2356	20.5078	61.7783	20.5078	62.2141	20.5078	61.4303	20.5078	62.1043	20.5078	60.9668	20.5078	61.8968	20.5078	60.3772	20.5078	61.5769	20.5078	59.6584	20.5078	61.1279	20.5078	58.8278	20.5078	60.5366	20.5078	57.9509	20.5078	59.8037	20.5078	57.1779	20.5078	58.9638	20.5078	56.7428	20.5078	58.1169	20.5078	56.8319	20.5078	57.4539	20.5078	57.3986	20.5078	57.203	20.5078	58.2006	20.5078	57.4562	20.5078	58.9984	20.5078	58.0709	20.5078	59.6478	20.5078	58.8039	20.5078	60.0832	20.5078	59.4678	20.5078	60.2815	20.5078	59.9612	20.5078	60.2387
21.9727	60.419	21.9727	60.1483	21.9727	60.5252	21.9727	59.7005	21.9727	60.4714	21.9727	59.0561	21.9727	60.2522	21.9727	58.194	21.9727	59.853	21.9727	57.1063	21.9727	59.2521	21.9727	55.8466	21.9727	58.43	21.9727	54.6584	21.9727	57.3977	21.9727	54.1287	21.9727	56.2723	21.9727	54.8051	21.9727	55.4198	21.9727	56.3901	21.9727	55.43	21.9727	58.1931	21.9727	56.4848	21.9727	59.8298	21.9727	58.0704	21.9727	61.1815	21.9727	59.662	21.9727	62.2323	21.9727	61.0287	21.9727	62.9946	21.9727	62.1102	21.9727	63.4853	21.9727	62.9064	21.9727	63.718	21.9727	63.432	21.9727	63.7001
23.4375	57.7895	23.4375	57.6189	23.4375	57.7255	23.4375	57.1974	23.4375	57.4151	23.4375	56.4743	23.4375	56.8162	23.4375	55.3448	23.4375	55.8443	23.4375	53.5985	23.4375	54.3401	23.4375	50.7541	23.4375	51.9846	23.4375	45.2618	23.4375	48.0757	23.4375	15.2846	23.4375	42.4511	23.4375	46.812	23.4375	46.8118	23.4375	53.0851	23.4375	52.6097	23.4375	56.817	23.4375	56.4029	23.4375	59.4123	23.4375	59.0786	23.4375	61.313	23.4375	61.0486	23.4375	62.7154	23.4375	62.5111	23.4375	63.7241	23.4375	63.5741	23.4375	64.4009	23.4375	64.3021	23.4375	64.7835	23.4375	64.7344	23.4375	64.8924
24.9023	57.1529	24.9023	56.9049	24.9023	57.1535	24.9023	56.3985	24.9023	56.8985	24.9023	55.6069	24.9023	56.3576	24.9023	54.5033	24.9023	55.4777	24.9023	53.1301	24.9023	54.1956	24.9023	51.8568	24.9023	52.5357	24.9023	51.7544	24.9023	51.0746	24.9023	53.4987	24.9023	51.5061	24.9023	56.0798	24.9023	54.0649	24.9023	58.5706	24.9023	56.9919	24.9023	60.7056	24.9023	59.5213	24.9023	62.4638	24.9023	61.5746	24.9023	63.8754	24.9023	63.207	24.9023	64.9738	24.9023	64.4782	24.9023	65.7871	24.9023	65.4348	24.9023	66.3371	24.9023	66.1103	24.9023	66.6393	24.9023	66.5281	24.9023	66.7025
26.3672	63.1321	26.3672	63.0298	26.3672	63.0896	26.3672	62.7731	26.3672	62.9016	26.3672	62.3436	26.3672	62.5564	26.3672	61.7145	26.3672	62.0304	26.3672	60.8551	26.3672	61.29	26.3672	59.7501	26.3672	60.3032	26.3672	58.4693	26.3672	59.0809	26.3672	57.3579	26.3672	57.8107	26.3672	57.1822	26.3672	57.0983	26.3672	58.3668	26.3672	57.7037	26.3672	60.2654	26.3672	59.4049	26.3672	62.1589	26.3672	61.3585	26.3672	63.7652	26.3672	63.101	26.3672	65.029	26.3672	64.5099	26.3672	65.9624	26.3672	65.5819	26.3672	66.59	26.3672	66.3406	26.3672	66.9332	26.3672	66.8098	26.3672	67.0052
27.832	64.1405	27.832	63.9929	27.832	64.0956	27.832	63.6387	27.832	63.8563	27.832	63.0456	27.832	63.4037	27.832	62.1576	27.832	62.6996	27.832	60.886	27.832	61.683	27.832	59.1017	27.832	60.2724	27.832	56.7023	27.832	58.4138	27.832	54.2575	27.832	56.3799	27.832	54.5688	27.832	55.6362	27.832	57.7093	27.832	57.483	27.832	60.8132	27.832	60.2488	27.832	63.2445	27.832	62.6904	27.832	65.085	27.832	64.6184	27.832	66.4545	27.832	66.0871	27.832	67.4383	27.832	67.1679	27.832	68.0932	27.832	67.9156	27.832	68.4554	27.832	68.3674	27.832	68.5448
29.2969	62.8722	29.2969	62.6482	29.2969	62.8824	29.2969	62.1989	29.2969	62.6821	29.2969	61.5074	29.2969	62.2681	29.2969	60.5671	29.2969	61.6398	29.2969	59.4365	29.2969	60.8269	29.2969	58.3955	29.2969	59.9621	29.2969	58.1315	29.2969	59.4077	29.2969	59.2202	29.2969	59.7065	29.2969	61.2126	29.2969	61.0079	29.2969	63.35	29.2969	62.8348	29.2969	65.2741	29.2969	64.693	29.2969	66.8939	29.2969	66.352	29.2969	68.2076	29.2969	67.7438	29.2969	69.2354	29.2969	68.8623	29.2969	69.9993	29.2969	69.72	29.2969	70.5178	29.2969	70.3323	29.2969	70.8049	29.2969	70.7123	29.2969	70.8688
30.7617	63.6572	30.7617	63.6791	30.7617	63.6319	30.7617	63.7133	30.7617	63.6024	30.7617	63.7904	30.7617	63.5848	30.7617	63.955	30.7617	63.6153	30.7617	64.2602	30.7617	63.7517	30.7617	64.7534	30.7617	64.066	30.7617	65.4555	30.7617	64.6197	30.7617	66.3455	30.7617	65.4277	30.7617	67.3642	30.7617	66.4417	30.7617	68.434	30.7617	67.5696	30.7617	69.4808	30.7617	68.713	30.7617	70.4465	30.7617	69.7927	30.7617	71.2909	30.7617	70.7554	30.7617	71.9894	30.7617	71.5699	30.7617	72.5285	30.7617	72.22	30.7617	72.9017	30.7617	72.6992	30.7617	73.1063	30.7617	73.0061	30.7617	73.1414
32.2266	68.6932	32.2266	68.6646	32.2266	68.6847	32.2266	68.6013	32.2266	68.6421	32.2266	68.5119	32.2266	68.5732	32.2266	68.4143	32.2266	68.4932	32.2266	68.3398	32.2266	68.4281	32.2266	68.3351	32.2266	68.4176	32.2266	68.4578	32.2266	68.5142	32.2266	68.7597	32.2266	68.7709	32.2266	69.2611	32.2266	69.2178	32.2266	69.9339	32.2266	69.8414	32.2266	70.7104	32.2266	70.5851	32.2266	71.5097	32.2266	71.3714	32.2266	72.2615	32.2266	72.1272	32.2266	72.9151	32.2266	72.7972	32.2266	73.4388	32.2266	73.3455	32.2266	73.8156	32.2266	73.7514	32.2266	74.0372	32.2266	74.0046	32.2266	74.1003
33.6914	70.7965	33.6914	70.7812	33.6914	70.8029	33.6914	70.7586	33.6914	70.8028	33.6914	70.7345	33.6914	70.8018	33.6914	70.7205	33.6914	70.8101	33.6914	70.735	33.6914	70.8432	33.6914	70.8042	33.6914	70.9229	33.6914	70.9594	33.6914	71.0764	33.6914	71.2291	33.6914	71.3308	33.6914	71.6278	33.6914	71.7027	33.6914	72.1452	33.6914	72.188	33.6914	72.7458	33.6914	72.7584	33.6914	73.3782	33.6914	73.3681	33.6914	73.9897	33.6914	73.9662	33.6914	74.5356	33.6914	74.5074	33.6914	74.9837	33.6914	74.9575	33.6914	75.3132	33.6914	75.2936	33.6914	75.5124	33.6914	75.502	33.6914	75.5758
35.1562	72.6227	35.1562	72.5995	35.1562	72.6104	35.1562	72.543	35.1562	72.5649	35.1562	72.4602	35.1562	72.4934	35.1562	72.3651	35.1562	72.4087	35.1562	72.2811	35.1562	72.3324	35.1562	72.2425	35.1562	72.2963	35.1562	72.2924	35.1562	72.3408	35.1562	72.4732	35.1562	72.5071	35.1562	72.8095	35.1562	72.8221	35.1562	73.2941	35.1562	73.2832	35.1562	73.8855	35.1562	73.8546	35.1562	74.5227	35.1562	74.4789	35.1562	75.1439	35.1562	75.0953	35.1562	75.699	35.1562	75.6526	35.1562	76.1532	35.1562	76.1145	35.1562	76.4858	35.1562	76.4583	35.1562	76.6856	35.1562	76.6714	35.1562	76.7478
36.6211	74.3003	36.6211	74.2748	36.6211	74.2876	36.6211	74.2123	36.6211	74.2387	36.6211	74.1177	36.6211	74.1593	36.6211	74.0016	36.6211	74.0598	36.6211	73.8827	36.6211	73.9579	36.6211	73.7901	36.6211	73.8809	36.6211	73.7631	36.6211	73.8651	36.6211	73.8448	36.6211	73.9503	36.6211	74.0681	36.6211	74.1677	36.6211	74.4391	36.6211	74.5245	36.6211	74.9301	36.6211	74.9964	36.6211	75.4879	36.6211	75.5348	36.6211	76.0519	36.6211	76.0823	36.6211	76.5691	36.6211	76.5873	36.6211	77.0006	36.6211	77.0107	36.6211	77.322	36.6211	77.327	36.6211	77.5193	36.6211	77.5214	36.6211	77.5863
38.0859	73.8454	38.0859	73.8274	38.0859	73.8447	38.0859	73.7935	38.0859	73.8293	38.0859	73.7536	38.0859	73.8095	38.0859	73.726	38.0859	73.8028	38.0859	73.7383	38.0859	73.8344	38.0859	73.8252	38.0859	73.935	38.0859	74.022	38.0859	74.1354	38.0859	74.3532	38.0859	74.4573	38.0859	74.82	38.0859	74.9031	38.0859	75.3962	38.0859	75.4518	38.0859	76.0351	38.0859	76.063	38.0859	76.6832	38.0859	76.6884	38.0859	77.2919	38.0859	77.2818	38.0859	77.8238	38.0859	77.8062	38.0859	78.2538	38.0859	78.2351	38.0859	78.5668	38.0859	78.5518	38.0859	78.755	38.0859	78.7468	38.0859	78.8151
39.5508	76.0929	39.5508	76.092	39.5508	76.1003	39.5508	76.0986	39.5508	76.1165	39.5508	76.1179	39.5508	76.147	39.5508	76.1588	39.5508	76.2004	39.5508	76.2347	39.5508	76.2878	39.5508	76.3615	39.5508	76.4226	39.5508	76.5551	39.5508	76.6177	39.5508	76.827	39.5508	76.8829	39.5508	77.1787	39.5508	77.2205	39.5508	77.599	39.5508	77.6223	39.5508	78.0645	39.5508	78.0687	39.5508	78.5435	39.5508	78.532	39.5508	79.0031	39.5508	78.9812	39.5508	79.4133	39.5508	79.3873	39.5508	79.7509	39.5508	79.7264	39.5508	79.9998	39.5508	79.9811	39.5508	80.1503	39.5508	80.1402	39.5508	80.1974
41.0156	77.4382	41.0156	77.4415	41.0156	77.4536	41.0156	77.4641	41.0156	77.4884	41.0156	77.5087	41.0156	77.5452	41.0156	77.5802	41.0156	77.6279	41.0156	77.6855	41.0156	77.742	41.0156	77.8328	41.0156	77.8941	41.0156	78.0303	41.0156	78.091	41.0156	78.2834	41.0156	78.3381	41.0156	78.5924	41.0156	78.6364	41.0156	78.9499	41.0156	78.9803	41.0156	79.3402	41.0156	79.3567	41.0156	79.7413	41.0156	79.7457	41.0156	80.128	41.0156	80.1237	41.0156	80.4762	41.0156	80.4671	41.0156	80.7656	41.0156	80.7553	41.0156	80.981	41.0156	80.9725	41.0156	81.1127	41.0156	81.1079	41.0156	81.1554
42.4805	78.4395	42.4805	78.4499	42.4805	78.446	42.4805	78.4772	42.4805	78.4705	42.4805	78.5231	42.4805	78.5152	42.4805	78.5905	42.4805	78.5835	42.4805	78.6842	42.4805	78.6802	42.4805	78.8105	42.4805	78.8108	42.4805	78.9761	42.4805	78.981	42.4805	79.1864	42.4805	79.1952	42.4805	79.4437	42.4805	79.4546	42.4805	79.7442	42.4805	79.7549	42.4805	80.077	42.4805	80.0854	42.4805	80.4245	42.4805	80.4294	42.4805	80.7649	42.4805	80.7662	42.4805	81.0761	42.4805	81.0744	42.4805	81.3379	42.4805	81.3348	42.4805	81.5349	42.4805	81.5318	42.4805	81.6565	42.4805	81.6547	42.4805	81.697
43.9453	79.366	43.9453	79.371	43.9453	79.3778	43.9453	79.3927	43.9453	79.4072	43.9453	79.4326	43.9453	79.456	43.9453	79.4934	43.9453	79.5269	43.9453	79.5795	43.9453	79.6232	43.9453	79.6962	43.9453	79.7491	43.9453	79.8493	43.9453	79.9085	43.9453	80.0434	43.9453	80.1044	43.9453	80.2798	43.9453	80.3376	43.9453	80.5547	43.9453	80.6047	43.9453	80.8581	43.9453	80.8972	43.9453	81.1742	43.9453	81.2016	43.9453	81.4838	43.9453	81.5004	43.9453	81.7668	43.9453	81.7751	43.9453	82.0053	43.9453	82.0082	43.9453	82.185	43.9453	82.1852	43.9453	82.2962	43.9453	82.2958	43.9453	82.3336
45.4102	80.4048	45.4102	80.4136	45.4102	80.4106	45.4102	80.4371	45.4102	80.4317	45.4102	80.4764	45.4102	80.4694	45.4102	80.5335	45.4102	80.5256	45.4102	80.6114	45.4102	80.6032	45.4102	80.714	45.4102	80.7053	45.4102	80.8453	45.4102	80.8352	45.4102	81.0084	45.4102	80.9957	45.4102	81.2046	45.4102	81.1877	45.4102	81.4311	45.4102	81.4094	45.4102	81.6807	45.4102	81.6544	45.4102	81.9415	45.4102	81.912	45.4102	82.1982	45.4102	82.1677	45.4102	82.4341	45.4102	82.4055	45.4102	82.6336	45.4102	82.6095	45.4102	82.7839	45.4102	82.7665	45.4102	82.8757	45.4102	82.8667	45.4102	82.9038
46.875	80.963	46.875	80.9739	46.875	80.9674	46.875	81.0002	46.875	80.9877	46.875	81.0431	46.875	81.0249	46.875	81.1041	46.875	81.0811	46.875	81.1857	46.875	81.1584	46.875	81.2905	46.875	81.2595	46.875	81.421	46.875	81.3867	46.875	81.5789	46.875	81.5417	46.875	81.7642	46.875	81.7245	46.875	81.9741	46.875	81.9327	46.875	82.2023	46.875	82.1604	46.875	82.4388	46.875	82.3979	46.875	82.6707	46.875	82.6325	46.875	82.8836	46.875	82.8502	46.875	83.0638	46.875	83.037	46.875	83.1997	46.875	83.1809	46.875	83.2826	46.875	83.273	46.875	83.3075
48.3398	81.5298	48.3398	81.5388	48.3398	81.5353	48.3398	81.5627	48.3398	81.556	48.3398	81.6025	48.3398	81.5933	48.3398	81.66	48.3398	81.6492	48.3398	81.7374	48.3398	81.7257	48.3398	81.8371	48.3398	81.825	48.3398	81.9611	48.3398	81.9485	48.3398	82.1107	48.3398	82.0968	48.3398	82.2852	48.3398	82.2691	48.3398	82.4815	48.3398	82.4625	48.3398	82.6937	48.3398	82.6715	48.3398	82.9126	48.3398	82.8878	48.3398	83.1263	48.3398	83.1005	48.3398	83.3221	48.3398	83.2975	48.3398	83.4877	48.3398	83.4666	48.3398	83.6124	48.3398	83.597	48.3398	83.6886	48.3398	83.6805	48.3398	83.7117
51.2695	82.5663	51.2695	82.5793	51.2695	82.5685	51.2695	82.6073	51.2695	82.5863	51.2695	82.6506	51.2695	82.6203	51.2695	82.7095	51.2695	82.6715	51.2695	82.7848	51.2695	82.7405	51.2695	82.8768	51.2695	82.828	51.2695	82.9859	51.2695	82.9341	51.2695	83.1116	51.2695	83.0582	51.2695	83.2529	51.2695	83.199	51.2695	83.4072	51.2695	83.3539	51.2695	83.5706	51.2695	83.5191	51.2695	83.7369	51.2695	83.6886	51.2695	83.8985	51.2695	83.8549	51.2695	84.0464	51.2695	84.0092	51.2695	84.1716	51.2695	84.1422	51.2695	84.2659	51.2695	84.2455	51.2695	84.323	51.2695	84.3125	51.2695	84.3389
52.7344	82.9525	52.7344	82.9611	52.7344	82.9578	52.7344	82.9837	52.7344	82.9773	52.7344	83.0206	52.7344	83.0115	52.7344	83.0728	52.7344	83.0614	52.7344	83.1407	52.7344	83.1276	52.7344	83.2251	52.7344	83.2106	52.7344	83.3259	52.7344	83.3103	52.7344	83.4428	52.7344	83.426	52.7344	83.5741	52.7344	83.5562	52.7344	83.7174	52.7344	83.6983	52.7344	83.8687	52.7344	83.8485	52.7344	84.0224	52.7344	84.0019	52.7344	84.1716	52.7344	84.1516	52.7344	84.3083	52.7344	84.29	52.7344	84.4243	52.7344	84.4091	52.7344	84.5121	52.7344	84.5012	52.7344	84.566	52.7344	84.5604	52.7344	84.5825
54.1992	83.281	54.1992	83.2892	54.1992	83.2867	54.1992	83.3113	54.1992	83.3065	54.1992	83.3477	54.1992	83.3409	54.1992	83.3987	54.1992	83.3905	54.1992	83.4648	54.1992	83.4558	54.1992	83.546	54.1992	83.5369	54.1992	83.6419	54.1992	83.6333	54.1992	83.7515	54.1992	83.7437	54.1992	83.8734	54.1992	83.8664	54.1992	84.0049	54.1992	83.9986	54.1992	84.1427	54.1992	84.1368	54.1992	84.2821	54.1992	84.2764	54.1992	84.4172	54.1992	84.4117	54.1992	84.5411	54.1992	84.5361	54.1992	84.6467	54.1992	84.6424	54.1992	84.7273	54.1992	84.7241	54.1992	84.7775	54.1992	84.7759	54.1992	84.7941
55.6641	83.6228	55.6641	83.6313	55.6641	83.6273	55.6641	83.6528	55.6641	83.6452	55.6641	83.6876	55.6641	83.6768	55.6641	83.7361	55.6641	83.7228	55.6641	83.7985	55.6641	83.7836	55.6641	83.8748	55.6641	83.859	55.6641	83.9645	55.6641	83.9485	55.6641	84.0665	55.6641	84.0507	55.6641	84.1789	55.6641	84.1636	55.6641	84.2993	55.6641	84.2846	55.6641	84.4244	55.6641	84.4105	55.6641	84.5501	55.6641	84.5372	55.6641	84.6712	55.6641	84.6596	55.6641	84.7819	55.6641	84.7719	55.6641	84.876	55.6641	84.868	55.6641	84.9476	55.6641	84.942	55.6641	84.992	55.6641	84.9892	55.6641	85.0062
58.5938	84.5134	58.5938	84.5232	58.5938	84.5137	58.5938	84.5431	58.5938	84.5248	58.5938	84.5737	58.5938	84.5474	58.5938	84.6156	58.5938	84.5828	58.5938	84.6694	58.5938	84.6321	58.5938	84.7353	58.5938	84.6957	58.5938	84.8128	58.5938	84.7733	58.5938	84.9007	58.5938	84.8633	58.5938	84.9971	58.5938	84.9633	58.5938	85.0995	58.5938	85.0701	58.5938	85.2049	58.5938	85.1803	58.5938	85.3098	58.5938	85.2899	58.5938	85.4104	58.5938	85.3946	58.5938	85.502	58.5938	85.49	58.5938	85.5798	58.5938	85.5712	58.5938	85.6392	58.5938	85.6336	58.5938	85.676	58.5938	85.6733	58.5938	85.6877
60.0586	84.7332	60.0586	84.7417	60.0586	84.7346	60.0586	84.7601	60.0586	84.7465	60.0586	84.7885	60.0586	84.7697	60.0586	84.8274	60.0586	84.8053	60.0586	84.8771	60.0586	84.854	60.0586	84.9377	60.0586	84.916	60.0586	85.0085	60.0586	84.9907	60.0586	85.0885	60.0586	85.0761	60.0586	85.176	60.0586	85.1697	60.0586	85.2688	60.0586	85.2684	60.0586	85.3643	60.0586	85.3687	60.0586	85.4595	60.0586	85.4673	60.0586	85.5511	60.0586	85.5605	60.0586	85.6351	60.0586	85.6445	60.0586	85.7072	60.0586	85.7152	60.0586	85.763	60.0586	85.7688	60.0586	85.7988	60.0586	85.8019	60.0586	85.8121
62.9883	85.2147	62.9883	85.2102	62.9883	85.2241	62.9883	85.2111	62.9883	85.2384	62.9883	85.2189	62.9883	85.2583	62.9883	85.2353	62.9883	85.2851	62.9883	85.262	62.9883	85.3198	62.9883	85.3	62.9883	85.3631	62.9883	85.3492	62.9883	85.4148	62.9883	85.4085	62.9883	85.4736	62.9883	85.4757	62.9883	85.5377	62.9883	85.5477	62.9883	85.6047	62.9883	85.6217	62.9883	85.672	62.9883	85.6948	62.9883	85.7374	62.9883	85.7642	62.9883	85.7989	62.9883	85.8272	62.9883	85.854	62.9883	85.881	62.9883	85.9003	62.9883	85.9227	62.9883	85.9352	62.9883	85.9501	62.9883	85.9561	62.9883	85.9614
64.4531	85.4677	64.4531	85.4641	64.4531	85.475	64.4531	85.4651	64.4531	85.4859	64.4531	85.4723	64.4531	85.501	64.4531	85.4874	64.4531	85.5215	64.4531	85.5117	64.4531	85.5486	64.4531	85.546	64.4531	85.5833	64.4531	85.5898	64.4531	85.6256	64.4531	85.6418	64.4531	85.6746	64.4531	85.6994	64.4531	85.7286	64.4531	85.7598	64.4531	85.7852	64.4531	85.8204	64.4531	85.842	64.4531	85.8788	64.4531	85.8968	64.4531	85.9331	64.4531	85.9477	64.4531	85.9815	64.4531	85.993	64.4531	86.0224	64.4531	86.0308	64.4531	86.0538	64.4531	86.0593	64.4531	86.074	64.4531	86.0767	64.4531	86.0818
67.3828	85.8879	67.3828	85.8887	67.3828	85.8892	67.3828	85.892	67.3828	85.8929	67.3828	85.8991	67.3828	85.9003	67.3828	85.9117	67.3828	85.913	67.3828	85.9313	67.3828	85.9329	67.3828	85.959	67.3828	85.9608	67.3828	85.9945	67.3828	85.9969	67.3828	86.0366	67.3828	86.0398	67.3828	86.083	67.3828	86.0873	67.3828	86.131	67.3828	86.1365	67.3828	86.1781	67.3828	86.1847	67.3828	86.2226	67.3828	86.2297	67.3828	86.2631	67.3828	86.2702	67.3828	86.2988	67.3828	86.3052	67.3828	86.3286	67.3828	86.3338	67.3828	86.3515	67.3828	86.3551	67.3828	86.3662	67.3828	86.3681	67.3828	86.3719
68.8477	86.0237	68.8477	86.0212	68.8477	86.0286	68.8477	86.0221	68.8477	86.036	68.8477	86.0278	68.8477	86.0468	68.8477	86.0401	68.8477	86.0622	68.8477	86.0607	68.8477	86.0838	68.8477	86.0905	68.8477	86.1128	68.8477	86.1292	68.8477	86.1494	68.8477	86.1752	68.8477	86.1925	68.8477	86.2262	68.8477	86.2403	68.8477	86.279	68.8477	86.29	68.8477	86.3309	68.8477	86.3392	68.8477	86.3797	68.8477	86.3856	68.8477	86.424	68.8477	86.4279	68.8477	86.4625	68.8477	86.4649	68.8477	86.4944	68.8477	86.4956	68.8477	86.5184	68.8477	86.5189	68.8477	86.5334	68.8477	86.5336	68.8477	86.5386
71.7773	86.3604	71.7773	86.3579	71.7773	86.3614	71.7773	86.355	71.7773	86.3614	71.7773	86.3534	71.7773	86.3618	71.7773	86.3557	71.7773	86.3649	71.7773	86.3644	71.7773	86.3731	71.7773	86.3813	71.7773	86.3887	71.7773	86.407	71.7773	86.4127	71.7773	86.4406	71.7773	86.4447	71.7773	86.4798	71.7773	86.4828	71.7773	86.5219	71.7773	86.5242	71.7773	86.5637	71.7773	86.5659	71.7773	86.6031	71.7773	86.6053	71.7773	86.6386	71.7773	86.6408	71.7773	86.6691	71.7773	86.6712	71.7773	86.6942	71.7773	86.6959	71.7773	86.7131	71.7773	86.7143	71.7773	86.7249	71.7773	86.7255	71.7773	86.7292
74.707	86.6308	74.707	86.6265	74.707	86.6311	74.707	86.6188	74.707	86.6281	74.707	86.6099	74.707	86.6239	74.707	86.6027	74.707	86.6214	74.707	86.6005	74.707	86.6238	74.707	86.6062	74.707	86.6336	74.707	86.6213	74.707	86.6521	74.707	86.6454	74.707	86.6789	74.707	86.6768	74.707	86.7121	74.707	86.7125	74.707	86.7484	74.707	86.7494	74.707	86.7845	74.707	86.7848	74.707	86.8177	74.707	86.817	74.707	86.8463	74.707	86.845	74.707	86.8694	74.707	86.8682	74.707	86.8869	74.707	86.8862	74.707	86.8988	74.707	86.8985	74.707	86.9048	74.707	86.9048
77.6367	86.8473	77.6367	86.8424	77.6367	86.845	77.6367	86.8315	77.6367	86.8363	77.6367	86.817	77.6367	86.8234	77.6367	86.8027	77.6367	86.8096	77.6367	86.7924	77.6367	86.7989	77.6367	86.7895	77.6367	86.7946	77.6367	86.7957	77.6367	86.7988	77.6367	86.811	77.6367	86.8121	77.6367	86.8335	77.6367	86.8329	77.6367	86.8603	77.6367	86.8585	77.6367	86.888	77.6367	86.8856	77.6367	86.914	77.6367	86.9116	77.6367	86.9368	77.6367	86.9344	77.6367	86.9555	77.6367	86.9535	77.6367	86.9701	77.6367	86.9685	77.6367	86.9806	77.6367	86.9794	77.6367	86.9868	77.6367	86.9862	77.6367	86.9887
79.1016	86.9758	79.1016	86.97	79.1016	86.9721	79.1016	86.9556	79.1016	86.9596	79.1016	86.9356	79.1016	86.9408	79.1016	86.9139	79.1016	86.9195	79.1016	86.8948	79.1016	86.8999	79.1016	86.8824	79.1016	86.8861	79.1016	86.8791	79.1016	86.8809	79.1016	86.8854	79.1016	86.8852	79.1016	86.8999	79.1016	86.8979	79.1016	86.9198	79.1016	86.9166	79.1016	86.9418	79.1016	86.9379	79.1016	86.9631	79.1016	86.9591	79.1016	86.9819	79.1016	86.978	79.1016	86.9973	79.1016	86.9939	79.1016	87.0092	79.1016	87.0064	79.1016	87.0175	79.1016	87.0155	79.1016	87.0224	79.1016	87.0213	79.1016	87.0236
82.0312	87.1632	82.0312	87.1539	82.0312	87.1583	82.0312	87.1322	82.0312	87.1402	82.0312	87.1016	82.0312	87.1119	82.0312	87.0671	82.0312	87.0782	82.0312	87.0346	82.0312	87.0446	82.0312	87.0089	82.0312	87.0168	82.0312	86.9936	82.0312	86.9986	82.0312	86.9896	82.0312	86.9921	82.0312	86.9959	82.0312	86.9964	82.0312	87.0093	82.0312	87.0089	82.0312	87.0262	82.0312	87.0259	82.0312	87.0434	82.0312	87.0438	82.0312	87.0587	82.0312	87.06	82.0312	87.0711	82.0312	87.0731	82.0312	87.0806	82.0312	87.0828	82.0312	87.0874	82.0312	87.0892	82.0312	87.0917	82.0312	87.0927	82.0312	87.0935
84.9609	87.5008	84.9609	87.4888	84.9609	87.4968	84.9609	87.4623	84.9609	87.4776	84.9609	87.4251	84.9609	87.4464	84.9609	87.3826	84.9609	87.4081	84.9609	87.3407	84.9609	87.3688	84.9609	87.305	84.9609	87.3341	84.9609	87.2798	84.9609	87.3087	84.9609	87.267	84.9609	87.295	84.9609	87.2662	84.9609	87.2931	84.9609	87.2752	84.9609	87.3007	84.9609	87.2906	84.9609	87.3145	84.9609	87.3091	84.9609	87.3309	84.9609	87.3278	84.9609	87.3471	84.9609	87.3451	84.9609	87.3613	84.9609	87.3599	84.9609	87.3725	84.9609	87.3716	84.9609	87.3801	84.9609	87.3797	84.9609	87.384	84.9609	87.3839
87.8906	87.755	87.8906	87.7418	87.8906	87.7476	87.8906	87.7094	87.8906	87.7209	87.8906	87.6622	87.8906	87.6789	87.8906	87.6066	87.8906	87.628	87.8906	87.5501	87.8906	87.5756	87.8906	87.5003	87.8906	87.5291	87.8906	87.4633	87.8906	87.495	87.8906	87.443	87.8906	87.4768	87.8906	87.4401	87.8906	87.4756	87.8906	87.4527	87.8906	87.4893	87.8906	87.4772	87.8906	87.5141	87.8906	87.5093	87.8906	87.5453	87.8906	87.5448	87.8906	87.5785	87.8906	87.5802	87.8906	87.6099	87.8906	87.6125	87.8906	87.6365	87.8906	87.6391	87.8906	87.656	87.8906	87.658	87.8906	87.6667	87.8906	87.6674
90.8203	88.0293	90.8203	88.0158	90.8203	88.0181	90.8203	87.9793	90.8203	87.9835	90.8203	87.9247	90.8203	87.9302	90.8203	87.8595	90.8203	87.8652	90.8203	87.792	90.8203	87.7971	90.8203	87.7308	90.8203	87.7347	90.8203	87.6832	90.8203	87.6852	90.8203	87.6534	90.8203	87.6534	90.8203	87.6427	90.8203	87.641	90.8203	87.6493	90.8203	87.6462	90.8203	87.6693	90.8203	87.6655	90.8203	87.698	90.8203	87.6939	90.8203	87.731	90.8203	87.7269	90.8203	87.7642	90.8203	87.7604	90.8203	87.7941	90.8203	87.7909	90.8203	87.8178	90.8203	87.8155	90.8203	87.8329	90.8203	87.8316	90.8203	87.8377
95.2148	88.1912	95.2148	88.1739	95.2148	88.1766	95.2148	88.1265	95.2148	88.1319	95.2148	88.0548	95.2148	88.0626	95.2148	87.9673	95.2148	87.9769	95.2148	87.8742	95.2148	87.8853	95.2148	87.7862	95.2148	87.7982	95.2148	87.7121	95.2148	87.7248	95.2148	87.6582	95.2148	87.6712	95.2148	87.6266	95.2148	87.6399	95.2148	87.616	95.2148	87.6295	95.2148	87.6223	95.2148	87.6359	95.2148	87.6405	95.2148	87.654	95.2148	87.6655	95.2148	87.6782	95.2148	87.6927	95.2148	87.7041	95.2148	87.7187	95.2148	87.728	95.2148	87.7402	95.2148	87.7468	95.2148	87.755	95.2148	87.7584	95.2148	87.7613
98.1445	88.247	98.1445	88.2242	98.1445	88.2328	98.1445	88.1671	98.1445	88.1836	98.1445	88.0822	98.1445	88.1051	98.1445	87.9791	98.1445	88.0067	98.1445	87.8695	98.1445	87.8998	98.1445	87.7654	98.1445	87.7964	98.1445	87.677	98.1445	87.7074	98.1445	87.6116	98.1445	87.6402	98.1445	87.5718	98.1445	87.5983	98.1445	87.5562	98.1445	87.5807	98.1445	87.5607	98.1445	87.5833	98.1445	87.5793	98.1445	87.6002	98.1445	87.6062	98.1445	87.6252	98.1445	87.6362	98.1445	87.6526	98.1445	87.6649	98.1445	87.6781	98.1445	87.6889	98.1445	87.6982	98.1445	87.7055	98.1445	87.7103	98.1445	87.7129
101.074	88.3161	101.074	88.2923	101.074	88.2986	101.074	88.2299	101.074	88.2419	101.074	88.1357	101.074	88.1524	101.074	88.0202	101.074	88.0399	101.074	87.8961	101.074	87.9172	101.074	87.7765	101.074	87.7976	101.074	87.673	101.074	87.6929	101.074	87.5938	101.074	87.6121	101.074	87.5426	101.074	87.5593	101.074	87.5186	101.074	87.5342	101.074	87.5176	101.074	87.5324	101.074	87.5333	101.074	87.5476	101.074	87.5593	101.074	87.5729	101.074	87.5898	101.074	87.602	101.074	87.6196	101.074	87.6297	101.074	87.6447	101.074	87.652	101.074	87.662	101.074	87.6657	101.074	87.6693
105.469	88.5313	105.469	88.5003	105.469	88.5119	105.469	88.4218	105.469	88.4442	105.469	88.3038	105.469	88.3351	105.469	88.1581	105.469	88.196	105.469	87.9993	105.469	88.0413	105.469	87.8431	105.469	87.8866	105.469	87.7036	105.469	87.7464	105.469	87.5913	105.469	87.6321	105.469	87.5118	105.469	87.5501	105.469	87.4653	105.469	87.5012	105.469	87.4478	105.469	87.4819	105.469	87.4529	105.469	87.4853	105.469	87.4732	105.469	87.5037	105.469	87.5018	105.469	87.5294	105.469	87.5326	105.469	87.5555	105.469	87.5602	105.469	87.5768	105.469	87.5805	105.469	87.5893	105.469	87.5906
108.398	88.4893	108.398	88.4563	108.398	88.4677	108.398	88.3722	108.398	88.3941	108.398	88.2456	108.398	88.2761	108.398	88.0898	108.398	88.1265	108.398	87.921	108.398	87.9613	108.398	87.7567	108.398	87.7978	108.398	87.6126	108.398	87.6523	108.398	87.5004	108.398	87.5372	108.398	87.426	108.398	87.4593	108.398	87.3892	108.398	87.4192	108.398	87.3849	108.398	87.4123	108.398	87.4051	108.398	87.4305	108.398	87.4409	108.398	87.4644	108.398	87.4838	108.398	87.505	108.398	87.5265	108.398	87.5443	108.398	87.5629	108.398	87.5759	108.398	87.5882	108.398	87.5951	108.398	87.5994
112.793	88.3277	112.793	88.298	112.793	88.2955	112.793	88.21	112.793	88.2048	112.793	88.0732	112.793	88.0653	112.793	87.9028	112.793	87.8921	112.793	87.7179	112.793	87.7043	112.793	87.5391	112.793	87.5225	112.793	87.3854	112.793	87.366	112.793	87.271	112.793	87.2492	112.793	87.2034	112.793	87.18	112.793	87.1825	112.793	87.1586	112.793	87.2019	112.793	87.1787	112.793	87.2509	112.793	87.2297	112.793	87.3175	112.793	87.2993	112.793	87.3898	112.793	87.3752	112.793	87.4574	112.793	87.4466	112.793	87.5117	112.793	87.5047	112.793	87.5462	112.793	87.5428	112.793	87.5571
117.188	88.2249	117.188	88.187	117.188	88.1914	117.188	88.0817	117.188	88.0902	117.188	87.9196	117.188	87.9316	117.188	87.7178	117.188	87.7321	117.188	87.4979	117.188	87.5129	117.188	87.2833	117.188	87.2971	117.188	87.096	117.188	87.1068	117.188	86.953	117.188	86.9596	117.188	86.8634	117.188	86.8657	117.188	86.8279	117.188	86.8269	117.188	86.8398	117.188	86.8371	117.188	86.8876	117.188	86.885	117.188	86.9577	117.188	86.9562	117.188	87.0365	117.188	87.0364	117.188	87.1118	117.188	87.1127	117.188	87.1735	117.188	87.1746	117.188	87.2138	117.188	87.2146	117.188	87.2281
120.117	88.5633	120.117	88.5194	120.117	88.5299	120.117	88.4029	120.117	88.4225	120.117	88.2264	120.117	88.2521	120.117	88.0089	120.117	88.0367	120.117	87.774	120.117	87.7993	120.117	87.5473	120.117	87.5654	120.117	87.3516	120.117	87.3592	120.117	87.2039	120.117	87.1996	120.117	87.1125	120.117	87.0975	120.117	87.0767	120.117	87.0542	120.117	87.0882	120.117	87.0628	120.117	87.1344	120.117	87.1107	120.117	87.2013	120.117	87.1827	120.117	87.2759	120.117	87.2635	120.117	87.3466	120.117	87.3399	120.117	87.4042	120.117	87.4015	120.117	87.4418	120.117	87.441	120.117	87.4547
124.512	88.8738	124.512	88.824	124.512	88.8409	124.512	88.6962	124.512	88.7287	124.512	88.5036	124.512	88.549	124.512	88.2661	124.512	88.3209	124.512	88.0091	124.512	88.0691	124.512	87.7602	124.512	87.8212	124.512	87.5454	124.512	87.6037	124.512	87.3849	124.512	87.438	124.512	87.2898	124.512	87.3367	124.512	87.261	124.512	87.3024	124.512	87.2906	124.512	87.328	124.512	87.3645	124.512	87.3998	124.512	87.4658	124.512	87.5	124.512	87.5774	124.512	87.6099	124.512	87.6837	124.512	87.7125	124.512	87.7719	124.512	87.7937	124.512	87.8318	124.512	87.8436	124.512	87.8567
128.906	88.895	128.906	88.849	128.906	88.8482	128.906	88.7152	128.906	88.7123	128.906	88.5071	128.906	88.4996	128.906	88.2458	128.906	88.2306	128.906	87.9583	128.906	87.9325	128.906	87.6744	128.906	87.6363	128.906	87.4233	128.906	87.373	128.906	87.2285	128.906	87.1683	128.906	87.1046	128.906	87.039	128.906	87.0553	128.906	86.99	128.906	87.0743	128.906	87.0147	128.906	87.1472	128.906	87.0976	128.906	87.2554	128.906	87.2177	128.906	87.3783	128.906	87.3525	128.906	87.4967	128.906	87.4811	128.906	87.594	128.906	87.5858	128.906	87.6574	128.906	87.6541	128.906	87.6785
133.301	88.9075	133.301	88.8629	133.301	88.8527	133.301	88.7239	133.301	88.7025	133.301	88.5042	133.301	88.4695	133.301	88.2252	133.301	88.1743	133.301	87.9143	133.301	87.8441	133.301	87.602	133.301	87.5099	133.301	87.3174	133.301	87.2032	133.301	87.0843	133.301	86.9506	133.301	86.9177	133.301	86.7706	133.301	86.8222	133.301	86.6708	133.301	86.7932	133.301	86.6475	133.301	86.819	133.301	86.6881	133.301	86.8835	133.301	86.7736	133.301	86.9684	133.301	86.8823	133.301	87.0554	133.301	86.9933	133.301	87.1281	133.301	87.0884	133.301	87.1737	133.301	87.1544	133.301	87.1836
139.16	88.5278	139.16	88.4711	139.16	88.4768	139.16	88.3126	139.16	88.3224	139.16	88.0683	139.16	88.0788	139.16	87.7633	139.16	87.7696	139.16	87.4298	139.16	87.4264	139.16	87.1034	139.16	87.0849	139.16	86.8181	139.16	86.7807	139.16	86.6005	139.16	86.5432	139.16	86.4652	139.16	86.39	139.16	86.4131	139.16	86.3252	139.16	86.4335	139.16	86.3399	139.16	86.5082	139.16	86.4162	139.16	86.6155	139.16	86.5316	139.16	86.7339	139.16	86.6632	139.16	86.8444	139.16	86.7899	139.16	86.9316	139.16	86.895	139.16	86.9847	139.16	86.9663	139.16	86.997
143.555	88.4943	143.555	88.4274	143.555	88.436	143.555	88.2421	143.555	88.2571	143.555	87.9559	143.555	87.9734	143.555	87.5971	143.555	87.6115	143.555	87.2023	143.555	87.2075	143.555	86.8135	143.555	86.8037	143.555	86.4717	143.555	86.4434	143.555	86.2101	143.555	86.1632	143.555	86.0482	143.555	85.9864	143.555	85.9887	143.555	85.9186	143.555	86.019	143.555	85.9483	143.555	86.1165	143.555	86.0519	143.555	86.2536	143.555	86.1996	143.555	86.4036	143.555	86.362	143.555	86.5429	143.555	86.5136	143.555	86.6537	143.555	86.6353	143.555	86.7233	143.555	86.7146	143.555	86.7445
147.949	88.6975	147.949	88.6263	147.949	88.6361	147.949	88.4297	147.949	88.4465	147.949	88.1263	147.949	88.1444	147.949	87.7452	147.949	87.7573	147.949	87.3246	147.949	87.3226	147.949	86.9085	147.949	86.8854	147.949	86.5414	147.949	86.4926	147.949	86.2613	147.949	86.1865	147.949	86.0931	147.949	85.9965	147.949	86.0443	147.949	85.9346	147.949	86.1052	147.949	85.9933	147.949	86.2518	147.949	86.1484	147.949	86.452	147.949	86.365	147.949	86.671	147.949	86.6041	147.949	86.8763	147.949	86.8296	147.949	87.0411	147.949	87.0123	147.949	87.1455	147.949	87.132	147.949	87.1773
153.809	88.7676	153.809	88.689	153.809	88.7032	153.809	88.4745	153.809	88.5003	153.809	88.1429	153.809	88.1757	153.809	87.7244	153.809	87.7574	153.809	87.2591	153.809	87.2844	153.809	86.7938	153.809	86.8034	153.809	86.376	153.809	86.363	153.809	86.0465	153.809	86.0064	153.809	85.8322	153.809	85.764	153.809	85.742	153.809	85.6489	153.809	85.7674	153.809	85.6569	153.809	85.8869	153.809	85.7695	153.809	86.0702	153.809	85.9576	153.809	86.2828	153.809	86.1856	153.809	86.4902	153.809	86.4152	153.809	86.6609	153.809	86.6111	153.809	86.7697	153.809	86.7451	153.809	86.7998
159.668	88.3856	159.668	88.3004	159.668	88.3159	159.668	88.0687	159.668	88.0965	159.668	87.7122	159.668	87.7462	159.668	87.2659	159.668	87.2973	159.668	86.7763	159.668	86.7948	159.668	86.2974	159.668	86.2924	159.668	85.8832	159.668	85.8459	159.668	85.5776	159.668	85.5033	159.668	85.4054	159.668	85.2946	159.668	85.3679	159.668	85.2262	159.668	85.4448	159.668	85.2815	159.668	85.6018	159.668	85.4282	159.668	85.7992	159.668	85.6279	159.668	86.0006	159.668	85.8441	159.668	86.1766	159.668	86.047	159.668	86.3069	159.668	86.2144	159.668	86.3792	159.668	86.331	159.668	86.3874
165.527	88.1063	165.527	88.0107	165.527	88.0311	165.527	87.7515	165.527	87.7911	165.527	87.35	165.527	87.4058	165.527	86.842	165.527	86.908	165.527	86.2776	165.527	86.3437	165.527	85.7178	165.527	85.7703	165.527	85.2269	165.527	85.2511	165.527	84.8627	165.527	84.846	165.527	84.6642	165.527	84.6003	165.527	84.6435	165.527	84.534	165.527	84.7827	165.527	84.6369	165.527	85.0397	165.527	84.8718	165.527	85.3587	165.527	85.1849	165.527	85.6839	165.527	85.5202	165.527	85.9688	165.527	85.8301	165.527	86.1811	165.527	86.0803	165.527	86.3025	165.527	86.2494	165.527	86.3253
171.387	88.6078	171.387	88.524	171.387	88.5184	171.387	88.2742	171.387	88.2629	171.387	87.8808	171.387	87.8631	171.387	87.3798	171.387	87.3551	171.387	86.8202	171.387	86.7875	171.387	86.2591	171.387	86.2172	171.387	85.756	171.387	85.7028	171.387	85.3632	171.387	85.2952	171.387	85.1183	171.387	85.0303	171.387	85.038	171.387	84.9249	171.387	85.1164	171.387	84.9767	171.387	85.3258	171.387	85.1647	171.387	85.6214	171.387	85.4512	171.387	85.9495	171.387	85.787	171.387	86.2571	171.387	86.1192	171.387	86.5	171.387	86.4005	171.387	86.6468	171.387	86.5948	171.387	86.6798
177.246	88.6444	177.246	88.5368	177.246	88.5585	177.246	88.2442	177.246	88.2854	177.246	87.7902	177.246	87.8462	177.246	87.2134	177.246	87.2781	177.246	86.5668	177.246	86.6334	177.246	85.9149	177.246	85.9775	177.246	85.326	177.246	85.382	177.246	84.8628	177.246	84.9132	177.246	84.5709	177.246	84.6199	177.246	84.472	177.246	84.5227	177.246	84.5602	177.246	84.6112	177.246	84.8037	177.246	84.849	177.246	85.1506	177.246	85.1827	177.246	85.5384	177.246	85.5537	177.246	85.9061	177.246	85.9069	177.246	86.2025	177.246	86.1961	177.246	86.392	177.246	86.3862	177.246	86.4547
183.105	88.4569	183.105	88.355	183.105	88.3596	183.105	88.0642	183.105	88.0684	183.105	87.6104	183.105	87.6051	183.105	87.0353	183.105	87.0091	183.105	86.3959	183.105	86.3368	183.105	85.7605	183.105	85.6586	183.105	85.201	183.105	85.0505	183.105	84.7798	183.105	84.5817	183.105	84.5385	183.105	84.3023	183.105	84.49	183.105	84.2343	183.105	84.6193	183.105	84.3679	183.105	84.8892	183.105	84.6646	183.105	85.2483	183.105	85.0646	183.105	85.6388	183.105	85.5002	183.105	86.0048	183.105	85.9082	183.105	86.2983	183.105	86.2381	183.105	86.4836	183.105	86.4548	183.105	86.5385
188.965	88.379	188.965	88.2555	188.965	88.2855	188.965	87.9246	188.965	87.9818	188.965	87.4118	188.965	87.4908	188.965	86.7604	188.965	86.8537	188.965	86.0314	188.965	86.1289	188.965	85.3011	188.965	85.3903	188.965	84.6536	188.965	84.7192	188.965	84.1668	188.965	84.1929	188.965	83.8967	188.965	83.871	188.965	83.8648	188.965	83.7849	188.965	84.0546	188.965	83.931	188.965	84.417	188.965	84.2704	188.965	84.8827	188.965	84.7361	188.965	85.3768	188.965	85.2481	188.965	85.8306	188.965	85.7302	188.965	86.1889	188.965	86.1212	188.965	86.4124	188.965	86.3785	188.965	86.4782
196.289	88.2089	196.289	88.0892	196.289	88.0973	196.289	87.7475	196.289	87.7616	196.289	87.2104	196.289	87.2259	196.289	86.5232	196.289	86.5329	196.289	85.7506	196.289	85.7446	196.289	84.9743	196.289	84.9401	196.289	84.2835	196.289	84.2083	196.289	83.7605	196.289	83.6339	196.289	83.465	196.289	83.2814	196.289	83.4229	196.289	83.1841	196.289	83.6218	196.289	83.3384	196.289	84.0137	196.289	83.7058	196.289	84.5244	196.289	84.2186	196.289	85.0694	196.289	84.793	196.289	85.5692	196.289	85.3449	196.289	85.9595	196.289	85.8028	196.289	86.1948	196.289	86.1145	196.289	86.249
203.613	88.0935	203.613	87.9488	203.613	87.975	203.613	87.551	203.613	87.6009	203.613	86.9289	203.613	86.9974	203.613	86.132	203.613	86.2124	203.613	85.2321	203.613	85.3166	203.613	84.3212	203.613	84.4023	203.613	83.5017	203.613	83.5741	203.613	82.8697	203.613	82.9327	203.613	82.4966	203.613	82.5552	203.613	82.4158	203.613	82.4792	203.613	82.6178	203.613	82.6934	203.613	83.0511	203.613	83.1394	203.613	83.6333	203.613	83.7266	203.613	84.2677	203.613	84.3549	203.613	84.8625	203.613	84.9337	203.613	85.3429	203.613	85.3923	203.613	85.6564	203.613	85.6814	203.613	85.7726
210.938	88.6671	210.938	88.5251	210.938	88.5289	210.938	88.1131	210.938	88.1183	210.938	87.4598	210.938	87.4618	210.938	86.6147	210.938	86.6062	210.938	85.6489	210.938	85.6195	210.938	84.6534	210.938	84.5888	210.938	83.7309	210.938	83.6133	210.938	82.9808	210.938	82.794	210.938	82.4823	210.938	82.2214	210.938	82.2795	210.938	81.9617	210.938	82.3725	210.938	82.038	210.938	82.7157	210.938	82.4126	210.938	83.2287	210.938	82.9916	210.938	83.8149	210.938	83.6543	210.938	84.3806	210.938	84.2864	210.938	84.8453	210.938	84.7983	210.938	85.1479	210.938	85.1298	210.938	85.2485
218.262	88.2817	218.262	88.1391	218.262	88.1357	218.262	87.7189	218.262	87.7108	218.262	87.0532	218.262	87.0369	218.262	86.1974	218.262	86.1656	218.262	85.2311	218.262	85.1717	218.262	84.255	218.262	84.151	218.262	83.381	218.262	83.2121	218.262	82.714	218.262	82.4602	218.262	82.3321	218.262	81.9797	218.262	82.2705	218.262	81.8225	218.262	82.5122	218.262	81.9963	218.262	82.9898	218.262	82.4532	218.262	83.602	218.262	83.0955	218.262	84.241	218.262	83.8048	218.262	84.8141	218.262	84.4735	218.262	85.2521	218.262	85.0205	218.262	85.5089	218.262	85.3921	218.262	85.5583
225.586	87.9314	225.586	87.7504	225.586	87.7964	225.586	87.2638	225.586	87.356	225.586	86.5044	225.586	86.6419	225.586	85.5306	225.586	85.7096	225.586	84.429	225.586	84.6394	225.586	83.3122	225.586	83.5343	225.586	82.3097	225.586	82.5113	225.586	81.5488	225.586	81.6854	225.586	81.1355	225.586	81.1601	225.586	81.1337	225.586	81.0182	225.586	81.5394	225.586	81.2972	225.586	82.2658	225.586	81.9478	225.586	83.1669	225.586	82.8333	225.586	84.0881	225.586	83.7848	225.586	84.9035	225.586	84.6584	225.586	85.5255	225.586	85.3545	225.586	85.8996	225.586	85.8119	225.586	85.9976
232.91	88.1908	232.91	88.003	232.91	88.0468	232.91	87.4964	232.91	87.5776	232.91	86.7045	232.91	86.809	232.91	85.683	232.91	85.7886	232.91	84.5108	232.91	84.5877	232.91	83.2859	232.91	83.3022	232.91	82.1166	232.91	82.0445	232.91	81.1069	232.91	80.9312	232.91	80.3506	232.91	80.0768	232.91	79.9389	232.91	79.6032	232.91	79.9588	232.91	79.6245	232.91	80.4412	232.91	80.1653	232.91	81.2955	232.91	81.0937	232.91	82.3252	232.91	82.181	232.91	83.3193	232.91	83.2143	232.91	84.1172	232.91	84.0448	232.91	84.6206	232.91	84.5827	232.91	84.7802
241.699	88.5259	241.699	88.323	241.699	88.3816	241.699	87.7864	241.699	87.8929	241.699	86.9456	241.699	87.0829	241.699	85.8502	241.699	86.0024	241.699	84.5762	241.699	84.7385	241.699	83.232	241.699	83.4149	241.699	81.9539	241.699	82.1728	241.699	80.8828	241.699	81.1307	241.699	80.1337	241.699	80.3551	241.699	79.7813	241.699	79.8826	241.699	79.856	241.699	79.7672	241.699	80.3281	241.699	80.0714	241.699	81.0952	241.699	80.7751	241.699	82.0047	241.699	81.7231	241.699	82.8955	241.699	82.6966	241.699	83.6287	241.699	83.511	241.699	84.1013	241.699	84.0484	241.699	84.2497
250.488	88.3221	250.488	88.0886	250.488	88.178	250.488	87.4836	250.488	87.6737	250.488	86.5395	250.488	86.8504	250.488	85.3227	250.488	85.7766	250.488	83.9425	250.488	84.549	250.488	82.5503	250.488	83.2872	250.488	81.3133	250.488	82.116	250.488	80.3643	250.488	81.138	250.488	79.7688	250.488	80.4174	250.488	79.5416	250.488	79.9875	250.488	79.6696	250.488	79.87	250.488	80.1041	250.488	80.0711	250.488	80.7523	250.488	80.5569	250.488	81.4956	250.488	81.2359	250.488	82.2159	250.488	81.9739	250.488	82.8067	250.488	82.6302	250.488	83.1816	250.488	83.0904	250.488	83.2826
259.277	88.9119	259.277	88.6569	259.277	88.7783	259.277	88.0231	259.277	88.2666	259.277	87.0447	259.277	87.4081	259.277	85.7876	259.277	86.2586	259.277	84.3561	259.277	84.9047	259.277	82.8904	259.277	83.4647	259.277	81.543	259.277	82.0779	259.277	80.4417	259.277	80.8749	259.277	79.674	259.277	79.9515	259.277	79.3028	259.277	79.3733	259.277	79.3637	259.277	79.1957	259.277	79.821	259.277	79.4481	259.277	80.5526	259.277	80.0815	259.277	81.3998	259.277	80.9523	259.277	82.2173	259.277	81.8706	259.277	82.8855	259.277	82.6626	259.277	83.3101	259.277	83.2039	259.277	83.4255
268.066	88.9539	268.066	88.7461	268.066	88.7771	268.066	88.1683	268.066	88.2208	268.066	87.2558	268.066	87.3129	268.066	86.0681	268.066	86.111	268.066	84.6949	268.066	84.7122	268.066	83.2591	268.066	83.2605	268.066	81.9085	268.066	81.9294	268.066	80.7898	268.066	80.8709	268.066	80.0278	268.066	80.1707	268.066	79.7287	268.066	79.869	268.066	79.9621	268.066	79.9997	268.066	80.6792	268.066	80.5539	268.066	81.6869	268.066	81.4206	268.066	82.7501	268.066	82.4168	268.066	83.6891	268.066	83.3684	268.066	84.3955	268.066	84.1494	268.066	84.8102	268.066	84.6779	268.066	84.9054
276.855	88.4381	276.855	88.1898	276.855	88.2414	276.855	87.5002	276.855	87.6146	276.855	86.3953	276.855	86.5935	276.855	84.935	276.855	85.2417	276.855	83.2322	276.855	83.6615	276.855	81.4704	276.855	81.9997	276.855	79.8822	276.855	80.4322	276.855	78.6577	276.855	79.1147	276.855	77.8717	276.855	78.1429	276.855	77.562	276.855	77.5943	276.855	77.8258	276.855	77.6075	276.855	78.7045	276.855	78.3035	276.855	80.0187	276.855	79.5691	276.855	81.4608	276.855	81.0721	276.855	82.7726	276.855	82.489	276.855	83.7911	276.855	83.6134	276.855	84.4209	276.855	84.3366	276.855	84.6094
287.109	88.3346	287.109	88.0821	287.109	88.0997	287.109	87.3717	287.109	87.3747	287.109	86.2659	287.109	86.1848	287.109	84.868	287.109	84.5956	287.109	83.3212	287.109	82.7388	287.109	81.7872	287.109	80.8388	287.109	80.4046	287.109	79.1894	287.109	79.2493	287.109	78.0161	287.109	78.3358	287.109	77.3488	287.109	77.6892	287.109	77.1193	287.109	77.4601	287.109	77.3331	287.109	77.9115	287.109	78.0391	287.109	79.0871	287.109	79.1636	287.109	80.6179	287.109	80.488	287.109	82.0581	287.109	81.7765	287.109	83.1435	287.109	82.8508	287.109	83.7688	287.109	83.5892	287.109	83.9112
297.363	88.3606	297.363	88.0706	297.363	88.1591	297.363	87.2951	297.363	87.4833	297.363	86.0615	297.363	86.3803	297.363	84.4248	297.363	84.936	297.363	82.4918	297.363	83.2811	297.363	80.4628	297.363	81.5795	297.363	78.6453	297.363	79.983	297.363	77.3401	297.363	78.5731	297.363	76.6576	297.363	77.3662	297.363	76.5379	297.363	76.4166	297.363	76.8977	297.363	75.9321	297.363	77.6489	297.363	76.2116	297.363	78.6833	297.363	77.3	297.363	79.8853	297.363	78.8481	297.363	81.1025	297.363	80.4237	297.363	82.1355	297.363	81.7315	297.363	82.7973	297.363	82.607	297.363	82.969
307.617	88.1466	307.617	87.8237	307.617	87.9467	307.617	86.9794	307.617	87.2407	307.617	85.6397	307.617	86.0652	307.617	83.8738	307.617	84.4881	307.617	81.8299	307.617	82.635	307.617	79.7747	307.617	80.7262	307.617	78.0516	307.617	79.0679	307.617	76.8792	307.617	77.8951	307.617	76.2283	307.617	77.1931	307.617	76.0297	307.617	76.8376	307.617	76.3813	307.617	76.898	307.617	77.4106	307.617	77.6279	307.617	78.9823	307.617	79.0462	307.617	80.7416	307.617	80.7785	307.617	82.3646	307.617	82.4107	307.617	83.6446	307.617	83.6898	307.617	84.4616	307.617	84.4891	307.617	84.751
319.336	87.5547	319.336	87.1954	319.336	87.3655	319.336	86.3053	319.336	86.6311	319.336	84.9282	319.336	85.3819	319.336	83.1531	319.336	83.6959	319.336	81.1558	319.336	81.7427	319.336	79.2327	319.336	79.8305	319.336	77.7074	319.336	78.3343	319.336	76.67	319.336	77.4093	319.336	75.933	319.336	76.8653	319.336	75.3546	319.336	76.4589	319.336	75.104	319.336	76.1754	319.336	75.5919	319.336	76.3008	319.336	76.9778	319.336	77.2038	319.336	78.8888	319.336	78.8265	319.336	80.8019	319.336	80.6628	319.336	82.3495	319.336	82.2328	319.336	83.3286	319.336	83.2663	319.336	83.6431
329.59	87.5027	329.59	87.2475	329.59	87.16	329.59	86.3982	329.59	86.2429	329.59	84.9924	329.59	84.8084	329.59	83.1217	329.59	82.9646	329.59	80.9709	329.59	80.9019	329.59	78.8599	329.59	78.9144	329.59	77.1821	329.59	77.3164	329.59	76.1343	329.59	76.225	329.59	75.5635	329.59	75.5117	329.59	75.2592	329.59	75.094	329.59	75.2735	329.59	75.1748	329.59	75.879	329.59	76.0351	329.59	77.1829	329.59	77.5607	329.59	78.924	329.59	79.3278	329.59	80.7028	329.59	80.9894	329.59	82.1855	329.59	82.3326	329.59	83.1531	329.59	83.2058	329.59	83.4982
341.309	87.354	341.309	86.9721	341.309	87.0564	341.309	85.9186	341.309	86.0901	341.309	84.2266	341.309	84.4941	341.309	81.9885	341.309	82.3671	341.309	79.4502	341.309	79.943	341.309	77.1332	341.309	77.6875	341.309	75.6077	341.309	76.1457	341.309	74.8242	341.309	75.3715	341.309	74.3089	341.309	74.9061	341.309	73.9514	341.309	74.4273	341.309	74.2205	341.309	74.1273	341.309	75.5759	341.309	74.7013	341.309	77.6627	341.309	76.4942	341.309	79.8262	341.309	78.8692	341.309	81.7053	341.309	81.1002	341.309	83.1429	341.309	82.8282	341.309	84.039	341.309	83.9136	341.309	84.3133
353.027	88.1289	353.027	87.8072	353.027	87.755	353.027	86.8075	353.027	86.699	353.027	85.1888	353.027	85.0095	353.027	83.0846	353.027	82.7976	353.027	80.7663	353.027	80.2985	353.027	78.6759	353.027	77.9262	353.027	77.1791	353.027	76.0873	353.027	76.1191	353.027	74.7246	353.027	74.9379	353.027	73.343	353.027	73.1654	353.027	71.5962	353.027	71.046	353.027	70.2579	353.027	71.2679	353.027	71.6707	353.027	74.7506	353.027	75.0473	353.027	78.3801	353.027	78.343	353.027	81.2396	353.027	81.0604	353.027	83.272	353.027	83.0948	353.027	84.4743	353.027	84.3718	353.027	84.8397
366.211	87.6802	366.211	87.1376	366.211	87.5117	366.211	85.9067	366.211	86.6324	366.211	84.0457	366.211	85.0703	366.211	81.6861	366.211	82.9143	366.211	79.1141	366.211	80.4102	366.211	76.8537	366.211	78.1248	366.211	75.4279	366.211	76.7796	366.211	74.7508	366.211	76.3635	366.211	74.2245	366.211	76.1248	366.211	73.363	366.211	75.4227	366.211	72.0947	366.211	73.8684	366.211	71.204	366.211	71.3144	366.211	72.3275	366.211	69.5388	366.211	75.1788	366.211	72.5481	366.211	78.1133	366.211	76.6245	366.211	80.3703	366.211	79.5859	366.211	81.7157	366.211	81.3726	366.211	82.0652
379.395	87.4298	379.395	87.0585	379.395	87.0143	379.395	85.9074	379.395	85.812	379.395	83.9914	379.395	83.8415	379.395	81.3591	379.395	81.1828	379.395	78.2253	379.395	78.1377	379.395	75.3993	379.395	75.5756	379.395	74.2689	379.395	74.5776	379.395	74.6042	379.395	74.7957	379.395	74.9925	379.395	75.1704	379.395	74.7354	379.395	75.1617	379.395	73.5924	379.395	74.551	379.395	71.5218	379.395	73.1989	379.395	69.5786	379.395	71.2265	379.395	71.4286	379.395	70.8353	379.395	75.4466	379.395	74.2356	379.395	78.5905	379.395	77.8131	379.395	80.4112	379.395	80.0564	379.395	80.9041
392.578	86.7257	392.578	86.2434	392.578	86.3044	392.578	84.8283	392.578	84.9981	392.578	82.4494	392.578	82.8468	392.578	79.1847	392.578	80.0282	392.578	75.7513	392.578	77.1954	392.578	74.1314	392.578	75.6305	392.578	74.5843	392.578	75.6295	392.578	75.3478	392.578	76.1021	392.578	75.7562	392.578	76.3241	392.578	75.7261	392.578	76.064	392.578	75.2569	392.578	75.3157	392.578	74.3813	392.578	74.2217	392.578	73.2641	392.578	72.9983	392.578	72.8022	392.578	72.3434	392.578	74.4819	392.578	73.8548	392.578	77.1626	392.578	76.6965	392.578	79.0632	392.578	78.8375	392.578	79.6503
405.762	87.2868	405.762	86.6529	405.762	86.9834	405.762	85.0843	405.762	85.7713	405.762	82.6595	405.762	83.7278	405.762	79.73	405.762	81.0854	405.762	77.3277	405.762	78.5144	405.762	76.5493	405.762	77.1192	405.762	76.7944	405.762	77.0405	405.762	77.0276	405.762	77.3249	405.762	76.8404	405.762	77.3553	405.762	76.1428	405.762	76.952	405.762	75.0517	405.762	76.1298	405.762	74.0059	405.762	75.0407	405.762	73.6975	405.762	73.9994	405.762	74.6062	405.762	73.7691	405.762	76.5774	405.762	75.324	405.762	78.7352	405.762	77.8231	405.762	80.2158	405.762	79.775	405.762	80.6027
420.41	87.5673	420.41	87.0731	420.41	87.1453	420.41	85.679	420.41	85.8026	420.41	83.4385	420.41	83.5696	420.41	80.57	420.41	80.6335	420.41	77.8302	420.41	77.7134	420.41	76.4825	420.41	76.1531	420.41	76.4835	420.41	76.1009	420.41	76.7003	420.41	76.432	420.41	76.5215	420.41	76.5393	420.41	75.7321	420.41	76.3058	420.41	74.3625	420.41	75.8663	420.41	73.0175	420.41	75.5156	420.41	72.8062	420.41	75.3192	420.41	73.908	420.41	75.0774	420.41	75.8509	420.41	75.3629	420.41	78.0192	420.41	77.0558	420.41	79.5598	420.41	79.0009	420.41	79.9372
435.059	88.7932	435.059	88.2439	435.059	88.2989	435.059	86.6812	435.059	86.7362	435.059	84.1954	435.059	84.1001	435.059	81.1623	435.059	80.544	435.059	78.6669	435.059	76.9243	435.059	77.7086	435.059	75.0451	435.059	77.5971	435.059	74.8761	435.059	77.4918	435.059	75.0212	435.059	77.1978	435.059	74.987	435.059	76.6643	435.059	74.6405	435.059	75.7574	435.059	73.9791	435.059	74.3079	435.059	73.4618	435.059	72.1535	435.059	73.8173	435.059	69.6358	435.059	74.7121	435.059	70.5194	435.059	75.4607	435.059	74.4286	435.059	76.3095	435.059	77.0572	435.059	77.4018	435.059	77.9183
451.172	88.5944	451.172	88.1525	451.172	87.9653	451.172	86.6569	451.172	86.2443	451.172	84.1401	451.172	83.4568	451.172	80.78	451.172	79.9672	451.172	77.4155	451.172	77.2698	451.172	75.8766	451.172	76.7797	451.172	76.185	451.172	77.205	451.172	76.7198	451.172	77.4776	451.172	76.7846	451.172	77.3785	451.172	76.1684	451.172	76.7158	451.172	74.8057	451.172	75.1065	451.172	73.2564	451.172	72.0692	451.172	73.2646	451.172	68.6131	451.172	74.7181	451.172	70.6034	451.172	75.9509	451.172	74.2287	451.172	76.8245	451.172	76.6077	451.172	77.6673	451.172	77.8906	451.172	78.182
465.82	87.8668	465.82	87.0766	465.82	87.5033	465.82	85.0928	465.82	86.0386	465.82	81.9075	465.82	83.5524	465.82	77.8252	465.82	80.2693	465.82	74.969	465.82	77.2535	465.82	75.6487	465.82	76.7455	465.82	77.1044	465.82	77.9295	465.82	77.8713	465.82	78.7526	465.82	77.8691	465.82	78.7248	465.82	77.1542	465.82	77.8988	465.82	75.8034	465.82	76.5023	465.82	74.2777	465.82	74.9663	465.82	73.95	465.82	73.6487	465.82	75.3599	465.82	72.6539	465.82	77.3096	465.82	73.5332	465.82	79.1056	465.82	76.6776	465.82	80.3318	465.82	79.3276	465.82	80.5203
483.398	87.8266	483.398	87.0875	483.398	87.458	483.398	85.1902	483.398	85.914	483.398	82.0098	483.398	83.0071	483.398	77.8907	483.398	78.7141	483.398	76.1374	483.398	75.8032	483.398	77.8386	483.398	77.4666	483.398	79.3071	483.398	79.1492	483.398	79.9146	483.398	79.7139	483.398	79.7906	483.398	79.4027	483.398	78.9041	483.398	78.3733	483.398	77.0714	483.398	76.6768	483.398	74.2125	483.398	74.5514	483.398	71.4979	483.398	73.0641	483.398	71.8926	483.398	73.2913	483.398	74.081	483.398	74.42	483.398	76.152	483.398	75.8862	483.398	77.628	483.398	77.3644	483.398	78.0826
499.512	87.0328	499.512	86.355	499.512	86.3203	499.512	84.2422	499.512	84.1909	499.512	80.6628	499.512	80.6565	499.512	76.4671	499.512	76.7328	499.512	75.3231	499.512	75.9073	499.512	76.7432	499.512	77.2988	499.512	77.8569	499.512	78.4328	499.512	78.3648	499.512	79.1319	499.512	78.3863	499.512	79.475	499.512	78.0039	499.512	79.3138	499.512	77.2698	499.512	78.3139	499.512	76.137	499.512	76.1139	499.512	74.4962	499.512	73.0757	499.512	72.9005	499.512	72.43	499.512	73.4421	499.512	74.4053	499.512	75.6793	499.512	76.0766	499.512	77.3174	499.512	77.2225	499.512	77.7662
517.09	86.0188	517.09	85.0629	517.09	85.6014	517.09	82.8311	517.09	83.7628	517.09	79.6591	517.09	80.6225	517.09	76.97	517.09	77.3779	517.09	76.8685	517.09	76.8655	517.09	78.0809	517.09	78.1172	517.09	78.988	517.09	79.0837	517.09	79.3232	517.09	79.4718	517.09	79.1037	517.09	79.3067	517.09	78.2743	517.09	78.5481	517.09	76.8353	517.09	77.2218	517.09	75.3502	517.09	75.732	517.09	74.8116	517.09	74.7669	517.09	74.9059	517.09	74.3945	517.09	75.3887	517.09	74.7822	517.09	77.033	517.09	76.5776	517.09	78.8398	517.09	78.5956	517.09	79.4723
536.133	85.5536	536.133	84.7469	536.133	84.6935	536.133	82.2279	536.133	82.1861	536.133	78.19	536.133	78.2912	536.133	75.0687	536.133	75.2533	536.133	76.1361	536.133	75.9825	536.133	78.0989	536.133	77.6045	536.133	79.5174	536.133	78.7518	536.133	80.3053	536.133	79.4463	536.133	80.4077	536.133	79.6926	536.133	79.7514	536.133	79.3434	536.133	78.2097	536.133	78.1193	536.133	75.7079	536.133	75.9043	536.133	73.4825	536.133	74.307	536.133	74.3279	536.133	75.5641	536.133	76.1114	536.133	77.0951	536.133	77.3019	536.133	77.8849	536.133	78.2627	536.133	78.4912	536.133	78.7557
555.176	85.2805	555.176	84.0877	555.176	84.74	555.176	81.0784	555.176	82.5554	555.176	76.7272	555.176	79.1434	555.176	74.7512	555.176	76.6754	555.176	76.2115	555.176	77.2069	555.176	77.6265	555.176	78.583	555.176	78.6416	555.176	79.7091	555.176	79.3435	555.176	80.4182	555.176	79.5758	555.176	80.5523	555.176	79.0279	555.176	79.9434	555.176	77.3338	555.176	78.3715	555.176	74.6409	555.176	75.5326	555.176	73.7785	555.176	71.6182	555.176	75.7187	555.176	71.4578	555.176	77.4385	555.176	75.5272	555.176	78.9519	555.176	78.7082	555.176	80.397	555.176	80.5428	555.176	81.0757
574.219	86.1783	574.219	85.3035	574.219	85.5369	574.219	83.1675	574.219	83.3457	574.219	80.6013	574.219	80.0227	574.219	79.0177	574.219	77.6259	574.219	78.5925	574.219	77.458	574.219	78.5124	574.219	77.753	574.219	78.8475	574.219	78.3602	574.219	79.8178	574.219	79.5409	574.219	80.8602	574.219	80.8437	574.219	81.2144	574.219	81.6618	574.219	80.2879	574.219	81.4675	574.219	77.3344	574.219	79.7191	574.219	71.3949	574.219	75.8057	574.219	72.9052	574.219	72.0791	574.219	77.8262	574.219	75.1712	574.219	80.0924	574.219	78.1621	574.219	81.0315	574.219	80.0655	574.219	81.0489
594.727	88.1874	594.727	87.3465	594.727	87.513	594.727	85.0722	594.727	85.2841	594.727	81.7387	594.727	81.8337	594.727	78.9001	594.727	78.7276	594.727	77.7989	594.727	77.4409	594.727	77.0367	594.727	76.8476	594.727	76	594.727	76.1061	594.727	75.342	594.727	75.75	594.727	75.7792	594.727	76.2935	594.727	76.8323	594.727	76.909	594.727	77.481	594.727	76.944	594.727	76.9319	594.727	76.3815	594.727	74.2783	594.727	75.1802	594.727	69.3051	594.727	73.0246	594.727	73.555	594.727	72.5225	594.727	78.7245	594.727	76.8158	594.727	81.2865	594.727	80.3561	594.727	81.8192
615.234	88.4065	615.234	87.5235	615.234	87.4873	615.234	84.911	615.234	84.8752	615.234	81.0747	615.234	81.158	615.234	78.0486	615.234	78.1816	615.234	77.6131	615.234	77.5494	615.234	77.7622	615.234	77.9035	615.234	77.4355	615.234	77.9994	615.234	77.0129	615.234	77.5792	615.234	77.033	615.234	76.9059	615.234	77.3097	615.234	76.5864	615.234	77.1526	615.234	76.6549	615.234	76.1081	615.234	76.2728	615.234	74.2757	615.234	74.8538	615.234	72.3839	615.234	72.8379	615.234	72.6067	615.234	72.6766	615.234	76.1775	615.234	75.5327	615.234	79.0286	615.234	78.4313	615.234	79.7508
637.207	87.737	637.207	86.8354	637.207	86.9171	637.207	84.1317	637.207	84.4506	637.207	79.8991	637.207	80.586	637.207	76.7219	637.207	77.3093	637.207	76.9196	637.207	77.5063	637.207	77.4533	637.207	78.1446	637.207	77.374	637.207	77.8746	637.207	77.0444	637.207	77.4271	637.207	76.9552	637.207	77.5368	637.207	77.2722	637.207	78.025	637.207	77.4722	637.207	78.0913	637.207	76.6799	637.207	77.032	637.207	74.4491	637.207	74.5103	637.207	71.6995	637.207	71.6641	637.207	70.5854	637.207	72.287	637.207	72.0418	637.207	74.6979	637.207	74.8969	637.207	76.2983	637.207	76.4923
659.18	88.0045	659.18	86.9098	659.18	87.1872	659.18	83.9234	659.18	84.409	659.18	79.5294	659.18	79.8793	659.18	76.9061	659.18	76.8269	659.18	77.4268	659.18	77.3315	659.18	77.7407	659.18	77.4791	659.18	77.6524	659.18	77.3127	659.18	77.7356	659.18	77.5924	659.18	77.9281	659.18	78.0651	659.18	77.8711	659.18	78.1858	659.18	77.4197	659.18	77.9255	659.18	76.4945	659.18	77.2978	659.18	74.776	659.18	75.5283	659.18	72.8883	659.18	72.4766	659.18	74.0135	659.18	72.8912	659.18	76.7793	659.18	76.0186	659.18	78.8069	659.18	78.4148	659.18	79.4381
682.617	88.5126	682.617	87.3957	682.617	87.5457	682.617	84.0248	682.617	84.5005	682.617	79.0568	682.617	79.8587	682.617	77.6251	682.617	77.497	682.617	78.4632	682.617	78.2267	682.617	78.3516	682.617	78.436	682.617	77.7234	682.617	77.7689	682.617	77.0848	682.617	76.6396	682.617	76.6714	682.617	75.8769	682.617	76.7103	682.617	76.397	682.617	77.2711	682.617	77.4095	682.617	77.6979	682.617	77.6754	682.617	77.031	682.617	77.0129	682.617	75.1849	682.617	75.7333	682.617	75.8787	682.617	75.594	682.617	79.417	682.617	78.3355	682.617	81.8418	682.617	81.162	682.617	82.4426
707.52	89.6075	707.52	88.3043	707.52	88.5719	707.52	84.7252	707.52	85.1366	707.52	79.8332	707.52	80.0773	707.52	78.5328	707.52	78.4911	707.52	79.7142	707.52	79.6405	707.52	79.7142	707.52	79.7731	707.52	78.7909	707.52	78.9921	707.52	77.7484	707.52	77.8838	707.52	76.9363	707.52	76.7075	707.52	76.5228	707.52	75.7399	707.52	76.632	707.52	75.7528	707.52	76.2999	707.52	76.1277	707.52	74.43	707.52	75.3675	707.52	72.2053	707.52	73.2004	707.52	73.1211	707.52	70.9695	707.52	76.973	707.52	75.3444	707.52	80.7406	707.52	80.3766	707.52	82.088
732.422	87.6072	732.422	86.2498	732.422	86.6881	732.422	82.7532	732.422	83.4779	732.422	78.5772	732.422	79.313	732.422	78.2381	732.422	78.5352	732.422	79.1451	732.422	78.9883	732.422	79.1158	732.422	78.8451	732.422	78.6787	732.422	78.6905	732.422	78.0433	732.422	78.5739	732.422	77.3265	732.422	78.0639	732.422	76.7978	732.422	77.2481	732.422	76.745	732.422	76.8644	732.422	77.0564	732.422	76.6609	732.422	76.1443	732.422	75.6632	732.422	72.2717	732.422	72.8773	732.422	69.4888	732.422	71.0417	732.422	73.2877	732.422	74.7723	732.422	75.805	732.422	76.8497	732.422	77.031
757.324	88.6832	757.324	87.0868	757.324	87.6177	757.324	83.1994	757.324	84.148	757.324	80.1561	757.324	80.1673	757.324	80.1185	757.324	79.2834	757.324	80.175	757.324	80.0911	757.324	79.8531	757.324	80.202	757.324	79.3595	757.324	79.504	757.324	78.9405	757.324	78.6861	757.324	78.3498	757.324	78.0121	757.324	77.1945	757.324	77.2778	757.324	76.1749	757.324	76.629	757.324	76.3734	757.324	76.9056	757.324	76.296	757.324	76.897	757.324	74.5174	757.324	74.7995	757.324	74.0011	757.324	72.1714	757.324	76.6955	757.324	74.9647	757.324	79.1492	757.324	78.4482	757.324	79.9173
785.156	86.7659	785.156	85.5062	785.156	86.0513	785.156	82.4801	785.156	83.141	785.156	78.6891	785.156	79.0128	785.156	77.9172	785.156	78.61	785.156	78.5926	785.156	79.4952	785.156	78.5916	785.156	79.524	785.156	78.6462	785.156	79.3439	785.156	78.6709	785.156	78.7137	785.156	77.9831	785.156	77.4506	785.156	76.5738	785.156	75.6881	785.156	75.978	785.156	75.0258	785.156	77.1731	785.156	77.0775	785.156	77.3585	785.156	78.1677	785.156	73.9678	785.156	75.7546	785.156	68.4981	785.156	71.7746	785.156	75.5435	785.156	75.5873	785.156	78.7048	785.156	78.2561	785.156	79.3298
811.523	88.9447	811.523	87.4296	811.523	87.8542	811.523	83.764	811.523	84.0933	811.523	79.6715	811.523	79.4147	811.523	78.9659	811.523	78.3983	811.523	79.8036	811.523	79.2368	811.523	80.089	811.523	79.9036	811.523	79.8985	811.523	80.2379	811.523	79.5258	811.523	80.4727	811.523	78.8748	811.523	80.313	811.523	77.3272	811.523	78.8692	811.523	74.7578	811.523	75.785	811.523	76.4637	811.523	75.7109	811.523	79.276	811.523	78.2849	811.523	77.7427	811.523	77.5458	811.523	69.9132	811.523	69.8242	811.523	74.5932	811.523	73.1285	811.523	78.3126	811.523	78.0612	811.523	79.0103
840.82	88.4187	840.82	86.8948	840.82	87.0995	840.82	82.6042	840.82	83.2422	840.82	79.0604	840.82	79.0573	840.82	80.0766	840.82	79.6843	840.82	81.0854	840.82	81.0524	840.82	80.9445	840.82	80.8498	840.82	80.1479	840.82	79.7184	840.82	79.8673	840.82	79.293	840.82	79.8448	840.82	79.8467	840.82	78.6751	840.82	79.5875	840.82	75.1372	840.82	77.0642	840.82	72.8554	840.82	74.6712	840.82	77.8278	840.82	78.5819	840.82	79.1426	840.82	79.5843	840.82	74.9102	840.82	75.2013	840.82	72.7682	840.82	74.2388	840.82	79.7421	840.82	80.1371	840.82	81.6853
870.117	88.3729	870.117	87.2476	870.117	87.0462	870.117	83.9811	870.117	83.7512	870.117	80.5918	870.117	81.0634	870.117	79.9357	870.117	81.0938	870.117	81.3164	870.117	81.7079	870.117	81.8965	870.117	81.9522	870.117	81.1326	870.117	81.608	870.117	80.5898	870.117	81.2281	870.117	80.7341	870.117	80.9501	870.117	80.1552	870.117	79.9395	870.117	77.5552	870.117	77.1614	870.117	73.782	870.117	73.6643	870.117	77.0321	870.117	76.7014	870.117	78.0991	870.117	78.6313	870.117	74.9796	870.117	76.2162	870.117	74.109	870.117	72.4573	870.117	75.8218	870.117	74.9084	870.117	76.3597
900.879	89.5542	900.879	88.1034	900.879	88.4547	900.879	84.6228	900.879	84.8476	900.879	82.0518	900.879	81.9182	900.879	82.8912	900.879	82.8787	900.879	83.6299	900.879	83.8182	900.879	83.6211	900.879	83.8942	900.879	82.4068	900.879	82.7997	900.879	81.2315	900.879	81.9241	900.879	81.8239	900.879	82.593	900.879	81.6536	900.879	82.5368	900.879	78.9759	900.879	79.8338	900.879	73.452	900.879	74.2166	900.879	77.622	900.879	77.4527	900.879	80.7884	900.879	81.1148	900.879	79.1872	900.879	78.9598	900.879	77.8568	900.879	76.8063	900.879	81.3715	900.879	81.0223	900.879	82.3787
933.105	87.9179	933.105	86.7232	933.105	86.7419	933.105	83.4384	933.105	84.1397	933.105	79.2663	933.105	80.9524	933.105	81.1684	933.105	79.9527	933.105	84.3675	933.105	83.2833	933.105	85.1791	933.105	84.2727	933.105	84.1026	933.105	83.2567	933.105	82.4869	933.105	81.2363	933.105	82.0273	933.105	80.6747	933.105	81.733	933.105	81.4739	933.105	80.0325	933.105	80.6379	933.105	75.2648	933.105	77.0282	933.105	76.4084	933.105	75.6756	933.105	80.4158	933.105	79.3347	933.105	76.903	933.105	77.9669	933.105	77.8838	933.105	76.2081	933.105	81.9085	933.105	81.0785	933.105	82.5128
965.332	88.8637	965.332	87.5265	965.332	87.8514	965.332	84.0805	965.332	84.8372	965.332	80.2277	965.332	80.6699	965.332	80.8951	965.332	81.8166	965.332	84.7843	965.332	85.3652	965.332	86.0025	965.332	86.608	965.332	84.9648	965.332	85.6306	965.332	83.3165	965.332	83.8611	965.332	82.9035	965.332	83.057	965.332	82.5187	965.332	82.1583	965.332	81.2116	965.332	80.3818	965.332	77.197	965.332	76.1552	965.332	75.6325	965.332	76.0248	965.332	80.9462	965.332	81.7538	965.332	79.3316	965.332	79.1307	965.332	75.9631	965.332	74.5891	965.332	81.4899	965.332	81.179	965.332	83.1138
1000.49	86.9321	1000.49	86.1128	1000.49	86.3893	1000.49	83.06	1000.49	84.0121	1000.49	78.6573	1000.49	79.1943	1000.49	83.354	1000.49	82.2654	1000.49	87.2578	1000.49	86.6138	1000.49	88.0916	1000.49	87.7039	1000.49	86.1179	1000.49	86.0989	1000.49	83.4093	1000.49	83.0321	1000.49	83.7758	1000.49	81.7643	1000.49	84.3419	1000.49	83.2779	1000.49	83.3631	1000.49	83.4237	1000.49	79.0055	1000.49	79.7413	1000.49	76.4346	1000.49	72.8626	1000.49	82.7148	1000.49	82.0418	1000.49	80.8171	1000.49	81.7745	1000.49	74.2309	1000.49	71.5162	1000.49	81.7393	1000.49	79.7479	1000.49	82.835
1035.64	89.976	1035.64	88.7042	1035.64	89.0094	1035.64	84.642	1035.64	85.6381	1035.64	78.365	1035.64	78.2839	1035.64	83.5579	1035.64	82.2695	1035.64	87.4376	1035.64	86.9864	1035.64	88.5391	1035.64	88.5405	1035.64	86.7631	1035.64	87.7034	1035.64	83.6405	1035.64	85.2904	1035.64	83.1053	1035.64	83.7193	1035.64	82.8657	1035.64	82.9123	1035.64	81.9708	1035.64	82.299	1035.64	78.8564	1035.64	80.6108	1035.64	71.115	1035.64	67.3999	1035.64	82.8678	1035.64	82.3551	1035.64	82.6366	1035.64	83.8797	1035.64	77.1334	1035.64	76.2841	1035.64	82.8098	1035.64	81.1191	1035.64	85.043
1072.27	89.7019	1072.27	88.3561	1072.27	88.4761	1072.27	84.0993	1072.27	84.5744	1072.27	76.0565	1072.27	75.5665	1072.27	83.3218	1072.27	82.1553	1072.27	87.7528	1072.27	87.4853	1072.27	88.7632	1072.27	89.0213	1072.27	87.1721	1072.27	87.9673	1072.27	83.9288	1072.27	85.2044	1072.27	83.7109	1072.27	83.9095	1072.27	84.4147	1072.27	83.8664	1072.27	83.8504	1072.27	84.1818	1072.27	81.5861	1072.27	83.5928	1072.27	68.7828	1072.27	76.4145	1072.27	81.9927	1072.27	78.855	1072.27	83.7521	1072.27	84.1	1072.27	77.7988	1072.27	78.4048	1072.27	83.2921	1072.27	80.8997	1072.27	84.7987
1108.89	91.2078	1108.89	89.9614	1108.89	90.1606	1108.89	84.5835	1108.89	85.1276	1108.89	78.175	1108.89	76.0297	1108.89	85.6624	1108.89	86.1557	1108.89	88.1577	1108.89	88.908	1108.89	88.7302	1108.89	89.3749	1108.89	87.5234	1108.89	87.9203	1108.89	84.5819	1108.89	85.0873	1108.89	82.1357	1108.89	84.0786	1108.89	82.2419	1108.89	83.9372	1108.89	82.3998	1108.89	82.4191	1108.89	82.2299	1108.89	82.1914	1108.89	72.2848	1108.89	77.5011	1108.89	79.1163	1108.89	76.9544	1108.89	82.6611	1108.89	82.9441	1108.89	76.7907	1108.89	77.025	1108.89	82.8444	1108.89	79.3667	1108.89	84.4946
1148.44	90.4934	1148.44	89.1649	1148.44	89.1972	1148.44	83.3241	1148.44	83.5233	1148.44	77.9732	1148.44	76.5418	1148.44	87.5941	1148.44	87.0397	1148.44	88.9602	1148.44	89.1282	1148.44	88.6296	1148.44	88.8851	1148.44	87.393	1148.44	87.3678	1148.44	84.9254	1148.44	84.1567	1148.44	84.4269	1148.44	83.1446	1148.44	84.7491	1148.44	83.7516	1148.44	83.2593	1148.44	82.8962	1148.44	82.6966	1148.44	82.8798	1148.44	80.0471	1148.44	80.4601	1148.44	72.7412	1148.44	72.2375	1148.44	81.2483	1148.44	81.5419	1148.44	76.037	1148.44	78.1836	1148.44	79.1618	1148.44	78.3208	1148.44	81.9001
1189.45	89.8873	1189.45	88.5106	1189.45	88.422	1189.45	81.5793	1189.45	81.5062	1189.45	80.3068	1189.45	80.7631	1189.45	87.885	1189.45	87.692	1189.45	88.8289	1189.45	88.916	1189.45	88.0252	1189.45	88.3059	1189.45	86.1319	1189.45	85.7819	1189.45	82.8553	1189.45	81.9616	1189.45	81.8588	1189.45	81.2683	1189.45	81.976	1189.45	82.5311	1189.45	80.8949	1189.45	81.2604	1189.45	81.8864	1189.45	80.6425	1189.45	79.0048	1189.45	80.1402	1189.45	72.3502	1189.45	71.2257	1189.45	80.3555	1189.45	80.7993	1189.45	73.8286	1189.45	78.8126	1189.45	76.5775	1189.45	74.138	1189.45	78.7965
1230.47	89.7743	1230.47	87.4967	1230.47	87.9804	1230.47	76.8764	1230.47	79.1725	1230.47	83.38	1230.47	81.9976	1230.47	88.6029	1230.47	88.3384	1230.47	88.6402	1230.47	88.6989	1230.47	87.2255	1230.47	86.9056	1230.47	84.9542	1230.47	84.962	1230.47	81.3911	1230.47	79.5727	1230.47	80.7697	1230.47	77.3329	1230.47	82.6055	1230.47	80.6412	1230.47	81.5299	1230.47	79.347	1230.47	80.4281	1230.47	79.4728	1230.47	80.7797	1230.47	80.874	1230.47	74.0932	1230.47	72.9024	1230.47	79.2416	1230.47	78.7915	1230.47	74.6298	1230.47	75.8156	1230.47	75.0083	1230.47	73.0284	1230.47	76.5379
1274.41	88.7873	1274.41	86.2924	1274.41	87.2845	1274.41	73.9086	1274.41	77.9535	1274.41	84.1233	1274.41	82.1819	1274.41	88.6091	1274.41	87.9715	1274.41	88.5907	1274.41	88.4151	1274.41	86.3182	1274.41	85.9057	1274.41	83.168	1274.41	83.5984	1274.41	79.2799	1274.41	79.9165	1274.41	77.1165	1274.41	76.7715	1274.41	79.2059	1274.41	79.4683	1274.41	78.5347	1274.41	79.9802	1274.41	79.5086	1274.41	77.0296	1274.41	79.9352	1274.41	79.5718	1274.41	67.3361	1274.41	71.8866	1274.41	76.6097	1274.41	76.1876	1274.41	74.7929	1274.41	76.8676	1274.41	74.2091	1274.41	74.5609	1274.41	77.09
1319.82	89.5383	1319.82	86.6354	1319.82	87.0297	1319.82	71.7676	1319.82	72.915	1319.82	84.3756	1319.82	84.3737	1319.82	88.4873	1319.82	88.8515	1319.82	88.4494	1319.82	88.3519	1319.82	85.4269	1319.82	85.9155	1319.82	82.1576	1319.82	83.2951	1319.82	77.5236	1319.82	79.6626	1319.82	75.207	1319.82	71.8493	1319.82	79.335	1319.82	76.4678	1319.82	79.4107	1319.82	78.3904	1319.82	76.0808	1319.82	77.4858	1319.82	77.7822	1319.82	78.7887	1319.82	70.4726	1319.82	75.6068	1319.82	72.5864	1319.82	70.0781	1319.82	69.9999	1319.82	72.4909	1319.82	70.5431	1319.82	72.3821	1319.82	75.1561
1366.7	89.5751	1366.7	86.2003	1366.7	85.9234	1366.7	73.8962	1366.7	69.6198	1366.7	85.6618	1366.7	85.8553	1366.7	89.0241	1366.7	89.4464	1366.7	88.2713	1366.7	88.7099	1366.7	85.4483	1366.7	86.1358	1366.7	82.2498	1366.7	82.4353	1366.7	77.7538	1366.7	77.8459	1366.7	73.0539	1366.7	75.9516	1366.7	75.7939	1366.7	77.4084	1366.7	76.023	1366.7	75.105	1366.7	75.9946	1366.7	75.9222	1366.7	78.3391	1366.7	77.965	1366.7	73.4808	1366.7	76.5917	1366.7	68.8388	1366.7	66.8809	1366.7	64.7317	1366.7	64.4122	1366.7	72.4742	1366.7	69.8888	1366.7	75.8149
1413.57	90.1192	1413.57	86.6886	1413.57	87.0678	1413.57	74.4382	1413.57	76.4866	1413.57	85.4135	1413.57	86.2478	1413.57	88.2411	1413.57	88.382	1413.57	87.7765	1413.57	87.7357	1413.57	84.9773	1413.57	85.0375	1413.57	81.8392	1413.57	80.248	1413.57	75.8478	1413.57	76.1283	1413.57	71.9691	1413.57	70.2682	1413.57	73.6921	1413.57	72.0467	1413.57	75.2167	1413.57	73.1074	1413.57	77.5376	1413.57	73.719	1413.57	79.2188	1413.57	78.1239	1413.57	76.9724	1413.57	76.4677	1413.57	69.9627	1413.57	67.0343	1413.57	65.167	1413.57	61.5606	1413.57	74.0721	1413.57	68.954	1413.57	77.3754
1463.38	90.1274	1463.38	86.243	1463.38	86.953	1463.38	71.7612	1463.38	78.1122	1463.38	84.3419	1463.38	85.3277	1463.38	87.0172	1463.38	87.5499	1463.38	85.7839	1463.38	86.4031	1463.38	83.3474	1463.38	83.0702	1463.38	79.3987	1463.38	79.5827	1463.38	72.6899	1463.38	72.1077	1463.38	67.6617	1463.38	55.6338	1463.38	72.4656	1463.38	68.8424	1463.38	67.7702	1463.38	71.2934	1463.38	75.1533	1463.38	70.9148	1463.38	79.9382	1463.38	77.4603	1463.38	78.4682	1463.38	74.7508	1463.38	74.4341	1463.38	74.3834	1463.38	72.108	1463.38	69.9861	1463.38	71.5855	1463.38	66.6132	1463.38	77.5468
1516.11	89.036	1516.11	84.0099	1516.11	85.7394	1516.11	74.5917	1516.11	75.409	1516.11	83.7822	1516.11	83.65	1516.11	85.8564	1516.11	86.2976	1516.11	83.9312	1516.11	84.8906	1516.11	80.7404	1516.11	81.0819	1516.11	76.0472	1516.11	75.7105	1516.11	67.1767	1516.11	70.0659	1516.11	59.2001	1516.11	57.5303	1516.11	62.0743	1516.11	61.1639	1516.11	59.2319	1516.11	64.0946	1516.11	69.2805	1516.11	65.0915	1516.11	77.103	1516.11	74.5318	1516.11	74.9579	1516.11	73.8774	1516.11	70.0288	1516.11	72.9706	1516.11	67.6248	1516.11	69.401	1516.11	69.284	1516.11	66.0312	1516.11	76.0773
1568.85	88.2599	1568.85	83.1383	1568.85	85.0572	1568.85	77.6503	1568.85	74.7254	1568.85	84.6449	1568.85	83.6793	1568.85	85.6543	1568.85	85.7736	1568.85	83.4121	1568.85	84.8675	1568.85	76.6992	1568.85	79.8623	1568.85	66.1216	1568.85	73.4649	1568.85	54.3628	1568.85	64.6966	1568.85	68.0899	1568.85	64.5655	1568.85	58.1555	1568.85	61.518	1568.85	60.5519	1568.85	48.7694	1568.85	63.899	1568.85	63.1257	1568.85	74.2679	1568.85	75.1222	1568.85	73.4065	1568.85	76.6453	1568.85	74.2679	1568.85	73.4117	1568.85	71.5214	1568.85	71.851	1568.85	65.7684	1568.85	62.5987	1568.85	72.973
1624.51	89.3014	1624.51	85.0432	1624.51	86.2515	1624.51	78.2485	1624.51	75.7159	1624.51	84.3692	1624.51	84.1839	1624.51	85.3892	1624.51	85.2979	1624.51	83.4597	1624.51	83.1129	1624.51	76.2089	1624.51	76.7443	1624.51	64.4904	1624.51	67.5448	1624.51	55.6891	1624.51	60.2101	1624.51	68.5711	1624.51	68.2319	1624.51	63.8642	1624.51	64.296	1624.51	59.6389	1624.51	54.8063	1624.51	63.2086	1624.51	64.2967	1624.51	73.1162	1624.51	73.0696	1624.51	75.5923	1624.51	77.204	1624.51	74.6461	1624.51	72.3782	1624.51	72.6696	1624.51	70.8604	1624.51	64.1045	1624.51	63.2475	1624.51	74.8379
1681.64	88.989	1681.64	83.8064	1681.64	84.7987	1681.64	76.0895	1681.64	77.4047	1681.64	83.9171	1681.64	84.7178	1681.64	85.0037	1681.64	84.6885	1681.64	81.1753	1681.64	81.2152	1681.64	72.8756	1681.64	70.7603	1681.64	65.0754	1681.64	68.3765	1681.64	70.7433	1681.64	67.5182	1681.64	72.76	1681.64	69.2488	1681.64	68.7738	1681.64	66.9495	1681.64	64.1142	1681.64	58.9386	1681.64	66.8919	1681.64	62.529	1681.64	72.4594	1681.64	69.0338	1681.64	73.2753	1681.64	77.3597	1681.64	72.6331	1681.64	71.3894	1681.64	71.2377	1681.64	71.0168	1681.64	69.2619	1681.64	71.6269	1681.64	77.3567
1741.7	88.7431	1741.7	81.6298	1741.7	84.3679	1741.7	80.3482	1741.7	78.3576	1741.7	84.6286	1741.7	83.7622	1741.7	84.2761	1741.7	83.4308	1741.7	79.0591	1741.7	79.5784	1741.7	68.124	1741.7	64.0856	1741.7	72.6058	1741.7	71.0913	1741.7	72.7933	1741.7	72.053	1741.7	72.3807	1741.7	73.7119	1741.7	71.1736	1741.7	73.0402	1741.7	72.2711	1741.7	72.2023	1741.7	71.8527	1741.7	67.7862	1741.7	65.6045	1741.7	62.461	1741.7	71.8109	1741.7	73.6323	1741.7	70.6903	1741.7	72.722	1741.7	65.473	1741.7	68.0094	1741.7	59.3156	1741.7	64.0406	1741.7	74.6534
1803.22	89.2393	1803.22	81.2829	1803.22	83.9098	1803.22	80.4065	1803.22	77.383	1803.22	84.3442	1803.22	82.8472	1803.22	83.4135	1803.22	83.1963	1803.22	77.3524	1803.22	79.0751	1803.22	67.083	1803.22	52.6139	1803.22	74.9485	1803.22	77.6159	1803.22	75.4172	1803.22	79.0933	1803.22	74.2891	1803.22	78.9873	1803.22	73.4401	1803.22	76.8184	1803.22	70.3163	1803.22	74.8132	1803.22	74.9428	1803.22	73.9408	1803.22	65.9463	1803.22	64.8391	1803.22	72.5383	1803.22	69.9883	1803.22	69.7161	1803.22	74.347	1803.22	67.0793	1803.22	73.0783	1803.22	58.1515	1803.22	68.688	1803.22	73.0829
1866.21	89.2643	1866.21	83.0097	1866.21	83.2685	1866.21	79.7762	1866.21	79.9328	1866.21	83.4569	1866.21	81.853	1866.21	82.6053	1866.21	82.0577	1866.21	74.7971	1866.21	74.7599	1866.21	74.4198	1866.21	73.4298	1866.21	76.634	1866.21	78.8625	1866.21	78.1492	1866.21	80.6202	1866.21	76.8424	1866.21	79.3646	1866.21	77.1681	1866.21	78.4664	1866.21	69.9849	1866.21	76.5372	1866.21	67.7184	1866.21	68.1156	1866.21	70.872	1866.21	67.1258	1866.21	69.9527	1866.21	71.9371	1866.21	68.5169	1866.21	70.1737	1866.21	61.0359	1866.21	66.7224	1866.21	66.5368	1866.21	70.2593	1866.21	71.5387
1932.13	87.8013	1932.13	82.7817	1932.13	81.9794	1932.13	81.0448	1932.13	80.209	1932.13	83.9356	1932.13	81.929	1932.13	83.0207	1932.13	81.2091	1932.13	74.2429	1932.13	70.6504	1932.13	75.0502	1932.13	77.2328	1932.13	77.7171	1932.13	80.4051	1932.13	77.9521	1932.13	78.4868	1932.13	77.1513	1932.13	75.149	1932.13	75.0985	1932.13	72.4586	1932.13	71.5245	1932.13	75.0239	1932.13	69.4467	1932.13	70.9016	1932.13	66.4502	1932.13	69.0673	1932.13	69.0961	1932.13	69.4205	1932.13	67.9896	1932.13	72.2424	1932.13	60.1198	1932.13	69.8916	1932.13	68.1438	1932.13	69.531	1932.13	71.3136
1999.51	87.0473	1999.51	81.0975	1999.51	84.6407	1999.51	81.362	1999.51	80.6714	1999.51	82.7054	1999.51	82.5597	1999.51	81.131	1999.51	82.2141	1999.51	72.2984	1999.51	72.5447	1999.51	78.0937	1999.51	75.5964	1999.51	80.1604	1999.51	79.15	1999.51	76.4966	1999.51	76.9457	1999.51	75.885	1999.51	74.2883	1999.51	74.6686	1999.51	72.6103	1999.51	76.7911	1999.51	73.2159	1999.51	66.9842	1999.51	67.2474	1999.51	66.6609	1999.51	57.0262	1999.51	70.6561	1999.51	71.7164	1999.51	69.6273	1999.51	68.4987	1999.51	66.538	1999.51	61.348	1999.51	72.3489	1999.51	65.698	1999.51	72.7787
2069.82	88.0274	2069.82	84.2441	2069.82	84.9233	2069.82	82.1492	2069.82	80.734	2069.82	81.7632	2069.82	83.9048	2069.82	78.2072	2069.82	81.2515	2069.82	73.45	2069.82	75.4141	2069.82	79.5522	2069.82	80.1336	2069.82	81.4948	2069.82	83.0227	2069.82	78.49	2069.82	79.5411	2069.82	77.9645	2069.82	78.9905	2069.82	72.2301	2069.82	76.3523	2069.82	77.4485	2069.82	76.7947	2069.82	68.8292	2069.82	71.4621	2069.82	71.1472	2069.82	68.4849	2069.82	74.5955	2069.82	70.1649	2069.82	62.9857	2069.82	59.6372	2069.82	72.0415	2069.82	71.6915	2069.82	63.7733	2069.82	65.2669	2069.82	75.2558
2143.07	90.3995	2143.07	85.9152	2143.07	86.1201	2143.07	84.0177	2143.07	83.2214	2143.07	83.3544	2143.07	83.9367	2143.07	80.7466	2143.07	79.545	2143.07	78.1523	2143.07	78.6292	2143.07	82.9038	2143.07	83.2364	2143.07	83.2706	2143.07	83.947	2143.07	78.5124	2143.07	79.8262	2143.07	77.1078	2143.07	80.9949	2143.07	74.5339	2143.07	75.4264	2143.07	78.6973	2143.07	78.8016	2143.07	74.0163	2143.07	75.559	2143.07	65.6488	2143.07	72.6218	2143.07	75.3666	2143.07	72.3781	2143.07	60.4471	2143.07	61.7008	2143.07	74.9148	2143.07	72.2521	2143.07	68.4896	2143.07	69.0609	2143.07	79.2786
2219.24	89.4291	2219.24	84.9139	2219.24	85.9794	2219.24	84.6684	2219.24	85.0858	2219.24	83.3429	2219.24	83.6493	2219.24	80.3524	2219.24	79.8071	2219.24	80.7902	2219.24	77.2737	2219.24	83.604	2219.24	83.0679	2219.24	82.2321	2219.24	82.5988	2219.24	78.7529	2219.24	77.2167	2219.24	77.266	2219.24	74.9126	2219.24	74.5566	2219.24	76.3955	2219.24	74.6014	2219.24	73.057	2219.24	75.9364	2219.24	75.3959	2219.24	60.0812	2219.24	53.7397	2219.24	74.2377	2219.24	72.4619	2219.24	66.158	2219.24	68.7705	2219.24	73.3686	2219.24	69.1704	2219.24	72.1999	2219.24	70.7101	2219.24	74.5848
2296.88	89.0035	2296.88	86.0606	2296.88	86.6284	2296.88	86.3745	2296.88	86.0582	2296.88	84.2307	2296.88	84.931	2296.88	79.6339	2296.88	81.5948	2296.88	81.199	2296.88	80.7338	2296.88	82.4685	2296.88	83.0713	2296.88	79.505	2296.88	79.6836	2296.88	77.251	2296.88	78.3227	2296.88	69.8415	2296.88	72.471	2296.88	73.4136	2296.88	72.0216	2296.88	73.9062	2296.88	70.5618	2296.88	74.5461	2296.88	74.6087	2296.88	52.8113	2296.88	63.1538	2296.88	67.0943	2296.88	65.4469	2296.88	64.0944	2296.88	64.9228	2296.88	67.9931	2296.88	66.9836	2296.88	71.4794	2296.88	67.5723	2296.88	73.5717
2378.91	89.6292	2378.91	87.8201	2378.91	88.0448	2378.91	87.6358	2378.91	87.5746	2378.91	85.4861	2378.91	85.9192	2378.91	81.6931	2378.91	83.3123	2378.91	81.6573	2378.91	82.3317	2378.91	82.7038	2378.91	82.8586	2378.91	79.3593	2378.91	80.2254	2378.91	73.2569	2378.91	75.5611	2378.91	68.6685	2378.91	71.4787	2378.91	70.7663	2378.91	71.2983	2378.91	69.3581	2378.91	70.3576	2378.91	72.8761	2378.91	72.4676	2378.91	60.109	2378.91	70.0868	2378.91	68.1127	2378.91	65.0199	2378.91	65.818	2378.91	66.0322	2378.91	69.1135	2378.91	69.8545	2378.91	69.9353	2378.91	71.0836	2378.91	72.3617
2462.4	88.9488	2462.4	87.5836	2462.4	88.114	2462.4	86.4941	2462.4	87.0343	2462.4	85.0903	2462.4	85.2522	2462.4	83.249	2462.4	81.9311	2462.4	81.9916	2462.4	82.0307	2462.4	80.5191	2462.4	81.2302	2462.4	78.8815	2462.4	78.9184	2462.4	75.4459	2462.4	75.3997	2462.4	72.4774	2462.4	71.3153	2462.4	70.3216	2462.4	70.1577	2462.4	72.2417	2462.4	73.4813	2462.4	70.6689	2462.4	68.3895	2462.4	63.7752	2462.4	67.7245	2462.4	62.4265	2462.4	61.9304	2462.4	65.8838	2462.4	64.9218	2462.4	68.9072	2462.4	59.6203	2462.4	68.7617	2462.4	68.3242	2462.4	71.6653
2548.83	88.2391	2548.83	87.2405	2548.83	87.4442	2548.83	86.7485	2548.83	86.5101	2548.83	84.5095	2548.83	84.9785	2548.83	82.7957	2548.83	82.682	2548.83	81.3254	2548.83	82.3486	2548.83	79.2854	2548.83	80.8626	2548.83	77.7325	2548.83	79.0536	2548.83	75.3606	2548.83	76.3816	2548.83	72.3722	2548.83	72.9352	2548.83	71.4543	2548.83	69.051	2548.83	69.0104	2548.83	70.6022	2548.83	70.7995	2548.83	70.8175	2548.83	64.9241	2548.83	68.0383	2548.83	66.475	2548.83	61.0373	2548.83	67.9914	2548.83	68.2684	2548.83	66.4651	2548.83	67.2758	2548.83	67.9209	2548.83	67.6758	2548.83	68.8692
2639.65	88.797	2639.65	87.7213	2639.65	87.6699	2639.65	87.7702	2639.65	87.8053	2639.65	84.5772	2639.65	84.9422	2639.65	83.6728	2639.65	84.3877	2639.65	82.7249	2639.65	82.4703	2639.65	82.3853	2639.65	82.1953	2639.65	78.7834	2639.65	80.0974	2639.65	76.2995	2639.65	75.9124	2639.65	74.4991	2639.65	74.3859	2639.65	69.7582	2639.65	72.2133	2639.65	71.9556	2639.65	74.3305	2639.65	69.9572	2639.65	72.7589	2639.65	66.46	2639.65	67.9523	2639.65	66.06	2639.65	63.4139	2639.65	68.701	2639.65	64.1617	2639.65	66.1026	2639.65	63.6767	2639.65	65.6667	2639.65	67.7893	2639.65	68.5678
2731.93	88.6828	2731.93	87.089	2731.93	87.4922	2731.93	87.1891	2731.93	87.1647	2731.93	85.0684	2731.93	84.5962	2731.93	84.0461	2731.93	83.4329	2731.93	82.9386	2731.93	82.4193	2731.93	81.2274	2731.93	81.6158	2731.93	79.3123	2731.93	79.7803	2731.93	75.4085	2731.93	76.0502	2731.93	72.0423	2731.93	72.5872	2731.93	70.431	2731.93	68.8577	2731.93	71.1076	2731.93	70.1813	2731.93	66.8837	2731.93	70.3816	2731.93	62.9976	2731.93	56.6836	2731.93	68.0106	2731.93	66.1761	2731.93	68.0324	2731.93	68.1903	2731.93	65.1703	2731.93	65.8353	2731.93	66.2079	2731.93	69.2765	2731.93	70.1015
2828.61	88.0884	2828.61	86.3755	2828.61	86.4851	2828.61	86.649	2828.61	86.5657	2828.61	83.3198	2828.61	83.6032	2828.61	83.0175	2828.61	82.9166	2828.61	81.3793	2828.61	81.6536	2828.61	80.7642	2828.61	80.5744	2828.61	77.5751	2828.61	78.5988	2828.61	73.5697	2828.61	76.1898	2828.61	71.8654	2828.61	71.9184	2828.61	66.9084	2828.61	70.8609	2828.61	69.7159	2828.61	69.8953	2828.61	68.7325	2828.61	70.1464	2828.61	65.9409	2828.61	65.1505	2828.61	66.9656	2828.61	67.0001	2828.61	66.3299	2828.61	65.537	2828.61	62.4055	2828.61	64.3679	2828.61	63.2073	2828.61	63.9465	2828.61	67.9125
2928.22	87.637	2928.22	86.1815	2928.22	86.4981	2928.22	86.3988	2928.22	86.3576	2928.22	82.6588	2928.22	83.1534	2928.22	82.6543	2928.22	83.061	2928.22	81.3456	2928.22	81.1366	2928.22	80.2097	2928.22	79.7298	2928.22	77.9582	2928.22	78.5765	2928.22	74.6292	2928.22	75.6895	2928.22	70.7655	2928.22	71.421	2928.22	68.1872	2928.22	70.5772	2928.22	69.977	2928.22	70.9538	2928.22	70.6599	2928.22	68.6676	2928.22	60.886	2928.22	62.4462	2928.22	63.3243	2928.22	67.8566	2928.22	63.5197	2928.22	65.3163	2928.22	65.6094	2928.22	63.5597	2928.22	64.2483	2928.22	65.8742	2928.22	67.1238
3030.76	87.6412	3030.76	87.0455	3030.76	87.1	3030.76	86.3333	3030.76	86.3167	3030.76	84.284	3030.76	84.2956	3030.76	83.9169	3030.76	83.9518	3030.76	82.3733	3030.76	82.1479	3030.76	80.8931	3030.76	80.642	3030.76	80.0681	3030.76	79.1415	3030.76	75.1304	3030.76	75.8574	3030.76	70.8391	3030.76	71.753	3030.76	70.5215	3030.76	69.1243	3030.76	68.6382	3030.76	68.6049	3030.76	67.4095	3030.76	69.2593	3030.76	57.6076	3030.76	58.4272	3030.76	68.0988	3030.76	64.6977	3030.76	60.3309	3030.76	65.819	3030.76	63.5587	3030.76	64.4973	3030.76	64.7744	3030.76	62.5611	3030.76	65.4619
3137.7	86.9429	3137.7	86.6488	3137.7	86.8045	3137.7	86.0419	3137.7	85.7699	3137.7	84.1986	3137.7	84.6619	3137.7	83.5053	3137.7	83.7521	3137.7	81.6797	3137.7	82.6396	3137.7	80.8529	3137.7	81.3054	3137.7	79.5422	3137.7	79.4803	3137.7	74.1759	3137.7	75.3972	3137.7	70.5902	3137.7	72.0747	3137.7	70.5715	3137.7	69.5374	3137.7	70.5697	3137.7	69.261	3137.7	70.1549	3137.7	69.463	3137.7	59.2804	3137.7	61.8473	3137.7	68.7706	3137.7	67.0667	3137.7	58.9805	3137.7	64.566	3137.7	64.7725	3137.7	65.1756	3137.7	63.2231	3137.7	63.4304	3137.7	64.779
3249.02	87.7723	3249.02	87.4128	3249.02	87.0714	3249.02	86.1647	3249.02	85.7316	3249.02	85.3431	3249.02	85.2745	3249.02	83.364	3249.02	83.0769	3249.02	81.518	3249.02	81.3811	3249.02	80.7944	3249.02	80.5338	3249.02	79.3384	3249.02	78.9698	3249.02	76.626	3249.02	75.7666	3249.02	71.1286	3249.02	71.6866	3249.02	69.774	3249.02	70.2141	3249.02	69.4158	3249.02	69.6447	3249.02	68.9656	3249.02	68.1143	3249.02	54.8958	3249.02	64.282	3249.02	68.5886	3249.02	67.3943	3249.02	64.4639	3249.02	64.3402	3249.02	62.2618	3249.02	62.9858	3249.02	63.3498	3249.02	61.9469	3249.02	62.8332
3363.28	88.3888	3363.28	87.3416	3363.28	87.677	3363.28	86.4818	3363.28	87.3988	3363.28	85.4592	3363.28	86.6499	3363.28	83.0566	3363.28	83.2363	3363.28	81.1482	3363.28	80.8862	3363.28	80.3075	3363.28	80.3693	3363.28	79.3948	3363.28	80.1849	3363.28	76.3083	3363.28	76.7856	3363.28	71.495	3363.28	73.3931	3363.28	70.4685	3363.28	72.996	3363.28	71.2222	3363.28	71.2986	3363.28	66.6186	3363.28	70.2331	3363.28	50.5061	3363.28	62.4925	3363.28	68.1769	3363.28	67.5923	3363.28	65.708	3363.28	65.2407	3363.28	64.4319	3363.28	66.3939	3363.28	60.9731	3363.28	56.4611	3363.28	61.6275
3481.93	89.4316	3481.93	88.1033	3481.93	87.9849	3481.93	87.1947	3481.93	87.329	3481.93	87.1125	3481.93	87.807	3481.93	83.8217	3481.93	83.2556	3481.93	79.8776	3481.93	81.4138	3481.93	80.3105	3481.93	80.5963	3481.93	80.4837	3481.93	81.1353	3481.93	77.7735	3481.93	77.865	3481.93	72.4799	3481.93	71.985	3481.93	71.9815	3481.93	72.6662	3481.93	69.1717	3481.93	70.1385	3481.93	69.497	3481.93	70.2495	3481.93	49.3093	3481.93	49.4135	3481.93	65.8234	3481.93	66.564	3481.93	66.1461	3481.93	63.4251	3481.93	65.5079	3481.93	63.4429	3481.93	58.9939	3481.93	63.1411	3481.93	61.5335
3604.98	89.5072	3604.98	87.6676	3604.98	87.5798	3604.98	86.7459	3604.98	86.6698	3604.98	87.464	3604.98	87.985	3604.98	83.0514	3604.98	83.0584	3604.98	81.1555	3604.98	81.8948	3604.98	80.6054	3604.98	81.0857	3604.98	80.4182	3604.98	81.445	3604.98	77.2587	3604.98	77.9134	3604.98	72.5937	3604.98	72.5325	3604.98	71.2102	3604.98	70.8986	3604.98	69.4206	3604.98	69.5908	3604.98	69.0811	3604.98	69.5569	3604.98	64.7037	3604.98	54.6548	3604.98	66.368	3604.98	64.4922	3604.98	66.2348	3604.98	61.075	3604.98	64.3776	3604.98	62.8782	3604.98	61.307	3604.98	61.6352	3604.98	60.5768
3732.42	89.9475	3732.42	87.9611	3732.42	88.5165	3732.42	87.6607	3732.42	86.9792	3732.42	88.0719	3732.42	88.1981	3732.42	82.9628	3732.42	83.0873	3732.42	82.9394	3732.42	83.4631	3732.42	81.2907	3732.42	81.0246	3732.42	79.6314	3732.42	80.442	3732.42	76.6203	3732.42	77.3822	3732.42	72.9907	3732.42	72.9243	3732.42	69.4352	3732.42	69.1317	3732.42	70.3264	3732.42	69.4193	3732.42	68.2796	3732.42	70.3691	3732.42	66.8961	3732.42	60.8957	3732.42	63.7295	3732.42	65.9401	3732.42	66.3297	3732.42	63.4848	3732.42	57.0168	3732.42	63.9063	3732.42	58.952	3732.42	59.39	3732.42	61.8458
3864.26	88.7249	3864.26	87.1628	3864.26	86.5898	3864.26	86.5529	3864.26	85.8448	3864.26	86.9326	3864.26	86.6803	3864.26	82.5072	3864.26	83.2116	3864.26	82.3434	3864.26	82.2285	3864.26	80.2338	3864.26	79.8478	3864.26	79.1722	3864.26	78.764	3864.26	75.6967	3864.26	76.7729	3864.26	73.1036	3864.26	72.1392	3864.26	69.6466	3864.26	69.978	3864.26	70.4878	3864.26	69.6151	3864.26	70.2771	3864.26	68.7398	3864.26	58.422	3864.26	51.1894	3864.26	58.3743	3864.26	65.6071	3864.26	64.436	3864.26	64.4478	3864.26	55.8887	3864.26	60.4479	3864.26	57.749	3864.26	59.9921	3864.26	58.6348
4000.49	89.4532	4000.49	87.7863	4000.49	88.0346	4000.49	87.434	4000.49	87.1687	4000.49	87.3581	4000.49	86.6685	4000.49	84.3646	4000.49	85.1379	4000.49	83.1523	4000.49	82.5484	4000.49	81.0198	4000.49	80.2561	4000.49	80.8843	4000.49	80.4812	4000.49	75.3138	4000.49	77.1306	4000.49	72.3047	4000.49	72.5365	4000.49	66.9517	4000.49	67.2414	4000.49	70.7203	4000.49	70.0538	4000.49	70.3074	4000.49	68.0628	4000.49	58.0769	4000.49	59.5336	4000.49	61.7626	4000.49	63.7118	4000.49	64.0587	4000.49	64.5816	4000.49	60.3165	4000.49	64.2759	4000.49	62.1742	4000.49	62.027	4000.49	62.8073
4141.11	89.0604	4141.11	87.7985	4141.11	88.2823	4141.11	87.396	4141.11	87.5952	4141.11	87.2929	4141.11	86.6536	4141.11	84.4106	4141.11	85.6845	4141.11	82.641	4141.11	82.3503	4141.11	80.6109	4141.11	80.4691	4141.11	80.3257	4141.11	80.7983	4141.11	76.8262	4141.11	78.7912	4141.11	72.4178	4141.11	74.9403	4141.11	70.0425	4141.11	70.133	4141.11	71.8418	4141.11	71.5957	4141.11	71.0279	4141.11	67.8225	4141.11	46.7277	4141.11	56.7895	4141.11	62.6079	4141.11	59.5764	4141.11	64.2028	4141.11	64.9661	4141.11	61.9256	4141.11	58.4997	4141.11	61.5732	4141.11	59.4983	4141.11	60.0454
4287.6	88.9886	4287.6	88.3929	4287.6	89.4046	4287.6	86.9425	4287.6	87.4518	4287.6	87.4971	4287.6	87.2326	4287.6	84.7907	4287.6	85.6881	4287.6	82.651	4287.6	82.596	4287.6	79.6869	4287.6	79.6402	4287.6	81.7792	4287.6	82.0668	4287.6	78.9579	4287.6	78.0162	4287.6	74.4868	4287.6	74.0608	4287.6	68.4927	4287.6	70.7885	4287.6	71.7367	4287.6	71.0327	4287.6	67.9832	4287.6	66.9587	4287.6	62.1393	4287.6	47.727	4287.6	50.0168	4287.6	62.2779	4287.6	66.0202	4287.6	65.4188	4287.6	57.6316	4287.6	57.1369	4287.6	62.6687	4287.6	62.0323	4287.6	64.9291
4438.48	88.6399	4438.48	88.796	4438.48	89.776	4438.48	87.1283	4438.48	88.0446	4438.48	87.3218	4438.48	87.9237	4438.48	85.5339	4438.48	85.5085	4438.48	81.6641	4438.48	82.3764	4438.48	80.5204	4438.48	81.0248	4438.48	82.1409	4438.48	82.2787	4438.48	78.5888	4438.48	78.349	4438.48	71.9888	4438.48	74.3654	4438.48	70.1459	4438.48	69.3308	4438.48	70.8131	4438.48	71.013	4438.48	62.4239	4438.48	69.3872	4438.48	66.1793	4438.48	51.9847	4438.48	60.969	4438.48	64.9572	4438.48	66.4573	4438.48	61.8315	4438.48	60.9349	4438.48	62.2397	4438.48	59.1097	4438.48	62.8061	4438.48	64.3077
4595.21	88.5432	4595.21	89.3134	4595.21	89.5975	4595.21	86.912	4595.21	87.6152	4595.21	86.2847	4595.21	86.7586	4595.21	85.5477	4595.21	85.7519	4595.21	80.6845	4595.21	81.6363	4595.21	80.1868	4595.21	81.4226	4595.21	79.8701	4595.21	80.4713	4595.21	77.249	4595.21	77.9889	4595.21	70.0954	4595.21	71.1416	4595.21	68.9263	4595.21	67.757	4595.21	72.0685	4595.21	67.9374	4595.21	64.3671	4595.21	64.271	4595.21	62.8912	4595.21	58.1706	4595.21	60.3754	4595.21	64.7952	4595.21	65.8498	4595.21	59.4308	4595.21	58.9422	4595.21	63.7528	4595.21	49.1115	4595.21	59.1247	4595.21	62.3867
4756.35	88.9537	4756.35	89.515	4756.35	89.7196	4756.35	87.9969	4756.35	87.7902	4756.35	86.2659	4756.35	86.7145	4756.35	85.8459	4756.35	85.9192	4756.35	81.7688	4756.35	82.1942	4756.35	79.8862	4756.35	80.9568	4756.35	79.686	4756.35	80.0645	4756.35	77.7449	4756.35	77.7502	4756.35	70.622	4756.35	71.86	4756.35	66.9946	4756.35	69.8955	4756.35	70.0785	4756.35	68.3851	4756.35	61.8907	4756.35	64.4547	4756.35	60.0638	4756.35	61.9307	4756.35	61.2684	4756.35	61.0362	4756.35	60.299	4756.35	62.9755	4756.35	64.6625	4756.35	62.755	4756.35	57.813	4756.35	52.4205	4756.35	59.4742
4924.8	89.2297	4924.8	89.7131	4924.8	89.2462	4924.8	88.2874	4924.8	87.5843	4924.8	86.1789	4924.8	86.2556	4924.8	86.3054	4924.8	86.1059	4924.8	81.9983	4924.8	81.3572	4924.8	78.7813	4924.8	80.1354	4924.8	80.1934	4924.8	79.4111	4924.8	76.8458	4924.8	77.3316	4924.8	71.2261	4924.8	72.0536	4924.8	69.6324	4924.8	70.686	4924.8	71.7516	4924.8	70.2082	4924.8	61.656	4924.8	67.2462	4924.8	61.3682	4924.8	62.43	4924.8	59.7197	4924.8	54.7978	4924.8	59.4872	4924.8	63.3908	4924.8	64.8464	4924.8	60.879	4924.8	56.7517	4924.8	58.9572	4924.8	58.5048
5097.66	89.0896	5097.66	88.8915	5097.66	88.031	5097.66	87.5901	5097.66	87.6084	5097.66	86.0325	5097.66	85.5153	5097.66	86.3766	5097.66	86.7153	5097.66	81.0996	5097.66	80.8118	5097.66	80.425	5097.66	80.3054	5097.66	79.9063	5097.66	80.416	5097.66	77.5783	5097.66	78.0278	5097.66	73.7041	5097.66	73.0956	5097.66	70.1781	5097.66	70.7633	5097.66	70.1525	5097.66	67.8023	5097.66	56.5492	5097.66	67.2347	5097.66	63.1851	5097.66	59.9946	5097.66	61.8436	5097.66	62.1523	5097.66	56.5864	5097.66	62.9715	5097.66	65.1447	5097.66	62.1038	5097.66	54.6316	5097.66	58.3324	5097.66	59.5604
5277.83	88.7093	5277.83	88.1539	5277.83	86.9697	5277.83	87.5484	5277.83	87.8711	5277.83	86.1291	5277.83	84.4261	5277.83	86.6379	5277.83	86.9917	5277.83	81.4818	5277.83	82.0408	5277.83	80.801	5277.83	80.1774	5277.83	80.507	5277.83	80.177	5277.83	78.6706	5277.83	78.3304	5277.83	74.1483	5277.83	73.0234	5277.83	71.6731	5277.83	69.7156	5277.83	67.1057	5277.83	70.7355	5277.83	49.2738	5277.83	65.7685	5277.83	63.5459	5277.83	61.6718	5277.83	59.6557	5277.83	60.6816	5277.83	62.2954	5277.83	58.2836	5277.83	62.131	5277.83	61.5768	5277.83	57.7868	5277.83	52.2779	5277.83	56.5336
5463.87	88.9943	5463.87	87.9229	5463.87	87.8004	5463.87	88.1469	5463.87	88.4771	5463.87	86.2054	5463.87	86.0233	5463.87	86.0363	5463.87	86.2869	5463.87	81.5321	5463.87	82.2249	5463.87	81.7401	5463.87	80.6221	5463.87	80.8675	5463.87	79.9071	5463.87	77.2768	5463.87	78.4265	5463.87	73.3363	5463.87	75.1717	5463.87	71.9869	5463.87	70.5985	5463.87	68.8034	5463.87	69.3352	5463.87	43.4473	5463.87	60.7956	5463.87	60.08	5463.87	62.2939	5463.87	63.0925	5463.87	60.8986	5463.87	57.9597	5463.87	62.8318	5463.87	63.8947	5463.87	64.2344	5463.87	56.8881	5463.87	49.7771	5463.87	61.7094
5657.23	89.0112	5657.23	88.0915	5657.23	88.6068	5657.23	88.1345	5657.23	88.7383	5657.23	85.727	5657.23	87.1125	5657.23	85.6801	5657.23	85.2878	5657.23	82.4477	5657.23	83.1347	5657.23	81.4896	5657.23	79.9063	5657.23	80.3045	5657.23	78.6784	5657.23	76.0783	5657.23	78.3204	5657.23	70.7252	5657.23	75.344	5657.23	70.9552	5657.23	68.6704	5657.23	68.8933	5657.23	71.5996	5657.23	62.0287	5657.23	61.1632	5657.23	63.2865	5657.23	62.5598	5657.23	60.115	5657.23	56.0125	5657.23	56.1307	5657.23	64.9732	5657.23	59.1096	5657.23	61.314	5657.23	53.9523	5657.23	55.8218	5657.23	54.0442
5856.45	87.8488	5856.45	88.2201	5856.45	89.2622	5856.45	87.8647	5856.45	88.9082	5856.45	85.1322	5856.45	87.1628	5856.45	85.2984	5856.45	84.292	5856.45	83.0585	5856.45	84.1708	5856.45	79.2384	5856.45	79.7992	5856.45	79.2715	5856.45	79.7427	5856.45	76.3386	5856.45	78.6821	5856.45	71.4834	5856.45	75.226	5856.45	71.0302	5856.45	70.328	5856.45	70.4822	5856.45	71.1535	5856.45	50.6837	5856.45	64.5484	5856.45	64.1079	5856.45	61.0563	5856.45	36.6852	5856.45	49.8973	5856.45	58.7633	5856.45	59.2367	5856.45	54.2252	5856.45	57.7737	5856.45	51.9432	5856.45	57.3997	5856.45	52.1963
6062.99	87.6557	6062.99	88.1725	6062.99	89.5403	6062.99	87.8045	6062.99	88.3918	6062.99	85.8651	6062.99	86.3716	6062.99	85.2089	6062.99	85.0121	6062.99	82.73	6062.99	83.425	6062.99	77.6724	6062.99	80.1564	6062.99	79.5854	6062.99	80.0542	6062.99	78.087	6062.99	78.512	6062.99	73.6566	6062.99	73.9485	6062.99	71.5286	6062.99	70.1071	6062.99	68.6406	6062.99	70.5391	6062.99	44.7757	6062.99	58.8766	6062.99	55.1068	6062.99	59.4398	6062.99	47.1264	6062.99	57.5255	6062.99	64.0575	6062.99	53.7683	6062.99	59.9228	6062.99	58.9007	6062.99	48.8087	6062.99	55.0254	6062.99	43.3751
6276.86	88.7754	6276.86	88.6298	6276.86	89.0235	6276.86	87.7218	6276.86	87.4536	6276.86	86.5144	6276.86	85.4365	6276.86	84.9225	6276.86	85.5039	6276.86	82.069	6276.86	82.4602	6276.86	78.5111	6276.86	80.359	6276.86	78.502	6276.86	79.2002	6276.86	77.9479	6276.86	77.2495	6276.86	73.3928	6276.86	71.5932	6276.86	70.7549	6276.86	65.5685	6276.86	68.012	6276.86	67.85	6276.86	53.0928	6276.86	47.1164	6276.86	55.2831	6276.86	49.689	6276.86	59.5887	6276.86	58.4794	6276.86	58.5639	6276.86	51.3268	6276.86	62.0072	6276.86	62.2745	6276.86	59.4709	6276.86	55.9581	6276.86	54.0738
6498.05	89.62	6498.05	89.1186	6498.05	87.9576	6498.05	88.6371	6498.05	87.4005	6498.05	87.5612	6498.05	87.0275	6498.05	86.0823	6498.05	85.7828	6498.05	82.3439	6498.05	83.4053	6498.05	80.644	6498.05	80.9902	6498.05	78.1284	6498.05	77.7169	6498.05	75.3719	6498.05	76.8468	6498.05	72.4994	6498.05	71.2819	6498.05	66.1319	6498.05	70.1771	6498.05	65.9389	6498.05	66.8386	6498.05	54.0297	6498.05	56.7898	6498.05	56.8968	6498.05	58.4034	6498.05	60.2998	6498.05	48.1171	6498.05	44.7352	6498.05	60.0167	6498.05	61.3613	6498.05	62.338	6498.05	59.7739	6498.05	56.6425	6498.05	57.1934
6726.56	89.3257	6726.56	89.4899	6726.56	87.4275	6726.56	88.785	6726.56	88.1542	6726.56	87.4704	6726.56	88.7234	6726.56	86.7538	6726.56	85.1141	6726.56	83.1893	6726.56	84.4782	6726.56	80.907	6726.56	79.0115	6726.56	77.316	6726.56	77.6919	6726.56	78.3149	6726.56	78.9304	6726.56	73.0247	6726.56	72.2498	6726.56	70.1871	6726.56	70.0365	6726.56	63.1732	6726.56	67.9292	6726.56	51.2405	6726.56	57.1423	6726.56	59.6813	6726.56	62.3057	6726.56	58.6447	6726.56	57.7399	6726.56	60.0789	6726.56	60.6027	6726.56	59.2165	6726.56	56.9897	6726.56	59.3657	6726.56	52.1387	6726.56	50.0983
6963.87	88.4971	6963.87	88.9441	6963.87	88.6626	6963.87	87.3215	6963.87	88.0269	6963.87	87.7057	6963.87	88.8653	6963.87	84.796	6963.87	83.7294	6963.87	84.3682	6963.87	85.3292	6963.87	80.285	6963.87	77.9625	6963.87	77.1047	6963.87	78.3444	6963.87	77.388	6963.87	79.1095	6963.87	71.854	6963.87	71.9007	6963.87	69.8097	6963.87	68.3492	6963.87	60.8021	6963.87	69.0546	6963.87	55.1361	6963.87	53.6882	6963.87	61.6782	6963.87	58.3661	6963.87	57.0637	6963.87	57.5612	6963.87	63.951	6963.87	59.7669	6963.87	48.9638	6963.87	53.7845	6963.87	54.791	6963.87	56.694	6963.87	55.433
7209.96	88.2614	7209.96	88.3542	7209.96	89.6717	7209.96	86.1999	7209.96	87.725	7209.96	88.4501	7209.96	87.9804	7209.96	82.7766	7209.96	84.5598	7209.96	85.422	7209.96	85.3196	7209.96	78.5859	7209.96	79.5357	7209.96	77.0165	7209.96	77.586	7209.96	78.1156	7209.96	77.6819	7209.96	71.6136	7209.96	71.6745	7209.96	68.4121	7209.96	68.0171	7209.96	64.6227	7209.96	67.9881	7209.96	59.1574	7209.96	58.4363	7209.96	60.9255	7209.96	62.2436	7209.96	48.1408	7209.96	51.1163	7209.96	61.9115	7209.96	52.0516	7209.96	56.4757	7209.96	57.6741	7209.96	51.1344	7209.96	58.5521	7209.96	57.2878
7464.84	88.4467	7464.84	88.2256	7464.84	89.1919	7464.84	88.4655	7464.84	87.6529	7464.84	88.3555	7464.84	86.7584	7464.84	85.9949	7464.84	86.8384	7464.84	85.1782	7464.84	84.8399	7464.84	78.8585	7464.84	80.9356	7464.84	78.9727	7464.84	78.1925	7464.84	77.7289	7464.84	77.264	7464.84	72.7278	7464.84	71.8452	7464.84	69.069	7464.84	66.4344	7464.84	65.9273	7464.84	66.6066	7464.84	59.0997	7464.84	55.9239	7464.84	63.6402	7464.84	64.0677	7464.84	54.6772	7464.84	47.642	7464.84	53.1376	7464.84	59.1345	7464.84	57.2142	7464.84	61.2388	7464.84	57.7722	7464.84	52.0432	7464.84	56.3344
7727.05	88.579	7727.05	88.6158	7727.05	87.9975	7727.05	89.0624	7727.05	88.7615	7727.05	87.8767	7727.05	87.9731	7727.05	86.9503	7727.05	86.8808	7727.05	83.8138	7727.05	85.2148	7727.05	80.3034	7727.05	81.0459	7727.05	78.9318	7727.05	78.3935	7727.05	75.7607	7727.05	76.9274	7727.05	68.6466	7727.05	71.013	7727.05	63.802	7727.05	64.0931	7727.05	65.7063	7727.05	65.7048	7727.05	52.0799	7727.05	53.5825	7727.05	59.2412	7727.05	62.029	7727.05	55.8017	7727.05	45.4394	7727.05	56.1065	7727.05	59.2454	7727.05	59.9451	7727.05	51.4512	7727.05	59.518	7727.05	56.2192	7727.05	47.7215
7999.51	88.9572	7999.51	88.5167	7999.51	87.8252	7999.51	88.1965	7999.51	89.6734	7999.51	86.8454	7999.51	88.0649	7999.51	86.6734	7999.51	86.2899	7999.51	84.5892	7999.51	85.412	7999.51	79.6809	7999.51	80.6013	7999.51	78.7507	7999.51	79.4846	7999.51	77.0177	7999.51	77.0658	7999.51	68.8042	7999.51	71.1852	7999.51	65.068	7999.51	66.6538	7999.51	64.7527	7999.51	65.7856	7999.51	57.3948	7999.51	55.4833	7999.51	58.7941	7999.51	62.5014	7999.51	54.0847	7999.51	53.4507	7999.51	55.7169	7999.51	57.0184	7999.51	58.718	7999.51	49.1831	7999.51	57.7614	7999.51	50.9743	7999.51	47.2131
8282.23	88.6838	8282.23	88.2894	8282.23	88.5424	8282.23	87.6358	8282.23	89.2581	8282.23	86.9995	8282.23	88.3167	8282.23	85.2412	8282.23	86.7516	8282.23	85.0076	8282.23	84.8838	8282.23	79.2396	8282.23	81.5466	8282.23	78.3326	8282.23	80.0331	8282.23	78.0288	8282.23	76.779	8282.23	66.0315	8282.23	69.2372	8282.23	62.1752	8282.23	69.6722	8282.23	63.2134	8282.23	62.654	8282.23	50.4126	8282.23	52.3859	8282.23	60.9383	8282.23	60.9095	8282.23	53.1633	8282.23	50.0665	8282.23	57.1442	8282.23	50.8992	8282.23	58.2113	8282.23	58.9329	8282.23	57.276	8282.23	59.2968	8282.23	50.4074
8573.73	88.3309	8573.73	88.0411	8573.73	88.9192	8573.73	88.1498	8573.73	88.392	8573.73	88.0886	8573.73	88.5338	8573.73	84.7886	8573.73	87.0089	8573.73	85.1213	8573.73	84.956	8573.73	80.2601	8573.73	81.964	8573.73	77.052	8573.73	77.7843	8573.73	76.3713	8573.73	76.8091	8573.73	68.8944	8573.73	70.7278	8573.73	66.3153	8573.73	68.962	8573.73	54.436	8573.73	67.496	8573.73	60.0306	8573.73	61.0606	8573.73	60.8046	8573.73	60.9275	8573.73	55.607	8573.73	57.9308	8573.73	58.9696	8573.73	56.1064	8573.73	57.8936	8573.73	58.6872	8573.73	40.3853	8573.73	61.065	8573.73	43.5329
8876.95	88.4866	8876.95	88.5917	8876.95	88.7505	8876.95	88.6817	8876.95	88.1048	8876.95	88.9292	8876.95	88.2716	8876.95	86.3281	8876.95	86.574	8876.95	84.13	8876.95	85.0126	8876.95	81.8702	8876.95	81.306	8876.95	76.6802	8876.95	75.5421	8876.95	75.1529	8876.95	77.5606	8876.95	71.6268	8876.95	73.9445	8876.95	67.4237	8876.95	65.6556	8876.95	54.4796	8876.95	64.8804	8876.95	59.6088	8876.95	60.5478	8876.95	54.8983	8876.95	48.2302	8876.95	54.3639	8876.95	57.0054	8876.95	58.1148	8876.95	50.8651	8876.95	56.0725	8876.95	51.4214	8876.95	53.6525	8876.95	54.8552	8876.95	54.0777
9188.96	87.3333	9188.96	88.1226	9188.96	87.4529	9188.96	87.7451	9188.96	87.9101	9188.96	87.6935	9188.96	87.3707	9188.96	86.6725	9188.96	86.1161	9188.96	82.918	9188.96	84.0866	9188.96	81.965	9188.96	80.6182	9188.96	75.9753	9188.96	75.1237	9188.96	74.2899	9188.96	76.8355	9188.96	70.9572	9188.96	73.6071	9188.96	62.6506	9188.96	61.2854	9188.96	50.9612	9188.96	60.6415	9188.96	55.8166	9188.96	57.2239	9188.96	47.257	9188.96	49.6542	9188.96	51.3154	9188.96	51.2626	9188.96	53.8021	9188.96	53.0001	9188.96	49.1784	9188.96	53.2233	9188.96	54.87	9188.96	46.7839	9188.96	55.1267
9514.16	86.5024	9514.16	87.2361	9514.16	87.1184	9514.16	87.199	9514.16	87.3604	9514.16	86.271	9514.16	86.7144	9514.16	85.8747	9514.16	85.8813	9514.16	82.2805	9514.16	83.6704	9514.16	81.0976	9514.16	81.5784	9514.16	76.2763	9514.16	76.695	9514.16	75.1776	9514.16	75.3226	9514.16	69.1557	9514.16	70.6153	9514.16	61.0331	9514.16	59.78	9514.16	56.916	9514.16	60.047	9514.16	59.0762	9514.16	61.3457	9514.16	55.2992	9514.16	47.3303	9514.16	54.6887	9514.16	55.6866	9514.16	46.1258	9514.16	46.8319	9514.16	41.2943	9514.16	57.3676	9514.16	51.9336	9514.16	44.412	9514.16	54.0284
9849.61	86.1649	9849.61	86.7339	9849.61	86.3417	9849.61	86.9142	9849.61	86.2836	9849.61	86.3631	9849.61	86.6346	9849.61	84.9017	9849.61	85.4218	9849.61	81.6946	9849.61	82.3168	9849.61	80.0654	9849.61	81.3627	9849.61	74.7072	9849.61	75.7359	9849.61	74.1621	9849.61	74.9335	9849.61	67.4599	9849.61	69.4978	9849.61	59.9965	9849.61	65.2836	9849.61	51.823	9849.61	50.2758	9849.61	56.6105	9849.61	51.2332	9849.61	50.3082	9849.61	41.622	9849.61	51.1755	9849.61	49.2792	9849.61	56.3429	9849.61	46.0028	9849.61	53.5786	9849.61	56.2083	9849.61	50.0111	9849.61	49.5746	9849.61	52.2144
10196.8	85.3604	10196.8	85.0739	10196.8	85.3008	10196.8	84.927	10196.8	85.6402	10196.8	85.4375	10196.8	84.8101	10196.8	84.9365	10196.8	84.6563	10196.8	81.3616	10196.8	80.8365	10196.8	79.5022	10196.8	80.7136	10196.8	73.3027	10196.8	74.3772	10196.8	73.4678	10196.8	74.055	10196.8	67.05	10196.8	69.6763	10196.8	59.0803	10196.8	56.4812	10196.8	44.1555	10196.8	60.2102	10196.8	54.6304	10196.8	55.137	10196.8	50.4081	10196.8	37.521	10196.8	43.3522	10196.8	50.2289	10196.8	52.9905	10196.8	43.604	10196.8	53.4512	10196.8	52.8203	10196.8	51.046	10196.8	34.697	10196.8	53.4637
10555.7	84.9924	10555.7	83.553	10555.7	83.9561	10555.7	84.8332	10555.7	85.5782	10555.7	84.0035	10555.7	84.3888	10555.7	84.3309	10555.7	84.0629	10555.7	80.5451	10555.7	81.2037	10555.7	79.5863	10555.7	80.0226	10555.7	73.1185	10555.7	72.9827	10555.7	73.07	10555.7	72.9072	10555.7	65.9001	10555.7	65.8229	10555.7	59.4191	10555.7	59.8226	10555.7	47.371	10555.7	54.3203	10555.7	57.8736	10555.7	47.202	10555.7	50.7092	10555.7	46.9317	10555.7	52.2848	10555.7	53.5257	10555.7	34.5501	10555.7	54.0137	10555.7	50.9737	10555.7	43.2071	10555.7	54.1034	10555.7	48.3747	10555.7	54.8726
10927.7	87.3319	10927.7	87.9673	10927.7	86.226	10927.7	87.2962	10927.7	87.4335	10927.7	86.8588	10927.7	87.0254	10927.7	85.7206	10927.7	86.1169	10927.7	83.3444	10927.7	82.4608	10927.7	80.2259	10927.7	81.0551	10927.7	76.0721	10927.7	74.1155	10927.7	75.3512	10927.7	74.099	10927.7	69.1785	10927.7	68.6559	10927.7	62.1771	10927.7	63.7806	10927.7	54.0151	10927.7	61.008	10927.7	56.4288	10927.7	45.3314	10927.7	16.8527	10927.7	45.8962	10927.7	42.2999	10927.7	50.9654	10927.7	44.0963	10927.7	55.104	10927.7	51.9138	10927.7	54.055	10927.7	55.3319	10927.7	51.6624	10927.7	47.6829
11313	88.0781	11313	88.6757	11313	88.4921	11313	88.18	11313	88.4666	11313	87.7865	11313	87.1676	11313	87.5886	11313	87.0956	11313	84.1258	11313	84.2804	11313	81.1922	11313	81.3159	11313	76.2217	11313	76.6771	11313	75.4281	11313	74.667	11313	68.3904	11313	70.4192	11313	61.5361	11313	60.1523	11313	55.8388	11313	61.9288	11313	56.6454	11313	35.2418	11313	51.717	11313	54.8654	11313	46.5787	11313	55.4621	11313	55.6464	11313	57.9761	11313	47.2419	11313	54.2667	11313	55.989	11313	51.1668	11313	48.2035
11712.9	88.4787	11712.9	88.59	11712.9	88.5534	11712.9	89.4041	11712.9	88.6152	11712.9	88.6235	11712.9	88.4077	11712.9	88.0646	11712.9	86.9449	11712.9	84.722	11712.9	85.5321	11712.9	82.9732	11712.9	81.7277	11712.9	77.7306	11712.9	79.5223	11712.9	75.3549	11712.9	74.9375	11712.9	69.8432	11712.9	68.7102	11712.9	62.8908	11712.9	58.3377	11712.9	58.3438	11712.9	63.0346	11712.9	57.4692	11712.9	56.0982	11712.9	47.3331	11712.9	56.7858	11712.9	46.9285	11712.9	39.9429	11712.9	54.3157	11712.9	42.6093	11712.9	53.285	11712.9	54.166	11712.9	53.4666	11712.9	55.2653	11712.9	40.0802
12126	88.9817	12126	89.193	12126	89.0711	12126	89.4902	12126	88.7092	12126	88.753	12126	89.0355	12126	87.3819	12126	87.7247	12126	86.2365	12126	86.7115	12126	82.627	12126	81.5257	12126	79.2502	12126	80.0021	12126	75.0358	12126	73.6554	12126	67.9767	12126	68.7666	12126	62.0399	12126	58.1289	12126	58.5937	12126	55.1566	12126	53.9547	12126	54.3986	12126	47.0143	12126	55.7577	12126	55.3007	12126	49.7522	12126	47.5527	12126	29.8962	12126	49.0758	12126	50.5355	12126	52.2697	12126	54.5961	12126	38.4752
12553.7	89.6287	12553.7	90.6732	12553.7	90.548	12553.7	89.6929	12553.7	89.4691	12553.7	90.0449	12553.7	88.934	12553.7	87.5367	12553.7	87.3978	12553.7	84.9742	12553.7	86.075	12553.7	82.5317	12553.7	82.6691	12553.7	78.7265	12553.7	79.0974	12553.7	73.8	12553.7	72.6	12553.7	67.4977	12553.7	70.3829	12553.7	61.1073	12553.7	61.3433	12553.7	58.0111	12553.7	57.8778	12553.7	49.7795	12553.7	56.6227	12553.7	47.7029	12553.7	45.4637	12553.7	56.0134	12553.7	55.9535	12553.7	50.5849	12553.7	43.1945	12553.7	45.478	12553.7	48.6725	12553.7	54.9486	12553.7	53.4531	12553.7	43.0293
12996.1	90.0495	12996.1	90.8759	12996.1	90.3509	12996.1	89.9074	12996.1	90.4152	12996.1	90.0513	12996.1	89.9106	12996.1	88.7987	12996.1	88.2633	12996.1	85.1612	12996.1	86.4879	12996.1	83.3746	12996.1	84.5105	12996.1	78.7805	12996.1	79.0843	12996.1	74.3524	12996.1	74.1552	12996.1	68.0872	12996.1	70.9656	12996.1	61.7651	12996.1	63.6576	12996.1	55.6234	12996.1	49.038	12996.1	47.8255	12996.1	54.6206	12996.1	49.7788	12996.1	49.0266	12996.1	49.5471	12996.1	46.8968	12996.1	50.1383	12996.1	48.0668	12996.1	54.5583	12996.1	47.9787	12996.1	50.8253	12996.1	58.8373	12996.1	32.1227
13454.6	90.0401	13454.6	90.6077	13454.6	89.8498	13454.6	89.9573	13454.6	90.5922	13454.6	89.3037	13454.6	89.3941	13454.6	87.8388	13454.6	87.9672	13454.6	85.3454	13454.6	85.7527	13454.6	82.0496	13454.6	82.278	13454.6	78.8321	13454.6	79.539	13454.6	73.838	13454.6	73.817	13454.6	69.0525	13454.6	70.4166	13454.6	62.5685	13454.6	62.6558	13454.6	57.4894	13454.6	53.3877	13454.6	51.536	13454.6	54.9456	13454.6	50.2471	13454.6	53.0612	13454.6	50.2095	13454.6	55.8709	13454.6	53.6358	13454.6	46.7849	13454.6	39.5021	13454.6	52.7225	13454.6	54.0334	13454.6	48.9985	13454.6	51.4582
13929.2	91.2039	13929.2	91.8765	13929.2	91.6722	13929.2	90.6751	13929.2	90.7091	13929.2	90.4252	13929.2	90.6774	13929.2	89.0149	13929.2	88.7108	13929.2	86.0046	13929.2	86.5848	13929.2	83.0097	13929.2	83.2803	13929.2	79.1673	13929.2	79.5876	13929.2	74.1608	13929.2	73.2264	13929.2	68.2	13929.2	68.933	13929.2	61.6434	13929.2	60.9059	13929.2	57.9076	13929.2	57.7566	13929.2	46.0324	13929.2	53.8738	13929.2	50.9151	13929.2	42.9661	13929.2	52.8407	13929.2	33.3966	13929.2	46.0523	13929.2	59.4789	13929.2	51.9673	13929.2	57.1383	13929.2	44.4592	13929.2	46.1451	13929.2	54.9826
14419.9	91.7055	14419.9	91.8084	14419.9	91.0301	14419.9	91.0553	14419.9	91.2542	14419.9	91.0949	14419.9	90.4559	14419.9	89.0208	14419.9	88.851	14419.9	86.4846	14419.9	86.1308	14419.9	83.5701	14419.9	84.0981	14419.9	78.8181	14419.9	78.7993	14419.9	72.1736	14419.9	71.7052	14419.9	67.0651	14419.9	69.0536	14419.9	63.1287	14419.9	60.8014	14419.9	57.9421	14419.9	59.467	14419.9	57.7492	14419.9	56.9366	14419.9	50.2504	14419.9	45.5029	14419.9	54.8305	14419.9	52.239	14419.9	57.3062	14419.9	58.2863	14419.9	56.2127	14419.9	54.5073	14419.9	53.9735	14419.9	51.5471	14419.9	51.7084
14928.2	91.5026	14928.2	90.8921	14928.2	91.4695	14928.2	90.4693	14928.2	91.574	14928.2	89.736	14928.2	90.8605	14928.2	88.8041	14928.2	88.9909	14928.2	85.0875	14928.2	85.7351	14928.2	82.8645	14928.2	84.5434	14928.2	77.3894	14928.2	79.3458	14928.2	70.8863	14928.2	74.1367	14928.2	65.7923	14928.2	67.9065	14928.2	60.0685	14928.2	63.5977	14928.2	54.4846	14928.2	52.2083	14928.2	55.0295	14928.2	56.2127	14928.2	47.1012	14928.2	48.6578	14928.2	52.985	14928.2	33.4943	14928.2	51.5164	14928.2	51.3952	14928.2	52.2714	14928.2	48.6047	14928.2	57.7212	14928.2	56.0456	14928.2	51.9651
15455.6	90.4702	15455.6	90.5716	15455.6	90.2945	15455.6	90.0248	15455.6	90.846	15455.6	89.6454	15455.6	90.0009	15455.6	87.7584	15455.6	88.422	15455.6	83.4452	15455.6	85.1395	15455.6	81.6768	15455.6	82.9389	15455.6	78.0321	15455.6	78.9442	15455.6	71.006	15455.6	73.055	15455.6	63.8825	15455.6	66.5696	15455.6	60.5496	15455.6	62.2706	15455.6	49.5171	15455.6	49.9329	15455.6	55.7422	15455.6	54.7052	15455.6	43.0639	15455.6	50.2415	15455.6	49.1576	15455.6	50.0882	15455.6	45.4595	15455.6	52.0235	15455.6	54.2352	15455.6	50.6926	15455.6	46.0454	15455.6	54.7403	15455.6	55.5561
16000.5	90.9752	16000.5	89.9461	16000.5	90.9115	16000.5	89.7139	16000.5	90.5584	16000.5	88.5182	16000.5	89.8471	16000.5	87.2469	16000.5	88.386	16000.5	83.4154	16000.5	85.5233	16000.5	80.1454	16000.5	82.234	16000.5	77.4249	16000.5	79.026	16000.5	71.2983	16000.5	72.4911	16000.5	61.1284	16000.5	64.3925	16000.5	58.3996	16000.5	61.1184	16000.5	52.7442	16000.5	54.4575	16000.5	46.7616	16000.5	48.3171	16000.5	41.8704	16000.5	33.3316	16000.5	39.3361	16000.5	50.0237	16000.5	52.3361	16000.5	53.3366	16000.5	50.7574	16000.5	43.3386	16000.5	39.2751	16000.5	53.1158	16000.5	49.8308
16564.5	90.7924	16564.5	90.1529	16564.5	91.0614	16564.5	88.7992	16564.5	91.4915	16564.5	87.1298	16564.5	90.917	16564.5	85.8155	16564.5	89.3445	16564.5	82.2013	16564.5	86.8724	16564.5	78.4991	16564.5	83.6442	16564.5	75.0075	16564.5	79.2796	16564.5	66.2034	16564.5	75.115	16564.5	58.9836	16564.5	64.9872	16564.5	54.2049	16564.5	61.1882	16564.5	50.8249	16564.5	53.8878	16564.5	51.3874	16564.5	51.0263	16564.5	42.7801	16564.5	40.8881	16564.5	48.5889	16564.5	46.6811	16564.5	47.4438	16564.5	50.1107	16564.5	43.3233	16564.5	47.3622	16564.5	46.0782	16564.5	50.1126	16564.5	52.6361
17148.9	90.2083	17148.9	89.5146	17148.9	90.9114	17148.9	87.9399	17148.9	92.1727	17148.9	85.6901	17148.9	91.3721	17148.9	82.849	17148.9	90.5396	17148.9	78.7127	17148.9	87.7633	17148.9	74.5557	17148.9	84.4775	17148.9	71.1915	17148.9	80.5771	17148.9	67.6802	17148.9	76.1249	17148.9	56.8538	17148.9	66.3109	17148.9	47.5217	17148.9	60.8844	17148.9	40.6233	17148.9	57.027	17148.9	51.1304	17148.9	46.8626	17148.9	48.7076	17148.9	39.0711	17148.9	48.2697	17148.9	49.4354	17148.9	39.6653	17148.9	50.0272	17148.9	51.3517	17148.9	52.1283	17148.9	39.8074	17148.9	49.8237	17148.9	38.2006
17752.4	92.0389	17752.4	91.0872	17752.4	92.2985	17752.4	89.6975	17752.4	93.4377	17752.4	88.2108	17752.4	92.6005	17752.4	85.8897	17752.4	91.9485	17752.4	81.8949	17752.4	89.4039	17752.4	77.3337	17752.4	85.5776	17752.4	75.6824	17752.4	82.5109	17752.4	68.4952	17752.4	77.302	17752.4	57.9304	17752.4	67.9359	17752.4	48.3768	17752.4	63.3067	17752.4	34.1142	17752.4	55.8264	17752.4	49.7596	17752.4	48.834	17752.4	44.1107	17752.4	44.5168	17752.4	43.6628	17752.4	53.6064	17752.4	40.7909	17752.4	50.8092	17752.4	51.3872	17752.4	50.6558	17752.4	50.1794	17752.4	37.6255	17752.4	53.8026
18379.4	94.7484	18379.4	95.1878	18379.4	94.4743	18379.4	95.0933	18379.4	94.5013	18379.4	94.1337	18379.4	93.3985	18379.4	92.3855	18379.4	91.7899	18379.4	89.4601	18379.4	88.8831	18379.4	85.1398	18379.4	84.0623	18379.4	81.9295	18379.4	81.694	18379.4	77.109	18379.4	75.317	18379.4	66.1994	18379.4	64.4292	18379.4	56.767	18379.4	60.1236	18379.4	48.6153	18379.4	51.6552	18379.4	51.9077	18379.4	49.0398	18379.4	48.1798	18379.4	43.6442	18379.4	41.0821	18379.4	50.6332	18379.4	45.4728	18379.4	50.3601	18379.4	52.2338	18379.4	41.3853	18379.4	55.4115	18379.4	48.0679	18379.4	58.5905
19026.9	98.1286	19026.9	98.5719	19026.9	98.0112	19026.9	98.1775	19026.9	97.6264	19026.9	97.2425	19026.9	96.4737	19026.9	95.6197	19026.9	93.9903	19026.9	92.2331	19026.9	91.034	19026.9	88.4524	19026.9	86.715	19026.9	84.417	19026.9	83.3434	19026.9	81.2602	19026.9	79.3421	19026.9	69.1924	19026.9	69.8881	19026.9	55.3886	19026.9	62.3558	19026.9	46.5227	19026.9	49.1791	19026.9	54.7435	19026.9	48.4992	19026.9	50.0213	19026.9	35.277	19026.9	49.1978	19026.9	53.8092	19026.9	51.1696	19026.9	44.9289	19026.9	42.5417	19026.9	46.9453	19026.9	56.6181	19026.9	49.6931	19026.9	55.8915
19697.8	98.2301	19697.8	98.0656	19697.8	98.4884	19697.8	97.4617	19697.8	98.801	19697.8	96.0396	19697.8	98.3194	19697.8	93.9961	19697.8	96.4034	19697.8	90.2266	19697.8	93.7307	19697.8	86.7028	19697.8	89.9198	19697.8	84.6855	19697.8	86.59	19697.8	79.7447	19697.8	82.2071	19697.8	67.1812	19697.8	71.9691	19697.8	59.6754	19697.8	58.8859	19697.8	50.3128	19697.8	55.1794	19697.8	56.8828	19697.8	43.5171	19697.8	56.6561	19697.8	46.162	19697.8	48.8124	19697.8	57.4995	19697.8	44.7377	19697.8	40.4374	19697.8	59.5395	19697.8	42.2176	19697.8	53.6286	19697.8	56.2274	19697.8	54.7331
19999.5	96.5076	19999.5	97.0421	19999.5	96.5498	19999.5	96.8083	19999.5	97.6809	19999.5	95.9386	19999.5	96.688	19999.5	94.6093	19999.5	95.5777	19999.5	91.4601	19999.5	92.7921	19999.5	85.9484	19999.5	89.1646	19999.5	84.023	19999.5	85.5516	19999.5	80.9003	19999.5	81.2844	19999.5	70.8259	19999.5	70.0562	19999.5	57.8313	19999.5	59.3856	19999.5	50.1663	19999.5	46.738	19999.5	63.6506	19999.5	49.5623	19999.5	58.9378	19999.5	43.7237	19999.5	42.4504	19999.5	51.9449	19999.5	49.0374	19999.5	52.4651	19999.5	59.611	19999.5	51.4287	19999.5	47.4762	19999.5	56.558	19999.5	53.1212
