"SPL Vertical"
"On-Axis"		"10°"		"-10°"		"20°"		"-20°"		"30°"		"-30°"		"40°"		"-40°"		"50°"		"-50°"		"60°"		"-60°"		"70°"		"-70°"		"80°"		"-80°"		"90°"		"-90°"		"100°"		"-100°"		"110°"		"-110°"		"120°"		"-120°"		"130°"		"-130°"		"140°"		"-140°"		"150°"		"-150°"		"160°"		"-160°"		"170°"		"-170°"		"180°"
"Frequency [Hz]"	"Sound Pessure Level [dB]   [2.83V at 1m]"	"Frequency [Hz]"	"Sound Pessure Level [dB]   [2.83V at 1m]"	"Frequency [Hz]"	"Sound Pessure Level [dB]   [2.83V at 1m]"	"Frequency [Hz]"	"Sound Pessure Level [dB]   [2.83V at 1m]"	"Frequency [Hz]"	"Sound Pessure Level [dB]   [2.83V at 1m]"	"Frequency [Hz]"	"Sound Pessure Level [dB]   [2.83V at 1m]"	"Frequency [Hz]"	"Sound Pessure Level [dB]   [2.83V at 1m]"	"Frequency [Hz]"	"Sound Pessure Level [dB]   [2.83V at 1m]"	"Frequency [Hz]"	"Sound Pessure Level [dB]   [2.83V at 1m]"	"Frequency [Hz]"	"Sound Pessure Level [dB]   [2.83V at 1m]"	"Frequency [Hz]"	"Sound Pessure Level [dB]   [2.83V at 1m]"	"Frequency [Hz]"	"Sound Pessure Level [dB]   [2.83V at 1m]"	"Frequency [Hz]"	"Sound Pessure Level [dB]   [2.83V at 1m]"	"Frequency [Hz]"	"Sound Pessure Level [dB]   [2.83V at 1m]"	"Frequency [Hz]"	"Sound Pessure Level [dB]   [2.83V at 1m]"	"Frequency [Hz]"	"Sound Pessure Level [dB]   [2.83V at 1m]"	"Frequency [Hz]"	"Sound Pessure Level [dB]   [2.83V at 1m]"	"Frequency [Hz]"	"Sound Pessure Level [dB]   [2.83V at 1m]"	"Frequency [Hz]"	"Sound Pessure Level [dB]   [2.83V at 1m]"	"Frequency [Hz]"	"Sound Pessure Level [dB]   [2.83V at 1m]"	"Frequency [Hz]"	"Sound Pessure Level [dB]   [2.83V at 1m]"	"Frequency [Hz]"	"Sound Pessure Level [dB]   [2.83V at 1m]"	"Frequency [Hz]"	"Sound Pessure Level [dB]   [2.83V at 1m]"	"Frequency [Hz]"	"Sound Pessure Level [dB]   [2.83V at 1m]"	"Frequency [Hz]"	"Sound Pessure Level [dB]   [2.83V at 1m]"	"Frequency [Hz]"	"Sound Pessure Level [dB]   [2.83V at 1m]"	"Frequency [Hz]"	"Sound Pessure Level [dB]   [2.83V at 1m]"	"Frequency [Hz]"	"Sound Pessure Level [dB]   [2.83V at 1m]"	"Frequency [Hz]"	"Sound Pessure Level [dB]   [2.83V at 1m]"	"Frequency [Hz]"	"Sound Pessure Level [dB]   [2.83V at 1m]"	"Frequency [Hz]"	"Sound Pessure Level [dB]   [2.83V at 1m]"	"Frequency [Hz]"	"Sound Pessure Level [dB]   [2.83V at 1m]"	"Frequency [Hz]"	"Sound Pessure Level [dB]   [2.83V at 1m]"	"Frequency [Hz]"	"Sound Pessure Level [dB]   [2.83V at 1m]"	"Frequency [Hz]"	"Sound Pessure Level [dB]   [2.83V at 1m]"	"Frequency [Hz]"	"Sound Pessure Level [dB]   [2.83V at 1m]"
20.5078	62.1724	20.5078	62.137	20.5078	62.0915	20.5078	61.9826	20.5078	61.895	20.5078	61.7054	20.5078	61.5819	20.5078	61.3014	20.5078	61.1498	20.5078	60.7687	20.5078	60.5963	20.5078	60.1121	20.5078	59.9223	20.5078	59.3529	20.5078	59.1398	20.5078	58.5452	20.5078	58.2859	20.5078	57.7991	20.5078	57.4475	20.5078	57.285	20.5078	56.7827	20.5078	57.1701	20.5078	56.492	20.5078	57.4913	20.5078	56.6919	20.5078	58.1121	20.5078	57.3005	20.5078	58.828	20.5078	58.1035	20.5078	59.475	20.5078	58.8993	20.5078	59.9547	20.5078	59.5593	20.5078	60.2166	20.5078	60.0161	20.5078	60.2387
21.9727	60.419	21.9727	60.3576	21.9727	60.2874	21.9727	60.0975	21.9727	59.9633	21.9727	59.6293	21.9727	59.4415	21.9727	58.9425	21.9727	58.7127	21.9727	58.0362	21.9727	57.7695	21.9727	56.9479	21.9727	56.6277	21.9727	55.8278	21.9727	55.3894	21.9727	55.0553	21.9727	54.374	21.9727	55.1529	21.9727	54.1608	21.9727	56.2182	21.9727	55.0618	21.9727	57.7752	21.9727	56.6553	21.9727	59.36	21.9727	58.3735	21.9727	60.755	21.9727	59.9286	21.9727	61.8899	21.9727	61.2279	21.9727	62.7496	21.9727	62.2521	21.9727	63.3352	21.9727	63.0027	21.9727	63.6509	21.9727	63.4843	21.9727	63.7001
23.4375	57.7895	23.4375	57.6492	23.4375	57.6388	23.4375	57.1989	23.4375	57.1858	23.4375	56.3825	23.4375	56.3836	23.4375	55.0853	23.4375	55.1312	23.4375	53.0727	23.4375	53.2202	23.4375	49.7975	23.4375	50.1677	23.4375	43.6642	23.4375	44.4889	23.4375	40.5034	23.4375	36.2983	23.4375	49.2034	23.4375	47.3209	23.4375	54.1176	23.4375	52.9122	23.4375	57.3605	23.4375	56.4365	23.4375	59.7149	23.4375	58.9635	23.4375	61.4879	23.4375	60.8714	23.4375	62.8242	23.4375	62.3301	23.4375	63.7997	23.4375	63.4257	23.4375	64.4559	23.4375	64.2041	23.4375	64.8161	23.4375	64.6893	23.4375	64.8924
24.9023	57.1529	24.9023	56.855	24.9023	57.1529	24.9023	56.2361	24.9023	56.8547	24.9023	55.2505	24.9023	56.2364	24.9023	53.847	24.9023	55.2581	24.9023	52.0813	24.9023	53.8892	24.9023	50.6147	24.9023	52.2447	24.9023	51.1468	24.9023	51.0696	24.9023	53.694	24.9023	51.8304	24.9023	56.549	24.9023	54.2875	24.9023	59.0332	24.9023	56.9872	24.9023	61.0849	24.9023	59.3554	24.9023	62.7555	24.9023	61.3259	24.9023	64.0959	24.9023	62.9371	24.9023	65.1416	24.9023	64.2317	24.9023	65.9147	24.9023	65.24	24.9023	66.4283	24.9023	65.9815	24.9023	66.6898	24.9023	66.467	24.9023	66.7025
26.3672	63.1321	26.3672	63.0394	26.3672	63.0394	26.3672	62.7541	26.3672	62.7599	26.3672	62.2617	26.3672	62.2834	26.3672	61.5425	26.3672	61.592	26.3672	60.5808	26.3672	60.6642	26.3672	59.3964	26.3672	59.4933	26.3672	58.1373	26.3672	58.1481	26.3672	57.2611	26.3672	56.9394	26.3672	57.4592	26.3672	56.5762	26.3672	58.8078	26.3672	57.5578	26.3672	60.6337	26.3672	59.3686	26.3672	62.4014	26.3672	61.2853	26.3672	63.9112	26.3672	62.9836	26.3672	65.1175	26.3672	64.3809	26.3672	66.0211	26.3672	65.4715	26.3672	66.6316	26.3672	66.2662	26.3672	66.9579	26.3672	66.7753	26.3672	67.0052
27.832	64.1405	27.832	64.0538	27.832	63.9953	27.832	63.7243	27.832	63.6137	27.832	63.1254	27.832	62.9748	27.832	62.2115	27.832	62.0379	27.832	60.9154	27.832	60.7377	27.832	59.1628	27.832	58.9905	27.832	57.0017	27.832	56.7823	27.832	55.2416	27.832	54.7047	27.832	55.8773	27.832	54.8331	27.832	58.4943	27.832	57.395	27.832	61.1872	27.832	60.2367	27.832	63.4058	27.832	62.609	27.832	65.147	27.832	64.4892	27.832	66.4785	27.832	65.9516	27.832	67.4548	27.832	67.0571	27.832	68.1118	27.832	67.8447	27.832	68.4711	27.832	68.3369	27.832	68.5448
29.2969	62.8722	29.2969	62.7299	29.2969	62.7685	29.2969	62.3327	29.2969	62.4215	29.2969	61.6701	29.2969	61.8317	29.2969	60.7485	29.2969	61.011	29.2969	59.6525	29.2969	60.0262	29.2969	58.6965	29.2969	59.1013	29.2969	58.5413	29.2969	58.7295	29.2969	59.632	29.2969	59.4011	29.2969	61.5136	29.2969	60.9643	29.2969	63.5261	29.2969	62.8481	29.2969	65.3564	29.2969	64.6676	29.2969	66.9191	29.2969	66.2777	29.2969	68.2067	29.2969	67.6425	29.2969	69.2299	29.2969	68.7606	29.2969	70.0003	29.2969	69.638	29.2969	70.5268	29.2969	70.2803	29.2969	70.8151	29.2969	70.6903	29.2969	70.8688
30.7617	63.6572	30.7617	63.6312	30.7617	63.6613	30.7617	63.5979	30.7617	63.6505	30.7617	63.5952	30.7617	63.653	30.7617	63.6849	30.7617	63.7181	30.7617	63.9423	30.7617	63.9109	30.7617	64.4296	30.7617	64.2952	30.7617	65.1635	30.7617	64.9066	30.7617	66.1021	30.7617	65.7314	30.7617	67.1652	30.7617	66.7117	30.7617	68.2672	30.7617	67.7697	30.7617	69.337	30.7617	68.8323	30.7617	70.3234	30.7617	69.8418	30.7617	71.1916	30.7617	70.7568	30.7617	71.9174	30.7617	71.5481	30.7617	72.4846	30.7617	72.195	30.7617	72.8818	30.7617	72.6827	30.7617	73.1019	30.7617	73.0005	30.7617	73.1414
32.2266	68.6932	32.2266	68.6748	32.2266	68.6607	32.2266	68.6098	32.2266	68.5811	32.2266	68.5125	32.2266	68.4666	32.2266	68.4091	32.2266	68.3399	32.2266	68.3405	32.2266	68.2364	32.2266	68.3603	32.2266	68.2042	32.2266	68.5245	32.2266	68.2979	32.2266	68.872	32.2266	68.5632	32.2266	69.4053	32.2266	69.0175	32.2266	70.0861	32.2266	69.6389	32.2266	70.8503	32.2266	70.3735	32.2266	71.628	32.2266	71.1545	32.2266	72.3588	32.2266	71.9185	32.2266	72.9963	32.2266	72.6143	32.2266	73.5074	32.2266	73.2035	32.2266	73.8697	32.2266	73.6588	32.2266	74.0695	32.2266	73.9616	32.2266	74.1003
33.6914	70.7965	33.6914	70.7924	33.6914	70.7817	33.6914	70.7735	33.6914	70.75	33.6914	70.7496	33.6914	70.709	33.6914	70.7377	33.6914	70.673	33.6914	70.762	33.6914	70.6634	33.6914	70.8522	33.6914	70.7081	33.6914	71.0383	33.6914	70.8378	33.6914	71.3419	33.6914	71.0786	33.6914	71.7671	33.6914	71.4432	33.6914	72.2964	33.6914	71.9238	33.6914	72.8937	33.6914	72.4926	33.6914	73.5133	33.6914	73.1086	33.6914	74.1087	33.6914	73.7258	33.6914	74.6387	33.6914	74.3014	33.6914	75.0706	33.6914	74.799	33.6914	75.38	33.6914	75.1898	33.6914	75.5511	33.6914	75.4533	33.6914	75.5758
35.1562	72.6227	35.1562	72.6011	35.1562	72.5951	35.1562	72.5367	35.1562	72.5196	35.1562	72.4436	35.1562	72.4053	35.1562	72.344	35.1562	72.2706	35.1562	72.2691	35.1562	72.1447	35.1562	72.2571	35.1562	72.0669	35.1562	72.3479	35.1562	72.0825	35.1562	72.5722	35.1562	72.2325	35.1562	72.9403	35.1562	72.5394	35.1562	73.4355	35.1562	72.9967	35.1562	74.0179	35.1562	73.569	35.1562	74.6358	35.1562	74.2037	35.1562	75.2371	35.1562	74.8449	35.1562	75.7769	35.1562	75.4426	35.1562	76.2194	35.1562	75.957	35.1562	76.5389	35.1562	76.3584	35.1562	76.7181	35.1562	76.6262	35.1562	76.7478
36.6211	74.3003	36.6211	74.2957	36.6211	74.2523	36.6211	74.2408	36.6211	74.1552	36.6211	74.1448	36.6211	74.0193	36.6211	74.0243	36.6211	73.8623	36.6211	73.905	36.6211	73.7103	36.6211	73.8213	36.6211	73.5983	36.6211	73.8136	36.6211	73.5665	36.6211	73.9198	36.6211	73.6528	36.6211	74.1629	36.6211	73.8811	36.6211	74.541	36.6211	74.2509	36.6211	75.0254	36.6211	74.7355	36.6211	75.569	36.6211	75.2899	36.6211	76.1189	36.6211	75.8621	36.6211	76.6262	36.6211	76.4035	36.6211	77.0511	36.6211	76.8732	36.6211	77.3642	36.6211	77.2402	36.6211	77.5462	36.6211	77.4825	36.6211	77.5863
38.0859	73.8454	38.0859	73.8037	38.0859	73.8559	38.0859	73.7364	38.0859	73.8404	38.0859	73.6597	38.0859	73.8132	38.0859	73.6013	38.0859	73.7973	38.0859	73.5981	38.0859	73.8224	38.0859	73.6904	38.0859	73.9204	38.0859	73.9113	38.0859	74.1194	38.0859	74.2752	38.0859	74.4352	38.0859	74.7711	38.0859	74.8659	38.0859	75.3656	38.0859	75.3911	38.0859	76.0126	38.0859	75.9767	38.0859	76.6642	38.0859	76.583	38.0859	77.2775	38.0859	77.1706	38.0859	77.8175	38.0859	77.7046	38.0859	78.2574	38.0859	78.1561	38.0859	78.5777	38.0859	78.502	38.0859	78.7657	38.0859	78.7254	38.0859	78.8151
39.5508	76.0929	39.5508	76.0658	39.5508	76.1186	39.5508	76.0427	39.5508	76.1428	39.5508	76.0342	39.5508	76.1714	39.5508	76.0551	39.5508	76.2147	39.5508	76.1228	39.5508	76.2872	39.5508	76.2541	39.5508	76.4047	39.5508	76.4624	39.5508	76.5821	39.5508	76.7536	39.5508	76.8291	39.5508	77.1235	39.5508	77.1479	39.5508	77.5573	39.5508	77.531	39.5508	78.0316	39.5508	77.9615	39.5508	78.5177	39.5508	78.4159	39.5508	78.9854	39.5508	78.8671	39.5508	79.4058	39.5508	79.287	39.5508	79.7542	39.5508	79.6499	39.5508	80.0104	39.5508	79.9333	39.5508	80.1607	39.5508	80.1197	39.5508	80.1974
41.0156	77.4382	41.0156	77.4236	41.0156	77.4654	41.0156	77.4259	41.0156	77.5037	41.0156	77.4525	41.0156	77.5555	41.0156	77.5124	41.0156	77.6259	41.0156	77.6152	41.0156	77.7227	41.0156	77.7698	41.0156	77.8549	41.0156	77.9824	41.0156	78.0309	41.0156	78.2546	41.0156	78.2569	41.0156	78.5823	41.0156	78.5344	41.0156	78.9547	41.0156	78.8591	41.0156	79.3553	41.0156	79.2207	41.0156	79.7631	41.0156	79.6027	41.0156	80.1548	41.0156	79.985	41.0156	80.507	41.0156	80.3449	41.0156	80.7984	41.0156	80.6603	41.0156	81.0111	41.0156	80.9107	41.0156	81.1324	41.0156	81.0796	41.0156	81.1554
42.4805	78.4395	42.4805	78.4393	42.4805	78.4507	42.4805	78.4532	42.4805	78.4722	42.4805	78.4865	42.4805	78.5064	42.4805	78.5462	42.4805	78.5578	42.4805	78.6399	42.4805	78.6332	42.4805	78.775	42.4805	78.7403	42.4805	78.9572	42.4805	78.8865	42.4805	79.1888	42.4805	79.0775	42.4805	79.4677	42.4805	79.3155	42.4805	79.7861	42.4805	79.5979	42.4805	80.1311	42.4805	79.9164	42.4805	80.4852	42.4805	80.2572	42.4805	80.8277	42.4805	80.6025	42.4805	81.1374	42.4805	80.9316	42.4805	81.394	42.4805	81.2234	42.4805	81.5802	42.4805	81.4583	42.4805	81.6835	42.4805	81.62	42.4805	81.697
43.9453	79.366	43.9453	79.3737	43.9453	79.3712	43.9453	79.3966	43.9453	79.389	43.9453	79.4384	43.9453	79.4214	43.9453	79.5042	43.9453	79.4718	43.9453	79.5998	43.9453	79.5455	43.9453	79.7305	43.9453	79.6483	43.9453	79.9005	43.9453	79.7857	43.9453	80.1113	43.9453	79.9619	43.9453	80.3613	43.9453	80.1786	43.9453	80.6442	43.9453	80.4333	43.9453	80.9496	43.9453	80.7193	43.9453	81.2628	43.9453	81.0252	43.9453	81.5663	43.9453	81.3358	43.9453	81.8411	43.9453	81.6329	43.9453	82.0689	43.9453	81.8977	43.9453	82.234	43.9453	82.1121	43.9453	82.3244	43.9453	82.261	43.9453	82.3336
45.4102	80.4048	45.4102	80.415	45.4102	80.407	45.4102	80.4392	45.4102	80.4213	45.4102	80.4804	45.4102	80.4487	45.4102	80.5419	45.4102	80.4918	45.4102	80.6275	45.4102	80.5542	45.4102	80.7409	45.4102	80.6404	45.4102	80.8846	45.4102	80.7546	45.4102	81.0601	45.4102	80.9002	45.4102	81.2661	45.4102	81.0789	45.4102	81.4985	45.4102	81.2894	45.4102	81.7497	45.4102	81.5269	45.4102	82.0086	45.4102	81.7827	45.4102	82.261	45.4102	82.0445	45.4102	82.4911	45.4102	82.2972	45.4102	82.6829	45.4102	82.5242	45.4102	82.8221	45.4102	82.7096	45.4102	82.8978	45.4102	82.8394	45.4102	82.9038
46.875	80.963	46.875	80.9772	46.875	80.9623	46.875	81.0061	46.875	80.9751	46.875	81.0517	46.875	81.0026	46.875	81.1164	46.875	81.0469	46.875	81.2033	46.875	81.1111	46.875	81.3149	46.875	81.1984	46.875	81.4531	46.875	81.3119	46.875	81.6186	46.875	81.4538	46.875	81.8103	46.875	81.6249	46.875	82.0244	46.875	81.8234	46.875	82.2544	46.875	82.0448	46.875	82.4905	46.875	82.2812	46.875	82.7204	46.875	82.5219	46.875	82.9301	46.875	82.7533	46.875	83.1051	46.875	82.961	46.875	83.2324	46.875	83.1304	46.875	83.3018	46.875	83.2489	46.875	83.3075
48.3398	81.5298	48.3398	81.5432	48.3398	81.5302	48.3398	81.5713	48.3398	81.5444	48.3398	81.6158	48.3398	81.5737	48.3398	81.6789	48.3398	81.6198	48.3398	81.7629	48.3398	81.6851	48.3398	81.8699	48.3398	81.7722	48.3398	82.0012	48.3398	81.8831	48.3398	82.1569	48.3398	82.0193	48.3398	82.3357	48.3398	82.1806	48.3398	82.534	48.3398	82.3652	48.3398	82.7457	48.3398	82.5688	48.3398	82.9622	48.3398	82.7845	48.3398	83.1725	48.3398	83.0029	48.3398	83.3643	48.3398	83.2124	48.3398	83.5245	48.3398	83.3999	48.3398	83.6412	48.3398	83.5527	48.3398	83.7054	48.3398	83.6594	48.3398	83.7117
51.2695	82.5663	51.2695	82.581	51.2695	82.5672	51.2695	82.6116	51.2695	82.5835	51.2695	82.6588	51.2695	82.6152	51.2695	82.7228	51.2695	82.6628	51.2695	82.8041	51.2695	82.7267	51.2695	82.9025	51.2695	82.8075	51.2695	83.0177	51.2695	82.9055	51.2695	83.1486	51.2695	83.0207	51.2695	83.2935	51.2695	83.1524	51.2695	83.4497	51.2695	83.2991	51.2695	83.6131	51.2695	83.4577	51.2695	83.7779	51.2695	83.6239	51.2695	83.9369	51.2695	83.7912	51.2695	84.0813	51.2695	83.9516	51.2695	84.2015	51.2695	84.0957	51.2695	84.2888	51.2695	84.2138	51.2695	84.336	51.2695	84.297	51.2695	84.3389
52.7344	82.9525	52.7344	82.9658	52.7344	82.9546	52.7344	82.9946	52.7344	82.9717	52.7344	83.0393	52.7344	83.004	52.7344	83.1002	52.7344	83.0515	52.7344	83.1771	52.7344	83.1144	52.7344	83.2698	52.7344	83.1928	52.7344	83.3774	52.7344	83.2866	52.7344	83.4989	52.7344	83.3953	52.7344	83.6324	52.7344	83.5178	52.7344	83.7753	52.7344	83.6525	52.7344	83.9239	52.7344	83.7968	52.7344	84.0733	52.7344	83.9466	52.7344	84.217	52.7344	84.0965	52.7344	84.3474	52.7344	84.2395	52.7344	84.4562	52.7344	84.3677	52.7344	84.5355	52.7344	84.4724	52.7344	84.5788	52.7344	84.546	52.7344	84.5825
54.1992	83.281	54.1992	83.2956	54.1992	83.2823	54.1992	83.3261	54.1992	83.2992	54.1992	83.3727	54.1992	83.3316	54.1992	83.4349	54.1992	83.3792	54.1992	83.5123	54.1992	83.4416	54.1992	83.6038	54.1992	83.5185	54.1992	83.708	54.1992	83.609	54.1992	83.8235	54.1992	83.7124	54.1992	83.9482	54.1992	83.8273	54.1992	84.0795	54.1992	83.9519	54.1992	84.2143	54.1992	84.0839	54.1992	84.3483	54.1992	84.2198	54.1992	84.476	54.1992	84.355	54.1992	84.5911	54.1992	84.4837	54.1992	84.6866	54.1992	84.5989	54.1992	84.7555	54.1992	84.6933	54.1992	84.7925	54.1992	84.7602	54.1992	84.7941
55.6641	83.6228	55.6641	83.6368	55.6641	83.6245	55.6641	83.6666	55.6641	83.6419	55.6641	83.712	55.6641	83.6744	55.6641	83.7723	55.6641	83.7216	55.6641	83.8466	55.6641	83.7828	55.6641	83.9336	55.6641	83.8573	55.6641	84.0317	55.6641	83.9438	55.6641	84.1389	55.6641	84.0411	55.6641	84.2533	55.6641	84.1477	55.6641	84.3725	55.6641	84.2617	55.6641	84.4934	55.6641	84.3809	55.6641	84.6127	55.6641	84.5024	55.6641	84.7257	55.6641	84.6221	55.6641	84.8271	55.6641	84.7354	55.6641	84.9111	55.6641	84.8363	55.6641	84.9718	55.6641	84.9188	55.6641	85.0044	55.6641	84.9769	55.6641	85.0062
58.5938	84.5134	58.5938	84.5245	58.5938	84.5177	58.5938	84.5503	58.5938	84.5377	58.5938	84.5901	58.5938	84.5731	58.5938	84.6426	58.5938	84.6233	58.5938	84.7067	58.5938	84.6868	58.5938	84.7808	58.5938	84.762	58.5938	84.8633	58.5938	84.8467	58.5938	84.9527	58.5938	84.9386	58.5938	85.047	58.5938	85.0354	58.5938	85.1445	58.5938	85.1348	58.5938	85.243	58.5938	85.2344	58.5938	85.3402	58.5938	85.3318	58.5938	85.4328	58.5938	85.4244	58.5938	85.5171	58.5938	85.5087	58.5938	85.5888	58.5938	85.5811	58.5938	85.6435	58.5938	85.6375	58.5938	85.6773	58.5938	85.674	58.5938	85.6877
60.0586	84.7332	60.0586	84.7382	60.0586	84.7439	60.0586	84.7584	60.0586	84.7703	60.0586	84.793	60.0586	84.8117	60.0586	84.8406	60.0586	84.8669	60.0586	84.8997	60.0586	84.9342	60.0586	84.9685	60.0586	85.0111	60.0586	85.0451	60.0586	85.0954	60.0586	85.1276	60.0586	85.1843	60.0586	85.2142	60.0586	85.2754	60.0586	85.303	60.0586	85.3662	60.0586	85.3924	60.0586	85.4546	60.0586	85.4803	60.0586	85.5386	60.0586	85.5644	60.0586	85.616	60.0586	85.6415	60.0586	85.6844	60.0586	85.7083	60.0586	85.741	60.0586	85.7611	60.0586	85.783	60.0586	85.7964	60.0586	85.8074	60.0586	85.8121
62.9883	85.2147	62.9883	85.2234	62.9883	85.2185	62.9883	85.2437	62.9883	85.235	62.9883	85.2745	62.9883	85.2643	62.9883	85.3144	62.9883	85.3053	62.9883	85.362	62.9883	85.3566	62.9883	85.4155	62.9883	85.416	62.9883	85.4733	62.9883	85.4809	62.9883	85.5335	62.9883	85.5485	62.9883	85.5944	62.9883	85.6161	62.9883	85.6546	62.9883	85.6813	62.9883	85.7128	62.9883	85.7423	62.9883	85.768	62.9883	85.7976	62.9883	85.8189	62.9883	85.8463	62.9883	85.8644	62.9883	85.8876	62.9883	85.9029	62.9883	85.9208	62.9883	85.9328	62.9883	85.9448	62.9883	85.9527	62.9883	85.9586	62.9883	85.9614
64.4531	85.4677	64.4531	85.4817	64.4531	85.4658	64.4531	85.5069	64.4531	85.4762	64.4531	85.542	64.4531	85.4987	64.4531	85.5854	64.4531	85.5323	64.4531	85.6353	64.4531	85.5753	64.4531	85.6893	64.4531	85.6255	64.4531	85.7452	64.4531	85.6802	64.4531	85.8009	64.4531	85.7369	64.4531	85.8544	64.4531	85.7928	64.4531	85.9039	64.4531	85.846	64.4531	85.9484	64.4531	85.8948	64.4531	85.9872	64.4531	85.9383	64.4531	86.0197	64.4531	85.9764	64.4531	86.0459	64.4531	86.0089	64.4531	86.0655	64.4531	86.036	64.4531	86.0781	64.4531	86.0574	64.4531	86.0836	64.4531	86.0729	64.4531	86.0818
67.3828	85.8879	67.3828	85.9087	67.3828	85.8793	67.3828	85.9403	67.3828	85.8836	67.3828	85.9809	67.3828	85.9007	67.3828	86.0283	67.3828	85.9295	67.3828	86.0799	67.3828	85.9682	67.3828	86.1333	67.3828	86.0142	67.3828	86.1857	67.3828	86.0643	67.3828	86.2346	67.3828	86.1153	67.3828	86.2778	67.3828	86.1644	67.3828	86.3137	67.3828	86.2089	67.3828	86.3417	67.3828	86.2475	67.3828	86.3617	67.3828	86.2795	67.3828	86.3746	67.3828	86.305	67.3828	86.3814	67.3828	86.3251	67.3828	86.3836	67.3828	86.3409	67.3828	86.3822	67.3828	86.3534	67.3828	86.3782	67.3828	86.3637	67.3828	86.3719
68.8477	86.0237	68.8477	86.0384	68.8477	86.0227	68.8477	86.0657	68.8477	86.0358	68.8477	86.1039	68.8477	86.0622	68.8477	86.1505	68.8477	86.1005	68.8477	86.2029	68.8477	86.1482	68.8477	86.2581	68.8477	86.2022	68.8477	86.3131	68.8477	86.2591	68.8477	86.3651	68.8477	86.3154	68.8477	86.4115	68.8477	86.3679	68.8477	86.4506	68.8477	86.414	68.8477	86.4817	68.8477	86.4522	68.8477	86.5046	68.8477	86.4819	68.8477	86.5203	68.8477	86.5035	68.8477	86.5302	68.8477	86.5182	68.8477	86.5357	68.8477	86.5276	68.8477	86.5384	68.8477	86.5334	68.8477	86.5392	68.8477	86.5368	68.8477	86.5386
71.7773	86.3604	71.7773	86.3723	71.7773	86.3607	71.7773	86.3957	71.7773	86.3736	71.7773	86.4289	71.7773	86.3983	71.7773	86.4697	71.7773	86.4333	71.7773	86.5155	71.7773	86.4762	71.7773	86.5635	71.7773	86.5241	71.7773	86.6105	71.7773	86.5735	71.7773	86.6536	71.7773	86.6209	71.7773	86.6901	71.7773	86.6632	71.7773	86.7182	71.7773	86.6978	71.7773	86.737	71.7773	86.7231	71.7773	86.7469	71.7773	86.7389	71.7773	86.7492	71.7773	86.7459	71.7773	86.7461	71.7773	86.7461	71.7773	86.7403	71.7773	86.742	71.7773	86.7343	71.7773	86.7363	71.7773	86.7302	71.7773	86.7315	71.7773	86.7292
74.707	86.6308	74.707	86.6416	74.707	86.632	74.707	86.6634	74.707	86.6454	74.707	86.6946	74.707	86.6702	74.707	86.7331	74.707	86.7049	74.707	86.776	74.707	86.747	74.707	86.8205	74.707	86.7934	74.707	86.8632	74.707	86.8403	74.707	86.901	74.707	86.8841	74.707	86.9311	74.707	86.9213	74.707	86.9515	74.707	86.9492	74.707	86.9615	74.707	86.9662	74.707	86.9614	74.707	86.9719	74.707	86.9533	74.707	86.9676	74.707	86.9401	74.707	86.9559	74.707	86.9253	74.707	86.9401	74.707	86.9128	74.707	86.9241	74.707	86.9053	74.707	86.9114	74.707	86.9048
77.6367	86.8473	77.6367	86.8586	77.6367	86.8473	77.6367	86.8802	77.6367	86.8587	77.6367	86.9105	77.6367	86.8807	77.6367	86.9471	77.6367	86.9116	77.6367	86.9873	77.6367	86.9488	77.6367	87.0276	77.6367	86.9891	77.6367	87.0645	77.6367	87.0288	77.6367	87.0948	77.6367	87.0642	77.6367	87.1155	77.6367	87.0917	77.6367	87.1248	77.6367	87.1088	77.6367	87.1219	77.6367	87.1139	77.6367	87.1077	77.6367	87.1072	77.6367	87.085	77.6367	87.0902	77.6367	87.0574	77.6367	87.0661	77.6367	87.0297	77.6367	87.0394	77.6367	87.0066	77.6367	87.0148	77.6367	86.9922	77.6367	86.9968	77.6367	86.9887
79.1016	86.9758	79.1016	86.9871	79.1016	86.9745	79.1016	87.0076	79.1016	86.9833	79.1016	87.0357	79.1016	87.0015	79.1016	87.0691	79.1016	87.0276	79.1016	87.1051	79.1016	87.0591	79.1016	87.1405	79.1016	87.0929	79.1016	87.1718	79.1016	87.1257	79.1016	87.1957	79.1016	87.1538	79.1016	87.2094	79.1016	87.174	79.1016	87.2111	79.1016	87.1835	79.1016	87.2002	79.1016	87.1813	79.1016	87.1778	79.1016	87.1672	79.1016	87.1467	79.1016	87.1433	79.1016	87.1112	79.1016	87.113	79.1016	87.0764	79.1016	87.0809	79.1016	87.0475	79.1016	87.0522	79.1016	87.029	79.1016	87.0319	79.1016	87.0236
82.0312	87.1632	82.0312	87.1738	82.0312	87.1607	82.0312	87.1919	82.0312	87.1666	82.0312	87.2162	82.0312	87.1803	82.0312	87.2448	82.0312	87.2004	82.0312	87.2752	82.0312	87.2249	82.0312	87.3044	82.0312	87.2511	82.0312	87.329	82.0312	87.2759	82.0312	87.3456	82.0312	87.2957	82.0312	87.3514	82.0312	87.3074	82.0312	87.3444	82.0312	87.3085	82.0312	87.3239	82.0312	87.2974	82.0312	87.2913	82.0312	87.2744	82.0312	87.2497	82.0312	87.2415	82.0312	87.204	82.0312	87.2025	82.0312	87.16	82.0312	87.1626	82.0312	87.1238	82.0312	87.1276	82.0312	87.1006	82.0312	87.1031	82.0312	87.0935
84.9609	87.5008	84.9609	87.5171	84.9609	87.4948	84.9609	87.543	84.9609	87.499	84.9609	87.5764	84.9609	87.5121	84.9609	87.6146	84.9609	87.5323	84.9609	87.6538	84.9609	87.5569	84.9609	87.6899	84.9609	87.5826	84.9609	87.7187	84.9609	87.6059	84.9609	87.7361	84.9609	87.6233	84.9609	87.739	84.9609	87.6314	84.9609	87.7254	84.9609	87.6279	84.9609	87.6953	84.9609	87.6114	84.9609	87.6506	84.9609	87.5825	84.9609	87.5952	84.9609	87.5435	84.9609	87.5351	84.9609	87.4988	84.9609	87.4774	84.9609	87.454	84.9609	87.4294	84.9609	87.416	84.9609	87.3969	84.9609	87.391	84.9609	87.3839
87.8906	87.755	87.8906	87.7592	87.8906	87.7608	87.8906	87.7729	87.8906	87.776	87.8906	87.7946	87.8906	87.7996	87.8906	87.8218	87.8906	87.8293	87.8906	87.8515	87.8906	87.8625	87.8906	87.88	87.8906	87.8959	87.8906	87.9035	87.8906	87.9259	87.8906	87.9182	87.8906	87.949	87.8906	87.9212	87.8906	87.9617	87.8906	87.9106	87.8906	87.9615	87.8906	87.8863	87.8906	87.9467	87.8906	87.85	87.8906	87.9177	87.8906	87.8054	87.8906	87.8763	87.8906	87.7581	87.8906	87.8266	87.8906	87.7147	87.8906	87.7743	87.8906	87.6819	87.8906	87.7262	87.8906	87.6651	87.8906	87.6887	87.8906	87.6674
90.8203	88.0293	90.8203	88.0353	90.8203	88.0318	90.8203	88.0493	90.8203	88.0426	90.8203	88.0698	90.8203	88.0605	90.8203	88.0945	90.8203	88.0838	90.8203	88.1205	90.8203	88.1101	90.8203	88.1442	90.8203	88.1364	90.8203	88.1619	90.8203	88.1592	90.8203	88.17	90.8203	88.1752	90.8203	88.1655	90.8203	88.1808	90.8203	88.1466	90.8203	88.1734	90.8203	88.1132	90.8203	88.1514	90.8203	88.067	90.8203	88.1151	90.8203	88.0122	90.8203	88.0665	90.8203	87.9548	90.8203	88.0099	90.8203	87.9019	90.8203	87.9515	90.8203	87.8611	90.8203	87.8988	90.8203	87.8385	90.8203	87.8588	90.8203	87.8377
95.2148	88.1912	95.2148	88.1978	95.2148	88.1899	95.2148	88.209	95.2148	88.1935	95.2148	88.2238	95.2148	88.2012	95.2148	88.2402	95.2148	88.2115	95.2148	88.2554	95.2148	88.2225	95.2148	88.2664	95.2148	88.2316	95.2148	88.2696	95.2148	88.2359	95.2148	88.2617	95.2148	88.2323	95.2148	88.2398	95.2148	88.218	95.2148	88.2023	95.2148	88.1906	95.2148	88.1493	95.2148	88.1491	95.2148	88.0828	95.2148	88.0939	95.2148	88.0075	95.2148	88.028	95.2148	87.9301	95.2148	87.9562	95.2148	87.859	95.2148	87.8857	95.2148	87.8028	95.2148	87.8246	95.2148	87.7688	95.2148	87.781	95.2148	87.7613
98.1445	88.247	98.1445	88.2527	98.1445	88.2444	98.1445	88.2612	98.1445	88.2449	98.1445	88.2714	98.1445	88.2477	98.1445	88.2817	98.1445	88.2519	98.1445	88.2896	98.1445	88.2556	98.1445	88.2924	98.1445	88.2569	98.1445	88.2869	98.1445	88.253	98.1445	88.27	98.1445	88.2413	98.1445	88.2392	98.1445	88.2189	98.1445	88.193	98.1445	88.1838	98.1445	88.1316	98.1445	88.1348	98.1445	88.0573	98.1445	88.0726	98.1445	87.975	98.1445	88	98.1445	87.8916	98.1445	87.9222	98.1445	87.8158	98.1445	87.8464	98.1445	87.7562	98.1445	87.7809	98.1445	87.7204	98.1445	87.7342	98.1445	87.7129
101.074	88.3161	101.074	88.3209	101.074	88.313	101.074	88.3272	101.074	88.3117	101.074	88.3337	101.074	88.3116	101.074	88.339	101.074	88.3116	101.074	88.3405	101.074	88.3102	101.074	88.3357	101.074	88.3053	101.074	88.3214	101.074	88.2947	101.074	88.2949	101.074	88.2755	101.074	88.2538	101.074	88.2452	101.074	88.1969	101.074	88.2016	101.074	88.1247	101.074	88.1438	101.074	88.0401	101.074	88.0727	101.074	87.9484	101.074	87.991	101.074	87.8571	101.074	87.9043	101.074	87.7752	101.074	87.8201	101.074	87.712	101.074	87.7472	101.074	87.6752	101.074	87.6945	101.074	87.6693
105.469	88.5313	105.469	88.5363	105.469	88.5244	105.469	88.5388	105.469	88.5156	105.469	88.5377	105.469	88.5046	105.469	88.5313	105.469	88.4907	105.469	88.5178	105.469	88.4726	105.469	88.4945	105.469	88.4488	105.469	88.4591	105.469	88.4171	105.469	88.409	105.469	88.3754	105.469	88.3425	105.469	88.3215	105.469	88.2593	105.469	88.2538	105.469	88.1605	105.469	88.1721	105.469	88.0499	105.469	88.0776	105.469	87.9337	105.469	87.974	105.469	87.8206	105.469	87.8675	105.469	87.7206	105.469	87.7664	105.469	87.6439	105.469	87.6804	105.469	87.599	105.469	87.6192	105.469	87.5906
108.398	88.4893	108.398	88.5001	108.398	88.4768	108.398	88.5086	108.398	88.463	108.398	88.5138	108.398	88.4476	108.398	88.5142	108.398	88.4301	108.398	88.5076	108.398	88.4097	108.398	88.4917	108.398	88.3847	108.398	88.4638	108.398	88.3533	108.398	88.4211	108.398	88.3132	108.398	88.3617	108.398	88.2622	108.398	88.2845	108.398	88.1986	108.398	88.1907	108.398	88.1219	108.398	88.0833	108.398	88.0336	108.398	87.9683	108.398	87.9371	108.398	87.8542	108.398	87.8386	108.398	87.7509	108.398	87.7463	108.398	87.6688	108.398	87.6698	108.398	87.6165	108.398	87.6184	108.398	87.5994
112.793	88.3277	112.793	88.3354	112.793	88.3173	112.793	88.3401	112.793	88.3044	112.793	88.3413	112.793	88.2892	112.793	88.3382	112.793	88.2717	112.793	88.3296	112.793	88.2515	112.793	88.3138	112.793	88.2278	112.793	88.2887	112.793	88.1993	112.793	88.2522	112.793	88.1642	112.793	88.2023	112.793	88.1205	112.793	88.1378	112.793	88.0666	112.793	88.0592	112.793	88.0019	112.793	87.9689	112.793	87.9271	112.793	87.8717	112.793	87.8452	112.793	87.7748	112.793	87.7613	112.793	87.6868	112.793	87.6825	112.793	87.6166	112.793	87.6171	112.793	87.5718	112.793	87.5732	112.793	87.5571
117.188	88.2249	117.188	88.2231	117.188	88.2187	117.188	88.2133	117.188	88.2049	117.188	88.1956	117.188	88.1839	117.188	88.1701	117.188	88.1562	117.188	88.1367	117.188	88.1222	117.188	88.095	117.188	88.0819	117.188	88.0442	117.188	88.0349	117.188	87.9834	117.188	87.9802	117.188	87.9114	117.188	87.9166	117.188	87.8281	117.188	87.8432	117.188	87.7345	117.188	87.7599	117.188	87.6332	117.188	87.668	117.188	87.5292	117.188	87.5705	117.188	87.4294	117.188	87.4728	117.188	87.342	117.188	87.3818	117.188	87.2752	117.188	87.3058	117.188	87.2358	117.188	87.2525	117.188	87.2281
120.117	88.5633	120.117	88.5561	120.117	88.5607	120.117	88.539	120.117	88.549	120.117	88.5125	120.117	88.529	120.117	88.4771	120.117	88.5016	120.117	88.4334	120.117	88.4676	120.117	88.3813	120.117	88.427	120.117	88.3203	120.117	88.3791	120.117	88.2496	120.117	88.3226	120.117	88.168	120.117	88.2556	120.117	88.0752	120.117	88.1769	120.117	87.9722	120.117	88.0857	120.117	87.8621	120.117	87.9832	120.117	87.7504	120.117	87.8726	120.117	87.6447	120.117	87.7597	120.117	87.5542	120.117	87.6524	120.117	87.488	120.117	87.56	120.117	87.4535	120.117	87.4916	120.117	87.4547
124.512	88.8738	124.512	88.8779	124.512	88.8604	124.512	88.8724	124.512	88.8387	124.512	88.8572	124.512	88.8097	124.512	88.8326	124.512	88.7748	124.512	88.7988	124.512	88.7349	124.512	88.7554	124.512	88.6905	124.512	88.702	124.512	88.6413	124.512	88.6375	124.512	88.5863	124.512	88.5613	124.512	88.5241	124.512	88.4732	124.512	88.4535	124.512	88.3745	124.512	88.3737	124.512	88.2685	124.512	88.2856	124.512	88.1604	124.512	88.1918	124.512	88.0578	124.512	88.0974	124.512	87.9689	124.512	88.009	124.512	87.902	124.512	87.9344	124.512	87.8634	124.512	87.8815	124.512	87.8567
128.906	88.895	128.906	88.8971	128.906	88.8788	128.906	88.8846	128.906	88.8491	128.906	88.858	128.906	88.8074	128.906	88.8179	128.906	88.7553	128.906	88.7652	128.906	88.6946	128.906	88.7007	128.906	88.6266	128.906	88.6249	128.906	88.5524	128.906	88.5384	128.906	88.4725	128.906	88.4415	128.906	88.3872	128.906	88.3354	128.906	88.2964	128.906	88.2222	128.906	88.2007	128.906	88.1056	128.906	88.1014	128.906	87.9909	128.906	88.0015	128.906	87.8849	128.906	87.9053	128.906	87.7948	128.906	87.8186	128.906	87.7273	128.906	87.748	128.906	87.6877	128.906	87.6996	128.906	87.6785
133.301	88.9075	133.301	88.9095	133.301	88.8882	133.301	88.8941	133.301	88.8523	133.301	88.8611	133.301	88.8005	133.301	88.8105	133.301	88.7335	133.301	88.7424	133.301	88.6523	133.301	88.6566	133.301	88.5576	133.301	88.5532	133.301	88.4501	133.301	88.4324	133.301	88.3305	133.301	88.2949	133.301	88.1998	133.301	88.1429	133.301	88.0597	133.301	87.9801	133.301	87.9127	133.301	87.8124	133.301	87.7627	133.301	87.6477	133.301	87.6155	133.301	87.4953	133.301	87.478	133.301	87.365	133.301	87.3584	133.301	87.2656	133.301	87.2649	133.301	87.2039	133.301	87.2048	133.301	87.1836
139.16	88.5278	139.16	88.5279	139.16	88.5127	139.16	88.5133	139.16	88.4826	139.16	88.4847	139.16	88.4383	139.16	88.4427	139.16	88.3808	139.16	88.3875	139.16	88.3114	139.16	88.3187	139.16	88.2311	139.16	88.2355	139.16	88.1407	139.16	88.1368	139.16	88.0405	139.16	88.0219	139.16	87.9304	139.16	87.8913	139.16	87.8107	139.16	87.7474	139.16	87.6827	139.16	87.5951	139.16	87.5489	139.16	87.4419	139.16	87.4142	139.16	87.2975	139.16	87.2853	139.16	87.1722	139.16	87.1706	139.16	87.0759	139.16	87.0791	139.16	87.016	139.16	87.0191	139.16	86.997
143.555	88.4943	143.555	88.4865	143.555	88.4797	143.555	88.4569	143.555	88.4431	143.555	88.4072	143.555	88.3859	143.555	88.3396	143.555	88.3102	143.555	88.2562	143.555	88.2187	143.555	88.1591	143.555	88.1139	143.555	88.0495	143.555	87.998	143.555	87.928	143.555	87.8727	143.555	87.795	143.555	87.7394	143.555	87.6513	143.555	87.5993	143.555	87.4991	143.555	87.4546	143.555	87.3425	143.555	87.3082	143.555	87.1879	143.555	87.1649	143.555	87.0438	143.555	87.0312	143.555	86.9196	143.555	86.9148	143.555	86.8241	143.555	86.8237	143.555	86.7644	143.555	86.7651	143.555	86.7445
147.949	88.6975	147.949	88.6847	147.949	88.6879	147.949	88.65	147.949	88.6567	147.949	88.5947	147.949	88.6053	147.949	88.5208	147.949	88.536	147.949	88.431	147.949	88.4514	147.949	88.328	147.949	88.3542	147.949	88.2145	147.949	88.2469	147.949	88.0929	147.949	88.1318	147.949	87.9657	147.949	88.0109	147.949	87.8355	147.949	87.8863	147.949	87.7055	147.949	87.7606	147.949	87.5798	147.949	87.6368	147.949	87.4629	147.949	87.5189	147.949	87.3603	147.949	87.4115	147.949	87.2769	147.949	87.3195	147.949	87.2169	147.949	87.2475	147.949	87.1832	147.949	87.1992	147.949	87.1773
153.809	88.7676	153.809	88.7589	153.809	88.7506	153.809	88.7242	153.809	88.7087	153.809	88.6637	153.809	88.6434	153.809	88.5782	153.809	88.5564	153.809	88.4692	153.809	88.4499	153.809	88.3382	153.809	88.3261	153.809	88.1876	153.809	88.1873	153.809	88.0206	153.809	88.0357	153.809	87.8415	153.809	87.8743	153.809	87.6559	153.809	87.7066	153.809	87.4713	153.809	87.5373	153.809	87.296	153.809	87.3723	153.809	87.1388	153.809	87.2183	153.809	87.0071	153.809	87.0821	153.809	86.9062	153.809	86.9693	153.809	86.8384	153.809	86.8835	153.809	86.8033	153.809	86.8268	153.809	86.7998
159.668	88.3856	159.668	88.3728	159.668	88.3751	159.668	88.337	159.668	88.3423	159.668	88.2795	159.668	88.2891	159.668	88.2025	159.668	88.2179	159.668	88.108	159.668	88.1309	159.668	87.9977	159.668	88.0296	159.668	87.8723	159.668	87.9145	159.668	87.7319	159.668	87.7852	159.668	87.5765	159.668	87.6412	159.668	87.4071	159.668	87.4827	159.668	87.2268	159.668	87.3114	159.668	87.0418	159.668	87.132	159.668	86.8609	159.668	86.9517	159.668	86.6955	159.668	86.7804	159.668	86.5569	159.668	86.6288	159.668	86.4552	159.668	86.5075	159.668	86.3975	159.668	86.425	159.668	86.3874
165.527	88.1063	165.527	88.0838	165.527	88.1016	165.527	88.0343	165.527	88.0706	165.527	87.9596	165.527	88.0156	165.527	87.8626	165.527	87.9395	165.527	87.7468	165.527	87.8456	165.527	87.6159	165.527	87.7368	165.527	87.4735	165.527	87.6156	165.527	87.3229	165.527	87.4841	165.527	87.1676	165.527	87.344	165.527	87.0114	165.527	87.1972	165.527	86.8588	165.527	87.0469	165.527	86.7154	165.527	86.8972	165.527	86.5871	165.527	86.7538	165.527	86.4797	165.527	86.6229	165.527	86.3978	165.527	86.5107	165.527	86.3442	165.527	86.4219	165.527	86.32	165.527	86.3595	165.527	86.3253
171.387	88.6078	171.387	88.5855	171.387	88.6112	171.387	88.5444	171.387	88.5956	171.387	88.4846	171.387	88.561	171.387	88.4062	171.387	88.5073	171.387	88.3088	171.387	88.4339	171.387	88.1915	171.387	88.3401	171.387	88.0538	171.387	88.225	171.387	87.8962	171.387	88.0883	171.387	87.7212	171.387	87.9309	171.387	87.5343	171.387	87.7562	171.387	87.344	171.387	87.5698	171.387	87.1615	171.387	87.3805	171.387	86.998	171.387	87.1986	171.387	86.8635	171.387	87.0346	171.387	86.7638	171.387	86.8971	171.387	86.7008	171.387	86.7914	171.387	86.6734	171.387	86.719	171.387	86.6798
177.246	88.6444	177.246	88.6095	177.246	88.6473	177.246	88.5427	177.246	88.619	177.246	88.4452	177.246	88.561	177.246	88.3188	177.246	88.4753	177.246	88.1663	177.246	88.3643	177.246	87.9909	177.246	88.2305	177.246	87.7967	177.246	88.0762	177.246	87.589	177.246	87.9041	177.246	87.3747	177.246	87.7175	177.246	87.1625	177.246	87.521	177.246	86.9629	177.246	87.3211	177.246	86.7867	177.246	87.1265	177.246	86.6432	177.246	86.9465	177.246	86.5378	177.246	86.7899	177.246	86.4709	177.246	86.6625	177.246	86.4384	177.246	86.5658	177.246	86.4345	177.246	86.4977	177.246	86.4547
183.105	88.4569	183.105	88.4355	183.105	88.4508	183.105	88.3861	183.105	88.4192	183.105	88.3095	183.105	88.3652	183.105	88.2076	183.105	88.2924	183.105	88.0827	183.105	88.2043	183.105	87.9369	183.105	88.1029	183.105	87.7724	183.105	87.9894	183.105	87.5919	183.105	87.8636	183.105	87.3996	183.105	87.7248	183.105	87.202	183.105	87.5735	183.105	87.0093	183.105	87.4122	183.105	86.8335	183.105	87.2462	183.105	86.6872	183.105	87.0831	183.105	86.5797	183.105	86.9315	183.105	86.5147	183.105	86.7984	183.105	86.4901	183.105	86.6881	183.105	86.5001	183.105	86.6015	183.105	86.5385
188.965	88.379	188.965	88.3512	188.965	88.3728	188.965	88.2888	188.965	88.3347	188.965	88.1927	188.965	88.2682	188.965	88.0652	188.965	88.1775	188.965	87.9095	188.965	88.0672	188.965	87.7299	188.965	87.9414	188.965	87.5317	188.965	87.8036	188.965	87.3214	188.965	87.6566	188.965	87.1081	188.965	87.5029	188.965	86.9027	188.965	87.3456	188.965	86.7181	188.965	87.189	188.965	86.5672	188.965	87.0389	188.965	86.4594	188.965	86.9015	188.965	86.3981	188.965	86.782	188.965	86.3794	188.965	86.6827	188.965	86.3938	188.965	86.6018	188.965	86.4297	188.965	86.5351	188.965	86.4782
196.289	88.2089	196.289	88.2175	196.289	88.1663	196.289	88.1897	196.289	88.0933	196.289	88.1243	196.289	87.9946	196.289	88.0213	196.289	87.8755	196.289	87.8812	196.289	87.7416	196.289	87.7056	196.289	87.5981	196.289	87.4976	196.289	87.4496	196.289	87.2627	196.289	87.2995	196.289	87.0105	196.289	87.1507	196.289	86.7555	196.289	87.0057	196.289	86.517	196.289	86.8681	196.289	86.3167	196.289	86.7418	196.289	86.1733	196.289	86.6307	196.289	86.0962	196.289	86.5364	196.289	86.0821	196.289	86.4572	196.289	86.116	196.289	86.3873	196.289	86.1776	196.289	86.3195	196.289	86.249
203.613	88.0935	203.613	88.1107	203.613	88.0279	203.613	88.0782	203.613	87.9166	203.613	87.996	203.613	87.7645	203.613	87.8652	203.613	87.5779	203.613	87.6881	203.613	87.3655	203.613	87.4686	203.613	87.1377	203.613	87.2123	203.613	86.9059	203.613	86.928	203.613	86.6819	203.613	86.6285	203.613	86.4768	203.613	86.332	203.613	86.2993	203.613	86.061	203.613	86.1552	203.613	85.8399	203.613	86.0466	203.613	85.6878	203.613	85.9712	203.613	85.6121	203.613	85.9225	203.613	85.605	203.613	85.89	203.613	85.6458	203.613	85.861	203.613	85.7089	203.613	85.824	203.613	85.7726
210.938	88.6671	210.938	88.6725	210.938	88.609	210.938	88.6257	210.938	88.498	210.938	88.5266	210.938	88.3339	210.938	88.3747	210.938	88.118	210.938	88.1693	210.938	87.8528	210.938	87.9098	210.938	87.544	210.938	87.5972	210.938	87.2004	210.938	87.2362	210.938	86.8355	210.938	86.8379	210.938	86.4676	210.938	86.4228	210.938	86.1192	210.938	86.021	210.938	85.8147	210.938	85.6695	210.938	85.5751	210.938	85.4025	210.938	85.4117	210.938	85.2384	210.938	85.3212	210.938	85.1716	210.938	85.2854	210.938	85.1747	210.938	85.2772	210.938	85.2108	210.938	85.2704	210.938	85.2485
218.262	88.2817	218.262	88.295	218.262	88.2275	218.262	88.2703	218.262	88.1312	218.262	88.2114	218.262	87.993	218.262	88.1215	218.262	87.8145	218.262	88.0029	218.262	87.599	218.262	87.8557	218.262	87.3507	218.262	87.6784	218.262	87.0756	218.262	87.4693	218.262	86.7823	218.262	87.2286	218.262	86.4828	218.262	86.9613	218.262	86.1932	218.262	86.6791	218.262	85.933	218.262	86.4005	218.262	85.7214	218.262	86.1475	218.262	85.5725	218.262	85.939	218.262	85.4899	218.262	85.7843	218.262	85.4648	218.262	85.6793	218.262	85.4794	218.262	85.6096	218.262	85.5146	218.262	85.5583
225.586	87.9314	225.586	87.8935	225.586	87.9151	225.586	87.8046	225.586	87.8434	225.586	87.6705	225.586	87.7173	225.586	87.4985	225.586	87.5395	225.586	87.2973	225.586	87.3142	225.586	87.0766	225.586	87.0479	225.586	86.8474	225.586	86.7496	225.586	86.6217	225.586	86.4338	225.586	86.4135	225.586	86.1211	225.586	86.2371	225.586	85.8391	225.586	86.1057	225.586	85.6187	225.586	86.0265	225.586	85.4863	225.586	85.9977	225.586	85.4534	225.586	86.0073	225.586	85.5103	225.586	86.0345	225.586	85.6285	225.586	86.0552	225.586	85.7706	225.586	86.0477	225.586	85.9017	225.586	85.9976
232.91	88.1908	232.91	88.1414	232.91	88.1661	232.91	88.0185	232.91	88.0668	232.91	87.8229	232.91	87.8926	232.91	87.5558	232.91	87.6433	232.91	87.2184	232.91	87.3191	232.91	86.8137	232.91	86.9219	232.91	86.3488	232.91	86.4582	232.91	85.8398	232.91	85.9427	232.91	85.3181	232.91	85.4037	232.91	84.8339	232.91	84.8869	232.91	84.4513	232.91	84.4542	232.91	84.2277	232.91	84.1686	232.91	84.1834	232.91	84.0667	232.91	84.286	232.91	84.1353	232.91	84.4652	232.91	84.3143	232.91	84.6436	232.91	84.5244	232.91	84.7604	232.91	84.6952	232.91	84.7802
241.699	88.5259	241.699	88.4951	241.699	88.5029	241.699	88.4135	241.699	88.4214	241.699	88.2828	241.699	88.2757	241.699	88.1024	241.699	88.0599	241.699	87.8698	241.699	87.7682	241.699	87.5809	241.699	87.3958	241.699	87.2318	241.699	86.9412	241.699	86.8209	241.699	86.4089	241.699	86.3541	241.699	85.8152	241.699	85.8499	241.699	85.195	241.699	85.345	241.699	84.6076	241.699	84.8925	241.699	84.1309	241.699	84.5482	241.699	83.836	241.699	84.3448	241.699	83.7479	241.699	84.2708	241.699	83.8257	241.699	84.2733	241.699	83.9861	241.699	84.2844	241.699	84.1454	241.699	84.2497
250.488	88.3221	250.488	88.2459	250.488	88.3341	250.488	88.1033	250.488	88.2848	250.488	87.8933	250.488	88.1777	250.488	87.6157	250.488	88.0152	250.488	87.2708	250.488	87.797	250.488	86.8591	250.488	87.5197	250.488	86.3831	250.488	87.1767	250.488	85.8499	250.488	86.7605	250.488	85.2762	250.488	86.2675	250.488	84.6934	250.488	85.7045	250.488	84.1499	250.488	85.0959	250.488	83.7033	250.488	84.4897	250.488	83.4002	250.488	83.9538	250.488	83.2512	250.488	83.5554	250.488	83.2221	250.488	83.3279	250.488	83.252	250.488	83.2494	250.488	83.2828	250.488	83.257	250.488	83.2826
259.277	88.9119	259.277	88.8627	259.277	88.9064	259.277	88.7586	259.277	88.845	259.277	88.5986	259.277	88.7254	259.277	88.3799	259.277	88.5429	259.277	88.0977	259.277	88.2898	259.277	87.745	259.277	87.9559	259.277	87.3148	259.277	87.5295	259.277	86.8035	259.277	87.0023	259.277	86.2164	259.277	86.3742	259.277	85.5752	259.277	85.6629	259.277	84.9249	259.277	84.9137	259.277	84.3326	259.277	84.2059	259.277	83.8714	259.277	83.6408	259.277	83.5867	259.277	83.2987	259.277	83.4671	259.277	83.1876	259.277	83.4497	259.277	83.2359	259.277	83.4555	259.277	83.3417	259.277	83.4255
268.066	88.9539	268.066	88.9159	268.066	88.9648	268.066	88.8489	268.066	88.9492	268.066	88.7498	268.066	88.9065	268.066	88.6131	268.066	88.8334	268.066	88.4302	268.066	88.7238	268.066	88.1905	268.066	88.5682	268.066	87.8837	268.066	88.355	268.066	87.5039	268.066	88.073	268.066	87.0556	268.066	87.7158	268.066	86.5593	268.066	87.286	268.066	86.0543	268.066	86.8013	268.066	85.5946	268.066	86.2972	268.066	85.2337	268.066	85.8246	268.066	85.0018	268.066	85.4366	268.066	84.8919	268.066	85.1669	268.066	84.8666	268.066	85.0128	268.066	84.8807	268.066	84.9401	268.066	84.9054
276.855	88.4381	276.855	88.3853	276.855	88.4418	276.855	88.2831	276.855	88.3948	276.855	88.13	276.855	88.2945	276.855	87.9212	276.855	88.1368	276.855	87.6491	276.855	87.9163	276.855	87.3035	276.855	87.6273	276.855	86.875	276.855	87.2649	276.855	86.3609	276.855	86.8285	276.855	85.7755	276.855	86.3263	276.855	85.1598	276.855	85.7829	276.855	84.5884	276.855	85.2459	276.855	84.1573	276.855	84.7855	276.855	83.9435	276.855	84.4742	276.855	83.9553	276.855	84.3484	276.855	84.1234	276.855	84.3804	276.855	84.3432	276.855	84.4906	276.855	84.5233	276.855	84.589	276.855	84.6094
287.109	88.3346	287.109	88.2984	287.109	88.3153	287.109	88.2073	287.109	88.2384	287.109	88.06	287.109	88.1012	287.109	87.852	287.109	87.9001	287.109	87.5757	287.109	87.6301	287.109	87.2212	287.109	87.285	287.109	86.7789	287.109	86.8594	287.109	86.2447	287.109	86.3535	287.109	85.6279	287.109	85.7803	287.109	84.963	287.109	85.1736	287.109	84.3197	287.109	84.5915	287.109	83.7971	287.109	84.1085	287.109	83.4855	287.109	83.7911	287.109	83.4106	287.109	83.6634	287.109	83.5127	287.109	83.6901	287.109	83.6873	287.109	83.793	287.109	83.8394	287.109	83.8873	287.109	83.9112
297.363	88.3606	297.363	88.3147	297.363	88.3784	297.363	88.2376	297.363	88.3716	297.363	88.1259	297.363	88.3414	297.363	87.9726	297.363	88.2826	297.363	87.7638	297.363	88.1794	297.363	87.4778	297.363	88.0049	297.363	87.0879	297.363	87.7245	297.363	86.5706	297.363	87.3039	297.363	85.9169	297.363	86.7182	297.363	85.148	297.363	85.965	297.363	84.3305	297.363	85.0809	297.363	83.5817	297.363	84.1607	297.363	83.0393	297.363	83.3594	297.363	82.7827	297.363	82.8378	297.363	82.7715	297.363	82.6542	297.363	82.8774	297.363	82.7167	297.363	82.9694	297.363	82.8648	297.363	82.969
307.617	88.1466	307.617	88.1475	307.617	88.1307	307.617	88.1275	307.617	88.102	307.617	88.0769	307.617	88.0603	307.617	87.9801	307.617	88.0019	307.617	87.816	307.617	87.9196	307.617	87.5599	307.617	87.8015	307.617	87.1884	307.617	87.6317	307.617	86.687	307.617	87.3928	307.617	86.06	307.617	87.0709	307.617	85.3449	307.617	86.6649	307.617	84.6286	307.617	86.197	307.617	84.0477	307.617	85.7194	307.617	83.7395	307.617	85.3063	307.617	83.7479	307.617	85.0229	307.617	83.9843	307.617	84.8852	307.617	84.2999	307.617	84.8468	307.617	84.5749	307.617	84.8271	307.617	84.751
319.336	87.5547	319.336	87.5692	319.336	87.5151	319.336	87.5633	319.336	87.4466	319.336	87.5403	319.336	87.3472	319.336	87.4968	319.336	87.2148	319.336	87.418	319.336	87.044	319.336	87.2753	319.336	86.8217	319.336	87.0288	319.336	86.5257	319.336	86.6349	319.336	86.1276	319.336	86.0593	319.336	85.6015	319.336	85.2963	319.336	84.9427	319.336	84.3976	319.336	84.1934	319.336	83.507	319.336	83.4712	319.336	82.857	319.336	82.96	319.336	82.6401	319.336	82.806	319.336	82.826	319.336	82.9807	319.336	83.1906	319.336	83.2984	319.336	83.5069	319.336	83.5603	319.336	83.6431
329.59	87.5027	329.59	87.4502	329.59	87.5274	329.59	87.3695	329.59	87.5283	329.59	87.2626	329.59	87.5103	329.59	87.1305	329.59	87.4741	329.59	86.9671	329.59	87.4111	329.59	86.756	329.59	87.301	329.59	86.4702	329.59	87.1137	329.59	86.0788	329.59	86.8149	329.59	85.5581	329.59	86.3753	329.59	84.9104	329.59	85.7812	329.59	84.1862	329.59	85.0522	329.59	83.5031	329.59	84.2641	329.59	83.0255	329.59	83.5635	329.59	82.8683	329.59	83.1251	329.59	82.9944	329.59	83.0289	329.59	83.2423	329.59	83.1793	329.59	83.4439	329.59	83.3872	329.59	83.4982
341.309	87.354	341.309	87.4106	341.309	87.2513	341.309	87.4201	341.309	87.108	341.309	87.3834	341.309	86.935	341.309	87.2988	341.309	86.7477	341.309	87.1587	341.309	86.5619	341.309	86.9459	341.309	86.3871	341.309	86.6336	341.309	86.2205	341.309	86.1893	341.309	86.0455	341.309	85.586	341.309	85.8383	341.309	84.8219	341.309	85.5804	341.309	83.9552	341.309	85.2737	341.309	83.1446	341.309	84.9512	341.309	82.637	341.309	84.6738	341.309	82.6101	341.309	84.5017	341.309	82.9891	341.309	84.4497	341.309	83.525	341.309	84.4646	341.309	84.0012	341.309	84.45	341.309	84.3133
353.027	88.1289	353.027	88.1253	353.027	88.0582	353.027	88.0528	353.027	87.9139	353.027	87.9204	353.027	87.7005	353.027	87.7352	353.027	87.4219	353.027	87.4937	353.027	87.0749	353.027	87.1747	353.027	86.6439	353.027	86.7367	353.027	86.1014	353.027	86.1244	353.027	85.4176	353.027	85.2872	353.027	84.5829	353.027	84.216	353.027	83.649	353.027	83.0166	353.027	82.7889	353.027	82.0142	353.027	82.3038	353.027	81.6864	353.027	82.4209	353.027	82.1708	353.027	83.0271	353.027	83.0669	353.027	83.7856	353.027	83.9337	353.027	84.4207	353.027	84.5495	353.027	84.7912	353.027	84.8397
366.211	87.6802	366.211	87.6717	366.211	87.643	366.211	87.6251	366.211	87.5583	366.211	87.5507	366.211	87.4289	366.211	87.4542	366.211	87.2583	366.211	87.3272	366.211	87.0429	366.211	87.1398	366.211	86.7653	366.211	86.841	366.211	86.3889	366.211	86.3673	366.211	85.8603	366.211	85.6569	366.211	85.1171	366.211	84.6681	366.211	84.1074	366.211	83.4123	366.211	82.8288	366.211	82.0255	366.211	81.4203	366.211	80.8666	366.211	80.2927	366.211	80.4105	366.211	79.9835	366.211	80.7248	366.211	80.4935	366.211	81.3606	366.211	81.2664	366.211	81.8792	366.211	81.8509	366.211	82.0652
379.395	87.4298	379.395	87.4764	379.395	87.3645	379.395	87.526	379.395	87.2696	379.395	87.6035	379.395	87.1445	379.395	87.7213	379.395	86.9911	379.395	87.8615	379.395	86.8034	379.395	87.9688	379.395	86.5571	379.395	87.9572	379.395	86.2053	379.395	87.7277	379.395	85.682	379.395	87.1818	379.395	84.9116	379.395	86.2291	379.395	83.8243	379.395	84.7894	379.395	82.389	379.395	82.8151	379.395	80.7108	379.395	80.4259	379.395	79.2493	379.395	78.3717	379.395	78.7894	379.395	78.0414	379.395	79.4161	379.395	79.1492	379.395	80.3211	379.395	80.2945	379.395	80.893	379.395	80.9041
392.578	86.7257	392.578	86.6264	392.578	86.7388	392.578	86.468	392.578	86.6591	392.578	86.298	392.578	86.4976	392.578	86.1725	392.578	86.2766	392.578	86.1311	392.578	86.0199	392.578	86.1661	392.578	85.7388	392.578	86.2118	392.578	85.418	392.578	86.1656	392.578	85.0078	392.578	85.9198	392.578	84.4272	392.578	85.384	392.578	83.578	392.578	84.4944	392.578	82.3682	392.578	83.2302	392.578	80.7674	392.578	81.6733	392.578	78.9692	392.578	80.1395	392.578	77.68	392.578	79.2074	392.578	77.6873	392.578	79.1507	392.578	78.5471	392.578	79.4948	392.578	79.3339	392.578	79.6503
405.762	87.2868	405.762	87.0126	405.762	87.4534	405.762	86.6398	405.762	87.5246	405.762	86.203	405.762	87.5269	405.762	85.7637	405.762	87.4926	405.762	85.3976	405.762	87.4461	405.762	85.1575	405.762	87.388	405.762	85.026	405.762	87.2823	405.762	84.9058	405.762	87.0576	405.762	84.6661	405.762	86.62	405.762	84.2039	405.762	85.8711	405.762	83.484	405.762	84.7251	405.762	82.571	405.762	83.1364	405.762	81.6582	405.762	81.1904	405.762	81.023	405.762	79.3504	405.762	80.8125	405.762	78.5505	405.762	80.8685	405.762	79.0395	405.762	80.8799	405.762	79.9398	405.762	80.6027
420.41	87.5673	420.41	87.5482	420.41	87.4634	420.41	87.4076	420.41	87.2499	420.41	87.1631	420.41	86.9565	420.41	86.851	420.41	86.6285	420.41	86.5252	420.41	86.3209	420.41	86.2391	420.41	86.08	420.41	86.0082	420.41	85.913	420.41	85.78	420.41	85.7659	420.41	85.4468	420.41	85.5314	420.41	84.8886	420.41	85.0819	420.41	84.0109	420.41	84.3034	420.41	82.7805	420.41	83.1268	420.41	81.3032	420.41	81.5938	420.41	79.962	420.41	80.0135	420.41	79.3309	420.41	79.0554	420.41	79.4852	420.41	79.0987	420.41	79.8516	420.41	79.6085	420.41	79.9372
435.059	88.7932	435.059	88.6391	435.059	88.7501	435.059	88.2821	435.059	88.5192	435.059	87.7223	435.059	88.1163	435.059	86.9786	435.059	87.5697	435.059	86.1147	435.059	86.9316	435.059	85.2644	435.059	86.2899	435.059	84.5985	435.059	85.7542	435.059	84.1955	435.059	85.3849	435.059	83.9424	435.059	85.1132	435.059	83.6106	435.059	84.7575	435.059	82.9881	435.059	84.1184	435.059	81.9413	435.059	83.0472	435.059	80.4678	435.059	81.485	435.059	78.8417	435.059	79.5704	435.059	77.7315	435.059	77.8864	435.059	77.5776	435.059	77.2711	435.059	77.8628	435.059	77.5771	435.059	77.9183
451.172	88.5944	451.172	88.5706	451.172	88.5013	451.172	88.4216	451.172	88.2911	451.172	88.1295	451.172	87.9527	451.172	87.6656	451.172	87.4616	451.172	86.9918	451.172	86.7804	451.172	86.0714	451.172	85.8728	451.172	84.8929	451.172	84.7342	451.172	83.5101	451.172	83.4441	451.172	82.0865	451.172	82.2153	451.172	80.8757	451.172	81.336	451.172	80.0495	451.172	80.9212	451.172	79.5313	451.172	80.7767	451.172	79.1112	451.172	80.6172	451.172	78.6715	451.172	80.2799	451.172	78.2577	451.172	79.7555	451.172	77.9984	451.172	79.1447	451.172	77.975	451.172	78.5868	451.172	78.182
465.82	87.8668	465.82	87.8706	465.82	87.8235	465.82	87.8148	465.82	87.7472	465.82	87.6655	465.82	87.6273	465.82	87.3757	465.82	87.4313	465.82	86.8967	465.82	87.1071	465.82	86.1981	465.82	86.5948	465.82	85.287	465.82	85.8426	465.82	84.2103	465.82	84.8175	465.82	83.0327	465.82	83.5127	465.82	81.8158	465.82	81.9657	465.82	80.64	465.82	80.3181	465.82	79.6667	465.82	78.9209	465.82	79.1318	465.82	78.2688	465.82	79.153	465.82	78.4929	465.82	79.5632	465.82	79.1724	465.82	80.06	465.82	79.859	465.82	80.4165	465.82	80.3323	465.82	80.5203
483.398	87.8266	483.398	87.8067	483.398	87.8355	483.398	87.7521	483.398	87.8473	483.398	87.634	483.398	87.8646	483.398	87.4285	483.398	87.878	483.398	87.1226	483.398	87.8596	483.398	86.7097	483.398	87.7567	483.398	86.1721	483.398	87.4933	483.398	85.4622	483.398	86.9864	483.398	84.4985	483.398	86.1643	483.398	83.1891	483.398	84.9744	483.398	81.4807	483.398	83.3847	483.398	79.4616	483.398	81.4037	483.398	77.5708	483.398	79.1857	483.398	76.6255	483.398	77.2847	483.398	76.8614	483.398	76.5629	483.398	77.5395	483.398	76.9916	483.398	78.0249	483.398	77.6848	483.398	78.0826
499.512	87.0328	499.512	87.2205	499.512	86.8464	499.512	87.3968	499.512	86.6797	499.512	87.5415	499.512	86.557	499.512	87.6143	499.512	86.4926	499.512	87.5548	499.512	86.4703	499.512	87.2962	499.512	86.4357	499.512	86.7814	499.512	86.31	499.512	85.9708	499.512	86.0121	499.512	84.8357	499.512	85.4735	499.512	83.3413	499.512	84.642	499.512	81.4396	499.512	83.4863	499.512	79.1241	499.512	82.019	499.512	76.6812	499.512	80.362	499.512	75.1542	499.512	78.8409	499.512	75.4102	499.512	77.9109	499.512	76.4801	499.512	77.693	499.512	77.3515	499.512	77.7948	499.512	77.7662
517.09	86.0188	517.09	86.1078	517.09	85.8759	517.09	86.1592	517.09	85.6853	517.09	86.2078	517.09	85.4722	517.09	86.292	517.09	85.2664	517.09	86.4249	517.09	85.0785	517.09	86.5674	517.09	84.8822	517.09	86.6236	517.09	84.6182	517.09	86.4603	517.09	84.2143	517.09	85.9301	517.09	83.6042	517.09	84.8874	517.09	82.7417	517.09	83.1925	517.09	81.6298	517.09	80.7254	517.09	80.3982	517.09	77.5585	517.09	79.3924	517.09	74.9398	517.09	79.0118	517.09	75.3005	517.09	79.2266	517.09	77.1643	517.09	79.5993	517.09	78.6415	517.09	79.749	517.09	79.4723
536.133	85.5536	536.133	85.4104	536.133	85.6129	536.133	85.2114	536.133	85.6139	536.133	85.0495	536.133	85.6107	536.133	85.0586	536.133	85.6513	536.133	85.3215	536.133	85.7442	536.133	85.776	536.133	85.8451	536.133	86.2524	536.133	85.8717	536.133	86.5791	536.133	85.7323	536.133	86.6159	536.133	85.345	536.133	86.2396	536.133	84.6425	536.133	85.3536	536.133	83.5817	536.133	83.9203	536.133	82.1832	536.133	82.01	536.133	80.6175	536.133	79.9273	536.133	79.2933	536.133	78.3774	536.133	78.662	536.133	77.9875	536.133	78.6741	536.133	78.3652	536.133	78.8343	536.133	78.7557
555.176	85.2805	555.176	85.1199	555.176	85.2866	555.176	84.8138	555.176	85.1706	555.176	84.4279	555.176	85.001	555.176	84.0991	555.176	84.8668	555.176	83.9907	555.176	84.8356	555.176	84.1664	555.176	84.8971	555.176	84.5258	555.176	84.9431	555.176	84.8812	555.176	84.8129	555.176	85.0362	555.176	84.3503	555.176	84.8203	555.176	83.4237	555.176	84.1246	555.176	81.946	555.176	82.95	555.176	80.0326	555.176	81.4913	555.176	78.4711	555.176	80.2485	555.176	78.4714	555.176	79.8079	555.176	79.5651	555.176	80.1423	555.176	80.5629	555.176	80.7032	555.176	81.0643	555.176	81.0757
574.219	86.1783	574.219	85.9868	574.219	86.0991	574.219	85.4703	574.219	85.8047	574.219	84.5999	574.219	85.3544	574.219	83.4399	574.219	84.8297	574.219	82.2625	574.219	84.3559	574.219	81.585	574.219	84.0815	574.219	81.7662	574.219	84.0613	574.219	82.5113	574.219	84.1521	574.219	83.2239	574.219	84.0827	574.219	83.4954	574.219	83.5905	574.219	83.1563	574.219	82.4824	574.219	82.2225	574.219	80.6827	574.219	80.9509	574.219	78.5074	574.219	79.9631	574.219	77.3104	574.219	79.8612	574.219	78.1269	574.219	80.4014	574.219	79.5862	574.219	80.9245	574.219	80.6219	574.219	81.0489
594.727	88.1874	594.727	88.1618	594.727	87.9967	594.727	87.8628	594.727	87.6498	594.727	87.2443	594.727	87.1967	594.727	86.2924	594.727	86.665	594.727	85.0728	594.727	86.0734	594.727	83.7868	594.727	85.4649	594.727	82.7625	594.727	84.9064	594.727	82.2247	594.727	84.4203	594.727	81.9836	594.727	83.9013	594.727	81.5687	594.727	83.1206	594.727	80.604	594.727	81.8091	594.727	79.0115	594.727	79.7596	594.727	77.3869	594.727	77.1575	594.727	77.297	594.727	75.8503	594.727	78.8687	594.727	77.5228	594.727	80.537	594.727	79.7645	594.727	81.5698	594.727	81.2356	594.727	81.8192
615.234	88.4065	615.234	88.3405	615.234	88.248	615.234	88.0376	615.234	87.8926	615.234	87.4957	615.234	87.3882	615.234	86.733	615.234	86.803	615.234	85.8236	615.234	86.2156	615.234	84.9342	615.234	85.6901	615.234	84.2712	615.234	85.2372	615.234	83.8833	615.234	84.7847	615.234	83.5191	615.234	84.1901	615.234	82.7605	615.234	83.2762	615.234	81.2554	615.234	81.8428	615.234	78.8556	615.234	79.684	615.234	75.9448	615.234	76.8436	615.234	74.5173	615.234	74.9177	615.234	75.9167	615.234	76.1298	615.234	77.8848	615.234	78.172	615.234	79.2217	615.234	79.4243	615.234	79.7508
637.207	87.737	637.207	87.581	637.207	87.7339	637.207	87.2492	637.207	87.6031	637.207	86.7541	637.207	87.38	637.207	86.1493	637.207	87.1038	637.207	85.5318	637.207	86.8254	637.207	85.0129	637.207	86.5991	637.207	84.6546	637.207	86.4467	637.207	84.4217	637.207	86.3172	637.207	84.1929	637.207	86.0814	637.207	83.794	637.207	85.561	637.207	83.0174	637.207	84.5517	637.207	81.6494	637.207	82.8176	637.207	79.551	637.207	80.07	637.207	76.9622	637.207	76.0624	637.207	75.2286	637.207	72.2322	637.207	75.5177	637.207	73.2392	637.207	76.3627	637.207	75.4804	637.207	76.4923
659.18	88.0045	659.18	87.9466	659.18	87.9034	659.18	87.7139	659.18	87.6588	659.18	87.3006	659.18	87.3005	659.18	86.7474	659.18	86.8915	659.18	86.1689	659.18	86.5253	659.18	85.7013	659.18	86.2965	659.18	85.3843	659.18	86.2398	659.18	85.1368	659.18	86.2679	659.18	84.8093	659.18	86.1789	659.18	84.2004	659.18	85.7206	659.18	83.0881	659.18	84.6468	659.18	81.2217	659.18	82.7493	659.18	78.4148	659.18	79.9225	659.18	75.6251	659.18	76.6804	659.18	75.955	659.18	75.5633	659.18	77.944	659.18	77.1559	659.18	79.1958	659.18	78.7307	659.18	79.4381
682.617	88.5126	682.617	88.3903	682.617	88.2876	682.617	87.8736	682.617	87.742	682.617	86.9318	682.617	86.8979	682.617	85.6501	682.617	85.8195	682.617	84.3657	682.617	84.716	682.617	83.6888	682.617	84.0963	682.617	83.9963	682.617	84.4569	682.617	84.8293	682.617	85.4565	682.617	85.47	682.617	86.3427	682.617	85.5727	682.617	86.6878	682.617	85.0572	682.617	86.3247	682.617	83.8646	682.617	85.1843	682.617	81.9954	682.617	83.3363	682.617	80.1017	682.617	81.348	682.617	79.8186	682.617	80.5621	682.617	80.995	682.617	81.2462	682.617	82.0579	682.617	82.1151	682.617	82.4426
707.52	89.6075	707.52	89.5554	707.52	89.4771	707.52	89.2874	707.52	89.1917	707.52	88.7485	707.52	88.7683	707.52	87.8748	707.52	88.1541	707.52	86.6378	707.52	87.1972	707.52	85.1004	707.52	85.7632	707.52	83.4543	707.52	83.9489	707.52	82.0357	707.52	82.2867	707.52	81.2474	707.52	81.5421	707.52	81.0403	707.52	81.5838	707.52	80.6703	707.52	81.3898	707.52	79.3985	707.52	80.2653	707.52	76.9123	707.52	78.2285	707.52	74.413	707.52	76.9112	707.52	75.9353	707.52	78.3997	707.52	79.0873	707.52	80.5813	707.52	81.1865	707.52	81.8795	707.52	82.088
732.422	87.6072	732.422	87.5786	732.422	87.5348	732.422	87.3744	732.422	87.4362	732.422	86.9577	732.422	87.326	732.422	86.3587	732.422	87.1134	732.422	85.6756	732.422	86.6489	732.422	85.0151	732.422	85.8346	732.422	84.4167	732.422	84.6988	732.422	83.8307	732.422	83.428	732.422	83.1244	732.422	82.3724	732.422	82.1424	732.422	81.765	732.422	80.7948	732.422	81.2986	732.422	79.0666	732.422	80.4169	732.422	77.0512	732.422	78.8289	732.422	75.2499	732.422	76.8259	732.422	74.6939	732.422	75.653	732.422	75.4777	732.422	76.0608	732.422	76.5011	732.422	76.8327	732.422	77.031
757.324	88.6832	757.324	88.7727	757.324	88.5228	757.324	88.697	757.324	88.3624	757.324	88.3626	757.324	88.2052	757.324	87.7216	757.324	87.9839	757.324	86.8702	757.324	87.6418	757.324	86.0743	757.324	87.1872	757.324	85.5234	757.324	86.6363	757.324	85.0906	757.324	85.9326	757.324	84.4852	757.324	84.958	757.324	83.4758	757.324	83.5917	757.324	81.9091	757.324	81.6713	757.324	79.5594	757.324	78.8213	757.324	76.1275	757.324	74.3056	757.324	73.034	757.324	69.9142	757.324	74.8157	757.324	73.9833	757.324	77.6991	757.324	77.6127	757.324	79.3738	757.324	79.3987	757.324	79.9173
785.156	86.7659	785.156	86.8027	785.156	86.609	785.156	86.6785	785.156	86.382	785.156	86.3767	785.156	86.1574	785.156	85.9828	785.156	85.9999	785.156	85.6944	785.156	85.9036	785.156	85.5867	785.156	85.7988	785.156	85.5352	785.156	85.6433	785.156	85.4133	785.156	85.4468	785.156	85.037	785.156	85.1625	785.156	84.254	785.156	84.6209	785.156	83.0132	785.156	83.6053	785.156	81.0542	785.156	81.8984	785.156	77.8111	785.156	79.1685	785.156	73.2104	785.156	74.8711	785.156	73.1924	785.156	71.3047	785.156	76.8848	785.156	74.9527	785.156	78.9423	785.156	78.1022	785.156	79.3298
811.523	88.9447	811.523	88.8465	811.523	88.6751	811.523	88.35	811.523	88.0949	811.523	87.5452	811.523	87.2413	811.523	86.7024	811.523	86.1672	811.523	86.0633	811.523	85.0793	811.523	85.5371	811.523	84.3724	811.523	84.9382	811.523	84.251	811.523	84.4184	811.523	84.4403	811.523	84.2805	811.523	84.6043	811.523	84.3307	811.523	84.6206	811.523	83.8898	811.523	84.37	811.523	82.4253	811.523	83.592	811.523	79.8668	811.523	82.0362	811.523	76.6224	811.523	79.807	811.523	74.6326	811.523	77.9891	811.523	76.0501	811.523	77.9857	811.523	78.0714	811.523	78.8081	811.523	79.0103
840.82	88.4187	840.82	88.4398	840.82	88.172	840.82	88.2121	840.82	87.7834	840.82	87.7986	840.82	87.3203	840.82	87.3041	840.82	86.7622	840.82	86.7591	840.82	86.0656	840.82	86.1077	840.82	85.3356	840.82	85.3728	840.82	84.813	840.82	84.6795	840.82	84.542	840.82	84.0546	840.82	84.1809	840.82	83.1903	840.82	83.2601	840.82	81.4803	840.82	81.3792	840.82	78.261	840.82	78.1305	840.82	73.1099	840.82	74.0218	840.82	72.3306	840.82	74.92	840.82	76.9062	840.82	78.3405	840.82	79.7554	840.82	80.4336	840.82	81.1895	840.82	81.4455	840.82	81.6853
870.117	88.3729	870.117	88.3324	870.117	88.1541	870.117	88.0011	870.117	87.6949	870.117	87.328	870.117	87.0211	870.117	86.2797	870.117	86.1314	870.117	84.9344	870.117	85.0299	870.117	83.7886	870.117	84.0405	870.117	83.7701	870.117	83.9359	870.117	84.7307	870.117	84.769	870.117	85.546	870.117	85.5066	870.117	85.4861	870.117	85.3964	870.117	84.269	870.117	84.2092	870.117	81.8539	870.117	81.795	870.117	78.1295	870.117	77.7562	870.117	72.6901	870.117	71.8467	870.117	68.9127	870.117	70.872	870.117	72.5134	870.117	74.3779	870.117	75.2502	870.117	76.1236	870.117	76.3597
900.879	89.5542	900.879	89.5048	900.879	89.3363	900.879	89.131	900.879	88.914	900.879	88.4024	900.879	88.3118	900.879	87.3223	900.879	87.4195	900.879	85.8028	900.879	85.8914	900.879	83.4609	900.879	83.2346	900.879	80.8694	900.879	79.9693	900.879	81.7434	900.879	80.6756	900.879	84.0418	900.879	83.6427	900.879	85.2032	900.879	85.1441	900.879	84.9305	900.879	84.7938	900.879	82.9294	900.879	82.5662	900.879	78.7973	900.879	78.5112	900.879	73.8619	900.879	75.4334	900.879	76.8161	900.879	77.9622	900.879	80.3086	900.879	80.5792	900.879	81.9388	900.879	81.9492	900.879	82.3787
933.105	87.9179	933.105	88.1739	933.105	87.7118	933.105	88.3625	933.105	87.6596	933.105	88.422	933.105	87.7418	933.105	88.3276	933.105	87.7498	933.105	87.8208	933.105	87.3543	933.105	86.2815	933.105	86.1624	933.105	83.227	933.105	83.7488	933.105	79.1637	933.105	80.0583	933.105	77.2585	933.105	77.6394	933.105	78.8938	933.105	79.0812	933.105	79.8631	933.105	80.1939	933.105	78.921	933.105	79.0963	933.105	76.0451	933.105	74.9009	933.105	71.1193	933.105	71.2916	933.105	73.7109	933.105	77.12	933.105	78.8835	933.105	80.6561	933.105	81.5318	933.105	82.237	933.105	82.5128
965.332	88.8637	965.332	88.9516	965.332	88.506	965.332	88.7458	965.332	88.0328	965.332	88.3838	965.332	87.6354	965.332	88.0326	965.332	87.3465	965.332	87.5706	965.332	86.9543	965.332	86.6067	965.332	86.2273	965.332	85.0997	965.332	85.1342	965.332	83.8619	965.332	83.9623	965.332	83.7726	965.332	83.3748	965.332	83.9472	965.332	83.3905	965.332	82.9123	965.332	83.0391	965.332	79.9512	965.332	81.269	965.332	73.5932	965.332	76.5399	965.332	66.7182	965.332	67.0348	965.332	76.3418	965.332	76.1342	965.332	80.5248	965.332	80.642	965.332	82.499	965.332	82.5691	965.332	83.1138
1000.49	86.9321	1000.49	87.2816	1000.49	86.7464	1000.49	87.6515	1000.49	86.8675	1000.49	87.8485	1000.49	87.2048	1000.49	87.5727	1000.49	87.37	1000.49	86.6618	1000.49	86.9973	1000.49	85.3683	1000.49	85.9214	1000.49	84.2653	1000.49	84.2391	1000.49	84.3979	1000.49	83.3506	1000.49	85.967	1000.49	84.8595	1000.49	87.1659	1000.49	86.5383	1000.49	87.136	1000.49	86.6785	1000.49	85.4001	1000.49	84.632	1000.49	80.5626	1000.49	79.1388	1000.49	64.4505	1000.49	65.7362	1000.49	75.8176	1000.49	77.0731	1000.49	80.6713	1000.49	81.0927	1000.49	82.3549	1000.49	82.5159	1000.49	82.835
1035.64	89.976	1035.64	90.1307	1035.64	89.5444	1035.64	89.985	1035.64	89.0437	1035.64	89.695	1035.64	88.7887	1035.64	89.3917	1035.64	88.9023	1035.64	88.9047	1035.64	88.9585	1035.64	87.6324	1035.64	88.0587	1035.64	84.2138	1035.64	85.0223	1035.64	74.3868	1035.64	77.3429	1035.64	76.9913	1035.64	78.2217	1035.64	84.7743	1035.64	85.4952	1035.64	87.8047	1035.64	87.8991	1035.64	87.4202	1035.64	87.3289	1035.64	83.6431	1035.64	83.3519	1035.64	75.6415	1035.64	70.3176	1035.64	77.5213	1035.64	78.6564	1035.64	82.4885	1035.64	83.588	1035.64	84.3981	1035.64	84.961	1035.64	85.043
1072.27	89.7019	1072.27	89.3326	1072.27	89.1965	1072.27	88.3458	1072.27	87.9289	1072.27	87.4693	1072.27	86.6155	1072.27	87.498	1072.27	86.6056	1072.27	88.1132	1072.27	87.659	1072.27	87.9805	1072.27	88.0955	1072.27	86.1624	1072.27	86.9889	1072.27	82.6455	1072.27	83.6997	1072.27	76.7818	1072.27	76.8881	1072.27	79.3777	1072.27	79.3182	1072.27	83.9384	1072.27	83.9391	1072.27	85.1632	1072.27	84.953	1072.27	83.4917	1072.27	83.1629	1072.27	77.8078	1072.27	77.8098	1072.27	75.7181	1072.27	77.1725	1072.27	81.1722	1072.27	82.2736	1072.27	83.8336	1072.27	84.4074	1072.27	84.7987
1108.89	91.2078	1108.89	90.6902	1108.89	90.9546	1108.89	89.4626	1108.89	89.9881	1108.89	87.9373	1108.89	88.4458	1108.89	86.9301	1108.89	86.8291	1108.89	86.8124	1108.89	86.2708	1108.89	86.8494	1108.89	86.7516	1108.89	86.2766	1108.89	86.503	1108.89	84.673	1108.89	83.9066	1108.89	79.8842	1108.89	76.6275	1108.89	74.9958	1108.89	75.4589	1108.89	82.1125	1108.89	83.1302	1108.89	84.7831	1108.89	85.235	1108.89	84.3034	1108.89	83.8672	1108.89	80.0614	1108.89	79.0689	1108.89	74.3974	1108.89	77.0089	1108.89	80.6028	1108.89	81.4519	1108.89	83.7413	1108.89	83.7594	1108.89	84.4946
1148.44	90.4934	1148.44	90.0725	1148.44	90.206	1148.44	88.9529	1148.44	89.3662	1148.44	87.4844	1148.44	88.0621	1148.44	85.9233	1148.44	86.3084	1148.44	84.3677	1148.44	84.6615	1148.44	84.2955	1148.44	84.2169	1148.44	85.3718	1148.44	84.5924	1148.44	85.2176	1148.44	83.7698	1148.44	81.4019	1148.44	79.4606	1148.44	75.8374	1148.44	71.4124	1148.44	80.5183	1148.44	79.8487	1148.44	83.263	1148.44	83.1051	1148.44	83.1818	1148.44	82.7821	1148.44	80.3349	1148.44	79.191	1148.44	71.0876	1148.44	73.8406	1148.44	75.1687	1148.44	77.8562	1148.44	80.6104	1148.44	81.0364	1148.44	81.9001
1189.45	89.8873	1189.45	89.6148	1189.45	89.7803	1189.45	89.0619	1189.45	89.3419	1189.45	88.325	1189.45	88.4297	1189.45	86.8736	1189.45	86.8915	1189.45	84.5593	1189.45	85.189	1189.45	83.5892	1189.45	84.679	1189.45	84.9285	1189.45	85.3139	1189.45	85.3073	1189.45	85.1549	1189.45	82.3953	1189.45	82.0777	1189.45	74.9071	1189.45	71.1613	1189.45	78.4727	1189.45	76.845	1189.45	82.7433	1189.45	82.0801	1189.45	82.7549	1189.45	81.9008	1189.45	80.0074	1189.45	77.9276	1189.45	74.4626	1189.45	73.9063	1189.45	72.2625	1189.45	75.5252	1189.45	77.3837	1189.45	77.7423	1189.45	78.7965
1230.47	89.7743	1230.47	89.4975	1230.47	89.7507	1230.47	89.0481	1230.47	89.504	1230.47	88.5856	1230.47	88.8347	1230.47	87.5208	1230.47	87.2846	1230.47	85.267	1230.47	84.9825	1230.47	83.7531	1230.47	83.5775	1230.47	85.5993	1230.47	84.6358	1230.47	86.9464	1230.47	85.6381	1230.47	85.4305	1230.47	84.8787	1230.47	81.1299	1230.47	81.5827	1230.47	74.6608	1230.47	73.5625	1230.47	79.8899	1230.47	77.512	1230.47	81.612	1230.47	80.4847	1230.47	78.9712	1230.47	77.7157	1230.47	71.0721	1230.47	70.4331	1230.47	70.4872	1230.47	73.0991	1230.47	75.5643	1230.47	75.6581	1230.47	76.5379
1274.41	88.7873	1274.41	88.7926	1274.41	88.9812	1274.41	89.0614	1274.41	89.1065	1274.41	89.1296	1274.41	88.8309	1274.41	88.2626	1274.41	87.9564	1274.41	86.6362	1274.41	86.4837	1274.41	85.0571	1274.41	84.2581	1274.41	83.6549	1274.41	82.3791	1274.41	82.6025	1274.41	82.6078	1274.41	81.4229	1274.41	82.4131	1274.41	79.3927	1274.41	79.431	1274.41	78.8119	1274.41	76.7527	1274.41	82.155	1274.41	79.699	1274.41	83.8674	1274.41	81.4503	1274.41	82.3326	1274.41	80.4919	1274.41	76.617	1274.41	75.8751	1274.41	67.6058	1274.41	69.3722	1274.41	74.9396	1274.41	75.1816	1274.41	77.09
1319.82	89.5383	1319.82	89.4179	1319.82	89.6654	1319.82	89.38	1319.82	89.6472	1319.82	89.1701	1319.82	89.2076	1319.82	88.2035	1319.82	88.1593	1319.82	86.5881	1319.82	86.4606	1319.82	85.2655	1319.82	84.3975	1319.82	84.4619	1319.82	83.3769	1319.82	83.8013	1319.82	83.6708	1319.82	82.9801	1319.82	83.3216	1319.82	80.0929	1319.82	80.7168	1319.82	72.7537	1319.82	72.4791	1319.82	77.3566	1319.82	76.3891	1319.82	81.4398	1319.82	79.2142	1319.82	80.7499	1319.82	77.765	1319.82	74.5572	1319.82	73.8194	1319.82	68.7639	1319.82	65.8927	1319.82	75.122	1319.82	69.6977	1319.82	75.1561
1366.7	89.5751	1366.7	89.6458	1366.7	89.4624	1366.7	89.562	1366.7	89.3941	1366.7	88.9567	1366.7	89.1572	1366.7	87.4663	1366.7	88.3127	1366.7	85.7469	1366.7	86.8075	1366.7	83.8744	1366.7	84.3115	1366.7	81.4784	1366.7	81.1399	1366.7	82.5696	1366.7	80.5636	1366.7	84.6394	1366.7	82.3793	1366.7	84.5945	1366.7	82.676	1366.7	82.1242	1366.7	79.6226	1366.7	77.7601	1366.7	73.4171	1366.7	77.8119	1366.7	71.3443	1366.7	78.6853	1366.7	73.4334	1366.7	73.7103	1366.7	71.7574	1366.7	57.5062	1366.7	66.2997	1366.7	72.6369	1366.7	74.1751	1366.7	75.8149
1413.57	90.1192	1413.57	90.2917	1413.57	89.7148	1413.57	89.7696	1413.57	89.1408	1413.57	88.2849	1413.57	88.2236	1413.57	86.5486	1413.57	87.2783	1413.57	86.3759	1413.57	86.3519	1413.57	86.4374	1413.57	84.9065	1413.57	83.8287	1413.57	83.1665	1413.57	79.608	1413.57	82.308	1413.57	76.582	1413.57	82.6436	1413.57	74.4744	1413.57	81.5004	1413.57	79.9578	1413.57	78.923	1413.57	81.6298	1413.57	78.0532	1413.57	80.4559	1413.57	77.9343	1413.57	78.9367	1413.57	75.7348	1413.57	73.5809	1413.57	70.3814	1413.57	63.1839	1413.57	68.0459	1413.57	75.5305	1413.57	75.1365	1413.57	77.3754
1463.38	90.1274	1463.38	90.0969	1463.38	89.5283	1463.38	89.3345	1463.38	88.3421	1463.38	87.8869	1463.38	86.8593	1463.38	86.8302	1463.38	86.2057	1463.38	86.75	1463.38	86.3732	1463.38	85.4072	1463.38	85.4083	1463.38	83.5222	1463.38	81.8682	1463.38	83.4622	1463.38	78.3435	1463.38	82.0268	1463.38	80.6548	1463.38	79.0526	1463.38	83.3159	1463.38	76.7886	1463.38	83.7127	1463.38	77.3471	1463.38	82.3054	1463.38	76.5712	1463.38	80.8242	1463.38	73.7927	1463.38	77.4338	1463.38	70.4095	1463.38	70.2688	1463.38	72.1509	1463.38	68.2023	1463.38	76.3718	1463.38	75.2605	1463.38	77.5468
1516.11	89.036	1516.11	88.7889	1516.11	88.7478	1516.11	87.9442	1516.11	88.0848	1516.11	86.6572	1516.11	87.2391	1516.11	86.1701	1516.11	86.4798	1516.11	86.2307	1516.11	85.9006	1516.11	84.3892	1516.11	84.4543	1516.11	81.9794	1516.11	82.463	1516.11	81.5218	1516.11	81.0448	1516.11	81.2103	1516.11	78.3978	1516.11	80.6054	1516.11	74.5949	1516.11	79.263	1516.11	74.6518	1516.11	77.2042	1516.11	78.8264	1516.11	75.4655	1516.11	80.3447	1516.11	74.0147	1516.11	78.9307	1516.11	70.6613	1516.11	72.2941	1516.11	65.8518	1516.11	65.9361	1516.11	73.3124	1516.11	74.9253	1516.11	76.0773
1568.85	88.2599	1568.85	88.0424	1568.85	88.2656	1568.85	87.6089	1568.85	87.8486	1568.85	87.2287	1568.85	86.8617	1568.85	86.896	1568.85	86.0225	1568.85	85.4475	1568.85	84.8812	1568.85	82.7954	1568.85	82.5098	1568.85	82.2516	1568.85	79.0547	1568.85	82.8288	1568.85	79.0606	1568.85	81.9375	1568.85	80.9869	1568.85	77.7958	1568.85	80.4264	1568.85	71.5741	1568.85	78.6449	1568.85	76.3729	1568.85	78.5292	1568.85	77.8227	1568.85	80.2419	1568.85	74.1644	1568.85	77.9416	1568.85	66.1719	1568.85	71.3079	1568.85	70.5931	1568.85	66.2926	1568.85	73.7387	1568.85	71.034	1568.85	72.973
1624.51	89.3014	1624.51	88.4943	1624.51	89.0753	1624.51	87.4359	1624.51	87.9063	1624.51	87.2798	1624.51	86.9607	1624.51	86.8152	1624.51	86.8223	1624.51	85.6463	1624.51	86.0282	1624.51	85.208	1624.51	83.9689	1624.51	84.6047	1624.51	79.2567	1624.51	83.7429	1624.51	68.6092	1624.51	84.143	1624.51	54.2291	1624.51	83.6904	1624.51	63.9459	1624.51	81.3494	1624.51	72.384	1624.51	79.5069	1624.51	78.9573	1624.51	78.8697	1624.51	80.4966	1624.51	75.0378	1624.51	78.1892	1624.51	62.6117	1624.51	69.3228	1624.51	68.4989	1624.51	66.1713	1624.51	74.4173	1624.51	73.2314	1624.51	74.8379
1681.64	88.989	1681.64	88.8738	1681.64	89.3018	1681.64	89.3871	1681.64	88.9533	1681.64	88.5897	1681.64	87.1936	1681.64	85.9561	1681.64	83.9351	1681.64	83.3772	1681.64	82.7368	1681.64	80.2665	1681.64	84.0755	1681.64	78.5278	1681.64	84.1306	1681.64	75.4053	1681.64	83.4629	1681.64	69.2314	1681.64	85.1347	1681.64	71.3011	1681.64	87.5116	1681.64	77.8081	1681.64	86.6005	1681.64	80.9954	1681.64	83.5119	1681.64	82.2757	1681.64	81.139	1681.64	80.8251	1681.64	70.2047	1681.64	76.4095	1681.64	69.9813	1681.64	63.3191	1681.64	40.7098	1681.64	73.7232	1681.64	74.4081	1681.64	77.3567
1741.7	88.7431	1741.7	89.7888	1741.7	88.5675	1741.7	89.5387	1741.7	89.0281	1741.7	86.1847	1741.7	88.9002	1741.7	84.124	1741.7	87.6633	1741.7	83.8412	1741.7	84.0049	1741.7	83.476	1741.7	79.8543	1741.7	84.05	1741.7	82.6443	1741.7	80.7856	1741.7	85.1453	1741.7	80.6715	1741.7	87.1407	1741.7	83.9314	1741.7	86.8302	1741.7	83.4092	1741.7	84.1306	1741.7	78.1457	1741.7	81.0235	1741.7	67.0775	1741.7	71.943	1741.7	71.6842	1741.7	75.5473	1741.7	73.9441	1741.7	76.0635	1741.7	70.4352	1741.7	67.7464	1741.7	65.9215	1741.7	74.4088	1741.7	74.6534
1803.22	89.2393	1803.22	89.0645	1803.22	89.0653	1803.22	88.5786	1803.22	88.2854	1803.22	88.6364	1803.22	86.8379	1803.22	87.4453	1803.22	86.1605	1803.22	82.665	1803.22	86.4565	1803.22	81.1618	1803.22	86.3368	1803.22	81.9281	1803.22	84.7081	1803.22	78.6616	1803.22	80.234	1803.22	76.0375	1803.22	80.4208	1803.22	78.6955	1803.22	84.6561	1803.22	74.8692	1803.22	83.3231	1803.22	73.2935	1803.22	77.9779	1803.22	79.5921	1803.22	76.7323	1803.22	78.5481	1803.22	79.4185	1803.22	74.2724	1803.22	74.5501	1803.22	62.3694	1803.22	53.783	1803.22	74.9903	1803.22	67.3153	1803.22	73.0829
1866.21	89.2643	1866.21	88.6433	1866.21	88.6721	1866.21	87.3111	1866.21	87.4767	1866.21	86.6844	1866.21	86.5801	1866.21	85.7588	1866.21	86.2386	1866.21	84.7112	1866.21	85.7889	1866.21	83.1693	1866.21	83.9909	1866.21	75.9903	1866.21	82.3203	1866.21	72.5707	1866.21	82.1295	1866.21	73.7191	1866.21	80.5448	1866.21	75.1458	1866.21	79.1239	1866.21	78.4813	1866.21	79.0171	1866.21	73.0694	1866.21	77.7933	1866.21	69.7259	1866.21	77.7504	1866.21	76.0354	1866.21	78.2006	1866.21	72.1131	1866.21	68.2	1866.21	63.7011	1866.21	67.3158	1866.21	72.7902	1866.21	68.7129	1866.21	71.5387
1932.13	87.8013	1932.13	87.8209	1932.13	87.5834	1932.13	86.6496	1932.13	86.9969	1932.13	85.1418	1932.13	86.2329	1932.13	85.2207	1932.13	84.9561	1932.13	85.5467	1932.13	82.6336	1932.13	85.4079	1932.13	79.73	1932.13	84.1802	1932.13	81.9132	1932.13	82.6029	1932.13	83.704	1932.13	81.5379	1932.13	85.2574	1932.13	78.5708	1932.13	84.9849	1932.13	76.8279	1932.13	80.5842	1932.13	74.2378	1932.13	78.2311	1932.13	69.3113	1932.13	75.4735	1932.13	73.3168	1932.13	72.9321	1932.13	75.2579	1932.13	73.5924	1932.13	65.2096	1932.13	66.5673	1932.13	68.7373	1932.13	64.8861	1932.13	71.3136
1999.51	87.0473	1999.51	87.0525	1999.51	86.3891	1999.51	86.5834	1999.51	86.0787	1999.51	86.1716	1999.51	85.376	1999.51	81.7976	1999.51	83.446	1999.51	84.3576	1999.51	81.9553	1999.51	86.0149	1999.51	84.3675	1999.51	82.5154	1999.51	85.0205	1999.51	79.6051	1999.51	81.1483	1999.51	78.1279	1999.51	69.967	1999.51	78.4741	1999.51	76.2172	1999.51	77.1136	1999.51	76.4766	1999.51	74.6872	1999.51	77.4167	1999.51	64.9386	1999.51	73.8866	1999.51	70.8888	1999.51	72.4455	1999.51	71.9354	1999.51	65.2514	1999.51	56.7847	1999.51	62.5172	1999.51	70.6329	1999.51	67.6197	1999.51	72.7787
2069.82	88.0274	2069.82	87.757	2069.82	88.007	2069.82	88.3616	2069.82	86.7987	2069.82	87.6833	2069.82	85.6168	2069.82	85.2013	2069.82	86.0244	2069.82	84.4469	2069.82	86.2942	2069.82	78.3541	2069.82	83.8735	2069.82	82.7027	2069.82	77.8208	2069.82	85.3946	2069.82	77.8328	2069.82	85.109	2069.82	81.2308	2069.82	83.1309	2069.82	75.4589	2069.82	74.9125	2069.82	73.4297	2069.82	75.9091	2069.82	71.9066	2069.82	80.4542	2069.82	63.7272	2069.82	77.0445	2069.82	74.4061	2069.82	64.0901	2069.82	68.7433	2069.82	67.6736	2069.82	72.9113	2069.82	72.6805	2069.82	75.5532	2069.82	75.2558
2143.07	90.3995	2143.07	89.1575	2143.07	90.0945	2143.07	88.8399	2143.07	88.2082	2143.07	89.3269	2143.07	86.7598	2143.07	86.3588	2143.07	87.6408	2143.07	84.3925	2143.07	87.5372	2143.07	83.9305	2143.07	85.425	2143.07	84.8353	2143.07	84.2463	2143.07	83.1581	2143.07	84.612	2143.07	75.982	2143.07	80.3167	2143.07	78.4562	2143.07	80.6905	2143.07	81.1541	2143.07	83.9312	2143.07	81.1094	2143.07	82.2425	2143.07	73.7181	2143.07	81.2712	2143.07	69.4954	2143.07	77.9594	2143.07	74.4666	2143.07	70.1962	2143.07	64.7395	2143.07	48.0033	2143.07	76.4816	2143.07	73.6624	2143.07	79.2786
2219.24	89.4291	2219.24	89.8593	2219.24	89.4869	2219.24	89.3813	2219.24	89.1249	2219.24	87.378	2219.24	87.9979	2219.24	86.0449	2219.24	86.0399	2219.24	85.6177	2219.24	85.2813	2219.24	83.8092	2219.24	84.5147	2219.24	82.4898	2219.24	83.5024	2219.24	77.4356	2219.24	83.67	2219.24	78.5979	2219.24	78.3923	2219.24	75.2481	2219.24	73.8587	2219.24	77.8374	2219.24	73.887	2219.24	70.4552	2219.24	75.2048	2219.24	72.3826	2219.24	75.5451	2219.24	74.4892	2219.24	76.7983	2219.24	76.5753	2219.24	73.9353	2219.24	62.6637	2219.24	67.5907	2219.24	69.0882	2219.24	70.8466	2219.24	74.5848
2296.88	89.0035	2296.88	89.0646	2296.88	88.4038	2296.88	88.2296	2296.88	88.6538	2296.88	86.8045	2296.88	88.3009	2296.88	86.1841	2296.88	86.7141	2296.88	85.6006	2296.88	85.243	2296.88	83.4981	2296.88	84.7131	2296.88	81.2086	2296.88	83.7882	2296.88	81.7354	2296.88	81.578	2296.88	79.9258	2296.88	76.5993	2296.88	79.4105	2296.88	71.5614	2296.88	75.0589	2296.88	77.1267	2296.88	74.1238	2296.88	75.4622	2296.88	73.9933	2296.88	73.205	2296.88	72.7562	2296.88	73.6439	2296.88	74.5786	2296.88	74.6127	2296.88	69.9864	2296.88	68.7435	2296.88	66.647	2296.88	70.3549	2296.88	73.5717
2378.91	89.6292	2378.91	88.9363	2378.91	89.484	2378.91	88.6157	2378.91	88.168	2378.91	87.6579	2378.91	87.7075	2378.91	86.7708	2378.91	86.759	2378.91	84.5574	2378.91	85.7614	2378.91	83.0257	2378.91	84.7269	2378.91	80.8342	2378.91	82.1955	2378.91	80.9911	2378.91	75.7696	2378.91	77.9727	2378.91	69.32	2378.91	71.4385	2378.91	77.7348	2378.91	76.7387	2378.91	79.3268	2378.91	71.2917	2378.91	76.1631	2378.91	73.2768	2378.91	74.0477	2378.91	71.174	2378.91	73.7421	2378.91	72.5622	2378.91	72.4324	2378.91	66.8214	2378.91	64.9399	2378.91	64.7364	2378.91	71.3366	2378.91	72.3617
2462.4	88.9488	2462.4	88.9928	2462.4	88.8805	2462.4	88.1405	2462.4	88.385	2462.4	86.925	2462.4	87.0103	2462.4	86.3201	2462.4	86.1573	2462.4	84.3972	2462.4	85.1286	2462.4	82.8276	2462.4	83.9988	2462.4	80.937	2462.4	80.9312	2462.4	78.3028	2462.4	73.1956	2462.4	76.0902	2462.4	76.7323	2462.4	78.0604	2462.4	78.707	2462.4	76.1101	2462.4	78.3647	2462.4	72.6947	2462.4	75.0321	2462.4	71.6132	2462.4	71.5808	2462.4	74.1335	2462.4	73.0608	2462.4	73.0861	2462.4	73.6744	2462.4	71.381	2462.4	69.3348	2462.4	62.7238	2462.4	66.6789	2462.4	71.6653
2548.83	88.2391	2548.83	88.4744	2548.83	88.132	2548.83	88.3243	2548.83	87.7602	2548.83	86.9201	2548.83	86.6824	2548.83	84.284	2548.83	85.0347	2548.83	83.1463	2548.83	84.6833	2548.83	81.7633	2548.83	82.7972	2548.83	80.5412	2548.83	80.2828	2548.83	77.6679	2548.83	75.0871	2548.83	78.6018	2548.83	75.0821	2548.83	74.5328	2548.83	76.5732	2548.83	74.1265	2548.83	77.3915	2548.83	72.6414	2548.83	69.0248	2548.83	68.4132	2548.83	72.1519	2548.83	73.1274	2548.83	70.6608	2548.83	71.8709	2548.83	72.0784	2548.83	68.493	2548.83	69.6372	2548.83	59.0147	2548.83	65.2727	2548.83	68.8692
2639.65	88.797	2639.65	88.7385	2639.65	88.7505	2639.65	87.7116	2639.65	87.274	2639.65	86.4055	2639.65	86.5207	2639.65	85.0739	2639.65	85.5693	2639.65	84.0266	2639.65	84.0988	2639.65	81.8082	2639.65	81.2069	2639.65	80.852	2639.65	76.7247	2639.65	77.5402	2639.65	74.7513	2639.65	76.9047	2639.65	77.7466	2639.65	73.6725	2639.65	79.2514	2639.65	74.4938	2639.65	76.8286	2639.65	71.7738	2639.65	74.4109	2639.65	69.0184	2639.65	70.5629	2639.65	70.6284	2639.65	68.7882	2639.65	72.7196	2639.65	72.7849	2639.65	70.9471	2639.65	68.3953	2639.65	59.8781	2639.65	65.9747	2639.65	68.5678
2731.93	88.6828	2731.93	88.6363	2731.93	87.7351	2731.93	87.5361	2731.93	87.1574	2731.93	86.6373	2731.93	86.1317	2731.93	85.321	2731.93	85.0603	2731.93	84.1598	2731.93	83.6595	2731.93	82.3625	2731.93	80.3036	2731.93	79.4863	2731.93	76.9842	2731.93	78.8163	2731.93	77.141	2731.93	76.434	2731.93	79.1725	2731.93	76.2013	2731.93	79.3372	2731.93	72.1641	2731.93	75.1878	2731.93	72.3064	2731.93	75.8719	2731.93	68.0477	2731.93	70.2456	2731.93	69.262	2731.93	71.5522	2731.93	69.8605	2731.93	72.0345	2731.93	69.7466	2731.93	69.2133	2731.93	60.2893	2731.93	68.8347	2731.93	70.1015
2828.61	88.0884	2828.61	87.3348	2828.61	87.6088	2828.61	87.1224	2828.61	86.3446	2828.61	85.6568	2828.61	85.6997	2828.61	84.5558	2828.61	84.7036	2828.61	82.3332	2828.61	83.3846	2828.61	81.2969	2828.61	80.4014	2828.61	77.6324	2828.61	76.3674	2828.61	77.6262	2828.61	74.126	2828.61	76.1473	2828.61	75.5891	2828.61	72.8922	2828.61	76.2984	2828.61	72.0643	2828.61	74.5464	2828.61	70.5244	2828.61	70.2163	2828.61	67.4388	2828.61	70.9376	2828.61	67.8507	2828.61	70.6636	2828.61	68.0475	2828.61	68.342	2828.61	67.4604	2828.61	67.712	2828.61	54.2362	2828.61	64.7445	2828.61	67.9125
2928.22	87.637	2928.22	86.719	2928.22	87.3997	2928.22	86.6651	2928.22	85.7512	2928.22	85.5628	2928.22	85.3223	2928.22	84.7662	2928.22	84.451	2928.22	82.4827	2928.22	82.5353	2928.22	79.6371	2928.22	79.7999	2928.22	78.9526	2928.22	77.6514	2928.22	74.7891	2928.22	77.4137	2928.22	71.7898	2928.22	78.1963	2928.22	71.2524	2928.22	74.9222	2928.22	71.8781	2928.22	63.7991	2928.22	69.2975	2928.22	72.8983	2928.22	68.7581	2928.22	69.5222	2928.22	67.5209	2928.22	66.4649	2928.22	68.1397	2928.22	69.3557	2928.22	67.9735	2928.22	66.8469	2928.22	56.4348	2928.22	64.7618	2928.22	67.1238
3030.76	87.6412	3030.76	87.7815	3030.76	87.6711	3030.76	87.1408	3030.76	86.5153	3030.76	85.2813	3030.76	85.574	3030.76	84.0377	3030.76	84.7796	3030.76	83.099	3030.76	82.7256	3030.76	79.8443	3030.76	80.6725	3030.76	79.6723	3030.76	76.6105	3030.76	75.316	3030.76	78.3223	3030.76	76.5412	3030.76	76.9692	3030.76	76.5525	3030.76	69.9136	3030.76	69.9015	3030.76	71.6048	3030.76	71.9816	3030.76	68.8663	3030.76	66.1517	3030.76	66.0177	3030.76	67.1862	3030.76	68.5975	3030.76	68.1412	3030.76	66.887	3030.76	64.0074	3030.76	64.4598	3030.76	60.5187	3030.76	66.6068	3030.76	65.4619
3137.7	86.9429	3137.7	87.3745	3137.7	87.7293	3137.7	86.8574	3137.7	86.628	3137.7	85.5796	3137.7	85.817	3137.7	83.9478	3137.7	84.9102	3137.7	82.4645	3137.7	82.9784	3137.7	80.7976	3137.7	80.278	3137.7	78.3048	3137.7	78.2864	3137.7	78.6006	3137.7	77.2062	3137.7	75.742	3137.7	70.0803	3137.7	73.4806	3137.7	67.0996	3137.7	70.3426	3137.7	74.4733	3137.7	69.6519	3137.7	74.1505	3137.7	66.6482	3137.7	68.1387	3137.7	67.3652	3137.7	68.1207	3137.7	69.7469	3137.7	68.1873	3137.7	66.0279	3137.7	66.1148	3137.7	61.8777	3137.7	63.274	3137.7	64.779
3249.02	87.7723	3249.02	87.6422	3249.02	87.4103	3249.02	87.1678	3249.02	87.5147	3249.02	86.4546	3249.02	85.7218	3249.02	84.4424	3249.02	85.0724	3249.02	82.4349	3249.02	83.3055	3249.02	80.9032	3249.02	80.5013	3249.02	77.5962	3249.02	77.6319	3249.02	75.8346	3249.02	75.9416	3249.02	73.3103	3249.02	62.1527	3249.02	70.2121	3249.02	60.629	3249.02	72.6234	3249.02	73.0089	3249.02	70.579	3249.02	70.6657	3249.02	64.8204	3249.02	67.0525	3249.02	70.3509	3249.02	69.4917	3249.02	69.5287	3249.02	68.4371	3249.02	66.9769	3249.02	65.727	3249.02	63.4751	3249.02	62.2686	3249.02	62.8332
3363.28	88.3888	3363.28	87.9874	3363.28	87.9828	3363.28	88.5538	3363.28	87.4875	3363.28	85.7393	3363.28	86.9897	3363.28	84.5569	3363.28	84.9147	3363.28	82.6012	3363.28	83.5785	3363.28	81.022	3363.28	79.914	3363.28	78.9345	3363.28	79.7338	3363.28	76.2116	3363.28	78.2428	3363.28	75.7011	3363.28	71.2383	3363.28	74.6589	3363.28	72.1436	3363.28	73.2039	3363.28	68.7926	3363.28	69.3931	3363.28	59.1033	3363.28	69.5332	3363.28	67.6298	3363.28	66.9041	3363.28	68.9403	3363.28	70.4679	3363.28	65.0587	3363.28	68.8357	3363.28	64.5034	3363.28	65.3219	3363.28	61.5337	3363.28	61.6275
3481.93	89.4316	3481.93	89.2362	3481.93	88.8048	3481.93	87.6778	3481.93	88.181	3481.93	86.5023	3481.93	86.9588	3481.93	84.693	3481.93	85.6248	3481.93	83.3422	3481.93	82.815	3481.93	80.6709	3481.93	79.7539	3481.93	80.2569	3481.93	81.6821	3481.93	78.1879	3481.93	77.5452	3481.93	76.0821	3481.93	76.0455	3481.93	74.4783	3481.93	76.6355	3481.93	72.8813	3481.93	69.3503	3481.93	69.9759	3481.93	70.9436	3481.93	68.7198	3481.93	69.1473	3481.93	64.2168	3481.93	66.9281	3481.93	70.1275	3481.93	63.9117	3481.93	66.8026	3481.93	66.4785	3481.93	62.4748	3481.93	63.4938	3481.93	61.5335
3604.98	89.5072	3604.98	89.2014	3604.98	89.1145	3604.98	88.3833	3604.98	88.2999	3604.98	86.3112	3604.98	86.9298	3604.98	85.5385	3604.98	85.8403	3604.98	83.7193	3604.98	82.9625	3604.98	81.934	3604.98	80.9578	3604.98	78.7714	3604.98	82.6728	3604.98	77.7514	3604.98	78.8361	3604.98	74.9112	3604.98	77.5952	3604.98	74.8492	3604.98	78.2494	3604.98	71.5096	3604.98	70.3457	3604.98	70.9833	3604.98	75.4303	3604.98	68.7753	3604.98	69.1216	3604.98	66.4449	3604.98	61.3709	3604.98	68.5632	3604.98	67.7134	3604.98	65.975	3604.98	69.2627	3604.98	63.6683	3604.98	62.4621	3604.98	60.5768
3732.42	89.9475	3732.42	89.1312	3732.42	89.3187	3732.42	88.2872	3732.42	88.3888	3732.42	87.103	3732.42	86.3911	3732.42	85.2319	3732.42	85.4306	3732.42	83.0706	3732.42	81.4963	3732.42	81.4633	3732.42	82.7312	3732.42	77.6043	3732.42	81.478	3732.42	76.1133	3732.42	77.0978	3732.42	73.7927	3732.42	78.033	3732.42	73.1581	3732.42	75.847	3732.42	71.6389	3732.42	73.3548	3732.42	71.0531	3732.42	74.7449	3732.42	66.8431	3732.42	68.5819	3732.42	65.4358	3732.42	66.8535	3732.42	68.6921	3732.42	66.8285	3732.42	65.0852	3732.42	66.5357	3732.42	67.0048	3732.42	62.8087	3732.42	61.8458
3864.26	88.7249	3864.26	88.3223	3864.26	88.8293	3864.26	87.5505	3864.26	87.5905	3864.26	86.0453	3864.26	86.1381	3864.26	84.6793	3864.26	85.4942	3864.26	82.2698	3864.26	79.7683	3864.26	79.2209	3864.26	82.7698	3864.26	76.8317	3864.26	80.8764	3864.26	75.4919	3864.26	76.4383	3864.26	74.4105	3864.26	73.8941	3864.26	69.9531	3864.26	68.5748	3864.26	70.0463	3864.26	76.1172	3864.26	69.042	3864.26	72.405	3864.26	62.9245	3864.26	58.6437	3864.26	63.7283	3864.26	66.5509	3864.26	69.2656	3864.26	64.2438	3864.26	57.7379	3864.26	66.5512	3864.26	62.5109	3864.26	49.0418	3864.26	58.6348
4000.49	89.4532	4000.49	88.6456	4000.49	89.6779	4000.49	87.8296	4000.49	88.0896	4000.49	86.5617	4000.49	86.3851	4000.49	84.6439	4000.49	85.5865	4000.49	81.395	4000.49	80.5564	4000.49	79.1036	4000.49	82.6377	4000.49	78.2311	4000.49	77.9148	4000.49	74.6947	4000.49	73.9874	4000.49	74.1123	4000.49	75.6365	4000.49	71.156	4000.49	72.7523	4000.49	71.6936	4000.49	72.0835	4000.49	67.8597	4000.49	61.0338	4000.49	67.2813	4000.49	62.2062	4000.49	65.2864	4000.49	64.6998	4000.49	67.6643	4000.49	64.489	4000.49	52.5397	4000.49	65.1771	4000.49	62.9092	4000.49	61.369	4000.49	62.8073
4141.11	89.0604	4141.11	88.8274	4141.11	90.0847	4141.11	88.8624	4141.11	88.4861	4141.11	85.8234	4141.11	86.3318	4141.11	83.8371	4141.11	85.5329	4141.11	81.4643	4141.11	81.5654	4141.11	79.4664	4141.11	80.8999	4141.11	76.9384	4141.11	76.6128	4141.11	75.2729	4141.11	74.7872	4141.11	72.3727	4141.11	73.9649	4141.11	70.4973	4141.11	69.9732	4141.11	69.5701	4141.11	67.7978	4141.11	70.0815	4141.11	72.6281	4141.11	66.3212	4141.11	65.7876	4141.11	67.3477	4141.11	66.6721	4141.11	67.0387	4141.11	59.9373	4141.11	64.18	4141.11	62.8737	4141.11	65.8726	4141.11	64.0522	4141.11	60.0454
4287.6	88.9886	4287.6	89.0565	4287.6	89.0657	4287.6	88.177	4287.6	88.4482	4287.6	85.9578	4287.6	86.6523	4287.6	83.9894	4287.6	84.7607	4287.6	81.7121	4287.6	82.2216	4287.6	80.1848	4287.6	80.1372	4287.6	77.6718	4287.6	76.9815	4287.6	76.6751	4287.6	77.2202	4287.6	75.2995	4287.6	74.2508	4287.6	74.7225	4287.6	63.8917	4287.6	72.3868	4287.6	74.7006	4287.6	68.6792	4287.6	74.8194	4287.6	67.7916	4287.6	69.2321	4287.6	67.9154	4287.6	44.6872	4287.6	66.337	4287.6	62.4522	4287.6	65.2072	4287.6	64.1359	4287.6	62.3682	4287.6	59.5982	4287.6	64.9291
4438.48	88.6399	4438.48	89.0508	4438.48	88.8011	4438.48	88.0848	4438.48	87.6431	4438.48	85.6938	4438.48	87.0664	4438.48	83.6922	4438.48	83.4889	4438.48	81.5189	4438.48	83.4403	4438.48	80.5093	4438.48	77.9548	4438.48	78.3611	4438.48	73.8451	4438.48	77.1602	4438.48	78.2487	4438.48	75.7035	4438.48	67.4843	4438.48	72.6036	4438.48	75.9907	4438.48	71.2842	4438.48	74.8413	4438.48	69.332	4438.48	71.0737	4438.48	67.8305	4438.48	62.8054	4438.48	67.0913	4438.48	66.0435	4438.48	66.893	4438.48	64.5121	4438.48	63.2651	4438.48	62.1719	4438.48	63.6348	4438.48	60.9716	4438.48	64.3077
4595.21	88.5432	4595.21	88.7747	4595.21	87.243	4595.21	87.8405	4595.21	86.9421	4595.21	84.9729	4595.21	87.1657	4595.21	84.8193	4595.21	80.7563	4595.21	82.4217	4595.21	84.3621	4595.21	80.3145	4595.21	79.3615	4595.21	79.4285	4595.21	77.9245	4595.21	75.5725	4595.21	78.083	4595.21	71.7071	4595.21	75.5974	4595.21	73.5617	4595.21	77.5826	4595.21	71.1007	4595.21	71.9718	4595.21	67.6437	4595.21	68.4003	4595.21	68.1148	4595.21	65.6065	4595.21	67.378	4595.21	64.0127	4595.21	66.766	4595.21	64.1775	4595.21	59.6468	4595.21	60.5405	4595.21	65.242	4595.21	56.9466	4595.21	62.3867
4756.35	88.9537	4756.35	88.556	4756.35	87.314	4756.35	87.3433	4756.35	86.187	4756.35	85.8809	4756.35	87.4749	4756.35	83.2526	4756.35	81.1721	4756.35	82.3863	4756.35	83.8508	4756.35	81.7153	4756.35	78.7668	4756.35	77.6077	4756.35	79.3938	4756.35	76.8444	4756.35	77.4502	4756.35	75.4055	4756.35	77.7496	4756.35	71.974	4756.35	77.2117	4756.35	69.9984	4756.35	72.0928	4756.35	68.9947	4756.35	74.6184	4756.35	68.2992	4756.35	70.9475	4756.35	67.1818	4756.35	59.2946	4756.35	67.7185	4756.35	64.2236	4756.35	52.7583	4756.35	61.6546	4756.35	63.364	4756.35	45.2005	4756.35	59.4742
4924.8	89.2297	4924.8	88.688	4924.8	87.975	4924.8	87.1829	4924.8	85.8978	4924.8	85.3806	4924.8	87.6606	4924.8	85.2173	4924.8	84.167	4924.8	82.8906	4924.8	83.4597	4924.8	80.2985	4924.8	80.5985	4924.8	79.5476	4924.8	80.907	4924.8	76.4043	4924.8	74.0619	4924.8	74.0069	4924.8	76.6218	4924.8	72.6909	4924.8	72.35	4924.8	71.4055	4924.8	75.1215	4924.8	69.2857	4924.8	74.3671	4924.8	67.6962	4924.8	69.8366	4924.8	66.6941	4924.8	61.1586	4924.8	67.5912	4924.8	63.2272	4924.8	62.0514	4924.8	61.1188	4924.8	62.1507	4924.8	51.6483	4924.8	58.5048
5097.66	89.0896	5097.66	87.9666	5097.66	88.6905	5097.66	87.7918	5097.66	86.9894	5097.66	86.3079	5097.66	86.4991	5097.66	84.9241	5097.66	83.8245	5097.66	82.6765	5097.66	83.8224	5097.66	80.6868	5097.66	80.6201	5097.66	78.2013	5097.66	80.5231	5097.66	77.0261	5097.66	75.5833	5097.66	74.5404	5097.66	73.0739	5097.66	73.4545	5097.66	72.0654	5097.66	70.7918	5097.66	74.9106	5097.66	69.3975	5097.66	68.6535	5097.66	67.7773	5097.66	66.8209	5097.66	65.4156	5097.66	64.8654	5097.66	66.6816	5097.66	63.4069	5097.66	65.8513	5097.66	61.3244	5097.66	61.5676	5097.66	54.8363	5097.66	59.5604
5277.83	88.7093	5277.83	87.7496	5277.83	88.7749	5277.83	87.87	5277.83	87.8403	5277.83	85.8949	5277.83	85.1992	5277.83	84.015	5277.83	83.2964	5277.83	82.6277	5277.83	82.4665	5277.83	80.4891	5277.83	81.2676	5277.83	77.4646	5277.83	78.6529	5277.83	75.5138	5277.83	74.0772	5277.83	73.9169	5277.83	72.8382	5277.83	71.2315	5277.83	71.6477	5277.83	70.4942	5277.83	65.3366	5277.83	68.2137	5277.83	65.2861	5277.83	67.9842	5277.83	65.8197	5277.83	64.9083	5277.83	63.748	5277.83	66.3466	5277.83	59.7532	5277.83	63.0487	5277.83	64.353	5277.83	58.828	5277.83	57.6244	5277.83	56.5336
5463.87	88.9943	5463.87	88.6382	5463.87	89.1529	5463.87	87.4925	5463.87	87.8772	5463.87	84.8421	5463.87	83.5596	5463.87	83.1976	5463.87	84.1777	5463.87	80.8285	5463.87	80.4366	5463.87	78.9053	5463.87	80.2489	5463.87	77.6175	5463.87	76.2438	5463.87	74.7123	5463.87	75.0178	5463.87	70.9595	5463.87	73.5514	5463.87	71.5208	5463.87	67.0795	5463.87	68.0339	5463.87	72.8534	5463.87	65.7354	5463.87	68.2296	5463.87	66.5182	5463.87	66.7309	5463.87	63.9163	5463.87	65.3768	5463.87	64.8926	5463.87	62.1568	5463.87	61.7852	5463.87	62.1602	5463.87	62.43	5463.87	57.8083	5463.87	61.7094
5657.23	89.0112	5657.23	88.4364	5657.23	88.4082	5657.23	86.8422	5657.23	87.7257	5657.23	83.9361	5657.23	82.1052	5657.23	82.2886	5657.23	84.4962	5657.23	80.5908	5657.23	79.9492	5657.23	78.7057	5657.23	79.3356	5657.23	75.7854	5657.23	75.6126	5657.23	72.9641	5657.23	72.4156	5657.23	71.5162	5657.23	67.1251	5657.23	68.444	5657.23	68.4845	5657.23	67.2145	5657.23	71.9404	5657.23	66.7351	5657.23	71.388	5657.23	65.8005	5657.23	61.6015	5657.23	64.2302	5657.23	67.3571	5657.23	63.8316	5657.23	60.9416	5657.23	59.9346	5657.23	56.5016	5657.23	54.7523	5657.23	57.0146	5657.23	54.0442
5856.45	87.8488	5856.45	87.7089	5856.45	88.1776	5856.45	86.4196	5856.45	87.2864	5856.45	83.5516	5856.45	82.9767	5856.45	82.3122	5856.45	84.4805	5856.45	80.6278	5856.45	79.6267	5856.45	77.575	5856.45	78.1506	5856.45	75.7389	5856.45	75.5675	5856.45	73.6654	5856.45	74.9398	5856.45	70.9071	5856.45	71.0012	5856.45	68.6703	5856.45	69.5991	5856.45	66.8108	5856.45	66.4141	5856.45	65.2633	5856.45	58.6589	5856.45	65.6866	5856.45	65.4659	5856.45	64.0381	5856.45	66.8596	5856.45	62.5284	5856.45	45.2965	5856.45	60.6767	5856.45	58.4826	5856.45	53.4623	5856.45	48.2514	5856.45	52.1963
6062.99	87.6557	6062.99	87.484	6062.99	87.6865	6062.99	85.9336	6062.99	86.5833	6062.99	83.8171	6062.99	83.6451	6062.99	82.8279	6062.99	85.1996	6062.99	80.9785	6062.99	79.8253	6062.99	78.104	6062.99	77.9448	6062.99	76.0255	6062.99	75.6324	6062.99	71.8721	6062.99	75.1511	6062.99	71.9173	6062.99	72.5356	6062.99	68.4544	6062.99	70.3478	6062.99	68.7408	6062.99	65.4357	6062.99	65.336	6062.99	64.3323	6062.99	64.494	6062.99	63.6665	6062.99	63.8101	6062.99	56.9979	6062.99	58.9005	6062.99	54.161	6062.99	56.7122	6062.99	53.5495	6062.99	54.2984	6062.99	52.8254	6062.99	43.3751
6276.86	88.7754	6276.86	87.4276	6276.86	87.1173	6276.86	86.9747	6276.86	86.7661	6276.86	85.1194	6276.86	85.1163	6276.86	83.8248	6276.86	85.1045	6276.86	81.6549	6276.86	82.4636	6276.86	79.0894	6276.86	78.4157	6276.86	77.3045	6276.86	76.2804	6276.86	76.4533	6276.86	76.0267	6276.86	69.6039	6276.86	73.7058	6276.86	70.6096	6276.86	68.2667	6276.86	69.2664	6276.86	68.9072	6276.86	66.453	6276.86	66.2042	6276.86	66.1465	6276.86	37.9755	6276.86	64.8497	6276.86	55.6739	6276.86	63.9227	6276.86	59.0934	6276.86	60.563	6276.86	58.0769	6276.86	59.2622	6276.86	58.8251	6276.86	54.0738
6498.05	89.62	6498.05	87.9844	6498.05	87.9808	6498.05	87.8527	6498.05	86.3652	6498.05	85.7661	6498.05	85.5939	6498.05	83.7115	6498.05	84.7514	6498.05	82.2629	6498.05	82.7575	6498.05	79.9769	6498.05	79.6015	6498.05	77.625	6498.05	77.6086	6498.05	72.4605	6498.05	74.3324	6498.05	73.7739	6498.05	75.15	6498.05	69.1306	6498.05	70.1861	6498.05	68.5432	6498.05	72.6076	6498.05	67.3274	6498.05	69.3	6498.05	64.8612	6498.05	62.9505	6498.05	63.0329	6498.05	56.5067	6498.05	59.822	6498.05	62.714	6498.05	63.9978	6498.05	60.3198	6498.05	58.2019	6498.05	59.0205	6498.05	57.1934
6726.56	89.3257	6726.56	88.4423	6726.56	88.6151	6726.56	87.8628	6726.56	85.4228	6726.56	85.4641	6726.56	85.818	6726.56	83.6387	6726.56	82.6929	6726.56	82.0451	6726.56	82.7407	6726.56	79.0912	6726.56	79.3671	6726.56	76.7182	6726.56	77.6826	6726.56	75.0071	6726.56	69.327	6726.56	70.1293	6726.56	69.8429	6726.56	70.2249	6726.56	71.8197	6726.56	68.0706	6726.56	72.4867	6726.56	66.0354	6726.56	71.7147	6726.56	63.3336	6726.56	64.0064	6726.56	64.6769	6726.56	63.8692	6726.56	64.7811	6726.56	61.2381	6726.56	62.621	6726.56	59.0756	6726.56	57.4969	6726.56	56.2103	6726.56	50.0983
6963.87	88.4971	6963.87	88.8597	6963.87	88.8283	6963.87	87.7066	6963.87	85.0964	6963.87	84.7445	6963.87	86.2591	6963.87	83.3724	6963.87	80.5678	6963.87	80.9676	6963.87	80.957	6963.87	78.4387	6963.87	79.8778	6963.87	76.3343	6963.87	76.6424	6963.87	73.5298	6963.87	73.7258	6963.87	72.4706	6963.87	67.2797	6963.87	69.209	6963.87	71.097	6963.87	68.3626	6963.87	68.2468	6963.87	65.7898	6963.87	68.496	6963.87	63.7935	6963.87	64.128	6963.87	60.9479	6963.87	58.2356	6963.87	63.8661	6963.87	60.1089	6963.87	56.1065	6963.87	57.939	6963.87	57.2394	6963.87	38.7075	6963.87	55.433
7209.96	88.2614	7209.96	88.2546	7209.96	88.9506	7209.96	87.4436	7209.96	85.0205	7209.96	84.8647	7209.96	86.383	7209.96	82.5524	7209.96	80.5693	7209.96	80.1771	7209.96	80.2494	7209.96	77.2294	7209.96	78.646	7209.96	75.6522	7209.96	73.1962	7209.96	72.8738	7209.96	75.0854	7209.96	72.0185	7209.96	71.2348	7209.96	69.0298	7209.96	65.3279	7209.96	65.745	7209.96	68.39	7209.96	64.8061	7209.96	65.9849	7209.96	61.519	7209.96	55.3972	7209.96	62.9778	7209.96	56.2086	7209.96	59.5404	7209.96	53.5239	7209.96	59.8049	7209.96	55.5093	7209.96	49.9594	7209.96	47.914	7209.96	57.2878
7464.84	88.4467	7464.84	87.8029	7464.84	88.236	7464.84	86.5086	7464.84	85.6298	7464.84	84.0037	7464.84	86.169	7464.84	82.2877	7464.84	81.5359	7464.84	80.3518	7464.84	79.2407	7464.84	76.8671	7464.84	76.6308	7464.84	75.3449	7464.84	74.6328	7464.84	73.8496	7464.84	74.1938	7464.84	69.3929	7464.84	70.6474	7464.84	68.2976	7464.84	65.4847	7464.84	65.7813	7464.84	62.983	7464.84	63.5368	7464.84	65.7875	7464.84	64.3959	7464.84	58.2056	7464.84	62.3525	7464.84	53.9926	7464.84	59.9698	7464.84	54.899	7464.84	58.5345	7464.84	52.2126	7464.84	49.524	7464.84	57.2364	7464.84	56.3344
7727.05	88.579	7727.05	87.7994	7727.05	87.5835	7727.05	86.6374	7727.05	86.626	7727.05	84.367	7727.05	85.6549	7727.05	82.5142	7727.05	81.8474	7727.05	80.6989	7727.05	81.083	7727.05	77.8305	7727.05	74.7856	7727.05	75.7873	7727.05	76.4682	7727.05	73.6452	7727.05	73.0915	7727.05	71.1915	7727.05	71.9835	7727.05	67.2432	7727.05	71.8205	7727.05	67.7732	7727.05	65.0683	7727.05	64.0603	7727.05	63.7083	7727.05	64.5647	7727.05	61.0242	7727.05	65.021	7727.05	58.3971	7727.05	57.2164	7727.05	53.6075	7727.05	59.9776	7727.05	55.1038	7727.05	54.8572	7727.05	54.4585	7727.05	47.7215
7999.51	88.9572	7999.51	87.6601	7999.51	87.7541	7999.51	87.2417	7999.51	88.0104	7999.51	84.6871	7999.51	86.1036	7999.51	82.627	7999.51	83.0862	7999.51	80.8853	7999.51	82.5761	7999.51	78.1106	7999.51	78.0906	7999.51	76.4374	7999.51	77.6526	7999.51	72.811	7999.51	73.6835	7999.51	71.2649	7999.51	70.1582	7999.51	68.4268	7999.51	72.8661	7999.51	66.9331	7999.51	69.4679	7999.51	65.6616	7999.51	69.6432	7999.51	63.1844	7999.51	57.6012	7999.51	63.6565	7999.51	50.1189	7999.51	57.7554	7999.51	64.1733	7999.51	63.0725	7999.51	58.7605	7999.51	54.2102	7999.51	57.4449	7999.51	47.2131
8282.23	88.6838	8282.23	87.5904	8282.23	88.1655	8282.23	87.4648	8282.23	89.055	8282.23	85.0551	8282.23	86.2043	8282.23	83.6234	8282.23	84.2859	8282.23	81.4096	8282.23	81.2954	8282.23	78.213	8282.23	80.652	8282.23	76.0214	8282.23	75.903	8282.23	72.6085	8282.23	72.1628	8282.23	70.5936	8282.23	71.8559	8282.23	68.5139	8282.23	63.4911	8282.23	65.2145	8282.23	67.3381	8282.23	64.6564	8282.23	64.3591	8282.23	61.8579	8282.23	53.9127	8282.23	62.7853	8282.23	57.0232	8282.23	55.9126	8282.23	63.4538	8282.23	42.9821	8282.23	61.4221	8282.23	54.0273	8282.23	55.8982	8282.23	50.4074
8573.73	88.3309	8573.73	88.0583	8573.73	88.4586	8573.73	87.5844	8573.73	88.6825	8573.73	85.4536	8573.73	84.3731	8573.73	83.6533	8573.73	85.1629	8573.73	81.6239	8573.73	77.7504	8573.73	77.8463	8573.73	80.6612	8573.73	75.8474	8573.73	74.1551	8573.73	73.1803	8573.73	72.6012	8573.73	70.2586	8573.73	67.546	8573.73	66.0591	8573.73	67.7377	8573.73	65.2577	8573.73	67.496	8573.73	63.4495	8573.73	68.7219	8573.73	60.8608	8573.73	59.7361	8573.73	61.8462	8573.73	55.4383	8573.73	61.0933	8573.73	59.0069	8573.73	59.4696	8573.73	61.722	8573.73	60.7534	8573.73	49.1268	8573.73	43.5329
8876.95	88.4866	8876.95	88.0858	8876.95	88.3031	8876.95	86.9775	8876.95	86.9335	8876.95	84.1766	8876.95	82.8807	8876.95	82.5707	8876.95	84.1488	8876.95	80.5946	8876.95	79.5721	8876.95	77.2973	8876.95	77.8515	8876.95	74.9957	8876.95	75.032	8876.95	71.6805	8876.95	73.4551	8876.95	69.5045	8876.95	68.8215	8876.95	64.7801	8876.95	66.7674	8876.95	64.6592	8876.95	65.4537	8876.95	62.985	8876.95	67.1917	8876.95	61.205	8876.95	62.2103	8876.95	62.4613	8876.95	44.8449	8876.95	60.1946	8876.95	48.3245	8876.95	57.7519	8876.95	59.846	8876.95	59.8186	8876.95	46.5978	8876.95	54.0777
9188.96	87.3333	9188.96	86.7586	9188.96	87.2258	9188.96	86.0783	9188.96	83.4781	9188.96	83.3799	9188.96	82.2218	9188.96	81.1619	9188.96	82.197	9188.96	79.3762	9188.96	81.2344	9188.96	76.3004	9188.96	75.0946	9188.96	73.6233	9188.96	74.0828	9188.96	69.6444	9188.96	69.4796	9188.96	67.5139	9188.96	67.8224	9188.96	65.1416	9188.96	63.4708	9188.96	63.2597	9188.96	61.1932	9188.96	60.7768	9188.96	63.9922	9188.96	60.9643	9188.96	60.4092	9188.96	57.5162	9188.96	44.5551	9188.96	62.1538	9188.96	50.6385	9188.96	56.5045	9188.96	52.7029	9188.96	50.7907	9188.96	45.2481	9188.96	55.1267
9514.16	86.5024	9514.16	85.924	9514.16	86.0764	9514.16	85.5586	9514.16	82.2582	9514.16	82.5696	9514.16	83.8565	9514.16	80.7564	9514.16	79.1031	9514.16	78.7429	9514.16	81.337	9514.16	74.9325	9514.16	75.3783	9514.16	72.5443	9514.16	71.7816	9514.16	68.6922	9514.16	69.6716	9514.16	64.8441	9514.16	66.375	9514.16	65.1689	9514.16	62.5599	9514.16	62.4167	9514.16	59.3906	9514.16	60.6484	9514.16	59.1981	9514.16	61.0342	9514.16	54.418	9514.16	60.0129	9514.16	55.3529	9514.16	60.0594	9514.16	56.8766	9514.16	62.5438	9514.16	54.3242	9514.16	52.8214	9514.16	54.2962	9514.16	54.0284
9849.61	86.1649	9849.61	85.5397	9849.61	85.3585	9849.61	85.0933	9849.61	84.4341	9849.61	82.5781	9849.61	84.6054	9849.61	79.9634	9849.61	77.1946	9849.61	77.8295	9849.61	78.5875	9849.61	74.2951	9849.61	76.5095	9849.61	72.4018	9849.61	73.6873	9849.61	68.947	9849.61	68.1893	9849.61	66.1271	9849.61	66.6223	9849.61	64.1967	9849.61	63.8236	9849.61	61.4301	9849.61	62.4258	9849.61	59.9482	9849.61	57.2745	9849.61	57.9143	9849.61	42.6202	9849.61	59.6228	9849.61	58.4657	9849.61	58.0035	9849.61	55.7388	9849.61	59.1134	9849.61	38.4837	9849.61	47.5467	9849.61	52.437	9849.61	52.2144
10196.8	85.3604	10196.8	84.4891	10196.8	85.2579	10196.8	83.9851	10196.8	84.8773	10196.8	81.2461	10196.8	83.638	10196.8	79.1356	10196.8	78.3753	10196.8	77.1221	10196.8	74.778	10196.8	73.8669	10196.8	74.8571	10196.8	70.18	10196.8	72.1349	10196.8	67.094	10196.8	68.1358	10196.8	65.0212	10196.8	59.7556	10196.8	60.8343	10196.8	59.3261	10196.8	58.8049	10196.8	60.3043	10196.8	57.0111	10196.8	59.5327	10196.8	57.9291	10196.8	51.8603	10196.8	55.2812	10196.8	48.1941	10196.8	49.4633	10196.8	46.1203	10196.8	54.5716	10196.8	52.8688	10196.8	49.3566	10196.8	45.4421	10196.8	53.4637
10555.7	84.9924	10555.7	84.7586	10555.7	84.9983	10555.7	84.1293	10555.7	85.1848	10555.7	81.1405	10555.7	82.4053	10555.7	79.2421	10555.7	79.8248	10555.7	76.9696	10555.7	75.0525	10555.7	72.8723	10555.7	73.171	10555.7	70.1474	10555.7	68.3584	10555.7	66.8808	10555.7	68.7399	10555.7	64.9005	10555.7	61.3654	10555.7	60.5675	10555.7	61.3627	10555.7	57.5837	10555.7	61.2623	10555.7	57.4515	10555.7	62.2289	10555.7	57.4144	10555.7	52.4633	10555.7	55.5221	10555.7	51.2575	10555.7	49.7202	10555.7	46.5436	10555.7	41.6518	10555.7	55.9299	10555.7	50.5574	10555.7	46.5038	10555.7	54.8726
10927.7	87.3319	10927.7	87.2735	10927.7	87.7354	10927.7	86.5517	10927.7	86.9481	10927.7	83.5323	10927.7	83.6886	10927.7	81.9027	10927.7	82.9845	10927.7	78.9078	10927.7	78.9487	10927.7	75.1426	10927.7	75.9652	10927.7	72.5088	10927.7	70.5773	10927.7	69.0154	10927.7	69.5499	10927.7	65.107	10927.7	70.9827	10927.7	62.717	10927.7	60.5507	10927.7	62.8173	10927.7	53.2856	10927.7	60.8572	10927.7	59.2523	10927.7	60.8548	10927.7	47.8048	10927.7	60.6421	10927.7	52.9631	10927.7	57.0644	10927.7	50.4437	10927.7	40.4807	10927.7	50.7606	10927.7	51.2456	10927.7	48.9472	10927.7	47.6829
11313	88.0781	11313	87.885	11313	88.1062	11313	87.4734	11313	85.5609	11313	84.6989	11313	84.0141	11313	83.1913	11313	84.1485	11313	80.2297	11313	80.7938	11313	76.3986	11313	75.2924	11313	73.547	11313	74.5401	11313	70.1337	11313	69.3537	11313	65.6876	11313	65.04	11313	63.3461	11313	65.9405	11313	64.1215	11313	60.4076	11313	61.3156	11313	49.3086	11313	60.9151	11313	59.019	11313	61.6063	11313	48.2999	11313	58.3926	11313	58.1183	11313	49.6194	11313	58.5909	11313	54.8844	11313	46.6596	11313	48.2035
11712.9	88.4787	11712.9	88.3513	11712.9	88.577	11712.9	87.5556	11712.9	85.0077	11712.9	85.0137	11712.9	85.9592	11712.9	83.2421	11712.9	82.5304	11712.9	80.5398	11712.9	81.4571	11712.9	76.3936	11712.9	75.9402	11712.9	73.8271	11712.9	74.2376	11712.9	70.3167	11712.9	67.3386	11712.9	66.548	11712.9	66.8269	11712.9	65.363	11712.9	63.5491	11712.9	62.8271	11712.9	64.292	11712.9	60.6511	11712.9	49.1009	11712.9	60.1175	11712.9	57.0884	11712.9	59.226	11712.9	56.0029	11712.9	60.0235	11712.9	54.6936	11712.9	55.9672	11712.9	50.0825	11712.9	57.8398	11712.9	50.4441	11712.9	40.0802
12126	88.9817	12126	88.1616	12126	88.4791	12126	88.1235	12126	87.089	12126	85.256	12126	86.9551	12126	82.9049	12126	81.4348	12126	80.0931	12126	79.5507	12126	76.1142	12126	78.5823	12126	72.9091	12126	73.1621	12126	69.5624	12126	68.9928	12126	64.7948	12126	65.1402	12126	64.1666	12126	62.0785	12126	61.8864	12126	63.029	12126	58.4304	12126	47.6826	12126	59.9247	12126	62.0182	12126	55.8527	12126	60.0671	12126	59.8772	12126	42.414	12126	55.0313	12126	52.0338	12126	48.6507	12126	47.2697	12126	38.4752
12553.7	89.6287	12553.7	88.9937	12553.7	89.0891	12553.7	88.1974	12553.7	88.4904	12553.7	85.645	12553.7	86.5583	12553.7	82.9166	12553.7	82.6603	12553.7	79.7812	12553.7	78.3394	12553.7	76.3681	12553.7	76.8566	12553.7	73.7692	12553.7	73.6879	12553.7	69.8884	12553.7	69.4526	12553.7	66.6982	12553.7	65.6475	12553.7	62.9085	12553.7	62.2119	12553.7	60.3393	12553.7	62.0085	12553.7	57.9296	12553.7	57.622	12553.7	58.7026	12553.7	56.4174	12553.7	57.5705	12553.7	57.8409	12553.7	58.8568	12553.7	52.4253	12553.7	59.8302	12553.7	48.2589	12553.7	55.9615	12553.7	45.9179	12553.7	43.0293
12996.1	90.0495	12996.1	89.6418	12996.1	90.0169	12996.1	89.3497	12996.1	89.5734	12996.1	86.4486	12996.1	86.0576	12996.1	83.8328	12996.1	83.4473	12996.1	80.5382	12996.1	80.129	12996.1	76.3547	12996.1	75.602	12996.1	72.3352	12996.1	73.5956	12996.1	69.905	12996.1	68.1039	12996.1	66.3926	12996.1	63.8638	12996.1	62.4846	12996.1	62.5233	12996.1	60.3666	12996.1	60.9515	12996.1	59.8275	12996.1	57.6593	12996.1	58.5033	12996.1	65.5203	12996.1	59.0216	12996.1	53.5112	12996.1	58.2366	12996.1	48.278	12996.1	61.4294	12996.1	53.4825	12996.1	54.7561	12996.1	43.963	12996.1	32.1227
13454.6	90.0401	13454.6	89.7972	13454.6	90.5406	13454.6	89.2404	13454.6	88.981	13454.6	86.9675	13454.6	87.313	13454.6	83.9539	13454.6	83.3065	13454.6	80.2991	13454.6	79.4023	13454.6	76.9471	13454.6	75.7716	13454.6	73.0025	13454.6	71.1074	13454.6	70.205	13454.6	72.4147	13454.6	64.776	13454.6	65.4478	13454.6	62.2045	13454.6	62.0575	13454.6	61.9439	13454.6	61.7236	13454.6	60.5413	13454.6	63.0912	13454.6	59.9172	13454.6	66.4376	13454.6	60.1004	13454.6	52.0596	13454.6	57.5424	13454.6	57.0924	13454.6	57.8269	13454.6	48.0243	13454.6	54.9079	13454.6	53.9683	13454.6	51.4582
13929.2	91.2039	13929.2	90.814	13929.2	90.6718	13929.2	90.4252	13929.2	89.3452	13929.2	87.7616	13929.2	88.8895	13929.2	84.5275	13929.2	84.663	13929.2	81.6361	13929.2	80.5075	13929.2	77.3591	13929.2	77.1288	13929.2	74.0186	13929.2	72.0319	13929.2	70.4064	13929.2	64.5395	13929.2	66.4138	13929.2	67.2581	13929.2	64.5417	13929.2	65.373	13929.2	63.1441	13929.2	63.7761	13929.2	61.1836	13929.2	66.8053	13929.2	61.669	13929.2	67.4813	13929.2	61.595	13929.2	58.8639	13929.2	53.8923	13929.2	56.6565	13929.2	52.4057	13929.2	56.3056	13929.2	38.8792	13929.2	51.901	13929.2	54.9826
14419.9	91.7055	14419.9	90.9874	14419.9	90.9772	14419.9	90.4692	14419.9	88.6832	14419.9	87.1488	14419.9	88.2912	14419.9	84.2867	14419.9	83.4279	14419.9	80.7377	14419.9	81.1717	14419.9	77.0252	14419.9	76.812	14419.9	72.6897	14419.9	73.8771	14419.9	69.1801	14419.9	70.6451	14419.9	66.3921	14419.9	61.6024	14419.9	63.2082	14419.9	64.2138	14419.9	62.2624	14419.9	66.1318	14419.9	58.0505	14419.9	68.0471	14419.9	61.4955	14419.9	67.7999	14419.9	62.7323	14419.9	56.1514	14419.9	59.1071	14419.9	53.2507	14419.9	45.1614	14419.9	52.3103	14419.9	54.2335	14419.9	54.8541	14419.9	51.7084
14928.2	91.5026	14928.2	90.4283	14928.2	91.3185	14928.2	89.7408	14928.2	88.5561	14928.2	86.5654	14928.2	86.8327	14928.2	83.4004	14928.2	82.22	14928.2	79.6254	14928.2	79.4894	14928.2	75.5679	14928.2	75.1118	14928.2	72.251	14928.2	70.9006	14928.2	69.2185	14928.2	67.0918	14928.2	64.5145	14928.2	67.8357	14928.2	60.4956	14928.2	57.2093	14928.2	58.4676	14928.2	61.3725	14928.2	55.8803	14928.2	67.9975	14928.2	56.6331	14928.2	68.8025	14928.2	59.7421	14928.2	58.3432	14928.2	59.4947	14928.2	50.2642	14928.2	58.2416	14928.2	56.5192	14928.2	36.2971	14928.2	53.0446	14928.2	51.9651
15455.6	90.4702	15455.6	90.1266	15455.6	89.4812	15455.6	89.1524	15455.6	89.3481	15455.6	85.7585	15455.6	85.6914	15455.6	82.1821	15455.6	82.6408	15455.6	78.7252	15455.6	77.7967	15455.6	73.9964	15455.6	75.161	15455.6	69.7438	15455.6	72.101	15455.6	67.139	15455.6	66.7182	15455.6	62.962	15455.6	61.7129	15455.6	60.111	15455.6	57.6774	15455.6	54.5642	15455.6	64.0393	15455.6	54.5793	15455.6	69.2944	15455.6	54.9213	15455.6	68.5575	15455.6	51.8484	15455.6	56.2384	15455.6	55.0201	15455.6	54.897	15455.6	54.6522	15455.6	49.0624	15455.6	38.9805	15455.6	53.7767	15455.6	55.5561
16000.5	90.9752	16000.5	89.5003	16000.5	90.3849	16000.5	89.0195	16000.5	89.1599	16000.5	85.1218	16000.5	86.7573	16000.5	81.6641	16000.5	81.9874	16000.5	76.9544	16000.5	77.8918	16000.5	73.4017	16000.5	73.0548	16000.5	69.2313	16000.5	69.4949	16000.5	65.7945	16000.5	68.0674	16000.5	61.0139	16000.5	61.9866	16000.5	56.98	16000.5	55.336	16000.5	56.5478	16000.5	64.7627	16000.5	54.7509	16000.5	70.1389	16000.5	55.9727	16000.5	69.7613	16000.5	54.4709	16000.5	56.0985	16000.5	50.7044	16000.5	47.7214	16000.5	43.627	16000.5	46.7265	16000.5	46.5951	16000.5	46.7405	16000.5	49.8308
16564.5	90.7924	16564.5	89.9321	16564.5	91.5174	16564.5	88.748	16564.5	88.8079	16564.5	84.7	16564.5	87.907	16564.5	80.8764	16564.5	83.4581	16564.5	76.583	16564.5	79.7144	16564.5	72.1473	16564.5	74.6047	16564.5	67.8597	16564.5	70.1951	16564.5	64.9796	16564.5	65.7488	16564.5	61.752	16564.5	63.8055	16564.5	57.5027	16564.5	57.3153	16564.5	52.9787	16564.5	65.9493	16564.5	53.7847	16564.5	70.031	16564.5	55.0969	16564.5	68.9168	16564.5	57.1175	16564.5	54.1415	16564.5	54.4317	16564.5	52.8944	16564.5	51.186	16564.5	39.8771	16564.5	42.1354	16564.5	52.4095	16564.5	52.6361
17148.9	90.2083	17148.9	89.6401	17148.9	89.6343	17148.9	88.9314	17148.9	88.1292	17148.9	85.095	17148.9	86.3823	17148.9	81.3818	17148.9	81.431	17148.9	77.0267	17148.9	77.2498	17148.9	73.2331	17148.9	73.8501	17148.9	69.6282	17148.9	69.3651	17148.9	66.4886	17148.9	63.1844	17148.9	61.0617	17148.9	62.0995	17148.9	56.3526	17148.9	34.8113	17148.9	53.0668	17148.9	61.4899	17148.9	52.1816	17148.9	67.0706	17148.9	52.7331	17148.9	67.8047	17148.9	54.6823	17148.9	54.4222	17148.9	56.9999	17148.9	49.7587	17148.9	56.1066	17148.9	38.0177	17148.9	53.3033	17148.9	53.3609	17148.9	38.2006
17752.4	92.0389	17752.4	91.2622	17752.4	90.0251	17752.4	91.2478	17752.4	89.0551	17752.4	87.8858	17752.4	84.8311	17752.4	84.3547	17752.4	78.6146	17752.4	80.4982	17752.4	73.5904	17752.4	76.1337	17752.4	68.43	17752.4	71.578	17752.4	64.8174	17752.4	67.9491	17752.4	63.1986	17752.4	63.6246	17752.4	57.9262	17752.4	59.8323	17752.4	51.5762	17752.4	57.2411	17752.4	58.6383	17752.4	56.1537	17752.4	70.0901	17752.4	56.4506	17752.4	70.8376	17752.4	56.8096	17752.4	54.9262	17752.4	57.4277	17752.4	50.8646	17752.4	54.2813	17752.4	39.7457	17752.4	55.5678	17752.4	50.0937	17752.4	53.8026
18379.4	94.7484	18379.4	94.5678	18379.4	94.5527	18379.4	93.7863	18379.4	92.1266	18379.4	90.2827	18379.4	88.3517	18379.4	86.3045	18379.4	83.5238	18379.4	81.6877	18379.4	80.0321	18379.4	77.1559	18379.4	74.406	18379.4	72.5912	18379.4	69.9435	18379.4	69.157	18379.4	66.1253	18379.4	63.9584	18379.4	63.5154	18379.4	61.3831	18379.4	52.0879	18379.4	57.0014	18379.4	68.2563	18379.4	56.6047	18379.4	75.4553	18379.4	57.9006	18379.4	74.7339	18379.4	58.4936	18379.4	55.8159	18379.4	56.2401	18379.4	52.6324	18379.4	53.4358	18379.4	54.0485	18379.4	51.6162	18379.4	53.5139	18379.4	58.5905
19026.9	98.1286	19026.9	97.6018	19026.9	97.4123	19026.9	96.8816	19026.9	94.2989	19026.9	93.2556	19026.9	91.4058	19026.9	89.1489	19026.9	85.9635	19026.9	84.3268	19026.9	81.5532	19026.9	80.1787	19026.9	77.5059	19026.9	76.4682	19026.9	74.4685	19026.9	72.6095	19026.9	69.1431	19026.9	67.6959	19026.9	64.0035	19026.9	62.9391	19026.9	51.6631	19026.9	59.0769	19026.9	68.3685	19026.9	59.2195	19026.9	77.6971	19026.9	61.1025	19026.9	76.8	19026.9	61.9737	19026.9	61.3127	19026.9	58.4065	19026.9	56.2783	19026.9	53.4312	19026.9	50.6023	19026.9	30.1527	19026.9	58.2634	19026.9	55.8915
19697.8	98.2301	19697.8	98.0023	19697.8	97.4666	19697.8	97.2786	19697.8	94.4134	19697.8	93.8087	19697.8	91.3149	19697.8	89.57	19697.8	86.1843	19697.8	84.791	19697.8	81.8276	19697.8	80.0998	19697.8	77.1191	19697.8	76.5306	19697.8	73.3094	19697.8	72.0275	19697.8	68.4558	19697.8	65.471	19697.8	66.4055	19697.8	61.8374	19697.8	59.6471	19697.8	59.5327	19697.8	70.3281	19697.8	58.5855	19697.8	79.0992	19697.8	57.5704	19697.8	77.1531	19697.8	61.5314	19697.8	58.6328	19697.8	61.0377	19697.8	52.8788	19697.8	54.9237	19697.8	52.0725	19697.8	51.4326	19697.8	54.4997	19697.8	54.7331
19999.5	96.5076	19999.5	96.8492	19999.5	96.4489	19999.5	96.3728	19999.5	94.6374	19999.5	93.5514	19999.5	91.8565	19999.5	89.7605	19999.5	86.0007	19999.5	83.7799	19999.5	82.509	19999.5	79.964	19999.5	78.3474	19999.5	75.6125	19999.5	72.2115	19999.5	70.783	19999.5	69.3911	19999.5	62.4357	19999.5	66.7372	19999.5	67.8476	19999.5	67.8842	19999.5	58.3615	19999.5	69.2551	19999.5	57.9804	19999.5	78.9346	19999.5	56.9368	19999.5	76.6303	19999.5	62.3242	19999.5	47.9643	19999.5	64.3723	19999.5	55.9273	19999.5	47.587	19999.5	49.7459	19999.5	51.3078	19999.5	55.4857	19999.5	53.1212
