"SPL Horizontal"
"On-Axis"		"10°"		"-10°"		"20°"		"-20°"		"30°"		"-30°"		"40°"		"-40°"		"50°"		"-50°"		"60°"		"-60°"		"70°"		"-70°"		"80°"		"-80°"		"90°"		"-90°"		"100°"		"-100°"		"110°"		"-110°"		"120°"		"-120°"		"130°"		"-130°"		"140°"		"-140°"		"150°"		"-150°"		"160°"		"-160°"		"170°"		"-170°"		"180°"
"Frequency [Hz]"	"Sound Pessure Level [dB]   [0.3V at 1m]"	"Frequency [Hz]"	"Sound Pessure Level [dB]   [0.3V at 1m]"	"Frequency [Hz]"	"Sound Pessure Level [dB]   [0.3V at 1m]"	"Frequency [Hz]"	"Sound Pessure Level [dB]   [0.3V at 1m]"	"Frequency [Hz]"	"Sound Pessure Level [dB]   [0.3V at 1m]"	"Frequency [Hz]"	"Sound Pessure Level [dB]   [0.3V at 1m]"	"Frequency [Hz]"	"Sound Pessure Level [dB]   [0.3V at 1m]"	"Frequency [Hz]"	"Sound Pessure Level [dB]   [0.3V at 1m]"	"Frequency [Hz]"	"Sound Pessure Level [dB]   [0.3V at 1m]"	"Frequency [Hz]"	"Sound Pessure Level [dB]   [0.3V at 1m]"	"Frequency [Hz]"	"Sound Pessure Level [dB]   [0.3V at 1m]"	"Frequency [Hz]"	"Sound Pessure Level [dB]   [0.3V at 1m]"	"Frequency [Hz]"	"Sound Pessure Level [dB]   [0.3V at 1m]"	"Frequency [Hz]"	"Sound Pessure Level [dB]   [0.3V at 1m]"	"Frequency [Hz]"	"Sound Pessure Level [dB]   [0.3V at 1m]"	"Frequency [Hz]"	"Sound Pessure Level [dB]   [0.3V at 1m]"	"Frequency [Hz]"	"Sound Pessure Level [dB]   [0.3V at 1m]"	"Frequency [Hz]"	"Sound Pessure Level [dB]   [0.3V at 1m]"	"Frequency [Hz]"	"Sound Pessure Level [dB]   [0.3V at 1m]"	"Frequency [Hz]"	"Sound Pessure Level [dB]   [0.3V at 1m]"	"Frequency [Hz]"	"Sound Pessure Level [dB]   [0.3V at 1m]"	"Frequency [Hz]"	"Sound Pessure Level [dB]   [0.3V at 1m]"	"Frequency [Hz]"	"Sound Pessure Level [dB]   [0.3V at 1m]"	"Frequency [Hz]"	"Sound Pessure Level [dB]   [0.3V at 1m]"	"Frequency [Hz]"	"Sound Pessure Level [dB]   [0.3V at 1m]"	"Frequency [Hz]"	"Sound Pessure Level [dB]   [0.3V at 1m]"	"Frequency [Hz]"	"Sound Pessure Level [dB]   [0.3V at 1m]"	"Frequency [Hz]"	"Sound Pessure Level [dB]   [0.3V at 1m]"	"Frequency [Hz]"	"Sound Pessure Level [dB]   [0.3V at 1m]"	"Frequency [Hz]"	"Sound Pessure Level [dB]   [0.3V at 1m]"	"Frequency [Hz]"	"Sound Pessure Level [dB]   [0.3V at 1m]"	"Frequency [Hz]"	"Sound Pessure Level [dB]   [0.3V at 1m]"	"Frequency [Hz]"	"Sound Pessure Level [dB]   [0.3V at 1m]"	"Frequency [Hz]"	"Sound Pessure Level [dB]   [0.3V at 1m]"	"Frequency [Hz]"	"Sound Pessure Level [dB]   [0.3V at 1m]"	"Frequency [Hz]"	"Sound Pessure Level [dB]   [0.3V at 1m]"
20.5078	61.6423	20.5078	61.5837	20.5078	61.6111	20.5078	61.4363	20.5078	61.499	20.5078	61.2116	20.5078	61.3264	20.5078	60.9353	20.5078	61.1307	20.5078	60.6541	20.5078	60.9708	20.5078	60.4427	20.5078	60.9258	20.5078	60.3998	20.5078	61.0784	20.5078	60.6208	20.5078	61.4801	20.5078	61.1492	20.5078	62.1217	20.5078	61.945	20.5078	62.9369	20.5078	62.9062	20.5078	63.8349	20.5078	63.9189	20.5078	64.7317	20.5078	64.8901	20.5078	65.5626	20.5078	65.7551	20.5078	66.282	20.5078	66.4724	20.5078	66.8578	20.5078	67.0164	20.5078	67.2677	20.5078	67.3721	20.5078	67.4958	20.5078	67.5322
21.9727	61.8942	21.9727	61.8133	21.9727	61.8018	21.9727	61.5559	21.9727	61.5411	21.9727	61.122	21.9727	61.1244	21.9727	60.5229	21.9727	60.5828	21.9727	59.8017	21.9727	59.9919	21.9727	59.0789	21.9727	59.5064	21.9727	58.6076	21.9727	59.3655	21.9727	58.7275	21.9727	59.7794	21.9727	59.5859	21.9727	60.7401	21.9727	60.9591	21.9727	62.0269	21.9727	62.4991	21.9727	63.3962	21.9727	63.973	21.9727	64.6901	21.9727	65.2725	21.9727	65.8285	21.9727	66.3569	21.9727	66.7746	21.9727	67.2129	21.9727	67.5112	21.9727	67.8373	21.9727	68.0295	21.9727	68.23	21.9727	68.3242	21.9727	68.3918
23.4375	61.803	23.4375	61.7629	23.4375	61.6367	23.4375	61.5209	23.4375	61.264	23.4375	61.0896	23.4375	60.6957	23.4375	60.5069	23.4375	59.977	23.4375	59.8738	23.4375	59.2411	23.4375	59.4102	23.4375	58.7821	23.4375	59.4481	23.4375	58.9975	23.4375	60.2066	23.4375	60.0315	23.4375	61.5473	23.4375	61.5903	23.4375	63.1333	23.4375	63.2862	23.4375	64.704	23.4375	64.89	23.4375	66.1291	23.4375	66.3081	23.4375	67.3568	23.4375	67.5111	23.4375	68.3692	23.4375	68.4923	23.4375	69.1611	23.4375	69.2518	23.4375	69.7311	23.4375	69.7903	23.4375	70.0788	23.4375	70.108	23.4375	70.2043
24.9023	63.084	24.9023	62.9935	24.9023	63.0669	24.9023	62.8048	24.9023	62.959	24.9023	62.5583	24.9023	62.8064	24.9023	62.3387	24.9023	62.6928	24.9023	62.2811	24.9023	62.74	24.9023	62.5416	24.9023	63.0761	24.9023	63.2114	24.9023	63.7676	24.9023	64.246	24.9023	64.7716	24.9023	65.5006	24.9023	65.9661	24.9023	66.8227	24.9023	67.2207	24.9023	68.1028	24.9023	68.4372	24.9023	69.2761	24.9023	69.5533	24.9023	70.3062	24.9023	70.532	24.9023	71.1728	24.9023	71.3509	24.9023	71.8629	24.9023	71.9957	24.9023	72.3681	24.9023	72.4564	24.9023	72.6824	24.9023	72.7266	24.9023	72.8023
26.3672	69.128	26.3672	69.076	26.3672	69.1072	26.3672	68.9533	26.3672	69.0205	26.3672	68.7725	26.3672	68.8853	26.3672	68.5594	26.3672	68.7313	26.3672	68.3578	26.3672	68.6029	26.3672	68.2304	26.3672	68.5583	26.3672	68.2515	26.3672	68.6589	26.3672	68.4844	26.3672	68.949	26.3672	68.9513	26.3672	69.4351	26.3672	69.6187	26.3672	70.0808	26.3672	70.4124	26.3672	70.8219	26.3672	71.2479	26.3672	71.5886	26.3672	72.0517	26.3672	72.3201	26.3672	72.769	26.3672	72.9694	26.3672	73.3619	26.3672	73.5022	26.3672	73.8058	26.3672	73.8939	26.3672	74.0854	26.3672	74.1277	26.3672	74.1931
27.832	68.1205	27.832	67.9948	27.832	68.0626	27.832	67.689	27.832	67.8192	27.832	67.2115	27.832	67.3916	27.832	66.5866	27.832	66.7926	27.832	65.8794	27.832	66.0678	27.832	65.2372	27.832	65.3382	27.832	64.9173	27.832	64.8511	27.832	65.1897	27.832	64.9317	27.832	66.0972	27.832	65.7229	27.832	67.4053	27.832	67.0191	27.832	68.8291	27.832	68.4907	27.832	70.1842	27.832	69.9105	27.832	71.3807	27.832	71.1694	27.832	72.38	27.832	72.2231	27.832	73.1648	27.832	73.0545	27.832	73.7264	27.832	73.6563	27.832	74.0592	27.832	74.0251	27.832	74.1594
29.2969	67.7123	29.2969	67.6995	29.2969	67.5923	29.2969	67.569	29.2969	67.3424	29.2969	67.3563	29.2969	66.9892	29.2969	67.1271	29.2969	66.5986	29.2969	66.9859	29.2969	66.2968	29.2969	67.0661	29.2969	66.2688	29.2969	67.4799	29.2969	66.6821	29.2969	68.2481	29.2969	67.5596	29.2969	69.2841	29.2969	68.7581	29.2969	70.4529	29.2969	70.0837	29.2969	71.6342	29.2969	71.3893	29.2969	72.7458	29.2969	72.5896	29.2969	73.737	29.2969	73.6407	29.2969	74.5775	29.2969	74.52	29.2969	75.248	29.2969	75.215	29.2969	75.7353	29.2969	75.7177	29.2969	76.0303	29.2969	76.0227	29.2969	76.127
30.7617	70.8151	30.7617	70.8386	30.7617	70.7359	30.7617	70.8107	30.7617	70.6108	30.7617	70.7501	30.7617	70.4657	30.7617	70.6917	30.7617	70.3457	30.7617	70.6865	30.7617	70.3144	30.7617	70.7965	30.7617	70.444	30.7617	71.0788	30.7617	70.7914	30.7617	71.5626	30.7617	71.3697	30.7617	72.2333	30.7617	72.1398	30.7617	73.0379	30.7617	73.0277	30.7617	73.9062	30.7617	73.9539	30.7617	74.7708	30.7617	74.851	30.7617	75.5771	30.7617	75.6693	30.7617	76.2847	30.7617	76.3736	30.7617	76.8648	30.7617	76.9396	30.7617	77.297	30.7617	77.3506	30.7617	77.5676	30.7617	77.5955	30.7617	77.6682
32.2266	72.7968	32.2266	72.7985	32.2266	72.7207	32.2266	72.7298	32.2266	72.5773	32.2266	72.6059	32.2266	72.3865	32.2266	72.4564	32.2266	72.1846	32.2266	72.3279	32.2266	72.0285	32.2266	72.2839	32.2266	71.9923	32.2266	72.3949	32.2266	72.1508	32.2266	72.7141	32.2266	72.5488	32.2266	73.2519	32.2266	73.1753	32.2266	73.9679	32.2266	73.9679	32.2266	74.7887	32.2266	74.8414	32.2266	75.6355	32.2266	75.7159	32.2266	76.4415	32.2266	76.5296	32.2266	77.1569	32.2266	77.2388	32.2266	77.7465	32.2266	77.8135	32.2266	78.1866	32.2266	78.2335	32.2266	78.4615	32.2266	78.4855	32.2266	78.5622
33.6914	74.0725	33.6914	74.083	33.6914	74.0006	33.6914	74.0361	33.6914	73.8748	33.6914	73.9485	33.6914	73.7165	33.6914	73.8503	33.6914	73.5633	33.6914	73.7873	33.6914	73.471	33.6914	73.8177	33.6914	73.5074	33.6914	74.0001	33.6914	73.7349	33.6914	74.3734	33.6914	74.1832	33.6914	74.9376	33.6914	74.8329	33.6914	75.6516	33.6914	75.6232	33.6914	76.4503	33.6914	76.4776	33.6914	77.2651	33.6914	77.3252	33.6914	78.0374	33.6914	78.1109	33.6914	78.7225	33.6914	78.7947	33.6914	79.2876	33.6914	79.3487	33.6914	79.7099	33.6914	79.7537	33.6914	79.974	33.6914	79.9967	33.6914	80.0708
35.1562	76.2347	35.1562	76.1991	35.1562	76.2097	35.1562	76.1033	35.1562	76.1337	35.1562	75.9588	35.1562	76.0279	35.1562	75.7907	35.1562	75.926	35.1562	75.6407	35.1562	75.8748	35.1562	75.5674	35.1562	75.9291	35.1562	75.638	35.1562	76.1387	35.1562	75.9081	35.1562	76.5298	35.1562	76.395	35.1562	77.0919	35.1562	77.0667	35.1562	77.7807	35.1562	77.8557	35.1562	78.5347	35.1562	78.6844	35.1562	79.2919	35.1562	79.4845	35.1562	79.9999	35.1562	80.2041	35.1562	80.6182	35.1562	80.8066	35.1562	81.1164	35.1562	81.2671	35.1562	81.4727	35.1562	81.5696	35.1562	81.6721	35.1562	81.7055
36.6211	77.044	36.6211	77.0136	36.6211	77.0407	36.6211	76.9541	36.6211	77.0093	36.6211	76.8805	36.6211	76.9651	36.6211	76.8192	36.6211	76.934	36.6211	76.8074	36.6211	76.9512	36.6211	76.8892	36.6211	77.0573	36.6211	77.105	36.6211	77.2886	36.6211	77.4782	36.6211	77.6655	36.6211	78.0037	36.6211	78.1826	36.6211	78.6482	36.6211	78.8094	36.6211	79.3607	36.6211	79.4991	36.6211	80.0866	36.6211	80.2007	36.6211	80.7766	36.6211	80.8674	36.6211	81.3911	36.6211	81.4604	36.6211	81.8996	36.6211	81.9495	36.6211	82.28	36.6211	82.3123	36.6211	82.5172	36.6211	82.533	36.6211	82.6024
38.0859	78.6762	38.0859	78.6367	38.0859	78.6933	38.0859	78.5811	38.0859	78.6908	38.0859	78.5249	38.0859	78.6803	38.0859	78.4932	38.0859	78.682	38.0859	78.5187	38.0859	78.7234	38.0859	78.6371	38.0859	78.8364	38.0859	78.8782	38.0859	79.0504	38.0859	79.2555	38.0859	79.3834	38.0859	79.7595	38.0859	79.8354	38.0859	80.3601	38.0859	80.3861	38.0859	81.014	38.0859	81	38.0859	81.6753	38.0859	81.6345	38.0859	82.3017	38.0859	82.2475	38.0859	82.858	38.0859	82.8019	38.0859	83.3161	38.0859	83.2671	38.0859	83.655	38.0859	83.6193	38.0859	83.8602	38.0859	83.8414	38.0859	83.9231
39.5508	80.0645	39.5508	80.0827	39.5508	80.0251	39.5508	80.0834	39.5508	79.9689	39.5508	80.0779	39.5508	79.9084	39.5508	80.0852	39.5508	79.8647	39.5508	80.1305	39.5508	79.8667	39.5508	80.2422	39.5508	79.9474	39.5508	80.4469	39.5508	80.1372	39.5508	80.761	39.5508	80.4548	39.5508	81.1848	39.5508	80.8987	39.5508	81.7008	39.5508	81.4466	39.5508	82.2768	39.5508	82.0607	39.5508	82.8735	39.5508	82.6965	39.5508	83.4507	39.5508	83.3108	39.5508	83.972	39.5508	83.8658	39.5508	84.407	39.5508	84.3309	39.5508	84.7318	39.5508	84.6828	39.5508	84.929	39.5508	84.9051	39.5508	84.9881
41.0156	81.8137	41.0156	81.8074	41.0156	81.8048	41.0156	81.7889	41.0156	81.7841	41.0156	81.7676	41.0156	81.7612	41.0156	81.7592	41.0156	81.7525	41.0156	81.7849	41.0156	81.7794	41.0156	81.8689	41.0156	81.8667	41.0156	82.0345	41.0156	82.0377	41.0156	82.2976	41.0156	82.3079	41.0156	82.6615	41.0156	82.6795	41.0156	83.1138	41.0156	83.1387	41.0156	83.6286	41.0156	83.6583	41.0156	84.1712	41.0156	84.203	41.0156	84.7044	41.0156	84.7354	41.0156	85.1929	41.0156	85.2207	41.0156	85.6065	41.0156	85.6289	41.0156	85.9208	41.0156	85.9365	41.0156	86.1181	41.0156	86.1262	41.0156	86.1879
42.4805	83.0942	42.4805	83.0904	42.4805	83.09	42.4805	83.0818	42.4805	83.0804	42.4805	83.0769	42.4805	83.0733	42.4805	83.0896	42.4805	83.0823	42.4805	83.1378	42.4805	83.1254	42.4805	83.2418	42.4805	83.2232	42.4805	83.4201	42.4805	83.3949	42.4805	83.6847	42.4805	83.6538	42.4805	84.0371	42.4805	84.0021	42.4805	84.466	42.4805	84.4291	42.4805	84.9484	42.4805	84.912	42.4805	85.4541	42.4805	85.4201	42.4805	85.9497	42.4805	85.9198	42.4805	86.4033	42.4805	86.3785	42.4805	86.7864	42.4805	86.7675	42.4805	87.0761	42.4805	87.0634	42.4805	87.2556	42.4805	87.2492	42.4805	87.3144
43.9453	84.5419	43.9453	84.5462	43.9453	84.5288	43.9453	84.544	43.9453	84.5097	43.9453	84.5423	43.9453	84.4924	43.9453	84.5531	43.9453	84.4894	43.9453	84.5927	43.9453	84.5175	43.9453	84.6795	43.9453	84.5957	43.9453	84.8316	43.9453	84.7422	43.9453	85.062	43.9453	84.9703	43.9453	85.3746	43.9453	85.2834	43.9453	85.7611	43.9453	85.6734	43.9453	86.202	43.9453	86.1201	43.9453	86.6693	43.9453	86.5955	43.9453	87.1312	43.9453	87.0674	43.9453	87.5564	43.9453	87.5041	43.9453	87.9168	43.9453	87.8771	43.9453	88.1895	43.9453	88.1628	43.9453	88.3574	43.9453	88.344	43.9453	88.4101
45.4102	85.646	45.4102	85.6618	45.4102	85.6335	45.4102	85.6825	45.4102	85.6267	45.4102	85.7139	45.4102	85.6321	45.4102	85.7651	45.4102	85.66	45.4102	85.8483	45.4102	85.7238	45.4102	85.9765	45.4102	85.8376	45.4102	86.1614	45.4102	86.0144	45.4102	86.4105	45.4102	86.2624	45.4102	86.7242	45.4102	86.5818	45.4102	87.0943	45.4102	86.9636	45.4102	87.5048	45.4102	87.3901	45.4102	87.933	45.4102	87.8368	45.4102	88.3534	45.4102	88.2762	45.4102	88.7396	45.4102	88.6808	45.4102	89.0673	45.4102	89.0253	45.4102	89.3157	45.4102	89.2889	45.4102	89.4689	45.4102	89.4559	45.4102	89.5169
46.875	87.0276	46.875	87.0374	46.875	87.0192	46.875	87.0496	46.875	87.0142	46.875	87.069	46.875	87.0183	46.875	87.1033	46.875	87.0399	46.875	87.1627	46.875	87.09	46.875	87.2587	46.875	87.181	46.875	87.4024	46.875	87.3241	46.875	87.6018	46.875	87.5273	46.875	87.8597	46.875	87.7927	46.875	88.1714	46.875	88.1146	46.875	88.5247	46.875	88.4795	46.875	88.9007	46.875	88.8672	46.875	89.2765	46.875	89.2535	46.875	89.6273	46.875	89.6129	46.875	89.9292	46.875	89.9212	46.875	90.1614	46.875	90.1575	46.875	90.3075	46.875	90.3061	46.875	90.357
48.3398	88.1907	48.3398	88.1989	48.3398	88.1853	48.3398	88.2111	48.3398	88.1844	48.3398	88.2315	48.3398	88.1927	48.3398	88.2669	48.3398	88.2173	48.3398	88.3262	48.3398	88.2677	48.3398	88.4194	48.3398	88.3542	48.3398	88.5561	48.3398	88.4869	48.3398	88.7434	48.3398	88.6729	48.3398	88.9837	48.3398	88.9146	48.3398	89.2731	48.3398	89.2081	48.3398	89.6009	48.3398	89.5422	48.3398	89.9505	48.3398	89.8995	48.3398	90.3006	48.3398	90.2584	48.3398	90.6282	48.3398	90.595	48.3398	90.9105	48.3398	90.8862	48.3398	91.1274	48.3398	91.1115	48.3398	91.2628	48.3398	91.255	48.3398	91.3065
51.2695	90.0936	51.2695	90.1059	51.2695	90.0843	51.2695	90.1215	51.2695	90.0797	51.2695	90.1435	51.2695	90.0843	51.2695	90.177	51.2695	90.1044	51.2695	90.2292	51.2695	90.1486	51.2695	90.3087	51.2695	90.226	51.2695	90.4243	51.2695	90.3457	51.2695	90.5833	51.2695	90.5146	51.2695	90.7899	51.2695	90.7356	51.2695	91.0432	51.2695	91.0057	51.2695	91.3358	51.2695	91.3153	51.2695	91.6541	51.2695	91.6484	51.2695	91.9791	51.2695	91.9844	51.2695	92.2885	51.2695	92.3003	51.2695	92.5597	51.2695	92.5732	51.2695	92.7716	51.2695	92.783	51.2695	92.9076	51.2695	92.9139	51.2695	92.9564
52.7344	90.5533	52.7344	90.5563	52.7344	90.5705	52.7344	90.5801	52.7344	90.609	52.7344	90.6272	52.7344	90.6718	52.7344	90.7019	52.7344	90.7632	52.7344	90.8094	52.7344	90.8884	52.7344	90.9553	52.7344	91.0526	52.7344	91.1444	52.7344	91.2593	52.7344	91.3793	52.7344	91.5096	52.7344	91.6587	52.7344	91.8006	52.7344	91.9769	52.7344	92.1248	52.7344	92.3231	52.7344	92.4702	52.7344	92.6818	52.7344	92.8211	52.7344	93.0346	52.7344	93.1594	52.7344	93.3614	52.7344	93.4664	52.7344	93.6426	52.7344	93.724	52.7344	93.8612	52.7344	93.9165	52.7344	94.0037	52.7344	94.0316	52.7344	94.0615
54.1992	91.6956	54.1992	91.6884	54.1992	91.7206	54.1992	91.7001	54.1992	91.7636	54.1992	91.7327	54.1992	91.8253	54.1992	91.789	54.1992	91.9076	54.1992	91.8723	54.1992	92.0124	54.1992	91.9862	54.1992	92.142	54.1992	92.1333	54.1992	92.2982	54.1992	92.315	54.1992	92.4814	54.1992	92.5302	54.1992	92.6904	54.1992	92.7747	54.1992	92.9218	54.1992	93.0407	54.1992	93.1693	54.1992	93.3172	54.1992	93.4239	54.1992	93.5902	54.1992	93.674	54.1992	93.8441	54.1992	93.9062	54.1992	94.0631	54.1992	94.1058	54.1992	94.2328	54.1992	94.2591	54.1992	94.3418	54.1992	94.3542	54.1992	94.3829
55.6641	92.5803	55.6641	92.5946	55.6641	92.5792	55.6641	92.6225	55.6641	92.5918	55.6641	92.6653	55.6641	92.6196	55.6641	92.7252	55.6641	92.6647	55.6641	92.8047	55.6641	92.7302	55.6641	92.9069	55.6641	92.8193	55.6641	93.0343	55.6641	92.935	55.6641	93.1886	55.6641	93.0798	55.6641	93.3698	55.6641	93.2543	55.6641	93.5754	55.6641	93.4568	55.6641	93.7999	55.6641	93.6825	55.6641	94.0343	55.6641	93.9229	55.6641	94.2669	55.6641	94.1662	55.6641	94.4838	55.6641	94.398	55.6641	94.6702	55.6641	94.6029	55.6641	94.8119	55.6641	94.7656	55.6641	94.8972	55.6641	94.8736	55.6641	94.9186
58.5938	93.7848	58.5938	93.7975	58.5938	93.7876	58.5938	93.8258	58.5938	93.8061	58.5938	93.8699	58.5938	93.8413	58.5938	93.9308	58.5938	93.894	58.5938	94.0094	58.5938	93.9657	58.5938	94.1069	58.5938	94.0577	58.5938	94.2242	58.5938	94.1715	58.5938	94.3621	58.5938	94.3078	58.5938	94.5203	58.5938	94.4665	58.5938	94.6968	58.5938	94.6455	58.5938	94.8879	58.5938	94.8409	58.5938	95.0872	58.5938	95.0459	58.5938	95.2858	58.5938	95.2511	58.5938	95.4726	58.5938	95.445	58.5938	95.6352	58.5938	95.6148	58.5938	95.7614	58.5938	95.7479	58.5938	95.8405	58.5938	95.8338	58.5938	95.8655
60.0586	94.2558	60.0586	94.2678	60.0586	94.2602	60.0586	94.296	60.0586	94.2812	60.0586	94.3406	60.0586	94.3191	60.0586	94.4019	60.0586	94.3744	60.0586	94.4803	60.0586	94.448	60.0586	94.5762	60.0586	94.5404	60.0586	94.6902	60.0586	94.6522	60.0586	94.8223	60.0586	94.7836	60.0586	94.9719	60.0586	94.9341	60.0586	95.1374	60.0586	95.1017	60.0586	95.3153	60.0586	95.2828	60.0586	95.5	60.0586	95.4717	60.0586	95.6836	60.0586	95.6599	60.0586	95.8562	60.0586	95.8374	60.0586	96.0066	60.0586	95.9927	60.0586	96.1235	60.0586	96.1143	60.0586	96.1972	60.0586	96.1926	60.0586	96.221
62.9883	94.9641	62.9883	94.9764	62.9883	94.9697	62.9883	95.0063	62.9883	94.9932	62.9883	95.0534	62.9883	95.0344	62.9883	95.117	62.9883	95.0929	62.9883	95.1966	62.9883	95.1684	62.9883	95.2914	62.9883	95.2602	62.9883	95.4006	62.9883	95.3677	62.9883	95.5235	62.9883	95.4902	62.9883	95.6588	62.9883	95.6263	62.9883	95.8047	62.9883	95.7742	62.9883	95.9586	62.9883	95.9309	62.9883	96.116	62.9883	96.0918	62.9883	96.2709	62.9883	96.2507	62.9883	96.4157	62.9883	96.3996	62.9883	96.5415	62.9883	96.5295	62.9883	96.6391	62.9883	96.6312	62.9883	96.7006	62.9883	96.6967	62.9883	96.7205
64.4531	95.2208	64.4531	95.2318	64.4531	95.2284	64.4531	95.2609	64.4531	95.2543	64.4531	95.3077	64.4531	95.2981	64.4531	95.3711	64.4531	95.3591	64.4531	95.4501	64.4531	95.4363	64.4531	95.5434	64.4531	95.5286	64.4531	95.6497	64.4531	95.6347	64.4531	95.7678	64.4531	95.7532	64.4531	95.896	64.4531	95.8827	64.4531	96.0325	64.4531	96.021	64.4531	96.1747	64.4531	96.1653	64.4531	96.3188	64.4531	96.3116	64.4531	96.4598	64.4531	96.4546	64.4531	96.5912	64.4531	96.5876	64.4531	96.7051	64.4531	96.7029	64.4531	96.7939	64.4531	96.7926	64.4531	96.8503	64.4531	96.8498	64.4531	96.8696
67.3828	95.5844	67.3828	95.5899	67.3828	95.5976	67.3828	95.6139	67.3828	95.629	67.3828	95.6555	67.3828	95.6774	67.3828	95.7133	67.3828	95.7411	67.3828	95.7855	67.3828	95.8182	67.3828	95.8701	67.3828	95.9064	67.3828	95.965	67.3828	96.0033	67.3828	96.0679	67.3828	96.1069	67.3828	96.177	67.3828	96.215	67.3828	96.2902	67.3828	96.3258	67.3828	96.4055	67.3828	96.4373	67.3828	96.5201	67.3828	96.5473	67.3828	96.6306	67.3828	96.6527	67.3828	96.7326	67.3828	96.7495	67.3828	96.8209	67.3828	96.8328	67.3828	96.8897	67.3828	96.8972	67.3828	96.9341	67.3828	96.9377	67.3828	96.9504
68.8477	95.7276	68.8477	95.7372	68.8477	95.7369	68.8477	95.7657	68.8477	95.7648	68.8477	95.8117	68.8477	95.8099	68.8477	95.8736	68.8477	95.8704	68.8477	95.9491	68.8477	95.944	68.8477	96.0357	68.8477	96.028	68.8477	96.1307	68.8477	96.1198	68.8477	96.2315	68.8477	96.217	68.8477	96.3358	68.8477	96.3176	68.8477	96.4414	68.8477	96.4198	68.8477	96.5463	68.8477	96.5219	68.8477	96.6483	68.8477	96.6222	68.8477	96.7445	68.8477	96.7185	68.8477	96.8316	68.8477	96.8074	68.8477	96.9053	68.8477	96.885	68.8477	96.9612	68.8477	96.9465	68.8477	96.995	68.8477	96.9873	68.8477	97.004
71.7773	95.8273	71.7773	95.8392	71.7773	95.8353	71.7773	95.8706	71.7773	95.8628	71.7773	95.9199	71.7773	95.9083	71.7773	95.9849	71.7773	95.9693	71.7773	96.0624	71.7773	96.043	71.7773	96.149	71.7773	96.126	71.7773	96.2414	71.7773	96.2151	71.7773	96.3363	71.7773	96.3071	71.7773	96.4308	71.7773	96.3995	71.7773	96.5227	71.7773	96.4902	71.7773	96.6103	71.7773	96.5777	71.7773	96.6921	71.7773	96.6607	71.7773	96.7668	71.7773	96.7379	71.7773	96.8325	71.7773	96.8075	71.7773	96.8871	71.7773	96.8673	71.7773	96.928	71.7773	96.9141	71.7773	96.9523	71.7773	96.9452	71.7773	96.9583
74.707	95.8253	74.707	95.8363	74.707	95.8346	74.707	95.867	74.707	95.8636	74.707	95.9157	74.707	95.9105	74.707	95.9796	74.707	95.9725	74.707	96.0553	74.707	96.0461	74.707	96.1388	74.707	96.1275	74.707	96.2261	74.707	96.2127	74.707	96.3134	74.707	96.298	74.707	96.3975	74.707	96.3805	74.707	96.4761	74.707	96.4578	74.707	96.5476	74.707	96.5287	74.707	96.6111	74.707	96.5923	74.707	96.6663	74.707	96.6485	74.707	96.7128	74.707	96.697	74.707	96.7501	74.707	96.7372	74.707	96.7773	74.707	96.7682	74.707	96.7932	74.707	96.7885	74.707	96.797
77.6367	95.7966	77.6367	95.8084	77.6367	95.8058	77.6367	95.8403	77.6367	95.8351	77.6367	95.8905	77.6367	95.8825	77.6367	95.9558	77.6367	95.945	77.6367	96.0323	77.6367	96.0185	77.6367	96.1155	77.6367	96.0985	77.6367	96.2006	77.6367	96.1807	77.6367	96.2834	77.6367	96.2608	77.6367	96.3602	77.6367	96.3353	77.6367	96.4283	77.6367	96.4018	77.6367	96.4861	77.6367	96.4589	77.6367	96.5333	77.6367	96.5065	77.6367	96.5702	77.6367	96.5451	77.6367	96.598	77.6367	96.5758	77.6367	96.6177	77.6367	96.5998	77.6367	96.6303	77.6367	96.6177	77.6367	96.6363	77.6367	96.6298	77.6367	96.6361
79.1016	95.8136	79.1016	95.8251	79.1016	95.8229	79.1016	95.8568	79.1016	95.8522	79.1016	95.9065	79.1016	95.8995	79.1016	95.971	79.1016	95.9614	79.1016	96.0461	79.1016	96.0339	79.1016	96.1271	79.1016	96.1122	79.1016	96.2092	79.1016	96.1917	79.1016	96.2877	79.1016	96.2679	79.1016	96.3588	79.1016	96.3371	79.1016	96.4199	79.1016	96.3969	79.1016	96.4693	79.1016	96.4459	79.1016	96.507	79.1016	96.4841	79.1016	96.5339	79.1016	96.5127	79.1016	96.5518	79.1016	96.5332	79.1016	96.5627	79.1016	96.5477	79.1016	96.5682	79.1016	96.5577	79.1016	96.57	79.1016	96.5645	79.1016	96.5686
82.0312	95.7718	82.0312	95.7814	82.0312	95.7836	82.0312	95.8116	82.0312	95.8158	82.0312	95.8605	82.0312	95.8662	82.0312	95.9244	82.0312	95.9311	82.0312	95.999	82.0312	96.0058	82.0312	96.079	82.0312	96.0853	82.0312	96.1591	82.0312	96.1643	82.0312	96.2344	82.0312	96.2378	82.0312	96.3005	82.0312	96.3018	82.0312	96.3544	82.0312	96.3535	82.0312	96.3945	82.0312	96.3915	82.0312	96.4209	82.0312	96.4162	82.0312	96.4352	82.0312	96.4294	82.0312	96.4401	82.0312	96.4339	82.0312	96.4389	82.0312	96.4331	82.0312	96.4348	82.0312	96.4304	82.0312	96.4306	82.0312	96.4282	82.0312	96.4282
84.9609	95.7093	84.9609	95.7147	84.9609	95.7255	84.9609	95.7412	84.9609	95.7623	84.9609	95.7868	84.9609	95.817	84.9609	95.8479	84.9609	95.8857	84.9609	95.9198	84.9609	95.9635	84.9609	95.9973	84.9609	96.0448	84.9609	96.0746	84.9609	96.1238	84.9609	96.1465	84.9609	96.1953	84.9609	96.2084	84.9609	96.2549	84.9609	96.2568	84.9609	96.2995	84.9609	96.2901	84.9609	96.3279	84.9609	96.3085	84.9609	96.3404	84.9609	96.3139	84.9609	96.3397	84.9609	96.3097	84.9609	96.3295	84.9609	96.3003	84.9609	96.3144	84.9609	96.2901	84.9609	96.2991	84.9609	96.2831	84.9609	96.2874	84.9609	96.2819
87.8906	95.6904	87.8906	95.697	87.8906	95.7048	87.8906	95.7239	87.8906	95.7391	87.8906	95.769	87.8906	95.791	87.8906	95.8289	87.8906	95.8567	87.8906	95.8989	87.8906	95.9314	87.8906	95.9738	87.8906	96.0097	87.8906	96.0479	87.8906	96.0859	87.8906	96.116	87.8906	96.1549	87.8906	96.1733	87.8906	96.2119	87.8906	96.2167	87.8906	96.254	87.8906	96.2444	87.8906	96.2795	87.8906	96.2569	87.8906	96.2889	87.8906	96.2563	87.8906	96.2845	87.8906	96.2465	87.8906	96.2702	87.8906	96.2323	87.8906	96.2509	87.8906	96.2188	87.8906	96.2316	87.8906	96.2102	87.8906	96.2167	87.8906	96.2092
90.8203	95.8081	90.8203	95.8149	90.8203	95.8215	90.8203	95.8412	90.8203	95.8539	90.8203	95.885	90.8203	95.9031	90.8203	95.9427	90.8203	95.9653	90.8203	96.0099	90.8203	96.0356	90.8203	96.0811	90.8203	96.1088	90.8203	96.1505	90.8203	96.179	90.8203	96.2128	90.8203	96.2408	90.8203	96.2629	90.8203	96.2898	90.8203	96.2975	90.8203	96.3225	90.8203	96.3149	90.8203	96.3375	90.8203	96.3154	90.8203	96.3354	90.8203	96.3018	90.8203	96.3189	90.8203	96.2785	90.8203	96.2926	90.8203	96.2515	90.8203	96.2624	90.8203	96.2271	90.8203	96.2346	90.8203	96.2107	90.8203	96.2145	90.8203	96.2061
95.2148	95.7762	95.2148	95.7822	95.2148	95.7888	95.2148	95.8062	95.2148	95.8188	95.2148	95.8461	95.2148	95.8639	95.2148	95.8984	95.2148	95.9202	95.2148	95.9584	95.2148	95.9828	95.2148	96.0205	95.2148	96.046	95.2148	96.0787	95.2148	96.1036	95.2148	96.1272	95.2148	96.1501	95.2148	96.1607	95.2148	96.1803	95.2148	96.1756	95.2148	96.191	95.2148	96.17	95.2148	96.1809	95.2148	96.1447	95.2148	96.1511	95.2148	96.1031	95.2148	96.1057	95.2148	96.0513	95.2148	96.051	95.2148	95.9974	95.2148	95.9954	95.2148	95.95	95.2148	95.9478	95.2148	95.9173	95.2148	95.9159	95.2148	95.9052
98.1445	95.7221	98.1445	95.7284	98.1445	95.734	98.1445	95.7523	98.1445	95.7631	98.1445	95.7917	98.1445	95.807	98.1445	95.8431	98.1445	95.862	98.1445	95.9017	98.1445	95.9231	98.1445	95.962	98.1445	95.9844	98.1445	96.0176	98.1445	96.04	98.1445	96.0626	98.1445	96.0836	98.1445	96.0916	98.1445	96.1101	98.1445	96.1005	98.1445	96.1159	98.1445	96.0875	98.1445	96.0993	98.1445	96.0535	98.1445	96.0617	98.1445	96.0023	98.1445	96.0072	98.1445	95.9406	98.1445	95.9429	98.1445	95.8773	98.1445	95.8778	98.1445	95.8223	98.1445	95.8219	98.1445	95.7847	98.1445	95.7844	98.1445	95.7713
101.074	95.7047	101.074	95.7094	101.074	95.7166	101.074	95.7303	101.074	95.7444	101.074	95.7654	101.074	95.7855	101.074	95.8112	101.074	95.8365	101.074	95.8633	101.074	95.8925	101.074	95.9161	101.074	95.9478	101.074	95.9636	101.074	95.9962	101.074	95.9996	101.074	96.0316	101.074	96.0189	101.074	96.0488	101.074	96.0173	101.074	96.0441	101.074	95.9931	101.074	96.0159	101.074	95.9474	101.074	95.9657	101.074	95.8842	101.074	95.898	101.074	95.8109	101.074	95.8205	101.074	95.7372	101.074	95.7433	101.074	95.6741	101.074	95.6775	101.074	95.6316	101.074	95.6331	101.074	95.617
105.469	95.7041	105.469	95.706	105.469	95.7171	105.469	95.7223	105.469	95.7442	105.469	95.7511	105.469	95.7829	105.469	95.7892	105.469	95.8298	105.469	95.8321	105.469	95.88	105.469	95.8743	105.469	95.9278	105.469	95.9097	105.469	95.9668	105.469	95.9323	105.469	95.9909	105.469	95.9365	105.469	95.9948	105.469	95.9186	105.469	95.9746	105.469	95.877	105.469	95.929	105.469	95.8132	105.469	95.8598	105.469	95.7321	105.469	95.7723	105.469	95.6421	105.469	95.675	105.469	95.5543	105.469	95.5793	105.469	95.4808	105.469	95.4976	105.469	95.4331	105.469	95.4415	105.469	95.419
108.398	95.6313	108.398	95.635	108.398	95.6424	108.398	95.653	108.398	95.6675	108.398	95.6835	108.398	95.7046	108.398	95.7232	108.398	95.7502	108.398	95.7678	108.398	95.7997	108.398	95.8119	108.398	95.8475	108.398	95.8492	108.398	95.8875	108.398	95.8737	108.398	95.9134	108.398	95.8798	108.398	95.9196	108.398	95.8635	108.398	95.9023	108.398	95.8229	108.398	95.8596	108.398	95.7597	108.398	95.7933	108.398	95.6785	108.398	95.7081	108.398	95.588	108.398	95.6126	108.398	95.4991	108.398	95.5183	108.398	95.4245	108.398	95.4375	108.398	95.3756	108.398	95.3822	108.398	95.3605
112.793	95.5515	112.793	95.5606	112.793	95.5561	112.793	95.5827	112.793	95.5739	112.793	95.6161	112.793	95.6032	112.793	95.6577	112.793	95.6411	112.793	95.7034	112.793	95.6836	112.793	95.7479	112.793	95.7256	112.793	95.7853	112.793	95.7609	112.793	95.8094	112.793	95.7836	112.793	95.8146	112.793	95.7881	112.793	95.7967	112.793	95.77	112.793	95.754	112.793	95.7277	112.793	95.6875	112.793	95.6624	112.793	95.6021	112.793	95.579	112.793	95.5062	112.793	95.486	112.793	95.4112	112.793	95.3948	112.793	95.3298	112.793	95.3182	112.793	95.2739	112.793	95.2679	112.793	95.2522
117.188	95.4558	117.188	95.4605	117.188	95.4617	117.188	95.4752	117.188	95.478	117.188	95.4984	117.188	95.5032	117.188	95.5275	117.188	95.535	117.188	95.559	117.188	95.5695	117.188	95.5883	117.188	95.6018	117.188	95.6099	117.188	95.626	117.188	95.6182	117.188	95.6358	117.188	95.608	117.188	95.6257	117.188	95.5751	117.188	95.5911	117.188	95.5178	117.188	95.5304	117.188	95.4372	117.188	95.4451	117.188	95.3382	117.188	95.3409	117.188	95.2294	117.188	95.2275	117.188	95.1227	117.188	95.1179	117.188	95.0318	117.188	95.0265	117.188	94.9697	117.188	94.9663	117.188	94.9465
120.117	95.6104	120.117	95.6112	120.117	95.6176	120.117	95.6197	120.117	95.6323	120.117	95.635	120.117	95.6532	120.117	95.6549	120.117	95.6777	120.117	95.6762	120.117	95.7025	120.117	95.6945	120.117	95.723	120.117	95.7046	120.117	95.7338	120.117	95.7006	120.117	95.7289	120.117	95.6773	120.117	95.7032	120.117	95.6303	120.117	95.6527	120.117	95.558	120.117	95.5759	120.117	95.4619	120.117	95.4748	120.117	95.3474	120.117	95.3554	120.117	95.2241	120.117	95.2279	120.117	95.105	120.117	95.1058	120.117	95.0048	120.117	95.0041	120.117	94.9376	120.117	94.9368	120.117	94.9135
124.512	95.6783	124.512	95.6743	124.512	95.6924	124.512	95.6803	124.512	95.7161	124.512	95.6952	124.512	95.748	124.512	95.7169	124.512	95.7855	124.512	95.7421	124.512	95.8251	124.512	95.7665	124.512	95.8617	124.512	95.7845	124.512	95.8896	124.512	95.7901	124.512	95.9024	124.512	95.7777	124.512	95.8944	124.512	95.7428	124.512	95.8609	124.512	95.6834	124.512	95.8	124.512	95.6012	124.512	95.713	124.512	95.5019	124.512	95.605	124.512	95.395	124.512	95.4855	124.512	95.2936	124.512	95.3669	124.512	95.2118	124.512	95.2637	124.512	95.1624	124.512	95.1894	124.512	95.1541
128.906	95.6097	128.906	95.6139	128.906	95.6136	128.906	95.6256	128.906	95.6255	128.906	95.644	128.906	95.6443	128.906	95.6669	128.906	95.6684	128.906	95.6917	128.906	95.6947	128.906	95.7142	128.906	95.719	128.906	95.7293	128.906	95.736	128.906	95.7315	128.906	95.7398	128.906	95.7151	128.906	95.7249	128.906	95.6757	128.906	95.6869	128.906	95.6114	128.906	95.6237	128.906	95.5234	128.906	95.5368	128.906	95.4172	128.906	95.4313	128.906	95.3024	128.906	95.3165	128.906	95.1919	128.906	95.2047	128.906	95.1001	128.906	95.11	128.906	95.0401	128.906	95.0456	128.906	95.021
133.301	95.6666	133.301	95.6707	133.301	95.6672	133.301	95.679	133.301	95.6725	133.301	95.6904	133.301	95.6819	133.301	95.703	133.301	95.6936	133.301	95.7143	133.301	95.7051	133.301	95.7206	133.301	95.7121	133.301	95.7171	133.301	95.7095	133.301	95.6988	133.301	95.6917	133.301	95.6605	133.301	95.6533	133.301	95.5982	133.301	95.5901	133.301	95.5104	133.301	95.5007	133.301	95.3986	133.301	95.3873	133.301	95.2687	133.301	95.2562	133.301	95.131	133.301	95.1183	133.301	94.9992	133.301	94.9877	133.301	94.8889	133.301	94.8801	133.301	94.8146	133.301	94.8098	133.301	94.7869
139.16	95.5238	139.16	95.5299	139.16	95.525	139.16	95.5426	139.16	95.5337	139.16	95.5601	139.16	95.5492	139.16	95.5801	139.16	95.5697	139.16	95.5988	139.16	95.5917	139.16	95.6115	139.16	95.6103	139.16	95.6124	139.16	95.619	139.16	95.595	139.16	95.6107	139.16	95.5535	139.16	95.5783	139.16	95.4834	139.16	95.5165	139.16	95.3831	139.16	95.4227	139.16	95.255	139.16	95.2985	139.16	95.1064	139.16	95.1507	139.16	94.9498	139.16	94.9914	139.16	94.8016	139.16	94.837	139.16	94.6801	139.16	94.7059	139.16	94.6022	139.16	94.6158	139.16	94.5795
143.555	95.3066	143.555	95.3091	143.555	95.3084	143.555	95.3153	143.555	95.3151	143.555	95.3245	143.555	95.3268	143.555	95.3354	143.555	95.3429	143.555	95.346	143.555	95.3616	143.555	95.3527	143.555	95.3792	143.555	95.351	143.555	95.3903	143.555	95.3354	143.555	95.3883	143.555	95.3005	143.555	95.3662	143.555	95.2421	143.555	95.3182	143.555	95.1582	143.555	95.241	143.555	95.0508	143.555	95.1353	143.555	94.9261	143.555	95.0065	143.555	94.7946	143.555	94.8656	143.555	94.6703	143.555	94.7273	143.555	94.5691	143.555	94.6087	143.555	94.5055	143.555	94.5257	143.555	94.4898
147.949	95.5578	147.949	95.5661	147.949	95.5442	147.949	95.5686	147.949	95.526	147.949	95.5651	147.949	95.5042	147.949	95.5552	147.949	95.4798	147.949	95.5378	147.949	95.4529	147.949	95.5108	147.949	95.4224	147.949	95.4714	147.949	95.3861	147.949	95.4159	147.949	95.3405	147.949	95.3408	147.949	95.2816	147.949	95.2443	147.949	95.2059	147.949	95.1266	147.949	95.1117	147.949	94.9919	147.949	94.9999	147.949	94.8479	147.949	94.8749	147.949	94.7057	147.949	94.7447	147.949	94.5787	147.949	94.6204	147.949	94.4802	147.949	94.5149	147.949	94.421	147.949	94.4406	147.949	94.4076
153.809	95.6294	153.809	95.6344	153.809	95.6253	153.809	95.6402	153.809	95.6217	153.809	95.6462	153.809	95.6182	153.809	95.6511	153.809	95.6134	153.809	95.6526	153.809	95.605	153.809	95.6471	153.809	95.5897	153.809	95.6296	153.809	95.5628	153.809	95.5948	153.809	95.5194	153.809	95.5375	153.809	95.4552	153.809	95.4541	153.809	95.3673	153.809	95.3438	153.809	95.256	153.809	95.2101	153.809	95.1253	153.809	95.0606	153.809	94.9833	153.809	94.9074	153.809	94.8415	153.809	94.7648	153.809	94.7135	153.809	94.6476	153.809	94.6128	153.809	94.5683	153.809	94.5508	153.809	94.5351
159.668	95.2259	159.668	95.2252	159.668	95.2311	159.668	95.2294	159.668	95.2406	159.668	95.2382	159.668	95.2534	159.668	95.2503	159.668	95.2682	159.668	95.2627	159.668	95.2815	159.668	95.2701	159.668	95.2883	159.668	95.2652	159.668	95.2814	159.668	95.2396	159.668	95.2524	159.668	95.1851	159.668	95.1935	159.668	95.0955	159.668	95.0986	159.668	94.9687	159.668	94.9659	159.668	94.8078	159.668	94.7991	159.668	94.622	159.668	94.6086	159.668	94.4269	159.668	94.4104	159.668	94.242	159.668	94.2254	159.668	94.0886	159.668	94.0751	159.668	93.9859	159.668	93.9783	159.668	93.9473
165.527	94.9975	165.527	94.9959	165.527	94.9926	165.527	94.9885	165.527	94.9828	165.527	94.978	165.527	94.9715	165.527	94.9676	165.527	94.9626	165.527	94.9599	165.527	94.9587	165.527	94.9548	165.527	94.9598	165.527	94.949	165.527	94.9618	165.527	94.9353	165.527	94.9567	165.527	94.9043	165.527	94.9337	165.527	94.8463	165.527	94.8818	165.527	94.7541	165.527	94.7925	165.527	94.6255	165.527	94.6633	165.527	94.4653	165.527	94.4989	165.527	94.2862	165.527	94.3132	165.527	94.1084	165.527	94.1274	165.527	93.956	165.527	93.9676	165.527	93.8534	165.527	93.8587	165.527	93.8185
171.387	94.9588	171.387	94.9643	171.387	94.9307	171.387	94.948	171.387	94.8805	171.387	94.9114	171.387	94.81	171.387	94.8571	171.387	94.7221	171.387	94.7874	171.387	94.6208	171.387	94.7046	171.387	94.5102	171.387	94.6103	171.387	94.3951	171.387	94.5057	171.387	94.2794	171.387	94.3919	171.387	94.1665	171.387	94.27	171.387	94.0587	171.387	94.1419	171.387	93.9568	171.387	94.0108	171.387	93.8607	171.387	93.8815	171.387	93.7702	171.387	93.7603	171.387	93.686	171.387	93.6546	171.387	93.611	171.387	93.572	171.387	93.5503	171.387	93.519	171.387	93.5107	171.387	93.4988
177.246	94.7916	177.246	94.7818	177.246	94.7948	177.246	94.7671	177.246	94.7914	177.246	94.7509	177.246	94.7831	177.246	94.7369	177.246	94.7719	177.246	94.7275	177.246	94.7592	177.246	94.7232	177.246	94.7448	177.246	94.7211	177.246	94.7259	177.246	94.7159	177.246	94.698	177.246	94.7007	177.246	94.6559	177.246	94.6696	177.246	94.5959	177.246	94.6191	177.246	94.5177	177.246	94.5499	177.246	94.4255	177.246	94.4664	177.246	94.3276	177.246	94.3759	177.246	94.2356	177.246	94.2869	177.246	94.1607	177.246	94.2076	177.246	94.1117	177.246	94.145	177.246	94.0932	177.246	94.1053
183.105	95.0519	183.105	95.027	183.105	95.0539	183.105	94.9808	183.105	95.0337	183.105	94.9167	183.105	94.9937	183.105	94.8393	183.105	94.9378	183.105	94.7532	183.105	94.8707	183.105	94.662	183.105	94.796	183.105	94.5675	183.105	94.7164	183.105	94.4693	183.105	94.6321	183.105	94.3655	183.105	94.542	183.105	94.2543	183.105	94.4441	183.105	94.1357	183.105	94.337	183.105	94.0135	183.105	94.2215	183.105	93.8952	183.105	94.1014	183.105	93.7909	183.105	93.9828	183.105	93.7103	183.105	93.873	183.105	93.6605	183.105	93.7792	183.105	93.6442	183.105	93.7069	183.105	93.6607
188.965	95.1597	188.965	95.1498	188.965	95.1471	188.965	95.1182	188.965	95.1129	188.965	95.0674	188.965	95.0593	188.965	95.0007	188.965	94.9894	188.965	94.9216	188.965	94.9065	188.965	94.8329	188.965	94.813	188.965	94.7357	188.965	94.7104	188.965	94.6292	188.965	94.5992	188.965	94.5117	188.965	94.4791	188.965	94.3818	188.965	94.3503	188.965	94.2398	188.965	94.214	188.965	94.0899	188.965	94.0737	188.965	93.9396	188.965	93.9351	188.965	93.7995	188.965	93.8055	188.965	93.6804	188.965	93.693	188.965	93.5916	188.965	93.6048	188.965	93.5388	188.965	93.5471	188.965	93.5242
196.289	95.2235	196.289	95.2199	196.289	95.2031	196.289	95.1926	196.289	95.1608	196.289	95.1442	196.289	95.1006	196.289	95.0789	196.289	95.0274	196.289	95.0015	196.289	94.9459	196.289	94.9156	196.289	94.8587	196.289	94.8232	196.289	94.7663	196.289	94.7232	196.289	94.6661	196.289	94.6127	196.289	94.5548	196.289	94.4885	196.289	94.4296	196.289	94.3491	196.289	94.2907	196.289	94.197	196.289	94.1425	196.289	94.0398	196.289	93.9933	196.289	93.8891	196.289	93.854	196.289	93.7579	196.289	93.735	196.289	93.6573	196.289	93.6449	196.289	93.5944	196.289	93.5894	196.289	93.5719
203.613	94.9745	203.613	94.9597	203.613	94.9526	203.613	94.909	203.613	94.8966	203.613	94.8258	203.613	94.8113	203.613	94.7158	203.613	94.7033	203.613	94.5863	203.613	94.58	203.613	94.4448	203.613	94.4483	203.613	94.2982	203.613	94.3134	203.613	94.1521	203.613	94.1788	203.613	94.0104	203.613	94.046	203.613	93.8757	203.613	93.9157	203.613	93.7507	203.613	93.7894	203.613	93.638	203.613	93.6702	203.613	93.5408	203.613	93.563	203.613	93.4616	203.613	93.4733	203.613	93.4016	203.613	93.4049	203.613	93.3604	203.613	93.3592	203.613	93.3362	203.613	93.3343	203.613	93.3274
210.938	95.3232	210.938	95.3423	210.938	95.2686	210.938	95.3256	210.938	95.1802	210.938	95.2742	210.938	95.0615	210.938	95.1903	210.938	94.9174	210.938	95.0761	210.938	94.7536	210.938	94.9335	210.938	94.5756	210.938	94.7636	210.938	94.3881	210.938	94.5667	210.938	94.1947	210.938	94.3438	210.938	93.998	210.938	94.0986	210.938	93.8013	210.938	93.8397	210.938	93.6099	210.938	93.5822	210.938	93.4314	210.938	93.346	210.938	93.2741	210.938	93.151	210.938	93.1447	210.938	93.0108	210.938	93.0452	210.938	92.9278	210.938	92.9731	210.938	92.8938	210.938	92.924	210.938	92.8961
218.262	95.3627	218.262	95.3617	218.262	95.3346	218.262	95.3332	218.262	95.2773	218.262	95.2796	218.262	95.1923	218.262	95.204	218.262	95.0815	218.262	95.1087	218.262	94.9476	218.262	94.9954	218.262	94.7929	218.262	94.864	218.262	94.6192	218.262	94.713	218.262	94.4278	218.262	94.5404	218.262	94.2199	218.262	94.3447	218.262	93.9978	218.262	94.1275	218.262	93.7669	218.262	93.8946	218.262	93.5364	218.262	93.6574	218.262	93.3203	218.262	93.4313	218.262	93.1346	218.262	93.2323	218.262	92.9938	218.262	93.0724	218.262	92.906	218.262	92.958	218.262	92.8727	218.262	92.891
225.586	95.2518	225.586	95.2391	225.586	95.235	225.586	95.2001	225.586	95.1885	225.586	95.1401	225.586	95.1149	225.586	95.0657	225.586	95.0183	225.586	94.9822	225.586	94.9035	225.586	94.8923	225.586	94.7747	225.586	94.7953	225.586	94.6345	225.586	94.6877	225.586	94.4846	225.586	94.5648	225.586	94.3269	225.586	94.4239	225.586	94.1644	225.586	94.2662	225.586	94.0021	225.586	94.0979	225.586	93.8477	225.586	93.9301	225.586	93.7097	225.586	93.7755	225.586	93.5959	225.586	93.6452	225.586	93.5116	225.586	93.5458	225.586	93.4586	225.586	93.4789	225.586	93.4361	225.586	93.4428
232.91	95.007	232.91	94.9751	232.91	94.9933	232.91	94.9002	232.91	94.9358	232.91	94.789	232.91	94.84	232.91	94.652	232.91	94.7133	232.91	94.5006	232.91	94.5634	232.91	94.3452	232.91	94.3966	232.91	94.1925	232.91	94.2166	232.91	94.0446	232.91	94.0254	232.91	93.8995	232.91	93.8252	232.91	93.7542	232.91	93.6209	232.91	93.6077	232.91	93.4221	232.91	93.4635	232.91	93.2427	232.91	93.3288	232.91	93.0971	232.91	93.212	232.91	92.9956	232.91	93.1186	232.91	92.9398	232.91	93.0485	232.91	92.9226	232.91	92.9971	232.91	92.9325	232.91	92.9589
241.699	95.4431	241.699	95.4191	241.699	95.412	241.699	95.3436	241.699	95.3267	241.699	95.2241	241.699	95.1925	241.699	95.0708	241.699	95.0186	241.699	94.8958	241.699	94.8164	241.699	94.7103	241.699	94.597	241.699	94.5229	241.699	94.3684	241.699	94.3376	241.699	94.1341	241.699	94.1533	241.699	93.895	241.699	93.9663	241.699	93.6523	241.699	93.7732	241.699	93.412	241.699	93.5757	241.699	93.1865	241.699	93.3816	241.699	92.9931	241.699	93.2026	241.699	92.8478	241.699	93.0501	241.699	92.7591	241.699	92.9291	241.699	92.7243	241.699	92.8381	241.699	92.7328	241.699	92.7729
250.488	94.9726	250.488	94.8997	250.488	94.9831	250.488	94.7713	250.488	94.9286	250.488	94.5978	250.488	94.8114	250.488	94.392	250.488	94.6385	250.488	94.1674	250.488	94.4212	250.488	93.9365	250.488	94.1747	250.488	93.7088	250.488	93.915	250.488	93.4908	250.488	93.6565	250.488	93.2864	250.488	93.4084	250.488	93.0968	250.488	93.174	250.488	92.9225	250.488	92.953	250.488	92.7631	250.488	92.7464	250.488	92.6184	250.488	92.5596	250.488	92.4894	250.488	92.4025	250.488	92.3788	250.488	92.2853	250.488	92.2899	250.488	92.2126	250.488	92.2258	250.488	92.1825	250.488	92.1888
259.277	95.5405	259.277	95.5018	259.277	95.509	259.277	95.3931	259.277	95.4111	259.277	95.2195	259.277	95.2537	259.277	94.9915	259.277	95.0461	259.277	94.7237	259.277	94.7987	259.277	94.433	259.277	94.5227	259.277	94.1354	259.277	94.2285	259.277	93.8432	259.277	93.9262	259.277	93.5646	259.277	93.6256	259.277	93.3052	259.277	93.3372	259.277	93.0717	259.277	93.0723	259.277	92.8726	259.277	92.8428	259.277	92.716	259.277	92.6592	259.277	92.6044	259.277	92.5277	259.277	92.5323	259.277	92.4488	259.277	92.4872	259.277	92.4152	259.277	92.456	259.277	92.4141	259.277	92.4311
268.066	95.9285	268.066	95.8832	268.066	95.9107	268.066	95.7776	268.066	95.8324	268.066	95.6204	268.066	95.7005	268.066	95.4256	268.066	95.5255	268.066	95.2112	268.066	95.3211	268.066	94.9945	268.066	95.1024	268.066	94.7877	268.066	94.8837	268.066	94.5932	268.066	94.6748	268.066	94.4037	268.066	94.4783	268.066	94.2072	268.066	94.2895	268.066	93.9941	268.066	94.0995	268.066	93.7635	268.066	93.8996	268.066	93.5253	268.066	93.6868	268.066	93.2969	268.066	93.4662	268.066	93.0993	268.066	93.2523	268.066	92.9516	268.066	93.066	268.066	92.8691	268.066	92.9298	268.066	92.8614
276.855	95.1518	276.855	95.0661	276.855	95.1485	276.855	94.8897	276.855	95.0602	276.855	94.6266	276.855	94.8932	276.855	94.2892	276.855	94.6559	276.855	93.9033	276.855	94.3613	276.855	93.51	276.855	94.031	276.855	93.1646	276.855	93.6985	276.855	92.9232	276.855	93.4092	276.855	92.8231	276.855	93.2107	276.855	92.8658	276.855	93.1364	276.855	93.0194	276.855	93.1893	276.855	93.2361	276.855	93.3411	276.855	93.471	276.855	93.5446	276.855	93.6909	276.855	93.7527	276.855	93.8753	276.855	93.9298	276.855	94.0137	276.855	94.0564	276.855	94.1024	276.855	94.1262	276.855	94.1405
287.109	95.7214	287.109	95.7088	287.109	95.6508	287.109	95.6056	287.109	95.5093	287.109	95.4089	287.109	95.3139	287.109	95.1207	287.109	95.0828	287.109	94.7488	287.109	94.8304	287.109	94.3093	287.109	94.5609	287.109	93.8289	287.109	94.2677	287.109	93.3448	287.109	93.9402	287.109	92.9001	287.109	93.5774	287.109	92.5368	287.109	93.2016	287.109	92.2897	287.109	92.8623	287.109	92.1832	287.109	92.6228	287.109	92.2243	287.109	92.5289	287.109	92.3903	287.109	92.5796	287.109	92.625	287.109	92.7262	287.109	92.8554	287.109	92.8984	287.109	93.0186	287.109	93.0312	287.109	93.0788
297.363	96.4343	297.363	96.4195	297.363	96.3652	297.363	96.3259	297.363	96.2032	297.363	96.1534	297.363	95.938	297.363	95.8969	297.363	95.5627	297.363	95.5489	297.363	95.0809	297.363	95.1034	297.363	94.5149	297.363	94.563	297.363	93.9114	297.363	93.9489	297.363	93.338	297.363	93.3087	297.363	92.8644	297.363	92.7162	297.363	92.5331	297.363	92.2517	297.363	92.3444	297.363	91.967	297.363	92.2693	297.363	91.8624	297.363	92.2729	297.363	91.8978	297.363	92.3255	297.363	92.0204	297.363	92.3988	297.363	92.1796	297.363	92.4609	297.363	92.3307	297.363	92.4807	297.363	92.4377
307.617	96.2451	307.617	96.2098	307.617	96.2252	307.617	96.1169	307.617	96.1522	307.617	95.9646	307.617	96.0258	307.617	95.7525	307.617	95.8424	307.617	95.4823	307.617	95.5945	307.617	95.1587	307.617	95.2747	307.617	94.7907	307.617	94.8811	307.617	94.3946	307.617	94.4271	307.617	93.997	307.617	93.9498	307.617	93.6356	307.617	93.5117	307.617	93.3529	307.617	93.186	307.617	93.1817	307.617	93.0243	307.617	93.1292	307.617	93.0272	307.617	93.1743	307.617	93.1449	307.617	93.2784	307.617	93.3066	307.617	93.3994	307.617	93.4503	307.617	93.5004	307.617	93.5372	307.617	93.5525
319.336	95.8386	319.336	95.8197	319.336	95.7848	319.336	95.7294	319.336	95.6578	319.336	95.5685	319.336	95.4581	319.336	95.3361	319.336	95.1873	319.336	95.029	319.336	94.8476	319.336	94.6426	319.336	94.4418	319.336	94.1747	319.336	93.9751	319.336	93.6333	319.336	93.4605	319.336	93.0478	319.336	92.9283	319.336	92.4818	319.336	92.4372	319.336	92.0341	319.336	92.0736	319.336	91.8075	319.336	91.92	319.336	91.8438	319.336	91.9999	319.336	92.0873	319.336	92.2516	319.336	92.4213	319.336	92.5654	319.336	92.7357	319.336	92.8409	319.336	92.9589	319.336	93.0142	319.336	93.0556
329.59	95.8801	329.59	95.8618	329.59	95.82	329.59	95.7641	329.59	95.6837	329.59	95.5889	329.59	95.4732	329.59	95.3403	329.59	95.1889	329.59	95.0236	329.59	94.8291	329.59	94.6443	329.59	94.3932	329.59	94.2096	329.59	93.8865	329.59	93.7332	329.59	93.3276	329.59	93.2443	329.59	92.7582	329.59	92.7952	329.59	92.2493	329.59	92.4592	329.59	91.8941	329.59	92.304	329.59	91.7721	329.59	92.3505	329.59	91.8976	329.59	92.5525	329.59	92.2028	329.59	92.8214	329.59	92.5767	329.59	93.0683	329.59	92.9174	329.59	93.2281	329.59	93.1571	329.59	93.2628
341.309	96.1577	341.309	96.0881	341.309	96.1512	341.309	95.9453	341.309	96.0661	341.309	95.7316	341.309	95.901	341.309	95.4478	341.309	95.6563	341.309	95.0935	341.309	95.3325	341.309	94.6668	341.309	94.9293	341.309	94.1648	341.309	94.4453	341.309	93.585	341.309	93.8798	341.309	92.9322	341.309	93.2401	341.309	92.2347	341.309	92.5548	341.309	91.5685	341.309	91.8935	341.309	91.0688	341.309	91.3748	341.309	90.8794	341.309	91.1278	341.309	91.0345	341.309	91.1965	341.309	91.4092	341.309	91.4885	341.309	91.8142	341.309	91.8395	341.309	92.104	341.309	92.107	341.309	92.2062
353.027	96.09	353.027	96.0306	353.027	96.0756	353.027	95.8942	353.027	95.9872	353.027	95.6746	353.027	95.8214	353.027	95.3635	353.027	95.572	353.027	94.9528	353.027	95.2317	353.027	94.4391	353.027	94.7949	353.027	93.8306	353.027	94.2624	353.027	93.1548	353.027	93.6486	353.027	92.4656	353.027	92.9915	353.027	91.8449	353.027	92.3629	353.027	91.393	353.027	91.868	353.027	91.1995	353.027	91.6124	353.027	91.298	353.027	91.6404	353.027	91.6337	353.027	91.8973	353.027	92.0819	353.027	92.262	353.027	92.5055	353.027	92.6098	353.027	92.8026	353.027	92.848	353.027	92.9202
366.211	96.5614	366.211	96.578	366.211	96.5048	366.211	96.5491	366.211	96.4124	366.211	96.4677	366.211	96.2861	366.211	96.3241	366.211	96.1232	366.211	96.1048	366.211	95.9135	366.211	95.7915	366.211	95.6371	366.211	95.3628	366.211	95.2661	366.211	94.7991	366.211	94.7717	366.211	94.092	366.211	94.1374	366.211	93.2584	366.211	93.3771	366.211	92.3614	366.211	92.5594	366.211	91.5293	366.211	91.8249	366.211	90.9431	366.211	91.3529	366.211	90.745	366.211	91.244	366.211	90.9175	366.211	91.4204	366.211	91.2864	366.211	91.6877	366.211	91.6477	366.211	91.8679	366.211	91.861
379.395	96.3682	379.395	96.372	379.395	96.3021	379.395	96.3179	379.395	96.1748	379.395	96.2127	379.395	95.9916	379.395	96.0592	379.395	95.7581	379.395	95.8505	379.395	95.4737	379.395	95.5679	379.395	95.1263	379.395	95.1851	379.395	94.6923	379.395	94.6777	379.395	94.1464	379.395	94.0383	379.395	93.4819	379.395	93.2968	379.395	92.7415	379.395	92.5439	379.395	92.0474	379.395	91.9377	379.395	91.5862	379.395	91.6441	379.395	91.4978	379.395	91.712	379.395	91.746	379.395	92.0248	379.395	92.1513	379.395	92.3999	379.395	92.5313	379.395	92.6942	379.395	92.7732	379.395	92.8291
392.578	96.6505	392.578	96.5941	392.578	96.6252	392.578	96.458	392.578	96.516	392.578	96.2465	392.578	96.3199	392.578	95.9665	392.578	96.034	392.578	95.6255	392.578	95.658	392.578	95.2253	392.578	95.1969	392.578	94.7576	392.578	94.6608	392.578	94.2074	392.578	94.0616	392.578	93.5681	392.578	93.4094	392.578	92.8643	392.578	92.7195	392.578	92.1716	392.578	92.0342	392.578	91.6131	392.578	91.4485	392.578	91.3078	392.578	91.0979	392.578	91.2926	392.578	91.0712	392.578	91.4937	392.578	91.315	392.578	91.773	392.578	91.6626	392.578	91.9952	392.578	91.9464	392.578	92.0659
405.762	96.5535	405.762	96.4669	405.762	96.5628	405.762	96.3073	405.762	96.4936	405.762	96.0792	405.762	96.3474	405.762	95.7854	405.762	96.1259	405.762	95.4269	405.762	95.827	405.762	95.0062	405.762	95.4425	405.762	94.5298	405.762	94.9585	405.762	94.0061	405.762	94.3598	405.762	93.4438	405.762	93.6404	405.762	92.8594	405.762	92.8271	405.762	92.3024	405.762	92.0165	405.762	91.8805	405.762	91.3981	405.762	91.7266	405.762	91.177	405.762	91.884	405.762	91.3909	405.762	92.2413	405.762	91.863	405.762	92.6161	405.762	92.364	405.762	92.8649	405.762	92.7388	405.762	92.9128
420.41	96.305	420.41	96.2422	420.41	96.2806	420.41	96.0963	420.41	96.1742	420.41	95.879	420.41	95.9974	420.41	95.6025	420.41	95.762	420.41	95.2708	420.41	95.4717	420.41	94.8731	420.41	95.1159	420.41	94.386	420.41	94.6726	420.41	93.7847	420.41	94.1192	420.41	93.0637	420.41	93.4494	420.41	92.2643	420.41	92.6906	420.41	91.5064	420.41	91.923	420.41	90.9907	420.41	91.2933	420.41	90.8996	420.41	90.9841	420.41	91.2289	420.41	91.0923	420.41	91.7735	420.41	91.5212	420.41	92.2915	420.41	92.0498	420.41	92.6199	420.41	92.4778	420.41	92.6846
435.059	96.5276	435.059	96.5138	435.059	96.4562	435.059	96.4106	435.059	96.3084	435.059	96.2207	435.059	96.0944	435.059	95.9537	435.059	95.8229	435.059	95.6208	435.059	95.4988	435.059	95.2245	435.059	95.1198	435.059	94.7488	435.059	94.6718	435.059	94.1596	435.059	94.1297	435.059	93.423	435.059	93.4698	435.059	92.5408	435.059	92.7011	435.059	91.6003	435.059	91.9133	435.059	90.8171	435.059	91.3095	435.059	90.4765	435.059	91.1207	435.059	90.6959	435.059	91.3856	435.059	91.2836	435.059	91.89	435.059	91.9342	435.059	92.3699	435.059	92.4343	435.059	92.6588	435.059	92.6853
451.172	96.0922	451.172	96.1105	451.172	96.0288	451.172	96.0763	451.172	95.9311	451.172	95.9857	451.172	95.8105	451.172	95.8354	451.172	95.6731	451.172	95.6163	451.172	95.51	451.172	95.3066	451.172	95.2881	451.172	94.8703	451.172	94.9482	451.172	94.2624	451.172	94.418	451.172	93.4461	451.172	93.6401	451.172	92.4261	451.172	92.6178	451.172	91.3154	451.172	91.4892	451.172	90.4186	451.172	90.6015	451.172	90.1422	451.172	90.3751	451.172	90.5774	451.172	90.8558	451.172	91.3751	451.172	91.6539	451.172	92.1528	451.172	92.3795	451.172	92.7036	451.172	92.8314	451.172	92.9408
465.82	96.6431	465.82	96.6083	465.82	96.5578	465.82	96.4688	465.82	96.3527	465.82	96.2503	465.82	96.0438	465.82	95.9818	465.82	95.6568	465.82	95.6835	465.82	95.2137	465.82	95.3529	465.82	94.7218	465.82	94.9541	465.82	94.169	465.82	94.4229	465.82	93.528	465.82	93.6894	465.82	92.7658	465.82	92.7141	465.82	91.8615	465.82	91.5377	465.82	90.8518	465.82	90.3592	465.82	89.922	465.82	89.5819	465.82	89.4488	465.82	89.5709	465.82	89.7059	465.82	90.2062	465.82	90.4667	465.82	91.0221	465.82	91.2643	465.82	91.6528	465.82	91.7915	465.82	91.9273
483.398	96.2416	483.398	96.1052	483.398	96.2913	483.398	95.9034	483.398	96.2448	483.398	95.6668	483.398	96.0989	483.398	95.4191	483.398	95.8515	483.398	95.16	483.398	95.5009	483.398	94.8629	483.398	95.0483	483.398	94.4892	483.398	94.4943	483.398	93.999	483.398	93.8305	483.398	93.3488	483.398	93.0361	483.398	92.4912	483.398	92.1018	483.398	91.4248	483.398	91.0993	483.398	90.3389	483.398	90.2686	483.398	89.7509	483.398	89.9608	483.398	90.0873	483.398	90.296	483.398	91.0053	483.398	91.0067	483.398	91.8874	483.398	91.7471	483.398	92.4236	483.398	92.3005	483.398	92.5499
499.512	96.3954	499.512	96.3772	499.512	96.3294	499.512	96.267	499.512	96.1966	499.512	96.0676	499.512	96.0236	499.512	95.7922	499.512	95.8405	499.512	95.4575	499.512	95.6626	499.512	95.067	499.512	95.4684	499.512	94.598	499.512	95.1931	499.512	94.0038	499.512	94.7446	499.512	93.2334	499.512	94.0275	499.512	92.2626	499.512	92.9666	499.512	91.1478	499.512	91.5553	499.512	90.1165	499.512	89.9982	499.512	89.5881	499.512	88.9401	499.512	89.8362	499.512	89.0842	499.512	90.6097	499.512	90.1002	499.512	91.4366	499.512	91.176	499.512	92.0062	499.512	91.9037	499.512	92.1796
517.09	97.0047	517.09	96.992	517.09	96.8754	517.09	96.8539	517.09	96.6138	517.09	96.6228	517.09	96.2584	517.09	96.333	517.09	95.8657	517.09	96.0079	517.09	95.4837	517.09	95.6454	517.09	95.1206	517.09	95.2027	517.09	94.7295	517.09	94.5943	517.09	94.225	517.09	93.7125	517.09	93.5175	517.09	92.4707	517.09	92.5473	517.09	90.8902	517.09	91.3338	517.09	89.3015	517.09	90.1058	517.09	88.5466	517.09	89.4659	517.09	89.1863	517.09	89.9331	517.09	90.547	517.09	91.087	517.09	91.8198	517.09	92.185	517.09	92.6764	517.09	92.8643	517.09	93.0308
536.133	97.7368	536.133	97.6393	536.133	97.7184	536.133	97.4333	536.133	97.5838	536.133	97.1357	536.133	97.3419	536.133	96.7769	536.133	97.0155	536.133	96.3973	536.133	96.6427	536.133	96.0318	536.133	96.2629	536.133	95.6803	536.133	95.8885	536.133	95.2833	536.133	95.4749	536.133	94.7262	536.133	94.925	536.133	93.8763	536.133	94.1355	536.133	92.6476	536.133	93.0709	536.133	91.1369	536.133	91.8677	536.133	89.9121	536.133	90.9453	536.133	89.8835	536.133	90.8204	536.133	90.9454	536.133	91.4733	536.133	92.1489	536.133	92.3618	536.133	92.9636	536.133	93.0284	536.133	93.2555
555.176	98.0345	555.176	98.0542	555.176	97.8623	555.176	97.9085	555.176	97.5767	555.176	97.6251	555.176	97.2242	555.176	97.2678	555.176	96.8443	555.176	96.9053	555.176	96.4634	555.176	96.5601	555.176	96.0865	555.176	96.1839	555.176	95.6848	555.176	95.6833	555.176	95.1897	555.176	94.9623	555.176	94.5036	555.176	93.938	555.176	93.5194	555.176	92.5515	555.176	92.1719	555.176	90.8619	555.176	90.6096	555.176	89.3837	555.176	89.563	555.176	89.2314	555.176	89.9622	555.176	90.4948	555.176	91.3198	555.176	91.9922	555.176	92.5885	555.176	93.0434	555.176	93.3408	555.176	93.4958
574.219	98.1532	574.219	97.9506	574.219	98.1437	574.219	97.5713	574.219	97.9138	574.219	97.0659	574.219	97.4891	574.219	96.4895	574.219	96.9264	574.219	95.896	574.219	96.3024	574.219	95.3279	574.219	95.6974	574.219	94.795	574.219	95.1626	574.219	94.2515	574.219	94.6609	574.219	93.6061	574.219	94.0305	574.219	92.7566	574.219	93.0296	574.219	91.6183	574.219	91.4418	574.219	90.1921	574.219	89.2846	574.219	88.8468	574.219	87.5274	574.219	88.5851	574.219	88.0634	574.219	89.7472	574.219	90.0252	574.219	91.2676	574.219	91.6874	574.219	92.37	574.219	92.625	574.219	92.8389
594.727	98.7116	594.727	98.6972	594.727	98.5982	594.727	98.5311	594.727	98.3779	594.727	98.2021	594.727	98.0656	594.727	97.7294	594.727	97.678	594.727	97.1709	594.727	97.2364	594.727	96.6111	594.727	96.7516	594.727	96.121	594.727	96.2101	594.727	95.6969	594.727	95.5811	594.727	95.2205	594.727	94.8311	594.727	94.4801	594.727	93.9127	594.727	93.2372	594.727	92.7282	594.727	91.315	594.727	91.1321	594.727	88.8634	594.727	89.1208	594.727	87.24	594.727	87.4827	594.727	88.0968	594.727	87.796	594.727	89.8628	594.727	89.4361	594.727	91.0547	594.727	90.8041	594.727	91.3724
615.234	98.3531	615.234	98.2638	615.234	98.2324	615.234	97.9905	615.234	97.9007	615.234	97.5721	615.234	97.3902	615.234	97.0492	615.234	96.7701	615.234	96.4651	615.234	96.1444	615.234	95.8785	615.234	95.6228	615.234	95.3505	615.234	95.252	615.234	94.8816	615.234	94.9526	615.234	94.3683	615.234	94.5485	615.234	93.6554	615.234	93.863	615.234	92.6276	615.234	92.8066	615.234	91.2913	615.234	91.4734	615.234	89.935	615.234	90.2897	615.234	89.3061	615.234	89.9383	615.234	89.9113	615.234	90.5652	615.234	91.1015	615.234	91.5368	615.234	92.0648	615.234	92.2632	615.234	92.4693
637.207	98.725	637.207	98.6501	637.207	98.6469	637.207	98.4213	637.207	98.4236	637.207	98.0538	637.207	98.0664	637.207	97.5782	637.207	97.5913	637.207	97.0237	637.207	97.0204	637.207	96.3989	637.207	96.3756	637.207	95.6957	637.207	95.6662	637.207	94.8994	637.207	94.8736	637.207	93.9702	637.207	93.9389	637.207	92.8163	637.207	92.7621	637.207	91.3172	637.207	91.2251	637.207	89.4494	637.207	89.3344	637.207	87.6606	637.207	87.7729	637.207	87.2354	637.207	88.0129	637.207	88.5211	637.207	89.6217	637.207	90.159	637.207	91.062	637.207	91.344	637.207	91.8296	637.207	91.9098
659.18	97.4091	659.18	97.2759	659.18	97.4387	659.18	97.0595	659.18	97.3372	659.18	96.7701	659.18	97.0916	659.18	96.4288	659.18	96.7275	659.18	96.0905	659.18	96.3134	659.18	95.8192	659.18	95.9253	659.18	95.6116	659.18	95.5804	659.18	95.3655	659.18	95.195	659.18	94.931	659.18	94.6122	659.18	94.1592	659.18	93.6683	659.18	92.9191	659.18	92.2532	659.18	91.1666	659.18	90.3911	659.18	89.2212	659.18	88.5078	659.18	88.224	659.18	87.8286	659.18	89.0046	659.18	88.9517	659.18	90.4702	659.18	90.5636	659.18	91.5799	659.18	91.6663	659.18	92.0066
682.617	97.6864	682.617	97.5633	682.617	97.5325	682.617	97.1886	682.617	97.1239	682.617	96.6296	682.617	96.5235	682.617	95.9731	682.617	95.8275	682.617	95.2965	682.617	95.1586	682.617	94.6624	682.617	94.6251	682.617	94.1364	682.617	94.2424	682.617	93.7435	682.617	93.9005	682.617	93.3623	682.617	93.4279	682.617	92.742	682.617	92.6588	682.617	91.6474	682.617	91.4512	682.617	90.0275	682.617	89.7546	682.617	88.4421	682.617	88.0189	682.617	88.3792	682.617	87.7607	682.617	89.921	682.617	89.3315	682.617	91.5337	682.617	91.1036	682.617	92.5157	682.617	92.2871	682.617	92.7623
707.52	97.9533	707.52	97.8909	707.52	97.7974	707.52	97.5898	707.52	97.4341	707.52	97.0469	707.52	96.8652	707.52	96.2985	707.52	96.1144	707.52	95.4188	707.52	95.2526	707.52	94.5034	707.52	94.3847	707.52	93.6453	707.52	93.6116	707.52	92.8887	707.52	92.9778	707.52	92.1637	707.52	92.3951	707.52	91.2653	707.52	91.6013	707.52	89.9394	707.52	90.2357	707.52	88.1003	707.52	88.066	707.52	86.4231	707.52	85.9248	707.52	86.7143	707.52	86.68	707.52	88.7708	707.52	89.3051	707.52	90.7807	707.52	91.3463	707.52	92.1004	707.52	92.4305	707.52	92.6559
732.422	97.8693	732.422	97.8017	732.422	97.7881	732.422	97.6054	732.422	97.5414	732.422	97.294	732.422	97.1366	732.422	96.8946	732.422	96.6108	732.422	96.4571	732.422	96.0365	732.422	96.011	732.422	95.5273	732.422	95.5371	732.422	95.1709	732.422	95.0185	732.422	94.8759	732.422	94.4434	732.422	94.3569	732.422	93.6702	732.422	93.3184	732.422	92.3621	732.422	91.5661	732.422	90.081	732.422	88.9366	732.422	86.4693	732.422	85.3841	732.422	83.3752	732.422	83.2433	732.422	85.8199	732.422	85.9014	732.422	88.9165	732.422	88.8673	732.422	90.6364	732.422	90.59	732.422	91.1577
757.324	98.6621	757.324	98.624	757.324	98.4563	757.324	98.3067	757.324	98.0699	757.324	97.7256	757.324	97.558	757.324	96.9533	757.324	96.9509	757.324	96.1337	757.324	96.2855	757.324	95.4877	757.324	95.6477	757.324	95.2034	757.324	95.1589	757.324	95.1896	757.324	94.8724	757.324	95.0702	757.324	94.649	757.324	94.4595	757.324	94.1724	757.324	93.0836	757.324	93.0895	757.324	90.73	757.324	91.0702	757.324	87.5503	757.324	87.9062	757.324	86.141	757.324	85.5659	757.324	88.4202	757.324	88.0952	757.324	90.8604	757.324	91.03	757.324	92.3606	757.324	92.571	757.324	92.9409
785.156	99.3571	785.156	99.2569	785.156	99.2588	785.156	98.9559	785.156	98.9297	785.156	98.4352	785.156	98.317	785.156	97.6863	785.156	97.3931	785.156	96.7419	785.156	96.2247	785.156	95.723	785.156	95.0554	785.156	94.8527	785.156	94.2661	785.156	94.3319	785.156	93.9813	785.156	94.0856	785.156	93.8233	785.156	93.6877	785.156	93.3057	785.156	92.6078	785.156	92.0969	785.156	90.3963	785.156	89.9809	785.156	86.795	785.156	87.1113	785.156	84.3327	785.156	85.7873	785.156	87.73	785.156	88.3253	785.156	91.2174	785.156	91.3303	785.156	93.1982	785.156	93.2165	785.156	93.8373
811.523	98.4776	811.523	98.375	811.523	98.3392	811.523	98.0233	811.523	97.985	811.523	97.43	811.523	97.4506	811.523	96.6369	811.523	96.7704	811.523	95.7681	811.523	96.0001	811.523	95.0603	811.523	95.2831	811.523	94.736	811.523	94.8469	811.523	94.7323	811.523	94.7691	811.523	94.7281	811.523	94.7704	811.523	94.4165	811.523	94.417	811.523	93.5264	811.523	93.3259	811.523	91.672	811.523	91.0938	811.523	88.2731	811.523	87.2279	811.523	83.5254	811.523	83.438	811.523	84.7411	811.523	86.1894	811.523	88.6456	811.523	89.3957	811.523	90.7847	811.523	91.0594	811.523	91.5034
840.82	99.0516	840.82	98.9517	840.82	99.0051	840.82	98.7041	840.82	98.7507	840.82	98.235	840.82	98.2091	840.82	97.4478	840.82	97.3514	840.82	96.3259	840.82	96.2717	840.82	95.0406	840.82	95.1864	840.82	93.9855	840.82	94.3081	840.82	93.5498	840.82	93.7423	840.82	93.6582	840.82	93.4518	840.82	93.7544	840.82	93.1315	840.82	93.1976	840.82	92.2662	840.82	91.4066	840.82	90.3486	840.82	87.7715	840.82	87.0585	840.82	83.5651	840.82	84.3363	840.82	86.6598	840.82	86.8575	840.82	90.3395	840.82	90.0721	840.82	92.1882	840.82	91.9831	840.82	92.6714
870.117	98.8118	870.117	98.7551	870.117	98.6583	870.117	98.4384	870.117	98.3515	870.117	97.8814	870.117	97.8777	870.117	97.1296	870.117	97.1385	870.117	96.1219	870.117	96.0161	870.117	94.7074	870.117	94.5292	870.117	93.0075	870.117	93.1199	870.117	91.8741	870.117	92.5457	870.117	91.9311	870.117	92.6934	870.117	92.2047	870.117	92.7063	870.117	91.6791	870.117	92.0507	870.117	89.882	870.117	90.3552	870.117	86.2632	870.117	86.921	870.117	80.931	870.117	82.0038	870.117	84.2323	870.117	85.278	870.117	88.9707	870.117	89.5829	870.117	91.3872	870.117	91.6653	870.117	92.1994
900.879	98.7513	900.879	98.6707	900.879	98.6723	900.879	98.4062	900.879	98.41	900.879	97.9021	900.879	97.904	900.879	97.1086	900.879	97.0879	900.879	96.0088	900.879	95.9301	900.879	94.6311	900.879	94.5066	900.879	93.1709	900.879	93.1636	900.879	92.189	900.879	92.5288	900.879	92.1529	900.879	92.6913	900.879	92.5492	900.879	92.8653	900.879	92.438	900.879	92.3199	900.879	91.0821	900.879	90.5687	900.879	87.7436	900.879	87.0186	900.879	81.9689	900.879	81.9361	900.879	83.3849	900.879	84.4658	900.879	88.1612	900.879	88.8715	900.879	90.6983	900.879	91.1071	900.879	91.6375
933.105	98.4075	933.105	98.3481	933.105	98.2992	933.105	98.1461	933.105	98.0066	933.105	97.7772	933.105	97.5345	933.105	97.1721	933.105	96.8428	933.105	96.2846	933.105	95.7999	933.105	95.1057	933.105	94.2629	933.105	93.6833	933.105	92.3647	933.105	92.5042	933.105	91.0427	933.105	92.4397	933.105	91.214	933.105	93.0118	933.105	91.9053	933.105	92.9977	933.105	92.0139	933.105	91.7776	933.105	91.0802	933.105	88.9031	933.105	88.4469	933.105	83.2426	933.105	82.2686	933.105	79.5751	933.105	81.6558	933.105	86.5949	933.105	88.3404	933.105	90.1702	933.105	91.0306	933.105	91.4902
965.332	98.3856	965.332	98.4375	965.332	98.1181	965.332	98.2111	965.332	97.763	965.332	97.7294	965.332	97.3872	965.332	97.0458	965.332	96.8786	965.332	96.1618	965.332	96.0201	965.332	94.997	965.332	94.6525	965.332	93.4917	965.332	92.8649	965.332	91.8682	965.332	91.3063	965.332	90.9169	965.332	90.7615	965.332	91.0733	965.332	90.8242	965.332	91.2502	965.332	90.6009	965.332	90.3486	965.332	89.4833	965.332	87.7614	965.332	86.8214	965.332	82.9667	965.332	81.9574	965.332	81.9713	965.332	82.3879	965.332	86.9073	965.332	87.5898	965.332	89.7876	965.332	90.2265	965.332	90.8362
1000.49	97.9696	1000.49	97.8199	1000.49	97.9288	1000.49	97.5457	1000.49	97.618	1000.49	97.1393	1000.49	96.9872	1000.49	96.5056	1000.49	96.0486	1000.49	95.5633	1000.49	94.8964	1000.49	94.3866	1000.49	93.6463	1000.49	93.2037	1000.49	92.3309	1000.49	92.2275	1000.49	91.0838	1000.49	91.6727	1000.49	90.4778	1000.49	91.5942	1000.49	90.6215	1000.49	91.451	1000.49	90.5433	1000.49	90.4396	1000.49	89.4169	1000.49	87.804	1000.49	86.6717	1000.49	82.2276	1000.49	81.0076	1000.49	78.6277	1000.49	78.0493	1000.49	85.6317	1000.49	84.9461	1000.49	88.7582	1000.49	88.2728	1000.49	89.4273
1035.64	98.3413	1035.64	98.2378	1035.64	98.1903	1035.64	97.9113	1035.64	97.7528	1035.64	97.3368	1035.64	97.0803	1035.64	96.4848	1035.64	96.2641	1035.64	95.3766	1035.64	95.2782	1035.64	94.0132	1035.64	93.8552	1035.64	92.3061	1035.64	91.7464	1035.64	90.4361	1035.64	89.8362	1035.64	89.5846	1035.64	89.8472	1035.64	90.0503	1035.64	90.4133	1035.64	90.185	1035.64	90.1039	1035.64	89.3077	1035.64	88.957	1035.64	87.3677	1035.64	86.7299	1035.64	83.4816	1035.64	82.6575	1035.64	79.1463	1035.64	81.289	1035.64	84.9215	1035.64	85.3501	1035.64	88.3745	1035.64	88.0465	1035.64	89.1172
1072.27	98.3618	1072.27	98.3382	1072.27	98.2299	1072.27	98.0839	1072.27	98.0085	1072.27	97.5922	1072.27	97.6123	1072.27	96.8682	1072.27	96.8748	1072.27	95.8565	1072.27	95.7349	1072.27	94.4103	1072.27	94.2714	1072.27	92.5379	1072.27	92.6153	1072.27	90.9363	1072.27	90.9755	1072.27	90.3727	1072.27	89.7982	1072.27	90.3787	1072.27	89.3512	1072.27	90.2673	1072.27	89.0992	1072.27	89.3246	1072.27	88.1903	1072.27	86.6632	1072.27	86.0659	1072.27	82.8215	1072.27	83.1263	1072.27	82.956	1072.27	83.1099	1072.27	85.7887	1072.27	86.6613	1072.27	88.2247	1072.27	89.0951	1072.27	89.5218
1108.89	98.7641	1108.89	98.533	1108.89	98.6437	1108.89	98.1051	1108.89	98.2101	1108.89	97.5992	1108.89	97.6608	1108.89	96.8286	1108.89	97.0129	1108.89	95.4497	1108.89	95.9188	1108.89	93.4273	1108.89	94.1036	1108.89	91.265	1108.89	91.8883	1108.89	89.7012	1108.89	90.3516	1108.89	89.4533	1108.89	90.5644	1108.89	90.6255	1108.89	91.6303	1108.89	91.2767	1108.89	91.5818	1108.89	89.7482	1108.89	89.2814	1108.89	84.4646	1108.89	83.4651	1108.89	74.4793	1108.89	73.9657	1108.89	85.6243	1108.89	85.5443	1108.89	90.1634	1108.89	90.5128	1108.89	92.2321	1108.89	92.6649	1108.89	93.0444
1148.44	98.01	1148.44	97.9256	1148.44	98.0042	1148.44	97.7858	1148.44	97.9143	1148.44	97.6495	1148.44	97.7721	1148.44	97.4924	1148.44	97.5352	1148.44	97.0716	1148.44	96.9646	1148.44	95.9601	1148.44	95.6192	1148.44	93.6368	1148.44	92.9388	1148.44	89.7982	1148.44	89.1296	1148.44	88.2931	1148.44	88.9222	1148.44	91.1944	1148.44	91.4667	1148.44	92.7149	1148.44	92.4242	1148.44	92.1618	1148.44	91.1171	1148.44	88.9394	1148.44	86.2359	1148.44	79.5972	1148.44	68.9891	1148.44	85.2189	1148.44	86.4041	1148.44	91.2554	1148.44	91.4772	1148.44	93.6519	1148.44	93.6821	1148.44	94.3272
1189.45	99.0028	1189.45	98.8106	1189.45	98.6504	1189.45	98.0992	1189.45	97.8845	1189.45	97.1936	1189.45	96.8791	1189.45	96.5117	1189.45	95.9908	1189.45	96.0928	1189.45	95.6175	1189.45	95.5454	1189.45	95.3293	1189.45	94.2621	1189.45	93.9412	1189.45	91.3248	1189.45	89.9436	1189.45	85.0183	1189.45	83.1684	1189.45	86.7952	1189.45	89.0669	1189.45	92.2305	1189.45	92.6441	1189.45	93.6673	1189.45	93.1262	1189.45	92.2372	1189.45	91.1087	1189.45	87.8639	1189.45	86.4268	1189.45	85.4658	1189.45	86.4868	1189.45	90.8379	1189.45	91.5341	1189.45	93.9045	1189.45	94.1793	1189.45	94.8855
1230.47	99.1207	1230.47	98.9556	1230.47	98.7514	1230.47	98.1832	1230.47	98.0389	1230.47	97.0304	1230.47	97.0798	1230.47	95.8794	1230.47	95.9561	1230.47	95.0861	1230.47	95.0452	1230.47	94.7713	1230.47	94.8305	1230.47	94.3643	1230.47	94.664	1230.47	92.9707	1230.47	92.8796	1230.47	89.28	1230.47	87.7481	1230.47	82.7667	1230.47	83.8094	1230.47	88.7379	1230.47	89.2368	1230.47	91.8552	1230.47	91.2064	1230.47	91.6774	1230.47	90.7479	1230.47	89.0106	1230.47	88.212	1230.47	82.6586	1230.47	84.0601	1230.47	84.7541	1230.47	87.0115	1230.47	89.9531	1230.47	90.836	1230.47	91.6938
1274.41	100.084	1274.41	99.7794	1274.41	99.8804	1274.41	99.0031	1274.41	99.2091	1274.41	97.8595	1274.41	98.212	1274.41	96.5417	1274.41	97.1301	1274.41	95.3104	1274.41	96.1194	1274.41	94.2055	1274.41	95.1056	1274.41	93.1836	1274.41	94.2346	1274.41	92.1565	1274.41	93.3433	1274.41	90.1416	1274.41	90.8486	1274.41	85.4187	1274.41	85.364	1274.41	86.3874	1274.41	87.8314	1274.41	90.8327	1274.41	90.8815	1274.41	91.4556	1274.41	90.6306	1274.41	88.8876	1274.41	88.1851	1274.41	81.3973	1274.41	81.6182	1274.41	78.8991	1274.41	80.155	1274.41	87.7495	1274.41	88.123	1274.41	89.8893
1319.82	99.7831	1319.82	99.7233	1319.82	99.5493	1319.82	99.1324	1319.82	99.0985	1319.82	97.9874	1319.82	98.3523	1319.82	96.6111	1319.82	97.2965	1319.82	95.4484	1319.82	95.9404	1319.82	94.6368	1319.82	94.4257	1319.82	93.7214	1319.82	93.0484	1319.82	92.2649	1319.82	91.615	1319.82	90.4834	1319.82	89.2038	1319.82	88.312	1319.82	86.8515	1319.82	86.9085	1319.82	88.7811	1319.82	88.825	1319.82	90.3522	1319.82	89.4748	1319.82	89.801	1319.82	86.5822	1319.82	86.671	1319.82	75.5538	1319.82	76.706	1319.82	81.2304	1319.82	80.3038	1319.82	88.1865	1319.82	87.8356	1319.82	89.7994
1366.7	99.7436	1366.7	99.7533	1366.7	99.6215	1366.7	99.4719	1366.7	99.2206	1366.7	98.5538	1366.7	98.3925	1366.7	97.1069	1366.7	97.1216	1366.7	95.6929	1366.7	95.5261	1366.7	94.3573	1366.7	94.1104	1366.7	93.0188	1366.7	93.2347	1366.7	91.9621	1366.7	92.4516	1366.7	90.1448	1366.7	90.7726	1366.7	85.625	1366.7	86.8609	1366.7	83.1573	1366.7	85.6774	1366.7	88.3291	1366.7	88.9609	1366.7	89.7112	1366.7	89.6731	1366.7	87.2915	1366.7	87.2087	1366.7	77.4359	1366.7	77.2294	1366.7	81.3923	1366.7	81.9091	1366.7	88.049	1366.7	88.8935	1366.7	90.0942
1413.57	99.9937	1413.57	99.7643	1413.57	99.8494	1413.57	99.2627	1413.57	99.1903	1413.57	98.4931	1413.57	97.9923	1413.57	97.3052	1413.57	96.446	1413.57	95.4907	1413.57	95.0071	1413.57	93.4633	1413.57	94.0141	1413.57	92.3364	1413.57	93.0226	1413.57	91.5247	1413.57	91.7486	1413.57	90.0373	1413.57	89.8219	1413.57	88.1537	1413.57	85.8278	1413.57	85.709	1413.57	84.8703	1413.57	86.6799	1413.57	88.6503	1413.57	88.6247	1413.57	89.7732	1413.57	86.9379	1413.57	87.6369	1413.57	78.7442	1413.57	78.3202	1413.57	78.8773	1413.57	80.2652	1413.57	86.9893	1413.57	86.865	1413.57	88.5821
1463.38	98.6404	1463.38	98.327	1463.38	98.6163	1463.38	98.1676	1463.38	97.8839	1463.38	97.7752	1463.38	96.6969	1463.38	96.4991	1463.38	95.2316	1463.38	94.5459	1463.38	93.4215	1463.38	92.9316	1463.38	91.7567	1463.38	92.0732	1463.38	90.5471	1463.38	91.1871	1463.38	89.7242	1463.38	89.5547	1463.38	88.5857	1463.38	87.5961	1463.38	84.9277	1463.38	85.8356	1463.38	83.8664	1463.38	87.3584	1463.38	87.487	1463.38	88.7047	1463.38	88.8925	1463.38	86.2527	1463.38	86.5218	1463.38	78.3636	1463.38	75.9863	1463.38	79.4058	1463.38	79.5315	1463.38	86.5771	1463.38	86.0185	1463.38	87.9275
1516.11	97.1158	1516.11	96.9973	1516.11	97.3034	1516.11	96.9474	1516.11	97.0072	1516.11	96.5595	1516.11	96.0056	1516.11	95.5828	1516.11	94.3985	1516.11	93.6695	1516.11	91.9386	1516.11	91.2297	1516.11	88.7922	1516.11	90.1517	1516.11	86.95	1516.11	89.7154	1516.11	87.7707	1516.11	88.0725	1516.11	87.9789	1516.11	85.18	1516.11	84.1816	1516.11	83.8311	1516.11	78.4082	1516.11	87.1765	1516.11	84.5042	1516.11	89.2896	1516.11	88.1274	1516.11	88.268	1516.11	86.7876	1516.11	84.2156	1516.11	78.1399	1516.11	81.1251	1516.11	81.5606	1516.11	86.3568	1516.11	86.5853	1516.11	87.8717
1568.85	96.7389	1568.85	96.6549	1568.85	96.7657	1568.85	96.1988	1568.85	96.4517	1568.85	95.3717	1568.85	95.5387	1568.85	94.3626	1568.85	94.286	1568.85	93.0102	1568.85	92.7999	1568.85	91.3748	1568.85	90.9721	1568.85	89.6089	1568.85	88.9619	1568.85	87.871	1568.85	86.6812	1568.85	86.5765	1568.85	86.1208	1568.85	85.4242	1568.85	85.3704	1568.85	83.6088	1568.85	81.0574	1568.85	84.1096	1568.85	81.1312	1568.85	87.4084	1568.85	86.316	1568.85	87.157	1568.85	86.2823	1568.85	83.7325	1568.85	81.2363	1568.85	77.7406	1568.85	77.2931	1568.85	81.5486	1568.85	80.8647	1568.85	82.6718
1624.51	96.9078	1624.51	96.6528	1624.51	96.5495	1624.51	95.8653	1624.51	96.0305	1624.51	94.9071	1624.51	95.177	1624.51	93.6015	1624.51	93.8661	1624.51	92.0327	1624.51	92.6648	1624.51	90.3816	1624.51	91.2154	1624.51	88.6549	1624.51	89.5911	1624.51	87.6613	1624.51	88.1478	1624.51	87.017	1624.51	86.0023	1624.51	84.9575	1624.51	84.082	1624.51	82.3548	1624.51	81.7925	1624.51	82.37	1624.51	83.6259	1624.51	85.1555	1624.51	86.0398	1624.51	85.1552	1624.51	84.9681	1624.51	81.4391	1624.51	79.6353	1624.51	71.1737	1624.51	67.9591	1624.51	80.1334	1624.51	79.9431	1624.51	83.5905
1681.64	97.0914	1681.64	97.202	1681.64	96.5548	1681.64	96.5394	1681.64	96.2998	1681.64	95.6877	1681.64	95.5215	1681.64	94.6873	1681.64	93.9059	1681.64	93.0838	1681.64	92.7625	1681.64	90.8213	1681.64	91.5934	1681.64	88.8452	1681.64	89.9002	1681.64	87.1742	1681.64	88.5537	1681.64	85.5965	1681.64	86.1822	1681.64	82.9497	1681.64	82.7917	1681.64	77.0678	1681.64	79.6824	1681.64	82.0304	1681.64	83.5744	1681.64	85.4251	1681.64	86.7697	1681.64	85.7153	1681.64	85.7832	1681.64	82.8435	1681.64	81.0523	1681.64	73.4554	1681.64	72.1886	1681.64	81.7283	1681.64	79.8209	1681.64	83.6066
1741.7	96.7042	1741.7	96.831	1741.7	96.1334	1741.7	96.4324	1741.7	95.6985	1741.7	95.3513	1741.7	95.0013	1741.7	94.1093	1741.7	93.3113	1741.7	93.3741	1741.7	91.4306	1741.7	91.4008	1741.7	90.4383	1741.7	88.7401	1741.7	89.3706	1741.7	87.3063	1741.7	87.7511	1741.7	85.9515	1741.7	85.9292	1741.7	84.7387	1741.7	84.1191	1741.7	80.5126	1741.7	80.5477	1741.7	75.636	1741.7	79.8609	1741.7	83.2446	1741.7	85.4025	1741.7	85.2957	1741.7	85.1089	1741.7	83.0067	1741.7	80.5009	1741.7	74.7911	1741.7	67.059	1741.7	78.2748	1741.7	81.1933	1741.7	83.2911
1803.22	96.3363	1803.22	96.1427	1803.22	96.0268	1803.22	95.7075	1803.22	95.2621	1803.22	94.8148	1803.22	94.283	1803.22	93.3686	1803.22	93.0056	1803.22	91.9392	1803.22	91.3435	1803.22	90.1541	1803.22	89.5172	1803.22	88.7413	1803.22	87.8458	1803.22	88.4463	1803.22	87.0426	1803.22	87.6868	1803.22	86.3164	1803.22	84.5907	1803.22	83.3189	1803.22	78.5795	1803.22	80.1335	1803.22	77.6719	1803.22	78.8659	1803.22	83.2785	1803.22	82.851	1803.22	85.9049	1803.22	84.2816	1803.22	82.9311	1803.22	81.519	1803.22	72.0248	1803.22	65.8918	1803.22	77.0766	1803.22	81.1713	1803.22	83.4036
1866.21	97.3188	1866.21	97.0161	1866.21	97.2109	1866.21	96.2951	1866.21	96.372	1866.21	95.1888	1866.21	94.7944	1866.21	94.0679	1866.21	93.0141	1866.21	92.5444	1866.21	92.005	1866.21	90.17	1866.21	90.3762	1866.21	88.0189	1866.21	87.6485	1866.21	88.0622	1866.21	86.5648	1866.21	87.7601	1866.21	86.6386	1866.21	83.524	1866.21	84.9528	1866.21	79.4015	1866.21	81.028	1866.21	76.9663	1866.21	77.509	1866.21	82.7668	1866.21	82.9937	1866.21	84.9048	1866.21	86.2572	1866.21	83.8141	1866.21	82.8532	1866.21	74.8806	1866.21	71.1247	1866.21	78.2483	1866.21	79.6835	1866.21	83.1042
1932.13	97.7309	1932.13	97.4432	1932.13	97.5808	1932.13	96.8242	1932.13	96.6924	1932.13	95.4255	1932.13	95.1028	1932.13	93.7015	1932.13	93.2231	1932.13	92.3305	1932.13	91.377	1932.13	90.1171	1932.13	90.4527	1932.13	88.1753	1932.13	88.6784	1932.13	86.8948	1932.13	86.7846	1932.13	86.0664	1932.13	85.774	1932.13	83.965	1932.13	85.0538	1932.13	81.3962	1932.13	82.8593	1932.13	78.4683	1932.13	77.3749	1932.13	80.6455	1932.13	82.3438	1932.13	83.5168	1932.13	85.2966	1932.13	84.0482	1932.13	83.278	1932.13	72.9259	1932.13	71.3857	1932.13	78.1109	1932.13	79.9861	1932.13	81.052
1999.51	97.0452	1999.51	96.9371	1999.51	96.9294	1999.51	96.286	1999.51	95.9437	1999.51	94.7984	1999.51	94.2288	1999.51	92.8611	1999.51	92.803	1999.51	90.6703	1999.51	90.7865	1999.51	89.0558	1999.51	88.3448	1999.51	87.388	1999.51	86.4395	1999.51	84.6419	1999.51	84.8709	1999.51	85.2155	1999.51	84.1713	1999.51	86.1972	1999.51	83.07	1999.51	84.4397	1999.51	79.6428	1999.51	78.5571	1999.51	73.5348	1999.51	80.8658	1999.51	78.4296	1999.51	82.3733	1999.51	84.4126	1999.51	83.5155	1999.51	82.3524	1999.51	74.6851	1999.51	73.9593	1999.51	77.7493	1999.51	75.5201	1999.51	79.7515
2069.82	96.1395	2069.82	95.9565	2069.82	96.1542	2069.82	94.8121	2069.82	95.9154	2069.82	93.4057	2069.82	94.5446	2069.82	92.1735	2069.82	93.0415	2069.82	90.1494	2069.82	91.8724	2069.82	88.5498	2069.82	89.2724	2069.82	87.6178	2069.82	87.6382	2069.82	83.9183	2069.82	86.4377	2069.82	80.3137	2069.82	83.4457	2069.82	83.7238	2069.82	83.3228	2069.82	83.4686	2069.82	82.6998	2069.82	76.0993	2069.82	76.4951	2069.82	81.0643	2069.82	80.4987	2069.82	84.5152	2069.82	85.0759	2069.82	83.2861	2069.82	82.0495	2069.82	74.1253	2069.82	65.5443	2069.82	79.8703	2069.82	77.9821	2069.82	82.0275
2143.07	97.3188	2143.07	97.0834	2143.07	96.8145	2143.07	95.7405	2143.07	95.6792	2143.07	95.2081	2143.07	94.6357	2143.07	94.0305	2143.07	94.0501	2143.07	91.4015	2143.07	92.4715	2143.07	89.3615	2143.07	90.2244	2143.07	86.6165	2143.07	88.1619	2143.07	84.9428	2143.07	86.964	2143.07	84.6765	2143.07	84.9393	2143.07	84.1791	2143.07	80.7094	2143.07	83.864	2143.07	82.045	2143.07	80.2681	2143.07	79.0797	2143.07	71.4049	2143.07	79.5395	2143.07	84.5818	2143.07	86.7189	2143.07	86.3296	2143.07	86.289	2143.07	84.0557	2143.07	79.8223	2143.07	78.4352	2143.07	73.2376	2143.07	76.7631
2219.24	97.0046	2219.24	96.9485	2219.24	96.6348	2219.24	96.0086	2219.24	95.9062	2219.24	94.6102	2219.24	94.4809	2219.24	93.3687	2219.24	92.83	2219.24	92.3569	2219.24	91.9469	2219.24	90.7635	2219.24	89.7651	2219.24	88.0828	2219.24	87.0945	2219.24	85.6995	2219.24	86.4681	2219.24	84.1317	2219.24	85.189	2219.24	81.2687	2219.24	81.5296	2219.24	82.2103	2219.24	82.3827	2219.24	83.3737	2219.24	80.094	2219.24	76.8268	2219.24	63.7217	2219.24	78.5775	2219.24	82.6406	2219.24	85.3598	2219.24	86.4326	2219.24	83.5883	2219.24	79.9562	2219.24	71.5646	2219.24	46.3458	2219.24	63.1423
2296.88	96.1463	2296.88	95.9567	2296.88	95.868	2296.88	95.2542	2296.88	95.2559	2296.88	94.0239	2296.88	94.0425	2296.88	92.4402	2296.88	91.9693	2296.88	90.946	2296.88	89.9095	2296.88	89.4214	2296.88	89.0217	2296.88	87.7373	2296.88	87.236	2296.88	84.9781	2296.88	83.7001	2296.88	84.2545	2296.88	82.7988	2296.88	82.0262	2296.88	82.5299	2296.88	78.9244	2296.88	78.8534	2296.88	81.1894	2296.88	80.6388	2296.88	78.6329	2296.88	75.0686	2296.88	77.3051	2296.88	76.9786	2296.88	81.9095	2296.88	81.3242	2296.88	78.1798	2296.88	78.2635	2296.88	65.5721	2296.88	65.9161	2296.88	75.4531
2378.91	96.6473	2378.91	96.3218	2378.91	96.3319	2378.91	95.4626	2378.91	95.6039	2378.91	94.4604	2378.91	94.4871	2378.91	93.0416	2378.91	92.6995	2378.91	90.8622	2378.91	90.0813	2378.91	89.3579	2378.91	88.939	2378.91	88.3552	2378.91	87.9503	2378.91	85.4888	2378.91	85.178	2378.91	82.3766	2378.91	83.0853	2378.91	82.6536	2378.91	82.849	2378.91	77.4528	2378.91	78.0395	2378.91	76.5032	2378.91	78.9163	2378.91	77.542	2378.91	78.4739	2378.91	73.8271	2378.91	74.2589	2378.91	80.9132	2378.91	79.9579	2378.91	79.7161	2378.91	77.5464	2378.91	75.0257	2378.91	72.2476	2378.91	76.9355
2462.4	96.8208	2462.4	96.4351	2462.4	96.4495	2462.4	95.603	2462.4	95.3381	2462.4	94.5485	2462.4	94.2595	2462.4	93.0915	2462.4	92.4282	2462.4	90.8009	2462.4	89.7739	2462.4	88.3693	2462.4	88.2182	2462.4	87.8809	2462.4	87.4153	2462.4	86.5897	2462.4	86.0764	2462.4	82.8903	2462.4	83.0743	2462.4	82.7885	2462.4	82.4481	2462.4	80.9864	2462.4	80.1275	2462.4	74.3469	2462.4	75.8275	2462.4	78.6472	2462.4	80.4406	2462.4	76.9895	2462.4	73.7692	2462.4	75.8001	2462.4	74.8451	2462.4	72.1284	2462.4	70.7553	2462.4	74.2117	2462.4	75.4253	2462.4	78.8378
2548.83	95.4891	2548.83	95.282	2548.83	95.2531	2548.83	94.4079	2548.83	94.1393	2548.83	93.1819	2548.83	92.8462	2548.83	91.6764	2548.83	91.4293	2548.83	89.5283	2548.83	89.4081	2548.83	87.2838	2548.83	87.1215	2548.83	85.7225	2548.83	84.7957	2548.83	84.5771	2548.83	84.4231	2548.83	82.6745	2548.83	82.407	2548.83	81.6518	2548.83	79.0548	2548.83	80.5208	2548.83	80.2319	2548.83	77.5265	2548.83	74.5081	2548.83	76.8761	2548.83	77.9355	2548.83	77.79	2548.83	76.4691	2548.83	77.5131	2548.83	74.8041	2548.83	72.4874	2548.83	69.2339	2548.83	73.8984	2548.83	71.2155	2548.83	77.6388
2639.65	95.5215	2639.65	95.2292	2639.65	95.3444	2639.65	94.458	2639.65	94.3665	2639.65	93.1007	2639.65	93.133	2639.65	91.3845	2639.65	91.416	2639.65	89.5641	2639.65	89.5801	2639.65	87.0338	2639.65	87.4201	2639.65	84.9642	2639.65	84.8829	2639.65	83.1403	2639.65	82.6324	2639.65	80.6143	2639.65	81.4266	2639.65	78.4413	2639.65	78.2357	2639.65	77.9482	2639.65	79.4237	2639.65	75.8877	2639.65	77.0039	2639.65	75.1866	2639.65	75.1411	2639.65	74.1951	2639.65	75.3242	2639.65	75.0318	2639.65	77.0702	2639.65	71.8472	2639.65	71.8575	2639.65	69.4831	2639.65	70.7514	2639.65	72.5976
2731.93	95.3522	2731.93	95.1547	2731.93	94.9576	2731.93	94.396	2731.93	93.891	2731.93	92.9259	2731.93	92.4174	2731.93	91.1875	2731.93	90.727	2731.93	89.6398	2731.93	88.9912	2731.93	87.425	2731.93	86.5122	2731.93	85.5862	2731.93	84.449	2731.93	82.8371	2731.93	82.4443	2731.93	81.3268	2731.93	79.7398	2731.93	78.5231	2731.93	77.1082	2731.93	78.455	2731.93	76.9243	2731.93	77.0636	2731.93	76.8862	2731.93	73.0337	2731.93	74.2364	2731.93	71.3179	2731.93	73.182	2731.93	78.0956	2731.93	76.9666	2731.93	73.7479	2731.93	73.929	2731.93	62.0806	2731.93	68.8304	2731.93	74.8043
2828.61	94.6788	2828.61	94.5004	2828.61	94.2864	2828.61	93.6776	2828.61	93.3846	2828.61	92.2767	2828.61	91.8035	2828.61	90.3519	2828.61	89.8124	2828.61	88.7517	2828.61	88.1351	2828.61	86.7165	2828.61	86.2346	2828.61	84.7131	2828.61	83.8674	2828.61	82.3993	2828.61	81.759	2828.61	80.5542	2828.61	78.1967	2828.61	77.1368	2828.61	76.1813	2828.61	76.9877	2828.61	75.1747	2828.61	75.2631	2828.61	75.0318	2828.61	76.9416	2828.61	74.6722	2828.61	71.6163	2828.61	68.8424	2828.61	73.8966	2828.61	75.5735	2828.61	75.4003	2828.61	74.0927	2828.61	66.5588	2828.61	66.9979	2828.61	73.1876
2928.22	93.9011	2928.22	93.5618	2928.22	93.6094	2928.22	92.7642	2928.22	92.8609	2928.22	91.2391	2928.22	91.3546	2928.22	89.3995	2928.22	89.5162	2928.22	87.656	2928.22	87.8718	2928.22	85.333	2928.22	85.5069	2928.22	82.6519	2928.22	83.5764	2928.22	81.258	2928.22	81.2241	2928.22	79.7839	2928.22	78.0217	2928.22	75.0224	2928.22	75.998	2928.22	74.2462	2928.22	74.8886	2928.22	73.1245	2928.22	72.4393	2928.22	73.1826	2928.22	74.2216	2928.22	74.0484	2928.22	71.5917	2928.22	71.7601	2928.22	72.5629	2928.22	71.2829	2928.22	73.242	2928.22	65.955	2928.22	71.0638	2928.22	75.2874
3030.76	94.0893	3030.76	93.6522	3030.76	93.64	3030.76	92.9262	3030.76	93.0055	3030.76	91.4855	3030.76	91.6065	3030.76	89.9231	3030.76	89.6401	3030.76	87.812	3030.76	87.6642	3030.76	85.2878	3030.76	85.5279	3030.76	82.7229	3030.76	83.7558	3030.76	80.2395	3030.76	81.1204	3030.76	77.9389	3030.76	77.9779	3030.76	76.7144	3030.76	77.7396	3030.76	73.3639	3030.76	74.4808	3030.76	73.5054	3030.76	72.9522	3030.76	66.3391	3030.76	69.6021	3030.76	69.7099	3030.76	73.2735	3030.76	74.3273	3030.76	73.5189	3030.76	71.1593	3030.76	69.5198	3030.76	67.8215	3030.76	68.3526	3030.76	75.8518
3137.7	93.6676	3137.7	93.1993	3137.7	93.0999	3137.7	92.4843	3137.7	92.4996	3137.7	91.0893	3137.7	91.2887	3137.7	89.3597	3137.7	89.215	3137.7	87.7203	3137.7	87.289	3137.7	85.5606	3137.7	85.5009	3137.7	82.9721	3137.7	83.3597	3137.7	81.3815	3137.7	81.6318	3137.7	79.0924	3137.7	78.0106	3137.7	77.9675	3137.7	77.8672	3137.7	75.5061	3137.7	73.7614	3137.7	73.7384	3137.7	73.2817	3137.7	72.9088	3137.7	71.9878	3137.7	70.2238	3137.7	68.1146	3137.7	76.8814	3137.7	75.73	3137.7	74.0077	3137.7	71.1066	3137.7	64.7208	3137.7	69.1867	3137.7	74.6099
3249.02	93.8143	3249.02	93.3973	3249.02	93.3923	3249.02	92.2523	3249.02	92.6781	3249.02	91.1368	3249.02	91.5101	3249.02	89.192	3249.02	89.8845	3249.02	87.1874	3249.02	87.7322	3249.02	85.44	3249.02	86.119	3249.02	82.6932	3249.02	83.9675	3249.02	80.6018	3249.02	82.1804	3249.02	78.9862	3249.02	79.5182	3249.02	75.2216	3249.02	76.675	3249.02	73.243	3249.02	75.0135	3249.02	71.2278	3249.02	74.1548	3249.02	73.0799	3249.02	73.8714	3249.02	67.1181	3249.02	68.4897	3249.02	72.1539	3249.02	76.6072	3249.02	74.5135	3249.02	73.2337	3249.02	60.4607	3249.02	66.4843	3249.02	73.7258
3363.28	93.3441	3363.28	92.8963	3363.28	92.9095	3363.28	92.1731	3363.28	92.0097	3363.28	91.1417	3363.28	90.7747	3363.28	90.0072	3363.28	89.2967	3363.28	88.0543	3363.28	87.3518	3363.28	86.405	3363.28	85.4776	3363.28	84.2166	3363.28	83.127	3363.28	81.8064	3363.28	80.7819	3363.28	79.9487	3363.28	79.0497	3363.28	76.6849	3363.28	75.808	3363.28	75.486	3363.28	75.3528	3363.28	70.9717	3363.28	70.9548	3363.28	72.6429	3363.28	73.1153	3363.28	67.3912	3363.28	66.6156	3363.28	73.0454	3363.28	73.6847	3363.28	74.9916	3363.28	73.8129	3363.28	62.9471	3363.28	63.4119	3363.28	74.0497
3481.93	93.9768	3481.93	93.5772	3481.93	93.8584	3481.93	92.78	3481.93	93.2046	3481.93	91.2702	3481.93	92.1201	3481.93	89.9772	3481.93	90.5947	3481.93	88.2908	3481.93	89.0458	3481.93	85.8659	3481.93	86.9808	3481.93	83.5146	3481.93	84.7512	3481.93	81.7696	3481.93	82.3239	3481.93	79.549	3481.93	81.192	3481.93	75.8796	3481.93	77.7607	3481.93	76.3546	3481.93	77.3717	3481.93	70.3677	3481.93	71.8402	3481.93	72.5126	3481.93	74.0359	3481.93	70.9363	3481.93	72.0679	3481.93	75.1052	3481.93	73.5987	3481.93	75.2301	3481.93	75.007	3481.93	64.7962	3481.93	64.2906	3481.93	74.9115
3604.98	94.0512	3604.98	93.8751	3604.98	93.8471	3604.98	93.3713	3604.98	93.2308	3604.98	92.275	3604.98	92.2059	3604.98	90.8502	3604.98	90.4152	3604.98	89.652	3604.98	88.98	3604.98	87.5553	3604.98	86.466	3604.98	85.3838	3604.98	84.5936	3604.98	83.515	3604.98	82.4208	3604.98	81.1718	3604.98	80.0518	3604.98	77.6009	3604.98	76.8877	3604.98	77.2026	3604.98	76.0357	3604.98	72.6366	3604.98	71.1597	3604.98	73.9857	3604.98	71.7743	3604.98	67.2525	3604.98	69.297	3604.98	73.6541	3604.98	74.8463	3604.98	74.7199	3604.98	74.4709	3604.98	62.7403	3604.98	68.6552	3604.98	72.6942
3732.42	94.9729	3732.42	94.5309	3732.42	94.7945	3732.42	93.8337	3732.42	94.1815	3732.42	92.695	3732.42	93.1881	3732.42	90.8721	3732.42	91.3693	3732.42	88.9714	3732.42	89.7937	3732.42	86.7801	3732.42	87.4926	3732.42	83.9524	3732.42	85.3214	3732.42	82.2523	3732.42	83.1843	3732.42	79.5863	3732.42	80.3838	3732.42	76.4357	3732.42	77.3503	3732.42	76.3796	3732.42	77.4057	3732.42	72.8193	3732.42	73.9753	3732.42	74.4691	3732.42	74.6683	3732.42	65.7505	3732.42	68.8622	3732.42	72.5223	3732.42	75.3245	3732.42	76.1989	3732.42	75.4139	3732.42	53.0135	3732.42	61.5587	3732.42	71.4382
3864.26	94.8932	3864.26	94.4713	3864.26	94.3372	3864.26	93.7445	3864.26	93.5681	3864.26	92.6684	3864.26	92.6857	3864.26	91.5411	3864.26	90.9091	3864.26	89.658	3864.26	88.8041	3864.26	87.8582	3864.26	86.5744	3864.26	84.4958	3864.26	83.7793	3864.26	82.8706	3864.26	81.6238	3864.26	79.2569	3864.26	79.0026	3864.26	77.7273	3864.26	77.0833	3864.26	73.2119	3864.26	74.744	3864.26	74.8342	3864.26	72.0283	3864.26	72.6037	3864.26	73.4943	3864.26	71.7033	3864.26	69.0493	3864.26	68.3305	3864.26	74.19	3864.26	76.0904	3864.26	74.3216	3864.26	63.7276	3864.26	47.8784	3864.26	71.6767
4000.49	94.3641	4000.49	93.9095	4000.49	94.1647	4000.49	93.3167	4000.49	93.4837	4000.49	92.0592	4000.49	92.2006	4000.49	90.8049	4000.49	91.044	4000.49	88.5371	4000.49	89.0932	4000.49	86.6215	4000.49	86.7964	4000.49	83.4607	4000.49	83.9212	4000.49	81.4215	4000.49	82.1361	4000.49	79.316	4000.49	79.4409	4000.49	77.4827	4000.49	77.5865	4000.49	71.9401	4000.49	72.4745	4000.49	76.3275	4000.49	74.8865	4000.49	67.0119	4000.49	69.4719	4000.49	75.2598	4000.49	71.082	4000.49	70.8888	4000.49	70.0828	4000.49	74.4133	4000.49	77.2647	4000.49	64.9374	4000.49	69.4599	4000.49	72.5361
4141.11	94.1183	4141.11	93.9983	4141.11	93.8007	4141.11	93.5578	4141.11	93.3908	4141.11	92.4707	4141.11	92.1458	4141.11	91.0043	4141.11	90.4381	4141.11	89.6852	4141.11	88.5379	4141.11	87.2464	4141.11	86.3127	4141.11	84.7287	4141.11	83.9067	4141.11	82.7962	4141.11	81.5115	4141.11	79.2296	4141.11	78.873	4141.11	77.2168	4141.11	77.6096	4141.11	73.709	4141.11	74.8368	4141.11	71.75	4141.11	71.6439	4141.11	70.2806	4141.11	70.229	4141.11	70.831	4141.11	69.1335	4141.11	73.1692	4141.11	71.4612	4141.11	74.994	4141.11	75.5352	4141.11	68.4521	4141.11	70.2679	4141.11	73.1341
4287.6	94.314	4287.6	93.9192	4287.6	94.0192	4287.6	93.3205	4287.6	93.3867	4287.6	92.1599	4287.6	92.3253	4287.6	90.2478	4287.6	90.2974	4287.6	88.5823	4287.6	88.6334	4287.6	86.3252	4287.6	86.2835	4287.6	83.8405	4287.6	84.1724	4287.6	82.2655	4287.6	81.3411	4287.6	78.8079	4287.6	76.8567	4287.6	77.4041	4287.6	77.0322	4287.6	74.8356	4287.6	73.3294	4287.6	73.9186	4287.6	72.7127	4287.6	70.4596	4287.6	72.2456	4287.6	64.0434	4287.6	70.2088	4287.6	74.0862	4287.6	71.2914	4287.6	74.9736	4287.6	74.0663	4287.6	66.5975	4287.6	66.9117	4287.6	72.9724
4438.48	94.3655	4438.48	94.1114	4438.48	93.8314	4438.48	93.5436	4438.48	93.2569	4438.48	92.5969	4438.48	91.9684	4438.48	90.7202	4438.48	90.2835	4438.48	88.8265	4438.48	88.1585	4438.48	86.7191	4438.48	85.7442	4438.48	84.0467	4438.48	83.7052	4438.48	81.6192	4438.48	81.7987	4438.48	79.8004	4438.48	80.8034	4438.48	75.6336	4438.48	77.5348	4438.48	74.5378	4438.48	75.8237	4438.48	72.5063	4438.48	72.8428	4438.48	70.4275	4438.48	71.0036	4438.48	69.8932	4438.48	71.9388	4438.48	70.0739	4438.48	71.5398	4438.48	70.9912	4438.48	71.462	4438.48	69.0414	4438.48	69.3065	4438.48	72.8171
4595.21	94.1781	4595.21	94.1897	4595.21	94.2095	4595.21	93.5047	4595.21	93.5432	4595.21	92.0728	4595.21	92.2986	4595.21	90.6776	4595.21	90.5884	4595.21	88.9087	4595.21	88.7907	4595.21	85.7926	4595.21	86.3134	4595.21	83.6458	4595.21	84.5344	4595.21	82.3994	4595.21	82.5399	4595.21	80.31	4595.21	80.777	4595.21	78.0744	4595.21	76.8719	4595.21	74.9165	4595.21	74.6863	4595.21	73.8454	4595.21	74.3676	4595.21	72.9779	4595.21	70.6007	4595.21	68.6096	4595.21	69.5716	4595.21	73.3702	4595.21	70.9112	4595.21	70.3417	4595.21	71.3171	4595.21	70.8938	4595.21	65.9743	4595.21	69.2265
4756.35	94.454	4756.35	94.412	4756.35	94.4505	4756.35	94.1101	4756.35	94.1681	4756.35	93.172	4756.35	92.7577	4756.35	91.1453	4756.35	91.0437	4756.35	89.5879	4756.35	88.9043	4756.35	87.3722	4756.35	87.117	4756.35	85.6692	4756.35	84.5697	4756.35	83.0894	4756.35	81.8178	4756.35	80.72	4756.35	78.7251	4756.35	77.8336	4756.35	78.7283	4756.35	75.0143	4756.35	74.7164	4756.35	72.7325	4756.35	72.0516	4756.35	69.2485	4756.35	71.156	4756.35	67.7215	4756.35	70.0632	4756.35	75.5526	4756.35	74.0455	4756.35	71.5788	4756.35	71.8675	4756.35	70.9828	4756.35	67.9485	4756.35	73.6123
4924.8	95.5351	4924.8	95.2299	4924.8	95.43	4924.8	94.8819	4924.8	94.9728	4924.8	93.682	4924.8	93.6064	4924.8	91.4352	4924.8	91.7919	4924.8	89.2056	4924.8	89.5679	4924.8	86.7674	4924.8	86.948	4924.8	84.0266	4924.8	85.3231	4924.8	82.5024	4924.8	83.4125	4924.8	79.8363	4924.8	81.4534	4924.8	77.1983	4924.8	78.6136	4924.8	77.123	4924.8	77.7899	4924.8	73.3468	4924.8	74.1067	4924.8	71.5311	4924.8	72.4885	4924.8	70.0176	4924.8	71.9749	4924.8	73.3818	4924.8	73.478	4924.8	73.3762	4924.8	71.2763	4924.8	66.5151	4924.8	70.8954	4924.8	72.2181
5097.66	96.0019	5097.66	95.7423	5097.66	95.9397	5097.66	94.8843	5097.66	95.2986	5097.66	93.3257	5097.66	93.7539	5097.66	91.2632	5097.66	91.4399	5097.66	89.2925	5097.66	89.4237	5097.66	86.6653	5097.66	87.119	5097.66	85.1694	5097.66	85.0704	5097.66	82.7277	5097.66	82.7091	5097.66	80.8475	5097.66	81.3281	5097.66	78.1003	5097.66	78.4717	5097.66	75.5372	5097.66	75.7309	5097.66	73.2971	5097.66	73.8842	5097.66	70.1237	5097.66	68.8769	5097.66	68.8753	5097.66	66.3134	5097.66	73.2545	5097.66	70.913	5097.66	72.1016	5097.66	72.7078	5097.66	70.8727	5097.66	68.4748	5097.66	69.1863
5277.83	95.8359	5277.83	95.6679	5277.83	95.5505	5277.83	94.9611	5277.83	94.7949	5277.83	93.3175	5277.83	92.9447	5277.83	90.8688	5277.83	90.4827	5277.83	89.0075	5277.83	88.1796	5277.83	86.7223	5277.83	86.5214	5277.83	84.9551	5277.83	84.7545	5277.83	83.0731	5277.83	82.3139	5277.83	80.6792	5277.83	79.3489	5277.83	76.986	5277.83	77.0802	5277.83	75.2825	5277.83	74.3369	5277.83	70.3163	5277.83	69.8214	5277.83	69.3917	5277.83	73.6524	5277.83	67.4889	5277.83	70.9828	5277.83	72.3066	5277.83	71.6661	5277.83	70.3585	5277.83	72.6263	5277.83	72.2104	5277.83	71.1023	5277.83	67.4291
5463.87	96.0968	5463.87	95.8551	5463.87	95.8766	5463.87	94.9792	5463.87	94.7798	5463.87	93.0471	5463.87	92.6859	5463.87	90.2741	5463.87	90.4142	5463.87	88.7053	5463.87	88.0039	5463.87	86.0068	5463.87	85.8757	5463.87	84.1531	5463.87	83.9605	5463.87	82.4289	5463.87	81.4452	5463.87	78.773	5463.87	79.7382	5463.87	77.3066	5463.87	77.838	5463.87	74.3819	5463.87	74.9405	5463.87	71.8591	5463.87	71.937	5463.87	68.8151	5463.87	69.9925	5463.87	64.4599	5463.87	67.9261	5463.87	71.1968	5463.87	72.1693	5463.87	69.0808	5463.87	71.616	5463.87	69.5279	5463.87	71.6702	5463.87	65.7074
5657.23	95.9281	5657.23	95.5771	5657.23	95.6158	5657.23	94.4147	5657.23	94.4601	5657.23	92.3703	5657.23	92.3586	5657.23	90.028	5657.23	89.9629	5657.23	87.8567	5657.23	88.1063	5657.23	86.0012	5657.23	85.8362	5657.23	84.3382	5657.23	83.5888	5657.23	81.7587	5657.23	81.7826	5657.23	79.8395	5657.23	78.2133	5657.23	76.6022	5657.23	76.0384	5657.23	74.864	5657.23	73.4405	5657.23	71.3139	5657.23	70.46	5657.23	69.4791	5657.23	68.9559	5657.23	65.5435	5657.23	67.458	5657.23	69.4291	5657.23	70.0954	5657.23	67.0848	5657.23	68.7444	5657.23	70.1131	5657.23	70.9595	5657.23	67.4227
5856.45	96.0871	5856.45	95.9151	5856.45	95.8737	5856.45	94.7231	5856.45	94.616	5856.45	92.9539	5856.45	92.5812	5856.45	90.78	5856.45	90.515	5856.45	89.0502	5856.45	88.2435	5856.45	86.2264	5856.45	85.867	5856.45	84.2263	5856.45	83.6899	5856.45	81.1719	5856.45	81.0334	5856.45	78.6016	5856.45	78.8045	5856.45	76.9012	5856.45	76.4372	5856.45	74.3753	5856.45	74.1632	5856.45	70.3655	5856.45	71.1509	5856.45	67.5561	5856.45	68.1624	5856.45	65.4908	5856.45	65.1733	5856.45	67.9918	5856.45	69.1806	5856.45	70.1662	5856.45	71.0307	5856.45	69.9639	5856.45	69.3924	5856.45	65.3558
6062.99	96.3332	6062.99	96.2221	6062.99	95.9584	6062.99	95.1838	6062.99	94.6524	6062.99	93.6215	6062.99	92.856	6062.99	91.6852	6062.99	90.8109	6062.99	89.3087	6062.99	88.5429	6062.99	86.5564	6062.99	86.127	6062.99	83.7812	6062.99	83.0958	6062.99	81.2672	6062.99	80.8943	6062.99	78.6512	6062.99	78.8387	6062.99	76.3706	6062.99	76.7422	6062.99	74.4531	6062.99	74.4765	6062.99	71.7749	6062.99	72.1236	6062.99	69.9207	6062.99	71.7996	6062.99	64.5221	6062.99	66.5387	6062.99	70.1164	6062.99	68.7968	6062.99	69.7357	6062.99	68.7722	6062.99	70.704	6062.99	70.9032	6062.99	61.8628
6276.86	96.7154	6276.86	96.6242	6276.86	96.3255	6276.86	95.5474	6276.86	94.96	6276.86	94.0884	6276.86	93.329	6276.86	92.1165	6276.86	91.478	6276.86	89.8215	6276.86	89.2237	6276.86	86.85	6276.86	86.8769	6276.86	84.3746	6276.86	84.7209	6276.86	81.8499	6276.86	81.9744	6276.86	79.806	6276.86	79.35	6276.86	77.2906	6276.86	77.5082	6276.86	75.5357	6276.86	74.3343	6276.86	73.6558	6276.86	72.952	6276.86	72.134	6276.86	71.0941	6276.86	66.5354	6276.86	68.7154	6276.86	69.8695	6276.86	68.3421	6276.86	69.4604	6276.86	68.5592	6276.86	71.5052	6276.86	71.4256	6276.86	61.994
6498.05	96.9841	6498.05	96.8416	6498.05	96.4187	6498.05	95.6403	6498.05	94.898	6498.05	94.2733	6498.05	93.4488	6498.05	92.4648	6498.05	91.6476	6498.05	90.2618	6498.05	89.5545	6498.05	87.5087	6498.05	87.1289	6498.05	85.1923	6498.05	84.5732	6498.05	83.096	6498.05	81.8464	6498.05	80.8855	6498.05	79.8773	6498.05	78.2381	6498.05	77.3386	6498.05	75.6874	6498.05	75.2135	6498.05	73.0572	6498.05	73.0772	6498.05	72.2003	6498.05	71.9673	6498.05	70.1143	6498.05	68.0487	6498.05	68.5531	6498.05	70.4716	6498.05	72.1149	6498.05	70.653	6498.05	71.6651	6498.05	71.7296	6498.05	61.4268
6726.56	96.8124	6726.56	96.5765	6726.56	96.1687	6726.56	95.2062	6726.56	94.3923	6726.56	93.7954	6726.56	92.9204	6726.56	92.0743	6726.56	91.3689	6726.56	90.1001	6726.56	89.0433	6726.56	87.1862	6726.56	86.7468	6726.56	84.9697	6726.56	84.2781	6726.56	82.5799	6726.56	81.6	6726.56	79.3408	6726.56	79.3612	6726.56	77.6267	6726.56	77.6268	6726.56	75.1196	6726.56	75.1169	6726.56	73.9092	6726.56	71.3864	6726.56	70.264	6726.56	73.0833	6726.56	66.9706	6726.56	68.1807	6726.56	68.8591	6726.56	66.5712	6726.56	70.4969	6726.56	65.4937	6726.56	71.852	6726.56	71.3891	6726.56	61.2116
6963.87	96.7636	6963.87	96.3651	6963.87	95.991	6963.87	94.7498	6963.87	94.1909	6963.87	93.4952	6963.87	92.9036	6963.87	91.9815	6963.87	91.2576	6963.87	89.8338	6963.87	88.8787	6963.87	86.9099	6963.87	86.1437	6963.87	84.3277	6963.87	83.6318	6963.87	82.0807	6963.87	81.3729	6963.87	79.2815	6963.87	79.0045	6963.87	77.3119	6963.87	76.8638	6963.87	74.8694	6963.87	73.8845	6963.87	71.632	6963.87	73.9656	6963.87	70.3429	6963.87	66.3813	6963.87	68.869	6963.87	68.678	6963.87	67.7487	6963.87	68.5052	6963.87	70.2342	6963.87	68.2849	6963.87	70.8965	6963.87	71.1063	6963.87	61.5191
7209.96	96.8034	7209.96	96.3139	7209.96	96.1264	7209.96	94.7106	7209.96	94.2721	7209.96	93.4763	7209.96	92.9188	7209.96	91.8802	7209.96	91.2826	7209.96	89.4732	7209.96	88.6551	7209.96	86.3776	7209.96	86.0039	7209.96	84.0071	7209.96	83.2628	7209.96	81.4556	7209.96	80.0366	7209.96	79.3091	7209.96	78.5785	7209.96	77.2609	7209.96	75.8384	7209.96	73.8657	7209.96	73.78	7209.96	72.541	7209.96	72.0754	7209.96	66.2862	7209.96	67.9647	7209.96	65.234	7209.96	65.2673	7209.96	63.4868	7209.96	66.3348	7209.96	69.6828	7209.96	68.7271	7209.96	69.7713	7209.96	68.0409	7209.96	61.0045
7464.84	96.7575	7464.84	96.3521	7464.84	96.0642	7464.84	94.5662	7464.84	94.2079	7464.84	93.253	7464.84	92.8698	7464.84	91.6125	7464.84	91.0025	7464.84	89.0331	7464.84	88.2611	7464.84	85.8452	7464.84	85.4265	7464.84	83.5897	7464.84	82.6503	7464.84	80.966	7464.84	80.2639	7464.84	78.817	7464.84	78.5058	7464.84	75.9806	7464.84	75.3239	7464.84	73.2927	7464.84	73.1353	7464.84	71.5855	7464.84	71.865	7464.84	71.0066	7464.84	65.0717	7464.84	66.8552	7464.84	66.0542	7464.84	64.2677	7464.84	61.2607	7464.84	69.8794	7464.84	64.6287	7464.84	69.2373	7464.84	68.6052	7464.84	57.5637
7727.05	96.5397	7727.05	96.1813	7727.05	95.7758	7727.05	94.2684	7727.05	93.8677	7727.05	92.9375	7727.05	92.539	7727.05	91.5082	7727.05	90.8346	7727.05	88.9622	7727.05	88.2793	7727.05	86.0156	7727.05	85.3104	7727.05	83.5677	7727.05	83.013	7727.05	81.1497	7727.05	80.1503	7727.05	78.9713	7727.05	78.9623	7727.05	77.0618	7727.05	76.0241	7727.05	75.0191	7727.05	73.8545	7727.05	71.2735	7727.05	71.3053	7727.05	68.8102	7727.05	70.2595	7727.05	65.446	7727.05	62.0183	7727.05	65.9271	7727.05	68.0106	7727.05	69.5613	7727.05	69.1778	7727.05	66.6183	7727.05	68.8416	7727.05	56.3354
7999.51	96.4364	7999.51	96.0466	7999.51	95.6746	7999.51	94.0782	7999.51	93.7321	7999.51	92.8444	7999.51	92.5322	7999.51	91.4327	7999.51	90.7651	7999.51	88.9403	7999.51	88.4557	7999.51	86.234	7999.51	86.1557	7999.51	83.8413	7999.51	84.0732	7999.51	81.8649	7999.51	81.3564	7999.51	79.5837	7999.51	79.1309	7999.51	77.1261	7999.51	77.0649	7999.51	74.1636	7999.51	73.7348	7999.51	72.6456	7999.51	74.0942	7999.51	70.2257	7999.51	61.1845	7999.51	66.9288	7999.51	63.7497	7999.51	66.1609	7999.51	61.9501	7999.51	71.0731	7999.51	69.0518	7999.51	68.2667	7999.51	68.2325	7999.51	58.8915
8282.23	96.2017	8282.23	95.7901	8282.23	95.4858	8282.23	94.1175	8282.23	93.7351	8282.23	92.9822	8282.23	92.6259	8282.23	91.7409	8282.23	91.2489	8282.23	89.2649	8282.23	89.0783	8282.23	86.3138	8282.23	86.4848	8282.23	83.443	8282.23	83.9639	8282.23	81.8021	8282.23	80.9846	8282.23	78.1121	8282.23	78.9724	8282.23	76.813	8282.23	77.0761	8282.23	74.5565	8282.23	73.7817	8282.23	72.7697	8282.23	71.2039	8282.23	68.7605	8282.23	70.6117	8282.23	64.1811	8282.23	60.4715	8282.23	66.3775	8282.23	67.2548	8282.23	70.4215	8282.23	68.7715	8282.23	66.7214	8282.23	68.6002	8282.23	53.9937
8573.73	95.6624	8573.73	95.1599	8573.73	95.0684	8573.73	93.9635	8573.73	93.9732	8573.73	93.2405	8573.73	93.1308	8573.73	91.9714	8573.73	91.4524	8573.73	89.2755	8573.73	88.9306	8573.73	86.4829	8573.73	86.3249	8573.73	83.5718	8573.73	83.2743	8573.73	81.2796	8573.73	80.7337	8573.73	78.4142	8573.73	78.3227	8573.73	76.7715	8573.73	76.0413	8573.73	73.3772	8573.73	73.1301	8573.73	72.6881	8573.73	71.9627	8573.73	68.0212	8573.73	69.6227	8573.73	65.2018	8573.73	57.9801	8573.73	62.3696	8573.73	61.7939	8573.73	70.9659	8573.73	70.0303	8573.73	67.3029	8573.73	66.1786	8573.73	57.7147
8876.95	95.2632	8876.95	94.7763	8876.95	94.7616	8876.95	94.1781	8876.95	94.1118	8876.95	93.4012	8876.95	92.9182	8876.95	91.7351	8876.95	90.9254	8876.95	89.0064	8876.95	88.1921	8876.95	86.4086	8876.95	85.4092	8876.95	83.9724	8876.95	82.3791	8876.95	81.3114	8876.95	79.982	8876.95	77.7725	8876.95	77.5341	8876.95	75.731	8876.95	74.5248	8876.95	73.3699	8876.95	73.4477	8876.95	71.3926	8876.95	71.7796	8876.95	66.5308	8876.95	66.9282	8876.95	63.4843	8876.95	63.1811	8876.95	54.1746	8876.95	58.0963	8876.95	70.2848	8876.95	69.902	8876.95	65.4393	8876.95	67.2945	8876.95	56.8228
9188.96	94.7686	9188.96	94.5802	9188.96	94.5538	9188.96	94.2466	9188.96	94.0254	9188.96	93.1432	9188.96	92.3793	9188.96	91.1489	9188.96	90.2395	9188.96	88.5858	9188.96	87.6248	9188.96	86.0038	9188.96	84.6472	9188.96	83.6215	9188.96	81.4744	9188.96	79.8888	9188.96	78.5788	9188.96	76.4389	9188.96	76.4813	9188.96	75.204	9188.96	72.478	9188.96	72.8897	9188.96	72.9654	9188.96	68.2791	9188.96	70.5849	9188.96	65.7133	9188.96	66.5521	9188.96	66.3274	9188.96	65.3396	9188.96	50.457	9188.96	50.411	9188.96	67.4293	9188.96	68.227	9188.96	65.8817	9188.96	66.3098	9188.96	56.6692
9514.16	94.6523	9514.16	94.7634	9514.16	94.8641	9514.16	94.4019	9514.16	93.9534	9514.16	92.9234	9514.16	91.9755	9514.16	90.9869	9514.16	90.0377	9514.16	87.8828	9514.16	86.5627	9514.16	83.7984	9514.16	83.2867	9514.16	79.7544	9514.16	79.3898	9514.16	77.6046	9514.16	76.1697	9514.16	74.8698	9514.16	73.7553	9514.16	73.6303	9514.16	72.0782	9514.16	69.1321	9514.16	69.1285	9514.16	69.181	9514.16	67.1495	9514.16	64.1301	9514.16	64.5832	9514.16	63.6151	9514.16	66.9929	9514.16	53.7028	9514.16	52.8209	9514.16	68.1907	9514.16	64.7257	9514.16	61.265	9514.16	66.6042	9514.16	54.8985
9849.61	94.9106	9849.61	94.8639	9849.61	95.167	9849.61	94.5003	9849.61	94.2803	9849.61	92.7284	9849.61	92.2543	9849.61	90.6273	9849.61	89.7056	9849.61	86.358	9849.61	84.9303	9849.61	82.4852	9849.61	82.3298	9849.61	78.1378	9849.61	79.146	9849.61	76.7122	9849.61	75.577	9849.61	73.522	9849.61	74.1234	9849.61	71.0872	9849.61	70.1467	9849.61	67.5408	9849.61	67.9979	9849.61	66.1679	9849.61	66.8027	9849.61	64.2285	9849.61	65.4168	9849.61	63.9251	9849.61	66.6495	9849.61	55.9316	9849.61	50.6323	9849.61	63.7774	9849.61	61.0691	9849.61	64.0219	9849.61	62.869	9849.61	45.2846
10196.8	95.3886	10196.8	95.3728	10196.8	95.7209	10196.8	94.7345	10196.8	94.7311	10196.8	92.2657	10196.8	92.2235	10196.8	89.5332	10196.8	88.7547	10196.8	85.1367	10196.8	84.6562	10196.8	83.7351	10196.8	82.554	10196.8	80.2715	10196.8	78.7823	10196.8	75.4914	10196.8	75.4082	10196.8	72.495	10196.8	72.8599	10196.8	69.7839	10196.8	67.1218	10196.8	69.0505	10196.8	70.2873	10196.8	64.5745	10196.8	66.6388	10196.8	65.5288	10196.8	66.0027	10196.8	65.8094	10196.8	65.7554	10196.8	58.8881	10196.8	62.9843	10196.8	64.4043	10196.8	59.0964	10196.8	65.3762	10196.8	62.9563	10196.8	50.0292
10555.7	95.5303	10555.7	95.4996	10555.7	95.7957	10555.7	94.6746	10555.7	94.6118	10555.7	92.3326	10555.7	92.2779	10555.7	90.0421	10555.7	89.1398	10555.7	86.848	10555.7	86.787	10555.7	84.0841	10555.7	84.0747	10555.7	78.9878	10555.7	78.9772	10555.7	77.195	10555.7	75.3691	10555.7	75.5265	10555.7	74.5565	10555.7	72.8088	10555.7	73.4373	10555.7	70.0925	10555.7	71.6828	10555.7	67.8544	10555.7	67.9968	10555.7	69.2285	10555.7	68.0798	10555.7	68.0599	10555.7	68.943	10555.7	65.5555	10555.7	62.8148	10555.7	64.6484	10555.7	58.0509	10555.7	65.124	10555.7	64.9075	10555.7	58.7923
10927.7	94.9936	10927.7	95.3831	10927.7	95.7895	10927.7	94.8926	10927.7	94.8854	10927.7	93.1217	10927.7	93.0494	10927.7	91.4406	10927.7	90.6515	10927.7	88.6028	10927.7	88.7477	10927.7	86.2589	10927.7	86.5633	10927.7	81.493	10927.7	82.798	10927.7	80.4972	10927.7	78.3847	10927.7	78.3909	10927.7	77.5254	10927.7	75.5473	10927.7	75.4873	10927.7	73.143	10927.7	71.0365	10927.7	71.6012	10927.7	70.0574	10927.7	70.7657	10927.7	69.9339	10927.7	68.7297	10927.7	69.2895	10927.7	64.8457	10927.7	65.0955	10927.7	62.4698	10927.7	61.7446	10927.7	68.1243	10927.7	65.7632	10927.7	58.7292
11313	94.9293	11313	95.8484	11313	96.279	11313	95.6691	11313	95.7662	11313	93.5659	11313	93.8026	11313	92.4506	11313	92.0399	11313	89.9689	11313	90.0272	11313	87.6851	11313	87.228	11313	84.2052	11313	83.6354	11313	81.5804	11313	80.0715	11313	80.2275	11313	78.8835	11313	76.2522	11313	75.1491	11313	74.5657	11313	73.767	11313	72.5506	11313	71.7346	11313	70.5437	11313	69.557	11313	69.5198	11313	68.2683	11313	66.3487	11313	65.4128	11313	65.7572	11313	62.7954	11313	68.2652	11313	65.5042	11313	62.6713
11712.9	95.0547	11712.9	96.3424	11712.9	96.3127	11712.9	96.0859	11712.9	96.2593	11712.9	94.335	11712.9	94.3043	11712.9	93.6026	11712.9	93.2451	11712.9	90.5873	11712.9	90.6875	11712.9	88.1788	11712.9	87.2417	11712.9	84.7387	11712.9	84.0464	11712.9	81.801	11712.9	80.8459	11712.9	79.8764	11712.9	79.5685	11712.9	76.6252	11712.9	76.5093	11712.9	75.1566	11712.9	75.0597	11712.9	72.25	11712.9	71.8077	11712.9	71.1177	11712.9	70.7362	11712.9	69.181	11712.9	68.1878	11712.9	64.494	11712.9	65.3834	11712.9	64.9301	11712.9	62.2492	11712.9	67.7905	11712.9	64.3033	11712.9	61.4534
12126	95.7389	12126	97.0961	12126	96.5904	12126	96.6208	12126	96.585	12126	94.7392	12126	94.7126	12126	93.5838	12126	93.7064	12126	90.2527	12126	90.5294	12126	87.9553	12126	87.3119	12126	84.5291	12126	84.4375	12126	82.1395	12126	80.5075	12126	79.41	12126	78.9037	12126	76.5465	12126	75.853	12126	74.2165	12126	73.5419	12126	72.2097	12126	70.9004	12126	70.123	12126	70.225	12126	67.93	12126	67.4438	12126	63.9637	12126	65.6305	12126	63.4895	12126	64.0836	12126	66.2974	12126	62.2724	12126	59.4733
12553.7	96.0743	12553.7	97.2752	12553.7	96.8463	12553.7	96.7155	12553.7	96.5477	12553.7	94.7984	12553.7	94.922	12553.7	93.7777	12553.7	94.0184	12553.7	90.2179	12553.7	90.0859	12553.7	88.1787	12553.7	87.7031	12553.7	84.4281	12553.7	85.1185	12553.7	81.7046	12553.7	80.3778	12553.7	79.5726	12553.7	78.7571	12553.7	76.2269	12553.7	74.4773	12553.7	74.4813	12553.7	72.2455	12553.7	72.4734	12553.7	70.671	12553.7	69.8687	12553.7	70.2527	12553.7	66.7996	12553.7	67.129	12553.7	61.5286	12553.7	64.5836	12553.7	63.0618	12553.7	63.2508	12553.7	66.1162	12553.7	63.1246	12553.7	58.5426
12996.1	95.9921	12996.1	96.9746	12996.1	96.6769	12996.1	96.5124	12996.1	96.0558	12996.1	94.9194	12996.1	95.0277	12996.1	93.9004	12996.1	93.6926	12996.1	90.1047	12996.1	89.6275	12996.1	88.6769	12996.1	88.1344	12996.1	84.7819	12996.1	84.7035	12996.1	81.4051	12996.1	79.5084	12996.1	79.5269	12996.1	77.7866	12996.1	75.3449	12996.1	73.3161	12996.1	74.628	12996.1	72.0873	12996.1	71.979	12996.1	70.059	12996.1	68.8504	12996.1	69.0206	12996.1	66.4553	12996.1	65.6649	12996.1	60.6367	12996.1	63.9609	12996.1	61.8438	12996.1	64.2475	12996.1	66.6465	12996.1	61.398	12996.1	56.6205
13454.6	95.2211	13454.6	96.1184	13454.6	96.1092	13454.6	96.1508	13454.6	95.6562	13454.6	95.2485	13454.6	95.5788	13454.6	94.0182	13454.6	93.5985	13454.6	90.2012	13454.6	90.4445	13454.6	88.5688	13454.6	88.1731	13454.6	84.0749	13454.6	83.3846	13454.6	80.1022	13454.6	77.8862	13454.6	78.0073	13454.6	76.5634	13454.6	74.3935	13454.6	73.6201	13454.6	74.0295	13454.6	72.3941	13454.6	69.9629	13454.6	69.8053	13454.6	67.0043	13454.6	68.5637	13454.6	64.8063	13454.6	64.2177	13454.6	60.1157	13454.6	63.2286	13454.6	60.8738	13454.6	64.441	13454.6	64.7666	13454.6	58.8702	13454.6	52.9892
13929.2	93.7693	13929.2	94.8623	13929.2	94.9775	13929.2	95.6534	13929.2	95.244	13929.2	95.3937	13929.2	95.6669	13929.2	93.834	13929.2	93.401	13929.2	89.7433	13929.2	90.7639	13929.2	87.4782	13929.2	87.073	13929.2	82.0353	13929.2	81.9098	13929.2	78.6677	13929.2	77.2418	13929.2	75.8207	13929.2	75.3049	13929.2	72.9582	13929.2	73.3606	13929.2	71.6829	13929.2	70.4442	13929.2	68.1449	13929.2	68.2581	13929.2	66.6701	13929.2	67.3234	13929.2	61.9234	13929.2	62.2429	13929.2	56.5293	13929.2	58.9128	13929.2	58.8251	13929.2	64.2422	13929.2	62.7396	13929.2	57.9468	13929.2	49.4617
14419.9	91.9744	14419.9	93.6874	14419.9	93.6059	14419.9	95.228	14419.9	94.4609	14419.9	95.2174	14419.9	94.9248	14419.9	93.5814	14419.9	92.5546	14419.9	88.9118	14419.9	89.3801	14419.9	85.4608	14419.9	84.28	14419.9	79.732	14419.9	79.6076	14419.9	76.9159	14419.9	76.0254	14419.9	74.4214	14419.9	73.6277	14419.9	71.8049	14419.9	70.0779	14419.9	70.5528	14419.9	67.8256	14419.9	66.844	14419.9	66.2171	14419.9	65.3595	14419.9	64.8593	14419.9	59.6066	14419.9	60.4714	14419.9	52.1459	14419.9	56.9602	14419.9	51.5541	14419.9	61.2892	14419.9	59.9916	14419.9	56.6436	14419.9	49.2452
14928.2	89.6244	14928.2	91.974	14928.2	91.9035	14928.2	94.5764	14928.2	93.6258	14928.2	94.9663	14928.2	94.0029	14928.2	93.2784	14928.2	91.4175	14928.2	88.0375	14928.2	86.7626	14928.2	84.2546	14928.2	81.105	14928.2	79.5726	14928.2	77.6076	14928.2	75.1462	14928.2	73.0577	14928.2	72.0625	14928.2	70.5016	14928.2	69.1721	14928.2	67.384	14928.2	68.2	14928.2	66.004	14928.2	63.5386	14928.2	64.6192	14928.2	63.0718	14928.2	63.8405	14928.2	57.6319	14928.2	57.3491	14928.2	49.7954	14928.2	53.2505	14928.2	43.9977	14928.2	60.9462	14928.2	60.6985	14928.2	56.9787	14928.2	49.3332
15455.6	87.4163	15455.6	90.2607	15455.6	89.6338	15455.6	93.7613	15455.6	92.6488	15455.6	94.4249	15455.6	92.5087	15455.6	92.6383	15455.6	89.4713	15455.6	86.6337	15455.6	83.4127	15455.6	82.2595	15455.6	77.7779	15455.6	76.7711	15455.6	73.8754	15455.6	71.9614	15455.6	70.9958	15455.6	67.6221	15455.6	66.351	15455.6	66.7538	15455.6	65.9044	15455.6	64.8155	15455.6	62.9032	15455.6	62.0383	15455.6	61.0516	15455.6	59.4379	15455.6	60.5493	15455.6	53.0256	15455.6	49.88	15455.6	52.3396	15455.6	52.0989	15455.6	45.043	15455.6	58.4298	15455.6	60.4299	15455.6	51.2192	15455.6	47.5848
16000.5	87.8638	16000.5	89.7698	16000.5	89.6752	16000.5	93.6187	16000.5	92.7208	16000.5	93.8645	16000.5	91.751	16000.5	92.0007	16000.5	88.3153	16000.5	85.1531	16000.5	82.0071	16000.5	79.9706	16000.5	76.4031	16000.5	73.3635	16000.5	72.3341	16000.5	68.0652	16000.5	69.3253	16000.5	65.1863	16000.5	65.4918	16000.5	63.3313	16000.5	65.0766	16000.5	61.2338	16000.5	62.5998	16000.5	57.3555	16000.5	60.9348	16000.5	56.272	16000.5	58.6485	16000.5	50.4103	16000.5	51.3172	16000.5	54.3608	16000.5	46.9189	16000.5	44.2454	16000.5	59.3202	16000.5	59.2728	16000.5	50.7054	16000.5	50.6928
16564.5	90.3992	16564.5	91.4124	16564.5	91.1194	16564.5	94.0994	16564.5	93.0313	16564.5	93.5223	16564.5	91.4485	16564.5	90.9005	16564.5	86.8874	16564.5	82.5973	16564.5	79.141	16564.5	75.9882	16564.5	71.6224	16564.5	67.427	16564.5	70.2435	16564.5	63.0351	16564.5	67.4051	16564.5	54.0502	16564.5	61.2125	16564.5	60.6686	16564.5	60.9143	16564.5	55.4845	16564.5	58.9897	16564.5	38.3834	16564.5	57.899	16564.5	47.2952	16564.5	55.473	16564.5	29.3177	16564.5	52.3522	16564.5	52.5442	16564.5	46.7643	16564.5	44.715	16564.5	57.7138	16564.5	57.3564	16564.5	54.1966	16564.5	48.5383
17148.9	91.9525	17148.9	92.307	17148.9	92.1282	17148.9	94.3874	17148.9	93.0738	17148.9	93.0568	17148.9	90.4773	17148.9	88.8462	17148.9	84.0498	17148.9	77.6987	17148.9	70.9977	17148.9	67.9559	17148.9	70.8461	17148.9	60.2098	17148.9	68.7779	17148.9	55.7365	17148.9	67.7607	17148.9	59.9906	17148.9	64.6711	17148.9	54.4152	17148.9	62.8519	17148.9	50.0793	17148.9	58.5779	17148.9	51.7412	17148.9	58.6789	17148.9	43.737	17148.9	52.4869	17148.9	47.3979	17148.9	50.9318	17148.9	53.4678	17148.9	43.3236	17148.9	45.6547	17148.9	56.1295	17148.9	57.6162	17148.9	53.4531	17148.9	48.5901
17752.4	93.0457	17752.4	92.7095	17752.4	92.8777	17752.4	94.3886	17752.4	93.0884	17752.4	91.9949	17752.4	88.9847	17752.4	84.9449	17752.4	80.0111	17752.4	70.8378	17752.4	76.9154	17752.4	76.1089	17752.4	77.1588	17752.4	71.5197	17752.4	74.4291	17752.4	68.4235	17752.4	72.2087	17752.4	68.0946	17752.4	69.4684	17752.4	59.5991	17752.4	66.6255	17752.4	60.9267	17752.4	64.5368	17752.4	57.4576	17752.4	64.276	17752.4	53.6687	17752.4	55.1817	17752.4	51.8769	17752.4	56.0291	17752.4	52.244	17752.4	51.1879	17752.4	33.8418	17752.4	53.8716	17752.4	52.873	17752.4	51.3802	17752.4	46.9712
18379.4	93.3642	18379.4	92.7143	18379.4	92.894	18379.4	93.9213	18379.4	92.5189	18379.4	90.3879	18379.4	87.1706	18379.4	78.0882	18379.4	77.5218	18379.4	78.5659	18379.4	82.0056	18379.4	80.3905	18379.4	80.0718	18379.4	76.1223	18379.4	76.8297	18379.4	73.4365	18379.4	73.656	18379.4	71.1675	18379.4	70.1415	18379.4	62.8996	18379.4	67.8675	18379.4	63.7254	18379.4	65.8327	18379.4	61.8153	18379.4	64.6807	18379.4	56.7061	18379.4	50.7826	18379.4	53.3538	18379.4	54.5066	18379.4	52.0951	18379.4	51.8785	18379.4	33.8648	18379.4	55.963	18379.4	52.9937	18379.4	53.4356	18379.4	46.7727
19026.9	92.633	19026.9	91.5821	19026.9	92.2435	19026.9	92.4302	19026.9	90.9898	19026.9	87.8747	19026.9	85.1972	19026.9	55.2019	19026.9	81.7908	19026.9	83.0153	19026.9	84.5228	19026.9	82.5723	19026.9	81.8412	19026.9	78.7932	19026.9	77.5479	19026.9	75.1489	19026.9	73.4401	19026.9	72.1229	19026.9	70.5891	19026.9	65.056	19026.9	67.0604	19026.9	65.8661	19026.9	66.3569	19026.9	62.9457	19026.9	64.6412	19026.9	57.1916	19026.9	47.7098	19026.9	54.3201	19026.9	53.5686	19026.9	52.2355	19026.9	48.6262	19026.9	44.8594	19026.9	57.0922	19026.9	50.1157	19026.9	54.1522	19026.9	46.5
19697.8	91.3749	19697.8	89.3313	19697.8	91.2189	19697.8	89.4356	19697.8	89.0196	19697.8	83.4004	19697.8	84.1017	19697.8	78.7006	19697.8	85.8162	19697.8	84.8759	19697.8	86.4169	19697.8	83.4772	19697.8	82.9543	19697.8	79.2283	19697.8	77.0902	19697.8	74.1766	19697.8	72.5247	19697.8	71.1067	19697.8	70.0463	19697.8	63.9253	19697.8	65.9907	19697.8	65.9636	19697.8	66.3086	19697.8	61.9775	19697.8	63.7554	19697.8	57.0351	19697.8	42.3705	19697.8	53.1026	19697.8	51.7995	19697.8	54.4575	19697.8	48.1729	19697.8	45.7259	19697.8	55.5409	19697.8	47.9438	19697.8	51.2348	19697.8	46.2837
19999.5	90.3667	19999.5	88.3505	19999.5	90.2431	19999.5	86.7205	19999.5	87.909	19999.5	79.8783	19999.5	83.8719	19999.5	81.9929	19999.5	86.8812	19999.5	84.7748	19999.5	86.8199	19999.5	83.3901	19999.5	83.0717	19999.5	78.8126	19999.5	76.0571	19999.5	73.798	19999.5	72.1278	19999.5	71.0895	19999.5	71.3662	19999.5	64.9328	19999.5	66.6142	19999.5	66.6621	19999.5	66.5187	19999.5	62.1031	19999.5	60.6651	19999.5	57.5125	19999.5	60.0874	19999.5	50.2775	19999.5	56.3763	19999.5	63.3783	19999.5	56.0227	19999.5	59.8782	19999.5	54.3152	19999.5	56.664	19999.5	57.0258	19999.5	62.0744
