"SPL Vertical"
"On-Axis"		"10°"		"-10°"		"20°"		"-20°"		"30°"		"-30°"		"40°"		"-40°"		"50°"		"-50°"		"60°"		"-60°"		"70°"		"-70°"		"80°"		"-80°"		"90°"		"-90°"		"100°"		"-100°"		"110°"		"-110°"		"120°"		"-120°"		"130°"		"-130°"		"140°"		"-140°"		"150°"		"-150°"		"160°"		"-160°"		"170°"		"-170°"		"180°"
"Frequency / Hz"	"Sound Pressure Level / dB (re 20 µPa/V)  [2.83  V @ 1. m]"	"Frequency / Hz"	"Sound Pressure Level / dB (re 20 µPa/V)  [2.83  V @ 1. m]"	"Frequency / Hz"	"Sound Pressure Level / dB (re 20 µPa/V)  [2.83  V @ 1. m]"	"Frequency / Hz"	"Sound Pressure Level / dB (re 20 µPa/V)  [2.83  V @ 1. m]"	"Frequency / Hz"	"Sound Pressure Level / dB (re 20 µPa/V)  [2.83  V @ 1. m]"	"Frequency / Hz"	"Sound Pressure Level / dB (re 20 µPa/V)  [2.83  V @ 1. m]"	"Frequency / Hz"	"Sound Pressure Level / dB (re 20 µPa/V)  [2.83  V @ 1. m]"	"Frequency / Hz"	"Sound Pressure Level / dB (re 20 µPa/V)  [2.83  V @ 1. m]"	"Frequency / Hz"	"Sound Pressure Level / dB (re 20 µPa/V)  [2.83  V @ 1. m]"	"Frequency / Hz"	"Sound Pressure Level / dB (re 20 µPa/V)  [2.83  V @ 1. m]"	"Frequency / Hz"	"Sound Pressure Level / dB (re 20 µPa/V)  [2.83  V @ 1. m]"	"Frequency / Hz"	"Sound Pressure Level / dB (re 20 µPa/V)  [2.83  V @ 1. m]"	"Frequency / Hz"	"Sound Pressure Level / dB (re 20 µPa/V)  [2.83  V @ 1. m]"	"Frequency / Hz"	"Sound Pressure Level / dB (re 20 µPa/V)  [2.83  V @ 1. m]"	"Frequency / Hz"	"Sound Pressure Level / dB (re 20 µPa/V)  [2.83  V @ 1. m]"	"Frequency / Hz"	"Sound Pressure Level / dB (re 20 µPa/V)  [2.83  V @ 1. m]"	"Frequency / Hz"	"Sound Pressure Level / dB (re 20 µPa/V)  [2.83  V @ 1. m]"	"Frequency / Hz"	"Sound Pressure Level / dB (re 20 µPa/V)  [2.83  V @ 1. m]"	"Frequency / Hz"	"Sound Pressure Level / dB (re 20 µPa/V)  [2.83  V @ 1. m]"	"Frequency / Hz"	"Sound Pressure Level / dB (re 20 µPa/V)  [2.83  V @ 1. m]"	"Frequency / Hz"	"Sound Pressure Level / dB (re 20 µPa/V)  [2.83  V @ 1. m]"	"Frequency / Hz"	"Sound Pressure Level / dB (re 20 µPa/V)  [2.83  V @ 1. m]"	"Frequency / Hz"	"Sound Pressure Level / dB (re 20 µPa/V)  [2.83  V @ 1. m]"	"Frequency / Hz"	"Sound Pressure Level / dB (re 20 µPa/V)  [2.83  V @ 1. m]"	"Frequency / Hz"	"Sound Pressure Level / dB (re 20 µPa/V)  [2.83  V @ 1. m]"	"Frequency / Hz"	"Sound Pressure Level / dB (re 20 µPa/V)  [2.83  V @ 1. m]"	"Frequency / Hz"	"Sound Pressure Level / dB (re 20 µPa/V)  [2.83  V @ 1. m]"	"Frequency / Hz"	"Sound Pressure Level / dB (re 20 µPa/V)  [2.83  V @ 1. m]"	"Frequency / Hz"	"Sound Pressure Level / dB (re 20 µPa/V)  [2.83  V @ 1. m]"	"Frequency / Hz"	"Sound Pressure Level / dB (re 20 µPa/V)  [2.83  V @ 1. m]"	"Frequency / Hz"	"Sound Pressure Level / dB (re 20 µPa/V)  [2.83  V @ 1. m]"	"Frequency / Hz"	"Sound Pressure Level / dB (re 20 µPa/V)  [2.83  V @ 1. m]"	"Frequency / Hz"	"Sound Pressure Level / dB (re 20 µPa/V)  [2.83  V @ 1. m]"	"Frequency / Hz"	"Sound Pressure Level / dB (re 20 µPa/V)  [2.83  V @ 1. m]"	"Frequency / Hz"	"Sound Pressure Level / dB (re 20 µPa/V)  [2.83  V @ 1. m]"	"Frequency / Hz"	"Sound Pressure Level / dB (re 20 µPa/V)  [2.83  V @ 1. m]"
20.5078	57.8015	20.5078	57.705	20.5078	57.9064	20.5078	57.6194	20.5078	58.016	20.5078	57.5465	20.5078	58.1258	20.5078	57.4875	20.5078	58.2303	20.5078	57.4434	20.5078	58.3238	20.5078	57.4144	20.5078	58.4008	20.5078	57.4006	20.5078	58.457	20.5078	57.4015	20.5078	58.4893	20.5078	57.4158	20.5078	58.4964	20.5078	57.442	20.5078	58.4787	20.5078	57.478	20.5078	58.4383	20.5078	57.5215	20.5078	58.3784	20.5078	57.5703	20.5078	58.3034	20.5078	57.6229	20.5078	58.2184	20.5078	57.6788	20.5078	58.1285	20.5078	57.7385	20.5078	58.0389	20.5078	57.8033	20.5078	57.9535	20.5078	57.8747
21.9727	59.524	21.9727	59.4058	21.9727	59.6351	21.9727	59.2843	21.9727	59.7356	21.9727	59.1631	21.9727	59.8223	21.9727	59.0461	21.9727	59.8926	21.9727	58.9366	21.9727	59.9443	21.9727	58.8379	21.9727	59.9759	21.9727	58.753	21.9727	59.9862	21.9727	58.6846	21.9727	59.9751	21.9727	58.6351	21.9727	59.9432	21.9727	58.6064	21.9727	59.8923	21.9727	58.5999	21.9727	59.8247	21.9727	58.6164	21.9727	59.7434	21.9727	58.6554	21.9727	59.6512	21.9727	58.7156	21.9727	59.5507	21.9727	58.7944	21.9727	59.4441	21.9727	58.8885	21.9727	59.333	21.9727	58.9934	21.9727	59.2192	21.9727	59.1049
23.4375	59.7207	23.4375	59.5973	23.4375	59.8463	23.4375	59.4801	23.4375	59.9687	23.4375	59.3715	23.4375	60.0821	23.4375	59.2733	23.4375	60.1799	23.4375	59.1857	23.4375	60.2562	23.4375	59.109	23.4375	60.3058	23.4375	59.0428	23.4375	60.3248	23.4375	58.9868	23.4375	60.3113	23.4375	58.9409	23.4375	60.265	23.4375	58.9051	23.4375	60.1877	23.4375	58.8798	23.4375	60.083	23.4375	58.8659	23.4375	59.9562	23.4375	58.8648	23.4375	59.8138	23.4375	58.8783	23.4375	59.6631	23.4375	58.9087	23.4375	59.5118	23.4375	58.9584	23.4375	59.3671	23.4375	59.0293	23.4375	59.2356	23.4375	59.122
24.9023	61.7194	24.9023	61.6123	24.9023	61.8251	24.9023	61.5075	24.9023	61.9253	24.9023	61.408	24.9023	62.0154	24.9023	61.3161	24.9023	62.0913	24.9023	61.2336	24.9023	62.149	24.9023	61.1617	24.9023	62.1853	24.9023	61.1011	24.9023	62.1981	24.9023	61.0523	24.9023	62.1861	24.9023	61.0158	24.9023	62.1496	24.9023	60.9917	24.9023	62.09	24.9023	60.9802	24.9023	62.0101	24.9023	60.9811	24.9023	61.9137	24.9023	60.9948	24.9023	61.8054	24.9023	61.0212	24.9023	61.6904	24.9023	61.0609	24.9023	61.5741	24.9023	61.1141	24.9023	61.4613	24.9023	61.1813	24.9023	61.3563	24.9023	61.2623
26.3672	62.6464	26.3672	62.5435	26.3672	62.7475	26.3672	62.4422	26.3672	62.8431	26.3672	62.3454	26.3672	62.9292	26.3672	62.2557	26.3672	63.0023	26.3672	62.1752	26.3672	63.0589	26.3672	62.1055	26.3672	63.0964	26.3672	62.0479	26.3672	63.1126	26.3672	62.0035	26.3672	63.107	26.3672	61.973	26.3672	63.0796	26.3672	61.9569	26.3672	63.0319	26.3672	61.9552	26.3672	62.9664	26.3672	61.968	26.3672	62.8864	26.3672	61.9947	26.3672	62.7955	26.3672	62.0347	26.3672	62.6979	26.3672	62.0872	26.3672	62.5972	26.3672	62.1512	26.3672	62.497	26.3672	62.2255	26.3672	62.4001	26.3672	62.309
27.832	63.2102	27.832	63.1058	27.832	63.3067	27.832	62.9965	27.832	63.3926	27.832	62.8851	27.832	63.4653	27.832	62.7747	27.832	63.5221	27.832	62.6683	27.832	63.5604	27.832	62.569	27.832	63.5782	27.832	62.4794	27.832	63.5737	27.832	62.402	27.832	63.5463	27.832	62.3387	27.832	63.4962	27.832	62.2912	27.832	63.4248	27.832	62.2604	27.832	63.3348	27.832	62.2473	27.832	63.2299	27.832	62.2521	27.832	63.1143	27.832	62.2749	27.832	62.9928	27.832	62.3156	27.832	62.8702	27.832	62.3735	27.832	62.7508	27.832	62.4476	27.832	62.6385	27.832	62.5366
29.2969	63.9552	29.2969	63.8355	29.2969	64.0689	29.2969	63.7137	29.2969	64.1722	29.2969	63.5935	29.2969	64.261	29.2969	63.4783	29.2969	64.3314	29.2969	63.3706	29.2969	64.3799	29.2969	63.2728	29.2969	64.4041	29.2969	63.1868	29.2969	64.4022	29.2969	63.1141	29.2969	64.3739	29.2969	63.056	29.2969	64.3198	29.2969	63.0134	29.2969	64.242	29.2969	62.9872	29.2969	64.1437	29.2969	62.9779	29.2969	64.0291	29.2969	62.9858	29.2969	63.9032	29.2969	63.0111	29.2969	63.7714	29.2969	63.0539	29.2969	63.639	29.2969	63.114	29.2969	63.5109	29.2969	63.191	29.2969	63.3915	29.2969	63.2841
30.7617	64.7869	30.7617	64.6762	30.7617	64.8918	30.7617	64.5633	30.7617	64.9872	30.7617	64.4515	30.7617	65.0692	30.7617	64.3436	30.7617	65.1343	30.7617	64.2424	30.7617	65.1795	30.7617	64.1501	30.7617	65.2022	30.7617	64.0686	30.7617	65.2009	30.7617	63.9998	30.7617	65.1753	30.7617	63.9449	30.7617	65.126	30.7617	63.9053	30.7617	65.0552	30.7617	63.8818	30.7617	64.9657	30.7617	63.8749	30.7617	64.8618	30.7617	63.885	30.7617	64.7477	30.7617	63.9121	30.7617	64.6283	30.7617	63.9559	30.7617	64.508	30.7617	64.0158	30.7617	64.3908	30.7617	64.0909	30.7617	64.2804	30.7617	64.1796
32.2266	65.7199	32.2266	65.6142	32.2266	65.8208	32.2266	65.507	32.2266	65.9136	32.2266	65.4013	32.2266	65.9948	32.2266	65.3	32.2266	66.0611	32.2266	65.2056	32.2266	66.1096	32.2266	65.1205	32.2266	66.1377	32.2266	65.0468	32.2266	66.144	32.2266	64.9862	32.2266	66.1278	32.2266	64.9401	32.2266	66.0897	32.2266	64.9096	32.2266	66.0313	32.2266	64.8955	32.2266	65.9553	32.2266	64.8982	32.2266	65.8652	32.2266	64.9175	32.2266	65.7649	32.2266	64.9532	32.2266	65.6582	32.2266	65.0044	32.2266	65.5489	32.2266	65.0699	32.2266	65.4404	32.2266	65.1482	32.2266	65.3357	32.2266	65.2375
33.6914	66.2238	33.6914	66.1196	33.6914	66.3215	33.6914	66.012	33.6914	66.4093	33.6914	65.904	33.6914	66.4841	33.6914	65.7987	33.6914	66.5426	33.6914	65.6987	33.6914	66.5821	33.6914	65.6065	33.6914	66.6001	33.6914	65.5244	33.6914	66.5953	33.6914	65.4543	33.6914	66.567	33.6914	65.3978	33.6914	66.5161	33.6914	65.3561	33.6914	66.4446	33.6914	65.3303	33.6914	66.3556	33.6914	65.3208	33.6914	66.2531	33.6914	65.3278	33.6914	66.1417	33.6914	65.3513	33.6914	66.0258	33.6914	65.3909	33.6914	65.9101	33.6914	65.446	33.6914	65.7982	33.6914	65.5157	33.6914	65.6936	33.6914	65.5987
35.1562	67.0138	35.1562	66.9073	35.1562	67.1151	35.1562	66.7991	35.1562	67.2077	35.1562	66.6922	35.1562	67.2884	35.1562	66.5897	35.1562	67.3537	35.1562	66.4944	35.1562	67.4008	35.1562	66.4086	35.1562	67.4275	35.1562	66.3346	35.1562	67.4323	35.1562	66.2743	35.1562	67.4149	35.1562	66.229	35.1562	67.376	35.1562	66.1999	35.1562	67.3174	35.1562	66.1876	35.1562	67.242	35.1562	66.1925	35.1562	67.1532	35.1562	66.2142	35.1562	67.0548	35.1562	66.2521	35.1562	66.9506	35.1562	66.3051	35.1562	66.844	35.1562	66.3718	35.1562	66.7382	35.1562	66.4504	35.1562	66.6357	35.1562	66.5391
36.6211	67.9523	36.6211	67.8467	36.6211	68.05	36.6211	67.7368	36.6211	68.1364	36.6211	67.6259	36.6211	68.2083	36.6211	67.5172	36.6211	68.2625	36.6211	67.4137	36.6211	68.2965	36.6211	67.3183	36.6211	68.3085	36.6211	67.2334	36.6211	68.2974	36.6211	67.1612	36.6211	68.2633	36.6211	67.1035	36.6211	68.2077	36.6211	67.0617	36.6211	68.133	36.6211	67.0367	36.6211	68.0427	36.6211	67.029	36.6211	67.941	36.6211	67.0384	36.6211	67.8322	36.6211	67.0644	36.6211	67.7206	36.6211	67.1061	36.6211	67.61	36.6211	67.1624	36.6211	67.5036	36.6211	67.2317	36.6211	67.4039	36.6211	67.3127
38.0859	68.09	38.0859	67.981	38.0859	68.1895	38.0859	67.8659	38.0859	68.2762	38.0859	67.7479	38.0859	68.3473	38.0859	67.6304	38.0859	68.4	38.0859	67.5167	38.0859	68.432	38.0859	67.4097	38.0859	68.4415	38.0859	67.3123	38.0859	68.4274	38.0859	67.2269	38.0859	68.3895	38.0859	67.1554	38.0859	68.3287	38.0859	67.0996	38.0859	68.2468	38.0859	67.0609	38.0859	68.1468	38.0859	67.0402	38.0859	68.0326	38.0859	67.0381	38.0859	67.9088	38.0859	67.0551	38.0859	67.7801	38.0859	67.0911	38.0859	67.6514	38.0859	67.1459	38.0859	67.5272	38.0859	67.2186	38.0859	67.4115	38.0859	67.3078
39.5508	69.0344	39.5508	68.9324	39.5508	69.1323	39.5508	68.8295	39.5508	69.2227	39.5508	68.7286	39.5508	69.3024	39.5508	68.6329	39.5508	69.3683	39.5508	68.5447	39.5508	69.4176	39.5508	68.4667	39.5508	69.448	39.5508	68.4008	39.5508	69.458	39.5508	68.3487	39.5508	69.4471	39.5508	68.3117	39.5508	69.4159	39.5508	68.2906	39.5508	69.3659	39.5508	68.2858	39.5508	69.2996	39.5508	68.2973	39.5508	69.2203	39.5508	68.3245	39.5508	69.1314	39.5508	68.3665	39.5508	69.0364	39.5508	68.422	39.5508	68.9384	39.5508	68.4894	39.5508	68.8402	39.5508	68.5669	39.5508	68.7442	39.5508	68.6525
41.0156	69.2804	41.0156	69.1676	41.0156	69.3886	41.0156	69.054	41.0156	69.4883	41.0156	68.9434	41.0156	69.5755	41.0156	68.8391	41.0156	69.6467	41.0156	68.744	41.0156	69.6989	41.0156	68.6609	41.0156	69.7298	41.0156	68.5917	41.0156	69.7381	41.0156	68.5383	41.0156	69.7239	41.0156	68.5016	41.0156	69.688	41.0156	68.4823	41.0156	69.6326	41.0156	68.4803	41.0156	69.5605	41.0156	68.4952	41.0156	69.4753	41.0156	68.5261	41.0156	69.3804	41.0156	68.5719	41.0156	69.2793	41.0156	68.6311	41.0156	69.1754	41.0156	68.7022	41.0156	69.0715	41.0156	68.7835	41.0156	68.9701	41.0156	68.8735
42.4805	69.9056	42.4805	69.8009	42.4805	70.0052	42.4805	69.6947	42.4805	70.0961	42.4805	69.5904	42.4805	70.1746	42.4805	69.491	42.4805	70.2374	42.4805	69.3993	42.4805	70.2818	42.4805	69.3176	42.4805	70.3057	42.4805	69.2479	42.4805	70.3079	42.4805	69.1918	42.4805	70.2883	42.4805	69.1504	42.4805	70.2478	42.4805	69.1242	42.4805	70.1885	42.4805	69.1136	42.4805	70.1132	42.4805	69.1184	42.4805	70.0253	42.4805	69.1381	42.4805	69.9287	42.4805	69.1721	42.4805	69.8269	42.4805	69.2197	42.4805	69.7235	42.4805	69.2799	42.4805	69.6217	42.4805	69.3516	42.4805	69.5243	42.4805	69.4336
43.9453	70.3975	43.9453	70.2871	43.9453	70.5041	43.9453	70.1766	43.9453	70.6031	43.9453	70.0694	43.9453	70.6908	43.9453	69.9687	43.9453	70.7634	43.9453	69.8773	43.9453	70.8178	43.9453	69.7979	43.9453	70.8517	43.9453	69.7324	43.9453	70.8636	43.9453	69.6825	43.9453	70.8533	43.9453	69.6492	43.9453	70.8216	43.9453	69.633	43.9453	70.7704	43.9453	69.6338	43.9453	70.7025	43.9453	69.6512	43.9453	70.6211	43.9453	69.684	43.9453	70.5298	43.9453	69.7312	43.9453	70.4319	43.9453	69.7913	43.9453	70.3306	43.9453	69.8628	43.9453	70.2287	43.9453	69.944	43.9453	70.1289	43.9453	70.0333
45.4102	70.903	45.4102	70.7772	45.4102	71.0208	45.4102	70.6477	45.4102	71.1264	45.4102	70.5189	45.4102	71.2164	45.4102	70.3956	45.4102	71.2875	45.4102	70.2824	45.4102	71.3375	45.4102	70.1833	45.4102	71.3648	45.4102	70.1021	45.4102	71.3688	45.4102	70.0415	45.4102	71.3501	45.4102	70.0033	45.4102	71.3104	45.4102	69.9885	45.4102	71.2524	45.4102	69.9967	45.4102	71.1796	45.4102	70.0266	45.4102	71.0954	45.4102	70.0761	45.4102	71.0033	45.4102	70.1422	45.4102	70.9063	45.4102	70.2214	45.4102	70.8066	45.4102	70.31	45.4102	70.7056	45.4102	70.4051	45.4102	70.6044	45.4102	70.5038
46.875	71.5718	46.875	71.4617	46.875	71.6705	46.875	71.3436	46.875	71.7547	46.875	71.2205	46.875	71.8215	46.875	71.0958	46.875	71.8682	46.875	70.9729	46.875	71.8925	46.875	70.8548	46.875	71.893	46.875	70.7448	46.875	71.869	46.875	70.6459	46.875	71.8209	46.875	70.5609	46.875	71.7502	46.875	70.4922	46.875	71.6593	46.875	70.442	46.875	71.5517	46.875	70.412	46.875	71.4314	46.875	70.4035	46.875	71.3027	46.875	70.417	46.875	71.17	46.875	70.4525	46.875	71.0374	46.875	70.5092	46.875	70.909	46.875	70.5857	46.875	70.7886	46.875	70.6798
48.3398	72.109	48.3398	71.9979	48.3398	72.2092	48.3398	71.8792	48.3398	72.2951	48.3398	71.7563	48.3398	72.3635	48.3398	71.6325	48.3398	72.4117	48.3398	71.511	48.3398	72.4373	48.3398	71.3947	48.3398	72.4387	48.3398	71.2863	48.3398	72.4151	48.3398	71.1885	48.3398	72.3669	48.3398	71.1036	48.3398	72.2953	48.3398	71.0339	48.3398	72.2026	48.3398	70.9815	48.3398	72.0924	48.3398	70.9481	48.3398	71.9688	48.3398	70.9354	48.3398	71.8361	48.3398	70.9444	48.3398	71.6991	48.3398	70.9757	48.3398	71.5624	48.3398	71.0292	48.3398	71.4305	48.3398	71.1038	48.3398	71.3075	48.3398	71.1975
51.2695	72.9566	51.2695	72.8455	51.2695	73.063	51.2695	72.7338	51.2695	73.1606	51.2695	72.6252	51.2695	73.2451	51.2695	72.5232	51.2695	73.3129	51.2695	72.4307	51.2695	73.3609	51.2695	72.35	51.2695	73.387	51.2695	72.2831	51.2695	73.39	51.2695	72.2313	51.2695	73.37	51.2695	72.1954	51.2695	73.3282	51.2695	72.1759	51.2695	73.2669	51.2695	72.1724	51.2695	73.1895	51.2695	72.1845	51.2695	73.0997	51.2695	72.2109	51.2695	73.0016	51.2695	72.2505	51.2695	72.8995	51.2695	72.3019	51.2695	72.7971	51.2695	72.3639	51.2695	72.6974	51.2695	72.4352	51.2695	72.6029	51.2695	72.5152
52.7344	73.23	52.7344	73.1154	52.7344	73.341	52.7344	73.001	52.7344	73.4443	52.7344	72.8907	52.7344	73.5361	52.7344	72.7881	52.7344	73.6131	52.7344	72.6965	52.7344	73.6725	52.7344	72.6188	52.7344	73.7122	52.7344	72.5574	52.7344	73.7313	52.7344	72.5141	52.7344	73.7298	52.7344	72.4899	52.7344	73.7085	52.7344	72.485	52.7344	73.669	52.7344	72.4989	52.7344	73.6135	52.7344	72.5304	52.7344	73.5442	52.7344	72.5779	52.7344	73.4636	52.7344	72.6393	52.7344	73.3743	52.7344	72.7124	52.7344	73.2789	52.7344	72.7952	52.7344	73.1799	52.7344	72.8853	52.7344	73.0798	52.7344	72.9809
54.1992	73.51	54.1992	73.391	54.1992	73.6257	54.1992	73.273	54.1992	73.7338	54.1992	73.1604	54.1992	73.8303	54.1992	73.0575	54.1992	73.9121	54.1992	72.9679	54.1992	73.9766	54.1992	72.8952	54.1992	74.0224	54.1992	72.8419	54.1992	74.0494	54.1992	72.8101	54.1992	74.0582	54.1992	72.8008	54.1992	74.0505	54.1992	72.8141	54.1992	74.0281	54.1992	72.8493	54.1992	73.993	54.1992	72.9044	54.1992	73.9468	54.1992	72.9771	54.1992	73.8907	54.1992	73.0639	54.1992	73.825	54.1992	73.161	54.1992	73.75	54.1992	73.2644	54.1992	73.6659	54.1992	73.37	54.1992	73.5735	54.1992	73.4741
55.6641	74.0834	55.6641	73.9676	55.6641	74.1916	55.6641	73.8488	55.6641	74.2878	55.6641	73.7318	55.6641	74.3684	55.6641	73.6209	55.6641	74.4303	55.6641	73.5202	55.6641	74.4717	55.6641	73.4334	55.6641	74.4919	55.6641	73.3633	55.6641	74.4914	55.6641	73.3123	55.6641	74.4719	55.6641	73.2819	55.6641	74.436	55.6641	73.2728	55.6641	74.387	55.6641	73.285	55.6641	74.3281	55.6641	73.3174	55.6641	74.2624	55.6641	73.3682	55.6641	74.1918	55.6641	73.4345	55.6641	74.1175	55.6641	73.5129	55.6641	74.0395	55.6641	73.5995	55.6641	73.9576	55.6641	73.6903	55.6641	73.8715	55.6641	73.7819
58.5938	75.4188	58.5938	75.3201	58.5938	75.5008	58.5938	75.2078	58.5938	75.5632	58.5938	75.0854	58.5938	75.6035	58.5938	74.9565	58.5938	75.6199	58.5938	74.825	58.5938	75.611	58.5938	74.6947	58.5938	75.5761	58.5938	74.5695	58.5938	75.516	58.5938	74.4532	58.5938	75.4322	58.5938	74.3492	58.5938	75.3279	58.5938	74.2607	58.5938	75.2074	58.5938	74.19	58.5938	75.0758	58.5938	74.1389	58.5938	74.9388	58.5938	74.1084	58.5938	74.8018	58.5938	74.0988	58.5938	74.6697	58.5938	74.1097	58.5938	74.5466	58.5938	74.1401	58.5938	74.4353	58.5938	74.1891	58.5938	74.3377	58.5938	74.2553
60.0586	75.8434	60.0586	75.7366	60.0586	75.9328	60.0586	75.6158	60.0586	76.0016	60.0586	75.4843	60.0586	76.0472	60.0586	75.3459	60.0586	76.0673	60.0586	75.2042	60.0586	76.06	60.0586	75.063	60.0586	76.0247	60.0586	74.9261	60.0586	75.9615	60.0586	74.7971	60.0586	75.8719	60.0586	74.6794	60.0586	75.7586	60.0586	74.5761	60.0586	75.6255	60.0586	74.4899	60.0586	75.4775	60.0586	74.4231	60.0586	75.3202	60.0586	74.3776	60.0586	75.1599	60.0586	74.3548	60.0586	75.0024	60.0586	74.3558	60.0586	74.8535	60.0586	74.381	60.0586	74.7183	60.0586	74.4307	60.0586	74.601	60.0586	74.5044
62.9883	76.4584	62.9883	76.3496	62.9883	76.5494	62.9883	76.2268	62.9883	76.6194	62.9883	76.0942	62.9883	76.6661	62.9883	75.9563	62.9883	76.688	62.9883	75.8177	62.9883	76.6843	62.9883	75.6826	62.9883	76.6551	62.9883	75.5548	62.9883	76.601	62.9883	75.4378	62.9883	76.5236	62.9883	75.3343	62.9883	76.4249	62.9883	75.2465	62.9883	76.308	62.9883	75.1762	62.9883	76.1766	62.9883	75.1248	62.9883	76.0351	62.9883	75.0932	62.9883	75.8883	62.9883	75.0823	62.9883	75.7416	62.9883	75.0929	62.9883	75.6004	62.9883	75.1254	62.9883	75.4697	62.9883	75.1801	62.9883	75.354	62.9883	75.2567
64.4531	76.6286	64.4531	76.5219	64.4531	76.7201	64.4531	76.4034	64.4531	76.7939	64.4531	76.2767	64.4531	76.8481	64.4531	76.146	64.4531	76.8811	64.4531	76.0155	64.4531	76.8921	64.4531	75.8892	64.4531	76.8804	64.4531	75.771	64.4531	76.846	64.4531	75.6642	64.4531	76.7894	64.4531	75.5714	64.4531	76.7118	64.4531	75.4949	64.4531	76.6151	64.4531	75.4363	64.4531	76.5019	64.4531	75.3971	64.4531	76.3756	64.4531	75.3782	64.4531	76.2405	64.4531	75.3803	64.4531	76.1012	64.4531	75.404	64.4531	75.9628	64.4531	75.4494	64.4531	75.8305	64.4531	75.5162	64.4531	75.7094	64.4531	75.6036
67.3828	77.1655	67.3828	77.0597	67.3828	77.2626	67.3828	76.9487	67.3828	77.3482	67.3828	76.8361	67.3828	77.4196	67.3828	76.7257	67.3828	77.4745	67.3828	76.6211	67.3828	77.5111	67.3828	76.5258	67.3828	77.5281	67.3828	76.4429	67.3828	77.5249	67.3828	76.3747	67.3828	77.5017	67.3828	76.3227	67.3828	77.4594	67.3828	76.288	67.3828	77.3997	67.3828	76.271	67.3828	77.3246	67.3828	76.2716	67.3828	77.2368	67.3828	76.2894	67.3828	77.1389	67.3828	76.3238	67.3828	77.0339	67.3828	76.3741	67.3828	76.9249	67.3828	76.4393	67.3828	76.8154	67.3828	76.5181	67.3828	76.7089	67.3828	76.6088
68.8477	77.3746	68.8477	77.2654	68.8477	77.4761	68.8477	77.1522	68.8477	77.5666	68.8477	77.0389	68.8477	77.643	68.8477	76.9295	68.8477	77.7027	68.8477	76.8277	68.8477	77.7435	68.8477	76.737	68.8477	77.7644	68.8477	76.6605	68.8477	77.7648	68.8477	76.6004	68.8477	77.7454	68.8477	76.5583	68.8477	77.7077	68.8477	76.5351	68.8477	77.6538	68.8477	76.5307	68.8477	77.5863	68.8477	76.5449	68.8477	77.5078	68.8477	76.5764	68.8477	77.4207	68.8477	76.6238	68.8477	77.3275	68.8477	76.6855	68.8477	77.2301	68.8477	76.7594	68.8477	77.1306	68.8477	76.8433	68.8477	77.0314	68.8477	76.9348
71.7773	78.0664	71.7773	77.9505	71.7773	78.1729	71.7773	77.8297	71.7773	78.266	71.7773	77.7085	71.7773	78.3417	71.7773	77.591	71.7773	78.3968	71.7773	77.4811	71.7773	78.4292	71.7773	77.3825	71.7773	78.4375	71.7773	77.298	71.7773	78.4218	71.7773	77.2299	71.7773	78.3836	71.7773	77.1798	71.7773	78.3254	71.7773	77.1487	71.7773	78.2507	71.7773	77.1368	71.7773	78.1637	71.7773	77.1434	71.7773	78.0685	71.7773	77.1676	71.7773	77.9689	71.7773	77.2077	71.7773	77.8679	71.7773	77.2618	71.7773	77.7677	71.7773	77.3277	71.7773	77.67	71.7773	77.4033	71.7773	77.5759	71.7773	77.4865
74.707	78.6956	74.707	78.583	74.707	78.7994	74.707	78.4659	74.707	78.8901	74.707	78.3487	74.707	78.9641	74.707	78.2355	74.707	79.0181	74.707	78.1301	74.707	79.05	74.707	78.0359	74.707	79.0586	74.707	77.9553	74.707	79.0441	74.707	77.8904	74.707	79.0076	74.707	77.8424	74.707	78.9514	74.707	77.812	74.707	78.8788	74.707	77.799	74.707	78.7933	74.707	77.8029	74.707	78.6987	74.707	77.8226	74.707	78.5986	74.707	77.8571	74.707	78.4964	74.707	77.9049	74.707	78.3947	74.707	77.9646	74.707	78.2959	74.707	78.0349	74.707	78.2019	74.707	78.1145
77.6367	79.2108	77.6367	79.1001	77.6367	79.3112	77.6367	78.9838	77.6367	79.3976	77.6367	78.8665	77.6367	79.4665	77.6367	78.7528	77.6367	79.5155	77.6367	78.6473	77.6367	79.5433	77.6367	78.5536	77.6367	79.5492	77.6367	78.4749	77.6367	79.5341	77.6367	78.4134	77.6367	79.4995	77.6367	78.3705	77.6367	79.4479	77.6367	78.3467	77.6367	79.3825	77.6367	78.3415	77.6367	79.3065	77.6367	78.3539	77.6367	79.2231	77.6367	78.3822	77.6367	79.1351	77.6367	78.4246	77.6367	79.045	77.6367	78.4789	77.6367	78.9544	77.6367	78.5432	77.6367	78.8649	77.6367	78.6156	77.6367	78.7778	77.6367	78.6943
79.1016	79.4912	79.1016	79.3806	79.1016	79.5919	79.1016	79.2646	79.1016	79.6787	79.1016	79.148	79.1016	79.7485	79.1016	79.0355	79.1016	79.7986	79.1016	78.9316	79.1016	79.8278	79.1016	78.8402	79.1016	79.8355	79.1016	78.7644	79.1016	79.8225	79.1016	78.7066	79.1016	79.7903	79.1016	78.6681	79.1016	79.7417	79.1016	78.6492	79.1016	79.6798	79.1016	78.6494	79.1016	79.6079	79.1016	78.6674	79.1016	79.5294	79.1016	78.7012	79.1016	79.4467	79.1016	78.7486	79.1016	79.3619	79.1016	78.807	79.1016	79.2766	79.1016	78.8742	79.1016	79.1916	79.1016	78.9479	79.1016	79.1078	79.1016	79.0262
82.0312	80.1847	82.0312	80.0742	82.0312	80.2833	82.0312	79.9561	82.0312	80.3663	82.0312	79.8346	82.0312	80.4308	82.0312	79.7142	82.0312	80.4741	82.0312	79.5993	82.0312	80.4946	82.0312	79.4941	82.0312	80.4918	82.0312	79.4021	82.0312	80.4663	82.0312	79.3261	82.0312	80.4198	82.0312	79.2685	82.0312	80.3552	82.0312	79.2304	82.0312	80.2762	82.0312	79.2122	82.0312	80.187	82.0312	79.2136	82.0312	80.0914	82.0312	79.2332	82.0312	79.9931	82.0312	79.2692	82.0312	79.8947	82.0312	79.3193	82.0312	79.7982	82.0312	79.3811	82.0312	79.7048	82.0312	79.4522	82.0312	79.6154	82.0312	79.5308
84.9609	80.5185	84.9609	80.4109	84.9609	80.6205	84.9609	80.3014	84.9609	80.7133	84.9609	80.1938	84.9609	80.7932	84.9609	80.0916	84.9609	80.8569	84.9609	79.998	84.9609	80.9017	84.9609	79.9159	84.9609	80.926	84.9609	79.8477	84.9609	80.929	84.9609	79.795	84.9609	80.9112	84.9609	79.7589	84.9609	80.874	84.9609	79.7398	84.9609	80.8199	84.9609	79.7375	84.9609	80.7514	84.9609	79.7513	84.9609	80.6713	84.9609	79.7802	84.9609	80.5826	84.9609	79.823	84.9609	80.488	84.9609	79.8782	84.9609	80.3904	84.9609	79.9447	84.9609	80.2923	84.9609	80.0209	84.9609	80.1966	84.9609	80.1054
87.8906	81.009	87.8906	80.8888	87.8906	81.1171	87.8906	80.7622	87.8906	81.2083	87.8906	80.635	87.8906	81.2781	87.8906	80.5126	87.8906	81.3239	87.8906	80.4005	87.8906	81.3446	87.8906	80.3032	87.8906	81.3407	87.8906	80.2246	87.8906	81.315	87.8906	80.1674	87.8906	81.2716	87.8906	80.1333	87.8906	81.2153	87.8906	80.1225	87.8906	81.1513	87.8906	80.1341	87.8906	81.0837	87.8906	80.166	87.8906	81.0156	87.8906	80.2153	87.8906	80.9482	87.8906	80.2784	87.8906	80.8812	87.8906	80.3513	87.8906	80.8133	87.8906	80.4301	87.8906	80.743	87.8906	80.5112	87.8906	80.6692	87.8906	80.5916
90.8203	81.4535	90.8203	81.3398	90.8203	81.5552	90.8203	81.2189	90.8203	81.6404	90.8203	81.0961	90.8203	81.7056	90.8203	80.9766	90.8203	81.7482	90.8203	80.8659	90.8203	81.7669	90.8203	80.7689	90.8203	81.7622	90.8203	80.6901	90.8203	81.7362	90.8203	80.6329	90.8203	81.6926	90.8203	80.5993	90.8203	81.6362	90.8203	80.5898	90.8203	81.5723	90.8203	80.6034	90.8203	81.5055	90.8203	80.6375	90.8203	81.4393	90.8203	80.6884	90.8203	81.3752	90.8203	80.752	90.8203	81.313	90.8203	80.8239	90.8203	81.2512	90.8203	80.8998	90.8203	81.1878	90.8203	80.9763	90.8203	81.1212	90.8203	81.0506
95.2148	82.5792	95.2148	82.4635	95.2148	82.6719	95.2148	82.3293	95.2148	82.738	95.2148	82.1814	95.2148	82.7749	95.2148	82.0252	95.2148	82.7813	95.2148	81.866	95.2148	82.7566	95.2148	81.7093	95.2148	82.7018	95.2148	81.56	95.2148	82.6189	95.2148	81.4228	95.2148	82.5111	95.2148	81.3017	95.2148	82.383	95.2148	81.2002	95.2148	82.24	95.2148	81.1208	95.2148	82.0883	95.2148	81.0652	95.2148	81.9341	95.2148	81.0339	95.2148	81.7832	95.2148	81.0265	95.2148	81.6406	95.2148	81.0416	95.2148	81.5096	95.2148	81.0774	95.2148	81.3924	95.2148	81.1317	95.2148	81.29	95.2148	81.2029
98.1445	82.7552	98.1445	82.6463	98.1445	82.8464	98.1445	82.5244	98.1445	82.9161	98.1445	82.3943	98.1445	82.9617	98.1445	82.2615	98.1445	82.9816	98.1445	82.1311	98.1445	82.9755	98.1445	82.0079	98.1445	82.9442	98.1445	81.8961	98.1445	82.8896	98.1445	81.7993	98.1445	82.815	98.1445	81.7202	98.1445	82.7243	98.1445	81.6606	98.1445	82.6221	98.1445	81.6215	98.1445	82.5132	98.1445	81.6027	98.1445	82.4022	98.1445	81.6033	98.1445	82.2926	98.1445	81.6218	98.1445	82.1873	98.1445	81.6561	98.1445	82.0878	98.1445	81.7039	98.1445	81.9952	98.1445	81.7633	98.1445	81.9099	98.1445	81.8323
101.074	83.0489	101.074	82.9658	101.074	83.1157	101.074	82.8694	101.074	83.1638	101.074	82.7632	101.074	83.1916	101.074	82.651	101.074	83.198	101.074	82.5369	101.074	83.1828	101.074	82.425	101.074	83.1467	101.074	82.319	101.074	83.0914	101.074	82.2226	101.074	83.0194	101.074	82.1387	101.074	82.9342	101.074	82.0701	101.074	82.8398	101.074	82.0188	101.074	82.7407	101.074	81.9862	101.074	82.6408	101.074	81.9728	101.074	82.5435	101.074	81.9781	101.074	82.4511	101.074	82.0004	101.074	82.3649	101.074	82.0375	101.074	82.2851	101.074	82.0866	101.074	82.2119	101.074	82.1454
105.469	83.3345	105.469	83.2193	105.469	83.437	105.469	83.0969	105.469	83.5219	105.469	82.9736	105.469	83.5851	105.469	82.8554	105.469	83.624	105.469	82.7479	105.469	83.6372	105.469	82.6557	105.469	83.625	105.469	82.5818	105.469	83.589	105.469	82.5277	105.469	83.5324	105.469	82.4934	105.469	83.4593	105.469	82.4772	105.469	83.3747	105.469	82.4769	105.469	83.2834	105.469	82.4899	105.469	83.19	105.469	82.5134	105.469	83.0983	105.469	82.5452	105.469	83.011	105.469	82.5836	105.469	82.9302	105.469	82.6273	105.469	82.8565	105.469	82.6761	105.469	82.79	105.469	82.7301
108.398	83.7626	108.398	83.6377	108.398	83.8709	108.398	83.5023	108.398	83.9575	108.398	83.363	108.398	84.0182	108.398	83.2264	108.398	84.0504	108.398	83.0988	108.398	84.0534	108.398	82.9855	108.398	84.0285	108.398	82.8909	108.398	83.9786	108.398	82.8179	108.398	83.9082	108.398	82.7677	108.398	83.823	108.398	82.74	108.398	83.7287	108.398	82.7331	108.398	83.6305	108.398	82.7446	108.398	83.5326	108.398	82.7714	108.398	83.438	108.398	82.8103	108.398	83.3481	108.398	82.8585	108.398	83.2636	108.398	82.9139	108.398	83.1843	108.398	82.9747	108.398	83.11	108.398	83.0402
112.793	83.9815	112.793	83.8764	112.793	84.0681	112.793	83.7582	112.793	84.1325	112.793	83.6331	112.793	84.1729	112.793	83.508	112.793	84.1891	112.793	83.3899	112.793	84.1828	112.793	83.2845	112.793	84.1568	112.793	83.1968	112.793	84.1148	112.793	83.1299	112.793	84.0614	112.793	83.0852	112.793	84.0005	112.793	83.0624	112.793	83.9359	112.793	83.0602	112.793	83.87	112.793	83.076	112.793	83.8039	112.793	83.1068	112.793	83.7378	112.793	83.1498	112.793	83.6709	112.793	83.2021	112.793	83.6029	112.793	83.2616	112.793	83.5336	112.793	83.326	112.793	83.4635	112.793	83.3939
117.188	84.2939	117.188	84.17	117.188	84.4004	117.188	84.0346	117.188	84.4848	117.188	83.8947	117.188	84.5435	117.188	83.7578	117.188	84.5743	117.188	83.6324	117.188	84.5766	117.188	83.526	117.188	84.5519	117.188	83.4454	117.188	84.5042	117.188	83.3949	117.188	84.4401	117.188	83.3766	117.188	84.3681	117.188	83.3895	117.188	84.2973	117.188	83.4303	117.188	84.235	117.188	83.4935	117.188	84.1856	117.188	83.5725	117.188	84.149	117.188	83.6603	117.188	84.1215	117.188	83.7502	117.188	84.0967	117.188	83.8361	117.188	84.0679	117.188	83.9132	117.188	84.0295	117.188	83.9782
120.117	84.7659	120.117	84.6314	120.117	84.8776	120.117	84.4803	120.117	84.9605	120.117	84.3195	120.117	85.0097	120.117	84.156	120.117	85.0212	120.117	83.9972	120.117	84.9935	120.117	83.8506	120.117	84.9277	120.117	83.7231	120.117	84.8281	120.117	83.6208	120.117	84.7024	120.117	83.5479	120.117	84.5612	120.117	83.5063	120.117	84.4167	120.117	83.4955	120.117	84.281	120.117	83.512	120.117	84.1637	120.117	83.5503	120.117	84.0703	120.117	83.6035	120.117	84.0006	120.117	83.6642	120.117	83.9498	120.117	83.7256	120.117	83.9098	120.117	83.7822	120.117	83.8724	120.117	83.8311
124.512	84.8912	124.512	84.7677	124.512	84.9899	124.512	84.6251	124.512	85.0588	124.512	84.4696	124.512	85.0942	124.512	84.3077	124.512	85.0939	124.512	84.1459	124.512	85.0578	124.512	83.9905	124.512	84.9877	124.512	83.8476	124.512	84.8874	124.512	83.7223	124.512	84.7627	124.512	83.6187	124.512	84.6205	124.512	83.5392	124.512	84.4691	124.512	83.4847	124.512	84.3166	124.512	83.4545	124.512	84.171	124.512	83.4462	124.512	84.0383	124.512	83.4567	124.512	83.9224	124.512	83.4818	124.512	83.8243	124.512	83.5181	124.512	83.7422	124.512	83.5627	124.512	83.6733	124.512	83.6142
128.906	84.929	128.906	84.7969	128.906	85.0381	128.906	84.6485	128.906	85.1184	128.906	84.4913	128.906	85.1654	128.906	84.3328	128.906	85.177	128.906	84.1802	128.906	85.1528	128.906	84.0403	128.906	85.0951	128.906	83.9187	128.906	85.0079	128.906	83.8199	128.906	84.8974	128.906	83.747	128.906	84.7711	128.906	83.7009	128.906	84.6375	128.906	83.6809	128.906	84.5051	128.906	83.6842	128.906	84.3816	128.906	83.7066	128.906	84.2726	128.906	83.7432	128.906	84.1806	128.906	83.7885	128.906	84.1051	128.906	83.838	128.906	84.0426	128.906	83.8883	128.906	83.9885	128.906	83.9381
133.301	85.0262	133.301	84.9099	133.301	85.1157	133.301	84.7726	133.301	85.1748	133.301	84.621	133.301	85.2016	133.301	84.4628	133.301	85.1968	133.301	84.3052	133.301	85.1625	133.301	84.155	133.301	85.102	133.301	84.0175	133.301	85.0192	133.301	83.897	133.301	84.9179	133.301	83.7964	133.301	84.8021	133.301	83.7175	133.301	84.6754	133.301	83.6608	133.301	84.5417	133.301	83.6261	133.301	84.4055	133.301	83.6119	133.301	84.2717	133.301	83.6162	133.301	84.1454	133.301	83.6367	133.301	84.0309	133.301	83.6709	133.301	83.9309	133.301	83.7172	133.301	83.846	133.301	83.7753
139.16	84.5463	139.16	84.4023	139.16	84.6674	139.16	84.2427	139.16	84.7611	139.16	84.0773	139.16	84.8255	139.16	83.9182	139.16	84.8609	139.16	83.7778	139.16	84.8696	139.16	83.6675	139.16	84.8557	139.16	83.5957	139.16	84.8251	139.16	83.566	139.16	84.7847	139.16	83.5774	139.16	84.7411	139.16	83.6241	139.16	84.6994	139.16	83.6973	139.16	84.6618	139.16	83.7873	139.16	84.6274	139.16	83.885	139.16	84.5929	139.16	83.9833	139.16	84.5544	139.16	84.0778	139.16	84.5088	139.16	84.1662	139.16	84.4549	139.16	84.2482	139.16	84.3929	139.16	84.3238
143.555	84.6135	143.555	84.4575	143.555	84.7461	143.555	84.2865	143.555	84.8484	143.555	84.1097	143.555	84.915	143.555	83.9372	143.555	84.9426	143.555	83.7796	143.555	84.9307	143.555	83.6472	143.555	84.8826	143.555	83.5492	143.555	84.8053	143.555	83.4921	143.555	84.7094	143.555	83.4786	143.555	84.6078	143.555	83.5067	143.555	84.5134	143.555	83.5701	143.555	84.4365	143.555	83.6594	143.555	84.3818	143.555	83.7636	143.555	84.3479	143.555	83.8724	143.555	84.328	143.555	83.9773	143.555	84.3129	143.555	84.0718	143.555	84.2932	143.555	84.152	143.555	84.2622	143.555	84.2157
147.949	84.6623	147.949	84.5113	147.949	84.782	147.949	84.336	147.949	84.8643	147.949	84.1432	147.949	84.904	147.949	83.9405	147.949	84.8977	147.949	83.7361	147.949	84.8445	147.949	83.539	147.949	84.747	147.949	83.3587	147.949	84.6117	147.949	83.2048	147.949	84.4482	147.949	83.0859	147.949	84.2693	147.949	83.0078	147.949	84.0892	147.949	82.9726	147.949	83.9219	147.949	82.9778	147.949	83.7785	147.949	83.0169	147.949	83.6648	147.949	83.0799	147.949	83.5805	147.949	83.1558	147.949	83.5189	147.949	83.2345	147.949	83.4701	147.949	83.3076	147.949	83.4235	147.949	83.3707
153.809	84.0854	153.809	83.941	153.809	84.1961	153.809	83.7711	153.809	84.2677	153.809	83.5849	153.809	84.2975	153.809	83.3927	153.809	84.2862	153.809	83.2044	153.809	84.2379	153.809	83.0295	153.809	84.1588	153.809	82.8761	153.809	84.0569	153.809	82.7505	153.809	83.9407	153.809	82.6569	153.809	83.818	153.809	82.5972	153.809	83.6957	153.809	82.5709	153.809	83.5789	153.809	82.5753	153.809	83.4706	153.809	82.606	153.809	83.3717	153.809	82.6574	153.809	83.2813	153.809	82.7234	153.809	83.1972	153.809	82.7984	153.809	83.1167	153.809	82.8776	153.809	83.0374	153.809	82.9578
159.668	83.7632	159.668	83.6166	159.668	83.8764	159.668	83.4432	159.668	83.951	159.668	83.2515	159.668	83.9848	159.668	83.0511	159.668	83.9775	159.668	82.8521	159.668	83.932	159.668	82.6646	159.668	83.8535	159.668	82.4981	159.668	83.7495	159.668	82.3609	159.668	83.6289	159.668	82.2593	159.668	83.5012	159.668	82.1968	159.668	83.3754	159.668	82.1741	159.668	83.2585	159.668	82.1885	159.668	83.1548	159.668	82.2349	159.668	83.0648	159.668	82.3061	159.668	82.986	159.668	82.3936	159.668	82.9132	159.668	82.4894	159.668	82.8406	159.668	82.5862	159.668	82.7633	159.668	82.6785
165.527	83.2169	165.527	83.079	165.527	83.3206	165.527	82.9151	165.527	83.3841	165.527	82.735	165.527	83.4046	165.527	82.5493	165.527	83.3828	165.527	82.3688	165.527	83.3227	165.527	82.203	165.527	83.2311	165.527	82.0604	165.527	83.1175	165.527	81.9475	165.527	82.9927	165.527	81.8683	165.527	82.868	165.527	81.8245	165.527	82.7535	165.527	81.815	165.527	82.6567	165.527	81.8367	165.527	82.5808	165.527	81.8844	165.527	82.5239	165.527	81.9518	165.527	82.48	165.527	82.0319	165.527	82.4405	165.527	82.1173	165.527	82.3971	165.527	82.2013	165.527	82.3437	165.527	82.2781
171.387	82.6319	171.387	82.4791	171.387	82.7486	171.387	82.2996	171.387	82.8228	171.387	82.1047	171.387	82.8517	171.387	81.9066	171.387	82.8358	171.387	81.7168	171.387	82.7791	171.387	81.545	171.387	82.6879	171.387	81.3991	171.387	82.5704	171.387	81.2844	171.387	82.4367	171.387	81.2042	171.387	82.2979	171.387	81.1599	171.387	82.1654	171.387	81.151	171.387	82.0492	171.387	81.175	171.387	81.9562	171.387	81.2275	171.387	81.8876	171.387	81.3018	171.387	81.8389	171.387	81.39	171.387	81.8008	171.387	81.4832	171.387	81.7623	171.387	81.5725	171.387	81.714	171.387	81.6508
177.246	82.0767	177.246	81.8988	177.246	82.2106	177.246	81.685	177.246	82.2971	177.246	81.4483	177.246	82.3365	177.246	81.2062	177.246	82.3314	177.246	80.9786	177.246	82.2862	177.246	80.7851	177.246	82.2066	177.246	80.6412	177.246	82.0992	177.246	80.5559	177.246	81.9719	177.246	80.5299	177.246	81.8336	177.246	80.5569	177.246	81.6948	177.246	80.6255	177.246	81.566	177.246	80.7222	177.246	81.4575	177.246	80.8333	177.246	81.3762	177.246	80.9464	177.246	81.3242	177.246	81.051	177.246	81.2969	177.246	81.1389	177.246	81.2837	177.246	81.2051	177.246	81.2716	177.246	81.2482
183.105	81.7591	183.105	81.5903	183.105	81.8844	183.105	81.3853	183.105	81.9618	183.105	81.1546	183.105	81.9898	183.105	80.9113	183.105	81.9702	183.105	80.6714	183.105	81.9077	183.105	80.4521	183.105	81.8098	183.105	80.2704	183.105	81.6862	183.105	80.1406	183.105	81.5475	183.105	80.0713	183.105	81.4043	183.105	80.0638	183.105	81.2663	183.105	80.1115	183.105	81.1417	183.105	80.2014	183.105	81.037	183.105	80.3168	183.105	80.9562	183.105	80.4406	183.105	80.8997	183.105	80.5577	183.105	80.8637	183.105	80.6572	183.105	80.8401	183.105	80.7331	183.105	80.8176	183.105	80.7849
188.965	81.1137	188.965	80.9656	188.965	81.2143	188.965	80.7775	188.965	81.2643	188.965	80.5612	188.965	81.2655	188.965	80.3309	188.965	81.2242	188.965	80.1024	188.965	81.1503	188.965	79.8917	188.965	81.0558	188.965	79.7131	188.965	80.9529	188.965	79.5779	188.965	80.8524	188.965	79.493	188.965	80.7619	188.965	79.4604	188.965	80.6842	188.965	79.4769	188.965	80.6182	188.965	79.535	188.965	80.5595	188.965	79.624	188.965	80.5029	188.965	79.7319	188.965	80.4446	188.965	79.8472	188.965	80.3825	188.965	79.9603	188.965	80.3152	188.965	80.065	188.965	80.2413	188.965	80.1585
196.289	80.8204	196.289	80.6194	196.289	80.9752	196.289	80.3817	196.289	81.0772	196.289	80.12	196.289	81.1216	196.289	79.8506	196.289	81.1051	196.289	79.5925	196.289	81.027	196.289	79.366	196.289	80.8909	196.289	79.1903	196.289	80.7072	196.289	79.08	196.289	80.4945	196.289	79.0424	196.289	80.2787	196.289	79.0752	196.289	80.0895	196.289	79.1668	196.289	79.9526	196.289	79.299	196.289	79.8818	196.289	79.4517	196.289	79.8735	196.289	79.6063	196.289	79.9087	196.289	79.7482	196.289	79.961	196.289	79.8669	196.289	80.0054	196.289	79.9551	196.289	80.0242	196.289	80.0082
203.613	80.3198	203.613	80.1682	203.613	80.4329	203.613	79.9853	203.613	80.5023	203.613	79.7802	203.613	80.5261	203.613	79.5624	203.613	80.5053	203.613	79.3408	203.613	80.4439	203.613	79.1239	203.613	80.3486	203.613	78.9196	203.613	80.2283	203.613	78.7363	203.613	80.0927	203.613	78.5832	203.613	79.951	203.613	78.4698	203.613	79.8102	203.613	78.4041	203.613	79.6748	203.613	78.3904	203.613	79.5476	203.613	78.4269	203.613	79.4303	203.613	78.5053	203.613	79.3244	203.613	78.6119	203.613	79.2292	203.613	78.7311	203.613	79.1409	203.613	78.8489	203.613	79.0525	203.613	78.9567
210.938	79.8334	210.938	79.6152	210.938	80.0027	210.938	79.3615	210.938	80.1134	210.938	79.0888	210.938	80.1601	210.938	78.8161	210.938	80.1417	210.938	78.5624	210.938	80.0623	210.938	78.3447	210.938	79.9312	210.938	78.1748	210.938	79.7623	210.938	78.0584	210.938	79.5727	210.938	77.9954	210.938	79.3805	210.938	77.9814	210.938	79.2027	210.938	78.0098	210.938	79.0531	210.938	78.0732	210.938	78.9396	210.938	78.1635	210.938	78.8632	210.938	78.2716	210.938	78.8171	210.938	78.3869	210.938	78.789	210.938	78.4985	210.938	78.7639	210.938	78.5965	210.938	78.7286	210.938	78.674
218.262	79.4356	218.262	79.2317	218.262	79.5792	218.262	78.9782	218.262	79.6564	218.262	78.6906	218.262	79.6665	218.262	78.3883	218.262	79.6134	218.262	78.094	218.262	79.5062	218.262	77.8312	218.262	79.3587	218.262	77.6221	218.262	79.1888	218.262	77.4836	218.262	79.0175	218.262	77.4243	218.262	78.8659	218.262	77.4431	218.262	78.7516	218.262	77.5304	218.262	78.6848	218.262	77.6704	218.262	78.6652	218.262	77.8452	218.262	78.6819	218.262	78.0365	218.262	78.7166	218.262	78.2276	218.262	78.7481	218.262	78.4034	218.262	78.7574	218.262	78.5515	218.262	78.7311	218.262	78.6625
225.586	79.2865	225.586	79.0937	225.586	79.4163	225.586	78.849	225.586	79.4759	225.586	78.5673	225.586	79.4626	225.586	78.2671	225.586	79.3783	225.586	77.9694	225.586	79.2299	225.586	77.6963	225.586	79.0306	225.586	77.4688	225.586	78.7994	225.586	77.3038	225.586	78.5604	225.586	77.2113	225.586	78.3407	225.586	77.1931	225.586	78.1657	225.586	77.243	225.586	78.0534	225.586	77.3485	225.586	78.0092	225.586	77.4931	225.586	78.024	225.586	77.6586	225.586	78.077	225.586	77.8261	225.586	78.1412	225.586	77.9779	225.586	78.1909	225.586	78.0985	225.586	78.2064	225.586	78.1764
232.91	79.045	232.91	78.8399	232.91	79.193	232.91	78.5903	232.91	79.274	232.91	78.3108	232.91	79.281	232.91	78.018	232.91	79.2112	232.91	77.73	232.91	79.0666	232.91	77.4661	232.91	78.8551	232.91	77.2445	232.91	78.5913	232.91	77.0799	232.91	78.2958	232.91	76.9807	232.91	77.996	232.91	76.9473	232.91	77.7235	232.91	76.9723	232.91	77.5096	232.91	77.0429	232.91	77.3772	232.91	77.1439	232.91	77.3319	232.91	77.2591	232.91	77.3582	232.91	77.373	232.91	77.4259	232.91	77.4707	232.91	77.5004	232.91	77.5391	232.91	77.5533	232.91	77.568
241.699	78.47	241.699	78.2473	241.699	78.6299	241.699	77.9762	241.699	78.7188	241.699	77.6757	241.699	78.7352	241.699	77.3682	241.699	78.6837	241.699	77.0774	241.699	78.5739	241.699	76.8262	241.699	78.4177	241.699	76.6333	241.699	78.2277	241.699	76.51	241.699	78.0163	241.699	76.4578	241.699	77.7963	241.699	76.4689	241.699	77.5818	241.699	76.5288	241.699	77.3884	241.699	76.6202	241.699	77.231	241.699	76.726	241.699	77.1204	241.699	76.8316	241.699	77.0591	241.699	76.925	241.699	77.0395	241.699	76.9974	241.699	77.0458	241.699	77.0433	241.699	77.0591	241.699	77.0622
250.488	78.7627	250.488	78.5081	250.488	78.9359	250.488	78.1806	250.488	79.0224	250.488	77.7928	250.488	79.0204	250.488	77.3626	250.488	78.9319	250.488	76.9148	250.488	78.7637	250.488	76.4826	250.488	78.5272	250.488	76.106	250.488	78.2391	250.488	75.8247	250.488	77.921	250.488	75.667	250.488	77.5997	250.488	75.6387	250.488	77.3057	250.488	75.7215	250.488	77.0695	250.488	75.881	250.488	76.9128	250.488	76.0794	250.488	76.8394	250.488	76.2847	250.488	76.8315	250.488	76.4747	250.488	76.8568	250.488	76.6356	250.488	76.8817	250.488	76.7595	250.488	76.8812	250.488	76.8418
259.277	78.7045	259.277	78.5075	259.277	78.8283	259.277	78.2438	259.277	78.8757	259.277	77.9229	259.277	78.8479	259.277	77.5581	259.277	78.7507	259.277	77.1675	259.277	78.5942	259.277	76.7766	259.277	78.3911	259.277	76.4176	259.277	78.1533	259.277	76.1268	259.277	77.8909	259.277	75.936	259.277	77.6126	259.277	75.8621	259.277	77.3305	259.277	75.8999	259.277	77.0657	259.277	76.0244	259.277	76.8487	259.277	76.1999	259.277	76.71	259.277	76.3908	259.277	76.6628	259.277	76.5676	259.277	76.6911	259.277	76.7089	259.277	76.7563	259.277	76.8004	259.277	76.815	259.277	76.8351
268.066	78.38	268.066	78.1613	268.066	78.5106	268.066	77.8631	268.066	78.5503	268.066	77.498	268.066	78.5035	268.066	77.083	268.066	78.3833	268.066	76.6403	268.066	78.2106	268.066	76.1989	268.066	78.0099	268.066	75.7939	268.066	77.8033	268.066	75.4626	268.066	77.6043	268.066	75.2371	268.066	77.4155	268.066	75.1342	268.066	77.2314	268.066	75.1497	268.066	77.0455	268.066	75.2604	268.066	76.8587	268.066	75.4327	268.066	76.6827	268.066	75.6318	268.066	76.5353	268.066	75.8286	268.066	76.4282	268.066	76.0016	268.066	76.3568	268.066	76.138	268.066	76.301	268.066	76.2348
276.855	78.5582	276.855	78.3186	276.855	78.6899	276.855	77.9746	276.855	78.7176	276.855	77.5369	276.855	78.6517	276.855	77.0246	276.855	78.5076	276.855	76.466	276.855	78.3025	276.855	75.901	276.855	78.0547	276.855	75.3812	276.855	77.7838	276.855	74.9649	276.855	77.5117	276.855	74.7032	276.855	77.2621	276.855	74.621	276.855	77.0535	276.855	74.7047	276.855	76.8922	276.855	74.9063	276.855	76.7691	276.855	75.1647	276.855	76.6663	276.855	75.4271	276.855	76.5675	276.855	75.6606	276.855	76.4647	276.855	75.853	276.855	76.3578	276.855	76.0073	276.855	76.2487	276.855	76.1349
287.109	78.0493	287.109	77.8566	287.109	78.1626	287.109	77.5902	287.109	78.1964	287.109	77.2616	287.109	78.1557	287.109	76.8867	287.109	78.0482	287.109	76.4856	287.109	77.8836	287.109	76.0825	287.109	77.6731	287.109	75.7069	287.109	77.4315	287.109	75.3935	287.109	77.1791	287.109	75.1784	287.109	76.9426	287.109	75.0886	287.109	76.7514	287.109	75.1289	287.109	76.6287	287.109	75.2772	287.109	76.5805	287.109	75.4938	287.109	76.591	287.109	75.7372	287.109	76.6284	287.109	75.9756	287.109	76.6582	287.109	76.1899	287.109	76.6552	287.109	76.3702	287.109	76.6068	287.109	76.5107
297.363	78.0566	297.363	77.8505	297.363	78.1884	297.363	77.5849	297.363	78.238	297.363	77.2789	297.363	78.2031	297.363	76.9521	297.363	78.0853	297.363	76.6198	297.363	77.8886	297.363	76.2912	297.363	77.6195	297.363	75.9725	297.363	77.2885	297.363	75.6744	297.363	76.9137	297.363	75.4174	297.363	76.5255	297.363	75.2318	297.363	76.1695	297.363	75.1456	297.363	75.9017	297.363	75.1701	297.363	75.7673	297.363	75.2905	297.363	75.7725	297.363	75.4723	297.363	75.8758	297.363	75.6759	297.363	76.01	297.363	75.8675	297.363	76.1149	297.363	76.0226	297.363	76.1559	297.363	76.1231
307.617	76.8404	307.617	76.5009	307.617	77.1156	307.617	76.13	307.617	77.3031	307.617	75.7694	307.617	77.3906	307.617	75.4639	307.617	77.3777	307.617	75.2516	307.617	77.2769	307.617	75.1505	307.617	77.1114	307.617	75.1522	307.617	76.9091	307.617	75.2268	307.617	76.6964	307.617	75.3381	307.617	76.494	307.617	75.4564	307.617	76.3191	307.617	75.5662	307.617	76.1889	307.617	75.6652	307.617	76.1191	307.617	75.7592	307.617	76.1154	307.617	75.8562	307.617	76.1633	307.617	75.9604	307.617	76.2304	307.617	76.0686	307.617	76.2806	307.617	76.1703	307.617	76.2889	307.617	76.2492
319.336	77.199	319.336	76.847	319.336	77.36	319.336	76.3172	319.336	77.3306	319.336	75.6391	319.336	77.1251	319.336	74.8664	319.336	76.7736	319.336	74.0914	319.336	76.3254	319.336	73.4617	319.336	75.8541	319.336	73.1635	319.336	75.4536	319.336	73.3291	319.336	75.2147	319.336	73.9268	319.336	75.1876	319.336	74.7807	319.336	75.3638	319.336	75.6976	319.336	75.6985	319.336	76.5454	319.336	76.143	319.336	77.2586	319.336	76.6537	319.336	77.8148	319.336	77.1839	319.336	78.2147	319.336	77.6803	319.336	78.4667	319.336	78.0936	319.336	78.5783	319.336	78.3898	319.336	78.5527
329.59	78.4807	329.59	78.1428	329.59	78.6733	329.59	77.6756	329.59	78.7082	329.59	77.0985	329.59	78.5756	329.59	76.4349	329.59	78.2696	329.59	75.7113	329.59	77.793	329.59	74.962	329.59	77.165	329.59	74.2431	329.59	76.4305	329.59	73.6534	329.59	75.6675	329.59	73.3353	329.59	74.9879	329.59	73.4107	329.59	74.5186	329.59	73.8755	329.59	74.3578	329.59	74.5874	329.59	74.5278	329.59	75.3677	329.59	74.9651	329.59	76.0844	329.59	75.5528	329.59	76.6633	329.59	76.1659	329.59	77.0671	329.59	76.7006	329.59	77.277	329.59	77.0862	329.59	77.2834
341.309	78.1007	341.309	77.771	341.309	78.2822	341.309	77.3098	341.309	78.3063	341.309	76.7419	341.309	78.1704	341.309	76.102	341.309	77.8794	341.309	75.4327	341.309	77.4469	341.309	74.783	341.309	76.8979	341.309	74.2043	341.309	76.2722	341.309	73.7477	341.309	75.6285	341.309	73.4616	341.309	75.0483	341.309	73.3844	341.309	74.628	341.309	73.529	341.309	74.447	341.309	73.8678	341.309	74.5214	341.309	74.3349	341.309	74.7891	341.309	74.8461	341.309	75.1482	341.309	75.3221	341.309	75.5064	341.309	75.7019	341.309	75.7995	341.309	75.9471	341.309	75.9869	341.309	76.0414
353.027	78.1622	353.027	77.8411	353.027	78.3336	353.027	77.3776	353.027	78.3487	353.027	76.7809	353.027	78.2048	353.027	76.0651	353.027	77.9065	353.027	75.2575	353.027	77.4694	353.027	74.4105	353.027	76.9216	353.027	73.6151	353.027	76.3018	353.027	72.9979	353.027	75.6546	353.027	72.6821	353.027	75.0286	353.027	72.7174	353.027	74.4838	353.027	73.0488	353.027	74.1043	353.027	73.5623	353.027	73.9877	353.027	74.1474	353.027	74.1802	353.027	74.7227	353.027	74.6122	353.027	75.2315	353.027	75.1286	353.027	75.6319	353.027	75.5797	353.027	75.8899	353.027	75.8741	353.027	75.9771
366.211	78.4226	366.211	78.1515	366.211	78.5408	366.211	77.7338	366.211	78.5035	366.211	77.1783	366.211	78.3142	366.211	76.4954	366.211	77.9833	366.211	75.7016	366.211	77.528	366.211	74.8285	366.211	76.9692	366.211	73.9367	366.211	76.3301	366.211	73.1266	366.211	75.6385	366.211	72.5283	366.211	74.9362	366.211	72.2514	366.211	74.2978	366.211	72.3234	366.211	73.8408	366.211	72.6768	366.211	73.6874	366.211	73.1981	366.211	73.8687	366.211	73.7785	366.211	74.2744	366.211	74.3331	366.211	74.7293	366.211	74.8001	366.211	75.0935	366.211	75.135	366.211	75.2936	366.211	75.306
379.395	78.5265	379.395	78.2185	379.395	78.6889	379.395	77.7716	379.395	78.6995	379.395	77.1944	379.395	78.5539	379.395	76.4983	379.395	78.2522	379.395	75.7024	379.395	77.8022	379.395	74.8412	379.395	77.2232	379.395	73.9776	379.395	76.5447	379.395	73.2131	379.395	75.8062	379.395	72.6767	379.395	75.0592	379.395	72.4754	379.395	74.3758	379.395	72.6301	379.395	73.8568	379.395	73.0639	379.395	73.6192	379.395	73.6545	379.395	73.7349	379.395	74.2871	379.395	74.1541	379.395	74.8727	379.395	74.7151	379.395	75.3432	379.395	75.2386	379.395	75.6451	379.395	75.5991	379.395	75.7377
392.578	78.5332	392.578	78.237	392.578	78.6691	392.578	77.7897	392.578	78.6411	392.578	77.2053	392.578	78.4541	392.578	76.5039	392.578	78.1245	392.578	75.7134	392.578	77.6781	392.578	74.8708	392.578	77.1421	392.578	74.0267	392.578	76.5345	392.578	73.2517	392.578	75.8598	392.578	72.6425	392.578	75.1221	392.578	72.3063	392.578	74.3577	392.578	72.3119	392.578	73.6729	392.578	72.6392	392.578	73.2428	392.578	73.1834	392.578	73.208	392.578	73.8085	392.578	73.5383	392.578	74.3929	392.578	74.0549	392.578	74.8455	392.578	74.569	392.578	75.1059	392.578	74.9544	392.578	75.1429
405.762	78.8574	405.762	78.6526	405.762	78.8805	405.762	78.2653	405.762	78.7346	405.762	77.7028	405.762	78.4475	405.762	76.9777	405.762	78.0598	405.762	76.108	405.762	77.6141	405.762	75.1228	405.762	77.1395	405.762	74.0778	405.762	76.6425	405.762	73.0817	405.762	76.11	405.762	72.3083	405.762	75.5237	405.762	71.94	405.762	74.888	405.762	72.0409	405.762	74.2697	405.762	72.5017	405.762	73.824	405.762	73.1393	405.762	73.7253	405.762	73.8047	405.762	74.0002	405.762	74.4066	405.762	74.4782	405.762	74.8896	405.762	74.9412	405.762	75.2119	405.762	75.2471	405.762	75.3387
420.41	79.1491	420.41	78.9029	420.41	79.2336	420.41	78.4877	420.41	79.1734	420.41	77.9071	420.41	78.991	420.41	77.176	420.41	78.7068	420.41	76.3209	420.41	78.3317	420.41	75.3795	420.41	77.8661	420.41	74.4045	420.41	77.3069	420.41	73.475	420.41	76.6519	420.41	72.7136	420.41	75.8978	420.41	72.2766	420.41	75.0439	420.41	72.2745	420.41	74.1289	420.41	72.6724	420.41	73.3102	420.41	73.3083	420.41	72.8938	420.41	74.0057	420.41	73.1026	420.41	74.6363	420.41	73.7722	420.41	75.1154	420.41	74.5255	420.41	75.3815	420.41	75.0975	420.41	75.3859
435.059	78.8222	435.059	78.6252	435.059	78.8904	435.059	78.287	435.059	78.8494	435.059	77.8064	435.059	78.7178	435.059	77.1956	435.059	78.5052	435.059	76.4797	435.059	78.2064	435.059	75.6907	435.059	77.8049	435.059	74.8608	435.059	77.2843	435.059	74.0283	435.059	76.64	435.059	73.2661	435.059	75.8879	435.059	72.7159	435.059	75.0709	435.059	72.5588	435.059	74.2712	435.059	72.8733	435.059	73.6316	435.059	73.5333	435.059	73.3439	435.059	74.3073	435.059	73.5289	435.059	75.0011	435.059	74.09	435.059	75.4975	435.059	74.7731	435.059	75.7346	435.059	75.3476	435.059	75.6842
451.172	79.5558	451.172	79.2866	451.172	79.6665	451.172	78.8574	451.172	79.6239	451.172	78.269	451.172	79.4361	451.172	77.5225	451.172	79.112	451.172	76.6216	451.172	78.6597	451.172	75.5797	451.172	78.0906	451.172	74.4324	451.172	77.424	451.172	73.2559	451.172	76.6872	451.172	72.1898	451.172	75.9041	451.172	71.4475	451.172	75.0829	451.172	71.25	451.172	74.227	451.172	71.6514	451.172	73.3804	451.172	72.4555	451.172	72.689	451.172	73.3648	451.172	72.3942	451.172	74.1419	451.172	72.6457	451.172	74.6432	451.172	73.2992	451.172	74.7951	451.172	74.032	451.172	74.5771
465.82	79.2187	465.82	78.9386	465.82	79.3203	465.82	78.482	465.82	79.2511	465.82	77.8642	465.82	79.0223	465.82	77.1142	465.82	78.6449	465.82	76.2704	465.82	78.1303	465.82	75.3737	465.82	77.4988	465.82	74.461	465.82	76.7884	465.82	73.5693	465.82	76.0575	465.82	72.7587	465.82	75.3717	465.82	72.1496	465.82	74.778	465.82	71.9102	465.82	74.2896	465.82	72.132	465.82	73.9097	465.82	72.7132	465.82	73.6786	465.82	73.4327	465.82	73.6733	465.82	74.0963	465.82	73.9165	465.82	74.5884	465.82	74.3047	465.82	74.8534	465.82	74.6686	465.82	74.8742
483.398	79.2126	483.398	78.9842	483.398	79.2485	483.398	78.5609	483.398	79.1147	483.398	77.9612	483.398	78.8445	483.398	77.222	483.398	78.4654	483.398	76.3919	483.398	77.9871	483.398	75.5163	483.398	77.4109	483.398	74.6186	483.398	76.7511	483.398	73.6979	483.398	76.0446	483.398	72.7656	483.398	75.3368	483.398	71.9199	483.398	74.6636	483.398	71.396	483.398	74.0627	483.398	71.4446	483.398	73.614	483.398	72.0539	483.398	73.4358	483.398	72.9334	483.398	73.5796	483.398	73.7795	483.398	73.9476	483.398	74.4154	483.398	74.3671	483.398	74.7736	483.398	74.6992	483.398	74.8551
499.512	79.4403	499.512	79.1314	499.512	79.5944	499.512	78.6786	499.512	79.5911	499.512	78.1093	499.512	79.4221	499.512	77.4597	499.512	79.0678	499.512	76.7543	499.512	78.5095	499.512	75.9867	499.512	77.7526	499.512	75.1205	499.512	76.8424	499.512	74.1243	499.512	75.8606	499.512	73.0398	499.512	74.906	499.512	72.0615	499.512	74.0718	499.512	71.5318	499.512	73.4442	499.512	71.6953	499.512	73.1264	499.512	72.4331	499.512	73.2355	499.512	73.4144	499.512	73.7803	499.512	74.3695	499.512	74.5589	499.512	75.1473	499.512	75.2828	499.512	75.6673	499.512	75.7499	499.512	75.879
517.09	78.8471	517.09	78.7092	517.09	78.867	517.09	78.4543	517.09	78.7752	517.09	78.0977	517.09	78.5726	517.09	77.6604	517.09	78.2534	517.09	77.1502	517.09	77.8206	517.09	76.5467	517.09	77.3019	517.09	75.8083	517.09	76.7424	517.09	74.8996	517.09	76.1711	517.09	73.822	517.09	75.572	517.09	72.6429	517.09	74.888	517.09	71.5575	517.09	74.0482	517.09	70.9728	517.09	73.0282	517.09	71.2798	517.09	72.0184	517.09	72.3029	517.09	71.607	517.09	73.484	517.09	72.2413	517.09	74.4242	517.09	73.4215	517.09	74.9424	517.09	74.431	517.09	74.9564
536.133	79.2592	536.133	79.1064	536.133	79.2062	536.133	78.7607	536.133	78.9428	536.133	78.2338	536.133	78.4843	536.133	77.5398	536.133	77.8725	536.133	76.7165	536.133	77.177	536.133	75.8475	536.133	76.4923	536.133	75.0479	536.133	75.922	536.133	74.3946	536.133	75.541	536.133	73.8708	536.133	75.3431	536.133	73.4037	536.133	75.2097	536.133	72.9645	536.133	74.9525	536.133	72.6547	536.133	74.4291	536.133	72.6803	536.133	73.677	536.133	73.1295	536.133	73.0255	536.133	73.8109	536.133	72.9525	536.133	74.4221	536.133	73.5029	536.133	74.7457	536.133	74.2122	536.133	74.6772
555.176	80.5067	555.176	80.264	555.176	80.5309	555.176	79.7754	555.176	80.366	555.176	79.0357	555.176	80.0307	555.176	78.0829	555.176	79.5379	555.176	77.0137	555.176	78.9103	555.176	75.9721	555.176	78.1785	555.176	75.089	555.176	77.3542	555.176	74.3991	555.176	76.4284	555.176	73.8272	555.176	75.439	555.176	73.2919	555.176	74.5575	555.176	72.8457	555.176	74.035	555.176	72.7043	555.176	73.9349	555.176	73.0428	555.176	74.0401	555.176	73.7539	555.176	74.1323	555.176	74.541	555.176	74.2215	555.176	75.1431	555.176	74.4718	555.176	75.4083	555.176	74.9045	555.176	75.2964
574.219	81.21	574.219	80.8737	574.219	81.3268	574.219	80.3365	574.219	81.2094	574.219	79.6221	574.219	80.8571	574.219	78.7645	574.219	80.3002	574.219	77.8115	574.219	79.6077	574.219	76.8253	574.219	78.8565	574.219	75.8801	574.219	78.0694	574.219	75.0503	574.219	77.1896	574.219	74.3761	574.219	76.1377	574.219	73.8326	574.219	74.9103	574.219	73.3822	574.219	73.6728	574.219	73.1068	574.219	72.7869	574.219	73.2282	574.219	72.605	574.219	73.8357	574.219	73.1032	574.219	74.6836	574.219	73.9465	574.219	75.4267	574.219	74.818	574.219	75.8501	574.219	75.506	574.219	75.8742
594.727	81.3455	594.727	81.2109	594.727	81.216	594.727	80.8134	594.727	80.8677	594.727	80.1913	594.727	80.3798	594.727	79.3974	594.727	79.8232	594.727	78.4707	594.727	79.2165	594.727	77.4196	594.727	78.5217	594.727	76.2498	594.727	77.6938	594.727	75.0401	594.727	76.7609	594.727	73.9736	594.727	75.8672	594.727	73.2177	594.727	75.1676	594.727	72.7936	594.727	74.6175	594.727	72.6629	594.727	73.9769	594.727	72.8855	594.727	73.1733	594.727	73.5438	594.727	72.7444	594.727	74.4992	594.727	73.3659	594.727	75.4172	594.727	74.5888	594.727	76.0024	594.727	75.6036	594.727	76.0874
615.234	81.2532	615.234	81.0721	615.234	81.213	615.234	80.6608	615.234	80.9776	615.234	80.0486	615.234	80.557	615.234	79.2952	615.234	79.9301	615.234	78.4529	615.234	79.0747	615.234	77.5291	615.234	78.0195	615.234	76.5114	615.234	76.8703	615.234	75.4519	615.234	75.7756	615.234	74.5151	615.234	74.8469	615.234	73.8917	615.234	74.1676	615.234	73.6455	615.234	73.9145	615.234	73.7348	615.234	74.1795	615.234	74.1442	615.234	74.6041	615.234	74.8196	615.234	74.7629	615.234	75.568	615.234	74.7192	615.234	76.1481	615.234	74.934	615.234	76.3722	615.234	75.5469	615.234	76.1461
637.207	81.3787	637.207	81.0176	637.207	81.4591	637.207	80.3923	637.207	81.2804	637.207	79.5585	637.207	80.8762	637.207	78.6	637.207	80.2654	637.207	77.6118	637.207	79.4681	637.207	76.6704	637.207	78.5434	637.207	75.8064	637.207	77.5694	637.207	75.0024	637.207	76.5659	637.207	74.2095	637.207	75.4886	637.207	73.3725	637.207	74.353	637.207	72.5178	637.207	73.3369	637.207	71.9403	637.207	72.6726	637.207	72.1403	637.207	72.4474	637.207	73.1301	637.207	72.6472	637.207	74.3138	637.207	73.2227	637.207	75.1902	637.207	74.0199	637.207	75.5558	637.207	74.819	637.207	75.3956
659.18	81.2486	659.18	80.9799	659.18	81.2249	659.18	80.4131	659.18	80.9433	659.18	79.6245	659.18	80.4272	659.18	78.7767	659.18	79.7042	659.18	78.0414	659.18	78.8397	659.18	77.4687	659.18	77.9443	659.18	76.9237	659.18	77.137	659.18	76.2075	659.18	76.4442	659.18	75.2832	659.18	75.7587	659.18	74.3914	659.18	74.992	659.18	73.8107	659.18	74.195	659.18	73.486	659.18	73.4058	659.18	73.3102	659.18	72.5342	659.18	73.5403	659.18	71.8671	659.18	74.3637	659.18	72.4832	659.18	75.4198	659.18	74.2386	659.18	76.2049	659.18	75.7319	659.18	76.3792
682.617	82.0836	682.617	81.8397	682.617	82.0299	682.617	81.3343	682.617	81.7168	682.617	80.6641	682.617	81.2175	682.617	79.9127	682.617	80.5712	682.617	79.066	682.617	79.761	682.617	78.0407	682.617	78.7702	682.617	76.8551	682.617	77.6475	682.617	75.7312	682.617	76.5787	682.617	74.8981	682.617	75.8436	682.617	74.3162	682.617	75.3773	682.617	73.8465	682.617	74.7825	682.617	73.5919	682.617	74.1778	682.617	73.7924	682.617	74.2881	682.617	74.4597	682.617	74.9108	682.617	75.3528	682.617	75.2124	682.617	76.1433	682.617	75.2924	682.617	76.5258	682.617	75.732	682.617	76.3336
707.52	81.3471	707.52	81.3399	707.52	81.0977	707.52	80.9242	707.52	80.7654	707.52	80.1029	707.52	80.3538	707.52	79.0512	707.52	79.6871	707.52	78.0109	707.52	78.6685	707.52	77.1146	707.52	77.4879	707.52	76.32	707.52	76.4516	707.52	75.5151	707.52	75.5849	707.52	74.6638	707.52	74.7148	707.52	73.8706	707.52	73.8126	707.52	73.2691	707.52	72.9682	707.52	72.8511	707.52	72.1577	707.52	72.6707	707.52	71.2981	707.52	73.0948	707.52	70.7545	707.52	74.1825	707.52	71.4384	707.52	75.3173	707.52	73.1873	707.52	75.9445	707.52	74.8532	707.52	75.8153
732.422	81.3956	732.422	81.4021	732.422	81.1218	732.422	81.0909	732.422	80.609	732.422	80.4367	732.422	79.8702	732.422	79.5025	732.422	78.9883	732.422	78.4442	732.422	78.1937	732.422	77.462	732.422	77.6239	732.422	76.6744	732.422	77.0238	732.422	75.9733	732.422	76.0494	732.422	75.1711	732.422	74.6509	732.422	74.2847	732.422	73.129	732.422	73.5502	732.422	72.0558	732.422	73.1544	732.422	71.8773	732.422	73.2112	732.422	72.207	732.422	73.8757	732.422	72.2619	732.422	75.0145	732.422	72.2496	732.422	76.1133	732.422	73.3539	732.422	76.669	732.422	75.1484	732.422	76.3787
757.324	82.3892	757.324	81.958	757.324	82.3224	757.324	81.1685	757.324	81.841	757.324	80.3578	757.324	81.1175	757.324	79.7837	757.324	80.2882	757.324	79.3191	757.324	79.4532	757.324	78.5999	757.324	78.6546	757.324	77.4597	757.324	77.7513	757.324	76.1289	757.324	76.5504	757.324	75.0438	757.324	75.1207	757.324	74.3688	757.324	73.6595	757.324	73.8444	757.324	72.2322	757.324	73.188	757.324	71.3519	757.324	72.5584	757.324	72.0517	757.324	72.7819	757.324	73.5317	757.324	74.1229	757.324	74.5319	757.324	75.5364	757.324	74.9471	757.324	76.2023	757.324	75.3667	757.324	75.9918
785.156	82.2703	785.156	82.3023	785.156	81.8123	785.156	81.8302	785.156	81.1253	785.156	80.9489	785.156	80.2918	785.156	79.8327	785.156	79.2908	785.156	78.6756	785.156	78.2443	785.156	77.7246	785.156	77.2832	785.156	77.217	785.156	76.2351	785.156	77.0018	785.156	74.8938	785.156	76.5874	785.156	73.7098	785.156	75.7326	785.156	73.6876	785.156	74.6858	785.156	74.6055	785.156	73.9132	785.156	74.64	785.156	73.5512	785.156	72.4376	785.156	73.4377	785.156	69.2963	785.156	73.6553	785.156	70.5678	785.156	74.4203	785.156	72.7452	785.156	75.3109	785.156	74.4518	785.156	75.4565
811.523	82.193	811.523	82.1213	811.523	81.8674	811.523	81.4363	811.523	81.5743	811.523	80.3486	811.523	81.4145	811.523	79.3789	811.523	80.9993	811.523	78.7582	811.523	80.0049	811.523	78.1418	811.523	78.4958	811.523	77.3139	811.523	76.8905	811.523	76.3431	811.523	75.6219	811.523	74.9651	811.523	74.5922	811.523	72.9969	811.523	73.3166	811.523	71.4648	811.523	72.2603	811.523	71.2597	811.523	73.2076	811.523	71.9543	811.523	74.3659	811.523	73.5323	811.523	73.6129	811.523	75.4748	811.523	71.1297	811.523	76.6222	811.523	69.7861	811.523	76.3508	811.523	71.8096	811.523	74.61
840.82	81.9885	840.82	81.9534	840.82	81.8029	840.82	81.5014	840.82	81.4887	840.82	80.7681	840.82	80.7266	840.82	80.0295	840.82	79.3726	840.82	79.3169	840.82	78.1116	840.82	78.502	840.82	77.7199	840.82	77.6352	840.82	77.6731	840.82	76.8408	840.82	77.1012	840.82	75.8848	840.82	75.5752	840.82	74.3772	840.82	73.5395	840.82	72.8507	840.82	71.9078	840.82	72.8136	840.82	69.7267	840.82	73.7925	840.82	64.8355	840.82	74.7056	840.82	65.9585	840.82	75.6998	840.82	70.9686	840.82	76.1479	840.82	73.1585	840.82	75.2143	840.82	73.5758	840.82	73.8125
870.117	82.5551	870.117	82.6077	870.117	82.2199	870.117	82.1919	870.117	81.6961	870.117	81.2051	870.117	80.9511	870.117	79.8041	870.117	80.0063	870.117	78.6228	870.117	78.9908	870.117	78.1187	870.117	77.8782	870.117	77.894	870.117	76.2138	870.117	77.8035	870.117	73.6597	870.117	77.8732	870.117	71.0432	870.117	77.5791	870.117	70.196	870.117	76.3667	870.117	71.6828	870.117	74.3296	870.117	73.9299	870.117	72.7085	870.117	74.9287	870.117	72.6941	870.117	73.4581	870.117	73.4833	870.117	69.3822	870.117	74.789	870.117	72.1891	870.117	76.4688	870.117	76.2697	870.117	77.3651
900.879	82.8952	900.879	83.1623	900.879	82.1791	900.879	82.7676	900.879	81.2205	900.879	81.7313	900.879	79.9983	900.879	80.2663	900.879	78.5952	900.879	78.6289	900.879	77.4471	900.879	77.1634	900.879	76.7393	900.879	76.3119	900.879	76.1991	900.879	75.8665	900.879	75.6109	900.879	75.1364	900.879	74.5049	900.879	74.0225	900.879	72.1772	900.879	73.2253	900.879	69.5773	900.879	73.0051	900.879	70.1544	900.879	72.5929	900.879	71.27	900.879	71.8152	900.879	72.0596	900.879	72.3755	900.879	72.1929	900.879	74.2019	900.879	71.1656	900.879	75.0858	900.879	72.1193	900.879	74.3086
933.105	82.7651	933.105	82.9764	933.105	82.1505	933.105	82.4254	933.105	81.6403	933.105	81.359	933.105	81.0236	933.105	80.1502	933.105	79.9359	933.105	78.9532	933.105	78.5293	933.105	78.0082	933.105	77.1848	933.105	77.3556	933.105	75.9329	933.105	76.5589	933.105	74.507	933.105	75.6249	933.105	73.0897	933.105	75.1118	933.105	71.9155	933.105	74.606	933.105	70.8465	933.105	73.2188	933.105	71.6531	933.105	71.9069	933.105	72.4893	933.105	72.3681	933.105	70.8852	933.105	73.4036	933.105	69.1358	933.105	74.1298	933.105	70.9616	933.105	74.5959	933.105	73.275	933.105	74.4886
965.332	82.7948	965.332	82.94	965.332	82.2351	965.332	82.656	965.332	81.4576	965.332	82.001	965.332	80.284	965.332	80.7993	965.332	78.5409	965.332	78.8065	965.332	77.2004	965.332	76.2359	965.332	76.9032	965.332	74.3158	965.332	76.434	965.332	74.2905	965.332	75.1776	965.332	74.9605	965.332	73.4798	965.332	74.5989	965.332	71.8867	965.332	73.2056	965.332	70.4247	965.332	71.845	965.332	67.7522	965.332	70.8684	965.332	67.6709	965.332	71.0898	965.332	70.9853	965.332	73.0768	965.332	71.8112	965.332	74.8037	965.332	70.7658	965.332	75.1912	965.332	71.411	965.332	73.9208
1,000.49	82.2022	1,000.49	82.5804	1,000.49	81.5519	1,000.49	82.4045	1,000.49	80.8225	1,000.49	81.7782	1,000.49	79.7605	1,000.49	80.7039	1,000.49	78.8525	1,000.49	78.989	1,000.49	78.3566	1,000.49	77.0655	1,000.49	77.4414	1,000.49	75.8987	1,000.49	76.5304	1,000.49	75.4615	1,000.49	76.5319	1,000.49	75.0062	1,000.49	76.4583	1,000.49	74.2371	1,000.49	75.0438	1,000.49	73.4956	1,000.49	72.7615	1,000.49	73.0609	1,000.49	72.7259	1,000.49	72.6648	1,000.49	73.174	1,000.49	72.4789	1,000.49	71.3409	1,000.49	72.6777	1,000.49	68.2331	1,000.49	73.0751	1,000.49	67.7068	1,000.49	73.3839	1,000.49	70.3279	1,000.49	72.7076
1,035.64	81.1661	1,035.64	82.3057	1,035.64	80.4132	1,035.64	82.5834	1,035.64	80.159	1,035.64	82.0108	1,035.64	78.9392	1,035.64	80.9438	1,035.64	77.3921	1,035.64	78.9486	1,035.64	77.4653	1,035.64	75.5592	1,035.64	77.85	1,035.64	72.8328	1,035.64	76.9955	1,035.64	72.1269	1,035.64	75.1213	1,035.64	71.2651	1,035.64	73.545	1,035.64	71.4052	1,035.64	72.5139	1,035.64	72.3972	1,035.64	71.8062	1,035.64	72.594	1,035.64	70.8554	1,035.64	72.0223	1,035.64	67.4931	1,035.64	72.0503	1,035.64	66.7389	1,035.64	73.4265	1,035.64	68.8938	1,035.64	74.1452	1,035.64	68.3806	1,035.64	73.1189	1,035.64	68.3458	1,035.64	70.7073
1,072.27	80.5623	1,072.27	81.918	1,072.27	79.8728	1,072.27	82.5183	1,072.27	79.1772	1,072.27	81.7673	1,072.27	77.6757	1,072.27	80.1543	1,072.27	77.0819	1,072.27	78.2453	1,072.27	77.4868	1,072.27	76.1084	1,072.27	77.3616	1,072.27	74.3245	1,072.27	76.3537	1,072.27	72.8944	1,072.27	74.9394	1,072.27	70.9808	1,072.27	74.4187	1,072.27	70.0117	1,072.27	73.4934	1,072.27	71.1423	1,072.27	69.1882	1,072.27	71.7131	1,072.27	67.3409	1,072.27	70.8302	1,072.27	71.663	1,072.27	70.6848	1,072.27	71.7685	1,072.27	71.8492	1,072.27	69.1104	1,072.27	72.3989	1,072.27	67.7468	1,072.27	72.286	1,072.27	69.4392	1,072.27	71.5343
1,108.89	80.3877	1,108.89	80.1421	1,108.89	80.5933	1,108.89	80.6314	1,108.89	79.2868	1,108.89	80.8224	1,108.89	77.5318	1,108.89	80.0418	1,108.89	77.6244	1,108.89	77.8903	1,108.89	77.6514	1,108.89	74.3406	1,108.89	76.5553	1,108.89	71.0779	1,108.89	74.8441	1,108.89	71.5286	1,108.89	73.9104	1,108.89	72.733	1,108.89	73.9706	1,108.89	71.8543	1,108.89	73.2968	1,108.89	70.6716	1,108.89	71.6395	1,108.89	71.0285	1,108.89	69.4577	1,108.89	70.3031	1,108.89	65.9009	1,108.89	69.0945	1,108.89	67.8083	1,108.89	70.71	1,108.89	70.0057	1,108.89	71.8695	1,108.89	68.048	1,108.89	71.5167	1,108.89	67.7042	1,108.89	70.2664
1,148.44	82.0452	1,148.44	82.4532	1,148.44	81.718	1,148.44	82.6568	1,148.44	81.1047	1,148.44	82.2869	1,148.44	80.3494	1,148.44	81.4029	1,148.44	80.0198	1,148.44	80.3167	1,148.44	79.891	1,148.44	78.8936	1,148.44	79.5208	1,148.44	76.9593	1,148.44	78.0776	1,148.44	75.2116	1,148.44	75.7976	1,148.44	74.9484	1,148.44	74.9707	1,148.44	74.3739	1,148.44	75.4215	1,148.44	72.5978	1,148.44	74.7022	1,148.44	71.826	1,148.44	72.7408	1,148.44	70.5222	1,148.44	71.8855	1,148.44	68.4847	1,148.44	71.4052	1,148.44	69.8337	1,148.44	71.0316	1,148.44	72.0266	1,148.44	69.8868	1,148.44	72.8405	1,148.44	68.55	1,148.44	71.3362
1,189.45	83.3913	1,189.45	84.1073	1,189.45	82.3935	1,189.45	84.1588	1,189.45	81.5303	1,189.45	83.519	1,189.45	81.2953	1,189.45	82.266	1,189.45	81.5438	1,189.45	80.0411	1,189.45	81.1603	1,189.45	77.3331	1,189.45	80.0404	1,189.45	76.0391	1,189.45	78.2093	1,189.45	75.0038	1,189.45	75.8725	1,189.45	73.6987	1,189.45	74.9701	1,189.45	73.9953	1,189.45	74.3214	1,189.45	74.1831	1,189.45	73.1952	1,189.45	74.0885	1,189.45	72.7832	1,189.45	74.2044	1,189.45	70.0292	1,189.45	71.0589	1,189.45	66.1812	1,189.45	69.445	1,189.45	71.2514	1,189.45	73.9946	1,189.45	70.8919	1,189.45	75.2795	1,189.45	70.4738	1,189.45	74.2545
1,230.47	82.1837	1,230.47	83.0435	1,230.47	82.1745	1,230.47	83.5497	1,230.47	81.7313	1,230.47	82.8411	1,230.47	80.7599	1,230.47	81.2053	1,230.47	80.5555	1,230.47	79.4155	1,230.47	80.2607	1,230.47	77.9374	1,230.47	79.5533	1,230.47	77.2117	1,230.47	77.5076	1,230.47	75.5886	1,230.47	75.5013	1,230.47	71.5654	1,230.47	74.7544	1,230.47	71.7063	1,230.47	72.3801	1,230.47	74.3302	1,230.47	70.0703	1,230.47	73.5042	1,230.47	70.4216	1,230.47	71.6214	1,230.47	68.7397	1,230.47	71.3261	1,230.47	70.1265	1,230.47	71.8318	1,230.47	72.285	1,230.47	72.9184	1,230.47	68.6224	1,230.47	73.1507	1,230.47	69.6193	1,230.47	72.622
1,274.41	81.7264	1,274.41	81.9384	1,274.41	81.5638	1,274.41	82.4355	1,274.41	80.5534	1,274.41	82.3264	1,274.41	80.5239	1,274.41	80.8746	1,274.41	80.7828	1,274.41	78.6012	1,274.41	80.1721	1,274.41	77.2649	1,274.41	79.8331	1,274.41	76.556	1,274.41	78.9107	1,274.41	75.3414	1,274.41	76.5953	1,274.41	72.7593	1,274.41	73.5962	1,274.41	69.4598	1,274.41	72.9411	1,274.41	71.5505	1,274.41	72.2263	1,274.41	73.0675	1,274.41	70.7357	1,274.41	72.499	1,274.41	72.2998	1,274.41	69.4503	1,274.41	70.3753	1,274.41	64.0629	1,274.41	70.5239	1,274.41	68.346	1,274.41	72.377	1,274.41	72.7563	1,274.41	66.7796	1,274.41	71.7468
1,319.82	80.1623	1,319.82	80.5247	1,319.82	79.9348	1,319.82	81.3706	1,319.82	79.8944	1,319.82	81.5813	1,319.82	80.6748	1,319.82	79.975	1,319.82	80.5184	1,319.82	76.9023	1,319.82	79.5708	1,319.82	75.0457	1,319.82	78.5553	1,319.82	74.9025	1,319.82	76.8665	1,319.82	74.5091	1,319.82	75.3248	1,319.82	73.7987	1,319.82	73.4917	1,319.82	72.9005	1,319.82	71.1211	1,319.82	72.1145	1,319.82	70.6238	1,319.82	72.7788	1,319.82	71.1599	1,319.82	72.0053	1,319.82	71.1709	1,319.82	67.8635	1,319.82	67.1189	1,319.82	63.8033	1,319.82	69.9529	1,319.82	67.926	1,319.82	71.671	1,319.82	70.137	1,319.82	65.7427	1,319.82	67.9673
1,366.7	79.3483	1,366.7	80.6315	1,366.7	78.9283	1,366.7	81.2819	1,366.7	79.7726	1,366.7	80.9054	1,366.7	79.8304	1,366.7	79.287	1,366.7	78.9211	1,366.7	76.7106	1,366.7	78.6942	1,366.7	74.6895	1,366.7	78.4742	1,366.7	72.7113	1,366.7	77.5114	1,366.7	72.1292	1,366.7	75.4258	1,366.7	71.4344	1,366.7	72.3903	1,366.7	71.2857	1,366.7	71.0856	1,366.7	70.4096	1,366.7	69.693	1,366.7	69.3198	1,366.7	66.1925	1,366.7	71.4129	1,366.7	64.0404	1,366.7	71.2784	1,366.7	69.0311	1,366.7	66.6893	1,366.7	69.6992	1,366.7	66.7152	1,366.7	68.2584	1,366.7	69.8524	1,366.7	63.5388	1,366.7	67.5036
1,413.57	79.4859	1,413.57	79.5665	1,413.57	79.6439	1,413.57	80.1217	1,413.57	79.2139	1,413.57	79.6042	1,413.57	79.4189	1,413.57	78.0484	1,413.57	78.8166	1,413.57	76.9292	1,413.57	77.9084	1,413.57	75.6051	1,413.57	77.4868	1,413.57	72.1305	1,413.57	76.359	1,413.57	70.4039	1,413.57	75.4734	1,413.57	71.3534	1,413.57	73.6433	1,413.57	69.4321	1,413.57	70.8205	1,413.57	67.5733	1,413.57	69.2458	1,413.57	67.6222	1,413.57	68.1286	1,413.57	69.6647	1,413.57	66.2706	1,413.57	70.7714	1,413.57	62.7279	1,413.57	67.5923	1,413.57	65.9512	1,413.57	67.5028	1,413.57	70.6636	1,413.57	69.675	1,413.57	66.5857	1,413.57	65.8811
1,463.38	78.6773	1,463.38	79.0664	1,463.38	78.6432	1,463.38	79.4118	1,463.38	79.3754	1,463.38	79.6187	1,463.38	79.362	1,463.38	78.8601	1,463.38	78.3341	1,463.38	77.2139	1,463.38	76.9502	1,463.38	74.9973	1,463.38	75.3069	1,463.38	71.2405	1,463.38	74.3737	1,463.38	67.5141	1,463.38	73.0481	1,463.38	68.9732	1,463.38	70.8715	1,463.38	69.0083	1,463.38	68.9512	1,463.38	65.9667	1,463.38	69.1255	1,463.38	63.1805	1,463.38	69.1614	1,463.38	68.228	1,463.38	68.217	1,463.38	70.7412	1,463.38	64.6892	1,463.38	67.5229	1,463.38	66.8506	1,463.38	65.8853	1,463.38	68.7222	1,463.38	66.653	1,463.38	65.0199	1,463.38	62.284
1,516.11	77.8373	1,516.11	78.9605	1,516.11	78.3039	1,516.11	79.1437	1,516.11	78.9944	1,516.11	78.2621	1,516.11	78.7824	1,516.11	77.2995	1,516.11	78.0437	1,516.11	76.2151	1,516.11	77.1663	1,516.11	73.9048	1,516.11	75.2164	1,516.11	69.2387	1,516.11	73.3584	1,516.11	66.5626	1,516.11	72.7066	1,516.11	68.4524	1,516.11	70.9971	1,516.11	68.8643	1,516.11	67.5356	1,516.11	68.7433	1,516.11	65.9837	1,516.11	67.0801	1,516.11	66.7246	1,516.11	64.8	1,516.11	67.4162	1,516.11	65.3254	1,516.11	65.0755	1,516.11	66.441	1,516.11	64.7598	1,516.11	68.125	1,516.11	67.5039	1,516.11	68.2694	1,516.11	65.7516	1,516.11	60.8616
1,568.85	77.3533	1,568.85	77.3752	1,568.85	77.7945	1,568.85	78.7598	1,568.85	78.0014	1,568.85	77.7902	1,568.85	78.8064	1,568.85	76.2652	1,568.85	77.8783	1,568.85	75.2222	1,568.85	76.3103	1,568.85	72.6623	1,568.85	74.4788	1,568.85	72.7447	1,568.85	73.7549	1,568.85	70.6264	1,568.85	73.5221	1,568.85	67.7888	1,568.85	72.5726	1,568.85	71.6359	1,568.85	69.9221	1,568.85	71.9841	1,568.85	69.361	1,568.85	68.6915	1,568.85	68.1534	1,568.85	63.1727	1,568.85	65.0989	1,568.85	63.5357	1,568.85	61.9069	1,568.85	65.4872	1,568.85	64.462	1,568.85	66.8911	1,568.85	64.5093	1,568.85	66.9058	1,568.85	65.6323	1,568.85	60.5984
1,624.51	75.9574	1,624.51	76.3316	1,624.51	76.3828	1,624.51	77.009	1,624.51	78.4472	1,624.51	78.03	1,624.51	78.4452	1,624.51	76.7933	1,624.51	77.8748	1,624.51	73.1899	1,624.51	76.4836	1,624.51	71.3159	1,624.51	73.8782	1,624.51	71.2745	1,624.51	72.3358	1,624.51	68.0256	1,624.51	71.2474	1,624.51	64.9293	1,624.51	69.1236	1,624.51	63.2506	1,624.51	66.9196	1,624.51	64.5224	1,624.51	63.7752	1,624.51	67.2374	1,624.51	59.4225	1,624.51	65.57	1,624.51	64.4556	1,624.51	62.4144	1,624.51	65.4795	1,624.51	62.7699	1,624.51	59.9838	1,624.51	61.1327	1,624.51	68.7872	1,624.51	63.9254	1,624.51	67.0679	1,624.51	55.3858
1,681.64	76.5451	1,681.64	77.1252	1,681.64	76.7035	1,681.64	76.8496	1,681.64	77.5737	1,681.64	77.2248	1,681.64	77.3285	1,681.64	75.5744	1,681.64	77.1812	1,681.64	72.0321	1,681.64	75.6043	1,681.64	70.1215	1,681.64	73.6651	1,681.64	67.3497	1,681.64	72.869	1,681.64	65.8809	1,681.64	72.5134	1,681.64	64.9585	1,681.64	72.0949	1,681.64	63.5361	1,681.64	69.5455	1,681.64	59.9669	1,681.64	62.2166	1,681.64	64.1116	1,681.64	65.3963	1,681.64	66.7347	1,681.64	58.8394	1,681.64	64.4428	1,681.64	65.7284	1,681.64	61.5256	1,681.64	62.3384	1,681.64	60.2006	1,681.64	68.3688	1,681.64	63.6214	1,681.64	64.3132	1,681.64	62.1092
1,741.7	77.0706	1,741.7	76.7618	1,741.7	78.0579	1,741.7	77.6071	1,741.7	78.1242	1,741.7	77.808	1,741.7	78.4662	1,741.7	76.6955	1,741.7	76.5682	1,741.7	72.5794	1,741.7	74.4551	1,741.7	69.9931	1,741.7	72.188	1,741.7	70.1644	1,741.7	71.6181	1,741.7	66.1961	1,741.7	72.8006	1,741.7	60.9433	1,741.7	72.2237	1,741.7	58.8377	1,741.7	68.894	1,741.7	55.7689	1,741.7	64.608	1,741.7	60.0721	1,741.7	61.6085	1,741.7	66.3911	1,741.7	68.3198	1,741.7	65.7712	1,741.7	64.0353	1,741.7	64.4553	1,741.7	65.7153	1,741.7	64.0863	1,741.7	65.3449	1,741.7	64.5033	1,741.7	68.0878	1,741.7	52.3188
1,803.22	76.5981	1,803.22	76.9463	1,803.22	78.3201	1,803.22	77.157	1,803.22	78.6133	1,803.22	76.1221	1,803.22	78.7953	1,803.22	75.7656	1,803.22	76.5419	1,803.22	73.7733	1,803.22	74.6193	1,803.22	73.0472	1,803.22	72.8001	1,803.22	70.2006	1,803.22	71.7549	1,803.22	64.0211	1,803.22	71.5052	1,803.22	67.4548	1,803.22	70.0638	1,803.22	65.8192	1,803.22	70.3914	1,803.22	62.3078	1,803.22	69.1093	1,803.22	59.7835	1,803.22	63.3831	1,803.22	64.7342	1,803.22	68.927	1,803.22	64.0964	1,803.22	65.3613	1,803.22	67.5929	1,803.22	62.484	1,803.22	66.6215	1,803.22	67.0806	1,803.22	58.8373	1,803.22	65.0802	1,803.22	52.6768
1,866.21	75.9213	1,866.21	76.0916	1,866.21	77.8183	1,866.21	77.2425	1,866.21	78.8595	1,866.21	76.491	1,866.21	78.8679	1,866.21	73.8978	1,866.21	77.335	1,866.21	72.3289	1,866.21	75.0389	1,866.21	73.2066	1,866.21	72.9559	1,866.21	70.3332	1,866.21	69.9727	1,866.21	64.9742	1,866.21	68.9666	1,866.21	68.8714	1,866.21	69.5439	1,866.21	66.2222	1,866.21	71.8887	1,866.21	67.9669	1,866.21	70.3747	1,866.21	63.6534	1,866.21	68.4566	1,866.21	63.5858	1,866.21	67.0787	1,866.21	65.3189	1,866.21	66.7539	1,866.21	56.8049	1,866.21	59.772	1,866.21	62.72	1,866.21	61.7237	1,866.21	62.786	1,866.21	65.9231	1,866.21	53.3843
1,932.13	75.7863	1,932.13	75.9917	1,932.13	77.6617	1,932.13	77.5736	1,932.13	79.0481	1,932.13	76.1745	1,932.13	78.8082	1,932.13	74.4516	1,932.13	77.1513	1,932.13	72.6155	1,932.13	76.678	1,932.13	72.0155	1,932.13	73.6288	1,932.13	70.7364	1,932.13	70.956	1,932.13	66.0246	1,932.13	68.4425	1,932.13	63.6908	1,932.13	65.8889	1,932.13	64.6542	1,932.13	70.0036	1,932.13	64.8631	1,932.13	71.3581	1,932.13	62.5474	1,932.13	65.0154	1,932.13	60.6725	1,932.13	63.6287	1,932.13	66.6813	1,932.13	66.0667	1,932.13	64.2687	1,932.13	64.2386	1,932.13	62.2939	1,932.13	65.9583	1,932.13	60.316	1,932.13	63.8138	1,932.13	44.3772
1,999.51	76.694	1,999.51	75.2007	1,999.51	78.2279	1,999.51	75.8746	1,999.51	78.6139	1,999.51	76.6509	1,999.51	77.8705	1,999.51	76.193	1,999.51	77.8735	1,999.51	73.4457	1,999.51	76.4662	1,999.51	72.3435	1,999.51	74.5684	1,999.51	70.1891	1,999.51	72.652	1,999.51	65.7944	1,999.51	69.5517	1,999.51	64.3906	1,999.51	66.7057	1,999.51	57.4589	1,999.51	66.957	1,999.51	65.1657	1,999.51	67.9456	1,999.51	67.0877	1,999.51	64.3203	1,999.51	53.8537	1,999.51	64.6505	1,999.51	65.1234	1,999.51	65.7697	1,999.51	63.8726	1,999.51	64.8296	1,999.51	61.3967	1,999.51	65.9298	1,999.51	61.1975	1,999.51	63.5313	1,999.51	50.1269
2,069.82	77.2939	2,069.82	75.2888	2,069.82	78.8931	2,069.82	75.8033	2,069.82	79.1531	2,069.82	76.9304	2,069.82	78.6007	2,069.82	75.7022	2,069.82	78.388	2,069.82	72.7709	2,069.82	76.6226	2,069.82	70.5835	2,069.82	75.4811	2,069.82	66.4513	2,069.82	73.0418	2,069.82	68.4721	2,069.82	71.4096	2,069.82	66.6508	2,069.82	70.399	2,069.82	62.9951	2,069.82	68.2211	2,069.82	61.5064	2,069.82	64.1732	2,069.82	66.4447	2,069.82	61.0036	2,069.82	63.0103	2,069.82	59.6135	2,069.82	60.9471	2,069.82	65.7947	2,069.82	64.8599	2,069.82	64.7425	2,069.82	59.9574	2,069.82	65.704	2,069.82	60.6546	2,069.82	64.7432	2,069.82	50.175
2,143.07	76.3109	2,143.07	75.1324	2,143.07	78.9907	2,143.07	77.3437	2,143.07	79.685	2,143.07	77.0394	2,143.07	78.8101	2,143.07	75.1651	2,143.07	77.539	2,143.07	73.2341	2,143.07	76.7915	2,143.07	71.8815	2,143.07	74.5668	2,143.07	69.7002	2,143.07	72.11	2,143.07	65.5206	2,143.07	71.7267	2,143.07	65.5962	2,143.07	70.7686	2,143.07	62.5233	2,143.07	68.463	2,143.07	59.9617	2,143.07	65.7211	2,143.07	65.2543	2,143.07	64.4057	2,143.07	66.4121	2,143.07	59.4425	2,143.07	60.5184	2,143.07	63.7336	2,143.07	64.5195	2,143.07	65.3465	2,143.07	59.5213	2,143.07	64.8925	2,143.07	57.2312	2,143.07	64.9854	2,143.07	52.2545
2,219.24	75.69	2,219.24	74.2692	2,219.24	78.2808	2,219.24	76.9183	2,219.24	79.2049	2,219.24	77.3421	2,219.24	78.6526	2,219.24	74.9788	2,219.24	78.0922	2,219.24	72.9742	2,219.24	77.0514	2,219.24	73.0442	2,219.24	74.6141	2,219.24	70.1455	2,219.24	71.5024	2,219.24	69.8999	2,219.24	67.5918	2,219.24	68.3469	2,219.24	68.6493	2,219.24	64.8994	2,219.24	66.1865	2,219.24	58.6539	2,219.24	64.5321	2,219.24	60.8129	2,219.24	64.5748	2,219.24	66.8484	2,219.24	61.5369	2,219.24	62.9966	2,219.24	64.4464	2,219.24	64.8912	2,219.24	63.4182	2,219.24	61.5561	2,219.24	64.4288	2,219.24	58.5867	2,219.24	63.6784	2,219.24	50.3904
2,296.88	76.3133	2,296.88	74.2683	2,296.88	78.1029	2,296.88	76.4301	2,296.88	78.4941	2,296.88	77.4075	2,296.88	78.2232	2,296.88	75.5719	2,296.88	78.3159	2,296.88	74.2691	2,296.88	76.7198	2,296.88	72.7995	2,296.88	74.0157	2,296.88	71.6211	2,296.88	69.6373	2,296.88	67.7409	2,296.88	66.4324	2,296.88	60.8	2,296.88	63.6552	2,296.88	62.4882	2,296.88	53.8436	2,296.88	65.045	2,296.88	56.3003	2,296.88	59.3231	2,296.88	61.1558	2,296.88	65.9059	2,296.88	60.4702	2,296.88	64.3413	2,296.88	62.6374	2,296.88	65.2184	2,296.88	62.133	2,296.88	63.0934	2,296.88	63.1649	2,296.88	58.9956	2,296.88	64.186	2,296.88	49.9054
2,378.91	75.7294	2,378.91	75.0931	2,378.91	77.5872	2,378.91	76.7773	2,378.91	78.8865	2,378.91	77.0993	2,378.91	79.1694	2,378.91	76.8003	2,378.91	78.4384	2,378.91	74.6024	2,378.91	76.4451	2,378.91	71.4516	2,378.91	73.4149	2,378.91	67.5859	2,378.91	67.2031	2,378.91	67.7681	2,378.91	66.7303	2,378.91	64.868	2,378.91	65.7655	2,378.91	61.0819	2,378.91	59.5278	2,378.91	63.1596	2,378.91	53.6106	2,378.91	61.3227	2,378.91	51.8112	2,378.91	62.914	2,378.91	55.0032	2,378.91	65.2067	2,378.91	60.1387	2,378.91	62.4132	2,378.91	61.2549	2,378.91	62.7173	2,378.91	63.4764	2,378.91	56.2768	2,378.91	65.381	2,378.91	55.3208
2,462.4	75.0227	2,462.4	75.2657	2,462.4	76.5952	2,462.4	77.5638	2,462.4	78.6276	2,462.4	77.6312	2,462.4	79.7292	2,462.4	76.5773	2,462.4	78.0877	2,462.4	74.3742	2,462.4	76.2414	2,462.4	70.7552	2,462.4	72.1086	2,462.4	68.209	2,462.4	65.9344	2,462.4	65.1049	2,462.4	57.5828	2,462.4	61.776	2,462.4	60.3514	2,462.4	57.6926	2,462.4	55.3923	2,462.4	58.7343	2,462.4	53.6095	2,462.4	61.5446	2,462.4	52.2047	2,462.4	61.1701	2,462.4	57.8272	2,462.4	63.8308	2,462.4	58.2299	2,462.4	63.4476	2,462.4	59.4615	2,462.4	61.9816	2,462.4	62.6217	2,462.4	56.5637	2,462.4	64.4618	2,462.4	53.4926
2,548.83	75.4825	2,548.83	75.8828	2,548.83	77.0423	2,548.83	78.1073	2,548.83	78.8821	2,548.83	78.2366	2,548.83	79.5521	2,548.83	75.8759	2,548.83	77.5272	2,548.83	72.3844	2,548.83	75.4855	2,548.83	71.3199	2,548.83	71.1936	2,548.83	65.4515	2,548.83	59.9275	2,548.83	65.9479	2,548.83	63.4075	2,548.83	63.6175	2,548.83	60.1351	2,548.83	53.5855	2,548.83	61.4199	2,548.83	53.8961	2,548.83	58.8192	2,548.83	60.6482	2,548.83	38.7689	2,548.83	60.6907	2,548.83	55.3423	2,548.83	62.837	2,548.83	53.9048	2,548.83	63.3226	2,548.83	59.5557	2,548.83	61.5006	2,548.83	62.2427	2,548.83	55.0937	2,548.83	63.5044	2,548.83	54.1431
2,639.65	75.589	2,639.65	76.1725	2,639.65	77.2123	2,639.65	78.0594	2,639.65	79.6225	2,639.65	78.4758	2,639.65	79.2728	2,639.65	75.957	2,639.65	76.5954	2,639.65	72.8437	2,639.65	74.9095	2,639.65	70.4558	2,639.65	68.0502	2,639.65	65.8981	2,639.65	58.7971	2,639.65	63.6444	2,639.65	64.5949	2,639.65	48.65	2,639.65	62.3926	2,639.65	56.5621	2,639.65	67.3763	2,639.65	51.9772	2,639.65	65.1939	2,639.65	55.4203	2,639.65	57.9145	2,639.65	61.5969	2,639.65	42.2545	2,639.65	62.8217	2,639.65	56.6669	2,639.65	62.4125	2,639.65	61.4096	2,639.65	60.9719	2,639.65	63.7092	2,639.65	57.5587	2,639.65	64.8284	2,639.65	52.823
2,731.93	75.2873	2,731.93	76.9036	2,731.93	76.8379	2,731.93	79.0198	2,731.93	79.1294	2,731.93	78.1958	2,731.93	79.401	2,731.93	75.9037	2,731.93	77.1449	2,731.93	72.299	2,731.93	74.3496	2,731.93	68.5509	2,731.93	64.8957	2,731.93	61.6032	2,731.93	59.3102	2,731.93	57.6284	2,731.93	59.1597	2,731.93	56.484	2,731.93	63.9745	2,731.93	54.6713	2,731.93	68.9295	2,731.93	53.005	2,731.93	65.703	2,731.93	52.7306	2,731.93	59.3764	2,731.93	57.3068	2,731.93	48.3933	2,731.93	60.8551	2,731.93	48.7745	2,731.93	61.4426	2,731.93	61.0367	2,731.93	60.988	2,731.93	61.4926	2,731.93	57.105	2,731.93	64.2807	2,731.93	54.3449
2,828.61	75.9195	2,828.61	77.6519	2,828.61	77.1315	2,828.61	79.3206	2,828.61	80.0532	2,828.61	78.006	2,828.61	79.5963	2,828.61	74.5257	2,828.61	76.7617	2,828.61	70.8899	2,828.61	73.7062	2,828.61	66.1589	2,828.61	62.3073	2,828.61	53.9471	2,828.61	45.8626	2,828.61	55.9436	2,828.61	55.5195	2,828.61	42.4419	2,828.61	64.2521	2,828.61	51.1349	2,828.61	69.4347	2,828.61	48.8675	2,828.61	66.9528	2,828.61	43.3647	2,828.61	63.1113	2,828.61	53.872	2,828.61	49.9709	2,828.61	58.5098	2,828.61	42.2837	2,828.61	60.6587	2,828.61	59.746	2,828.61	59.716	2,828.61	63.0597	2,828.61	57.689	2,828.61	64.7836	2,828.61	53.2492
2,928.22	75.1936	2,928.22	77.8883	2,928.22	76.2844	2,928.22	79.6761	2,928.22	79.5561	2,928.22	78.6303	2,928.22	80.0568	2,928.22	73.926	2,928.22	75.8603	2,928.22	69.5304	2,928.22	72.9462	2,928.22	62.9883	2,928.22	56.9357	2,928.22	50.8208	2,928.22	47.3689	2,928.22	41.914	2,928.22	59.9211	2,928.22	51.58	2,928.22	63.7466	2,928.22	51.7329	2,928.22	70.0485	2,928.22	52.423	2,928.22	70.722	2,928.22	44.3445	2,928.22	64.608	2,928.22	52.7528	2,928.22	60.7674	2,928.22	58.0862	2,928.22	35.3792	2,928.22	60.1181	2,928.22	60.5137	2,928.22	60.415	2,928.22	61.6256	2,928.22	56.7458	2,928.22	63.666	2,928.22	52.5228
3,030.76	75.3184	3,030.76	78.8663	3,030.76	75.3045	3,030.76	80.1765	3,030.76	78.8163	3,030.76	77.8991	3,030.76	79.5936	3,030.76	72.4345	3,030.76	76.2497	3,030.76	65.6554	3,030.76	72.5884	3,030.76	55.0606	3,030.76	56.214	3,030.76	36.7894	3,030.76	61.4109	3,030.76	55.1043	3,030.76	63.867	3,030.76	56.0099	3,030.76	58.6862	3,030.76	55.2	3,030.76	69.2203	3,030.76	58.9213	3,030.76	70.7926	3,030.76	49.1632	3,030.76	66.6605	3,030.76	54.2585	3,030.76	63.9781	3,030.76	53.5947	3,030.76	42.3056	3,030.76	57.9273	3,030.76	58.4425	3,030.76	59.093	3,030.76	62.1726	3,030.76	56.7612	3,030.76	63.8565	3,030.76	39.7775
3,137.7	75.9341	3,137.7	79.9304	3,137.7	74.5182	3,137.7	80.737	3,137.7	78.5646	3,137.7	77.7106	3,137.7	79.0585	3,137.7	70.9183	3,137.7	76.2625	3,137.7	61.2079	3,137.7	71.4736	3,137.7	44.3858	3,137.7	49.294	3,137.7	57.1074	3,137.7	65.894	3,137.7	60.8352	3,137.7	69.234	3,137.7	62.6705	3,137.7	48.4509	3,137.7	58.5329	3,137.7	69.2487	3,137.7	59.8994	3,137.7	71.1421	3,137.7	58.629	3,137.7	67.5514	3,137.7	55.0982	3,137.7	65.9294	3,137.7	56.7051	3,137.7	53.8121	3,137.7	56.4802	3,137.7	59.4613	3,137.7	59.9137	3,137.7	63.3505	3,137.7	56.9734	3,137.7	64.6207	3,137.7	50.9589
3,249.02	76.4869	3,249.02	79.9365	3,249.02	75.4181	3,249.02	80.6301	3,249.02	78.9311	3,249.02	77.4734	3,249.02	79.2639	3,249.02	68.829	3,249.02	76.4573	3,249.02	56.3544	3,249.02	68.3625	3,249.02	60.3683	3,249.02	59.0393	3,249.02	66.2168	3,249.02	71.2436	3,249.02	64.6415	3,249.02	72.0233	3,249.02	62.7243	3,249.02	57.7004	3,249.02	63.3186	3,249.02	72.1908	3,249.02	62.1638	3,249.02	71.6662	3,249.02	61.9369	3,249.02	69.8094	3,249.02	58.5625	3,249.02	67.8128	3,249.02	57.1456	3,249.02	59.591	3,249.02	52.7144	3,249.02	56.4764	3,249.02	57.5159	3,249.02	62.4817	3,249.02	57.9472	3,249.02	65.5393	3,249.02	57.1118
3,363.28	77.3638	3,363.28	80.3244	3,363.28	75.4047	3,363.28	80.8075	3,363.28	79.4428	3,363.28	76.5534	3,363.28	80.3074	3,363.28	66.6325	3,363.28	75.5378	3,363.28	58.926	3,363.28	66.9463	3,363.28	65.7368	3,363.28	64.9236	3,363.28	69.4145	3,363.28	73.6382	3,363.28	66.3919	3,363.28	73.8053	3,363.28	67.0581	3,363.28	61.4425	3,363.28	66.1362	3,363.28	74.1254	3,363.28	64.4841	3,363.28	73.2905	3,363.28	63.7019	3,363.28	71.5312	3,363.28	61.8949	3,363.28	66.2875	3,363.28	57.8251	3,363.28	61.2882	3,363.28	54.2216	3,363.28	56.4053	3,363.28	58.5364	3,363.28	63.1107	3,363.28	57.3306	3,363.28	65.6217	3,363.28	58.0615
3,481.93	77.8287	3,481.93	80.6395	3,481.93	74.7565	3,481.93	80.6337	3,481.93	79.8171	3,481.93	76.3071	3,481.93	80.781	3,481.93	63.791	3,481.93	76.1408	3,481.93	65.8938	3,481.93	66.0642	3,481.93	68.8343	3,481.93	69.4585	3,481.93	68.9827	3,481.93	74.566	3,481.93	70.3035	3,481.93	74.2988	3,481.93	69.6881	3,481.93	66.7468	3,481.93	66.4297	3,481.93	73.9959	3,481.93	65.8943	3,481.93	74.3084	3,481.93	62.9652	3,481.93	71.8977	3,481.93	64.5704	3,481.93	65.6173	3,481.93	59.9831	3,481.93	63.953	3,481.93	55.4249	3,481.93	54.3454	3,481.93	60.5583	3,481.93	61.9501	3,481.93	59.8836	3,481.93	66.9729	3,481.93	56.7299
3,604.98	77.8455	3,604.98	80.5351	3,604.98	72.7682	3,604.98	80.0245	3,604.98	80.009	3,604.98	75.6093	3,604.98	81.5977	3,604.98	62.3163	3,604.98	75.4056	3,604.98	68.7525	3,604.98	62.6043	3,604.98	71.0218	3,604.98	72.5696	3,604.98	72.9586	3,604.98	76.1469	3,604.98	71.6885	3,604.98	71.8218	3,604.98	68.6661	3,604.98	71.3263	3,604.98	68.3441	3,604.98	71.5118	3,604.98	66.8183	3,604.98	72.1383	3,604.98	65.538	3,604.98	70.9792	3,604.98	65.0152	3,604.98	65.0695	3,604.98	63.6045	3,604.98	64.5815	3,604.98	58.3605	3,604.98	56.7174	3,604.98	55.1809	3,604.98	59.901	3,604.98	59.5711	3,604.98	67.4917	3,604.98	59.462
3,732.42	78.8942	3,732.42	79.5269	3,732.42	70.8454	3,732.42	78.9807	3,732.42	79.8402	3,732.42	74.5019	3,732.42	81.4558	3,732.42	59.0833	3,732.42	74.8584	3,732.42	72.6911	3,732.42	57.7098	3,732.42	74.0405	3,732.42	72.7997	3,732.42	75.0382	3,732.42	76.0466	3,732.42	72.7147	3,732.42	74.2967	3,732.42	71.2543	3,732.42	71.9576	3,732.42	69.9109	3,732.42	65.9954	3,732.42	68.3717	3,732.42	69.3802	3,732.42	66.5145	3,732.42	69.9095	3,732.42	66.0672	3,732.42	66.9253	3,732.42	64.4803	3,732.42	61.0257	3,732.42	60.0676	3,732.42	57.5323	3,732.42	52.6127	3,732.42	58.4552	3,732.42	61.6999	3,732.42	67.3575	3,732.42	61.8956
3,864.26	79.2683	3,864.26	79.4987	3,864.26	69.5978	3,864.26	79.92	3,864.26	79.8408	3,864.26	72.6791	3,864.26	80.9646	3,864.26	68.4437	3,864.26	73.5543	3,864.26	74.5247	3,864.26	64.3475	3,864.26	76.3084	3,864.26	73.6942	3,864.26	75.7808	3,864.26	75.0541	3,864.26	73.9312	3,864.26	74.3327	3,864.26	72.3302	3,864.26	69.2579	3,864.26	69.1238	3,864.26	56.0076	3,864.26	69.068	3,864.26	71.8575	3,864.26	65.3155	3,864.26	71.0853	3,864.26	66.2559	3,864.26	66.3393	3,864.26	65.6994	3,864.26	64.1014	3,864.26	60.0159	3,864.26	57.9335	3,864.26	57.222	3,864.26	60.4291	3,864.26	60.576	3,864.26	67.1148	3,864.26	63.6033
4,000.49	78.8594	4,000.49	80.2113	4,000.49	65.4843	4,000.49	79.795	4,000.49	79.3108	4,000.49	71.6465	4,000.49	80.562	4,000.49	68.592	4,000.49	73.2673	4,000.49	77.0087	4,000.49	65.2731	4,000.49	76.7077	4,000.49	75.6211	4,000.49	76.375	4,000.49	75.0233	4,000.49	74.4342	4,000.49	73.9383	4,000.49	70.1821	4,000.49	71.8806	4,000.49	68.3339	4,000.49	70.1808	4,000.49	68.0716	4,000.49	72.7051	4,000.49	64.9228	4,000.49	68.6092	4,000.49	66.541	4,000.49	66.7093	4,000.49	64.6468	4,000.49	62.9183	4,000.49	59.0323	4,000.49	59.7033	4,000.49	54.9398	4,000.49	56.8771	4,000.49	60.9802	4,000.49	64.6986	4,000.49	63.0535
4,141.11	78.7359	4,141.11	81.7683	4,141.11	54.287	4,141.11	79.3662	4,141.11	79.489	4,141.11	58.884	4,141.11	80.4195	4,141.11	75.1251	4,141.11	73.8778	4,141.11	77.5628	4,141.11	67.0954	4,141.11	76.4273	4,141.11	75.8125	4,141.11	75.3819	4,141.11	72.7967	4,141.11	70.2053	4,141.11	75.9722	4,141.11	71.5149	4,141.11	72.3644	4,141.11	67.529	4,141.11	74.1988	4,141.11	66.4849	4,141.11	72.9421	4,141.11	62.5969	4,141.11	69.6016	4,141.11	62.4813	4,141.11	66.8938	4,141.11	62.9161	4,141.11	63.4639	4,141.11	59.791	4,141.11	59.107	4,141.11	55.1088	4,141.11	57.8575	4,141.11	59.7627	4,141.11	63.9101	4,141.11	61.7953
4,287.6	80.8596	4,287.6	81.9885	4,287.6	53.2776	4,287.6	78.2064	4,287.6	79.9821	4,287.6	69.3782	4,287.6	80.9012	4,287.6	75.4665	4,287.6	75.0143	4,287.6	78.158	4,287.6	68.563	4,287.6	76.4054	4,287.6	73.8892	4,287.6	73.4785	4,287.6	73.8755	4,287.6	72.3775	4,287.6	77.3766	4,287.6	66.998	4,287.6	67.0623	4,287.6	66.8477	4,287.6	73.4121	4,287.6	67.2784	4,287.6	70.2371	4,287.6	64.0219	4,287.6	68.5815	4,287.6	63.7463	4,287.6	68.6887	4,287.6	64.3786	4,287.6	62.61	4,287.6	59.9845	4,287.6	60.7775	4,287.6	52.4099	4,287.6	57.721	4,287.6	61.3276	4,287.6	62.9333	4,287.6	61.2592
4,438.48	82.2161	4,438.48	83.274	4,438.48	54.4463	4,438.48	76.3732	4,438.48	80.1614	4,438.48	67.063	4,438.48	81.5926	4,438.48	77.2242	4,438.48	75.1401	4,438.48	77.8605	4,438.48	67.9604	4,438.48	74.3295	4,438.48	65.5329	4,438.48	74.3591	4,438.48	76.563	4,438.48	71.3501	4,438.48	76.9438	4,438.48	72.2016	4,438.48	60.1773	4,438.48	69.5014	4,438.48	68.0679	4,438.48	65.9679	4,438.48	70.5203	4,438.48	64.4644	4,438.48	65.3812	4,438.48	63.7945	4,438.48	68.3486	4,438.48	64.1679	4,438.48	59.6342	4,438.48	61.9199	4,438.48	62.2806	4,438.48	53.6445	4,438.48	61.834	4,438.48	60.6562	4,438.48	62.6134	4,438.48	63.4288
4,595.21	82.433	4,595.21	83.421	4,595.21	66.9768	4,595.21	74.4353	4,595.21	79.065	4,595.21	73.9995	4,595.21	80.2028	4,595.21	78.6093	4,595.21	76.187	4,595.21	77.6174	4,595.21	65.0184	4,595.21	76.7752	4,595.21	71.7365	4,595.21	74.8192	4,595.21	76.4042	4,595.21	74.6604	4,595.21	74.0813	4,595.21	70.6409	4,595.21	63.8801	4,595.21	69.0118	4,595.21	64.2612	4,595.21	68.1916	4,595.21	70.413	4,595.21	65.7936	4,595.21	65.1816	4,595.21	65.076	4,595.21	67.0934	4,595.21	65.2634	4,595.21	62.1587	4,595.21	61.0007	4,595.21	60.3994	4,595.21	54.5328	4,595.21	60.2811	4,595.21	61.2464	4,595.21	60.9502	4,595.21	65.541
4,756.35	83.4212	4,756.35	82.1201	4,756.35	68.6824	4,756.35	69.2406	4,756.35	80.0214	4,756.35	77.1245	4,756.35	80.8238	4,756.35	78.129	4,756.35	75.6643	4,756.35	77.5044	4,756.35	67.1328	4,756.35	76.9483	4,756.35	75.3517	4,756.35	76.5077	4,756.35	75.9669	4,756.35	72.4478	4,756.35	71.2839	4,756.35	70.7199	4,756.35	68.7976	4,756.35	69.0469	4,756.35	63.8239	4,756.35	64.859	4,756.35	59.2793	4,756.35	64.9555	4,756.35	55.3112	4,756.35	62.7491	4,756.35	64.2213	4,756.35	63.9479	4,756.35	63.3567	4,756.35	61.8252	4,756.35	59.1641	4,756.35	50.7159	4,756.35	61.5908	4,756.35	58.7007	4,756.35	62.0529	4,756.35	61.0261
4,924.8	83.48	4,924.8	81.8958	4,924.8	70.0456	4,924.8	71.0679	4,924.8	80.4408	4,924.8	77.8447	4,924.8	80.7993	4,924.8	78.3047	4,924.8	74.0658	4,924.8	78.3428	4,924.8	71.9454	4,924.8	76.0627	4,924.8	74.08	4,924.8	74.191	4,924.8	72.4835	4,924.8	70.7644	4,924.8	68.8016	4,924.8	68.4416	4,924.8	64.4883	4,924.8	65.7653	4,924.8	60.3825	4,924.8	65.0351	4,924.8	65.5197	4,924.8	62.0561	4,924.8	61.5213	4,924.8	61.4119	4,924.8	58.931	4,924.8	62.4776	4,924.8	59.808	4,924.8	58.5396	4,924.8	57.8832	4,924.8	54.4915	4,924.8	62.9296	4,924.8	61.0282	4,924.8	61.3134	4,924.8	61.249
5,097.66	83.7669	5,097.66	80.6597	5,097.66	70.0249	5,097.66	73.4333	5,097.66	81.1397	5,097.66	79.1873	5,097.66	81.55	5,097.66	78.6836	5,097.66	73.4446	5,097.66	77.6902	5,097.66	73.7238	5,097.66	74.2494	5,097.66	73.528	5,097.66	72.574	5,097.66	67.9161	5,097.66	69.0866	5,097.66	68.1787	5,097.66	67.5543	5,097.66	60.9205	5,097.66	65.9886	5,097.66	52.4471	5,097.66	64.4222	5,097.66	62.0574	5,097.66	63.3795	5,097.66	62.7777	5,097.66	56.0345	5,097.66	62.7533	5,097.66	61.9679	5,097.66	63.4784	5,097.66	60.469	5,097.66	51.305	5,097.66	43.2094	5,097.66	61.0244	5,097.66	58.8043	5,097.66	60.4856	5,097.66	60.3267
5,277.83	83.4056	5,277.83	78.9761	5,277.83	69.6557	5,277.83	75.3428	5,277.83	81.0956	5,277.83	79.4361	5,277.83	81.1833	5,277.83	77.5344	5,277.83	73.1027	5,277.83	77.0001	5,277.83	75.049	5,277.83	73.7366	5,277.83	68.3903	5,277.83	72.2296	5,277.83	64.183	5,277.83	71.8312	5,277.83	67.6436	5,277.83	68.6809	5,277.83	67.2477	5,277.83	67.6036	5,277.83	63.056	5,277.83	63.7092	5,277.83	58.4108	5,277.83	64.107	5,277.83	61.0709	5,277.83	57.9921	5,277.83	60.6179	5,277.83	61.0325	5,277.83	61.2045	5,277.83	61.687	5,277.83	49.6553	5,277.83	47.1506	5,277.83	58.4288	5,277.83	57.9921	5,277.83	59.8559	5,277.83	61.6897
5,463.87	83.3138	5,463.87	77.6491	5,463.87	73.2269	5,463.87	77.0657	5,463.87	80.7357	5,463.87	79.1618	5,463.87	79.9007	5,463.87	77.5176	5,463.87	73.1836	5,463.87	76.0116	5,463.87	78.31	5,463.87	73.8948	5,463.87	64.039	5,463.87	74.2389	5,463.87	68.1201	5,463.87	70.9861	5,463.87	66.8824	5,463.87	68.4896	5,463.87	70.4422	5,463.87	67.4308	5,463.87	70.2372	5,463.87	64.884	5,463.87	56.4396	5,463.87	63.7193	5,463.87	58.0794	5,463.87	59.99	5,463.87	59.8575	5,463.87	60.1252	5,463.87	61.004	5,463.87	60.911	5,463.87	47.8377	5,463.87	43.8686	5,463.87	61.1935	5,463.87	55.8098	5,463.87	60.6508	5,463.87	62.9996
5,657.23	82.924	5,657.23	75.3793	5,657.23	76.1053	5,657.23	78.4571	5,657.23	79.682	5,657.23	79.0217	5,657.23	77.2156	5,657.23	76.96	5,657.23	73.4042	5,657.23	75.712	5,657.23	78.8739	5,657.23	74.5922	5,657.23	67.7274	5,657.23	72.7694	5,657.23	70.318	5,657.23	71.1496	5,657.23	67.5642	5,657.23	65.1722	5,657.23	70.7371	5,657.23	65.8692	5,657.23	71.946	5,657.23	59.9117	5,657.23	65.4971	5,657.23	63.0271	5,657.23	62.1637	5,657.23	59.2477	5,657.23	62.1525	5,657.23	57.6243	5,657.23	63.4246	5,657.23	57.3321	5,657.23	56.7878	5,657.23	54.6863	5,657.23	58.931	5,657.23	58.851	5,657.23	52.9774	5,657.23	60.1756
5,856.45	81.5547	5,856.45	75.0369	5,856.45	74.6659	5,856.45	77.3946	5,856.45	76.9395	5,856.45	79.0559	5,856.45	77.3293	5,856.45	76.2217	5,856.45	75.8234	5,856.45	75.7573	5,856.45	78.6728	5,856.45	74.1214	5,856.45	72.1721	5,856.45	70.2859	5,856.45	70.9461	5,856.45	66.1984	5,856.45	68.946	5,856.45	62.8278	5,856.45	69.1629	5,856.45	64.3311	5,856.45	71.5343	5,856.45	57.755	5,856.45	68.0519	5,856.45	60.7145	5,856.45	61.2147	5,856.45	57.8508	5,856.45	57.5689	5,856.45	57.8924	5,856.45	56.8865	5,856.45	56.4881	5,856.45	59.5133	5,856.45	54.6259	5,856.45	59.653	5,856.45	54.3604	5,856.45	51.1915	5,856.45	59.8309
6,062.99	79.781	6,062.99	71.7337	6,062.99	75.6149	6,062.99	77.5023	6,062.99	77.593	6,062.99	79.0139	6,062.99	79.991	6,062.99	72.6786	6,062.99	75.4744	6,062.99	74.4583	6,062.99	77.5514	6,062.99	70.8666	6,062.99	73.1526	6,062.99	67.4634	6,062.99	72.3953	6,062.99	66.6287	6,062.99	68.7888	6,062.99	64.9323	6,062.99	67.6769	6,062.99	63.1892	6,062.99	70.4652	6,062.99	63.4593	6,062.99	66.6527	6,062.99	60.8481	6,062.99	59.9825	6,062.99	60.9721	6,062.99	53.1591	6,062.99	59.7768	6,062.99	50.8971	6,062.99	58.2847	6,062.99	58.0712	6,062.99	57.328	6,062.99	60.006	6,062.99	46.7099	6,062.99	55.2038	6,062.99	56.0533
6,276.86	81.1164	6,276.86	76.8009	6,276.86	80.337	6,276.86	79.3873	6,276.86	80.6433	6,276.86	79.8734	6,276.86	82.437	6,276.86	75.9682	6,276.86	73.2092	6,276.86	76.8565	6,276.86	79.0157	6,276.86	74.9522	6,276.86	75.884	6,276.86	72.4596	6,276.86	75.1976	6,276.86	71.7714	6,276.86	69.8761	6,276.86	68.6913	6,276.86	69.0563	6,276.86	66.5068	6,276.86	70.5418	6,276.86	64.4532	6,276.86	61.9561	6,276.86	62.4706	6,276.86	61.0764	6,276.86	65.3027	6,276.86	58.5584	6,276.86	60.8252	6,276.86	57.609	6,276.86	60.0269	6,276.86	55.0929	6,276.86	62.928	6,276.86	60.0427	6,276.86	41.0056	6,276.86	57.1903	6,276.86	55.0139
6,498.05	79.8007	6,498.05	76.9705	6,498.05	78.4038	6,498.05	79.7256	6,498.05	76.2922	6,498.05	78.5552	6,498.05	82.0247	6,498.05	77.5115	6,498.05	68.5227	6,498.05	75.009	6,498.05	78.9477	6,498.05	75.6634	6,498.05	75.9976	6,498.05	72.6053	6,498.05	73.7494	6,498.05	69.1349	6,498.05	62.0529	6,498.05	66.7611	6,498.05	67.5987	6,498.05	64.7306	6,498.05	69.1867	6,498.05	60.5963	6,498.05	57.4841	6,498.05	61.2422	6,498.05	34.0115	6,498.05	61.6455	6,498.05	51.6962	6,498.05	60.0456	6,498.05	57.7664	6,498.05	61.4407	6,498.05	53.3969	6,498.05	60.7707	6,498.05	55.8572	6,498.05	47.8509	6,498.05	48.1737	6,498.05	58.6366
6,726.56	79.3926	6,726.56	77.0808	6,726.56	79.5561	6,726.56	79.9492	6,726.56	70.8761	6,726.56	77.6351	6,726.56	80.1787	6,726.56	77.2061	6,726.56	75.424	6,726.56	73.9736	6,726.56	78.4531	6,726.56	75.5521	6,726.56	77.1549	6,726.56	71.3482	6,726.56	70.6154	6,726.56	67.811	6,726.56	67.3209	6,726.56	65.5525	6,726.56	66.2094	6,726.56	63.6655	6,726.56	69.2622	6,726.56	60.8828	6,726.56	66.3491	6,726.56	61.5889	6,726.56	52.5785	6,726.56	60.6216	6,726.56	57.8334	6,726.56	60.025	6,726.56	55.6632	6,726.56	64.3359	6,726.56	55.6364	6,726.56	60.9768	6,726.56	56.8158	6,726.56	46.8955	6,726.56	48.5879	6,726.56	56.2492
6,963.87	78.5077	6,963.87	78.0686	6,963.87	80.9873	6,963.87	80.4069	6,963.87	78.3615	6,963.87	77.9826	6,963.87	77.8848	6,963.87	75.5731	6,963.87	79.5678	6,963.87	76.5034	6,963.87	78.4984	6,963.87	74.1706	6,963.87	77.3207	6,963.87	71.7884	6,963.87	63.2036	6,963.87	69.7095	6,963.87	71.3864	6,963.87	67.008	6,963.87	60.9743	6,963.87	64.7335	6,963.87	64.0277	6,963.87	62.6373	6,963.87	66.4198	6,963.87	62.8131	6,963.87	49.4791	6,963.87	60.4456	6,963.87	46.0114	6,963.87	60.1347	6,963.87	53.5156	6,963.87	63.8985	6,963.87	50.7493	6,963.87	59.7013	6,963.87	58.137	6,963.87	49.9507	6,963.87	54.717	6,963.87	57.1824
7,209.96	78.2437	7,209.96	79.5393	7,209.96	79.6848	7,209.96	81.0203	7,209.96	79.5218	7,209.96	78.8802	7,209.96	77.0949	7,209.96	76.8727	7,209.96	80.6345	7,209.96	77.1961	7,209.96	77.9847	7,209.96	74.8401	7,209.96	75.3285	7,209.96	72.9957	7,209.96	68.0701	7,209.96	70.7246	7,209.96	71.3982	7,209.96	66.9971	7,209.96	44.9252	7,209.96	64.9401	7,209.96	60.8697	7,209.96	62.8756	7,209.96	65.2365	7,209.96	62.8737	7,209.96	55.3177	7,209.96	61.1502	7,209.96	53.1169	7,209.96	62.3301	7,209.96	53.1346	7,209.96	62.896	7,209.96	49.7895	7,209.96	58.0615	7,209.96	59.4013	7,209.96	50.2612	7,209.96	52.9271	7,209.96	59.7878
7,464.84	79.8098	7,464.84	79.8353	7,464.84	80.0192	7,464.84	81.4923	7,464.84	79.0952	7,464.84	78.7087	7,464.84	78.9276	7,464.84	77.5042	7,464.84	78.5772	7,464.84	76.0431	7,464.84	78.2047	7,464.84	76.1499	7,464.84	71.0008	7,464.84	72.0303	7,464.84	70.6956	7,464.84	69.7097	7,464.84	66.6759	7,464.84	65.4732	7,464.84	60.5655	7,464.84	65.1684	7,464.84	55.0547	7,464.84	61.672	7,464.84	62.6964	7,464.84	62.1822	7,464.84	52.9247	7,464.84	62.0058	7,464.84	50.9256	7,464.84	62.6622	7,464.84	47.4557	7,464.84	61.1326	7,464.84	52.0521	7,464.84	60.3381	7,464.84	58.0717	7,464.84	52.8401	7,464.84	51.5331	7,464.84	59.7241
7,727.05	79.7947	7,727.05	79.4006	7,727.05	81.6436	7,727.05	80.8817	7,727.05	79.8696	7,727.05	78.7429	7,727.05	79.4221	7,727.05	77.2924	7,727.05	75.7464	7,727.05	75.8748	7,727.05	78.0947	7,727.05	76.101	7,727.05	70.7662	7,727.05	70.8639	7,727.05	69.2393	7,727.05	69.7786	7,727.05	60.2097	7,727.05	66.1011	7,727.05	58.5383	7,727.05	64.4872	7,727.05	39.6312	7,727.05	61.5114	7,727.05	61.2264	7,727.05	61.8173	7,727.05	56.0476	7,727.05	61.3664	7,727.05	48.3069	7,727.05	61.6037	7,727.05	44.7005	7,727.05	62.077	7,727.05	51.6184	7,727.05	60.9644	7,727.05	57.4141	7,727.05	50.0899	7,727.05	49.4823	7,727.05	58.1424
7,999.51	80.0065	7,999.51	79.6979	7,999.51	81.0989	7,999.51	80.1266	7,999.51	79.4247	7,999.51	79.4311	7,999.51	78.4082	7,999.51	76.7742	7,999.51	75.2018	7,999.51	76.6103	7,999.51	76.2985	7,999.51	75.1997	7,999.51	72.8599	7,999.51	71.651	7,999.51	65.5551	7,999.51	69.6581	7,999.51	62.3482	7,999.51	66.675	7,999.51	55.2432	7,999.51	63.7181	7,999.51	57.5344	7,999.51	61.389	7,999.51	56.5859	7,999.51	61.3272	7,999.51	55.0947	7,999.51	60.3798	7,999.51	50.359	7,999.51	61.2163	7,999.51	45.8003	7,999.51	62.6395	7,999.51	48.8513	7,999.51	60.4361	7,999.51	57.2785	7,999.51	51.1675	7,999.51	49.6654	7,999.51	56.4246
8,282.23	80.0384	8,282.23	80.2455	8,282.23	81.0427	8,282.23	80.0141	8,282.23	78.4991	8,282.23	79.4386	8,282.23	77.7454	8,282.23	77.1629	8,282.23	75.3871	8,282.23	76.631	8,282.23	72.6189	8,282.23	75.5746	8,282.23	73.9639	8,282.23	71.881	8,282.23	66.0923	8,282.23	69.074	8,282.23	62.0016	8,282.23	67.3311	8,282.23	62.2783	8,282.23	61.7912	8,282.23	61.6793	8,282.23	62.065	8,282.23	56.9312	8,282.23	61.3988	8,282.23	57.3292	8,282.23	58.9669	8,282.23	48.9326	8,282.23	59.4505	8,282.23	47.709	8,282.23	63.0509	8,282.23	43.8865	8,282.23	60.2115	8,282.23	56.5138	8,282.23	53.6686	8,282.23	50.482	8,282.23	55.8004
8,573.73	80.2561	8,573.73	80.3692	8,573.73	80.7486	8,573.73	79.691	8,573.73	78.0602	8,573.73	78.3456	8,573.73	77.661	8,573.73	78.547	8,573.73	75.5466	8,573.73	75.5309	8,573.73	72.7139	8,573.73	75.9733	8,573.73	71.5877	8,573.73	70.859	8,573.73	71.596	8,573.73	68.0456	8,573.73	59.9345	8,573.73	65.9957	8,573.73	62.5794	8,573.73	60.1724	8,573.73	61.2102	8,573.73	62.4892	8,573.73	57.1194	8,573.73	59.6812	8,573.73	54.4083	8,573.73	58.4637	8,573.73	50.5383	8,573.73	58.467	8,573.73	49.6866	8,573.73	61.9972	8,573.73	50.1134	8,573.73	59.2649	8,573.73	56.0495	8,573.73	48.7194	8,573.73	49.0902	8,573.73	56.233
8,876.95	79.9181	8,876.95	80.1891	8,876.95	78.7762	8,876.95	78.5344	8,876.95	78.6254	8,876.95	79.0157	8,876.95	78.4571	8,876.95	77.9868	8,876.95	73.6213	8,876.95	76.0666	8,876.95	75.8055	8,876.95	75.4812	8,876.95	66.7731	8,876.95	70.6768	8,876.95	72.8632	8,876.95	68.162	8,876.95	55.9301	8,876.95	65.9501	8,876.95	61.9391	8,876.95	61.5254	8,876.95	58.4712	8,876.95	61.3069	8,876.95	54.2383	8,876.95	58.7816	8,876.95	51.1535	8,876.95	59.8038	8,876.95	48.3267	8,876.95	58.8308	8,876.95	47.64	8,876.95	60.8196	8,876.95	52.3084	8,876.95	58.6115	8,876.95	52.6913	8,876.95	51.1693	8,876.95	46.3944	8,876.95	55.8768
9,188.96	79.9951	9,188.96	79.9505	9,188.96	77.6087	9,188.96	78.0435	9,188.96	77.9941	9,188.96	79.0753	9,188.96	79.7427	9,188.96	77.6717	9,188.96	70.8554	9,188.96	76.187	9,188.96	75.2262	9,188.96	75.3092	9,188.96	73.109	9,188.96	70.7908	9,188.96	70.8644	9,188.96	68.2972	9,188.96	61.1815	9,188.96	66.0226	9,188.96	59.5796	9,188.96	61.969	9,188.96	52.4662	9,188.96	59.4609	9,188.96	52.3244	9,188.96	57.9235	9,188.96	54.0927	9,188.96	59.01	9,188.96	45.4614	9,188.96	56.9343	9,188.96	42.47	9,188.96	58.9455	9,188.96	51.442	9,188.96	56.3775	9,188.96	52.481	9,188.96	51.1252	9,188.96	47.0113	9,188.96	54.8305
9,514.16	79.1427	9,514.16	79.9629	9,514.16	76.7111	9,514.16	77.9109	9,514.16	76.4531	9,514.16	77.986	9,514.16	78.3797	9,514.16	78.3576	9,514.16	69.6804	9,514.16	75.7204	9,514.16	73.4822	9,514.16	75.4583	9,514.16	74.4355	9,514.16	70.3269	9,514.16	66.4493	9,514.16	66.691	9,514.16	62.9935	9,514.16	65.1498	9,514.16	60.7174	9,514.16	59.9425	9,514.16	50.9096	9,514.16	58.7065	9,514.16	55.3541	9,514.16	55.4883	9,514.16	48.4536	9,514.16	55.2057	9,514.16	43.2847	9,514.16	53.9541	9,514.16	34.2517	9,514.16	58.3361	9,514.16	50.0231	9,514.16	56.6326	9,514.16	52.7273	9,514.16	53.8171	9,514.16	46.8961	9,514.16	51.5169
9,849.61	79.0068	9,849.61	79.7445	9,849.61	76.9343	9,849.61	77.6247	9,849.61	77.2725	9,849.61	78.2672	9,849.61	75.3404	9,849.61	78.049	9,849.61	73.3046	9,849.61	76.1021	9,849.61	74.2985	9,849.61	74.8569	9,849.61	74.3064	9,849.61	70.4256	9,849.61	69.5668	9,849.61	66.3752	9,849.61	63.4666	9,849.61	65.6144	9,849.61	57.7583	9,849.61	58.6986	9,849.61	55.0868	9,849.61	58.2155	9,849.61	56.9292	9,849.61	55.9151	9,849.61	50.306	9,849.61	53.8406	9,849.61	36.5737	9,849.61	54.8408	9,849.61	32.5272	9,849.61	58.168	9,849.61	48.014	9,849.61	56.4586	9,849.61	52.5962	9,849.61	51.7313	9,849.61	47.6741	9,849.61	50.17
10,196.8	78.9956	10,196.8	79.5997	10,196.8	77.9098	10,196.8	78.2447	10,196.8	77.1985	10,196.8	77.9875	10,196.8	76.4312	10,196.8	77.6183	10,196.8	75.8845	10,196.8	75.8119	10,196.8	74.5559	10,196.8	75.1095	10,196.8	73.6294	10,196.8	70.3809	10,196.8	71.2309	10,196.8	66.3318	10,196.8	64.8259	10,196.8	63.8516	10,196.8	60.4269	10,196.8	56.6256	10,196.8	52.1162	10,196.8	58.2117	10,196.8	51.8904	10,196.8	53.2082	10,196.8	49.1551	10,196.8	52.8342	10,196.8	45.0325	10,196.8	54.4785	10,196.8	48.5678	10,196.8	56.8129	10,196.8	48.4913	10,196.8	55.4749	10,196.8	44.453	10,196.8	50.4764	10,196.8	46.1716	10,196.8	48.1318
10,555.7	79.3137	10,555.7	80.1062	10,555.7	79.267	10,555.7	78.5871	10,555.7	76.7649	10,555.7	77.4646	10,555.7	76.9656	10,555.7	77.7459	10,555.7	75.3287	10,555.7	75.298	10,555.7	72.8235	10,555.7	74.627	10,555.7	71.07	10,555.7	69.3901	10,555.7	72.9179	10,555.7	65.2289	10,555.7	62.549	10,555.7	63.1743	10,555.7	58.0802	10,555.7	54.5592	10,555.7	36.1462	10,555.7	56.8526	10,555.7	53.174	10,555.7	53.8698	10,555.7	43.7801	10,555.7	51.716	10,555.7	43.2994	10,555.7	54.7521	10,555.7	46.8338	10,555.7	57.0614	10,555.7	41.3256	10,555.7	55.0093	10,555.7	48.323	10,555.7	49.9962	10,555.7	49.0066	10,555.7	50.3834
10,927.7	79.8624	10,927.7	80.4578	10,927.7	80.2326	10,927.7	79.15	10,927.7	77.2043	10,927.7	78.2067	10,927.7	77.3444	10,927.7	76.8704	10,927.7	72.542	10,927.7	75.0036	10,927.7	70.7817	10,927.7	74.8349	10,927.7	73.2926	10,927.7	69.2139	10,927.7	71.5794	10,927.7	66.1768	10,927.7	61.8646	10,927.7	63.072	10,927.7	50.4346	10,927.7	55.2322	10,927.7	48.864	10,927.7	57.1618	10,927.7	57.5937	10,927.7	55.1084	10,927.7	50.2979	10,927.7	51.6195	10,927.7	45.2368	10,927.7	53.501	10,927.7	36.3855	10,927.7	55.9643	10,927.7	41.4616	10,927.7	53.7095	10,927.7	52.8411	10,927.7	47.428	10,927.7	45.1767	10,927.7	49.6682
11,313	80.9634	11,313	80.9488	11,313	81.4809	11,313	80.2732	11,313	77.0214	11,313	78.0893	11,313	76.9572	11,313	76.9041	11,313	73.1253	11,313	75.2093	11,313	69.7304	11,313	74.2696	11,313	74.0769	11,313	68.297	11,313	69.6448	11,313	64.9436	11,313	63.1762	11,313	61.801	11,313	47.2656	11,313	52.9912	11,313	53.6261	11,313	58.034	11,313	60.3984	11,313	52.9695	11,313	50.6749	11,313	50.7851	11,313	36.7701	11,313	52.3798	11,313	45.9366	11,313	55.6142	11,313	41.8532	11,313	52.7476	11,313	48.8102	11,313	51.1103	11,313	49.4136	11,313	47.4237
11,712.9	81.125	11,712.9	81.2258	11,712.9	82.2629	11,712.9	80.5196	11,712.9	79.1882	11,712.9	78.3847	11,712.9	76.2759	11,712.9	76.7858	11,712.9	73.134	11,712.9	74.5627	11,712.9	72.0674	11,712.9	73.9969	11,712.9	72.7043	11,712.9	67.2913	11,712.9	69.9305	11,712.9	63.2319	11,712.9	65.1979	11,712.9	60.8099	11,712.9	51.5395	11,712.9	53.9441	11,712.9	50.1304	11,712.9	55.297	11,712.9	60.0602	11,712.9	49.321	11,712.9	51.6114	11,712.9	51.6017	11,712.9	47.002	11,712.9	52.6028	11,712.9	48.112	11,712.9	54.4849	11,712.9	44.0055	11,712.9	51.2884	11,712.9	47.801	11,712.9	52.8182	11,712.9	50.8035	11,712.9	43.2528
12,126	81.1943	12,126	81.1976	12,126	81.5297	12,126	80.9881	12,126	79.6262	12,126	78.1841	12,126	78.4062	12,126	76.6724	12,126	75.5665	12,126	74.3079	12,126	73.0064	12,126	71.8211	12,126	71.1915	12,126	64.887	12,126	70.1203	12,126	63.3342	12,126	66.0345	12,126	58.0449	12,126	58.8135	12,126	52.9735	12,126	53.2598	12,126	53.7634	12,126	53.1104	12,126	45.6351	12,126	52.0563	12,126	50.316	12,126	38.1342	12,126	50.7414	12,126	45.6263	12,126	49.444	12,126	44.1333	12,126	48.3703	12,126	46.5833	12,126	49.8355	12,126	45.9635	12,126	44.6152
12,553.7	81.0746	12,553.7	81.2305	12,553.7	80.7325	12,553.7	81.3626	12,553.7	79.5854	12,553.7	79.1961	12,553.7	78.5488	12,553.7	77.4787	12,553.7	77.7257	12,553.7	73.7792	12,553.7	75.1977	12,553.7	73.608	12,553.7	70.0051	12,553.7	66.2734	12,553.7	70.259	12,553.7	61.9822	12,553.7	68.5339	12,553.7	57.8484	12,553.7	56.2371	12,553.7	56.2448	12,553.7	51.4003	12,553.7	48.9348	12,553.7	59.6981	12,553.7	48.5036	12,553.7	36.0165	12,553.7	54.4776	12,553.7	46.2044	12,553.7	51.4658	12,553.7	44.557	12,553.7	51.3879	12,553.7	42.4528	12,553.7	48.9666	12,553.7	48.6043	12,553.7	47.401	12,553.7	43.2161	12,553.7	41.9531
12,996.1	81.014	12,996.1	80.8448	12,996.1	80.7984	12,996.1	81.4919	12,996.1	79.6431	12,996.1	79.5988	12,996.1	77.9513	12,996.1	77.9445	12,996.1	78.6042	12,996.1	75.0435	12,996.1	74.8628	12,996.1	73.3726	12,996.1	68.4566	12,996.1	68.5235	12,996.1	69.8673	12,996.1	63.6575	12,996.1	69.3206	12,996.1	58.9406	12,996.1	56.7601	12,996.1	54.4807	12,996.1	55.7237	12,996.1	50.5238	12,996.1	60.0686	12,996.1	49.1306	12,996.1	50.9792	12,996.1	51.8776	12,996.1	48.0796	12,996.1	50.6329	12,996.1	49.1846	12,996.1	48.6257	12,996.1	45.8053	12,996.1	42.2987	12,996.1	48.5108	12,996.1	46.0198	12,996.1	43.0102	12,996.1	45.8246
13,454.6	81.3113	13,454.6	80.837	13,454.6	80.836	13,454.6	81.997	13,454.6	80.9908	13,454.6	79.9081	13,454.6	80.2733	13,454.6	78.5715	13,454.6	77.4794	13,454.6	75.1906	13,454.6	72.4314	13,454.6	74.1455	13,454.6	71.1486	13,454.6	67.7445	13,454.6	69.0385	13,454.6	63.3684	13,454.6	67.4924	13,454.6	59.904	13,454.6	56.6171	13,454.6	53.8854	13,454.6	54.7897	13,454.6	49.2696	13,454.6	60.2408	13,454.6	52.277	13,454.6	45.15	13,454.6	46.6102	13,454.6	40.5458	13,454.6	49.9657	13,454.6	49.4005	13,454.6	44.6149	13,454.6	48.4286	13,454.6	45.6626	13,454.6	45.6222	13,454.6	47.0363	13,454.6	37.4367	13,454.6	43.812
13,929.2	81.3815	13,929.2	81.1911	13,929.2	81.2019	13,929.2	82.2484	13,929.2	81.4747	13,929.2	80.904	13,929.2	81.2167	13,929.2	78.7935	13,929.2	75.2495	13,929.2	75.362	13,929.2	74.9886	13,929.2	74.468	13,929.2	70.1603	13,929.2	68.2849	13,929.2	67.9412	13,929.2	63.4241	13,929.2	64.0521	13,929.2	58.9839	13,929.2	55.9818	13,929.2	54.8785	13,929.2	57.9017	13,929.2	46.2997	13,929.2	62.6996	13,929.2	49.049	13,929.2	51.5293	13,929.2	45.0121	13,929.2	50.0786	13,929.2	41.4709	13,929.2	49.5335	13,929.2	47.0621	13,929.2	44.8484	13,929.2	47.115	13,929.2	47.958	13,929.2	51.9999	13,929.2	38.654	13,929.2	46.7366
14,419.9	81.5744	14,419.9	81.411	14,419.9	80.5883	14,419.9	82.3164	14,419.9	81.0569	14,419.9	81.5334	14,419.9	81.5717	14,419.9	79.687	14,419.9	77.6882	14,419.9	76.2447	14,419.9	75.2503	14,419.9	74.9675	14,419.9	71.4153	14,419.9	67.7575	14,419.9	66.5173	14,419.9	63.1345	14,419.9	65.74	14,419.9	58.4466	14,419.9	54.2442	14,419.9	55.0627	14,419.9	60.8582	14,419.9	42.7844	14,419.9	65.4792	14,419.9	48.7927	14,419.9	54.954	14,419.9	51.3024	14,419.9	48.5048	14,419.9	45.0271	14,419.9	51.8714	14,419.9	51.078	14,419.9	46.9564	14,419.9	54.0294	14,419.9	30.5233	14,419.9	55.0932	14,419.9	45.966	14,419.9	44.7121
14,928.2	82.3812	14,928.2	81.959	14,928.2	82.186	14,928.2	82.5923	14,928.2	82.5331	14,928.2	82.3831	14,928.2	81.9421	14,928.2	80.7085	14,928.2	77.9363	14,928.2	77.1096	14,928.2	77.023	14,928.2	75.552	14,928.2	73.1884	14,928.2	67.8912	14,928.2	70.2025	14,928.2	63.1671	14,928.2	66.3879	14,928.2	57.1257	14,928.2	61.3273	14,928.2	54.1817	14,928.2	60.6185	14,928.2	45.5373	14,928.2	65.6365	14,928.2	47.9648	14,928.2	44.566	14,928.2	52.7241	14,928.2	44.7932	14,928.2	47.4713	14,928.2	47.0107	14,928.2	51.3517	14,928.2	46.713	14,928.2	51.9176	14,928.2	37.0352	14,928.2	54.3629	14,928.2	42.2144	14,928.2	41.6818
15,455.6	83.7484	15,455.6	83.7156	15,455.6	82.9906	15,455.6	84.1505	15,455.6	83.5729	15,455.6	83.4791	15,455.6	83.1536	15,455.6	82.0067	15,455.6	80.5874	15,455.6	78.1592	15,455.6	78.7616	15,455.6	76.2974	15,455.6	74.1684	15,455.6	68.3111	15,455.6	72.7662	15,455.6	63.0225	15,455.6	69.1872	15,455.6	58.2643	15,455.6	63.4285	15,455.6	56.0509	15,455.6	65.4425	15,455.6	49.2858	15,455.6	68.4885	15,455.6	55.6584	15,455.6	57.9615	15,455.6	56.3476	15,455.6	50.7145	15,455.6	47.5522	15,455.6	49.9142	15,455.6	56.9411	15,455.6	50.5038	15,455.6	54.0458	15,455.6	50.1363	15,455.6	56.9602	15,455.6	48.3054	15,455.6	43.1197
16,000.5	86.0043	16,000.5	86.064	16,000.5	85.534	16,000.5	85.0033	16,000.5	84.1755	16,000.5	84.5087	16,000.5	83.1938	16,000.5	82.8898	16,000.5	82.6738	16,000.5	77.9237	16,000.5	80.0842	16,000.5	76.7894	16,000.5	76.0251	16,000.5	71.8601	16,000.5	75.3421	16,000.5	65.4615	16,000.5	73.9711	16,000.5	61.6117	16,000.5	65.3679	16,000.5	56.255	16,000.5	68.1761	16,000.5	55.2439	16,000.5	71.996	16,000.5	58.2466	16,000.5	58.5873	16,000.5	57.8794	16,000.5	54.0348	16,000.5	51.3488	16,000.5	52.0328	16,000.5	56.8997	16,000.5	52.7861	16,000.5	52.9819	16,000.5	49.3341	16,000.5	59.3497	16,000.5	52.3748	16,000.5	51.5906
16,564.5	86.4038	16,564.5	86.669	16,564.5	86.4251	16,564.5	83.9942	16,564.5	84.1623	16,564.5	82.7688	16,564.5	83.1936	16,564.5	81.0006	16,564.5	81.532	16,564.5	76.3892	16,564.5	77.0918	16,564.5	75.4108	16,564.5	75.4259	16,564.5	70.1367	16,564.5	73.7697	16,564.5	66.8772	16,564.5	71.4699	16,564.5	63.3662	16,564.5	63.9684	16,564.5	54.7052	16,564.5	66.2745	16,564.5	56.4391	16,564.5	71.1857	16,564.5	54.3215	16,564.5	59.6546	16,564.5	53.4626	16,564.5	50.5035	16,564.5	49.3179	16,564.5	38.7769	16,564.5	55.7817	16,564.5	44.5643	16,564.5	54.9511	16,564.5	51.2946	16,564.5	57.069	16,564.5	46.5439	16,564.5	53.5506
17,148.9	84.3809	17,148.9	84.106	17,148.9	84.2697	17,148.9	81.6979	17,148.9	80.9189	17,148.9	79.1986	17,148.9	78.7723	17,148.9	78.5815	17,148.9	75.8312	17,148.9	75.0698	17,148.9	72.6586	17,148.9	72.6991	17,148.9	71.3122	17,148.9	68.2334	17,148.9	69.322	17,148.9	62.774	17,148.9	66.4541	17,148.9	60.7354	17,148.9	54.7029	17,148.9	47.8166	17,148.9	62.0427	17,148.9	56.1446	17,148.9	67.2369	17,148.9	51.3683	17,148.9	57.1863	17,148.9	52.6671	17,148.9	46.4677	17,148.9	46.302	17,148.9	38.2035	17,148.9	52.6902	17,148.9	38.6825	17,148.9	55.3396	17,148.9	51.9005	17,148.9	55.6798	17,148.9	40.7462	17,148.9	52.7785
17,752.4	83.1829	17,752.4	82.6652	17,752.4	82.6354	17,752.4	81.0486	17,752.4	79.5094	17,752.4	78.2863	17,752.4	77.7653	17,752.4	78.2868	17,752.4	72.9998	17,752.4	74.5551	17,752.4	70.6848	17,752.4	72.364	17,752.4	69.3414	17,752.4	68.2491	17,752.4	63.7697	17,752.4	61.2291	17,752.4	55.0378	17,752.4	57.7875	17,752.4	49.0847	17,752.4	45.0085	17,752.4	57.5522	17,752.4	53.3649	17,752.4	63.2205	17,752.4	49.0448	17,752.4	49.8453	17,752.4	51.9211	17,752.4	40.8321	17,752.4	45.9422	17,752.4	44.7002	17,752.4	51.0304	17,752.4	42.9912	17,752.4	50.9557	17,752.4	48.0949	17,752.4	53.1637	17,752.4	43.8338	17,752.4	49.5716
18,379.4	82.0806	18,379.4	81.8089	18,379.4	81.3945	18,379.4	80.6918	18,379.4	79.6071	18,379.4	77.6106	18,379.4	77.0216	18,379.4	76.6225	18,379.4	73.2066	18,379.4	70.7015	18,379.4	67.9083	18,379.4	68.1926	18,379.4	62.2598	18,379.4	61.9754	18,379.4	57.0453	18,379.4	56.7165	18,379.4	49.8271	18,379.4	51.5494	18,379.4	42.7916	18,379.4	38.8074	18,379.4	59.2173	18,379.4	48.0949	18,379.4	61.5549	18,379.4	40.6609	18,379.4	48.5319	18,379.4	47.1153	18,379.4	36.4025	18,379.4	38.4663	18,379.4	41.2447	18,379.4	43.1852	18,379.4	31.0843	18,379.4	44.4012	18,379.4	39.0408	18,379.4	45.2489	18,379.4	37.5112	18,379.4	42.9296
19,026.9	79.8737	19,026.9	79.7159	19,026.9	79.2353	19,026.9	78.1499	19,026.9	77.036	19,026.9	74.9617	19,026.9	74.2975	19,026.9	73.8479	19,026.9	69.7491	19,026.9	68.0995	19,026.9	60.7623	19,026.9	64.5295	19,026.9	50.6164	19,026.9	58.7499	19,026.9	41.5771	19,026.9	51.6616	19,026.9	39.7909	19,026.9	48.4971	19,026.9	44.9598	19,026.9	31.7791	19,026.9	60.4905	19,026.9	44.1785	19,026.9	60.3625	19,026.9	40.609	19,026.9	46.2661	19,026.9	36.8413	19,026.9	35.9202	19,026.9	33.5529	19,026.9	29.2195	19,026.9	42.7577	19,026.9	33.0587	19,026.9	40.8802	19,026.9	37.6443	19,026.9	33.6636	19,026.9	29.6939	19,026.9	42.0861
19,697.8	76.4791	19,697.8	76.2696	19,697.8	75.5542	19,697.8	74.7204	19,697.8	73.2667	19,697.8	71.7653	19,697.8	71.9183	19,697.8	71.6828	19,697.8	68.9338	19,697.8	67.2373	19,697.8	65.2747	19,697.8	63.5227	19,697.8	54.6356	19,697.8	57.7068	19,697.8	51.1681	19,697.8	49.8997	19,697.8	47.0883	19,697.8	46.635	19,697.8	49.519	19,697.8	35.242	19,697.8	61.8435	19,697.8	46.1945	19,697.8	61.9571	19,697.8	39.0437	19,697.8	47.3593	19,697.8	40.0592	19,697.8	36.6736	19,697.8	33.5823	19,697.8	31.0078	19,697.8	44.1362	19,697.8	21.0938	19,697.8	44.2289	19,697.8	23.5234	19,697.8	38.2098	19,697.8	34.2155	19,697.8	38.5792
19,999.5	75.0221	19,999.5	74.435	19,999.5	73.6542	19,999.5	72.5787	19,999.5	70.9631	19,999.5	70.1107	19,999.5	69.5287	19,999.5	70.3082	19,999.5	68.1768	19,999.5	66.5413	19,999.5	63.2832	19,999.5	63.147	19,999.5	54.8388	19,999.5	59.3753	19,999.5	49.8792	19,999.5	48.638	19,999.5	44.3992	19,999.5	43.6753	19,999.5	50.0916	19,999.5	41.2865	19,999.5	60.2249	19,999.5	43.3368	19,999.5	60.4227	19,999.5	37.8793	19,999.5	42.3718	19,999.5	30.1135	19,999.5	40.3185	19,999.5	40.0813	19,999.5	43.8746	19,999.5	40.9789	19,999.5	42.5842	19,999.5	44.0398	19,999.5	33.5668	19,999.5	34.6925	19,999.5	37.1556	19,999.5	31.7517
