"SPL Horizontal"
"On-Axis"		"10°"		"-10°"		"20°"		"-20°"		"30°"		"-30°"		"40°"		"-40°"		"50°"		"-50°"		"60°"		"-60°"		"70°"		"-70°"		"80°"		"-80°"		"90°"		"-90°"		"100°"		"-100°"		"110°"		"-110°"		"120°"		"-120°"		"130°"		"-130°"		"140°"		"-140°"		"150°"		"-150°"		"160°"		"-160°"		"170°"		"-170°"		"180°"
"Frequency / Hz"	"Sound Pressure Level / dB (re 20 µPa/V)  [2.83  V @ 1. m]"	"Frequency / Hz"	"Sound Pressure Level / dB (re 20 µPa/V)  [2.83  V @ 1. m]"	"Frequency / Hz"	"Sound Pressure Level / dB (re 20 µPa/V)  [2.83  V @ 1. m]"	"Frequency / Hz"	"Sound Pressure Level / dB (re 20 µPa/V)  [2.83  V @ 1. m]"	"Frequency / Hz"	"Sound Pressure Level / dB (re 20 µPa/V)  [2.83  V @ 1. m]"	"Frequency / Hz"	"Sound Pressure Level / dB (re 20 µPa/V)  [2.83  V @ 1. m]"	"Frequency / Hz"	"Sound Pressure Level / dB (re 20 µPa/V)  [2.83  V @ 1. m]"	"Frequency / Hz"	"Sound Pressure Level / dB (re 20 µPa/V)  [2.83  V @ 1. m]"	"Frequency / Hz"	"Sound Pressure Level / dB (re 20 µPa/V)  [2.83  V @ 1. m]"	"Frequency / Hz"	"Sound Pressure Level / dB (re 20 µPa/V)  [2.83  V @ 1. m]"	"Frequency / Hz"	"Sound Pressure Level / dB (re 20 µPa/V)  [2.83  V @ 1. m]"	"Frequency / Hz"	"Sound Pressure Level / dB (re 20 µPa/V)  [2.83  V @ 1. m]"	"Frequency / Hz"	"Sound Pressure Level / dB (re 20 µPa/V)  [2.83  V @ 1. m]"	"Frequency / Hz"	"Sound Pressure Level / dB (re 20 µPa/V)  [2.83  V @ 1. m]"	"Frequency / Hz"	"Sound Pressure Level / dB (re 20 µPa/V)  [2.83  V @ 1. m]"	"Frequency / Hz"	"Sound Pressure Level / dB (re 20 µPa/V)  [2.83  V @ 1. m]"	"Frequency / Hz"	"Sound Pressure Level / dB (re 20 µPa/V)  [2.83  V @ 1. m]"	"Frequency / Hz"	"Sound Pressure Level / dB (re 20 µPa/V)  [2.83  V @ 1. m]"	"Frequency / Hz"	"Sound Pressure Level / dB (re 20 µPa/V)  [2.83  V @ 1. m]"	"Frequency / Hz"	"Sound Pressure Level / dB (re 20 µPa/V)  [2.83  V @ 1. m]"	"Frequency / Hz"	"Sound Pressure Level / dB (re 20 µPa/V)  [2.83  V @ 1. m]"	"Frequency / Hz"	"Sound Pressure Level / dB (re 20 µPa/V)  [2.83  V @ 1. m]"	"Frequency / Hz"	"Sound Pressure Level / dB (re 20 µPa/V)  [2.83  V @ 1. m]"	"Frequency / Hz"	"Sound Pressure Level / dB (re 20 µPa/V)  [2.83  V @ 1. m]"	"Frequency / Hz"	"Sound Pressure Level / dB (re 20 µPa/V)  [2.83  V @ 1. m]"	"Frequency / Hz"	"Sound Pressure Level / dB (re 20 µPa/V)  [2.83  V @ 1. m]"	"Frequency / Hz"	"Sound Pressure Level / dB (re 20 µPa/V)  [2.83  V @ 1. m]"	"Frequency / Hz"	"Sound Pressure Level / dB (re 20 µPa/V)  [2.83  V @ 1. m]"	"Frequency / Hz"	"Sound Pressure Level / dB (re 20 µPa/V)  [2.83  V @ 1. m]"	"Frequency / Hz"	"Sound Pressure Level / dB (re 20 µPa/V)  [2.83  V @ 1. m]"	"Frequency / Hz"	"Sound Pressure Level / dB (re 20 µPa/V)  [2.83  V @ 1. m]"	"Frequency / Hz"	"Sound Pressure Level / dB (re 20 µPa/V)  [2.83  V @ 1. m]"	"Frequency / Hz"	"Sound Pressure Level / dB (re 20 µPa/V)  [2.83  V @ 1. m]"	"Frequency / Hz"	"Sound Pressure Level / dB (re 20 µPa/V)  [2.83  V @ 1. m]"	"Frequency / Hz"	"Sound Pressure Level / dB (re 20 µPa/V)  [2.83  V @ 1. m]"	"Frequency / Hz"	"Sound Pressure Level / dB (re 20 µPa/V)  [2.83  V @ 1. m]"
20.5078	57.8015	20.5078	57.7546	20.5078	57.8521	20.5078	57.7142	20.5078	57.9047	20.5078	57.6835	20.5078	57.9582	20.5078	57.6652	20.5078	58.012	20.5078	57.6608	20.5078	58.0649	20.5078	57.6701	20.5078	58.1152	20.5078	57.6909	20.5078	58.1597	20.5078	57.7202	20.5078	58.1947	20.5078	57.7543	20.5078	58.2158	20.5078	57.7894	20.5078	58.2191	20.5078	57.822	20.5078	58.2019	20.5078	57.849	20.5078	58.1645	20.5078	57.8678	20.5078	58.1106	20.5078	57.8772	20.5078	58.0475	20.5078	57.878	20.5078	57.9846	20.5078	57.8736	20.5078	57.9313	20.5078	57.87	20.5078	57.8941	20.5078	57.8747
21.9727	59.524	21.9727	59.5175	21.9727	59.5267	21.9727	59.5061	21.9727	59.526	21.9727	59.4889	21.9727	59.5223	21.9727	59.465	21.9727	59.5156	21.9727	59.434	21.9727	59.5057	21.9727	59.3963	21.9727	59.4917	21.9727	59.3537	21.9727	59.4729	21.9727	59.3088	21.9727	59.4482	21.9727	59.2643	21.9727	59.4174	21.9727	59.2227	21.9727	59.3812	21.9727	59.1853	21.9727	59.341	21.9727	59.153	21.9727	59.2991	21.9727	59.1265	21.9727	59.2575	21.9727	59.1065	21.9727	59.2181	21.9727	59.0939	21.9727	59.1821	21.9727	59.0893	21.9727	59.1505	21.9727	59.093	21.9727	59.1244	21.9727	59.1049
23.4375	59.7207	23.4375	59.6556	23.4375	59.7837	23.4375	59.5908	23.4375	59.8415	23.4375	59.528	23.4375	59.8913	23.4375	59.4678	23.4375	59.9299	23.4375	59.41	23.4375	59.9548	23.4375	59.3541	23.4375	59.9637	23.4375	59.2995	23.4375	59.955	23.4375	59.2461	23.4375	59.9281	23.4375	59.1942	23.4375	59.8834	23.4375	59.1449	23.4375	59.8223	23.4375	59.0996	23.4375	59.747	23.4375	59.0605	23.4375	59.6607	23.4375	59.0307	23.4375	59.5668	23.4375	59.0136	23.4375	59.4691	23.4375	59.0125	23.4375	59.3716	23.4375	59.0298	23.4375	59.2784	23.4375	59.0665	23.4375	59.1938	23.4375	59.122
24.9023	61.7194	24.9023	61.7026	24.9023	61.7341	24.9023	61.6841	24.9023	61.7459	24.9023	61.6642	24.9023	61.7537	24.9023	61.6425	24.9023	61.7568	24.9023	61.6186	24.9023	61.7544	24.9023	61.5922	24.9023	61.7459	24.9023	61.5631	24.9023	61.7303	24.9023	61.5314	24.9023	61.7071	24.9023	61.4976	24.9023	61.6757	24.9023	61.462	24.9023	61.636	24.9023	61.4251	24.9023	61.5883	24.9023	61.3876	24.9023	61.5343	24.9023	61.3507	24.9023	61.4763	24.9023	61.3165	24.9023	61.418	24.9023	61.2874	24.9023	61.3634	24.9023	61.2666	24.9023	61.3169	24.9023	61.2575	24.9023	61.2824	24.9023	61.2623
26.3672	62.6464	26.3672	62.6343	26.3672	62.6561	26.3672	62.6206	26.3672	62.6625	26.3672	62.6062	26.3672	62.6647	26.3672	62.5916	26.3672	62.6622	26.3672	62.5768	26.3672	62.6547	26.3672	62.5614	26.3672	62.6421	26.3672	62.545	26.3672	62.6245	26.3672	62.5269	26.3672	62.6019	26.3672	62.5065	26.3672	62.5749	26.3672	62.4834	26.3672	62.5436	26.3672	62.4575	26.3672	62.5087	26.3672	62.4293	26.3672	62.4714	26.3672	62.3998	26.3672	62.4332	26.3672	62.3707	26.3672	62.3961	26.3672	62.3446	26.3672	62.3627	26.3672	62.324	26.3672	62.3356	26.3672	62.3115	26.3672	62.3172	26.3672	62.309
27.832	63.2102	27.832	63.2117	27.832	63.197	27.832	63.2017	27.832	63.1731	27.832	63.1812	27.832	63.1395	27.832	63.152	27.832	63.0978	27.832	63.116	27.832	63.0498	27.832	63.0751	27.832	62.9969	27.832	63.0309	27.832	62.9408	27.832	62.9841	27.832	62.8829	27.832	62.9353	27.832	62.8247	27.832	62.8846	27.832	62.7673	27.832	62.8322	27.832	62.7124	27.832	62.7789	27.832	62.6614	27.832	62.7257	27.832	62.6163	27.832	62.6745	27.832	62.5789	27.832	62.6276	27.832	62.5509	27.832	62.5875	27.832	62.5339	27.832	62.5565	27.832	62.529	27.832	62.5366
29.2969	63.9552	29.2969	63.9346	29.2969	63.9657	29.2969	63.9043	29.2969	63.9658	29.2969	63.8651	29.2969	63.9554	29.2969	63.8177	29.2969	63.9347	29.2969	63.7634	29.2969	63.9041	29.2969	63.704	29.2969	63.8644	29.2969	63.6418	29.2969	63.8169	29.2969	63.5799	29.2969	63.7626	29.2969	63.5211	29.2969	63.7031	29.2969	63.468	29.2969	63.64	29.2969	63.4222	29.2969	63.5751	29.2969	63.3838	29.2969	63.5109	29.2969	63.3525	29.2969	63.4501	29.2969	63.327	29.2969	63.3957	29.2969	63.3069	29.2969	63.3504	29.2969	63.2922	29.2969	63.3163	29.2969	63.284	29.2969	63.2944	29.2969	63.2841
30.7617	64.7869	30.7617	64.7722	30.7617	64.7933	30.7617	64.7497	30.7617	64.791	30.7617	64.7203	30.7617	64.7797	30.7617	64.685	30.7617	64.7595	30.7617	64.6446	30.7617	64.7308	30.7617	64.6001	30.7617	64.694	30.7617	64.5527	30.7617	64.6502	30.7617	64.5035	30.7617	64.6006	30.7617	64.4538	30.7617	64.5467	30.7617	64.4053	30.7617	64.4902	30.7617	64.359	30.7617	64.433	30.7617	64.3163	30.7617	64.377	30.7617	64.2778	30.7617	64.3243	30.7617	64.2443	30.7617	64.2771	30.7617	64.2164	30.7617	64.2374	30.7617	64.1953	30.7617	64.2072	30.7617	64.1825	30.7617	64.1877	30.7617	64.1796
32.2266	65.7199	32.2266	65.7005	32.2266	65.732	32.2266	65.6742	32.2266	65.7364	32.2266	65.6419	32.2266	65.7328	32.2266	65.6046	32.2266	65.7215	32.2266	65.5635	32.2266	65.7026	32.2266	65.5198	32.2266	65.6766	32.2266	65.4749	32.2266	65.6441	32.2266	65.4302	32.2266	65.6061	32.2266	65.3873	32.2266	65.5636	32.2266	65.3478	32.2266	65.518	32.2266	65.3129	32.2266	65.4709	32.2266	65.2838	32.2266	65.424	32.2266	65.2609	32.2266	65.3792	32.2266	65.2442	32.2266	65.3382	32.2266	65.2335	32.2266	65.3027	32.2266	65.2287	32.2266	65.2738	32.2266	65.2299	32.2266	65.252	32.2266	65.2375
33.6914	66.2238	33.6914	66.2186	33.6914	66.2208	33.6914	66.2054	33.6914	66.2095	33.6914	66.1845	33.6914	66.19	33.6914	66.1563	33.6914	66.1626	33.6914	66.1214	33.6914	66.1279	33.6914	66.0804	33.6914	66.0867	33.6914	66.034	33.6914	66.0398	33.6914	65.9834	33.6914	65.9885	33.6914	65.9297	33.6914	65.9343	33.6914	65.8745	33.6914	65.8787	33.6914	65.8198	33.6914	65.8236	33.6914	65.7675	33.6914	65.7709	33.6914	65.7195	33.6914	65.7226	33.6914	65.6777	33.6914	65.6804	33.6914	65.6436	33.6914	65.646	33.6914	65.6186	33.6914	65.6203	33.6914	65.6035	33.6914	65.6044	33.6914	65.5987
35.1562	67.0138	35.1562	67.0085	35.1562	67.0109	35.1562	66.9952	35.1562	66.9998	35.1562	66.9746	35.1562	66.9809	35.1562	66.9475	35.1562	66.9548	35.1562	66.9151	35.1562	66.9224	35.1562	66.8788	35.1562	66.8848	35.1562	66.8399	35.1562	66.8435	35.1562	66.7998	35.1562	66.8001	35.1562	66.7597	35.1562	66.7562	35.1562	66.7207	35.1562	66.7134	35.1562	66.6838	35.1562	66.6733	35.1562	66.6499	35.1562	66.6371	35.1562	66.6195	35.1562	66.6056	35.1562	66.5934	35.1562	66.5797	35.1562	66.5719	35.1562	66.56	35.1562	66.5555	35.1562	66.5466	35.1562	66.5445	35.1562	66.5397	35.1562	66.5391
36.6211	67.9523	36.6211	67.9519	36.6211	67.9427	36.6211	67.9418	36.6211	67.9232	36.6211	67.9223	36.6211	67.8941	36.6211	67.8939	36.6211	67.8559	36.6211	67.8573	36.6211	67.8093	36.6211	67.8135	36.6211	67.7559	36.6211	67.7635	36.6211	67.6974	36.6211	67.709	36.6211	67.6361	36.6211	67.6519	36.6211	67.5749	36.6211	67.5941	36.6211	67.5166	36.6211	67.5378	36.6211	67.4637	36.6211	67.485	36.6211	67.4179	36.6211	67.4376	36.6211	67.3804	36.6211	67.3969	36.6211	67.3513	36.6211	67.3638	36.6211	67.3303	36.6211	67.3388	36.6211	67.317	36.6211	67.3218	36.6211	67.3111	36.6211	67.3127
38.0859	68.09	38.0859	68.0797	38.0859	68.0892	38.0859	68.0583	38.0859	68.0771	38.0859	68.0264	38.0859	68.0542	38.0859	67.9848	38.0859	68.0212	38.0859	67.9344	38.0859	67.9788	38.0859	67.8764	38.0859	67.9284	38.0859	67.8123	38.0859	67.8714	38.0859	67.7438	38.0859	67.8092	38.0859	67.6727	38.0859	67.7436	38.0859	67.6017	38.0859	67.6763	38.0859	67.5332	38.0859	67.6093	38.0859	67.4701	38.0859	67.5446	38.0859	67.4149	38.0859	67.4844	38.0859	67.3696	38.0859	67.4306	38.0859	67.3358	38.0859	67.3849	38.0859	67.3141	38.0859	67.3485	38.0859	67.3048	38.0859	67.3226	38.0859	67.3078
39.5508	69.0344	39.5508	69.0137	39.5508	69.0481	39.5508	68.9863	39.5508	69.0545	39.5508	68.9532	39.5508	69.0535	39.5508	68.9152	39.5508	69.0455	39.5508	68.8737	39.5508	69.031	39.5508	68.8302	39.5508	69.0109	39.5508	68.7865	39.5508	68.9864	39.5508	68.7445	39.5508	68.9583	39.5508	68.706	39.5508	68.9277	39.5508	68.6726	39.5508	68.8954	39.5508	68.6456	39.5508	68.862	39.5508	68.6258	39.5508	68.8281	39.5508	68.6135	39.5508	68.7944	39.5508	68.6086	39.5508	68.7617	39.5508	68.6107	39.5508	68.7306	39.5508	68.6192	39.5508	68.7017	39.5508	68.6335	39.5508	68.6755	39.5508	68.6525
41.0156	69.2804	41.0156	69.2864	41.0156	69.2684	41.0156	69.2862	41.0156	69.2507	41.0156	69.2799	41.0156	69.228	41.0156	69.2678	41.0156	69.2012	41.0156	69.2501	41.0156	69.1715	41.0156	69.2273	41.0156	69.14	41.0156	69.1994	41.0156	69.1079	41.0156	69.1671	41.0156	69.0759	41.0156	69.1311	41.0156	69.0444	41.0156	69.0927	41.0156	69.0136	41.0156	69.0536	41.0156	68.9838	41.0156	69.0154	41.0156	68.9555	41.0156	68.9798	41.0156	68.9296	41.0156	68.9478	41.0156	68.9071	41.0156	68.9205	41.0156	68.8893	41.0156	68.8985	41.0156	68.8771	41.0156	68.8825	41.0156	68.8717	41.0156	68.8735
42.4805	69.9056	42.4805	69.9035	42.4805	69.9008	42.4805	69.8946	42.4805	69.8893	42.4805	69.8793	42.4805	69.8711	42.4805	69.858	42.4805	69.8468	42.4805	69.8317	42.4805	69.8168	42.4805	69.8012	42.4805	69.7817	42.4805	69.7677	42.4805	69.7424	42.4805	69.7321	42.4805	69.7	42.4805	69.6955	42.4805	69.6556	42.4805	69.6586	42.4805	69.6107	42.4805	69.6222	42.4805	69.5672	42.4805	69.5869	42.4805	69.5267	42.4805	69.5533	42.4805	69.4911	42.4805	69.5217	42.4805	69.4622	42.4805	69.493	42.4805	69.4415	42.4805	69.4678	42.4805	69.4297	42.4805	69.4476	42.4805	69.4273	42.4805	69.4336
43.9453	70.3975	43.9453	70.4001	43.9453	70.3878	43.9453	70.3955	43.9453	70.3716	43.9453	70.3839	43.9453	70.3498	43.9453	70.3661	43.9453	70.3238	43.9453	70.3429	43.9453	70.2947	43.9453	70.3157	43.9453	70.2641	43.9453	70.2855	43.9453	70.233	43.9453	70.2537	43.9453	70.2025	43.9453	70.2213	43.9453	70.1732	43.9453	70.1893	43.9453	70.1459	43.9453	70.1587	43.9453	70.1208	43.9453	70.1301	43.9453	70.0981	43.9453	70.1044	43.9453	70.0781	43.9453	70.0819	43.9453	70.0611	43.9453	70.0631	43.9453	70.0476	43.9453	70.0485	43.9453	70.0381	43.9453	70.0385	43.9453	70.0332	43.9453	70.0333
45.4102	70.903	45.4102	70.9056	45.4102	70.8912	45.4102	70.8989	45.4102	70.8703	45.4102	70.8835	45.4102	70.8413	45.4102	70.8604	45.4102	70.8054	45.4102	70.831	45.4102	70.7642	45.4102	70.797	45.4102	70.7198	45.4102	70.7603	45.4102	70.6744	45.4102	70.7232	45.4102	70.6303	45.4102	70.6873	45.4102	70.5896	45.4102	70.6544	45.4102	70.5542	45.4102	70.6252	45.4102	70.5253	45.4102	70.6	45.4102	70.5038	45.4102	70.5786	45.4102	70.4897	45.4102	70.5602	45.4102	70.4825	45.4102	70.544	45.4102	70.4815	45.4102	70.5294	45.4102	70.4855	45.4102	70.516	45.4102	70.4933	45.4102	70.5038
46.875	71.5718	46.875	71.5748	46.875	71.5556	46.875	71.5649	46.875	71.5264	46.875	71.5424	46.875	71.4845	46.875	71.5081	46.875	71.431	46.875	71.4631	46.875	71.367	46.875	71.4087	46.875	71.2945	46.875	71.3464	46.875	71.2155	46.875	71.2779	46.875	71.1327	46.875	71.2054	46.875	71.0488	46.875	71.1306	46.875	70.9669	46.875	71.0558	46.875	70.8901	46.875	70.9828	46.875	70.8212	46.875	70.9134	46.875	70.7627	46.875	70.8495	46.875	70.7169	46.875	70.7925	46.875	70.6852	46.875	70.7442	46.875	70.6685	46.875	70.7061	46.875	70.6669	46.875	70.6798
48.3398	72.109	48.3398	72.1038	48.3398	72.1014	48.3398	72.0859	48.3398	72.081	48.3398	72.0559	48.3398	72.0482	48.3398	72.0144	48.3398	72.0037	48.3398	71.9627	48.3398	71.9485	48.3398	71.9022	48.3398	71.884	48.3398	71.8344	48.3398	71.812	48.3398	71.7615	48.3398	71.7346	48.3398	71.6852	48.3398	71.6543	48.3398	71.6077	48.3398	71.5736	48.3398	71.5311	48.3398	71.4952	48.3398	71.4575	48.3398	71.4215	48.3398	71.389	48.3398	71.3549	48.3398	71.3279	48.3398	71.2977	48.3398	71.2763	48.3398	71.2518	48.3398	71.2363	48.3398	71.219	48.3398	71.2096	48.3398	71.2006	48.3398	71.1975
51.2695	72.9566	51.2695	72.9535	51.2695	72.9519	51.2695	72.9429	51.2695	72.9394	51.2695	72.9253	51.2695	72.9196	51.2695	72.9018	51.2695	72.8932	51.2695	72.8734	51.2695	72.8613	51.2695	72.8414	51.2695	72.8251	51.2695	72.8069	51.2695	72.7862	51.2695	72.7708	51.2695	72.7462	51.2695	72.7339	51.2695	72.7067	51.2695	72.6969	51.2695	72.6691	51.2695	72.6605	51.2695	72.6347	51.2695	72.6257	51.2695	72.6042	51.2695	72.5936	51.2695	72.5782	51.2695	72.5656	51.2695	72.5567	51.2695	72.5431	51.2695	72.5396	51.2695	72.5271	51.2695	72.5267	51.2695	72.5179	51.2695	72.5184	51.2695	72.5152
52.7344	73.23	52.7344	73.2428	52.7344	73.2117	52.7344	73.2501	52.7344	73.1882	52.7344	73.2523	52.7344	73.1599	52.7344	73.2499	52.7344	73.1278	52.7344	73.2435	52.7344	73.0932	52.7344	73.2337	52.7344	73.0576	52.7344	73.2212	52.7344	73.0228	52.7344	73.2064	52.7344	72.9905	52.7344	73.1897	52.7344	72.9624	52.7344	73.1714	52.7344	72.9397	52.7344	73.1514	52.7344	72.9235	52.7344	73.1298	52.7344	72.9142	52.7344	73.1066	52.7344	72.9118	52.7344	73.082	52.7344	72.916	52.7344	73.0563	52.7344	72.9258	52.7344	73.0303	52.7344	72.9406	52.7344	73.0049	52.7344	72.9592	52.7344	72.9809
54.1992	73.51	54.1992	73.52	54.1992	73.4947	54.1992	73.525	54.1992	73.4743	54.1992	73.5257	54.1992	73.4495	54.1992	73.5229	54.1992	73.4216	54.1992	73.518	54.1992	73.3923	54.1992	73.5121	54.1992	73.3637	54.1992	73.5064	54.1992	73.3382	54.1992	73.5021	54.1992	73.3179	54.1992	73.5	54.1992	73.3047	54.1992	73.5005	54.1992	73.2999	54.1992	73.5034	54.1992	73.3039	54.1992	73.5079	54.1992	73.3164	54.1992	73.5124	54.1992	73.3364	54.1992	73.5149	54.1992	73.3621	54.1992	73.5135	54.1992	73.3912	54.1992	73.5066	54.1992	73.4211	54.1992	73.4935	54.1992	73.4494	54.1992	73.4741
55.6641	74.0834	55.6641	74.0957	55.6641	74.0617	55.6641	74.0987	55.6641	74.0312	55.6641	74.0928	55.6641	73.9931	55.6641	74.0789	55.6641	73.949	55.6641	74.0582	55.6641	73.9012	55.6641	74.0324	55.6641	73.8524	55.6641	74.0034	55.6641	73.8053	55.6641	73.9733	55.6641	73.7626	55.6641	73.9442	55.6641	73.7264	55.6641	73.9182	55.6641	73.6983	55.6641	73.8965	55.6641	73.6796	55.6641	73.8794	55.6641	73.6711	55.6641	73.8659	55.6641	73.6728	55.6641	73.8541	55.6641	73.6842	55.6641	73.8414	55.6641	73.7035	55.6641	73.8257	55.6641	73.7281	55.6641	73.8058	55.6641	73.7552	55.6641	73.7819
58.5938	75.4188	58.5938	75.3969	58.5938	75.4208	58.5938	75.3553	58.5938	75.4034	58.5938	75.2953	58.5938	75.3677	58.5938	75.219	58.5938	75.3156	58.5938	75.129	58.5938	75.2493	58.5938	75.029	58.5938	75.1714	58.5938	74.9227	58.5938	75.0847	58.5938	74.814	58.5938	74.992	58.5938	74.7068	58.5938	74.8963	58.5938	74.6047	58.5938	74.8003	58.5938	74.5109	58.5938	74.7063	58.5938	74.4282	58.5938	74.6163	58.5938	74.3589	58.5938	74.5319	58.5938	74.3047	58.5938	74.4547	58.5938	74.2668	58.5938	74.3864	58.5938	74.2458	58.5938	74.3291	58.5938	74.2421	58.5938	74.2848	58.5938	74.2553
60.0586	75.8434	60.0586	75.8167	60.0586	75.8505	60.0586	75.7708	60.0586	75.8382	60.0586	75.7063	60.0586	75.8069	60.0586	75.6248	60.0586	75.7575	60.0586	75.5283	60.0586	75.6912	60.0586	75.4195	60.0586	75.6094	60.0586	75.3014	60.0586	75.5145	60.0586	75.1777	60.0586	75.4092	60.0586	75.0523	60.0586	75.2972	60.0586	74.9296	60.0586	75.1823	60.0586	74.8139	60.0586	75.0681	60.0586	74.71	60.0586	74.9578	60.0586	74.6219	60.0586	74.8541	60.0586	74.5534	60.0586	74.7591	60.0586	74.507	60.0586	74.6746	60.0586	74.4837	60.0586	74.6025	60.0586	74.4833	60.0586	74.5449	60.0586	74.5044
62.9883	76.4584	62.9883	76.4584	62.9883	76.4406	62.9883	76.4409	62.9883	76.4048	62.9883	76.4068	62.9883	76.3516	62.9883	76.3573	62.9883	76.2821	62.9883	76.2938	62.9883	76.1982	62.9883	76.2178	62.9883	76.1025	62.9883	76.1314	62.9883	75.998	62.9883	76.0367	62.9883	75.8884	62.9883	75.9361	62.9883	75.7777	62.9883	75.8325	62.9883	75.67	62.9883	75.7288	62.9883	75.5691	62.9883	75.6282	62.9883	75.4784	62.9883	75.5342	62.9883	75.4008	62.9883	75.4498	62.9883	75.3382	62.9883	75.378	62.9883	75.2918	62.9883	75.321	62.9883	75.2625	62.9883	75.2802	62.9883	75.2508	62.9883	75.2567
64.4531	76.6286	64.4531	76.6276	64.4531	76.6139	64.4531	76.6112	64.4531	76.5838	64.4531	76.5802	64.4531	76.539	64.4531	76.5356	64.4531	76.4805	64.4531	76.479	64.4531	76.4102	64.4531	76.4122	64.4531	76.3302	64.4531	76.337	64.4531	76.2429	64.4531	76.2557	64.4531	76.1512	64.4531	76.1705	64.4531	76.0583	64.4531	76.0837	64.4531	75.9671	64.4531	75.9975	64.4531	75.8807	64.4531	75.9144	64.4531	75.8022	64.4531	75.8368	64.4531	75.7339	64.4531	75.7668	64.4531	75.6781	64.4531	75.7068	64.4531	75.6363	64.4531	75.6586	64.4531	75.6097	64.4531	75.6238	64.4531	75.5988	64.4531	75.6036
67.3828	77.1655	67.3828	77.1584	67.3828	77.1621	67.3828	77.1409	67.3828	77.1487	67.3828	77.1138	67.3828	77.1259	67.3828	77.0781	67.3828	77.0951	67.3828	77.0354	67.3828	77.0574	67.3828	76.9876	67.3828	77.0146	67.3828	76.937	67.3828	76.9683	67.3828	76.8856	67.3828	76.9201	67.3828	76.8356	67.3828	76.8716	67.3828	76.7886	67.3828	76.8244	67.3828	76.7459	67.3828	76.7798	67.3828	76.7085	67.3828	76.7387	67.3828	76.6767	67.3828	76.7022	67.3828	76.651	67.3828	76.6709	67.3828	76.6312	67.3828	76.6455	67.3828	76.6175	67.3828	76.6265	67.3828	76.61	67.3828	76.6143	67.3828	76.6088
68.8477	77.3746	68.8477	77.3653	68.8477	77.3742	68.8477	77.3466	68.8477	77.3643	68.8477	77.3191	68.8477	77.3458	68.8477	77.284	68.8477	77.3197	68.8477	77.2431	68.8477	77.2875	68.8477	77.1981	68.8477	77.251	68.8477	77.1515	68.8477	77.212	68.8477	77.1053	68.8477	77.1722	68.8477	77.0617	68.8477	77.1335	68.8477	77.0225	68.8477	77.0972	68.8477	76.9892	68.8477	77.0644	68.8477	76.9625	68.8477	77.0356	68.8477	76.9429	68.8477	77.0108	68.8477	76.9303	68.8477	76.9898	68.8477	76.9242	68.8477	76.9721	68.8477	76.9236	68.8477	76.9572	68.8477	76.9275	68.8477	76.9448	68.8477	76.9348
71.7773	78.0664	71.7773	78.0498	71.7773	78.0711	71.7773	78.022	71.7773	78.0641	71.7773	77.984	71.7773	78.0458	71.7773	77.9373	71.7773	78.017	71.7773	77.8838	71.7773	77.9791	71.7773	77.8259	71.7773	77.934	71.7773	77.7661	71.7773	77.8835	71.7773	77.7071	71.7773	77.83	71.7773	77.6515	71.7773	77.7759	71.7773	77.6014	71.7773	77.7236	71.7773	77.5586	71.7773	77.6749	71.7773	77.5242	71.7773	77.6313	71.7773	77.4989	71.7773	77.5937	71.7773	77.4825	71.7773	77.5623	71.7773	77.4743	71.7773	77.5365	71.7773	77.4731	71.7773	77.5158	71.7773	77.4776	71.7773	77.4993	71.7773	77.4865
74.707	78.6956	74.707	78.6861	74.707	78.6942	74.707	78.6657	74.707	78.682	74.707	78.6354	74.707	78.6599	74.707	78.5962	74.707	78.6289	74.707	78.5498	74.707	78.5904	74.707	78.4981	74.707	78.5463	74.707	78.4433	74.707	78.4982	74.707	78.3875	74.707	78.448	74.707	78.3329	74.707	78.3975	74.707	78.2815	74.707	78.3484	74.707	78.2351	74.707	78.3022	74.707	78.1951	74.707	78.2598	74.707	78.1625	74.707	78.2222	74.707	78.1378	74.707	78.1897	74.707	78.121	74.707	78.1626	74.707	78.112	74.707	78.141	74.707	78.11	74.707	78.1249	74.707	78.1145
77.6367	79.2108	77.6367	79.2006	77.6367	79.2092	77.6367	79.1791	77.6367	79.1963	77.6367	79.1471	77.6367	79.173	77.6367	79.1062	77.6367	79.1408	77.6367	79.0583	77.6367	79.1015	77.6367	79.0058	77.6367	79.0571	77.6367	78.9514	77.6367	79.0099	77.6367	78.8979	77.6367	78.9621	77.6367	78.8475	77.6367	78.9156	77.6367	78.8027	77.6367	78.8723	77.6367	78.7648	77.6367	78.8333	77.6367	78.7348	77.6367	78.7993	77.6367	78.7128	77.6367	78.7706	77.6367	78.6983	77.6367	78.7471	77.6367	78.6903	77.6367	78.7282	77.6367	78.6877	77.6367	78.7135	77.6367	78.6892	77.6367	78.7023	77.6367	78.6943
79.1016	79.4912	79.1016	79.4789	79.1016	79.4916	79.1016	79.4551	79.1016	79.4808	79.1016	79.4207	79.1016	79.4597	79.1016	79.3771	79.1016	79.43	79.1016	79.3265	79.1016	79.3935	79.1016	79.2715	79.1016	79.3526	79.1016	79.215	79.1016	79.3095	79.1016	79.1601	79.1016	79.2665	79.1016	79.11	79.1016	79.2257	79.1016	79.0671	79.1016	79.1884	79.1016	79.0334	79.1016	79.1557	79.1016	79.0098	79.1016	79.1278	79.1016	78.9962	79.1016	79.1046	79.1016	78.9916	79.1016	79.0851	79.1016	78.9943	79.1016	79.0685	79.1016	79.0022	79.1016	79.0537	79.1016	79.0134	79.1016	79.0397	79.1016	79.0262
82.0312	80.1847	82.0312	80.1793	82.0312	80.1754	82.0312	80.1595	82.0312	80.1519	82.0312	80.1264	82.0312	80.1153	82.0312	80.0816	82.0312	80.0674	82.0312	80.0271	82.0312	80.0108	82.0312	79.9654	82.0312	79.9485	82.0312	79.8994	82.0312	79.8836	82.0312	79.8321	82.0312	79.8196	82.0312	79.7665	82.0312	79.7595	82.0312	79.7056	82.0312	79.7057	82.0312	79.6518	82.0312	79.66	82.0312	79.607	82.0312	79.6231	82.0312	79.5724	82.0312	79.5946	82.0312	79.5482	82.0312	79.5734	82.0312	79.5336	82.0312	79.5579	82.0312	79.5272	82.0312	79.5463	82.0312	79.5269	82.0312	79.5375	82.0312	79.5308
84.9609	80.5185	84.9609	80.5162	84.9609	80.5121	84.9609	80.5056	84.9609	80.4972	84.9609	80.4876	84.9609	80.4743	84.9609	80.4634	84.9609	80.4442	84.9609	80.4343	84.9609	80.4086	84.9609	80.4019	84.9609	80.369	84.9609	80.3677	84.9609	80.3272	84.9609	80.3328	84.9609	80.2852	84.9609	80.2985	84.9609	80.2447	84.9609	80.2656	84.9609	80.2073	84.9609	80.2346	84.9609	80.1745	84.9609	80.2062	84.9609	80.1473	84.9609	80.1807	84.9609	80.1264	84.9609	80.1584	84.9609	80.1119	84.9609	80.1398	84.9609	80.1034	84.9609	80.1248	84.9609	80.0999	84.9609	80.1134	84.9609	80.1008	84.9609	80.1054
87.8906	81.009	87.8906	80.9935	87.8906	81.0091	87.8906	80.9632	87.8906	80.9943	87.8906	80.9201	87.8906	80.9663	87.8906	80.867	87.8906	80.9275	87.8906	80.8077	87.8906	80.8815	87.8906	80.7463	87.8906	80.8318	87.8906	80.6874	87.8906	80.7824	87.8906	80.635	87.8906	80.7365	87.8906	80.5923	87.8906	80.6969	87.8906	80.5612	87.8906	80.6651	87.8906	80.5421	87.8906	80.6418	87.8906	80.5341	87.8906	80.6263	87.8906	80.5352	87.8906	80.617	87.8906	80.5429	87.8906	80.612	87.8906	80.5546	87.8906	80.6088	87.8906	80.5679	87.8906	80.6052	87.8906	80.5807	87.8906	80.5998	87.8906	80.5916
90.8203	81.4535	90.8203	81.4363	90.8203	81.4552	90.8203	81.4037	90.8203	81.442	90.8203	81.3572	90.8203	81.4157	90.8203	81.2991	90.8203	81.3789	90.8203	81.2326	90.8203	81.335	90.8203	81.1622	90.8203	81.2877	90.8203	81.0925	90.8203	81.2411	90.8203	81.0288	90.8203	81.1986	90.8203	80.9756	90.8203	81.1631	90.8203	80.9369	90.8203	81.1364	90.8203	80.9145	90.8203	81.1186	90.8203	80.9084	90.8203	81.1085	90.8203	80.9168	90.8203	81.1037	90.8203	80.9364	90.8203	81.1008	90.8203	80.9633	90.8203	81.0962	90.8203	80.9936	90.8203	81.0873	90.8203	81.0237	90.8203	81.0722	90.8203	81.0506
95.2148	82.5792	95.2148	82.6029	95.2148	82.5314	95.2148	82.6016	95.2148	82.461	95.2148	82.5754	95.2148	82.3703	95.2148	82.5251	95.2148	82.2626	95.2148	82.4525	95.2148	82.1415	95.2148	82.3602	95.2148	82.0116	95.2148	82.2521	95.2148	81.8778	95.2148	82.1327	95.2148	81.7449	95.2148	82.0073	95.2148	81.6179	95.2148	81.881	95.2148	81.5013	95.2148	81.7586	95.2148	81.3991	95.2148	81.6439	95.2148	81.3144	95.2148	81.5394	95.2148	81.2491	95.2148	81.4463	95.2148	81.2038	95.2148	81.3653	95.2148	81.1777	95.2148	81.2972	95.2148	81.1696	95.2148	81.2428	95.2148	81.1783	95.2148	81.2029
98.1445	82.7552	98.1445	82.7676	98.1445	82.7233	98.1445	82.7618	98.1445	82.6712	98.1445	82.7396	98.1445	82.5995	98.1445	82.7035	98.1445	82.51	98.1445	82.6558	98.1445	82.4057	98.1445	82.5989	98.1445	82.2912	98.1445	82.5353	98.1445	82.1724	98.1445	82.4675	98.1445	82.0555	98.1445	82.3978	98.1445	81.9472	98.1445	82.3282	98.1445	81.8531	98.1445	82.2604	98.1445	81.7778	98.1445	82.1952	98.1445	81.7246	98.1445	82.1325	98.1445	81.695	98.1445	82.0714	98.1445	81.6884	98.1445	82.011	98.1445	81.7028	98.1445	81.9505	98.1445	81.7345	98.1445	81.8904	98.1445	81.7791	98.1445	81.8323
101.074	83.0489	101.074	83.0213	101.074	83.0573	101.074	82.976	101.074	83.0454	101.074	82.9153	101.074	83.013	101.074	82.8418	101.074	82.961	101.074	82.7588	101.074	82.8909	101.074	82.6699	101.074	82.806	101.074	82.5785	101.074	82.7105	101.074	82.4881	101.074	82.6102	101.074	82.4023	101.074	82.511	101.074	82.3241	101.074	82.4191	101.074	82.2568	101.074	82.3392	101.074	82.2031	101.074	82.2746	101.074	82.1648	101.074	82.2261	101.074	82.142	101.074	82.193	101.074	82.1327	101.074	82.1723	101.074	82.133	101.074	82.1601	101.074	82.1385	101.074	82.1522	101.074	82.1454
105.469	83.3345	105.469	83.3011	105.469	83.3534	105.469	83.2545	105.469	83.3572	105.469	83.197	105.469	83.3464	105.469	83.1319	105.469	83.3222	105.469	83.0626	105.469	83.2864	105.469	82.9931	105.469	83.2413	105.469	82.9265	105.469	83.1898	105.469	82.8659	105.469	83.1346	105.469	82.813	105.469	83.0787	105.469	82.7688	105.469	83.0246	105.469	82.7337	105.469	82.974	105.469	82.7079	105.469	82.9279	105.469	82.6912	105.469	82.8863	105.469	82.6835	105.469	82.8488	105.469	82.6844	105.469	82.8147	105.469	82.6933	105.469	82.7836	105.469	82.709	105.469	82.7553	105.469	82.7301
108.398	83.7626	108.398	83.7488	108.398	83.7576	108.398	83.7164	108.398	83.7345	108.398	83.6671	108.398	83.6951	108.398	83.6034	108.398	83.6417	108.398	83.5291	108.398	83.5772	108.398	83.4491	108.398	83.5051	108.398	83.3684	108.398	83.4293	108.398	83.292	108.398	83.3537	108.398	83.2241	108.398	83.2821	108.398	83.1676	108.398	83.2176	108.398	83.1238	108.398	83.1627	108.398	83.0923	108.398	83.1184	108.398	83.0715	108.398	83.0852	108.398	83.0587	108.398	83.0622	108.398	83.0511	108.398	83.0481	108.398	83.0463	108.398	83.0411	108.398	83.0428	108.398	83.0391	108.398	83.0402
112.793	83.9815	112.793	83.9684	112.793	83.9769	112.793	83.9381	112.793	83.9556	112.793	83.892	112.793	83.9193	112.793	83.833	112.793	83.8706	112.793	83.7649	112.793	83.8128	112.793	83.6921	112.793	83.7495	112.793	83.6194	112.793	83.6848	112.793	83.551	112.793	83.6225	112.793	83.4902	112.793	83.5663	112.793	83.4395	112.793	83.5188	112.793	83.4002	112.793	83.4815	112.793	83.3727	112.793	83.4546	112.793	83.3572	112.793	83.4369	112.793	83.3526	112.793	83.426	112.793	83.357	112.793	83.4189	112.793	83.3675	112.793	83.4126	112.793	83.3808	112.793	83.4046	112.793	83.3939
117.188	84.2939	117.188	84.2924	117.188	84.2706	117.188	84.2652	117.188	84.2255	117.188	84.2133	117.188	84.1631	117.188	84.1402	117.188	84.0892	117.188	84.0513	117.188	84.0108	117.188	83.9546	117.188	83.9352	117.188	83.8597	117.188	83.8695	117.188	83.7768	117.188	83.8195	117.188	83.715	117.188	83.7895	117.188	83.6806	117.188	83.781	117.188	83.6758	117.188	83.7926	117.188	83.6983	117.188	83.8207	117.188	83.7418	117.188	83.8592	117.188	83.798	117.188	83.9015	117.188	83.8577	117.188	83.9404	117.188	83.912	117.188	83.9694	117.188	83.9538	117.188	83.9831	117.188	83.9782
120.117	84.7659	120.117	84.7791	120.117	84.722	120.117	84.7611	120.117	84.6493	120.117	84.7132	120.117	84.5512	120.117	84.6383	120.117	84.4331	120.117	84.541	120.117	84.3018	120.117	84.4278	120.117	84.1654	120.117	84.3066	120.117	84.033	120.117	84.1865	120.117	83.9133	120.117	84.0768	120.117	83.8141	120.117	83.9853	120.117	83.7409	120.117	83.9174	120.117	83.6959	120.117	83.874	120.117	83.6781	120.117	83.8524	120.117	83.6834	120.117	83.8464	120.117	83.7058	120.117	83.8482	120.117	83.7384	120.117	83.8498	120.117	83.7741	120.117	83.8453	120.117	83.8066	120.117	83.8311
124.512	84.8912	124.512	84.9072	124.512	84.8481	124.512	84.8967	124.512	84.7781	124.512	84.8611	124.512	84.6823	124.512	84.8027	124.512	84.5635	124.512	84.7245	124.512	84.4253	124.512	84.6302	124.512	84.2736	124.512	84.5241	124.512	84.1156	124.512	84.411	124.512	83.96	124.512	84.296	124.512	83.816	124.512	84.1837	124.512	83.6925	124.512	84.0784	124.512	83.5962	124.512	83.9833	124.512	83.5306	124.512	83.8999	124.512	83.4957	124.512	83.8282	124.512	83.488	124.512	83.7663	124.512	83.5019	124.512	83.7116	124.512	83.5311	124.512	83.6615	124.512	83.57	124.512	83.6142
128.906	84.929	128.906	84.9115	128.906	84.922	128.906	84.8712	128.906	84.8898	128.906	84.8108	128.906	84.8328	128.906	84.7339	128.906	84.7528	128.906	84.6449	128.906	84.6531	128.906	84.549	128.906	84.5383	128.906	84.4518	128.906	84.4145	128.906	84.3587	128.906	84.2889	128.906	84.2742	128.906	84.1696	128.906	84.2014	128.906	84.0643	128.906	84.1416	128.906	83.9794	128.906	84.0942	128.906	83.919	128.906	84.0575	128.906	83.8838	128.906	84.0287	128.906	83.871	128.906	84.0048	128.906	83.8758	128.906	83.9831	128.906	83.8922	128.906	83.9612	128.906	83.9143	128.906	83.9381
133.301	85.0262	133.301	85.0022	133.301	85.0276	133.301	84.957	133.301	85.0058	133.301	84.8922	133.301	84.961	133.301	84.81	133.301	84.8943	133.301	84.7132	133.301	84.8076	133.301	84.605	133.301	84.7041	133.301	84.4897	133.301	84.5875	133.301	84.372	133.301	84.4626	133.301	84.2573	133.301	84.3348	133.301	84.1505	133.301	84.2102	133.301	84.0558	133.301	84.095	133.301	83.9758	133.301	83.9946	133.301	83.9115	133.301	83.9128	133.301	83.8621	133.301	83.8515	133.301	83.8259	133.301	83.8099	133.301	83.8005	133.301	83.7856	133.301	83.7839	133.301	83.7751	133.301	83.7753
139.16	84.5463	139.16	84.5175	139.16	84.5496	139.16	84.465	139.16	84.5282	139.16	84.3929	139.16	84.485	139.16	84.3075	139.16	84.4253	139.16	84.2167	139.16	84.3559	139.16	84.1294	139.16	84.2846	139.16	84.0542	139.16	84.2194	139.16	83.9985	139.16	84.1675	139.16	83.9676	139.16	84.1338	139.16	83.9636	139.16	84.1209	139.16	83.9851	139.16	84.1281	139.16	84.0279	139.16	84.1523	139.16	84.0853	139.16	84.1887	139.16	84.1494	139.16	84.2309	139.16	84.212	139.16	84.2718	139.16	84.2656	139.16	84.3047	139.16	84.3041	139.16	84.3234	139.16	84.3238
143.555	84.6135	143.555	84.5964	143.555	84.6008	143.555	84.5502	143.555	84.5599	143.555	84.4771	143.555	84.4941	143.555	84.3818	143.555	84.4086	143.555	84.2711	143.555	84.3105	143.555	84.1536	143.555	84.2086	143.555	84.0397	143.555	84.1134	143.555	83.9401	143.555	84.0354	143.555	83.8649	143.555	83.9834	143.555	83.8219	143.555	83.9629	143.555	83.8144	143.555	83.9738	143.555	83.8408	143.555	84.011	143.555	83.895	143.555	84.065	143.555	83.9669	143.555	84.1242	143.555	84.0453	143.555	84.177	143.555	84.1189	143.555	84.2138	143.555	84.178	143.555	84.2277	143.555	84.2157
147.949	84.6623	147.949	84.6506	147.949	84.6392	147.949	84.6042	147.949	84.5828	147.949	84.5252	147.949	84.496	147.949	84.4178	147.949	84.3829	147.949	84.2878	147.949	84.249	147.949	84.143	147.949	84.1008	147.949	83.9922	147.949	83.9465	147.949	83.8448	147.949	83.7953	147.949	83.7095	147.949	83.657	147.949	83.5937	147.949	83.5404	147.949	83.5022	147.949	83.4515	147.949	83.4366	147.949	83.3922	147.949	83.3951	147.949	83.3602	147.949	83.3736	147.949	83.3494	147.949	83.3662	147.949	83.352	147.949	83.3668	147.949	83.36	147.949	83.3698	147.949	83.3674	147.949	83.3707
153.809	84.0854	153.809	84.075	153.809	84.063	153.809	84.0324	153.809	84.0092	153.809	83.9598	153.809	83.9264	153.809	83.8615	153.809	83.8187	153.809	83.7438	153.809	83.6911	153.809	83.6147	153.809	83.5501	153.809	83.4836	153.809	83.4035	153.809	83.3601	153.809	83.26	153.809	83.2531	153.809	83.1286	153.809	83.169	153.809	83.0173	153.809	83.1101	153.809	82.9316	153.809	83.0745	153.809	82.8741	153.809	83.0558	153.809	82.8444	153.809	83.0454	153.809	82.8394	153.809	83.0346	153.809	82.8544	153.809	83.0174	153.809	82.8834	153.809	82.9915	153.809	82.92	153.809	82.9578
159.668	83.7632	159.668	83.7568	159.668	83.734	159.668	83.714	159.668	83.6712	159.668	83.6365	159.668	83.5786	159.668	83.5278	159.668	83.4611	159.668	83.3942	159.668	83.3245	159.668	83.2445	159.668	83.1757	159.668	83.0896	159.668	83.0225	159.668	82.9418	159.668	82.874	159.668	82.8129	159.668	82.74	159.668	82.7127	159.668	82.6302	159.668	82.6473	159.668	82.5525	159.668	82.617	159.668	82.5106	159.668	82.6166	159.668	82.5031	159.668	82.6358	159.668	82.5236	159.668	82.6619	159.668	82.5623	159.668	82.6829	159.668	82.6078	159.668	82.6898	159.668	82.6494	159.668	82.6785
165.527	83.2169	165.527	83.2233	165.527	83.1786	165.527	83.1981	165.527	83.1093	165.527	83.1429	165.527	83.0117	165.527	83.0601	165.527	82.8908	165.527	82.9539	165.527	82.7534	165.527	82.8303	165.527	82.6086	165.527	82.6973	165.527	82.4666	165.527	82.5645	165.527	82.3378	165.527	82.4423	165.527	82.2316	165.527	82.34	165.527	82.1551	165.527	82.2646	165.527	82.1119	165.527	82.2192	165.527	82.1012	165.527	82.2028	165.527	82.1176	165.527	82.2096	165.527	82.1526	165.527	82.2306	165.527	82.1955	165.527	82.2553	165.527	82.236	165.527	82.2736	165.527	82.2652	165.527	82.2781
171.387	82.6319	171.387	82.6312	171.387	82.5981	171.387	82.5974	171.387	82.53	171.387	82.5332	171.387	82.4301	171.387	82.4421	171.387	82.3034	171.387	82.329	171.387	82.1578	171.387	82.1998	171.387	82.0037	171.387	82.062	171.387	81.853	171.387	81.9245	171.387	81.7184	171.387	81.7966	171.387	81.6111	171.387	81.6877	171.387	81.5391	171.387	81.6056	171.387	81.5046	171.387	81.555	171.387	81.5038	171.387	81.5363	171.387	81.5277	171.387	81.5446	171.387	81.5649	171.387	81.5709	171.387	81.6038	171.387	81.6041	171.387	81.6348	171.387	81.6335	171.387	81.6515	171.387	81.6508
177.246	82.0767	177.246	82.0759	177.246	82.037	177.246	82.0359	177.246	81.9583	177.246	81.9598	177.246	81.8447	177.246	81.8531	177.246	81.703	177.246	81.7235	177.246	81.5429	177.246	81.5812	177.246	81.3761	177.246	81.4389	177.246	81.2156	177.246	81.3102	177.246	81.0746	177.246	81.2074	177.246	80.9653	177.246	81.1385	177.246	80.8967	177.246	81.106	177.246	80.8725	177.246	81.106	177.246	80.8906	177.246	81.1303	177.246	80.9421	177.246	81.1681	177.246	81.0141	177.246	81.208	177.246	81.0923	177.246	81.2397	177.246	81.1633	177.246	81.255	177.246	81.2172	177.246	81.2482
183.105	81.7591	183.105	81.76	183.105	81.7167	183.105	81.7205	183.105	81.6334	183.105	81.6435	183.105	81.5123	183.105	81.5335	183.105	81.3587	183.105	81.3965	183.105	81.1799	183.105	81.2412	183.105	80.9856	183.105	81.0789	183.105	80.7876	183.105	80.9234	183.105	80.6007	183.105	80.7898	183.105	80.4414	183.105	80.691	183.105	80.3259	183.105	80.6352	183.105	80.2662	183.105	80.6235	183.105	80.2662	183.105	80.6486	183.105	80.3202	183.105	80.6967	183.105	80.4131	183.105	80.7502	183.105	80.5252	183.105	80.7915	183.105	80.6355	183.105	80.806	183.105	80.7263	183.105	80.7849
188.965	81.1137	188.965	81.1108	188.965	81.0732	188.965	81.0657	188.965	80.9918	188.965	80.9821	188.965	80.8757	188.965	80.8653	188.965	80.7344	188.965	80.7217	188.965	80.5787	188.965	80.5601	188.965	80.4191	188.965	80.3916	188.965	80.264	188.965	80.2307	188.965	80.1203	188.965	80.0933	188.965	79.9945	188.965	79.994	188.965	79.8943	188.965	79.9426	188.965	79.8278	188.965	79.9407	188.965	79.8011	188.965	79.98	188.965	79.8158	188.965	80.0439	188.965	79.8668	188.965	80.1108	188.965	79.9426	188.965	80.1604	188.965	80.0276	188.965	80.1782	188.965	80.1048	188.965	80.1585
196.289	80.8204	196.289	80.7834	196.289	80.8049	196.289	80.6985	196.289	80.7355	196.289	80.5722	196.289	80.615	196.289	80.4116	196.289	80.4516	196.289	80.2246	196.289	80.2589	196.289	80.0203	196.289	80.0554	196.289	79.8104	196.289	79.8622	196.289	79.6107	196.289	79.6997	196.289	79.4399	196.289	79.584	196.289	79.3176	196.289	79.5248	196.289	79.2602	196.289	79.5238	196.289	79.2755	196.289	79.575	196.289	79.3597	196.289	79.6657	196.289	79.4957	196.289	79.7776	196.289	79.6569	196.289	79.8885	196.289	79.8129	196.289	79.976	196.289	79.9364	196.289	80.0203	196.289	80.0082
203.613	80.3198	203.613	80.3161	203.613	80.2682	203.613	80.2584	203.613	80.165	203.613	80.153	203.613	80.0189	203.613	80.0099	203.613	79.8418	203.613	79.8413	203.613	79.6466	203.613	79.6603	203.613	79.4463	203.613	79.48	203.613	79.2524	203.613	79.3129	203.613	79.0757	203.613	79.1689	203.613	78.9264	203.613	79.0549	203.613	78.8136	203.613	78.9739	203.613	78.7431	203.613	78.9261	203.613	78.7158	203.613	78.9084	203.613	78.7264	203.613	78.9147	203.613	78.7649	203.613	78.9348	203.613	78.8193	203.613	78.9561	203.613	78.8767	203.613	78.9661	203.613	78.9254	203.613	78.9567
210.938	79.8334	210.938	79.8016	210.938	79.806	210.938	79.7135	210.938	79.7212	210.938	79.5761	210.938	79.586	210.938	79.3995	210.938	79.4122	210.938	79.1954	210.938	79.2161	210.938	78.9773	210.938	79.0168	210.938	78.7596	210.938	78.8343	210.938	78.5581	210.938	78.6862	210.938	78.3885	210.938	78.5847	210.938	78.2637	210.938	78.5343	210.938	78.1919	210.938	78.5312	210.938	78.1749	210.938	78.564	210.938	78.2088	210.938	78.6165	210.938	78.2839	210.938	78.6714	210.938	78.3855	210.938	78.7138	210.938	78.4955	210.938	78.7324	210.938	78.5964	210.938	78.72	210.938	78.674
218.262	79.4356	218.262	79.4024	218.262	79.4028	218.262	79.3056	218.262	79.3063	218.262	79.1525	218.262	79.153	218.262	78.9544	218.262	78.9552	218.262	78.726	218.262	78.7297	218.262	78.4853	218.262	78.4981	218.262	78.2526	218.262	78.2857	218.262	78.0491	218.262	78.1179	218.262	77.895	218.262	78.0161	218.262	77.8056	218.262	77.9913	218.262	77.7886	218.262	78.0406	218.262	77.843	218.262	78.1477	218.262	77.9583	218.262	78.2874	218.262	78.1156	218.262	78.4322	218.262	78.2896	218.262	78.5581	218.262	78.4534	218.262	78.6462	218.262	78.5832	218.262	78.6834	218.262	78.6625
225.586	79.2865	225.586	79.2664	225.586	79.2378	225.586	79.1803	225.586	79.1218	225.586	79.0346	225.586	78.9448	225.586	78.8392	225.586	78.718	225.586	78.6071	225.586	78.4581	225.586	78.3546	225.586	78.1877	225.586	78.1017	225.586	77.9337	225.586	77.871	225.586	77.7252	225.586	77.6841	225.586	77.588	225.586	77.5564	225.586	77.5377	225.586	77.4945	225.586	77.5738	225.586	77.497	225.586	77.6785	225.586	77.5579	225.586	77.8223	225.586	77.6667	225.586	77.9721	225.586	77.8068	225.586	78.0994	225.586	77.9555	225.586	78.1831	225.586	78.0865	225.586	78.2102	225.586	78.1764
232.91	79.045	232.91	79.0386	232.91	78.9877	232.91	78.9694	232.91	78.8681	232.91	78.8413	232.91	78.688	232.91	78.6628	232.91	78.4515	232.91	78.4461	232.91	78.1675	232.91	78.2062	232.91	77.8544	232.91	77.9611	232.91	77.5418	232.91	77.732	232.91	77.268	232.91	77.5412	232.91	77.0713	232.91	77.4062	232.91	76.9762	232.91	77.3336	232.91	76.9829	232.91	77.3163	232.91	77.0677	232.91	77.339	232.91	77.1939	232.91	77.3852	232.91	77.3264	232.91	77.4416	232.91	77.4397	232.91	77.4977	232.91	77.52	232.91	77.5433	232.91	77.5623	232.91	77.568
241.699	78.47	241.699	78.3991	241.699	78.4973	241.699	78.2881	241.699	78.4775	241.699	78.1419	241.699	78.4051	241.699	77.9689	241.699	78.274	241.699	77.7799	241.699	78.0802	241.699	77.5872	241.699	77.8268	241.699	77.4032	241.699	77.5279	241.699	77.2418	241.699	77.2113	241.699	77.1166	241.699	76.9167	241.699	77.0379	241.699	76.687	241.699	77.0073	241.699	76.5532	241.699	77.0152	241.699	76.5213	241.699	77.0449	241.699	76.5719	241.699	77.0792	241.699	76.6721	241.699	77.105	241.699	76.7902	241.699	77.114	241.699	76.9027	241.699	77.101	241.699	76.9956	241.699	77.0622
250.488	78.7627	250.488	78.7206	250.488	78.7369	250.488	78.6041	250.488	78.6501	250.488	78.4118	250.488	78.5066	250.488	78.1511	250.488	78.3075	250.488	77.8384	250.488	78.0546	250.488	77.4976	250.488	77.7546	250.488	77.1557	250.488	77.424	250.488	76.8422	250.488	77.0899	250.488	76.5875	250.488	76.7877	250.488	76.4195	250.488	76.5531	250.488	76.3536	250.488	76.4116	250.488	76.3836	250.488	76.3688	250.488	76.4809	250.488	76.4082	250.488	76.6061	250.488	76.4994	250.488	76.7228	250.488	76.6101	250.488	76.8068	250.488	76.7146	250.488	76.8469	250.488	76.7954	250.488	76.8418
259.277	78.7045	259.277	78.6592	259.277	78.6945	259.277	78.5595	259.277	78.6257	259.277	78.4052	259.277	78.4935	259.277	78.1966	259.277	78.2951	259.277	77.9386	259.277	78.0314	259.277	77.6414	259.277	77.7105	259.277	77.3213	259.277	77.3507	259.277	76.9995	259.277	76.981	259.277	76.7029	259.277	76.6393	259.277	76.4631	259.277	76.3651	259.277	76.3103	259.277	76.1899	259.277	76.262	259.277	76.1295	259.277	76.3133	259.277	76.179	259.277	76.4355	259.277	76.3119	259.277	76.5865	259.277	76.4861	259.277	76.7239	259.277	76.6551	259.277	76.8139	259.277	76.7796	259.277	76.8351
268.066	78.38	268.066	78.3089	268.066	78.407	268.066	78.1931	268.066	78.3847	268.066	78.0283	268.066	78.3026	268.066	77.8122	268.066	78.1496	268.066	77.5504	268.066	77.9183	268.066	77.2584	268.066	77.6109	268.066	76.9594	268.066	77.2457	268.066	76.6783	268.066	76.859	268.066	76.4361	268.066	76.5019	268.066	76.2449	268.066	76.2243	268.066	76.1077	268.066	76.0544	268.066	76.0214	268.066	75.9889	268.066	75.9826	268.066	76.0014	268.066	75.989	268.066	76.0598	268.066	76.0359	268.066	76.1357	268.066	76.1091	268.066	76.2038	268.066	76.1845	268.066	76.2417	268.066	76.2348
276.855	78.5582	276.855	78.503	276.855	78.5285	276.855	78.3748	276.855	78.4117	276.855	78.1879	276.855	78.2181	276.855	77.9526	276.855	77.9684	276.855	77.674	276.855	77.6844	276.855	77.3557	276.855	77.3809	276.855	77.0073	276.855	77.0624	276.855	76.6523	276.855	76.7284	276.855	76.3325	276.855	76.3868	276.855	76.0985	276.855	76.0631	276.855	75.9856	276.855	75.7988	276.855	75.9917	276.855	75.6329	276.855	76.0756	276.855	75.5799	276.855	76.1797	276.855	75.6237	276.855	76.2543	276.855	75.7306	276.855	76.272	276.855	75.8673	276.855	76.2285	276.855	76.0085	276.855	76.1349
287.109	78.0493	287.109	77.9988	287.109	78.0392	287.109	77.8987	287.109	77.9594	287.109	77.756	287.109	77.8074	287.109	77.5716	287.109	77.5904	287.109	77.3433	287.109	77.3257	287.109	77.0699	287.109	77.0395	287.109	76.7563	287.109	76.7636	287.109	76.418	287.109	76.5275	287.109	76.087	287.109	76.349	287.109	75.8124	287.109	76.2323	287.109	75.6476	287.109	76.175	287.109	75.6226	287.109	76.1757	287.109	75.7237	287.109	76.2312	287.109	75.902	287.109	76.3258	287.109	76.1023	287.109	76.4295	287.109	76.2838	287.109	76.5087	287.109	76.4237	287.109	76.5391	287.109	76.5107
297.363	78.0566	297.363	77.9828	297.363	78.0398	297.363	77.8401	297.363	77.9223	297.363	77.6545	297.363	77.709	297.363	77.4496	297.363	77.4173	297.363	77.2406	297.363	77.0715	297.363	77.0294	297.363	76.6996	297.363	76.8042	297.363	76.3344	297.363	76.5455	297.363	76.0147	297.363	76.2416	297.363	75.7748	297.363	75.9079	297.363	75.6292	297.363	75.5979	297.363	75.5668	297.363	75.3912	297.363	75.5642	297.363	75.3526	297.363	75.6052	297.363	75.4837	297.363	75.6851	297.363	75.7139	297.363	75.8006	297.363	75.9422	297.363	75.9361	297.363	76.0891	297.363	76.0586	297.363	76.1231
307.617	76.8404	307.617	76.7787	307.617	76.802	307.617	76.621	307.617	76.6765	307.617	76.3869	307.617	76.4945	307.617	76.1125	307.617	76.2978	307.617	75.8524	307.617	76.1284	307.617	75.6733	307.617	76.015	307.617	75.6285	307.617	75.9676	307.617	75.7249	307.617	75.9793	307.617	75.9165	307.617	76.0309	307.617	76.1332	307.617	76.0969	307.617	76.3146	307.617	76.1519	307.617	76.4254	307.617	76.1816	307.617	76.4571	307.617	76.189	307.617	76.4253	307.617	76.1902	307.617	76.3626	307.617	76.1993	307.617	76.3036	307.617	76.2173	307.617	76.267	307.617	76.2355	307.617	76.2492
319.336	77.199	319.336	77.0854	319.336	77.1313	319.336	76.8146	319.336	76.8659	319.336	76.4099	319.336	76.4037	319.336	75.8896	319.336	75.7741	319.336	75.2734	319.336	75.052	319.336	74.6037	319.336	74.3748	319.336	73.9821	319.336	73.9346	319.336	73.5875	319.336	73.8962	319.336	73.6101	319.336	74.2737	319.336	74.0981	319.336	74.9209	319.336	74.9072	319.336	75.6537	319.336	75.8254	319.336	76.3473	319.336	76.6924	319.336	76.9485	319.336	77.421	319.336	77.4508	319.336	77.9746	319.336	77.8639	319.336	78.3434	319.336	78.1936	319.336	78.5314	319.336	78.4307	319.336	78.5527
329.59	78.4807	329.59	78.4154	329.59	78.4128	329.59	78.2193	329.59	78.2078	329.59	77.8906	329.59	77.8616	329.59	77.4234	329.59	77.3706	329.59	76.8117	329.59	76.7343	329.59	76.0618	329.59	75.9642	329.59	75.2108	329.59	75.1059	329.59	74.35	329.59	74.2752	329.59	73.638	329.59	73.674	329.59	73.2681	329.59	73.5081	329.59	73.364	329.59	73.8119	329.59	73.886	329.59	74.4138	329.59	74.6648	329.59	75.1043	329.59	75.5099	329.59	75.7595	329.59	76.2725	329.59	76.3333	329.59	76.8531	329.59	76.8041	329.59	77.1955	329.59	77.1375	329.59	77.2834
341.309	78.1007	341.309	78.0732	341.309	78.0015	341.309	77.9133	341.309	77.782	341.309	77.6204	341.309	77.4436	341.309	77.1999	341.309	76.9818	341.309	76.6609	341.309	76.3927	341.309	76.017	341.309	75.6876	341.309	75.2938	341.309	74.9114	341.309	74.5477	341.309	74.1593	341.309	73.8829	341.309	73.5761	341.309	73.4423	341.309	73.3079	341.309	73.3399	341.309	73.4117	341.309	73.5795	341.309	73.8103	341.309	74.0543	341.309	74.3548	341.309	74.6226	341.309	74.9133	341.309	75.1682	341.309	75.402	341.309	75.6138	341.309	75.772	341.309	75.913	341.309	75.9919	341.309	76.0414
353.027	78.1622	353.027	78.1438	353.027	78.0778	353.027	78.0093	353.027	77.9033	353.027	77.7484	353.027	77.6448	353.027	77.3542	353.027	77.2941	353.027	76.8269	353.027	76.8278	353.027	76.1787	353.027	76.2162	353.027	75.4403	353.027	75.4453	353.027	74.6671	353.027	74.5503	353.027	73.9465	353.027	73.6564	353.027	73.3993	353.027	72.9873	353.027	73.1542	353.027	72.7589	353.027	73.2814	353.027	73.0032	353.027	73.7314	353.027	73.5644	353.027	74.3571	353.027	74.2527	353.027	74.9955	353.027	74.9254	353.027	75.5236	353.027	75.4805	353.027	75.8647	353.027	75.8451	353.027	75.9771
366.211	78.4226	366.211	78.3413	366.211	78.3736	366.211	78.1276	366.211	78.1994	366.211	77.7819	366.211	77.9047	366.211	77.3031	366.211	77.4912	366.211	76.6872	366.211	76.9607	366.211	75.9337	366.211	76.3186	366.211	75.0598	366.211	75.577	366.211	74.1225	366.211	74.7627	366.211	73.2437	366.211	73.944	366.211	72.6176	366.211	73.2643	366.211	72.4324	366.211	72.9167	366.211	72.7139	366.211	73.0016	366.211	73.2902	366.211	73.419	366.211	73.942	366.211	73.9696	366.211	74.5224	366.211	74.4985	366.211	74.9605	366.211	74.9231	366.211	75.2259	366.211	75.2008	366.211	75.306
379.395	78.5265	379.395	78.5066	379.395	78.4254	379.395	78.3631	379.395	78.2094	379.395	78.0965	379.395	77.8841	379.395	77.709	379.395	77.4494	379.395	77.2027	379.395	76.8995	379.395	76.5819	379.395	76.2324	379.395	75.8598	379.395	75.4673	379.395	75.0686	379.395	74.6623	379.395	74.2695	379.395	73.924	379.395	73.5608	379.395	73.3953	379.395	73.0742	379.395	73.2029	379.395	72.9401	379.395	73.3772	379.395	73.2096	379.395	73.8277	379.395	73.7895	379.395	74.404	379.395	74.4856	379.395	74.9673	379.395	75.1101	379.395	75.4171	379.395	75.5441	379.395	75.6878	379.395	75.7377
392.578	78.5332	392.578	78.4607	392.578	78.4848	392.578	78.2651	392.578	78.3181	392.578	77.9489	392.578	78.0302	392.578	77.5186	392.578	77.612	392.578	76.9803	392.578	77.0506	392.578	76.3392	392.578	76.3348	392.578	75.6088	392.578	75.4634	392.578	74.8299	392.578	74.4672	392.578	74.0899	392.578	73.4514	392.578	73.5193	392.578	72.639	392.578	73.2353	392.578	72.3042	392.578	73.2634	392.578	72.5259	392.578	73.5338	392.578	73.0886	392.578	73.9469	392.578	73.7194	392.578	74.4073	392.578	74.2715	392.578	74.816	392.578	74.7051	392.578	75.0796	392.578	75.0062	392.578	75.1429
405.762	78.8574	405.762	78.7813	405.762	78.8111	405.762	78.5803	405.762	78.6345	405.762	78.2458	405.762	78.3207	405.762	77.7727	405.762	77.8758	405.762	77.1615	405.762	77.3143	405.762	76.4097	405.762	76.6383	405.762	75.5079	405.762	75.8242	405.762	74.4608	405.762	74.8453	405.762	73.3482	405.762	73.7403	405.762	72.414	405.762	72.7179	405.762	72.0293	405.762	72.1803	405.762	72.3344	405.762	72.3985	405.762	73.041	405.762	73.1471	405.762	73.7926	405.762	73.9938	405.762	74.4174	405.762	74.6755	405.762	74.8799	405.762	75.1149	405.762	75.1863	405.762	75.3242	405.762	75.3387
420.41	79.1491	420.41	79.0619	420.41	79.1359	420.41	78.8711	420.41	79.0184	420.41	78.5783	420.41	78.7823	420.41	78.1928	420.41	78.4132	420.41	77.7155	420.41	77.9083	420.41	77.1214	420.41	77.2752	420.41	76.3632	420.41	76.5183	420.41	75.4011	420.41	75.6299	420.41	74.2406	420.41	74.6137	420.41	72.9847	420.41	73.5583	420.41	71.9176	420.41	72.7246	420.41	71.4991	420.41	72.4559	420.41	71.9562	420.41	72.8167	420.41	72.9464	420.41	73.511	420.41	73.9797	420.41	74.2323	420.41	74.7786	420.41	74.8269	420.41	75.2485	420.41	75.2283	420.41	75.3859
435.059	78.8222	435.059	78.8193	435.059	78.7563	435.059	78.7355	435.059	78.6164	435.059	78.5468	435.059	78.3871	435.059	78.2333	435.059	78.0501	435.059	77.7892	435.059	77.5871	435.059	77.2135	435.059	76.9797	435.059	76.4926	435.059	76.2119	435.059	75.5969	435.059	75.2768	435.059	74.5071	435.059	74.1904	435.059	73.2751	435.059	73.0425	435.059	72.1278	435.059	72.0977	435.059	71.5196	435.059	71.7888	435.059	71.808	435.059	72.3016	435.059	72.7752	435.059	73.2884	435.059	73.9029	435.059	74.2977	435.059	74.8402	435.059	75.0849	435.059	75.4458	435.059	75.5585	435.059	75.6842
451.172	79.5558	451.172	79.5614	451.172	79.4842	451.172	79.4815	451.172	79.3404	451.172	79.276	451.172	79.1033	451.172	78.9134	451.172	78.7473	451.172	78.3964	451.172	78.2476	451.172	77.7598	451.172	77.5844	451.172	77.0382	451.172	76.7508	451.172	76.2361	451.172	75.7627	451.172	75.3354	451.172	74.6704	451.172	74.3408	451.172	73.5809	451.172	73.3411	451.172	72.686	451.172	72.5659	451.172	72.2299	451.172	72.3314	451.172	72.3284	451.172	72.7314	451.172	72.8266	451.172	73.455	451.172	73.4514	451.172	74.109	451.172	74.0075	451.172	74.4931	451.172	74.3996	451.172	74.5771
465.82	79.2187	465.82	79.1763	465.82	79.1845	465.82	79.0788	465.82	79.0519	465.82	78.9222	465.82	78.8096	465.82	78.666	465.82	78.4534	465.82	78.257	465.82	77.98	465.82	77.6648	465.82	77.3825	465.82	76.8972	465.82	76.6496	465.82	75.9917	465.82	75.7728	465.82	75.0065	465.82	74.7639	465.82	74.0399	465.82	73.6904	465.82	73.2544	465.82	72.7345	465.82	72.8358	465.82	72.2014	465.82	72.8723	465.82	72.3064	465.82	73.2699	465.82	72.9156	465.82	73.8207	465.82	73.6899	465.82	74.3391	465.82	74.3544	465.82	74.7136	465.82	74.7633	465.82	74.8742
483.398	79.2126	483.398	79.0866	483.398	79.1643	483.398	78.8396	483.398	78.9419	483.398	78.5469	483.398	78.5923	483.398	78.25	483.398	78.1739	483.398	77.9171	483.398	77.7154	483.398	77.457	483.398	77.1989	483.398	76.7772	483.398	76.5745	483.398	75.8429	483.398	75.7919	483.398	74.7084	483.398	74.8319	483.398	73.5095	483.398	73.7498	483.398	72.4297	483.398	72.7458	483.398	71.6927	483.398	72.1726	483.398	71.5545	483.398	72.2678	483.398	72.1053	483.398	72.8631	483.398	73.0643	483.398	73.6049	483.398	74.0021	483.398	74.2574	483.398	74.6312	483.398	74.7034	483.398	74.8551
499.512	79.4403	499.512	79.3757	499.512	79.3413	499.512	79.1459	499.512	79.1119	499.512	78.7804	499.512	78.7922	499.512	78.3138	499.512	78.3992	499.512	77.7542	499.512	77.9124	499.512	77.0722	499.512	77.2858	499.512	76.2252	499.512	76.4827	499.512	75.2041	499.512	75.513	499.512	74.0805	499.512	74.44	499.512	73.0521	499.512	73.3685	499.512	72.4301	499.512	72.483	499.512	72.4409	499.512	72.1083	499.512	73.0132	499.512	72.4811	499.512	73.8808	499.512	73.3765	499.512	74.7701	499.512	74.344	499.512	75.4643	499.512	75.1156	499.512	75.8393	499.512	75.6277	499.512	75.879
517.09	78.8471	517.09	78.8612	517.09	78.8448	517.09	78.8455	517.09	78.8329	517.09	78.7302	517.09	78.7418	517.09	78.4509	517.09	78.5072	517.09	77.9639	517.09	78.1011	517.09	77.2607	517.09	77.5079	517.09	76.3718	517.09	76.6891	517.09	75.3435	517.09	75.5921	517.09	74.1932	517.09	74.2051	517.09	72.9016	517.09	72.6418	517.09	71.5595	517.09	71.2432	517.09	70.7129	517.09	70.5551	517.09	71.0606	517.09	70.8848	517.09	72.1903	517.09	71.9439	517.09	73.286	517.09	73.203	517.09	74.1041	517.09	74.2444	517.09	74.6712	517.09	74.8433	517.09	74.9564
536.133	79.2592	536.133	79.1824	536.133	79.3059	536.133	79.051	536.133	79.2907	536.133	78.8287	536.133	79.1352	536.133	78.5039	536.133	78.7667	536.133	78.0766	536.133	78.1661	536.133	77.5366	536.133	77.3784	536.133	76.8691	536.133	76.4628	536.133	76.0531	536.133	75.4145	536.133	75.0405	536.133	74.1411	536.133	73.7883	536.133	72.559	536.133	72.3952	536.133	70.873	536.133	71.2557	536.133	69.983	536.133	70.9349	536.133	70.6523	536.133	71.5834	536.133	72.057	536.133	72.7212	536.133	73.2797	536.133	73.7747	536.133	74.0949	536.133	74.4413	536.133	74.5482	536.133	74.6772
555.176	80.5067	555.176	80.4825	555.176	80.4675	555.176	80.4052	555.176	80.3427	555.176	80.2462	555.176	80.1138	555.176	79.9525	555.176	79.7712	555.176	79.5009	555.176	79.3195	555.176	78.913	555.176	78.7688	555.176	78.1934	555.176	78.1068	555.176	77.2716	555.176	77.2838	555.176	76.0436	555.176	76.2249	555.176	74.4897	555.176	74.8667	555.176	72.786	555.176	73.2849	555.176	71.41	555.176	71.9778	555.176	71.0702	555.176	71.6715	555.176	71.9235	555.176	72.2243	555.176	73.2597	555.176	73.0573	555.176	74.4354	555.176	73.9838	555.176	75.1609	555.176	74.835	555.176	75.2964
574.219	81.21	574.219	81.1336	574.219	81.1364	574.219	80.9106	574.219	80.9263	574.219	80.5765	574.219	80.6033	574.219	80.1889	574.219	80.1994	574.219	79.7772	574.219	79.7411	574.219	79.302	574.219	79.2212	574.219	78.6757	574.219	78.5754	574.219	77.8111	574.219	77.7106	574.219	76.6405	574.219	76.5863	574.219	75.1223	574.219	75.2725	574.219	73.3327	574.219	73.8975	574.219	71.6661	574.219	72.6185	574.219	70.939	574.219	71.9053	574.219	71.6526	574.219	72.4316	574.219	73.1221	574.219	73.8395	574.219	74.4775	574.219	75.1314	574.219	75.406	574.219	75.8203	574.219	75.8742
594.727	81.3455	594.727	81.2443	594.727	81.2902	594.727	81.0214	594.727	81.0731	594.727	80.7076	594.727	80.7438	594.727	80.3251	594.727	80.378	594.727	79.8863	594.727	79.9867	594.727	79.3399	594.727	79.4734	594.727	78.5386	594.727	78.7294	594.727	77.3576	594.727	77.7481	594.727	75.8521	594.727	76.5582	594.727	74.2206	594.727	75.0661	594.727	72.6607	594.727	73.1751	594.727	71.632	594.727	71.4139	594.727	72.0032	594.727	71.2361	594.727	73.4747	594.727	72.5884	594.727	74.8826	594.727	74.0696	594.727	75.7584	594.727	75.1306	594.727	76.1162	594.727	75.7678	594.727	76.0874
615.234	81.2532	615.234	81.2797	615.234	81.2101	615.234	81.2134	615.234	81.14	615.234	80.9711	615.234	80.9611	615.234	80.5609	615.234	80.6066	615.234	80.0857	615.234	80.0918	615.234	79.6107	615.234	79.4757	615.234	79.0398	615.234	78.7582	615.234	78.1945	615.234	77.8605	615.234	76.9872	615.234	76.7014	615.234	75.4448	615.234	75.2595	615.234	73.6483	615.234	73.5897	615.234	71.9567	615.234	71.9721	615.234	71.3655	615.234	71.2949	615.234	72.2248	615.234	72.1251	615.234	73.6043	615.234	73.5463	615.234	74.893	615.234	74.8437	615.234	75.817	615.234	75.7824	615.234	76.1461
637.207	81.3787	637.207	81.3284	637.207	81.3139	637.207	81.2066	637.207	81.1214	637.207	81.0289	637.207	80.842	637.207	80.7745	637.207	80.544	637.207	80.4259	637.207	80.2593	637.207	79.9884	637.207	79.9165	637.207	79.4499	637.207	79.3883	637.207	78.7194	637.207	78.592	637.207	77.6675	637.207	77.469	637.207	76.2442	637.207	75.9409	637.207	74.4714	637.207	73.9992	637.207	72.3436	637.207	71.9114	637.207	70.4888	637.207	70.7706	637.207	70.7892	637.207	71.8194	637.207	72.5594	637.207	73.6863	637.207	74.0135	637.207	74.9596	637.207	74.9087	637.207	75.4643	637.207	75.3956
659.18	81.2486	659.18	81.1467	659.18	81.2093	659.18	80.9542	659.18	81.0647	659.18	80.7399	659.18	80.892	659.18	80.5003	659.18	80.7183	659.18	80.1664	659.18	80.491	659.18	79.679	659.18	80.1267	659.18	79.0225	659.18	79.5903	659.18	78.204	659.18	78.8733	659.18	77.185	659.18	77.8621	659.18	75.8164	659.18	76.3237	659.18	73.9706	659.18	74.1625	659.18	72.0491	659.18	71.9534	659.18	71.2593	659.18	71.1121	659.18	72.0681	659.18	71.9097	659.18	73.7421	659.18	73.2213	659.18	75.3847	659.18	74.5145	659.18	76.338	659.18	75.658	659.18	76.3792
682.617	82.0836	682.617	82.0419	682.617	82.0089	682.617	81.8256	682.617	81.8582	682.617	81.5055	682.617	81.6	682.617	81.21	682.617	81.2449	682.617	80.9108	682.617	80.8579	682.617	80.4883	682.617	80.4055	682.617	79.9244	682.617	79.7703	682.617	79.2217	682.617	78.8787	682.617	78.2548	682.617	77.6887	682.617	76.8668	682.617	76.1877	682.617	74.9475	682.617	74.4311	682.617	72.5038	682.617	72.4313	682.617	70.6761	682.617	70.6003	682.617	71.6008	682.617	71.1013	682.617	73.7487	682.617	73.471	682.617	75.3071	682.617	75.2729	682.617	76.0859	682.617	76.1348	682.617	76.3336
707.52	81.3471	707.52	81.3137	707.52	81.3379	707.52	81.2018	707.52	81.2275	707.52	80.9498	707.52	80.9514	707.52	80.5729	707.52	80.5369	707.52	80.1729	707.52	80.1004	707.52	79.8151	707.52	79.7584	707.52	79.4003	707.52	79.4709	707.52	78.7623	707.52	78.9984	707.52	77.7806	707.52	78.1057	707.52	76.2358	707.52	76.7318	707.52	73.9826	707.52	74.8672	707.52	71.5862	707.52	72.5673	707.52	70.2697	707.52	70.6394	707.52	70.5972	707.52	70.9853	707.52	72.2878	707.52	73.0162	707.52	74.145	707.52	74.6914	707.52	75.3498	707.52	75.5945	707.52	75.8153
732.422	81.3956	732.422	81.3611	732.422	81.3471	732.422	81.2785	732.422	81.1215	732.422	81.0631	732.422	80.7537	732.422	80.731	732.422	80.4279	732.422	80.4557	732.422	80.2625	732.422	80.3017	732.422	80.1658	732.422	80.0695	732.422	79.9205	732.422	79.4322	732.422	79.3339	732.422	78.299	732.422	78.3065	732.422	76.924	732.422	76.7373	732.422	75.2439	732.422	74.4103	732.422	72.4772	732.422	71.3985	732.422	68.9819	732.422	69.668	732.422	70.1626	732.422	70.7964	732.422	73.0657	732.422	72.7936	732.422	74.9835	732.422	74.6071	732.422	76.094	732.422	75.85	732.422	76.3787
757.324	82.3892	757.324	82.1295	757.324	82.3518	757.324	81.7483	757.324	82.028	757.324	81.4295	757.324	81.584	757.324	81.2038	757.324	81.182	757.324	80.9505	757.324	80.8288	757.324	80.4589	757.324	80.3582	757.324	79.6983	757.324	79.6774	757.324	78.9149	757.324	78.9371	757.324	78.1255	757.324	78.2529	757.324	77.0275	757.324	77.3921	757.324	75.3605	757.324	75.9448	757.324	72.9598	757.324	73.4308	757.324	70.0261	757.324	69.7012	757.324	68.5007	757.324	69.0361	757.324	70.573	757.324	72.089	757.324	73.3441	757.324	74.3524	757.324	75.2486	757.324	75.6432	757.324	75.9918
785.156	82.2703	785.156	82.3017	785.156	82.0505	785.156	81.9803	785.156	81.6611	785.156	81.3101	785.156	80.9967	785.156	80.6581	785.156	80.1021	785.156	80.3125	785.156	79.2961	785.156	80.0792	785.156	78.8124	785.156	79.6918	785.156	78.4866	785.156	79.0139	785.156	78.0399	785.156	77.9614	785.156	77.3405	785.156	76.5354	785.156	76.303	785.156	74.6682	785.156	74.9147	785.156	71.8025	785.156	73.0865	785.156	68.0286	785.156	70.6548	785.156	67.9711	785.156	70.343	785.156	70.897	785.156	72.997	785.156	73.3928	785.156	74.4054	785.156	75.0812	785.156	74.9502	785.156	75.4565
811.523	82.193	811.523	82.1734	811.523	81.961	811.523	81.7604	811.523	81.6107	811.523	81.0934	811.523	81.0536	811.523	80.4077	811.523	80.3472	811.523	79.8068	811.523	79.9121	811.523	79.3292	811.523	79.9503	811.523	79.0583	811.523	80.0043	811.523	79.0197	811.523	79.5881	811.523	78.7626	811.523	78.7036	811.523	77.5067	811.523	77.55	811.523	74.9048	811.523	76.0047	811.523	71.2217	811.523	73.5273	811.523	67.1806	811.523	69.848	811.523	67.1298	811.523	66.0561	811.523	70.9724	811.523	68.4043	811.523	73.3875	811.523	72.732	811.523	74.2542	811.523	74.5279	811.523	74.61
840.82	81.9885	840.82	81.8476	840.82	81.8564	840.82	81.5035	840.82	81.471	840.82	80.9891	840.82	81.0576	840.82	80.4165	840.82	80.5617	840.82	79.9398	840.82	79.6322	840.82	79.637	840.82	78.6119	840.82	79.4119	840.82	78.2922	840.82	78.9148	840.82	78.1031	840.82	78.0055	840.82	77.5841	840.82	76.9992	840.82	77.069	840.82	76.2372	840.82	76.2644	840.82	75.2043	840.82	74.0081	840.82	72.5218	840.82	70.5948	840.82	67.801	840.82	69.1657	840.82	68.7515	840.82	70.5411	840.82	72.133	840.82	72.1987	840.82	73.5624	840.82	73.38	840.82	73.8125
870.117	82.5551	870.117	82.3998	870.117	82.4431	870.117	82.1401	870.117	81.8742	870.117	81.6163	870.117	80.8873	870.117	80.5405	870.117	79.9771	870.117	79.3044	870.117	79.4616	870.117	78.7866	870.117	78.9707	870.117	78.6551	870.117	78.713	870.117	78.1929	870.117	78.9136	870.117	77.4942	870.117	78.569	870.117	76.5388	870.117	77.4587	870.117	74.5632	870.117	76.1546	870.117	71.1089	870.117	73.7447	870.117	67.2795	870.117	69.5691	870.117	66.6159	870.117	69.3533	870.117	69.9257	870.117	72.9353	870.117	73.8358	870.117	75.7188	870.117	76.4137	870.117	77.1263	870.117	77.3651
900.879	82.8952	900.879	82.6123	900.879	82.7579	900.879	81.9323	900.879	82.272	900.879	81.0958	900.879	81.4751	900.879	80.3116	900.879	80.4516	900.879	79.4828	900.879	79.3713	900.879	78.6219	900.879	78.2956	900.879	78.0274	900.879	77.2162	900.879	77.618	900.879	76.3248	900.879	77.17	900.879	75.7236	900.879	76.3979	900.879	74.9338	900.879	75.1372	900.879	73.6675	900.879	73.425	900.879	71.9907	900.879	70.6363	900.879	68.8977	900.879	67.6525	900.879	66.1436	900.879	69.0649	900.879	68.3652	900.879	72.0612	900.879	70.6975	900.879	73.9984	900.879	72.9736	900.879	74.3086
933.105	82.7651	933.105	82.7276	933.105	82.2773	933.105	82.1403	933.105	81.5899	933.105	81.1825	933.105	80.7583	933.105	80.072	933.105	79.4531	933.105	78.9524	933.105	78.0856	933.105	77.7006	933.105	77.4398	933.105	76.7844	933.105	77.0408	933.105	76.6744	933.105	76.6305	933.105	76.3278	933.105	76.6459	933.105	75.0877	933.105	76.3745	933.105	73.3359	933.105	75.0137	933.105	71.2659	933.105	72.6579	933.105	68.093	933.105	68.7217	933.105	65.3691	933.105	67.4136	933.105	67.9642	933.105	70.8746	933.105	71.0003	933.105	73.523	933.105	73.1138	933.105	74.7326	933.105	74.4886
965.332	82.7948	965.332	82.6363	965.332	82.6992	965.332	82.4329	965.332	82.0445	965.332	81.8291	965.332	80.9889	965.332	80.4702	965.332	80.0144	965.332	78.9019	965.332	79.1432	965.332	78.0257	965.332	78.0084	965.332	77.654	965.332	76.9569	965.332	77.0554	965.332	76.6679	965.332	76.52	965.332	76.4051	965.332	76.5192	965.332	75.6179	965.332	75.7409	965.332	74.7237	965.332	73.3618	965.332	72.7648	965.332	69.8604	965.332	68.3656	965.332	66.6904	965.332	63.0481	965.332	67.7671	965.332	69.3234	965.332	71.6921	965.332	73.0203	965.332	73.8498	965.332	73.8025	965.332	73.9208
1,000.49	82.2022	1,000.49	82.1218	1,000.49	81.9669	1,000.49	81.4866	1,000.49	81.3953	1,000.49	80.3996	1,000.49	80.4632	1,000.49	79.4564	1,000.49	79.2245	1,000.49	78.2674	1,000.49	77.8653	1,000.49	76.6868	1,000.49	76.5177	1,000.49	76.2625	1,000.49	75.2241	1,000.49	76.4743	1,000.49	74.527	1,000.49	75.9647	1,000.49	74.7849	1,000.49	74.9614	1,000.49	74.89	1,000.49	74.1768	1,000.49	73.8571	1,000.49	72.7615	1,000.49	71.9716	1,000.49	69.1149	1,000.49	67.5667	1,000.49	66.2148	1,000.49	58.8836	1,000.49	67.3824	1,000.49	64.2221	1,000.49	70.3494	1,000.49	68.3724	1,000.49	72.1738	1,000.49	71.6544	1,000.49	72.7076
1,035.64	81.1661	1,035.64	80.9743	1,035.64	81.0818	1,035.64	80.7693	1,035.64	80.607	1,035.64	80.1499	1,035.64	79.997	1,035.64	78.7051	1,035.64	79.2449	1,035.64	77.0581	1,035.64	77.903	1,035.64	75.4372	1,035.64	76.1743	1,035.64	74.0021	1,035.64	75.0893	1,035.64	73.5296	1,035.64	74.463	1,035.64	73.7946	1,035.64	74.1076	1,035.64	74.683	1,035.64	74.2316	1,035.64	73.7869	1,035.64	73.8636	1,035.64	71.3238	1,035.64	72.397	1,035.64	68.8262	1,035.64	68.6938	1,035.64	63.1728	1,035.64	60.9563	1,035.64	62.3654	1,035.64	60.513	1,035.64	68.1957	1,035.64	68.8724	1,035.64	70.6732	1,035.64	70.8293	1,035.64	70.7073
1,072.27	80.5623	1,072.27	80.2612	1,072.27	80.355	1,072.27	79.5039	1,072.27	79.8116	1,072.27	78.8548	1,072.27	79.0423	1,072.27	78.2943	1,072.27	77.881	1,072.27	77.0724	1,072.27	76.3318	1,072.27	75.4067	1,072.27	74.5878	1,072.27	73.8388	1,072.27	72.7368	1,072.27	73.6681	1,072.27	71.1857	1,072.27	73.3232	1,072.27	71.0659	1,072.27	72.814	1,072.27	71.7162	1,072.27	73.1487	1,072.27	71.3545	1,072.27	71.7376	1,072.27	70.3978	1,072.27	68.1249	1,072.27	66.9427	1,072.27	64.4587	1,072.27	59.138	1,072.27	64.194	1,072.27	61.5945	1,072.27	68.122	1,072.27	67.2149	1,072.27	70.707	1,072.27	70.2699	1,072.27	71.5343
1,108.89	80.3877	1,108.89	80.094	1,108.89	80.3576	1,108.89	79.7313	1,108.89	79.8226	1,108.89	78.7853	1,108.89	78.8277	1,108.89	76.9967	1,108.89	77.4608	1,108.89	75.2009	1,108.89	75.6391	1,108.89	73.5841	1,108.89	73.6045	1,108.89	71.8735	1,108.89	72.4081	1,108.89	70.178	1,108.89	72.1108	1,108.89	70.5446	1,108.89	72.0238	1,108.89	71.4668	1,108.89	72.0153	1,108.89	71.2378	1,108.89	71.9006	1,108.89	70.6833	1,108.89	70.2691	1,108.89	68.9599	1,108.89	66.9202	1,108.89	62.8773	1,108.89	62.8362	1,108.89	61.5817	1,108.89	58.2083	1,108.89	66.3084	1,108.89	67.2026	1,108.89	69.7912	1,108.89	69.501	1,108.89	70.2664
1,148.44	82.0452	1,148.44	82.053	1,148.44	81.8916	1,148.44	81.5217	1,148.44	81.5954	1,148.44	80.5936	1,148.44	80.7727	1,148.44	79.428	1,148.44	79.5725	1,148.44	77.7547	1,148.44	78.2234	1,148.44	75.4871	1,148.44	76.4643	1,148.44	72.5677	1,148.44	74.4789	1,148.44	71.3516	1,148.44	72.4575	1,148.44	71.1361	1,148.44	70.7127	1,148.44	72.2451	1,148.44	70.2036	1,148.44	73.3644	1,148.44	70.5488	1,148.44	72.257	1,148.44	71.2002	1,148.44	69.1472	1,148.44	69.8178	1,148.44	62.7854	1,148.44	62.93	1,148.44	56.0646	1,148.44	57.0414	1,148.44	66.0004	1,148.44	65.6732	1,148.44	69.696	1,148.44	70.7488	1,148.44	71.3362
1,189.45	83.3913	1,189.45	83.1747	1,189.45	83.2755	1,189.45	82.8711	1,189.45	82.8714	1,189.45	82.3316	1,189.45	82.4028	1,189.45	81.1593	1,189.45	81.5896	1,189.45	79.3818	1,189.45	80.1237	1,189.45	77.4887	1,189.45	78.3516	1,189.45	75.4278	1,189.45	76.4734	1,189.45	73.1031	1,189.45	74.7377	1,189.45	71.7937	1,189.45	73.4965	1,189.45	72.6306	1,189.45	73.3885	1,189.45	73.2685	1,189.45	74.3087	1,189.45	73.3558	1,189.45	74.635	1,189.45	72.1155	1,189.45	72.9389	1,189.45	67.6285	1,189.45	69.0603	1,189.45	64.4304	1,189.45	65.2312	1,189.45	70.0552	1,189.45	69.8726	1,189.45	73.3904	1,189.45	73.9342	1,189.45	74.2545
1,230.47	82.1837	1,230.47	81.7927	1,230.47	82.3651	1,230.47	81.4149	1,230.47	82.1544	1,230.47	81.4947	1,230.47	81.5882	1,230.47	81.0578	1,230.47	80.7143	1,230.47	79.2204	1,230.47	79.4201	1,230.47	77.8968	1,230.47	77.409	1,230.47	76.3911	1,230.47	75.8598	1,230.47	73.2347	1,230.47	74.1082	1,230.47	70.8701	1,230.47	72.1483	1,230.47	70.4604	1,230.47	71.4663	1,230.47	73.2684	1,230.47	69.3423	1,230.47	73.8095	1,230.47	68.3059	1,230.47	71.8831	1,230.47	65.7786	1,230.47	67.4308	1,230.47	57.4301	1,230.47	61.078	1,230.47	57.3757	1,230.47	66.0483	1,230.47	66.7059	1,230.47	70.6465	1,230.47	71.8233	1,230.47	72.622
1,274.41	81.7264	1,274.41	81.378	1,274.41	81.4181	1,274.41	80.743	1,274.41	81.0734	1,274.41	80.0933	1,274.41	80.3862	1,274.41	79.2246	1,274.41	78.8461	1,274.41	78.0993	1,274.41	77.0339	1,274.41	76.3108	1,274.41	74.8655	1,274.41	74.0263	1,274.41	73.3248	1,274.41	72.0151	1,274.41	73.3199	1,274.41	70.6929	1,274.41	72.1953	1,274.41	71.0101	1,274.41	70.9915	1,274.41	72.3914	1,274.41	70.6309	1,274.41	72.9527	1,274.41	70.7337	1,274.41	70.58	1,274.41	68.1685	1,274.41	61.7514	1,274.41	63.0176	1,274.41	55.5266	1,274.41	47.2058	1,274.41	67.0855	1,274.41	65.8112	1,274.41	70.4954	1,274.41	70.9658	1,274.41	71.7468
1,319.82	80.1623	1,319.82	79.9394	1,319.82	80.2636	1,319.82	79.1511	1,319.82	79.888	1,319.82	78.176	1,319.82	78.5029	1,319.82	77.6237	1,319.82	76.9568	1,319.82	76.0966	1,319.82	75.3605	1,319.82	73.3484	1,319.82	73.2524	1,319.82	71.6254	1,319.82	71.7353	1,319.82	69.7334	1,319.82	70.3911	1,319.82	68.235	1,319.82	68.7626	1,319.82	66.4651	1,319.82	68.9203	1,319.82	67.3234	1,319.82	68.4954	1,319.82	68.8187	1,319.82	69.0851	1,319.82	68.3622	1,319.82	69.7624	1,319.82	61.4477	1,319.82	66.4417	1,319.82	34.2793	1,319.82	52.9849	1,319.82	59.9547	1,319.82	57.4659	1,319.82	65.9501	1,319.82	65.5226	1,319.82	67.9673
1,366.7	79.3483	1,366.7	79.2035	1,366.7	79.0136	1,366.7	78.5858	1,366.7	78.6174	1,366.7	78.0771	1,366.7	77.6225	1,366.7	76.2893	1,366.7	76.3197	1,366.7	74.6414	1,366.7	75.0898	1,366.7	73.3758	1,366.7	72.8536	1,366.7	71.695	1,366.7	70.324	1,366.7	69.0946	1,366.7	69.4479	1,366.7	68.6313	1,366.7	66.8298	1,366.7	67.9087	1,366.7	66.5109	1,366.7	69.1829	1,366.7	67.1726	1,366.7	69.5376	1,366.7	66.8472	1,366.7	66.391	1,366.7	65.7565	1,366.7	59.8047	1,366.7	64.8278	1,366.7	54.3335	1,366.7	57.0788	1,366.7	58.5386	1,366.7	58.7023	1,366.7	67.0272	1,366.7	64.989	1,366.7	67.5036
1,413.57	79.4859	1,413.57	79.0234	1,413.57	79.4494	1,413.57	78.1377	1,413.57	78.95	1,413.57	77.1873	1,413.57	77.8697	1,413.57	75.4763	1,413.57	76.0977	1,413.57	74.1081	1,413.57	74.278	1,413.57	73.84	1,413.57	72.5661	1,413.57	72.4779	1,413.57	70.0294	1,413.57	69.7408	1,413.57	68.1592	1,413.57	68.4574	1,413.57	66.5146	1,413.57	64.9602	1,413.57	66.1581	1,413.57	67.869	1,413.57	66.4093	1,413.57	69.2385	1,413.57	67.1571	1,413.57	67.4511	1,413.57	66.3051	1,413.57	62.7973	1,413.57	65.0826	1,413.57	58.4575	1,413.57	49.6048	1,413.57	57.2876	1,413.57	62.0196	1,413.57	62.6233	1,413.57	63.9225	1,413.57	65.8811
1,463.38	78.6773	1,463.38	78.4502	1,463.38	78.6999	1,463.38	77.9526	1,463.38	77.8848	1,463.38	76.5473	1,463.38	76.5309	1,463.38	74.7428	1,463.38	76.128	1,463.38	73.6351	1,463.38	74.026	1,463.38	70.9085	1,463.38	72.2573	1,463.38	68.6191	1,463.38	71.251	1,463.38	68.3207	1,463.38	68.4798	1,463.38	66.942	1,463.38	64.4125	1,463.38	64.5379	1,463.38	66.3485	1,463.38	63.5078	1,463.38	66.1251	1,463.38	64.8155	1,463.38	66.3439	1,463.38	66.192	1,463.38	66.8252	1,463.38	64.8484	1,463.38	66.2895	1,463.38	61.1842	1,463.38	55.3559	1,463.38	40.6327	1,463.38	55.7272	1,463.38	61.7607	1,463.38	63.0299	1,463.38	62.284
1,516.11	77.8373	1,516.11	77.7393	1,516.11	77.6351	1,516.11	77.4571	1,516.11	76.9097	1,516.11	76.1996	1,516.11	75.8429	1,516.11	74.9346	1,516.11	74.0003	1,516.11	73.2924	1,516.11	72.5912	1,516.11	70.555	1,516.11	71.0688	1,516.11	67.7917	1,516.11	69.5933	1,516.11	67.183	1,516.11	67.0546	1,516.11	65.8648	1,516.11	61.7254	1,516.11	63.7045	1,516.11	63.0451	1,516.11	63.1353	1,516.11	64.5931	1,516.11	64.079	1,516.11	65.9395	1,516.11	65.6647	1,516.11	64.8637	1,516.11	65.8316	1,516.11	63.2569	1,516.11	59.8497	1,516.11	57.4058	1,516.11	45.9495	1,516.11	41.4414	1,516.11	58.001	1,516.11	55.7392	1,516.11	60.8616
1,568.85	77.3533	1,568.85	77.0644	1,568.85	77.1056	1,568.85	76.6247	1,568.85	76.0558	1,568.85	75.8681	1,568.85	74.4663	1,568.85	73.8648	1,568.85	73.7715	1,568.85	70.853	1,568.85	72.1561	1,568.85	69.592	1,568.85	70.8329	1,568.85	69.42	1,568.85	69.4457	1,568.85	67.8832	1,568.85	65.0151	1,568.85	65.8652	1,568.85	63.1373	1,568.85	66.0629	1,568.85	59.8737	1,568.85	63.1189	1,568.85	60.9829	1,568.85	62.679	1,568.85	62.5662	1,568.85	65.7591	1,568.85	65.111	1,568.85	63.9294	1,568.85	61.7131	1,568.85	55.358	1,568.85	56.5953	1,568.85	52.0856	1,568.85	53.5772	1,568.85	55.4006	1,568.85	59.5338	1,568.85	60.5984
1,624.51	75.9574	1,624.51	75.4003	1,624.51	75.8936	1,624.51	75.0181	1,624.51	75.5397	1,624.51	73.3526	1,624.51	75.1966	1,624.51	71.9189	1,624.51	73.8676	1,624.51	70.513	1,624.51	71.6995	1,624.51	67.5103	1,624.51	68.8643	1,624.51	66.1831	1,624.51	66.9631	1,624.51	62.6895	1,624.51	66.2795	1,624.51	58.7829	1,624.51	62.6232	1,624.51	56.5814	1,624.51	57.3174	1,624.51	57.0043	1,624.51	57.426	1,624.51	58.8604	1,624.51	61.5112	1,624.51	63.1054	1,624.51	60.5523	1,624.51	64.5008	1,624.51	62.5435	1,624.51	58.4857	1,624.51	51.0453	1,624.51	49.2288	1,624.51	51.9367	1,624.51	31.2228	1,624.51	60.0183	1,624.51	55.3858
1,681.64	76.5451	1,681.64	75.4046	1,681.64	75.8183	1,681.64	74.4646	1,681.64	75.266	1,681.64	73.0853	1,681.64	73.5806	1,681.64	71.2896	1,681.64	71.5185	1,681.64	69.3414	1,681.64	70.5386	1,681.64	65.1933	1,681.64	69.1498	1,681.64	62.9233	1,681.64	66.0517	1,681.64	61.2771	1,681.64	62.8713	1,681.64	60.2619	1,681.64	61.6309	1,681.64	51.8067	1,681.64	59.0238	1,681.64	54.5979	1,681.64	56.5145	1,681.64	56.7761	1,681.64	59.1071	1,681.64	61.9888	1,681.64	63.9279	1,681.64	64.3795	1,681.64	61.3506	1,681.64	63.8737	1,681.64	58.7338	1,681.64	48.424	1,681.64	52.7474	1,681.64	57.0184	1,681.64	60.7427	1,681.64	62.1092
1,741.7	77.0706	1,741.7	77.0225	1,741.7	76.31	1,741.7	75.7862	1,741.7	75.3595	1,741.7	73.9837	1,741.7	74.8557	1,741.7	71.8148	1,741.7	72.1296	1,741.7	70.4558	1,741.7	70.9488	1,741.7	64.83	1,741.7	69.8238	1,741.7	66.2098	1,741.7	70.1923	1,741.7	63.9253	1,741.7	65.3902	1,741.7	59.5946	1,741.7	64.6797	1,741.7	62.9283	1,741.7	59.5668	1,741.7	60.765	1,741.7	61.4938	1,741.7	49.8659	1,741.7	62.2543	1,741.7	59.1595	1,741.7	63.2109	1,741.7	59.6585	1,741.7	52.5629	1,741.7	55.6996	1,741.7	59.2261	1,741.7	51.8011	1,741.7	46.775	1,741.7	57.9329	1,741.7	53.5115	1,741.7	52.3188
1,803.22	76.5981	1,803.22	77.3068	1,803.22	75.6999	1,803.22	75.7274	1,803.22	75.2365	1,803.22	73.5949	1,803.22	73.742	1,803.22	72.325	1,803.22	72.7396	1,803.22	69.9327	1,803.22	71.8354	1,803.22	68.3539	1,803.22	71.2936	1,803.22	66.2051	1,803.22	69.4252	1,803.22	62.2047	1,803.22	67.1933	1,803.22	60.9032	1,803.22	66.6391	1,803.22	63.3878	1,803.22	61.818	1,803.22	62.965	1,803.22	61.3089	1,803.22	61.7115	1,803.22	58.7285	1,803.22	56.5329	1,803.22	63.4212	1,803.22	59.9674	1,803.22	62.9477	1,803.22	59.2901	1,803.22	62.3463	1,803.22	59.6673	1,803.22	44.9353	1,803.22	51.7044	1,803.22	57.3107	1,803.22	52.6768
1,866.21	75.9213	1,866.21	75.9782	1,866.21	75.127	1,866.21	74.8523	1,866.21	74.2809	1,866.21	73.8268	1,866.21	72.2625	1,866.21	71.674	1,866.21	71.4691	1,866.21	70.7149	1,866.21	69.8795	1,866.21	68.1239	1,866.21	67.7533	1,866.21	66.5042	1,866.21	62.0035	1,866.21	65.4216	1,866.21	65.1647	1,866.21	61.9324	1,866.21	64.5187	1,866.21	62.4257	1,866.21	61.9031	1,866.21	58.9537	1,866.21	57.9362	1,866.21	59.6606	1,866.21	57.9661	1,866.21	61.8072	1,866.21	58.9497	1,866.21	64.5654	1,866.21	63.6351	1,866.21	64.7084	1,866.21	56.5257	1,866.21	58.8043	1,866.21	58.7556	1,866.21	57.9618	1,866.21	35.0837	1,866.21	53.3843
1,932.13	75.7863	1,932.13	75.3007	1,932.13	75.8161	1,932.13	73.8228	1,932.13	74.5197	1,932.13	72.3216	1,932.13	72.8424	1,932.13	70.2012	1,932.13	71.0281	1,932.13	68.3898	1,932.13	68.2329	1,932.13	67.3138	1,932.13	65.8588	1,932.13	62.961	1,932.13	63.3824	1,932.13	61.6649	1,932.13	62.1371	1,932.13	62.1964	1,932.13	59.4305	1,932.13	60.587	1,932.13	59.9924	1,932.13	56.7779	1,932.13	56.7583	1,932.13	52.0345	1,932.13	55.1948	1,932.13	55.389	1,932.13	57.84	1,932.13	59.0721	1,932.13	60.4899	1,932.13	57.1241	1,932.13	61.2754	1,932.13	49.3302	1,932.13	53.878	1,932.13	46.5926	1,932.13	42.8494	1,932.13	44.3772
1,999.51	76.694	1,999.51	76.3369	1,999.51	76.6268	1,999.51	74.7476	1,999.51	75.5897	1,999.51	73.6134	1,999.51	73.8954	1,999.51	72.0214	1,999.51	72.2731	1,999.51	69.1779	1,999.51	69.0096	1,999.51	65.9937	1,999.51	67.3715	1,999.51	63.0324	1,999.51	63.3676	1,999.51	60.3672	1,999.51	60.9062	1,999.51	59.307	1,999.51	61.3669	1,999.51	59.6786	1,999.51	60.721	1,999.51	60.4685	1,999.51	60.5552	1,999.51	49.3162	1,999.51	55.4444	1,999.51	51.7637	1,999.51	56.9858	1,999.51	57.0255	1,999.51	60.2028	1,999.51	57.5999	1,999.51	55.6493	1,999.51	53.0449	1,999.51	51.1957	1,999.51	49.051	1,999.51	45.6404	1,999.51	50.1269
2,069.82	77.2939	2,069.82	76.4152	2,069.82	76.7922	2,069.82	75.4079	2,069.82	75.6034	2,069.82	73.8875	2,069.82	74.1171	2,069.82	72.4077	2,069.82	72.1357	2,069.82	69.5533	2,069.82	69.3277	2,069.82	67.1183	2,069.82	67.1046	2,069.82	63.3358	2,069.82	63.6461	2,069.82	60.2653	2,069.82	58.8249	2,069.82	58.6119	2,069.82	61.2525	2,069.82	59.2755	2,069.82	57.352	2,069.82	58.3639	2,069.82	61.1015	2,069.82	57.2715	2,069.82	56.0178	2,069.82	56.1925	2,069.82	56.0429	2,069.82	58.0635	2,069.82	60.3963	2,069.82	58.7276	2,069.82	59.2155	2,069.82	54.5368	2,069.82	52.9577	2,069.82	46.1313	2,069.82	38.5593	2,069.82	50.175
2,143.07	76.3109	2,143.07	75.743	2,143.07	75.9627	2,143.07	74.1856	2,143.07	74.8256	2,143.07	72.4088	2,143.07	72.3897	2,143.07	69.8381	2,143.07	69.4172	2,143.07	67.654	2,143.07	67.517	2,143.07	66.0588	2,143.07	64.9007	2,143.07	63.3235	2,143.07	63.7919	2,143.07	62.504	2,143.07	60.1689	2,143.07	56.0086	2,143.07	57.0039	2,143.07	58.2554	2,143.07	55.258	2,143.07	59.9351	2,143.07	59.8689	2,143.07	56.576	2,143.07	56.395	2,143.07	49.8224	2,143.07	53.6011	2,143.07	58.8624	2,143.07	59.3648	2,143.07	59.4894	2,143.07	60.1611	2,143.07	52.9319	2,143.07	53.4742	2,143.07	46.8259	2,143.07	40.2887	2,143.07	52.2545
2,219.24	75.69	2,219.24	75.3301	2,219.24	75.5016	2,219.24	73.4837	2,219.24	74.2823	2,219.24	71.3849	2,219.24	72.03	2,219.24	68.0409	2,219.24	69.4519	2,219.24	63.9633	2,219.24	65.7017	2,219.24	63.7325	2,219.24	62.9781	2,219.24	61.1554	2,219.24	60.8436	2,219.24	54.3158	2,219.24	59.6472	2,219.24	58.0185	2,219.24	57.4011	2,219.24	55.04	2,219.24	57.9693	2,219.24	55.4862	2,219.24	59.0462	2,219.24	58.2751	2,219.24	57.8857	2,219.24	54.3401	2,219.24	55.2482	2,219.24	58.1978	2,219.24	58.8542	2,219.24	59.7479	2,219.24	59.0488	2,219.24	55.5858	2,219.24	56.1712	2,219.24	35.2075	2,219.24	54.1001	2,219.24	50.3904
2,296.88	76.3133	2,296.88	75.3009	2,296.88	75.69	2,296.88	74.1129	2,296.88	74.1564	2,296.88	71.8549	2,296.88	72.5661	2,296.88	68.7668	2,296.88	68.7108	2,296.88	65.5867	2,296.88	65.6969	2,296.88	55.537	2,296.88	61.4751	2,296.88	57.9476	2,296.88	60.3104	2,296.88	59.2866	2,296.88	56.8861	2,296.88	56.3065	2,296.88	57.3874	2,296.88	53.624	2,296.88	56.8304	2,296.88	58.672	2,296.88	57.9667	2,296.88	59.0549	2,296.88	58.1382	2,296.88	57.0072	2,296.88	54.1837	2,296.88	51.3235	2,296.88	56.2772	2,296.88	56.562	2,296.88	57.748	2,296.88	52.5158	2,296.88	58.0013	2,296.88	49.5956	2,296.88	53.3255	2,296.88	49.9054
2,378.91	75.7294	2,378.91	74.8812	2,378.91	75.0653	2,378.91	73.3577	2,378.91	74.0801	2,378.91	71.6201	2,378.91	71.7812	2,378.91	67.7319	2,378.91	68.4181	2,378.91	64.4658	2,378.91	64.8122	2,378.91	58.5264	2,378.91	59.7684	2,378.91	57.5948	2,378.91	58.06	2,378.91	60.223	2,378.91	59.7729	2,378.91	58.9687	2,378.91	56.0504	2,378.91	56.902	2,378.91	55.2534	2,378.91	58.1142	2,378.91	54.2831	2,378.91	60.3249	2,378.91	57.6251	2,378.91	57.8267	2,378.91	56.0655	2,378.91	54.2919	2,378.91	55.2767	2,378.91	57.9449	2,378.91	58.3157	2,378.91	56.0527	2,378.91	55.4937	2,378.91	55.0275	2,378.91	50.4443	2,378.91	55.3208
2,462.4	75.0227	2,462.4	73.8172	2,462.4	74.7612	2,462.4	72.5347	2,462.4	73.494	2,462.4	69.7427	2,462.4	70.9387	2,462.4	66.6627	2,462.4	67.1145	2,462.4	62.7164	2,462.4	63.32	2,462.4	60.8681	2,462.4	58.5827	2,462.4	58.6684	2,462.4	57.8231	2,462.4	57.6897	2,462.4	59.9186	2,462.4	60.2384	2,462.4	57.9873	2,462.4	57.4285	2,462.4	57.764	2,462.4	57.1809	2,462.4	55.8284	2,462.4	59.5978	2,462.4	57.533	2,462.4	57.7018	2,462.4	55.2859	2,462.4	53.4103	2,462.4	52.1866	2,462.4	56.3191	2,462.4	54.9471	2,462.4	56.4441	2,462.4	56.4834	2,462.4	53.2482	2,462.4	54.7934	2,462.4	53.4926
2,548.83	75.4825	2,548.83	74.7437	2,548.83	75.3102	2,548.83	73.0213	2,548.83	73.2504	2,548.83	69.5388	2,548.83	70.3098	2,548.83	65.9789	2,548.83	65.9146	2,548.83	63.3928	2,548.83	62.7244	2,548.83	62.7329	2,548.83	59.3809	2,548.83	62.5445	2,548.83	59.1456	2,548.83	58.8188	2,548.83	61.2705	2,548.83	59.8507	2,548.83	61.2116	2,548.83	60.2166	2,548.83	59.7987	2,548.83	56.5317	2,548.83	58.3376	2,548.83	59.413	2,548.83	58.9528	2,548.83	60.0733	2,548.83	58.8834	2,548.83	56.0312	2,548.83	54.6009	2,548.83	55.9766	2,548.83	57.1328	2,548.83	56.9136	2,548.83	54.5365	2,548.83	49.3514	2,548.83	56.2228	2,548.83	54.1431
2,639.65	75.589	2,639.65	75.369	2,639.65	74.7229	2,639.65	72.8906	2,639.65	73.3114	2,639.65	69.9914	2,639.65	69.6101	2,639.65	64.5928	2,639.65	66.7242	2,639.65	60.9738	2,639.65	62.4692	2,639.65	60.6791	2,639.65	61.0094	2,639.65	59.7221	2,639.65	59.1824	2,639.65	57.0158	2,639.65	60.1194	2,639.65	61.3262	2,639.65	58.7786	2,639.65	60.6211	2,639.65	59.1105	2,639.65	59.9294	2,639.65	56.4784	2,639.65	58.644	2,639.65	58.2459	2,639.65	59.765	2,639.65	56.5929	2,639.65	57.0415	2,639.65	55.785	2,639.65	57.8413	2,639.65	57.4023	2,639.65	56.8609	2,639.65	50.6079	2,639.65	52.8562	2,639.65	50.8489	2,639.65	52.823
2,731.93	75.2873	2,731.93	74.5906	2,731.93	74.6426	2,731.93	72.4324	2,731.93	72.8077	2,731.93	69.4875	2,731.93	70.1407	2,731.93	65.3187	2,731.93	65.731	2,731.93	60.8412	2,731.93	61.7049	2,731.93	60.5568	2,731.93	60.1423	2,731.93	58.9983	2,731.93	59.4565	2,731.93	61.2518	2,731.93	59.4746	2,731.93	59.4252	2,731.93	59.474	2,731.93	59.0986	2,731.93	59.6342	2,731.93	57.567	2,731.93	57.1908	2,731.93	58.8386	2,731.93	56.6356	2,731.93	60.6398	2,731.93	58.2155	2,731.93	57.6045	2,731.93	57.4188	2,731.93	58.1612	2,731.93	56.6545	2,731.93	57.4158	2,731.93	56.7881	2,731.93	50.4303	2,731.93	51.8257	2,731.93	54.3449
2,828.61	75.9195	2,828.61	75.1251	2,828.61	75.1522	2,828.61	72.9896	2,828.61	73.5062	2,828.61	70.1681	2,828.61	70.4638	2,828.61	66.4808	2,828.61	66.8476	2,828.61	62.9072	2,828.61	62.889	2,828.61	57.954	2,828.61	59.5822	2,828.61	57.9665	2,828.61	58.3909	2,828.61	57.6821	2,828.61	58.5291	2,828.61	60.1138	2,828.61	58.3413	2,828.61	57.4012	2,828.61	59.7868	2,828.61	55.3901	2,828.61	57.0229	2,828.61	55.7027	2,828.61	54.6403	2,828.61	59.5951	2,828.61	57.9422	2,828.61	58.0681	2,828.61	56.0218	2,828.61	55.7798	2,828.61	57.9579	2,828.61	56.281	2,828.61	54.4117	2,828.61	52.6405	2,828.61	51.1397	2,828.61	53.2492
2,928.22	75.1936	2,928.22	74.501	2,928.22	74.3756	2,928.22	72.7453	2,928.22	72.6441	2,928.22	70.0307	2,928.22	69.8765	2,928.22	65.8044	2,928.22	64.7677	2,928.22	59.5646	2,928.22	60.0576	2,928.22	53.8032	2,928.22	56.7235	2,928.22	47.1839	2,928.22	51.7079	2,928.22	58.4889	2,928.22	57.5078	2,928.22	55.1247	2,928.22	56.4127	2,928.22	58.0708	2,928.22	56.4496	2,928.22	57.0956	2,928.22	54.7637	2,928.22	56.4319	2,928.22	55.6253	2,928.22	58.5661	2,928.22	52.6704	2,928.22	56.3636	2,928.22	54.1404	2,928.22	57.3678	2,928.22	55.7005	2,928.22	58.1621	2,928.22	52.994	2,928.22	53.0832	2,928.22	43.5537	2,928.22	52.5228
3,030.76	75.3184	3,030.76	74.4791	3,030.76	75.1572	3,030.76	73.1441	3,030.76	73.0509	3,030.76	69.8675	3,030.76	70.4878	3,030.76	65.5353	3,030.76	65.7913	3,030.76	60.9807	3,030.76	59.8918	3,030.76	50.2828	3,030.76	52.6398	3,030.76	53.8147	3,030.76	43.4745	3,030.76	52.9273	3,030.76	50.1826	3,030.76	53.5154	3,030.76	50.9501	3,030.76	53.6942	3,030.76	51.5692	3,030.76	54.0484	3,030.76	57.4621	3,030.76	55.7055	3,030.76	56.2754	3,030.76	53.0082	3,030.76	56.1337	3,030.76	57.3022	3,030.76	56.3797	3,030.76	55.3413	3,030.76	56.4183	3,030.76	54.3604	3,030.76	55.1165	3,030.76	48.3733	3,030.76	47.4115	3,030.76	39.7775
3,137.7	75.9341	3,137.7	75.0222	3,137.7	75.8912	3,137.7	73.9611	3,137.7	73.6927	3,137.7	70.7334	3,137.7	71.2995	3,137.7	66.6857	3,137.7	67.045	3,137.7	63.3882	3,137.7	61.8311	3,137.7	56.828	3,137.7	58.3614	3,137.7	50.2651	3,137.7	57.732	3,137.7	52.6499	3,137.7	53.7842	3,137.7	54.4288	3,137.7	55.5003	3,137.7	56.3357	3,137.7	54.7889	3,137.7	55.5788	3,137.7	55.4155	3,137.7	55.5469	3,137.7	57.657	3,137.7	57.2932	3,137.7	57.7895	3,137.7	58.7781	3,137.7	52.3266	3,137.7	57.0933	3,137.7	58.7589	3,137.7	56.4596	3,137.7	57.4935	3,137.7	55.117	3,137.7	47.4017	3,137.7	50.9589
3,249.02	76.4869	3,249.02	75.999	3,249.02	76.0893	3,249.02	74.0435	3,249.02	74.2728	3,249.02	70.9874	3,249.02	71.5672	3,249.02	67.593	3,249.02	68.6585	3,249.02	66.5342	3,249.02	65.5834	3,249.02	64.496	3,249.02	61.1248	3,249.02	63.5146	3,249.02	61.0649	3,249.02	62.0092	3,249.02	60.3078	3,249.02	60.2985	3,249.02	60.4818	3,249.02	58.5098	3,249.02	59.4106	3,249.02	56.5413	3,249.02	54.7312	3,249.02	58.5978	3,249.02	56.6752	3,249.02	59.3895	3,249.02	58.7178	3,249.02	55.8402	3,249.02	54.7719	3,249.02	57.8263	3,249.02	57.467	3,249.02	60.1141	3,249.02	58.3623	3,249.02	59.6048	3,249.02	50.9375	3,249.02	57.1118
3,363.28	77.3638	3,363.28	76.9472	3,363.28	76.1768	3,363.28	74.8926	3,363.28	75.1151	3,363.28	72.1663	3,363.28	72.696	3,363.28	69.7683	3,363.28	69.9396	3,363.28	67.6487	3,363.28	66.6381	3,363.28	66.6387	3,363.28	65.6144	3,363.28	66.4351	3,363.28	64.8311	3,363.28	64.7215	3,363.28	63.8977	3,363.28	63.746	3,363.28	63.3903	3,363.28	61.9623	3,363.28	61.0792	3,363.28	58.665	3,363.28	58.4208	3,363.28	55.9227	3,363.28	56.7741	3,363.28	59.4741	3,363.28	61.0016	3,363.28	59.6406	3,363.28	59.3053	3,363.28	58.6263	3,363.28	58.2962	3,363.28	61.0282	3,363.28	61.4215	3,363.28	56.5986	3,363.28	58.3498	3,363.28	58.0615
3,481.93	77.8287	3,481.93	77.0065	3,481.93	77.4664	3,481.93	75.9892	3,481.93	75.4905	3,481.93	73.4533	3,481.93	73.8798	3,481.93	70.6217	3,481.93	70.8554	3,481.93	68.8639	3,481.93	69.2872	3,481.93	69.7787	3,481.93	68.5554	3,481.93	69.3881	3,481.93	66.9534	3,481.93	67.3856	3,481.93	65.0463	3,481.93	64.918	3,481.93	63.1718	3,481.93	63.7035	3,481.93	62.995	3,481.93	60.1071	3,481.93	60.8281	3,481.93	60.7867	3,481.93	57.6457	3,481.93	57.6466	3,481.93	62.6639	3,481.93	61.8381	3,481.93	59.5126	3,481.93	61.7965	3,481.93	57.4315	3,481.93	62.8337	3,481.93	61.6389	3,481.93	59.278	3,481.93	56.0598	3,481.93	56.7299
3,604.98	77.8455	3,604.98	77.373	3,604.98	77.2076	3,604.98	76.1057	3,604.98	75.8277	3,604.98	74.181	3,604.98	74.1973	3,604.98	72.7006	3,604.98	72.5496	3,604.98	70.7988	3,604.98	71.3235	3,604.98	69.7681	3,604.98	70.1569	3,604.98	69.7691	3,604.98	68.9991	3,604.98	67.7454	3,604.98	65.3597	3,604.98	64.6261	3,604.98	64.5362	3,604.98	62.6946	3,604.98	63.5388	3,604.98	64.3279	3,604.98	60.621	3,604.98	61.32	3,604.98	58.3991	3,604.98	59.4514	3,604.98	60.1154	3,604.98	62.6634	3,604.98	58.7896	3,604.98	61.3606	3,604.98	60.0001	3,604.98	62.9866	3,604.98	62.6532	3,604.98	59.6773	3,604.98	59.2005	3,604.98	59.462
3,732.42	78.8942	3,732.42	78.055	3,732.42	78.5104	3,732.42	76.5648	3,732.42	76.4075	3,732.42	75.3915	3,732.42	74.8698	3,732.42	73.8398	3,732.42	73.1564	3,732.42	72.4447	3,732.42	72.3472	3,732.42	69.9668	3,732.42	71.7325	3,732.42	70.1026	3,732.42	69.4403	3,732.42	69.2008	3,732.42	68.3002	3,732.42	66.1893	3,732.42	65.552	3,732.42	64.1056	3,732.42	64.0016	3,732.42	65.87	3,732.42	62.0047	3,732.42	60.2963	3,732.42	60.7584	3,732.42	62.3697	3,732.42	61.0973	3,732.42	63.2386	3,732.42	60.9935	3,732.42	60.9487	3,732.42	60.206	3,732.42	63.7267	3,732.42	64.8063	3,732.42	60.2115	3,732.42	61.3634	3,732.42	61.8956
3,864.26	79.2683	3,864.26	78.5392	3,864.26	78.6091	3,864.26	76.4325	3,864.26	76.7542	3,864.26	75.0416	3,864.26	75.4808	3,864.26	72.6873	3,864.26	74.2757	3,864.26	72.1813	3,864.26	73.2777	3,864.26	70.4337	3,864.26	72.0815	3,864.26	69.4108	3,864.26	69.9523	3,864.26	68.4278	3,864.26	66.8179	3,864.26	66.011	3,864.26	64.2264	3,864.26	65.2045	3,864.26	62.4322	3,864.26	62.5913	3,864.26	63.4617	3,864.26	61.2627	3,864.26	62.479	3,864.26	59.1073	3,864.26	58.8916	3,864.26	58.6152	3,864.26	60.7537	3,864.26	57.511	3,864.26	56.9961	3,864.26	64.6075	3,864.26	64.2451	3,864.26	63.2638	3,864.26	60.9059	3,864.26	63.6033
4,000.49	78.8594	4,000.49	78.4167	4,000.49	77.8714	4,000.49	77.1192	4,000.49	76.11	4,000.49	73.778	4,000.49	74.1276	4,000.49	72.8015	4,000.49	73.7318	4,000.49	72.181	4,000.49	73.4528	4,000.49	70.4504	4,000.49	70.8365	4,000.49	69.4302	4,000.49	69.0807	4,000.49	67.439	4,000.49	68.4221	4,000.49	67.0333	4,000.49	66.5174	4,000.49	62.2472	4,000.49	62.0827	4,000.49	57.7006	4,000.49	60.704	4,000.49	61.8558	4,000.49	56.521	4,000.49	54.0945	4,000.49	58.8255	4,000.49	61.4579	4,000.49	62.2495	4,000.49	52.3404	4,000.49	57.7431	4,000.49	61.9136	4,000.49	60.8862	4,000.49	57.9852	4,000.49	60.388	4,000.49	63.0535
4,141.11	78.7359	4,141.11	79.2044	4,141.11	77.7203	4,141.11	76.6988	4,141.11	77.0171	4,141.11	74.8916	4,141.11	75.3028	4,141.11	73.7687	4,141.11	74.8301	4,141.11	71.4992	4,141.11	74.109	4,141.11	69.9846	4,141.11	71.217	4,141.11	66.981	4,141.11	69.431	4,141.11	64.8936	4,141.11	67.5496	4,141.11	65.2399	4,141.11	63.5408	4,141.11	61.7159	4,141.11	62.4562	4,141.11	64.7561	4,141.11	60.7396	4,141.11	59.1451	4,141.11	61.9604	4,141.11	61.0125	4,141.11	57.738	4,141.11	63.0831	4,141.11	58.2299	4,141.11	55.2074	4,141.11	56.1156	4,141.11	60.5623	4,141.11	59.04	4,141.11	57.8806	4,141.11	59.0402	4,141.11	61.7953
4,287.6	80.8596	4,287.6	79.6924	4,287.6	80.0934	4,287.6	78.3075	4,287.6	77.5002	4,287.6	76.1967	4,287.6	76.1954	4,287.6	75.141	4,287.6	72.7937	4,287.6	73.4688	4,287.6	71.0273	4,287.6	71.0291	4,287.6	70.4938	4,287.6	69.6342	4,287.6	70.2213	4,287.6	67.4606	4,287.6	67.8462	4,287.6	68.4236	4,287.6	65.8984	4,287.6	64.3542	4,287.6	62.5102	4,287.6	59.8433	4,287.6	61.698	4,287.6	61.5035	4,287.6	56.122	4,287.6	40.3545	4,287.6	61.7834	4,287.6	59.5223	4,287.6	61.4387	4,287.6	58.2307	4,287.6	54.4451	4,287.6	62.4268	4,287.6	61.4559	4,287.6	58.8548	4,287.6	57.7383	4,287.6	61.2592
4,438.48	82.2161	4,438.48	81.0807	4,438.48	81.2266	4,438.48	79.9964	4,438.48	79.3738	4,438.48	76.8716	4,438.48	76.993	4,438.48	72.5284	4,438.48	75.4702	4,438.48	72.8377	4,438.48	72.5538	4,438.48	70.6226	4,438.48	72.7122	4,438.48	68.5397	4,438.48	72.4772	4,438.48	67.5962	4,438.48	65.9813	4,438.48	63.6561	4,438.48	68.0311	4,438.48	62.1067	4,438.48	64.7618	4,438.48	58.6973	4,438.48	62.9556	4,438.48	60.5285	4,438.48	58.6912	4,438.48	61.6663	4,438.48	59.3511	4,438.48	59.5463	4,438.48	60.4338	4,438.48	57.9632	4,438.48	58.8074	4,438.48	60.1418	4,438.48	61.4922	4,438.48	61.5979	4,438.48	58.6842	4,438.48	63.4288
4,595.21	82.433	4,595.21	82.3466	4,595.21	81.5329	4,595.21	79.654	4,595.21	79.7667	4,595.21	77.9383	4,595.21	76.4611	4,595.21	74.5683	4,595.21	76.3141	4,595.21	71.6484	4,595.21	76.3895	4,595.21	72.916	4,595.21	72.6816	4,595.21	72.714	4,595.21	70.8712	4,595.21	67.2461	4,595.21	71.035	4,595.21	66.6892	4,595.21	67.7503	4,595.21	61.2655	4,595.21	65.3733	4,595.21	65.7289	4,595.21	63.9424	4,595.21	61.0428	4,595.21	63.4894	4,595.21	63.9876	4,595.21	55.1218	4,595.21	56.4036	4,595.21	57.7499	4,595.21	61.7316	4,595.21	59.68	4,595.21	60.2522	4,595.21	60.8914	4,595.21	59.2582	4,595.21	60.0592	4,595.21	65.541
4,756.35	83.4212	4,756.35	82.7449	4,756.35	82.9922	4,756.35	80.9643	4,756.35	80.7758	4,756.35	78.7842	4,756.35	79.3226	4,756.35	77.2738	4,756.35	76.6972	4,756.35	75.7877	4,756.35	75.4885	4,756.35	72.1285	4,756.35	74.2601	4,756.35	68.7459	4,756.35	71.6142	4,756.35	68.6225	4,756.35	68.5066	4,756.35	68.708	4,756.35	68.9902	4,756.35	69.6442	4,756.35	67.202	4,756.35	59.1271	4,756.35	65.4095	4,756.35	58.4581	4,756.35	62.5559	4,756.35	56.4135	4,756.35	58.4664	4,756.35	56.5324	4,756.35	59.2576	4,756.35	57.4453	4,756.35	60.5733	4,756.35	58.6155	4,756.35	61.1694	4,756.35	59.1175	4,756.35	59.1899	4,756.35	61.0261
4,924.8	83.48	4,924.8	82.3952	4,924.8	82.9835	4,924.8	81.8051	4,924.8	80.5447	4,924.8	79.2972	4,924.8	79.6528	4,924.8	78.2696	4,924.8	76.2542	4,924.8	76.8372	4,924.8	73.8068	4,924.8	75.2939	4,924.8	72.7786	4,924.8	72.2003	4,924.8	72.0395	4,924.8	73.3473	4,924.8	72.167	4,924.8	67.4897	4,924.8	68.5888	4,924.8	72.0672	4,924.8	67.708	4,924.8	66.63	4,924.8	62.1056	4,924.8	63.8421	4,924.8	62.9669	4,924.8	60.609	4,924.8	59.6452	4,924.8	54.2605	4,924.8	54.1055	4,924.8	56.5415	4,924.8	58.8706	4,924.8	60.3668	4,924.8	61.5878	4,924.8	59.9767	4,924.8	58.1472	4,924.8	61.249
5,097.66	83.7669	5,097.66	83.3812	5,097.66	82.8077	5,097.66	81.7498	5,097.66	81.6791	5,097.66	80.4205	5,097.66	79.4143	5,097.66	78.42	5,097.66	78.6432	5,097.66	76.8768	5,097.66	77.4909	5,097.66	76.3497	5,097.66	75.642	5,097.66	75.8079	5,097.66	74.0095	5,097.66	73.5711	5,097.66	72.9617	5,097.66	71.0398	5,097.66	67.9826	5,097.66	64.1169	5,097.66	67.4063	5,097.66	65.172	5,097.66	65.2372	5,097.66	64.9994	5,097.66	62.9565	5,097.66	62.7719	5,097.66	56.0042	5,097.66	56.4415	5,097.66	57.6284	5,097.66	62.7238	5,097.66	60.6566	5,097.66	60.7617	5,097.66	59.8425	5,097.66	57.8692	5,097.66	59.6089	5,097.66	60.3267
5,277.83	83.4056	5,277.83	82.9838	5,277.83	82.8718	5,277.83	80.8381	5,277.83	82.0578	5,277.83	79.0515	5,277.83	80.4497	5,277.83	76.9048	5,277.83	79.2245	5,277.83	75.9824	5,277.83	77.6547	5,277.83	75.6682	5,277.83	77.119	5,277.83	75.8169	5,277.83	75.5745	5,277.83	72.0731	5,277.83	71.2507	5,277.83	72.562	5,277.83	69.2789	5,277.83	67.0499	5,277.83	67.2748	5,277.83	66.9358	5,277.83	65.6651	5,277.83	63.6118	5,277.83	63.6672	5,277.83	61.3709	5,277.83	56.3196	5,277.83	61.9606	5,277.83	58.383	5,277.83	63.3808	5,277.83	59.4793	5,277.83	60.6252	5,277.83	59.7153	5,277.83	58.8697	5,277.83	56.2947	5,277.83	61.6897
5,463.87	83.3138	5,463.87	83.2875	5,463.87	83.6187	5,463.87	82.0209	5,463.87	82.5918	5,463.87	80.2144	5,463.87	81.4705	5,463.87	79.4494	5,463.87	78.9918	5,463.87	78.2227	5,463.87	77.3115	5,463.87	76.3665	5,463.87	76.2519	5,463.87	74.1342	5,463.87	74.8816	5,463.87	73.3114	5,463.87	70.6978	5,463.87	70.8655	5,463.87	68.9261	5,463.87	70.0125	5,463.87	66.343	5,463.87	65.2788	5,463.87	62.9465	5,463.87	62.4527	5,463.87	63.6411	5,463.87	58.5744	5,463.87	57.2962	5,463.87	53.0685	5,463.87	56.4749	5,463.87	56.2102	5,463.87	59.1536	5,463.87	54.4485	5,463.87	52.6749	5,463.87	62.4631	5,463.87	59.7745	5,463.87	62.9996
5,657.23	82.924	5,657.23	82.4908	5,657.23	82.9557	5,657.23	82.2561	5,657.23	82.5596	5,657.23	81.0137	5,657.23	80.3477	5,657.23	79.7649	5,657.23	79.2086	5,657.23	77.8521	5,657.23	78.2131	5,657.23	76.1419	5,657.23	75.6196	5,657.23	72.6926	5,657.23	73.0778	5,657.23	71.2261	5,657.23	71.8865	5,657.23	65.6179	5,657.23	67.5024	5,657.23	63.8031	5,657.23	64.3226	5,657.23	60.2208	5,657.23	63.1999	5,657.23	61.1903	5,657.23	59.9842	5,657.23	57.5809	5,657.23	47.9547	5,657.23	53.337	5,657.23	44.977	5,657.23	56.4049	5,657.23	51.8032	5,657.23	56.9365	5,657.23	57.6545	5,657.23	56.9508	5,657.23	57.127	5,657.23	60.1756
5,856.45	81.5547	5,856.45	80.7002	5,856.45	81.3228	5,856.45	80.0412	5,856.45	81.092	5,856.45	78.5149	5,856.45	79.4148	5,856.45	76.3453	5,856.45	78.0387	5,856.45	75.281	5,856.45	77.0192	5,856.45	73.4427	5,856.45	75.8666	5,856.45	73.695	5,856.45	74.6427	5,856.45	67.6462	5,856.45	69.7121	5,856.45	67.0707	5,856.45	67.0676	5,856.45	58.1161	5,856.45	63.1147	5,856.45	62.1469	5,856.45	59.9033	5,856.45	58.4474	5,856.45	61.7021	5,856.45	58.4903	5,856.45	49.0919	5,856.45	56.8482	5,856.45	55.715	5,856.45	58.9282	5,856.45	53.8464	5,856.45	53.3235	5,856.45	51.9244	5,856.45	55.7043	5,856.45	55.6068	5,856.45	59.8309
6,062.99	79.781	6,062.99	79.9256	6,062.99	80.8697	6,062.99	78.8886	6,062.99	78.7585	6,062.99	77.3007	6,062.99	78.935	6,062.99	75.7967	6,062.99	76.8217	6,062.99	74.9229	6,062.99	75.1216	6,062.99	71.6472	6,062.99	73.6864	6,062.99	70.0663	6,062.99	69.4548	6,062.99	64.0773	6,062.99	66.6643	6,062.99	62.7486	6,062.99	64.8785	6,062.99	62.504	6,062.99	58.9287	6,062.99	58.6537	6,062.99	60.1187	6,062.99	57.849	6,062.99	54.1601	6,062.99	55.7734	6,062.99	54.0514	6,062.99	49.5382	6,062.99	53.8625	6,062.99	46.0699	6,062.99	48.5353	6,062.99	44.209	6,062.99	48.3399	6,062.99	53.9895	6,062.99	55.6484	6,062.99	56.0533
6,276.86	81.1164	6,276.86	81.3981	6,276.86	81.2183	6,276.86	80.846	6,276.86	81.4836	6,276.86	79.5749	6,276.86	79.5642	6,276.86	79.2883	6,276.86	80.2175	6,276.86	77.7411	6,276.86	79.4577	6,276.86	75.8949	6,276.86	75.6325	6,276.86	69.3575	6,276.86	72.1243	6,276.86	70.4371	6,276.86	69.3038	6,276.86	66.5534	6,276.86	66.0145	6,276.86	65.0235	6,276.86	64.0012	6,276.86	63.9851	6,276.86	60.4417	6,276.86	59.5322	6,276.86	54.8771	6,276.86	60.7871	6,276.86	56.0062	6,276.86	52.0019	6,276.86	39.553	6,276.86	49.113	6,276.86	38.6998	6,276.86	50.0745	6,276.86	55.5724	6,276.86	52.5205	6,276.86	54.365	6,276.86	55.0139
6,498.05	79.8007	6,498.05	79.8706	6,498.05	81.0059	6,498.05	79.3368	6,498.05	80.2771	6,498.05	79.3624	6,498.05	80.3133	6,498.05	78.353	6,498.05	79.5709	6,498.05	78.4068	6,498.05	79.3236	6,498.05	75.8732	6,498.05	76.7052	6,498.05	73.8201	6,498.05	73.071	6,498.05	70.8352	6,498.05	69.993	6,498.05	68.177	6,498.05	65.1164	6,498.05	64.5301	6,498.05	67.0226	6,498.05	61.0739	6,498.05	61.7982	6,498.05	59.2595	6,498.05	60.7508	6,498.05	61.2203	6,498.05	63.4996	6,498.05	48.6615	6,498.05	57.1289	6,498.05	51.785	6,498.05	39.113	6,498.05	43.758	6,498.05	50.804	6,498.05	55.7703	6,498.05	51.6547	6,498.05	58.6366
6,726.56	79.3926	6,726.56	79.1499	6,726.56	79.1993	6,726.56	79.1605	6,726.56	78.9263	6,726.56	78.5282	6,726.56	79.1378	6,726.56	78.216	6,726.56	79.8278	6,726.56	76.3192	6,726.56	78.2326	6,726.56	74.2512	6,726.56	75.1295	6,726.56	69.9656	6,726.56	71.1472	6,726.56	70.1315	6,726.56	67.558	6,726.56	65.7993	6,726.56	66.2344	6,726.56	64.775	6,726.56	64.7193	6,726.56	59.0324	6,726.56	60.8794	6,726.56	58.5181	6,726.56	63.5973	6,726.56	56.6576	6,726.56	60.3249	6,726.56	55.9016	6,726.56	55.9963	6,726.56	50.6772	6,726.56	54.8035	6,726.56	50.1256	6,726.56	46.4662	6,726.56	52.1627	6,726.56	52.6173	6,726.56	56.2492
6,963.87	78.5077	6,963.87	78.8386	6,963.87	77.8005	6,963.87	78.6787	6,963.87	78.5052	6,963.87	78.468	6,963.87	77.9828	6,963.87	78.3444	6,963.87	78.7511	6,963.87	75.5108	6,963.87	77.6075	6,963.87	74.783	6,963.87	73.8141	6,963.87	71.2202	6,963.87	71.5485	6,963.87	67.0754	6,963.87	69.3018	6,963.87	66.4599	6,963.87	66.7491	6,963.87	62.2096	6,963.87	63.764	6,963.87	63.1425	6,963.87	63.7	6,963.87	60.6664	6,963.87	62.2714	6,963.87	57.5545	6,963.87	57.817	6,963.87	54.4808	6,963.87	58.685	6,963.87	42.302	6,963.87	55.0843	6,963.87	41.0747	6,963.87	49.7119	6,963.87	53.4695	6,963.87	55.4731	6,963.87	57.1824
7,209.96	78.2437	7,209.96	78.5735	7,209.96	79.2372	7,209.96	79.0804	7,209.96	78.148	7,209.96	79.7635	7,209.96	79.5099	7,209.96	79.6198	7,209.96	78.9279	7,209.96	78.4302	7,209.96	76.4244	7,209.96	73.1167	7,209.96	75.2024	7,209.96	72.5619	7,209.96	73.9229	7,209.96	70.2008	7,209.96	72.0101	7,209.96	68.1427	7,209.96	69.6967	7,209.96	65.4872	7,209.96	66.0859	7,209.96	64.9663	7,209.96	65.1848	7,209.96	61.7927	7,209.96	64.1759	7,209.96	59.6827	7,209.96	62.0896	7,209.96	55.0856	7,209.96	60.2241	7,209.96	55.4035	7,209.96	60.9963	7,209.96	47.1788	7,209.96	54.7656	7,209.96	56.1999	7,209.96	56.2082	7,209.96	59.7878
7,464.84	79.8098	7,464.84	78.8336	7,464.84	78.9258	7,464.84	79.4908	7,464.84	78.9015	7,464.84	80.2013	7,464.84	79.2229	7,464.84	79.5842	7,464.84	79.0576	7,464.84	76.6544	7,464.84	76.7567	7,464.84	75.2922	7,464.84	75.335	7,464.84	73.7248	7,464.84	74.4665	7,464.84	71.6225	7,464.84	73.4438	7,464.84	68.4722	7,464.84	70.6928	7,464.84	66.5294	7,464.84	66.9593	7,464.84	63.9801	7,464.84	66.0441	7,464.84	62.9801	7,464.84	64.0373	7,464.84	60.975	7,464.84	63.7748	7,464.84	58.1772	7,464.84	61.0367	7,464.84	56.0246	7,464.84	58.2589	7,464.84	51.7381	7,464.84	53.1148	7,464.84	58.1664	7,464.84	59.1186	7,464.84	59.7241
7,727.05	79.7947	7,727.05	78.7465	7,727.05	79.1585	7,727.05	78.5858	7,727.05	78.3835	7,727.05	79.9171	7,727.05	79.3582	7,727.05	78.733	7,727.05	77.208	7,727.05	76.8691	7,727.05	76.5177	7,727.05	75.8867	7,727.05	76.0271	7,727.05	73.8761	7,727.05	75.8743	7,727.05	71.7628	7,727.05	72.7618	7,727.05	67.4142	7,727.05	69.5048	7,727.05	65.7114	7,727.05	66.9436	7,727.05	63.2791	7,727.05	65.7302	7,727.05	62.7692	7,727.05	62.5788	7,727.05	63.0134	7,727.05	64.3719	7,727.05	58.6283	7,727.05	60.6877	7,727.05	56.0069	7,727.05	56.7579	7,727.05	50.4312	7,727.05	41.2761	7,727.05	56.4586	7,727.05	59.5655	7,727.05	58.1424
7,999.51	80.0065	7,999.51	79.0618	7,999.51	78.2822	7,999.51	78.5396	7,999.51	79.059	7,999.51	78.953	7,999.51	79.0258	7,999.51	77.9278	7,999.51	76.5471	7,999.51	76.5015	7,999.51	76.473	7,999.51	75.5963	7,999.51	76.821	7,999.51	73.4769	7,999.51	74.6096	7,999.51	71.0786	7,999.51	72.2059	7,999.51	67.2001	7,999.51	68.1134	7,999.51	65.2917	7,999.51	66.1427	7,999.51	60.3682	7,999.51	62.019	7,999.51	61.4148	7,999.51	62.1955	7,999.51	59.8711	7,999.51	63.7602	7,999.51	58.0628	7,999.51	59.2644	7,999.51	59.0211	7,999.51	57.0308	7,999.51	48.1448	7,999.51	51.2749	7,999.51	56.9418	7,999.51	57.4964	7,999.51	56.4246
8,282.23	80.0384	8,282.23	79.5776	8,282.23	78.5551	8,282.23	78.8569	8,282.23	79.1884	8,282.23	78.7329	8,282.23	78.5021	8,282.23	77.3704	8,282.23	76.7132	8,282.23	77.019	8,282.23	77.284	8,282.23	76.5902	8,282.23	77.0634	8,282.23	73.5772	8,282.23	74.8262	8,282.23	70.0433	8,282.23	69.7542	8,282.23	67.0658	8,282.23	67.5641	8,282.23	63.7903	8,282.23	65.4217	8,282.23	59.1967	8,282.23	61.1844	8,282.23	58.7869	8,282.23	61.2422	8,282.23	59.3473	8,282.23	56.6347	8,282.23	56.0842	8,282.23	57.736	8,282.23	57.0303	8,282.23	56.8799	8,282.23	45.1868	8,282.23	49.5782	8,282.23	54.8806	8,282.23	57.2051	8,282.23	55.8004
8,573.73	80.2561	8,573.73	79.7559	8,573.73	79.3868	8,573.73	79.8588	8,573.73	79.453	8,573.73	78.4747	8,573.73	78.2172	8,573.73	77.4485	8,573.73	77.155	8,573.73	78.0249	8,573.73	77.7533	8,573.73	76.3159	8,573.73	76.6849	8,573.73	74.193	8,573.73	73.6358	8,573.73	69.81	8,573.73	71.2054	8,573.73	67.3612	8,573.73	67.9556	8,573.73	63.3771	8,573.73	64.7092	8,573.73	60.9174	8,573.73	62.3349	8,573.73	60.052	8,573.73	61.0935	8,573.73	58.1211	8,573.73	57.7493	8,573.73	57.0047	8,573.73	57.915	8,573.73	58.4337	8,573.73	57.9314	8,573.73	47.0866	8,573.73	48.9416	8,573.73	54.7289	8,573.73	56.1845	8,573.73	56.233
8,876.95	79.9181	8,876.95	80.5881	8,876.95	80.4445	8,876.95	80.1078	8,876.95	79.7106	8,876.95	78.262	8,876.95	77.7054	8,876.95	78.0564	8,876.95	77.4191	8,876.95	78.2786	8,876.95	77.9354	8,876.95	76.8877	8,876.95	76.3346	8,876.95	73.8225	8,876.95	74.2493	8,876.95	70.6478	8,876.95	70.8673	8,876.95	68.2068	8,876.95	68.3963	8,876.95	64.41	8,876.95	64.6396	8,876.95	63.1494	8,876.95	63.8815	8,876.95	60.2636	8,876.95	61.2386	8,876.95	59.4636	8,876.95	53.9776	8,876.95	58.2134	8,876.95	56.2001	8,876.95	57.0089	8,876.95	58.8445	8,876.95	50.5829	8,876.95	54.461	8,876.95	55.6936	8,876.95	54.7467	8,876.95	55.8768
9,188.96	79.9951	9,188.96	80.7297	9,188.96	80.8813	9,188.96	80.1061	9,188.96	79.7462	9,188.96	78.3091	9,188.96	78.112	9,188.96	78.6324	9,188.96	78.1071	9,188.96	78.3604	9,188.96	77.527	9,188.96	76.3902	9,188.96	76.062	9,188.96	73.904	9,188.96	73.851	9,188.96	70.91	9,188.96	71.3488	9,188.96	66.388	9,188.96	67.4286	9,188.96	64.3722	9,188.96	63.8917	9,188.96	59.7778	9,188.96	63.009	9,188.96	60.6355	9,188.96	59.9041	9,188.96	60.7058	9,188.96	58.0019	9,188.96	58.5207	9,188.96	58.3521	9,188.96	55.5587	9,188.96	58.851	9,188.96	51.3549	9,188.96	54.5551	9,188.96	54.9596	9,188.96	55.0105	9,188.96	54.8305
9,514.16	79.1427	9,514.16	80.2924	9,514.16	80.5552	9,514.16	79.9101	9,514.16	79.4608	9,514.16	78.8393	9,514.16	78.494	9,514.16	78.7057	9,514.16	78.2105	9,514.16	77.5532	9,514.16	77.1685	9,514.16	75.7823	9,514.16	75.1964	9,514.16	71.7353	9,514.16	72.1781	9,514.16	69.8889	9,514.16	69.7294	9,514.16	65.107	9,514.16	65.5328	9,514.16	64.058	9,514.16	63.6416	9,514.16	58.5205	9,514.16	60.8592	9,514.16	57.9829	9,514.16	59.1487	9,514.16	57.6256	9,514.16	56.449	9,514.16	58.0178	9,514.16	57.8362	9,514.16	54.9798	9,514.16	56.1489	9,514.16	46.5756	9,514.16	53.3317	9,514.16	54.5763	9,514.16	53.5025	9,514.16	51.5169
9,849.61	79.0068	9,849.61	80.1001	9,849.61	80.6404	9,849.61	79.5302	9,849.61	79.2995	9,849.61	78.7551	9,849.61	78.5205	9,849.61	77.4829	9,849.61	77.9686	9,849.61	76.6113	9,849.61	75.8408	9,849.61	74.1758	9,849.61	74.1964	9,849.61	70.9314	9,849.61	71.4339	9,849.61	68.102	9,849.61	68.8427	9,849.61	64.565	9,849.61	65.1698	9,849.61	60.9706	9,849.61	62.186	9,849.61	60.1409	9,849.61	58.5224	9,849.61	57.3419	9,849.61	57.6013	9,849.61	49.8519	9,849.61	52.3461	9,849.61	55.6283	9,849.61	56.7767	9,849.61	54.8581	9,849.61	53.5286	9,849.61	45.9596	9,849.61	50.7602	9,849.61	53.0811	9,849.61	51.1302	9,849.61	50.17
10,196.8	78.9956	10,196.8	80.035	10,196.8	80.1953	10,196.8	79.2543	10,196.8	79.091	10,196.8	78.7831	10,196.8	78.421	10,196.8	77.4791	10,196.8	77.8503	10,196.8	75.8147	10,196.8	75.4773	10,196.8	73.5267	10,196.8	72.9545	10,196.8	70.6463	10,196.8	70.0231	10,196.8	66.437	10,196.8	67.3193	10,196.8	62.9084	10,196.8	63.2853	10,196.8	60.1688	10,196.8	59.2321	10,196.8	58.1746	10,196.8	58.9324	10,196.8	53.4672	10,196.8	57.0306	10,196.8	54.7038	10,196.8	48.0101	10,196.8	56.5946	10,196.8	54.5604	10,196.8	54.2471	10,196.8	53.0743	10,196.8	46.312	10,196.8	48.1378	10,196.8	49.022	10,196.8	46.5143	10,196.8	48.1318
10,555.7	79.3137	10,555.7	79.9571	10,555.7	79.8021	10,555.7	78.9015	10,555.7	79.1917	10,555.7	78.8656	10,555.7	79.119	10,555.7	77.508	10,555.7	77.5944	10,555.7	75.8626	10,555.7	75.3349	10,555.7	72.4819	10,555.7	72.6558	10,555.7	69.0653	10,555.7	69.5654	10,555.7	66.6418	10,555.7	66.6436	10,555.7	62.9431	10,555.7	63.802	10,555.7	61.9894	10,555.7	58.722	10,555.7	58.7178	10,555.7	59.0413	10,555.7	55.8392	10,555.7	55.1526	10,555.7	54.7391	10,555.7	53.2124	10,555.7	54.6627	10,555.7	53.5545	10,555.7	54.3325	10,555.7	54.9143	10,555.7	46.516	10,555.7	49.5348	10,555.7	52.5469	10,555.7	50.1529	10,555.7	50.3834
10,927.7	79.8624	10,927.7	79.4012	10,927.7	79.617	10,927.7	78.8212	10,927.7	78.6378	10,927.7	78.6088	10,927.7	78.43	10,927.7	77.3156	10,927.7	77.1949	10,927.7	76.2177	10,927.7	75.5969	10,927.7	73.836	10,927.7	73.5733	10,927.7	70.9741	10,927.7	71.2843	10,927.7	68.9988	10,927.7	67.9293	10,927.7	64.507	10,927.7	64.9232	10,927.7	62.3099	10,927.7	59.8752	10,927.7	57.833	10,927.7	58.8556	10,927.7	57.2197	10,927.7	56.8198	10,927.7	54.4135	10,927.7	58.0464	10,927.7	55.5953	10,927.7	54.6101	10,927.7	52.8084	10,927.7	54.6682	10,927.7	49.9095	10,927.7	53.027	10,927.7	54.2932	10,927.7	49.7315	10,927.7	49.6682
11,313	80.9634	11,313	79.0537	11,313	79.3634	11,313	79.3289	11,313	78.9032	11,313	78.0332	11,313	77.896	11,313	77.5636	11,313	77.4349	11,313	76.54	11,313	75.6361	11,313	74.3949	11,313	74.3316	11,313	73.0044	11,313	72.9599	11,313	69.5769	11,313	69.0921	11,313	66.2744	11,313	65.8262	11,313	62.1241	11,313	60.0458	11,313	56.7091	11,313	58.1747	11,313	57.9932	11,313	54.3274	11,313	54.3574	11,313	60.2291	11,313	56.8828	11,313	54.8354	11,313	53.1636	11,313	52.0637	11,313	51.6275	11,313	51.3754	11,313	51.7199	11,313	48.5407	11,313	47.4237
11,712.9	81.125	11,712.9	79.2584	11,712.9	79.1209	11,712.9	79.4622	11,712.9	79.5273	11,712.9	78.3434	11,712.9	77.7563	11,712.9	78.1817	11,712.9	77.4404	11,712.9	75.8131	11,712.9	75.8812	11,712.9	75.8731	11,712.9	74.3698	11,712.9	73.7209	11,712.9	72.2743	11,712.9	69.9505	11,712.9	68.6147	11,712.9	64.0907	11,712.9	64.0867	11,712.9	62.1207	11,712.9	59.6701	11,712.9	56.0875	11,712.9	58.4899	11,712.9	54.7867	11,712.9	54.0783	11,712.9	54.4712	11,712.9	56.0447	11,712.9	56.9801	11,712.9	55.7805	11,712.9	50.8765	11,712.9	53.2049	11,712.9	50.8028	11,712.9	51.0685	11,712.9	51.8868	11,712.9	47.7376	11,712.9	43.2528
12,126	81.1943	12,126	78.9865	12,126	79.5498	12,126	79.5753	12,126	79.6669	12,126	78.0889	12,126	77.8344	12,126	78.0159	12,126	76.8878	12,126	75.9626	12,126	76.2937	12,126	75.5777	12,126	75.289	12,126	72.3874	12,126	72.8937	12,126	68.005	12,126	67.529	12,126	63.6173	12,126	63.7498	12,126	61.3849	12,126	58.6863	12,126	53.9722	12,126	55.6013	12,126	55.2912	12,126	55.0314	12,126	58.5254	12,126	57.0475	12,126	53.4904	12,126	53.6897	12,126	45.5844	12,126	50.4244	12,126	49.5731	12,126	50.1341	12,126	50.6791	12,126	48.0483	12,126	44.6152
12,553.7	81.0746	12,553.7	80.0372	12,553.7	79.6415	12,553.7	79.8542	12,553.7	79.0751	12,553.7	79.0197	12,553.7	78.3988	12,553.7	76.5391	12,553.7	75.9287	12,553.7	76.9453	12,553.7	75.8613	12,553.7	76.0203	12,553.7	75.7122	12,553.7	72.701	12,553.7	71.9678	12,553.7	66.6901	12,553.7	68.2495	12,553.7	62.9381	12,553.7	63.4824	12,553.7	59.5346	12,553.7	57.9585	12,553.7	55.9837	12,553.7	57.3664	12,553.7	52.8063	12,553.7	53.8789	12,553.7	54.4453	12,553.7	50.2456	12,553.7	54.398	12,553.7	50.3618	12,553.7	43.4469	12,553.7	40.5176	12,553.7	48.7918	12,553.7	44.0738	12,553.7	53.0618	12,553.7	49.6923	12,553.7	41.9531
12,996.1	81.014	12,996.1	80.7547	12,996.1	80.5745	12,996.1	79.855	12,996.1	79.1772	12,996.1	79.9777	12,996.1	79.1669	12,996.1	76.3385	12,996.1	75.4203	12,996.1	77.9188	12,996.1	77.1825	12,996.1	75.6748	12,996.1	75.1993	12,996.1	71.2987	12,996.1	71.213	12,996.1	68.1563	12,996.1	67.9245	12,996.1	62.1437	12,996.1	64.1801	12,996.1	59.1596	12,996.1	60.4034	12,996.1	57.9401	12,996.1	57.2343	12,996.1	55.4139	12,996.1	52.0549	12,996.1	56.8708	12,996.1	52.455	12,996.1	52.7287	12,996.1	48.234	12,996.1	45.7246	12,996.1	42.8304	12,996.1	45.6996	12,996.1	40.6968	12,996.1	50.5856	12,996.1	49.0959	12,996.1	45.8246
13,454.6	81.3113	13,454.6	81.5792	13,454.6	81.7683	13,454.6	80.6567	13,454.6	80.1086	13,454.6	80.3366	13,454.6	79.5564	13,454.6	78.2039	13,454.6	77.9156	13,454.6	78.2204	13,454.6	77.5473	13,454.6	75.2795	13,454.6	75.3358	13,454.6	71.9299	13,454.6	72.8815	13,454.6	67.4531	13,454.6	68.8831	13,454.6	63.3069	13,454.6	64.1138	13,454.6	59.416	13,454.6	60.586	13,454.6	53.4146	13,454.6	56.1102	13,454.6	55.5247	13,454.6	50.6359	13,454.6	55.9204	13,454.6	54.2764	13,454.6	53.03	13,454.6	51.7691	13,454.6	34.6525	13,454.6	42.4428	13,454.6	44.1321	13,454.6	43.0981	13,454.6	42.4986	13,454.6	45.4518	13,454.6	43.812
13,929.2	81.3815	13,929.2	82.349	13,929.2	82.2458	13,929.2	81.4871	13,929.2	81.1691	13,929.2	80.7893	13,929.2	79.9264	13,929.2	80.2649	13,929.2	79.9716	13,929.2	77.7448	13,929.2	77.061	13,929.2	76.3022	13,929.2	75.7557	13,929.2	73.2419	13,929.2	73.3521	13,929.2	68.4216	13,929.2	69.5674	13,929.2	64.0682	13,929.2	64.0896	13,929.2	60.8391	13,929.2	59.6628	13,929.2	55.5295	13,929.2	56.8641	13,929.2	53.5735	13,929.2	53.9325	13,929.2	51.6378	13,929.2	46.5528	13,929.2	55.2973	13,929.2	49.2799	13,929.2	44.8081	13,929.2	42.7266	13,929.2	41.3837	13,929.2	43.5116	13,929.2	42.1607	13,929.2	42.6878	13,929.2	46.7366
14,419.9	81.5744	14,419.9	82.7794	14,419.9	82.4912	14,419.9	81.6666	14,419.9	81.7429	14,419.9	81.2409	14,419.9	80.7323	14,419.9	80.9908	14,419.9	80.6636	14,419.9	77.5484	14,419.9	76.4224	14,419.9	76.5547	14,419.9	75.6993	14,419.9	73.7364	14,419.9	72.7759	14,419.9	69.1412	14,419.9	68.5896	14,419.9	63.6945	14,419.9	62.9737	14,419.9	61.5512	14,419.9	58.4799	14,419.9	55.5655	14,419.9	54.0657	14,419.9	54.8829	14,419.9	56.0877	14,419.9	52.1975	14,419.9	52.8812	14,419.9	53.9174	14,419.9	50.2645	14,419.9	45.222	14,419.9	44.8278	14,419.9	34.1573	14,419.9	48.002	14,419.9	43.4886	14,419.9	36.6305	14,419.9	44.7121
14,928.2	82.3812	14,928.2	83.549	14,928.2	83.1127	14,928.2	82.8918	14,928.2	82.6642	14,928.2	83.1107	14,928.2	82.2828	14,928.2	81.6457	14,928.2	80.7325	14,928.2	78.8021	14,928.2	77.3559	14,928.2	76.9322	14,928.2	75.9047	14,928.2	74.2097	14,928.2	72.974	14,928.2	70.3101	14,928.2	68.8984	14,928.2	64.0641	14,928.2	64.8866	14,928.2	62.4088	14,928.2	59.1692	14,928.2	57.0852	14,928.2	57.4576	14,928.2	55.6429	14,928.2	57.8536	14,928.2	54.5452	14,928.2	52.8404	14,928.2	50.2337	14,928.2	50.1825	14,928.2	40.2094	14,928.2	47.8766	14,928.2	40.8389	14,928.2	39.9206	14,928.2	49.0346	14,928.2	46.2908	14,928.2	41.6818
15,455.6	83.7484	15,455.6	84.8257	15,455.6	84.3785	15,455.6	84.5235	15,455.6	84.3745	15,455.6	84.7083	15,455.6	84	15,455.6	81.9686	15,455.6	81.34	15,455.6	80.156	15,455.6	79.63	15,455.6	78.4049	15,455.6	77.9308	15,455.6	76.5533	15,455.6	76.3654	15,455.6	72.677	15,455.6	72.3826	15,455.6	68.9095	15,455.6	68.5593	15,455.6	61.5211	15,455.6	62.7627	15,455.6	62.0469	15,455.6	61.0991	15,455.6	61.7208	15,455.6	60.7922	15,455.6	59.3021	15,455.6	43.0631	15,455.6	54.657	15,455.6	54.5888	15,455.6	47.5707	15,455.6	53.7451	15,455.6	49.1783	15,455.6	53.4735	15,455.6	53.1927	15,455.6	48.2954	15,455.6	43.1197
16,000.5	86.0043	16,000.5	85.7759	16,000.5	85.8598	16,000.5	86.5072	16,000.5	86.1668	16,000.5	85.3018	16,000.5	84.9305	16,000.5	83.264	16,000.5	82.8283	16,000.5	82.9307	16,000.5	82.6501	16,000.5	81.6076	16,000.5	81.1519	16,000.5	80.7153	16,000.5	79.8716	16,000.5	76.7155	16,000.5	77.4663	16,000.5	72.5221	16,000.5	73.171	16,000.5	68.0821	16,000.5	68.3903	16,000.5	66.3489	16,000.5	66.3079	16,000.5	64.9382	16,000.5	64.0451	16,000.5	60.2475	16,000.5	47.0355	16,000.5	57.6853	16,000.5	57.9515	16,000.5	49.9663	16,000.5	59.0582	16,000.5	51.2447	16,000.5	59.1916	16,000.5	55.0218	16,000.5	48.3126	16,000.5	51.5906
16,564.5	86.4038	16,564.5	84.1851	16,564.5	84.5849	16,564.5	85.2326	16,564.5	84.7226	16,564.5	81.1424	16,564.5	81.3855	16,564.5	83.0322	16,564.5	82.7102	16,564.5	82.2157	16,564.5	81.298	16,564.5	81.2941	16,564.5	81.3545	16,564.5	80.1052	16,564.5	80.7078	16,564.5	77.4735	16,564.5	78.2994	16,564.5	72.5182	16,564.5	73.2831	16,564.5	67.8902	16,564.5	69.031	16,564.5	65.5589	16,564.5	66.5633	16,564.5	64.8974	16,564.5	63.3169	16,564.5	61.6169	16,564.5	56.5823	16,564.5	58.3779	16,564.5	57.8336	16,564.5	49.1478	16,564.5	58.2218	16,564.5	51.672	16,564.5	59.0323	16,564.5	53.896	16,564.5	53.944	16,564.5	53.5506
17,148.9	84.3809	17,148.9	82.3646	17,148.9	82.7536	17,148.9	80.8421	17,148.9	80.6058	17,148.9	78.1293	17,148.9	78.2107	17,148.9	78.3447	17,148.9	76.9938	17,148.9	76.1816	17,148.9	75.4211	17,148.9	75.8058	17,148.9	76.8412	17,148.9	75.7899	17,148.9	76.2778	17,148.9	72.1015	17,148.9	73.4839	17,148.9	66.9173	17,148.9	68.2014	17,148.9	62.3999	17,148.9	63.4531	17,148.9	59.4832	17,148.9	61.1659	17,148.9	59.2057	17,148.9	57.1739	17,148.9	53.9843	17,148.9	55.1422	17,148.9	53.8739	17,148.9	52.3166	17,148.9	46.2211	17,148.9	54.2071	17,148.9	43.7334	17,148.9	52.0563	17,148.9	42.0964	17,148.9	49.1082	17,148.9	52.7785
17,752.4	83.1829	17,752.4	82.4228	17,752.4	82.4077	17,752.4	80.2115	17,752.4	79.5027	17,752.4	78.4908	17,752.4	77.2786	17,752.4	73.4433	17,752.4	70.6634	17,752.4	71.7145	17,752.4	69.3337	17,752.4	71.4586	17,752.4	71.4563	17,752.4	70.9463	17,752.4	71.497	17,752.4	67.0441	17,752.4	67.3004	17,752.4	62.5724	17,752.4	62.8933	17,752.4	57.5563	17,752.4	57.7151	17,752.4	56.4414	17,752.4	57.2362	17,752.4	52.0967	17,752.4	53.5434	17,752.4	50.5709	17,752.4	51.8227	17,752.4	49.9484	17,752.4	47.4741	17,752.4	46.8649	17,752.4	52.3677	17,752.4	39.0698	17,752.4	45.7669	17,752.4	42.5345	17,752.4	43.8413	17,752.4	49.5716
18,379.4	82.0806	18,379.4	81.9499	18,379.4	81.9337	18,379.4	80.5151	18,379.4	79.8045	18,379.4	78.9463	18,379.4	77.6415	18,379.4	73.8057	18,379.4	72.4286	18,379.4	72.7268	18,379.4	69.3903	18,379.4	69.3182	18,379.4	67.5332	18,379.4	66.9385	18,379.4	66.229	18,379.4	65.785	18,379.4	65.4895	18,379.4	60.4608	18,379.4	60.1623	18,379.4	55.9602	18,379.4	56.329	18,379.4	55.9233	18,379.4	54.3025	18,379.4	50.926	18,379.4	47.9054	18,379.4	44.3442	18,379.4	42.8346	18,379.4	43.2676	18,379.4	45.8703	18,379.4	42.837	18,379.4	48.2289	18,379.4	36.2995	18,379.4	41.0425	18,379.4	43.2046	18,379.4	34.159	18,379.4	42.9296
19,026.9	79.8737	19,026.9	79.5087	19,026.9	79.4161	19,026.9	77.9961	19,026.9	77.6904	19,026.9	76.0183	19,026.9	74.8202	19,026.9	72.2904	19,026.9	71.9255	19,026.9	70.5277	19,026.9	67.2831	19,026.9	68.1276	19,026.9	65.0726	19,026.9	67.6615	19,026.9	66.7141	19,026.9	66.3524	19,026.9	65.4122	19,026.9	61.0417	19,026.9	60.3032	19,026.9	57.3001	19,026.9	56.7591	19,026.9	53.5647	19,026.9	52.3409	19,026.9	52.4764	19,026.9	46.7362	19,026.9	45.5902	19,026.9	36.9141	19,026.9	40.2357	19,026.9	43.9133	19,026.9	39.6533	19,026.9	45.8367	19,026.9	40.4409	19,026.9	40.5487	19,026.9	43.249	19,026.9	35.1589	19,026.9	42.0861
19,697.8	76.4791	19,697.8	75.9315	19,697.8	76.0441	19,697.8	74.6865	19,697.8	74.8441	19,697.8	72.1464	19,697.8	71.1322	19,697.8	69.7159	19,697.8	69.1251	19,697.8	66.8266	19,697.8	63.3902	19,697.8	65.1853	19,697.8	63.8875	19,697.8	64.5097	19,697.8	64.677	19,697.8	62.5811	19,697.8	62.1929	19,697.8	56.4341	19,697.8	56.9141	19,697.8	52.3456	19,697.8	51.7556	19,697.8	46.9603	19,697.8	47.7353	19,697.8	46.6337	19,697.8	41.277	19,697.8	40.9678	19,697.8	43.8435	19,697.8	34.0587	19,697.8	38.8506	19,697.8	35.6267	19,697.8	39.1755	19,697.8	40.4168	19,697.8	30.2239	19,697.8	38.4514	19,697.8	22.8156	19,697.8	38.5792
19,999.5	75.0221	19,999.5	74.2595	19,999.5	74.5552	19,999.5	72.1288	19,999.5	72.7881	19,999.5	69.0021	19,999.5	67.7098	19,999.5	66.502	19,999.5	66.1421	19,999.5	65.0335	19,999.5	61.4902	19,999.5	64.3772	19,999.5	62.5976	19,999.5	62.9928	19,999.5	63.4845	19,999.5	61.0764	19,999.5	60.4938	19,999.5	53.5949	19,999.5	54.2613	19,999.5	50.9428	19,999.5	42.1379	19,999.5	39.7369	19,999.5	47.0059	19,999.5	41.149	19,999.5	39.9415	19,999.5	44.4871	19,999.5	45.5145	19,999.5	29	19,999.5	39.0108	19,999.5	37.034	19,999.5	38.162	19,999.5	32.3799	19,999.5	30.2524	19,999.5	37.0137	19,999.5	36.4173	19,999.5	31.7517
