"SPL Vertical"
"On-Axis"		"10°"		"-10°"		"20°"		"-20°"		"30°"		"-30°"		"40°"		"-40°"		"50°"		"-50°"		"60°"		"-60°"		"70°"		"-70°"		"80°"		"-80°"		"90°"		"-90°"		"100°"		"-100°"		"110°"		"-110°"		"120°"		"-120°"		"130°"		"-130°"		"140°"		"-140°"		"150°"		"-150°"		"160°"		"-160°"		"170°"		"-170°"		"180°"
"Frequency [Hz]"	"Sound Pessure Level [dB]    /[0.3V at 1m]"	"Frequency [Hz]"	"Sound Pessure Level [dB]    /[0.3V at 1m]"	"Frequency [Hz]"	"Sound Pessure Level [dB]    /[0.3V at 1m]"	"Frequency [Hz]"	"Sound Pessure Level [dB]    /[0.3V at 1m]"	"Frequency [Hz]"	"Sound Pessure Level [dB]    /[0.3V at 1m]"	"Frequency [Hz]"	"Sound Pessure Level [dB]    /[0.3V at 1m]"	"Frequency [Hz]"	"Sound Pessure Level [dB]    /[0.3V at 1m]"	"Frequency [Hz]"	"Sound Pessure Level [dB]    /[0.3V at 1m]"	"Frequency [Hz]"	"Sound Pessure Level [dB]    /[0.3V at 1m]"	"Frequency [Hz]"	"Sound Pessure Level [dB]    /[0.3V at 1m]"	"Frequency [Hz]"	"Sound Pessure Level [dB]    /[0.3V at 1m]"	"Frequency [Hz]"	"Sound Pessure Level [dB]    /[0.3V at 1m]"	"Frequency [Hz]"	"Sound Pessure Level [dB]    /[0.3V at 1m]"	"Frequency [Hz]"	"Sound Pessure Level [dB]    /[0.3V at 1m]"	"Frequency [Hz]"	"Sound Pessure Level [dB]    /[0.3V at 1m]"	"Frequency [Hz]"	"Sound Pessure Level [dB]    /[0.3V at 1m]"	"Frequency [Hz]"	"Sound Pessure Level [dB]    /[0.3V at 1m]"	"Frequency [Hz]"	"Sound Pessure Level [dB]    /[0.3V at 1m]"	"Frequency [Hz]"	"Sound Pessure Level [dB]    /[0.3V at 1m]"	"Frequency [Hz]"	"Sound Pessure Level [dB]    /[0.3V at 1m]"	"Frequency [Hz]"	"Sound Pessure Level [dB]    /[0.3V at 1m]"	"Frequency [Hz]"	"Sound Pessure Level [dB]    /[0.3V at 1m]"	"Frequency [Hz]"	"Sound Pessure Level [dB]    /[0.3V at 1m]"	"Frequency [Hz]"	"Sound Pessure Level [dB]    /[0.3V at 1m]"	"Frequency [Hz]"	"Sound Pessure Level [dB]    /[0.3V at 1m]"	"Frequency [Hz]"	"Sound Pessure Level [dB]    /[0.3V at 1m]"	"Frequency [Hz]"	"Sound Pessure Level [dB]    /[0.3V at 1m]"	"Frequency [Hz]"	"Sound Pessure Level [dB]    /[0.3V at 1m]"	"Frequency [Hz]"	"Sound Pessure Level [dB]    /[0.3V at 1m]"	"Frequency [Hz]"	"Sound Pessure Level [dB]    /[0.3V at 1m]"	"Frequency [Hz]"	"Sound Pessure Level [dB]    /[0.3V at 1m]"	"Frequency [Hz]"	"Sound Pessure Level [dB]    /[0.3V at 1m]"	"Frequency [Hz]"	"Sound Pessure Level [dB]    /[0.3V at 1m]"	"Frequency [Hz]"	"Sound Pessure Level [dB]    /[0.3V at 1m]"	"Frequency [Hz]"	"Sound Pessure Level [dB]    /[0.3V at 1m]"	"Frequency [Hz]"	"Sound Pessure Level [dB]    /[0.3V at 1m]"
20.5078	62.6345	20.5078	62.5946	20.5078	62.6883	20.5078	62.5683	20.5078	62.7556	20.5078	62.5547	20.5078	62.8353	20.5078	62.5524	20.5078	62.9252	20.5078	62.5594	20.5078	63.0226	20.5078	62.5739	20.5078	63.1239	20.5078	62.5942	20.5078	63.225	20.5078	62.6187	20.5078	63.3209	20.5078	62.6469	20.5078	63.4062	20.5078	62.6787	20.5078	63.4756	20.5078	62.7149	20.5078	63.524	20.5078	62.757	20.5078	63.5474	20.5078	62.8068	20.5078	63.5438	20.5078	62.8661	20.5078	63.5131	20.5078	62.936	20.5078	63.458	20.5078	63.0164	20.5078	63.3832	20.5078	63.1057	20.5078	63.295	20.5078	63.2004
21.9727	55.9657	21.9727	55.8453	21.9727	56.0705	21.9727	55.7121	21.9727	56.1566	21.9727	55.5684	21.9727	56.2209	21.9727	55.4162	21.9727	56.2606	21.9727	55.2573	21.9727	56.2732	21.9727	55.0932	21.9727	56.2572	21.9727	54.926	21.9727	56.212	21.9727	54.7584	21.9727	56.1383	21.9727	54.5946	21.9727	56.0376	21.9727	54.4402	21.9727	55.912	21.9727	54.3026	21.9727	55.7638	21.9727	54.1904	21.9727	55.5954	21.9727	54.1126	21.9727	55.4094	21.9727	54.0771	21.9727	55.2094	21.9727	54.0894	21.9727	55.0009	21.9727	54.1513	21.9727	54.7914	21.9727	54.2603	21.9727	54.5907	21.9727	54.4099
23.4375	53.3513	23.4375	53.2809	23.4375	53.4297	23.4375	53.2181	23.4375	53.5177	23.4375	53.1632	23.4375	53.617	23.4375	53.1176	23.4375	53.7299	23.4375	53.0839	23.4375	53.8583	23.4375	53.0658	23.4375	54.0028	23.4375	53.068	23.4375	54.1623	23.4375	53.0959	23.4375	54.3332	23.4375	53.1553	23.4375	54.5089	23.4375	53.2504	23.4375	54.6803	23.4375	53.3836	23.4375	54.8369	23.4375	53.5533	23.4375	54.9675	23.4375	53.754	23.4375	55.0622	23.4375	53.9763	23.4375	55.1131	23.4375	54.2078	23.4375	55.1154	23.4375	54.4352	23.4375	55.0671	23.4375	54.6454	23.4375	54.9695	23.4375	54.8266
24.9023	52.6757	24.9023	52.6658	24.9023	52.7067	24.9023	52.6776	24.9023	52.7587	24.9023	52.7121	24.9023	52.8321	24.9023	52.77	24.9023	52.9278	24.9023	52.8518	24.9023	53.0472	24.9023	52.9575	24.9023	53.1908	24.9023	53.0863	24.9023	53.3584	24.9023	53.2365	24.9023	53.5472	24.9023	53.4054	24.9023	53.7521	24.9023	53.5894	24.9023	53.9649	24.9023	53.7833	24.9023	54.1755	24.9023	53.9811	24.9023	54.3731	24.9023	54.1756	24.9023	54.5472	24.9023	54.3593	24.9023	54.689	24.9023	54.5245	24.9023	54.7919	24.9023	54.6638	24.9023	54.8521	24.9023	54.7707	24.9023	54.868	24.9023	54.8401
26.3672	49.8197	26.3672	49.8359	26.3672	49.8141	26.3672	49.8658	26.3672	49.819	26.3672	49.9146	26.3672	49.8384	26.3672	49.9886	26.3672	49.8799	26.3672	50.0939	26.3672	49.9551	26.3672	50.236	26.3672	50.0766	26.3672	50.4179	26.3672	50.2558	26.3672	50.64	26.3672	50.4983	26.3672	50.8993	26.3672	50.8006	26.3672	51.1889	26.3672	51.1494	26.3672	51.4987	26.3672	51.5233	26.3672	51.8159	26.3672	51.8971	26.3672	52.1255	26.3672	52.2461	26.3672	52.4124	26.3672	52.5491	26.3672	52.6617	26.3672	52.7902	26.3672	52.86	26.3672	52.9588	26.3672	52.996	26.3672	53.0495	26.3672	53.0611
27.832	53.0074	27.832	52.9215	27.832	53.1001	27.832	52.8492	27.832	53.1948	27.832	52.7991	27.832	53.2898	27.832	52.7803	27.832	53.3859	27.832	52.8016	27.832	53.487	27.832	52.87	27.832	53.5991	27.832	52.9896	27.832	53.7294	27.832	53.1607	27.832	53.8841	27.832	53.3791	27.832	54.0664	27.832	53.6365	27.832	54.2745	27.832	53.9207	27.832	54.5009	27.832	54.2175	27.832	54.7333	27.832	54.511	27.832	54.9562	27.832	54.7858	27.832	55.1535	27.832	55.0275	27.832	55.311	27.832	55.224	27.832	55.417	27.832	55.3659	27.832	55.4637	27.832	55.4468
29.2969	51.4078	29.2969	51.4423	29.2969	51.362	29.2969	51.4711	29.2969	51.3039	29.2969	51.5026	29.2969	51.2378	29.2969	51.5472	29.2969	51.1743	29.2969	51.6156	29.2969	51.1307	29.2969	51.7176	29.2969	51.1292	29.2969	51.8603	29.2969	51.1935	29.2969	52.0469	29.2969	51.3418	29.2969	52.2755	29.2969	51.5804	29.2969	52.5393	29.2969	51.8999	29.2969	52.8269	29.2969	52.2766	29.2969	53.1232	29.2969	52.6786	29.2969	53.4112	29.2969	53.0729	29.2969	53.6736	29.2969	53.4312	29.2969	53.8938	29.2969	53.7317	29.2969	54.0575	29.2969	53.9598	29.2969	54.1528	29.2969	54.1073	29.2969	54.1712
30.7617	49.7962	30.7617	49.7232	30.7617	49.8347	30.7617	49.6336	30.7617	49.8298	30.7617	49.5528	30.7617	49.7826	30.7617	49.512	30.7617	49.7061	30.7617	49.5435	30.7617	49.6266	30.7617	49.6743	30.7617	49.5839	30.7617	49.9186	30.7617	49.626	30.7617	50.2734	30.7617	49.7964	30.7617	50.719	30.7617	50.1165	30.7617	51.2243	30.7617	50.5742	30.7617	51.7542	30.7617	51.1275	30.7617	52.2747	30.7617	51.7205	30.7617	52.7564	30.7617	52.2992	30.7617	53.175	30.7617	52.8213	30.7617	53.5118	30.7617	53.2573	30.7617	53.7521	30.7617	53.5889	30.7617	53.8855	30.7617	53.806	30.7617	53.9048
32.2266	50.2492	32.2266	50.0823	32.2266	50.3483	32.2266	49.8746	32.2266	50.3638	32.2266	49.6656	32.2266	50.2904	32.2266	49.5063	32.2266	50.1352	32.2266	49.453	32.2266	49.9214	32.2266	49.5539	32.2266	49.6939	32.2266	49.8318	32.2266	49.5227	32.2266	50.2742	32.2266	49.4933	32.2266	50.8389	32.2266	49.6782	32.2266	51.4701	32.2266	50.098	32.2266	52.1134	32.2266	50.7072	32.2266	52.7242	32.2266	51.4195	32.2266	53.2689	32.2266	52.1465	32.2266	53.723	32.2266	52.8201	32.2266	54.069	32.2266	53.3965	32.2266	54.2944	32.2266	53.8506	32.2266	54.3901	32.2266	54.17	32.2266	54.3497
33.6914	50.6295	33.6914	50.725	33.6914	50.5429	33.6914	50.8627	33.6914	50.4458	33.6914	51.0817	33.6914	50.3407	33.6914	51.4146	33.6914	50.257	33.6914	51.8762	33.6914	50.2542	33.6914	52.4585	33.6914	50.4117	33.6914	53.1335	33.6914	50.7999	33.6914	53.8631	33.6914	51.4393	33.6914	54.6086	33.6914	52.2835	33.6914	55.3361	33.6914	53.2435	33.6914	56.0185	33.6914	54.227	33.6914	56.6348	33.6914	55.1624	33.6914	57.1689	33.6914	56.0032	33.6914	57.6078	33.6914	56.7228	33.6914	57.9412	33.6914	57.3079	33.6914	58.1599	33.6914	57.753	33.6914	58.2563	33.6914	58.0576	33.6914	58.2241
35.1562	52.2242	35.1562	52.1611	35.1562	52.2603	35.1562	52.1119	35.1562	52.2451	35.1562	52.1291	35.1562	52.1724	35.1562	52.2665	35.1562	52.0586	35.1562	52.5633	35.1562	51.9468	35.1562	53.0286	35.1562	51.909	35.1562	53.6383	35.1562	52.0346	35.1562	54.3458	35.1562	52.3962	35.1562	55.0982	35.1562	53.0079	35.1562	55.848	35.1562	53.8133	35.1562	56.5581	35.1562	54.7173	35.1562	57.2012	35.1562	55.6273	35.1562	57.7575	35.1562	56.475	35.1562	58.2123	35.1562	57.2174	35.1562	58.5544	35.1562	57.8311	35.1562	58.7744	35.1562	58.3046	35.1562	58.865	35.1562	58.634	35.1562	58.8198
36.6211	53.42	36.6211	53.3455	36.6211	53.4686	36.6211	53.2922	36.6211	53.4613	36.6211	53.319	36.6211	53.3877	36.6211	53.4837	36.6211	53.2599	36.6211	53.8238	36.6211	53.1191	36.6211	54.3414	36.6211	53.039	36.6211	55.0025	36.6211	53.1187	36.6211	55.7529	36.6211	53.4468	36.6211	56.5362	36.6211	54.0512	36.6211	57.3051	36.6211	54.8772	36.6211	58.024	36.6211	55.8208	36.6211	58.6679	36.6211	56.7787	36.6211	59.219	36.6211	57.6747	36.6211	59.6639	36.6211	58.4623	36.6211	59.9923	36.6211	59.1163	36.6211	60.1956	36.6211	59.6253	36.6211	60.2664	36.6211	59.9856	36.6211	60.1981
38.0859	55.7549	38.0859	55.5914	38.0859	55.8459	38.0859	55.3968	38.0859	55.8388	38.0859	55.2299	38.0859	55.7224	38.0859	55.1632	38.0859	55.5016	38.0859	55.267	38.0859	55.2036	38.0859	55.5838	38.0859	54.8897	38.0859	56.1085	38.0859	54.6655	38.0859	56.7917	38.0859	54.6672	38.0859	57.5628	38.0859	55.0032	38.0859	58.3544	38.0859	55.6782	38.0859	59.1131	38.0859	56.5873	38.0859	59.8013	38.0859	57.5871	38.0859	60.3931	38.0859	58.5603	38.0859	60.8703	38.0859	59.4333	38.0859	61.2196	38.0859	60.1668	38.0859	61.4308	38.0859	60.7431	38.0859	61.4951	38.0859	61.1559	38.0859	61.4053
39.5508	56.62	39.5508	56.4965	39.5508	56.727	39.5508	56.4034	39.5508	56.7888	39.5508	56.4009	39.5508	56.7959	39.5508	56.5494	39.5508	56.7593	39.5508	56.8879	39.5508	56.7125	39.5508	57.4171	39.5508	56.7124	39.5508	58.0986	39.5508	56.8323	39.5508	58.8728	39.5508	57.1393	39.5508	59.6787	39.5508	57.6618	39.5508	60.4663	39.5508	58.3717	39.5508	61.1988	39.5508	59.1984	39.5508	61.8508	39.5508	60.06	39.5508	62.4047	39.5508	60.8875	39.5508	62.8477	39.5508	61.6323	39.5508	63.1704	39.5508	62.2639	39.5508	63.365	39.5508	62.7651	39.5508	63.4255	39.5508	63.1272	39.5508	63.3472
41.0156	58.9395	41.0156	58.7683	41.0156	59.06	41.0156	58.5868	41.0156	59.103	41.0156	58.4495	41.0156	59.055	41.0156	58.4183	41.0156	58.9159	41.0156	58.5479	41.0156	58.7027	41.0156	58.8661	41.0156	58.4563	41.0156	59.3611	41.0156	58.2484	41.0156	59.9878	41.0156	58.178	41.0156	60.686	41.0156	58.3434	41.0156	61.3982	41.0156	58.7899	41.0156	62.078	41.0156	59.4782	41.0156	62.6914	41.0156	60.3083	41.0156	63.214	41.0156	61.1717	41.0156	63.6283	41.0156	61.9845	41.0156	63.921	41.0156	62.6935	41.0156	64.0817	41.0156	63.2695	41.0156	64.1021	41.0156	63.6985	41.0156	63.9758
42.4805	61.147	42.4805	60.999	42.4805	61.2532	42.4805	60.8486	42.4805	61.2913	42.4805	60.7475	42.4805	61.248	42.4805	60.7526	42.4805	61.123	42.4805	60.9122	42.4805	60.9326	42.4805	61.2482	42.4805	60.715	42.4805	61.7468	42.4805	60.5358	42.4805	62.3646	42.4805	60.4844	42.4805	63.0456	42.4805	60.6489	42.4805	63.7362	42.4805	61.0727	42.4805	64.3927	42.4805	61.7251	42.4805	64.9825	42.4805	62.5188	42.4805	65.4822	42.4805	63.3537	42.4805	65.8746	42.4805	64.1488	42.4805	66.1468	42.4805	64.8503	42.4805	66.2885	42.4805	65.4268	42.4805	66.2918	42.4805	65.8624	42.4805	66.1509
43.9453	63.4958	43.9453	63.2894	43.9453	63.6417	43.9453	63.0567	43.9453	63.7046	43.9453	62.8454	43.9453	63.6726	43.9453	62.7143	43.9453	63.5436	43.9453	62.7228	43.9453	63.3282	43.9453	62.9125	43.9453	63.0551	43.9453	63.2893	43.9453	62.7786	43.9453	63.8209	43.9453	62.5825	43.9453	64.4506	43.9453	62.5664	43.9453	65.1169	43.9453	62.8066	43.9453	65.7668	43.9453	63.3094	43.9453	66.3601	43.9453	64.0048	43.9453	66.8678	43.9453	64.7873	43.9453	67.2692	43.9453	65.5604	43.9453	67.5493	43.9453	66.2562	43.9453	67.6969	43.9453	66.834	43.9453	67.7034	43.9453	67.2726	43.9453	67.5629
45.4102	63.9812	45.4102	63.869	45.4102	64.061	45.4102	63.7691	45.4102	64.0779	45.4102	63.7377	45.4102	64.0161	45.4102	63.8325	45.4102	63.8759	45.4102	64.0955	45.4102	63.6773	45.4102	64.5366	45.4102	63.4676	45.4102	65.1293	45.4102	63.3261	45.4102	65.8224	45.4102	63.3554	45.4102	66.5586	45.4102	63.6446	45.4102	67.287	45.4102	64.217	45.4102	67.9685	45.4102	65.0115	45.4102	68.5744	45.4102	65.9196	45.4102	69.0843	45.4102	66.8365	45.4102	69.4831	45.4102	67.6862	45.4102	69.7591	45.4102	68.4221	45.4102	69.9027	45.4102	69.0196	45.4102	69.9059	45.4102	69.4674	45.4102	69.7623
46.875	67.5268	46.875	67.4323	46.875	67.5957	46.875	67.3389	46.875	67.6215	46.875	67.2811	46.875	67.5967	46.875	67.2966	46.875	67.5248	46.875	67.4187	46.875	67.4222	46.875	67.6667	46.875	67.3204	46.875	68.0392	46.875	67.2655	46.875	68.5141	46.875	67.3121	46.875	69.0558	46.875	67.5073	46.875	69.6241	46.875	67.8709	46.875	70.1817	46.875	68.3834	46.875	70.6971	46.875	68.9942	46.875	71.1455	46.875	69.6401	46.875	71.5077	46.875	70.2637	46.875	71.7689	46.875	70.8207	46.875	71.918	46.875	71.2814	46.875	71.947	46.875	71.6279	46.875	71.8508
48.3398	69.5501	48.3398	69.4259	48.3398	69.6419	48.3398	69.2933	48.3398	69.6853	48.3398	69.1839	48.3398	69.6726	48.3398	69.1337	48.3398	69.6046	48.3398	69.1774	48.3398	69.4924	48.3398	69.3395	48.3398	69.3593	48.3398	69.6262	48.3398	69.2424	48.3398	70.023	48.3398	69.1904	48.3398	70.4987	48.3398	69.2544	48.3398	71.0143	48.3398	69.4706	48.3398	71.5309	48.3398	69.8433	48.3398	72.0147	48.3398	70.3408	48.3398	72.4379	48.3398	70.9079	48.3398	72.7792	48.3398	71.4845	48.3398	73.0222	48.3398	72.0191	48.3398	73.1547	48.3398	72.4741	48.3398	73.1684	48.3398	72.8252	48.3398	73.0585
51.2695	73.4872	51.2695	73.3608	51.2695	73.5851	51.2695	73.2265	51.2695	73.6411	51.2695	73.1112	51.2695	73.6487	51.2695	73.0457	51.2695	73.609	51.2695	73.0603	51.2695	73.5321	51.2695	73.1782	51.2695	73.4382	51.2695	73.4082	51.2695	73.358	51.2695	73.7416	51.2695	73.331	51.2695	74.1546	51.2695	73.3973	51.2695	74.6143	51.2695	73.5853	51.2695	75.0854	51.2695	73.8997	51.2695	75.5356	51.2695	74.3174	51.2695	75.9373	51.2695	74.7956	51.2695	76.2687	51.2695	75.2849	51.2695	76.5127	51.2695	75.7406	51.2695	76.6565	51.2695	76.1283	51.2695	76.6918	51.2695	76.4242	51.2695	76.6142
52.7344	75.2924	52.7344	75.162	52.7344	75.3902	52.7344	75.0184	52.7344	75.4424	52.7344	74.887	52.7344	75.4426	52.7344	74.7975	52.7344	75.3913	52.7344	74.7801	52.7344	75.2976	52.7344	74.8593	52.7344	75.18	52.7344	75.0469	52.7344	75.068	52.7344	75.3382	52.7344	75.0007	52.7344	75.7128	52.7344	75.0202	52.7344	76.1398	52.7344	75.1594	52.7344	76.5848	52.7344	75.4284	52.7344	77.0148	52.7344	75.8089	52.7344	77.4015	52.7344	76.26	52.7344	77.7217	52.7344	76.7317	52.7344	77.9573	52.7344	77.1773	52.7344	78.0951	52.7344	77.5601	52.7344	78.1261	52.7344	77.8546	52.7344	78.0457
54.1992	76.9176	54.1992	76.7901	54.1992	77.0175	54.1992	76.6543	54.1992	77.077	54.1992	76.5355	54.1992	77.0899	54.1992	76.4627	54.1992	77.0573	54.1992	76.4651	54.1992	76.9887	54.1992	76.5654	54.1992	76.9027	54.1992	76.7734	54.1992	76.8282	54.1992	77.0827	54.1992	76.8017	54.1992	77.4719	54.1992	76.8608	54.1992	77.9103	54.1992	77.033	54.1992	78.3639	54.1992	77.3238	54.1992	78.8008	54.1992	77.7132	54.1992	79.1934	54.1992	78.1619	54.1992	79.5196	54.1992	78.6235	54.1992	79.762	54.1992	79.0549	54.1992	79.9078	54.1992	79.4222	54.1992	79.9483	54.1992	79.7019	54.1992	79.8795
55.6641	78.4119	55.6641	78.2915	55.6641	78.5133	55.6641	78.1706	55.6641	78.5827	55.6641	78.0734	55.6641	78.6142	55.6641	78.0268	55.6641	78.6086	55.6641	78.0563	55.6641	78.5746	55.6641	78.1806	55.6641	78.5296	55.6641	78.406	55.6641	78.4991	55.6641	78.7242	55.6641	78.5146	55.6641	79.1141	55.6641	78.6073	55.6641	79.5466	55.6641	78.7984	55.6641	79.9904	55.6641	79.0907	55.6641	80.4161	55.6641	79.466	55.6641	80.7983	55.6641	79.8899	55.6641	81.1164	55.6641	80.3219	55.6641	81.3542	55.6641	80.724	55.6641	81.4996	55.6641	81.0652	55.6641	81.5448	55.6641	81.3237	55.6641	81.4858
58.5938	81.6197	58.5938	81.5341	58.5938	81.6956	58.5938	81.4535	58.5938	81.7514	58.5938	81.3963	58.5938	81.7819	58.5938	81.3821	58.5938	81.7878	58.5938	81.4293	58.5938	81.7757	58.5938	81.5507	58.5938	81.7586	58.5938	81.751	58.5938	81.7557	58.5938	82.024	58.5938	81.7901	58.5938	82.3548	58.5938	81.8843	58.5938	82.7213	58.5938	82.054	58.5938	83.0991	58.5938	82.3025	58.5938	83.4635	58.5938	82.6179	58.5938	83.7923	58.5938	82.9755	58.5938	84.0666	58.5938	83.3441	58.5938	84.271	58.5938	83.6919	58.5938	84.3941	58.5938	83.9917	58.5938	84.4284	58.5938	84.2226	58.5938	84.3706
60.0586	83.2342	60.0586	83.1567	60.0586	83.3048	60.0586	83.0855	60.0586	83.3592	60.0586	83.0365	60.0586	83.3923	60.0586	83.0267	60.0586	83.4043	60.0586	83.0718	60.0586	83.4005	60.0586	83.1828	60.0586	83.3919	60.0586	83.3636	60.0586	83.3947	60.0586	83.6094	60.0586	83.4284	60.0586	83.9074	60.0586	83.5125	60.0586	84.239	60.0586	83.6613	60.0586	84.5821	60.0586	83.8789	60.0586	84.9148	60.0586	84.1567	60.0586	85.2161	60.0586	84.4747	60.0586	85.4683	60.0586	84.8058	60.0586	85.6565	60.0586	85.1213	60.0586	85.7696	60.0586	85.3956	60.0586	85.8003	60.0586	85.6085	60.0586	85.7459
62.9883	86.3055	62.9883	86.226	62.9883	86.373	62.9883	86.1451	62.9883	86.421	62.9883	86.0757	62.9883	86.4455	62.9883	86.0324	62.9883	86.4463	62.9883	86.0291	62.9883	86.4276	62.9883	86.0774	62.9883	86.398	62.9883	86.1843	62.9883	86.3705	62.9883	86.3498	62.9883	86.3619	62.9883	86.5668	62.9883	86.3899	62.9883	86.8219	62.9883	86.4695	62.9883	87.0972	62.9883	86.6086	62.9883	87.3728	62.9883	86.8047	62.9883	87.6287	62.9883	87.0444	62.9883	87.847	62.9883	87.3062	62.9883	88.0123	62.9883	87.5645	62.9883	88.1129	62.9883	87.7949	62.9883	88.1414	62.9883	87.9767	62.9883	88.0951
64.4531	87.4964	64.4531	87.42	64.4531	87.5618	64.4531	87.3429	64.4531	87.6091	64.4531	87.2776	64.4531	87.6344	64.4531	87.238	64.4531	87.6376	64.4531	87.2377	64.4531	87.6227	64.4531	87.2877	64.4531	87.5981	64.4531	87.3947	64.4531	87.5764	64.4531	87.5588	64.4531	87.5734	64.4531	87.7731	64.4531	87.6061	64.4531	88.0248	64.4531	87.6887	64.4531	88.2964	64.4531	87.8286	64.4531	88.5684	64.4531	88.0232	64.4531	88.8214	64.4531	88.2595	64.4531	89.0376	64.4531	88.5167	64.4531	89.2018	64.4531	88.7701	64.4531	89.3025	64.4531	88.9956	64.4531	89.3322	64.4531	89.1731	64.4531	89.2882
67.3828	89.7616	67.3828	89.6928	67.3828	89.823	67.3828	89.6254	67.3828	89.8709	67.3828	89.57	67.3828	89.9018	67.3828	89.5382	67.3828	89.9153	67.3828	89.5413	67.3828	89.9146	67.3828	89.5887	67.3828	89.9065	67.3828	89.6858	67.3828	89.9011	67.3828	89.833	67.3828	89.9111	67.3828	90.025	67.3828	89.9501	67.3828	90.2509	67.3828	90.0296	67.3828	90.4958	67.3828	90.1557	67.3828	90.7428	67.3828	90.3268	67.3828	90.9742	67.3828	90.5326	67.3828	91.1738	67.3828	90.756	67.3828	91.3273	67.3828	90.976	67.3828	91.424	67.3828	91.1718	67.3828	91.4566	67.3828	91.3252	67.3828	91.4229
68.8477	90.8656	68.8477	90.7981	68.8477	90.927	68.8477	90.7326	68.8477	90.9763	68.8477	90.6789	68.8477	91.0101	68.8477	90.6477	68.8477	91.0281	68.8477	90.6494	68.8477	91.0328	68.8477	90.6927	68.8477	91.0301	68.8477	90.7829	68.8477	91.0292	68.8477	90.9203	68.8477	91.0415	68.8477	91.1001	68.8477	91.0792	68.8477	91.3126	68.8477	91.153	68.8477	91.5439	68.8477	91.2687	68.8477	91.7781	68.8477	91.4254	68.8477	91.9985	68.8477	91.6142	68.8477	92.1894	68.8477	91.8198	68.8477	92.3372	68.8477	92.0229	68.8477	92.4312	68.8477	92.2041	68.8477	92.4647	68.8477	92.3459	68.8477	92.4354
71.7773	93.0594	71.7773	92.9976	71.7773	93.1171	71.7773	92.9385	71.7773	93.1656	71.7773	92.8903	71.7773	93.2018	71.7773	92.8619	71.7773	93.2248	71.7773	92.8619	71.7773	93.2367	71.7773	92.8973	71.7773	93.2418	71.7773	92.9727	71.7773	93.2473	71.7773	93.0888	71.7773	93.2621	71.7773	93.242	71.7773	93.2963	71.7773	93.4246	71.7773	93.3586	71.7773	93.625	71.7773	93.4545	71.7773	93.8299	71.7773	93.5837	71.7773	94.0244	71.7773	93.7401	71.7773	94.1946	71.7773	93.9113	71.7773	94.3279	71.7773	94.0816	71.7773	94.4146	71.7773	94.2339	71.7773	94.4483	71.7773	94.353	71.7773	94.4269
74.707	95.0047	74.707	94.9492	74.707	95.0573	74.707	94.8967	74.707	95.1028	74.707	94.8537	74.707	95.1383	74.707	94.8276	74.707	95.1633	74.707	94.8254	74.707	95.1787	74.707	94.8532	74.707	95.1882	74.707	94.915	74.707	95.1972	74.707	95.0118	74.707	95.2129	74.707	95.1412	74.707	95.2434	74.707	95.2971	74.707	95.296	74.707	95.47	74.707	95.3756	74.707	95.6486	74.707	95.4827	74.707	95.82	74.707	95.6128	74.707	95.9714	74.707	95.756	74.707	96.0915	74.707	95.8992	74.707	96.1711	74.707	96.0277	74.707	96.2043	74.707	96.128	74.707	96.1891
77.6367	96.6824	77.6367	96.6316	77.6367	96.7318	77.6367	96.584	77.6367	96.7761	77.6367	96.5452	77.6367	96.813	77.6367	96.521	77.6367	96.8416	77.6367	96.5171	77.6367	96.8625	77.6367	96.5388	77.6367	96.8782	77.6367	96.5893	77.6367	96.8928	77.6367	96.6699	77.6367	96.9117	77.6367	96.779	77.6367	96.9411	77.6367	96.9118	77.6367	96.987	77.6367	97.0609	77.6367	97.0534	77.6367	97.2165	77.6367	97.1412	77.6367	97.3675	77.6367	97.2473	77.6367	97.5027	77.6367	97.364	77.6367	97.6117	77.6367	97.4808	77.6367	97.6862	77.6367	97.5855	77.6367	97.7206	77.6367	97.6661	77.6367	97.7132
79.1016	97.4165	79.1016	97.3687	79.1016	97.4637	79.1016	97.3244	79.1016	97.5069	79.1016	97.2885	79.1016	97.544	79.1016	97.2662	79.1016	97.5741	79.1016	97.2627	79.1016	97.5975	79.1016	97.2825	79.1016	97.6161	79.1016	97.3288	79.1016	97.6335	79.1016	97.4026	79.1016	97.6542	79.1016	97.5029	79.1016	97.6837	79.1016	97.6253	79.1016	97.7271	79.1016	97.7633	79.1016	97.7882	79.1016	97.9079	79.1016	97.868	79.1016	98.049	79.1016	97.9637	79.1016	98.176	79.1016	98.0689	79.1016	98.2792	79.1016	98.1741	79.1016	98.3507	79.1016	98.268	79.1016	98.3852	79.1016	98.34	79.1016	98.381
82.0312	98.6506	82.0312	98.6092	82.0312	98.6932	82.0312	98.5721	82.0312	98.7343	82.0312	98.543	82.0312	98.772	82.0312	98.5259	82.0312	98.8053	82.0312	98.5246	82.0312	98.8341	82.0312	98.5426	82.0312	98.8593	82.0312	98.5822	82.0312	98.8831	82.0312	98.6446	82.0312	98.9086	82.0312	98.7289	82.0312	98.9396	82.0312	98.8321	82.0312	98.9798	82.0312	98.9489	82.0312	99.0322	82.0312	99.0724	82.0312	99.0978	82.0312	99.194	82.0312	99.1749	82.0312	99.3049	82.0312	99.2587	82.0312	99.3967	82.0312	99.3419	82.0312	99.4623	82.0312	99.4154	82.0312	99.497	82.0312	99.4703	82.0312	99.4991
84.9609	99.624	84.9609	99.5881	84.9609	99.6624	84.9609	99.5569	84.9609	99.7012	84.9609	99.5331	84.9609	99.739	84.9609	99.5195	84.9609	99.7747	84.9609	99.5188	84.9609	99.8077	84.9609	99.5335	84.9609	99.8383	84.9609	99.5658	84.9609	99.8675	84.9609	99.6166	84.9609	99.897	84.9609	99.6856	84.9609	99.9292	84.9609	99.7707	84.9609	99.9667	84.9609	99.8681	84.9609	100.012	84.9609	99.9723	84.9609	100.065	84.9609	100.077	84.9609	100.125	84.9609	100.173	84.9609	100.19	84.9609	100.256	84.9609	100.253	84.9609	100.317	84.9609	100.307	84.9609	100.353	84.9609	100.345	84.9609	100.362
87.8906	100.305	87.8906	100.274	87.8906	100.341	87.8906	100.248	87.8906	100.38	87.8906	100.229	87.8906	100.421	87.8906	100.22	87.8906	100.462	87.8906	100.222	87.8906	100.502	87.8906	100.236	87.8906	100.542	87.8906	100.265	87.8906	100.58	87.8906	100.308	87.8906	100.618	87.8906	100.366	87.8906	100.656	87.8906	100.438	87.8906	100.695	87.8906	100.52	87.8906	100.737	87.8906	100.609	87.8906	100.781	87.8906	100.7	87.8906	100.828	87.8906	100.785	87.8906	100.875	87.8906	100.86	87.8906	100.919	87.8906	100.92	87.8906	100.953	87.8906	100.959	87.8906	100.974	87.8906	100.977
90.8203	100.793	90.8203	100.764	90.8203	100.828	90.8203	100.742	90.8203	100.867	90.8203	100.726	90.8203	100.909	90.8203	100.718	90.8203	100.953	90.8203	100.718	90.8203	100.998	90.8203	100.728	90.8203	101.043	90.8203	100.748	90.8203	101.085	90.8203	100.78	90.8203	101.125	90.8203	100.822	90.8203	101.162	90.8203	100.875	90.8203	101.195	90.8203	100.937	90.8203	101.226	90.8203	101.005	90.8203	101.254	90.8203	101.076	90.8203	101.28	90.8203	101.146	90.8203	101.304	90.8203	101.209	90.8203	101.323	90.8203	101.262	90.8203	101.335	90.8203	101.301	90.8203	101.337	90.8203	101.326
95.2148	101.26	95.2148	101.236	95.2148	101.289	95.2148	101.218	95.2148	101.325	95.2148	101.206	95.2148	101.365	95.2148	101.198	95.2148	101.408	95.2148	101.196	95.2148	101.454	95.2148	101.198	95.2148	101.499	95.2148	101.206	95.2148	101.541	95.2148	101.22	95.2148	101.579	95.2148	101.24	95.2148	101.61	95.2148	101.267	95.2148	101.633	95.2148	101.301	95.2148	101.649	95.2148	101.341	95.2148	101.657	95.2148	101.385	95.2148	101.659	95.2148	101.432	95.2148	101.656	95.2148	101.478	95.2148	101.648	95.2148	101.522	95.2148	101.635	95.2148	101.56	95.2148	101.616	95.2148	101.591
98.1445	101.424	98.1445	101.403	98.1445	101.451	98.1445	101.389	98.1445	101.485	98.1445	101.379	98.1445	101.525	98.1445	101.374	98.1445	101.57	98.1445	101.372	98.1445	101.618	98.1445	101.372	98.1445	101.666	98.1445	101.375	98.1445	101.712	98.1445	101.381	98.1445	101.751	98.1445	101.391	98.1445	101.783	98.1445	101.406	98.1445	101.804	98.1445	101.426	98.1445	101.814	98.1445	101.451	98.1445	101.814	98.1445	101.482	98.1445	101.805	98.1445	101.517	98.1445	101.788	98.1445	101.555	98.1445	101.764	98.1445	101.595	98.1445	101.737	98.1445	101.634	98.1445	101.705	98.1445	101.671
101.074	101.489	101.074	101.471	101.074	101.514	101.074	101.459	101.074	101.547	101.074	101.451	101.074	101.588	101.074	101.447	101.074	101.635	101.074	101.444	101.074	101.685	101.074	101.442	101.074	101.736	101.074	101.44	101.074	101.784	101.074	101.438	101.074	101.826	101.074	101.438	101.074	101.857	101.074	101.44	101.074	101.876	101.074	101.446	101.074	101.88	101.074	101.457	101.074	101.871	101.074	101.474	101.074	101.849	101.074	101.498	101.074	101.818	101.074	101.528	101.074	101.779	101.074	101.564	101.074	101.736	101.074	101.603	101.074	101.691	101.074	101.646
105.469	101.495	105.469	101.48	105.469	101.518	105.469	101.47	105.469	101.549	105.469	101.465	105.469	101.588	105.469	101.46	105.469	101.634	105.469	101.455	105.469	101.684	105.469	101.447	105.469	101.735	105.469	101.436	105.469	101.783	105.469	101.422	105.469	101.822	105.469	101.406	105.469	101.849	105.469	101.389	105.469	101.86	105.469	101.374	105.469	101.854	105.469	101.364	105.469	101.831	105.469	101.361	105.469	101.792	105.469	101.368	105.469	101.74	105.469	101.385	105.469	101.681	105.469	101.413	105.469	101.619	105.469	101.453	105.469	101.558	105.469	101.501
108.398	101.415	108.398	101.401	108.398	101.436	108.398	101.395	108.398	101.467	108.398	101.391	108.398	101.508	108.398	101.389	108.398	101.556	108.398	101.386	108.398	101.61	108.398	101.378	108.398	101.665	108.398	101.366	108.398	101.717	108.398	101.35	108.398	101.76	108.398	101.329	108.398	101.79	108.398	101.307	108.398	101.803	108.398	101.286	108.398	101.796	108.398	101.269	108.398	101.77	108.398	101.26	108.398	101.727	108.398	101.262	108.398	101.669	108.398	101.275	108.398	101.602	108.398	101.303	108.398	101.531	108.398	101.344	108.398	101.461	108.398	101.398
112.793	101.229	112.793	101.22	112.793	101.248	112.793	101.219	112.793	101.278	112.793	101.221	112.793	101.32	112.793	101.223	112.793	101.372	112.793	101.223	112.793	101.432	112.793	101.218	112.793	101.495	112.793	101.205	112.793	101.555	112.793	101.186	112.793	101.606	112.793	101.159	112.793	101.643	112.793	101.129	112.793	101.66	112.793	101.098	112.793	101.656	112.793	101.071	112.793	101.628	112.793	101.051	112.793	101.578	112.793	101.044	112.793	101.51	112.793	101.053	112.793	101.43	112.793	101.079	112.793	101.345	112.793	101.124	112.793	101.262	112.793	101.186
117.188	101.027	117.188	101.019	117.188	101.045	117.188	101.018	117.188	101.074	117.188	101.02	117.188	101.115	117.188	101.021	117.188	101.167	117.188	101.018	117.188	101.227	117.188	101.008	117.188	101.29	117.188	100.988	117.188	101.351	117.188	100.959	117.188	101.402	117.188	100.921	117.188	101.438	117.188	100.878	117.188	101.453	117.188	100.833	117.188	101.444	117.188	100.791	117.188	101.408	117.188	100.758	117.188	101.348	117.188	100.74	117.188	101.267	117.188	100.742	117.188	101.172	117.188	100.767	117.188	101.071	117.188	100.815	117.188	100.972	117.188	100.885
120.117	100.916	120.117	100.907	120.117	100.934	120.117	100.905	120.117	100.964	120.117	100.906	120.117	101.007	120.117	100.905	120.117	101.06	120.117	100.9	120.117	101.122	120.117	100.886	120.117	101.186	120.117	100.863	120.117	101.249	120.117	100.83	120.117	101.302	120.117	100.787	120.117	101.338	120.117	100.737	120.117	101.353	120.117	100.686	120.117	101.342	120.117	100.638	120.117	101.303	120.117	100.599	120.117	101.237	120.117	100.577	120.117	101.148	120.117	100.577	120.117	101.044	120.117	100.602	120.117	100.933	120.117	100.654	120.117	100.826	120.117	100.73
124.512	100.758	124.512	100.753	124.512	100.773	124.512	100.754	124.512	100.8	124.512	100.757	124.512	100.839	124.512	100.757	124.512	100.891	124.512	100.751	124.512	100.951	124.512	100.735	124.512	101.015	124.512	100.707	124.512	101.077	124.512	100.666	124.512	101.129	124.512	100.613	124.512	101.164	124.512	100.551	124.512	101.175	124.512	100.486	124.512	101.158	124.512	100.423	124.512	101.11	124.512	100.37	124.512	101.034	124.512	100.335	124.512	100.933	124.512	100.323	124.512	100.815	124.512	100.341	124.512	100.692	124.512	100.391	124.512	100.573	124.512	100.47
128.906	100.64	128.906	100.638	128.906	100.651	128.906	100.641	128.906	100.672	128.906	100.643	128.906	100.706	128.906	100.641	128.906	100.75	128.906	100.631	128.906	100.803	128.906	100.609	128.906	100.86	128.906	100.572	128.906	100.914	128.906	100.52	128.906	100.958	128.906	100.455	128.906	100.985	128.906	100.378	128.906	100.987	128.906	100.296	128.906	100.96	128.906	100.215	128.906	100.901	128.906	100.144	128.906	100.813	128.906	100.092	128.906	100.699	128.906	100.067	128.906	100.569	128.906	100.075	128.906	100.434	128.906	100.119	128.906	100.306	128.906	100.198
133.301	100.566	133.301	100.562	133.301	100.578	133.301	100.561	133.301	100.599	133.301	100.56	133.301	100.631	133.301	100.553	133.301	100.673	133.301	100.537	133.301	100.721	133.301	100.506	133.301	100.77	133.301	100.46	133.301	100.816	133.301	100.397	133.301	100.849	133.301	100.318	133.301	100.864	133.301	100.226	133.301	100.852	133.301	100.127	133.301	100.81	133.301	100.029	133.301	100.735	133.301	99.9409	133.301	100.629	133.301	99.8731	133.301	100.498	133.301	99.835	133.301	100.353	133.301	99.8339	133.301	100.204	133.301	99.8737	133.301	100.067	133.301	99.9532
139.16	100.173	139.16	100.171	139.16	100.187	139.16	100.175	139.16	100.214	139.16	100.182	139.16	100.257	139.16	100.185	139.16	100.312	139.16	100.179	139.16	100.377	139.16	100.161	139.16	100.446	139.16	100.127	139.16	100.512	139.16	100.075	139.16	100.566	139.16	100.007	139.16	100.599	139.16	99.9257	139.16	100.605	139.16	99.8369	139.16	100.577	139.16	99.7486	139.16	100.514	139.16	99.6704	139.16	100.416	139.16	99.6127	139.16	100.29	139.16	99.5849	139.16	100.146	139.16	99.5942	139.16	99.9957	139.16	99.6439	139.16	99.8534	139.16	99.7326
143.555	99.8455	143.555	99.8453	143.555	99.8562	143.555	99.8513	143.555	99.8804	143.555	99.8585	143.555	99.9193	143.555	99.8613	143.555	99.972	143.555	99.8547	143.555	100.035	143.555	99.8342	143.555	100.104	143.555	99.7968	143.555	100.171	143.555	99.7413	143.555	100.228	143.555	99.6688	143.555	100.265	143.555	99.5828	143.555	100.275	143.555	99.4894	143.555	100.251	143.555	99.397	143.555	100.19	143.555	99.3158	143.555	100.094	143.555	99.2566	143.555	99.9673	143.555	99.2293	143.555	99.82	143.555	99.2411	143.555	99.665	143.555	99.2953	143.555	99.5167	143.555	99.3896
147.949	99.5903	147.949	99.5909	147.949	99.5993	147.949	99.5969	147.949	99.6211	147.949	99.603	147.949	99.6571	147.949	99.604	147.949	99.707	147.949	99.5946	147.949	99.7682	147.949	99.5706	147.949	99.8357	147.949	99.5289	147.949	99.9024	147.949	99.4684	147.949	99.9599	147.949	99.3903	147.949	99.9988	147.949	99.2984	147.949	100.011	147.949	99.199	147.949	99.9884	147.949	99.101	147.949	99.9284	147.949	99.0152	147.949	99.831	147.949	98.9528	147.949	99.7013	147.949	98.9245	147.949	99.5489	147.949	98.9379	147.949	99.387	147.949	98.9961	147.949	99.2312	147.949	99.0966
153.809	99.3017	153.809	99.3038	153.809	99.3072	153.809	99.3092	153.809	99.3235	153.809	99.3126	153.809	99.3521	153.809	99.3081	153.809	99.3925	153.809	99.2905	153.809	99.4419	153.809	99.2548	153.809	99.4954	153.809	99.1978	153.809	99.5459	153.809	99.118	153.809	99.5848	153.809	99.0165	153.809	99.6028	153.809	98.8972	153.809	99.5912	153.809	98.767	153.809	99.5433	153.809	98.6359	153.809	99.4557	153.809	98.5162	153.809	99.3297	153.809	98.4214	153.809	99.1717	153.809	98.3646	153.809	98.9931	153.809	98.356	153.809	98.8095	153.809	98.4008	153.809	98.6386	153.809	98.4978
159.668	98.876	159.668	98.8775	159.668	98.8834	159.668	98.8834	159.668	98.9027	159.668	98.8885	159.668	98.9355	159.668	98.8871	159.668	98.9812	159.668	98.8732	159.668	99.0371	159.668	98.842	159.668	99.098	159.668	98.7898	159.668	99.1565	159.668	98.715	159.668	99.2038	159.668	98.6182	159.668	99.2299	159.668	98.5035	159.668	99.2257	159.668	98.3779	159.668	99.1842	159.668	98.2513	159.668	99.1018	159.668	98.1364	159.668	98.9795	159.668	98.0467	159.668	98.8237	159.668	97.9954	159.668	98.6459	159.668	97.9924	159.668	98.4615	159.668	98.0425	159.668	98.2885	159.668	98.1441
165.527	98.5023	165.527	98.5047	165.527	98.5059	165.527	98.5088	165.527	98.5187	165.527	98.5092	165.527	98.5428	165.527	98.5007	165.527	98.5784	165.527	98.478	165.527	98.6237	165.527	98.4365	165.527	98.6744	165.527	98.373	165.527	98.724	165.527	98.2865	165.527	98.7639	165.527	98.1783	165.527	98.7845	165.527	98.0527	165.527	98.7763	165.527	97.9174	165.527	98.732	165.527	97.7831	165.527	98.6474	165.527	97.6625	165.527	98.5232	165.527	97.5696	165.527	98.3653	165.527	97.5173	165.527	98.185	165.527	97.5155	165.527	97.9977	165.527	97.5682	165.527	97.8213	165.527	97.6732
171.387	98.4041	171.387	98.4024	171.387	98.4103	171.387	98.401	171.387	98.4241	171.387	98.3951	171.387	98.4471	171.387	98.3793	171.387	98.4797	171.387	98.3482	171.387	98.5199	171.387	98.2972	171.387	98.564	171.387	98.2232	171.387	98.6057	171.387	98.1248	171.387	98.6369	171.387	98.0036	171.387	98.6481	171.387	97.864	171.387	98.6301	171.387	97.7141	171.387	98.5751	171.387	97.5651	171.387	98.4788	171.387	97.4307	171.387	98.3416	171.387	97.3261	171.387	98.1694	171.387	97.2653	171.387	97.974	171.387	97.2592	171.387	97.7717	171.387	97.3128	171.387	97.5819	171.387	97.4236
177.246	98.1181	177.246	98.1223	177.246	98.1184	177.246	98.1268	177.246	98.1267	177.246	98.1264	177.246	98.1449	177.246	98.1158	177.246	98.1735	177.246	98.0893	177.246	98.2111	177.246	98.0424	177.246	98.2542	177.246	97.9715	177.246	98.2964	177.246	97.8755	177.246	98.3294	177.246	97.7556	177.246	98.3435	177.246	97.6166	177.246	98.329	177.246	97.4666	177.246	98.2779	177.246	97.3167	177.246	98.1856	177.246	97.181	177.246	98.0525	177.246	97.0744	177.246	97.8846	177.246	97.0111	177.246	97.6937	177.246	97.0018	177.246	97.4963	177.246	97.0516	177.246	97.3114	177.246	97.158
183.105	97.9292	183.105	97.9327	183.105	97.93	183.105	97.9361	183.105	97.9382	183.105	97.9344	183.105	97.9561	183.105	97.9224	183.105	97.9846	183.105	97.8947	183.105	98.0225	183.105	97.8466	183.105	98.0663	183.105	97.7748	183.105	98.1102	183.105	97.6781	183.105	98.1456	183.105	97.558	183.105	98.1627	183.105	97.4193	183.105	98.1514	183.105	97.2702	183.105	98.1035	183.105	97.1224	183.105	98.0142	183.105	96.9897	183.105	97.8836	183.105	96.8871	183.105	97.7177	183.105	96.8285	183.105	97.5279	183.105	96.8242	183.105	97.3305	183.105	96.8784	183.105	97.1445	183.105	96.9885
188.965	97.6648	188.965	97.668	188.965	97.664	188.965	97.6698	188.965	97.6687	188.965	97.6655	188.965	97.6815	188.965	97.6502	188.965	97.7037	188.965	97.6187	188.965	97.7352	188.965	97.5666	188.965	97.7733	188.965	97.4905	188.965	97.8129	188.965	97.3892	188.965	97.8461	188.965	97.2644	188.965	97.8628	188.965	97.1211	188.965	97.8528	188.965	96.9678	188.965	97.8071	188.965	96.8167	188.965	97.7202	188.965	96.682	188.965	97.5917	188.965	96.5791	188.965	97.4269	188.965	96.5218	188.965	97.2373	188.965	96.5201	188.965	97.0389	188.965	96.5778	188.965	96.8506	188.965	96.6915
196.289	97.4322	196.289	97.4302	196.289	97.434	196.289	97.4244	196.289	97.4387	196.289	97.4106	196.289	97.449	196.289	97.3846	196.289	97.467	196.289	97.3418	196.289	97.4932	196.289	97.2784	196.289	97.5258	196.289	97.1915	196.289	97.5603	196.289	97.0804	196.289	97.589	196.289	96.9472	196.289	97.6023	196.289	96.7974	196.289	97.5897	196.289	96.6399	196.289	97.5421	196.289	96.4872	196.289	97.4535	196.289	96.354	196.289	97.3233	196.289	96.2554	196.289	97.1564	196.289	96.2049	196.289	96.9636	196.289	96.2115	196.289	96.7608	196.289	96.2782	196.289	96.5668	196.289	96.4004
203.613	97.134	203.613	97.1383	203.613	97.125	203.613	97.1341	203.613	97.1149	203.613	97.1174	203.613	97.1073	203.613	97.0841	203.613	97.1053	203.613	97.0298	203.613	97.1107	203.613	96.9512	203.613	97.1234	203.613	96.846	203.613	97.1399	203.613	96.714	203.613	97.1533	203.613	96.5581	203.613	97.1539	203.613	96.3846	203.613	97.1306	203.613	96.2036	203.613	97.0732	203.613	96.0284	203.613	96.9753	203.613	95.875	203.613	96.8356	203.613	95.7596	203.613	96.6592	203.613	95.6961	203.613	96.4574	203.613	95.6942	203.613	96.2469	203.613	95.7564	203.613	96.0472	203.613	95.878
210.938	97.0447	210.938	97.05	210.938	97.0313	210.938	97.0441	210.938	97.0127	210.938	97.0235	210.938	96.9919	210.938	96.9842	210.938	96.9716	210.938	96.9221	210.938	96.954	210.938	96.8336	210.938	96.9398	210.938	96.716	210.938	96.9271	210.938	96.5688	210.938	96.9107	210.938	96.3945	210.938	96.8824	210.938	96.1993	210.938	96.8324	210.938	95.9931	210.938	96.7512	210.938	95.7901	210.938	96.6326	210.938	95.607	210.938	96.4753	210.938	95.4616	210.938	96.2847	210.938	95.3698	210.938	96.0727	210.938	95.3431	210.938	95.8566	210.938	95.3858	210.938	95.657	210.938	95.4943
218.262	96.8013	218.262	96.8052	218.262	96.7952	218.262	96.8033	218.262	96.7895	218.262	96.7915	218.262	96.7864	218.262	96.7648	218.262	96.7878	218.262	96.7179	218.262	96.7941	218.262	96.6461	218.262	96.8043	218.262	96.546	218.262	96.8147	218.262	96.4166	218.262	96.8189	218.262	96.2601	218.262	96.8076	218.262	96.0822	218.262	96.7709	218.262	95.893	218.262	96.6995	218.262	95.7061	218.262	96.5876	218.262	95.5379	218.262	96.4348	218.262	95.4053	218.262	96.2473	218.262	95.3238	218.262	96.0375	218.262	95.3044	218.262	95.823	218.262	95.3513	218.262	95.6243	218.262	95.4616
225.586	96.4047	225.586	96.4035	225.586	96.4026	225.586	96.3959	225.586	96.3999	225.586	96.3787	225.586	96.3993	225.586	96.3475	225.586	96.4038	225.586	96.2978	225.586	96.4155	225.586	96.2254	225.586	96.4349	225.586	96.1271	225.586	96.4589	225.586	96.0023	225.586	96.4807	225.586	95.8538	225.586	96.4905	225.586	95.6881	225.586	96.4765	225.586	95.516	225.586	96.4283	225.586	95.3515	225.586	96.3389	225.586	95.2104	225.586	96.2068	225.586	95.1085	225.586	96.0371	225.586	95.0587	225.586	95.841	225.586	95.0686	225.586	95.6346	225.586	95.1397	225.586	95.4367	225.586	95.2663
232.91	96.3229	232.91	96.3146	232.91	96.3205	232.91	96.2943	232.91	96.3088	232.91	96.2603	232.91	96.2903	232.91	96.2097	232.91	96.2683	232.91	96.1389	232.91	96.2471	232.91	96.0442	232.91	96.2299	232.91	95.9229	232.91	96.2173	232.91	95.7743	232.91	96.2057	232.91	95.6014	232.91	96.1869	232.91	95.4113	232.91	96.1502	232.91	95.2153	232.91	96.0844	232.91	95.0287	232.91	95.9817	232.91	94.8686	232.91	95.8396	232.91	94.7514	232.91	95.6624	232.91	94.6904	232.91	95.4613	232.91	94.693	232.91	95.2521	232.91	94.7596	232.91	95.0534	232.91	94.8837
241.699	96.0887	241.699	96.079	241.699	96.0894	241.699	96.0586	241.699	96.083	241.699	96.0251	241.699	96.0718	241.699	95.9755	241.699	96.0587	241.699	95.9062	241.699	96.0462	241.699	95.8134	241.699	96.0352	241.699	95.6942	241.699	96.0242	241.699	95.548	241.699	96.0083	241.699	95.3775	241.699	95.9796	241.699	95.1893	241.699	95.9286	241.699	94.9944	241.699	95.8467	241.699	94.8075	241.699	95.7282	241.699	94.6451	241.699	95.573	241.699	94.5235	241.699	95.3869	241.699	94.4556	241.699	95.1818	241.699	94.4492	241.699	94.9737	241.699	94.5056	241.699	94.7805	241.699	94.6196
250.488	95.8815	250.488	95.8716	250.488	95.8727	250.488	95.8414	250.488	95.8477	250.488	95.7895	250.488	95.8107	250.488	95.7141	250.488	95.7674	250.488	95.6128	250.488	95.7242	250.488	95.4833	250.488	95.6859	250.488	95.3246	250.488	95.6536	250.488	95.1379	250.488	95.6231	250.488	94.9277	250.488	95.5847	250.488	94.7029	250.488	95.526	250.488	94.4765	250.488	95.435	250.488	94.2647	250.488	95.3038	250.488	94.0853	250.488	95.1314	250.488	93.9546	250.488	94.9245	250.488	93.8849	250.488	94.6967	250.488	93.8826	250.488	94.4661	250.488	93.9478	250.488	94.2527	250.488	94.0748
259.277	96.0219	259.277	96.006	259.277	96.0172	259.277	95.9694	259.277	95.9922	259.277	95.9115	259.277	95.949	259.277	95.8304	259.277	95.8921	259.277	95.7233	259.277	95.8277	259.277	95.587	259.277	95.7625	259.277	95.4198	259.277	95.7007	259.277	95.2223	259.277	95.6415	259.277	94.9989	259.277	95.578	259.277	94.7588	259.277	95.4992	259.277	94.5154	259.277	95.3932	259.277	94.2861	259.277	95.2514	259.277	94.0895	259.277	95.072	259.277	93.9429	259.277	94.861	259.277	93.8593	259.277	94.6317	259.277	93.8453	259.277	94.4022	259.277	93.9009	259.277	94.1923	259.277	94.0202
268.066	95.9293	268.066	95.905	268.066	95.9385	268.066	95.8666	268.066	95.9328	268.066	95.8141	268.066	95.9139	268.066	95.7458	268.066	95.8859	268.066	95.6587	268.066	95.8548	268.066	95.5487	268.066	95.8263	268.066	95.4126	268.066	95.8035	268.066	95.25	268.066	95.7847	268.066	95.0642	268.066	95.7625	268.066	94.8637	268.066	95.7253	268.066	94.6618	268.066	95.6608	268.066	94.4753	268.066	95.5591	268.066	94.3225	268.066	95.4167	268.066	94.2195	268.066	95.2373	268.066	94.1773	268.066	95.0316	268.066	94.2002	268.066	94.8157	268.066	94.2858	268.066	94.6078	268.066	94.4259
276.855	95.735	276.855	95.7032	276.855	95.7413	276.855	95.6479	276.855	95.7207	276.855	95.5705	276.855	95.6745	276.855	95.4704	276.855	95.6077	276.855	95.3454	276.855	95.5284	276.855	95.1922	276.855	95.4464	276.855	95.0086	276.855	95.369	276.855	94.7955	276.855	95.2978	276.855	94.5581	276.855	95.2274	276.855	94.3074	276.855	95.1465	276.855	94.0596	276.855	95.0422	276.855	93.8342	276.855	94.9048	276.855	93.6512	276.855	94.7313	276.855	93.5267	276.855	94.5272	276.855	93.47	276.855	94.3047	276.855	93.4828	276.855	94.0804	276.855	93.5604	276.855	93.8716	276.855	93.6937
287.109	95.4863	287.109	95.4171	287.109	95.5387	287.109	95.3361	287.109	95.5702	287.109	95.2475	287.109	95.5793	287.109	95.1529	287.109	95.567	287.109	95.0502	287.109	95.537	287.109	94.9335	287.109	95.4943	287.109	94.7956	287.109	95.4433	287.109	94.6304	287.109	95.3854	287.109	94.4365	287.109	95.3182	287.109	94.2192	287.109	95.2348	287.109	93.992	287.109	95.1265	287.109	93.7754	287.109	94.986	287.109	93.5941	287.109	94.8105	287.109	93.471	287.109	94.6039	287.109	93.4215	287.109	94.3757	287.109	93.4504	287.109	94.1401	287.109	93.5513	287.109	93.9129	287.109	93.7109
297.363	95.8676	297.363	95.8512	297.363	95.8519	297.363	95.8016	297.363	95.8078	297.363	95.7202	297.363	95.7424	297.363	95.6087	297.363	95.6661	297.363	95.4694	297.363	95.5902	297.363	95.3042	297.363	95.5237	297.363	95.1155	297.363	95.4698	297.363	94.9061	297.363	95.4235	297.363	94.6805	297.363	95.3723	297.363	94.4454	297.363	95.2996	297.363	94.2103	297.363	95.1897	297.363	93.9877	297.363	95.0325	297.363	93.7919	297.363	94.8272	297.363	93.6378	297.363	94.5832	297.363	93.5391	297.363	94.3195	297.363	93.5062	297.363	94.0609	297.363	93.5451	297.363	93.8327	297.363	93.6561
307.617	95.3826	307.617	95.3415	307.617	95.392	307.617	95.273	307.617	95.3687	307.617	95.182	307.617	95.3171	307.617	95.0718	307.617	95.2484	307.617	94.944	307.617	95.1795	307.617	94.7993	307.617	95.1285	307.617	94.6388	307.617	95.1083	307.617	94.4666	307.617	95.1207	307.617	94.291	307.617	95.154	307.617	94.1243	307.617	95.1874	307.617	93.9817	307.617	95.1981	307.617	93.8783	307.617	95.1688	307.617	93.8254	307.617	95.0919	307.617	93.8278	307.617	94.9704	307.617	93.8834	307.617	94.8147	307.617	93.9843	307.617	94.6392	307.617	94.1203	307.617	94.4574	307.617	94.2812
319.336	95.3445	319.336	95.283	319.336	95.3621	319.336	95.1832	319.336	95.3328	319.336	95.0515	319.336	95.2583	319.336	94.8926	319.336	95.1471	319.336	94.7088	319.336	95.0136	319.336	94.501	319.336	94.8762	319.336	94.2703	319.336	94.7523	319.336	94.0206	319.336	94.6523	319.336	93.7612	319.336	94.5756	319.336	93.5074	319.336	94.5111	319.336	93.2797	319.336	94.4417	319.336	93.1002	319.336	94.3518	319.336	92.9867	319.336	94.2326	319.336	92.9481	319.336	94.0842	319.336	92.981	319.336	93.9136	319.336	93.0731	319.336	93.7311	319.336	93.2077	319.336	93.5469	319.336	93.3695
329.59	95.0608	329.59	94.9985	329.59	95.077	329.59	94.8952	329.59	95.0454	329.59	94.7569	329.59	94.9701	329.59	94.5883	329.59	94.862	329.59	94.3916	329.59	94.738	329.59	94.1672	329.59	94.6183	329.59	93.9155	329.59	94.52	329.59	93.6409	329.59	94.4508	329.59	93.3535	329.59	94.4048	329.59	93.0712	329.59	94.3641	329.59	92.8175	329.59	94.3054	329.59	92.6177	329.59	94.2086	329.59	92.4922	329.59	94.0633	329.59	92.4506	329.59	93.872	329.59	92.4899	329.59	93.6476	329.59	92.5971	329.59	93.4083	329.59	92.7556	329.59	93.1717	329.59	92.9508
341.309	95.1713	341.309	95.1215	341.309	95.1631	341.309	95.0186	341.309	95.0968	341.309	94.8693	341.309	94.9786	341.309	94.6806	341.309	94.8218	341.309	94.4576	341.309	94.6465	341.309	94.2029	341.309	94.4763	341.309	93.9178	341.309	94.3321	341.309	93.605	341.309	94.2254	341.309	93.2723	341.309	94.1538	341.309	92.9362	341.309	94.1013	341.309	92.6223	341.309	94.045	341.309	92.3625	341.309	93.9626	341.309	92.1871	341.309	93.8391	341.309	92.1149	341.309	93.6691	341.309	92.1477	341.309	93.4567	341.309	92.2711	341.309	93.2132	341.309	92.4625	341.309	92.9543	341.309	92.6976
353.027	95.1943	353.027	95.1647	353.027	95.1618	353.027	95.0797	353.027	95.0624	353.027	94.9455	353.027	94.8963	353.027	94.7665	353.027	94.6717	353.027	94.5449	353.027	94.4065	353.027	94.2812	353.027	94.1278	353.027	93.9758	353.027	93.866	353.027	93.6319	353.027	93.645	353.027	93.2575	353.027	93.4733	353.027	92.8688	353.027	93.3406	353.027	92.4908	353.027	93.2248	353.027	92.1563	353.027	93.1036	353.027	91.8995	353.027	92.9627	353.027	91.7458	353.027	92.7991	353.027	91.7027	353.027	92.6178	353.027	91.7568	353.027	92.4269	353.027	91.8813	353.027	92.2341	353.027	92.0478
366.211	94.6938	366.211	94.6364	366.211	94.7022	366.211	94.5382	366.211	94.657	366.211	94.4079	366.211	94.5603	366.211	94.2517	366.211	94.4226	366.211	94.0715	366.211	94.2623	366.211	93.8657	366.211	94.1026	366.211	93.6318	366.211	93.9644	366.211	93.3689	366.211	93.8586	366.211	93.0818	366.211	93.7809	366.211	92.7824	366.211	93.713	366.211	92.4901	366.211	93.631	366.211	92.2303	366.211	93.5142	366.211	92.0286	366.211	93.3523	366.211	91.9052	366.211	93.1477	366.211	91.8692	366.211	92.9131	366.211	91.9172	366.211	92.6668	366.211	92.0369	366.211	92.4275	366.211	92.2123
379.395	94.6003	379.395	94.5768	379.395	94.5548	379.395	94.4931	379.395	94.4377	379.395	94.3617	379.395	94.2567	379.395	94.1953	379.395	94.0309	379.395	94.0036	379.395	93.7912	379.395	93.7915	379.395	93.5743	379.395	93.5593	379.395	93.4118	379.395	93.3048	379.395	93.3176	379.395	93.0268	379.395	93.2813	379.395	92.7295	379.395	93.2737	379.395	92.4258	379.395	93.2596	379.395	92.1391	379.395	93.2103	379.395	91.9003	379.395	93.1101	379.395	91.7413	379.395	92.9572	379.395	91.6836	379.395	92.7602	379.395	91.7307	379.395	92.5335	379.395	91.8665	379.395	92.2946	379.395	92.0641
392.578	93.9752	392.578	93.9225	392.578	93.9504	392.578	93.813	392.578	93.8331	392.578	93.6682	392.578	93.6195	392.578	93.507	392.578	93.3238	392.578	93.3433	392.578	92.9835	392.578	93.1859	392.578	92.6595	392.578	93.0394	392.578	92.4229	392.578	92.9059	392.578	92.3253	392.578	92.7867	392.578	92.3701	392.578	92.6824	392.578	92.5114	392.578	92.5941	392.578	92.6815	392.578	92.5228	392.578	92.8218	392.578	92.4702	392.578	92.899	392.578	92.4388	392.578	92.9059	392.578	92.4314	392.578	92.8543	392.578	92.4508	392.578	92.7663	392.578	92.4984	392.578	92.6658	392.578	92.5722
405.762	94.403	405.762	94.2614	405.762	94.4457	405.762	94.0436	405.762	94.3694	405.762	93.7712	405.762	94.1612	405.762	93.4628	405.762	93.8211	405.762	93.1347	405.762	93.3712	405.762	92.8025	405.762	92.8638	405.762	92.4847	405.762	92.3848	405.762	92.2038	405.762	92.0363	405.762	91.9853	405.762	91.8933	405.762	91.8514	405.762	91.96	405.762	91.8146	405.762	92.1725	405.762	91.8724	405.762	92.4437	405.762	92.0092	405.762	92.7028	405.762	92.2004	405.762	92.9078	405.762	92.4185	405.762	93.0399	405.762	92.6365	405.762	93.094	405.762	92.8305	405.762	93.0722	405.762	92.9808
420.41	94.608	420.41	94.4577	420.41	94.6534	420.41	94.218	420.41	94.5802	420.41	93.9053	420.41	94.3786	420.41	93.5363	420.41	94.0455	420.41	93.1272	420.41	93.5901	420.41	92.6954	420.41	93.0413	420.41	92.2621	420.41	92.456	420.41	91.8563	420.41	91.9191	420.41	91.5166	420.41	91.5241	420.41	91.2859	420.41	91.3322	420.41	91.1971	420.41	91.3405	420.41	91.2565	420.41	91.4913	420.41	91.4369	420.41	91.7122	420.41	91.6873	420.41	91.9451	420.41	91.9506	420.41	92.1528	420.41	92.1787	420.41	92.3112	420.41	92.3389	420.41	92.403	420.41	92.4146
435.059	94.8766	435.059	94.7307	435.059	94.9349	435.059	94.5092	435.059	94.8934	435.059	94.2228	435.059	94.7415	435.059	93.8798	435.059	94.4725	435.059	93.4851	435.059	94.0869	435.059	93.0424	435.059	93.5974	435.059	92.5574	435.059	93.0337	435.059	92.0451	435.059	92.4469	435.059	91.5368	435.059	91.9065	435.059	91.0844	435.059	91.4864	435.059	90.7541	435.059	91.2382	435.059	90.6033	435.059	91.1705	435.059	90.6495	435.059	91.2477	435.059	90.8555	435.059	91.4103	435.059	91.1458	435.059	91.5954	435.059	91.4389	435.059	91.7484	435.059	91.671	435.059	91.8272	435.059	91.8045
451.172	94.5912	451.172	94.4746	451.172	94.6333	451.172	94.2926	451.172	94.5916	451.172	94.0524	451.172	94.4581	451.172	93.7589	451.172	94.2277	451.172	93.4135	451.172	93.9002	451.172	93.0155	451.172	93.4822	451.172	92.5648	451.172	92.9894	451.172	92.0673	451.172	92.4488	451.172	91.5416	451.172	91.8996	451.172	91.0254	451.172	91.3909	451.172	90.5767	451.172	90.9748	451.172	90.2619	451.172	90.6941	451.172	90.1296	451.172	90.5677	451.172	90.1805	451.172	90.5805	451.172	90.3614	451.172	90.6843	451.172	90.5891	451.172	90.8117	451.172	90.7842	451.172	90.8968	451.172	90.8931
465.82	94.481	465.82	94.3506	465.82	94.5236	465.82	94.1477	465.82	94.4652	465.82	93.886	465.82	94.2988	465.82	93.5745	465.82	94.0273	465.82	93.2176	465.82	93.6647	465.82	92.8174	465.82	93.2361	465.82	92.3775	465.82	92.7748	465.82	91.9074	465.82	92.3173	465.82	91.4276	465.82	91.8968	465.82	90.9729	465.82	91.5372	465.82	90.5906	465.82	91.2518	465.82	90.329	465.82	91.0449	465.82	90.2178	465.82	90.9145	465.82	90.2498	465.82	90.8517	465.82	90.381	465.82	90.8389	465.82	90.55	465.82	90.8483	465.82	90.7016	465.82	90.8463	465.82	90.8027
483.398	94.6107	483.398	94.4395	483.398	94.6831	483.398	94.1857	483.398	94.6436	483.398	93.8661	483.398	94.4842	483.398	93.4952	483.398	94.2041	483.398	93.0822	483.398	93.8127	483.398	92.6302	483.398	93.3318	483.398	92.1408	483.398	92.7973	483.398	91.6212	483.398	92.2545	483.398	91.0942	483.398	91.7501	483.398	90.6039	483.398	91.3227	483.398	90.2141	483.398	90.9982	483.398	89.9902	483.398	90.7934	483.398	89.9681	483.398	90.716	483.398	90.1288	483.398	90.7557	483.398	90.4024	483.398	90.8742	483.398	90.6991	483.398	91.009	483.398	90.9405	483.398	91.0932	483.398	91.0769
499.512	94.8306	499.512	94.705	499.512	94.8681	499.512	94.5008	499.512	94.8053	499.512	94.2222	499.512	94.6306	499.512	93.868	499.512	94.3368	499.512	93.4345	499.512	93.9253	499.512	92.9191	499.512	93.4096	499.512	92.3271	499.512	92.8196	499.512	91.678	499.512	92.2035	499.512	91.0129	499.512	91.6244	499.512	90.3996	499.512	91.1481	499.512	89.926	499.512	90.8233	499.512	89.6738	499.512	90.6658	499.512	89.6755	499.512	90.6575	499.512	89.8905	499.512	90.7547	499.512	90.2251	499.512	90.8996	499.512	90.576	499.512	91.0296	499.512	90.8627	499.512	91.0889	499.512	91.0383
517.09	94.843	517.09	94.6809	517.09	94.919	517.09	94.4481	517.09	94.8942	517.09	94.1571	517.09	94.7578	517.09	93.8134	517.09	94.5042	517.09	93.4137	517.09	94.134	517.09	92.9473	517.09	93.6554	517.09	92.4012	517.09	93.0853	517.09	91.7704	517.09	92.4512	517.09	91.0708	517.09	91.7937	517.09	90.3557	517.09	91.1685	517.09	89.7262	517.09	90.6458	517.09	89.3129	517.09	90.2983	517.09	89.2108	517.09	90.1704	517.09	89.4072	517.09	90.2445	517.09	89.7856	517.09	90.4381	517.09	90.2002	517.09	90.6413	517.09	90.5369	517.09	90.7585	517.09	90.7301
536.133	94.5669	536.133	94.4285	536.133	94.6253	536.133	94.2315	536.133	94.5844	536.133	93.9933	536.133	94.432	536.133	93.7192	536.133	94.1656	536.133	93.4006	536.133	93.7947	536.133	93.0182	536.133	93.34	536.133	92.5518	536.133	92.8301	536.133	91.9912	536.133	92.2938	536.133	91.3476	536.133	91.7529	536.133	90.6661	536.133	91.2249	536.133	90.0347	536.133	90.7373	536.133	89.5771	536.133	90.3464	536.133	89.4035	536.133	90.1292	536.133	89.5345	536.133	90.1329	536.133	89.8754	536.133	90.3176	536.133	90.275	536.133	90.5646	536.133	90.5992	536.133	90.7431	536.133	90.7645
555.176	94.5875	555.176	94.4756	555.176	94.622	555.176	94.2966	555.176	94.5694	555.176	94.0584	555.176	94.4224	555.176	93.7633	555.176	94.179	555.176	93.4068	555.176	93.843	555.176	92.9776	555.176	93.4247	555.176	92.4628	555.176	92.9388	555.176	91.8553	555.176	92.4015	555.176	91.1655	555.176	91.8287	555.176	90.4349	555.176	91.2419	555.176	89.7513	555.176	90.681	555.176	89.2469	555.176	90.2162	555.176	89.0471	555.176	89.9355	555.176	89.1796	555.176	89.8918	555.176	89.5397	555.176	90.0466	555.176	89.9607	555.176	90.279	555.176	90.2995	555.176	90.4525	555.176	90.4713
574.219	94.6135	574.219	94.3671	574.219	94.7244	574.219	94.0201	574.219	94.6803	574.219	93.6148	574.219	94.4796	574.219	93.1879	574.219	94.1396	574.219	92.7603	574.219	93.6938	574.219	92.3328	574.219	93.1862	574.219	91.8927	574.219	92.6605	574.219	91.4255	574.219	92.1441	574.219	90.9272	574.219	91.6387	574.219	90.4145	574.219	91.1287	574.219	89.9332	574.219	90.6089	574.219	89.5598	574.219	90.1192	574.219	89.3815	574.219	89.7577	574.219	89.4442	574.219	89.6345	574.219	89.7036	574.219	89.7696	574.219	90.036	574.219	90.0489	574.219	90.302	574.219	90.302	574.219	90.4017
594.727	95.1217	594.727	94.9319	594.727	95.2097	594.727	94.6553	594.727	95.1794	594.727	94.3036	594.727	95.0169	594.727	93.8833	594.727	94.7169	594.727	93.3933	594.727	94.289	594.727	92.8258	594.727	93.7595	594.727	92.171	594.727	93.1666	594.727	91.4285	594.727	92.5471	594.727	90.6229	594.727	91.9229	594.727	89.821	594.727	91.3022	594.727	89.1408	594.727	90.6996	594.727	88.7249	594.727	90.1652	594.727	88.6642	594.727	89.7921	594.727	88.9247	594.727	89.6674	594.727	89.3654	594.727	89.7882	594.727	89.8209	594.727	90.0364	594.727	90.1611	594.727	90.251	594.727	90.3099
615.234	94.9807	615.234	94.769	615.234	95.066	615.234	94.4594	615.234	95.0054	615.234	94.083	615.234	94.7921	615.234	93.6634	615.234	94.434	615.234	93.2067	615.234	93.9563	615.234	92.6979	615.234	93.4009	615.234	92.1093	615.234	92.8175	615.234	91.4164	615.234	92.2446	615.234	90.6191	615.234	91.6902	615.234	89.764	615.234	91.1349	615.234	88.9652	615.234	90.5672	615.234	88.4009	615.234	90.0317	615.234	88.2375	615.234	89.6495	615.234	88.4974	615.234	89.55	615.234	89.0257	615.234	89.734	615.234	89.6045	615.234	90.041	615.234	90.0601	615.234	90.2711	615.234	90.2923
637.207	95.1389	637.207	94.9131	637.207	95.2571	637.207	94.6149	637.207	95.2379	637.207	94.2753	637.207	95.0632	637.207	93.9097	637.207	94.7301	637.207	93.5103	637.207	94.2551	637.207	93.0496	637.207	93.6768	637.207	92.4933	637.207	93.052	637.207	91.8159	637.207	92.4365	637.207	91.0145	637.207	91.8565	637.207	90.1246	637.207	91.2956	637.207	89.242	637.207	90.7229	637.207	88.5384	637.207	90.1503	637.207	88.2162	637.207	89.6755	637.207	88.3643	637.207	89.4481	637.207	88.8553	637.207	89.5334	637.207	89.4405	637.207	89.8121	637.207	89.9033	637.207	90.0659	637.207	90.1207
659.18	94.8045	659.18	94.5789	659.18	94.9262	659.18	94.2801	659.18	94.9149	659.18	93.934	659.18	94.7494	659.18	93.5566	659.18	94.4249	659.18	93.1504	659.18	93.9593	659.18	92.7034	659.18	93.3963	659.18	92.1937	659.18	92.7977	659.18	91.5998	659.18	92.2189	659.18	90.9162	659.18	91.6787	659.18	90.1703	659.18	91.1528	659.18	89.4381	659.18	90.6104	659.18	88.8499	659.18	90.0771	659.18	88.5627	659.18	89.6777	659.18	88.6728	659.18	89.577	659.18	89.1204	659.18	89.8047	659.18	89.7077	659.18	90.1802	659.18	90.2143	659.18	90.46	659.18	90.4855
682.617	94.7992	682.617	94.5273	682.617	94.9301	682.617	94.1589	682.617	94.8954	682.617	93.7521	682.617	94.6877	682.617	93.3551	682.617	94.3146	682.617	92.9784	682.617	93.8028	682.617	92.5888	682.617	93.2033	682.617	92.1332	682.617	92.5877	682.617	91.5718	682.617	92.0214	682.617	90.9005	682.617	91.5225	682.617	90.1626	682.617	91.0464	682.617	89.4581	682.617	90.5261	682.617	88.9388	682.617	89.9528	682.617	88.753	682.617	89.4549	682.617	88.9419	682.617	89.2717	682.617	89.3942	682.617	89.5143	682.617	89.9177	682.617	89.9852	682.617	90.3312	682.617	90.3773	682.617	90.5051
707.52	94.9419	707.52	94.6903	707.52	95.0733	707.52	94.3541	707.52	95.0568	707.52	93.9657	707.52	94.8767	707.52	93.5405	707.52	94.5284	707.52	93.07	707.52	94.0191	707.52	92.525	707.52	93.3752	707.52	91.8682	707.52	92.6538	707.52	91.0733	707.52	91.9392	707.52	90.1515	707.52	91.302	707.52	89.1838	707.52	90.7405	707.52	88.3377	707.52	90.1768	707.52	87.8182	707.52	89.5439	707.52	87.7391	707.52	88.9069	707.52	88.0466	707.52	88.5185	707.52	88.58	707.52	88.6188	707.52	89.1536	707.52	89.0893	707.52	89.5901	707.52	89.5558	707.52	89.7466
732.422	94.5733	732.422	94.3574	732.422	94.6886	732.422	94.0648	732.422	94.6835	732.422	93.7305	732.422	94.5343	732.422	93.3908	732.422	94.2179	732.422	93.0567	732.422	93.7254	732.422	92.6931	732.422	93.0801	732.422	92.2296	732.422	92.3485	732.422	91.5923	732.422	91.6284	732.422	90.7362	732.422	90.9966	732.422	89.6777	732.422	90.4468	732.422	88.5487	732.422	89.9023	732.422	87.6593	732.422	89.3262	732.422	87.4029	732.422	88.8446	732.422	87.8705	732.422	88.7265	732.422	88.7249	732.422	89.0913	732.422	89.5677	732.422	89.7007	732.422	90.1564	732.422	90.2019	732.422	90.377
757.324	94.372	757.324	94.1479	757.324	94.4738	757.324	93.8464	757.324	94.4232	757.324	93.5183	757.324	94.2042	757.324	93.2013	757.324	93.8129	757.324	92.8999	757.324	93.2645	757.324	92.5771	757.324	92.6101	757.324	92.1668	757.324	91.9415	757.324	91.5972	757.324	91.3525	757.324	90.8145	757.324	90.8589	757.324	89.8064	757.324	90.3646	757.324	88.6453	757.324	89.7252	757.324	87.5662	757.324	88.8613	757.324	86.9879	757.324	87.8985	757.324	87.1893	757.324	87.2946	757.324	87.9277	757.324	87.5103	757.324	88.7273	757.324	88.2982	757.324	89.2651	757.324	89.0392	757.324	89.3868
785.156	94.6657	785.156	94.3278	785.156	94.8524	785.156	93.9038	785.156	94.8412	785.156	93.4774	785.156	94.6035	785.156	93.1268	785.156	94.1351	785.156	92.8767	785.156	93.4704	785.156	92.6669	785.156	92.6972	785.156	92.3812	785.156	91.9523	785.156	91.9042	785.156	91.3652	785.156	91.1582	785.156	90.9575	785.156	90.1183	785.156	90.6006	785.156	88.8413	785.156	90.09	785.156	87.551	785.156	89.2682	785.156	86.7281	785.156	88.1754	785.156	86.8222	785.156	87.2732	785.156	87.6417	785.156	87.2797	785.156	88.5891	785.156	88.1086	785.156	89.2368	785.156	88.9713	785.156	89.3847
811.523	94.4782	811.523	94.1667	811.523	94.5875	811.523	93.706	811.523	94.4766	811.523	93.1967	811.523	94.1424	811.523	92.7597	811.523	93.5848	811.523	92.4557	811.523	92.813	811.523	92.2288	811.523	91.8771	811.523	91.9532	811.523	90.9234	811.523	91.5182	811.523	90.2019	811.523	90.8665	811.523	89.8812	811.523	89.9919	811.523	89.8104	811.523	88.9412	811.523	89.6298	811.523	87.857	811.523	89.0548	811.523	87.0582	811.523	88.0345	811.523	86.9596	811.523	86.9557	811.523	87.607	811.523	86.7213	811.523	88.5154	811.523	87.592	811.523	89.1601	811.523	88.6624	811.523	89.2414
840.82	94.2667	840.82	93.9097	840.82	94.4645	840.82	93.4531	840.82	94.4684	840.82	92.9967	840.82	94.2494	840.82	92.657	840.82	93.778	840.82	92.4824	840.82	93.0305	840.82	92.3895	840.82	92.0189	840.82	92.2123	840.82	90.8658	840.82	91.7987	840.82	89.9033	840.82	91.0547	840.82	89.5412	840.82	89.9471	840.82	89.7511	840.82	88.5169	840.82	90.013	840.82	86.9495	840.82	89.8313	840.82	85.7079	840.82	88.9419	840.82	85.4226	840.82	87.3755	840.82	86.1315	840.82	85.8804	840.82	87.132	840.82	85.8594	840.82	87.7774	840.82	86.9391	840.82	87.7355
870.117	95.0953	870.117	94.7747	870.117	95.1654	870.117	94.1728	870.117	95.0294	870.117	93.323	870.117	94.7082	870.117	92.398	870.117	94.1758	870.117	91.7439	870.117	93.3631	870.117	91.6387	870.117	92.1904	870.117	91.9222	870.117	90.6335	870.117	92.1701	870.117	88.8973	870.117	92.0805	870.117	87.7387	870.117	91.5399	870.117	88.0113	870.117	90.5435	870.117	89.1736	870.117	89.1405	870.117	90.1568	870.117	87.4578	870.117	90.4585	870.117	85.8697	870.117	89.9547	870.117	85.113	870.117	88.7801	870.117	85.4553	870.117	87.4689	870.117	86.1292	870.117	86.7397	870.117	86.5096
900.879	95.3225	900.879	95.1337	900.879	95.3226	900.879	94.7345	900.879	95.1651	900.879	94.1195	900.879	94.8773	900.879	93.3118	900.879	94.4679	900.879	92.4047	900.879	93.9176	900.879	91.604	900.879	93.1728	900.879	91.143	900.879	92.1494	900.879	91.034	900.879	90.7669	900.879	91.0178	900.879	89.0583	900.879	90.8228	900.879	87.4425	900.879	90.3485	900.879	86.835	900.879	89.6817	900.879	87.4756	900.879	89.036	900.879	88.4972	900.879	88.6235	900.879	89.3012	900.879	88.5337	900.879	89.7704	900.879	88.7386	900.879	89.9392	900.879	89.1326	900.879	89.8516	900.879	89.5535
933.105	95.775	933.105	95.7536	933.105	95.5057	933.105	95.3986	933.105	95.0387	933.105	94.7362	933.105	94.4707	933.105	93.8644	933.105	93.8473	933.105	92.9373	933.105	93.1393	933.105	92.1135	933.105	92.2769	933.105	91.4736	933.105	91.2075	933.105	90.9729	933.105	89.9384	933.105	90.493	933.105	88.5663	933.105	89.9457	933.105	87.3164	933.105	89.3465	933.105	86.5295	933.105	88.8213	933.105	86.4306	933.105	88.5352	933.105	86.886	933.105	88.5762	933.105	87.6226	933.105	88.9123	933.105	88.4835	933.105	89.4204	933.105	89.3263	933.105	89.9003	933.105	89.93	933.105	90.1225
965.332	95.4948	965.332	95.5625	965.332	95.2023	965.332	95.3472	965.332	94.7743	965.332	94.8443	965.332	94.283	965.332	94.1049	965.332	93.7384	965.332	93.2306	965.332	93.0884	965.332	92.3573	965.332	92.2627	965.332	91.5972	965.332	91.2186	965.332	90.9484	965.332	89.9696	965.332	90.2823	965.332	88.6074	965.332	89.4472	965.332	87.2979	965.332	88.3967	965.332	86.2091	965.332	87.314	965.332	85.4322	965.332	86.6716	965.332	85.0635	965.332	86.8669	965.332	85.3389	965.332	87.681	965.332	86.3625	965.332	88.5868	965.332	87.715	965.332	89.2058	965.332	88.8062	965.332	89.3173
1000.49	95.7388	1000.49	95.8559	1000.49	95.3086	1000.49	95.5934	1000.49	94.675	1000.49	94.959	1000.49	93.9582	1000.49	94.0719	1000.49	93.2325	1000.49	93.1644	1000.49	92.478	1000.49	92.4702	1000.49	91.6157	1000.49	92.0457	1000.49	90.6087	1000.49	91.7521	1000.49	89.5206	1000.49	91.3927	1000.49	88.4634	1000.49	90.7957	1000.49	87.5084	1000.49	89.8374	1000.49	86.7007	1000.49	88.5361	1000.49	86.1274	1000.49	87.3422	1000.49	85.8734	1000.49	87.1911	1000.49	86.0727	1000.49	88.1592	1000.49	86.9311	1000.49	89.2681	1000.49	88.2221	1000.49	89.9158	1000.49	89.3512	1000.49	89.9484
1035.64	95.9671	1035.64	96.1357	1035.64	95.4861	1035.64	95.9405	1035.64	94.7909	1035.64	95.3708	1035.64	94.0105	1035.64	94.4546	1035.64	93.2441	1035.64	93.2864	1035.64	92.4922	1035.64	92.0897	1035.64	91.672	1035.64	91.2184	1035.64	90.709	1035.64	90.887	1035.64	89.6243	1035.64	90.8992	1035.64	88.6128	1035.64	90.8845	1035.64	87.9679	1035.64	90.5898	1035.64	87.6502	1035.64	89.9027	1035.64	87.1792	1035.64	88.8724	1035.64	86.2198	1035.64	87.9118	1035.64	85.2699	1035.64	87.7783	1035.64	85.688	1035.64	88.515	1035.64	87.3079	1035.64	89.2688	1035.64	88.7452	1035.64	89.4163
1072.27	96.3254	1072.27	96.3903	1072.27	95.7857	1072.27	95.9921	1072.27	94.8372	1072.27	95.1879	1072.27	93.644	1072.27	94.0793	1072.27	92.4304	1072.27	92.8534	1072.27	91.3674	1072.27	91.7735	1072.27	90.4582	1072.27	91.0003	1072.27	89.5624	1072.27	90.4483	1072.27	88.5494	1072.27	89.938	1072.27	87.4382	1072.27	89.3616	1072.27	86.4069	1072.27	88.6814	1072.27	85.628	1072.27	87.9372	1072.27	85.0723	1072.27	87.3611	1072.27	84.6148	1072.27	87.3671	1072.27	84.5374	1072.27	88.0662	1072.27	85.5868	1072.27	89.0082	1072.27	87.4526	1072.27	89.6765	1072.27	89.0057	1072.27	89.7426
1108.89	96.0355	1108.89	96.2518	1108.89	95.2973	1108.89	95.9479	1108.89	94.1012	1108.89	95.1528	1108.89	92.6023	1108.89	93.8928	1108.89	91.0496	1108.89	92.2289	1108.89	89.7364	1108.89	90.4153	1108.89	88.8395	1108.89	89.0059	1108.89	88.2383	1108.89	88.3882	1108.89	87.5875	1108.89	88.2957	1108.89	86.6271	1108.89	88.2545	1108.89	85.4506	1108.89	87.9253	1108.89	84.5239	1108.89	87.1345	1108.89	84.0982	1108.89	86.1067	1108.89	83.7259	1108.89	85.8258	1108.89	83.1792	1108.89	86.9286	1108.89	83.6727	1108.89	88.413	1108.89	85.8943	1108.89	89.3186	1108.89	88.0922	1108.89	89.2649
1148.44	95.3235	1148.44	95.5057	1148.44	94.6538	1148.44	95.178	1148.44	93.6085	1148.44	94.3744	1148.44	92.3562	1148.44	93.1484	1148.44	91.0347	1148.44	91.6017	1148.44	89.7158	1148.44	90.0199	1148.44	88.414	1148.44	88.9516	1148.44	87.0611	1148.44	88.7338	1148.44	85.5522	1148.44	88.9682	1148.44	83.8792	1148.44	89.0451	1148.44	82.2111	1148.44	88.6082	1148.44	80.9967	1148.44	87.486	1148.44	80.8906	1148.44	85.6629	1148.44	81.5756	1148.44	83.8794	1148.44	81.9421	1148.44	84.2111	1148.44	82.4445	1148.44	86.1983	1148.44	84.6187	1148.44	87.7294	1148.44	86.9859	1148.44	88.07
1189.45	93.8884	1189.45	94.536	1189.45	92.7653	1189.45	94.6957	1189.45	91.2374	1189.45	94.3521	1189.45	89.5388	1189.45	93.4744	1189.45	88.0734	1189.45	92.0327	1189.45	87.1373	1189.45	90.0998	1189.45	86.6879	1189.45	88.2256	1189.45	86.4626	1189.45	87.6494	1189.45	86.042	1189.45	88.4256	1189.45	84.969	1189.45	89.1961	1189.45	82.8993	1189.45	89.2297	1189.45	79.9529	1189.45	88.3237	1189.45	79.1652	1189.45	86.3528	1189.45	81.7677	1189.45	83.4873	1189.45	83.4433	1189.45	82.0903	1189.45	83.3679	1189.45	83.9204	1189.45	82.9365	1189.45	85.5172	1189.45	84.1706	1189.45	85.5511
1230.47	92.7994	1230.47	93.6814	1230.47	91.5733	1230.47	94.1252	1230.47	90.1884	1230.47	94.1296	1230.47	88.6924	1230.47	93.674	1230.47	86.8703	1230.47	92.62	1230.47	84.6516	1230.47	90.7029	1230.47	82.749	1230.47	87.7438	1230.47	82.604	1230.47	85.0837	1230.47	84.2193	1230.47	86.3426	1230.47	85.8146	1230.47	89.0634	1230.47	85.9907	1230.47	90.81	1230.47	83.6897	1230.47	91.2365	1230.47	75.8779	1230.47	90.2504	1230.47	75.7649	1230.47	87.8341	1230.47	83.8225	1230.47	84.5032	1230.47	86.2341	1230.47	82.6984	1230.47	86.1999	1230.47	83.4607	1230.47	85.1697	1230.47	84.3441
1274.41	95.3029	1274.41	95.5777	1274.41	94.8693	1274.41	95.6777	1274.41	94.368	1274.41	95.6754	1274.41	93.7339	1274.41	95.5704	1274.41	92.6825	1274.41	95.195	1274.41	90.9375	1274.41	94.239	1274.41	88.3917	1274.41	92.2901	1274.41	85.1086	1274.41	88.7982	1274.41	82.9615	1274.41	84.0887	1274.41	85.5685	1274.41	85.8534	1274.41	88.3047	1274.41	89.8435	1274.41	88.9684	1274.41	91.8034	1274.41	87.0887	1274.41	92.0843	1274.41	80.286	1274.41	91.0725	1274.41	76.3417	1274.41	89.4522	1274.41	86.8874	1274.41	88.7423	1274.41	90.3381	1274.41	89.6505	1274.41	91.3091	1274.41	90.8612
1319.82	96.3945	1319.82	96.5921	1319.82	95.7835	1319.82	96.4265	1319.82	94.7846	1319.82	96.0468	1319.82	93.4739	1319.82	95.6358	1319.82	92.0853	1319.82	95.2454	1319.82	91.0369	1319.82	94.6797	1319.82	90.1481	1319.82	93.6027	1319.82	88.3112	1319.82	91.6487	1319.82	85.1728	1319.82	88.4838	1319.82	84.7751	1319.82	86.0207	1319.82	87.1702	1319.82	88.5994	1319.82	88.2387	1319.82	91.2034	1319.82	87.3237	1319.82	92.0328	1319.82	83.0396	1319.82	91.4611	1319.82	72.3244	1319.82	90.3516	1319.82	85.1212	1319.82	90.1617	1319.82	89.8344	1319.82	91.109	1319.82	91.6416	1319.82	91.8774
1366.7	97.3125	1366.7	97.3942	1366.7	96.4746	1366.7	96.8925	1366.7	94.9038	1366.7	96.176	1366.7	92.8536	1366.7	95.7004	1366.7	91.0029	1366.7	95.5791	1366.7	90.1871	1366.7	95.418	1366.7	89.8913	1366.7	94.7568	1366.7	88.4763	1366.7	93.2344	1366.7	84.446	1366.7	90.5248	1366.7	80.2828	1366.7	87.452	1366.7	85.1495	1366.7	88.4912	1366.7	88.4916	1366.7	91.2508	1366.7	89.2383	1366.7	92.513	1366.7	86.6649	1366.7	92.2222	1366.7	76.4066	1366.7	90.9594	1366.7	85	1366.7	90.2109	1366.7	90.6262	1366.7	91.1638	1366.7	92.4843	1366.7	92.3934
1413.57	96.9369	1413.57	97.6856	1413.57	95.5462	1413.57	97.6422	1413.57	93.7758	1413.57	96.8976	1413.57	91.9242	1413.57	95.963	1413.57	90.6298	1413.57	95.631	1413.57	90.6502	1413.57	95.8978	1413.57	91.1227	1413.57	95.8339	1413.57	90.5506	1413.57	94.5333	1413.57	87.8553	1413.57	91.1213	1413.57	81.4735	1413.57	84.9996	1413.57	83.2772	1413.57	86.8256	1413.57	89.2744	1413.57	91.3778	1413.57	91.0713	1413.57	93.4051	1413.57	89.2645	1413.57	93.7124	1413.57	82.8111	1413.57	92.8566	1413.57	86.5339	1413.57	92.0188	1413.57	91.9402	1413.57	92.6499	1413.57	93.8938	1413.57	93.823
1463.38	96.925	1463.38	98.4787	1463.38	94.673	1463.38	98.8585	1463.38	92.3325	1463.38	97.8742	1463.38	90.1237	1463.38	95.8298	1463.38	88.7603	1463.38	94.4259	1463.38	90.5872	1463.38	95.0501	1463.38	93.01	1463.38	95.8691	1463.38	93.6621	1463.38	95.6516	1463.38	91.8543	1463.38	93.8487	1463.38	85.4895	1463.38	88.9231	1463.38	78.4766	1463.38	56.291	1463.38	90.9243	1463.38	89.2691	1463.38	94.3633	1463.38	94.0627	1463.38	94.3046	1463.38	95.6145	1463.38	92.1321	1463.38	95.6816	1463.38	92.7144	1463.38	95.4334	1463.38	95.6807	1463.38	95.9396	1463.38	97.11	1463.38	96.9265
1516.11	97.395	1516.11	99.4063	1516.11	93.4441	1516.11	100.03	1516.11	85.432	1516.11	99.3906	1516.11	70.4588	1516.11	97.4981	1516.11	78.5504	1516.11	94.2656	1516.11	85.0019	1516.11	91.2204	1516.11	91.9202	1516.11	93.751	1516.11	95.0246	1516.11	96.7392	1516.11	95.8559	1516.11	97.5633	1516.11	94.8279	1516.11	96.1255	1516.11	89.8516	1516.11	91.4518	1516.11	82.3857	1516.11	78.5301	1516.11	94.6613	1516.11	90.5689	1516.11	97.7864	1516.11	95.1829	1516.11	97.7748	1516.11	96.8873	1516.11	96.6901	1516.11	97.65	1516.11	96.9698	1516.11	98.3713	1516.11	98.2916	1516.11	98.8177
1568.85	96.5332	1568.85	99.0905	1568.85	92.1167	1568.85	100.407	1568.85	87.1715	1568.85	100.717	1568.85	90.5441	1568.85	100.083	1568.85	92.6321	1568.85	98.3546	1568.85	91.0913	1568.85	95.3463	1568.85	88.8024	1568.85	93.4571	1568.85	92.3008	1568.85	95.2365	1568.85	95.1452	1568.85	96.5026	1568.85	95.6675	1568.85	96.3034	1568.85	92.8876	1568.85	94.4842	1568.85	76.7694	1568.85	88.8229	1568.85	91.7028	1568.85	78.8734	1568.85	97.1348	1568.85	92.4915	1568.85	98.1478	1568.85	95.9503	1568.85	96.6594	1568.85	97.0163	1568.85	95.1597	1568.85	97.4352	1568.85	96.3484	1568.85	97.427
1624.51	95.9111	1624.51	98.6195	1624.51	91.8131	1624.51	100.065	1624.51	90.9218	1624.51	100.648	1624.51	94.2739	1624.51	100.377	1624.51	95.8901	1624.51	98.8113	1624.51	95.1197	1624.51	95.3128	1624.51	92.358	1624.51	90.7225	1624.51	91.3913	1624.51	91.853	1624.51	95.0585	1624.51	94.6292	1624.51	97.1285	1624.51	96.0664	1624.51	95.8159	1624.51	96.1112	1624.51	88.0181	1624.51	93.7451	1624.51	87.7656	1624.51	84.5643	1624.51	96.4414	1624.51	86.2629	1624.51	98.5197	1624.51	93.8731	1624.51	97.4549	1624.51	96.3173	1624.51	94.9913	1624.51	97.1246	1624.51	95.1983	1624.51	96.7674
1681.64	96.0297	1681.64	98.3151	1681.64	93.6533	1681.64	99.9027	1681.64	93.8848	1681.64	100.981	1681.64	96.1794	1681.64	101.415	1681.64	97.81	1681.64	100.899	1681.64	97.9167	1681.64	99.1954	1681.64	96.3313	1681.64	95.9371	1681.64	92.7661	1681.64	91.0157	1681.64	91.8476	1681.64	89.783	1681.64	96.4255	1681.64	92.5892	1681.64	97.8669	1681.64	94.0493	1681.64	94.7076	1681.64	93.48	1681.64	72.3004	1681.64	89.0334	1681.64	95.1244	1681.64	71.4667	1681.64	99.1381	1681.64	90.976	1681.64	99.0594	1681.64	95.5802	1681.64	96.2584	1681.64	97.1823	1681.64	94.0843	1681.64	96.3823
1741.7	97.8594	1741.7	99.8698	1741.7	94.6787	1741.7	100.809	1741.7	91.6409	1741.7	101.149	1741.7	93.2529	1741.7	101.301	1741.7	96.8816	1741.7	101.269	1741.7	98.9825	1741.7	100.721	1741.7	99.2142	1741.7	99.1367	1741.7	97.5065	1741.7	96.089	1741.7	93.5065	1741.7	92.1525	1741.7	92.5765	1741.7	91.4278	1741.7	96.694	1741.7	94.1473	1741.7	97.1429	1741.7	95.6932	1741.7	91.5236	1741.7	94.6455	1741.7	84.2991	1741.7	90.1897	1741.7	95.6324	1741.7	77.9843	1741.7	97.4535	1741.7	87.3379	1741.7	94.8308	1741.7	92.2273	1741.7	88.408	1741.7	91.4274
1803.22	98.8603	1803.22	101.154	1803.22	93.8413	1803.22	102.064	1803.22	89.4738	1803.22	102.208	1803.22	94.441	1803.22	101.743	1803.22	97.2577	1803.22	100.738	1803.22	98.624	1803.22	99.3657	1803.22	99.1474	1803.22	97.9225	1803.22	98.7747	1803.22	96.7237	1803.22	96.7638	1803.22	95.7389	1803.22	93.3079	1803.22	93.9289	1803.22	94.482	1803.22	91.1828	1803.22	96.2544	1803.22	93.2797	1803.22	94.4882	1803.22	94.8792	1803.22	88.9269	1803.22	93.419	1803.22	90.7267	1803.22	89.259	1803.22	93.8211	1803.22	80.4284	1803.22	91.6341	1803.22	84.7112	1803.22	78.4636	1803.22	84.4142
1866.21	99.6533	1866.21	102.102	1866.21	94.4413	1866.21	103.089	1866.21	93.2466	1866.21	103.366	1866.21	97.2461	1866.21	102.928	1866.21	98.6046	1866.21	101.509	1866.21	99.0797	1866.21	99.0484	1866.21	99.5182	1866.21	96.2296	1866.21	99.4772	1866.21	94.9959	1866.21	98.3651	1866.21	95.8067	1866.21	96.234	1866.21	95.7176	1866.21	94.6974	1866.21	92.4052	1866.21	94.4674	1866.21	90.3909	1866.21	93.526	1866.21	91.4128	1866.21	92.1136	1866.21	89.527	1866.21	92.7906	1866.21	87.8338	1866.21	92.4098	1866.21	87.1614	1866.21	86.5781	1866.21	85.0824	1866.21	80.6952	1866.21	85.9838
1932.13	99.3113	1932.13	102.038	1932.13	93.8654	1932.13	103.466	1932.13	93.8054	1932.13	103.824	1932.13	98.4207	1932.13	102.978	1932.13	99.6237	1932.13	101.081	1932.13	99.622	1932.13	98.6679	1932.13	99.7959	1932.13	96.4547	1932.13	99.4616	1932.13	94.8246	1932.13	97.6827	1932.13	94.9315	1932.13	95.0322	1932.13	96.1382	1932.13	93.8637	1932.13	94.4868	1932.13	93.774	1932.13	88.8881	1932.13	93.0325	1932.13	89.0991	1932.13	92.4966	1932.13	90.5955	1932.13	93.093	1932.13	89.6246	1932.13	91.6011	1932.13	91.1301	1932.13	83.8827	1932.13	91.463	1932.13	82.547	1932.13	89.2935
1999.51	97.9319	1999.51	101.717	1999.51	92.3459	1999.51	103.877	1999.51	94.257	1999.51	104.172	1999.51	98.5524	1999.51	102.897	1999.51	99.8523	1999.51	100.841	1999.51	100.034	1999.51	98.9066	1999.51	99.9429	1999.51	97.3179	1999.51	99.537	1999.51	95.6228	1999.51	98.2455	1999.51	95.14	1999.51	95.7615	1999.51	96.8606	1999.51	94.2052	1999.51	96.5673	1999.51	94.0104	1999.51	92.5369	1999.51	92.5199	1999.51	89.9451	1999.51	91.4804	1999.51	92.5803	1999.51	93.5451	1999.51	91.8678	1999.51	91.8742	1999.51	91.5875	1999.51	81.1571	1999.51	93.5702	1999.51	85.3769	1999.51	92.1482
2069.82	98.6834	2069.82	102.257	2069.82	93.0862	2069.82	104.041	2069.82	91.5207	2069.82	104.059	2069.82	97.883	2069.82	102.806	2069.82	100.411	2069.82	101.138	2069.82	100.757	2069.82	99.6732	2069.82	100.526	2069.82	98.2141	2069.82	99.3231	2069.82	95.9631	2069.82	96.7682	2069.82	92.7852	2069.82	94.2502	2069.82	93.5799	2069.82	93.0314	2069.82	94.1938	2069.82	93.4619	2069.82	90.3341	2069.82	93.4291	2069.82	87.7279	2069.82	92.7533	2069.82	93.1806	2069.82	93.1005	2069.82	93.6562	2069.82	91.5326	2069.82	91.8754	2069.82	83.1793	2069.82	93.0508	2069.82	84.6735	2069.82	91.8957
2143.07	98.445	2143.07	102.57	2143.07	89.0882	2143.07	103.861	2143.07	89.8408	2143.07	103.136	2143.07	98.4671	2143.07	101.628	2143.07	100.783	2143.07	100.165	2143.07	100.504	2143.07	98.5806	2143.07	99.8429	2143.07	97.0895	2143.07	99.5419	2143.07	95.6916	2143.07	97.9347	2143.07	92.8918	2143.07	94.5532	2143.07	87.6941	2143.07	93.2752	2143.07	89.3733	2143.07	93.5637	2143.07	92.0399	2143.07	91.7133	2143.07	89.4557	2143.07	90.1548	2143.07	91.5198	2143.07	93.0076	2143.07	94.041	2143.07	92.9154	2143.07	91.486	2143.07	85.6144	2143.07	93.923	2143.07	88.5359	2143.07	94.6978
2219.24	98.6824	2219.24	102.569	2219.24	86.7996	2219.24	103.443	2219.24	91.5962	2219.24	103.152	2219.24	98.8768	2219.24	102.198	2219.24	101.262	2219.24	100.633	2219.24	101.068	2219.24	98.6867	2219.24	100.087	2219.24	96.7102	2219.24	98.5991	2219.24	94.712	2219.24	96.7052	2219.24	91.2589	2219.24	93.744	2219.24	89.7369	2219.24	91.7229	2219.24	92.9968	2219.24	95.4048	2219.24	92.196	2219.24	93.7976	2219.24	85.7354	2219.24	89.9342	2219.24	87.4193	2219.24	93.9467	2219.24	91.6169	2219.24	94.4129	2219.24	90.8887	2219.24	87.5226	2219.24	90.5435	2219.24	88.0917	2219.24	91.2784
2296.88	97.9119	2296.88	102.001	2296.88	84.5916	2296.88	103.117	2296.88	90.7992	2296.88	103.041	2296.88	97.9083	2296.88	101.901	2296.88	100.76	2296.88	99.0247	2296.88	100.789	2296.88	94.8864	2296.88	99.4924	2296.88	92.8413	2296.88	97.9845	2296.88	93.3559	2296.88	96.4512	2296.88	93.119	2296.88	93.6171	2296.88	89.9784	2296.88	91.0591	2296.88	82.642	2296.88	93.8177	2296.88	91.5239	2296.88	93.932	2296.88	91.0261	2296.88	89.3752	2296.88	81.8279	2296.88	91.1284	2296.88	87.978	2296.88	92.8798	2296.88	87.5883	2296.88	87.1134	2296.88	88.8149	2296.88	84.9785	2296.88	89.2959
2378.91	97.7806	2378.91	101.458	2378.91	76.6799	2378.91	102.675	2378.91	94.4549	2378.91	102.692	2378.91	98.4651	2378.91	100.256	2378.91	100.726	2378.91	96.3875	2378.91	101.011	2378.91	96.0803	2378.91	99.4571	2378.91	96.0151	2378.91	97.7753	2378.91	94.5355	2378.91	96.7275	2378.91	91.118	2378.91	95.923	2378.91	90.0802	2378.91	91.3248	2378.91	90.5068	2378.91	90.0343	2378.91	87.1872	2378.91	92.4363	2378.91	90.3669	2378.91	90.02	2378.91	87.5546	2378.91	88.9984	2378.91	87.0785	2378.91	91.0671	2378.91	87.8955	2378.91	87.0112	2378.91	86.9577	2378.91	82.9228	2378.91	89.3279
2462.4	97.0433	2462.4	101.465	2462.4	79.8141	2462.4	102.959	2462.4	96.6193	2462.4	101.897	2462.4	100.571	2462.4	100.129	2462.4	101.543	2462.4	100.131	2462.4	101.547	2462.4	98.897	2462.4	100.479	2462.4	95.8926	2462.4	98.5589	2462.4	93.0143	2462.4	96.4046	2462.4	93.8319	2462.4	94.3656	2462.4	93.6814	2462.4	89.9401	2462.4	88.7411	2462.4	90.5027	2462.4	88.4011	2462.4	92.0328	2462.4	88.479	2462.4	90.7908	2462.4	87.9303	2462.4	88.3801	2462.4	86.4372	2462.4	90.5892	2462.4	87.4527	2462.4	87.0433	2462.4	83.5834	2462.4	80.9421	2462.4	86.4786
2548.83	98.218	2548.83	102.021	2548.83	84.9902	2548.83	102.698	2548.83	96.1534	2548.83	101.72	2548.83	101.147	2548.83	101.212	2548.83	102.415	2548.83	100.829	2548.83	101.942	2548.83	98.9589	2548.83	100.637	2548.83	95.8933	2548.83	99.0992	2548.83	93.7359	2548.83	97.2518	2548.83	89.626	2548.83	93.949	2548.83	90.4149	2548.83	87.2346	2548.83	92.897	2548.83	84.1963	2548.83	88.4702	2548.83	90.6126	2548.83	86.3198	2548.83	91.3111	2548.83	88.4121	2548.83	89.2269	2548.83	87.2933	2548.83	91.0718	2548.83	88.0046	2548.83	86.7468	2548.83	84.7792	2548.83	75.6396	2548.83	85.8536
2639.65	99.8822	2639.65	102.486	2639.65	88.4045	2639.65	102.192	2639.65	93.834	2639.65	101.983	2639.65	100.263	2639.65	101.434	2639.65	101.886	2639.65	98.7659	2639.65	101.461	2639.65	95.1119	2639.65	100.056	2639.65	94.0884	2639.65	98.4957	2639.65	93.7217	2639.65	96.8781	2639.65	93.767	2639.65	95.2163	2639.65	90.1526	2639.65	92.7223	2639.65	85.5536	2639.65	87.3334	2639.65	90.3335	2639.65	89.4416	2639.65	87.079	2639.65	91.6467	2639.65	85.4115	2639.65	91.3217	2639.65	86.4733	2639.65	90.2153	2639.65	87.7769	2639.65	82.9863	2639.65	84.4922	2639.65	83.7609	2639.65	85.0573
2731.93	98.7311	2731.93	101.42	2731.93	88.443	2731.93	101.991	2731.93	93.5188	2731.93	101.416	2731.93	99.8017	2731.93	99.7564	2731.93	101.788	2731.93	98.1381	2731.93	101.241	2731.93	97.2012	2731.93	99.3281	2731.93	94.8831	2731.93	97.392	2731.93	91.4223	2731.93	95.0821	2731.93	87.2961	2731.93	92.1823	2731.93	83.4751	2731.93	85.6935	2731.93	86.5513	2731.93	85.1836	2731.93	87.0715	2731.93	89.0785	2731.93	88.3825	2731.93	90.053	2731.93	83.8648	2731.93	90.216	2731.93	85.829	2731.93	90.5703	2731.93	87.2267	2731.93	82.336	2731.93	86.2174	2731.93	84.8355	2731.93	85.6646
2828.61	98.3333	2828.61	101.22	2828.61	87.8443	2828.61	101.691	2828.61	95.3246	2828.61	101.245	2828.61	100.092	2828.61	100.219	2828.61	101.562	2828.61	98.6521	2828.61	101.175	2828.61	95.9707	2828.61	99.2102	2828.61	93.7524	2828.61	96.4042	2828.61	92.3852	2828.61	93.5246	2828.61	89.7035	2828.61	93.1099	2828.61	91.7989	2828.61	91.8175	2828.61	87.8897	2828.61	87.7291	2828.61	85.0369	2828.61	89.9818	2828.61	88.1326	2828.61	92.0482	2828.61	87.4945	2828.61	90.2561	2828.61	83.6673	2828.61	87.6813	2828.61	86.5565	2828.61	80.0792	2828.61	85.475	2828.61	84.6162	2828.61	83.2435
2928.22	98.3221	2928.22	100.432	2928.22	89.3344	2928.22	101.192	2928.22	96.192	2928.22	101.665	2928.22	100.644	2928.22	100.777	2928.22	101.774	2928.22	98.4793	2928.22	101.289	2928.22	95.6735	2928.22	99.4322	2928.22	92.5158	2928.22	96.2674	2928.22	91.126	2928.22	92.7257	2928.22	91.973	2928.22	91.2588	2928.22	88.9229	2928.22	91.7741	2928.22	88.9458	2928.22	90.8779	2928.22	83.9674	2928.22	90.1553	2928.22	84.937	2928.22	90.549	2928.22	86.2572	2928.22	89.9469	2928.22	83.8824	2928.22	90.0119	2928.22	86.3216	2928.22	85.956	2928.22	86.2401	2928.22	84.606	2928.22	85.0324
3030.76	97.8822	3030.76	100.277	3030.76	89.0722	3030.76	101.673	3030.76	96.7121	3030.76	101.745	3030.76	101.108	3030.76	100.78	3030.76	101.791	3030.76	98.9164	3030.76	100.652	3030.76	95.3832	3030.76	98.4374	3030.76	92.8511	3030.76	95.4893	3030.76	92.7554	3030.76	91.4011	3030.76	91.0229	3030.76	87.8419	3030.76	86.457	3030.76	88.5029	3030.76	85.0252	3030.76	88.6948	3030.76	86.7332	3030.76	90.815	3030.76	85.4061	3030.76	91.0586	3030.76	85.3196	3030.76	89.3872	3030.76	83.4952	3030.76	90.1394	3030.76	85.6332	3030.76	86.5197	3030.76	86.3533	3030.76	85.5578	3030.76	85.247
3137.7	96.5503	3137.7	99.7394	3137.7	91.4915	3137.7	102.191	3137.7	96.6003	3137.7	102.331	3137.7	101.405	3137.7	100.775	3137.7	101.834	3137.7	97.9053	3137.7	100.624	3137.7	95.5944	3137.7	97.4989	3137.7	94.2531	3137.7	94.4088	3137.7	90.8311	3137.7	91.7436	3137.7	89.2958	3137.7	89.6809	3137.7	89.7322	3137.7	87.9441	3137.7	85.7994	3137.7	88.3051	3137.7	86.4553	3137.7	88.6362	3137.7	83.21	3137.7	89.9513	3137.7	86.1046	3137.7	88.0228	3137.7	83.588	3137.7	88.5518	3137.7	84.7324	3137.7	87.3445	3137.7	83.7853	3137.7	84.3009	3137.7	82.5765
3249.02	95.3282	3249.02	100.723	3249.02	91.7897	3249.02	102.318	3249.02	96.6694	3249.02	102.247	3249.02	101.42	3249.02	100.075	3249.02	102.067	3249.02	97.6442	3249.02	100.832	3249.02	96.3886	3249.02	98.7352	3249.02	92.2991	3249.02	95.1629	3249.02	89.6989	3249.02	92.3922	3249.02	90.1603	3249.02	90.9226	3249.02	89.6096	3249.02	90.8028	3249.02	87.231	3249.02	87.798	3249.02	83.0842	3249.02	89.5214	3249.02	84.8984	3249.02	89.1862	3249.02	83.2253	3249.02	87.9857	3249.02	82.3158	3249.02	88.9267	3249.02	83.7676	3249.02	86.8913	3249.02	85.3777	3249.02	84.3312	3249.02	84.5777
3363.28	96.1237	3363.28	100.837	3363.28	85.9333	3363.28	102.88	3363.28	96.912	3363.28	102.132	3363.28	100.938	3363.28	100.206	3363.28	101.931	3363.28	98.691	3363.28	100.806	3363.28	95.5483	3363.28	98.6965	3363.28	93.4262	3363.28	95.6887	3363.28	92.7759	3363.28	93.3191	3363.28	90.3066	3363.28	92.6848	3363.28	87.5086	3363.28	91.5406	3363.28	85.898	3363.28	87.1101	3363.28	83.2332	3363.28	87.5774	3363.28	81.9394	3363.28	88.1753	3363.28	83.3022	3363.28	85.6802	3363.28	81.4352	3363.28	87.964	3363.28	82.2952	3363.28	85.722	3363.28	84.0786	3363.28	83.3603	3363.28	83.6519
3481.93	96.9397	3481.93	101.821	3481.93	82.2525	3481.93	103.119	3481.93	96.1856	3481.93	102.322	3481.93	101.222	3481.93	100.286	3481.93	102.155	3481.93	97.0464	3481.93	100.894	3481.93	94.0535	3481.93	98.5163	3481.93	91.8167	3481.93	96.596	3481.93	88.0221	3481.93	94.0544	3481.93	87.4487	3481.93	92.0835	3481.93	86.8555	3481.93	92.034	3481.93	79.7156	3481.93	86.0355	3481.93	84.0274	3481.93	86.2601	3481.93	79.3817	3481.93	87.5734	3481.93	77.562	3481.93	85.9319	3481.93	77.0077	3481.93	88.7615	3481.93	83.3036	3481.93	86.0004	3481.93	85.7133	3481.93	85.0908	3481.93	83.3937
3604.98	99.5578	3604.98	102.922	3604.98	92.3162	3604.98	103.303	3604.98	89.1017	3604.98	101.269	3604.98	99.5781	3604.98	97.9101	3604.98	102.023	3604.98	93.8497	3604.98	101.373	3604.98	91.7802	3604.98	98.3515	3604.98	88.5279	3604.98	95.619	3604.98	83.4317	3604.98	94.106	3604.98	83.1555	3604.98	90.3268	3604.98	83.063	3604.98	89.0462	3604.98	80.8815	3604.98	87.1838	3604.98	74.4354	3604.98	85.4834	3604.98	77.9789	3604.98	90.0541	3604.98	72.7749	3604.98	86.868	3604.98	67.0551	3604.98	87.0814	3604.98	79.7	3604.98	85.6429	3604.98	83.9754	3604.98	83.4719	3604.98	82.7485
3732.42	100.628	3732.42	102.212	3732.42	96.9945	3732.42	100.751	3732.42	89.0097	3732.42	97.4784	3732.42	93.8471	3732.42	94.7202	3732.42	98.89	3732.42	92.1608	3732.42	99.8697	3732.42	84.748	3732.42	98.4084	3732.42	82.825	3732.42	94.5002	3732.42	86.7214	3732.42	91.7134	3732.42	85.7853	3732.42	86.8528	3732.42	84.4978	3732.42	82.6251	3732.42	84.2515	3732.42	82.5614	3732.42	81.9653	3732.42	87.8297	3732.42	81.6484	3732.42	90.3597	3732.42	81.3745	3732.42	87.8779	3732.42	76.5926	3732.42	85.8805	3732.42	76.6478	3732.42	80.9885	3732.42	79.7219	3732.42	82.4446	3732.42	79.2233
3864.26	98.5402	3864.26	99.8172	3864.26	96.8976	3864.26	98.8914	3864.26	94.9176	3864.26	97.4167	3864.26	93.3867	3864.26	95.4136	3864.26	96.4733	3864.26	91.6347	3864.26	97.2073	3864.26	90.7817	3864.26	96.3899	3864.26	89.6629	3864.26	92.7961	3864.26	87.4273	3864.26	87.448	3864.26	87.3041	3864.26	79.8953	3864.26	87.2902	3864.26	80.1709	3864.26	87.2103	3864.26	79.4345	3864.26	83.7386	3864.26	84.6488	3864.26	83.6081	3864.26	88.3512	3864.26	83.0831	3864.26	83.5565	3864.26	80.6808	3864.26	83.8965	3864.26	78.067	3864.26	81.8254	3864.26	75.3138	3864.26	83.2562	3864.26	79.1616
4000.49	97.8302	4000.49	99.5309	4000.49	96.1831	4000.49	98.9136	4000.49	96.0376	4000.49	98.7018	4000.49	93.6947	4000.49	96.431	4000.49	95.4405	4000.49	93.1488	4000.49	95.9604	4000.49	91.4262	4000.49	94.3882	4000.49	90.1845	4000.49	90.3611	4000.49	89.9435	4000.49	83.2541	4000.49	90.7541	4000.49	83.2295	4000.49	87.9068	4000.49	87.4887	4000.49	86.5368	4000.49	87.4564	4000.49	84.8611	4000.49	80.7395	4000.49	83.5367	4000.49	85.6859	4000.49	83.8462	4000.49	80.5698	4000.49	81.9079	4000.49	79.9506	4000.49	80.2273	4000.49	83.2984	4000.49	68.75	4000.49	83.1999	4000.49	77.9651
4141.11	97.6516	4141.11	98.9501	4141.11	95.8613	4141.11	99.8262	4141.11	97.231	4141.11	99.3657	4141.11	94.3667	4141.11	95.8977	4141.11	94.7675	4141.11	93.4023	4141.11	95.3521	4141.11	92.1312	4141.11	94.0565	4141.11	91.2956	4141.11	90.3358	4141.11	90.0289	4141.11	85.3125	4141.11	86.3207	4141.11	81.645	4141.11	85.8758	4141.11	86.3927	4141.11	86.505	4141.11	89.4973	4141.11	85.142	4141.11	85.0783	4141.11	82.1072	4141.11	84.0178	4141.11	82.8299	4141.11	81.3466	4141.11	79.6552	4141.11	81.7621	4141.11	78.34	4141.11	83.84	4141.11	57.2411	4141.11	83.1624	4141.11	74.8588
4287.6	97.5928	4287.6	98.7419	4287.6	95.2761	4287.6	100.317	4287.6	97.6956	4287.6	98.789	4287.6	95.2321	4287.6	95.8648	4287.6	93.464	4287.6	93.2894	4287.6	95.2326	4287.6	91.3275	4287.6	94.7797	4287.6	89.5553	4287.6	91.9882	4287.6	86.6495	4287.6	88.1584	4287.6	88.154	4287.6	87.5944	4287.6	86.509	4287.6	87.6625	4287.6	82.9606	4287.6	86.6777	4287.6	83.8161	4287.6	86.2691	4287.6	81.2971	4287.6	85.3354	4287.6	83.35	4287.6	80.1114	4287.6	78.8995	4287.6	77.4193	4287.6	72.9373	4287.6	81.8409	4287.6	68.2358	4287.6	79.2122	4287.6	71.6674
4438.48	96.5081	4438.48	98.8265	4438.48	95.823	4438.48	100.779	4438.48	97.6593	4438.48	98.4563	4438.48	96.427	4438.48	94.8886	4438.48	90.6876	4438.48	92.4597	4438.48	94.0246	4438.48	91.1285	4438.48	95.0752	4438.48	89.1735	4438.48	93.868	4438.48	89.4219	4438.48	91.4842	4438.48	84.3219	4438.48	89.3822	4438.48	83.6739	4438.48	85.2014	4438.48	84.827	4438.48	85.6334	4438.48	83.1007	4438.48	88.2545	4438.48	80.2804	4438.48	85.4286	4438.48	81.2825	4438.48	77.9451	4438.48	80.0523	4438.48	67.9128	4438.48	69.965	4438.48	83.382	4438.48	69.6395	4438.48	80.2321	4438.48	78.9048
4595.21	95.8422	4595.21	99.6623	4595.21	95.5814	4595.21	100.381	4595.21	97.9029	4595.21	97.2407	4595.21	97.6422	4595.21	94.2487	4595.21	90.6273	4595.21	92.2563	4595.21	93.2343	4595.21	89.4215	4595.21	94.9566	4595.21	87.1088	4595.21	95.443	4595.21	83.8394	4595.21	92.8098	4595.21	86.6017	4595.21	89.1442	4595.21	83.3353	4595.21	84.7453	4595.21	80.3934	4595.21	80.6802	4595.21	81.313	4595.21	85.5119	4595.21	81.1178	4595.21	85.6151	4595.21	80.5493	4595.21	78.0914	4595.21	81.8325	4595.21	76.1974	4595.21	73.159	4595.21	84.1747	4595.21	70.4344	4595.21	83.0347	4595.21	78.4029
4756.35	95.4322	4756.35	100.006	4756.35	96.008	4756.35	99.7384	4756.35	97.8007	4756.35	96.4361	4756.35	98.2043	4756.35	94.3043	4756.35	90.7061	4756.35	91.0923	4756.35	92.2257	4756.35	88.8564	4756.35	94.4432	4756.35	88.6049	4756.35	95.1743	4756.35	88.9107	4756.35	93.6447	4756.35	86.3592	4756.35	90.4778	4756.35	85.7547	4756.35	81.253	4756.35	84.8907	4756.35	75.4875	4756.35	82.9203	4756.35	80.1856	4756.35	82.3297	4756.35	83.7291	4756.35	79.6891	4756.35	68.8373	4756.35	81.6301	4756.35	74.5463	4756.35	75.7608	4756.35	82.4754	4756.35	69.9136	4756.35	79.1721	4756.35	71.3897
4924.8	95.1476	4924.8	100.4	4924.8	95.9641	4924.8	99.2074	4924.8	97.5196	4924.8	96.4533	4924.8	97.892	4924.8	93.3005	4924.8	90.6859	4924.8	90.3897	4924.8	92.3807	4924.8	90.5697	4924.8	93.6638	4924.8	88.8476	4924.8	92.5306	4924.8	86.332	4924.8	91.1343	4924.8	85.7209	4924.8	91.9545	4924.8	83.0029	4924.8	84.5385	4924.8	82.9788	4924.8	83.2504	4924.8	81.19	4924.8	79.2468	4924.8	81.8843	4924.8	85.1141	4924.8	81.0149	4924.8	75.2813	4924.8	80.796	4924.8	69.6791	4924.8	75.777	4924.8	82.4279	4924.8	66.4144	4924.8	75.6378	4924.8	78.5353
5097.66	95.768	5097.66	100.408	5097.66	94.7178	5097.66	98.6709	5097.66	98.1097	5097.66	96.4542	5097.66	98.1015	5097.66	92.5264	5097.66	91.135	5097.66	91.0735	5097.66	91.2822	5097.66	89.9911	5097.66	94.5525	5097.66	89.6242	5097.66	94.2166	5097.66	88.0603	5097.66	86.8193	5097.66	86.8442	5097.66	91.962	5097.66	85.7693	5097.66	88.8299	5097.66	83.5423	5097.66	86.2884	5097.66	82.5159	5097.66	74.9643	5097.66	80.8623	5097.66	83.3078	5097.66	82.9656	5097.66	72.2383	5097.66	81.1666	5097.66	61.3431	5097.66	77.6603	5097.66	82.3449	5097.66	72.4093	5097.66	79.4368	5097.66	79.0961
5277.83	97.3448	5277.83	100.052	5277.83	93.4304	5277.83	98.2823	5277.83	98.2283	5277.83	95.9268	5277.83	99.1564	5277.83	91.6546	5277.83	93.5971	5277.83	91.7323	5277.83	89.4682	5277.83	91.7763	5277.83	94.9521	5277.83	89.5255	5277.83	94.894	5277.83	86.4452	5277.83	87.6246	5277.83	85.2996	5277.83	84.3796	5277.83	83.6473	5277.83	85.0658	5277.83	83.7281	5277.83	82.0854	5277.83	83.0202	5277.83	79.3771	5277.83	80.1707	5277.83	78.5899	5277.83	82.7063	5277.83	75.3929	5277.83	81.305	5277.83	72.1735	5277.83	78.3615	5277.83	82.6969	5277.83	67.8868	5277.83	75.7881	5277.83	71.7227
5463.87	97.7278	5463.87	99.5193	5463.87	94.1852	5463.87	98.2134	5463.87	97.6436	5463.87	95.0783	5463.87	98.4673	5463.87	92.6909	5463.87	94.4164	5463.87	92.8055	5463.87	88.3202	5463.87	90.9938	5463.87	94.3304	5463.87	89.2903	5463.87	92.8597	5463.87	87.9117	5463.87	86.9564	5463.87	85.4143	5463.87	83.1053	5463.87	84.2767	5463.87	86.8659	5463.87	79.8237	5463.87	81.3483	5463.87	81.9085	5463.87	82.8383	5463.87	79.7348	5463.87	77.7038	5463.87	82.2771	5463.87	78.1276	5463.87	81.9762	5463.87	71.6623	5463.87	79.658	5463.87	80.947	5463.87	68.1539	5463.87	77.3032	5463.87	71.9912
5657.23	98.1009	5657.23	99.1282	5657.23	93.6762	5657.23	97.9252	5657.23	98.2982	5657.23	94.4944	5657.23	98.1801	5657.23	93.6529	5657.23	94.558	5657.23	93.2453	5657.23	85.5714	5657.23	91.755	5657.23	94.785	5657.23	89.5112	5657.23	91.9953	5657.23	87.016	5657.23	86.7634	5657.23	84.771	5657.23	82.9536	5657.23	83.5889	5657.23	89.1607	5657.23	83.0937	5657.23	82.2305	5657.23	80.4898	5657.23	81.9954	5657.23	79.2847	5657.23	76.7539	5657.23	79.9293	5657.23	76.5347	5657.23	81.7401	5657.23	72.6172	5657.23	78.0957	5657.23	80.1446	5657.23	72.8273	5657.23	78.533	5657.23	75.0271
5856.45	98.2079	5856.45	99.0045	5856.45	93.929	5856.45	97.6919	5856.45	98.3654	5856.45	93.7994	5856.45	98.7638	5856.45	93.9049	5856.45	94.9917	5856.45	92.8195	5856.45	85.4055	5856.45	90.9808	5856.45	92.6853	5856.45	88.3349	5856.45	92.7446	5856.45	86.9141	5856.45	89.6995	5856.45	84.2336	5856.45	83.6805	5856.45	81.7443	5856.45	88.7942	5856.45	81.0193	5856.45	83.5301	5856.45	77.9864	5856.45	83.0744	5856.45	79.1092	5856.45	79.7308	5856.45	77.2105	5856.45	75.387	5856.45	80.947	5856.45	67.6956	5856.45	78.2802	5856.45	79.7878	5856.45	74.5726	5856.45	76.9969	5856.45	74.4468
6062.99	98.4607	6062.99	98.8096	6062.99	94.8664	6062.99	97.1533	6062.99	97.9423	6062.99	94.5127	6062.99	98.9173	6062.99	93.5504	6062.99	94.6659	6062.99	91.9423	6062.99	87.0884	6062.99	89.7561	6062.99	92.636	6062.99	86.7428	6062.99	91.725	6062.99	82.1797	6062.99	91.4221	6062.99	82.0534	6062.99	85.0194	6062.99	79.2616	6062.99	85.6361	6062.99	79.6262	6062.99	80.8224	6062.99	76.1095	6062.99	81.8634	6062.99	77.5021	6062.99	81.9311	6062.99	76.6967	6062.99	76.6234	6062.99	78.5971	6062.99	61.5029	6062.99	78.7093	6062.99	79.7374	6062.99	71.6809	6062.99	78.1618	6062.99	74.7051
6276.86	98.3704	6276.86	98.7603	6276.86	95.8693	6276.86	97.1998	6276.86	97.5468	6276.86	94.7516	6276.86	98.0684	6276.86	93.3474	6276.86	95.1644	6276.86	91.6292	6276.86	86.9958	6276.86	88.4654	6276.86	92.5746	6276.86	87.1842	6276.86	91.5904	6276.86	83.3237	6276.86	91.1565	6276.86	83.0633	6276.86	85.6577	6276.86	81.861	6276.86	78.8989	6276.86	79.121	6276.86	77.9635	6276.86	79.6773	6276.86	82.1983	6276.86	76.641	6276.86	81.4646	6276.86	79.2702	6276.86	80.4566	6276.86	79.5266	6276.86	62.6309	6276.86	78.8482	6276.86	78.8588	6276.86	76.4373	6276.86	76.8509	6276.86	74.0702
6498.05	98.127	6498.05	99.228	6498.05	97.1146	6498.05	97.4688	6498.05	97.4901	6498.05	94.3658	6498.05	97.7273	6498.05	93.4076	6498.05	94.5471	6498.05	91.5464	6498.05	88.3686	6498.05	89.5766	6498.05	92.9501	6498.05	85.8963	6498.05	92.8227	6498.05	85.4389	6498.05	90.1419	6498.05	81.8815	6498.05	84.5024	6498.05	82.1638	6498.05	77.316	6498.05	79.8537	6498.05	79.4368	6498.05	79.3039	6498.05	79.5279	6498.05	77.5072	6498.05	78.0013	6498.05	79.1921	6498.05	80.5436	6498.05	79.7088	6498.05	64.3178	6498.05	79.8052	6498.05	79.9886	6498.05	74.523	6498.05	74.509	6498.05	73.4576
6726.56	98.0116	6726.56	99.537	6726.56	97.541	6726.56	97.0875	6726.56	97.7801	6726.56	94.5559	6726.56	97.488	6726.56	93.6077	6726.56	94.2727	6726.56	92.1406	6726.56	88.2567	6726.56	88.9141	6726.56	91.8326	6726.56	87.6283	6726.56	92.8171	6726.56	84.6334	6726.56	88.839	6726.56	83.6423	6726.56	84.7092	6726.56	82.6734	6726.56	74.0007	6726.56	80.4497	6726.56	79.5287	6726.56	78.5362	6726.56	80.4234	6726.56	77.5399	6726.56	78.5351	6726.56	77.752	6726.56	73.3977	6726.56	80.4411	6726.56	63.0256	6726.56	79.3217	6726.56	77.9916	6726.56	75.9201	6726.56	72.5191	6726.56	69.6312
6963.87	97.9918	6963.87	99.4925	6963.87	97.8678	6963.87	96.6737	6963.87	98.609	6963.87	94.3994	6963.87	97.1177	6963.87	93.9925	6963.87	94.7332	6963.87	92.1257	6963.87	87.8694	6963.87	89.7301	6963.87	91.4187	6963.87	87.414	6963.87	92.8086	6963.87	86.2396	6963.87	87.4637	6963.87	82.8486	6963.87	83.1709	6963.87	82.2085	6963.87	66.9799	6963.87	79.1056	6963.87	78.7539	6963.87	78.4105	6963.87	75.421	6963.87	75.9895	6963.87	78.3338	6963.87	77.2093	6963.87	71.7842	6963.87	79.3066	6963.87	63.3625	6963.87	79.1073	6963.87	78.2639	6963.87	74.8215	6963.87	73.3363	6963.87	70.9698
7209.96	97.79	7209.96	99.3806	7209.96	97.9506	7209.96	96.316	7209.96	99.0628	7209.96	94.734	7209.96	96.9275	7209.96	94.5639	7209.96	94.4545	7209.96	91.2349	7209.96	88.3731	7209.96	89.527	7209.96	90.6737	7209.96	86.2273	7209.96	92.564	7209.96	82.1628	7209.96	87.3951	7209.96	79.1338	7209.96	85.7009	7209.96	79.328	7209.96	77.7631	7209.96	77.9152	7209.96	77.4624	7209.96	76.1609	7209.96	71.9352	7209.96	75.1313	7209.96	77.5726	7209.96	74.5302	7209.96	77.3769	7209.96	77.8814	7209.96	66.4929	7209.96	77.8286	7209.96	75.9291	7209.96	74.945	7209.96	73.1239	7209.96	72.752
7464.84	98.1394	7464.84	99.5975	7464.84	97.855	7464.84	96.5514	7464.84	99.4751	7464.84	95.6996	7464.84	96.6759	7464.84	94.4142	7464.84	94.8189	7464.84	91.0441	7464.84	88.6801	7464.84	88.33	7464.84	88.7592	7464.84	84.9848	7464.84	90.4672	7464.84	81.9112	7464.84	83.9705	7464.84	79.8385	7464.84	85.941	7464.84	78.5551	7464.84	80.8453	7464.84	78.3795	7464.84	76.6941	7464.84	76.2421	7464.84	68.9989	7464.84	76.0969	7464.84	77.0741	7464.84	76.8356	7464.84	76.1675	7464.84	77.858	7464.84	67.4666	7464.84	78.7013	7464.84	75.4098	7464.84	75.7936	7464.84	70.9754	7464.84	73.0894
7727.05	98.19	7727.05	100.154	7727.05	97.7159	7727.05	96.4938	7727.05	99.8794	7727.05	96.2365	7727.05	96.6439	7727.05	94.0247	7727.05	95.0616	7727.05	91.6253	7727.05	88.8266	7727.05	87.9841	7727.05	88.0299	7727.05	85.8254	7727.05	88.6962	7727.05	84.9181	7727.05	81.2976	7727.05	82.8986	7727.05	83.3503	7727.05	80.7524	7727.05	81.1663	7727.05	78.4664	7727.05	72.6717	7727.05	77.3819	7727.05	65.0903	7727.05	76.5993	7727.05	74.0038	7727.05	77.3307	7727.05	76.3142	7727.05	78.7381	7727.05	59.678	7727.05	79.2995	7727.05	73.7311	7727.05	75.8357	7727.05	68.9343	7727.05	73.0087
7999.51	98.9512	7999.51	100.38	7999.51	97.0512	7999.51	96.4959	7999.51	100.35	7999.51	96.0584	7999.51	96.4377	7999.51	94.3343	7999.51	95.747	7999.51	91.767	7999.51	88.3525	7999.51	88.8569	7999.51	88.1529	7999.51	87.5758	7999.51	87.642	7999.51	84.1172	7999.51	82.1455	7999.51	81.8054	7999.51	82.9803	7999.51	79.9541	7999.51	84.8943	7999.51	77.6377	7999.51	76.832	7999.51	76.4722	7999.51	71.2962	7999.51	75.1893	7999.51	77.0849	7999.51	78.0717	7999.51	74.3126	7999.51	78.7649	7999.51	64.1515	7999.51	79.2715	7999.51	73.862	7999.51	73.7783	7999.51	66.4146	7999.51	72.2114
8282.23	100.284	8282.23	100.412	8282.23	96.0159	8282.23	95.7648	8282.23	100.67	8282.23	96.0201	8282.23	95.7905	8282.23	94.7519	8282.23	95.528	8282.23	90.9204	8282.23	88.6752	8282.23	90.1119	8282.23	86.9583	8282.23	86.7561	8282.23	87.5622	8282.23	83.3283	8282.23	85.5911	8282.23	77.0828	8282.23	85.1026	8282.23	77.2793	8282.23	86.1632	8282.23	76.264	8282.23	73.0089	8282.23	73.4382	8282.23	73.2264	8282.23	72.0698	8282.23	69.6163	8282.23	76.3846	8282.23	71.7995	8282.23	78.2235	8282.23	71.0903	8282.23	77.4254	8282.23	71.3528	8282.23	73.1666	8282.23	67.3776	8282.23	73.4713
8573.73	101.714	8573.73	99.7474	8573.73	94.7521	8573.73	95.6094	8573.73	100.588	8573.73	96.4396	8573.73	94.9	8573.73	94.2924	8573.73	95.328	8573.73	91.667	8573.73	88.744	8573.73	89.909	8573.73	85.4986	8573.73	84.0784	8573.73	87.4495	8573.73	80.8634	8573.73	88.4507	8573.73	76.6101	8573.73	85.9833	8573.73	74.6186	8573.73	85.925	8573.73	73.8798	8573.73	70.7546	8573.73	73.1861	8573.73	70.9551	8573.73	70.1287	8573.73	70.7481	8573.73	71.3015	8573.73	70.5319	8573.73	75.0154	8573.73	72.573	8573.73	77.963	8573.73	69.8903	8573.73	72.0034	8573.73	67.9807	8573.73	71.3603
8876.95	101.87	8876.95	98.9761	8876.95	95.5194	8876.95	96.4347	8876.95	100.28	8876.95	97.3812	8876.95	94.6728	8876.95	93.4315	8876.95	94.483	8876.95	92.2405	8876.95	88.4769	8876.95	86.8705	8876.95	84.5298	8876.95	81.1078	8876.95	87.9224	8876.95	76.0673	8876.95	86.6677	8876.95	75.0448	8876.95	80.8342	8876.95	74.6301	8876.95	85.1846	8876.95	71.1054	8876.95	70.46	8876.95	73.597	8876.95	65.012	8876.95	71.4756	8876.95	73.1077	8876.95	72.6179	8876.95	72.0521	8876.95	73.4053	8876.95	42.5826	8876.95	77.2278	8876.95	68.7127	8876.95	74.1133	8876.95	68.2566	8876.95	72.9843
9188.96	102.275	9188.96	97.9098	9188.96	96.101	9188.96	97.9699	9188.96	100.167	9188.96	97.6231	9188.96	95.6334	9188.96	93.3785	9188.96	93.6628	9188.96	91.425	9188.96	87.6399	9188.96	84.9827	9188.96	85.2264	9188.96	80.0203	9188.96	87.3729	9188.96	75.2507	9188.96	85.405	9188.96	75.2008	9188.96	73.8127	9188.96	73.6706	9188.96	85.5227	9188.96	70.5393	9188.96	73.4737	9188.96	71.7491	9188.96	68.6945	9188.96	68.3977	9188.96	73.0685	9188.96	73.4265	9188.96	64.0998	9188.96	73.8554	9188.96	65.4956	9188.96	76.534	9188.96	69.7133	9188.96	74.386	9188.96	62.3311	9188.96	73.7004
9514.16	102.063	9514.16	96.837	9514.16	97.626	9514.16	99.4185	9514.16	99.5548	9514.16	96.7347	9514.16	96.1879	9514.16	94.1121	9514.16	93.0574	9514.16	90.0215	9514.16	88.7795	9514.16	83.9765	9514.16	83.4962	9514.16	78.3582	9514.16	85.8061	9514.16	78.092	9514.16	85.1372	9514.16	75.4347	9514.16	72.2715	9514.16	73.705	9514.16	83.91	9514.16	73.8559	9514.16	74.4936	9514.16	70.4682	9514.16	70.3611	9514.16	68.3143	9514.16	73.8477	9514.16	73.2015	9514.16	67.7817	9514.16	74.8345	9514.16	62.2091	9514.16	76.3917	9514.16	71.1144	9514.16	73.2628	9514.16	66.5696	9514.16	73.1965
9849.61	101.299	9849.61	97.8318	9849.61	98.8041	9849.61	99.5995	9849.61	99.1931	9849.61	96.2096	9849.61	96.1262	9849.61	94.1919	9849.61	92.6535	9849.61	88.3511	9849.61	90.2722	9849.61	83.8153	9849.61	74.1103	9849.61	81.6632	9849.61	84.996	9849.61	78.7671	9849.61	84.4945	9849.61	75.869	9849.61	77.9289	9849.61	72.8347	9849.61	78.7195	9849.61	74.0079	9849.61	74.8473	9849.61	69.677	9849.61	65.642	9849.61	70.4904	9849.61	72.111	9849.61	69.8291	9849.61	72.3012	9849.61	74.7358	9849.61	63.226	9849.61	75.9176	9849.61	67.2464	9849.61	72.5509	9849.61	48.1429	9849.61	73.2489
10196.8	101.068	10196.8	98.6899	10196.8	99.4023	10196.8	99.1211	10196.8	99.1097	10196.8	96.6577	10196.8	95.9552	10196.8	93.3274	10196.8	92.0782	10196.8	87.9195	10196.8	90.7202	10196.8	84.0809	10196.8	73.7217	10196.8	81.8779	10196.8	84.8872	10196.8	78.4402	10196.8	84.5058	10196.8	73.5817	10196.8	77.4167	10196.8	74.6737	10196.8	52.7906	10196.8	73.1195	10196.8	68.8315	10196.8	72.4642	10196.8	65.7874	10196.8	69.2894	10196.8	69.8386	10196.8	69.7313	10196.8	68.335	10196.8	73.6526	10196.8	53.5116	10196.8	75.6213	10196.8	67.2636	10196.8	71.8169	10196.8	66.0098	10196.8	72.2784
10555.7	100.664	10555.7	98.9042	10555.7	99.4739	10555.7	98.8878	10555.7	98.8145	10555.7	96.7617	10555.7	95.6573	10555.7	92.2648	10555.7	92.0913	10555.7	88.0847	10555.7	89.3087	10555.7	84.8027	10555.7	78.633	10555.7	81.3622	10555.7	84.4922	10555.7	79.5671	10555.7	83.3756	10555.7	74.6654	10555.7	77.3186	10555.7	76.1103	10555.7	76.0041	10555.7	73.3235	10555.7	59.3618	10555.7	73.1071	10555.7	63.4613	10555.7	68.602	10555.7	65.3167	10555.7	71.9309	10555.7	61.864	10555.7	72.3347	10555.7	65.3479	10555.7	73.7892	10555.7	63.148	10555.7	73.1249	10555.7	61.452	10555.7	71.5844
10927.7	100.738	10927.7	99.2107	10927.7	99.4381	10927.7	98.9804	10927.7	98.7831	10927.7	95.8074	10927.7	95.3989	10927.7	91.8074	10927.7	91.5727	10927.7	88.3695	10927.7	89.0168	10927.7	84.9763	10927.7	81.1182	10927.7	81.3478	10927.7	82.4646	10927.7	77.6596	10927.7	80.9521	10927.7	73.5474	10927.7	77.2341	10927.7	74.6842	10927.7	76.8636	10927.7	72.3613	10927.7	70.1949	10927.7	73.1537	10927.7	65.018	10927.7	69.2228	10927.7	62.2201	10927.7	71.9314	10927.7	59.6375	10927.7	69.5296	10927.7	62.8157	10927.7	71.8316	10927.7	67.7089	10927.7	72.1047	10927.7	65.6252	10927.7	71.8283
11313	101.441	11313	99.5983	11313	99.8246	11313	98.8978	11313	98.8825	11313	95.1872	11313	95.1669	11313	91.8368	11313	91.2163	11313	88.5412	11313	88.5461	11313	84.4601	11313	83.5904	11313	80.6504	11313	79.8034	11313	77.681	11313	81.3352	11313	74.726	11313	76.5493	11313	74.5182	11313	73.9799	11313	72.2192	11313	71.6656	11313	73.064	11313	62.4756	11313	70.8244	11313	69.1469	11313	73.6167	11313	65.8967	11313	66.4122	11313	59.21	11313	71.6552	11313	55.5247	11313	71.4586	11313	64.2941	11313	72.2345
11712.9	101.746	11712.9	99.4551	11712.9	99.9767	11712.9	98.8301	11712.9	99.1308	11712.9	95.2534	11712.9	94.7243	11712.9	91.4561	11712.9	90.8669	11712.9	89.1937	11712.9	88.3278	11712.9	83.7382	11712.9	85.9944	11712.9	81.8745	11712.9	80.8722	11712.9	79.9092	11712.9	81.593	11712.9	74.5261	11712.9	76.3775	11712.9	75.1261	11712.9	74.8961	11712.9	72.6957	11712.9	72.0568	11712.9	73.5791	11712.9	68.7465	11712.9	68.7891	11712.9	70.8931	11712.9	74.5126	11712.9	67.9957	11712.9	66.885	11712.9	59.6333	11712.9	70.1116	11712.9	64.9649	11712.9	71.5403	11712.9	62.2427	11712.9	70.62
12126	101.95	12126	99.3654	12126	99.913	12126	99.2151	12126	99.3266	12126	95.3084	12126	94.8134	12126	89.209	12126	90.0608	12126	90.5001	12126	87.1986	12126	84.8708	12126	86.4298	12126	81.9088	12126	81.5451	12126	80.327	12126	80.8814	12126	69.5852	12126	72.5516	12126	74.803	12126	76.7581	12126	71.7605	12126	73.0047	12126	74.1232	12126	72.62	12126	68.6208	12126	69.9703	12126	73.5329	12126	69.8704	12126	59.1089	12126	63.6981	12126	66.7361	12126	52.4734	12126	71.8144	12126	62.0302	12126	69.6734
12553.7	101.823	12553.7	100.443	12553.7	100.379	12553.7	99.0061	12553.7	98.9315	12553.7	94.1859	12553.7	95.8972	12553.7	91.9852	12553.7	90.1655	12553.7	89.3351	12553.7	88.5569	12553.7	86.3085	12553.7	84.696	12553.7	76.0583	12553.7	78.403	12553.7	72.9232	12553.7	82.0126	12553.7	73.2126	12553.7	69.0311	12553.7	64.8146	12553.7	72.4012	12553.7	75.0847	12553.7	72.3467	12553.7	68.1956	12553.7	75.1433	12553.7	74.7353	12553.7	73.6309	12553.7	73.4218	12553.7	69.809	12553.7	67.3191	12553.7	65.6306	12553.7	71.3058	12553.7	63.7317	12553.7	65.8564	12553.7	69.5533	12553.7	67.0547
12996.1	101.583	12996.1	100.922	12996.1	100.724	12996.1	98.0459	12996.1	98.0671	12996.1	95.4815	12996.1	96.6619	12996.1	93.0285	12996.1	90.2215	12996.1	88.9496	12996.1	90.0071	12996.1	84.9185	12996.1	82.4739	12996.1	81.2049	12996.1	74.9677	12996.1	78.3122	12996.1	79.4821	12996.1	76.6041	12996.1	66.4941	12996.1	70.8157	12996.1	62.522	12996.1	74.9542	12996.1	67.842	12996.1	67.8727	12996.1	67.7349	12996.1	74.8202	12996.1	68.0219	12996.1	72.6526	12996.1	66.5049	12996.1	71.2333	12996.1	52.3109	12996.1	68.3873	12996.1	65.8377	12996.1	69.7299	12996.1	65.675	12996.1	65.7472
13454.6	102.031	13454.6	100.986	13454.6	101.108	13454.6	98.252	13454.6	98.5232	13454.6	96.2215	13454.6	97.0474	13454.6	92.567	13454.6	91.4647	13454.6	89.8166	13454.6	89.6857	13454.6	85.0464	13454.6	82.7978	13454.6	82.8838	13454.6	68.0105	13454.6	77.942	13454.6	76.5894	13454.6	73.9001	13454.6	68.9187	13454.6	70.8134	13454.6	63.7669	13454.6	71.4199	13454.6	67.8717	13454.6	70.5856	13454.6	64.6021	13454.6	71.4489	13454.6	58.6071	13454.6	71.0282	13454.6	60.6404	13454.6	68.3247	13454.6	56.7106	13454.6	69.1737	13454.6	44.7888	13454.6	61.0321	13454.6	69.3281	13454.6	64.5294
13929.2	102.113	13929.2	101.335	13929.2	101.388	13929.2	98.6493	13929.2	99.0341	13929.2	96.258	13929.2	97.2542	13929.2	93.0442	13929.2	91.9559	13929.2	89.1283	13929.2	88.9547	13929.2	85.7742	13929.2	82.7083	13929.2	79.9439	13929.2	64.3912	13929.2	75.887	13929.2	74.5381	13929.2	72.253	13929.2	72.3272	13929.2	67.7126	13929.2	62.9174	13929.2	70.1856	13929.2	65.4711	13929.2	68.1319	13929.2	64.4996	13929.2	72.2157	13929.2	61.1125	13929.2	70.0325	13929.2	58.0662	13929.2	69.1249	13929.2	60.0042	13929.2	70.889	13929.2	65.0971	13929.2	66.2122	13929.2	62.3408	13929.2	62.4698
14419.9	102.416	14419.9	101.779	14419.9	101.911	14419.9	98.9512	14419.9	99.6023	14419.9	96.3908	14419.9	97.583	14419.9	92.9285	14419.9	92.3779	14419.9	88.197	14419.9	88.4383	14419.9	84.6425	14419.9	81.0016	14419.9	80.3719	14419.9	68.3343	14419.9	70.9338	14419.9	73.1802	14419.9	72.3313	14419.9	71.0272	14419.9	61.8578	14419.9	66.6559	14419.9	68.8784	14419.9	61.8948	14419.9	63.1836	14419.9	59.773	14419.9	71.1656	14419.9	58.7739	14419.9	66.3386	14419.9	48.4913	14419.9	69.2604	14419.9	52.3717	14419.9	68.5513	14419.9	54.8203	14419.9	62.9192	14419.9	61.9049	14419.9	54.8402
14928.2	102.653	14928.2	101.967	14928.2	102.084	14928.2	99.4898	14928.2	99.7331	14928.2	96.5082	14928.2	97.345	14928.2	92.228	14928.2	92.3144	14928.2	87.9734	14928.2	88.1096	14928.2	82.06	14928.2	79.656	14928.2	76.8674	14928.2	73.0511	14928.2	69.5785	14928.2	69.2699	14928.2	68.8538	14928.2	67.6712	14928.2	65.6207	14928.2	67.2382	14928.2	63.5013	14928.2	44.2848	14928.2	62.7982	14928.2	54.0909	14928.2	70.9969	14928.2	56.431	14928.2	62.9127	14928.2	56.0885	14928.2	68.776	14928.2	45.1089	14928.2	68.1033	14928.2	58.6186	14928.2	62.3779	14928.2	62.9926	14928.2	47.4972
15455.6	102.946	15455.6	102.142	15455.6	102.28	15455.6	99.7558	15455.6	100.06	15455.6	96.2457	15455.6	97.0462	15455.6	91.7897	15455.6	91.9913	15455.6	86.6885	15455.6	86.9104	15455.6	79.3778	15455.6	78.2979	15455.6	70.4422	15455.6	71.7407	15455.6	70.7794	15455.6	58.4483	15455.6	64.6216	15455.6	66.2809	15455.6	66.7654	15455.6	61.6073	15455.6	63.3626	15455.6	59.8274	15455.6	63.1248	15455.6	54.1982	15455.6	69.5602	15455.6	51.8804	15455.6	66.0724	15455.6	56.5035	15455.6	66.6487	15455.6	47.4559	15455.6	68.771	15455.6	47.2012	15455.6	66.4288	15455.6	59.9363	15455.6	52.6723
16000.5	103.002	16000.5	102.231	16000.5	102.356	16000.5	99.5988	16000.5	100.173	16000.5	96.0411	16000.5	96.7238	16000.5	91.1921	16000.5	91.6626	16000.5	85.0121	16000.5	85.7891	16000.5	76.7183	16000.5	75.5844	16000.5	72.2598	16000.5	67.6887	16000.5	71.8722	16000.5	55.3146	16000.5	68.1426	16000.5	61.9982	16000.5	68.3492	16000.5	64.2667	16000.5	64.0111	16000.5	62.8278	16000.5	65.1145	16000.5	55.3678	16000.5	67.5599	16000.5	46.3811	16000.5	65.5462	16000.5	57.3119	16000.5	66.481	16000.5	38.3398	16000.5	68.7756	16000.5	56.1243	16000.5	66.2328	16000.5	61.3778	16000.5	47.0703
16564.5	103.214	16564.5	102.214	16564.5	102.444	16564.5	99.3004	16564.5	100.242	16564.5	95.4149	16564.5	96.3342	16564.5	89.8808	16564.5	91.1713	16564.5	83.456	16564.5	84.1053	16564.5	72.8528	16564.5	73.5007	16564.5	72.4398	16564.5	69.4105	16564.5	70.3395	16564.5	52.6521	16564.5	65.8526	16564.5	65.0246	16564.5	66.2036	16564.5	63.0212	16564.5	63.6252	16564.5	63.7209	16564.5	65.1352	16564.5	58.226	16564.5	68.099	16564.5	51.2714	16564.5	63.7494	16564.5	55.8334	16564.5	65.1653	16564.5	53.9713	16564.5	68.0909	16564.5	57.3942	16564.5	66.5764	16564.5	60.1435	16564.5	51.2626
17148.9	102.766	17148.9	101.795	17148.9	102.141	17148.9	98.7675	17148.9	100.044	17148.9	94.5347	17148.9	95.9518	17148.9	88.9552	17148.9	89.9068	17148.9	79.5637	17148.9	81.845	17148.9	74.5147	17148.9	63.93	17148.9	72.9984	17148.9	75.5768	17148.9	71.4936	17148.9	56.6841	17148.9	68.7998	17148.9	66.7083	17148.9	65.8445	17148.9	55.7046	17148.9	65.7624	17148.9	62.7957	17148.9	63.4264	17148.9	57.2979	17148.9	66.6545	17148.9	49.3666	17148.9	64.8023	17148.9	52.9197	17148.9	65.8427	17148.9	54.6698	17148.9	69.1671	17148.9	55.8599	17148.9	66.1266	17148.9	57.0766	17148.9	54.5005
17752.4	102.363	17752.4	101.323	17752.4	101.717	17752.4	97.9235	17752.4	99.5213	17752.4	93.5406	17752.4	95.0277	17752.4	87.0507	17752.4	88.7346	17752.4	77.3668	17752.4	79.7369	17752.4	74.309	17752.4	72.828	17752.4	75.5909	17752.4	79.1072	17752.4	71.359	17752.4	67.1624	17752.4	66.6181	17752.4	65.8655	17752.4	66.4133	17752.4	52.8229	17752.4	63.3814	17752.4	60.4527	17752.4	64.9066	17752.4	58.884	17752.4	66.917	17752.4	46.5424	17752.4	65.5483	17752.4	50.1176	17752.4	65.2235	17752.4	51.2316	17752.4	67.8912	17752.4	46.4774	17752.4	61.7344	17752.4	54.6015	17752.4	57.9237
18379.4	101.755	18379.4	100.661	18379.4	101.087	18379.4	97.0014	18379.4	98.6755	18379.4	92.4938	18379.4	93.638	18379.4	84.5695	18379.4	86.3434	18379.4	77.2421	18379.4	77.2794	18379.4	77.3411	18379.4	76.0318	18379.4	75.3664	18379.4	78.6436	18379.4	72.8438	18379.4	65.391	18379.4	68.0739	18379.4	63.9167	18379.4	66.2196	18379.4	55.8823	18379.4	64.8149	18379.4	62.1778	18379.4	66.0225	18379.4	50.879	18379.4	65.9332	18379.4	44.3373	18379.4	65.1298	18379.4	46.7627	18379.4	66.2607	18379.4	50.745	18379.4	66.3223	18379.4	51.1669	18379.4	64.3963	18379.4	52.941	18379.4	48.4147
19026.9	101.253	19026.9	100.074	19026.9	100.476	19026.9	96.2071	19026.9	97.6907	19026.9	90.7689	19026.9	91.777	19026.9	82.2686	19026.9	84.1268	19026.9	78.8898	19026.9	74.7022	19026.9	77.3363	19026.9	75.2306	19026.9	76.3594	19026.9	76.5181	19026.9	71.9134	19026.9	56.7615	19026.9	67.9965	19026.9	58.7043	19026.9	65.0816	19026.9	58.9206	19026.9	64.8002	19026.9	60.1705	19026.9	64.0418	19026.9	50.4185	19026.9	66.2247	19026.9	49.2269	19026.9	63.5115	19026.9	54.1601	19026.9	64.2423	19026.9	48.77	19026.9	64.774	19026.9	52.7768	19026.9	61.1534	19026.9	50.6975	19026.9	51.2024
19697.8	100.683	19697.8	99.3956	19697.8	99.7992	19697.8	95.2814	19697.8	96.912	19697.8	88.723	19697.8	90.2722	19697.8	79.4251	19697.8	80.0049	19697.8	77.587	19697.8	70.6185	19697.8	77.3554	19697.8	72.421	19697.8	74.3609	19697.8	73.3072	19697.8	71.5699	19697.8	59.2075	19697.8	65.9553	19697.8	49.7219	19697.8	64.4055	19697.8	61.077	19697.8	59.8881	19697.8	62.7787	19697.8	63.3898	19697.8	49.8417	19697.8	63.1719	19697.8	53.7576	19697.8	59.2768	19697.8	53.9106	19697.8	60.7366	19697.8	55.1492	19697.8	61.9398	19697.8	48.0428	19697.8	57.9669	19697.8	45.626	19697.8	48.9219
19999.5	100.507	19999.5	99.1692	19999.5	99.6157	19999.5	94.6979	19999.5	96.1796	19999.5	87.7043	19999.5	89.5763	19999.5	77.848	19999.5	76.6403	19999.5	76.7621	19999.5	67.6199	19999.5	77.1043	19999.5	68.8057	19999.5	72.341	19999.5	73.8873	19999.5	69.2396	19999.5	65.1053	19999.5	65.2821	19999.5	61.7029	19999.5	61.4386	19999.5	64.2852	19999.5	62.8316	19999.5	62.838	19999.5	60.2543	19999.5	56.4822	19999.5	59.7448	19999.5	51.0159	19999.5	57.4553	19999.5	56.1349	19999.5	63.7405	19999.5	55.0229	19999.5	62.9842	19999.5	60.0895	19999.5	56.7457	19999.5	56.1264	19999.5	51.4403
