"SPL Horizontal"
"On-Axis"		"10°"		"-10°"		"20°"		"-20°"		"30°"		"-30°"		"40°"		"-40°"		"50°"		"-50°"		"60°"		"-60°"		"70°"		"-70°"		"80°"		"-80°"		"90°"		"-90°"		"100°"		"-100°"		"110°"		"-110°"		"120°"		"-120°"		"130°"		"-130°"		"140°"		"-140°"		"150°"		"-150°"		"160°"		"-160°"		"170°"		"-170°"		"180°"
"Frequency [Hz]"	"Sound Pessure Level [dB]   [0.3V at 1m]"	"Frequency [Hz]"	"Sound Pessure Level [dB]   [0.3V at 1m]"	"Frequency [Hz]"	"Sound Pessure Level [dB]   [0.3V at 1m]"	"Frequency [Hz]"	"Sound Pessure Level [dB]   [0.3V at 1m]"	"Frequency [Hz]"	"Sound Pessure Level [dB]   [0.3V at 1m]"	"Frequency [Hz]"	"Sound Pessure Level [dB]   [0.3V at 1m]"	"Frequency [Hz]"	"Sound Pessure Level [dB]   [0.3V at 1m]"	"Frequency [Hz]"	"Sound Pessure Level [dB]   [0.3V at 1m]"	"Frequency [Hz]"	"Sound Pessure Level [dB]   [0.3V at 1m]"	"Frequency [Hz]"	"Sound Pessure Level [dB]   [0.3V at 1m]"	"Frequency [Hz]"	"Sound Pessure Level [dB]   [0.3V at 1m]"	"Frequency [Hz]"	"Sound Pessure Level [dB]   [0.3V at 1m]"	"Frequency [Hz]"	"Sound Pessure Level [dB]   [0.3V at 1m]"	"Frequency [Hz]"	"Sound Pessure Level [dB]   [0.3V at 1m]"	"Frequency [Hz]"	"Sound Pessure Level [dB]   [0.3V at 1m]"	"Frequency [Hz]"	"Sound Pessure Level [dB]   [0.3V at 1m]"	"Frequency [Hz]"	"Sound Pessure Level [dB]   [0.3V at 1m]"	"Frequency [Hz]"	"Sound Pessure Level [dB]   [0.3V at 1m]"	"Frequency [Hz]"	"Sound Pessure Level [dB]   [0.3V at 1m]"	"Frequency [Hz]"	"Sound Pessure Level [dB]   [0.3V at 1m]"	"Frequency [Hz]"	"Sound Pessure Level [dB]   [0.3V at 1m]"	"Frequency [Hz]"	"Sound Pessure Level [dB]   [0.3V at 1m]"	"Frequency [Hz]"	"Sound Pessure Level [dB]   [0.3V at 1m]"	"Frequency [Hz]"	"Sound Pessure Level [dB]   [0.3V at 1m]"	"Frequency [Hz]"	"Sound Pessure Level [dB]   [0.3V at 1m]"	"Frequency [Hz]"	"Sound Pessure Level [dB]   [0.3V at 1m]"	"Frequency [Hz]"	"Sound Pessure Level [dB]   [0.3V at 1m]"	"Frequency [Hz]"	"Sound Pessure Level [dB]   [0.3V at 1m]"	"Frequency [Hz]"	"Sound Pessure Level [dB]   [0.3V at 1m]"	"Frequency [Hz]"	"Sound Pessure Level [dB]   [0.3V at 1m]"	"Frequency [Hz]"	"Sound Pessure Level [dB]   [0.3V at 1m]"	"Frequency [Hz]"	"Sound Pessure Level [dB]   [0.3V at 1m]"	"Frequency [Hz]"	"Sound Pessure Level [dB]   [0.3V at 1m]"	"Frequency [Hz]"	"Sound Pessure Level [dB]   [0.3V at 1m]"	"Frequency [Hz]"	"Sound Pessure Level [dB]   [0.3V at 1m]"	"Frequency [Hz]"	"Sound Pessure Level [dB]   [0.3V at 1m]"
20.5078	62.6345	20.5078	62.634	20.5078	62.6428	20.5078	62.6423	20.5078	62.658	20.5078	62.6602	20.5078	62.6788	20.5078	62.688	20.5078	62.7043	20.5078	62.7257	20.5078	62.7333	20.5078	62.7729	20.5078	62.7648	20.5078	62.8284	20.5078	62.7979	20.5078	62.8904	20.5078	62.8319	20.5078	62.9563	20.5078	62.8663	20.5078	63.0228	20.5078	62.9008	20.5078	63.0862	20.5078	62.9357	20.5078	63.1426	20.5078	62.9714	20.5078	63.1883	20.5078	63.0085	20.5078	63.2205	20.5078	63.0472	20.5078	63.2374	20.5078	63.0875	20.5078	63.2386	20.5078	63.1281	20.5078	63.2254	20.5078	63.1667	20.5078	63.2004
21.9727	55.9657	21.9727	55.9861	21.9727	55.9242	21.9727	55.9845	21.9727	55.8624	21.9727	55.9604	21.9727	55.7819	21.9727	55.9138	21.9727	55.6841	21.9727	55.8455	21.9727	55.571	21.9727	55.7567	21.9727	55.4449	21.9727	55.6497	21.9727	55.3089	21.9727	55.5277	21.9727	55.1666	21.9727	55.3945	21.9727	55.0223	21.9727	55.2547	21.9727	54.8812	21.9727	55.1132	21.9727	54.7486	21.9727	54.9748	21.9727	54.63	21.9727	54.844	21.9727	54.5306	21.9727	54.7243	21.9727	54.4543	21.9727	54.6189	21.9727	54.4039	21.9727	54.5301	21.9727	54.3802	21.9727	54.4598	21.9727	54.3827	21.9727	54.4099
23.4375	53.3513	23.4375	53.3523	23.4375	53.3533	23.4375	53.3599	23.4375	53.3563	23.4375	53.3785	23.4375	53.3595	23.4375	53.4134	23.4375	53.364	23.4375	53.4694	23.4375	53.3723	23.4375	53.5509	23.4375	53.3882	23.4375	53.66	23.4375	53.4168	23.4375	53.7965	23.4375	53.4633	23.4375	53.9565	23.4375	53.5325	23.4375	54.1329	23.4375	53.6276	23.4375	54.3154	23.4375	53.7496	23.4375	54.4918	23.4375	53.8964	23.4375	54.6493	23.4375	54.0626	23.4375	54.7758	23.4375	54.2396	23.4375	54.8615	23.4375	54.4166	23.4375	54.8997	23.4375	54.5813	23.4375	54.8877	23.4375	54.7216	23.4375	54.8266
24.9023	52.6757	24.9023	52.7126	24.9023	52.6562	24.9023	52.7659	24.9023	52.6561	24.9023	52.8355	24.9023	52.6782	24.9023	52.9224	24.9023	52.7255	24.9023	53.0282	24.9023	52.8009	24.9023	53.1541	24.9023	52.9061	24.9023	53.3008	24.9023	53.0409	24.9023	53.4675	24.9023	53.2034	24.9023	53.6513	24.9023	53.3893	24.9023	53.8469	24.9023	53.5922	24.9023	54.0473	24.9023	53.8044	24.9023	54.2433	24.9023	54.0173	24.9023	54.4254	24.9023	54.222	24.9023	54.5841	24.9023	54.4096	24.9023	54.7106	24.9023	54.5719	24.9023	54.7982	24.9023	54.7015	24.9023	54.8421	24.9023	54.7924	24.9023	54.8401
26.3672	49.8197	26.3672	49.7531	26.3672	49.8927	26.3672	49.6944	26.3672	49.9742	26.3672	49.6494	26.3672	50.0692	26.3672	49.6281	26.3672	50.184	26.3672	49.6442	26.3672	50.3253	26.3672	49.7133	26.3672	50.4988	26.3672	49.8489	26.3672	50.7076	26.3672	50.0591	26.3672	50.9511	26.3672	50.3428	26.3672	51.225	26.3672	50.6885	26.3672	51.5207	26.3672	51.0763	26.3672	51.8266	26.3672	51.4814	26.3672	52.1286	26.3672	51.8779	26.3672	52.4116	26.3672	52.2421	26.3672	52.6604	26.3672	52.5546	26.3672	52.861	26.3672	52.8009	26.3672	53.0007	26.3672	52.9713	26.3672	53.0698	26.3672	53.0611
27.832	53.0074	27.832	52.9907	27.832	53.0238	27.832	52.9751	27.832	53.042	27.832	52.9646	27.832	53.0665	27.832	52.9663	27.832	53.1043	27.832	52.9896	27.832	53.1637	27.832	53.0447	27.832	53.2531	27.832	53.1412	27.832	53.3795	27.832	53.2855	27.832	53.5463	27.832	53.4793	27.832	53.7525	27.832	53.7179	27.832	53.992	27.832	53.9904	27.832	54.2536	27.832	54.2811	27.832	54.5227	27.832	54.5718	27.832	54.7829	27.832	54.8436	27.832	55.0179	27.832	55.0794	27.832	55.2126	27.832	55.2648	27.832	55.3547	27.832	55.3895	27.832	55.4346	27.832	55.4468
29.2969	51.4078	29.2969	51.4462	29.2969	51.3585	29.2969	51.4761	29.2969	51.3009	29.2969	51.5039	29.2969	51.2419	29.2969	51.5398	29.2969	51.1929	29.2969	51.5969	29.2969	51.169	29.2969	51.689	29.2969	51.1873	29.2969	51.828	29.2969	51.264	29.2969	52.0208	29.2969	51.4107	29.2969	52.2664	29.2969	51.6306	29.2969	52.5558	29.2969	51.9172	29.2969	52.8721	29.2969	52.2544	29.2969	53.1943	29.2969	52.6198	29.2969	53.4998	29.2969	52.9885	29.2969	53.7676	29.2969	53.3368	29.2969	53.9799	29.2969	53.6438	29.2969	54.1232	29.2969	53.8928	29.2969	54.1884	29.2969	54.0713	29.2969	54.1712
30.7617	49.7962	30.7617	49.8295	30.7617	49.7225	30.7617	49.8234	30.7617	49.6165	30.7617	49.7886	30.7617	49.4957	30.7617	49.7452	30.7617	49.3877	30.7617	49.7231	30.7617	49.3286	30.7617	49.7585	30.7617	49.3578	30.7617	49.8871	30.7617	49.5088	30.7617	50.1338	30.7617	49.7977	30.7617	50.5021	30.7617	50.2156	30.7617	50.9717	30.7617	50.7317	30.7617	51.5042	30.7617	51.3022	30.7617	52.0545	30.7617	51.882	30.7617	52.5798	30.7617	52.4317	30.7617	53.0451	30.7617	52.9206	30.7617	53.4246	30.7617	53.326	30.7617	53.7006	30.7617	53.6317	30.7617	53.8624	30.7617	53.8269	30.7617	53.9048
32.2266	50.2492	32.2266	50.2708	32.2266	50.1496	32.2266	50.2171	32.2266	49.9794	32.2266	50.1013	32.2266	49.7577	32.2266	49.9495	32.2266	49.518	32.2266	49.8025	32.2266	49.3108	32.2266	49.7155	32.2266	49.2003	32.2266	49.7495	32.2266	49.2513	32.2266	49.9524	32.2266	49.5049	32.2266	50.3377	32.2266	49.958	32.2266	50.876	32.2266	50.5635	32.2266	51.5081	32.2266	51.2518	32.2266	52.1665	32.2266	51.9542	32.2266	52.7929	32.2266	52.6161	32.2266	53.3434	32.2266	53.1988	32.2266	53.7889	32.2266	53.6769	32.2266	54.1112	32.2266	54.0342	32.2266	54.2997	32.2266	54.2604	32.2266	54.3497
33.6914	50.6295	33.6914	50.6837	33.6914	50.5716	33.6914	50.7397	33.6914	50.5244	33.6914	50.8214	33.6914	50.5218	33.6914	50.9673	33.6914	50.6125	33.6914	51.2212	33.6914	50.8482	33.6914	51.6179	33.6914	51.2635	33.6914	52.168	33.6914	51.8595	33.6914	52.8513	33.6914	52.6007	33.6914	53.6241	33.6914	53.4299	33.6914	54.4335	33.6914	54.2865	33.6914	55.2305	33.6914	55.1194	33.6914	55.9753	33.6914	55.8906	33.6914	56.6388	33.6914	56.5736	33.6914	57.2008	33.6914	57.1509	33.6914	57.6476	33.6914	57.6109	33.6914	57.9703	33.6914	57.9459	33.6914	58.1635	33.6914	58.1512	33.6914	58.2241
35.1562	52.2242	35.1562	52.2324	35.1562	52.1724	35.1562	52.2017	35.1562	52.0908	35.1562	52.1545	35.1562	52.011	35.1562	52.1314	35.1562	51.9829	35.1562	52.1881	35.1562	52.0671	35.1562	52.3828	35.1562	52.3189	35.1562	52.7564	35.1562	52.7649	35.1562	53.3126	35.1562	53.3894	35.1562	54.0147	35.1562	54.1408	35.1562	54.8016	35.1562	54.953	35.1562	55.6088	35.1562	55.7644	35.1562	56.3822	35.1562	56.527	35.1562	57.0823	35.1562	57.2074	35.1562	57.6822	35.1562	57.7832	35.1562	58.1646	35.1562	58.24	35.1562	58.5186	35.1562	58.5685	35.1562	58.7381	35.1562	58.7628	35.1562	58.8198
36.6211	53.42	36.6211	53.4443	36.6211	53.3472	36.6211	53.4254	36.6211	53.2397	36.6211	53.3876	36.6211	53.1317	36.6211	53.3735	36.6211	53.0783	36.6211	53.4408	36.6211	53.1478	36.6211	53.6493	36.6211	53.4028	36.6211	54.0392	36.6211	53.8727	36.6211	54.6124	36.6211	54.5369	36.6211	55.3301	36.6211	55.335	36.6211	56.1299	36.6211	56.1927	36.6211	56.9475	36.6211	57.0438	36.6211	57.7294	36.6211	57.8386	36.6211	58.4368	36.6211	58.5437	36.6211	59.0433	36.6211	59.1376	36.6211	59.5316	36.6211	59.6068	36.6211	59.8909	36.6211	59.9428	36.6211	60.1143	36.6211	60.1407	36.6211	60.1981
38.0859	55.7549	38.0859	55.7367	38.0859	55.68	38.0859	55.6302	38.0859	55.5219	38.0859	55.4555	38.0859	55.307	38.0859	55.2522	38.0859	55.084	38.0859	55.0834	38.0859	54.9259	38.0859	55.0325	38.0859	54.9226	38.0859	55.1828	38.0859	55.1519	38.0859	55.5809	38.0859	55.6402	38.0859	56.2091	38.0859	56.345	38.0859	56.9953	38.0859	57.1795	38.0859	57.8484	38.0859	58.0516	38.0859	58.689	38.0859	58.8881	38.0859	59.4604	38.0859	59.6399	38.0859	60.1259	38.0859	60.2764	38.0859	60.6636	38.0859	60.7795	38.0859	61.0604	38.0859	61.1388	38.0859	61.3089	38.0859	61.3484	38.0859	61.4053
39.5508	56.62	39.5508	56.639	39.5508	56.5646	39.5508	56.6268	39.5508	56.4862	39.5508	56.6067	39.5508	56.417	39.5508	56.6188	39.5508	56.4074	39.5508	56.7152	39.5508	56.5171	39.5508	56.9474	39.5508	56.798	39.5508	57.3479	39.5508	57.2718	39.5508	57.9149	39.5508	57.918	39.5508	58.6125	39.5508	58.6831	39.5508	59.3847	39.5508	59.502	39.5508	60.1733	39.5508	60.315	39.5508	60.9293	39.5508	61.0766	39.5508	61.616	39.5508	61.7545	39.5508	62.2074	39.5508	62.3271	39.5508	62.6859	39.5508	62.7802	39.5508	63.0398	39.5508	63.1046	39.5508	63.2617	39.5508	63.2947	39.5508	63.3472
41.0156	58.9395	41.0156	58.9403	41.0156	58.8659	41.0156	58.872	41.0156	58.7281	41.0156	58.7517	41.0156	58.549	41.0156	58.6111	41.0156	58.3687	41.0156	58.4984	41.0156	58.245	41.0156	58.475	41.0156	58.2468	41.0156	58.6022	41.0156	58.4344	41.0156	58.9186	41.0156	58.8332	41.0156	59.4214	41.0156	59.4191	41.0156	60.0663	41.0156	60.1301	41.0156	60.7869	41.0156	60.8921	41.0156	61.5166	41.0156	61.6396	41.0156	62.2013	41.0156	62.3236	41.0156	62.8024	41.0156	62.9112	41.0156	63.294	41.0156	63.3809	41.0156	63.6593	41.0156	63.7195	41.0156	63.8885	41.0156	63.9192	41.0156	63.9758
42.4805	61.147	42.4805	61.1514	42.4805	61.0787	42.4805	61.0964	42.4805	60.9547	42.4805	60.9991	42.4805	60.7968	42.4805	60.8905	42.4805	60.6428	42.4805	60.8158	42.4805	60.5462	42.4805	60.8303	42.4805	60.5693	42.4805	60.9865	42.4805	60.7655	42.4805	61.3152	42.4805	61.1567	42.4805	61.8106	42.4805	61.7214	42.4805	62.4321	42.4805	62.4041	42.4805	63.1204	42.4805	63.1369	42.4805	63.8155	42.4805	63.8587	42.4805	64.4679	42.4805	64.5224	42.4805	65.0408	42.4805	65.0953	42.4805	65.5093	42.4805	65.5557	42.4805	65.8566	42.4805	65.89	42.4805	66.0724	42.4805	66.0898	42.4805	66.1509
43.9453	63.4958	43.9453	63.4636	43.9453	63.4484	43.9453	63.3543	43.9453	63.3285	43.9453	63.1812	43.9453	63.1546	43.9453	62.9705	43.9453	62.9584	43.9453	62.7649	43.9453	62.7873	43.9453	62.6235	43.9453	62.7013	43.9453	62.6136	43.9453	62.7617	43.9453	62.79	43.9453	63.009	43.9453	63.1704	43.9453	63.4436	43.9453	63.7244	43.9453	64.0245	43.9453	64.3876	43.9453	64.6866	43.9453	65.0871	43.9453	65.3634	43.9453	65.7601	43.9453	65.9997	43.9453	66.3602	43.9453	66.5556	43.9453	66.8565	43.9453	67.0042	43.9453	67.2292	43.9453	67.3278	43.9453	67.4667	43.9453	67.516	43.9453	67.5629
45.4102	63.9812	45.4102	63.94	45.4102	63.9629	45.4102	63.8454	45.4102	63.8938	45.4102	63.7199	45.4102	63.7981	45.4102	63.6032	45.4102	63.7166	45.4102	63.5522	45.4102	63.7048	45.4102	63.6317	45.4102	63.8228	45.4102	63.8943	45.4102	64.1163	45.4102	64.357	45.4102	64.5961	45.4102	64.9913	45.4102	65.2317	45.4102	65.7361	45.4102	65.9646	45.4102	66.5218	45.4102	66.7295	45.4102	67.288	45.4102	67.4697	45.4102	67.9896	45.4102	68.1428	45.4102	68.5959	45.4102	68.7193	45.4102	69.0867	45.4102	69.1797	45.4102	69.4493	45.4102	69.5116	45.4102	69.6759	45.4102	69.7071	45.4102	69.7623
46.875	67.5268	46.875	67.5147	46.875	67.4994	46.875	67.4683	46.875	67.4371	46.875	67.4026	46.875	67.355	46.875	67.3424	46.875	67.2783	46.875	67.3213	46.875	67.2418	46.875	67.3768	46.875	67.2853	46.875	67.5418	46.875	67.4442	46.875	67.8341	46.875	67.7377	46.875	68.2484	46.875	68.1605	46.875	68.7576	46.875	68.6833	46.875	69.3208	46.875	69.2624	46.875	69.894	46.875	69.8511	46.875	70.4375	46.875	70.4082	46.875	70.9196	46.875	70.9008	46.875	71.3161	46.875	71.3051	46.875	71.6102	46.875	71.6044	46.875	71.7906	46.875	71.7882	46.875	71.8508
48.3398	69.5501	48.3398	69.5679	48.3398	69.4875	48.3398	69.5442	48.3398	69.3852	48.3398	69.4903	48.3398	69.2566	48.3398	69.4253	48.3398	69.1251	48.3398	69.376	48.3398	69.0235	48.3398	69.3746	48.3398	68.9909	48.3398	69.4531	48.3398	69.0655	48.3398	69.6352	48.3398	69.2722	48.3398	69.9284	48.3398	69.6135	48.3398	70.3199	48.3398	70.0662	48.3398	70.7802	48.3398	70.5895	48.3398	71.2707	48.3398	71.1365	48.3398	71.7523	48.3398	71.6637	48.3398	72.1904	48.3398	72.1356	48.3398	72.5574	48.3398	72.526	48.3398	72.833	48.3398	72.8167	48.3398	73.0029	48.3398	72.9961	48.3398	73.0585
51.2695	73.4872	51.2695	73.4965	51.2695	73.4398	51.2695	73.4694	51.2695	73.3595	51.2695	73.4144	51.2695	73.2591	51.2695	73.3473	51.2695	73.1589	51.2695	73.2905	51.2695	73.0863	51.2695	73.2716	51.2695	73.073	51.2695	73.3194	51.2695	73.1492	51.2695	73.4573	51.2695	73.3348	51.2695	73.6964	51.2695	73.6321	51.2695	74.03	51.2695	74.024	51.2695	74.4355	51.2695	74.4782	51.2695	74.8796	51.2695	74.9556	51.2695	75.3258	51.2695	75.418	51.2695	75.7402	51.2695	75.833	51.2695	76.0945	51.2695	76.1751	51.2695	76.3674	51.2695	76.4263	51.2695	76.5438	51.2695	76.5747	51.2695	76.6142
52.7344	75.2924	52.7344	75.2805	52.7344	75.2624	52.7344	75.228	52.7344	75.1956	52.7344	75.1429	52.7344	75.1037	52.7344	75.0399	52.7344	75.0054	52.7344	74.9413	52.7344	74.9259	52.7344	74.8752	52.7344	74.8947	52.7344	74.873	52.7344	74.941	52.7344	74.9618	52.7344	75.086	52.7344	75.1573	52.7344	75.3357	52.7344	75.4569	52.7344	75.678	52.7344	75.8397	52.7344	76.0853	52.7344	76.2717	52.7344	76.5215	52.7344	76.7145	52.7344	76.9494	52.7344	77.1318	52.7344	77.3361	52.7344	77.493	52.7344	77.6553	52.7344	77.7754	52.7344	77.8876	52.7344	77.9628	52.7344	78.0201	52.7344	78.0457
54.1992	76.9176	54.1992	76.8921	54.1992	76.9061	54.1992	76.832	54.1992	76.8617	54.1992	76.7461	54.1992	76.7954	54.1992	76.6509	54.1992	76.7247	54.1992	76.5693	54.1992	76.6732	54.1992	76.53	54.1992	76.6685	54.1992	76.5628	54.1992	76.7374	54.1992	76.6917	54.1992	76.8992	54.1992	76.9272	54.1992	77.1591	54.1992	77.2617	54.1992	77.5056	54.1992	77.6708	54.1992	77.9128	54.1992	78.1195	54.1992	78.3466	54.1992	78.5703	54.1992	78.772	54.1992	78.9887	54.1992	79.1572	54.1992	79.3466	54.1992	79.4767	54.1992	79.623	54.1992	79.7113	54.1992	79.8035	54.1992	79.848	54.1992	79.8795
55.6641	78.4119	55.6641	78.3936	55.6641	78.4018	55.6641	78.3493	55.6641	78.3668	55.6641	78.288	55.6641	78.317	55.6641	78.2254	55.6641	78.2687	55.6641	78.1826	55.6641	78.2435	55.6641	78.1848	55.6641	78.2661	55.6641	78.2568	55.6641	78.3594	55.6641	78.4168	55.6641	78.5392	55.6641	78.6709	55.6641	78.8085	55.6641	79.0097	55.6641	79.1557	55.6641	79.4103	55.6641	79.5564	55.6641	79.8412	55.6641	79.9798	55.6641	80.2691	55.6641	80.3934	55.6641	80.6634	55.6641	80.7681	55.6641	80.9986	55.6641	81.08	55.6641	81.2554	55.6641	81.311	55.6641	81.4205	55.6641	81.4486	55.6641	81.4858
58.5938	81.6197	58.5938	81.6074	58.5938	81.6143	58.5938	81.5797	58.5938	81.5936	58.5938	81.5438	58.5938	81.5654	58.5938	81.512	58.5938	81.5419	58.5938	81.5003	58.5938	81.5391	58.5938	81.5271	58.5938	81.5749	58.5938	81.6099	58.5938	81.6663	58.5938	81.7614	58.5938	81.8248	58.5938	81.9856	58.5938	82.0536	58.5938	82.2756	58.5938	82.3452	58.5938	82.6146	58.5938	82.6825	58.5938	82.9786	58.5938	83.0417	58.5938	83.3411	58.5938	83.397	58.5938	83.6764	58.5938	83.723	58.5938	83.9622	58.5938	83.9982	58.5938	84.1808	58.5938	84.2052	58.5938	84.3194	58.5938	84.3317	58.5938	84.3706
60.0586	83.2342	60.0586	83.2236	60.0586	83.2304	60.0586	83.2009	60.0586	83.214	60.0586	83.173	60.0586	83.1912	60.0586	83.1507	60.0586	83.1724	60.0586	83.1479	60.0586	83.1712	60.0586	83.1801	60.0586	83.2028	60.0586	83.2622	60.0586	83.282	60.0586	83.4044	60.0586	83.4197	60.0586	83.6099	60.0586	83.6195	60.0586	83.8726	60.0586	83.8765	60.0586	84.178	60.0586	84.177	60.0586	84.5056	60.0586	84.5009	60.0586	84.8317	60.0586	84.825	60.0586	85.1333	60.0586	85.1259	60.0586	85.3898	60.0586	85.3831	60.0586	85.5846	60.0586	85.5796	60.0586	85.7057	60.0586	85.703	60.0586	85.7459
62.9883	86.3055	62.9883	86.32	62.9883	86.2735	62.9883	86.3187	62.9883	86.226	62.9883	86.3065	62.9883	86.168	62.9883	86.2912	62.9883	86.1084	62.9883	86.2832	62.9883	86.0593	62.9883	86.2944	62.9883	86.035	62.9883	86.3369	62.9883	86.0503	62.9883	86.4205	62.9883	86.1178	62.9883	86.5506	62.9883	86.2449	62.9883	86.7265	62.9883	86.431	62.9883	86.9403	62.9883	86.6668	62.9883	87.1779	62.9883	86.9357	62.9883	87.4213	62.9883	87.2163	62.9883	87.6506	62.9883	87.486	62.9883	87.8469	62.9883	87.7239	62.9883	87.9939	62.9883	87.9124	62.9883	88.0793	62.9883	88.0387	62.9883	88.0951
64.4531	87.4964	64.4531	87.5136	64.4531	87.4628	64.4531	87.5155	64.4531	87.4153	64.4531	87.5063	64.4531	87.3596	64.4531	87.4932	64.4531	87.3046	64.4531	87.4861	64.4531	87.2624	64.4531	87.4963	64.4531	87.2469	64.4531	87.5357	64.4531	87.2722	64.4531	87.6144	64.4531	87.3495	64.4531	87.7384	64.4531	87.4849	64.4531	87.9078	64.4531	87.6764	64.4531	88.1157	64.4531	87.914	64.4531	88.3491	64.4531	88.181	64.4531	88.5903	64.4531	88.4564	64.4531	88.82	64.4531	88.7184	64.4531	89.0192	64.4531	88.9469	64.4531	89.1714	64.4531	89.1252	64.4531	89.2637	64.4531	89.2414	64.4531	89.2882
67.3828	89.7616	67.3828	89.7692	67.3828	89.7421	67.3828	89.7657	67.3828	89.7128	67.3828	89.7544	67.3828	89.6787	67.3828	89.7415	67.3828	89.6471	67.3828	89.7352	67.3828	89.6277	67.3828	89.7452	67.3828	89.6314	67.3828	89.7819	67.3828	89.6689	67.3828	89.8539	67.3828	89.7488	67.3828	89.9667	67.3828	89.8751	67.3828	90.1208	67.3828	90.0464	67.3828	90.3105	67.3828	90.2546	67.3828	90.5246	67.3828	90.4862	67.3828	90.7477	67.3828	90.7239	67.3828	90.9621	67.3828	90.9493	67.3828	91.1505	67.3828	91.1449	67.3828	91.2974	67.3828	91.2957	67.3828	91.3908	67.3828	91.3906	67.3828	91.4229
68.8477	90.8656	68.8477	90.8708	68.8477	90.85	68.8477	90.8663	68.8477	90.8259	68.8477	90.8554	68.8477	90.7974	68.8477	90.8436	68.8477	90.7713	68.8477	90.8385	68.8477	90.7563	68.8477	90.8492	68.8477	90.7621	68.8477	90.8849	68.8477	90.7983	68.8477	90.9536	68.8477	90.8728	68.8477	91.0605	68.8477	90.9898	68.8477	91.2058	68.8477	91.1481	68.8477	91.3845	68.8477	91.3409	68.8477	91.5862	68.8477	91.556	68.8477	91.7966	68.8477	91.7778	68.8477	91.9992	68.8477	91.989	68.8477	92.1774	68.8477	92.1729	68.8477	92.3165	68.8477	92.3151	68.8477	92.405	68.8477	92.4048	68.8477	92.4354
71.7773	93.0594	71.7773	93.0633	71.7773	93.0477	71.7773	93.0602	71.7773	93.0297	71.7773	93.0526	71.7773	93.0087	71.7773	93.0451	71.7773	92.99	71.7773	93.0438	71.7773	92.9805	71.7773	93.056	71.7773	92.9879	71.7773	93.0891	71.7773	93.0202	71.7773	93.1497	71.7773	93.0837	71.7773	93.242	71.7773	93.1823	71.7773	93.3665	71.7773	93.3156	71.7773	93.5193	71.7773	93.4787	71.7773	93.6922	71.7773	93.6618	71.7773	93.8732	71.7773	93.8522	71.7773	94.0483	71.7773	94.0349	71.7773	94.2029	71.7773	94.1952	71.7773	94.324	71.7773	94.32	71.7773	94.4009	71.7773	94.3993	71.7773	94.4269
74.707	95.0047	74.707	95.0099	74.707	94.9935	74.707	95.0097	74.707	94.9776	74.707	95.0061	74.707	94.9595	74.707	95.0028	74.707	94.9437	74.707	95.0046	74.707	94.9358	74.707	95.0175	74.707	94.9421	74.707	95.0474	74.707	94.9691	74.707	95.0998	74.707	95.0224	74.707	95.1783	74.707	95.1055	74.707	95.2836	74.707	95.2183	74.707	95.413	74.707	95.3573	74.707	95.5598	74.707	95.5148	74.707	95.7144	74.707	95.6797	74.707	95.8646	74.707	95.8394	74.707	95.9978	74.707	95.9807	74.707	96.1021	74.707	96.0917	74.707	96.168	74.707	96.1631	74.707	96.1891
77.6367	96.6824	77.6367	96.6883	77.6367	96.6725	77.6367	96.6905	77.6367	96.6594	77.6367	96.6906	77.6367	96.6454	77.6367	96.6915	77.6367	96.6339	77.6367	96.6968	77.6367	96.6292	77.6367	96.7112	77.6367	96.6366	77.6367	96.7394	77.6367	96.6611	77.6367	96.7859	77.6367	96.7073	77.6367	96.8535	77.6367	96.7782	77.6367	96.9432	77.6367	96.874	77.6367	97.0529	77.6367	96.9921	77.6367	97.1775	77.6367	97.1264	77.6367	97.3089	77.6367	97.2679	77.6367	97.437	77.6367	97.4058	77.6367	97.5508	77.6367	97.5287	77.6367	97.6401	77.6367	97.626	77.6367	97.6961	77.6367	97.6893	77.6367	97.7132
79.1016	97.4165	79.1016	97.4231	79.1016	97.407	79.1016	97.4269	79.1016	97.3952	79.1016	97.4293	79.1016	97.3832	79.1016	97.4326	79.1016	97.3739	79.1016	97.4402	79.1016	97.3712	79.1016	97.456	79.1016	97.3796	79.1016	97.4841	79.1016	97.4036	79.1016	97.5285	79.1016	97.4473	79.1016	97.5916	79.1016	97.5132	79.1016	97.6745	79.1016	97.6019	79.1016	97.7754	79.1016	97.7109	79.1016	97.8897	79.1016	97.8348	79.1016	98.0103	79.1016	97.9656	79.1016	98.128	79.1016	98.0934	79.1016	98.2326	79.1016	98.2077	79.1016	98.3146	79.1016	98.2986	79.1016	98.3658	79.1016	98.358	79.1016	98.381
82.0312	98.6506	82.0312	98.6586	82.0312	98.6419	82.0312	98.6659	82.0312	98.6332	82.0312	98.6735	82.0312	98.6257	82.0312	98.6828	82.0312	98.6217	82.0312	98.6962	82.0312	98.6239	82.0312	98.7163	82.0312	98.6355	82.0312	98.746	82.0312	98.6597	82.0312	98.788	82.0312	98.6996	82.0312	98.8444	82.0312	98.7572	82.0312	98.9157	82.0312	98.8329	82.0312	99.0008	82.0312	98.925	82.0312	99.0962	82.0312	99.0296	82.0312	99.1963	82.0312	99.1401	82.0312	99.2937	82.0312	99.2487	82.0312	99.38	82.0312	99.3466	82.0312	99.4473	82.0312	99.4251	82.0312	99.4885	82.0312	99.4775	82.0312	99.4991
84.9609	99.624	84.9609	99.6331	84.9609	99.6159	84.9609	99.6432	84.9609	99.6092	84.9609	99.6548	84.9609	99.6048	84.9609	99.6686	84.9609	99.6043	84.9609	99.6862	84.9609	99.6094	84.9609	99.7091	84.9609	99.6223	84.9609	99.7393	84.9609	99.6454	84.9609	99.7785	84.9609	99.6809	84.9609	99.8283	84.9609	99.7303	84.9609	99.889	84.9609	99.7942	84.9609	99.9599	84.9609	99.8713	84.9609	100.038	84.9609	99.9588	84.9609	100.12	84.9609	100.052	84.9609	100.199	84.9609	100.144	84.9609	100.269	84.9609	100.227	84.9609	100.323	84.9609	100.295	84.9609	100.355	84.9609	100.341	84.9609	100.362
87.8906	100.305	87.8906	100.314	87.8906	100.3	87.8906	100.326	87.8906	100.297	87.8906	100.341	87.8906	100.299	87.8906	100.36	87.8906	100.305	87.8906	100.382	87.8906	100.317	87.8906	100.409	87.8906	100.336	87.8906	100.442	87.8906	100.363	87.8906	100.482	87.8906	100.4	87.8906	100.528	87.8906	100.447	87.8906	100.583	87.8906	100.504	87.8906	100.644	87.8906	100.571	87.8906	100.71	87.8906	100.645	87.8906	100.778	87.8906	100.722	87.8906	100.843	87.8906	100.798	87.8906	100.901	87.8906	100.867	87.8906	100.945	87.8906	100.923	87.8906	100.972	87.8906	100.96	87.8906	100.977
90.8203	100.793	90.8203	100.801	90.8203	100.79	90.8203	100.814	90.8203	100.791	90.8203	100.83	90.8203	100.797	90.8203	100.85	90.8203	100.808	90.8203	100.874	90.8203	100.824	90.8203	100.901	90.8203	100.844	90.8203	100.932	90.8203	100.87	90.8203	100.966	90.8203	100.902	90.8203	101.004	90.8203	100.939	90.8203	101.045	90.8203	100.983	90.8203	101.091	90.8203	101.033	90.8203	101.138	90.8203	101.086	90.8203	101.186	90.8203	101.142	90.8203	101.233	90.8203	101.197	90.8203	101.273	90.8203	101.246	90.8203	101.304	90.8203	101.286	90.8203	101.323	90.8203	101.314	90.8203	101.326
95.2148	101.26	95.2148	101.27	95.2148	101.256	95.2148	101.285	95.2148	101.257	95.2148	101.304	95.2148	101.263	95.2148	101.327	95.2148	101.274	95.2148	101.352	95.2148	101.289	95.2148	101.378	95.2148	101.306	95.2148	101.405	95.2148	101.326	95.2148	101.43	95.2148	101.347	95.2148	101.455	95.2148	101.37	95.2148	101.479	95.2148	101.395	95.2148	101.502	95.2148	101.422	95.2148	101.524	95.2148	101.45	95.2148	101.544	95.2148	101.48	95.2148	101.563	95.2148	101.51	95.2148	101.579	95.2148	101.538	95.2148	101.59	95.2148	101.562	95.2148	101.594	95.2148	101.58	95.2148	101.591
98.1445	101.424	98.1445	101.434	98.1445	101.42	98.1445	101.451	98.1445	101.423	98.1445	101.472	98.1445	101.431	98.1445	101.498	98.1445	101.444	98.1445	101.525	98.1445	101.461	98.1445	101.553	98.1445	101.479	98.1445	101.579	98.1445	101.498	98.1445	101.603	98.1445	101.517	98.1445	101.623	98.1445	101.535	98.1445	101.64	98.1445	101.552	98.1445	101.653	98.1445	101.568	98.1445	101.663	98.1445	101.584	98.1445	101.67	98.1445	101.601	98.1445	101.676	98.1445	101.617	98.1445	101.679	98.1445	101.634	98.1445	101.679	98.1445	101.649	98.1445	101.677	98.1445	101.661	98.1445	101.671
101.074	101.489	101.074	101.499	101.074	101.486	101.074	101.517	101.074	101.49	101.074	101.54	101.074	101.5	101.074	101.567	101.074	101.515	101.074	101.596	101.074	101.533	101.074	101.624	101.074	101.552	101.074	101.65	101.074	101.57	101.074	101.67	101.074	101.586	101.074	101.686	101.074	101.598	101.074	101.694	101.074	101.607	101.074	101.698	101.074	101.613	101.074	101.696	101.074	101.617	101.074	101.69	101.074	101.62	101.074	101.682	101.074	101.623	101.074	101.673	101.074	101.627	101.074	101.664	101.074	101.632	101.074	101.655	101.074	101.639	101.074	101.646
105.469	101.495	105.469	101.504	105.469	101.494	105.469	101.521	105.469	101.5	105.469	101.543	105.469	101.512	105.469	101.569	105.469	101.529	105.469	101.596	105.469	101.547	105.469	101.621	105.469	101.565	105.469	101.642	105.469	101.579	105.469	101.655	105.469	101.587	105.469	101.66	105.469	101.59	105.469	101.656	105.469	101.585	105.469	101.644	105.469	101.575	105.469	101.625	105.469	101.56	105.469	101.601	105.469	101.543	105.469	101.575	105.469	101.526	105.469	101.55	105.469	101.511	105.469	101.528	105.469	101.502	105.469	101.511	105.469	101.498	105.469	101.501
108.398	101.415	108.398	101.424	108.398	101.414	108.398	101.441	108.398	101.422	108.398	101.466	108.398	101.437	108.398	101.494	108.398	101.456	108.398	101.523	108.398	101.477	108.398	101.551	108.398	101.497	108.398	101.573	108.398	101.513	108.398	101.587	108.398	101.523	108.398	101.592	108.398	101.525	108.398	101.586	108.398	101.519	108.398	101.571	108.398	101.505	108.398	101.547	108.398	101.485	108.398	101.518	108.398	101.462	108.398	101.486	108.398	101.438	108.398	101.455	108.398	101.418	108.398	101.429	108.398	101.403	108.398	101.409	108.398	101.396	108.398	101.398
112.793	101.229	112.793	101.24	112.793	101.228	112.793	101.262	112.793	101.238	112.793	101.291	112.793	101.255	112.793	101.325	112.793	101.278	112.793	101.36	112.793	101.304	112.793	101.394	112.793	101.328	112.793	101.421	112.793	101.348	112.793	101.439	112.793	101.36	112.793	101.445	112.793	101.362	112.793	101.438	112.793	101.353	112.793	101.419	112.793	101.335	112.793	101.388	112.793	101.308	112.793	101.349	112.793	101.277	112.793	101.307	112.793	101.244	112.793	101.265	112.793	101.215	112.793	101.229	112.793	101.194	112.793	101.202	112.793	101.184	112.793	101.186
117.188	101.027	117.188	101.04	117.188	101.025	117.188	101.063	117.188	101.034	117.188	101.094	117.188	101.051	117.188	101.13	117.188	101.073	117.188	101.167	117.188	101.098	117.188	101.2	117.188	101.12	117.188	101.227	117.188	101.136	117.188	101.242	117.188	101.143	117.188	101.243	117.188	101.139	117.188	101.229	117.188	101.121	117.188	101.199	117.188	101.092	117.188	101.157	117.188	101.054	117.188	101.104	117.188	101.01	117.188	101.047	117.188	100.965	117.188	100.991	117.188	100.925	117.188	100.942	117.188	100.896	117.188	100.906	117.188	100.882	117.188	100.885
120.117	100.916	120.117	100.927	120.117	100.916	120.117	100.948	120.117	100.927	120.117	100.978	120.117	100.946	120.117	101.013	120.117	100.97	120.117	101.049	120.117	100.996	120.117	101.081	120.117	101.02	120.117	101.106	120.117	101.036	120.117	101.12	120.117	101.043	120.117	101.118	120.117	101.036	120.117	101.101	120.117	101.016	120.117	101.067	120.117	100.982	120.117	101.02	120.117	100.937	120.117	100.962	120.117	100.886	120.117	100.9	120.117	100.833	120.117	100.839	120.117	100.786	120.117	100.787	120.117	100.75	120.117	100.749	120.117	100.73	120.117	100.73
124.512	100.758	124.512	100.77	124.512	100.756	124.512	100.793	124.512	100.765	124.512	100.823	124.512	100.782	124.512	100.858	124.512	100.804	124.512	100.893	124.512	100.828	124.512	100.923	124.512	100.848	124.512	100.944	124.512	100.861	124.512	100.952	124.512	100.863	124.512	100.944	124.512	100.85	124.512	100.917	124.512	100.822	124.512	100.873	124.512	100.779	124.512	100.813	124.512	100.724	124.512	100.743	124.512	100.662	124.512	100.669	124.512	100.599	124.512	100.597	124.512	100.541	124.512	100.536	124.512	100.497	124.512	100.492	124.512	100.472	124.512	100.47
128.906	100.64	128.906	100.657	128.906	100.634	128.906	100.682	128.906	100.636	128.906	100.714	128.906	100.646	128.906	100.748	128.906	100.661	128.906	100.782	128.906	100.675	128.906	100.809	128.906	100.686	128.906	100.825	128.906	100.688	128.906	100.825	128.906	100.678	128.906	100.807	128.906	100.653	128.906	100.768	128.906	100.612	128.906	100.71	128.906	100.555	128.906	100.634	128.906	100.486	128.906	100.546	128.906	100.411	128.906	100.453	128.906	100.337	128.906	100.364	128.906	100.27	128.906	100.286	128.906	100.221	128.906	100.229	128.906	100.196	128.906	100.198
133.301	100.566	133.301	100.579	133.301	100.563	133.301	100.599	133.301	100.568	133.301	100.625	133.301	100.578	133.301	100.653	133.301	100.592	133.301	100.679	133.301	100.604	133.301	100.698	133.301	100.61	133.301	100.704	133.301	100.605	133.301	100.693	133.301	100.586	133.301	100.662	133.301	100.548	133.301	100.609	133.301	100.493	133.301	100.535	133.301	100.419	133.301	100.444	133.301	100.332	133.301	100.34	133.301	100.238	133.301	100.233	133.301	100.143	133.301	100.131	133.301	100.059	133.301	100.044	133.301	99.9945	133.301	99.9832	133.301	99.9575	133.301	99.9532
139.16	100.173	139.16	100.181	139.16	100.178	139.16	100.201	139.16	100.194	139.16	100.23	139.16	100.22	139.16	100.264	139.16	100.25	139.16	100.3	139.16	100.281	139.16	100.33	139.16	100.306	139.16	100.349	139.16	100.321	139.16	100.353	139.16	100.319	139.16	100.337	139.16	100.299	139.16	100.299	139.16	100.258	139.16	100.24	139.16	100.196	139.16	100.162	139.16	100.118	139.16	100.071	139.16	100.029	139.16	99.9747	139.16	99.9372	139.16	99.8835	139.16	99.8527	139.16	99.8071	139.16	99.7852	139.16	99.7547	139.16	99.7433	139.16	99.7326
143.555	99.8455	143.555	99.8538	143.555	99.8488	143.555	99.873	143.555	99.8628	143.555	99.9009	143.555	99.8853	143.555	99.9339	143.555	99.9126	143.555	99.9673	143.555	99.9402	143.555	99.9958	143.555	99.9627	143.555	100.014	143.555	99.9751	143.555	100.017	143.555	99.9724	143.555	99.9997	143.555	99.9511	143.555	99.9614	143.555	99.9095	143.555	99.9016	143.555	99.8482	143.555	99.8233	143.555	99.7703	143.555	99.7318	143.555	99.6818	143.555	99.6353	143.555	99.5908	143.555	99.5433	143.555	99.507	143.555	99.4661	143.555	99.4404	143.555	99.4127	143.555	99.3994	143.555	99.3896
147.949	99.5903	147.949	99.603	147.949	99.5884	147.949	99.6256	147.949	99.5966	147.949	99.6561	147.949	99.6128	147.949	99.6907	147.949	99.6337	147.949	99.725	147.949	99.6548	147.949	99.7537	147.949	99.6712	147.949	99.7714	147.949	99.6778	147.949	99.7729	147.949	99.67	147.949	99.7545	147.949	99.6445	147.949	99.7138	147.949	99.5995	147.949	99.6509	147.949	99.5358	147.949	99.5686	147.949	99.4566	147.949	99.4724	147.949	99.3681	147.949	99.3702	147.949	99.2786	147.949	99.2718	147.949	99.1977	147.949	99.1875	147.949	99.1354	147.949	99.1269	147.949	99.0999	147.949	99.0966
153.809	99.3017	153.809	99.3086	153.809	99.3042	153.809	99.3243	153.809	99.3153	153.809	99.3465	153.809	99.3324	153.809	99.3714	153.809	99.3517	153.809	99.3943	153.809	99.3684	153.809	99.4093	153.809	99.3767	153.809	99.4106	153.809	99.3712	153.809	99.3929	153.809	99.3468	153.809	99.352	153.809	99.2997	153.809	99.2856	153.809	99.2285	153.809	99.1944	153.809	99.1341	153.809	99.082	153.809	99.0209	153.809	98.9553	153.809	98.8965	153.809	98.8242	153.809	98.7712	153.809	98.701	153.809	98.6572	153.809	98.5984	153.809	98.567	153.809	98.5279	153.809	98.5115	153.809	98.4978
159.668	98.876	159.668	98.8816	159.668	98.8799	159.668	98.8962	159.668	98.8924	159.668	98.9178	159.668	98.9113	159.668	98.9432	159.668	98.9332	159.668	98.9679	159.668	98.9535	159.668	98.9864	159.668	98.9669	159.668	98.9929	159.668	98.9679	159.668	98.9818	159.668	98.9513	159.668	98.9486	159.668	98.9128	159.668	98.8905	159.668	98.8503	159.668	98.8075	159.668	98.7642	159.668	98.7028	159.668	98.6582	159.668	98.5828	159.668	98.5394	159.668	98.4574	159.668	98.4178	159.668	98.3387	159.668	98.3057	159.668	98.2397	159.668	98.2159	159.668	98.172	159.668	98.1595	159.668	98.1441
165.527	98.5023	165.527	98.5089	165.527	98.5008	165.527	98.5202	165.527	98.5037	165.527	98.5347	165.527	98.5093	165.527	98.5501	165.527	98.5148	165.527	98.5627	165.527	98.517	165.527	98.5681	165.527	98.5116	165.527	98.5616	165.527	98.4945	165.527	98.5383	165.527	98.4616	165.527	98.4945	165.527	98.4099	165.527	98.4282	165.527	98.3382	165.527	98.3395	165.527	98.2475	165.527	98.2316	165.527	98.1416	165.527	98.111	165.527	98.0271	165.527	97.9866	165.527	97.9132	165.527	97.8698	165.527	97.8106	165.527	97.7721	165.527	97.7306	165.527	97.704	165.527	97.6827	165.527	97.6732
171.387	98.4041	171.387	98.4073	171.387	98.4065	171.387	98.4159	171.387	98.4139	171.387	98.4278	171.387	98.424	171.387	98.4401	171.387	98.4336	171.387	98.4486	171.387	98.4382	171.387	98.4483	171.387	98.433	171.387	98.4339	171.387	98.4128	171.387	98.4006	171.387	98.3731	171.387	98.3446	171.387	98.3105	171.387	98.2642	171.387	98.2238	171.387	98.1602	171.387	98.1146	171.387	98.0365	171.387	97.9876	171.387	97.9004	171.387	97.8509	171.387	97.7618	171.387	97.7153	171.387	97.6331	171.387	97.5933	171.387	97.5267	171.387	97.4976	171.387	97.4542	171.387	97.4387	171.387	97.4236
177.246	98.1181	177.246	98.12	177.246	98.1219	177.246	98.1274	177.246	98.1308	177.246	98.1387	177.246	98.1425	177.246	98.1513	177.246	98.1542	177.246	98.1609	177.246	98.1617	177.246	98.1628	177.246	98.1602	177.246	98.1512	177.246	98.1447	177.246	98.121	177.246	98.1103	177.246	98.0679	177.246	98.0534	177.246	97.9896	177.246	97.9719	177.246	97.8868	177.246	97.867	177.246	97.7634	177.246	97.7427	177.246	97.6269	177.246	97.6066	177.246	97.4878	177.246	97.4694	177.246	97.3591	177.246	97.3438	177.246	97.2539	177.246	97.243	177.246	97.1842	177.246	97.1785	177.246	97.158
183.105	97.9292	183.105	97.9339	183.105	97.9296	183.105	97.9433	183.105	97.9343	183.105	97.9563	183.105	97.9414	183.105	97.9701	183.105	97.9481	183.105	97.9811	183.105	97.9509	183.105	97.9845	183.105	97.9451	183.105	97.9749	183.105	97.9261	183.105	97.947	183.105	97.8894	183.105	97.8966	183.105	97.8316	183.105	97.8211	183.105	97.7509	183.105	97.7211	183.105	97.6486	183.105	97.6001	183.105	97.5288	183.105	97.4655	183.105	97.3989	183.105	97.3276	183.105	97.2692	183.105	97.1989	183.105	97.1519	183.105	97.0924	183.105	97.0594	183.105	97.0195	183.105	97.0026	183.105	96.9885
188.965	97.6648	188.965	97.6643	188.965	97.6681	188.965	97.6666	188.965	97.6734	188.965	97.671	188.965	97.6793	188.965	97.6758	188.965	97.6833	188.965	97.6781	188.965	97.6822	188.965	97.6741	188.965	97.6718	188.965	97.6592	188.965	97.6478	188.965	97.6284	188.965	97.6058	188.965	97.5774	188.965	97.5426	188.965	97.5037	188.965	97.457	188.965	97.4069	188.965	97.3502	188.965	97.2902	188.965	97.2269	188.965	97.1601	188.965	97.0949	188.965	97.0264	188.965	96.9646	188.965	96.9009	188.965	96.8482	188.965	96.7962	188.965	96.7577	188.965	96.7237	188.965	96.7034	188.965	96.6915
196.289	97.4322	196.289	97.4333	196.289	97.431	196.289	97.4338	196.289	97.4295	196.289	97.4328	196.289	97.4271	196.289	97.4289	196.289	97.4224	196.289	97.4197	196.289	97.413	196.289	97.402	196.289	97.3959	196.289	97.3721	196.289	97.3669	196.289	97.3263	196.289	97.3221	196.289	97.2615	196.289	97.2583	196.289	97.1761	196.289	97.1738	196.289	97.0712	196.289	97.0693	196.289	96.9505	196.289	96.9489	196.289	96.8211	196.289	96.8195	196.289	96.6925	196.289	96.6909	196.289	96.5758	196.289	96.5743	196.289	96.4823	196.289	96.4811	196.289	96.4216	196.289	96.4209	196.289	96.4004
203.613	97.134	203.613	97.1284	203.613	97.1357	203.613	97.1188	203.613	97.1335	203.613	97.1045	203.613	97.1267	203.613	97.0844	203.613	97.1142	203.613	97.0566	203.613	97.094	203.613	97.0182	203.613	97.0632	203.613	96.9661	203.613	97.0184	203.613	96.897	203.613	96.9563	203.613	96.8085	203.613	96.874	203.613	96.7001	203.613	96.7706	203.613	96.5738	203.613	96.6476	203.613	96.4349	203.613	96.5093	203.613	96.2915	203.613	96.3632	203.613	96.1543	203.613	96.2192	203.613	96.0347	203.613	96.0885	203.613	95.9436	203.613	95.9822	203.613	95.8896	203.613	95.9098	203.613	95.878
210.938	97.0447	210.938	97.0539	210.938	97.0288	210.938	97.0558	210.938	97.0063	210.938	97.0494	210.938	96.9772	210.938	97.0332	210.938	96.9407	210.938	97.0048	210.938	96.8953	210.938	96.9613	210.938	96.8387	210.938	96.8993	210.938	96.7679	210.938	96.8155	210.938	96.68	210.938	96.7074	210.938	96.5726	210.938	96.5746	210.938	96.4451	210.938	96.4195	210.938	96.2992	210.938	96.2478	210.938	96.1403	210.938	96.0688	210.938	95.9767	210.938	95.8944	210.938	95.8195	210.938	95.7381	210.938	95.6815	210.938	95.6128	210.938	95.575	210.938	95.5292	210.938	95.5103	210.938	95.4943
218.262	96.8013	218.262	96.8076	218.262	96.7928	218.262	96.8116	218.262	96.7817	218.262	96.8127	218.262	96.767	218.262	96.8091	218.262	96.747	218.262	96.7979	218.262	96.7194	218.262	96.7752	218.262	96.6811	218.262	96.7361	218.262	96.6282	218.262	96.6757	218.262	96.5573	218.262	96.5903	218.262	96.4658	218.262	96.4781	218.262	96.3528	218.262	96.3407	218.262	96.2203	218.262	96.1835	218.262	96.0733	218.262	96.0156	218.262	95.9202	218.262	95.8495	218.262	95.7718	218.262	95.699	218.262	95.6405	218.262	95.5774	218.262	95.5387	218.262	95.4959	218.262	95.4767	218.262	95.4616
225.586	96.4047	225.586	96.4152	225.586	96.3894	225.586	96.4209	225.586	96.3693	225.586	96.4221	225.586	96.3445	225.586	96.4185	225.586	96.3151	225.586	96.4089	225.586	96.2802	225.586	96.3906	225.586	96.2383	225.586	96.3598	225.586	96.1867	225.586	96.3122	225.586	96.1227	225.586	96.2437	225.586	96.0438	225.586	96.1521	225.586	95.9491	225.586	96.038	225.586	95.8402	225.586	95.9055	225.586	95.7213	225.586	95.7624	225.586	95.5994	225.586	95.6192	225.586	95.4836	225.586	95.4879	225.586	95.3839	225.586	95.3797	225.586	95.3097	225.586	95.3039	225.586	95.2688	225.586	95.2663
232.91	96.3229	232.91	96.3159	232.91	96.3177	232.91	96.2973	232.91	96.3	232.91	96.2683	232.91	96.2701	232.91	96.2301	232.91	96.2286	232.91	96.1831	232.91	96.1752	232.91	96.1268	232.91	96.1094	232.91	96.0595	232.91	96.0296	232.91	95.9785	232.91	95.9344	232.91	95.8814	232.91	95.823	232.91	95.767	232.91	95.6959	232.91	95.6364	232.91	95.5566	232.91	95.4941	232.91	95.4109	232.91	95.3475	232.91	95.2671	232.91	95.2062	232.91	95.1347	232.91	95.0807	232.91	95.0232	232.91	94.9807	232.91	94.9407	232.91	94.9135	232.91	94.8931	232.91	94.8837
241.699	96.0887	241.699	96.1131	241.699	96.0518	241.699	96.1247	241.699	96.0031	241.699	96.1235	241.699	95.9438	241.699	96.1087	241.699	95.8756	241.699	96.0789	241.699	95.7997	241.699	96.032	241.699	95.7171	241.699	95.965	241.699	95.6276	241.699	95.8752	241.699	95.5303	241.699	95.7612	241.699	95.4244	241.699	95.6239	241.699	95.3095	241.699	95.4676	241.699	95.1874	241.699	95.2997	241.699	95.0617	241.699	95.1305	241.699	94.9385	241.699	94.9717	241.699	94.8254	241.699	94.8341	241.699	94.7304	241.699	94.7264	241.699	94.6609	241.699	94.6541	241.699	94.6225	241.699	94.6196
250.488	95.8815	250.488	95.8626	250.488	95.8801	250.488	95.8257	250.488	95.8573	250.488	95.7737	250.488	95.8128	250.488	95.7097	250.488	95.7473	250.488	95.636	250.488	95.6614	250.488	95.5536	250.488	95.5556	250.488	95.4615	250.488	95.4306	250.488	95.3572	250.488	95.2872	250.488	95.2382	250.488	95.1271	250.488	95.1029	250.488	94.9542	250.488	94.9521	250.488	94.7745	250.488	94.7901	250.488	94.5966	250.488	94.6244	250.488	94.431	250.488	94.4649	250.488	94.288	250.488	94.3221	250.488	94.1764	250.488	94.2053	250.488	94.1021	250.488	94.1214	250.488	94.0681	250.488	94.0748
259.277	96.0219	259.277	96.004	259.277	96.0179	259.277	95.9655	259.277	95.9913	259.277	95.909	259.277	95.9424	259.277	95.837	259.277	95.8717	259.277	95.7519	259.277	95.7797	259.277	95.6546	259.277	95.6665	259.277	95.5445	259.277	95.5324	259.277	95.4196	259.277	95.3778	259.277	95.2781	259.277	95.2047	259.277	95.1193	259.277	95.017	259.277	94.9453	259.277	94.8213	259.277	94.762	259.277	94.6269	259.277	94.5787	259.277	94.4447	259.277	94.4067	259.277	94.2856	259.277	94.2571	259.277	94.1587	259.277	94.1393	259.277	94.0704	259.277	94.0592	259.277	94.0238	259.277	94.0202
268.066	95.9293	268.066	95.9138	268.066	95.9274	268.066	95.8817	268.066	95.9089	268.066	95.8347	268.066	95.8752	268.066	95.7753	268.066	95.8277	268.066	95.7056	268.066	95.7674	268.066	95.6267	268.066	95.6939	268.066	95.5386	268.066	95.6059	268.066	95.4398	268.066	95.5017	268.066	95.3288	268.066	95.3807	268.066	95.2052	268.066	95.2442	268.066	95.0713	268.066	95.0968	268.066	94.9323	268.066	94.9458	268.066	94.7962	268.066	94.8007	268.066	94.6719	268.066	94.6711	268.066	94.5679	268.066	94.5649	268.066	94.4903	268.066	94.4873	268.066	94.4425	268.066	94.4408	268.066	94.4259
276.855	95.735	276.855	95.7074	276.855	95.7352	276.855	95.6533	276.855	95.708	276.855	95.5755	276.855	95.6546	276.855	95.477	276.855	95.5767	276.855	95.3613	276.855	95.476	276.855	95.2309	276.855	95.3534	276.855	95.0875	276.855	95.2094	276.855	94.9318	276.855	95.0446	276.855	94.7648	276.855	94.8613	276.855	94.5891	276.855	94.664	276.855	94.4098	276.855	94.4612	276.855	94.235	276.855	94.2641	276.855	94.0745	276.855	94.0853	276.855	93.9376	276.855	93.9359	276.855	93.8304	276.855	93.8226	276.855	93.7551	276.855	93.7466	276.855	93.7103	276.855	93.705	276.855	93.6937
287.109	95.4863	287.109	95.4965	287.109	95.4565	287.109	95.4864	287.109	95.4097	287.109	95.4567	287.109	95.3502	287.109	95.4092	287.109	95.2823	287.109	95.3451	287.109	95.2097	287.109	95.2643	287.109	95.1333	287.109	95.165	287.109	95.0514	287.109	95.0443	287.109	94.9596	287.109	94.8996	287.109	94.8526	287.109	94.7306	287.109	94.7268	287.109	94.542	287.109	94.5818	287.109	94.3438	287.109	94.4221	287.109	94.1509	287.109	94.2563	287.109	93.9797	287.109	94.096	287.109	93.8443	287.109	93.9529	287.109	93.7534	287.109	93.8368	287.109	93.7094	287.109	93.7546	287.109	93.7109
297.363	95.8676	297.363	95.8754	297.363	95.8234	297.363	95.8475	297.363	95.7447	297.363	95.7871	297.363	95.6356	297.363	95.6995	297.363	95.5016	297.363	95.5906	297.363	95.3484	297.363	95.4661	297.363	95.1816	297.363	95.3298	297.363	95.0053	297.363	95.1831	297.363	94.8229	297.363	95.0254	297.363	94.6374	297.363	94.8551	297.363	94.4519	297.363	94.6721	297.363	94.2712	297.363	94.4797	297.363	94.1013	297.363	94.2851	297.363	93.9495	297.363	94.0997	297.363	93.823	297.363	93.9357	297.363	93.7274	297.363	93.8036	297.363	93.6664	297.363	93.7097	297.363	93.6421	297.363	93.6561
307.617	95.3826	307.617	95.3701	307.617	95.3642	307.617	95.3279	307.617	95.3168	307.617	95.2601	307.617	95.245	307.617	95.1724	307.617	95.1554	307.617	95.0714	307.617	95.0556	307.617	94.9637	307.617	94.9523	307.617	94.8545	307.617	94.8507	307.617	94.7478	307.617	94.7538	307.617	94.6465	307.617	94.6631	307.617	94.5527	307.617	94.5797	307.617	94.4687	307.617	94.5048	307.617	94.3973	307.617	94.4405	307.617	94.341	307.617	94.3887	307.617	94.3016	307.617	94.3502	307.617	94.279	307.617	94.3236	307.617	94.2709	307.617	94.3054	307.617	94.2731	307.617	94.2921	307.617	94.2812
319.336	95.3445	319.336	95.3456	319.336	95.2957	319.336	95.2998	319.336	95.2015	319.336	95.2108	319.336	95.067	319.336	95.0845	319.336	94.8999	319.336	94.9279	319.336	94.7097	319.336	94.7487	319.336	94.5062	319.336	94.5543	319.336	94.2991	319.336	94.3522	319.336	94.0973	319.336	94.1499	319.336	93.9089	319.336	93.9557	319.336	93.7411	319.336	93.7791	319.336	93.6009	319.336	93.6294	319.336	93.4932	319.336	93.514	319.336	93.4201	319.336	93.436	319.336	93.3792	319.336	93.3921	319.336	93.3635	319.336	93.3739	319.336	93.3628	319.336	93.3698	319.336	93.367	319.336	93.3695
329.59	95.0608	329.59	95.0704	329.59	95.0035	329.59	95.0352	329.59	94.8991	329.59	94.9608	329.59	94.7515	329.59	94.8547	329.59	94.5675	329.59	94.7245	329.59	94.3555	329.59	94.5763	329.59	94.1254	329.59	94.4136	329.59	93.8874	329.59	94.2379	329.59	93.652	329.59	94.0505	329.59	93.4298	329.59	93.8547	329.59	93.2318	329.59	93.6584	329.59	93.0684	329.59	93.4734	329.59	92.9479	329.59	93.3125	329.59	92.874	329.59	93.1853	329.59	92.8441	329.59	93.0938	329.59	92.8492	329.59	93.032	329.59	92.8766	329.59	92.9882	329.59	92.9132	329.59	92.9508
341.309	95.1713	341.309	95.1507	341.309	95.1387	341.309	95.0788	341.309	95.0543	341.309	94.9604	341.309	94.9222	341.309	94.8028	341.309	94.7484	341.309	94.6152	341.309	94.5406	341.309	94.4071	341.309	94.3067	341.309	94.1873	341.309	94.0545	341.309	93.9635	341.309	93.7922	341.309	93.7416	341.309	93.5296	341.309	93.528	341.309	93.2788	341.309	93.3297	341.309	93.0544	341.309	93.1549	341.309	92.8712	341.309	93.011	341.309	92.74	341.309	92.9017	341.309	92.6636	341.309	92.8245	341.309	92.6351	341.309	92.7713	341.309	92.641	341.309	92.7319	341.309	92.6657	341.309	92.6976
353.027	95.1943	353.027	95.1564	353.027	95.1698	353.027	95.058	353.027	95.084	353.027	94.9033	353.027	94.9403	353.027	94.6987	353.027	94.7449	353.027	94.4524	353.027	94.5056	353.027	94.1733	353.027	94.2319	353.027	93.8711	353.027	93.9339	353.027	93.5551	353.027	93.6224	353.027	93.2352	353.027	93.3094	353.027	92.9227	353.027	93.0086	353.027	92.6314	353.027	92.7354	353.027	92.3786	353.027	92.5051	353.027	92.1822	353.027	92.3292	353.027	92.0545	353.027	92.2107	353.027	91.9952	353.027	92.1411	353.027	91.9898	353.027	92.103	353.027	92.0148	353.027	92.0765	353.027	92.0478
366.211	94.6938	366.211	94.7157	366.211	94.6293	366.211	94.6948	366.211	94.5262	366.211	94.6341	366.211	94.3914	366.211	94.5386	366.211	94.2334	366.211	94.4137	366.211	94.0599	366.211	94.2631	366.211	93.8761	366.211	94.0883	366.211	93.6836	366.211	93.8886	366.211	93.4821	366.211	93.6636	366.211	93.2723	366.211	93.4162	366.211	93.0585	366.211	93.155	366.211	92.8507	366.211	92.8959	366.211	92.6625	366.211	92.6596	366.211	92.5068	366.211	92.4662	366.211	92.3904	366.211	92.3287	366.211	92.3114	366.211	92.2481	366.211	92.2609	366.211	92.2144	366.211	92.2293	366.211	92.2123
379.395	94.6003	379.395	94.6287	379.395	94.5067	379.395	94.5951	379.395	94.351	379.395	94.5088	379.395	94.1433	379.395	94.3828	379.395	93.8997	379.395	94.2317	379.395	93.6397	379.395	94.0687	379.395	93.3826	379.395	93.9024	379.395	93.1424	379.395	93.7354	379.395	92.9248	379.395	93.5656	379.395	92.7275	379.395	93.3886	379.395	92.5442	379.395	93.2019	379.395	92.3714	379.395	93.0072	379.395	92.2124	379.395	92.8108	379.395	92.078	379.395	92.622	379.395	91.9823	379.395	92.4493	379.395	91.9353	379.395	92.298	379.395	91.9383	379.395	92.1695	379.395	91.9845	379.395	92.0641
392.578	93.9752	392.578	93.9088	392.578	93.953	392.578	93.7658	392.578	93.8404	392.578	93.5689	392.578	93.6464	392.578	93.3499	392.578	93.3904	392.578	93.1456	392.578	93.1025	392.578	92.9892	392.578	92.82	392.578	92.9009	392.578	92.5803	392.578	92.8808	392.578	92.4109	392.578	92.9096	392.578	92.3204	392.578	92.9582	392.578	92.2974	392.578	92.9977	392.578	92.3186	392.578	93.0075	392.578	92.3589	392.578	92.9791	392.578	92.3999	392.578	92.9155	392.578	92.4333	392.578	92.828	392.578	92.4596	392.578	92.7326	392.578	92.4856	392.578	92.6439	392.578	92.5205	392.578	92.5722
405.762	94.403	405.762	94.3182	405.762	94.3772	405.762	94.1275	405.762	94.239	405.762	93.8394	405.762	93.9895	405.762	93.4688	405.762	93.6354	405.762	93.0405	405.762	93.1928	405.762	92.5932	405.762	92.6929	405.762	92.1798	405.762	92.1874	405.762	91.8604	405.762	91.7483	405.762	91.6849	405.762	91.4529	405.762	91.6729	405.762	91.3531	405.762	91.8042	405.762	91.4475	405.762	92.0298	405.762	91.6835	405.762	92.2926	405.762	91.9878	405.762	92.5445	405.762	92.296	405.762	92.7527	405.762	92.5656	405.762	92.899	405.762	92.7744	405.762	92.9759	405.762	92.9136	405.762	92.9808
420.41	94.608	420.41	94.5458	420.41	94.5538	420.41	94.3647	420.41	94.3861	420.41	94.0647	420.41	94.1086	420.41	93.6505	420.41	93.726	420.41	93.1363	420.41	93.247	420.41	92.5525	420.41	92.6888	420.41	91.952	420.41	92.0847	420.41	91.4118	420.41	91.4927	420.41	91.0187	420.41	90.9978	420.41	90.8368	420.41	90.6935	420.41	90.8752	420.41	90.638	420.41	91.0856	420.41	90.8155	420.41	91.3916	420.41	91.1451	420.41	91.7198	420.41	91.5273	420.41	92.0154	420.41	91.8825	420.41	92.2425	420.41	92.162	420.41	92.3795	420.41	92.3421	420.41	92.4146
435.059	94.8766	435.059	94.8202	435.059	94.8409	435.059	94.6698	435.059	94.7128	435.059	94.422	435.059	94.4902	435.059	94.0733	435.059	94.17	435.059	93.6229	435.059	93.7492	435.059	93.0776	435.059	93.228	435.059	92.4574	435.059	92.6142	435.059	91.8044	435.059	91.9317	435.059	91.1879	435.059	91.2335	435.059	90.6995	435.059	90.612	435.059	90.4249	435.059	90.1895	435.059	90.4014	435.059	90.0645	435.059	90.5937	435.059	90.2409	435.059	90.9137	435.059	90.6177	435.059	91.2634	435.059	91.0549	435.059	91.5621	435.059	91.4379	435.059	91.7539	435.059	91.6979	435.059	91.8045
451.172	94.5912	451.172	94.5698	451.172	94.533	451.172	94.4676	451.172	94.395	451.172	94.2812	451.172	94.1762	451.172	94.0047	451.172	93.8755	451.172	93.6303	451.172	93.492	451.172	93.1512	451.172	93.0268	451.172	92.5673	451.172	92.485	451.172	91.8942	451.172	91.8814	451.172	91.1766	451.172	91.2475	451.172	90.4998	451.172	90.6406	451.172	89.9822	451.172	90.1447	451.172	89.7298	451.172	89.849	451.172	89.7669	451.172	89.8016	451.172	90.0151	451.172	89.972	451.172	90.3463	451.172	90.2643	451.172	90.6466	451.172	90.5678	451.172	90.8412	451.172	90.7949	451.172	90.8931
465.82	94.481	465.82	94.4491	465.82	94.4148	465.82	94.3222	465.82	94.2496	465.82	94.1056	465.82	93.9863	465.82	93.8063	465.82	93.628	465.82	93.4329	465.82	93.1799	465.82	92.9947	465.82	92.6502	465.82	92.5031	465.82	92.0534	465.82	91.9734	465.82	91.4156	465.82	91.4309	465.82	90.7818	465.82	90.918	465.82	90.2203	465.82	90.4954	465.82	89.8139	465.82	90.2279	465.82	89.6291	465.82	90.1513	465.82	89.6767	465.82	90.2444	465.82	89.8998	465.82	90.4352	465.82	90.2032	465.82	90.6358	465.82	90.4945	465.82	90.7734	465.82	90.7066	465.82	90.8027
483.398	94.6107	483.398	94.5287	483.398	94.6094	483.398	94.3666	483.398	94.5205	483.398	94.1267	483.398	94.3381	483.398	93.8103	483.398	94.0549	483.398	93.4178	483.398	93.6623	483.398	92.9504	483.398	93.1527	483.398	92.4137	483.398	92.524	483.398	91.8233	483.398	91.7896	483.398	91.213	483.398	90.9939	483.398	90.6414	483.398	90.2318	483.398	90.1896	483.398	89.6509	483.398	89.9396	483.398	89.3967	483.398	89.9312	483.398	89.5077	483.398	90.131	483.398	89.8758	483.398	90.4447	483.398	90.3297	483.398	90.7617	483.398	90.7282	483.398	90.9919	483.398	90.9888	483.398	91.0769
499.512	94.8306	499.512	94.7951	499.512	94.7804	499.512	94.6662	499.512	94.6491	499.512	94.4346	499.512	94.4373	499.512	94.0902	499.512	94.1421	499.512	93.6243	499.512	93.7573	499.512	93.0318	499.512	93.2765	499.512	92.3182	499.512	92.6974	499.512	91.511	499.512	92.029	499.512	90.6778	499.512	91.3036	499.512	89.9405	499.512	90.5908	499.512	89.4549	499.512	90.0034	499.512	89.3282	499.512	89.6678	499.512	89.5339	499.512	89.6506	499.512	89.9338	499.512	89.9011	499.512	90.3735	499.512	90.2839	499.512	90.7417	499.512	90.6587	499.512	90.9738	499.512	90.9274	499.512	91.0383
517.09	94.843	517.09	94.779	517.09	94.8287	517.09	94.6379	517.09	94.7308	517.09	94.4165	517.09	94.5416	517.09	94.1063	517.09	94.2513	517.09	93.6952	517.09	93.8489	517.09	93.1707	517.09	93.3234	517.09	92.5255	517.09	92.6675	517.09	91.7663	517.09	91.8852	517.09	90.9284	517.09	91.0066	517.09	90.0956	517.09	90.1124	517.09	89.4137	517.09	89.3528	517.09	89.0529	517.09	88.9176	517.09	89.0953	517.09	88.9146	517.09	89.4531	517.09	89.2661	517.09	89.9363	517.09	89.7739	517.09	90.3718	517.09	90.2537	517.09	90.653	517.09	90.5911	517.09	90.7301
536.133	94.5669	536.133	94.5303	536.133	94.5306	536.133	94.4195	536.133	94.4207	536.133	94.2318	536.133	94.2345	536.133	93.9621	536.133	93.9658	536.133	93.6022	536.133	93.6048	536.133	93.1418	536.133	93.139	536.133	92.571	536.133	92.5567	536.133	91.886	536.133	91.8536	536.133	91.1003	536.133	91.0475	536.133	90.2645	536.133	90.2033	536.133	89.4918	536.133	89.4618	536.133	88.9612	536.133	89.0234	536.133	88.8356	536.133	89.0247	536.133	89.1193	536.133	89.3991	536.133	89.6385	536.133	89.9293	536.133	90.1767	536.133	90.4064	536.133	90.579	536.133	90.7036	536.133	90.7645
555.176	94.5875	555.176	94.5712	555.176	94.5254	555.176	94.4761	555.176	94.3855	555.176	94.3003	555.176	94.1671	555.176	94.0377	555.176	93.8657	555.176	93.6749	555.176	93.4701	555.176	93.1919	555.176	92.9635	555.176	92.5683	555.176	92.329	555.176	91.7955	555.176	91.5603	555.176	90.8982	555.176	90.6798	555.176	89.9642	555.176	89.7652	555.176	89.1672	555.176	88.9752	555.176	88.7226	555.176	88.5231	555.176	88.737	555.176	88.5395	555.176	89.1048	555.176	88.9401	555.176	89.609	555.176	89.4973	555.176	90.0669	555.176	90.0057	555.176	90.3716	555.176	90.3467	555.176	90.4713
574.219	94.6135	574.219	94.5462	574.219	94.5862	574.219	94.3878	574.219	94.4622	574.219	94.1416	574.219	94.24	574.219	93.8093	574.219	93.9177	574.219	93.3883	574.219	93.4898	574.219	92.8689	574.219	92.9443	574.219	92.2339	574.219	92.2621	574.219	91.4648	574.219	91.424	574.219	90.5576	574.219	90.4305	574.219	89.5574	574.219	89.3431	574.219	88.611	574.219	88.3447	574.219	87.9897	574.219	87.7497	574.219	87.9418	574.219	87.7963	574.219	88.4262	574.219	88.3725	574.219	89.1429	574.219	89.1373	574.219	89.8036	574.219	89.8117	574.219	90.2459	574.219	90.2524	574.219	90.4017
594.727	95.1217	594.727	95.0789	594.727	95.1061	594.727	94.9772	594.727	95.0262	594.727	94.8083	594.727	94.8716	594.727	94.5553	594.727	94.6275	594.727	94.194	594.727	94.2751	594.727	93.6965	594.727	93.7922	594.727	93.0378	594.727	93.1546	594.727	92.2037	594.727	92.3404	594.727	91.2055	594.727	91.3409	594.727	90.1063	594.727	90.1879	594.727	89.0627	594.727	89.0117	594.727	88.3387	594.727	88.1047	594.727	88.1732	594.727	87.8202	594.727	88.542	594.727	88.2104	594.727	89.1701	594.727	88.9407	594.727	89.7744	594.727	89.6468	594.727	90.1819	594.727	90.1281	594.727	90.3099
615.234	94.9807	615.234	94.9342	615.234	94.932	615.234	94.7958	615.234	94.7922	615.234	94.5753	615.234	94.569	615.234	94.2825	615.234	94.2672	615.234	93.9172	615.234	93.881	615.234	93.4614	615.234	93.3901	615.234	92.8786	615.234	92.7619	615.234	92.1233	615.234	91.9617	615.234	91.1622	615.234	90.9732	615.234	90.0123	615.234	89.8353	615.234	88.8128	615.234	88.7051	615.234	87.9	615.234	87.9023	615.234	87.6721	615.234	87.7515	615.234	88.1491	615.234	88.2277	615.234	88.9363	615.234	88.9771	615.234	89.6587	615.234	89.6696	615.234	90.1317	615.234	90.1311	615.234	90.2923
637.207	95.1389	637.207	95.1215	637.207	95.1053	637.207	95.0532	637.207	95.0173	637.207	94.9296	637.207	94.8674	637.207	94.7388	637.207	94.6422	637.207	94.4592	637.207	94.3206	637.207	94.0595	637.207	93.8754	637.207	93.5031	637.207	93.2751	637.207	92.7563	637.207	92.4866	637.207	91.8006	637.207	91.4825	637.207	90.654	637.207	90.2647	637.207	89.4115	637.207	88.9335	637.207	88.3065	637.207	87.8128	637.207	87.7002	637.207	87.4154	637.207	87.814	637.207	87.8918	637.207	88.4538	637.207	88.7753	637.207	89.2226	637.207	89.5686	637.207	89.8276	637.207	90.0383	637.207	90.1207
659.18	94.8045	659.18	94.7212	659.18	94.8098	659.18	94.5664	659.18	94.737	659.18	94.3526	659.18	94.5889	659.18	94.0918	659.18	94.3647	659.18	93.786	659.18	94.0527	659.18	93.4186	659.18	93.6261	659.18	92.9528	659.18	93.0447	659.18	92.3409	659.18	92.263	659.18	91.5441	659.18	91.2435	659.18	90.5675	659.18	89.9821	659.18	89.5184	659.18	88.5741	659.18	88.6678	659.18	87.3475	659.18	88.3659	659.18	86.8763	659.18	88.7005	659.18	87.4035	659.18	89.3735	659.18	88.4504	659.18	90.0216	659.18	89.4586	659.18	90.4255	659.18	90.1627	659.18	90.4855
682.617	94.7992	682.617	94.7805	682.617	94.7606	682.617	94.6995	682.617	94.6693	682.617	94.5499	682.617	94.5276	682.617	94.3212	682.617	94.3313	682.617	93.9941	682.617	94.0624	682.617	93.536	682.617	93.6858	682.617	92.8993	682.617	93.1511	682.617	92.026	682.617	92.4033	682.617	90.8631	682.617	91.4026	682.617	89.4017	682.617	90.1597	682.617	87.7884	682.617	88.8085	682.617	86.5465	682.617	87.7114	682.617	86.4396	682.617	87.3711	682.617	87.4184	682.617	87.8919	682.617	88.6799	682.617	88.8205	682.617	89.6996	682.617	89.6954	682.617	90.3152	682.617	90.2864	682.617	90.5051
707.52	94.9419	707.52	94.9355	707.52	94.8632	707.52	94.8477	707.52	94.7078	707.52	94.6925	707.52	94.4907	707.52	94.4859	707.52	94.2222	707.52	94.2319	707.52	93.8969	707.52	93.9088	707.52	93.4871	707.52	93.4652	707.52	92.9437	707.52	92.829	707.52	92.2015	707.52	91.9249	707.52	91.1856	707.52	90.6983	707.52	89.8316	707.52	89.164	707.52	88.1608	707.52	87.5343	707.52	86.5143	707.52	86.415	707.52	85.7959	707.52	86.4769	707.52	86.5123	707.52	87.4602	707.52	87.8332	707.52	88.5806	707.52	88.9527	707.52	89.3915	707.52	89.6043	707.52	89.7466
732.422	94.5733	732.422	94.5023	732.422	94.5804	732.422	94.3773	732.422	94.5246	732.422	94.215	732.422	94.4122	732.422	94.0261	732.422	94.244	732.422	93.8004	732.422	94.0033	732.422	93.4976	732.422	93.6501	732.422	93.0518	732.422	93.1241	732.422	92.3863	732.422	92.352	732.422	91.4337	732.422	91.2569	732.422	90.1704	732.422	89.7703	732.422	88.694	732.422	87.8902	732.422	87.3843	732.422	85.9329	732.422	86.9112	732.422	85.0062	732.422	87.5133	732.422	85.9439	732.422	88.609	732.422	87.6547	732.422	89.6019	732.422	89.1043	732.422	90.2233	732.422	90.016	732.422	90.377
757.324	94.372	757.324	94.3279	757.324	94.3372	757.324	94.2076	757.324	94.2373	757.324	94.0273	757.324	94.0978	757.324	93.8057	757.324	93.9416	757.324	93.5469	757.324	93.7676	757.324	93.2246	757.324	93.5358	757.324	92.7756	757.324	93.1687	757.324	92.1068	757.324	92.5665	757.324	91.1096	757.324	91.6237	757.324	89.6806	757.324	90.2435	757.324	87.7872	757.324	88.3771	757.324	85.7332	757.324	86.2003	757.324	84.681	757.324	84.6256	757.324	85.5357	757.324	84.9459	757.324	87.1497	757.324	86.5033	757.324	88.4669	757.324	87.9954	757.324	89.2192	757.324	88.9782	757.324	89.3868
785.156	94.6657	785.156	94.6726	785.156	94.5643	785.156	94.5892	785.156	94.382	785.156	94.4373	785.156	94.1457	785.156	94.2468	785.156	93.8831	785.156	94.0381	785.156	93.605	785.156	93.8	785.156	93.2898	785.156	93.4759	785.156	92.8785	785.156	92.9666	785.156	92.2843	785.156	92.1467	785.156	91.4061	785.156	90.8819	785.156	90.1409	785.156	89.056	785.156	88.4192	785.156	86.701	785.156	86.3806	785.156	84.5721	785.156	84.9011	785.156	84.4978	785.156	85.2845	785.156	86.1956	785.156	86.8651	785.156	87.8818	785.156	88.3073	785.156	88.962	785.156	89.166	785.156	89.3847
811.523	94.4782	811.523	94.3722	811.523	94.4297	811.523	94.1292	811.523	94.25	811.523	93.805	811.523	93.998	811.523	93.4802	811.523	93.7467	811.523	93.2228	811.523	93.5391	811.523	93.036	811.523	93.3478	811.523	92.8316	811.523	93.0767	811.523	92.4564	811.523	92.6004	811.523	91.7399	811.523	91.7943	811.523	90.5207	811.523	90.5335	811.523	88.6629	811.523	88.6777	811.523	86.1781	811.523	86.1259	811.523	83.9363	811.523	83.402	811.523	84.1443	811.523	83.0389	811.523	86.163	811.523	85.2826	811.523	87.9454	811.523	87.4282	811.523	88.9768	811.523	88.7422	811.523	89.2414
840.82	94.2667	840.82	94.2341	840.82	94.1608	840.82	94.0644	840.82	93.9495	840.82	93.7971	840.82	93.6943	840.82	93.5076	840.82	93.4724	840.82	93.2815	840.82	93.3432	840.82	93.1583	840.82	93.3016	840.82	93.0855	840.82	93.2572	840.82	92.9295	840.82	93.0622	840.82	92.5234	840.82	92.5562	840.82	91.6951	840.82	91.5877	840.82	90.2603	840.82	90.0034	840.82	88.0089	840.82	87.6446	840.82	84.8402	840.82	84.563	840.82	82.0757	840.82	82.4019	840.82	83.1213	840.82	83.6979	840.82	85.5889	840.82	85.9253	840.82	87.179	840.82	87.3219	840.82	87.7355
870.117	95.0953	870.117	95.0367	870.117	94.9062	870.117	94.74	870.117	94.4852	870.117	94.2423	870.117	93.8874	870.117	93.6219	870.117	93.2261	870.117	93.0084	870.117	92.6693	870.117	92.551	870.117	92.3651	870.117	92.3267	870.117	92.3222	870.117	92.2658	870.117	92.3848	870.117	92.188	870.117	92.3299	870.117	91.892	870.117	91.9562	870.117	91.2033	870.117	91.1072	870.117	89.9898	870.117	89.6758	870.117	88.2169	870.117	87.6764	870.117	86.1857	870.117	85.5682	870.117	84.9372	870.117	84.6228	870.117	85.2413	870.117	85.2665	870.117	86.1007	870.117	86.1803	870.117	86.5096
900.879	95.3225	900.879	95.2366	900.879	95.2179	900.879	94.9694	900.879	94.931	900.879	94.5496	900.879	94.4828	900.879	94.0219	900.879	93.9079	900.879	93.4376	900.879	93.2609	900.879	92.8383	900.879	92.6146	900.879	92.2345	900.879	92.0281	900.879	91.5967	900.879	91.4955	900.879	90.8757	900.879	90.9326	900.879	90.0478	900.879	90.2216	900.879	89.1563	900.879	89.2836	900.879	88.3301	900.879	88.175	900.879	87.7827	900.879	87.233	900.879	87.7338	900.879	87.0215	900.879	88.1892	900.879	87.6546	900.879	88.8564	900.879	88.5757	900.879	89.3845	900.879	89.2762	900.879	89.5535
933.105	95.775	933.105	95.7569	933.105	95.5543	933.105	95.5063	933.105	95.1088	933.105	95.0564	933.105	94.4783	933.105	94.481	933.105	93.7391	933.105	93.8872	933.105	92.9986	933.105	93.3611	933.105	92.3517	933.105	92.8936	933.105	91.8138	933.105	92.3661	933.105	91.3022	933.105	91.6111	933.105	90.6959	933.105	90.4858	933.105	89.9044	933.105	88.9415	933.105	88.8968	933.105	87.1687	933.105	87.7469	933.105	85.9007	933.105	86.7983	933.105	86.1044	933.105	86.7099	933.105	87.4417	933.105	87.6469	933.105	88.8508	933.105	88.8924	933.105	89.7964	933.105	89.8018	933.105	90.1225
965.332	95.4948	965.332	95.3944	965.332	95.3771	965.332	95.0848	965.332	95.0568	965.332	94.5952	965.332	94.5748	965.332	93.9739	965.332	93.9914	965.332	93.2933	965.332	93.371	965.332	92.6465	965.332	92.7533	965.332	92.1005	965.332	92.1257	965.332	91.6196	965.332	91.4257	965.332	91.048	965.332	90.5674	965.332	90.1825	965.332	89.4508	965.332	88.8582	965.332	87.9554	965.332	87.0658	965.332	86.0243	965.332	85.3272	965.332	84.1684	965.332	85.0183	965.332	84.0849	965.332	86.3673	965.332	85.8952	965.332	87.9442	965.332	87.7543	965.332	88.9812	965.332	88.9189	965.332	89.3173
1000.49	95.7388	1000.49	95.6424	1000.49	95.5467	1000.49	95.2513	1000.49	95.097	1000.49	94.5936	1000.49	94.446	1000.49	93.7531	1000.49	93.6844	1000.49	92.8863	1000.49	92.9435	1000.49	92.1806	1000.49	92.3514	1000.49	91.7108	1000.49	91.9239	1000.49	91.3356	1000.49	91.5108	1000.49	90.7886	1000.49	90.8895	1000.49	89.8219	1000.49	89.8784	1000.49	88.27	1000.49	88.3896	1000.49	86.1781	1000.49	86.5346	1000.49	84.4125	1000.49	85.0335	1000.49	84.793	1000.49	85.2338	1000.49	86.7391	1000.49	86.8746	1000.49	88.512	1000.49	88.5311	1000.49	89.5941	1000.49	89.5914	1000.49	89.9484
1035.64	95.9671	1035.64	95.8564	1035.64	95.8377	1035.64	95.4948	1035.64	95.4604	1035.64	94.8643	1035.64	94.8316	1035.64	93.9773	1035.64	93.9961	1035.64	92.9327	1035.64	93.0795	1035.64	91.9525	1035.64	92.2575	1035.64	91.2846	1035.64	91.6392	1035.64	90.9427	1035.64	91.1662	1035.64	90.6363	1035.64	90.6452	1035.64	90.0161	1035.64	89.8517	1035.64	88.8614	1035.64	88.5823	1035.64	87.1614	1035.64	86.7236	1035.64	85.413	1035.64	84.7139	1035.64	84.9763	1035.64	84.3629	1035.64	86.2614	1035.64	86.0989	1035.64	87.8841	1035.64	87.9458	1035.64	89.0026	1035.64	89.0763	1035.64	89.4163
1072.27	96.3254	1072.27	96.3405	1072.27	96.027	1072.27	96.0538	1072.27	95.4865	1072.27	95.4684	1072.27	94.7682	1072.27	94.6165	1072.27	93.9561	1072.27	93.5859	1072.27	93.1574	1072.27	92.5455	1072.27	92.4905	1072.27	91.6862	1072.27	92.0026	1072.27	91.0284	1072.27	91.5711	1072.27	90.3364	1072.27	90.9627	1072.27	89.2858	1072.27	89.9696	1072.27	87.6064	1072.27	88.4315	1072.27	85.1498	1072.27	86.2141	1072.27	82.5334	1072.27	83.5963	1072.27	82.7096	1072.27	82.8914	1072.27	85.4907	1072.27	85.2639	1072.27	87.904	1072.27	87.7276	1072.27	89.3124	1072.27	89.2271	1072.27	89.7426
1108.89	96.0355	1108.89	96.0312	1108.89	95.7425	1108.89	95.7063	1108.89	95.161	1108.89	95.033	1108.89	94.3028	1108.89	94.0067	1108.89	93.2219	1108.89	92.6873	1108.89	92.0548	1108.89	91.2618	1108.89	91.0261	1108.89	90.0931	1108.89	90.3592	1108.89	89.5092	1108.89	90.0583	1108.89	89.2982	1108.89	89.8272	1108.89	88.8054	1108.89	89.2995	1108.89	87.5099	1108.89	88.2394	1108.89	85.2734	1108.89	86.5824	1108.89	82.8931	1108.89	84.6961	1108.89	82.9651	1108.89	84.1173	1108.89	85.2765	1108.89	85.6942	1108.89	87.426	1108.89	87.6458	1108.89	88.7719	1108.89	88.8942	1108.89	89.2649
1148.44	95.3235	1148.44	95.3152	1148.44	95.1172	1148.44	95.0971	1148.44	94.6747	1148.44	94.6532	1148.44	93.9685	1148.44	93.957	1148.44	92.9862	1148.44	93.0071	1148.44	91.7715	1148.44	91.884	1148.44	90.478	1148.44	90.7911	1148.44	89.3472	1148.44	89.9641	1148.44	88.52	1148.44	89.3943	1148.44	87.8989	1148.44	88.706	1148.44	87.255	1148.44	87.4032	1148.44	86.3282	1148.44	85.0545	1148.44	84.8903	1148.44	81.3383	1148.44	83.1324	1148.44	78.3552	1148.44	82.6474	1148.44	81.5499	1148.44	84.4431	1148.44	85.1447	1148.44	86.5412	1148.44	87.2386	1148.44	87.8132	1148.44	88.07
1189.45	93.8884	1189.45	93.7369	1189.45	93.8867	1189.45	93.457	1189.45	93.6892	1189.45	93.0595	1189.45	93.2439	1189.45	92.5374	1189.45	92.5068	1189.45	91.8443	1189.45	91.4544	1189.45	90.8898	1189.45	90.0923	1189.45	89.6282	1189.45	88.474	1189.45	88.2424	1189.45	86.7421	1189.45	87.139	1189.45	85.1605	1189.45	86.4555	1189.45	84.0132	1189.45	85.845	1189.45	83.2765	1189.45	84.8892	1189.45	82.5428	1189.45	83.3144	1189.45	81.6187	1189.45	81.3841	1189.45	81.3464	1189.45	81.0236	1189.45	82.6201	1189.45	82.9086	1189.45	84.3259	1189.45	84.7154	1189.45	85.3947	1189.45	85.5511
1230.47	92.7994	1230.47	92.638	1230.47	92.7779	1230.47	92.3328	1230.47	92.5677	1230.47	91.9525	1230.47	92.198	1230.47	91.5732	1230.47	91.7054	1230.47	91.191	1230.47	91.0876	1230.47	90.6552	1230.47	90.2872	1230.47	89.7534	1230.47	89.1938	1230.47	88.3559	1230.47	87.6388	1230.47	86.4671	1230.47	85.3985	1230.47	84.2488	1230.47	82.3515	1230.47	82.4087	1230.47	79.6102	1230.47	82.2974	1230.47	79.5681	1230.47	83.409	1230.47	80.6817	1230.47	84.1721	1230.47	81.666	1230.47	84.1846	1230.47	82.7584	1230.47	83.912	1230.47	83.7962	1230.47	83.9992	1230.47	84.3692	1230.47	84.3441
1274.41	95.3029	1274.41	95.0997	1274.41	95.0733	1274.41	94.5006	1274.41	94.4054	1274.41	93.5641	1274.41	93.3727	1274.41	92.4621	1274.41	92.2128	1274.41	91.6164	1274.41	91.377	1274.41	91.3621	1274.41	91.2306	1274.41	91.4087	1274.41	91.5378	1274.41	91.2968	1274.41	91.6313	1274.41	90.6705	1274.41	90.8882	1274.41	88.951	1274.41	88.7721	1274.41	85.178	1274.41	84.5447	1274.41	79.3156	1274.41	78.0651	1274.41	82.5239	1274.41	80.9376	1274.41	86.7091	1274.41	85.4337	1274.41	88.9004	1274.41	88.0207	1274.41	90.0956	1274.41	89.601	1274.41	90.7153	1274.41	90.51	1274.41	90.8612
1319.82	96.3945	1319.82	96.2297	1319.82	96.1303	1319.82	95.6242	1319.82	95.4397	1319.82	94.5606	1319.82	94.3625	1319.82	93.1077	1319.82	93.0386	1319.82	91.6214	1319.82	91.8036	1319.82	90.8325	1319.82	91.2052	1319.82	91.0867	1319.82	91.3989	1319.82	91.6564	1319.82	91.686	1319.82	91.6026	1319.82	91.2913	1319.82	90.3102	1319.82	89.7575	1319.82	87.2269	1319.82	86.666	1319.82	81.0995	1319.82	81.1214	1319.82	76.5987	1319.82	76.677	1319.82	84.3982	1319.82	83.2924	1319.82	88.5447	1319.82	87.5658	1319.82	90.726	1319.82	90.0049	1319.82	91.7205	1319.82	91.3339	1319.82	91.8774
1366.7	97.3125	1366.7	97.1244	1366.7	97.0191	1366.7	96.4728	1366.7	96.2025	1366.7	95.3205	1366.7	94.8705	1366.7	93.6256	1366.7	93.1632	1366.7	91.5558	1366.7	91.4676	1366.7	89.9239	1366.7	90.5433	1366.7	89.8392	1366.7	90.8042	1366.7	90.735	1366.7	91.3211	1366.7	91.1045	1366.7	91.028	1366.7	89.9763	1366.7	89.4015	1366.7	86.5609	1366.7	85.9597	1366.7	78.6923	1366.7	79.4644	1366.7	75.7633	1366.7	77.8379	1366.7	84.8159	1366.7	84.7693	1366.7	88.8446	1366.7	88.6395	1366.7	91.013	1366.7	90.8523	1366.7	92.0923	1366.7	92.0117	1366.7	92.3934
1413.57	96.9369	1413.57	96.8316	1413.57	96.6701	1413.57	96.3388	1413.57	95.9602	1413.57	95.3547	1413.57	94.7019	1413.57	93.7374	1413.57	92.8306	1413.57	91.5114	1413.57	90.4821	1413.57	89.5873	1413.57	88.703	1413.57	89.729	1413.57	89.2282	1413.57	91.0161	1413.57	90.634	1413.57	91.5482	1413.57	90.9033	1413.57	90.552	1413.57	89.2972	1413.57	87.3245	1413.57	84.9227	1413.57	78.6531	1413.57	72.1862	1413.57	77.8507	1413.57	80.0418	1413.57	87.3571	1413.57	86.8094	1413.57	91.052	1413.57	90.1545	1413.57	92.8564	1413.57	92.1722	1413.57	93.6777	1413.57	93.3421	1413.57	93.823
1463.38	96.925	1463.38	97.0014	1463.38	96.5945	1463.38	96.7857	1463.38	95.9297	1463.38	96.039	1463.38	94.8186	1463.38	94.3448	1463.38	92.9958	1463.38	91.1522	1463.38	89.7248	1463.38	86.2028	1463.38	85.0603	1463.38	86.0905	1463.38	87.5833	1463.38	90.6346	1463.38	91.0521	1463.38	92.9584	1463.38	92.0017	1463.38	92.9939	1463.38	91.1743	1463.38	90.8374	1463.38	88.6281	1463.38	86.57	1463.38	84.5865	1463.38	86.344	1463.38	86.0581	1463.38	91.2435	1463.38	90.4869	1463.38	94.417	1463.38	93.4404	1463.38	96.1251	1463.38	95.2927	1463.38	96.8754	1463.38	96.4	1463.38	96.9265
1516.11	97.395	1516.11	97.4525	1516.11	97.2271	1516.11	97.2653	1516.11	97.0786	1516.11	96.7657	1516.11	96.9435	1516.11	95.9612	1516.11	96.4867	1516.11	94.7286	1516.11	94.9107	1516.11	92.1721	1516.11	90.7442	1516.11	84.8031	1516.11	77.9923	1516.11	83.9149	1516.11	84.527	1516.11	91.7808	1516.11	90.4738	1516.11	93.3849	1516.11	92.7827	1516.11	92.763	1516.11	93.2576	1516.11	92.0597	1516.11	92.0275	1516.11	91.7471	1516.11	90.1718	1516.11	92.4524	1516.11	91.2706	1516.11	94.7496	1516.11	94.463	1516.11	97.0307	1516.11	96.9301	1516.11	98.4054	1516.11	98.3373	1516.11	98.8177
1568.85	96.5332	1568.85	96.5887	1568.85	96.4302	1568.85	96.479	1568.85	96.4127	1568.85	96.1967	1568.85	96.5235	1568.85	95.9057	1568.85	96.5373	1568.85	95.6187	1568.85	95.8971	1568.85	94.5363	1568.85	93.8019	1568.85	90.6373	1568.85	88.8873	1568.85	75.5286	1568.85	75.5238	1568.85	87.7871	1568.85	86.9007	1568.85	91.8715	1568.85	92.0044	1568.85	92.9828	1568.85	93.4545	1568.85	93.2703	1568.85	92.8645	1568.85	92.3737	1568.85	91.0481	1568.85	91.0627	1568.85	89.9153	1568.85	92.5802	1568.85	92.2463	1568.85	95.3001	1568.85	95.1079	1568.85	96.9654	1568.85	96.82	1568.85	97.427
1624.51	95.9111	1624.51	95.8494	1624.51	95.8872	1624.51	95.8197	1624.51	95.9197	1624.51	96.0091	1624.51	96.1485	1624.51	96.3395	1624.51	96.4078	1624.51	96.4209	1624.51	96.1498	1624.51	95.5505	1624.51	94.5785	1624.51	92.6011	1624.51	90.5905	1624.51	84.6009	1624.51	81.1304	1624.51	79.7963	1624.51	85.3661	1624.51	89.8921	1624.51	91.4021	1624.51	93.4599	1624.51	93.5459	1624.51	94.5965	1624.51	93.5084	1624.51	93.6612	1624.51	91.5285	1624.51	91.4738	1624.51	88.5564	1624.51	91.9495	1624.51	90.5891	1624.51	94.6449	1624.51	94.1967	1624.51	96.3216	1624.51	96.1363	1624.51	96.7674
1681.64	96.0297	1681.64	95.9805	1681.64	95.4932	1681.64	95.5001	1681.64	94.7556	1681.64	95.274	1681.64	94.383	1681.64	95.6027	1681.64	94.6012	1681.64	95.9462	1681.64	94.7476	1681.64	95.5638	1681.64	93.7739	1681.64	93.6976	1681.64	90.951	1681.64	89.1861	1681.64	84.1683	1681.64	73.6843	1681.64	79.1815	1681.64	86.6792	1681.64	90.334	1681.64	93.2284	1681.64	93.7103	1681.64	95.4378	1681.64	94.246	1681.64	95.0359	1681.64	92.6108	1681.64	92.9024	1681.64	89.1553	1681.64	92.2844	1681.64	89.8226	1681.64	94.3777	1681.64	93.6644	1681.64	95.9348	1681.64	95.7519	1681.64	96.3823
1741.7	97.8594	1741.7	97.6974	1741.7	97.1719	1741.7	96.5903	1741.7	95.8383	1741.7	94.7754	1741.7	94.0109	1741.7	93.0143	1741.7	91.9008	1741.7	92.2514	1741.7	90.6055	1741.7	92.4893	1741.7	90.8594	1741.7	92.4183	1741.7	90.6014	1741.7	90.251	1741.7	87.6644	1741.7	83.058	1741.7	75.8326	1741.7	75.4492	1741.7	83.0325	1741.7	87.7002	1741.7	89.355	1741.7	92.1371	1741.7	91.4373	1741.7	93.2432	1741.7	91.4978	1741.7	90.9788	1741.7	89.4086	1741.7	86.1113	1741.7	86.1147	1741.7	87.7915	1741.7	87.7658	1741.7	90.6838	1741.7	90.4916	1741.7	91.4274
1803.22	98.8603	1803.22	98.5364	1803.22	98.416	1803.22	97.3844	1803.22	97.6059	1803.22	95.8369	1803.22	96.7681	1803.22	94.4538	1803.22	95.6913	1803.22	93.0137	1803.22	93.9223	1803.22	91.3078	1803.22	91.8516	1803.22	89.5759	1803.22	90.1288	1803.22	86.41	1803.22	87.4855	1803.22	82.0081	1803.22	82.008	1803.22	77.5933	1803.22	71.7088	1803.22	79.8295	1803.22	80.4936	1803.22	87.2368	1803.22	86.6772	1803.22	88.5175	1803.22	88.7806	1803.22	85.3534	1803.22	87.0332	1803.22	74.1937	1803.22	78.5832	1803.22	77.8322	1803.22	75.9466	1803.22	83.2786	1803.22	83.1372	1803.22	84.4142
1866.21	99.6533	1866.21	99.4047	1866.21	99.0633	1866.21	98.3643	1866.21	98.2457	1866.21	97.2141	1866.21	97.7505	1866.21	96.2237	1866.21	97.2108	1866.21	94.5558	1866.21	95.7247	1866.21	91.3807	1866.21	92.7528	1866.21	87.1705	1866.21	88.5773	1866.21	84.4419	1866.21	84.5698	1866.21	83.8581	1866.21	81.7513	1866.21	82.7154	1866.21	81.2102	1866.21	85.5225	1866.21	84.9501	1866.21	87.7442	1866.21	87.1624	1866.21	85.2982	1866.21	86.2635	1866.21	75.1129	1866.21	82.7885	1866.21	74.4883	1866.21	81.3659	1866.21	80.9544	1866.21	84.0719	1866.21	84.2809	1866.21	85.81	1866.21	85.9838
1932.13	99.3113	1932.13	99.0201	1932.13	98.8242	1932.13	98.0573	1932.13	98.0761	1932.13	97.107	1932.13	97.5351	1932.13	96.265	1932.13	97.0527	1932.13	94.7767	1932.13	95.8907	1932.13	92.0082	1932.13	93.3499	1932.13	88.6085	1932.13	89.3717	1932.13	86.4796	1932.13	84.9071	1932.13	84.6956	1932.13	80.5967	1932.13	81.6881	1932.13	78.963	1932.13	84.5131	1932.13	83.1083	1932.13	86.5443	1932.13	84.155	1932.13	83.608	1932.13	80.7381	1932.13	72.9279	1932.13	78.8835	1932.13	76.4181	1932.13	83.8512	1932.13	83.3924	1932.13	87.3151	1932.13	87.3284	1932.13	89.2213	1932.13	89.2935
1999.51	97.9319	1999.51	97.4433	1999.51	97.999	1999.51	97.028	1999.51	97.5776	1999.51	96.7994	1999.51	96.9114	1999.51	96.1267	1999.51	96.1326	1999.51	94.5881	1999.51	94.7773	1999.51	92.0799	1999.51	92.1826	1999.51	89.6537	1999.51	88.6905	1999.51	88.0667	1999.51	85.5531	1999.51	85.4687	1999.51	81.9543	1999.51	81.8475	1999.51	80.2757	1999.51	83.5183	1999.51	82.4522	1999.51	84.1973	1999.51	82.4984	1999.51	79.9081	1999.51	75.7982	1999.51	68.3247	1999.51	74.8227	1999.51	79.4938	1999.51	84.1283	1999.51	86.2706	1999.51	88.6502	1999.51	90.4543	1999.51	91.4444	1999.51	92.1482
2069.82	98.6834	2069.82	98.4077	2069.82	98.6512	2069.82	98.101	2069.82	98.2635	2069.82	97.6594	2069.82	97.4836	2069.82	96.4303	2069.82	96.2146	2069.82	94.2582	2069.82	94.4258	2069.82	92.2386	2069.82	92.0267	2069.82	90.7697	2069.82	89.992	2069.82	88.058	2069.82	87.7481	2069.82	82.9299	2069.82	83.0714	2069.82	74.5701	2069.82	81.2244	2069.82	79.7085	2069.82	81.8736	2069.82	84.0378	2069.82	81.484	2069.82	82.0221	2069.82	77.9217	2069.82	72.6902	2069.82	64.6647	2069.82	77.9168	2069.82	82.3425	2069.82	86.1229	2069.82	87.828	2069.82	90.4614	2069.82	90.8839	2069.82	91.8957
2143.07	98.445	2143.07	98.9087	2143.07	98.2736	2143.07	99.1692	2143.07	98.3441	2143.07	98.6576	2143.07	97.759	2143.07	97.0392	2143.07	96.0486	2143.07	94.6603	2143.07	93.8611	2143.07	92.9873	2143.07	91.967	2143.07	92.5528	2143.07	90.716	2143.07	91.0914	2143.07	89.0753	2143.07	87.1599	2143.07	85.1604	2143.07	80.0396	2143.07	82.7984	2143.07	74.7055	2143.07	84.957	2143.07	79.7879	2143.07	84.2302	2143.07	80.2018	2143.07	80.7659	2143.07	80.3776	2143.07	78.4432	2143.07	71.6116	2143.07	84.686	2143.07	87.5126	2143.07	90.6754	2143.07	92.9639	2143.07	93.8869	2143.07	94.6978
2219.24	98.6824	2219.24	98.2624	2219.24	98.1912	2219.24	97.2173	2219.24	96.9699	2219.24	96.0401	2219.24	95.4571	2219.24	94.5231	2219.24	93.7791	2219.24	92.2489	2219.24	91.7009	2219.24	90.2836	2219.24	90.0483	2219.24	89.6341	2219.24	89.0011	2219.24	88.6928	2219.24	86.7178	2219.24	85.3538	2219.24	82.2119	2219.24	79.4259	2219.24	80.6778	2219.24	84.0829	2219.24	85.3346	2219.24	86.4576	2219.24	86.7583	2219.24	85.4007	2219.24	84.83	2219.24	79.7542	2219.24	77.5224	2219.24	77.7687	2219.24	79.348	2219.24	86.6088	2219.24	87.7355	2219.24	90.0115	2219.24	90.7207	2219.24	91.2784
2296.88	97.9119	2296.88	97.6053	2296.88	97.7104	2296.88	97.0158	2296.88	96.913	2296.88	96.0318	2296.88	95.5203	2296.88	94.3295	2296.88	93.4916	2296.88	91.9136	2296.88	91.2882	2296.88	89.0998	2296.88	89.7611	2296.88	87.5408	2296.88	88.8296	2296.88	87.4732	2296.88	86.9755	2296.88	85.3334	2296.88	82.7343	2296.88	78.4623	2296.88	78.8456	2296.88	81.0631	2296.88	83.764	2296.88	86.4211	2296.88	86.6697	2296.88	87.5107	2296.88	86.3803	2296.88	84.5661	2296.88	81.9191	2296.88	72.1042	2296.88	56.6545	2296.88	81.8783	2296.88	82.6065	2296.88	87.7155	2296.88	87.8426	2296.88	89.2959
2378.91	97.7806	2378.91	97.7045	2378.91	97.3671	2378.91	97.0402	2378.91	96.5861	2378.91	96.1447	2378.91	95.5062	2378.91	95.1971	2378.91	93.8204	2378.91	93.6775	2378.91	91.0659	2378.91	91.0952	2378.91	87.9545	2378.91	87.9296	2378.91	86.4184	2378.91	86.2585	2378.91	85.4818	2378.91	84.6879	2378.91	82.1723	2378.91	80.1425	2378.91	75.9502	2378.91	78.6444	2378.91	81.5672	2378.91	84.3371	2378.91	85.4424	2378.91	86.0362	2378.91	85.2813	2378.91	83.859	2378.91	80.7368	2378.91	74.8897	2378.91	72.6798	2378.91	80.9065	2378.91	84.2977	2378.91	87.2912	2378.91	88.5327	2378.91	89.3279
2462.4	97.0433	2462.4	97.0907	2462.4	96.4594	2462.4	96.2775	2462.4	95.5275	2462.4	94.9733	2462.4	94.3987	2462.4	93.9979	2462.4	92.7642	2462.4	92.9313	2462.4	90.3246	2462.4	91.1697	2462.4	87.7271	2462.4	88.6195	2462.4	85.9544	2462.4	86.2231	2462.4	84.4999	2462.4	83.1682	2462.4	80.8972	2462.4	76.0367	2462.4	73.2461	2462.4	77.4185	2462.4	77.2867	2462.4	82.7393	2462.4	83.8135	2462.4	85.6242	2462.4	83.7171	2462.4	84.4656	2462.4	81.2672	2462.4	77.9004	2462.4	73.4222	2462.4	74.8076	2462.4	78.4618	2462.4	83.392	2462.4	85.7655	2462.4	86.4786
2548.83	98.218	2548.83	98.0755	2548.83	97.9605	2548.83	97.2756	2548.83	97.1773	2548.83	95.8064	2548.83	95.7357	2548.83	94.0407	2548.83	94.1372	2548.83	92.1422	2548.83	92.4664	2548.83	90.0987	2548.83	90.2411	2548.83	88.0993	2548.83	87.5419	2548.83	86.1223	2548.83	85.7512	2548.83	84.6463	2548.83	83.7804	2548.83	81.1892	2548.83	79.5552	2548.83	56.5403	2548.83	67.3131	2548.83	81.2796	2548.83	80.2731	2548.83	84.9407	2548.83	84.528	2548.83	84.3765	2548.83	83.9144	2548.83	81.5385	2548.83	79.8726	2548.83	81.055	2548.83	78.4963	2548.83	84.9096	2548.83	83.551	2548.83	85.8536
2639.65	99.8822	2639.65	99.7	2639.65	99.5981	2639.65	98.9948	2639.65	98.628	2639.65	97.6904	2639.65	97.0425	2639.65	95.9287	2639.65	95.4996	2639.65	93.9897	2639.65	93.8408	2639.65	91.7589	2639.65	91.679	2639.65	89.3979	2639.65	89.5964	2639.65	86.9751	2639.65	88.0859	2639.65	85.0642	2639.65	87.1968	2639.65	84.253	2639.65	85.1014	2639.65	80.3223	2639.65	79.1051	2639.65	74.5842	2639.65	75.732	2639.65	82.8079	2639.65	83.1146	2639.65	84.1477	2639.65	85.1515	2639.65	80.5934	2639.65	82.1575	2639.65	79.1651	2639.65	79.3642	2639.65	83.4324	2639.65	83.5343	2639.65	85.0573
2731.93	98.7311	2731.93	98.4689	2731.93	98.5979	2731.93	98.0005	2731.93	97.8561	2731.93	97.041	2731.93	96.6359	2731.93	95.473	2731.93	95.2391	2731.93	93.8201	2731.93	93.5455	2731.93	91.9592	2731.93	91.3957	2731.93	89.7751	2731.93	89.2767	2731.93	88.5688	2731.93	88.3426	2731.93	87.0545	2731.93	87.7363	2731.93	84.4637	2731.93	85.8304	2731.93	80.5491	2731.93	82.7116	2731.93	77.4301	2731.93	79.4642	2731.93	83.0506	2731.93	82.7825	2731.93	85.1133	2731.93	84.2824	2731.93	82.9735	2731.93	82.4643	2731.93	81.161	2731.93	81.0106	2731.93	84.0979	2731.93	84.0624	2731.93	85.6646
2828.61	98.3333	2828.61	97.9655	2828.61	98.0907	2828.61	97.5368	2828.61	97.3131	2828.61	96.7617	2828.61	96.3434	2828.61	95.2276	2828.61	94.8548	2828.61	93.287	2828.61	93.3363	2828.61	91.6758	2828.61	91.8824	2828.61	89.6564	2828.61	89.8535	2828.61	87.3024	2828.61	87.7012	2828.61	86.5317	2828.61	86.7545	2828.61	85.9983	2828.61	85.8692	2828.61	83.7566	2828.61	83.6379	2828.61	76.0807	2828.61	79.754	2828.61	81.4308	2828.61	83.297	2828.61	83.726	2828.61	85.5035	2828.61	81.5697	2828.61	82.4222	2828.61	78.0005	2828.61	77.3439	2828.61	80.744	2828.61	81.4021	2828.61	83.2435
2928.22	98.3221	2928.22	98.1053	2928.22	98.0051	2928.22	97.5853	2928.22	97.4373	2928.22	96.8524	2928.22	96.8221	2928.22	95.7788	2928.22	95.6231	2928.22	93.9826	2928.22	93.8766	2928.22	91.9754	2928.22	91.9561	2928.22	90.2668	2928.22	90.0723	2928.22	88.2093	2928.22	88.4751	2928.22	86.6656	2928.22	86.555	2928.22	85.7808	2928.22	84.9495	2928.22	84.3721	2928.22	84.689	2928.22	81.1426	2928.22	83.6548	2928.22	79.9049	2928.22	82.9968	2928.22	83.0987	2928.22	84.5738	2928.22	82.9485	2928.22	84.8175	2928.22	81.8282	2928.22	84.2252	2928.22	83.9341	2928.22	84.074	2928.22	85.0324
3030.76	97.8822	3030.76	97.7918	3030.76	97.3622	3030.76	97.0502	3030.76	96.7803	3030.76	96.3928	3030.76	96.0829	3030.76	95.6145	3030.76	95.1625	3030.76	94.1678	3030.76	93.9447	3030.76	92.307	3030.76	92.2416	3030.76	90.6664	3030.76	90.3745	3030.76	88.798	3030.76	88.1054	3030.76	87.2443	3030.76	86.3972	3030.76	86.3018	3030.76	85.014	3030.76	85.6637	3030.76	84.5784	3030.76	83.2116	3030.76	83.0235	3030.76	81.8532	3030.76	82.7507	3030.76	83.1144	3030.76	84.2515	3030.76	80.9488	3030.76	83.1592	3030.76	79.3637	3030.76	81.4323	3030.76	83.0539	3030.76	84.2166	3030.76	85.247
3137.7	96.5503	3137.7	96.5885	3137.7	96.3421	3137.7	96.2642	3137.7	96.2308	3137.7	95.9495	3137.7	95.6534	3137.7	95.1244	3137.7	94.8242	3137.7	93.3704	3137.7	93.8195	3137.7	91.4524	3137.7	92.5229	3137.7	90.0809	3137.7	91.0682	3137.7	88.5336	3137.7	88.9684	3137.7	85.5607	3137.7	87.3819	3137.7	84.0686	3137.7	87.3531	3137.7	84.4446	3137.7	85.8118	3137.7	82.7732	3137.7	83.0027	3137.7	81.7454	3137.7	82.747	3137.7	85.0983	3137.7	85.4769	3137.7	84.5244	3137.7	84.5709	3137.7	81.3386	3137.7	81.1735	3137.7	80.6286	3137.7	81.3815	3137.7	82.5765
3249.02	95.3282	3249.02	95.797	3249.02	95.3795	3249.02	96.1903	3249.02	95.2362	3249.02	95.8418	3249.02	94.8784	3249.02	95.0301	3249.02	94.1129	3249.02	94.2185	3249.02	93.2105	3249.02	92.7317	3249.02	92.5211	3249.02	90.049	3249.02	90.1735	3249.02	87.7219	3249.02	87.86	3249.02	86.2338	3249.02	86.5788	3249.02	83.3843	3249.02	84.3481	3249.02	82.3026	3249.02	84.0498	3249.02	82.4662	3249.02	83.8868	3249.02	80.6722	3249.02	81.3767	3249.02	82.3849	3249.02	82.2228	3249.02	82.8587	3249.02	82.9239	3249.02	81.8549	3249.02	82.4315	3249.02	82.5391	3249.02	84.1331	3249.02	84.5777
3363.28	96.1237	3363.28	96.276	3363.28	96.096	3363.28	96.2534	3363.28	95.8503	3363.28	95.8977	3363.28	95.3533	3363.28	95.1239	3363.28	94.3676	3363.28	94.0823	3363.28	93.1777	3363.28	92.3258	3363.28	91.7492	3363.28	89.3913	3363.28	89.9707	3363.28	86.85	3363.28	88.042	3363.28	86.3157	3363.28	86.9753	3363.28	84.2566	3363.28	85.3606	3363.28	82.7506	3363.28	83.6324	3363.28	81.9693	3363.28	82.7446	3363.28	80.7967	3363.28	82.1995	3363.28	82.3106	3363.28	83.1135	3363.28	83.8881	3363.28	81.3782	3363.28	79.5743	3363.28	78.7901	3363.28	81.5234	3363.28	81.9495	3363.28	83.6519
3481.93	96.9397	3481.93	96.8983	3481.93	96.6863	3481.93	97.0791	3481.93	96.3019	3481.93	97.0377	3481.93	95.9175	3481.93	96.2223	3481.93	94.8859	3481.93	94.6622	3481.93	92.914	3481.93	92.8028	3481.93	91.1785	3481.93	91.2342	3481.93	89.5912	3481.93	88.5984	3481.93	86.7787	3481.93	85.6041	3481.93	85.3496	3481.93	85.6262	3481.93	85.9178	3481.93	82.6837	3481.93	82.9576	3481.93	83.1469	3481.93	82.8478	3481.93	83.5729	3481.93	82.2075	3481.93	81.8148	3481.93	81.6309	3481.93	79.5985	3481.93	79.8069	3481.93	77.3887	3481.93	77.9859	3481.93	79.684	3481.93	82.0501	3481.93	83.3937
3604.98	99.5578	3604.98	99.481	3604.98	99.2225	3604.98	98.9448	3604.98	98.6445	3604.98	98.2309	3604.98	97.9576	3604.98	96.9079	3604.98	97.333	3604.98	95.1487	3604.98	95.839	3604.98	93.4715	3604.98	93.6125	3604.98	91.6987	3604.98	91.4352	3604.98	89.7585	3604.98	89.5624	3604.98	85.4494	3604.98	86.0971	3604.98	83.9254	3604.98	84.2401	3604.98	84.6607	3604.98	84.3239	3604.98	83.1108	3604.98	82.0272	3604.98	83.5923	3604.98	82.3197	3604.98	85.9615	3604.98	85.0044	3604.98	84.1495	3604.98	83.8683	3604.98	77.0177	3604.98	71.4578	3604.98	74.8685	3604.98	80.1669	3604.98	82.7485
3732.42	100.628	3732.42	100.887	3732.42	100.376	3732.42	100.783	3732.42	100.049	3732.42	100.389	3732.42	99.4509	3732.42	99.5064	3732.42	98.5741	3732.42	97.9308	3732.42	97.4901	3732.42	96.4887	3732.42	95.7539	3732.42	94.5238	3732.42	93.479	3732.42	92.0909	3732.42	91.6342	3732.42	90.4474	3732.42	89.9846	3732.42	88.1113	3732.42	88.165	3732.42	86.1657	3732.42	86.9853	3732.42	84.186	3732.42	86.5744	3732.42	84.1698	3732.42	84.784	3732.42	85.0947	3732.42	85.4858	3732.42	87.9758	3732.42	86.1012	3732.42	85.729	3732.42	80.8892	3732.42	75.758	3732.42	75.9364	3732.42	79.2233
3864.26	98.5402	3864.26	99.0578	3864.26	98.4943	3864.26	99.489	3864.26	98.5624	3864.26	99.3397	3864.26	98.2351	3864.26	98.6007	3864.26	97.6477	3864.26	97.3509	3864.26	96.6292	3864.26	95.4883	3864.26	94.9008	3864.26	93.0364	3864.26	92.7916	3864.26	90.6748	3864.26	90.6996	3864.26	89.5894	3864.26	88.6025	3864.26	87.9396	3864.26	87.919	3864.26	87.4705	3864.26	87.7796	3864.26	85.9582	3864.26	87.2822	3864.26	84.5396	3864.26	86.2643	3864.26	85.5321	3864.26	86.242	3864.26	87.3646	3864.26	86.4665	3864.26	84.6316	3864.26	82.1482	3864.26	76.4696	3864.26	73.9744	3864.26	79.1616
4000.49	97.8302	4000.49	98.4765	4000.49	97.5534	4000.49	99.1852	4000.49	97.7565	4000.49	99.2506	4000.49	97.4226	4000.49	98.4544	4000.49	96.8002	4000.49	96.9511	4000.49	95.7906	4000.49	94.8404	4000.49	93.9152	4000.49	92.5142	4000.49	91.634	4000.49	89.935	4000.49	89.1579	4000.49	88.1674	4000.49	87.4766	4000.49	85.8156	4000.49	86.2249	4000.49	84.7892	4000.49	85.4538	4000.49	85.301	4000.49	86.0488	4000.49	84.1742	4000.49	84.6088	4000.49	84.5316	4000.49	84.804	4000.49	87.5742	4000.49	85.7818	4000.49	85.2015	4000.49	82.8956	4000.49	74.8823	4000.49	73.17	4000.49	77.9651
4141.11	97.6516	4141.11	97.9911	4141.11	97.5391	4141.11	98.1437	4141.11	97.3429	4141.11	97.8763	4141.11	96.9651	4141.11	97.2122	4141.11	96.1764	4141.11	95.2902	4141.11	94.7609	4141.11	92.5355	4141.11	92.8643	4141.11	90.4159	4141.11	91.2881	4141.11	88.5584	4141.11	88.8825	4141.11	86.907	4141.11	86.6661	4141.11	85.1995	4141.11	86.1978	4141.11	83.3243	4141.11	84.3019	4141.11	84.5096	4141.11	83.7825	4141.11	84.4145	4141.11	84.8406	4141.11	83.7935	4141.11	84.6396	4141.11	85.0556	4141.11	83.6696	4141.11	85.1071	4141.11	80.6038	4141.11	77.6854	4141.11	71.7068	4141.11	74.8588
4287.6	97.5928	4287.6	97.5179	4287.6	97.5348	4287.6	97.6269	4287.6	97.3753	4287.6	97.2161	4287.6	96.7723	4287.6	96.1076	4287.6	95.4603	4287.6	94.2067	4287.6	94.0035	4287.6	92.44	4287.6	92.0107	4287.6	90.2517	4287.6	89.3248	4287.6	87.4839	4287.6	87.1336	4287.6	84.964	4287.6	85.1648	4287.6	84.6659	4287.6	84.2902	4287.6	82.4535	4287.6	82.9477	4287.6	82.2176	4287.6	82.118	4287.6	84.5421	4287.6	83.2177	4287.6	82.6183	4287.6	81.625	4287.6	83.8598	4287.6	84.0905	4287.6	83.0879	4287.6	80.0698	4287.6	77.933	4287.6	75.2481	4287.6	71.6674
4438.48	96.5081	4438.48	97.0414	4438.48	96.4852	4438.48	96.9424	4438.48	96.8177	4438.48	96.1052	4438.48	96.8064	4438.48	95.0234	4438.48	95.6367	4438.48	94.0029	4438.48	94.0676	4438.48	92.0048	4438.48	91.8109	4438.48	89.5111	4438.48	89.3995	4438.48	87.8168	4438.48	87.0579	4438.48	85.2134	4438.48	84.3637	4438.48	83.7853	4438.48	83.0006	4438.48	83.6449	4438.48	83.4424	4438.48	81.4963	4438.48	80.79	4438.48	84.0897	4438.48	83.7745	4438.48	84.4143	4438.48	83.55	4438.48	84.0295	4438.48	82.0354	4438.48	82.4624	4438.48	81.389	4438.48	78.6821	4438.48	70.654	4438.48	78.9048
4595.21	95.8422	4595.21	95.628	4595.21	96.3395	4595.21	96.0628	4595.21	96.6995	4595.21	95.9833	4595.21	96.6518	4595.21	95.3221	4595.21	95.617	4595.21	93.8139	4595.21	93.7761	4595.21	91.9944	4595.21	91.4122	4595.21	89.8171	4595.21	89.289	4595.21	87.808	4595.21	87.4766	4595.21	84.7655	4595.21	85.2405	4595.21	83.195	4595.21	81.6864	4595.21	82.6132	4595.21	82.5831	4595.21	81.5396	4595.21	80.2034	4595.21	82.1701	4595.21	81.6685	4595.21	83.8897	4595.21	82.8396	4595.21	83.8491	4595.21	82.6128	4595.21	83.6757	4595.21	79.2217	4595.21	75.9325	4595.21	69.433	4595.21	78.4029
4756.35	95.4322	4756.35	95.4035	4756.35	95.8468	4756.35	95.9601	4756.35	96.5349	4756.35	96.1814	4756.35	96.4199	4756.35	94.8963	4756.35	95.9848	4756.35	93.8317	4756.35	94.3935	4756.35	92.8759	4756.35	92.1482	4756.35	90.2829	4756.35	89.8884	4756.35	87.8773	4756.35	86.993	4756.35	85.8546	4756.35	84.9424	4756.35	83.5472	4756.35	83.0281	4756.35	81.7501	4756.35	82.3602	4756.35	81.8781	4756.35	81.3954	4756.35	83.0046	4756.35	81.989	4756.35	84.7148	4756.35	83.2441	4756.35	82.9574	4756.35	84.8847	4756.35	83.2153	4756.35	81.1799	4756.35	67.8245	4756.35	75.848	4756.35	71.3897
4924.8	95.1476	4924.8	94.9445	4924.8	95.951	4924.8	95.3614	4924.8	96.741	4924.8	95.7414	4924.8	96.8784	4924.8	95.0211	4924.8	95.6133	4924.8	93.6502	4924.8	94.3778	4924.8	92.6004	4924.8	92.9037	4924.8	91.1174	4924.8	89.4878	4924.8	88.9005	4924.8	86.8412	4924.8	86.8237	4924.8	85.6519	4924.8	85.1926	4924.8	82.7008	4924.8	82.3548	4924.8	82.6485	4924.8	82.0476	4924.8	79.5999	4924.8	81.0899	4924.8	81.6587	4924.8	84.3917	4924.8	82.0813	4924.8	84.5122	4924.8	83.4919	4924.8	83.6523	4924.8	82.9205	4924.8	81.5452	4924.8	75.178	4924.8	78.5353
5097.66	95.768	5097.66	95.6998	5097.66	96.2445	5097.66	95.8345	5097.66	96.7432	5097.66	95.8201	5097.66	96.4501	5097.66	95.7719	5097.66	96.182	5097.66	94.8017	5097.66	94.4678	5097.66	92.8667	5097.66	92.056	5097.66	91.3077	5097.66	90.6477	5097.66	89.5601	5097.66	88.4157	5097.66	87.3389	5097.66	85.9036	5097.66	84.8642	5097.66	83.2476	5097.66	82.0619	5097.66	82.2792	5097.66	81.192	5097.66	81.7516	5097.66	81.0181	5097.66	79.9986	5097.66	82.9853	5097.66	82.7251	5097.66	83.9956	5097.66	83.389	5097.66	83.6368	5097.66	82.9572	5097.66	79.0589	5097.66	64.7207	5097.66	79.0961
5277.83	97.3448	5277.83	97.2288	5277.83	97.4394	5277.83	97.1089	5277.83	97.6056	5277.83	96.7538	5277.83	97.3553	5277.83	96.3755	5277.83	96.1115	5277.83	95.0608	5277.83	94.1736	5277.83	93.4381	5277.83	92.334	5277.83	91.7136	5277.83	90.0621	5277.83	88.6695	5277.83	87.7301	5277.83	86.8907	5277.83	85.7867	5277.83	83.9169	5277.83	84.3437	5277.83	83.9006	5277.83	80.224	5277.83	81.6242	5277.83	81.6523	5277.83	81.0718	5277.83	77.5487	5277.83	83.5237	5277.83	82.819	5277.83	81.5977	5277.83	80.4488	5277.83	83.1216	5277.83	82.7458	5277.83	71.5528	5277.83	75.1264	5277.83	71.7227
5463.87	97.7278	5463.87	97.6837	5463.87	98.0498	5463.87	97.6712	5463.87	98.1349	5463.87	97.3459	5463.87	97.4329	5463.87	96.3776	5463.87	96.1265	5463.87	95.5209	5463.87	94.3907	5463.87	94.0733	5463.87	92.6813	5463.87	92.7072	5463.87	90.5868	5463.87	89.774	5463.87	88.1544	5463.87	88.5032	5463.87	86.3419	5463.87	85.8117	5463.87	84.2507	5463.87	83.6345	5463.87	82.3873	5463.87	81.2644	5463.87	81.5875	5463.87	78.0532	5463.87	79.3687	5463.87	83.913	5463.87	82.3738	5463.87	83.1226	5463.87	80.743	5463.87	82.8865	5463.87	81.7672	5463.87	79.9572	5463.87	67.7237	5463.87	71.9912
5657.23	98.1009	5657.23	97.8444	5657.23	98.0392	5657.23	97.5312	5657.23	97.7932	5657.23	97.226	5657.23	97.1978	5657.23	96.8873	5657.23	96.0325	5657.23	96.0087	5657.23	94.6839	5657.23	94.6409	5657.23	92.7773	5657.23	92.3994	5657.23	90.5075	5657.23	89.8663	5657.23	88.0022	5657.23	87.596	5657.23	86.4056	5657.23	85.4162	5657.23	84.6707	5657.23	82.993	5657.23	82.8916	5657.23	81.1824	5657.23	82.876	5657.23	79.274	5657.23	78.3181	5657.23	83.0344	5657.23	83.019	5657.23	82.9925	5657.23	80.4528	5657.23	81.7138	5657.23	81.4781	5657.23	74.8803	5657.23	72.156	5657.23	75.0271
5856.45	98.2079	5856.45	97.8353	5856.45	98.1854	5856.45	97.3405	5856.45	97.848	5856.45	97.2763	5856.45	97.0793	5856.45	96.7984	5856.45	95.9055	5856.45	96.3483	5856.45	94.6863	5856.45	94.5522	5856.45	92.9572	5856.45	92.7755	5856.45	91.5318	5856.45	89.934	5856.45	88.6023	5856.45	87.4877	5856.45	85.6011	5856.45	85.3567	5856.45	83.9755	5856.45	84.3605	5856.45	82.6045	5856.45	82.5534	5856.45	82.1732	5856.45	81.3072	5856.45	79.681	5856.45	82.1997	5856.45	81.3178	5856.45	82.8313	5856.45	80.7391	5856.45	82.4275	5856.45	80.4597	5856.45	75.7039	5856.45	71.2909	5856.45	74.4468
6062.99	98.4607	6062.99	97.8437	6062.99	98.222	6062.99	97.0132	6062.99	97.535	6062.99	96.8109	6062.99	96.9269	6062.99	96.5607	6062.99	96.0357	6062.99	95.9383	6062.99	94.7574	6062.99	94.8666	6062.99	93.5357	6062.99	91.8232	6062.99	91.3678	6062.99	89.6453	6062.99	88.7102	6062.99	86.553	6062.99	86.8403	6062.99	84.3453	6062.99	83.3171	6062.99	82.923	6062.99	82.9836	6062.99	81.5846	6062.99	81.065	6062.99	81.8786	6062.99	80.9118	6062.99	81.2723	6062.99	81.3317	6062.99	82.472	6062.99	82.0186	6062.99	81.408	6062.99	79.6506	6062.99	74.048	6062.99	67.0724	6062.99	74.7051
6276.86	98.3704	6276.86	97.7117	6276.86	97.9297	6276.86	96.5663	6276.86	97.179	6276.86	96.3384	6276.86	96.5339	6276.86	96.2344	6276.86	95.678	6276.86	95.6638	6276.86	94.6897	6276.86	94.2398	6276.86	93.1308	6276.86	92.1132	6276.86	90.4145	6276.86	89.1966	6276.86	87.8485	6276.86	85.729	6276.86	84.8561	6276.86	84.4078	6276.86	82.9447	6276.86	82.5658	6276.86	81.0272	6276.86	80.8265	6276.86	80.77	6276.86	80.2977	6276.86	81.3529	6276.86	80.0952	6276.86	80.3252	6276.86	81.856	6276.86	79.139	6276.86	81.1021	6276.86	78.0848	6276.86	75.6152	6276.86	66.9863	6276.86	74.0702
6498.05	98.127	6498.05	97.2955	6498.05	97.5975	6498.05	95.9434	6498.05	96.6685	6498.05	95.7859	6498.05	96.222	6498.05	95.9992	6498.05	95.6768	6498.05	95.3165	6498.05	94.473	6498.05	93.7312	6498.05	92.7468	6498.05	91.3135	6498.05	89.6117	6498.05	88.4637	6498.05	87.2547	6498.05	85.9238	6498.05	84.976	6498.05	83.4135	6498.05	82.7561	6498.05	80.6357	6498.05	80.2413	6498.05	80.9124	6498.05	79.3839	6498.05	80.7405	6498.05	79.369	6498.05	78.9823	6498.05	78.7654	6498.05	80.867	6498.05	80.7738	6498.05	80.0386	6498.05	77.661	6498.05	69.4141	6498.05	66.8212	6498.05	73.4576
6726.56	98.0116	6726.56	97.245	6726.56	97.4783	6726.56	95.8226	6726.56	96.5931	6726.56	95.6341	6726.56	96.2189	6726.56	96.0073	6726.56	95.5977	6726.56	95.5117	6726.56	94.4173	6726.56	93.5322	6726.56	92.2839	6726.56	90.9167	6726.56	89.1612	6726.56	87.72	6726.56	86.3444	6726.56	84.513	6726.56	84.0421	6726.56	82.2427	6726.56	81.7055	6726.56	79.8557	6726.56	79.6613	6726.56	78.3032	6726.56	78.4432	6726.56	79.3326	6726.56	79.7342	6726.56	78.9325	6726.56	78.9991	6726.56	80.5652	6726.56	79.557	6726.56	77.6149	6726.56	77.8348	6726.56	75.0096	6726.56	69.9934	6726.56	69.6312
6963.87	97.9918	6963.87	97.1585	6963.87	97.4166	6963.87	95.7418	6963.87	96.2202	6963.87	95.7986	6963.87	95.8175	6963.87	95.9171	6963.87	95.2842	6963.87	95.0901	6963.87	93.8231	6963.87	92.7488	6963.87	91.3428	6963.87	89.8207	6963.87	88.2752	6963.87	86.2943	6963.87	86.2074	6963.87	83.6873	6963.87	83.7342	6963.87	82.0269	6963.87	81.1649	6963.87	79.9842	6963.87	78.6279	6963.87	79.1049	6963.87	78.5921	6963.87	78.2886	6963.87	77.5325	6963.87	76.7622	6963.87	76.9554	6963.87	80.382	6963.87	80.4745	6963.87	78.3706	6963.87	76.5688	6963.87	71.3134	6963.87	68.5982	6963.87	70.9698
7209.96	97.79	7209.96	97.1184	7209.96	97.2647	7209.96	95.9696	7209.96	96.1006	7209.96	95.8092	7209.96	95.7324	7209.96	96.0453	7209.96	95.2569	7209.96	94.9656	7209.96	93.787	7209.96	92.5064	7209.96	91.2979	7209.96	89.3537	7209.96	88.5823	7209.96	86.1035	7209.96	85.6513	7209.96	83.0539	7209.96	82.8752	7209.96	79.1952	7209.96	80.9437	7209.96	78.8075	7209.96	78.3843	7209.96	77.2088	7209.96	78.0004	7209.96	78.1734	7209.96	78.3681	7209.96	77.8979	7209.96	78.2292	7209.96	79.6083	7209.96	78.6672	7209.96	77.9096	7209.96	77.0064	7209.96	73.1797	7209.96	66.4417	7209.96	72.752
7464.84	98.1394	7464.84	97.5503	7464.84	97.3032	7464.84	96.7499	7464.84	96.3996	7464.84	96.4855	7464.84	95.9109	7464.84	96.3355	7464.84	95.235	7464.84	94.9377	7464.84	93.6493	7464.84	91.9943	7464.84	91.2423	7464.84	88.5512	7464.84	88.0408	7464.84	85.3426	7464.84	85.383	7464.84	82.4542	7464.84	83.0781	7464.84	80.7003	7464.84	80.2765	7464.84	78.6543	7464.84	78.9402	7464.84	78.6619	7464.84	76.6135	7464.84	77.327	7464.84	77.0584	7464.84	77.937	7464.84	77.0174	7464.84	79.3945	7464.84	78.8808	7464.84	77.9274	7464.84	75.7032	7464.84	70.6197	7464.84	69.3482	7464.84	73.0894
7727.05	98.19	7727.05	97.9501	7727.05	97.6265	7727.05	97.1288	7727.05	96.7975	7727.05	96.678	7727.05	96.3823	7727.05	96.1222	7727.05	95.5223	7727.05	94.6013	7727.05	93.666	7727.05	91.7345	7727.05	90.9937	7727.05	88.5942	7727.05	88.2346	7727.05	85.3236	7727.05	85.5841	7727.05	82.4766	7727.05	83.0702	7727.05	78.7797	7727.05	80.5078	7727.05	78.0184	7727.05	79.0904	7727.05	76.8242	7727.05	77.1891	7727.05	77.1585	7727.05	78.1311	7727.05	78.7348	7727.05	77.2	7727.05	77.8624	7727.05	77.7385	7727.05	75.7766	7727.05	75.2426	7727.05	71.6823	7727.05	68.3337	7727.05	73.0087
7999.51	98.9512	7999.51	98.6617	7999.51	98.1834	7999.51	97.814	7999.51	97.0869	7999.51	97.0044	7999.51	96.2914	7999.51	95.8667	7999.51	95.2802	7999.51	93.76	7999.51	93.3101	7999.51	90.5793	7999.51	90.8703	7999.51	87.6648	7999.51	87.9869	7999.51	85.0137	7999.51	85.74	7999.51	83.08	7999.51	82.6025	7999.51	80.1454	7999.51	80.7453	7999.51	77.1147	7999.51	78.8199	7999.51	77.2261	7999.51	77.8462	7999.51	77.3259	7999.51	77.3025	7999.51	77.6292	7999.51	77.8725	7999.51	78.0731	7999.51	78.9299	7999.51	74.9886	7999.51	74.2561	7999.51	70.9509	7999.51	65.7219	7999.51	72.2114
8282.23	100.284	8282.23	100.133	8282.23	99.4275	8282.23	98.8029	8282.23	97.9178	8282.23	96.7909	8282.23	96.2116	8282.23	95.2874	8282.23	95.0357	8282.23	93.1958	8282.23	93.0818	8282.23	90.6807	8282.23	90.8486	8282.23	88.4948	8282.23	88.6524	8282.23	86.1987	8282.23	86.5009	8282.23	83.6642	8282.23	83.3708	8282.23	81.2999	8282.23	80.9295	8282.23	78.653	8282.23	78.6434	8282.23	76.1879	8282.23	77.4641	8282.23	77.3152	8282.23	77.8974	8282.23	78.2559	8282.23	77.256	8282.23	79.1476	8282.23	78.5462	8282.23	75.7242	8282.23	72.5967	8282.23	72.5496	8282.23	65.014	8282.23	73.4713
8573.73	101.714	8573.73	101.472	8573.73	100.786	8573.73	99.9684	8573.73	98.7895	8573.73	96.8875	8573.73	96.2705	8573.73	94.4115	8573.73	94.2698	8573.73	92.2997	8573.73	92.4976	8573.73	90.4788	8573.73	90.6147	8573.73	88.0943	8573.73	87.9365	8573.73	86.0401	8573.73	85.4279	8573.73	83.2918	8573.73	82.5625	8573.73	80.6488	8573.73	80.8123	8573.73	78.1712	8573.73	78.368	8573.73	76.3862	8573.73	77.3413	8573.73	77.6571	8573.73	77.7625	8573.73	76.4635	8573.73	76.4368	8573.73	79.1051	8573.73	77.0894	8573.73	75.8456	8573.73	71.1559	8573.73	74.2612	8573.73	69.5185	8573.73	71.3603
8876.95	101.87	8876.95	101.856	8876.95	101.147	8876.95	100.373	8876.95	99.4372	8876.95	97.1915	8876.95	96.6972	8876.95	93.8768	8876.95	94.4797	8876.95	91.9557	8876.95	92.4507	8876.95	90.208	8876.95	90.4187	8876.95	88.0959	8876.95	87.4939	8876.95	85.2984	8876.95	84.9596	8876.95	82.6886	8876.95	81.5456	8876.95	79.8494	8876.95	78.8583	8876.95	77.8383	8876.95	75.7856	8876.95	74.195	8876.95	75.2541	8876.95	75.9167	8876.95	75.4343	8876.95	76.246	8876.95	75.2852	8876.95	78.6076	8876.95	75.6361	8876.95	72.0212	8876.95	68.4536	8876.95	69.0839	8876.95	65.4377	8876.95	72.9843
9188.96	102.275	9188.96	102.291	9188.96	101.718	9188.96	100.561	9188.96	99.987	9188.96	97.3502	9188.96	97.2225	9188.96	94.059	9188.96	94.9911	9188.96	92.1225	9188.96	92.7192	9188.96	89.829	9188.96	90.3871	9188.96	87.3009	9188.96	86.8754	9188.96	84.7477	9188.96	84.0124	9188.96	81.4544	9188.96	80.4938	9188.96	78.8446	9188.96	78.3532	9188.96	76.6676	9188.96	74.9646	9188.96	73.8712	9188.96	74.2695	9188.96	75.5324	9188.96	75.1981	9188.96	73.4621	9188.96	75.8155	9188.96	78.0109	9188.96	76.0964	9188.96	73.0894	9188.96	65.9378	9188.96	65.7683	9188.96	62.5619	9188.96	73.7004
9514.16	102.063	9514.16	102.04	9514.16	101.632	9514.16	100.732	9514.16	99.9179	9514.16	97.354	9514.16	96.9595	9514.16	93.7201	9514.16	94.6952	9514.16	91.4573	9514.16	92.2872	9514.16	89.1787	9514.16	89.2701	9514.16	86.3626	9514.16	85.5781	9514.16	83.3291	9514.16	82.8359	9514.16	79.6199	9514.16	79.7368	9514.16	77.6047	9514.16	77.7401	9514.16	74.6049	9514.16	75.4333	9514.16	73.3674	9514.16	71.9301	9514.16	75.8896	9514.16	74.6356	9514.16	74.0484	9514.16	74.3158	9514.16	76.522	9514.16	75.8496	9514.16	71.2361	9514.16	68.1543	9514.16	63.0597	9514.16	63.7177	9514.16	73.1965
9849.61	101.299	9849.61	101.365	9849.61	101.11	9849.61	100.091	9849.61	99.2291	9849.61	96.4548	9849.61	96.4811	9849.61	93.0149	9849.61	94.2958	9849.61	90.7404	9849.61	91.8719	9849.61	88.5809	9849.61	88.3055	9849.61	85.4363	9849.61	84.7508	9849.61	81.6335	9849.61	81.7929	9849.61	78.3924	9849.61	78.2114	9849.61	76.2123	9849.61	76.3735	9849.61	73.3793	9849.61	74.0965	9849.61	71.9243	9849.61	71.8722	9849.61	72.5515	9849.61	74.7247	9849.61	75.3041	9849.61	76.2861	9849.61	74.7585	9849.61	76.5477	9849.61	73.0571	9849.61	71.6736	9849.61	61.5823	9849.61	64.5062	9849.61	73.2489
10196.8	101.068	10196.8	100.911	10196.8	100.684	10196.8	99.4469	10196.8	98.9308	10196.8	95.8125	10196.8	96.2041	10196.8	92.4648	10196.8	93.8087	10196.8	90.2608	10196.8	91.1382	10196.8	87.7816	10196.8	87.8887	10196.8	85.0056	10196.8	84.725	10196.8	80.8711	10196.8	81.2883	10196.8	78.5671	10196.8	78.3637	10196.8	74.2546	10196.8	75.4512	10196.8	71.9679	10196.8	72.3742	10196.8	71.3117	10196.8	71.4657	10196.8	69.0172	10196.8	73.0775	10196.8	72.0123	10196.8	74.3645	10196.8	74.6744	10196.8	75.8399	10196.8	72.8066	10196.8	71.5538	10196.8	62.5816	10196.8	63.6703	10196.8	72.2784
10555.7	100.664	10555.7	100.675	10555.7	100.521	10555.7	98.9277	10555.7	98.6004	10555.7	95.254	10555.7	95.6084	10555.7	92.2102	10555.7	93.3785	10555.7	90.1893	10555.7	90.9407	10555.7	87.3728	10555.7	88.0335	10555.7	84.4193	10555.7	85.5735	10555.7	81.0466	10555.7	82.8453	10555.7	78.6031	10555.7	79.7334	10555.7	74.8352	10555.7	75.5882	10555.7	72.5991	10555.7	72.5811	10555.7	68.8109	10555.7	72.594	10555.7	66.8762	10555.7	72.5331	10555.7	71.4736	10555.7	75.4259	10555.7	73.9565	10555.7	75.5166	10555.7	73.8896	10555.7	72.0012	10555.7	52.7381	10555.7	60.4914	10555.7	71.5844
10927.7	100.738	10927.7	100.618	10927.7	100.522	10927.7	98.6877	10927.7	98.6902	10927.7	95.2801	10927.7	95.7151	10927.7	92.4888	10927.7	93.3609	10927.7	90.4058	10927.7	91.1466	10927.7	88.1395	10927.7	88.8754	10927.7	85.2184	10927.7	86.8325	10927.7	82.6478	10927.7	83.9543	10927.7	78.9352	10927.7	80.5991	10927.7	75.6083	10927.7	77.3524	10927.7	73.5209	10927.7	74.2762	10927.7	71.457	10927.7	72.3145	10927.7	70.3767	10927.7	73.0786	10927.7	71.9397	10927.7	76.0693	10927.7	75.2387	10927.7	76.1796	10927.7	73.0537	10927.7	70.6604	10927.7	59.7625	10927.7	61.6514	10927.7	71.8283
11313	101.441	11313	101.046	11313	100.934	11313	99.2042	11313	99.0758	11313	95.7891	11313	96.1275	11313	92.6336	11313	93.0675	11313	90.6199	11313	91.0601	11313	88.7405	11313	89.2358	11313	85.711	11313	86.6967	11313	82.783	11313	83.5841	11313	78.2159	11313	79.9207	11313	75.9349	11313	77.6213	11313	73.8186	11313	73.6115	11313	70.4498	11313	71.3686	11313	70.1496	11313	71.7302	11313	72.5785	11313	76.1845	11313	75.3853	11313	76.1311	11313	72.4442	11313	70.6722	11313	56.7516	11313	57.6562	11313	72.2345
11712.9	101.746	11712.9	101.204	11712.9	101.292	11712.9	99.3802	11712.9	99.3857	11712.9	95.9938	11712.9	96.4162	11712.9	92.6967	11712.9	93.059	11712.9	90.7727	11712.9	91.1396	11712.9	89.1008	11712.9	88.8576	11712.9	85.8855	11712.9	85.623	11712.9	81.4033	11712.9	82.2122	11712.9	76.3115	11712.9	78.1437	11712.9	73.9322	11712.9	75.9827	11712.9	72.5307	11712.9	71.4733	11712.9	69.8483	11712.9	68.8646	11712.9	69.0134	11712.9	71.2423	11712.9	72.664	11712.9	74.5979	11712.9	75.227	11712.9	75.4522	11712.9	71.763	11712.9	71.7231	11712.9	60.7866	11712.9	60.9156	11712.9	70.62
12126	101.95	12126	101.554	12126	101.51	12126	99.8474	12126	99.6936	12126	96.6596	12126	96.542	12126	92.9662	12126	92.9965	12126	91.116	12126	91.3689	12126	89.2147	12126	88.8406	12126	85.5592	12126	85.4275	12126	80.9147	12126	82.2192	12126	77.1118	12126	77.427	12126	73.5368	12126	73.3031	12126	72.3945	12126	71.0822	12126	70.9107	12126	67.0275	12126	67.883	12126	71.0478	12126	72.7652	12126	73.9493	12126	74.6874	12126	74.1069	12126	72.0563	12126	73.9841	12126	62.7117	12126	56.2122	12126	69.6734
12553.7	101.823	12553.7	101.366	12553.7	101.175	12553.7	99.5434	12553.7	99.8005	12553.7	96.8316	12553.7	96.7991	12553.7	93.7489	12553.7	93.8342	12553.7	91.9738	12553.7	91.6029	12553.7	89.082	12553.7	88.364	12553.7	84.4055	12553.7	84.4595	12553.7	80.1825	12553.7	79.8062	12553.7	76.5709	12553.7	76.0601	12553.7	73.0107	12553.7	71.3253	12553.7	70.584	12553.7	70.4196	12553.7	67.5812	12553.7	65.7923	12553.7	67.2154	12553.7	69.6453	12553.7	73.2807	12553.7	74.5283	12553.7	75.0193	12553.7	73.5751	12553.7	70.9969	12553.7	71.8154	12553.7	62.6285	12553.7	56.403	12553.7	67.0547
12996.1	101.583	12996.1	100.898	12996.1	100.704	12996.1	99.0496	12996.1	99.4205	12996.1	96.8707	12996.1	96.6853	12996.1	94.094	12996.1	93.9308	12996.1	91.801	12996.1	91.0466	12996.1	88.3062	12996.1	87.2938	12996.1	83.7779	12996.1	83.826	12996.1	81.3192	12996.1	78.5374	12996.1	78.5121	12996.1	76.0523	12996.1	74.2796	12996.1	71.038	12996.1	71.1323	12996.1	68.7523	12996.1	64.0803	12996.1	63.1638	12996.1	65.1724	12996.1	65.179	12996.1	73.7783	12996.1	72.8273	12996.1	73.6827	12996.1	74.0659	12996.1	68.8914	12996.1	67.7942	12996.1	70.1604	12996.1	67.853	12996.1	65.7472
13454.6	102.031	13454.6	101.035	13454.6	100.868	13454.6	99.4415	13454.6	99.5475	13454.6	97.3135	13454.6	97.1594	13454.6	94.2751	13454.6	94.2552	13454.6	91.2294	13454.6	90.4821	13454.6	88.392	13454.6	86.3717	13454.6	84.8613	13454.6	82.92	13454.6	82.1047	13454.6	78.6908	13454.6	78.2077	13454.6	74.3366	13454.6	74.4522	13454.6	70.9776	13454.6	69.5209	13454.6	64.5246	13454.6	63.0154	13454.6	56.4009	13454.6	67.1067	13454.6	66.0217	13454.6	73.1459	13454.6	70.8536	13454.6	74.6627	13454.6	73.5704	13454.6	68.9655	13454.6	68.6142	13454.6	67.6366	13454.6	68.6172	13454.6	64.5294
13929.2	102.113	13929.2	101.475	13929.2	101.537	13929.2	99.8217	13929.2	99.7095	13929.2	97.5466	13929.2	97.4916	13929.2	94.465	13929.2	94.39	13929.2	91.3547	13929.2	90.812	13929.2	88.6465	13929.2	87.2549	13929.2	85.371	13929.2	83.1511	13929.2	81.2303	13929.2	77.5666	13929.2	77.5283	13929.2	73.259	13929.2	72.976	13929.2	63.7565	13929.2	69.6191	13929.2	64.3857	13929.2	64.1473	13929.2	54.7484	13929.2	66.6312	13929.2	65.0602	13929.2	73.0107	13929.2	69.004	13929.2	72.0576	13929.2	72.1734	13929.2	64.8665	13929.2	64.1766	13929.2	61.4303	13929.2	64.6262	13929.2	62.4698
14419.9	102.416	14419.9	101.876	14419.9	101.942	14419.9	99.9657	14419.9	99.9451	14419.9	97.512	14419.9	97.3545	14419.9	94.1808	14419.9	94.1743	14419.9	90.5534	14419.9	91.0088	14419.9	87.735	14419.9	86.9265	14419.9	84.0696	14419.9	81.9465	14419.9	78.9975	14419.9	75.1294	14419.9	75.4533	14419.9	71.1591	14419.9	71.0815	14419.9	65.4833	14419.9	69.2678	14419.9	62.9258	14419.9	63.4739	14419.9	57.2847	14419.9	63.7824	14419.9	63.8377	14419.9	69.7789	14419.9	67.1669	14419.9	70.1557	14419.9	69.1464	14419.9	59.0136	14419.9	66.1266	14419.9	65.3936	14419.9	60.9229	14419.9	54.8402
14928.2	102.653	14928.2	102.189	14928.2	102.274	14928.2	100.173	14928.2	100.272	14928.2	97.6167	14928.2	97.653	14928.2	93.9535	14928.2	94.2205	14928.2	89.7984	14928.2	90.7481	14928.2	86.3288	14928.2	85.7955	14928.2	80.4709	14928.2	80.291	14928.2	76.4006	14928.2	73.4853	14928.2	70.3566	14928.2	70.8364	14928.2	69.4915	14928.2	66.0374	14928.2	65.1006	14928.2	60.285	14928.2	53.7168	14928.2	61.6426	14928.2	61.7392	14928.2	61.6628	14928.2	65.0446	14928.2	67.1822	14928.2	70.0092	14928.2	67.3052	14928.2	49.0229	14928.2	63.9958	14928.2	63.7915	14928.2	57.731	14928.2	47.4972
15455.6	102.946	15455.6	102.326	15455.6	102.344	15455.6	100.244	15455.6	100.362	15455.6	97.4161	15455.6	97.4729	15455.6	93.3746	15455.6	93.3883	15455.6	88.8169	15455.6	89.6163	15455.6	84.73	15455.6	84.8792	15455.6	77.1527	15455.6	80.0368	15455.6	72.1258	15455.6	75.5593	15455.6	68.924	15455.6	72.0848	15455.6	66.6547	15455.6	67.0224	15455.6	61.8416	15455.6	62.936	15455.6	60.3692	15455.6	62.319	15455.6	61.8562	15455.6	63.8531	15455.6	64.4493	15455.6	66.348	15455.6	68.6818	15455.6	63.8773	15455.6	54.8452	15455.6	63.4811	15455.6	64.3013	15455.6	61.5526	15455.6	52.6723
16000.5	103.002	16000.5	102.541	16000.5	102.492	16000.5	100.168	16000.5	100.248	16000.5	97.0551	16000.5	97.0501	16000.5	92.4295	16000.5	92.63	16000.5	87.6813	16000.5	88.7356	16000.5	82.956	16000.5	83.4334	16000.5	76.946	16000.5	78.3432	16000.5	65.798	16000.5	74.6248	16000.5	65.8372	16000.5	71.2285	16000.5	59.4451	16000.5	65.6928	16000.5	63.3973	16000.5	62.8101	16000.5	58.7307	16000.5	59.9862	16000.5	58.9775	16000.5	64.4823	16000.5	60.3313	16000.5	66.406	16000.5	68.0558	16000.5	59.4389	16000.5	57.8374	16000.5	61.9529	16000.5	64.3761	16000.5	61.369	16000.5	47.0703
16564.5	103.214	16564.5	102.408	16564.5	102.501	16564.5	99.9189	16564.5	99.9751	16564.5	96.3117	16564.5	96.5963	16564.5	91.5894	16564.5	92.1283	16564.5	85.5772	16564.5	87.2012	16564.5	80.0536	16564.5	80.6601	16564.5	72.0751	16564.5	75.0854	16564.5	54.3679	16564.5	72.1901	16564.5	57.2753	16564.5	67.2249	16564.5	59.5692	16564.5	65.1127	16564.5	55.0168	16564.5	61.8597	16564.5	57.8352	16564.5	56.984	16564.5	62.6244	16564.5	59.7076	16564.5	55.2244	16564.5	64.5802	16564.5	66.325	16564.5	51.6461	16564.5	61.329	16564.5	59.769	16564.5	61.4994	16564.5	57.6873	16564.5	51.2626
17148.9	102.766	17148.9	101.935	17148.9	102.185	17148.9	99.21	17148.9	99.5103	17148.9	95.3588	17148.9	95.6355	17148.9	90.0595	17148.9	90.9001	17148.9	82.9633	17148.9	84.7464	17148.9	76.6708	17148.9	77.2827	17148.9	71.1262	17148.9	70.4302	17148.9	67.4396	17148.9	62.1447	17148.9	68.3198	17148.9	58.9413	17148.9	63.5789	17148.9	58.7933	17148.9	60.1992	17148.9	51.4572	17148.9	61.3062	17148.9	33.9973	17148.9	57.9348	17148.9	59.8897	17148.9	57.489	17148.9	61.1064	17148.9	60.5436	17148.9	39.5829	17148.9	60.8445	17148.9	58.4891	17148.9	58.6856	17148.9	58.3162	17148.9	54.5005
17752.4	102.363	17752.4	101.219	17752.4	101.463	17752.4	98.2254	17752.4	98.7057	17752.4	93.8182	17752.4	94.3934	17752.4	88.0536	17752.4	89.1855	17752.4	80.7983	17752.4	80.6173	17752.4	72.7983	17752.4	67.5958	17752.4	75.2489	17752.4	55.6245	17752.4	74.0127	17752.4	60.8292	17752.4	69.8121	17752.4	45.2062	17752.4	67.2928	17752.4	55.5615	17752.4	65.2003	17752.4	55.8338	17752.4	59.5782	17752.4	55.7219	17752.4	58.0489	17752.4	59.6404	17752.4	45.676	17752.4	50.8049	17752.4	55.6397	17752.4	58.2303	17752.4	60.6289	17752.4	45.3368	17752.4	51.1566	17752.4	54.9725	17752.4	57.9237
18379.4	101.755	18379.4	100.529	18379.4	101.001	18379.4	97.3484	18379.4	97.9672	18379.4	92.3448	18379.4	93.4407	18379.4	85.7228	18379.4	87.5422	18379.4	76.6665	18379.4	77.0325	18379.4	76.9042	18379.4	71.699	18379.4	78.0774	18379.4	74.4686	18379.4	75.3064	18379.4	68.9957	18379.4	69.8401	18379.4	69.2299	18379.4	67.0681	18379.4	62.9545	18379.4	60.5245	18379.4	60.5553	18379.4	60.3766	18379.4	61.0873	18379.4	59.6103	18379.4	54.9246	18379.4	53.2825	18379.4	37.4421	18379.4	56.8445	18379.4	57.5609	18379.4	58.124	18379.4	46.773	18379.4	54.2638	18379.4	57.0471	18379.4	48.4147
19026.9	101.253	19026.9	99.9223	19026.9	100.458	19026.9	97.0041	19026.9	97.5358	19026.9	91.5189	19026.9	92.9584	19026.9	84.1838	19026.9	85.6708	19026.9	71.4045	19026.9	68.0706	19026.9	80.1587	19026.9	78.4309	19026.9	79.9539	19026.9	79.03	19026.9	74.639	19026.9	74.6156	19026.9	71.2614	19026.9	72.4363	19026.9	62.9677	19026.9	65.2367	19026.9	63.0873	19026.9	64.8534	19026.9	61.5984	19026.9	62.6355	19026.9	50.2869	19026.9	53.7543	19026.9	47.3156	19026.9	45.1679	19026.9	50.8265	19026.9	57.8506	19026.9	54.9443	19026.9	48.822	19026.9	49.2346	19026.9	50.1401	19026.9	51.2024
19697.8	100.683	19697.8	99.6229	19697.8	99.7681	19697.8	96.5942	19697.8	96.7807	19697.8	90.6895	19697.8	91.936	19697.8	81.3853	19697.8	82.0729	19697.8	74.5845	19697.8	69.456	19697.8	81.7792	19697.8	80.6974	19697.8	79.2118	19697.8	79.7908	19697.8	74.8476	19697.8	74.7687	19697.8	71.0684	19697.8	72.4456	19697.8	66.5725	19697.8	66.1018	19697.8	65.6874	19697.8	67.169	19697.8	60.9919	19697.8	64.6612	19697.8	42.4597	19697.8	56.4034	19697.8	47.9356	19697.8	46.2368	19697.8	38.692	19697.8	57.5356	19697.8	49.0633	19697.8	46.8086	19697.8	46.1568	19697.8	49.3818	19697.8	48.9219
19999.5	100.507	19999.5	99.4897	19999.5	99.4043	19999.5	96.6358	19999.5	96.4642	19999.5	90.5234	19999.5	91.3521	19999.5	78.1645	19999.5	79.4009	19999.5	76.2923	19999.5	72.353	19999.5	81.9621	19999.5	80.7905	19999.5	79.069	19999.5	79.9229	19999.5	75.3836	19999.5	73.8978	19999.5	71.4281	19999.5	71.8563	19999.5	65.4866	19999.5	66.8707	19999.5	67.0846	19999.5	68.3084	19999.5	62.6148	19999.5	65.1422	19999.5	58.2389	19999.5	58.3572	19999.5	57.005	19999.5	49.4312	19999.5	47.3951	19999.5	59.7511	19999.5	57.6786	19999.5	52.085	19999.5	50.3351	19999.5	52.0632	19999.5	51.4403
