"SPL Vertical"
"On-Axis"		"10°"		"-10°"		"20°"		"-20°"		"30°"		"-30°"		"40°"		"-40°"		"50°"		"-50°"		"60°"		"-60°"		"70°"		"-70°"		"80°"		"-80°"		"90°"		"-90°"		"100°"		"-100°"		"110°"		"-110°"		"120°"		"-120°"		"130°"		"-130°"		"140°"		"-140°"		"150°"		"-150°"		"160°"		"-160°"		"170°"		"-170°"		"180°"
"Frequency [Hz]"	"Sound Pessure Level [dB]  / [2.83V 1m] "	"Frequency [Hz]"	"Sound Pessure Level [dB]  / [2.83V 1m] "	"Frequency [Hz]"	"Sound Pessure Level [dB]  / [2.83V 1m] "	"Frequency [Hz]"	"Sound Pessure Level [dB]  / [2.83V 1m] "	"Frequency [Hz]"	"Sound Pessure Level [dB]  / [2.83V 1m] "	"Frequency [Hz]"	"Sound Pessure Level [dB]  / [2.83V 1m] "	"Frequency [Hz]"	"Sound Pessure Level [dB]  / [2.83V 1m] "	"Frequency [Hz]"	"Sound Pessure Level [dB]  / [2.83V 1m] "	"Frequency [Hz]"	"Sound Pessure Level [dB]  / [2.83V 1m] "	"Frequency [Hz]"	"Sound Pessure Level [dB]  / [2.83V 1m] "	"Frequency [Hz]"	"Sound Pessure Level [dB]  / [2.83V 1m] "	"Frequency [Hz]"	"Sound Pessure Level [dB]  / [2.83V 1m] "	"Frequency [Hz]"	"Sound Pessure Level [dB]  / [2.83V 1m] "	"Frequency [Hz]"	"Sound Pessure Level [dB]  / [2.83V 1m] "	"Frequency [Hz]"	"Sound Pessure Level [dB]  / [2.83V 1m] "	"Frequency [Hz]"	"Sound Pessure Level [dB]  / [2.83V 1m] "	"Frequency [Hz]"	"Sound Pessure Level [dB]  / [2.83V 1m] "	"Frequency [Hz]"	"Sound Pessure Level [dB]  / [2.83V 1m] "	"Frequency [Hz]"	"Sound Pessure Level [dB]  / [2.83V 1m] "	"Frequency [Hz]"	"Sound Pessure Level [dB]  / [2.83V 1m] "	"Frequency [Hz]"	"Sound Pessure Level [dB]  / [2.83V 1m] "	"Frequency [Hz]"	"Sound Pessure Level [dB]  / [2.83V 1m] "	"Frequency [Hz]"	"Sound Pessure Level [dB]  / [2.83V 1m] "	"Frequency [Hz]"	"Sound Pessure Level [dB]  / [2.83V 1m] "	"Frequency [Hz]"	"Sound Pessure Level [dB]  / [2.83V 1m] "	"Frequency [Hz]"	"Sound Pessure Level [dB]  / [2.83V 1m] "	"Frequency [Hz]"	"Sound Pessure Level [dB]  / [2.83V 1m] "	"Frequency [Hz]"	"Sound Pessure Level [dB]  / [2.83V 1m] "	"Frequency [Hz]"	"Sound Pessure Level [dB]  / [2.83V 1m] "	"Frequency [Hz]"	"Sound Pessure Level [dB]  / [2.83V 1m] "	"Frequency [Hz]"	"Sound Pessure Level [dB]  / [2.83V 1m] "	"Frequency [Hz]"	"Sound Pessure Level [dB]  / [2.83V 1m] "	"Frequency [Hz]"	"Sound Pessure Level [dB]  / [2.83V 1m] "	"Frequency [Hz]"	"Sound Pessure Level [dB]  / [2.83V 1m] "	"Frequency [Hz]"	"Sound Pessure Level [dB]  / [2.83V 1m] "	"Frequency [Hz]"	"Sound Pessure Level [dB]  / [2.83V 1m] "
20.5078	53.3811	20.5078	52.6007	20.5078	54.055	20.5078	51.7219	20.5078	54.6024	20.5078	50.7419	20.5078	54.9872	20.5078	49.6466	20.5078	55.1511	20.5078	48.4062	20.5078	55.0023	20.5078	46.9696	20.5078	54.3916	20.5078	45.2531	20.5078	53.0577	20.5078	43.1164	20.5078	50.4567	20.5078	40.3316	20.5078	44.9272	20.5078	36.7589	20.5078	20.5863	20.5078	34.7792	20.5078	46.3424	20.5078	38.2888	20.5078	51.7984	20.5078	42.4959	20.5078	54.51	20.5078	45.87	20.5078	55.8559	20.5078	48.5997	20.5078	56.307	20.5078	50.8594	20.5078	56.1013	20.5078	52.7321	20.5078	55.3836	20.5078	54.2443
21.9727	53.7268	21.9727	52.9203	21.9727	54.4134	21.9727	52.0106	21.9727	54.9558	21.9727	51.014	21.9727	55.3158	21.9727	49.9576	21.9727	55.4365	21.9727	48.8997	21.9727	55.2389	21.9727	47.9623	21.9727	54.6314	21.9727	47.356	21.9727	53.5795	21.9727	47.3241	21.9727	52.4215	21.9727	47.9649	21.9727	52.4351	21.9727	49.1346	21.9727	54.3656	21.9727	50.5876	21.9727	56.8301	21.9727	52.134	21.9727	58.8333	21.9727	53.6692	21.9727	60.1889	21.9727	55.1416	21.9727	60.9489	21.9727	56.5218	21.9727	61.208	21.9727	57.7848	21.9727	61.0596	21.9727	58.9043	21.9727	60.5852	21.9727	59.8503
23.4375	51.0638	23.4375	49.9033	23.4375	51.9841	23.4375	48.5236	23.4375	52.6406	23.4375	46.9909	23.4375	52.985	23.4375	45.5338	23.4375	52.9235	23.4375	44.7021	23.4375	52.2817	23.4375	45.0931	23.4375	50.7277	23.4375	46.5482	23.4375	47.6409	23.4375	48.4142	23.4375	43.9718	23.4375	50.2839	23.4375	48.7033	23.4375	52.0275	23.4375	54.1334	23.4375	53.6298	23.4375	57.7453	23.4375	55.1071	23.4375	60.1437	23.4375	56.4792	23.4375	61.68	23.4375	57.7589	23.4375	62.5555	23.4375	58.9486	23.4375	62.9088	23.4375	60.0392	23.4375	62.8488	23.4375	61.0114	23.4375	62.4662	23.4375	61.8345
24.9023	55.6032	24.9023	54.9935	24.9023	56.1459	24.9023	54.3643	24.9023	56.5806	24.9023	53.7786	24.9023	56.8649	24.9023	53.3199	24.9023	56.9507	24.9023	53.0847	24.9023	56.7919	24.9023	53.1547	24.9023	56.3875	24.9023	53.5577	24.9023	55.9282	24.9023	54.2539	24.9023	56.0387	24.9023	55.1614	24.9023	57.3892	24.9023	56.1953	24.9023	59.5796	24.9023	57.2906	24.9023	61.7407	24.9023	58.4051	24.9023	63.4482	24.9023	59.5129	24.9023	64.612	24.9023	60.5968	24.9023	65.2658	24.9023	61.6406	24.9023	65.4826	24.9023	62.6248	24.9023	65.3448	24.9023	63.5241	24.9023	64.9306	24.9023	64.3063
26.3672	58.2759	26.3672	57.8147	26.3672	58.7032	26.3672	57.3605	26.3672	59.0579	26.3672	56.9594	26.3672	59.3	26.3672	56.6636	26.3672	59.3875	26.3672	56.5267	26.3672	59.2851	26.3672	56.5928	26.3672	59.0018	26.3672	56.8825	26.3672	58.6954	26.3672	57.386	26.3672	58.8141	26.3672	58.0679	26.3672	59.858	26.3672	58.8814	26.3672	61.654	26.3672	59.7813	26.3672	63.5514	26.3672	60.7305	26.3672	65.1216	26.3672	61.7005	26.3672	66.2256	26.3672	62.6682	26.3672	66.8651	26.3672	63.6124	26.3672	67.0954	26.3672	64.51	26.3672	66.9895	26.3672	65.3339	26.3672	66.6201	26.3672	66.051
27.832	60.6713	27.832	60.289	27.832	61.034	27.832	59.9223	27.832	61.3442	27.832	59.6094	27.832	61.5689	27.832	59.3918	27.832	61.6767	27.832	59.3099	27.832	61.6477	27.832	59.3953	27.832	61.5082	27.832	59.6629	27.832	61.4066	27.832	60.1068	27.832	61.6798	27.832	60.7032	27.832	62.6542	27.832	61.4184	27.832	64.2057	27.832	62.2174	27.832	65.865	27.832	63.0692	27.832	67.269	27.832	63.9487	27.832	68.2691	27.832	64.8348	27.832	68.8474	27.832	65.7081	27.832	69.0453	27.832	66.5471	27.832	68.9274	27.832	67.3257	27.832	68.5622	27.832	68.0111
29.2969	62.987	29.2969	62.6661	29.2969	63.303	29.2969	62.3711	29.2969	63.5854	29.2969	62.1343	29.2969	63.8072	29.2969	61.9885	29.2969	63.947	29.2969	61.9634	29.2969	64.001	29.2969	62.0807	29.2969	64.0129	29.2969	62.3494	29.2969	64.1233	29.2969	62.7642	29.2969	64.5769	29.2969	63.308	29.2969	65.5525	29.2969	63.9561	29.2969	66.9256	29.2969	64.6822	29.2969	68.3611	29.2969	65.4615	29.2969	69.5814	29.2969	66.2722	29.2969	70.4547	29.2969	67.0952	29.2969	70.9545	29.2969	67.9116	29.2969	71.111	29.2969	68.7006	29.2969	70.979	29.2969	69.4371	29.2969	70.6197	29.2969	70.0897
30.7617	65.4368	30.7617	65.1777	30.7617	65.7031	30.7617	64.9486	30.7617	65.9553	30.7617	64.7729	30.7617	66.1753	30.7617	64.6738	30.7617	66.3528	30.7617	64.6718	30.7617	66.4962	30.7617	64.7822	30.7617	66.6537	30.7617	65.0126	30.7617	66.9343	30.7617	65.3617	30.7617	67.4876	30.7617	65.8198	30.7617	68.3941	30.7617	66.3714	30.7617	69.5552	30.7617	66.9981	30.7617	70.7472	30.7617	67.6813	30.7617	71.7665	30.7617	68.4036	30.7617	72.4981	30.7617	69.1487	30.7617	72.9074	30.7617	69.8999	30.7617	73.0114	30.7617	70.6376	30.7617	72.8539	30.7617	71.3373	30.7617	72.4883	30.7617	71.9672
32.2266	68.2493	32.2266	68.0132	32.2266	68.4944	32.2266	67.8032	32.2266	68.733	32.2266	67.6366	32.2266	68.9517	32.2266	67.5309	32.2266	69.1434	32.2266	67.5022	32.2266	69.3148	32.2266	67.564	32.2266	69.5008	32.2266	67.7255	32.2266	69.7784	32.2266	67.9899	32.2266	70.255	32.2266	68.3543	32.2266	71.0004	32.2266	68.8107	32.2266	71.9628	32.2266	69.3467	32.2266	72.9781	32.2266	69.948	32.2266	73.8694	32.2266	70.5994	32.2266	74.5197	32.2266	71.2848	32.2266	74.8836	32.2266	71.9865	32.2266	74.9675	32.2266	72.6833	32.2266	74.8077	32.2266	73.349	32.2266	74.4526	32.2266	73.9515
33.6914	70.4438	33.6914	70.2088	33.6914	70.6948	33.6914	70.0042	33.6914	70.9486	33.6914	69.8447	33.6914	71.1944	33.6914	69.745	33.6914	71.4267	33.6914	69.7191	33.6914	71.6517	33.6914	69.7781	33.6914	71.8969	33.6914	69.9299	33.6914	72.2195	33.6914	70.1773	33.6914	72.6959	33.6914	70.5179	33.6914	73.3739	33.6914	70.945	33.6914	74.2149	33.6914	71.4482	33.6914	75.0951	33.6914	72.0147	33.6914	75.8707	33.6914	72.6305	33.6914	76.4381	33.6914	73.2799	33.6914	76.751	33.6914	73.9456	33.6914	76.8098	33.6914	74.6074	33.6914	76.6444	33.6914	75.2409	33.6914	76.2981	33.6914	75.8163
35.1562	72.6582	35.1562	72.4474	35.1562	72.8876	35.1562	72.2669	35.1562	73.1249	35.1562	72.1289	35.1562	73.3618	35.1562	72.0455	35.1562	73.5952	35.1562	72.0276	35.1562	73.8327	35.1562	72.0846	35.1562	74.0993	35.1562	72.2228	35.1562	74.4429	35.1562	72.4457	35.1562	74.9228	35.1562	72.7526	35.1562	75.572	35.1562	73.1395	35.1562	76.354	35.1562	73.5991	35.1562	77.1633	35.1562	74.1215	35.1562	77.8747	35.1562	74.6945	35.1562	78.3938	35.1562	75.3042	35.1562	78.6753	35.1562	75.9342	35.1562	78.7171	35.1562	76.5654	35.1562	78.5459	35.1562	77.1743	35.1562	78.2028	35.1562	77.7319
36.6211	75.0384	36.6211	74.82	36.6211	75.2795	36.6211	74.6336	36.6211	75.5344	36.6211	74.4891	36.6211	75.7963	36.6211	74.3961	36.6211	76.062	36.6211	74.3639	36.6211	76.3352	36.6211	74.4002	36.6211	76.6321	36.6211	74.5112	36.6211	76.9847	36.6211	74.7003	36.6211	77.4345	36.6211	74.9682	36.6211	78.0074	36.6211	75.3127	36.6211	78.6802	36.6211	75.7284	36.6211	79.3729	36.6211	76.2071	36.6211	79.9809	36.6211	76.7382	36.6211	80.4184	36.6211	77.309	36.6211	80.6409	36.6211	77.9044	36.6211	80.644	36.6211	78.5063	36.6211	80.4515	36.6211	79.0924	36.6211	80.1013	36.6211	79.6352
38.0859	77.0728	38.0859	76.8605	38.0859	77.3098	38.0859	76.681	38.0859	77.5642	38.0859	76.5426	38.0859	77.8305	38.0859	76.4535	38.0859	78.1058	38.0859	76.4216	38.0859	78.3936	38.0859	76.4537	38.0859	78.7067	38.0859	76.5551	38.0859	79.0702	38.0859	76.7293	38.0859	79.515	38.0859	76.9777	38.0859	80.0585	38.0859	77.2987	38.0859	80.6784	38.0859	77.6884	38.0859	81.3066	38.0859	78.1397	38.0859	81.8529	38.0859	78.643	38.0859	82.2414	38.0859	79.1861	38.0859	82.4308	38.0859	79.7547	38.0859	82.416	38.0859	80.3315	38.0859	82.2184	38.0859	80.8953	38.0859	81.8732	38.0859	81.4198
39.5508	79.0215	39.5508	78.81	39.5508	79.2601	39.5508	78.6321	39.5508	79.52	39.5508	78.4946	39.5508	79.7965	39.5508	78.4041	39.5508	80.0873	39.5508	78.3671	39.5508	80.3944	39.5508	78.3894	39.5508	80.7271	39.5508	78.4761	39.5508	81.103	39.5508	78.6307	39.5508	81.543	39.5508	78.8553	39.5508	82.0565	39.5508	79.1495	39.5508	82.622	39.5508	79.5105	39.5508	83.1814	39.5508	79.9323	39.5508	83.6587	39.5508	80.4062	39.5508	83.988	39.5508	80.9209	39.5508	84.1326	39.5508	81.4629	39.5508	84.0879	39.5508	82.0163	39.5508	83.8735	39.5508	82.5615	39.5508	83.523	39.5508	83.0739
41.0156	80.7218	41.0156	80.5231	41.0156	80.9486	41.0156	80.3575	41.0156	81.1991	41.0156	80.2301	41.0156	81.4692	41.0156	80.1459	41.0156	81.7567	41.0156	80.1099	41.0156	82.0619	41.0156	80.1268	41.0156	82.3897	41.0156	80.2007	41.0156	82.7506	41.0156	80.3345	41.0156	83.1568	41.0156	80.5294	41.0156	83.613	41.0156	80.7842	41.0156	84.1024	41.0156	81.0959	41.0156	84.5802	41.0156	81.4596	41.0156	84.9839	41.0156	81.8697	41.0156	85.256	41.0156	82.3199	41.0156	85.3617	41.0156	82.802	41.0156	85.2948	41.0156	83.3044	41.0156	85.0727	41.0156	83.8098	41.0156	84.727	41.0156	84.2942
42.4805	81.7633	42.4805	81.5474	42.4805	82.0084	42.4805	81.3652	42.4805	82.2786	42.4805	81.2206	42.4805	82.5698	42.4805	81.118	42.4805	82.8787	42.4805	81.0615	42.4805	83.2034	42.4805	81.055	42.4805	83.5454	42.4805	81.1023	42.4805	83.9103	42.4805	81.2066	42.4805	84.3063	42.4805	81.37	42.4805	84.736	42.4805	81.5939	42.4805	85.1847	42.4805	81.8783	42.4805	85.6133	42.4805	82.2214	42.4805	85.9665	42.4805	82.6197	42.4805	86.1917	42.4805	83.0671	42.4805	86.2566	42.4805	83.5541	42.4805	86.1557	42.4805	84.0665	42.4805	85.9058	42.4805	84.5853	42.4805	85.5373	42.4805	85.0856
43.9453	82.5098	43.9453	82.2899	43.9453	82.7591	43.9453	82.1028	43.9453	83.0341	43.9453	81.9522	43.9453	83.3312	43.9453	81.8416	43.9453	83.6466	43.9453	81.7746	43.9453	83.9778	43.9453	81.755	43.9453	84.324	43.9453	81.7862	43.9453	84.6872	43.9453	81.8716	43.9453	85.0709	43.9453	82.014	43.9453	85.4745	43.9453	82.2155	43.9453	85.8836	43.9453	82.4771	43.9453	86.2643	43.9453	82.7983	43.9453	86.569	43.9453	83.1764	43.9453	86.7519	43.9453	83.6058	43.9453	86.7846	43.9453	84.0771	43.9453	86.6622	43.9453	84.5765	43.9453	86.4004	43.9453	85.0849	43.9453	86.0279	43.9453	85.5785
45.4102	82.8072	45.4102	82.589	45.4102	83.0572	45.4102	82.4055	45.4102	83.3358	45.4102	82.2596	45.4102	83.6394	45.4102	82.154	45.4102	83.9639	45.4102	82.0916	45.4102	84.3053	45.4102	82.0753	45.4102	84.6601	45.4102	82.1081	45.4102	85.0267	45.4102	82.1928	45.4102	85.4046	45.4102	82.3318	45.4102	85.7905	45.4102	82.5269	45.4102	86.1709	45.4102	82.7789	45.4102	86.517	45.4102	83.087	45.4102	86.7876	45.4102	83.4486	45.4102	86.9422	45.4102	83.8587	45.4102	86.9552	45.4102	84.3089	45.4102	86.8221	45.4102	84.7868	45.4102	86.558	45.4102	85.2756	45.4102	86.1908	45.4102	85.7527
46.875	83.0325	46.875	82.8149	46.875	83.2833	46.875	82.6329	46.875	83.5644	46.875	82.4887	46.875	83.8723	46.875	82.3841	46.875	84.2024	46.875	82.3213	46.875	84.5496	46.875	82.3024	46.875	84.9082	46.875	82.3297	46.875	85.2737	46.875	82.4054	46.875	85.6418	46.875	82.5318	46.875	86.0065	46.875	82.7106	46.875	86.354	46.875	82.9426	46.875	86.659	46.875	83.2278	46.875	86.8865	46.875	83.5643	46.875	87.0023	46.875	83.9483	46.875	86.9849	46.875	84.3729	46.875	86.8317	46.875	84.8273	46.875	86.5576	46.875	85.2963	46.875	86.1897	46.875	85.7591
48.3398	83.0647	48.3398	82.8438	48.3398	83.3194	48.3398	82.6588	48.3398	83.6055	48.3398	82.5111	48.3398	83.9191	48.3398	82.4022	48.3398	84.2552	48.3398	82.3334	48.3398	84.6075	48.3398	82.3063	48.3398	84.9686	48.3398	82.3228	48.3398	85.3311	48.3398	82.3848	48.3398	85.6879	48.3398	82.4945	48.3398	86.0305	48.3398	82.6539	48.3398	86.3455	48.3398	82.8644	48.3398	86.6105	48.3398	83.1267	48.3398	86.7959	48.3398	83.4401	48.3398	86.8731	48.3398	83.8019	48.3398	86.824	48.3398	84.2063	48.3398	86.6477	48.3398	84.6439	48.3398	86.3594	48.3398	85.1003	48.3398	85.9853	48.3398	85.5558
51.2695	82.9891	51.2695	82.7584	51.2695	83.2544	51.2695	82.5638	51.2695	83.5514	51.2695	82.4062	51.2695	83.8762	51.2695	82.2864	51.2695	84.2226	51.2695	82.2051	51.2695	84.5823	51.2695	82.1631	51.2695	84.9446	51.2695	82.1615	51.2695	85.2979	51.2695	82.2019	51.2695	85.6304	51.2695	82.2862	51.2695	85.9304	51.2695	82.4164	51.2695	86.1853	51.2695	82.5946	51.2695	86.3785	51.2695	82.8224	51.2695	86.4899	51.2695	83.1002	51.2695	86.5002	51.2695	83.4265	51.2695	86.3978	51.2695	83.7973	51.2695	86.1848	51.2695	84.2046	51.2695	85.8762	51.2695	84.6361	51.2695	85.4967	51.2695	85.0744
52.7344	82.9369	52.7344	82.7037	52.7344	83.2043	52.7344	82.506	52.7344	83.5035	52.7344	82.3444	52.7344	83.8302	52.7344	82.2195	52.7344	84.178	52.7344	82.1316	52.7344	84.5377	52.7344	82.0813	52.7344	84.8975	52.7344	82.0696	52.7344	85.2441	52.7344	82.0981	52.7344	85.5639	52.7344	82.1688	52.7344	85.8445	52.7344	82.2839	52.7344	86.0736	52.7344	82.4458	52.7344	86.237	52.7344	82.6565	52.7344	86.3181	52.7344	82.9171	52.7344	86.301	52.7344	83.2268	52.7344	86.1767	52.7344	83.5821	52.7344	85.9482	52.7344	83.9761	52.7344	85.6307	52.7344	84.3971	52.7344	85.2483	52.7344	84.8285
54.1992	82.9331	54.1992	82.6942	54.1992	83.2064	54.1992	82.491	54.1992	83.5115	54.1992	82.3242	54.1992	83.8439	54.1992	82.1938	54.1992	84.1965	54.1992	82.1003	54.1992	84.5589	54.1992	82.044	54.1992	84.9183	54.1992	82.026	54.1992	85.2598	54.1992	82.0476	54.1992	85.569	54.1992	82.1108	54.1992	85.8333	54.1992	82.2178	54.1992	86.0413	54.1992	82.371	54.1992	86.1808	54.1992	82.5724	54.1992	86.2377	54.1992	82.8231	54.1992	86.1986	54.1992	83.1227	54.1992	86.0565	54.1992	83.4681	54.1992	85.8154	54.1992	83.8525	54.1992	85.4911	54.1992	84.2653	54.1992	85.1073	54.1992	84.6905
55.6641	83.0112	55.6641	82.7777	55.6641	83.2793	55.6641	82.5798	55.6641	83.5796	55.6641	82.4178	55.6641	83.9077	55.6641	82.2915	55.6641	84.2561	55.6641	82.201	55.6641	84.6142	55.6641	82.1466	55.6641	84.9681	55.6641	82.129	55.6641	85.3021	55.6641	82.1491	55.6641	85.6009	55.6641	82.2086	55.6641	85.8516	55.6641	82.309	55.6641	86.0428	55.6641	82.452	55.6641	86.1638	55.6641	82.6395	55.6641	86.2022	55.6641	82.8725	55.6641	86.1467	55.6641	83.1511	55.6641	85.992	55.6641	83.4735	55.6641	85.7436	55.6641	83.8349	55.6641	85.418	55.6641	84.2264	55.6641	85.0395	55.6641	84.6344
58.5938	83.0642	58.5938	82.8205	58.5938	83.3447	58.5938	82.6149	58.5938	83.6589	58.5938	82.4475	58.5938	84.001	58.5938	82.3176	58.5938	84.3624	58.5938	82.2241	58.5938	84.7304	58.5938	82.166	58.5938	85.0895	58.5938	82.1425	58.5938	85.4218	58.5938	82.1534	58.5938	85.7097	58.5938	82.199	58.5938	85.9378	58.5938	82.2802	58.5938	86.0934	58.5938	82.399	58.5938	86.1666	58.5938	82.5577	58.5938	86.1495	58.5938	82.7588	58.5938	86.0375	58.5938	83.0043	58.5938	85.8322	58.5938	83.2948	58.5938	85.5439	58.5938	83.6282	58.5938	85.1917	58.5938	83.9987	58.5938	84.8002	58.5938	84.395
60.0586	83.2113	60.0586	82.9631	60.0586	83.4956	60.0586	82.7522	60.0586	83.813	60.0586	82.5786	60.0586	84.1578	60.0586	82.4414	60.0586	84.521	60.0586	82.3395	60.0586	84.8901	60.0586	82.2718	60.0586	85.2486	60.0586	82.2375	60.0586	85.5776	60.0586	82.2362	60.0586	85.8577	60.0586	82.2684	60.0586	86.0719	60.0586	82.3353	60.0586	86.2069	60.0586	82.4392	60.0586	86.2535	60.0586	82.5828	60.0586	86.2069	60.0586	82.7692	60.0586	86.066	60.0586	83.0009	60.0586	85.8358	60.0586	83.2792	60.0586	85.5284	60.0586	83.6027	60.0586	85.1636	60.0586	83.9662	60.0586	84.7656	60.0586	84.3592
62.9883	83.4345	62.9883	83.1825	62.9883	83.7229	62.9883	82.9677	62.9883	84.0444	62.9883	82.7895	62.9883	84.3934	62.9883	82.6468	62.9883	84.7602	62.9883	82.5379	62.9883	85.1311	62.9883	82.4611	62.9883	85.4882	62.9883	82.4154	62.9883	85.8103	62.9883	82.4001	62.9883	86.0755	62.9883	82.4155	62.9883	86.2647	62.9883	82.4629	62.9883	86.3643	62.9883	82.5445	62.9883	86.3674	62.9883	82.6634	62.9883	86.2733	62.9883	82.8233	62.9883	86.0867	62.9883	83.0277	62.9883	85.8174	62.9883	83.2789	62.9883	85.4816	62.9883	83.5773	62.9883	85.1003	62.9883	83.9197	62.9883	84.6979	62.9883	84.2978
64.4531	83.5165	64.4531	83.2615	64.4531	83.808	64.4531	83.0439	64.4531	84.133	64.4531	82.8627	64.4531	84.4852	64.4531	82.7163	64.4531	84.8548	64.4531	82.6025	64.4531	85.2273	64.4531	82.5196	64.4531	85.5841	64.4531	82.4661	64.4531	85.9032	64.4531	82.4415	64.4531	86.1619	64.4531	82.4464	64.4531	86.3406	64.4531	82.4822	64.4531	86.4254	64.4531	82.5516	64.4531	86.4099	64.4531	82.6581	64.4531	86.2947	64.4531	82.8057	64.4531	86.0863	64.4531	82.9984	64.4531	85.7969	64.4531	83.2391	64.4531	85.4443	64.4531	83.5287	64.4531	85.0512	64.4531	83.8649	64.4531	84.6421	64.4531	84.2403
67.3828	83.7252	67.3828	83.4475	67.3828	84.038	67.3828	83.2072	67.3828	84.3812	67.3828	83.0046	67.3828	84.747	67.3828	82.8392	67.3828	85.1238	67.3828	82.7092	67.3828	85.4955	67.3828	82.6129	67.3828	85.8418	67.3828	82.5488	67.3828	86.1396	67.3828	82.5156	67.3828	86.3663	67.3828	82.513	67.3828	86.5036	67.3828	82.5415	67.3828	86.5403	67.3828	82.6026	67.3828	86.474	67.3828	82.6987	67.3828	86.3093	67.3828	82.8325	67.3828	86.0571	67.3828	83.0074	67.3828	85.7332	67.3828	83.2265	67.3828	85.3581	67.3828	83.4922	67.3828	84.9555	67.3828	83.8048	67.3828	84.5491	67.3828	84.1603
68.8477	83.8539	68.8477	83.5718	68.8477	84.1703	68.8477	83.327	68.8477	84.5163	68.8477	83.1201	68.8477	84.8837	68.8477	82.9508	68.8477	85.2607	68.8477	82.8177	68.8477	85.6312	68.8477	82.7193	68.8477	85.9746	68.8477	82.6537	68.8477	86.2682	68.8477	82.6193	68.8477	86.4893	68.8477	82.6152	68.8477	86.6198	68.8477	82.6413	68.8477	86.6488	68.8477	82.6983	68.8477	86.574	68.8477	82.7883	68.8477	86.4002	68.8477	82.9143	68.8477	86.1385	68.8477	83.0803	68.8477	85.8054	68.8477	83.2906	68.8477	85.422	68.8477	83.5491	68.8477	85.0124	68.8477	83.857	68.8477	84.6015	68.8477	84.211
71.7773	84.2634	71.7773	83.9895	71.7773	84.5686	71.7773	83.7487	71.7773	84.9017	71.7773	83.5414	71.7773	85.2557	71.7773	83.3669	71.7773	85.6201	71.7773	83.2242	71.7773	85.98	71.7773	83.112	71.7773	86.3157	71.7773	83.0291	71.7773	86.6044	71.7773	82.9743	71.7773	86.8224	71.7773	82.9473	71.7773	86.9489	71.7773	82.9486	71.7773	86.9699	71.7773	82.9798	71.7773	86.8803	71.7773	83.0442	71.7773	86.6844	71.7773	83.146	71.7773	86.3958	71.7773	83.2905	71.7773	86.0347	71.7773	83.4833	71.7773	85.6265	71.7773	83.7289	71.7773	85.1984	71.7773	84.0291	71.7773	84.776	71.7773	84.3811
74.707	84.4748	74.707	84.208	74.707	84.7775	74.707	83.9777	74.707	85.1128	74.707	83.7829	74.707	85.4734	74.707	83.6215	74.707	85.8482	74.707	83.4909	74.707	86.2204	74.707	83.389	74.707	86.5686	74.707	83.3139	74.707	86.8674	74.707	83.2641	74.707	87.0905	74.707	83.2395	74.707	87.2153	74.707	83.2405	74.707	87.2271	74.707	83.269	74.707	87.1223	74.707	83.3282	74.707	86.908	74.707	83.4222	74.707	86.6012	74.707	83.5563	74.707	86.2258	74.707	83.736	74.707	85.8096	74.707	83.966	74.707	85.3813	74.707	84.2493	74.707	84.9664	74.707	84.5848
77.6367	84.6563	77.6367	84.3837	77.6367	84.9659	77.6367	84.1491	77.6367	85.3081	77.6367	83.9518	77.6367	85.675	77.6367	83.7895	77.6367	86.0542	77.6367	83.6591	77.6367	86.4286	77.6367	83.5578	77.6367	86.7761	77.6367	83.4831	77.6367	87.0714	77.6367	83.4332	77.6367	87.2886	77.6367	83.4073	77.6367	87.4055	77.6367	83.4058	77.6367	87.4076	77.6367	83.4301	77.6367	87.2908	77.6367	83.4834	77.6367	87.0624	77.6367	83.5699	77.6367	86.74	77.6367	83.6951	77.6367	86.3494	77.6367	83.8649	77.6367	85.9207	77.6367	84.085	77.6367	85.4845	77.6367	84.3592	77.6367	85.0672	77.6367	84.6881
79.1016	84.7957	79.1016	84.5238	79.1016	85.104	79.1016	84.2896	79.1016	85.4444	79.1016	84.0923	79.1016	85.8085	79.1016	83.9296	79.1016	86.1837	79.1016	83.7983	79.1016	86.5524	79.1016	83.6956	79.1016	86.8927	79.1016	83.6188	79.1016	87.1793	79.1016	83.566	79.1016	87.3867	79.1016	83.5361	79.1016	87.4932	79.1016	83.5294	79.1016	87.4845	79.1016	83.5472	79.1016	87.3569	79.1016	83.5925	79.1016	87.1178	79.1016	83.6697	79.1016	86.7853	79.1016	83.7841	79.1016	86.3863	79.1016	83.942	79.1016	85.9524	79.1016	84.1495	79.1016	85.5151	79.1016	84.4115	79.1016	85.1013	79.1016	84.7299
82.0312	85.0964	82.0312	84.8061	82.0312	85.4243	82.0312	84.556	82.0312	85.7833	82.0312	84.3455	82.0312	86.1625	82.0312	84.1718	82.0312	86.5468	82.0312	84.0311	82.0312	86.9163	82.0312	83.9196	82.0312	87.2478	82.0312	83.8339	82.0312	87.5159	82.0312	83.7718	82.0312	87.6963	82.0312	83.7324	82.0312	87.7699	82.0312	83.7159	82.0312	87.7262	82.0312	83.7243	82.0312	87.5649	82.0312	83.7607	82.0312	87.2963	82.0312	83.8296	82.0312	86.9402	82.0312	83.9364	82.0312	86.5241	82.0312	84.0873	82.0312	86.0797	82.0312	84.2881	82.0312	85.6378	82.0312	84.5437	82.0312	85.2243	82.0312	84.8565
84.9609	85.342	84.9609	85.0366	84.9609	85.6819	84.9609	84.7703	84.9609	86.0483	84.9609	84.5448	84.9609	86.4298	84.9609	84.359	84.9609	86.8106	84.9609	84.2104	84.9609	87.1708	84.9609	84.0952	84.9609	87.4869	84.9609	84.0094	84.9609	87.7329	84.9609	83.9494	84.9609	87.8845	84.9609	83.9127	84.9609	87.9231	84.9609	83.898	84.9609	87.84	84.9609	83.9057	84.9609	87.6386	84.9609	83.9375	84.9609	87.3338	84.9609	83.9966	84.9609	86.95	84.9609	84.0878	84.9609	86.5176	84.9609	84.2168	84.9609	86.0695	84.9609	84.3905	84.9609	85.636	84.9609	84.6161	84.9609	85.2409	84.9609	84.8991
87.8906	85.3542	87.8906	85.0643	87.8906	85.6815	87.8906	84.8151	87.8906	86.0394	87.8906	84.6062	87.8906	86.4169	87.8906	84.4352	87.8906	86.7991	87.8906	84.2981	87.8906	87.1675	87.8906	84.1908	87.8906	87.4998	87.8906	84.1091	87.8906	87.7716	87.8906	84.05	87.8906	87.9579	87.8906	84.0112	87.8906	88.0364	87.8906	83.9922	87.8906	87.9918	87.8906	83.9939	87.8906	87.8199	87.8906	84.0186	87.8906	87.5294	87.8906	84.0705	87.8906	87.143	87.8906	84.1556	87.8906	86.6943	87.8906	84.2812	87.8906	86.2218	87.8906	84.4557	87.8906	85.762	87.8906	84.6875	87.8906	85.3432	87.8906	84.9829
90.8203	85.5787	90.8203	85.2583	90.8203	85.9346	90.8203	84.9792	90.8203	86.3162	90.8203	84.7437	90.8203	86.7104	90.8203	84.5509	90.8203	87.1014	90.8203	84.3976	90.8203	87.4713	90.8203	84.2799	90.8203	87.8	90.8203	84.1931	90.8203	88.0659	90.8203	84.1334	90.8203	88.2463	90.8203	84.0973	90.8203	88.3203	90.8203	84.0827	90.8203	88.2715	90.8203	84.0891	90.8203	88.0926	90.8203	84.1179	90.8203	87.7896	90.8203	84.173	90.8203	87.3837	90.8203	84.2605	90.8203	86.9099	90.8203	84.3887	90.8203	86.4105	90.8203	84.5673	90.8203	85.926	90.8203	84.8059	90.8203	85.4871	90.8203	85.1117
95.2148	85.8157	95.2148	85.4759	95.2148	86.1778	95.2148	85.1672	95.2148	86.5519	95.2148	84.8965	95.2148	86.9264	95.2148	84.6681	95.2148	87.2881	95.2148	84.4837	95.2148	87.6217	95.2148	84.3426	95.2148	87.9089	95.2148	84.2418	95.2148	88.129	95.2148	84.1771	95.2148	88.2611	95.2148	84.1436	95.2148	88.2871	95.2148	84.1365	95.2148	88.195	95.2148	84.1522	95.2148	87.9819	95.2148	84.1883	95.2148	87.6554	95.2148	84.2448	95.2148	87.2364	95.2148	84.3246	95.2148	86.7583	95.2148	84.4334	95.2148	86.2632	95.2148	84.5809	95.2148	85.7934	95.2148	84.7796	95.2148	85.3813	95.2148	85.0431
98.1445	86.0691	98.1445	85.7369	98.1445	86.4237	98.1445	85.4346	98.1445	86.7907	98.1445	85.167	98.1445	87.1576	98.1445	84.9361	98.1445	87.5097	98.1445	84.7416	98.1445	87.8298	98.1445	84.5813	98.1445	88.0978	98.1445	84.4517	98.1445	88.2918	98.1445	84.3488	98.1445	88.3899	98.1445	84.2688	98.1445	88.374	98.1445	84.2089	98.1445	88.2331	98.1445	84.1674	98.1445	87.9663	98.1445	84.1447	98.1445	87.5848	98.1445	84.144	98.1445	87.1131	98.1445	84.1711	98.1445	86.5881	98.1445	84.2353	98.1445	86.0545	98.1445	84.3488	98.1445	85.5559	98.1445	84.5263	98.1445	85.126	98.1445	84.7822
101.074	86.233	101.074	85.8875	101.074	86.5962	101.074	85.5678	101.074	86.9669	101.074	85.2795	101.074	87.3326	101.074	85.0255	101.074	87.6786	101.074	84.8062	101.074	87.9871	101.074	84.6198	101.074	88.2373	101.074	84.4629	101.074	88.4059	101.074	84.3315	101.074	88.4699	101.074	84.2217	101.074	88.4109	101.074	84.1304	101.074	88.2196	101.074	84.0563	101.074	87.8984	101.074	84.0006	101.074	87.4629	101.074	83.9672	101.074	86.9418	101.074	83.9632	101.074	86.375	101.074	83.9993	101.074	85.8086	101.074	84.0894	101.074	85.2869	101.074	84.2501	101.074	84.844	101.074	84.498
105.469	86.1146	105.469	85.7658	105.469	86.4831	105.469	85.445	105.469	86.8611	105.469	85.1579	105.469	87.2363	105.469	84.9082	105.469	87.5942	105.469	84.6969	105.469	87.9182	105.469	84.5234	105.469	88.1892	105.469	84.3853	105.469	88.3863	105.469	84.2796	105.469	88.4891	105.469	84.2032	105.469	88.4809	105.469	84.1536	105.469	88.3517	105.469	84.1301	105.469	88.1013	105.469	84.1334	105.469	87.7408	105.469	84.1663	105.469	87.2942	105.469	84.2335	105.469	86.796	105.469	84.3417	105.469	86.286	105.469	84.5	105.469	85.8012	105.469	84.7186	105.469	85.3694	105.469	85.007
108.398	86.4849	108.398	86.1342	108.398	86.8475	108.398	85.8045	108.398	87.211	108.398	85.503	108.398	87.5628	108.398	85.2346	108.398	87.889	108.398	85.0019	108.398	88.1741	108.398	84.8054	108.398	88.4013	108.398	84.644	108.398	88.5527	108.398	84.5157	108.398	88.6117	108.398	84.4177	108.398	88.5647	108.398	84.3475	108.398	88.4039	108.398	84.3036	108.398	88.1288	108.398	84.286	108.398	87.7491	108.398	84.2966	108.398	87.287	108.398	84.3397	108.398	86.7774	108.398	84.4225	108.398	86.2619	108.398	84.5551	108.398	85.7796	108.398	84.7489	108.398	85.3591	108.398	85.0148
112.793	86.811	112.793	86.467	112.793	87.1607	112.793	86.137	112.793	87.5061	112.793	85.8279	112.793	87.8359	112.793	85.5446	112.793	88.1375	112.793	85.2906	112.793	88.397	112.793	85.0673	112.793	88.5985	112.793	84.8752	112.793	88.7253	112.793	84.7135	112.793	88.761	112.793	84.581	112.793	88.6923	112.793	84.4764	112.793	88.5105	112.793	84.3991	112.793	88.2138	112.793	84.3499	112.793	87.8103	112.793	84.3317	112.793	87.3217	112.793	84.3498	112.793	86.7848	112.793	84.4121	112.793	86.2449	112.793	84.5287	112.793	85.7449	112.793	84.7111	112.793	85.3155	112.793	84.9707
117.188	86.5777	117.188	86.248	117.188	86.9144	117.188	85.9308	117.188	87.2514	117.188	85.6309	117.188	87.5801	117.188	85.3521	117.188	87.8902	117.188	85.0977	117.188	88.1687	117.188	84.8699	117.188	88.4007	117.188	84.6705	117.188	88.5697	117.188	84.5006	117.188	88.6591	117.188	84.3608	117.188	88.6531	117.188	84.2523	117.188	88.5381	117.188	84.1766	117.188	88.3051	117.188	84.1367	117.188	87.9541	117.188	84.137	117.188	87.5004	117.188	84.1842	117.188	86.9762	117.188	84.2861	117.188	86.4256	117.188	84.4521	117.188	85.8933	117.188	84.6915	117.188	85.4149	117.188	85.0117
120.117	86.6393	120.117	86.3276	120.117	86.9613	120.117	86.0301	120.117	87.2865	120.117	85.7483	120.117	87.6041	120.117	85.4827	120.117	87.9003	120.117	85.2337	120.117	88.1593	120.117	85.0023	120.117	88.3654	120.117	84.7903	120.117	88.5042	120.117	84.6009	120.117	88.5645	120.117	84.4378	120.117	88.5376	120.117	84.3054	120.117	88.4162	120.117	84.2087	120.117	88.1926	120.117	84.1529	120.117	87.8632	120.117	84.1439	120.117	87.437	120.117	84.1882	120.117	86.9407	120.117	84.2929	120.117	86.4147	120.117	84.4653	120.117	85.9016	120.117	84.7114	120.117	85.4348	120.117	85.035
124.512	86.8348	124.512	86.4822	124.512	87.2036	124.512	86.1559	124.512	87.5731	124.512	85.8605	124.512	87.9242	124.512	85.5962	124.512	88.236	124.512	85.3599	124.512	88.4878	124.512	85.1475	124.512	88.6613	124.512	84.9557	124.512	88.7424	124.512	84.7825	124.512	88.7237	124.512	84.6289	124.512	88.6066	124.512	84.498	124.512	88.3983	124.512	84.3956	124.512	88.1074	124.512	84.3291	124.512	87.7419	124.512	84.3071	124.512	87.313	124.512	84.3383	124.512	86.8415	124.512	84.4302	124.512	86.3576	124.512	84.5883	124.512	85.893	124.512	84.8151	124.512	85.4725	124.512	85.1108
128.906	86.8246	128.906	86.4295	128.906	87.2268	128.906	86.0574	128.906	87.6168	128.906	85.7202	128.906	87.9746	128.906	85.4242	128.906	88.2807	128.906	85.171	128.906	88.5173	128.906	84.9584	128.906	88.6688	128.906	84.7826	128.906	88.7228	128.906	84.6393	128.906	88.6721	128.906	84.5253	128.906	88.5159	128.906	84.4392	128.906	88.2598	128.906	84.3814	128.906	87.9134	128.906	84.3539	128.906	87.4905	128.906	84.3596	128.906	87.0134	128.906	84.4016	128.906	86.5168	128.906	84.4824	128.906	86.0411	128.906	84.6045	128.906	85.6201	128.906	84.7715	128.906	85.2699	128.906	84.9901
133.301	86.9176	133.301	86.5204	133.301	87.3162	133.301	86.1414	133.301	87.698	133.301	85.7944	133.301	88.0452	133.301	85.4886	133.301	88.3414	133.301	85.2281	133.301	88.5721	133.301	85.0121	133.301	88.7251	133.301	84.8366	133.301	88.7902	133.301	84.6965	133.301	88.7608	133.301	84.5873	133.301	88.6343	133.301	84.5068	133.301	88.4112	133.301	84.4548	133.301	88.0938	133.301	84.433	133.301	87.6879	133.301	84.4432	133.301	87.2102	133.301	84.4873	133.301	86.6945	133.301	84.567	133.301	86.188	133.301	84.6855	133.301	85.7348	133.301	84.8491	133.301	85.3608	133.301	85.0693
139.16	86.8155	139.16	86.4344	139.16	87.1916	139.16	86.0636	139.16	87.5468	139.16	85.7168	139.16	87.8666	139.16	85.404	139.16	88.1388	139.16	85.1313	139.16	88.3537	139.16	84.9005	139.16	88.5038	139.16	84.7099	139.16	88.583	139.16	84.5555	139.16	88.587	139.16	84.4327	139.16	88.5119	139.16	84.3381	139.16	88.3525	139.16	84.2704	139.16	88.1	139.16	84.2305	139.16	87.7468	139.16	84.2222	139.16	87.2983	139.16	84.2512	139.16	86.7817	139.16	84.3257	139.16	86.2432	139.16	84.4558	139.16	85.7328	139.16	84.6527	139.16	85.2883	139.16	84.9277
143.555	86.9165	143.555	86.4866	143.555	87.3377	143.555	86.067	143.555	87.7315	143.555	85.6748	143.555	88.0797	143.555	85.3237	143.555	88.3655	143.555	85.0228	143.555	88.574	143.555	84.7754	143.555	88.6929	143.555	84.5793	143.555	88.7149	143.555	84.4289	143.555	88.6409	143.555	84.3173	143.555	88.4812	143.555	84.2384	143.555	88.2499	143.555	84.1887	143.555	87.955	143.555	84.1677	143.555	87.5949	143.555	84.1781	143.555	87.1686	143.555	84.2255	143.555	86.6906	143.555	84.3172	143.555	86.1933	143.555	84.4616	143.555	85.7169	143.555	84.6678	143.555	85.2945	143.555	84.9437
147.949	87.1918	147.949	86.7376	147.949	87.6303	147.949	86.2887	147.949	88.031	147.949	85.8634	147.949	88.3729	147.949	85.476	147.949	88.6374	147.949	85.1355	147.949	88.8091	147.949	84.8459	147.949	88.8767	147.949	84.6061	147.949	88.8335	147.949	84.4122	147.949	88.6802	147.949	84.2583	147.949	88.4264	147.949	84.1393	147.949	88.088	147.949	84.0515	147.949	87.6805	147.949	83.9937	147.949	87.2157	147.949	83.9679	147.949	86.7086	147.949	83.9785	147.949	86.1853	147.949	84.0325	147.949	85.6809	147.949	84.1381	147.949	85.2274	147.949	84.3036	147.949	84.844	147.949	84.5369
153.809	87.1491	153.809	86.6801	153.809	87.5833	153.809	86.1993	153.809	87.9624	153.809	85.7306	153.809	88.2701	153.809	85.2963	153.809	88.4943	153.809	84.9138	153.809	88.6255	153.809	84.5939	153.809	88.6558	153.809	84.3389	153.809	88.5791	153.809	84.1439	153.809	88.3932	153.809	83.9989	153.809	88.1039	153.809	83.8924	153.809	87.7242	153.809	83.8151	153.809	87.2704	153.809	83.7613	153.809	86.7614	153.809	83.7312	153.809	86.2232	153.809	83.7297	153.809	85.6912	153.809	83.7653	153.809	85.2025	153.809	83.8472	153.809	84.7833	153.809	83.9828	153.809	84.4431	153.809	84.179
159.668	87.174	159.668	86.7124	159.668	87.5898	159.668	86.2254	159.668	87.9455	159.668	85.7387	159.668	88.2326	159.668	85.2791	159.668	88.4469	159.668	84.8713	159.668	88.5851	159.668	84.5337	159.668	88.6433	159.668	84.2761	159.668	88.6172	159.668	84.099	159.668	88.5047	159.668	83.9939	159.668	88.3069	159.668	83.9471	159.668	88.0246	159.668	83.9428	159.668	87.6537	159.668	83.9671	159.668	87.1897	159.668	84.01	159.668	86.6451	159.668	84.0665	159.668	86.064	159.668	84.1362	159.668	85.515	159.668	84.223	159.668	85.0599	159.668	84.336	159.668	84.724	159.668	84.4933
165.527	87.0575	165.527	86.6703	165.527	87.4014	165.527	86.246	165.527	87.7008	165.527	85.7967	165.527	87.9547	165.527	85.3399	165.527	88.1588	165.527	84.8956	165.527	88.3037	165.527	84.4836	165.527	88.3787	165.527	84.1215	165.527	88.3776	165.527	83.8226	165.527	88.3043	165.527	83.5947	165.527	88.169	165.527	83.4393	165.527	87.9758	165.527	83.3529	165.527	87.7103	165.527	83.3293	165.527	87.3465	165.527	83.3614	165.527	86.8713	165.527	83.4424	165.527	86.3043	165.527	83.5667	165.527	85.6977	165.527	83.7333	165.527	85.1189	165.527	83.9504	165.527	84.6245	165.527	84.2387
171.387	86.7534	171.387	86.3582	171.387	87.1485	171.387	85.9678	171.387	87.5322	171.387	85.5871	171.387	87.8831	171.387	85.2213	171.387	88.1708	171.387	84.8746	171.387	88.3654	171.387	84.5476	171.387	88.4472	171.387	84.2386	171.387	88.4145	171.387	83.9469	171.387	88.2866	171.387	83.676	171.387	88.099	171.387	83.4344	171.387	87.885	171.387	83.235	171.387	87.6499	171.387	83.0929	171.387	87.3674	171.387	83.0238	171.387	87.005	171.387	83.0427	171.387	86.5501	171.387	83.164	171.387	86.0133	171.387	83.4012	171.387	85.4205	171.387	83.7629	171.387	84.8127	171.387	84.2434
177.246	86.915	177.246	86.4156	177.246	87.3863	177.246	85.8982	177.246	87.8123	177.246	85.3738	177.246	88.1677	177.246	84.8619	177.246	88.4249	177.246	84.3912	177.246	88.5619	177.246	83.9924	177.246	88.5684	177.246	83.688	177.246	88.4482	177.246	83.4843	177.246	88.2219	177.246	83.3719	177.246	87.9268	177.246	83.3308	177.246	87.6041	177.246	83.3396	177.246	87.2732	177.246	83.3811	177.246	86.9205	177.246	83.4465	177.246	86.5242	177.246	83.5373	177.246	86.0847	177.246	83.664	177.246	85.6272	177.246	83.8421	177.246	85.1805	177.246	84.0846	177.246	84.7648	177.246	84.3949
183.105	86.717	183.105	86.211	183.105	87.2115	183.105	85.7195	183.105	87.6559	183.105	85.2506	183.105	88.0118	183.105	84.7995	183.105	88.2515	183.105	84.3588	183.105	88.3635	183.105	83.9284	183.105	88.3518	183.105	83.517	183.105	88.2324	183.105	83.1401	183.105	88.0295	183.105	82.8143	183.105	87.7694	183.105	82.5531	183.105	87.4699	183.105	82.3656	183.105	87.1327	183.105	82.2593	183.105	86.7535	183.105	82.2442	183.105	86.3397	183.105	82.3347	183.105	85.9065	183.105	82.5473	183.105	85.4554	183.105	82.8902	183.105	84.9707	183.105	83.35	183.105	84.4417	183.105	83.8859
188.965	86.9369	188.965	86.3445	188.965	87.4478	188.965	85.7086	188.965	87.8489	188.965	85.0702	188.965	88.1243	188.965	84.4647	188.965	88.2679	188.965	83.9174	188.965	88.2813	188.965	83.4414	188.965	88.173	188.965	83.0398	188.965	87.9616	188.965	82.7075	188.965	87.6782	188.965	82.4357	188.965	87.3562	188.965	82.2165	188.965	87.0065	188.965	82.049	188.965	86.6046	188.965	81.9416	188.965	86.1209	188.965	81.9113	188.965	85.5701	188.965	81.9782	188.965	85.0154	188.965	82.1566	188.965	84.5154	188.965	82.4444	188.965	84.0747	188.965	82.8173	188.965	83.6567	188.965	83.2342
196.289	87.0028	196.289	86.4012	196.289	87.5486	196.289	85.7746	196.289	88.0111	196.289	85.1529	196.289	88.366	196.289	84.559	196.289	88.5928	196.289	84.0054	196.289	88.6774	196.289	83.4968	196.289	88.6175	196.289	83.0389	196.289	88.429	196.289	82.6455	196.289	88.1492	196.289	82.3375	196.289	87.8261	196.289	82.1354	196.289	87.4838	196.289	82.049	196.289	87.0932	196.289	82.0723	196.289	86.596	196.289	82.1867	196.289	85.9712	196.289	82.3666	196.289	85.2724	196.289	82.5858	196.289	84.6027	196.289	82.8227	196.289	84.0496	196.289	83.0663	196.289	83.6358	196.289	83.3256
203.613	86.9314	203.613	86.2484	203.613	87.5605	203.613	85.5498	203.613	88.0903	203.613	84.8613	203.613	88.4765	203.613	84.1969	203.613	88.6845	203.613	83.5666	203.613	88.6972	203.613	82.9843	203.613	88.5202	203.613	82.4729	203.613	88.1891	203.613	82.0592	203.613	87.7739	203.613	81.7633	203.613	87.3679	203.613	81.5892	203.613	87.0382	203.613	81.5239	203.613	86.7704	203.613	81.5447	203.613	86.4877	203.613	81.6308	203.613	86.1263	203.613	81.7744	203.613	85.6701	203.613	81.987	203.613	85.1312	203.613	82.2958	203.613	84.5287	203.613	82.7251	203.613	83.8923	203.613	83.2712
210.938	87.2154	210.938	86.4747	210.938	87.845	210.938	85.671	210.938	88.3279	210.938	84.8603	210.938	88.6404	210.938	84.096	210.938	88.7693	210.938	83.4132	210.938	88.7094	210.938	82.8208	210.938	88.4631	210.938	82.3104	210.938	88.0457	210.938	81.8751	210.938	87.504	210.938	81.5221	210.938	86.9344	210.938	81.2714	210.938	86.4507	210.938	81.1436	210.938	86.0863	210.938	81.1493	210.938	85.7582	210.938	81.288	210.938	85.3694	210.938	81.5514	210.938	84.9075	210.938	81.9206	210.938	84.4329	210.938	82.3584	210.938	84.0039	210.938	82.8118	210.938	83.6201	210.938	83.2351
218.262	86.9743	218.262	86.3005	218.262	87.5367	218.262	85.5442	218.262	87.9729	218.262	84.7477	218.262	88.2772	218.262	83.959	218.262	88.445	218.262	83.221	218.262	88.4705	218.262	82.5639	218.262	88.3488	218.262	82.0029	218.262	88.0822	218.262	81.5413	218.262	87.6893	218.262	81.1782	218.262	87.2125	218.262	80.9166	218.262	86.714	218.262	80.7686	218.262	86.2434	218.262	80.7549	218.262	85.803	218.262	80.8945	218.262	85.3579	218.262	81.1884	218.262	84.8863	218.262	81.6072	218.262	84.4057	218.262	82.0967	218.262	83.9467	218.262	82.5976	218.262	83.5113	218.262	83.0705
225.586	87.538	225.586	86.8003	225.586	88.1454	225.586	85.9655	225.586	88.595	225.586	85.078	225.586	88.862	225.586	84.1921	225.586	88.9278	225.586	83.3612	225.586	88.7874	225.586	82.6247	225.586	88.4579	225.586	82.0047	225.586	87.9864	225.586	81.5177	225.586	87.4515	225.586	81.187	225.586	86.9497	225.586	81.0401	225.586	86.5527	225.586	81.0927	225.586	86.2623	225.586	81.3315	225.586	86.0154	225.586	81.7077	225.586	85.7271	225.586	82.1474	225.586	85.3328	225.586	82.5738	225.586	84.8284	225.586	82.9342	225.586	84.2907	225.586	83.2228	225.586	83.8299	225.586	83.4918
232.91	87.7841	232.91	87.0776	232.91	88.3217	232.91	86.2222	232.91	88.6747	232.91	85.2518	232.91	88.8283	232.91	84.2269	232.91	88.7726	232.91	83.24	232.91	88.51	232.91	82.3943	232.91	88.0662	232.91	81.7556	232.91	87.5009	232.91	81.3203	232.91	86.9142	232.91	81.0393	232.91	86.4191	232.91	80.87	232.91	86.0661	232.91	80.8048	232.91	85.8028	232.91	80.8602	232.91	85.5502	232.91	81.0461	232.91	85.2839	232.91	81.3413	232.91	85.0011	232.91	81.7013	232.91	84.6567	232.91	82.0935	232.91	84.1947	232.91	82.529	232.91	83.627	232.91	83.0434
241.699	87.6488	241.699	87.0018	241.699	88.1997	241.699	86.296	241.699	88.6094	241.699	85.5497	241.699	88.8358	241.699	84.7614	241.699	88.8458	241.699	83.9233	241.699	88.6176	241.699	83.0434	241.699	88.1458	241.699	82.1649	241.699	87.4551	241.699	81.3715	241.699	86.6384	241.699	80.7647	241.699	85.903	241.699	80.4137	241.699	85.4955	241.699	80.3159	241.699	85.4378	241.699	80.4117	241.699	85.4883	241.699	80.6341	241.699	85.4396	241.699	80.9459	241.699	85.2453	241.699	81.3437	241.699	84.9166	241.699	81.8424	241.699	84.4447	241.699	82.4497	241.699	83.8329	241.699	83.1377
250.488	87.5714	250.488	86.7141	250.488	88.2957	250.488	85.7783	250.488	88.8322	250.488	84.8105	250.488	89.1351	250.488	83.8448	250.488	89.1746	250.488	82.9057	250.488	88.9398	250.488	82.0167	250.488	88.4363	250.488	81.2051	250.488	87.6845	250.488	80.4992	250.488	86.739	250.488	79.9249	250.488	85.7495	250.488	79.5084	250.488	84.9981	250.488	79.2803	250.488	84.7167	250.488	79.2662	250.488	84.8002	250.488	79.4676	250.488	84.9234	250.488	79.8539	250.488	84.8598	250.488	80.3816	250.488	84.5544	250.488	81.0218	250.488	84.0363	250.488	81.7601	250.488	83.3507	250.488	82.562
259.277	88.5314	259.277	87.674	259.277	89.1731	259.277	86.6424	259.277	89.5758	259.277	85.4922	259.277	89.7351	259.277	84.2863	259.277	89.6583	259.277	83.0888	259.277	89.35	259.277	81.9624	259.277	88.8007	259.277	80.9731	259.277	87.9892	259.277	80.1923	259.277	86.9158	259.277	79.6813	259.277	85.6822	259.277	79.4596	259.277	84.5756	259.277	79.491	259.277	83.936	259.277	79.7086	259.277	83.7936	259.277	80.0581	259.277	83.9016	259.277	80.5228	259.277	84.0495	259.277	81.1109	259.277	84.1204	259.277	81.8121	259.277	84.0378	259.277	82.5599	259.277	83.7492	259.277	83.2406
268.066	88.1036	268.066	87.499	268.066	88.5768	268.066	86.7609	268.066	88.9318	268.066	85.9136	268.066	89.1629	268.066	84.9983	268.066	89.2333	268.066	84.048	268.066	89.0934	268.066	83.0736	268.066	88.7068	268.066	82.0791	268.066	88.0505	268.066	81.1036	268.066	87.0941	268.066	80.2609	268.066	85.8192	268.066	79.719	268.066	84.3739	268.066	79.5779	268.066	83.3009	268.066	79.7693	268.066	83.134	268.066	80.1342	268.066	83.4994	268.066	80.5574	268.066	83.7246	268.066	80.996	268.066	83.5908	268.066	81.4379	268.066	83.2057	268.066	81.8724	268.066	82.7445	268.066	82.3004
276.855	87.5523	276.855	86.9011	276.855	88.184	276.855	86.2523	276.855	88.7087	276.855	85.5657	276.855	89.028	276.855	84.796	276.855	89.0857	276.855	83.939	276.855	88.8825	276.855	83.0292	276.855	88.4545	276.855	82.104	276.855	87.8286	276.855	81.1779	276.855	86.9893	276.855	80.2666	276.855	85.8909	276.855	79.45	276.855	84.5195	276.855	78.9015	276.855	83.0264	276.855	78.7984	276.855	81.9731	276.855	79.1586	276.855	81.9916	276.855	79.8213	276.855	82.67	276.855	80.5909	276.855	83.1961	276.855	81.339	276.855	83.2938	276.855	82.0101	276.855	83.0432	276.855	82.5871
287.109	88.4008	287.109	87.8111	287.109	88.7367	287.109	87.0536	287.109	88.7949	287.109	86.2457	287.109	88.6185	287.109	85.4762	287.109	88.303	287.109	84.7514	287.109	87.9582	287.109	84.0034	287.109	87.6474	287.109	83.1481	287.109	87.335	287.109	82.1372	287.109	86.8855	287.109	80.9867	287.109	86.127	287.109	79.7974	287.109	84.9561	287.109	78.7738	287.109	83.4568	287.109	78.1996	287.109	81.9501	287.109	78.2883	287.109	80.8674	287.109	78.9855	287.109	80.5692	287.109	80.0011	287.109	81.053	287.109	81.0209	287.109	81.7868	287.109	81.8208	287.109	82.2527	287.109	82.2604
297.363	88.0829	297.363	87.7292	297.363	88.3016	297.363	87.1962	297.363	88.4184	297.363	86.4505	297.363	88.4366	297.363	85.4971	297.363	88.3243	297.363	84.3994	297.363	88.0396	297.363	83.2741	297.363	87.5756	297.363	82.2439	297.363	86.9832	297.363	81.367	297.363	86.3246	297.363	80.6128	297.363	85.5742	297.363	79.9128	297.363	84.5922	297.363	79.2512	297.363	83.3024	297.363	78.7431	297.363	82.0121	297.363	78.6032	297.363	81.3152	297.363	78.9149	297.363	81.1263	297.363	79.4649	297.363	80.812	297.363	79.9264	297.363	80.2667	297.363	80.0918	297.363	79.9272	297.363	79.9854
307.617	87.9973	307.617	87.3782	307.617	88.4322	307.617	86.6398	307.617	88.647	307.617	85.8622	307.617	88.6191	307.617	85.095	307.617	88.3353	307.617	84.3336	307.617	87.8163	307.617	83.5477	307.617	87.1366	307.617	82.7192	307.617	86.4099	307.617	81.8506	307.617	85.744	307.617	80.9466	307.617	85.1827	307.617	80.0005	307.617	84.6379	307.617	79.0053	307.617	83.8722	307.617	77.9942	307.617	82.6897	307.617	77.0954	307.617	81.4356	307.617	76.5592	307.617	81.087	307.617	76.6288	307.617	81.4995	307.617	77.2976	307.617	81.5459	307.617	78.3642	307.617	80.8395	307.617	79.6385
319.336	87.1133	319.336	86.2743	319.336	87.7851	319.336	85.4122	319.336	88.157	319.336	84.6341	319.336	88.1577	319.336	83.978	319.336	87.8041	319.336	83.4078	319.336	87.1911	319.336	82.8493	319.336	86.4602	319.336	82.2436	319.336	85.7737	319.336	81.5718	319.336	85.2758	319.336	80.8465	319.336	84.9745	319.336	80.0872	319.336	84.6517	319.336	79.3029	319.336	84.041	319.336	78.501	319.336	83.1168	319.336	77.7312	319.336	82.123	319.336	77.1505	319.336	81.3069	319.336	77.0112	319.336	80.7709	319.336	77.4681	319.336	80.4469	319.336	78.3694	319.336	80.0497	319.336	79.3384
329.59	86.9585	329.59	86.0741	329.59	87.6004	329.59	85.075	329.59	87.9411	329.59	84.0872	329.59	88.0068	329.59	83.1714	329.59	87.8622	329.59	82.328	329.59	87.5481	329.59	81.5415	329.59	87.0716	329.59	80.812	329.59	86.4496	329.59	80.1608	329.59	85.7487	329.59	79.6167	329.59	85.0582	329.59	79.1921	329.59	84.3693	329.59	78.8712	329.59	83.5447	329.59	78.6236	329.59	82.5892	329.59	78.4359	329.59	81.8219	329.59	78.3376	329.59	81.3976	329.59	78.397	329.59	81.0416	329.59	78.6663	329.59	80.5836	329.59	79.1039	329.59	80.0889	329.59	79.5988
341.309	87.5453	341.309	86.5382	341.309	88.254	341.309	85.3088	341.309	88.629	341.309	83.9833	341.309	88.642	341.309	82.7289	341.309	88.2536	341.309	81.7175	341.309	87.4537	341.309	81.021	341.309	86.3382	341.309	80.5358	341.309	85.158	341.309	80.0742	341.309	84.2494	341.309	79.5158	341.309	83.772	341.309	78.8716	341.309	83.5055	341.309	78.2691	341.309	83.0894	341.309	77.8915	341.309	82.4495	341.309	77.9017	341.309	82.0211	341.309	78.3765	341.309	82.2766	341.309	79.2519	341.309	82.8334	341.309	80.3187	341.309	83.0461	341.309	81.3326	341.309	82.7688	341.309	82.1609
353.027	87.6062	353.027	86.714	353.027	88.197	353.027	85.5308	353.027	88.489	353.027	84.1494	353.027	88.4392	353.027	82.7574	353.027	87.9791	353.027	81.5707	353.027	87.0957	353.027	80.7171	353.027	85.8916	353.027	80.178	353.027	84.5768	353.027	79.8419	353.027	83.412	353.027	79.5854	353.027	82.6189	353.027	79.3186	353.027	82.1371	353.027	79.0046	353.027	81.5826	353.027	78.6845	353.027	80.7774	353.027	78.4997	353.027	80.081	353.027	78.6399	353.027	79.9879	353.027	79.1835	353.027	80.5582	353.027	80.0138	353.027	81.3402	353.027	80.9042	353.027	81.7607	353.027	81.5779
366.211	86.8529	366.211	85.9581	366.211	87.4012	366.211	84.8246	366.211	87.5134	366.211	83.5911	366.211	87.1395	366.211	82.4159	366.211	86.313	366.211	81.4088	366.211	85.1765	366.211	80.6007	366.211	83.9565	366.211	79.9855	366.211	82.8967	366.211	79.5237	366.211	82.206	366.211	79.1167	366.211	81.9841	366.211	78.6529	366.211	82.0377	366.211	78.105	366.211	81.9471	366.211	77.598	366.211	81.5004	366.211	77.37	366.211	80.8689	366.211	77.5772	366.211	80.3333	366.211	78.1242	366.211	80.0348	366.211	78.767	366.211	79.9468	366.211	79.3185	366.211	79.8894	366.211	79.6981
379.395	87.5012	379.395	86.318	379.395	88.173	379.395	84.7745	379.395	88.2613	379.395	83.0989	379.395	87.7708	379.395	81.5414	379.395	86.7821	379.395	80.2612	379.395	85.4327	379.395	79.2883	379.395	83.893	379.395	78.5915	379.395	82.3983	379.395	78.123	379.395	81.3465	379.395	77.8349	379.395	81.0776	379.395	77.7177	379.395	81.225	379.395	77.8017	379.395	81.1571	379.395	78.0796	379.395	80.9232	379.395	78.4457	379.395	80.9317	379.395	78.7578	379.395	81.062	379.395	78.9537	379.395	80.9618	379.395	79.0719	379.395	80.5251	379.395	79.1869	379.395	79.9067	379.395	79.4208
392.578	86.8789	392.578	86.266	392.578	87.0372	392.578	85.1695	392.578	86.807	392.578	83.6102	392.578	86.2906	392.578	81.7176	392.578	85.5933	392.578	79.8282	392.578	84.7798	392.578	78.4362	392.578	83.9009	392.578	77.7437	392.578	83.0732	392.578	77.4511	392.578	82.4942	392.578	77.2326	392.578	82.2673	392.578	77.0228	392.578	82.125	392.578	76.9315	392.578	81.647	392.578	77.0674	392.578	80.9856	392.578	77.4118	392.578	80.9532	392.578	77.8442	392.578	81.4664	392.578	78.28	392.578	81.673	392.578	78.7589	392.578	81.374	392.578	79.3726	392.578	80.797	392.578	80.0964
405.762	86.2505	405.762	85.2521	405.762	86.9061	405.762	84.0418	405.762	87.1133	405.762	82.6789	405.762	86.8381	405.762	81.175	405.762	86.098	405.762	79.659	405.762	84.9479	405.762	78.4223	405.762	83.5059	405.762	77.641	405.762	82.0125	405.762	77.1766	405.762	80.8854	405.762	76.8315	405.762	80.4515	405.762	76.5624	405.762	80.3985	405.762	76.4127	405.762	80.2109	405.762	76.3985	405.762	80.1042	405.762	76.526	405.762	80.8431	405.762	76.8989	405.762	82.1061	405.762	77.6777	405.762	82.8177	405.762	78.8275	405.762	82.6196	405.762	80.0343	405.762	81.8801	405.762	81.03
420.41	86.9942	420.41	85.803	420.41	87.7105	420.41	84.1592	420.41	87.914	420.41	82.1327	420.41	87.5398	420.41	79.9346	420.41	86.5414	420.41	77.9517	420.41	84.9744	420.41	76.542	420.41	83.0863	420.41	75.8022	420.41	81.3567	420.41	75.6743	420.41	80.3425	420.41	75.9842	420.41	80.1698	420.41	76.4035	420.41	80.184	420.41	76.6334	420.41	79.5935	420.41	76.5596	420.41	78.1859	420.41	76.2509	420.41	77.0731	420.41	75.916	420.41	78.313	420.41	75.8943	420.41	80.2559	420.41	76.5288	420.41	81.0433	420.41	77.8011	420.41	80.5791	420.41	79.317
435.059	87.8725	435.059	86.6119	435.059	88.4765	435.059	84.8736	435.059	88.2694	435.059	82.7484	435.059	87.2276	435.059	80.3021	435.059	85.4899	435.059	77.8464	435.059	83.2911	435.059	75.9881	435.059	80.8624	435.059	74.9405	435.059	78.6711	435.059	74.3505	435.059	78.0672	435.059	74.0925	435.059	79.3538	435.059	74.2997	435.059	80.4515	435.059	74.9254	435.059	80.177	435.059	75.8245	435.059	78.416	435.059	76.9364	435.059	75.9748	435.059	78.1432	435.059	75.3179	435.059	79.16	435.059	76.638	435.059	79.649	435.059	77.7476	435.059	79.4629	435.059	78.3174	435.059	78.8623
451.172	87.7	451.172	86.6358	451.172	88.1757	451.172	85.093	451.172	88.1206	451.172	83.2862	451.172	87.6403	451.172	81.3481	451.172	86.6915	451.172	79.2346	451.172	85.1209	451.172	76.9313	451.172	82.907	451.172	74.8117	451.172	80.1775	451.172	73.513	451.172	77.0294	451.172	73.0132	451.172	75.1421	451.172	72.766	451.172	77.2279	451.172	72.5577	451.172	79.7647	451.172	72.5667	451.172	81.3794	451.172	73.1455	451.172	82.3067	451.172	74.4584	451.172	82.6778	451.172	76.4123	451.172	82.9583	451.172	78.86	451.172	83.5086	451.172	81.3115	451.172	83.761	451.172	83.07
465.82	87.3644	465.82	86.2428	465.82	87.6812	465.82	84.3253	465.82	87.3762	465.82	81.9655	465.82	86.6425	465.82	79.7374	465.82	85.5504	465.82	77.7398	465.82	84.0751	465.82	75.6082	465.82	82.1714	465.82	73.5119	465.82	79.8347	465.82	72.1978	465.82	77.4047	465.82	71.7177	465.82	76.1916	465.82	71.5015	465.82	76.6494	465.82	71.4153	465.82	77.1052	465.82	71.7711	465.82	78.0788	465.82	72.8179	465.82	80.2585	465.82	74.5292	465.82	81.7637	465.82	76.7441	465.82	82.2749	465.82	79.1432	465.82	82.7098	465.82	81.2602	465.82	83.0687	465.82	82.6513
483.398	87.9373	483.398	86.3462	483.398	88.7694	483.398	84.1128	483.398	88.8055	483.398	81.3196	483.398	88.0877	483.398	77.9925	483.398	86.6644	483.398	74.6527	483.398	84.5635	483.398	72.7531	483.398	81.9135	483.398	72.2332	483.398	79.0746	483.398	71.9012	483.398	76.6972	483.398	71.8198	483.398	76.2809	483.398	72.2837	483.398	77.4272	483.398	72.8597	483.398	77.6212	483.398	73.1416	483.398	77.1016	483.398	73.3739	483.398	78.6634	483.398	74.2168	483.398	80.9152	483.398	75.9773	483.398	81.7083	483.398	78.0969	483.398	81.2851	483.398	79.7538	483.398	80.8006	483.398	80.5508
499.512	86.9734	499.512	86.0284	499.512	87.4243	499.512	84.3846	499.512	87.4617	499.512	81.8981	499.512	86.9452	499.512	78.6148	499.512	85.6544	499.512	74.9688	499.512	83.4847	499.512	72.0028	499.512	80.5777	499.512	70.4725	499.512	77.4131	499.512	69.7178	499.512	74.7225	499.512	69.0048	499.512	73.2893	499.512	68.1937	499.512	73.28	499.512	67.4252	499.512	73.9163	499.512	67.1749	499.512	75.2887	499.512	68.4461	499.512	77.6833	499.512	71.4892	499.512	80.3739	499.512	74.9703	499.512	82.0803	499.512	77.772	499.512	82.3168	499.512	79.581	499.512	81.5719	499.512	80.6562
517.09	87.071	517.09	85.4932	517.09	87.94	517.09	83.1714	517.09	88.0126	517.09	79.982	517.09	87.1456	517.09	75.9698	517.09	85.2178	517.09	72.2671	517.09	82.2106	517.09	70.6583	517.09	78.4527	517.09	69.8498	517.09	74.9758	517.09	68.5782	517.09	72.837	517.09	67.2395	517.09	73.0086	517.09	66.471	517.09	74.9562	517.09	66.113	517.09	76.1591	517.09	66.8809	517.09	76.1303	517.09	69.0921	517.09	77.0407	517.09	71.5288	517.09	80.2997	517.09	74.0389	517.09	82.8387	517.09	76.5403	517.09	83.6398	517.09	78.8581	517.09	82.8922	517.09	81.0763
536.133	87.8176	536.133	86.0137	536.133	88.507	536.133	83.1374	536.133	88.1681	536.133	79.4555	536.133	87.0122	536.133	75.2898	536.133	85.2484	536.133	70.3079	536.133	82.7204	536.133	65.9907	536.133	78.9763	536.133	67.8926	536.133	74.0954	536.133	69.8055	536.133	69.2538	536.133	70.0111	536.133	68.3836	536.133	69.0699	536.133	72.5607	536.133	67.7346	536.133	74.9488	536.133	67.2103	536.133	76.8228	536.133	68.0794	536.133	78.5349	536.133	69.8764	536.133	79.2911	536.133	72.4016	536.133	80.212	536.133	75.4611	536.133	81.9088	536.133	78.7477	536.133	82.6087	536.133	81.4462
555.176	86.9377	555.176	85.1612	555.176	87.7956	555.176	82.5197	555.176	87.7149	555.176	78.8179	555.176	86.7632	555.176	73.4279	555.176	84.9013	555.176	65.077	555.176	81.9269	555.176	61.1374	555.176	77.9666	555.176	65.6469	555.176	74.3545	555.176	67.0781	555.176	71.7132	555.176	66.4957	555.176	70.0631	555.176	64.541	555.176	69.8369	555.176	61.814	555.176	67.8755	555.176	59.1553	555.176	72.8003	555.176	58.5263	555.176	77.7718	555.176	61.9729	555.176	80.0329	555.176	68.5636	555.176	80.8306	555.176	74.5489	555.176	81.2466	555.176	78.7191	555.176	81.6053	555.176	81.0037
574.219	87.3328	574.219	85.5782	574.219	88.2759	574.219	82.6454	574.219	88.3866	574.219	77.967	574.219	87.3897	574.219	70.5308	574.219	84.9183	574.219	53.0418	574.219	80.3533	574.219	62.8893	574.219	72.9414	574.219	67.3763	574.219	68.4566	574.219	68.6613	574.219	66.8989	574.219	68.6485	574.219	64.8538	574.219	68.0248	574.219	68.6312	574.219	67.0315	574.219	67.1274	574.219	65.5958	574.219	68.5892	574.219	62.639	574.219	74.9366	574.219	61.803	574.219	79.1885	574.219	70.7913	574.219	81.4424	574.219	77.1068	574.219	81.7993	574.219	80.7042	574.219	81.72	574.219	81.916
594.727	87.0455	594.727	85.2463	594.727	87.9896	594.727	82.3421	594.727	87.8914	594.727	77.4666	594.727	86.4079	594.727	68.3578	594.727	83.1096	594.727	57.994	594.727	77.4771	594.727	65.7227	594.727	69.9135	594.727	66.8213	594.727	67.2122	594.727	66.9824	594.727	65.1616	594.727	67.0129	594.727	63.7061	594.727	66.6673	594.727	68.7503	594.727	65.7273	594.727	70.9437	594.727	63.1394	594.727	72.6106	594.727	57.169	594.727	72.3886	594.727	60.9433	594.727	76.1406	594.727	68.3075	594.727	79.8406	594.727	73.8189	594.727	80.9927	594.727	77.3477	594.727	80.7364	594.727	79.5064
615.234	87.881	615.234	85.5022	615.234	88.8392	615.234	81.5245	615.234	88.5408	615.234	75.9458	615.234	87.0158	615.234	68.7828	615.234	84.1803	615.234	59.239	615.234	79.5769	615.234	65.7343	615.234	73.6629	615.234	70.0638	615.234	74.2542	615.234	71.061	615.234	74.2125	615.234	70.7252	615.234	69.1015	615.234	70.8987	615.234	56.4967	615.234	71.0223	615.234	64.9014	615.234	69.2889	615.234	72.3689	615.234	64.5087	615.234	76.7201	615.234	65.3148	615.234	78.5142	615.234	71.7524	615.234	79.3437	615.234	75.2353	615.234	79.5712	615.234	76.5171	615.234	78.4389	615.234	77.0147
637.207	88.0015	637.207	85.714	637.207	88.8902	637.207	82.1259	637.207	88.3829	637.207	77.2986	637.207	86.4046	637.207	70.4664	637.207	82.6354	637.207	64.9917	637.207	76.0014	637.207	68.8925	637.207	66.6186	637.207	71.2983	637.207	73.1821	637.207	72.7949	637.207	75.0687	637.207	73.2148	637.207	74.4723	637.207	72.3671	637.207	72.8093	637.207	71.1789	637.207	67.4458	637.207	70.4352	637.207	61.7197	637.207	68.274	637.207	74.0814	637.207	60.6758	637.207	77.1787	637.207	58.9512	637.207	78.833	637.207	69.8411	637.207	81.5024	637.207	76.2655	637.207	82.4034	637.207	80.6006
659.18	86.641	659.18	83.96	659.18	87.8816	659.18	79.7094	659.18	87.8062	659.18	73.3285	659.18	86.2698	659.18	59.6647	659.18	82.6786	659.18	66.6577	659.18	75.5614	659.18	70.9268	659.18	72.6966	659.18	70.9663	659.18	77.1994	659.18	69.4728	659.18	77.205	659.18	70.8507	659.18	73.7095	659.18	73.1389	659.18	70.9403	659.18	73.7542	659.18	69.9793	659.18	73.4742	659.18	64.8805	659.18	73.4263	659.18	71.4237	659.18	72.8168	659.18	76.635	659.18	68.6608	659.18	79.6243	659.18	60.5675	659.18	79.9661	659.18	74.3094	659.18	78.7593	659.18	77.7296
682.617	87.3021	682.617	84.3811	682.617	89.0167	682.617	79.7837	682.617	88.9478	682.617	70.8828	682.617	86.8529	682.617	69.1318	682.617	82.5885	682.617	71.5355	682.617	73.7617	682.617	73.1331	682.617	72.1311	682.617	74.2753	682.617	76.2491	682.617	72.4399	682.617	74.5944	682.617	69.847	682.617	72.4883	682.617	71.8151	682.617	75.4684	682.617	73.4268	682.617	75.1738	682.617	73.6475	682.617	68.0769	682.617	73.802	682.617	71.1342	682.617	73.4694	682.617	75.9094	682.617	70.6302	682.617	80.0459	682.617	72.4997	682.617	81.5821	682.617	79.0357	682.617	81.3713	682.617	81.2939
707.52	86.903	707.52	83.6956	707.52	88.6375	707.52	79.3934	707.52	88.57	707.52	75.399	707.52	86.3314	707.52	75.4957	707.52	80.9442	707.52	76.2421	707.52	67.4263	707.52	75.2874	707.52	72.4507	707.52	74.4145	707.52	75.7483	707.52	74.7232	707.52	75.2226	707.52	73.7128	707.52	74.9028	707.52	71.4005	707.52	74.6069	707.52	72.9926	707.52	73.1747	707.52	74.3211	707.52	72.7446	707.52	71.7898	707.52	64.6192	707.52	66.5739	707.52	74.7499	707.52	69.7288	707.52	79.3291	707.52	72.3885	707.52	80.5565	707.52	75.617	707.52	80.105	707.52	78.6165
732.422	87.8055	732.422	85.6159	732.422	88.4088	732.422	81.5811	732.422	87.4214	732.422	75.8631	732.422	84.7522	732.422	74.0689	732.422	79.1731	732.422	75.4931	732.422	64.464	732.422	76.4799	732.422	74.1343	732.422	77.2376	732.422	77.6335	732.422	76.8988	732.422	77.937	732.422	75.1398	732.422	77.2349	732.422	71.9809	732.422	75.6886	732.422	70.3878	732.422	73.4486	732.422	72.6491	732.422	71.999	732.422	73.7961	732.422	65.8619	732.422	73.1315	732.422	73.9806	732.422	69.2825	732.422	77.2838	732.422	71.3131	732.422	79.818	732.422	76.0041	732.422	79.7923	732.422	77.5174
757.324	87.9926	757.324	85.7553	757.324	88.5849	757.324	81.0079	757.324	88.1716	757.324	75.4052	757.324	85.7127	757.324	74.3738	757.324	79.6056	757.324	75.8115	757.324	72.017	757.324	75.9033	757.324	77.7309	757.324	74.0823	757.324	79.6706	757.324	74.3207	757.324	77.8351	757.324	77.5863	757.324	75.7316	757.324	77.6872	757.324	76.732	757.324	74.2895	757.324	72.9236	757.324	73.512	757.324	51.2909	757.324	75.7101	757.324	61.0331	757.324	74.045	757.324	76.3686	757.324	65.9653	757.324	80.0841	757.324	71.8786	757.324	79.6159	757.324	77.0175	757.324	80.1105	757.324	79.6946
785.156	87.0946	785.156	84.7692	785.156	88.1691	785.156	81.9198	785.156	87.2193	785.156	79.2889	785.156	83.3968	785.156	77.5332	785.156	73.5292	785.156	77.1556	785.156	77.209	785.156	79.0619	785.156	81.5172	785.156	80.5728	785.156	80.6436	785.156	78.7338	785.156	75.9319	785.156	74.7436	785.156	76.5524	785.156	76.6866	785.156	79.7192	785.156	77.699	785.156	78.1453	785.156	75.4592	785.156	74.2609	785.156	71.7317	785.156	68.7032	785.156	72.0647	785.156	68.8996	785.156	70.3864	785.156	76.7971	785.156	69.4696	785.156	78.9841	785.156	77.0502	785.156	79.694	785.156	80.9223
811.523	87.8991	811.523	84.7512	811.523	88.5095	811.523	79.4014	811.523	87.0035	811.523	76.9177	811.523	83.5302	811.523	80.0119	811.523	76.1961	811.523	80.4629	811.523	75.8755	811.523	78.7943	811.523	80.6761	811.523	79.3958	811.523	81.1022	811.523	79.8127	811.523	79.034	811.523	78.5517	811.523	76.6892	811.523	73.6919	811.523	77.5467	811.523	69.6988	811.523	79.4937	811.523	73.1573	811.523	78.6614	811.523	72.456	811.523	71.3878	811.523	72.2293	811.523	65.9663	811.523	73.716	811.523	72.7303	811.523	73.4257	811.523	77.7767	811.523	74.9167	811.523	78.2008	811.523	76.8573
840.82	86.8628	840.82	85.327	840.82	87.1001	840.82	81.8983	840.82	85.9016	840.82	78.8545	840.82	81.7781	840.82	78.7532	840.82	76.2682	840.82	79.79	840.82	81.1035	840.82	79.3989	840.82	83.1632	840.82	77.1643	840.82	81.8499	840.82	76.7371	840.82	78.7112	840.82	77.7017	840.82	77.9321	840.82	77.7263	840.82	77.5496	840.82	76.9433	840.82	76.221	840.82	75.325	840.82	77.9305	840.82	73.5981	840.82	74.9455	840.82	73.6126	840.82	69.1417	840.82	73.0787	840.82	73.6223	840.82	72.2645	840.82	75.3243	840.82	74.312	840.82	78.2343	840.82	76.2632
870.117	87.3465	870.117	85.0548	870.117	88.5298	870.117	82.0838	870.117	86.9309	870.117	80.7747	870.117	81.281	870.117	80.4015	870.117	76.0132	870.117	80.2336	870.117	82.0969	870.117	79.6601	870.117	84.1618	870.117	77.2558	870.117	83.4192	870.117	74.8812	870.117	80.6505	870.117	76.7297	870.117	77.3876	870.117	77.5351	870.117	81.4504	870.117	76.4495	870.117	81.951	870.117	76.5331	870.117	78.6735	870.117	78.4474	870.117	77.8576	870.117	78.543	870.117	75.1862	870.117	73.8642	870.117	76.4468	870.117	65.904	870.117	77.0724	870.117	73.0054	870.117	78.7741	870.117	78.8695
900.879	87.1542	900.879	84.4306	900.879	87.8923	900.879	82.8985	900.879	85.9573	900.879	82.5955	900.879	82.9914	900.879	81.6346	900.879	78.4328	900.879	79.3257	900.879	78.4684	900.879	79.4025	900.879	80.8061	900.879	79.4467	900.879	81.5125	900.879	77.7832	900.879	78.9017	900.879	73.6529	900.879	76.1428	900.879	66.0921	900.879	76.5869	900.879	74.5039	900.879	78.005	900.879	77.1428	900.879	77.9056	900.879	73.9917	900.879	70.1943	900.879	68.3717	900.879	62.3653	900.879	72.3234	900.879	73.2064	900.879	76.4194	900.879	77.6736	900.879	77.9186	900.879	76.9086	900.879	78.0007
933.105	88.7461	933.105	85.7161	933.105	87.5789	933.105	80.3741	933.105	85.43	933.105	80.5671	933.105	79.3541	933.105	82.7588	933.105	78.8302	933.105	81.6661	933.105	84.2607	933.105	78.8954	933.105	85.8606	933.105	77.8522	933.105	81.9512	933.105	79.1705	933.105	73.2132	933.105	78.9737	933.105	70.9793	933.105	74.6797	933.105	74.0451	933.105	70.8997	933.105	78.4174	933.105	76.234	933.105	75.2869	933.105	77.9613	933.105	71.2465	933.105	76.6192	933.105	69.5114	933.105	75.9501	933.105	69.805	933.105	77.2512	933.105	75.2017	933.105	79.6541	933.105	77.9116	933.105	76.1476
965.332	87.9585	965.332	86.775	965.332	88.0347	965.332	83.8839	965.332	85.7328	965.332	80.38	965.332	80.1158	965.332	80.0773	965.332	77.4455	965.332	81.1148	965.332	83.1098	965.332	79.8548	965.332	84.3976	965.332	77.1873	965.332	82.7545	965.332	76.3368	965.332	80.9455	965.332	77.0565	965.332	77.7113	965.332	77.4997	965.332	79.1446	965.332	72.8888	965.332	76.8415	965.332	67.4247	965.332	76.53	965.332	72.9147	965.332	74.7396	965.332	78.2913	965.332	53.3045	965.332	77.2201	965.332	75.3843	965.332	76.1823	965.332	78.5196	965.332	73.761	965.332	81.5308	965.332	79.6787
1,000.49	86.9204	1,000.49	84.4597	1,000.49	87.7361	1,000.49	82.8093	1,000.49	86.5802	1,000.49	83.69	1,000.49	83.2507	1,000.49	82.5156	1,000.49	81.4588	1,000.49	79.0275	1,000.49	82.5075	1,000.49	76.6708	1,000.49	81.463	1,000.49	76.6293	1,000.49	79.6498	1,000.49	75.9077	1,000.49	80.0809	1,000.49	76.3924	1,000.49	80.9532	1,000.49	80.3	1,000.49	74.4072	1,000.49	77.9547	1,000.49	57.9326	1,000.49	67.3691	1,000.49	69.2949	1,000.49	75.5259	1,000.49	66.9158	1,000.49	81.1618	1,000.49	70.6276	1,000.49	73.6159	1,000.49	74.9434	1,000.49	58.9614	1,000.49	78.5365	1,000.49	76.9904	1,000.49	79.3184	1,000.49	81.7496
1,035.64	87.2542	1,035.64	86.914	1,035.64	85.7685	1,035.64	84.1857	1,035.64	84.1591	1,035.64	82.2024	1,035.64	81.8503	1,035.64	82.496	1,035.64	79.8532	1,035.64	82.5628	1,035.64	82.0889	1,035.64	81.1742	1,035.64	85.207	1,035.64	77.7849	1,035.64	84.1829	1,035.64	74.8209	1,035.64	73.8223	1,035.64	68.9235	1,035.64	74.8394	1,035.64	60.7785	1,035.64	81.568	1,035.64	54.2385	1,035.64	81.8038	1,035.64	73.7112	1,035.64	76.4395	1,035.64	73.815	1,035.64	68.8607	1,035.64	73.5359	1,035.64	74.2573	1,035.64	73.9748	1,035.64	62.1847	1,035.64	77.4982	1,035.64	78.0093	1,035.64	78.5226	1,035.64	77.1734	1,035.64	78.7018
1,072.27	88.6284	1,072.27	86.2354	1,072.27	87.4141	1,072.27	84.8671	1,072.27	83.2216	1,072.27	84.9867	1,072.27	81.7746	1,072.27	83.442	1,072.27	84.6505	1,072.27	80.9765	1,072.27	86.5085	1,072.27	79.8499	1,072.27	86.3415	1,072.27	79.8165	1,072.27	84.0855	1,072.27	79.2448	1,072.27	82.6441	1,072.27	76.0076	1,072.27	76.9922	1,072.27	76.5998	1,072.27	81.6774	1,072.27	79.0673	1,072.27	83.181	1,072.27	76.7739	1,072.27	75.483	1,072.27	68.81	1,072.27	68.554	1,072.27	75.7241	1,072.27	75.5674	1,072.27	79.0316	1,072.27	75.8882	1,072.27	72.4853	1,072.27	79.8546	1,072.27	75.1347	1,072.27	80.8274	1,072.27	77.19
1,108.89	88.4755	1,108.89	87.1155	1,108.89	88.785	1,108.89	84.7438	1,108.89	86.3162	1,108.89	83.8548	1,108.89	83.8492	1,108.89	83.3371	1,108.89	85.0479	1,108.89	80.8729	1,108.89	85.976	1,108.89	77.5993	1,108.89	83.4859	1,108.89	78.0087	1,108.89	82.4897	1,108.89	81.1976	1,108.89	83.694	1,108.89	77.4234	1,108.89	78.6318	1,108.89	54.8348	1,108.89	75.4747	1,108.89	70.9617	1,108.89	81.8594	1,108.89	74.1547	1,108.89	82.3413	1,108.89	70.2061	1,108.89	78.6894	1,108.89	75.1019	1,108.89	77.7098	1,108.89	73.0097	1,108.89	78.9748	1,108.89	49.7429	1,108.89	80.5042	1,108.89	73.959	1,108.89	81.1897	1,108.89	81.2523
1,148.44	86.5994	1,148.44	85.8113	1,148.44	87.5069	1,148.44	84.879	1,148.44	86.3477	1,148.44	83.8521	1,148.44	84.9375	1,148.44	82.366	1,148.44	85.7375	1,148.44	81.1407	1,148.44	86.0819	1,148.44	81.3572	1,148.44	85.6494	1,148.44	80.6545	1,148.44	84.6253	1,148.44	72.5416	1,148.44	80.504	1,148.44	70.3598	1,148.44	75.5317	1,148.44	78.5266	1,148.44	73.629	1,148.44	75.9662	1,148.44	78.2293	1,148.44	75.097	1,148.44	78.1783	1,148.44	76.3587	1,148.44	71.5579	1,148.44	62.2048	1,148.44	61.9862	1,148.44	74.5328	1,148.44	69.9104	1,148.44	79.2785	1,148.44	77.4955	1,148.44	74.9727	1,148.44	75.348	1,148.44	75.4907
1,189.45	87.5174	1,189.45	86.5727	1,189.45	86.6594	1,189.45	83.3832	1,189.45	84.8187	1,189.45	83.2864	1,189.45	83.1841	1,189.45	84.1401	1,189.45	85.4944	1,189.45	82.8614	1,189.45	85.3097	1,189.45	79.8668	1,189.45	82.6648	1,189.45	76.1822	1,189.45	80.3588	1,189.45	77.7294	1,189.45	78.9136	1,189.45	75.5564	1,189.45	73.3761	1,189.45	57.5436	1,189.45	72.9453	1,189.45	74.0485	1,189.45	76.4704	1,189.45	75.3367	1,189.45	79.3259	1,189.45	74.2435	1,189.45	80.4688	1,189.45	77.7033	1,189.45	78.7626	1,189.45	77.816	1,189.45	75.0923	1,189.45	72.5519	1,189.45	73.2504	1,189.45	66.0328	1,189.45	74.9973	1,189.45	75.9258
1,230.47	87.572	1,230.47	86.2478	1,230.47	86.2837	1,230.47	83.8003	1,230.47	83.9703	1,230.47	83.4774	1,230.47	82.3519	1,230.47	82.729	1,230.47	85.2494	1,230.47	80.939	1,230.47	86.2696	1,230.47	79.7216	1,230.47	84.5241	1,230.47	76.8185	1,230.47	81.144	1,230.47	76.7042	1,230.47	79.9236	1,230.47	76.6231	1,230.47	78.3036	1,230.47	72.2213	1,230.47	71.7517	1,230.47	71.8498	1,230.47	79.1355	1,230.47	74.7267	1,230.47	74.2599	1,230.47	75.0541	1,230.47	59.2165	1,230.47	73.6685	1,230.47	60.0369	1,230.47	69.1643	1,230.47	70.6586	1,230.47	70.5467	1,230.47	78.2016	1,230.47	76.579	1,230.47	75.3984	1,230.47	75.788
1,274.41	88.4978	1,274.41	85.2032	1,274.41	86.8557	1,274.41	82.4725	1,274.41	82.6142	1,274.41	82.4478	1,274.41	82.44	1,274.41	82.2065	1,274.41	85.375	1,274.41	79.5697	1,274.41	85.5061	1,274.41	76.0928	1,274.41	83.3684	1,274.41	79.2801	1,274.41	83.3557	1,274.41	73.9795	1,274.41	80.4173	1,274.41	69.097	1,274.41	77.3148	1,274.41	76.7871	1,274.41	76.6123	1,274.41	67.7761	1,274.41	71.8463	1,274.41	71.5597	1,274.41	76.761	1,274.41	75.1272	1,274.41	78.5874	1,274.41	71.7829	1,274.41	78.1784	1,274.41	75.3083	1,274.41	69.5366	1,274.41	71.9134	1,274.41	72.7981	1,274.41	73.0205	1,274.41	74.949	1,274.41	74.0237
1,319.82	87.9433	1,319.82	86.2201	1,319.82	87.7505	1,319.82	84.222	1,319.82	85.1475	1,319.82	82.4364	1,319.82	83.1794	1,319.82	82.5134	1,319.82	84.1478	1,319.82	82.562	1,319.82	83.5485	1,319.82	80.363	1,319.82	81.5301	1,319.82	74.8559	1,319.82	81.8334	1,319.82	76.2977	1,319.82	80.3465	1,319.82	76.5587	1,319.82	72.0378	1,319.82	72.351	1,319.82	77.2703	1,319.82	77.1133	1,319.82	75.7522	1,319.82	74.2853	1,319.82	70.7475	1,319.82	64.6323	1,319.82	65.0551	1,319.82	74.2118	1,319.82	57.0331	1,319.82	73.9359	1,319.82	69.5598	1,319.82	66.9981	1,319.82	74.438	1,319.82	71.3458	1,319.82	76.1954	1,319.82	74.8227
1,366.7	87.7962	1,366.7	86.2284	1,366.7	88.057	1,366.7	85.3645	1,366.7	85.4479	1,366.7	82.5677	1,366.7	85.9815	1,366.7	81.7401	1,366.7	87.3179	1,366.7	80.8514	1,366.7	85.7054	1,366.7	76.9759	1,366.7	83.8606	1,366.7	78.1113	1,366.7	80.5442	1,366.7	73.7711	1,366.7	79.7141	1,366.7	66.6337	1,366.7	79.9491	1,366.7	70.7608	1,366.7	72.4507	1,366.7	69.1717	1,366.7	72.7226	1,366.7	74.3324	1,366.7	74.7109	1,366.7	72.0855	1,366.7	75.4934	1,366.7	71.107	1,366.7	75.1096	1,366.7	69.8496	1,366.7	73.3311	1,366.7	62.6182	1,366.7	72.5475	1,366.7	73.1756	1,366.7	72.7682	1,366.7	74.9945
1,413.57	87.4969	1,413.57	85.5799	1,413.57	87.9272	1,413.57	84.6325	1,413.57	84.5972	1,413.57	83.446	1,413.57	85.344	1,413.57	83.0709	1,413.57	85.5596	1,413.57	80.447	1,413.57	82.8366	1,413.57	75.8239	1,413.57	82.6785	1,413.57	75.7254	1,413.57	84.8989	1,413.57	76.5393	1,413.57	81.7541	1,413.57	77.7331	1,413.57	73.9151	1,413.57	57.0069	1,413.57	75.8737	1,413.57	64.771	1,413.57	68.0286	1,413.57	67.1884	1,413.57	73.255	1,413.57	74.8397	1,413.57	65.7487	1,413.57	74.27	1,413.57	69.5132	1,413.57	66.8925	1,413.57	69.8743	1,413.57	72.0767	1,413.57	73.3373	1,413.57	67.7894	1,413.57	76.244	1,413.57	69.2953
1,463.38	86.0171	1,463.38	83.2676	1,463.38	87.4728	1,463.38	83.9568	1,463.38	86.2028	1,463.38	82.9477	1,463.38	86.3864	1,463.38	81.931	1,463.38	86.2074	1,463.38	79.7797	1,463.38	83.81	1,463.38	80.4531	1,463.38	82.2994	1,463.38	78.9545	1,463.38	78.2381	1,463.38	74.3797	1,463.38	74.6841	1,463.38	71.3604	1,463.38	78.2449	1,463.38	79.5859	1,463.38	65.665	1,463.38	79.0725	1,463.38	73.9687	1,463.38	77.1345	1,463.38	72.5674	1,463.38	74.0936	1,463.38	76.2726	1,463.38	72.3556	1,463.38	77.4208	1,463.38	76.6962	1,463.38	71.2949	1,463.38	71.6537	1,463.38	73.5904	1,463.38	63.9478	1,463.38	74.5507	1,463.38	75.3964
1,516.11	85.97	1,516.11	83.7894	1,516.11	87.0108	1,516.11	83.1781	1,516.11	84.9239	1,516.11	82.9179	1,516.11	86.2169	1,516.11	82.1518	1,516.11	86.6575	1,516.11	80.1187	1,516.11	82.5947	1,516.11	80.4901	1,516.11	78.2882	1,516.11	76.1298	1,516.11	81.0444	1,516.11	72.703	1,516.11	79.4826	1,516.11	73.1151	1,516.11	74.2037	1,516.11	66.8141	1,516.11	77.5429	1,516.11	69.6903	1,516.11	66.2476	1,516.11	73.5557	1,516.11	73.0649	1,516.11	75.1335	1,516.11	76.3397	1,516.11	76.4931	1,516.11	73.5277	1,516.11	71.9786	1,516.11	70.0218	1,516.11	72.1545	1,516.11	68.8006	1,516.11	72.0908	1,516.11	70.8747	1,516.11	63.1518
1,568.85	85.7849	1,568.85	82.4363	1,568.85	86.1228	1,568.85	82.8365	1,568.85	84.0218	1,568.85	81.9672	1,568.85	84.9634	1,568.85	79.6471	1,568.85	84.9827	1,568.85	79.4672	1,568.85	81.1429	1,568.85	77.3503	1,568.85	80.7591	1,568.85	75.572	1,568.85	79.4402	1,568.85	79.1976	1,568.85	74.771	1,568.85	70.6441	1,568.85	69.4825	1,568.85	68.9437	1,568.85	74.4902	1,568.85	65.1631	1,568.85	76.5449	1,568.85	60.3198	1,568.85	65.6834	1,568.85	66.0516	1,568.85	69.3934	1,568.85	58.9486	1,568.85	73.1616	1,568.85	69.8378	1,568.85	74.8256	1,568.85	72.8318	1,568.85	65.2382	1,568.85	68.7016	1,568.85	68.1503	1,568.85	76.6205
1,624.51	86.1167	1,624.51	82.056	1,624.51	85.0657	1,624.51	79.8464	1,624.51	84.1921	1,624.51	81.1261	1,624.51	85.2786	1,624.51	79.4702	1,624.51	82.4908	1,624.51	79.3126	1,624.51	79.864	1,624.51	78.1169	1,624.51	80.3535	1,624.51	78.217	1,624.51	73.8741	1,624.51	70.9089	1,624.51	71.0438	1,624.51	76.4288	1,624.51	73.2712	1,624.51	76.5926	1,624.51	78.0068	1,624.51	72.0135	1,624.51	61.6807	1,624.51	68.6214	1,624.51	72.7844	1,624.51	50.7828	1,624.51	74.2439	1,624.51	71.923	1,624.51	72.3428	1,624.51	75.1458	1,624.51	65.5846	1,624.51	69.2382	1,624.51	67.0473	1,624.51	60.6912	1,624.51	65.8015	1,624.51	58.8626
1,681.64	87.3804	1,681.64	81.5645	1,681.64	85.7465	1,681.64	77.7045	1,681.64	84.8978	1,681.64	77.7236	1,681.64	85.9639	1,681.64	79.324	1,681.64	85.1286	1,681.64	79.5016	1,681.64	82.3037	1,681.64	75.9906	1,681.64	75.6617	1,681.64	77.9052	1,681.64	73.7828	1,681.64	77.9365	1,681.64	59.8058	1,681.64	73.7408	1,681.64	60.2055	1,681.64	72.6383	1,681.64	78.444	1,681.64	69.6068	1,681.64	74.3272	1,681.64	67.6307	1,681.64	69.6034	1,681.64	69.2535	1,681.64	71.5689	1,681.64	65.2594	1,681.64	70.068	1,681.64	71.2038	1,681.64	68.4811	1,681.64	66.818	1,681.64	70.9968	1,681.64	69.3608	1,681.64	63.8679	1,681.64	76.3308
1,741.7	86.4724	1,741.7	82.8771	1,741.7	87.1493	1,741.7	78.261	1,741.7	87.1408	1,741.7	76.2559	1,741.7	85.4918	1,741.7	77.1062	1,741.7	83.53	1,741.7	77.2362	1,741.7	79.88	1,741.7	79.2751	1,741.7	77.8304	1,741.7	76.401	1,741.7	67.0892	1,741.7	76.2284	1,741.7	76.1839	1,741.7	77.2083	1,741.7	75.5911	1,741.7	76.8361	1,741.7	81.4587	1,741.7	73.4983	1,741.7	68.3036	1,741.7	68.0864	1,741.7	68.7194	1,741.7	62.3981	1,741.7	69.7685	1,741.7	69.3834	1,741.7	70.9106	1,741.7	50.3983	1,741.7	61.8491	1,741.7	68.0332	1,741.7	72.4064	1,741.7	72.763	1,741.7	75.2894	1,741.7	46.4756
1,803.22	85.3347	1,803.22	80.693	1,803.22	86.846	1,803.22	75.1426	1,803.22	87.1181	1,803.22	73.825	1,803.22	85.6381	1,803.22	75.8177	1,803.22	79.761	1,803.22	77.8045	1,803.22	77.5609	1,803.22	79.2512	1,803.22	70.9526	1,803.22	80.3105	1,803.22	78.1188	1,803.22	79.1535	1,803.22	73.9273	1,803.22	75.6007	1,803.22	53.6994	1,803.22	75.3803	1,803.22	74.7643	1,803.22	77.2148	1,803.22	72.9077	1,803.22	60.7496	1,803.22	70.6932	1,803.22	73.6739	1,803.22	73.6588	1,803.22	73.0442	1,803.22	61.4967	1,803.22	71.9464	1,803.22	75.9687	1,803.22	67.7521	1,803.22	65.2423	1,803.22	74.8903	1,803.22	69.0306	1,803.22	69.1375
1,866.21	85.5468	1,866.21	83.5481	1,866.21	85.8926	1,866.21	76.9437	1,866.21	86.3646	1,866.21	74.3992	1,866.21	85.159	1,866.21	75.4745	1,866.21	76.3281	1,866.21	77.7703	1,866.21	81.2184	1,866.21	78.29	1,866.21	73.8249	1,866.21	79.7489	1,866.21	77.2349	1,866.21	77.8982	1,866.21	72.852	1,866.21	77.2127	1,866.21	72.4805	1,866.21	75.0071	1,866.21	80.0617	1,866.21	72.1091	1,866.21	70.629	1,866.21	74.5479	1,866.21	69.678	1,866.21	74.4769	1,866.21	68.3838	1,866.21	64.728	1,866.21	76.2416	1,866.21	79.347	1,866.21	70.7996	1,866.21	78.3891	1,866.21	69.1933	1,866.21	69.697	1,866.21	73.7574	1,866.21	68.2475
1,932.13	86.6254	1,932.13	81.4089	1,932.13	85.2056	1,932.13	75.8873	1,932.13	81.9495	1,932.13	72.189	1,932.13	83.5504	1,932.13	77.2517	1,932.13	81.8875	1,932.13	82.5146	1,932.13	64.8696	1,932.13	85.1929	1,932.13	64.7544	1,932.13	80.3644	1,932.13	74.5968	1,932.13	67.6157	1,932.13	78.9699	1,932.13	75.7771	1,932.13	63.4728	1,932.13	73.5335	1,932.13	79.5291	1,932.13	66.52	1,932.13	69.6483	1,932.13	65.9333	1,932.13	68.1532	1,932.13	71.3445	1,932.13	72.4911	1,932.13	71.5205	1,932.13	62.452	1,932.13	68.5235	1,932.13	70.9701	1,932.13	68.0809	1,932.13	72.0003	1,932.13	67.9502	1,932.13	69.2444	1,932.13	73.6653
1,999.51	86.0733	1,999.51	80.7373	1,999.51	87.2341	1,999.51	56.0959	1,999.51	86.7924	1,999.51	78.3893	1,999.51	85.3161	1,999.51	83.1082	1,999.51	83.0511	1,999.51	84.1338	1,999.51	75.0645	1,999.51	82.1079	1,999.51	70.5819	1,999.51	80.8833	1,999.51	71.4767	1,999.51	82.4348	1,999.51	72.5927	1,999.51	77.8925	1,999.51	76.7243	1,999.51	76.939	1,999.51	66.008	1,999.51	75.3516	1,999.51	66.7372	1,999.51	70.7457	1,999.51	61.4835	1,999.51	72.8278	1,999.51	57.963	1,999.51	66.8462	1,999.51	69.9648	1,999.51	70.8625	1,999.51	70.8197	1,999.51	54.9952	1,999.51	69.5704	1,999.51	62.1874	1,999.51	53.3222	1,999.51	65.9082
2,069.82	84.7525	2,069.82	79.1459	2,069.82	85.2236	2,069.82	78.7287	2,069.82	85.1772	2,069.82	81.8226	2,069.82	84.591	2,069.82	82.7329	2,069.82	82.3367	2,069.82	81.8056	2,069.82	80.7402	2,069.82	82.4927	2,069.82	75.4443	2,069.82	82.6468	2,069.82	72.7836	2,069.82	77.6696	2,069.82	62.1896	2,069.82	76.3394	2,069.82	67.2478	2,069.82	74.1365	2,069.82	69.6276	2,069.82	74.0022	2,069.82	63.8324	2,069.82	67.647	2,069.82	61.7991	2,069.82	72.5998	2,069.82	68.0001	2,069.82	67.9865	2,069.82	70.5079	2,069.82	68.0091	2,069.82	70.1562	2,069.82	73.4064	2,069.82	66.972	2,069.82	71.5415	2,069.82	70.068	2,069.82	65.7607
2,143.07	85.6348	2,143.07	83.945	2,143.07	85.1628	2,143.07	82.1202	2,143.07	85.0449	2,143.07	82.0308	2,143.07	80.3224	2,143.07	82.4874	2,143.07	81.6353	2,143.07	82.7422	2,143.07	79.2694	2,143.07	81.9503	2,143.07	82.2787	2,143.07	78.2096	2,143.07	73.3664	2,143.07	76.6027	2,143.07	80.3653	2,143.07	74.8745	2,143.07	72.7665	2,143.07	68.8848	2,143.07	73.5384	2,143.07	63.9927	2,143.07	71.9445	2,143.07	65.8347	2,143.07	60.7748	2,143.07	69.2858	2,143.07	70.9242	2,143.07	67.184	2,143.07	63.7134	2,143.07	67.7525	2,143.07	71.2912	2,143.07	67.7094	2,143.07	66.1215	2,143.07	64.2091	2,143.07	45.0022	2,143.07	71.4726
2,219.24	85.5089	2,219.24	84.3199	2,219.24	84.9615	2,219.24	81.9811	2,219.24	85.2712	2,219.24	82.4449	2,219.24	82.1833	2,219.24	82.5541	2,219.24	79.2275	2,219.24	83.8832	2,219.24	82.1749	2,219.24	80.0182	2,219.24	79.584	2,219.24	79.4986	2,219.24	81.831	2,219.24	80.1796	2,219.24	76.0045	2,219.24	74.7299	2,219.24	73.9081	2,219.24	75.2032	2,219.24	75.9513	2,219.24	68.8168	2,219.24	68.4823	2,219.24	65.9447	2,219.24	69.4985	2,219.24	63.9052	2,219.24	63.0756	2,219.24	71.6069	2,219.24	71.9976	2,219.24	64.1297	2,219.24	67.0575	2,219.24	69.9345	2,219.24	67.4292	2,219.24	65.5259	2,219.24	51.9177	2,219.24	60.7435
2,296.88	85.3818	2,296.88	84.3733	2,296.88	84.2387	2,296.88	83.265	2,296.88	84.7374	2,296.88	83.4162	2,296.88	82.3404	2,296.88	82.8889	2,296.88	81.1855	2,296.88	82.63	2,296.88	82.6415	2,296.88	81.8039	2,296.88	83.8068	2,296.88	81.6735	2,296.88	81.0755	2,296.88	78.005	2,296.88	83.7691	2,296.88	75.7735	2,296.88	69.849	2,296.88	73.6026	2,296.88	68.4139	2,296.88	73.0105	2,296.88	71.508	2,296.88	69.935	2,296.88	65.0142	2,296.88	68.8947	2,296.88	70.2146	2,296.88	67.0384	2,296.88	60.9165	2,296.88	68.366	2,296.88	74.5704	2,296.88	60.3325	2,296.88	60.7728	2,296.88	71.7415	2,296.88	65.1029	2,296.88	69.6133
2,378.91	86.7094	2,378.91	85.2821	2,378.91	85.0362	2,378.91	84.0261	2,378.91	82.4355	2,378.91	83.5443	2,378.91	82.8942	2,378.91	83.2056	2,378.91	81.896	2,378.91	82.6368	2,378.91	84.3177	2,378.91	82.2925	2,378.91	82.4955	2,378.91	79.4946	2,378.91	85.685	2,378.91	73.7795	2,378.91	81.2132	2,378.91	77.7205	2,378.91	80.6614	2,378.91	66.1237	2,378.91	73.2859	2,378.91	68.7361	2,378.91	64.7456	2,378.91	70.6586	2,378.91	70.6767	2,378.91	69.2017	2,378.91	63.5692	2,378.91	63.4203	2,378.91	69.6941	2,378.91	68.6848	2,378.91	69.0824	2,378.91	66.9025	2,378.91	69.104	2,378.91	68.9935	2,378.91	60.5975	2,378.91	71.0396
2,462.4	88.8296	2,462.4	86.8701	2,462.4	86.8042	2,462.4	84.525	2,462.4	84.3629	2,462.4	85.7884	2,462.4	81.0384	2,462.4	84.4629	2,462.4	83.4956	2,462.4	83.5852	2,462.4	84.1365	2,462.4	82.4872	2,462.4	86.0154	2,462.4	79.8281	2,462.4	84.9114	2,462.4	83.2618	2,462.4	86.149	2,462.4	74.7542	2,462.4	72.2468	2,462.4	75.7799	2,462.4	73.381	2,462.4	67.3015	2,462.4	73.9847	2,462.4	61.1148	2,462.4	71.1299	2,462.4	60.1818	2,462.4	71.4844	2,462.4	67.0176	2,462.4	67.5339	2,462.4	61.1875	2,462.4	69.3665	2,462.4	74.0945	2,462.4	67.4207	2,462.4	62.0064	2,462.4	62.463	2,462.4	69.7196
2,548.83	88.5088	2,548.83	87.8268	2,548.83	87.4756	2,548.83	86.1805	2,548.83	85.7942	2,548.83	86.7463	2,548.83	80.9606	2,548.83	86.8514	2,548.83	83.169	2,548.83	84.9648	2,548.83	86.8503	2,548.83	81.0693	2,548.83	85.9097	2,548.83	82.124	2,548.83	85.2382	2,548.83	78.5399	2,548.83	84.8381	2,548.83	72.9573	2,548.83	82.2058	2,548.83	77.8422	2,548.83	69.9598	2,548.83	71.9477	2,548.83	67.8157	2,548.83	56.5886	2,548.83	74.1034	2,548.83	69.5387	2,548.83	66.5919	2,548.83	64.9634	2,548.83	72.1145	2,548.83	69.7519	2,548.83	69.1527	2,548.83	71.3602	2,548.83	70.8351	2,548.83	73.5542	2,548.83	63.6376	2,548.83	69.1014
2,639.65	87.2952	2,639.65	86.1287	2,639.65	86.4256	2,639.65	87.0325	2,639.65	86.2481	2,639.65	84.223	2,639.65	83.9847	2,639.65	85.0369	2,639.65	84.3537	2,639.65	83.3474	2,639.65	85.875	2,639.65	82.3543	2,639.65	86.9605	2,639.65	80.3715	2,639.65	85.9696	2,639.65	76.4173	2,639.65	83.6586	2,639.65	77.9287	2,639.65	74.3797	2,639.65	70.9759	2,639.65	74.6332	2,639.65	70.6392	2,639.65	72.8562	2,639.65	68.4025	2,639.65	73.1131	2,639.65	69.9521	2,639.65	71.7639	2,639.65	66.7017	2,639.65	62.3489	2,639.65	72.786	2,639.65	70.5589	2,639.65	61.5232	2,639.65	70.6834	2,639.65	71.7479	2,639.65	68.9391	2,639.65	70.1802
2,731.93	85.9042	2,731.93	86.2898	2,731.93	85.5996	2,731.93	85.7938	2,731.93	84.0669	2,731.93	86.7158	2,731.93	85.0882	2,731.93	86.1667	2,731.93	83.5254	2,731.93	86.4316	2,731.93	86.7096	2,731.93	83.4644	2,731.93	87.3087	2,731.93	79.3325	2,731.93	85.294	2,731.93	83.562	2,731.93	81.9259	2,731.93	77.0343	2,731.93	76.8391	2,731.93	76.6917	2,731.93	73.5947	2,731.93	73.8063	2,731.93	71.4633	2,731.93	66.2574	2,731.93	74.0568	2,731.93	69.0416	2,731.93	70.3793	2,731.93	58.5488	2,731.93	66.4453	2,731.93	67.0671	2,731.93	72.7492	2,731.93	66.9303	2,731.93	66.9412	2,731.93	71.0702	2,731.93	59.2377	2,731.93	69.7985
2,828.61	86.8552	2,828.61	86.1062	2,828.61	86.1412	2,828.61	85.8625	2,828.61	84.1597	2,828.61	85.727	2,828.61	85.7996	2,828.61	86.3851	2,828.61	84.5906	2,828.61	84.12	2,828.61	87.1329	2,828.61	82.2679	2,828.61	87.4557	2,828.61	83.9673	2,828.61	87.899	2,828.61	78.0171	2,828.61	80.1904	2,828.61	75.0299	2,828.61	79.0755	2,828.61	75.509	2,828.61	68.6	2,828.61	67.979	2,828.61	66.0082	2,828.61	69.1978	2,828.61	74.6814	2,828.61	62.0045	2,828.61	63.8561	2,828.61	68.8967	2,828.61	68.119	2,828.61	70.1394	2,828.61	70.531	2,828.61	72.4082	2,828.61	70.2779	2,828.61	63.6813	2,828.61	62.2882	2,828.61	69.7251
2,928.22	86.5957	2,928.22	88.3276	2,928.22	86.2622	2,928.22	86.4447	2,928.22	84.3126	2,928.22	86.3	2,928.22	85.1759	2,928.22	85.4808	2,928.22	86.3472	2,928.22	84.7898	2,928.22	86.3355	2,928.22	85.0536	2,928.22	87.3154	2,928.22	79.7256	2,928.22	87.3906	2,928.22	81.4841	2,928.22	82.8828	2,928.22	79.5314	2,928.22	70.3693	2,928.22	74.211	2,928.22	73.1026	2,928.22	73.7618	2,928.22	71.522	2,928.22	69.3884	2,928.22	68.2175	2,928.22	69.1485	2,928.22	68.2832	2,928.22	65.8292	2,928.22	70.5097	2,928.22	62.7609	2,928.22	71.8415	2,928.22	66.4035	2,928.22	69.5687	2,928.22	70.0683	2,928.22	58.9561	2,928.22	69.5339
3,030.76	86.8062	3,030.76	86.6	3,030.76	86.8136	3,030.76	87.1655	3,030.76	85.5169	3,030.76	87.0042	3,030.76	84.8524	3,030.76	86.8447	3,030.76	85.764	3,030.76	85.7803	3,030.76	87.1702	3,030.76	83.1008	3,030.76	86.8866	3,030.76	82.8555	3,030.76	85.4313	3,030.76	84.0951	3,030.76	85.6588	3,030.76	73.2613	3,030.76	73.0576	3,030.76	78.119	3,030.76	69.6822	3,030.76	69.329	3,030.76	72.3281	3,030.76	70.896	3,030.76	73.1234	3,030.76	71.0219	3,030.76	66.5893	3,030.76	69.2597	3,030.76	68.6966	3,030.76	68.9896	3,030.76	70.8402	3,030.76	59.7321	3,030.76	68.8727	3,030.76	68.9815	3,030.76	67.5444	3,030.76	69.169
3,137.7	86.9023	3,137.7	86.5603	3,137.7	86.2127	3,137.7	86.2885	3,137.7	86.2333	3,137.7	85.3333	3,137.7	85.4859	3,137.7	87.4154	3,137.7	86.4457	3,137.7	85.3702	3,137.7	88.2123	3,137.7	84.0492	3,137.7	85.7868	3,137.7	82.4249	3,137.7	84.779	3,137.7	75.4143	3,137.7	84.1405	3,137.7	78.7695	3,137.7	76.1029	3,137.7	58.3442	3,137.7	67.217	3,137.7	73.5695	3,137.7	73.7331	3,137.7	60.7225	3,137.7	70.7107	3,137.7	71.7261	3,137.7	67.5405	3,137.7	68.1046	3,137.7	66.217	3,137.7	64.8401	3,137.7	71.1884	3,137.7	70.2085	3,137.7	69.1384	3,137.7	70.2803	3,137.7	65.015	3,137.7	62.1108
3,249.02	85.9607	3,249.02	84.3604	3,249.02	84.9931	3,249.02	86.0636	3,249.02	86.3852	3,249.02	86.6529	3,249.02	85.8247	3,249.02	86.2564	3,249.02	85.923	3,249.02	85.8461	3,249.02	86.9448	3,249.02	85.0129	3,249.02	85.6451	3,249.02	78.8251	3,249.02	82.2014	3,249.02	83.1732	3,249.02	84.1315	3,249.02	78.8073	3,249.02	73.8761	3,249.02	72.4401	3,249.02	57.7693	3,249.02	71.2149	3,249.02	71.8975	3,249.02	66.2884	3,249.02	69.5438	3,249.02	71.443	3,249.02	69.1179	3,249.02	52.0235	3,249.02	69.8816	3,249.02	70.5019	3,249.02	72.0431	3,249.02	62.8007	3,249.02	68.2286	3,249.02	70.2546	3,249.02	68.4668	3,249.02	60.8308
3,363.28	85.8469	3,363.28	85.9406	3,363.28	86.3165	3,363.28	85.1792	3,363.28	86.1734	3,363.28	85.7408	3,363.28	86.1171	3,363.28	87.1868	3,363.28	86.0561	3,363.28	85.0965	3,363.28	85.7446	3,363.28	82.5624	3,363.28	85.6168	3,363.28	83.463	3,363.28	82.1785	3,363.28	79.4859	3,363.28	86.5481	3,363.28	75.8462	3,363.28	74.0321	3,363.28	69.8211	3,363.28	72.0088	3,363.28	72.6459	3,363.28	66.816	3,363.28	60.0433	3,363.28	70.894	3,363.28	72.9565	3,363.28	64.1029	3,363.28	65.8231	3,363.28	65.8611	3,363.28	65.6709	3,363.28	71.6663	3,363.28	70.2331	3,363.28	69.232	3,363.28	70.7932	3,363.28	65.1869	3,363.28	51.8876
3,481.93	86.7848	3,481.93	85.3439	3,481.93	86.2185	3,481.93	86.3115	3,481.93	87.0368	3,481.93	86.1453	3,481.93	85.9684	3,481.93	86.6298	3,481.93	86.4807	3,481.93	85.6363	3,481.93	85.53	3,481.93	84.7378	3,481.93	87.9159	3,481.93	78.2931	3,481.93	85.6309	3,481.93	81.777	3,481.93	87.0586	3,481.93	78.8455	3,481.93	70.9014	3,481.93	74.2461	3,481.93	74.9528	3,481.93	71.6649	3,481.93	69.603	3,481.93	63.3979	3,481.93	73.7834	3,481.93	70.9561	3,481.93	66.1901	3,481.93	57.3954	3,481.93	67.448	3,481.93	65.4864	3,481.93	71.1994	3,481.93	60.633	3,481.93	68.2545	3,481.93	66.5303	3,481.93	61.116	3,481.93	61.0592
3,604.98	86.1493	3,604.98	85.5928	3,604.98	85.8512	3,604.98	84.4694	3,604.98	86.4489	3,604.98	86.9965	3,604.98	86.0651	3,604.98	86.0038	3,604.98	85.1479	3,604.98	85.8931	3,604.98	85.3768	3,604.98	82.967	3,604.98	87.5974	3,604.98	81.8165	3,604.98	85.6865	3,604.98	80.1867	3,604.98	83.4339	3,604.98	69.5094	3,604.98	77.1996	3,604.98	67.8634	3,604.98	72.2188	3,604.98	60.4503	3,604.98	69.1159	3,604.98	64.1022	3,604.98	73.3457	3,604.98	67.2276	3,604.98	64.1187	3,604.98	59.2714	3,604.98	67.7458	3,604.98	61.665	3,604.98	70.3393	3,604.98	65.9772	3,604.98	67.6806	3,604.98	68.9274	3,604.98	60.505	3,604.98	55.9104
3,732.42	87.2795	3,732.42	85.8664	3,732.42	87.4396	3,732.42	85.4674	3,732.42	86.3539	3,732.42	85.7716	3,732.42	85.5994	3,732.42	87.2903	3,732.42	84.9597	3,732.42	84.2255	3,732.42	82.8407	3,732.42	84.598	3,732.42	86.9705	3,732.42	79.7748	3,732.42	86.8517	3,732.42	81.0185	3,732.42	81.6009	3,732.42	79.6877	3,732.42	79.7345	3,732.42	69.5289	3,732.42	67.3246	3,732.42	67.5573	3,732.42	67.0867	3,732.42	68.5821	3,732.42	70.4548	3,732.42	57.5697	3,732.42	70.5849	3,732.42	67.8457	3,732.42	69.1076	3,732.42	68.1444	3,732.42	69.1313	3,732.42	66.1665	3,732.42	68.3358	3,732.42	67.6236	3,732.42	64.7237	3,732.42	61.3188
3,864.26	86.8139	3,864.26	85.4049	3,864.26	86.9062	3,864.26	84.6604	3,864.26	87.897	3,864.26	86.325	3,864.26	85.7909	3,864.26	86.4141	3,864.26	84.0059	3,864.26	85.5788	3,864.26	83.147	3,864.26	83.0568	3,864.26	86.0214	3,864.26	82.8072	3,864.26	86.6886	3,864.26	79.7531	3,864.26	81.119	3,864.26	72.9925	3,864.26	83.3009	3,864.26	65.4849	3,864.26	72.2359	3,864.26	70.6888	3,864.26	66.1428	3,864.26	68.6363	3,864.26	72.5585	3,864.26	63.8132	3,864.26	68.4939	3,864.26	69.3651	3,864.26	62.1073	3,864.26	68.1102	3,864.26	70.3845	3,864.26	59.9946	3,864.26	69.9506	3,864.26	68.4117	3,864.26	57.7478	3,864.26	59.6937
4,000.49	86.6385	4,000.49	84.8117	4,000.49	86.4356	4,000.49	84.1409	4,000.49	86.3755	4,000.49	85.6913	4,000.49	86.5103	4,000.49	85.7842	4,000.49	83.1267	4,000.49	83.629	4,000.49	83.0756	4,000.49	83.1702	4,000.49	86.0875	4,000.49	78.2628	4,000.49	88.0695	4,000.49	79.9733	4,000.49	82.8897	4,000.49	78.3807	4,000.49	82.0942	4,000.49	64.8093	4,000.49	73.5589	4,000.49	72.4604	4,000.49	69.6555	4,000.49	70.1218	4,000.49	72.3844	4,000.49	72.766	4,000.49	64.6155	4,000.49	62.3148	4,000.49	64.3979	4,000.49	68.3154	4,000.49	70.1897	4,000.49	64.1034	4,000.49	66.0892	4,000.49	63.1706	4,000.49	65.4275	4,000.49	54.2027
4,141.11	88.0728	4,141.11	85.7903	4,141.11	87.1034	4,141.11	84.7972	4,141.11	86.4543	4,141.11	85.6158	4,141.11	86.1948	4,141.11	86.4317	4,141.11	83.8595	4,141.11	85.335	4,141.11	82.7266	4,141.11	81.7732	4,141.11	84.8574	4,141.11	80.4358	4,141.11	86.3288	4,141.11	79.029	4,141.11	83.2412	4,141.11	73.118	4,141.11	79.7781	4,141.11	57.1635	4,141.11	74.5603	4,141.11	67.9527	4,141.11	70.6386	4,141.11	70.4572	4,141.11	71.4857	4,141.11	69.0062	4,141.11	64.1464	4,141.11	58.1028	4,141.11	57.3141	4,141.11	66.2372	4,141.11	68.7203	4,141.11	67.0019	4,141.11	68.2592	4,141.11	66.83	4,141.11	64.6879	4,141.11	63.4699
4,287.6	87.9507	4,287.6	86.379	4,287.6	87.7181	4,287.6	84.9353	4,287.6	86.2899	4,287.6	86.0253	4,287.6	85.9984	4,287.6	85.2681	4,287.6	85.1593	4,287.6	83.2085	4,287.6	81.8058	4,287.6	82.7461	4,287.6	84.7209	4,287.6	78.2226	4,287.6	86.0466	4,287.6	79.0256	4,287.6	84.9331	4,287.6	76.3674	4,287.6	74.9993	4,287.6	75.7121	4,287.6	72.2919	4,287.6	68.5735	4,287.6	71.2471	4,287.6	63.7804	4,287.6	68.2341	4,287.6	66.8013	4,287.6	65.779	4,287.6	65.4887	4,287.6	63.6407	4,287.6	60.913	4,287.6	67.2992	4,287.6	50.9707	4,287.6	66.9108	4,287.6	66.5571	4,287.6	63.3325	4,287.6	57.0548
4,438.48	89.613	4,438.48	87.0369	4,438.48	89.1358	4,438.48	86.6178	4,438.48	87.617	4,438.48	86.8027	4,438.48	86.9581	4,438.48	86.2666	4,438.48	85.0652	4,438.48	84.7894	4,438.48	84.3928	4,438.48	80.7857	4,438.48	85.8989	4,438.48	80.3215	4,438.48	86.1196	4,438.48	75.9045	4,438.48	84.213	4,438.48	77.334	4,438.48	75.3892	4,438.48	70.4517	4,438.48	62.8242	4,438.48	71.3341	4,438.48	63.0839	4,438.48	64.7884	4,438.48	66.6504	4,438.48	71.4181	4,438.48	66.5366	4,438.48	67.2784	4,438.48	57.8363	4,438.48	70.2253	4,438.48	67.0579	4,438.48	57.4935	4,438.48	69.2934	4,438.48	64.458	4,438.48	59.7668	4,438.48	59.1976
4,595.21	89.4604	4,595.21	88.5565	4,595.21	88.9121	4,595.21	86.5588	4,595.21	87.6699	4,595.21	85.7476	4,595.21	87.0926	4,595.21	85.0037	4,595.21	85.104	4,595.21	83.5746	4,595.21	83.0868	4,595.21	82.2559	4,595.21	84.8767	4,595.21	78.6676	4,595.21	84.4047	4,595.21	79.3554	4,595.21	79.479	4,595.21	74.1731	4,595.21	71.8979	4,595.21	68.3828	4,595.21	66.8618	4,595.21	64.1096	4,595.21	68.7537	4,595.21	71.3278	4,595.21	66.4316	4,595.21	62.713	4,595.21	67.3685	4,595.21	67.4417	4,595.21	65.6476	4,595.21	69.3919	4,595.21	65.7851	4,595.21	55.9275	4,595.21	68.2119	4,595.21	67.2757	4,595.21	67.0821	4,595.21	60.3576
4,756.35	90.8501	4,756.35	88.5457	4,756.35	89.6307	4,756.35	87.5738	4,756.35	86.8878	4,756.35	86.9269	4,756.35	87.5438	4,756.35	85.9399	4,756.35	85.1723	4,756.35	83.2713	4,756.35	80.2823	4,756.35	80.6855	4,756.35	82.5743	4,756.35	78.3371	4,756.35	83.6973	4,756.35	77.6134	4,756.35	78.3327	4,756.35	72.7855	4,756.35	69.6467	4,756.35	57.929	4,756.35	59.7236	4,756.35	65.3431	4,756.35	66.2674	4,756.35	74.4222	4,756.35	70.0397	4,756.35	40.937	4,756.35	63.0928	4,756.35	71.8823	4,756.35	63.6428	4,756.35	62.1571	4,756.35	66.979	4,756.35	56.7294	4,756.35	69.6593	4,756.35	63.0396	4,756.35	65.6469	4,756.35	64.2922
4,924.8	90.5909	4,924.8	89.2141	4,924.8	90.9359	4,924.8	87.9997	4,924.8	87.6437	4,924.8	86.7943	4,924.8	86.1925	4,924.8	85.0111	4,924.8	85.3943	4,924.8	82.0382	4,924.8	82.0913	4,924.8	80.7432	4,924.8	79.4837	4,924.8	77.6222	4,924.8	80.2759	4,924.8	77.4199	4,924.8	73.3483	4,924.8	77.3198	4,924.8	72.341	4,924.8	68.0596	4,924.8	64.946	4,924.8	70.1621	4,924.8	63.624	4,924.8	70.1097	4,924.8	67.3682	4,924.8	71.2893	4,924.8	64.7298	4,924.8	71.8673	4,924.8	67.8479	4,924.8	67.7332	4,924.8	65.3432	4,924.8	56.4278	4,924.8	66.9865	4,924.8	64.7148	4,924.8	68.0924	4,924.8	55.7473
5,097.66	90.0872	5,097.66	89.2642	5,097.66	89.9529	5,097.66	88.4295	5,097.66	88.6634	5,097.66	86.3123	5,097.66	87.1469	5,097.66	84.1183	5,097.66	85.114	5,097.66	81.371	5,097.66	81.7668	5,097.66	81.3538	5,097.66	81.6921	5,097.66	79.1736	5,097.66	79.7376	5,097.66	76.1499	5,097.66	80.2531	5,097.66	73.6331	5,097.66	78.6102	5,097.66	69.7227	5,097.66	67.0033	5,097.66	73.8374	5,097.66	60.986	5,097.66	67.2733	5,097.66	64.0505	5,097.66	72.068	5,097.66	61.6278	5,097.66	73.1778	5,097.66	62.7119	5,097.66	56.7642	5,097.66	63.2433	5,097.66	63.1859	5,097.66	70.5085	5,097.66	64.2886	5,097.66	59.8475	5,097.66	53.097
5,277.83	90.2729	5,277.83	90.1176	5,277.83	89.7109	5,277.83	88.1924	5,277.83	88.8555	5,277.83	86.2822	5,277.83	87.6829	5,277.83	84.8771	5,277.83	84.9454	5,277.83	82.6797	5,277.83	81.181	5,277.83	80.5576	5,277.83	80.8603	5,277.83	78.0855	5,277.83	77.6308	5,277.83	78.2132	5,277.83	81.5048	5,277.83	75.2886	5,277.83	79.1871	5,277.83	67.8925	5,277.83	64.5402	5,277.83	70.8444	5,277.83	66.1666	5,277.83	66.8434	5,277.83	69.8793	5,277.83	73.7822	5,277.83	54.0336	5,277.83	68.3099	5,277.83	59.314	5,277.83	69.3515	5,277.83	64.4912	5,277.83	59.2783	5,277.83	67.6175	5,277.83	65.5504	5,277.83	61.6286	5,277.83	56.7724
5,463.87	90.2869	5,463.87	89.7999	5,463.87	89.3712	5,463.87	88.4896	5,463.87	88.4009	5,463.87	86.9389	5,463.87	88.1353	5,463.87	84.7124	5,463.87	86.2091	5,463.87	83.0596	5,463.87	81.66	5,463.87	81.1484	5,463.87	77.3072	5,463.87	78.7804	5,463.87	81.086	5,463.87	75.7748	5,463.87	82.3677	5,463.87	77.8103	5,463.87	78.5776	5,463.87	61.7168	5,463.87	67.1182	5,463.87	68.1158	5,463.87	60.1836	5,463.87	68.8991	5,463.87	65.0839	5,463.87	67.3334	5,463.87	64.5365	5,463.87	67.282	5,463.87	60.5286	5,463.87	67.2875	5,463.87	63.271	5,463.87	65.4806	5,463.87	67.7597	5,463.87	64.6782	5,463.87	56.9973	5,463.87	59.3637
5,657.23	90.1271	5,657.23	89.8017	5,657.23	89.889	5,657.23	88.8533	5,657.23	89.3405	5,657.23	86.6416	5,657.23	87.6621	5,657.23	85.6306	5,657.23	86.2729	5,657.23	83.5648	5,657.23	81.1636	5,657.23	81.8422	5,657.23	79.9361	5,657.23	78.2907	5,657.23	84.8314	5,657.23	77.5706	5,657.23	84.3305	5,657.23	70.2729	5,657.23	76.3396	5,657.23	65.2159	5,657.23	67.2045	5,657.23	69.8107	5,657.23	67.1034	5,657.23	66.5032	5,657.23	63.4137	5,657.23	65.7389	5,657.23	64.5918	5,657.23	72.092	5,657.23	54.5737	5,657.23	57.1379	5,657.23	63.1426	5,657.23	65.558	5,657.23	67.7943	5,657.23	64.3624	5,657.23	62.3968	5,657.23	53.0258
5,856.45	90.1245	5,856.45	89.7391	5,856.45	88.7294	5,856.45	88.8854	5,856.45	89.6705	5,856.45	87.1529	5,856.45	87.7296	5,856.45	86.709	5,856.45	86.3214	5,856.45	84.4083	5,856.45	83.8254	5,856.45	81.3556	5,856.45	82.8091	5,856.45	78.449	5,856.45	85.4601	5,856.45	76.982	5,856.45	85.6044	5,856.45	73.8119	5,856.45	78.3142	5,856.45	70.463	5,856.45	63.877	5,856.45	63.2454	5,856.45	65.767	5,856.45	68.983	5,856.45	63.5092	5,856.45	70.709	5,856.45	64.6056	5,856.45	69.8481	5,856.45	61.1572	5,856.45	71.0404	5,856.45	61.9328	5,856.45	50.1558	5,856.45	63.4609	5,856.45	61.5155	5,856.45	62.419	5,856.45	55.7972
6,062.99	90.568	6,062.99	90.5013	6,062.99	89.581	6,062.99	88.8977	6,062.99	88.463	6,062.99	87.4627	6,062.99	88.633	6,062.99	85.7078	6,062.99	86.3433	6,062.99	83.5203	6,062.99	83.2403	6,062.99	81.8647	6,062.99	80.471	6,062.99	79.3821	6,062.99	85.5417	6,062.99	75.7008	6,062.99	84.0457	6,062.99	72.3443	6,062.99	80.7654	6,062.99	70.5507	6,062.99	62.9919	6,062.99	68.0205	6,062.99	64.7615	6,062.99	68.4029	6,062.99	53.2534	6,062.99	72.8223	6,062.99	55.9413	6,062.99	64.0877	6,062.99	63.4205	6,062.99	74.2019	6,062.99	62.3318	6,062.99	63.4094	6,062.99	64.0066	6,062.99	64.3579	6,062.99	58.4302	6,062.99	55.9601
6,276.86	90.2748	6,276.86	90.0474	6,276.86	89.0323	6,276.86	89.0407	6,276.86	89.2965	6,276.86	88.0049	6,276.86	88.062	6,276.86	85.9922	6,276.86	87.2734	6,276.86	83.46	6,276.86	84.03	6,276.86	81.4441	6,276.86	80.9104	6,276.86	77.5911	6,276.86	84.2276	6,276.86	77.3183	6,276.86	82.2335	6,276.86	72.8849	6,276.86	77.324	6,276.86	73.0229	6,276.86	63.2854	6,276.86	72.3711	6,276.86	65.4105	6,276.86	59.2582	6,276.86	67.2599	6,276.86	69.2066	6,276.86	55.4185	6,276.86	67.2793	6,276.86	56.7953	6,276.86	69.7676	6,276.86	64.2612	6,276.86	67.7587	6,276.86	64.2242	6,276.86	61.3306	6,276.86	57.3708	6,276.86	47.1476
6,498.05	90.1377	6,498.05	90.8596	6,498.05	89.3489	6,498.05	89.7939	6,498.05	89.1936	6,498.05	87.6032	6,498.05	88.4676	6,498.05	86.2268	6,498.05	86.8629	6,498.05	84.5261	6,498.05	84.4897	6,498.05	81.7901	6,498.05	82.4007	6,498.05	80.0418	6,498.05	81.7619	6,498.05	75.6829	6,498.05	81.0257	6,498.05	75.5395	6,498.05	78.5136	6,498.05	62.5488	6,498.05	50.8644	6,498.05	67.3766	6,498.05	65.9968	6,498.05	59.9623	6,498.05	62.3149	6,498.05	63.2743	6,498.05	64.4924	6,498.05	69.6027	6,498.05	55.2774	6,498.05	66.258	6,498.05	63.9049	6,498.05	67.4637	6,498.05	62.8513	6,498.05	63.5773	6,498.05	61.1879	6,498.05	52.508
6,726.56	90.3029	6,726.56	90.3918	6,726.56	89.8778	6,726.56	89.4385	6,726.56	88.7327	6,726.56	88.2215	6,726.56	88.5945	6,726.56	87.0264	6,726.56	87.7893	6,726.56	83.9436	6,726.56	85.4682	6,726.56	81.0101	6,726.56	81.6519	6,726.56	77.6661	6,726.56	82.2536	6,726.56	74.5254	6,726.56	83.6193	6,726.56	74.5519	6,726.56	81.1327	6,726.56	53.2194	6,726.56	65.362	6,726.56	64.704	6,726.56	68.4036	6,726.56	69.7942	6,726.56	68.5351	6,726.56	68.6557	6,726.56	58.8875	6,726.56	72.1066	6,726.56	63.8517	6,726.56	71.2404	6,726.56	63.304	6,726.56	70.0997	6,726.56	62.1348	6,726.56	58.6675	6,726.56	61.9325	6,726.56	46.478
6,963.87	90.3504	6,963.87	90.1336	6,963.87	89.5532	6,963.87	89.3509	6,963.87	89.6918	6,963.87	88.5065	6,963.87	88.5857	6,963.87	87.3381	6,963.87	87.9214	6,963.87	83.224	6,963.87	85.6261	6,963.87	81.9928	6,963.87	80.2922	6,963.87	77.7234	6,963.87	83.6026	6,963.87	74.472	6,963.87	83.2807	6,963.87	72.8545	6,963.87	79.2883	6,963.87	69.1424	6,963.87	63.784	6,963.87	67.5416	6,963.87	64.8463	6,963.87	68.398	6,963.87	66.0706	6,963.87	59.9901	6,963.87	47.3958	6,963.87	72.0439	6,963.87	51.1163	6,963.87	63.9268	6,963.87	64.584	6,963.87	67.0405	6,963.87	62.4817	6,963.87	66.2874	6,963.87	61.4801	6,963.87	56.993
7,209.96	90.5732	7,209.96	90.5979	7,209.96	90.1466	7,209.96	90.2315	7,209.96	89.3857	7,209.96	88.8003	7,209.96	89.2596	7,209.96	86.7936	7,209.96	88.0774	7,209.96	82.7369	7,209.96	86.5965	7,209.96	81.9407	7,209.96	80.7213	7,209.96	78.132	7,209.96	85.4888	7,209.96	75.6314	7,209.96	83.4937	7,209.96	71.306	7,209.96	80.5678	7,209.96	67.1309	7,209.96	57.9653	7,209.96	62.8815	7,209.96	59.9423	7,209.96	65.2203	7,209.96	66.0818	7,209.96	57.8193	7,209.96	55.7348	7,209.96	72.4109	7,209.96	55.0402	7,209.96	62.814	7,209.96	63.3601	7,209.96	66.0681	7,209.96	62.7831	7,209.96	63.0725	7,209.96	55.9259	7,209.96	49.6592
7,464.84	90.6036	7,464.84	90.8952	7,464.84	90.7698	7,464.84	90.0664	7,464.84	89.975	7,464.84	89.5746	7,464.84	89.4204	7,464.84	87.7244	7,464.84	88.9158	7,464.84	83.6102	7,464.84	86.8131	7,464.84	81.0999	7,464.84	82.636	7,464.84	77.4737	7,464.84	85.6848	7,464.84	73.4373	7,464.84	82.7823	7,464.84	74.5301	7,464.84	77.5549	7,464.84	68.7256	7,464.84	61.1956	7,464.84	65.8547	7,464.84	64.1444	7,464.84	56.0193	7,464.84	66.2989	7,464.84	62.9093	7,464.84	61.4519	7,464.84	75.3881	7,464.84	37.884	7,464.84	68.7739	7,464.84	64.5423	7,464.84	57.7081	7,464.84	61.563	7,464.84	63.0384	7,464.84	57.7264	7,464.84	51.556
7,727.05	91.2463	7,727.05	91.2519	7,727.05	91.1334	7,727.05	91.0195	7,727.05	90.4206	7,727.05	89.6953	7,727.05	90.1487	7,727.05	87.5853	7,727.05	88.998	7,727.05	83.4475	7,727.05	87.8207	7,727.05	81.781	7,727.05	81.9165	7,727.05	76.7398	7,727.05	83.5465	7,727.05	74.3178	7,727.05	79.9989	7,727.05	71.3034	7,727.05	74.3245	7,727.05	65.8203	7,727.05	65.5839	7,727.05	66.0363	7,727.05	66.6532	7,727.05	68.9964	7,727.05	63.6289	7,727.05	60.687	7,727.05	59.4849	7,727.05	72.7597	7,727.05	58.775	7,727.05	69.727	7,727.05	64.4547	7,727.05	64.3065	7,727.05	58.6522	7,727.05	67.7653	7,727.05	59.0675	7,727.05	59.323
7,999.51	91.0675	7,999.51	91.2373	7,999.51	91.5654	7,999.51	91.0192	7,999.51	90.8398	7,999.51	89.5511	7,999.51	89.9729	7,999.51	87.7726	7,999.51	89.309	7,999.51	83.0614	7,999.51	86.8665	7,999.51	80.833	7,999.51	82.1294	7,999.51	76.2031	7,999.51	82.741	7,999.51	73.833	7,999.51	76.4533	7,999.51	75.0542	7,999.51	78.6133	7,999.51	63.086	7,999.51	55.8894	7,999.51	70.4058	7,999.51	61.9671	7,999.51	69.1813	7,999.51	62.0845	7,999.51	68.3124	7,999.51	62.6378	7,999.51	73.1214	7,999.51	57.9208	7,999.51	64.6565	7,999.51	64.3031	7,999.51	69.5593	7,999.51	62.6316	7,999.51	63.4988	7,999.51	53.1719	7,999.51	55.1489
8,282.23	92.0182	8,282.23	92.0989	8,282.23	91.5547	8,282.23	91.567	8,282.23	91.1789	8,282.23	90.5591	8,282.23	90.3514	8,282.23	87.5944	8,282.23	89.4845	8,282.23	83.6551	8,282.23	87.3671	8,282.23	81.004	8,282.23	80.9163	8,282.23	77.606	8,282.23	76.4028	8,282.23	74.5163	8,282.23	78.6694	8,282.23	70.189	8,282.23	78.9296	8,282.23	68.892	8,282.23	63.7065	8,282.23	69.8037	8,282.23	59.5065	8,282.23	59.4181	8,282.23	61.8404	8,282.23	67.4195	8,282.23	64.3898	8,282.23	75.1515	8,282.23	62.9696	8,282.23	63.7356	8,282.23	61.4562	8,282.23	61.7102	8,282.23	63.456	8,282.23	69.3371	8,282.23	59.4078	8,282.23	62.4708
8,573.73	92.306	8,573.73	92.2725	8,573.73	92.4632	8,573.73	92.1737	8,573.73	91.514	8,573.73	90.8652	8,573.73	90.9793	8,573.73	87.8793	8,573.73	89.3946	8,573.73	81.9232	8,573.73	87.2196	8,573.73	81.6833	8,573.73	81.8333	8,573.73	76.5587	8,573.73	73.4152	8,573.73	72.5421	8,573.73	81.8869	8,573.73	70.6968	8,573.73	77.2855	8,573.73	68.4634	8,573.73	63.2981	8,573.73	69.5162	8,573.73	63.7634	8,573.73	68.921	8,573.73	63.5803	8,573.73	64.4752	8,573.73	64.9576	8,573.73	63.2817	8,573.73	58.8662	8,573.73	58.7078	8,573.73	63.0432	8,573.73	71.0667	8,573.73	63.4124	8,573.73	67.1905	8,573.73	61.5385	8,573.73	58.2879
8,876.95	93.2032	8,876.95	92.7537	8,876.95	92.6236	8,876.95	92.6222	8,876.95	92.4245	8,876.95	90.9896	8,876.95	90.9407	8,876.95	87.6445	8,876.95	89.8297	8,876.95	82.1589	8,876.95	87.9769	8,876.95	81.1813	8,876.95	82.1377	8,876.95	78.1777	8,876.95	79.7332	8,876.95	73.9026	8,876.95	83.7887	8,876.95	75.2978	8,876.95	81.2905	8,876.95	64.0389	8,876.95	61.5517	8,876.95	73.7997	8,876.95	63.2495	8,876.95	60.6716	8,876.95	61.0868	8,876.95	68.75	8,876.95	52.7377	8,876.95	74.2146	8,876.95	64.8457	8,876.95	63.9235	8,876.95	63.5515	8,876.95	67.5731	8,876.95	62.0006	8,876.95	67.9521	8,876.95	60.215	8,876.95	48.6566
9,188.96	93.7102	9,188.96	93.4935	9,188.96	93.607	9,188.96	93.0463	9,188.96	92.7532	9,188.96	91.5144	9,188.96	91.6885	9,188.96	87.8427	9,188.96	90.2956	9,188.96	82.0452	9,188.96	88.8966	9,188.96	81.1217	9,188.96	83.2192	9,188.96	77.1234	9,188.96	81.244	9,188.96	74.4143	9,188.96	84.6565	9,188.96	68.9383	9,188.96	81.2617	9,188.96	67.2474	9,188.96	58.7488	9,188.96	72.5421	9,188.96	42.4449	9,188.96	60.4992	9,188.96	58.6967	9,188.96	57.0426	9,188.96	55.9333	9,188.96	72.6061	9,188.96	65.5093	9,188.96	63.9932	9,188.96	62.4082	9,188.96	62.5125	9,188.96	63.5262	9,188.96	57.9835	9,188.96	57.0893	9,188.96	60.9635
9,514.16	94.6023	9,514.16	94.2055	9,514.16	94.2302	9,514.16	93.4594	9,514.16	93.8407	9,514.16	92.0646	9,514.16	92.0192	9,514.16	88.0295	9,514.16	90.7196	9,514.16	81.7072	9,514.16	88.6815	9,514.16	81.169	9,514.16	85.1735	9,514.16	76.6349	9,514.16	83.6895	9,514.16	70.7029	9,514.16	83.9165	9,514.16	73.031	9,514.16	79.3588	9,514.16	68.3301	9,514.16	53.5923	9,514.16	72.259	9,514.16	66.9322	9,514.16	65.4828	9,514.16	58.8791	9,514.16	54.3693	9,514.16	59.6004	9,514.16	66.1545	9,514.16	61.3143	9,514.16	67.1616	9,514.16	61.0266	9,514.16	69.4619	9,514.16	66.5012	9,514.16	68.6463	9,514.16	57.7039	9,514.16	47.7753
9,849.61	95.0529	9,849.61	94.9762	9,849.61	95.0234	9,849.61	94.1646	9,849.61	94.2277	9,849.61	92.4618	9,849.61	92.434	9,849.61	88.4878	9,849.61	90.3723	9,849.61	81.7362	9,849.61	88.8812	9,849.61	80.5423	9,849.61	83.846	9,849.61	77.4657	9,849.61	81.9836	9,849.61	72.3859	9,849.61	82.6311	9,849.61	71.166	9,849.61	78.3977	9,849.61	63.6379	9,849.61	63.4374	9,849.61	75.8773	9,849.61	65.4096	9,849.61	60.8321	9,849.61	64.2484	9,849.61	63.1226	9,849.61	66.5507	9,849.61	73.2932	9,849.61	66.1231	9,849.61	70.3876	9,849.61	62.8025	9,849.61	64.296	9,849.61	61.5378	9,849.61	67.9194	9,849.61	61.4283	9,849.61	62.6295
10,196.8	95.6968	10,196.8	95.7345	10,196.8	95.3197	10,196.8	94.7054	10,196.8	94.7236	10,196.8	93.2693	10,196.8	92.7675	10,196.8	88.3204	10,196.8	90.5815	10,196.8	81.4432	10,196.8	88.8718	10,196.8	79.7604	10,196.8	84.8106	10,196.8	77.7679	10,196.8	75.1788	10,196.8	72.1033	10,196.8	81.7259	10,196.8	73.0701	10,196.8	79.9333	10,196.8	69.5418	10,196.8	42.3554	10,196.8	74.6015	10,196.8	66.4273	10,196.8	71.7082	10,196.8	64.8424	10,196.8	57.6585	10,196.8	66.2181	10,196.8	69.4224	10,196.8	67.2617	10,196.8	73.3523	10,196.8	64.054	10,196.8	61.6953	10,196.8	62.3202	10,196.8	68.2679	10,196.8	60.6861	10,196.8	59.888
10,555.7	95.5697	10,555.7	95.7957	10,555.7	95.489	10,555.7	94.7892	10,555.7	94.7292	10,555.7	93.2796	10,555.7	92.6586	10,555.7	88.3287	10,555.7	90.7145	10,555.7	79.9542	10,555.7	89.055	10,555.7	80.966	10,555.7	84.4411	10,555.7	77.7662	10,555.7	76.7573	10,555.7	71.5817	10,555.7	83.6877	10,555.7	72.802	10,555.7	82.1908	10,555.7	65.114	10,555.7	66.7065	10,555.7	78.3285	10,555.7	68.1496	10,555.7	68.3294	10,555.7	66.5041	10,555.7	61.842	10,555.7	69.5056	10,555.7	67.659	10,555.7	67.7962	10,555.7	72.7521	10,555.7	61.6487	10,555.7	59.0912	10,555.7	63.814	10,555.7	65.6939	10,555.7	61.5172	10,555.7	57.336
10,927.7	95.2041	10,927.7	95.5228	10,927.7	95.1987	10,927.7	94.2383	10,927.7	94.1992	10,927.7	93.3599	10,927.7	92.5054	10,927.7	88.24	10,927.7	89.9182	10,927.7	81.7745	10,927.7	88.8318	10,927.7	80.3721	10,927.7	85.3989	10,927.7	79.7065	10,927.7	80.5257	10,927.7	72.1261	10,927.7	82.0893	10,927.7	71.9554	10,927.7	77.8249	10,927.7	64.839	10,927.7	66.477	10,927.7	72.3799	10,927.7	68.1245	10,927.7	71.6903	10,927.7	67.1908	10,927.7	66.584	10,927.7	63.7096	10,927.7	71.6912	10,927.7	63.4083	10,927.7	71.7732	10,927.7	62.1996	10,927.7	62.992	10,927.7	62.5306	10,927.7	66.7334	10,927.7	64.2102	10,927.7	58.978
11,313	94.4399	11,313	94.9855	11,313	94.6261	11,313	93.4745	11,313	93.6736	11,313	92.8133	11,313	91.8277	11,313	87.2259	11,313	89.5997	11,313	82.2019	11,313	88.1617	11,313	81.3123	11,313	84.4912	11,313	79.0023	11,313	81.0959	11,313	72.8496	11,313	75.8876	11,313	71.1998	11,313	78.1807	11,313	50.4883	11,313	50.2045	11,313	75.8048	11,313	61.4858	11,313	67.6478	11,313	62.7862	11,313	68.3749	11,313	68.082	11,313	66.3659	11,313	64.4821	11,313	67.2159	11,313	61.4677	11,313	68.9911	11,313	61.9225	11,313	67.5947	11,313	60.1332	11,313	62.1725
11,712.9	93.2787	11,712.9	93.6363	11,712.9	93.4913	11,712.9	92.3747	11,712.9	92.5095	11,712.9	92.0322	11,712.9	90.816	11,712.9	86.4925	11,712.9	88.5659	11,712.9	82.2152	11,712.9	86.6093	11,712.9	80.9414	11,712.9	83.7108	11,712.9	79.6592	11,712.9	76.5198	11,712.9	74.318	11,712.9	80.1616	11,712.9	71.8272	11,712.9	78.1557	11,712.9	70.3612	11,712.9	58.8494	11,712.9	67.0589	11,712.9	64.8641	11,712.9	70.5177	11,712.9	51.0086	11,712.9	74.4508	11,712.9	61.3701	11,712.9	71.2579	11,712.9	67.8623	11,712.9	68.7137	11,712.9	60.1371	11,712.9	63.5593	11,712.9	61.7653	11,712.9	61.8632	11,712.9	59.161	11,712.9	60.8296
12,126	91.9106	12,126	92.1617	12,126	91.9071	12,126	91.0082	12,126	91.3537	12,126	90.6935	12,126	89.1672	12,126	84.9938	12,126	87.6664	12,126	83.8581	12,126	85.6868	12,126	81.271	12,126	81.4556	12,126	79.8469	12,126	78.5299	12,126	75.4534	12,126	79.4848	12,126	70.2672	12,126	73.6491	12,126	65.6972	12,126	61.9355	12,126	63.8438	12,126	63.2051	12,126	74.4283	12,126	42.9903	12,126	74.7772	12,126	64.7855	12,126	70.0303	12,126	64.3931	12,126	68.1995	12,126	61.7936	12,126	59.733	12,126	59.0019	12,126	66.7025	12,126	59.0468	12,126	56.748
12,553.7	90.5757	12,553.7	90.5529	12,553.7	89.9554	12,553.7	89.8412	12,553.7	89.9512	12,553.7	88.7324	12,553.7	87.8104	12,553.7	84.4035	12,553.7	86.0651	12,553.7	83.1911	12,553.7	85.0493	12,553.7	81.4259	12,553.7	81.5679	12,553.7	80.3039	12,553.7	76.541	12,553.7	74.7579	12,553.7	77.2874	12,553.7	72.2971	12,553.7	72.9371	12,553.7	61.9052	12,553.7	57.386	12,553.7	61.3975	12,553.7	55.341	12,553.7	72.8401	12,553.7	56.3912	12,553.7	76.4583	12,553.7	63.885	12,553.7	71.3656	12,553.7	64.2406	12,553.7	60.1052	12,553.7	58.7034	12,553.7	59.3426	12,553.7	60.0929	12,553.7	68.939	12,553.7	59.5175	12,553.7	57.8946
12,996.1	89.1303	12,996.1	88.9526	12,996.1	88.4017	12,996.1	88.1731	12,996.1	87.874	12,996.1	87.1916	12,996.1	86.448	12,996.1	82.2836	12,996.1	84.4555	12,996.1	83.8498	12,996.1	83.4077	12,996.1	81.5888	12,996.1	80.4622	12,996.1	79.6624	12,996.1	75.9838	12,996.1	76.2547	12,996.1	72.2955	12,996.1	67.014	12,996.1	73.6089	12,996.1	59.5906	12,996.1	46.6045	12,996.1	49.8591	12,996.1	60.8172	12,996.1	74.2058	12,996.1	57.9564	12,996.1	73.0896	12,996.1	61.9967	12,996.1	63.58	12,996.1	64.3421	12,996.1	68.1966	12,996.1	59.5395	12,996.1	63.9896	12,996.1	53.8389	12,996.1	56.1431	12,996.1	56.0003	12,996.1	57.3518
13,454.6	87.8341	13,454.6	87.4199	13,454.6	87.2566	13,454.6	86.9245	13,454.6	86.5672	13,454.6	85.9913	13,454.6	85.0269	13,454.6	81.1835	13,454.6	82.7248	13,454.6	83.717	13,454.6	81.8932	13,454.6	82.1629	13,454.6	79.4807	13,454.6	79.1535	13,454.6	71.6084	13,454.6	75.3747	13,454.6	69.5084	13,454.6	70.5731	13,454.6	67.6563	13,454.6	63.9648	13,454.6	53.2145	13,454.6	72.3576	13,454.6	57.5897	13,454.6	75.2048	13,454.6	51.4524	13,454.6	66.5859	13,454.6	59.4664	13,454.6	67.2292	13,454.6	63.3306	13,454.6	67.7127	13,454.6	59.7629	13,454.6	65.3367	13,454.6	53.1012	13,454.6	59.9728	13,454.6	57.809	13,454.6	55.8651
13,929.2	86.6919	13,929.2	86.7172	13,929.2	86.1323	13,929.2	85.5836	13,929.2	85.2882	13,929.2	85.7374	13,929.2	83.9291	13,929.2	80.33	13,929.2	81.3847	13,929.2	84.8397	13,929.2	80.7598	13,929.2	82.567	13,929.2	77.0922	13,929.2	79.4741	13,929.2	69.9547	13,929.2	74.4815	13,929.2	66.7234	13,929.2	71.6859	13,929.2	63.5814	13,929.2	63.7258	13,929.2	55.1726	13,929.2	72.8223	13,929.2	52.5026	13,929.2	73.983	13,929.2	53.6606	13,929.2	71.1721	13,929.2	60.8239	13,929.2	66.8924	13,929.2	62.1653	13,929.2	57.6685	13,929.2	57.1219	13,929.2	57.3116	13,929.2	55.7158	13,929.2	53.0172	13,929.2	47.7392	13,929.2	53.622
14,419.9	85.4629	14,419.9	85.525	14,419.9	84.8882	14,419.9	84.1619	14,419.9	83.6516	14,419.9	84.8522	14,419.9	82.5409	14,419.9	79.881	14,419.9	79.8593	14,419.9	84.3351	14,419.9	78.4187	14,419.9	82.1544	14,419.9	75.91	14,419.9	78.8293	14,419.9	68.5623	14,419.9	74.6714	14,419.9	70.5034	14,419.9	68.9174	14,419.9	66.684	14,419.9	67.6115	14,419.9	56.1128	14,419.9	68.827	14,419.9	43.7324	14,419.9	75.3471	14,419.9	43.2295	14,419.9	72.9728	14,419.9	55.9633	14,419.9	64.3682	14,419.9	61.5439	14,419.9	68.7723	14,419.9	58.4992	14,419.9	50.2857	14,419.9	58.5884	14,419.9	53.4011	14,419.9	51.8233	14,419.9	53.6526
14,928.2	84.1224	14,928.2	84.5036	14,928.2	83.7979	14,928.2	82.8731	14,928.2	82.3188	14,928.2	83.7802	14,928.2	81.4441	14,928.2	80.3791	14,928.2	78.6776	14,928.2	84.435	14,928.2	77.2763	14,928.2	81.7013	14,928.2	73.969	14,928.2	78.5485	14,928.2	67.3751	14,928.2	73.6509	14,928.2	64.0788	14,928.2	70.6043	14,928.2	57.049	14,928.2	64.4185	14,928.2	50.9152	14,928.2	71.838	14,928.2	42.8269	14,928.2	73.5482	14,928.2	40.3046	14,928.2	73.7049	14,928.2	53.5255	14,928.2	72.1983	14,928.2	55.4354	14,928.2	61.1986	14,928.2	53.5069	14,928.2	66.7873	14,928.2	52.0965	14,928.2	53.2972	14,928.2	54.2131	14,928.2	49.6162
15,455.6	83.4526	15,455.6	83.6847	15,455.6	82.8638	15,455.6	82.223	15,455.6	81.3196	15,455.6	83.0125	15,455.6	80.2966	15,455.6	80.0529	15,455.6	77.6958	15,455.6	83.3206	15,455.6	76.141	15,455.6	81.0951	15,455.6	71.7614	15,455.6	76.8661	15,455.6	62.67	15,455.6	73.0645	15,455.6	61.6051	15,455.6	66.1762	15,455.6	51.6871	15,455.6	64.9203	15,455.6	46.7554	15,455.6	68.3541	15,455.6	52.1283	15,455.6	72.7105	15,455.6	52.3676	15,455.6	73.8658	15,455.6	52.7474	15,455.6	70.4104	15,455.6	56.8525	15,455.6	56.6769	15,455.6	41.5591	15,455.6	64.1102	15,455.6	48.2245	15,455.6	46.8133	15,455.6	53.6886	15,455.6	56.5827
16,000.5	82.8102	16,000.5	82.8053	16,000.5	81.5904	16,000.5	81.5779	16,000.5	79.8806	16,000.5	81.9727	16,000.5	78.5284	16,000.5	79.3706	16,000.5	75.2751	16,000.5	82.5535	16,000.5	74.1882	16,000.5	80.2051	16,000.5	70.1748	16,000.5	74.5107	16,000.5	63.2598	16,000.5	72.7259	16,000.5	68.3963	16,000.5	62.6465	16,000.5	49.7768	16,000.5	56.0136	16,000.5	51.6092	16,000.5	62.8039	16,000.5	49.804	16,000.5	73.102	16,000.5	48.2983	16,000.5	74.6996	16,000.5	44.6322	16,000.5	74.5903	16,000.5	44.5541	16,000.5	67.774	16,000.5	41.5911	16,000.5	60.4048	16,000.5	43.278	16,000.5	55.6809	16,000.5	52.5819	16,000.5	57.2066
16,564.5	81.8293	16,564.5	81.8162	16,564.5	80.1085	16,564.5	80.5853	16,564.5	78.4159	16,564.5	81.4943	16,564.5	76.8062	16,564.5	78.1974	16,564.5	74.1859	16,564.5	81.287	16,564.5	71.1791	16,564.5	78.1626	16,564.5	67.7523	16,564.5	73.1956	16,564.5	60.4469	16,564.5	70.4824	16,564.5	61.956	16,564.5	66.7495	16,564.5	54.1959	16,564.5	63.2029	16,564.5	49.4351	16,564.5	60.757	16,564.5	52.0046	16,564.5	66.1997	16,564.5	52.2296	16,564.5	71.0801	16,564.5	57.7114	16,564.5	68.2448	16,564.5	51.4724	16,564.5	65.9433	16,564.5	44.4624	16,564.5	56.2339	16,564.5	48.2065	16,564.5	54.7881	16,564.5	51.2522	16,564.5	57.7069
17,148.9	80.9635	17,148.9	81.1257	17,148.9	79.0705	17,148.9	79.7073	17,148.9	77.1277	17,148.9	81.6744	17,148.9	75.1677	17,148.9	78.1328	17,148.9	72.9332	17,148.9	81.0398	17,148.9	67.9924	17,148.9	78.0637	17,148.9	65.3337	17,148.9	72.9562	17,148.9	62.2329	17,148.9	70.2044	17,148.9	55.132	17,148.9	66.2903	17,148.9	47.2122	17,148.9	56.0676	17,148.9	52.7337	17,148.9	61.2495	17,148.9	54.5687	17,148.9	68.4369	17,148.9	54.5499	17,148.9	68.6394	17,148.9	57.144	17,148.9	60.5588	17,148.9	53.8456	17,148.9	63.9108	17,148.9	49.9191	17,148.9	51.7006	17,148.9	53.2448	17,148.9	55.1427	17,148.9	48.7717	17,148.9	53.83
17,752.4	80.0024	17,752.4	80.5746	17,752.4	78.1768	17,752.4	79.5394	17,752.4	75.4835	17,752.4	81.0058	17,752.4	73.0409	17,752.4	78.2177	17,752.4	70.3504	17,752.4	81.146	17,752.4	64.238	17,752.4	78.1979	17,752.4	57.3542	17,752.4	71.398	17,752.4	55.4565	17,752.4	67.4522	17,752.4	58.1527	17,752.4	60.1997	17,752.4	46.0553	17,752.4	60.6387	17,752.4	54.2103	17,752.4	71.9654	17,752.4	52.7301	17,752.4	70.9949	17,752.4	52.9279	17,752.4	65.9152	17,752.4	53.7293	17,752.4	67.3692	17,752.4	53.8102	17,752.4	64.2342	17,752.4	50.7268	17,752.4	59.2898	17,752.4	52.4571	17,752.4	47.8876	17,752.4	42.5295	17,752.4	50.3988
18,379.4	79.1632	18,379.4	80.3282	18,379.4	76.9856	18,379.4	79.2775	18,379.4	73.6071	18,379.4	80.3929	18,379.4	69.5786	18,379.4	78.2178	18,379.4	65.3232	18,379.4	81.0218	18,379.4	62.1764	18,379.4	77.197	18,379.4	56.9389	18,379.4	69.7508	18,379.4	49.9121	18,379.4	63.5087	18,379.4	47.7364	18,379.4	58.8317	18,379.4	45.3783	18,379.4	62.8784	18,379.4	49.6183	18,379.4	72.8558	18,379.4	36.4604	18,379.4	71.4389	18,379.4	23.9353	18,379.4	66.1787	18,379.4	45.5818	18,379.4	69.2753	18,379.4	47.7094	18,379.4	63.1528	18,379.4	37.4064	18,379.4	59.3489	18,379.4	40.9738	18,379.4	59.3116	18,379.4	37.7335	18,379.4	43.5314
19,026.9	78.0343	19,026.9	79.9345	19,026.9	75.3948	19,026.9	79.2678	19,026.9	71.5076	19,026.9	80.114	19,026.9	68.0224	19,026.9	77.4998	19,026.9	65.5707	19,026.9	79.9597	19,026.9	66.3837	19,026.9	75.5338	19,026.9	62.0148	19,026.9	67.0981	19,026.9	49.9017	19,026.9	64.5445	19,026.9	54.4349	19,026.9	60.5365	19,026.9	53.0263	19,026.9	60.5403	19,026.9	54.3866	19,026.9	69.3401	19,026.9	52.624	19,026.9	72.3739	19,026.9	49.7699	19,026.9	66.1871	19,026.9	50.0543	19,026.9	71.419	19,026.9	49.8603	19,026.9	50.7721	19,026.9	38.7757	19,026.9	59.9424	19,026.9	37.8325	19,026.9	60.17	19,026.9	40.7053	19,026.9	51.9358
19,697.8	77.5851	19,697.8	79.1675	19,697.8	75.0318	19,697.8	78.4442	19,697.8	72.1861	19,697.8	79.7927	19,697.8	72.2368	19,697.8	76.9389	19,697.8	70.6449	19,697.8	78.879	19,697.8	68.3804	19,697.8	71.9398	19,697.8	61.9639	19,697.8	57.1002	19,697.8	57.8795	19,697.8	65.3024	19,697.8	47.7366	19,697.8	59.4715	19,697.8	44.6563	19,697.8	54.1479	19,697.8	49.8993	19,697.8	72.0704	19,697.8	46.8762	19,697.8	74.371	19,697.8	51.4561	19,697.8	71.8168	19,697.8	46.8139	19,697.8	72.8526	19,697.8	53.889	19,697.8	70.8049	19,697.8	46.9695	19,697.8	43.2102	19,697.8	51.1876	19,697.8	33.0948	19,697.8	49.5651	19,697.8	55.1968
19,999.5	77.074	19,999.5	78.8724	19,999.5	76.2575	19,999.5	77.8144	19,999.5	74.431	19,999.5	79.2626	19,999.5	73.2109	19,999.5	76.6005	19,999.5	73.034	19,999.5	77.1517	19,999.5	68.0475	19,999.5	74.0487	19,999.5	65.7529	19,999.5	59.0033	19,999.5	55.6829	19,999.5	67.0986	19,999.5	57.0362	19,999.5	66.7575	19,999.5	60.1908	19,999.5	57.7799	19,999.5	57.5254	19,999.5	75.1296	19,999.5	58.599	19,999.5	73.526	19,999.5	60.938	19,999.5	66.5787	19,999.5	60.6504	19,999.5	69.2416	19,999.5	59.129	19,999.5	67.6029	19,999.5	41.1624	19,999.5	63.775	19,999.5	40.2922	19,999.5	65.0206	19,999.5	38.1985	19,999.5	41.4265
