"SPL Horizontal"
"On-Axis"		"10°"		"-10°"		"20°"		"-20°"		"30°"		"-30°"		"40°"		"-40°"		"50°"		"-50°"		"60°"		"-60°"		"70°"		"-70°"		"80°"		"-80°"		"90°"		"-90°"		"100°"		"-100°"		"110°"		"-110°"		"120°"		"-120°"		"130°"		"-130°"		"140°"		"-140°"		"150°"		"-150°"		"160°"		"-160°"		"170°"		"-170°"		"180°"
"Frequency [Hz]"	"Sound Pessure Level [dB]  / [2.83V 1m] "	"Frequency [Hz]"	"Sound Pessure Level [dB]  / [2.83V 1m] "	"Frequency [Hz]"	"Sound Pessure Level [dB]  / [2.83V 1m] "	"Frequency [Hz]"	"Sound Pessure Level [dB]  / [2.83V 1m] "	"Frequency [Hz]"	"Sound Pessure Level [dB]  / [2.83V 1m] "	"Frequency [Hz]"	"Sound Pessure Level [dB]  / [2.83V 1m] "	"Frequency [Hz]"	"Sound Pessure Level [dB]  / [2.83V 1m] "	"Frequency [Hz]"	"Sound Pessure Level [dB]  / [2.83V 1m] "	"Frequency [Hz]"	"Sound Pessure Level [dB]  / [2.83V 1m] "	"Frequency [Hz]"	"Sound Pessure Level [dB]  / [2.83V 1m] "	"Frequency [Hz]"	"Sound Pessure Level [dB]  / [2.83V 1m] "	"Frequency [Hz]"	"Sound Pessure Level [dB]  / [2.83V 1m] "	"Frequency [Hz]"	"Sound Pessure Level [dB]  / [2.83V 1m] "	"Frequency [Hz]"	"Sound Pessure Level [dB]  / [2.83V 1m] "	"Frequency [Hz]"	"Sound Pessure Level [dB]  / [2.83V 1m] "	"Frequency [Hz]"	"Sound Pessure Level [dB]  / [2.83V 1m] "	"Frequency [Hz]"	"Sound Pessure Level [dB]  / [2.83V 1m] "	"Frequency [Hz]"	"Sound Pessure Level [dB]  / [2.83V 1m] "	"Frequency [Hz]"	"Sound Pessure Level [dB]  / [2.83V 1m] "	"Frequency [Hz]"	"Sound Pessure Level [dB]  / [2.83V 1m] "	"Frequency [Hz]"	"Sound Pessure Level [dB]  / [2.83V 1m] "	"Frequency [Hz]"	"Sound Pessure Level [dB]  / [2.83V 1m] "	"Frequency [Hz]"	"Sound Pessure Level [dB]  / [2.83V 1m] "	"Frequency [Hz]"	"Sound Pessure Level [dB]  / [2.83V 1m] "	"Frequency [Hz]"	"Sound Pessure Level [dB]  / [2.83V 1m] "	"Frequency [Hz]"	"Sound Pessure Level [dB]  / [2.83V 1m] "	"Frequency [Hz]"	"Sound Pessure Level [dB]  / [2.83V 1m] "	"Frequency [Hz]"	"Sound Pessure Level [dB]  / [2.83V 1m] "	"Frequency [Hz]"	"Sound Pessure Level [dB]  / [2.83V 1m] "	"Frequency [Hz]"	"Sound Pessure Level [dB]  / [2.83V 1m] "	"Frequency [Hz]"	"Sound Pessure Level [dB]  / [2.83V 1m] "	"Frequency [Hz]"	"Sound Pessure Level [dB]  / [2.83V 1m] "	"Frequency [Hz]"	"Sound Pessure Level [dB]  / [2.83V 1m] "	"Frequency [Hz]"	"Sound Pessure Level [dB]  / [2.83V 1m] "	"Frequency [Hz]"	"Sound Pessure Level [dB]  / [2.83V 1m] "	"Frequency [Hz]"	"Sound Pessure Level [dB]  / [2.83V 1m] "
20.5078	53.3811	20.5078	53.1479	20.5078	53.437	20.5078	52.7238	20.5078	53.3198	20.5078	52.0823	20.5078	53.0252	20.5078	51.177	20.5078	52.5388	20.5078	49.9303	20.5078	51.8323	20.5078	48.2099	20.5078	50.8532	20.5078	45.7866	20.5078	49.5066	20.5078	42.3351	20.5078	47.6108	20.5078	38.78	20.5078	44.7705	20.5078	40.913	20.5078	39.8548	20.5078	45.2282	20.5078	26.8196	20.5078	48.4609	20.5078	37.733	20.5078	50.7725	20.5078	44.5218	20.5078	52.4194	20.5078	48.2926	20.5078	53.5401	20.5078	50.7805	20.5078	54.2031	20.5078	52.4853	20.5078	54.4366	20.5078	53.6088	20.5078	54.2443
21.9727	53.7268	21.9727	53.5296	21.9727	53.7317	21.9727	53.133	21.9727	53.5452	21.9727	52.5263	21.9727	53.1617	21.9727	51.7064	21.9727	52.5714	21.9727	50.7087	21.9727	51.7693	21.9727	49.6874	21.9727	50.7808	21.9727	49.041	21.9727	49.7319	21.9727	49.3142	21.9727	48.9801	21.9727	50.585	21.9727	49.0961	21.9727	52.3444	21.9727	50.2861	21.9727	54.1271	21.9727	52.0791	21.9727	55.7265	21.9727	53.9485	21.9727	57.079	21.9727	55.6371	21.9727	58.1697	21.9727	57.0581	21.9727	58.9954	21.9727	58.1895	21.9727	59.5532	21.9727	59.0295	21.9727	59.8395	21.9727	59.5816	21.9727	59.8503
23.4375	51.0638	23.4375	50.6805	23.4375	51.1275	23.4375	49.958	23.4375	50.8726	23.4375	48.871	23.4375	50.2791	23.4375	47.4517	23.4375	49.3067	23.4375	46.0447	23.4375	47.9151	23.4375	45.7637	23.4375	46.1919	23.4375	47.4509	23.4375	44.8807	23.4375	50.073	23.4375	45.6535	23.4375	52.626	23.4375	48.3096	23.4375	54.8387	23.4375	51.2053	23.4375	56.6996	23.4375	53.7364	23.4375	58.2423	23.4375	55.8506	23.4375	59.4966	23.4375	57.5932	23.4375	60.4808	23.4375	59.0078	23.4375	61.2044	23.4375	60.1242	23.4375	61.671	23.4375	60.9609	23.4375	61.8813	23.4375	61.5289	23.4375	61.8345
24.9023	55.6032	24.9023	55.4676	24.9023	55.5893	24.9023	55.1882	24.9023	55.4331	24.9023	54.7908	24.9023	55.1564	24.9023	54.3407	24.9023	54.8067	24.9023	53.9723	24.9023	54.4761	24.9023	53.8988	24.9023	54.3149	24.9023	54.3279	24.9023	54.5032	24.9023	55.2926	24.9023	55.1493	24.9023	56.6163	24.9023	56.2002	24.9023	58.0672	24.9023	57.4863	24.9023	59.4789	24.9023	58.8352	24.9023	60.7612	24.9023	60.1279	24.9023	61.8704	24.9023	61.2952	24.9023	62.7852	24.9023	62.2985	24.9023	63.4937	24.9023	63.1146	24.9023	63.9872	24.9023	63.728	24.9023	64.2594	24.9023	64.1278	24.9023	64.3063
26.3672	58.2759	26.3672	58.1725	26.3672	58.2744	26.3672	57.9772	26.3672	58.1686	26.3672	57.7221	26.3672	57.9729	26.3672	57.468	26.3672	57.721	26.3672	57.3142	26.3672	57.4755	26.3672	57.3881	26.3672	57.3356	26.3672	57.7969	26.3672	57.4262	26.3672	58.5585	26.3672	57.8492	26.3672	59.5854	26.3672	58.6187	26.3672	60.7424	26.3672	59.6483	26.3672	61.9085	26.3672	60.8058	26.3672	62.9997	26.3672	61.9721	26.3672	63.9634	26.3672	63.063	26.3672	64.7674	26.3672	64.0249	26.3672	65.3906	26.3672	64.8234	26.3672	65.8183	26.3672	65.4362	26.3672	66.0405	26.3672	65.8484	26.3672	66.051
27.832	60.6713	27.832	60.5923	27.832	60.673	27.832	60.4478	27.832	60.5997	27.832	60.2666	27.832	60.4672	27.832	60.0999	27.832	60.3092	27.832	60.0249	27.832	60.1819	27.832	60.1344	27.832	60.1647	27.832	60.5051	27.832	60.3457	27.832	61.155	27.832	60.7875	27.832	62.0306	27.832	61.4914	27.832	63.0359	27.832	62.3944	27.832	64.0733	27.832	63.4016	27.832	65.0662	27.832	64.4219	27.832	65.9608	27.832	65.3843	27.832	66.7207	27.832	66.2384	27.832	67.3207	27.832	66.9488	27.832	67.743	27.832	67.491	27.832	67.9755	27.832	67.8483	27.832	68.0111
29.2969	62.987	29.2969	62.9446	29.2969	62.9817	29.2969	62.8665	29.2969	62.93	29.2969	62.7797	29.2969	62.8468	29.2969	62.7275	29.2969	62.762	29.2969	62.7683	29.2969	62.7223	29.2969	62.9646	29.2969	62.7881	29.2969	63.3625	29.2969	63.0206	29.2969	63.9696	29.2969	63.4602	29.2969	64.7485	29.2969	64.1059	29.2969	65.6329	29.2969	64.9139	29.2969	66.55	29.2969	65.8148	29.2969	67.4368	29.2969	66.7362	29.2969	68.2439	29.2969	67.6157	29.2969	68.9343	29.2969	68.4051	29.2969	69.4809	29.2969	69.0688	29.2969	69.8635	29.2969	69.5815	29.2969	70.0688	29.2969	69.9256	29.2969	70.0897
30.7617	65.4368	30.7617	65.4094	30.7617	65.444	30.7617	65.3709	30.7617	65.4326	30.7617	65.3422	30.7617	65.4153	30.7617	65.355	30.7617	65.4161	30.7617	65.4496	30.7617	65.4691	30.7617	65.6666	30.7617	65.6143	30.7617	66.0352	30.7617	65.8883	30.7617	66.5609	30.7617	66.3123	30.7617	67.2213	30.7617	66.8825	30.7617	67.9731	30.7617	67.5691	30.7617	68.7634	30.7617	68.3257	30.7617	69.5405	30.7617	69.1004	30.7617	70.2592	30.7617	69.8452	30.7617	70.8829	30.7617	70.5199	30.7617	71.3831	30.7617	71.0918	30.7617	71.7389	30.7617	71.5354	30.7617	71.9361	30.7617	71.8315	30.7617	71.9672
32.2266	68.2493	32.2266	68.2354	32.2266	68.2474	32.2266	68.2131	32.2266	68.2307	32.2266	68.1986	32.2266	68.2087	32.2266	68.2162	32.2266	68.1996	32.2266	68.2969	32.2266	68.2298	32.2266	68.4732	32.2266	68.3315	32.2266	68.7712	32.2266	68.5366	32.2266	69.2011	32.2266	68.868	32.2266	69.7513	32.2266	69.3306	32.2266	70.3909	32.2266	69.9075	32.2266	71.0769	32.2266	70.5638	32.2266	71.7634	32.2266	71.2547	32.2266	72.4076	32.2266	71.9349	32.2266	72.9728	32.2266	72.5627	32.2266	73.4291	32.2266	73.103	32.2266	73.7536	32.2266	73.5276	32.2266	73.9306	32.2266	73.815	32.2266	73.9515
33.6914	70.4438	33.6914	70.4396	33.6914	70.4423	33.6914	70.4361	33.6914	70.4361	33.6914	70.4466	33.6914	70.4329	33.6914	70.491	33.6914	70.4478	33.6914	70.5938	33.6914	70.5021	33.6914	70.7799	33.6914	70.6211	33.6914	71.0689	33.6914	70.8294	33.6914	71.4682	33.6914	71.1448	33.6914	71.9691	33.6914	71.5711	33.6914	72.5474	33.6914	72.0955	33.6914	73.1685	33.6914	72.6903	33.6914	73.7934	33.6914	73.3187	33.6914	74.3838	33.6914	73.9413	33.6914	74.9053	33.6914	74.5202	33.6914	75.3289	33.6914	75.0219	33.6914	75.6316	33.6914	75.4183	33.6914	75.7971	33.6914	75.6878	33.6914	75.8163
35.1562	72.6582	35.1562	72.6631	35.1562	72.6553	35.1562	72.6749	35.1562	72.6554	35.1562	72.7043	35.1562	72.6654	35.1562	72.7671	35.1562	72.6979	35.1562	72.8823	35.1562	72.7704	35.1562	73.0693	35.1562	72.903	35.1562	73.3434	35.1562	73.115	35.1562	73.7109	35.1562	73.4195	35.1562	74.1656	35.1562	73.8192	35.1562	74.6893	35.1562	74.3038	35.1562	75.2539	35.1562	74.8505	35.1562	75.8261	35.1562	75.4282	35.1562	76.3716	35.1562	76.0019	35.1562	76.8581	35.1562	76.5371	35.1562	77.2574	35.1562	77.0017	35.1562	77.5462	35.1562	77.3688	35.1562	77.7076	35.1562	77.6168	35.1562	77.7319
36.6211	75.0384	36.6211	75.039	36.6211	75.0441	36.6211	75.0497	36.6211	75.0567	36.6211	75.0789	36.6211	75.0817	36.6211	75.1391	36.6211	75.1288	36.6211	75.2452	36.6211	75.2113	36.6211	75.4126	36.6211	75.3445	36.6211	75.6542	36.6211	75.543	36.6211	75.9762	36.6211	75.8173	36.6211	76.3755	36.6211	76.1703	36.6211	76.8387	36.6211	76.5949	36.6211	77.3433	36.6211	77.074	36.6211	77.8605	36.6211	77.5826	36.6211	78.3591	36.6211	78.091	36.6211	78.8083	36.6211	78.5682	36.6211	79.1803	36.6211	78.9844	36.6211	79.4521	36.6211	79.3137	36.6211	79.607	36.6211	79.5353	36.6211	79.6352
38.0859	77.0728	38.0859	77.0794	38.0859	77.0766	38.0859	77.0996	38.0859	77.0913	38.0859	77.1405	38.0859	77.1213	38.0859	77.2121	38.0859	77.1744	38.0859	77.3264	38.0859	77.2615	38.0859	77.4959	38.0859	77.3949	38.0859	77.7306	38.0859	77.5868	38.0859	78.0356	38.0859	77.8458	38.0859	78.4082	38.0859	78.1747	38.0859	78.8373	38.0859	78.5678	38.0859	79.3037	38.0859	79.0109	38.0859	79.7822	38.0859	79.4821	38.0859	80.2444	38.0859	79.9549	38.0859	80.6616	38.0859	80.4013	38.0859	81.0071	38.0859	80.7934	38.0859	81.2583	38.0859	81.1064	38.0859	81.3989	38.0859	81.32	38.0859	81.4198
39.5508	79.0215	39.5508	79.0282	39.5508	79.0289	39.5508	79.052	39.5508	79.0507	39.5508	79.0985	39.5508	79.09	39.5508	79.1755	39.5508	79.1527	39.5508	79.2926	39.5508	79.247	39.5508	79.4593	39.5508	79.3822	39.5508	79.6831	39.5508	79.5676	39.5508	79.9678	39.5508	79.8099	39.5508	80.3112	39.5508	80.1113	39.5508	80.7038	39.5508	80.4677	39.5508	81.1298	39.5508	80.8679	39.5508	81.5671	39.5508	81.2942	39.5508	81.9908	39.5508	81.7239	39.5508	82.3743	39.5508	82.132	39.5508	82.6928	39.5508	82.4927	39.5508	82.925	39.5508	82.7822	39.5508	83.055	39.5508	82.9806	39.5508	83.0739
41.0156	80.7218	41.0156	80.7368	41.0156	80.7215	41.0156	80.7686	41.0156	80.7364	41.0156	80.8213	41.0156	80.769	41.0156	80.9007	41.0156	80.8239	41.0156	81.0137	41.0156	80.9076	41.0156	81.1675	41.0156	81.0276	41.0156	81.3679	41.0156	81.1912	41.0156	81.6179	41.0156	81.404	41.0156	81.9159	41.0156	81.668	41.0156	82.2548	41.0156	81.9801	41.0156	82.6216	41.0156	82.3311	41.0156	82.9984	41.0156	82.7059	41.0156	83.3638	41.0156	83.0853	41.0156	83.6951	41.0156	83.4472	41.0156	83.9704	41.0156	83.7687	41.0156	84.1707	41.0156	84.0283	41.0156	84.2814	41.0156	84.2078	41.0156	84.2942
42.4805	81.7633	42.4805	81.7845	42.4805	81.7569	42.4805	81.822	42.4805	81.7657	42.4805	81.879	42.4805	81.7918	42.4805	81.9602	42.4805	81.8392	42.4805	82.0712	42.4805	81.9134	42.4805	82.2175	42.4805	82.0207	42.4805	82.4041	42.4805	82.1675	42.4805	82.6335	42.4805	82.359	42.4805	82.905	42.4805	82.5974	42.4805	83.2131	42.4805	82.8808	42.4805	83.5474	42.4805	83.2024	42.4805	83.8927	42.4805	83.55	42.4805	84.2297	42.4805	83.9066	42.4805	84.537	42.4805	84.2516	42.4805	84.7934	42.4805	84.5625	42.4805	84.9792	42.4805	84.817	42.4805	85.0796	42.4805	84.9959	42.4805	85.0856
43.9453	82.5098	43.9453	82.5329	43.9453	82.5017	43.9453	82.572	43.9453	82.509	43.9453	82.6298	43.9453	82.5335	43.9453	82.7099	43.9453	82.5786	43.9453	82.8168	43.9453	82.6485	43.9453	82.9552	43.9453	82.7486	43.9453	83.129	43.9453	82.884	43.9453	83.3404	43.9453	83.0588	43.9453	83.589	43.9453	83.2751	43.9453	83.8702	43.9453	83.532	43.9453	84.1751	43.9453	83.824	43.9453	84.4904	43.9453	84.1415	43.9453	84.7989	43.9453	84.4697	43.9453	85.0808	43.9453	84.7899	43.9453	85.316	43.9453	85.0807	43.9453	85.486	43.9453	85.3207	43.9453	85.5764	43.9453	85.4911	43.9453	85.5785
45.4102	82.8072	45.4102	82.8324	45.4102	82.7993	45.4102	82.8759	45.4102	82.8092	45.4102	82.9393	45.4102	82.8384	45.4102	83.0251	45.4102	82.8893	45.4102	83.1366	45.4102	82.9653	45.4102	83.2768	45.4102	83.0704	45.4102	83.4483	45.4102	83.2083	45.4102	83.6526	45.4102	83.382	45.4102	83.8887	45.4102	83.593	45.4102	84.1528	45.4102	83.8397	45.4102	84.4372	45.4102	84.1172	45.4102	84.7304	45.4102	84.4165	45.4102	85.0174	45.4102	84.7242	45.4102	85.2805	45.4102	85.0231	45.4102	85.5011	45.4102	85.2937	45.4102	85.6617	45.4102	85.5162	45.4102	85.7484	45.4102	85.6733	45.4102	85.7527
46.875	83.0325	46.875	83.0577	46.875	83.0258	46.875	83.102	46.875	83.0382	46.875	83.1662	46.875	83.0705	46.875	83.2521	46.875	83.1245	46.875	83.3615	46.875	83.2025	46.875	83.4966	46.875	83.307	46.875	83.6589	46.875	83.4405	46.875	83.8493	46.875	83.6049	46.875	84.0669	46.875	83.801	46.875	84.3084	46.875	84.0274	46.875	84.5672	46.875	84.2797	46.875	84.8335	46.875	84.5503	46.875	85.0939	46.875	84.8278	46.875	85.3326	46.875	85.0972	46.875	85.5327	46.875	85.3416	46.875	85.6781	46.875	85.5432	46.875	85.7561	46.875	85.6862	46.875	85.7591
48.3398	83.0647	48.3398	83.0872	48.3398	83.061	48.3398	83.1289	48.3398	83.0765	48.3398	83.1902	48.3398	83.1117	48.3398	83.2721	48.3398	83.1675	48.3398	83.3757	48.3398	83.2452	48.3398	83.502	48.3398	83.3463	48.3398	83.6521	48.3398	83.4723	48.3398	83.8262	48.3398	83.6245	48.3398	84.0235	48.3398	83.803	48.3398	84.2411	48.3398	84.0067	48.3398	84.4739	48.3398	84.2324	48.3398	84.7133	48.3398	84.4737	48.3398	84.948	48.3398	84.7213	48.3398	85.164	48.3398	84.9623	48.3398	85.3459	48.3398	85.1814	48.3398	85.4791	48.3398	85.3626	48.3398	85.5514	48.3398	85.4911	48.3398	85.5558
51.2695	82.9891	51.2695	83.0159	51.2695	82.9815	51.2695	83.0614	51.2695	82.9931	51.2695	83.1253	51.2695	83.024	51.2695	83.2073	51.2695	83.0744	51.2695	83.307	51.2695	83.1442	51.2695	83.4238	51.2695	83.2336	51.2695	83.5573	51.2695	83.3428	51.2695	83.7069	51.2695	83.472	51.2695	83.8714	51.2695	83.6208	51.2695	84.0488	51.2695	83.7885	51.2695	84.2352	51.2695	83.9727	51.2695	84.425	51.2695	84.1693	51.2695	84.6099	51.2695	84.3717	51.2695	84.7793	51.2695	84.5701	51.2695	84.9212	51.2695	84.7523	51.2695	85.0237	51.2695	84.905	51.2695	85.0768	51.2695	85.0155	51.2695	85.0744
52.7344	82.9369	52.7344	82.9656	52.7344	82.9269	52.7344	83.0124	52.7344	82.9356	52.7344	83.0767	52.7344	82.963	52.7344	83.1576	52.7344	83.0089	52.7344	83.2543	52.7344	83.073	52.7344	83.3658	52.7344	83.1551	52.7344	83.4909	52.7344	83.2548	52.7344	83.6288	52.7344	83.3719	52.7344	83.7781	52.7344	83.506	52.7344	83.9369	52.7344	83.6564	52.7344	84.1021	52.7344	83.8213	52.7344	84.2691	52.7344	83.9975	52.7344	84.431	52.7344	84.1797	52.7344	84.579	52.7344	84.3597	52.7344	84.7025	52.7344	84.5264	52.7344	84.7908	52.7344	84.6675	52.7344	84.8347	52.7344	84.7712	52.7344	84.8285
54.1992	82.9331	54.1992	82.9644	54.1992	82.9201	54.1992	83.0136	54.1992	82.9257	54.1992	83.0796	54.1992	82.9496	54.1992	83.1613	54.1992	82.9915	54.1992	83.2571	54.1992	83.0507	54.1992	83.3657	54.1992	83.1266	54.1992	83.4857	54.1992	83.2185	54.1992	83.6157	54.1992	83.3261	54.1992	83.7543	54.1992	83.4489	54.1992	83.8999	54.1992	83.5865	54.1992	84.0498	54.1992	83.7378	54.1992	84.2001	54.1992	83.9006	54.1992	84.3452	54.1992	84.0704	54.1992	84.4772	54.1992	84.2396	54.1992	84.5868	54.1992	84.3977	54.1992	84.6641	54.1992	84.5327	54.1992	84.7005	54.1992	84.6331	54.1992	84.6905
55.6641	83.0112	55.6641	83.0382	55.6641	83.0025	55.6641	83.0825	55.6641	83.0122	55.6641	83.143	55.6641	83.0403	55.6641	83.2182	55.6641	83.0862	55.6641	83.3065	55.6641	83.1491	55.6641	83.4063	55.6641	83.2279	55.6641	83.5159	55.6641	83.3216	55.6641	83.6339	55.6641	83.4291	55.6641	83.759	55.6641	83.5494	55.6641	83.8897	55.6641	83.6814	55.6641	84.024	55.6641	83.8235	55.6641	84.159	55.6641	83.9728	55.6641	84.2902	55.6641	84.1248	55.6641	84.4114	55.6641	84.2722	55.6641	84.5145	55.6641	84.406	55.6641	84.5908	55.6641	84.5165	55.6641	84.6326	55.6641	84.5948	55.6641	84.6344
58.5938	83.0642	58.5938	83.0818	58.5938	83.0651	58.5938	83.117	58.5938	83.0845	58.5938	83.1683	58.5938	83.1217	58.5938	83.234	58.5938	83.1757	58.5938	83.3116	58.5938	83.2446	58.5938	83.3989	58.5938	83.3265	58.5938	83.4935	58.5938	83.4191	58.5938	83.5935	58.5938	83.5202	58.5938	83.6969	58.5938	83.6278	58.5938	83.8024	58.5938	83.7397	58.5938	83.9083	58.5938	83.8537	58.5938	84.0126	58.5938	83.9668	58.5938	84.1128	58.5938	84.0758	58.5938	84.2051	58.5938	84.1763	58.5938	84.2847	58.5938	84.2635	58.5938	84.3462	58.5938	84.3321	58.5938	84.3842	58.5938	84.3772	58.5938	84.395
60.0586	83.2113	60.0586	83.2263	60.0586	83.2146	60.0586	83.2587	60.0586	83.2361	60.0586	83.3071	60.0586	83.275	60.0586	83.3691	60.0586	83.3295	60.0586	83.4422	60.0586	83.3977	60.0586	83.5236	60.0586	83.4767	60.0586	83.6103	60.0586	83.564	60.0586	83.7	60.0586	83.6567	60.0586	83.7905	60.0586	83.7523	60.0586	83.8802	60.0586	83.8484	60.0586	83.9679	60.0586	83.943	60.0586	84.0525	60.0586	84.034	60.0586	84.1324	60.0586	84.1195	60.0586	84.2055	60.0586	84.1968	60.0586	84.2686	60.0586	84.2629	60.0586	84.3178	60.0586	84.3143	60.0586	84.349	60.0586	84.3473	60.0586	84.3592
62.9883	83.4345	62.9883	83.4441	62.9883	83.442	62.9883	83.4699	62.9883	83.4662	62.9883	83.5104	62.9883	83.506	62.9883	83.5633	62.9883	83.5593	62.9883	83.6257	62.9883	83.6234	62.9883	83.6942	62.9883	83.6951	62.9883	83.7659	62.9883	83.7712	62.9883	83.8379	62.9883	83.8485	62.9883	83.9077	62.9883	83.9241	62.9883	83.974	62.9883	83.9958	62.9883	84.0357	62.9883	84.0619	62.9883	84.0927	62.9883	84.1214	62.9883	84.1449	62.9883	84.1738	62.9883	84.1918	62.9883	84.2184	62.9883	84.2324	62.9883	84.2545	62.9883	84.2649	62.9883	84.2807	62.9883	84.2873	62.9883	84.2955	62.9883	84.2978
64.4531	83.5165	64.4531	83.524	64.4531	83.5253	64.4531	83.5471	64.4531	83.5502	64.4531	83.5841	64.4531	83.5899	64.4531	83.6326	64.4531	83.6422	64.4531	83.6895	64.4531	83.7043	64.4531	83.7515	64.4531	83.7729	64.4531	83.8155	64.4531	83.8443	64.4531	83.8784	64.4531	83.9151	64.4531	83.938	64.4531	83.9823	64.4531	83.9927	64.4531	84.0433	64.4531	84.0417	64.4531	84.0966	64.4531	84.0852	64.4531	84.1415	64.4531	84.1235	64.4531	84.1778	64.4531	84.1572	64.4531	84.206	64.4531	84.1864	64.4531	84.2264	64.4531	84.2107	64.4531	84.239	64.4531	84.2291	64.4531	84.2437	64.4531	84.2403
67.3828	83.7252	67.3828	83.7248	67.3828	83.7397	67.3828	83.7379	67.3828	83.7679	67.3828	83.7631	67.3828	83.8081	67.3828	83.7982	67.3828	83.8582	67.3828	83.8402	67.3828	83.9151	67.3828	83.8857	67.3828	83.9752	67.3828	83.9315	67.3828	84.0349	67.3828	83.9744	67.3828	84.0903	67.3828	84.0119	67.3828	84.1383	67.3828	84.0426	67.3828	84.1764	67.3828	84.0661	67.3828	84.203	67.3828	84.0834	67.3828	84.2179	67.3828	84.0962	67.3828	84.2222	67.3828	84.107	67.3828	84.2178	67.3828	84.1179	67.3828	84.2073	67.3828	84.1302	67.3828	84.193	67.3828	84.1445	67.3828	84.1768	67.3828	84.1603
68.8477	83.8539	68.8477	83.8484	68.8477	83.8732	68.8477	83.8565	68.8477	83.9057	68.8477	83.8768	68.8477	83.9496	68.8477	83.907	68.8477	84.0022	68.8477	83.9442	68.8477	84.0603	68.8477	83.9849	68.8477	84.1199	68.8477	84.0256	68.8477	84.1771	68.8477	84.063	68.8477	84.2282	68.8477	84.0948	68.8477	84.2699	68.8477	84.1193	68.8477	84.2997	68.8477	84.1364	68.8477	84.3166	68.8477	84.1472	68.8477	84.3208	68.8477	84.154	68.8477	84.3141	68.8477	84.1597	68.8477	84.2989	68.8477	84.1669	68.8477	84.2785	68.8477	84.1776	68.8477	84.2556	68.8477	84.1924	68.8477	84.2325	68.8477	84.211
71.7773	84.2634	71.7773	84.2464	71.7773	84.2923	71.7773	84.2412	71.7773	84.3322	71.7773	84.2466	71.7773	84.3813	71.7773	84.2606	71.7773	84.4366	71.7773	84.2804	71.7773	84.4946	71.7773	84.3027	71.7773	84.5514	71.7773	84.324	71.7773	84.6026	71.7773	84.3413	71.7773	84.6442	71.7773	84.3523	71.7773	84.6726	71.7773	84.3556	71.7773	84.6854	71.7773	84.3516	71.7773	84.6814	71.7773	84.3421	71.7773	84.6611	71.7773	84.3306	71.7773	84.6266	71.7773	84.3213	71.7773	84.5815	71.7773	84.3189	71.7773	84.5297	71.7773	84.327	71.7773	84.476	71.7773	84.3478	71.7773	84.4251	71.7773	84.3811
74.707	84.4748	74.707	84.4679	74.707	84.4946	74.707	84.4731	74.707	84.5268	74.707	84.4887	74.707	84.5702	74.707	84.5121	74.707	84.6224	74.707	84.54	74.707	84.6799	74.707	84.5687	74.707	84.7389	74.707	84.5945	74.707	84.7947	74.707	84.6139	74.707	84.8429	74.707	84.6244	74.707	84.8789	74.707	84.6246	74.707	84.8992	74.707	84.6147	74.707	84.9016	74.707	84.5969	74.707	84.8853	74.707	84.5751	74.707	84.8515	74.707	84.5546	74.707	84.8034	74.707	84.5411	74.707	84.7461	74.707	84.5398	74.707	84.6861	74.707	84.554	74.707	84.6303	74.707	84.5848
77.6367	84.6563	77.6367	84.659	77.6367	84.667	77.6367	84.6741	77.6367	84.6907	77.6367	84.6998	77.6367	84.7262	77.6367	84.7333	77.6367	84.771	77.6367	84.771	77.6367	84.8217	77.6367	84.8086	77.6367	84.8743	77.6367	84.8418	77.6367	84.9239	77.6367	84.8664	77.6367	84.9656	77.6367	84.879	77.6367	84.995	77.6367	84.8774	77.6367	85.0081	77.6367	84.8612	77.6367	85.0027	77.6367	84.8319	77.6367	84.9784	77.6367	84.7935	77.6367	84.9372	77.6367	84.7519	77.6367	84.8835	77.6367	84.7141	77.6367	84.8238	77.6367	84.6873	77.6367	84.7663	77.6367	84.6776	77.6367	84.7189	77.6367	84.6881
79.1016	84.7957	79.1016	84.8002	79.1016	84.8035	79.1016	84.8163	79.1016	84.8235	79.1016	84.842	79.1016	84.8544	79.1016	84.8745	79.1016	84.8939	79.1016	84.9102	79.1016	84.9387	79.1016	84.9448	79.1016	84.9847	79.1016	84.974	79.1016	85.0274	79.1016	84.9936	79.1016	85.0621	79.1016	84.9999	79.1016	85.0842	79.1016	84.9909	79.1016	85.0899	79.1016	84.9659	79.1016	85.0771	79.1016	84.9267	79.1016	85.0452	79.1016	84.8775	79.1016	84.9965	79.1016	84.8247	79.1016	84.9358	79.1016	84.7762	79.1016	84.8702	79.1016	84.7402	79.1016	84.8086	79.1016	84.7235	79.1016	84.7595	79.1016	84.7299
82.0312	85.0964	82.0312	85.1073	82.0312	85.0956	82.0312	85.1271	82.0312	85.1047	82.0312	85.1538	82.0312	85.1228	82.0312	85.1848	82.0312	85.1478	82.0312	85.2165	82.0312	85.1767	82.0312	85.2449	82.0312	85.2058	82.0312	85.2658	82.0312	85.231	82.0312	85.2754	82.0312	85.2478	82.0312	85.2705	82.0312	85.2523	82.0312	85.2487	82.0312	85.2412	82.0312	85.2099	82.0312	85.2128	82.0312	85.1558	82.0312	85.1675	82.0312	85.0905	82.0312	85.1082	82.0312	85.0205	82.0312	85.0406	82.0312	84.9542	82.0312	84.973	82.0312	84.9001	82.0312	84.9145	82.0312	84.8658	82.0312	84.8736	82.0312	84.8565
84.9609	85.342	84.9609	85.3524	84.9609	85.3393	84.9609	85.3696	84.9609	85.3445	84.9609	85.3918	84.9609	85.3562	84.9609	85.4162	84.9609	85.3727	84.9609	85.4392	84.9609	85.3909	84.9609	85.4569	84.9609	85.4073	84.9609	85.4651	84.9609	85.4178	84.9609	85.46	84.9609	85.4183	84.9609	85.4383	84.9609	85.4052	84.9609	85.3984	84.9609	85.3759	84.9609	85.3403	84.9609	85.3294	84.9609	85.2665	84.9609	85.2669	84.9609	85.1822	84.9609	85.1923	84.9609	85.095	84.9609	85.1117	84.9609	85.0142	84.9609	85.0333	84.9609	84.9496	84.9609	84.9662	84.9609	84.9095	84.9609	84.9192	84.9609	84.8991
87.8906	85.3542	87.8906	85.3591	87.8906	85.359	87.8906	85.3729	87.8906	85.3734	87.8906	85.3938	87.8906	85.3962	87.8906	85.4189	87.8906	85.4252	87.8906	85.4447	87.8906	85.4573	87.8906	85.4669	87.8906	85.4884	87.8906	85.481	87.8906	85.5141	87.8906	85.4826	87.8906	85.5296	87.8906	85.468	87.8906	85.5303	87.8906	85.4348	87.8906	85.5127	87.8906	85.3827	87.8906	85.4746	87.8906	85.3139	87.8906	85.4161	87.8906	85.2338	87.8906	85.34	87.8906	85.1503	87.8906	85.2524	87.8906	85.0735	87.8906	85.1621	87.8906	85.0143	87.8906	85.0799	87.8906	84.9822	87.8906	85.0171	87.8906	84.9829
90.8203	85.5787	90.8203	85.5882	90.8203	85.5771	90.8203	85.6048	90.8203	85.5833	90.8203	85.6271	90.8203	85.5965	90.8203	85.6526	90.8203	85.6151	90.8203	85.6781	90.8203	85.6365	90.8203	85.6998	90.8203	85.6573	90.8203	85.7129	90.8203	85.6736	90.8203	85.7128	90.8203	85.6808	90.8203	85.6953	90.8203	85.6746	90.8203	85.6576	90.8203	85.6511	90.8203	85.5988	90.8203	85.6079	90.8203	85.5208	90.8203	85.5448	90.8203	85.4289	90.8203	85.4645	90.8203	85.3317	90.8203	85.3733	90.8203	85.2402	90.8203	85.2807	90.8203	85.1664	90.8203	85.1986	90.8203	85.1213	90.8203	85.1391	90.8203	85.1117
95.2148	85.8157	95.2148	85.8297	95.2148	85.8021	95.2148	85.8433	95.2148	85.7895	95.2148	85.8552	95.2148	85.7778	95.2148	85.8637	95.2148	85.7662	95.2148	85.8667	95.2148	85.7535	95.2148	85.8616	95.2148	85.7377	95.2148	85.8455	95.2148	85.716	95.2148	85.8157	95.2148	85.6857	95.2148	85.7696	95.2148	85.6438	95.2148	85.7059	95.2148	85.5884	95.2148	85.6247	95.2148	85.519	95.2148	85.5283	95.2148	85.4369	95.2148	85.4215	95.2148	85.3463	95.2148	85.3121	95.2148	85.2538	95.2148	85.2097	95.2148	85.1679	95.2148	85.1249	95.2148	85.0984	95.2148	85.0672	95.2148	85.0545	95.2148	85.0431
98.1445	86.0691	98.1445	86.0782	98.1445	86.0569	98.1445	86.0838	98.1445	86.0412	98.1445	86.085	98.1445	86.0213	98.1445	86.0802	98.1445	85.996	98.1445	86.067	98.1445	85.9639	98.1445	86.0422	98.1445	85.9228	98.1445	86.0022	98.1445	85.8703	98.1445	85.9436	98.1445	85.8039	98.1445	85.8635	98.1445	85.7213	98.1445	85.7602	98.1445	85.6212	98.1445	85.6342	98.1445	85.5041	98.1445	85.489	98.1445	85.3727	98.1445	85.3313	98.1445	85.2329	98.1445	85.1716	98.1445	85.0935	98.1445	85.023	98.1445	84.966	98.1445	84.9003	98.1445	84.8637	98.1445	84.8169	98.1445	84.7992	98.1445	84.7822
101.074	86.233	101.074	86.2433	101.074	86.2148	101.074	86.246	101.074	86.1884	101.074	86.241	101.074	86.1532	101.074	86.2272	101.074	86.1082	101.074	86.203	101.074	86.0522	101.074	86.1656	101.074	85.9835	101.074	86.1116	101.074	85.8998	101.074	86.037	101.074	85.7985	101.074	85.938	101.074	85.6773	101.074	85.8118	101.074	85.5352	101.074	85.6576	101.074	85.3731	101.074	85.4779	101.074	85.1957	101.074	85.2789	101.074	85.0113	101.074	85.0716	101.074	84.8326	101.074	84.8716	101.074	84.6757	101.074	84.6974	101.074	84.558	101.074	84.5679	101.074	84.4953	101.074	84.498
105.469	86.1146	105.469	86.0939	105.469	86.1369	105.469	86.074	105.469	86.1608	105.469	86.0529	105.469	86.1852	105.469	86.0275	105.469	86.208	105.469	85.9941	105.469	86.2266	105.469	85.9486	105.469	86.2373	105.469	85.887	105.469	86.2359	105.469	85.8063	105.469	86.2177	105.469	85.705	105.469	86.1781	105.469	85.5845	105.469	86.1132	105.469	85.4493	105.469	86.0203	105.469	85.3077	105.469	85.8996	105.469	85.1714	105.469	85.7545	105.469	85.0542	105.469	85.5919	105.469	84.9702	105.469	85.4223	105.469	84.931	105.469	85.2588	105.469	84.9433	105.469	85.1158	105.469	85.007
108.398	86.4849	108.398	86.479	108.398	86.485	108.398	86.4672	108.398	86.4786	108.398	86.4486	108.398	86.4647	108.398	86.4217	108.398	86.4419	108.398	86.3838	108.398	86.4087	108.398	86.3317	108.398	86.3639	108.398	86.262	108.398	86.3061	108.398	86.1715	108.398	86.2345	108.398	86.0583	108.398	86.1478	108.398	85.9226	108.398	86.0453	108.398	85.7675	108.398	85.926	108.398	85.5998	108.398	85.7903	108.398	85.4298	108.398	85.6406	108.398	85.271	108.398	85.4829	108.398	85.1381	108.398	85.3275	108.398	85.0453	108.398	85.1881	108.398	85.0026	108.398	85.0795	108.398	85.0148
112.793	86.811	112.793	86.8234	112.793	86.7878	112.793	86.8241	112.793	86.7544	112.793	86.8118	112.793	86.7108	112.793	86.7849	112.793	86.6562	112.793	86.7415	112.793	86.5896	112.793	86.6791	112.793	86.5091	112.793	86.5952	112.793	86.413	112.793	86.4876	112.793	86.2995	112.793	86.355	112.793	86.1678	112.793	86.1979	112.793	86.0182	112.793	86.019	112.793	85.853	112.793	85.8243	112.793	85.6769	112.793	85.623	112.793	85.4975	112.793	85.4273	112.793	85.3256	112.793	85.2512	112.793	85.1741	112.793	85.1089	112.793	85.057	112.793	85.0126	112.793	84.9864	112.793	84.9707
117.188	86.5777	117.188	86.5681	117.188	86.5785	117.188	86.5503	117.188	86.5698	117.188	86.5251	117.188	86.5508	117.188	86.4922	117.188	86.521	117.188	86.4508	117.188	86.4793	117.188	86.3988	117.188	86.4245	117.188	86.3333	117.188	86.3542	117.188	86.251	117.188	86.2661	117.188	86.149	117.188	86.158	117.188	86.0259	117.188	86.0289	117.188	85.8826	117.188	85.8805	117.188	85.7231	117.188	85.7172	117.188	85.5551	117.188	85.5471	117.188	85.3894	117.188	85.3811	117.188	85.2392	117.188	85.2322	117.188	85.1185	117.188	85.1137	117.188	85.0398	117.188	85.0374	117.188	85.0117
120.117	86.6393	120.117	86.6203	120.117	86.6453	120.117	86.5896	120.117	86.6375	120.117	86.5486	120.117	86.6156	120.117	86.4983	120.117	86.5798	120.117	86.4391	120.117	86.5302	120.117	86.3701	120.117	86.4667	120.117	86.2896	120.117	86.3887	120.117	86.1954	120.117	86.2948	120.117	86.0853	120.117	86.1838	120.117	85.9582	120.117	86.055	120.117	85.8152	120.117	85.9096	120.117	85.6603	120.117	85.7512	120.117	85.5008	120.117	85.5865	120.117	85.347	120.117	85.425	120.117	85.2117	120.117	85.2778	120.117	85.108	120.117	85.1568	120.117	85.0469	120.117	85.0731	120.117	85.035
124.512	86.8348	124.512	86.7868	124.512	86.8662	124.512	86.7227	124.512	86.8805	124.512	86.6436	124.512	86.8774	124.512	86.5503	124.512	86.8565	124.512	86.4442	124.512	86.8174	124.512	86.326	124.512	86.7589	124.512	86.1966	124.512	86.6798	124.512	86.0571	124.512	86.5788	124.512	85.9093	124.512	86.4551	124.512	85.7565	124.512	86.3093	124.512	85.6033	124.512	86.1442	124.512	85.4563	124.512	85.9652	124.512	85.3235	124.512	85.7805	124.512	85.2129	124.512	85.6	124.512	85.1317	124.512	85.4342	124.512	85.0855	124.512	85.2927	124.512	85.078	124.512	85.1832	124.512	85.1108
128.906	86.8246	128.906	86.7818	128.906	86.8499	128.906	86.7207	128.906	86.8586	128.906	86.6408	128.906	86.8519	128.906	86.5419	128.906	86.8304	128.906	86.4239	128.906	86.7944	128.906	86.2871	128.906	86.7434	128.906	86.1319	128.906	86.6762	128.906	85.9595	128.906	86.5906	128.906	85.7728	128.906	86.4848	128.906	85.5769	128.906	86.3573	128.906	85.3807	128.906	86.2083	128.906	85.1962	128.906	86.0401	128.906	85.0378	128.906	85.8572	128.906	84.92	128.906	85.6663	128.906	84.8539	128.906	85.475	128.906	84.8452	128.906	85.292	128.906	84.8929	128.906	85.1268	128.906	84.9901
133.301	86.9176	133.301	86.9323	133.301	86.8804	133.301	86.9225	133.301	86.8234	133.301	86.8871	133.301	86.7499	133.301	86.8259	133.301	86.6635	133.301	86.7392	133.301	86.5679	133.301	86.628	133.301	86.466	133.301	86.4938	133.301	86.3602	133.301	86.3382	133.301	86.2512	133.301	86.1638	133.301	86.1385	133.301	85.9748	133.301	86.0208	133.301	85.7774	133.301	85.8969	133.301	85.5811	133.301	85.7663	133.301	85.3981	133.301	85.6306	133.301	85.2421	133.301	85.4935	133.301	85.1256	133.301	85.3607	133.301	85.0571	133.301	85.2396	133.301	85.0394	133.301	85.1392	133.301	85.0693
139.16	86.8155	139.16	86.8258	139.16	86.7807	139.16	86.813	139.16	86.7206	139.16	86.7791	139.16	86.6358	139.16	86.7262	139.16	86.5275	139.16	86.656	139.16	86.3983	139.16	86.5696	139.16	86.2514	139.16	86.4671	139.16	86.0908	139.16	86.3481	139.16	85.9211	139.16	86.2119	139.16	85.7476	139.16	86.0588	139.16	85.5759	139.16	85.8907	139.16	85.4122	139.16	85.7124	139.16	85.2629	139.16	85.532	139.16	85.1339	139.16	85.3597	139.16	85.0303	139.16	85.2061	139.16	84.9561	139.16	85.0799	139.16	84.9134	139.16	84.9864	139.16	84.9036	139.16	84.9277
143.555	86.9165	143.555	86.8553	143.555	86.9475	143.555	86.7648	143.555	86.9485	143.555	86.6473	143.555	86.9203	143.555	86.5063	143.555	86.864	143.555	86.3465	143.555	86.7811	143.555	86.174	143.555	86.6728	143.555	85.9953	143.555	86.5404	143.555	85.8172	143.555	86.3855	143.555	85.6463	143.555	86.2108	143.555	85.4882	143.555	86.0206	143.555	85.3472	143.555	85.8217	143.555	85.2262	143.555	85.6235	143.555	85.1263	143.555	85.4371	143.555	85.0478	143.555	85.2732	143.555	84.9902	143.555	85.14	143.555	84.953	143.555	85.0415	143.555	84.9368	143.555	84.9772	143.555	84.9437
147.949	87.1918	147.949	87.1833	147.949	87.1593	147.949	87.1321	147.949	87.0883	147.949	87.0382	147.949	86.9828	147.949	86.9025	147.949	86.8474	147.949	86.7277	147.949	86.6873	147.949	86.5181	147.949	86.5081	147.949	86.2797	147.949	86.3148	147.949	86.0204	147.949	86.1116	147.949	85.7504	147.949	85.9017	147.949	85.4817	147.949	85.6883	147.949	85.2279	147.949	85.4753	147.949	85.0027	147.949	85.2681	147.949	84.8176	147.949	85.0744	147.949	84.6794	147.949	84.9029	147.949	84.588	147.949	84.7611	147.949	84.5383	147.949	84.6532	147.949	84.5229	147.949	84.5795	147.949	84.5369
153.809	87.1491	153.809	87.1526	153.809	87.1067	153.809	87.1176	153.809	87.0252	153.809	87.0442	153.809	86.9047	153.809	86.9324	153.809	86.7459	153.809	86.7824	153.809	86.5505	153.809	86.5953	153.809	86.3216	153.809	86.3737	153.809	86.0648	153.809	86.123	153.809	85.7878	153.809	85.8516	153.809	85.5009	153.809	85.571	153.809	85.2166	153.809	85.2945	153.809	84.948	153.809	85.0358	153.809	84.7079	153.809	84.8056	153.809	84.5063	153.809	84.6102	153.809	84.3496	153.809	84.4511	153.809	84.2403	153.809	84.3269	153.809	84.1774	153.809	84.236	153.809	84.1582	153.809	84.179
159.668	87.174	159.668	87.1646	159.668	87.1507	159.668	87.1241	159.668	87.093	159.668	87.0535	159.668	86.9998	159.668	86.9531	159.668	86.8708	159.668	86.8218	159.668	86.7067	159.668	86.658	159.668	86.5094	159.668	86.4604	159.668	86.2825	159.668	86.2297	159.668	86.0314	159.668	85.9705	159.668	85.7644	159.668	85.693	159.668	85.493	159.668	85.4131	159.668	85.2317	159.668	85.151	159.668	84.9963	159.668	84.9262	159.668	84.8013	159.668	84.752	159.668	84.6557	159.668	84.631	159.668	84.5608	159.668	84.5558	159.668	84.5096	159.668	84.5136	159.668	84.4906	159.668	84.4933
165.527	87.0575	165.527	87.0358	165.527	87.0394	165.527	86.9794	165.527	86.9764	165.527	86.8933	165.527	86.8645	165.527	86.7816	165.527	86.7009	165.527	86.6469	165.527	86.4855	165.527	86.4902	165.527	86.2223	165.527	86.3116	165.527	85.9199	165.527	86.1107	165.527	85.5929	165.527	85.8888	165.527	85.2609	165.527	85.6504	165.527	84.9457	165.527	85.4043	165.527	84.668	165.527	85.1631	165.527	84.4428	165.527	84.9402	165.527	84.2777	165.527	84.7455	165.527	84.1733	165.527	84.5821	165.527	84.1253	165.527	84.4464	165.527	84.1263	165.527	84.3327	165.527	84.1673	165.527	84.2387
171.387	86.7534	171.387	86.5935	171.387	86.8738	171.387	86.3981	171.387	86.9509	171.387	86.1722	171.387	86.9809	171.387	85.9231	171.387	86.9597	171.387	85.6604	171.387	86.8824	171.387	85.3966	171.387	86.7446	171.387	85.1462	171.387	86.5428	171.387	84.9238	171.387	86.2775	171.387	84.7412	171.387	85.9552	171.387	84.6051	171.387	85.5921	171.387	84.5146	171.387	85.2152	171.387	84.4617	171.387	84.8601	171.387	84.433	171.387	84.5628	171.387	84.4132	171.387	84.3489	171.387	84.3889	171.387	84.2257	171.387	84.3516	171.387	84.1823	171.387	84.3004	171.387	84.1966	171.387	84.2434
177.246	86.915	177.246	86.8863	177.246	86.8948	177.246	86.802	177.246	86.8327	177.246	86.6565	177.246	86.736	177.246	86.4459	177.246	86.6111	177.246	86.1688	177.246	86.4635	177.246	85.8274	177.246	86.2967	177.246	85.4296	177.246	86.1128	177.246	84.9922	177.246	85.9135	177.246	84.5428	177.246	85.7022	177.246	84.1215	177.246	85.4856	177.246	83.7768	177.246	85.2753	177.246	83.5551	177.246	85.0857	177.246	83.4833	177.246	84.9298	177.246	83.556	177.246	84.8119	177.246	83.7355	177.246	84.7232	177.246	83.9675	177.246	84.6417	177.246	84.1995	177.246	84.5398	177.246	84.3949
183.105	86.717	183.105	86.7409	183.105	86.6441	183.105	86.7133	183.105	86.5236	183.105	86.6313	183.105	86.3573	183.105	86.4918	183.105	86.1475	183.105	86.2923	183.105	85.8981	183.105	86.0331	183.105	85.6149	183.105	85.7186	183.105	85.3063	183.105	85.3599	183.105	84.9839	183.105	84.976	183.105	84.6632	183.105	84.5945	183.105	84.3648	183.105	84.2497	183.105	84.1127	183.105	83.9763	183.105	83.9291	183.105	83.7991	183.105	83.8262	183.105	83.7227	183.105	83.7981	183.105	83.7287	183.105	83.8214	183.105	83.7822	183.105	83.8628	183.105	83.8447	183.105	83.8909	183.105	83.8859
188.965	86.9369	188.965	86.9404	188.965	86.8779	188.965	86.8922	188.965	86.7582	188.965	86.7939	188.965	86.5727	188.965	86.6454	188.965	86.3169	188.965	86.4448	188.965	85.9893	188.965	86.1899	188.965	85.593	188.965	85.8808	188.965	85.1377	188.965	85.5227	188.965	84.6417	188.965	85.1292	188.965	84.133	188.965	84.7236	188.965	83.6502	188.965	84.3367	188.965	83.2395	188.965	84.0006	188.965	82.9457	188.965	83.7378	188.965	82.7953	188.965	83.5547	188.965	82.7828	188.965	83.4391	188.965	82.8694	188.965	83.3665	188.965	83.0014	188.965	83.3071	188.965	83.1316	188.965	83.2342
196.289	87.0028	196.289	86.9423	196.289	87.0144	196.289	86.8333	196.289	86.9744	196.289	86.675	196.289	86.8774	196.289	86.4663	196.289	86.7156	196.289	86.2067	196.289	86.4799	196.289	85.8986	196.289	86.1637	196.289	85.5486	196.289	85.7652	196.289	85.17	196.289	85.2923	196.289	84.7845	196.289	84.7653	196.289	84.422	196.289	84.2188	196.289	84.115	196.289	83.7008	196.289	83.8885	196.289	83.2674	196.289	83.7475	196.289	82.9699	196.289	83.672	196.289	82.8352	196.289	83.6246	196.289	82.8521	196.289	83.5658	196.289	82.9761	196.289	83.4685	196.289	83.1505	196.289	83.3256
203.613	86.9314	203.613	86.8205	203.613	86.9865	203.613	86.6528	203.613	86.9871	203.613	86.4286	203.613	86.9325	203.613	86.1501	203.613	86.8184	203.613	85.8211	203.613	86.6353	203.613	85.447	203.613	86.3694	203.613	85.0359	203.613	86.0063	203.613	84.6013	203.613	85.5382	203.613	84.167	203.613	84.9739	203.613	83.7705	203.613	84.3496	203.613	83.4581	203.613	83.7336	203.613	83.2682	203.613	83.2158	203.613	83.2079	203.613	82.8755	203.613	83.2441	203.613	82.7428	203.613	83.3178	203.613	82.7863	203.613	83.3697	203.613	82.9363	203.613	83.359	203.613	83.1179	203.613	83.2712
210.938	87.2154	210.938	87.1372	210.938	87.2319	210.938	86.9922	210.938	87.1906	210.938	86.7741	210.938	87.0951	210.938	86.4754	210.938	86.9489	210.938	86.0885	210.938	86.755	210.938	85.6083	210.938	86.5141	210.938	85.0359	210.938	86.2222	210.938	84.3853	210.938	85.87	210.938	83.692	210.938	85.4472	210.938	83.0223	210.938	84.9536	210.938	82.4724	210.938	84.4134	210.938	82.1428	210.938	83.8853	210.938	82.0859	210.938	83.4535	210.938	82.2653	210.938	83.1908	210.938	82.5737	210.938	83.111	210.938	82.8903	210.938	83.1557	210.938	83.1251	210.938	83.2272	210.938	83.2351
218.262	86.9743	218.262	86.9666	218.262	86.9352	218.262	86.9052	218.262	86.8525	218.262	86.7801	218.262	86.7254	218.262	86.5795	218.262	86.5493	218.262	86.2912	218.262	86.3173	218.262	85.9057	218.262	86.0232	218.262	85.4205	218.262	85.6658	218.262	84.8457	218.262	85.2529	218.262	84.2112	218.262	84.8048	218.262	83.5724	218.262	84.3529	218.262	83.0077	218.262	83.9361	218.262	82.5993	218.262	83.5927	218.262	82.398	218.262	83.3509	218.262	82.3958	218.262	83.2177	218.262	82.5335	218.262	83.1716	218.262	82.7332	218.262	83.1659	218.262	82.9272	218.262	83.1458	218.262	83.0705
225.586	87.538	225.586	87.5936	225.586	87.423	225.586	87.5858	225.586	87.2494	225.586	87.5073	225.586	87.016	225.586	87.348	225.586	86.7199	225.586	87.0966	225.586	86.3573	225.586	86.7424	225.586	85.9239	225.586	86.2796	225.586	85.4161	225.586	85.7126	225.586	84.8362	225.586	85.0657	225.586	84.2028	225.586	84.3935	225.586	83.5635	225.586	83.7859	225.586	83.0029	225.586	83.3484	225.586	82.6224	225.586	83.1494	225.586	82.4866	225.586	83.1693	225.586	82.5786	225.586	83.3107	225.586	82.8141	225.586	83.4593	225.586	83.0932	225.586	83.5324	225.586	83.3365	225.586	83.4918
232.91	87.7841	232.91	87.7628	232.91	87.7389	232.91	87.6775	232.91	87.6228	232.91	87.5286	232.91	87.4297	232.91	87.3142	232.91	87.1516	232.91	87.0289	232.91	86.7796	232.91	86.6643	232.91	86.306	232.91	86.2105	232.91	85.7278	232.91	85.6607	232.91	85.0516	232.91	85.0195	232.91	84.3001	232.91	84.3164	232.91	83.5229	232.91	83.6195	232.91	82.8076	232.91	83.0349	232.91	82.2755	232.91	82.6703	232.91	82.033	232.91	82.5681	232.91	82.0948	232.91	82.67	232.91	82.3603	232.91	82.8556	232.91	82.6798	232.91	83.007	232.91	82.93	232.91	83.0434
241.699	87.6488	241.699	87.5231	241.699	87.7282	241.699	87.3474	241.699	87.7605	241.699	87.1142	241.699	87.7399	241.699	86.8132	241.699	87.656	241.699	86.4345	241.699	87.4922	241.699	85.9726	241.699	87.2261	241.699	85.4315	241.699	86.8313	241.699	84.8306	241.699	86.2822	241.699	84.2096	241.699	85.564	241.699	83.6321	241.699	84.6908	241.699	83.178	241.699	83.7347	241.699	82.9148	241.699	82.8549	241.699	82.8554	241.699	82.2695	241.699	82.9428	241.699	82.1107	241.699	83.0836	241.699	82.2984	241.699	83.1942	241.699	82.6281	241.699	83.2214	241.699	82.9339	241.699	83.1377
250.488	87.5714	250.488	87.4751	250.488	87.6078	250.488	87.3115	250.488	87.5883	250.488	87.0705	250.488	87.5141	250.488	86.739	250.488	87.3831	250.488	86.3023	250.488	87.1886	250.488	85.7468	250.488	86.9187	250.488	85.0663	250.488	86.5548	250.488	84.2726	250.488	86.0742	250.488	83.4095	250.488	85.4576	250.488	82.5671	250.488	84.7023	250.488	81.8805	250.488	83.8437	250.488	81.4873	250.488	82.9808	250.488	81.4445	250.488	82.2798	250.488	81.6784	250.488	81.9073	250.488	82.0337	250.488	81.9011	250.488	82.3587	250.488	82.1293	250.488	82.5509	250.488	82.3982	250.488	82.562
259.277	88.5314	259.277	88.4987	259.277	88.5017	259.277	88.3971	259.277	88.4099	259.277	88.2143	259.277	88.2506	259.277	87.9321	259.277	88.0137	259.277	87.5273	259.277	87.6838	259.277	86.9736	259.277	87.2426	259.277	86.2454	259.277	86.6719	259.277	85.3281	259.277	85.9592	259.277	84.2408	259.277	85.1076	259.277	83.0792	259.277	84.1515	259.277	82.0665	259.277	83.1842	259.277	81.5117	259.277	82.3784	259.277	81.5607	259.277	81.9379	259.277	82.0227	259.277	81.9429	259.277	82.5796	259.277	82.2638	259.277	83.0151	259.277	82.684	259.277	83.24	259.277	83.0395	259.277	83.2406
268.066	88.1036	268.066	88.082	268.066	88.0675	268.066	87.993	268.066	87.9824	268.066	87.8253	268.066	87.854	268.066	87.5655	268.066	87.6823	268.066	87.1953	268.066	87.458	268.066	86.6895	268.066	87.1601	268.066	86.0152	268.066	86.7558	268.066	85.1346	268.066	86.2038	268.066	84.019	268.066	85.4631	268.066	82.6844	268.066	84.5073	268.066	81.2755	268.066	83.3536	268.066	80.1784	268.066	82.1184	268.066	79.8799	268.066	81.0816	268.066	80.3904	268.066	80.6121	268.066	81.2098	268.066	80.8181	268.066	81.9061	268.066	81.398	268.066	82.2869	268.066	81.97	268.066	82.3004
276.855	87.5523	276.855	87.567	276.855	87.5221	276.855	87.5636	276.855	87.4724	276.855	87.5306	276.855	87.3945	276.855	87.4461	276.855	87.275	276.855	87.278	276.855	87.0934	276.855	86.9862	276.855	86.8219	276.855	86.5259	276.855	86.4288	276.855	85.8511	276.855	85.888	276.855	84.9219	276.855	85.1887	276.855	83.7244	276.855	84.3467	276.855	82.3235	276.855	83.4176	276.855	80.9732	276.855	82.5212	276.855	80.1726	276.855	81.853	276.855	80.2739	276.855	81.6035	276.855	80.9893	276.855	81.7795	276.855	81.7868	276.855	82.1648	276.855	82.3538	276.855	82.4947	276.855	82.5871
287.109	88.4008	287.109	88.4468	287.109	88.3048	287.109	88.4404	287.109	88.1558	287.109	88.3708	287.109	87.9488	287.109	88.2189	287.109	87.6798	287.109	87.9571	287.109	87.3449	287.109	87.5511	287.109	86.9332	287.109	86.962	287.109	86.4193	287.109	86.1495	287.109	85.7598	287.109	85.081	287.109	84.902	287.109	83.7539	287.109	83.8072	287.109	82.2516	287.109	82.4949	287.109	80.8504	287.109	81.1317	287.109	80.0493	287.109	80.136	287.109	80.1553	287.109	79.978	287.109	80.8495	287.109	80.5783	287.109	81.6067	287.109	81.3921	287.109	82.1169	287.109	82.0072	287.109	82.2604
297.363	88.0829	297.363	88.1464	297.363	88.064	297.363	88.2474	297.363	88.0791	297.363	88.3643	297.363	88.099	297.363	88.4623	297.363	88.0802	297.363	88.4925	297.363	87.9728	297.363	88.3938	297.363	87.7264	297.363	88.0977	297.363	87.2934	297.363	87.5343	297.363	86.6305	297.363	86.6362	297.363	85.7004	297.363	85.3439	297.363	84.4803	297.363	83.6301	297.363	82.983	297.363	81.5871	297.363	81.3055	297.363	79.6404	297.363	79.7123	297.363	78.6093	297.363	78.6674	297.363	78.7723	297.363	78.5173	297.363	79.4148	297.363	79.0283	297.363	79.8993	297.363	79.6465	297.363	79.9854
307.617	87.9973	307.617	87.8936	307.617	88.0816	307.617	87.759	307.617	88.1541	307.617	87.5776	307.617	88.2186	307.617	87.3324	307.617	88.2729	307.617	87.0115	307.617	88.302	307.617	86.6084	307.617	88.2744	307.617	86.1144	307.617	88.1405	307.617	85.5043	307.617	87.8337	307.617	84.7261	307.617	87.2739	307.617	83.7029	307.617	86.3761	307.617	82.3548	307.617	85.0726	307.617	80.674	307.617	83.3638	307.617	78.9351	307.617	81.4321	307.617	77.9181	307.617	79.7858	307.617	78.1314	307.617	79.0252	307.617	78.8976	307.617	79.101	307.617	79.4737	307.617	79.4465	307.617	79.6385
319.336	87.1133	319.336	87.0746	319.336	87.1486	319.336	87.0446	319.336	87.1832	319.336	87.04	319.336	87.2292	319.336	87.0591	319.336	87.2922	319.336	87.061	319.336	87.3543	319.336	86.9654	319.336	87.369	319.336	86.6743	319.336	87.2724	319.336	86.1019	319.336	86.9996	319.336	85.1969	319.336	86.4963	319.336	83.9601	319.336	85.7166	319.336	82.4703	319.336	84.6135	319.336	80.9287	319.336	83.1459	319.336	79.6738	319.336	81.3499	319.336	79.0256	319.336	79.5421	319.336	78.9863	319.336	78.4485	319.336	79.2346	319.336	78.4454	319.336	79.4209	319.336	78.9457	319.336	79.3384
329.59	86.9585	329.59	87.0969	329.59	86.8292	329.59	87.2352	329.59	86.7102	329.59	87.3617	329.59	86.5975	329.59	87.4674	329.59	86.492	329.59	87.5416	329.59	86.4028	329.59	87.5596	329.59	86.3317	329.59	87.4749	329.59	86.2472	329.59	87.2218	329.59	86.0767	329.59	86.7256	329.59	85.7303	329.59	85.9163	329.59	85.1365	329.59	84.7473	329.59	84.2691	329.59	83.2289	329.59	83.1555	329.59	81.5005	329.59	81.8866	329.59	79.9438	329.59	80.651	329.59	79.1035	329.59	79.755	329.59	79.098	329.59	79.431	329.59	79.4233	329.59	79.5174	329.59	79.5988
341.309	87.5453	341.309	87.4916	341.309	87.5431	341.309	87.3968	341.309	87.4854	341.309	87.2805	341.309	87.3826	341.309	87.1535	341.309	87.2402	341.309	87.0108	341.309	87.0463	341.309	86.8366	341.309	86.7772	341.309	86.6095	341.309	86.4138	341.309	86.2976	341.309	85.9507	341.309	85.8485	341.309	85.3883	341.309	85.1947	341.309	84.7196	341.309	84.2952	341.309	83.9413	341.309	83.2143	341.309	83.1022	341.309	82.2002	341.309	82.349	341.309	81.6059	341.309	81.878	341.309	81.5519	341.309	81.7677	341.309	81.8011	341.309	81.9011	341.309	82.0577	341.309	82.0837	341.309	82.1609
353.027	87.6062	353.027	87.6311	353.027	87.5543	353.027	87.6349	353.027	87.4789	353.027	87.6279	353.027	87.3976	353.027	87.6171	353.027	87.3364	353.027	87.5941	353.027	87.3051	353.027	87.5202	353.027	87.2698	353.027	87.3247	353.027	87.1498	353.027	86.9254	353.027	86.8434	353.027	86.2587	353.027	86.2571	353.027	85.3027	353.027	85.3196	353.027	84.0908	353.027	83.9906	353.027	82.7416	353.027	82.3102	353.027	81.5347	353.027	80.5778	353.027	80.8874	353.027	79.5453	353.027	80.9426	353.027	79.718	353.027	81.3252	353.027	80.5022	353.027	81.6031	353.027	81.2016	353.027	81.5779
366.211	86.8529	366.211	86.6917	366.211	86.9642	366.211	86.4997	366.211	87.0222	366.211	86.3079	366.211	87.0379	366.211	86.1439	366.211	87.0326	366.211	86.0085	366.211	87.027	366.211	85.8604	366.211	87.0213	366.211	85.6228	366.211	86.9793	366.211	85.2091	366.211	86.8325	366.211	84.5458	366.211	86.5008	366.211	83.5839	366.211	85.906	366.211	82.3193	366.211	84.9735	366.211	80.8632	366.211	83.6466	366.211	79.5721	366.211	81.956	366.211	78.9633	366.211	80.1948	366.211	79.1107	366.211	79.0358	366.211	79.5228	366.211	78.904	366.211	79.7713	366.211	79.3262	366.211	79.6981
379.395	87.5012	379.395	87.4655	379.395	87.4939	379.395	87.3904	379.395	87.4444	379.395	87.2852	379.395	87.3541	379.395	87.1576	379.395	87.2272	379.395	87.0001	379.395	87.0722	379.395	86.7828	379.395	86.8914	379.395	86.4611	379.395	86.6555	379.395	85.9887	379.395	86.2895	379.395	85.3244	379.395	85.6987	379.395	84.4299	379.395	84.8194	379.395	83.28	379.395	83.666	379.395	81.908	379.395	82.3643	379.395	80.4871	379.395	81.1463	379.395	79.3551	379.395	80.2641	379.395	78.8018	379.395	79.8249	379.395	78.7996	379.395	79.6955	379.395	79.0935	379.395	79.6203	379.395	79.4208
392.578	86.8789	392.578	86.8332	392.578	86.9125	392.578	86.7882	392.578	86.9373	392.578	86.7632	392.578	86.9688	392.578	86.7666	392.578	87.0155	392.578	86.7775	392.578	87.0637	392.578	86.7403	392.578	87.0829	392.578	86.5785	392.578	87.0409	392.578	86.2205	392.578	86.8999	392.578	85.615	392.578	86.5957	392.578	84.7319	392.578	86.0321	392.578	83.5567	392.578	85.1073	392.578	82.1223	392.578	83.7625	392.578	80.6312	392.578	82.066	392.578	79.5926	392.578	80.366	392.578	79.4349	392.578	79.3201	392.578	79.8255	392.578	79.2553	392.578	80.1438	392.578	79.7058	392.578	80.0964
405.762	86.2505	405.762	86.3749	405.762	86.1096	405.762	86.503	405.762	85.9486	405.762	86.6628	405.762	85.7847	405.762	86.866	405.762	85.6535	405.762	87.0816	405.762	85.5799	405.762	87.2381	405.762	85.5443	405.762	87.2553	405.762	85.4934	405.762	87.0638	405.762	85.383	405.762	86.5943	405.762	85.1804	405.762	85.7617	405.762	84.8299	405.762	84.4756	405.762	84.2667	405.762	82.7093	405.762	83.4972	405.762	80.6795	405.762	82.6488	405.762	79.1211	405.762	81.9051	405.762	78.8787	405.762	81.4029	405.762	79.6429	405.762	81.1954	405.762	80.5148	405.762	81.1705	405.762	81.03
420.41	86.9942	420.41	86.8589	420.41	87.0621	420.41	86.6427	420.41	87.078	420.41	86.3584	420.41	87.049	420.41	86.0745	420.41	86.9807	420.41	85.9125	420.41	86.8882	420.41	85.958	420.41	86.7783	420.41	86.1334	420.41	86.6079	420.41	86.2107	420.41	86.2732	420.41	85.9609	420.41	85.6601	420.41	85.2566	420.41	84.6953	420.41	84.0975	420.41	83.337	420.41	82.6331	420.41	81.5123	420.41	81.1914	420.41	79.1205	420.41	80.1703	420.41	76.4985	420.41	79.7228	420.41	75.5463	420.41	79.6437	420.41	76.9443	420.41	79.6097	420.41	78.4737	420.41	79.317
435.059	87.8725	435.059	87.7418	435.059	87.8312	435.059	87.4607	435.059	87.6168	435.059	87.0527	435.059	87.265	435.059	86.5371	435.059	86.854	435.059	85.9358	435.059	86.4957	435.059	85.282	435.059	86.3035	435.059	84.6354	435.059	86.3253	435.059	84.0887	435.059	86.4728	435.059	83.7026	435.059	86.5386	435.059	83.3904	435.059	86.3014	435.059	82.9328	435.059	85.6239	435.059	82.1339	435.059	84.5039	435.059	80.9656	435.059	83.0899	435.059	79.6855	435.059	81.6357	435.059	78.8067	435.059	80.3753	435.059	78.5946	435.059	79.4712	435.059	78.7325	435.059	79.0138	435.059	78.8623
451.172	87.7	451.172	87.6678	451.172	87.6554	451.172	87.5883	451.172	87.5329	451.172	87.5047	451.172	87.3658	451.172	87.4564	451.172	87.205	451.172	87.4547	451.172	87.0772	451.172	87.4537	451.172	86.9534	451.172	87.337	451.172	86.7617	451.172	86.9471	451.172	86.4369	451.172	86.1553	451.172	85.9646	451.172	84.964	451.172	85.3873	451.172	83.6286	451.172	84.7499	451.172	82.617	451.172	84.0371	451.172	82.1987	451.172	83.235	451.172	82.2621	451.172	82.5032	451.172	82.5979	451.172	82.1742	451.172	82.9704	451.172	82.3517	451.172	83.1577	451.172	82.7505	451.172	83.07
465.82	87.3644	465.82	87.104	465.82	87.4869	465.82	86.7427	465.82	87.4334	465.82	86.3355	465.82	87.177	465.82	85.9839	465.82	86.7457	465.82	85.8231	465.82	86.2559	465.82	85.9139	465.82	85.8545	465.82	86.1338	465.82	85.5649	465.82	86.2397	465.82	85.2414	465.82	86.0262	465.82	84.709	465.82	85.3942	465.82	83.8677	465.82	84.3331	465.82	82.6919	465.82	82.9277	465.82	81.3115	465.82	81.5061	465.82	80.3177	465.82	80.7596	465.82	80.4675	465.82	81.0467	465.82	81.3726	465.82	81.7869	465.82	82.1763	465.82	82.3815	465.82	82.5923	465.82	82.6513
483.398	87.9373	483.398	87.8555	483.398	87.9058	483.398	87.6161	483.398	87.7843	483.398	87.189	483.398	87.5795	483.398	86.6059	483.398	87.3118	483.398	85.9728	483.398	87.0384	483.398	85.4009	483.398	86.8296	483.398	84.9036	483.398	86.6904	483.398	84.3944	483.398	86.5003	483.398	83.7641	483.398	86.0633	483.398	82.9047	483.398	85.2178	483.398	81.7392	483.398	83.9109	483.398	80.4011	483.398	82.2082	483.398	79.4535	483.398	80.2718	483.398	79.3964	483.398	78.5211	483.398	79.871	483.398	77.9407	483.398	80.3475	483.398	78.8131	483.398	80.624	483.398	79.9366	483.398	80.5508
499.512	86.9734	499.512	87.0019	499.512	86.8408	499.512	86.9389	499.512	86.641	499.512	86.8239	499.512	86.4417	499.512	86.6887	499.512	86.2849	499.512	86.5386	499.512	86.1502	499.512	86.3473	499.512	85.9919	499.512	86.0581	499.512	85.8151	499.512	85.5963	499.512	85.6738	499.512	84.891	499.512	85.5417	499.512	83.9034	499.512	85.2238	499.512	82.6494	499.512	84.466	499.512	81.2181	499.512	83.1518	499.512	79.8599	499.512	81.5194	499.512	79.1072	499.512	80.2811	499.512	79.3231	499.512	79.9464	499.512	80.0245	499.512	80.1556	499.512	80.5441	499.512	80.4629	499.512	80.6562
517.09	87.071	517.09	86.89	517.09	87.1009	517.09	86.5698	517.09	86.9432	517.09	86.1377	517.09	86.5732	517.09	85.7151	517.09	86.0438	517.09	85.5023	517.09	85.5216	517.09	85.5871	517.09	85.2169	517.09	85.814	517.09	85.1953	517.09	85.9278	517.09	85.2922	517.09	85.7391	517.09	85.2488	517.09	85.1216	517.09	84.8337	517.09	83.946	517.09	83.873	517.09	82.129	517.09	82.3145	517.09	80.0081	517.09	80.4469	517.09	78.9019	517.09	79.1486	517.09	79.4981	517.09	79.0997	517.09	80.5228	517.09	79.7898	517.09	81.1043	517.09	80.5593	517.09	81.0763
536.133	87.8176	536.133	87.5544	536.133	87.8324	536.133	87.0962	536.133	87.5886	536.133	86.5104	536.133	87.1441	536.133	85.8671	536.133	86.6156	536.133	85.2662	536.133	86.1391	536.133	84.8681	536.133	85.8175	536.133	84.7756	536.133	85.6477	536.133	84.7919	536.133	85.4682	536.133	84.5088	536.133	85.0533	536.133	83.6607	536.133	84.2775	536.133	82.316	536.133	83.144	536.133	80.8641	536.133	81.6517	536.133	79.7184	536.133	79.7749	536.133	79.1168	536.133	78.0271	536.133	79.4035	536.133	77.9672	536.133	80.4192	536.133	79.4482	536.133	81.2838	536.133	80.8071	536.133	81.4462
555.176	86.9377	555.176	86.819	555.176	86.9149	555.176	86.5649	555.176	86.7387	555.176	86.1641	555.176	86.3931	555.176	85.608	555.176	85.8928	555.176	84.9715	555.176	85.3472	555.176	84.4049	555.176	84.9411	555.176	83.9499	555.176	84.7858	555.176	83.5032	555.176	84.8288	555.176	83.0061	555.176	84.8789	555.176	82.4232	555.176	84.6538	555.176	81.5194	555.176	83.8973	555.176	79.9684	555.176	82.5445	555.176	78.0483	555.176	80.8425	555.176	77.4893	555.176	79.2912	555.176	78.8322	555.176	78.4694	555.176	80.2787	555.176	78.8927	555.176	81.0547	555.176	80.1134	555.176	81.0037
574.219	87.3328	574.219	87.2407	574.219	87.2787	574.219	86.9381	574.219	87.1224	574.219	86.4021	574.219	86.8532	574.219	85.7265	574.219	86.4138	574.219	85.1474	574.219	85.7567	574.219	84.9001	574.219	84.929	574.219	84.9893	574.219	84.1044	574.219	85.1734	574.219	83.4763	574.219	85.1107	574.219	83.1003	574.219	84.4841	574.219	82.8371	574.219	83.0967	574.219	82.3689	574.219	80.9604	574.219	81.3608	574.219	78.5893	574.219	79.8396	574.219	77.5938	574.219	78.7167	574.219	78.8672	574.219	78.9938	574.219	80.6972	574.219	80.0606	574.219	81.8144	574.219	81.1827	574.219	81.916
594.727	87.0455	594.727	87.0641	594.727	87.0971	594.727	87.085	594.727	87.1007	594.727	86.8933	594.727	86.8749	594.727	86.2869	594.727	86.3214	594.727	85.2273	594.727	85.5047	594.727	83.9876	594.727	84.6795	594.727	83.1655	594.727	84.2349	594.727	83.0178	594.727	84.3507	594.727	83.0033	594.727	84.6494	594.727	82.5473	594.727	84.5256	594.727	81.4539	594.727	83.5854	594.727	79.8176	594.727	81.7289	594.727	78.0483	594.727	79.2142	594.727	77.1782	594.727	76.9351	594.727	77.9089	594.727	76.4127	594.727	79.0371	594.727	77.5968	594.727	79.5868	594.727	78.8472	594.727	79.5064
615.234	87.881	615.234	87.6127	615.234	87.7117	615.234	87.0474	615.234	87.1559	615.234	86.401	615.234	86.4318	615.234	85.8036	615.234	85.7415	615.234	85.2639	615.234	85.0855	615.234	84.7755	615.234	84.339	615.234	84.3637	615.234	83.5127	615.234	84.0292	615.234	82.8273	615.234	83.7123	615.234	82.4727	615.234	83.2472	615.234	82.3767	615.234	82.3196	615.234	82.1964	615.234	80.5277	615.234	81.4376	615.234	77.5505	615.234	79.7312	615.234	74.2134	615.234	77.4213	615.234	74.1233	615.234	76.1742	615.234	75.8674	615.234	76.4162	615.234	76.8325	615.234	76.8165	615.234	77.0147
637.207	88.0015	637.207	87.7957	637.207	88.0531	637.207	87.4483	637.207	87.9153	637.207	86.9849	637.207	87.5146	637.207	86.3795	637.207	86.8076	637.207	85.5569	637.207	85.851	637.207	84.6755	637.207	84.8281	637.207	84.272	637.207	84.0301	637.207	84.4421	637.207	83.7246	637.207	84.4842	637.207	83.8892	637.207	83.8551	637.207	84.057	637.207	82.394	637.207	83.5689	637.207	80.1257	637.207	81.9119	637.207	77.6541	637.207	78.8866	637.207	76.8384	637.207	75.4091	637.207	78.0751	637.207	75.2251	637.207	79.6385	637.207	77.5685	637.207	80.6038	637.207	79.5416	637.207	80.6006
659.18	86.641	659.18	86.5061	659.18	86.775	659.18	86.425	659.18	86.7781	659.18	86.2603	659.18	86.598	659.18	85.8397	659.18	86.2518	659.18	85.1611	659.18	85.7601	659.18	84.3446	659.18	85.1758	659.18	83.5132	659.18	84.6332	659.18	82.8671	659.18	84.1679	659.18	82.5133	659.18	83.5591	659.18	82.1165	659.18	82.6559	659.18	81.2829	659.18	81.6353	659.18	80.0596	659.18	80.5006	659.18	78.644	659.18	78.6913	659.18	76.6412	659.18	76.2951	659.18	74.5733	659.18	75.5264	659.18	75.64	659.18	76.375	659.18	77.4805	659.18	77.1324	659.18	77.7296
682.617	87.3021	682.617	87.247	682.617	86.9875	682.617	86.7855	682.617	86.5527	682.617	86.1793	682.617	86.1748	682.617	85.6244	682.617	85.7993	682.617	84.9422	682.617	85.2551	682.617	84.0577	682.617	84.4654	682.617	83.5894	682.617	83.5548	682.617	83.818	682.617	82.9315	682.617	83.9033	682.617	83.0694	682.617	83.4315	682.617	83.6088	682.617	82.4834	682.617	83.5788	682.617	80.8103	682.617	82.422	682.617	78.2587	682.617	80.2683	682.617	76.8541	682.617	78.0136	682.617	78.1641	682.617	77.0368	682.617	79.9139	682.617	77.9715	682.617	81.1773	682.617	79.9622	682.617	81.2939
707.52	86.903	707.52	87.0839	707.52	86.9049	707.52	87.305	707.52	86.9891	707.52	87.1685	707.52	86.9656	707.52	86.346	707.52	86.6254	707.52	84.979	707.52	85.8614	707.52	83.847	707.52	84.7271	707.52	83.4975	707.52	83.5603	707.52	83.477	707.52	83.2122	707.52	83.4161	707.52	83.7731	707.52	83.1935	707.52	83.9556	707.52	82.3732	707.52	83.0908	707.52	80.3962	707.52	81.332	707.52	77.2391	707.52	78.8121	707.52	75.2697	707.52	75.2881	707.52	76.8508	707.52	73.3978	707.52	78.4982	707.52	75.6419	707.52	78.9602	707.52	77.6373	707.52	78.6165
732.422	87.8055	732.422	87.6828	732.422	87.776	732.422	87.3827	732.422	87.6168	732.422	86.9074	732.422	87.2718	732.422	86.1771	732.422	86.6576	732.422	85.1042	732.422	85.782	732.422	83.9148	732.422	84.8231	732.422	83.01	732.422	84.023	732.422	82.3386	732.422	83.4347	732.422	81.8336	732.422	82.9772	732.422	81.6421	732.422	82.5838	732.422	81.2705	732.422	82.1313	732.422	79.9305	732.422	81.4022	732.422	77.181	732.422	80.0911	732.422	73.8148	732.422	77.7064	732.422	74.4728	732.422	75.2835	732.422	76.0922	732.422	77.1184	732.422	76.7198	732.422	78.2757	732.422	77.5174
757.324	87.9926	757.324	87.9526	757.324	87.9641	757.324	87.6817	757.324	87.8784	757.324	87.0913	757.324	87.6702	757.324	86.3843	757.324	87.2823	757.324	85.7267	757.324	86.6101	757.324	84.8206	757.324	85.6081	757.324	83.6559	757.324	84.4485	757.324	83.2931	757.324	83.2827	757.324	83.729	757.324	82.3412	757.324	83.5697	757.324	82.3908	757.324	82.446	757.324	82.7825	757.324	80.723	757.324	81.7523	757.324	78.4081	757.324	78.7232	757.324	75.6703	757.324	77.3276	757.324	75.6362	757.324	78.2097	757.324	78.3134	757.324	77.2267	757.324	80.2124	757.324	77.3417	757.324	79.6946
785.156	87.0946	785.156	87.1609	785.156	87.0355	785.156	87.0683	785.156	87.0249	785.156	86.7024	785.156	86.9666	785.156	86.1333	785.156	86.6949	785.156	85.3351	785.156	86.1412	785.156	84.0733	785.156	85.2446	785.156	82.4443	785.156	83.9049	785.156	81.0282	785.156	82.6137	785.156	80.5605	785.156	82.3806	785.156	81.2817	785.156	82.7455	785.156	81.4756	785.156	82.5258	785.156	79.4521	785.156	81.4251	785.156	76.0382	785.156	79.1282	785.156	77.0123	785.156	74.6348	785.156	78.2626	785.156	70.9879	785.156	78.7144	785.156	75.5927	785.156	80.6717	785.156	79.2241	785.156	80.9223
811.523	87.8991	811.523	87.5284	811.523	87.8977	811.523	87.1877	811.523	87.2835	811.523	86.7954	811.523	86.6409	811.523	86.1509	811.523	86.4988	811.523	85.2614	811.523	86.2561	811.523	84.2859	811.523	85.3055	811.523	83.5816	811.523	84.0551	811.523	83.3508	811.523	83.1987	811.523	82.9988	811.523	82.3876	811.523	82.2023	811.523	81.5137	811.523	81.4528	811.523	81.2508	811.523	80.4874	811.523	81.0509	811.523	78.1889	811.523	79.5036	811.523	74.5102	811.523	75.8213	811.523	73.5906	811.523	73.514	811.523	75.283	811.523	75.7815	811.523	76.2614	811.523	77.1452	811.523	76.8573
840.82	86.8628	840.82	87.1889	840.82	86.7274	840.82	86.9548	840.82	87.0484	840.82	86.3482	840.82	87.0356	840.82	85.8461	840.82	86.4055	840.82	85.1931	840.82	85.816	840.82	84.0215	840.82	85.3446	840.82	82.035	840.82	84.4543	840.82	79.6683	840.82	82.9905	840.82	79.2426	840.82	81.4088	840.82	79.9745	840.82	80.5209	840.82	79.4299	840.82	80.1047	840.82	78.316	840.82	78.9798	840.82	77.3166	840.82	77.0685	840.82	73.0352	840.82	75.4153	840.82	72.1034	840.82	74.408	840.82	75.7943	840.82	76.6237	840.82	76.1158	840.82	77.6795	840.82	76.2632
870.117	87.3465	870.117	87.4661	870.117	87.162	870.117	86.8991	870.117	87.2913	870.117	85.8146	870.117	87.4069	870.117	85.1715	870.117	86.9606	870.117	84.8387	870.117	86.0428	870.117	83.7011	870.117	85.2511	870.117	82.6183	870.117	84.2598	870.117	82.9715	870.117	82.3796	870.117	82.9319	870.117	81.3015	870.117	81.7434	870.117	82.1215	870.117	80.295	870.117	82.2155	870.117	77.9319	870.117	80.8841	870.117	72.6854	870.117	78.8483	870.117	67.1001	870.117	76.4696	870.117	71.8762	870.117	73.1057	870.117	76.7721	870.117	70.1718	870.117	79.9068	870.117	73.7127	870.117	78.8695
900.879	87.1542	900.879	86.7675	900.879	87.4567	900.879	87.2401	900.879	87.167	900.879	87.691	900.879	87.062	900.879	87.2505	900.879	87.1182	900.879	86.358	900.879	86.6553	900.879	85.1933	900.879	85.6346	900.879	83.2508	900.879	84.322	900.879	80.9449	900.879	82.9463	900.879	79.7978	900.879	82.0533	900.879	79.8228	900.879	81.6723	900.879	80.3408	900.879	81.2104	900.879	80.0855	900.879	80.9077	900.879	77.029	900.879	79.8744	900.879	72.1568	900.879	75.914	900.879	74.2394	900.879	70.8755	900.879	76.925	900.879	76.1535	900.879	78.2891	900.879	77.8413	900.879	78.0007
933.105	88.7461	933.105	88.4176	933.105	88.5338	933.105	87.3857	933.105	88.3027	933.105	86.8658	933.105	87.9161	933.105	86.9469	933.105	87.1801	933.105	86.1242	933.105	86.1955	933.105	84.5779	933.105	85.1558	933.105	83.6021	933.105	84.1707	933.105	82.7474	933.105	82.8057	933.105	82.3085	933.105	81.1541	933.105	82.2164	933.105	81.4042	933.105	80.9682	933.105	82.5679	933.105	79.6084	933.105	81.7158	933.105	79.3655	933.105	78.9479	933.105	77.2104	933.105	76.3489	933.105	74.5548	933.105	74.8256	933.105	72.9523	933.105	76.8233	933.105	71.1767	933.105	79.1627	933.105	76.1476
965.332	87.9585	965.332	87.5289	965.332	88.1305	965.332	87.7329	965.332	87.4334	965.332	87.4486	965.332	86.7652	965.332	86.1012	965.332	86.5699	965.332	85.0111	965.332	86.1973	965.332	84.3332	965.332	85.3553	965.332	83.0412	965.332	84.1552	965.332	81.4899	965.332	83.0431	965.332	80.49	965.332	82.2665	965.332	80.6851	965.332	80.9622	965.332	81.7742	965.332	79.7486	965.332	80.506	965.332	80.1038	965.332	75.5731	965.332	79.7001	965.332	71.7281	965.332	76.5505	965.332	72.5004	965.332	76.4687	965.332	76.7914	965.332	77.0131	965.332	80.3839	965.332	76.8509	965.332	79.6787
1,000.49	86.9204	1,000.49	87.4362	1,000.49	86.7199	1,000.49	86.9916	1,000.49	86.9729	1,000.49	86.3045	1,000.49	86.6825	1,000.49	86.4759	1,000.49	86.2218	1,000.49	86.2066	1,000.49	85.7559	1,000.49	84.6844	1,000.49	84.9325	1,000.49	82.6373	1,000.49	83.5361	1,000.49	80.6821	1,000.49	81.442	1,000.49	80.4034	1,000.49	79.2899	1,000.49	81.099	1,000.49	80.4104	1,000.49	79.9244	1,000.49	81.7649	1,000.49	77.543	1,000.49	80.6561	1,000.49	75.891	1,000.49	76.749	1,000.49	72.5172	1,000.49	71.2064	1,000.49	75.4243	1,000.49	68.4401	1,000.49	80.4828	1,000.49	76.1206	1,000.49	81.5865	1,000.49	80.8496	1,000.49	81.7496
1,035.64	87.2542	1,035.64	86.7519	1,035.64	86.7332	1,035.64	86.1647	1,035.64	86.3857	1,035.64	86.4623	1,035.64	86.4973	1,035.64	86.403	1,035.64	86.0483	1,035.64	85.3846	1,035.64	85.566	1,035.64	84.4692	1,035.64	85.3523	1,035.64	83.6307	1,035.64	83.8888	1,035.64	81.7936	1,035.64	81.1424	1,035.64	80.2174	1,035.64	80.7209	1,035.64	81.2839	1,035.64	81.3551	1,035.64	82.0205	1,035.64	81.4613	1,035.64	80.2469	1,035.64	81.3447	1,035.64	74.2872	1,035.64	79.584	1,035.64	70.1917	1,035.64	73.7789	1,035.64	74.6061	1,035.64	70.4367	1,035.64	74.1542	1,035.64	75.5807	1,035.64	76.6217	1,035.64	77.7633	1,035.64	78.7018
1,072.27	88.6284	1,072.27	87.8563	1,072.27	88.1508	1,072.27	86.4144	1,072.27	87.5399	1,072.27	86.0343	1,072.27	86.7203	1,072.27	85.851	1,072.27	85.8359	1,072.27	85.3088	1,072.27	85.7553	1,072.27	84.3269	1,072.27	85.6418	1,072.27	82.2915	1,072.27	84.6326	1,072.27	80.0007	1,072.27	82.5276	1,072.27	78.4224	1,072.27	79.2876	1,072.27	78.8152	1,072.27	78.4929	1,072.27	81.1334	1,072.27	81.0887	1,072.27	81.3526	1,072.27	81.1095	1,072.27	77.262	1,072.27	79.9962	1,072.27	67.4755	1,072.27	75.9247	1,072.27	63.2669	1,072.27	58.2915	1,072.27	74.93	1,072.27	73.3941	1,072.27	77.7248	1,072.27	76.4226	1,072.27	77.19
1,108.89	88.4755	1,108.89	87.6334	1,108.89	89.0547	1,108.89	87.4557	1,108.89	88.1049	1,108.89	86.3035	1,108.89	86.7147	1,108.89	84.088	1,108.89	85.749	1,108.89	83.3373	1,108.89	84.748	1,108.89	84.0612	1,108.89	84.2737	1,108.89	83.8995	1,108.89	83.9564	1,108.89	81.8043	1,108.89	82.789	1,108.89	77.9447	1,108.89	80.6919	1,108.89	76.5157	1,108.89	78.1536	1,108.89	80.0211	1,108.89	78.5578	1,108.89	81.0192	1,108.89	81.3058	1,108.89	78.4317	1,108.89	81.4078	1,108.89	73.009	1,108.89	76.7104	1,108.89	69.9431	1,108.89	64.7773	1,108.89	76.4401	1,108.89	70.0847	1,108.89	80.6308	1,108.89	78.1413	1,108.89	81.2523
1,148.44	86.5994	1,148.44	87.0308	1,148.44	86.5489	1,148.44	87	1,148.44	86.5302	1,148.44	85.6888	1,148.44	86.5363	1,148.44	84.2745	1,148.44	85.9928	1,148.44	83.3657	1,148.44	84.6264	1,148.44	82.8993	1,148.44	83.6764	1,148.44	83.7571	1,148.44	83.6277	1,148.44	83.2939	1,148.44	83.6519	1,148.44	80.7108	1,148.44	82.0777	1,148.44	78.1951	1,148.44	78.5536	1,148.44	77.7065	1,148.44	77.1502	1,148.44	79.1129	1,148.44	78.8695	1,148.44	79.2699	1,148.44	78.7501	1,148.44	74.5903	1,148.44	77.9467	1,148.44	63.0349	1,148.44	75.1475	1,148.44	73.6363	1,148.44	64.7224	1,148.44	75.3375	1,148.44	75.2441	1,148.44	75.4907
1,189.45	87.5174	1,189.45	86.8999	1,189.45	87.6616	1,189.45	86.5372	1,189.45	87.2976	1,189.45	85.8701	1,189.45	86.4362	1,189.45	83.9406	1,189.45	85.0115	1,189.45	82.5777	1,189.45	83.7633	1,189.45	82.4053	1,189.45	82.6494	1,189.45	80.219	1,189.45	81.6171	1,189.45	78.1685	1,189.45	80.975	1,189.45	77.7302	1,189.45	79.624	1,189.45	75.6388	1,189.45	78.2677	1,189.45	76.4179	1,189.45	77.2645	1,189.45	78.2587	1,189.45	76.8575	1,189.45	76.8212	1,189.45	79.0387	1,189.45	72.8298	1,189.45	77.789	1,189.45	64.4555	1,189.45	70.4916	1,189.45	68.9555	1,189.45	68.8292	1,189.45	75.5535	1,189.45	71.6328	1,189.45	75.9258
1,230.47	87.572	1,230.47	88.2807	1,230.47	86.9936	1,230.47	86.6891	1,230.47	87.9414	1,230.47	85.5085	1,230.47	87.817	1,230.47	85.1401	1,230.47	86.839	1,230.47	83.535	1,230.47	85.0364	1,230.47	82.1596	1,230.47	83.1654	1,230.47	80.4795	1,230.47	82.9356	1,230.47	79.2941	1,230.47	81.8865	1,230.47	77.6494	1,230.47	80.0784	1,230.47	75.5295	1,230.47	78.399	1,230.47	76.8734	1,230.47	77.7856	1,230.47	76.5737	1,230.47	79.5873	1,230.47	76.2752	1,230.47	78.9618	1,230.47	72.1928	1,230.47	76.0762	1,230.47	68.9646	1,230.47	71.5323	1,230.47	72.9002	1,230.47	70.9607	1,230.47	76.1601	1,230.47	73.555	1,230.47	75.788
1,274.41	88.4978	1,274.41	87.112	1,274.41	88.7651	1,274.41	87.0325	1,274.41	87.8192	1,274.41	86.6864	1,274.41	86.494	1,274.41	84.9655	1,274.41	85.503	1,274.41	83.6456	1,274.41	84.9329	1,274.41	82.2619	1,274.41	83.729	1,274.41	81.8055	1,274.41	82.1624	1,274.41	80.3728	1,274.41	80.9532	1,274.41	79.4219	1,274.41	81.1852	1,274.41	77.5013	1,274.41	80.5139	1,274.41	74.0569	1,274.41	78.2164	1,274.41	79.0567	1,274.41	76.734	1,274.41	76.5527	1,274.41	78.3336	1,274.41	73.5052	1,274.41	78.4384	1,274.41	68.1832	1,274.41	72.2544	1,274.41	68.65	1,274.41	69.4696	1,274.41	72.5645	1,274.41	73.5585	1,274.41	74.0237
1,319.82	87.9433	1,319.82	88.0397	1,319.82	88.5654	1,319.82	87.8842	1,319.82	88.0473	1,319.82	86.429	1,319.82	87.0042	1,319.82	85.7471	1,319.82	86.5521	1,319.82	84.6038	1,319.82	85.605	1,319.82	82.1281	1,319.82	83.8735	1,319.82	81.1903	1,319.82	81.7146	1,319.82	81.7888	1,319.82	81.418	1,319.82	80.6544	1,319.82	81.8064	1,319.82	76.1443	1,319.82	79.9238	1,319.82	74.9926	1,319.82	77.1083	1,319.82	75.7398	1,319.82	77.0736	1,319.82	78.044	1,319.82	78.8042	1,319.82	74.6195	1,319.82	76.9784	1,319.82	60.2834	1,319.82	70.5607	1,319.82	73.6246	1,319.82	68.1544	1,319.82	75.4536	1,319.82	72.6701	1,319.82	74.8227
1,366.7	87.7962	1,366.7	87.1396	1,366.7	88.0439	1,366.7	87.6127	1,366.7	87.765	1,366.7	87.0371	1,366.7	87.0866	1,366.7	85.4564	1,366.7	86.5859	1,366.7	84.5289	1,366.7	86.1266	1,366.7	82.8462	1,366.7	83.8392	1,366.7	81.6935	1,366.7	81.6372	1,366.7	80.439	1,366.7	80.6314	1,366.7	79.3511	1,366.7	80.1914	1,366.7	77.5126	1,366.7	76.8679	1,366.7	74.762	1,366.7	73.3311	1,366.7	78.6954	1,366.7	75.9027	1,366.7	78.1347	1,366.7	77.8762	1,366.7	76.5207	1,366.7	77.6858	1,366.7	69.5176	1,366.7	73.433	1,366.7	66.6441	1,366.7	68.9882	1,366.7	69.2527	1,366.7	71.173	1,366.7	74.9945
1,413.57	87.4969	1,413.57	87.2244	1,413.57	87.7009	1,413.57	86.6639	1,413.57	87.2176	1,413.57	85.9839	1,413.57	86.6053	1,413.57	84.4365	1,413.57	86.4683	1,413.57	83.2682	1,413.57	84.4746	1,413.57	81.9971	1,413.57	81.9723	1,413.57	78.9729	1,413.57	80.9043	1,413.57	77.6603	1,413.57	79.6164	1,413.57	79.8177	1,413.57	78.6951	1,413.57	77.0975	1,413.57	78.676	1,413.57	74.08	1,413.57	77.0112	1,413.57	75.9408	1,413.57	75.9482	1,413.57	77.3701	1,413.57	76.0341	1,413.57	75.3416	1,413.57	77.2568	1,413.57	66.1376	1,413.57	74.1665	1,413.57	61.4707	1,413.57	67.4195	1,413.57	66.2238	1,413.57	67.7536	1,413.57	69.2953
1,463.38	86.0171	1,463.38	85.8954	1,463.38	86.5266	1,463.38	85.9487	1,463.38	85.1587	1,463.38	85.199	1,463.38	84.0117	1,463.38	84.7906	1,463.38	84.6987	1,463.38	83.2557	1,463.38	83.4271	1,463.38	80.625	1,463.38	81.4625	1,463.38	78.9895	1,463.38	79.6505	1,463.38	77.6291	1,463.38	78.4994	1,463.38	78.8177	1,463.38	78.607	1,463.38	76.9898	1,463.38	77.3558	1,463.38	75.4909	1,463.38	74.3634	1,463.38	76.3335	1,463.38	71.1575	1,463.38	75.9622	1,463.38	75.4137	1,463.38	72.4733	1,463.38	75.3603	1,463.38	70.2296	1,463.38	68.4791	1,463.38	71.1255	1,463.38	70.8983	1,463.38	74.8361	1,463.38	72.4102	1,463.38	75.3964
1,516.11	85.97	1,516.11	85.7857	1,516.11	85.447	1,516.11	84.5128	1,516.11	84.9713	1,516.11	83.883	1,516.11	84.2243	1,516.11	82.3482	1,516.11	84.0909	1,516.11	81.5867	1,516.11	82.7003	1,516.11	81.1974	1,516.11	81.6899	1,516.11	79.4485	1,516.11	80.3867	1,516.11	77.8879	1,516.11	76.2403	1,516.11	74.1222	1,516.11	75.4913	1,516.11	73.9618	1,516.11	76.7831	1,516.11	74.6977	1,516.11	74.1902	1,516.11	72.6322	1,516.11	73.4315	1,516.11	74.1593	1,516.11	72.1021	1,516.11	75.5398	1,516.11	73.4935	1,516.11	69.6979	1,516.11	74.7328	1,516.11	66.4258	1,516.11	68.8403	1,516.11	62.8642	1,516.11	61.9395	1,516.11	63.1518
1,568.85	85.7849	1,568.85	84.5951	1,568.85	85.3486	1,568.85	83.7697	1,568.85	84.3835	1,568.85	82.764	1,568.85	84.2567	1,568.85	81.5566	1,568.85	83.9314	1,568.85	80.3959	1,568.85	82.8884	1,568.85	77.5661	1,568.85	81.3536	1,568.85	77.7828	1,568.85	78.5596	1,568.85	76.2082	1,568.85	78.237	1,568.85	77.9713	1,568.85	77.5163	1,568.85	78.2081	1,568.85	77.1622	1,568.85	72.8821	1,568.85	75.6579	1,568.85	74.1213	1,568.85	68.9052	1,568.85	77.5026	1,568.85	73.3502	1,568.85	75.0368	1,568.85	73.5624	1,568.85	66.795	1,568.85	74.5066	1,568.85	69.4619	1,568.85	73.239	1,568.85	76.7874	1,568.85	67.5122	1,568.85	76.6205
1,624.51	86.1167	1,624.51	85.2481	1,624.51	86.2436	1,624.51	84.5221	1,624.51	85.9973	1,624.51	83.2421	1,624.51	84.1686	1,624.51	81.271	1,624.51	83.9774	1,624.51	80.0847	1,624.51	81.3569	1,624.51	79.7528	1,624.51	79.1364	1,624.51	78.4647	1,624.51	79.7978	1,624.51	76.6019	1,624.51	76.9376	1,624.51	75.6786	1,624.51	77.7653	1,624.51	72.1928	1,624.51	77.8371	1,624.51	71.7742	1,624.51	73.6618	1,624.51	58.5948	1,624.51	72.6051	1,624.51	70.232	1,624.51	71.9994	1,624.51	67.8421	1,624.51	74.8304	1,624.51	60.3049	1,624.51	72.9078	1,624.51	67.8404	1,624.51	69.1045	1,624.51	68.5523	1,624.51	67.2535	1,624.51	58.8626
1,681.64	87.3804	1,681.64	85.407	1,681.64	86.2689	1,681.64	84.0011	1,681.64	85.1349	1,681.64	84.6153	1,681.64	86.0761	1,681.64	83.8896	1,681.64	82.8468	1,681.64	82.2754	1,681.64	83.2097	1,681.64	79.0215	1,681.64	81.1283	1,681.64	78.8021	1,681.64	80.3713	1,681.64	76.6902	1,681.64	78.7709	1,681.64	73.2956	1,681.64	76.6145	1,681.64	74.313	1,681.64	77.626	1,681.64	75.0894	1,681.64	77.0851	1,681.64	74.6032	1,681.64	72.4052	1,681.64	75.2207	1,681.64	75.544	1,681.64	73.3451	1,681.64	74.1619	1,681.64	64.3986	1,681.64	74.9833	1,681.64	66.4146	1,681.64	71.9769	1,681.64	69.6916	1,681.64	68.4346	1,681.64	76.3308
1,741.7	86.4724	1,741.7	85.5205	1,741.7	87.0536	1,741.7	85.2544	1,741.7	86.0604	1,741.7	83.3491	1,741.7	84.1925	1,741.7	82.8657	1,741.7	84.5235	1,741.7	81.9014	1,741.7	82.0993	1,741.7	81.7446	1,741.7	80.8446	1,741.7	80.502	1,741.7	79.002	1,741.7	76.5963	1,741.7	78.0448	1,741.7	77.6727	1,741.7	75.9473	1,741.7	73.3306	1,741.7	74.2969	1,741.7	72.1963	1,741.7	76.3998	1,741.7	67.996	1,741.7	72.6867	1,741.7	68.9622	1,741.7	74.0926	1,741.7	73.0789	1,741.7	72.5372	1,741.7	70.2107	1,741.7	72.1502	1,741.7	67.2431	1,741.7	69.2715	1,741.7	58.2178	1,741.7	71.0947	1,741.7	46.4756
1,803.22	85.3347	1,803.22	85.3862	1,803.22	86.3834	1,803.22	84.9603	1,803.22	84.828	1,803.22	83.411	1,803.22	85.6719	1,803.22	82.1661	1,803.22	82.3122	1,803.22	79.6988	1,803.22	80.2326	1,803.22	78.7472	1,803.22	77.6704	1,803.22	78.9809	1,803.22	76.4035	1,803.22	78.4893	1,803.22	75.4586	1,803.22	77.6784	1,803.22	77.0316	1,803.22	77.6465	1,803.22	72.8508	1,803.22	72.3866	1,803.22	72.7185	1,803.22	70.9674	1,803.22	75.0534	1,803.22	69.1313	1,803.22	74.0319	1,803.22	73.6426	1,803.22	75.4576	1,803.22	70.1882	1,803.22	72.6396	1,803.22	68.4669	1,803.22	72.4561	1,803.22	68.8611	1,803.22	69.1931	1,803.22	69.1375
1,866.21	85.5468	1,866.21	86.1297	1,866.21	84.5809	1,866.21	83.5659	1,866.21	85.9286	1,866.21	83.4391	1,866.21	80.9007	1,866.21	81.5875	1,866.21	81.4006	1,866.21	80.7191	1,866.21	80.6521	1,866.21	78.9006	1,866.21	79.0145	1,866.21	76.5012	1,866.21	78.8716	1,866.21	79.3823	1,866.21	76.8662	1,866.21	78.2192	1,866.21	75.1828	1,866.21	73.2528	1,866.21	71.9962	1,866.21	76.4907	1,866.21	69.9778	1,866.21	76.66	1,866.21	72.6965	1,866.21	75.7032	1,866.21	70.2194	1,866.21	67.8407	1,866.21	62.0274	1,866.21	72.1474	1,866.21	74.1069	1,866.21	74.2955	1,866.21	70.6695	1,866.21	72.0203	1,866.21	73.2352	1,866.21	68.2475
1,932.13	86.6254	1,932.13	82.9852	1,932.13	86.2532	1,932.13	83.2941	1,932.13	84.0725	1,932.13	82.0942	1,932.13	83.0735	1,932.13	82.0087	1,932.13	82.7666	1,932.13	78.2503	1,932.13	83.1821	1,932.13	76.7164	1,932.13	79.6222	1,932.13	81.1933	1,932.13	68.8545	1,932.13	70.6279	1,932.13	72.9598	1,932.13	73.2812	1,932.13	75.8778	1,932.13	75.1756	1,932.13	71.0326	1,932.13	74.4903	1,932.13	75.5795	1,932.13	62.1446	1,932.13	80.9974	1,932.13	62.4796	1,932.13	71.1889	1,932.13	74.4302	1,932.13	70.2117	1,932.13	72.6687	1,932.13	72.6478	1,932.13	64.2693	1,932.13	65.2631	1,932.13	65.3413	1,932.13	69.8401	1,932.13	73.6653
1,999.51	86.0733	1,999.51	85.482	1,999.51	86.3869	1,999.51	84.9122	1,999.51	85.9876	1,999.51	83.3301	1,999.51	84.6463	1,999.51	81.9386	1,999.51	83.6865	1,999.51	80.4131	1,999.51	82.4933	1,999.51	79.1939	1,999.51	80.7697	1,999.51	78.0381	1,999.51	80.7877	1,999.51	74.1166	1,999.51	78.3946	1,999.51	75.121	1,999.51	76.8613	1,999.51	74.3699	1,999.51	76.92	1,999.51	73.5475	1,999.51	74.4273	1,999.51	72.6103	1,999.51	72.5245	1,999.51	68.7411	1,999.51	74.5976	1,999.51	69.3353	1,999.51	72.706	1,999.51	67.0152	1,999.51	71.275	1,999.51	54.6502	1,999.51	70.4906	1,999.51	69.7512	1,999.51	72.4479	1,999.51	65.9082
2,069.82	84.7525	2,069.82	84.3385	2,069.82	84.3156	2,069.82	83.4791	2,069.82	84.0597	2,069.82	82.6451	2,069.82	83.4672	2,069.82	80.3576	2,069.82	82.0495	2,069.82	79.2027	2,069.82	80.8276	2,069.82	76.5112	2,069.82	79.9464	2,069.82	74.9482	2,069.82	76.8162	2,069.82	74.5127	2,069.82	75.7279	2,069.82	72.393	2,069.82	73.5428	2,069.82	70.1563	2,069.82	70.7571	2,069.82	71.736	2,069.82	72.3839	2,069.82	70.9727	2,069.82	73.674	2,069.82	67.1732	2,069.82	64.597	2,069.82	63.2176	2,069.82	69.7362	2,069.82	69.5299	2,069.82	70.6748	2,069.82	66.2324	2,069.82	68.699	2,069.82	67.151	2,069.82	53.4537	2,069.82	65.7607
2,143.07	85.6348	2,143.07	85.678	2,143.07	85.4721	2,143.07	84.4843	2,143.07	84.7903	2,143.07	83.1816	2,143.07	83.8036	2,143.07	82.575	2,143.07	82.4497	2,143.07	80.2709	2,143.07	80.4876	2,143.07	79.1909	2,143.07	77.4627	2,143.07	76.6561	2,143.07	77.9751	2,143.07	74.089	2,143.07	74.6522	2,143.07	72.5516	2,143.07	74.3653	2,143.07	72.4249	2,143.07	73.3175	2,143.07	70.5692	2,143.07	68.1617	2,143.07	68.3852	2,143.07	69.1069	2,143.07	71.1503	2,143.07	71.9698	2,143.07	67.0486	2,143.07	61.883	2,143.07	62.3356	2,143.07	68.964	2,143.07	64.1121	2,143.07	65.7613	2,143.07	69.6413	2,143.07	69.4135	2,143.07	71.4726
2,219.24	85.5089	2,219.24	84.4686	2,219.24	85.2648	2,219.24	84.7829	2,219.24	84.721	2,219.24	83.9213	2,219.24	83.1929	2,219.24	82.2474	2,219.24	82.1006	2,219.24	81.3882	2,219.24	80.5505	2,219.24	80.0784	2,219.24	80.1507	2,219.24	79.191	2,219.24	76.7626	2,219.24	76.7357	2,219.24	77.2061	2,219.24	76.2642	2,219.24	75.1808	2,219.24	75.5953	2,219.24	72.8153	2,219.24	72.8461	2,219.24	72.2706	2,219.24	75.3121	2,219.24	72.0465	2,219.24	66.9466	2,219.24	69.7317	2,219.24	69.075	2,219.24	70.3822	2,219.24	49.0456	2,219.24	71.2983	2,219.24	60.8946	2,219.24	65.4188	2,219.24	66.0352	2,219.24	66.4517	2,219.24	60.7435
2,296.88	85.3818	2,296.88	85.4003	2,296.88	85.4148	2,296.88	84.0523	2,296.88	84.6833	2,296.88	82.523	2,296.88	84.3953	2,296.88	82.1553	2,296.88	83.2217	2,296.88	81.115	2,296.88	81.9676	2,296.88	78.5709	2,296.88	80.3702	2,296.88	77.4735	2,296.88	80.1525	2,296.88	78.8859	2,296.88	77.6908	2,296.88	76.503	2,296.88	76.3243	2,296.88	73.3021	2,296.88	74.9165	2,296.88	71.3064	2,296.88	71.22	2,296.88	70.873	2,296.88	73.6643	2,296.88	70.6925	2,296.88	72.0998	2,296.88	68.2209	2,296.88	67.4837	2,296.88	73.4554	2,296.88	68.2579	2,296.88	64.0971	2,296.88	68.7729	2,296.88	70.8807	2,296.88	62.2045	2,296.88	69.6133
2,378.91	86.7094	2,378.91	86.1242	2,378.91	86.9925	2,378.91	85.6509	2,378.91	87.0677	2,378.91	85.4091	2,378.91	85.7767	2,378.91	83.8481	2,378.91	85.4305	2,378.91	81.8911	2,378.91	84.7145	2,378.91	80.8669	2,378.91	83.1059	2,378.91	78.7411	2,378.91	81.1409	2,378.91	74.2285	2,378.91	80.7806	2,378.91	72.093	2,378.91	77.6474	2,378.91	75.1342	2,378.91	77.2721	2,378.91	72.6037	2,378.91	76.4997	2,378.91	73.999	2,378.91	73.5525	2,378.91	69.6152	2,378.91	74.7552	2,378.91	66.4455	2,378.91	73.353	2,378.91	57.5632	2,378.91	72.5349	2,378.91	63.3684	2,378.91	71.7539	2,378.91	70.9606	2,378.91	69.6502	2,378.91	71.0396
2,462.4	88.8296	2,462.4	88.7882	2,462.4	88.1457	2,462.4	87.6519	2,462.4	87.2408	2,462.4	86.3136	2,462.4	87.5487	2,462.4	85.6512	2,462.4	86.583	2,462.4	84.9081	2,462.4	85.8633	2,462.4	82.6598	2,462.4	84.6853	2,462.4	80.8912	2,462.4	83.1458	2,462.4	81.0408	2,462.4	80.9544	2,462.4	77.9137	2,462.4	80.6563	2,462.4	75.6582	2,462.4	78.501	2,462.4	73.9676	2,462.4	76.7428	2,462.4	72.8971	2,462.4	76.3209	2,462.4	71.9532	2,462.4	74.4262	2,462.4	69.0449	2,462.4	70.0657	2,462.4	69.5872	2,462.4	76.0102	2,462.4	66.8139	2,462.4	70.9747	2,462.4	69.639	2,462.4	66.6234	2,462.4	69.7196
2,548.83	88.5088	2,548.83	88.17	2,548.83	89.0669	2,548.83	88.1235	2,548.83	88.5642	2,548.83	87.5047	2,548.83	87.474	2,548.83	86.7627	2,548.83	86.6043	2,548.83	85.6592	2,548.83	84.9564	2,548.83	84.5289	2,548.83	84.1595	2,548.83	82.616	2,548.83	82.4774	2,548.83	79.8713	2,548.83	80.792	2,548.83	77.9538	2,548.83	78.7123	2,548.83	78.2861	2,548.83	77.1172	2,548.83	74.3637	2,548.83	74.2793	2,548.83	76.3307	2,548.83	73.7975	2,548.83	74.9407	2,548.83	76.0309	2,548.83	70.2483	2,548.83	69.2324	2,548.83	71.0496	2,548.83	69.2412	2,548.83	57.8562	2,548.83	70.2474	2,548.83	65.5938	2,548.83	68.2755	2,548.83	69.1014
2,639.65	87.2952	2,639.65	86.6714	2,639.65	86.3491	2,639.65	86.5779	2,639.65	86.4176	2,639.65	85.8825	2,639.65	86.4409	2,639.65	85.8957	2,639.65	85.5452	2,639.65	84.7305	2,639.65	85.334	2,639.65	83.1614	2,639.65	83.9438	2,639.65	81.5821	2,639.65	82.49	2,639.65	82.0515	2,639.65	81.0949	2,639.65	79.4425	2,639.65	80.4991	2,639.65	77.4515	2,639.65	77.4281	2,639.65	76.8055	2,639.65	76.3889	2,639.65	75.306	2,639.65	74.2785	2,639.65	72.6973	2,639.65	74.7098	2,639.65	69.2308	2,639.65	73.9147	2,639.65	68.9928	2,639.65	73.934	2,639.65	69.8676	2,639.65	71.8153	2,639.65	68.2872	2,639.65	65.9921	2,639.65	70.1802
2,731.93	85.9042	2,731.93	86.5208	2,731.93	87.1282	2,731.93	85.8944	2,731.93	86.4239	2,731.93	86.1399	2,731.93	85.5792	2,731.93	84.7006	2,731.93	85.9121	2,731.93	84.3629	2,731.93	84.7474	2,731.93	83.0855	2,731.93	83.8165	2,731.93	81.0034	2,731.93	82.1283	2,731.93	78.6052	2,731.93	81.1469	2,731.93	77.4181	2,731.93	77.6989	2,731.93	75.3114	2,731.93	77.4733	2,731.93	71.6885	2,731.93	75.2984	2,731.93	70.7673	2,731.93	74.8918	2,731.93	74.8444	2,731.93	74.7358	2,731.93	66.3315	2,731.93	69.4286	2,731.93	69.1461	2,731.93	70.2095	2,731.93	66.6176	2,731.93	67.9852	2,731.93	70.9664	2,731.93	65.0498	2,731.93	69.7985
2,828.61	86.8552	2,828.61	86.5973	2,828.61	85.9667	2,828.61	86.2351	2,828.61	86.669	2,828.61	85.8069	2,828.61	87.5609	2,828.61	86.3459	2,828.61	86.7972	2,828.61	84.1003	2,828.61	86.5514	2,828.61	82.8797	2,828.61	85.43	2,828.61	81.3114	2,828.61	84.4638	2,828.61	78.7619	2,828.61	80.7807	2,828.61	78.1049	2,828.61	80.5612	2,828.61	77.0432	2,828.61	77.2448	2,828.61	76.2996	2,828.61	75.2293	2,828.61	72.0615	2,828.61	74.5799	2,828.61	72.5966	2,828.61	72.4195	2,828.61	65.5162	2,828.61	72.5283	2,828.61	66.3572	2,828.61	71.9036	2,828.61	67.3263	2,828.61	71.1121	2,828.61	68.3828	2,828.61	67.5618	2,828.61	69.7251
2,928.22	86.5957	2,928.22	87.1566	2,928.22	87.5652	2,928.22	87.9605	2,928.22	87.3794	2,928.22	88.0656	2,928.22	86.9893	2,928.22	86.4307	2,928.22	87.5312	2,928.22	85.8752	2,928.22	86.5293	2,928.22	84.4273	2,928.22	84.5959	2,928.22	81.6451	2,928.22	82.3291	2,928.22	80.4261	2,928.22	82.4453	2,928.22	77.3573	2,928.22	79.6487	2,928.22	74.5055	2,928.22	77.9059	2,928.22	72.2975	2,928.22	75.3391	2,928.22	74.2283	2,928.22	75.4084	2,928.22	73.0692	2,928.22	76.4912	2,928.22	69.7659	2,928.22	72.078	2,928.22	69.3691	2,928.22	72.4791	2,928.22	55.998	2,928.22	73.5302	2,928.22	61.5636	2,928.22	68.5848	2,928.22	69.5339
3,030.76	86.8062	3,030.76	86.9118	3,030.76	86.6236	3,030.76	86.8158	3,030.76	86.8706	3,030.76	87.1555	3,030.76	88.1553	3,030.76	87.3659	3,030.76	87.2718	3,030.76	85.6595	3,030.76	86.1763	3,030.76	84.037	3,030.76	85.2778	3,030.76	81.1087	3,030.76	84.2484	3,030.76	80.7735	3,030.76	79.8294	3,030.76	78.8401	3,030.76	80.716	3,030.76	78.2015	3,030.76	75.7504	3,030.76	75.3242	3,030.76	76.3762	3,030.76	72.7316	3,030.76	75.5422	3,030.76	70.8923	3,030.76	71.8824	3,030.76	65.8391	3,030.76	75.8814	3,030.76	65.6906	3,030.76	71.7736	3,030.76	63.438	3,030.76	71.945	3,030.76	65.0898	3,030.76	63.4297	3,030.76	69.169
3,137.7	86.9023	3,137.7	87.2159	3,137.7	86.4863	3,137.7	88.187	3,137.7	87.4741	3,137.7	87.8387	3,137.7	87.7285	3,137.7	87.6854	3,137.7	87.8186	3,137.7	86.1796	3,137.7	87.436	3,137.7	84.3909	3,137.7	84.7841	3,137.7	82.4137	3,137.7	83.1887	3,137.7	80.6714	3,137.7	82.3713	3,137.7	78.2911	3,137.7	79.9762	3,137.7	75.1959	3,137.7	77.4072	3,137.7	71.7491	3,137.7	75.4589	3,137.7	74.9411	3,137.7	75.487	3,137.7	69.7782	3,137.7	76.2212	3,137.7	70.2187	3,137.7	71.6206	3,137.7	65.7178	3,137.7	71.1803	3,137.7	53.7102	3,137.7	70.9766	3,137.7	65.1754	3,137.7	66.5933	3,137.7	62.1108
3,249.02	85.9607	3,249.02	86.8915	3,249.02	87.0572	3,249.02	87.318	3,249.02	86.5888	3,249.02	87.693	3,249.02	87.3497	3,249.02	86.4857	3,249.02	87.3474	3,249.02	85.9248	3,249.02	86.4324	3,249.02	83.7321	3,249.02	85.5163	3,249.02	81.3308	3,249.02	83.2468	3,249.02	80.8256	3,249.02	79.9036	3,249.02	77.6543	3,249.02	79.0389	3,249.02	77.2565	3,249.02	76.3023	3,249.02	72.489	3,249.02	74.8475	3,249.02	74.0114	3,249.02	71.2677	3,249.02	68.8744	3,249.02	72.2688	3,249.02	62.9394	3,249.02	73.5828	3,249.02	63.281	3,249.02	70.576	3,249.02	62.8369	3,249.02	74.1226	3,249.02	67.0519	3,249.02	63.8182	3,249.02	60.8308
3,363.28	85.8469	3,363.28	86.2399	3,363.28	85.762	3,363.28	87.0101	3,363.28	87.1891	3,363.28	87.2456	3,363.28	88.3147	3,363.28	87.4553	3,363.28	87.4009	3,363.28	85.2741	3,363.28	86.0328	3,363.28	83.0367	3,363.28	84.5994	3,363.28	80.9823	3,363.28	82.5011	3,363.28	78.3467	3,363.28	81.2666	3,363.28	77.2363	3,363.28	79.902	3,363.28	74.3095	3,363.28	76.5875	3,363.28	73.0411	3,363.28	73.1086	3,363.28	72.4511	3,363.28	73.1102	3,363.28	67.594	3,363.28	72.935	3,363.28	64.1268	3,363.28	69.9837	3,363.28	61.963	3,363.28	67.5474	3,363.28	60.1835	3,363.28	71.102	3,363.28	59.4188	3,363.28	68.4358	3,363.28	51.8876
3,481.93	86.7848	3,481.93	87.0126	3,481.93	86.1313	3,481.93	87.9724	3,481.93	86.6573	3,481.93	87.814	3,481.93	87.3429	3,481.93	86.9238	3,481.93	87.5626	3,481.93	85.9814	3,481.93	86.3414	3,481.93	83.62	3,481.93	85.0341	3,481.93	81.2546	3,481.93	82.6967	3,481.93	78.754	3,481.93	79.7829	3,481.93	77.9859	3,481.93	78.3643	3,481.93	75.9758	3,481.93	77.0433	3,481.93	70.7236	3,481.93	74.1481	3,481.93	71.8988	3,481.93	70.7202	3,481.93	68.5134	3,481.93	71.6286	3,481.93	66.4682	3,481.93	72.7543	3,481.93	67.1273	3,481.93	67.2305	3,481.93	52.2378	3,481.93	69.8095	3,481.93	60.1119	3,481.93	65.2763	3,481.93	61.0592
3,604.98	86.1493	3,604.98	87.017	3,604.98	87.1403	3,604.98	87.7974	3,604.98	87.7451	3,604.98	88.0064	3,604.98	88.0631	3,604.98	87.094	3,604.98	87.8458	3,604.98	85.6502	3,604.98	86.9889	3,604.98	83.2361	3,604.98	85.5891	3,604.98	81.2147	3,604.98	83.6276	3,604.98	79.511	3,604.98	81.3245	3,604.98	76.607	3,604.98	80.0883	3,604.98	75.9285	3,604.98	78.1332	3,604.98	72.3115	3,604.98	76.0572	3,604.98	72.9975	3,604.98	72.1209	3,604.98	70.4035	3,604.98	73.9967	3,604.98	66.2041	3,604.98	72.4813	3,604.98	61.0675	3,604.98	69.1505	3,604.98	50.0739	3,604.98	70.7835	3,604.98	48.7312	3,604.98	60.0158	3,604.98	55.9104
3,732.42	87.2795	3,732.42	88.0427	3,732.42	87.3569	3,732.42	88.165	3,732.42	88.3475	3,732.42	88.1402	3,732.42	88.649	3,732.42	87.2284	3,732.42	87.8776	3,732.42	85.1319	3,732.42	86.3973	3,732.42	83.0295	3,732.42	84.4855	3,732.42	80.471	3,732.42	82.0891	3,732.42	78.7522	3,732.42	81.5932	3,732.42	76.6565	3,732.42	80.0119	3,732.42	73.4453	3,732.42	77.7742	3,732.42	72.7879	3,732.42	75.4814	3,732.42	74.045	3,732.42	72.8843	3,732.42	67.1082	3,732.42	72.5082	3,732.42	65.5176	3,732.42	70.1132	3,732.42	64.4806	3,732.42	67.3708	3,732.42	57.8215	3,732.42	71.8883	3,732.42	55.1012	3,732.42	67.294	3,732.42	61.3188
3,864.26	86.8139	3,864.26	87.3339	3,864.26	86.0539	3,864.26	88.076	3,864.26	86.2157	3,864.26	87.401	3,864.26	86.7596	3,864.26	86.2746	3,864.26	86.5309	3,864.26	84.3451	3,864.26	84.8731	3,864.26	83.3486	3,864.26	83.5018	3,864.26	81.5789	3,864.26	82.3157	3,864.26	79.6977	3,864.26	79.9591	3,864.26	76.7483	3,864.26	77.2378	3,864.26	75.5012	3,864.26	76.1968	3,864.26	71.8155	3,864.26	75.0401	3,864.26	71.4685	3,864.26	70.446	3,864.26	69.0037	3,864.26	68.6361	3,864.26	67.8944	3,864.26	69.4381	3,864.26	67.5608	3,864.26	68.2175	3,864.26	62.3978	3,864.26	69.9534	3,864.26	61.8301	3,864.26	65.5126	3,864.26	59.6937
4,000.49	86.6385	4,000.49	86.7526	4,000.49	86.9702	4,000.49	87.4921	4,000.49	87.0267	4,000.49	86.9549	4,000.49	87.4751	4,000.49	84.8445	4,000.49	86.5995	4,000.49	82.8138	4,000.49	85.0205	4,000.49	81.0628	4,000.49	84.2015	4,000.49	79.3523	4,000.49	82.7081	4,000.49	77.599	4,000.49	80.3549	4,000.49	75.1149	4,000.49	78.1922	4,000.49	75.1372	4,000.49	77.8443	4,000.49	71.1219	4,000.49	75.1909	4,000.49	69.5353	4,000.49	72.1515	4,000.49	67.7362	4,000.49	74.8777	4,000.49	59.9538	4,000.49	72.3997	4,000.49	62.3486	4,000.49	68.057	4,000.49	64.2634	4,000.49	71.0783	4,000.49	65.9972	4,000.49	65.91	4,000.49	54.2027
4,141.11	88.0728	4,141.11	88.2238	4,141.11	88.0352	4,141.11	88.2937	4,141.11	88.0095	4,141.11	87.355	4,141.11	87.89	4,141.11	86.3588	4,141.11	87.0801	4,141.11	84.4766	4,141.11	85.5682	4,141.11	82.1144	4,141.11	84.7699	4,141.11	80.2149	4,141.11	83.1409	4,141.11	78.4699	4,141.11	80.3856	4,141.11	75.954	4,141.11	79.7198	4,141.11	74.4738	4,141.11	77.0363	4,141.11	73.2752	4,141.11	74.5809	4,141.11	69.9929	4,141.11	72.4701	4,141.11	66.7154	4,141.11	72.3983	4,141.11	69.1785	4,141.11	70.058	4,141.11	63.2786	4,141.11	67.6174	4,141.11	61.5259	4,141.11	70.2799	4,141.11	63.1459	4,141.11	67.2146	4,141.11	63.4699
4,287.6	87.9507	4,287.6	88.1	4,287.6	87.8555	4,287.6	87.5337	4,287.6	87.3182	4,287.6	86.3485	4,287.6	87.2232	4,287.6	85.4602	4,287.6	86.3544	4,287.6	83.8187	4,287.6	85.4527	4,287.6	82.3628	4,287.6	83.7549	4,287.6	80.2968	4,287.6	82.2163	4,287.6	78.7478	4,287.6	80.5527	4,287.6	77.225	4,287.6	79.1685	4,287.6	74.6826	4,287.6	76.6439	4,287.6	71.1514	4,287.6	74.3138	4,287.6	70.1732	4,287.6	71.8014	4,287.6	69.9355	4,287.6	73.1267	4,287.6	59.4164	4,287.6	69.7988	4,287.6	62.2476	4,287.6	70.1974	4,287.6	57.1565	4,287.6	70.9879	4,287.6	53.0712	4,287.6	68.1581	4,287.6	57.0548
4,438.48	89.613	4,438.48	89.1788	4,438.48	89.4835	4,438.48	88.123	4,438.48	88.4398	4,438.48	86.7565	4,438.48	87.7246	4,438.48	84.5117	4,438.48	86.3807	4,438.48	82.808	4,438.48	84.946	4,438.48	81.5921	4,438.48	83.7228	4,438.48	80.2054	4,438.48	82.5731	4,438.48	77.7928	4,438.48	80.372	4,438.48	75.9032	4,438.48	78.2695	4,438.48	72.5181	4,438.48	76.0807	4,438.48	70.927	4,438.48	74.0007	4,438.48	69.3974	4,438.48	71.5875	4,438.48	66.2767	4,438.48	68.947	4,438.48	68.9661	4,438.48	71.3225	4,438.48	66.3983	4,438.48	68.9737	4,438.48	63.3662	4,438.48	62.4102	4,438.48	61.4946	4,438.48	64.7898	4,438.48	59.1976
4,595.21	89.4604	4,595.21	88.919	4,595.21	89.1285	4,595.21	87.9936	4,595.21	88.2545	4,595.21	86.5757	4,595.21	87.1076	4,595.21	85.6683	4,595.21	86.4765	4,595.21	83.4852	4,595.21	85.2456	4,595.21	82.5892	4,595.21	83.523	4,595.21	80.4622	4,595.21	81.673	4,595.21	77.0968	4,595.21	79.9283	4,595.21	75.7824	4,595.21	78.0493	4,595.21	73.6623	4,595.21	75.1714	4,595.21	69.9132	4,595.21	72.8732	4,595.21	68.7633	4,595.21	70.6314	4,595.21	68.277	4,595.21	70.4698	4,595.21	67.7014	4,595.21	71.2572	4,595.21	63.2085	4,595.21	67.2211	4,595.21	63.4558	4,595.21	69.2922	4,595.21	62.4393	4,595.21	68.4891	4,595.21	60.3576
4,756.35	90.8501	4,756.35	89.8884	4,756.35	90.5526	4,756.35	88.6843	4,756.35	89.1155	4,756.35	87.4035	4,756.35	87.9524	4,756.35	86.5111	4,756.35	87.1422	4,756.35	84.6804	4,756.35	86.0586	4,756.35	83.0456	4,756.35	84.4117	4,756.35	80.1599	4,756.35	83.4849	4,756.35	77.9807	4,756.35	80.4483	4,756.35	74.1378	4,756.35	78.0358	4,756.35	75.3058	4,756.35	75.3245	4,756.35	72.84	4,756.35	74.2735	4,756.35	68.1195	4,756.35	71.8217	4,756.35	65.7103	4,756.35	69.2584	4,756.35	60.422	4,756.35	68.1703	4,756.35	60.2858	4,756.35	68.1241	4,756.35	61.5951	4,756.35	62.5217	4,756.35	50.8658	4,756.35	66.4167	4,756.35	64.2922
4,924.8	90.5909	4,924.8	89.6644	4,924.8	90.4009	4,924.8	88.5165	4,924.8	89.0593	4,924.8	87.9876	4,924.8	87.6587	4,924.8	87.6306	4,924.8	86.9807	4,924.8	86.5248	4,924.8	86.303	4,924.8	84.6779	4,924.8	85.2416	4,924.8	83.0994	4,924.8	82.9657	4,924.8	80.3222	4,924.8	80.7011	4,924.8	78.3159	4,924.8	78.6189	4,924.8	74.1132	4,924.8	76.0045	4,924.8	72.6649	4,924.8	73.2042	4,924.8	71.3914	4,924.8	72.4092	4,924.8	68.5555	4,924.8	68.911	4,924.8	65.5947	4,924.8	66.4451	4,924.8	66.8808	4,924.8	68.8002	4,924.8	54.667	4,924.8	65.9158	4,924.8	64.744	4,924.8	63.7962	4,924.8	55.7473
5,097.66	90.0872	5,097.66	88.9588	5,097.66	90.0704	5,097.66	87.8334	5,097.66	89.016	5,097.66	87.3225	5,097.66	87.9534	5,097.66	87.1435	5,097.66	87.6539	5,097.66	85.5563	5,097.66	87.0336	5,097.66	84.0334	5,097.66	85.037	5,097.66	81.0462	5,097.66	82.8261	5,097.66	78.5826	5,097.66	80.3273	5,097.66	76.4526	5,097.66	78.2568	5,097.66	74.9943	5,097.66	75.2564	5,097.66	71.6214	5,097.66	71.4386	5,097.66	70.5812	5,097.66	67.8789	5,097.66	66.2843	5,097.66	73.1123	5,097.66	66.2402	5,097.66	70.2406	5,097.66	66.6327	5,097.66	69.5159	5,097.66	57.8111	5,097.66	67.5288	5,097.66	60.4756	5,097.66	63.0892	5,097.66	53.097
5,277.83	90.2729	5,277.83	89.4907	5,277.83	90.018	5,277.83	88.726	5,277.83	89.1804	5,277.83	88.1733	5,277.83	88.2274	5,277.83	88.0407	5,277.83	87.8461	5,277.83	86.3983	5,277.83	87.0261	5,277.83	83.7733	5,277.83	85.6398	5,277.83	80.4701	5,277.83	82.9754	5,277.83	77.7853	5,277.83	79.5027	5,277.83	74.2777	5,277.83	76.9888	5,277.83	70.4547	5,277.83	75.2788	5,277.83	70.0821	5,277.83	73.467	5,277.83	67.895	5,277.83	70.3315	5,277.83	67.2336	5,277.83	70.1938	5,277.83	66.9576	5,277.83	68.2972	5,277.83	62.4498	5,277.83	67.1442	5,277.83	41.7901	5,277.83	61.3364	5,277.83	59.3024	5,277.83	58.6364	5,277.83	56.7724
5,463.87	90.2869	5,463.87	89.3237	5,463.87	90.5036	5,463.87	88.469	5,463.87	89.4658	5,463.87	88.247	5,463.87	89.0114	5,463.87	87.4044	5,463.87	88.4342	5,463.87	85.298	5,463.87	87.4695	5,463.87	82.7509	5,463.87	85.2522	5,463.87	80.3509	5,463.87	82.641	5,463.87	78.0276	5,463.87	80.6181	5,463.87	75.6607	5,463.87	77.4125	5,463.87	74.026	5,463.87	74.4956	5,463.87	70.9035	5,463.87	71.4374	5,463.87	70.0274	5,463.87	67.4789	5,463.87	58.7049	5,463.87	70.6577	5,463.87	66.3462	5,463.87	69.4505	5,463.87	66.7941	5,463.87	67.9757	5,463.87	50.733	5,463.87	67.1076	5,463.87	57.3452	5,463.87	63.7408	5,463.87	59.3637
5,657.23	90.1271	5,657.23	89.4416	5,657.23	90.0721	5,657.23	89.2001	5,657.23	89.4171	5,657.23	88.681	5,657.23	88.9118	5,657.23	87.6348	5,657.23	88.3803	5,657.23	85.3168	5,657.23	86.8364	5,657.23	82.5972	5,657.23	85.1363	5,657.23	79.9106	5,657.23	82.0014	5,657.23	76.2223	5,657.23	79.7453	5,657.23	73.8977	5,657.23	76.6543	5,657.23	71.6118	5,657.23	75.6388	5,657.23	70.745	5,657.23	73.1436	5,657.23	67.9112	5,657.23	71.4325	5,657.23	62.8179	5,657.23	67.439	5,657.23	62.9536	5,657.23	67.4601	5,657.23	66.3329	5,657.23	67.4489	5,657.23	49.3258	5,657.23	63.641	5,657.23	53.0096	5,657.23	58.2615	5,657.23	53.0258
5,856.45	90.1245	5,856.45	89.34	5,856.45	89.968	5,856.45	88.3492	5,856.45	89.2066	5,856.45	87.8342	5,856.45	88.8912	5,856.45	87.1148	5,856.45	88.4186	5,856.45	84.6047	5,856.45	87.1894	5,856.45	82.6073	5,856.45	85.462	5,856.45	79.8818	5,856.45	83.0207	5,856.45	77.5144	5,856.45	79.315	5,856.45	75.4966	5,856.45	77.1972	5,856.45	73.3572	5,856.45	74.5602	5,856.45	72.1066	5,856.45	72.0847	5,856.45	68.6202	5,856.45	69.775	5,856.45	66.6029	5,856.45	67.8873	5,856.45	63.4357	5,856.45	67.4656	5,856.45	67.8229	5,856.45	68.2554	5,856.45	48.8461	5,856.45	68.0332	5,856.45	57.0684	5,856.45	62.8183	5,856.45	55.7972
6,062.99	90.568	6,062.99	89.6095	6,062.99	90.2505	6,062.99	89.139	6,062.99	89.1551	6,062.99	88.8433	6,062.99	88.9593	6,062.99	87.6344	6,062.99	88.7403	6,062.99	85.7099	6,062.99	87.6039	6,062.99	83.4105	6,062.99	85.7233	6,062.99	80.9479	6,062.99	83.1832	6,062.99	78.0535	6,062.99	80.6061	6,062.99	75.435	6,062.99	77.7459	6,062.99	73.2713	6,062.99	75.956	6,062.99	70.1253	6,062.99	73.3435	6,062.99	66.7936	6,062.99	71.2938	6,062.99	68.1694	6,062.99	70.5602	6,062.99	62.4152	6,062.99	67.9206	6,062.99	59.8424	6,062.99	67.6575	6,062.99	49.0769	6,062.99	67.628	6,062.99	63.8729	6,062.99	69.2262	6,062.99	55.9601
6,276.86	90.2748	6,276.86	89.1496	6,276.86	90.1351	6,276.86	88.8498	6,276.86	89.2312	6,276.86	88.6262	6,276.86	89.048	6,276.86	87.3625	6,276.86	88.8586	6,276.86	84.9962	6,276.86	87.231	6,276.86	83.1287	6,276.86	85.4525	6,276.86	80.715	6,276.86	83.1263	6,276.86	77.3736	6,276.86	80.4457	6,276.86	75.2057	6,276.86	77.8578	6,276.86	73.1783	6,276.86	75.2287	6,276.86	71.7444	6,276.86	72.8667	6,276.86	67.4012	6,276.86	70.0545	6,276.86	65.6759	6,276.86	70.318	6,276.86	68.461	6,276.86	68.9664	6,276.86	56.6567	6,276.86	67.9926	6,276.86	51.0266	6,276.86	69.1759	6,276.86	48.9211	6,276.86	64.6143	6,276.86	47.1476
6,498.05	90.1377	6,498.05	89.4054	6,498.05	90.0905	6,498.05	89.3651	6,498.05	89.5619	6,498.05	89.0505	6,498.05	89.5902	6,498.05	87.7881	6,498.05	89.366	6,498.05	85.595	6,498.05	88.114	6,498.05	83.5153	6,498.05	86.6293	6,498.05	81.132	6,498.05	84.5128	6,498.05	77.9413	6,498.05	81.7747	6,498.05	74.518	6,498.05	79.1646	6,498.05	72.2667	6,498.05	76.2577	6,498.05	70.5613	6,498.05	73.5064	6,498.05	68.985	6,498.05	71.2631	6,498.05	65.9294	6,498.05	72.2536	6,498.05	65.9043	6,498.05	71.5746	6,498.05	61.1693	6,498.05	68.8636	6,498.05	57.356	6,498.05	68.9399	6,498.05	55.839	6,498.05	63.4006	6,498.05	52.508
6,726.56	90.3029	6,726.56	89.9284	6,726.56	90.0023	6,726.56	89.8307	6,726.56	89.552	6,726.56	89.4591	6,726.56	89.704	6,726.56	88.0947	6,726.56	89.233	6,726.56	86.0858	6,726.56	87.9403	6,726.56	84.4977	6,726.56	86.6717	6,726.56	81.4448	6,726.56	84.2292	6,726.56	78.3951	6,726.56	81.5797	6,726.56	75.3859	6,726.56	78.9286	6,726.56	73.0664	6,726.56	76.4141	6,726.56	70.2097	6,726.56	73.1194	6,726.56	70.3664	6,726.56	71.7196	6,726.56	67.7194	6,726.56	70.7318	6,726.56	65.7958	6,726.56	70.8517	6,726.56	56.8075	6,726.56	69.0084	6,726.56	56.1781	6,726.56	65.9618	6,726.56	56.4053	6,726.56	62.1157	6,726.56	46.478
6,963.87	90.3504	6,963.87	90.1478	6,963.87	90.3925	6,963.87	89.9648	6,963.87	90.2482	6,963.87	89.2527	6,963.87	89.9757	6,963.87	87.5994	6,963.87	89.2909	6,963.87	85.5246	6,963.87	88.2733	6,963.87	83.9284	6,963.87	86.8843	6,963.87	80.4314	6,963.87	84.6495	6,963.87	77.6176	6,963.87	81.5747	6,963.87	74.472	6,963.87	78.6789	6,963.87	71.2882	6,963.87	76.2549	6,963.87	69.6645	6,963.87	72.521	6,963.87	68.2048	6,963.87	71.3344	6,963.87	68.1706	6,963.87	69.615	6,963.87	64.4664	6,963.87	70.4171	6,963.87	62.2879	6,963.87	70.7029	6,963.87	59.5587	6,963.87	68.1784	6,963.87	38.4633	6,963.87	57.8466	6,963.87	56.993
7,209.96	90.5732	7,209.96	90.6857	7,209.96	90.805	7,209.96	90.5764	7,209.96	91.0243	7,209.96	89.5266	7,209.96	90.6361	7,209.96	88.107	7,209.96	90.0456	7,209.96	86.2393	7,209.96	89.2261	7,209.96	84.1402	7,209.96	87.5416	7,209.96	81.7456	7,209.96	85.1012	7,209.96	77.8286	7,209.96	82.4359	7,209.96	76.1562	7,209.96	78.7598	7,209.96	72.3269	7,209.96	76.1687	7,209.96	70.4332	7,209.96	73.3507	7,209.96	67.739	7,209.96	69.8055	7,209.96	67.5828	7,209.96	71.6388	7,209.96	66.3868	7,209.96	70.5577	7,209.96	60.5842	7,209.96	72.0104	7,209.96	60.733	7,209.96	70.0753	7,209.96	62.3673	7,209.96	61.1239	7,209.96	49.6592
7,464.84	90.6036	7,464.84	90.8384	7,464.84	90.4954	7,464.84	90.9179	7,464.84	90.6825	7,464.84	89.738	7,464.84	89.9669	7,464.84	88.5099	7,464.84	89.3799	7,464.84	86.3884	7,464.84	88.6215	7,464.84	84.1506	7,464.84	87.0927	7,464.84	80.5042	7,464.84	84.0037	7,464.84	76.9053	7,464.84	81.1698	7,464.84	74.1258	7,464.84	77.5738	7,464.84	71.9212	7,464.84	74.229	7,464.84	70.5761	7,464.84	70.5473	7,464.84	67.8806	7,464.84	69.2926	7,464.84	62.1499	7,464.84	68.2297	7,464.84	59.7223	7,464.84	68.6212	7,464.84	56.4787	7,464.84	69.1712	7,464.84	62.6246	7,464.84	65.4962	7,464.84	54.1016	7,464.84	64.1449	7,464.84	51.556
7,727.05	91.2463	7,727.05	91.7885	7,727.05	91.5777	7,727.05	91.0712	7,727.05	91.8486	7,727.05	89.8906	7,727.05	91.0549	7,727.05	88.2878	7,727.05	90.3596	7,727.05	86.1821	7,727.05	89.6324	7,727.05	83.309	7,727.05	87.8959	7,727.05	80.5388	7,727.05	84.7859	7,727.05	76.7387	7,727.05	81.2368	7,727.05	74.4878	7,727.05	78.867	7,727.05	71.7263	7,727.05	76.6677	7,727.05	71.1068	7,727.05	73.1297	7,727.05	68.4804	7,727.05	71.9582	7,727.05	65.0414	7,727.05	70.7838	7,727.05	65.5411	7,727.05	69.6829	7,727.05	58.7995	7,727.05	70.7045	7,727.05	60.6457	7,727.05	65.7257	7,727.05	44.1943	7,727.05	64.399	7,727.05	59.323
7,999.51	91.0675	7,999.51	91.7628	7,999.51	91.4622	7,999.51	91.0142	7,999.51	91.6448	7,999.51	89.8737	7,999.51	90.5535	7,999.51	88.4265	7,999.51	90.2014	7,999.51	86.4728	7,999.51	89.4072	7,999.51	83.8751	7,999.51	87.7384	7,999.51	81.0856	7,999.51	84.5922	7,999.51	77.1317	7,999.51	81.689	7,999.51	74.9567	7,999.51	78.4978	7,999.51	71.9024	7,999.51	75.8134	7,999.51	70.4949	7,999.51	72.5032	7,999.51	68.3538	7,999.51	70.6529	7,999.51	65.5965	7,999.51	71.664	7,999.51	64.6213	7,999.51	67.8072	7,999.51	62.5111	7,999.51	71.8734	7,999.51	61.8188	7,999.51	68.0391	7,999.51	54.8858	7,999.51	65.7529	7,999.51	55.1489
8,282.23	92.0182	8,282.23	92.4871	8,282.23	92.2512	8,282.23	91.695	8,282.23	92.6012	8,282.23	90.557	8,282.23	91.2392	8,282.23	88.7272	8,282.23	90.8502	8,282.23	86.4712	8,282.23	90.1669	8,282.23	84.173	8,282.23	88.1171	8,282.23	81.0429	8,282.23	85.513	8,282.23	77.6702	8,282.23	82.3436	8,282.23	73.7924	8,282.23	79.4892	8,282.23	70.618	8,282.23	78.1214	8,282.23	70.5023	8,282.23	73.9676	8,282.23	68.1487	8,282.23	71.1477	8,282.23	65.2355	8,282.23	72.1493	8,282.23	62.4221	8,282.23	70.902	8,282.23	60.7016	8,282.23	70.1005	8,282.23	62.5002	8,282.23	69.5081	8,282.23	55.8569	8,282.23	66.3086	8,282.23	62.4708
8,573.73	92.306	8,573.73	93.0784	8,573.73	92.5727	8,573.73	92.1599	8,573.73	92.5235	8,573.73	91.1331	8,573.73	91.4702	8,573.73	88.8918	8,573.73	91.0342	8,573.73	86.1682	8,573.73	89.9772	8,573.73	84.0385	8,573.73	88.2355	8,573.73	81.3491	8,573.73	85.8044	8,573.73	77.621	8,573.73	83.0063	8,573.73	74.0797	8,573.73	80.1255	8,573.73	72.4784	8,573.73	77.197	8,573.73	71.3008	8,573.73	73.901	8,573.73	65.691	8,573.73	72.4541	8,573.73	61.8821	8,573.73	68.2704	8,573.73	63.4884	8,573.73	69.3217	8,573.73	58.8294	8,573.73	71.5106	8,573.73	60.5171	8,573.73	66.96	8,573.73	51.6512	8,573.73	67.5992	8,573.73	58.2879
8,876.95	93.2032	8,876.95	93.3093	8,876.95	93.2669	8,876.95	92.3963	8,876.95	93.2702	8,876.95	91.4185	8,876.95	92.3742	8,876.95	88.409	8,876.95	91.6089	8,876.95	85.9647	8,876.95	90.4757	8,876.95	84.1419	8,876.95	88.7889	8,876.95	81.4291	8,876.95	86.4627	8,876.95	77.9832	8,876.95	83.507	8,876.95	74.6753	8,876.95	79.7509	8,876.95	71.2089	8,876.95	76.6709	8,876.95	71.5574	8,876.95	74.8797	8,876.95	67.1641	8,876.95	71.3682	8,876.95	64.5924	8,876.95	71.2931	8,876.95	63.3421	8,876.95	69.5489	8,876.95	55.8489	8,876.95	69.1578	8,876.95	64.5003	8,876.95	69.5236	8,876.95	56.2408	8,876.95	62.1133	8,876.95	48.6566
9,188.96	93.7102	9,188.96	93.6138	9,188.96	93.5627	9,188.96	93.0453	9,188.96	93.3077	9,188.96	91.9445	9,188.96	92.604	9,188.96	88.2166	9,188.96	91.4487	9,188.96	86.2627	9,188.96	90.081	9,188.96	84.1882	9,188.96	88.7132	9,188.96	81.1086	9,188.96	85.8737	9,188.96	77.4935	9,188.96	83.0285	9,188.96	73.7339	9,188.96	78.962	9,188.96	70.59	9,188.96	75.8083	9,188.96	70.5978	9,188.96	74.1015	9,188.96	66.7443	9,188.96	69.3503	9,188.96	59.6299	9,188.96	69.892	9,188.96	66.0134	9,188.96	68.6516	9,188.96	56.4093	9,188.96	71.3996	9,188.96	64.7777	9,188.96	63.5964	9,188.96	55.8836	9,188.96	60.7811	9,188.96	60.9635
9,514.16	94.6023	9,514.16	94.1554	9,514.16	94.4153	9,514.16	93.8008	9,514.16	93.9877	9,514.16	92.4359	9,514.16	93.364	9,514.16	87.9525	9,514.16	91.8618	9,514.16	85.8552	9,514.16	90.6035	9,514.16	83.9306	9,514.16	89.3061	9,514.16	80.131	9,514.16	86.163	9,514.16	76.0467	9,514.16	83.2008	9,514.16	73.3409	9,514.16	79.188	9,514.16	70.6472	9,514.16	76.7391	9,514.16	69.4908	9,514.16	73.9426	9,514.16	66.3187	9,514.16	71.0977	9,514.16	59.2568	9,514.16	70.3355	9,514.16	57.4757	9,514.16	71.4979	9,514.16	56.6183	9,514.16	70.9903	9,514.16	62.6444	9,514.16	68.1775	9,514.16	56.7855	9,514.16	68.5034	9,514.16	47.7753
9,849.61	95.0529	9,849.61	94.3829	9,849.61	94.7137	9,849.61	94.2574	9,849.61	94.2881	9,849.61	92.7481	9,849.61	93.7284	9,849.61	88.0171	9,849.61	91.9745	9,849.61	85.9246	9,849.61	90.6711	9,849.61	83.5399	9,849.61	89.3179	9,849.61	80.6168	9,849.61	86.2389	9,849.61	76.4274	9,849.61	82.5413	9,849.61	72.7554	9,849.61	79.6544	9,849.61	70.0932	9,849.61	77.057	9,849.61	71.2188	9,849.61	72.9058	9,849.61	67.1333	9,849.61	71.5359	9,849.61	46.8061	9,849.61	72.0892	9,849.61	62.2621	9,849.61	68.2165	9,849.61	59.2228	9,849.61	66.1732	9,849.61	57.0458	9,849.61	66.583	9,849.61	58.3676	9,849.61	66.0526	9,849.61	62.6295
10,196.8	95.6968	10,196.8	94.7975	10,196.8	95.2572	10,196.8	94.764	10,196.8	95.0612	10,196.8	93.1973	10,196.8	94.3683	10,196.8	87.896	10,196.8	92.4785	10,196.8	86.4308	10,196.8	91.2118	10,196.8	83.5013	10,196.8	89.5998	10,196.8	80.7139	10,196.8	86.3666	10,196.8	76.6651	10,196.8	83.3382	10,196.8	71.9815	10,196.8	79.9374	10,196.8	71.4926	10,196.8	76.7756	10,196.8	69.2327	10,196.8	74.3207	10,196.8	65.7221	10,196.8	71.8689	10,196.8	59.0638	10,196.8	72.3998	10,196.8	58.9909	10,196.8	69.3008	10,196.8	48.3372	10,196.8	69.3189	10,196.8	54.5455	10,196.8	67.7428	10,196.8	60.9615	10,196.8	64.8107	10,196.8	59.888
10,555.7	95.5697	10,555.7	94.7987	10,555.7	95.1343	10,555.7	94.6083	10,555.7	94.9354	10,555.7	93.2693	10,555.7	94.293	10,555.7	87.528	10,555.7	92.4262	10,555.7	86.3686	10,555.7	90.9789	10,555.7	83.0215	10,555.7	89.0677	10,555.7	80.0626	10,555.7	85.8755	10,555.7	77.1338	10,555.7	82.9517	10,555.7	71.5167	10,555.7	79.2188	10,555.7	72.0504	10,555.7	76.8182	10,555.7	69.4601	10,555.7	72.8177	10,555.7	62.7204	10,555.7	69.8137	10,555.7	55.6932	10,555.7	72.3666	10,555.7	62.0704	10,555.7	68.8544	10,555.7	59.1249	10,555.7	71.0419	10,555.7	57.6342	10,555.7	68.4355	10,555.7	63.9674	10,555.7	58.7974	10,555.7	57.336
10,927.7	95.2041	10,927.7	94.4563	10,927.7	94.8262	10,927.7	94.2514	10,927.7	94.4357	10,927.7	92.9728	10,927.7	93.7353	10,927.7	86.4003	10,927.7	91.9857	10,927.7	86.5307	10,927.7	90.5145	10,927.7	83.8293	10,927.7	88.8496	10,927.7	80.5241	10,927.7	86.042	10,927.7	77.8035	10,927.7	83.0101	10,927.7	72.278	10,927.7	79.0882	10,927.7	72.4583	10,927.7	75.175	10,927.7	69.7829	10,927.7	72.4975	10,927.7	59.7273	10,927.7	71.1938	10,927.7	61.6917	10,927.7	69.2006	10,927.7	55.9663	10,927.7	68.9763	10,927.7	59.2761	10,927.7	68.0081	10,927.7	56.1832	10,927.7	68.3336	10,927.7	63.7175	10,927.7	59.6262	10,927.7	58.978
11,313	94.4399	11,313	93.7817	11,313	94.164	11,313	93.1612	11,313	93.6675	11,313	92.1151	11,313	92.7808	11,313	85.6467	11,313	91.2733	11,313	86.6116	11,313	89.6954	11,313	84.1343	11,313	88.3431	11,313	81.1407	11,313	85.6852	11,313	77.1507	11,313	82.3823	11,313	73.2995	11,313	78.2375	11,313	70.5453	11,313	75.4737	11,313	69.3391	11,313	72.5119	11,313	58.5926	11,313	70.1667	11,313	64.4596	11,313	69.4756	11,313	55.7671	11,313	68.8759	11,313	54.0891	11,313	66.1463	11,313	62.3648	11,313	67.1234	11,313	64.012	11,313	57.6668	11,313	62.1725
11,712.9	93.2787	11,712.9	92.8243	11,712.9	93.0848	11,712.9	91.661	11,712.9	92.4805	11,712.9	91.0647	11,712.9	91.5476	11,712.9	84.0434	11,712.9	89.9761	11,712.9	86.7947	11,712.9	88.3654	11,712.9	84.1633	11,712.9	87.0572	11,712.9	81.0131	11,712.9	83.9753	11,712.9	77.7271	11,712.9	80.4836	11,712.9	73.899	11,712.9	76.8203	11,712.9	71.9859	11,712.9	74.7263	11,712.9	68.081	11,712.9	71.8171	11,712.9	63.7488	11,712.9	68.8394	11,712.9	66.4204	11,712.9	69.6249	11,712.9	60.5931	11,712.9	67.7786	11,712.9	43.2957	11,712.9	67.974	11,712.9	63.0674	11,712.9	63.2915	11,712.9	55.2047	11,712.9	66.1254	11,712.9	60.8296
12,126	91.9106	12,126	91.6008	12,126	91.9651	12,126	90.4107	12,126	90.9977	12,126	89.7574	12,126	90.3442	12,126	83.8719	12,126	88.763	12,126	86.9118	12,126	87.3891	12,126	84.4484	12,126	86.1979	12,126	81.3921	12,126	83.0653	12,126	78.0929	12,126	80.2797	12,126	75.1398	12,126	76.636	12,126	72.9545	12,126	73.7876	12,126	66.7619	12,126	70.4591	12,126	67.896	12,126	67.4613	12,126	65.3082	12,126	67.9798	12,126	62.9113	12,126	66.9745	12,126	61.1543	12,126	67.0575	12,126	58.1962	12,126	66.3442	12,126	63.8198	12,126	56.1107	12,126	56.748
12,553.7	90.5757	12,553.7	90.2723	12,553.7	90.81	12,553.7	88.9971	12,553.7	89.3803	12,553.7	88.2835	12,553.7	88.9568	12,553.7	84.3891	12,553.7	87.2237	12,553.7	87.0904	12,553.7	86.33	12,553.7	85.0984	12,553.7	85.2614	12,553.7	82.8036	12,553.7	83.2373	12,553.7	79.073	12,553.7	80.1665	12,553.7	76.1671	12,553.7	76.191	12,553.7	71.3764	12,553.7	70.0361	12,553.7	69.6855	12,553.7	69.1144	12,553.7	64.2658	12,553.7	65.6858	12,553.7	60.7037	12,553.7	67.5209	12,553.7	59.93	12,553.7	66.9007	12,553.7	58.1756	12,553.7	62.6585	12,553.7	60.2969	12,553.7	52.2521	12,553.7	49.9333	12,553.7	62.0676	12,553.7	57.8946
12,996.1	89.1303	12,996.1	89.1598	12,996.1	89.4296	12,996.1	87.6383	12,996.1	87.9051	12,996.1	87.0307	12,996.1	87.5814	12,996.1	84.334	12,996.1	85.9013	12,996.1	87.1132	12,996.1	84.5095	12,996.1	85.3891	12,996.1	84.0776	12,996.1	82.8482	12,996.1	81.6062	12,996.1	79.2058	12,996.1	78.0866	12,996.1	74.9688	12,996.1	74.4452	12,996.1	73.4024	12,996.1	70.6607	12,996.1	68.3901	12,996.1	67.8227	12,996.1	64.3283	12,996.1	62.6807	12,996.1	63.9016	12,996.1	68.9383	12,996.1	54.3446	12,996.1	67.0694	12,996.1	61.4005	12,996.1	62.8266	12,996.1	51.293	12,996.1	62.2822	12,996.1	58.5304	12,996.1	38.4667	12,996.1	57.3518
13,454.6	87.8341	13,454.6	87.6153	13,454.6	87.9658	13,454.6	86.3297	13,454.6	86.5102	13,454.6	86.1321	13,454.6	85.9967	13,454.6	84.4474	13,454.6	85.0721	13,454.6	86.8852	13,454.6	83.2139	13,454.6	85.0049	13,454.6	83.1033	13,454.6	82.2198	13,454.6	80.833	13,454.6	78.5536	13,454.6	76.0772	13,454.6	75.3131	13,454.6	72.8448	13,454.6	70.8428	13,454.6	69.6313	13,454.6	67.2036	13,454.6	65.6806	13,454.6	64.5702	13,454.6	63.6763	13,454.6	63.8647	13,454.6	69.0109	13,454.6	55.4415	13,454.6	62.8287	13,454.6	61.8818	13,454.6	62.062	13,454.6	57.034	13,454.6	58.1774	13,454.6	57.7134	13,454.6	42.6649	13,454.6	55.8651
13,929.2	86.6919	13,929.2	86.3582	13,929.2	86.7571	13,929.2	85.0473	13,929.2	85.0505	13,929.2	84.6947	13,929.2	84.2023	13,929.2	84.1517	13,929.2	83.7478	13,929.2	86.2951	13,929.2	81.891	13,929.2	83.7854	13,929.2	81.7427	13,929.2	81.0903	13,929.2	79.7828	13,929.2	77.2886	13,929.2	74.445	13,929.2	74.5172	13,929.2	71.749	13,929.2	71.0672	13,929.2	68.0401	13,929.2	68.5645	13,929.2	63.4744	13,929.2	59.3544	13,929.2	63.215	13,929.2	55.2252	13,929.2	66.5379	13,929.2	54.5714	13,929.2	60.7553	13,929.2	63.4613	13,929.2	57.982	13,929.2	61.5488	13,929.2	57.6291	13,929.2	52.0134	13,929.2	55.0088	13,929.2	53.622
14,419.9	85.4629	14,419.9	85.0696	14,419.9	85.4146	14,419.9	83.45	14,419.9	84.1312	14,419.9	84.1278	14,419.9	83.5657	14,419.9	84.7914	14,419.9	83.2575	14,419.9	85.8407	14,419.9	81.4089	14,419.9	83.1698	14,419.9	81.1682	14,419.9	81.452	14,419.9	79.2013	14,419.9	76.9553	14,419.9	73.7947	14,419.9	73.6534	14,419.9	71.6332	14,419.9	70.3855	14,419.9	67.4058	14,419.9	66.0403	14,419.9	62.7352	14,419.9	55.4132	14,419.9	64.2444	14,419.9	49.601	14,419.9	67.0692	14,419.9	59.3702	14,419.9	61.0711	14,419.9	44.8068	14,419.9	57.258	14,419.9	63.2785	14,419.9	57.0432	14,419.9	60.2081	14,419.9	51.6135	14,419.9	53.6526
14,928.2	84.1224	14,928.2	83.6787	14,928.2	84.3047	14,928.2	81.7857	14,928.2	83.2239	14,928.2	83.1467	14,928.2	82.6438	14,928.2	85.4397	14,928.2	82.4034	14,928.2	85.0322	14,928.2	81.1867	14,928.2	82.3008	14,928.2	79.6475	14,928.2	79.7756	14,928.2	78.1962	14,928.2	74.5475	14,928.2	72.5692	14,928.2	71.6887	14,928.2	69.4528	14,928.2	67.6765	14,928.2	65.0438	14,928.2	63.9156	14,928.2	60.8898	14,928.2	59.9277	14,928.2	64.0612	14,928.2	50.3166	14,928.2	65.1302	14,928.2	58.2932	14,928.2	59.5393	14,928.2	61.9429	14,928.2	50.5449	14,928.2	51.8588	14,928.2	41.7628	14,928.2	55.31	14,928.2	39.9745	14,928.2	49.6162
15,455.6	83.4526	15,455.6	83.0904	15,455.6	83.3693	15,455.6	81.4886	15,455.6	82.5559	15,455.6	82.3816	15,455.6	81.4185	15,455.6	86.0957	15,455.6	81.5225	15,455.6	84.8636	15,455.6	79.7488	15,455.6	82.0313	15,455.6	78.2326	15,455.6	77.7779	15,455.6	76.873	15,455.6	73.152	15,455.6	69.6609	15,455.6	71.4477	15,455.6	67.8291	15,455.6	62.7508	15,455.6	63.0455	15,455.6	61.6344	15,455.6	59.1504	15,455.6	56.2777	15,455.6	62.0921	15,455.6	56.809	15,455.6	62.7763	15,455.6	56.6123	15,455.6	56.2768	15,455.6	46.7896	15,455.6	48.6252	15,455.6	43.9708	15,455.6	46.5065	15,455.6	59.2886	15,455.6	49.9382	15,455.6	56.5827
16,000.5	82.8102	16,000.5	82.5824	16,000.5	82.8278	16,000.5	80.7172	16,000.5	82.2515	16,000.5	81.8952	16,000.5	81.3097	16,000.5	86.2545	16,000.5	81.1667	16,000.5	84.6392	16,000.5	78.969	16,000.5	81.1513	16,000.5	77.1431	16,000.5	77.1582	16,000.5	74.3911	16,000.5	71.74	16,000.5	68.1353	16,000.5	69.6116	16,000.5	66.3147	16,000.5	63.6737	16,000.5	59.934	16,000.5	64.6405	16,000.5	58.487	16,000.5	59.1593	16,000.5	61.1682	16,000.5	59.7416	16,000.5	57.7387	16,000.5	50.2454	16,000.5	56.9225	16,000.5	52.2434	16,000.5	48.1133	16,000.5	47.8507	16,000.5	48.4626	16,000.5	52.8034	16,000.5	52.7673	16,000.5	57.2066
16,564.5	81.8293	16,564.5	81.3992	16,564.5	81.852	16,564.5	80.21	16,564.5	81.4044	16,564.5	80.7422	16,564.5	79.9412	16,564.5	85.4071	16,564.5	80.1429	16,564.5	83.9046	16,564.5	77.4574	16,564.5	80.0431	16,564.5	75.0132	16,564.5	75.5759	16,564.5	73.1046	16,564.5	70.4197	16,564.5	65.5887	16,564.5	69.5123	16,564.5	64.0252	16,564.5	61.245	16,564.5	53.7747	16,564.5	62.8408	16,564.5	55.561	16,564.5	62.3202	16,564.5	58.9772	16,564.5	53.1405	16,564.5	58.0625	16,564.5	49.5394	16,564.5	45.3934	16,564.5	51.8769	16,564.5	48.3423	16,564.5	57.6354	16,564.5	48.7936	16,564.5	57.2888	16,564.5	51.9338	16,564.5	57.7069
17,148.9	80.9635	17,148.9	80.8441	17,148.9	80.8974	17,148.9	79.6983	17,148.9	80.7249	17,148.9	79.9859	17,148.9	79.2535	17,148.9	85.353	17,148.9	79.0321	17,148.9	83.8945	17,148.9	76.4293	17,148.9	80.3988	17,148.9	73.0039	17,148.9	75.9699	17,148.9	71.9304	17,148.9	70.6889	17,148.9	63.6144	17,148.9	69.0789	17,148.9	62.7093	17,148.9	60.8392	17,148.9	53.9328	17,148.9	63.5631	17,148.9	55.0418	17,148.9	56.2926	17,148.9	56.4751	17,148.9	54.823	17,148.9	58.4453	17,148.9	56.1802	17,148.9	40.3765	17,148.9	52.6399	17,148.9	49.4054	17,148.9	54.4421	17,148.9	53.3542	17,148.9	51.842	17,148.9	53.9597	17,148.9	53.83
17,752.4	80.0024	17,752.4	79.9727	17,752.4	80.0296	17,752.4	79.1228	17,752.4	80.0606	17,752.4	79.2756	17,752.4	78.6041	17,752.4	84.5127	17,752.4	78.4791	17,752.4	83.2218	17,752.4	75.7328	17,752.4	79.941	17,752.4	71.5793	17,752.4	74.3906	17,752.4	68.608	17,752.4	67.6039	17,752.4	61.8537	17,752.4	67.7502	17,752.4	59.4176	17,752.4	57.9387	17,752.4	47.6129	17,752.4	61.8188	17,752.4	56.4186	17,752.4	59.0987	17,752.4	58.1878	17,752.4	56.4074	17,752.4	54.6626	17,752.4	55.8761	17,752.4	42.1526	17,752.4	52.9436	17,752.4	51.8784	17,752.4	51.8893	17,752.4	54.1726	17,752.4	57.0541	17,752.4	48.4006	17,752.4	50.3988
18,379.4	79.1632	18,379.4	78.9273	18,379.4	79.1222	18,379.4	78.4602	18,379.4	79.491	18,379.4	77.7567	18,379.4	77.6751	18,379.4	83.4702	18,379.4	77.1299	18,379.4	82.8632	18,379.4	73.8839	18,379.4	78.9999	18,379.4	69.1522	18,379.4	72.7903	18,379.4	63.846	18,379.4	67.4291	18,379.4	57.5394	18,379.4	62.216	18,379.4	56.942	18,379.4	60.2952	18,379.4	56.2417	18,379.4	63.4409	18,379.4	55.2816	18,379.4	58.136	18,379.4	48.7643	18,379.4	55.3247	18,379.4	55.1249	18,379.4	51.0227	18,379.4	49.5514	18,379.4	32.7034	18,379.4	44.9006	18,379.4	57.421	18,379.4	52.1921	18,379.4	57.49	18,379.4	51.2426	18,379.4	43.5314
19,026.9	78.0343	19,026.9	77.895	19,026.9	77.9968	19,026.9	77.2874	19,026.9	78.1854	19,026.9	76.4503	19,026.9	76.8485	19,026.9	82.1528	19,026.9	75.4341	19,026.9	81.8668	19,026.9	72.1611	19,026.9	76.7223	19,026.9	66.1829	19,026.9	70.9137	19,026.9	64.4064	19,026.9	62.9698	19,026.9	58.7401	19,026.9	62.2192	19,026.9	54.589	19,026.9	52.0177	19,026.9	56.2119	19,026.9	58.9145	19,026.9	49.6965	19,026.9	56.6766	19,026.9	32.7888	19,026.9	56.3131	19,026.9	51.8309	19,026.9	51.6476	19,026.9	51.1384	19,026.9	57.0319	19,026.9	39.9733	19,026.9	57.7886	19,026.9	51.4661	19,026.9	51.1579	19,026.9	56.9211	19,026.9	51.9358
19,697.8	77.5851	19,697.8	77.2206	19,697.8	77.4115	19,697.8	76.5104	19,697.8	77.8289	19,697.8	74.4777	19,697.8	75.4849	19,697.8	81.4285	19,697.8	74.4759	19,697.8	80.651	19,697.8	70.6762	19,697.8	74.5797	19,697.8	64.5502	19,697.8	65.0106	19,697.8	58.9801	19,697.8	65.5753	19,697.8	53.7478	19,697.8	58.5438	19,697.8	52.9062	19,697.8	54.6952	19,697.8	53.2886	19,697.8	61.193	19,697.8	54.1582	19,697.8	59.8543	19,697.8	50.0905	19,697.8	58.8233	19,697.8	55.4265	19,697.8	36.1485	19,697.8	45.5453	19,697.8	52.9678	19,697.8	51.9428	19,697.8	50.3098	19,697.8	40.3831	19,697.8	54.4129	19,697.8	49.0958	19,697.8	55.1968
19,999.5	77.074	19,999.5	77.211	19,999.5	76.8997	19,999.5	76.5847	19,999.5	77.3717	19,999.5	74.7763	19,999.5	75.8717	19,999.5	80.9072	19,999.5	74.1396	19,999.5	79.1627	19,999.5	69.6911	19,999.5	74.3275	19,999.5	62.8642	19,999.5	66.2255	19,999.5	52.6313	19,999.5	65.4126	19,999.5	56.4092	19,999.5	58.7266	19,999.5	55.0394	19,999.5	65.0785	19,999.5	48.4362	19,999.5	58.6074	19,999.5	46.0689	19,999.5	57.2478	19,999.5	49.317	19,999.5	54.3409	19,999.5	54.2498	19,999.5	48.6986	19,999.5	56.5444	19,999.5	56.2139	19,999.5	48.1481	19,999.5	52.7661	19,999.5	57.0777	19,999.5	56.8872	19,999.5	58.8052	19,999.5	41.4265
