"SPL Vertical"
"On-Axis"		"10°"		"-10°"		"20°"		"-20°"		"30°"		"-30°"		"40°"		"-40°"		"50°"		"-50°"		"60°"		"-60°"		"70°"		"-70°"		"80°"		"-80°"		"90°"		"-90°"		"100°"		"-100°"		"110°"		"-110°"		"120°"		"-120°"		"130°"		"-130°"		"140°"		"-140°"		"150°"		"-150°"		"160°"		"-160°"		"170°"		"-170°"		"180°"
"Frequency [Hz]"	"Sound Pessure Level [dB]  / [2.83V 1m] "	"Frequency [Hz]"	"Sound Pessure Level [dB]  / [2.83V 1m] "	"Frequency [Hz]"	"Sound Pessure Level [dB]  / [2.83V 1m] "	"Frequency [Hz]"	"Sound Pessure Level [dB]  / [2.83V 1m] "	"Frequency [Hz]"	"Sound Pessure Level [dB]  / [2.83V 1m] "	"Frequency [Hz]"	"Sound Pessure Level [dB]  / [2.83V 1m] "	"Frequency [Hz]"	"Sound Pessure Level [dB]  / [2.83V 1m] "	"Frequency [Hz]"	"Sound Pessure Level [dB]  / [2.83V 1m] "	"Frequency [Hz]"	"Sound Pessure Level [dB]  / [2.83V 1m] "	"Frequency [Hz]"	"Sound Pessure Level [dB]  / [2.83V 1m] "	"Frequency [Hz]"	"Sound Pessure Level [dB]  / [2.83V 1m] "	"Frequency [Hz]"	"Sound Pessure Level [dB]  / [2.83V 1m] "	"Frequency [Hz]"	"Sound Pessure Level [dB]  / [2.83V 1m] "	"Frequency [Hz]"	"Sound Pessure Level [dB]  / [2.83V 1m] "	"Frequency [Hz]"	"Sound Pessure Level [dB]  / [2.83V 1m] "	"Frequency [Hz]"	"Sound Pessure Level [dB]  / [2.83V 1m] "	"Frequency [Hz]"	"Sound Pessure Level [dB]  / [2.83V 1m] "	"Frequency [Hz]"	"Sound Pessure Level [dB]  / [2.83V 1m] "	"Frequency [Hz]"	"Sound Pessure Level [dB]  / [2.83V 1m] "	"Frequency [Hz]"	"Sound Pessure Level [dB]  / [2.83V 1m] "	"Frequency [Hz]"	"Sound Pessure Level [dB]  / [2.83V 1m] "	"Frequency [Hz]"	"Sound Pessure Level [dB]  / [2.83V 1m] "	"Frequency [Hz]"	"Sound Pessure Level [dB]  / [2.83V 1m] "	"Frequency [Hz]"	"Sound Pessure Level [dB]  / [2.83V 1m] "	"Frequency [Hz]"	"Sound Pessure Level [dB]  / [2.83V 1m] "	"Frequency [Hz]"	"Sound Pessure Level [dB]  / [2.83V 1m] "	"Frequency [Hz]"	"Sound Pessure Level [dB]  / [2.83V 1m] "	"Frequency [Hz]"	"Sound Pessure Level [dB]  / [2.83V 1m] "	"Frequency [Hz]"	"Sound Pessure Level [dB]  / [2.83V 1m] "	"Frequency [Hz]"	"Sound Pessure Level [dB]  / [2.83V 1m] "	"Frequency [Hz]"	"Sound Pessure Level [dB]  / [2.83V 1m] "	"Frequency [Hz]"	"Sound Pessure Level [dB]  / [2.83V 1m] "	"Frequency [Hz]"	"Sound Pessure Level [dB]  / [2.83V 1m] "	"Frequency [Hz]"	"Sound Pessure Level [dB]  / [2.83V 1m] "	"Frequency [Hz]"	"Sound Pessure Level [dB]  / [2.83V 1m] "	"Frequency [Hz]"	"Sound Pessure Level [dB]  / [2.83V 1m] "
20.5078	45.2352	20.5078	44.511	20.5078	45.9295	20.5078	43.7789	20.5078	46.5764	20.5078	43.0691	20.5078	47.1604	20.5078	42.4238	20.5078	47.6689	20.5078	41.8957	20.5078	48.0926	20.5078	41.5371	20.5078	48.4273	20.5078	41.3838	20.5078	48.6735	20.5078	41.4427	20.5078	48.8355	20.5078	41.6937	20.5078	48.9202	20.5078	42.1012	20.5078	48.9356	20.5078	42.6257	20.5078	48.8894	20.5078	43.2301	20.5078	48.7887	20.5078	43.8814	20.5078	48.6379	20.5078	44.5523	20.5078	48.4373	20.5078	45.2197	20.5078	48.1819	20.5078	45.863	20.5078	47.8627	20.5078	46.4631	20.5078	47.4711	20.5078	47.0032
21.9727	45.9905	21.9727	46.3882	21.9727	45.6349	21.9727	46.81	21.9727	45.3363	21.9727	47.2355	21.9727	45.1066	21.9727	47.6437	21.9727	44.9532	21.9727	48.0144	21.9727	44.8789	21.9727	48.3301	21.9727	44.8809	21.9727	48.5778	21.9727	44.9521	21.9727	48.7502	21.9727	45.0834	21.9727	48.8461	21.9727	45.267	21.9727	48.8707	21.9727	45.4982	21.9727	48.8346	21.9727	45.7734	21.9727	48.7523	21.9727	46.0867	21.9727	48.6397	21.9727	46.4263	21.9727	48.5106	21.9727	46.7741	21.9727	48.3736	21.9727	47.109	21.9727	48.2298	21.9727	47.4124	21.9727	48.0728	21.9727	47.6736	21.9727	47.8913
23.4375	52.5968	23.4375	52.6544	23.4375	52.5537	23.4375	52.7236	23.4375	52.5264	23.4375	52.8001	23.4375	52.5148	23.4375	52.8779	23.4375	52.5175	23.4375	52.9508	23.4375	52.5325	23.4375	53.0126	23.4375	52.5575	23.4375	53.0586	23.4375	52.5899	23.4375	53.0861	23.4375	52.6275	23.4375	53.095	23.4375	52.6689	23.4375	53.0878	23.4375	52.7134	23.4375	53.0695	23.4375	52.7613	23.4375	53.0466	23.4375	52.8127	23.4375	53.0254	23.4375	52.8663	23.4375	53.0113	23.4375	52.9188	23.4375	53.0068	23.4375	52.965	23.4375	53.011	23.4375	52.9996	23.4375	53.019	23.4375	53.0191	23.4375	53.0241
24.9023	50.2642	24.9023	50.1862	24.9023	50.3752	24.9023	50.1407	24.9023	50.5192	24.9023	50.127	24.9023	50.6957	24.9023	50.1435	24.9023	50.9036	24.9023	50.1879	24.9023	51.1412	24.9023	50.2581	24.9023	51.4057	24.9023	50.3532	24.9023	51.6937	24.9023	50.4752	24.9023	52.0004	24.9023	50.6288	24.9023	52.3196	24.9023	50.8214	24.9023	52.6418	24.9023	51.0601	24.9023	52.9541	24.9023	51.3484	24.9023	53.24	24.9023	51.6832	24.9023	53.4799	24.9023	52.0532	24.9023	53.6542	24.9023	52.4389	24.9023	53.7451	24.9023	52.8159	24.9023	53.7407	24.9023	53.1573	24.9023	53.6367	24.9023	53.4378
26.3672	49.7215	26.3672	49.7495	26.3672	49.721	26.3672	49.8092	26.3672	49.7399	26.3672	49.8985	26.3672	49.7677	26.3672	50.0089	26.3672	49.7944	26.3672	50.1269	26.3672	49.812	26.3672	50.2369	26.3672	49.8158	26.3672	50.3236	26.3672	49.8044	26.3672	50.3754	26.3672	49.7795	26.3672	50.3857	26.3672	49.7456	26.3672	50.3539	26.3672	49.7083	26.3672	50.2848	26.3672	49.6731	26.3672	50.1877	26.3672	49.6443	26.3672	50.0749	26.3672	49.6237	26.3672	49.959	26.3672	49.6112	26.3672	49.8515	26.3672	49.6058	26.3672	49.761	26.3672	49.6078	26.3672	49.6925	26.3672	49.6198	26.3672	49.6464
27.832	54.0029	27.832	54.0667	27.832	53.9434	27.832	54.1321	27.832	53.8891	27.832	54.1946	27.832	53.8391	27.832	54.2489	27.832	53.7904	27.832	54.2886	27.832	53.7386	27.832	54.3076	27.832	53.6785	27.832	54.3001	27.832	53.6056	27.832	54.262	27.832	53.5169	27.832	54.1915	27.832	53.4123	27.832	54.0894	27.832	53.2951	27.832	53.9596	27.832	53.1723	27.832	53.8087	27.832	53.054	27.832	53.6448	27.832	52.9513	27.832	53.4772	27.832	52.8751	27.832	53.3149	27.832	52.833	27.832	53.1658	27.832	52.8293	27.832	53.0371	27.832	52.8641	27.832	52.9348
29.2969	55.209	29.2969	55.2023	29.2969	55.2219	29.2969	55.2053	29.2969	55.2358	29.2969	55.219	29.2969	55.2448	29.2969	55.2417	29.2969	55.2435	29.2969	55.2688	29.2969	55.2278	29.2969	55.2941	29.2969	55.195	29.2969	55.3108	29.2969	55.1447	29.2969	55.3128	29.2969	55.0783	29.2969	55.2959	29.2969	54.9994	29.2969	55.2587	29.2969	54.9129	29.2969	55.2025	29.2969	54.8252	29.2969	55.1309	29.2969	54.7433	29.2969	55.0487	29.2969	54.6742	29.2969	54.9613	29.2969	54.6237	29.2969	54.8739	29.2969	54.5959	29.2969	54.7911	29.2969	54.5929	29.2969	54.7172	29.2969	54.614	29.2969	54.6567
30.7617	57.5518	30.7617	57.6083	30.7617	57.4916	30.7617	57.6596	30.7617	57.4287	30.7617	57.7037	30.7617	57.3636	30.7617	57.7382	30.7617	57.2958	30.7617	57.7597	30.7617	57.2237	30.7617	57.7647	30.7617	57.1449	30.7617	57.749	30.7617	57.0564	30.7617	57.7091	30.7617	56.956	30.7617	57.6428	30.7617	56.8431	30.7617	57.5494	30.7617	56.7198	30.7617	57.4302	30.7617	56.5914	30.7617	57.2887	30.7617	56.4664	30.7617	57.13	30.7617	56.356	30.7617	56.9607	30.7617	56.272	30.7617	56.7888	30.7617	56.225	30.7617	56.6232	30.7617	56.222	30.7617	56.474	30.7617	56.2651	30.7617	56.3515
32.2266	59.7839	32.2266	59.7907	32.2266	59.7759	32.2266	59.7968	32.2266	59.7654	32.2266	59.8022	32.2266	59.7502	32.2266	59.8058	32.2266	59.7278	32.2266	59.8054	32.2266	59.6952	32.2266	59.7984	32.2266	59.6497	32.2266	59.7815	32.2266	59.589	32.2266	59.7515	32.2266	59.5121	32.2266	59.7063	32.2266	59.42	32.2266	59.6446	32.2266	59.3157	32.2266	59.5672	32.2266	59.2048	32.2266	59.4759	32.2266	59.0949	32.2266	59.3742	32.2266	58.9951	32.2266	59.2667	32.2266	58.9147	32.2266	59.1587	32.2266	58.8613	32.2266	59.0564	32.2266	58.8401	32.2266	58.9666	32.2266	58.8526	32.2266	58.8964
33.6914	61.4359	33.6914	61.459	33.6914	61.4147	33.6914	61.4833	33.6914	61.395	33.6914	61.5076	33.6914	61.3757	33.6914	61.5302	33.6914	61.3548	33.6914	61.5486	33.6914	61.3299	33.6914	61.5603	33.6914	61.2986	33.6914	61.5626	33.6914	61.2586	33.6914	61.5532	33.6914	61.2091	33.6914	61.5303	33.6914	61.1503	33.6914	61.4932	33.6914	61.0844	33.6914	61.4423	33.6914	61.0154	33.6914	61.379	33.6914	60.9487	33.6914	61.3054	33.6914	60.891	33.6914	61.2245	33.6914	60.8489	33.6914	61.1397	33.6914	60.828	33.6914	61.0554	33.6914	60.8313	33.6914	60.9767	33.6914	60.8594	33.6914	60.9094
35.1562	62.6911	35.1562	62.6982	35.1562	62.6843	35.1562	62.7058	35.1562	62.6773	35.1562	62.7131	35.1562	62.6686	35.1562	62.719	35.1562	62.6561	35.1562	62.7218	35.1562	62.6372	35.1562	62.7193	35.1562	62.6093	35.1562	62.7096	35.1562	62.5704	35.1562	62.6905	35.1562	62.5192	35.1562	62.6607	35.1562	62.4562	35.1562	62.6196	35.1562	62.3836	35.1562	62.5677	35.1562	62.3057	35.1562	62.5063	35.1562	62.2284	35.1562	62.4376	35.1562	62.1587	35.1562	62.3644	35.1562	62.1035	35.1562	62.29	35.1562	62.0684	35.1562	62.2185	35.1562	62.0567	35.1562	62.1544	35.1562	62.0689	35.1562	62.1029
36.6211	64.351	36.6211	64.3578	36.6211	64.3399	36.6211	64.3605	36.6211	64.3243	36.6211	64.3585	36.6211	64.3035	36.6211	64.3513	36.6211	64.2761	36.6211	64.338	36.6211	64.2409	36.6211	64.3177	36.6211	64.1962	36.6211	64.2894	36.6211	64.1412	36.6211	64.252	36.6211	64.0756	36.6211	64.2051	36.6211	64.0003	36.6211	64.1489	36.6211	63.9179	36.6211	64.0843	36.6211	63.8325	36.6211	64.013	36.6211	63.7497	36.6211	63.9373	36.6211	63.6758	36.6211	63.86	36.6211	63.6171	36.6211	63.784	36.6211	63.5788	36.6211	63.7131	36.6211	63.5637	36.6211	63.6512	36.6211	63.5724	36.6211	63.6028
38.0859	65.7749	38.0859	65.7869	38.0859	65.7583	38.0859	65.7945	38.0859	65.7368	38.0859	65.7972	38.0859	65.7098	38.0859	65.7944	38.0859	65.6764	38.0859	65.7854	38.0859	65.6353	38.0859	65.7691	38.0859	65.5857	38.0859	65.7444	38.0859	65.527	38.0859	65.7103	38.0859	65.459	38.0859	65.666	38.0859	65.3829	38.0859	65.6115	38.0859	65.3009	38.0859	65.5472	38.0859	65.2166	38.0859	65.4742	38.0859	65.1352	38.0859	65.3943	38.0859	65.0628	38.0859	65.3102	38.0859	65.0058	38.0859	65.2252	38.0859	64.9698	38.0859	65.1436	38.0859	64.9586	38.0859	65.0706	38.0859	64.9733	38.0859	65.012
39.5508	67.1697	39.5508	67.1624	39.5508	67.1721	39.5508	67.1505	39.5508	67.1689	39.5508	67.1345	39.5508	67.1592	39.5508	67.1142	39.5508	67.142	39.5508	67.0895	39.5508	67.1161	39.5508	67.0603	39.5508	67.0806	39.5508	67.026	39.5508	67.0348	39.5508	66.9863	39.5508	66.9787	39.5508	66.9411	39.5508	66.9133	39.5508	66.8908	39.5508	66.8406	39.5508	66.8361	39.5508	66.764	39.5508	66.7782	39.5508	66.6878	39.5508	66.7188	39.5508	66.6171	39.5508	66.6601	39.5508	66.5571	39.5508	66.6045	39.5508	66.5121	39.5508	66.5551	39.5508	66.4851	39.5508	66.5151	39.5508	66.4774	39.5508	66.4882
41.0156	67.6311	41.0156	67.6347	41.0156	67.624	41.0156	67.6349	41.0156	67.6132	41.0156	67.632	41.0156	67.5984	41.0156	67.6258	41.0156	67.5793	41.0156	67.6157	41.0156	67.5552	41.0156	67.6009	41.0156	67.5255	41.0156	67.5803	41.0156	67.4891	41.0156	67.5528	41.0156	67.445	41.0156	67.5174	41.0156	67.3927	41.0156	67.4735	41.0156	67.3327	41.0156	67.4212	41.0156	67.2667	41.0156	67.3614	41.0156	67.1978	41.0156	67.2956	41.0156	67.1306	41.0156	67.2266	41.0156	67.0708	41.0156	67.1581	41.0156	67.0243	41.0156	67.0949	41.0156	66.9963	41.0156	67.0425	41.0156	66.99	41.0156	67.0061
42.4805	69.798	42.4805	69.798	42.4805	69.7925	42.4805	69.7924	42.4805	69.7816	42.4805	69.7815	42.4805	69.7651	42.4805	69.7654	42.4805	69.7431	42.4805	69.7447	42.4805	69.7159	42.4805	69.7199	42.4805	69.6838	42.4805	69.6917	42.4805	69.6473	42.4805	69.6611	42.4805	69.6075	42.4805	69.6289	42.4805	69.5656	42.4805	69.5963	42.4805	69.5232	42.4805	69.5638	42.4805	69.4824	42.4805	69.532	42.4805	69.4451	42.4805	69.5012	42.4805	69.4133	42.4805	69.4714	42.4805	69.3885	42.4805	69.443	42.4805	69.3722	42.4805	69.4168	42.4805	69.3648	42.4805	69.3942	42.4805	69.3667	42.4805	69.3769
43.9453	70.4541	43.9453	70.4583	43.9453	70.4436	43.9453	70.456	43.9453	70.4272	43.9453	70.4471	43.9453	70.4053	43.9453	70.432	43.9453	70.3785	43.9453	70.4109	43.9453	70.3473	43.9453	70.3842	43.9453	70.3124	43.9453	70.3527	43.9453	70.2743	43.9453	70.317	43.9453	70.2338	43.9453	70.278	43.9453	70.1919	43.9453	70.2367	43.9453	70.1499	43.9453	70.1944	43.9453	70.1091	43.9453	70.1523	43.9453	70.0713	43.9453	70.1118	43.9453	70.0378	43.9453	70.0743	43.9453	70.0103	43.9453	70.041	43.9453	69.9898	43.9453	70.0133	43.9453	69.9775	43.9453	69.9922	43.9453	69.9738	43.9453	69.9788
45.4102	71.4224	45.4102	71.4225	45.4102	71.4141	45.4102	71.4144	45.4102	71.3979	45.4102	71.3986	45.4102	71.3742	45.4102	71.3759	45.4102	71.344	45.4102	71.3474	45.4102	71.3083	45.4102	71.3139	45.4102	71.2682	45.4102	71.2768	45.4102	71.2248	45.4102	71.2369	45.4102	71.1795	45.4102	71.1954	45.4102	71.1336	45.4102	71.1533	45.4102	71.0885	45.4102	71.1115	45.4102	71.0457	45.4102	71.0712	45.4102	71.0066	45.4102	71.0332	45.4102	70.9726	45.4102	70.9984	45.4102	70.9447	45.4102	70.9677	45.4102	70.924	45.4102	70.9422	45.4102	70.9112	45.4102	70.9229	45.4102	70.9068	45.4102	70.9109
46.875	72.3013	46.875	72.3018	46.875	72.2929	46.875	72.2947	46.875	72.2764	46.875	72.2807	46.875	72.2524	46.875	72.261	46.875	72.2218	46.875	72.2365	46.875	72.1856	46.875	72.2086	46.875	72.1454	46.875	72.1782	46.875	72.1027	46.875	72.1464	46.875	72.0593	46.875	72.1141	46.875	72.017	46.875	72.082	46.875	71.9777	46.875	72.051	46.875	71.9429	46.875	72.0214	46.875	71.9141	46.875	71.9937	46.875	71.8923	46.875	71.9679	46.875	71.8779	46.875	71.9441	46.875	71.8708	46.875	71.9226	46.875	71.8707	46.875	71.9037	46.875	71.8768	46.875	71.8881
48.3398	73.1429	48.3398	73.144	48.3398	73.1338	48.3398	73.1376	48.3398	73.1167	48.3398	73.1245	48.3398	73.0918	48.3398	73.1055	48.3398	73.0596	48.3398	73.0814	48.3398	73.0213	48.3398	73.0532	48.3398	72.9784	48.3398	73.0218	48.3398	72.9326	48.3398	72.9885	48.3398	72.8859	48.3398	72.9544	48.3398	72.8406	48.3398	72.9208	48.3398	72.7987	48.3398	72.8886	48.3398	72.7623	48.3398	72.8586	48.3398	72.7329	48.3398	72.831	48.3398	72.7117	48.3398	72.8058	48.3398	72.6992	48.3398	72.7825	48.3398	72.6951	48.3398	72.7609	48.3398	72.6987	48.3398	72.741	48.3398	72.7085	48.3398	72.7231
51.2695	74.9226	51.2695	74.9268	51.2695	74.9068	51.2695	74.9194	51.2695	74.88	51.2695	74.9007	51.2695	74.8431	51.2695	74.8719	51.2695	74.7979	51.2695	74.8342	51.2695	74.746	51.2695	74.7893	51.2695	74.6897	51.2695	74.7393	51.2695	74.6312	51.2695	74.6862	51.2695	74.573	51.2695	74.6323	51.2695	74.5175	51.2695	74.5796	51.2695	74.4671	51.2695	74.5302	51.2695	74.4238	51.2695	74.4857	51.2695	74.3888	51.2695	74.447	51.2695	74.3628	51.2695	74.4146	51.2695	74.3454	51.2695	74.3885	51.2695	74.3358	51.2695	74.3681	51.2695	74.3327	51.2695	74.3527	51.2695	74.335	51.2695	74.3417
52.7344	75.5097	52.7344	75.5128	52.7344	75.4935	52.7344	75.503	52.7344	75.4645	52.7344	75.4812	52.7344	75.4239	52.7344	75.4488	52.7344	75.3734	52.7344	75.4077	52.7344	75.3152	52.7344	75.3599	52.7344	75.2519	52.7344	75.3075	52.7344	75.1864	52.7344	75.2529	52.7344	75.1213	52.7344	75.198	52.7344	75.0594	52.7344	75.1448	52.7344	75.0031	52.7344	75.0948	52.7344	74.9547	52.7344	75.0491	52.7344	74.9154	52.7344	75.0083	52.7344	74.8863	52.7344	74.9725	52.7344	74.8672	52.7344	74.9415	52.7344	74.8578	52.7344	74.9151	52.7344	74.8569	52.7344	74.8931	52.7344	74.8632	52.7344	74.8756
54.1992	76.0756	54.1992	76.0781	54.1992	76.0606	54.1992	76.0681	54.1992	76.0336	54.1992	76.0465	54.1992	75.9959	54.1992	76.0145	54.1992	75.9493	54.1992	75.9739	54.1992	75.896	54.1992	75.927	54.1992	75.8385	54.1992	75.8761	54.1992	75.7795	54.1992	75.8236	54.1992	75.7216	54.1992	75.7718	54.1992	75.6673	54.1992	75.7228	54.1992	75.6187	54.1992	75.6781	54.1992	75.5776	54.1992	75.6387	54.1992	75.5449	54.1992	75.6051	54.1992	75.5211	54.1992	75.577	54.1992	75.5058	54.1992	75.5541	54.1992	75.4981	54.1992	75.5354	54.1992	75.4969	54.1992	75.5205	54.1992	75.5008	54.1992	75.5089
55.6641	76.6223	55.6641	76.6214	55.6641	76.61	55.6641	76.6075	55.6641	76.585	55.6641	76.5815	55.6641	76.5485	55.6641	76.545	55.6641	76.5024	55.6641	76.4999	55.6641	76.4489	55.6641	76.4487	55.6641	76.3906	55.6641	76.394	55.6641	76.3304	55.6641	76.3382	55.6641	76.2712	55.6641	76.2839	55.6641	76.2155	55.6641	76.2333	55.6641	76.1657	55.6641	76.1881	55.6641	76.1233	55.6641	76.1492	55.6641	76.0895	55.6641	76.117	55.6641	76.0643	55.6641	76.0914	55.6641	76.0473	55.6641	76.0717	55.6641	76.0375	55.6641	76.0568	55.6641	76.0334	55.6641	76.0459	55.6641	76.034	55.6641	76.0383
58.5938	77.4793	58.5938	77.4783	58.5938	77.4658	58.5938	77.4631	58.5938	77.4384	58.5938	77.4348	58.5938	77.3986	58.5938	77.3951	58.5938	77.3487	58.5938	77.3465	58.5938	77.2913	58.5938	77.2917	58.5938	77.2298	58.5938	77.2339	58.5938	77.1673	58.5938	77.176	58.5938	77.1073	58.5938	77.1209	58.5938	77.0526	58.5938	77.0709	58.5938	77.0053	58.5938	77.0277	58.5938	76.967	58.5938	76.9921	58.5938	76.9381	58.5938	76.9642	58.5938	76.9182	58.5938	76.9434	58.5938	76.9061	58.5938	76.9283	58.5938	76.9002	58.5938	76.9177	58.5938	76.8989	58.5938	76.91	58.5938	76.9007	58.5938	76.9045
60.0586	77.8428	60.0586	77.8421	60.0586	77.8281	60.0586	77.8265	60.0586	77.7988	60.0586	77.797	60.0586	77.7564	60.0586	77.7557	60.0586	77.7035	60.0586	77.7052	60.0586	77.643	60.0586	77.6486	60.0586	77.5785	60.0586	77.589	60.0586	77.5138	60.0586	77.5299	60.0586	77.4522	60.0586	77.4743	60.0586	77.3971	60.0586	77.4246	60.0586	77.3507	60.0586	77.3825	60.0586	77.3144	60.0586	77.349	60.0586	77.2886	60.0586	77.3237	60.0586	77.2725	60.0586	77.3058	60.0586	77.2645	60.0586	77.2936	60.0586	77.2627	60.0586	77.2853	60.0586	77.2647	60.0586	77.2791	60.0586	77.2689	60.0586	77.2738
62.9883	78.5708	62.9883	78.5692	62.9883	78.5558	62.9883	78.5513	62.9883	78.5248	62.9883	78.5184	62.9883	78.4797	62.9883	78.4729	62.9883	78.423	62.9883	78.4176	62.9883	78.3583	62.9883	78.356	62.9883	78.2893	62.9883	78.2916	62.9883	78.2203	62.9883	78.2282	62.9883	78.1549	62.9883	78.1688	62.9883	78.0965	62.9883	78.1162	62.9883	78.0475	62.9883	78.0721	62.9883	78.0093	62.9883	78.0373	62.9883	77.982	62.9883	78.0115	62.9883	77.9648	62.9883	77.9936	62.9883	77.9559	62.9883	77.9818	62.9883	77.9534	62.9883	77.9739	62.9883	77.955	62.9883	77.9682	62.9883	77.9587	62.9883	77.9633
64.4531	78.8413	64.4531	78.8384	64.4531	78.8272	64.4531	78.8189	64.4531	78.7969	64.4531	78.7843	64.4531	78.7523	64.4531	78.7368	64.4531	78.6961	64.4531	78.6797	64.4531	78.6319	64.4531	78.6165	64.4531	78.5636	64.4531	78.551	64.4531	78.4955	64.4531	78.4872	64.4531	78.4314	64.4531	78.4282	64.4531	78.3745	64.4531	78.3769	64.4531	78.3272	64.4531	78.335	64.4531	78.2908	64.4531	78.3031	64.4531	78.2652	64.4531	78.2808	64.4531	78.2495	64.4531	78.2666	64.4531	78.2419	64.4531	78.2584	64.4531	78.24	64.4531	78.2538	64.4531	78.2417	64.4531	78.2509	64.4531	78.2448	64.4531	78.248
67.3828	79.2971	67.3828	79.2943	67.3828	79.2819	67.3828	79.2737	67.3828	79.2495	67.3828	79.2369	67.3828	79.2021	67.3828	79.1864	67.3828	79.1427	67.3828	79.1256	67.3828	79.0753	67.3828	79.0585	67.3828	79.0044	67.3828	78.9895	67.3828	78.9345	67.3828	78.9228	67.3828	78.87	67.3828	78.8623	67.3828	78.8143	67.3828	78.8109	67.3828	78.7699	67.3828	78.7706	67.3828	78.7378	67.3828	78.742	67.3828	78.7176	67.3828	78.7243	67.3828	78.7076	67.3828	78.7158	67.3828	78.7054	67.3828	78.7137	67.3828	78.7079	67.3828	78.715	67.3828	78.7122	67.3828	78.7169	67.3828	78.7159	67.3828	78.7176
68.8477	79.5446	68.8477	79.5388	68.8477	79.5312	68.8477	79.5141	68.8477	79.4994	68.8477	79.4724	68.8477	79.4512	68.8477	79.4164	68.8477	79.3899	68.8477	79.3498	68.8477	79.3195	68.8477	79.277	68.8477	79.2446	68.8477	79.2026	68.8477	79.17	68.8477	79.131	68.8477	79.1004	68.8477	79.0663	68.8477	79.0395	68.8477	79.0117	68.8477	78.9899	68.8477	78.9691	68.8477	78.953	68.8477	78.9391	68.8477	78.9285	68.8477	78.921	68.8477	78.915	68.8477	78.9125	68.8477	78.91	68.8477	78.9109	68.8477	78.9104	68.8477	78.9129	68.8477	78.9133	68.8477	78.9156	68.8477	78.916	68.8477	78.9169
71.7773	80.0719	71.7773	80.0684	71.7773	80.0548	71.7773	80.0446	71.7773	80.0181	71.7773	80.0025	71.7773	79.9641	71.7773	79.9448	71.7773	79.8962	71.7773	79.8756	71.7773	79.8191	71.7773	79.7994	71.7773	79.7378	71.7773	79.7209	71.7773	79.6576	71.7773	79.6451	71.7773	79.5836	71.7773	79.5761	71.7773	79.5198	71.7773	79.5173	71.7773	79.4691	71.7773	79.4709	71.7773	79.4325	71.7773	79.4376	71.7773	79.4096	71.7773	79.4168	71.7773	79.3982	71.7773	79.4063	71.7773	79.3956	71.7773	79.4033	71.7773	79.3981	71.7773	79.4045	71.7773	79.4025	71.7773	79.4067	71.7773	79.4062	71.7773	79.4077
74.707	80.5461	74.707	80.5427	74.707	80.5283	74.707	80.5188	74.707	80.4904	74.707	80.4762	74.707	80.4346	74.707	80.4181	74.707	80.3648	74.707	80.3486	74.707	80.2854	74.707	80.2726	74.707	80.2021	74.707	80.1951	74.707	80.1203	74.707	80.121	74.707	80.0453	74.707	80.0545	74.707	79.9814	74.707	79.9989	74.707	79.9314	74.707	79.956	74.707	79.8966	74.707	79.9261	74.707	79.8762	74.707	79.9082	74.707	79.8683	74.707	79.8998	74.707	79.8695	74.707	79.8978	74.707	79.8762	74.707	79.8987	74.707	79.885	74.707	79.8994	74.707	79.8927	74.707	79.8977
77.6367	80.8531	77.6367	80.8493	77.6367	80.8351	77.6367	80.8241	77.6367	80.7963	77.6367	80.7796	77.6367	80.7393	77.6367	80.7192	77.6367	80.668	77.6367	80.6473	77.6367	80.5873	77.6367	80.5692	77.6367	80.5031	77.6367	80.4901	77.6367	80.4212	77.6367	80.4155	77.6367	80.3469	77.6367	80.3497	77.6367	80.2849	77.6367	80.2962	77.6367	80.2377	77.6367	80.2569	77.6367	80.2066	77.6367	80.2317	77.6367	80.1904	77.6367	80.2192	77.6367	80.1868	77.6367	80.2164	77.6367	80.1923	77.6367	80.2196	77.6367	80.2027	77.6367	80.2247	77.6367	80.2141	77.6367	80.2285	77.6367	80.2233	77.6367	80.2283
79.1016	81.0169	79.1016	81.013	79.1016	80.9982	79.1016	80.9869	79.1016	80.958	79.1016	80.9409	79.1016	80.899	79.1016	80.8784	79.1016	80.8252	79.1016	80.8039	79.1016	80.7419	79.1016	80.7231	79.1016	80.655	79.1016	80.6414	79.1016	80.5706	79.1016	80.5645	79.1016	80.4945	79.1016	80.4972	79.1016	80.4312	79.1016	80.4428	79.1016	80.3836	79.1016	80.4034	79.1016	80.3528	79.1016	80.3789	79.1016	80.3378	79.1016	80.3678	79.1016	80.3359	79.1016	80.3668	79.1016	80.3432	79.1016	80.3718	79.1016	80.3555	79.1016	80.3787	79.1016	80.3684	79.1016	80.3836	79.1016	80.3787	79.1016	80.384
82.0312	81.5244	82.0312	81.5189	82.0312	81.5056	82.0312	81.4899	82.0312	81.4635	82.0312	81.4396	82.0312	81.401	82.0312	81.3721	82.0312	81.3224	82.0312	81.2922	82.0312	81.2333	82.0312	81.206	82.0312	81.1401	82.0312	81.1194	82.0312	81.0495	82.0312	81.0384	82.0312	80.9676	82.0312	80.9681	82.0312	80.8997	82.0312	80.912	82.0312	80.8489	82.0312	80.8722	82.0312	80.8164	82.0312	80.8485	82.0312	80.8012	82.0312	80.8389	82.0312	80.8005	82.0312	80.8399	82.0312	80.81	82.0312	80.8468	82.0312	80.825	82.0312	80.855	82.0312	80.8408	82.0312	80.8605	82.0312	80.8534	82.0312	80.8603
84.9609	81.8821	84.9609	81.8739	84.9609	81.8653	84.9609	81.8415	84.9609	81.8244	84.9609	81.7875	84.9609	81.7622	84.9609	81.7162	84.9609	81.6831	84.9609	81.6328	84.9609	81.593	84.9609	81.5436	84.9609	81.4986	84.9609	81.4548	84.9609	81.4068	84.9609	81.3727	84.9609	81.3241	84.9609	81.3022	84.9609	81.2556	84.9609	81.247	84.9609	81.2045	84.9609	81.2088	84.9609	81.1717	84.9609	81.1873	84.9609	81.156	84.9609	81.18	84.9609	81.1544	84.9609	81.1832	84.9609	81.1628	84.9609	81.192	84.9609	81.1766	84.9609	81.2016	84.9609	81.1912	84.9609	81.2081	84.9609	81.2028	84.9609	81.2087
87.8906	82.0899	87.8906	82.0925	87.8906	82.0627	87.8906	82.0707	87.8906	82.0127	87.8906	82.0267	87.8906	81.9433	87.8906	81.9642	87.8906	81.86	87.8906	81.8886	87.8906	81.7692	87.8906	81.8059	87.8906	81.6782	87.8906	81.7227	87.8906	81.5942	87.8906	81.6455	87.8906	81.5236	87.8906	81.5797	87.8906	81.4712	87.8906	81.5295	87.8906	81.4391	87.8906	81.4972	87.8906	81.4272	87.8906	81.4825	87.8906	81.4328	87.8906	81.4833	87.8906	81.4513	87.8906	81.4954	87.8906	81.4771	87.8906	81.5134	87.8906	81.5044	87.8906	81.5317	87.8906	81.528	87.8906	81.545	87.8906	81.5439	87.8906	81.5497
90.8203	82.673	90.8203	82.6737	90.8203	82.6461	90.8203	82.6485	90.8203	82.5948	90.8203	82.6	90.8203	82.5228	90.8203	82.5322	90.8203	82.4357	90.8203	82.451	90.8203	82.3404	90.8203	82.363	90.8203	82.2446	90.8203	82.2754	90.8203	82.1562	90.8203	82.1949	90.8203	82.082	90.8203	82.1275	90.8203	82.0272	90.8203	82.0771	90.8203	81.9942	90.8203	82.0459	90.8203	81.983	90.8203	82.0334	90.8203	81.9904	90.8203	82.037	90.8203	82.0115	90.8203	82.0522	90.8203	82.0402	90.8203	82.0734	90.8203	82.0701	90.8203	82.0946	90.8203	82.0953	90.8203	82.1104	90.8203	82.1117	90.8203	82.1168
95.2148	83.1848	95.2148	83.1911	95.2148	83.1479	95.2148	83.167	95.2148	83.0825	95.2148	83.1152	95.2148	82.9933	95.2148	83.0408	95.2148	82.8871	95.2148	82.9503	95.2148	82.7721	95.2148	82.8515	95.2148	82.6577	95.2148	82.7525	95.2148	82.553	95.2148	82.6611	95.2148	82.4663	95.2148	82.5839	95.2148	82.4036	95.2148	82.5258	95.2148	82.3679	95.2148	82.4891	95.2148	82.3587	95.2148	82.4737	95.2148	82.3724	95.2148	82.4764	95.2148	82.4029	95.2148	82.4923	95.2148	82.4425	95.2148	82.5146	95.2148	82.4836	95.2148	82.5364	95.2148	82.519	95.2148	82.5512	95.2148	82.5436	95.2148	82.5544
98.1445	83.497	98.1445	83.5114	98.1445	83.4513	98.1445	83.4946	98.1445	83.3767	98.1445	83.4491	98.1445	83.2781	98.1445	83.3796	98.1445	83.1624	98.1445	83.2928	98.1445	83.0386	98.1445	83.1961	98.1445	82.9164	98.1445	83.0978	98.1445	82.8057	98.1445	83.0058	98.1445	82.7153	98.1445	82.9272	98.1445	82.6519	98.1445	82.8672	98.1445	82.619	98.1445	82.8287	98.1445	82.6161	98.1445	82.8119	98.1445	82.6391	98.1445	82.814	98.1445	82.6812	98.1445	82.8297	98.1445	82.7334	98.1445	82.8519	98.1445	82.7869	98.1445	82.873	98.1445	82.8335	98.1445	82.8857	98.1445	82.8673	98.1445	82.8848
101.074	83.8864	101.074	83.9043	101.074	83.8348	101.074	83.8888	101.074	83.7516	101.074	83.8426	101.074	83.6414	101.074	83.7704	101.074	83.5111	101.074	83.6788	101.074	83.3694	101.074	83.5753	101.074	83.2263	101.074	83.4679	101.074	83.0924	101.074	83.3645	101.074	82.9777	101.074	83.2721	101.074	82.8906	101.074	83.1963	101.074	82.8363	101.074	83.1405	101.074	82.8161	101.074	83.1057	101.074	82.8273	101.074	83.0902	101.074	82.8634	101.074	83.0897	101.074	82.9153	101.074	83.0975	101.074	82.9729	101.074	83.106	101.074	83.0267	101.074	83.1076	101.074	83.0693	101.074	83.0964
105.469	84.3863	105.469	84.4117	105.469	84.3285	105.469	84.4051	105.469	84.2404	105.469	84.3692	105.469	84.1265	105.469	84.3089	105.469	83.9937	105.469	84.2306	105.469	83.8506	105.469	84.1418	105.469	83.707	105.469	84.0502	105.469	83.5734	105.469	83.9629	105.469	83.4593	105.469	83.8858	105.469	83.3726	105.469	83.823	105.469	83.3183	105.469	83.7765	105.469	83.2979	105.469	83.7458	105.469	83.3093	105.469	83.7279	105.469	83.3472	105.469	83.7184	105.469	83.4036	105.469	83.7112	105.469	83.4698	105.469	83.7	105.469	83.5368	105.469	83.6792	105.469	83.597	105.469	83.6452
108.398	84.7657	108.398	84.7838	108.398	84.7128	108.398	84.7679	108.398	84.6273	108.398	84.7213	108.398	84.5139	108.398	84.6494	108.398	84.3795	108.398	84.5595	108.398	84.2333	108.398	84.4598	108.398	84.0858	108.398	84.3587	108.398	83.9478	108.398	84.2638	108.398	83.8295	108.398	84.1814	108.398	83.7389	108.398	84.1157	108.398	83.6811	108.398	84.0681	108.398	83.6574	108.398	84.038	108.398	83.6652	108.398	84.022	108.398	83.6987	108.398	84.0152	108.398	83.7497	108.398	84.0115	108.398	83.8093	108.398	84.0048	108.398	83.8689	108.398	83.9895	108.398	83.9213	108.398	83.9621
112.793	85.2366	112.793	85.2586	112.793	85.1788	112.793	85.2454	112.793	85.0873	112.793	85.2004	112.793	84.9671	112.793	85.1293	112.793	84.8258	112.793	85.0398	112.793	84.673	112.793	84.9403	112.793	84.5199	112.793	84.8396	112.793	84.3778	112.793	84.746	112.793	84.2577	112.793	84.6659	112.793	84.168	112.793	84.6039	112.793	84.1142	112.793	84.5615	112.793	84.0973	112.793	84.5375	112.793	84.1146	112.793	84.5282	112.793	84.1595	112.793	84.5276	112.793	84.2231	112.793	84.5287	112.793	84.2954	112.793	84.5242	112.793	84.3666	112.793	84.5082	112.793	84.4288	112.793	84.4768
117.188	85.7577	117.188	85.7822	117.188	85.6959	117.188	85.7698	117.188	85.599	117.188	85.7239	117.188	85.4721	117.188	85.6502	117.188	85.3229	117.188	85.5564	117.188	85.1612	117.188	85.4513	117.188	84.9982	117.188	85.344	117.188	84.8457	117.188	85.243	117.188	84.715	117.188	85.1554	117.188	84.6152	117.188	85.086	117.188	84.5526	117.188	85.0369	117.188	84.5294	117.188	85.0075	117.188	84.5436	117.188	84.9942	117.188	84.5889	117.188	84.991	117.188	84.6561	117.188	84.9906	117.188	84.7342	117.188	84.9851	117.188	84.8121	117.188	84.9675	117.188	84.8805	117.188	84.9332
120.117	86.0349	120.117	86.0523	120.117	85.9792	120.117	86.0322	120.117	85.8873	120.117	85.9785	120.117	85.7641	120.117	85.8978	120.117	85.6175	120.117	85.7982	120.117	85.4573	120.117	85.689	120.117	85.2948	120.117	85.5796	120.117	85.1415	120.117	85.4781	120.117	85.0082	120.117	85.391	120.117	84.9037	120.117	85.322	120.117	84.8335	120.117	85.2724	120.117	84.7999	120.117	85.2407	120.117	84.8012	120.117	85.2231	120.117	84.8323	120.117	85.2141	120.117	84.8856	120.117	85.207	120.117	84.9516	120.117	85.195	120.117	85.0206	120.117	85.1724	120.117	85.084	120.117	85.1356
124.512	86.4056	124.512	86.4164	124.512	86.3538	124.512	86.3877	124.512	86.2629	124.512	86.3246	124.512	86.1388	124.512	86.2351	124.512	85.9901	124.512	86.129	124.512	85.8285	124.512	86.0175	124.512	85.6672	124.512	85.9115	124.512	85.5196	124.512	85.8202	124.512	85.3977	124.512	85.7503	124.512	85.3104	124.512	85.705	124.512	85.2626	124.512	85.6836	124.512	85.2544	124.512	85.682	124.512	85.2813	124.512	85.6936	124.512	85.3357	124.512	85.7104	124.512	85.4079	124.512	85.724	124.512	85.4875	124.512	85.7271	124.512	85.5648	124.512	85.7143	124.512	85.6318	124.512	85.6826
128.906	86.6966	128.906	86.7101	128.906	86.6396	128.906	86.6814	128.906	86.5414	128.906	86.6151	128.906	86.4081	128.906	86.5191	128.906	86.249	128.906	86.4032	128.906	86.0761	128.906	86.279	128.906	85.9032	128.906	86.158	128.906	85.7445	128.906	86.0507	128.906	85.613	128.906	85.9655	128.906	85.5189	128.906	85.9074	128.906	85.468	128.906	85.8773	128.906	85.4611	128.906	85.8725	128.906	85.4937	128.906	85.8866	128.906	85.5569	128.906	85.9111	128.906	85.6394	128.906	85.936	128.906	85.7283	128.906	85.9519	128.906	85.8119	128.906	85.9508	128.906	85.8804	128.906	85.9275
133.301	87.0333	133.301	87.0413	133.301	86.9789	133.301	87.0044	133.301	86.8805	133.301	86.928	133.301	86.7445	133.301	86.8206	133.301	86.5807	133.301	86.6935	133.301	86.4019	133.301	86.5591	133.301	86.2223	133.301	86.43	133.301	86.0567	133.301	86.3173	133.301	85.9183	133.301	86.2293	133.301	85.8174	133.301	86.1705	133.301	85.7596	133.301	86.141	133.301	85.7457	133.301	86.1368	133.301	85.7712	133.301	86.1511	133.301	85.8278	133.301	86.1747	133.301	85.9044	133.301	86.1978	133.301	85.9887	133.301	86.2114	133.301	86.0692	133.301	86.2082	133.301	86.1363	133.301	86.1835
139.16	87.2578	139.16	87.2685	139.16	87.1987	139.16	87.2321	139.16	87.094	139.16	87.1544	139.16	86.9507	139.16	87.0446	139.16	86.7795	139.16	86.9149	139.16	86.5945	139.16	86.7789	139.16	86.4112	139.16	86.6504	139.16	86.2457	139.16	86.5414	139.16	86.1123	139.16	86.4612	139.16	86.0217	139.16	86.4142	139.16	85.9793	139.16	86.4003	139.16	85.9848	139.16	86.4145	139.16	86.0321	139.16	86.4479	139.16	86.1107	139.16	86.4896	139.16	86.2078	139.16	86.5279	139.16	86.3097	139.16	86.5525	139.16	86.4038	139.16	86.5553	139.16	86.48	139.16	86.5315
143.555	87.5199	143.555	87.5343	143.555	87.4538	143.555	87.4984	143.555	87.339	143.555	87.4178	143.555	87.1826	143.555	87.302	143.555	86.9961	143.555	87.1632	143.555	86.7938	143.555	87.0154	143.555	86.5928	143.555	86.8729	143.555	86.4103	143.555	86.749	143.555	86.2625	143.555	86.654	143.555	86.1615	143.555	86.5943	143.555	86.1141	143.555	86.5711	143.555	86.1203	143.555	86.5805	143.555	86.1737	143.555	86.6138	143.555	86.2625	143.555	86.6595	143.555	86.3717	143.555	86.7044	143.555	86.4854	143.555	86.7362	143.555	86.589	143.555	86.7449	143.555	86.6709	143.555	86.7238
147.949	87.7145	147.949	87.7245	147.949	87.6493	147.949	87.6811	147.949	87.5317	147.949	87.5903	147.949	87.369	147.949	87.4624	147.949	87.173	147.949	87.3106	147.949	86.9586	147.949	87.1499	147.949	86.7434	147.949	86.9958	147.949	86.5459	147.949	86.8622	147.949	86.3833	147.949	86.7598	147.949	86.2688	147.949	86.6948	147.949	86.2104	147.949	86.6681	147.949	86.2087	147.949	86.6753	147.949	86.2578	147.949	86.7075	147.949	86.3455	147.949	86.7528	147.949	86.4561	147.949	86.798	147.949	86.5727	147.949	86.8303	147.949	86.6794	147.949	86.8393	147.949	86.7638	147.949	86.818
153.809	87.8218	153.809	87.8341	153.809	87.7512	153.809	87.79	153.809	87.6253	153.809	87.6962	153.809	87.4519	153.809	87.5637	153.809	87.2435	153.809	87.4065	153.809	87.0158	153.809	87.2405	153.809	86.7872	153.809	87.0818	153.809	86.577	153.809	86.9447	153.809	86.4029	153.809	86.8399	153.809	86.2791	153.809	86.7736	153.809	86.2139	153.809	86.7462	153.809	86.209	153.809	86.753	153.809	86.2585	153.809	86.7845	153.809	86.3507	153.809	86.8285	153.809	86.4693	153.809	86.8712	153.809	86.5962	153.809	86.8995	153.809	86.7142	153.809	86.9027	153.809	86.8096	153.809	86.8735
159.668	87.9568	159.668	87.9588	159.668	87.8944	159.668	87.9026	159.668	87.7747	159.668	87.7957	159.668	87.6065	159.668	87.6502	159.668	87.4033	159.668	87.4819	159.668	87.1826	159.668	87.3085	159.668	86.9643	159.668	87.1477	159.668	86.7686	159.668	87.0153	159.668	86.6132	159.668	86.9225	159.668	86.5108	159.668	86.8748	159.668	86.4674	159.668	86.871	159.668	86.4814	159.668	86.9039	159.668	86.5446	159.668	86.9615	159.668	86.644	159.668	87.0293	159.668	86.7635	159.668	87.0925	159.668	86.8863	159.668	87.1377	159.668	86.997	159.668	87.1547	159.668	87.0833	159.668	87.137
165.527	88.0626	165.527	88.0577	165.527	88.002	165.527	87.9898	165.527	87.8798	165.527	87.8667	165.527	87.7051	165.527	87.7012	165.527	87.4924	165.527	87.5102	165.527	87.2605	165.527	87.3131	165.527	87.0305	165.527	87.1296	165.527	86.8243	165.527	86.9779	165.527	86.6611	165.527	86.8716	165.527	86.5549	165.527	86.8182	165.527	86.5125	165.527	86.8178	165.527	86.5324	165.527	86.8626	165.527	86.6055	165.527	86.9394	165.527	86.7169	165.527	87.031	165.527	86.8479	165.527	87.1195	165.527	86.9795	165.527	87.1888	165.527	87.0943	165.527	87.2261	165.527	87.1785	165.527	87.2235
171.387	88.0729	171.387	88.0687	171.387	88.009	171.387	87.9989	171.387	87.8803	171.387	87.872	171.387	87.6961	171.387	87.701	171.387	87.4713	171.387	87.5033	171.387	87.2251	171.387	87.2984	171.387	86.9802	171.387	87.1061	171.387	86.7597	171.387	86.9446	171.387	86.5845	171.387	86.8279	171.387	86.4698	171.387	86.7642	171.387	86.4232	171.387	86.7539	171.387	86.4431	171.387	86.7906	171.387	86.5197	171.387	86.8617	171.387	86.6365	171.387	86.9505	171.387	86.7732	171.387	87.0392	171.387	86.9093	171.387	87.1109	171.387	87.0264	171.387	87.1519	171.387	87.1104	171.387	87.153
177.246	87.97	177.246	87.9597	177.246	87.908	177.246	87.8804	177.246	87.7767	177.246	87.7415	177.246	87.5854	177.246	87.5578	177.246	87.3496	177.246	87.3482	177.246	87.0896	177.246	87.1343	177.246	86.8298	177.246	86.9378	177.246	86.5954	177.246	86.7781	177.246	86.4099	177.246	86.6697	177.246	86.2909	177.246	86.6196	177.246	86.2475	177.246	86.6266	177.246	86.2781	177.246	86.6814	177.246	86.3712	177.246	86.769	177.246	86.5074	177.246	86.8712	177.246	86.6638	177.246	86.9691	177.246	86.8171	177.246	87.0462	177.246	86.9475	177.246	87.0889	177.246	87.0406	177.246	87.0884
183.105	87.8996	183.105	87.8883	183.105	87.8332	183.105	87.8028	183.105	87.6925	183.105	87.653	183.105	87.4872	183.105	87.4543	183.105	87.2335	183.105	87.2269	183.105	86.953	183.105	86.9939	183.105	86.6715	183.105	86.7792	183.105	86.4158	183.105	86.605	183.105	86.2112	183.105	86.4882	183.105	86.0773	183.105	86.4378	183.105	86.0252	183.105	86.4531	183.105	86.0552	183.105	86.5238	183.105	86.1569	183.105	86.6322	183.105	86.3108	183.105	86.7564	183.105	86.4918	183.105	86.874	183.105	86.6731	183.105	86.9647	183.105	86.8306	183.105	87.0127	183.105	86.9458	183.105	87.0077
188.965	87.8146	188.965	87.8124	188.965	87.7359	188.965	87.7323	188.965	87.5799	188.965	87.5837	188.965	87.357	188.965	87.3821	188.965	87.0842	188.965	87.1472	188.965	86.7844	188.965	86.9021	188.965	86.4842	188.965	86.6713	188.965	86.2121	188.965	86.4775	188.965	85.9943	188.965	86.3393	188.965	85.8509	188.965	86.2673	188.965	85.7927	188.965	86.263	188.965	85.8193	188.965	86.3176	188.965	85.9196	188.965	86.4145	188.965	86.0738	188.965	86.5318	188.965	86.2565	188.965	86.6464	188.965	86.4404	188.965	86.7369	188.965	86.6008	188.965	86.7857	188.965	86.7183	188.965	86.781
196.289	87.8515	196.289	87.8454	196.289	87.7719	196.289	87.7571	196.289	87.6105	196.289	87.5964	196.289	87.3787	196.289	87.3795	196.289	87.0947	196.289	87.1273	196.289	86.783	196.289	86.8642	196.289	86.4727	196.289	86.6158	196.289	86.1942	196.289	86.4065	196.289	85.9752	196.289	86.2557	196.289	85.8359	196.289	86.1753	196.289	85.7861	196.289	86.167	196.289	85.8229	196.289	86.2224	196.289	85.9324	196.289	86.3246	196.289	86.0924	196.289	86.4514	196.289	86.276	196.289	86.5789	196.289	86.4559	196.289	86.6845	196.289	86.6076	196.289	86.7495	196.289	86.7128	196.289	86.7609
203.613	87.6836	203.613	87.655	203.613	87.6201	203.613	87.5377	203.613	87.4683	203.613	87.3423	203.613	87.2395	203.613	87.086	203.613	86.952	203.613	86.7914	203.613	86.6304	203.613	86.4853	203.613	86.3039	203.613	86.1967	203.613	86.0037	203.613	85.9536	203.613	85.7582	203.613	85.78	203.613	85.5896	203.613	85.6906	203.613	85.5095	203.613	85.6882	203.613	85.518	203.613	85.7622	203.613	85.6038	203.613	85.8908	203.613	85.7469	203.613	86.0458	203.613	85.9213	203.613	86.1981	203.613	86.0987	203.613	86.3216	203.613	86.2526	203.613	86.3967	203.613	86.3614	203.613	86.4112
210.938	87.462	210.938	87.4355	210.938	87.3902	210.938	87.3151	210.938	87.2237	210.938	87.1124	210.938	86.9745	210.938	86.8459	210.938	86.6623	210.938	86.5396	210.938	86.3143	210.938	86.2212	210.938	85.9632	210.938	85.9199	210.938	85.6441	210.938	85.6633	210.938	85.3898	210.938	85.4746	210.938	85.2246	210.938	85.3685	210.938	85.1603	210.938	85.349	210.938	85.1933	210.938	85.4081	210.938	85.3065	210.938	85.5271	210.938	85.4729	210.938	85.6803	210.938	85.6615	210.938	85.8391	210.938	85.8414	210.938	85.9768	210.938	85.9869	210.938	86.0714	210.938	86.0792	210.938	86.1079
218.262	87.2342	218.262	87.1993	218.262	87.1682	218.262	87.0684	218.262	87.0051	218.262	86.8546	218.262	86.7572	218.262	86.5783	218.262	86.4455	218.262	86.2661	218.262	86.0985	218.262	85.9484	218.262	85.7507	218.262	85.6573	218.262	85.4384	218.262	85.422	218.262	85.195	218.262	85.2654	218.262	85.0453	218.262	85.2	218.262	85.0006	218.262	85.2254	218.262	85.0572	218.262	85.3288	218.262	85.1973	218.262	85.4873	218.262	85.3929	218.262	85.6724	218.262	85.611	218.262	85.8542	218.262	85.8187	218.262	86.0057	218.262	85.9881	218.262	86.1053	218.262	86.0984	218.262	86.1383
225.586	87.1517	225.586	87.1201	225.586	87.0715	225.586	86.9813	225.586	86.8839	225.586	86.7486	225.586	86.6027	225.586	86.4434	225.586	86.2511	225.586	86.0939	225.586	85.8608	225.586	85.7337	225.586	85.4702	225.586	85.3992	225.586	85.1205	225.586	85.1254	225.586	84.8495	225.586	84.9417	225.586	84.6857	225.586	84.8655	225.586	84.6425	225.586	84.8989	225.586	84.7166	225.586	85.0272	225.586	84.8886	225.586	85.2227	225.586	85.1265	225.586	85.4502	225.586	85.3912	225.586	85.6731	225.586	85.6428	225.586	85.8589	225.586	85.847	225.586	85.9819	225.586	85.9788	225.586	86.0245
232.91	87.0373	232.91	86.9955	232.91	86.9573	232.91	86.8377	232.91	86.7592	232.91	86.5791	232.91	86.4574	232.91	86.2436	232.91	86.0763	232.91	85.8618	232.91	85.6503	232.91	85.4693	232.91	85.2218	232.91	85.1035	232.91	84.8366	232.91	84.8001	232.91	84.5371	232.91	84.5883	232.91	84.354	232.91	84.4868	232.91	84.3003	232.91	84.4997	232.91	84.3695	232.91	84.6156	232.91	84.5389	232.91	84.8086	232.91	84.7748	232.91	85.0426	232.91	85.0382	232.91	85.2784	232.91	85.2896	232.91	85.4791	232.91	85.494	232.91	85.6151	232.91	85.6249	232.91	85.6664
241.699	86.8073	241.699	86.7478	241.699	86.7421	241.699	86.57	241.699	86.5551	241.699	86.2897	241.699	86.2588	241.699	85.931	241.699	85.876	241.699	85.5259	241.699	85.4393	241.699	85.1117	241.699	84.9909	241.699	84.7278	241.699	84.5786	241.699	84.4105	241.699	84.2499	241.699	84.188	241.699	84.0422	241.699	84.0757	241.699	83.9736	241.699	84.0755	241.699	84.0385	241.699	84.1764	241.699	84.2099	241.699	84.3562	241.699	84.4481	241.699	84.5842	241.699	84.7088	241.699	84.8238	241.699	84.9506	241.699	85.0378	241.699	85.1391	241.699	85.1937	241.699	85.2494	241.699	85.268
250.488	86.6712	250.488	86.5885	250.488	86.6181	250.488	86.3762	250.488	86.4326	250.488	86.0501	250.488	86.128	250.488	85.6353	250.488	85.7274	250.488	85.1657	250.488	85.264	250.488	84.6839	250.488	84.78	250.488	84.2375	250.488	84.3243	250.488	83.8744	250.488	83.9472	250.488	83.6324	250.488	83.6925	250.488	83.5305	250.488	83.5872	250.488	83.5641	250.488	83.6335	250.488	83.7088	250.488	83.8072	250.488	83.9296	250.488	84.0632	250.488	84.1888	250.488	84.3482	250.488	84.4503	250.488	84.6112	250.488	84.6808	250.488	84.8121	250.488	84.8506	250.488	84.9244	250.488	84.9365
259.277	86.5155	259.277	86.4433	259.277	86.4508	259.277	86.2406	259.277	86.2522	259.277	85.9232	259.277	85.933	259.277	85.5156	259.277	85.5165	259.277	85.0507	259.277	85.0362	259.277	84.5697	259.277	84.5344	259.277	84.1198	259.277	84.0599	259.277	83.7498	259.277	83.6636	259.277	83.5022	259.277	83.3916	259.277	83.4024	259.277	83.2756	259.277	83.4503	259.277	83.3234	259.277	83.6208	259.277	83.5135	259.277	83.8719	259.277	83.8002	259.277	84.1569	259.277	84.1255	259.277	84.4322	259.277	84.4331	259.277	84.6616	259.277	84.6779	259.277	84.8166	259.277	84.8304	259.277	84.8767
268.066	86.2861	268.066	86.1852	268.066	86.2378	268.066	85.9402	268.066	86.0459	268.066	85.5666	268.066	85.7264	268.066	85.0905	268.066	85.3057	268.066	84.5483	268.066	84.8191	268.066	83.9861	268.066	84.3092	268.066	83.4589	268.066	83.8227	268.066	83.0256	268.066	83.4061	268.066	82.7388	268.066	83.1024	268.066	82.6302	268.066	82.9447	268.066	82.6978	268.066	82.948	268.066	82.9069	268.066	83.1	268.066	83.204	268.066	83.3596	268.066	83.5334	268.066	83.6678	268.066	83.8474	268.066	83.9638	268.066	84.1085	268.066	84.1981	268.066	84.289	268.066	84.3384	268.066	84.3691
276.855	86.0735	276.855	86.0112	276.855	85.9894	276.855	85.8101	276.855	85.7617	276.855	85.4864	276.855	85.4053	276.855	85.063	276.855	84.9481	276.855	84.5681	276.855	84.4304	276.855	84.0337	276.855	83.9018	276.855	83.4978	276.855	83.4143	276.855	83.0069	276.855	83.0146	276.855	82.6166	276.855	82.7376	276.855	82.3836	276.855	82.6047	276.855	82.3444	276.855	82.6225	276.855	82.4934	276.855	82.7791	276.855	82.7798	276.855	83.0405	276.855	83.1299	276.855	83.3526	276.855	83.4743	276.855	83.6544	276.855	83.7625	276.855	83.8926	276.855	83.9626	276.855	84.0318	276.855	84.0555
287.109	85.8345	287.109	85.7806	287.109	85.7308	287.109	85.5781	287.109	85.4737	287.109	85.2484	287.109	85.0814	287.109	84.8225	287.109	84.5873	287.109	84.3364	287.109	84.0393	287.109	83.826	287.109	83.4964	287.109	83.3231	287.109	83.0201	287.109	82.8547	287.109	82.6609	287.109	82.4505	287.109	82.4472	287.109	82.1515	287.109	82.3843	287.109	82.011	287.109	82.4617	287.109	82.0733	287.109	82.6595	287.109	82.3376	287.109	82.9469	287.109	82.7417	287.109	83.2784	287.109	83.1874	287.109	83.5982	287.109	83.5823	287.109	83.8519	287.109	83.8647	287.109	83.9965	287.109	84.0047
297.363	85.8261	297.363	85.7856	297.363	85.6825	297.363	85.5671	297.363	85.3624	297.363	85.1901	297.363	84.8873	297.363	84.6877	297.363	84.2917	297.363	84.1085	297.363	83.623	297.363	83.5172	297.363	82.9419	297.363	82.9884	297.363	82.3227	297.363	82.5878	297.363	81.849	297.363	82.3471	297.363	81.5967	297.363	82.2523	297.363	81.6048	297.363	82.2608	297.363	81.8519	297.363	82.3355	297.363	82.2617	297.363	82.4677	297.363	82.7363	297.363	82.6713	297.363	83.1873	297.363	82.9512	297.363	83.55	297.363	83.2749	297.363	83.783	297.363	83.5769	297.363	83.864	297.363	83.7889
307.617	85.8428	307.617	85.7574	307.617	85.7339	307.617	85.4904	307.617	85.4322	307.617	85.0662	307.617	84.9551	307.617	84.5192	307.617	84.339	307.617	83.8917	307.617	83.6393	307.617	83.2333	307.617	82.9262	307.617	82.6019	307.617	82.2729	307.617	82.0649	307.617	81.739	307.617	81.6945	307.617	81.3617	307.617	81.5469	307.617	81.1616	307.617	81.6307	307.617	81.1553	307.617	81.8932	307.617	81.3508	307.617	82.2447	307.617	81.723	307.617	82.6025	307.617	82.1974	307.617	82.9149	307.617	82.6705	307.617	83.1581	307.617	83.0513	307.617	83.317	307.617	83.2875	307.617	83.3696
319.336	85.497	319.336	85.3684	319.336	85.4327	319.336	85.0602	319.336	85.1734	319.336	84.5962	319.336	84.7288	319.336	84.0108	319.336	84.123	319.336	83.3487	319.336	83.3969	319.336	82.6643	319.336	82.612	319.336	82.0191	319.336	81.8511	319.336	81.477	319.336	81.2115	319.336	81.0959	319.336	80.787	319.336	80.9198	319.336	80.6371	319.336	80.9684	319.336	80.7606	319.336	81.2252	319.336	81.0971	319.336	81.6325	319.336	81.5561	319.336	82.1041	319.336	82.0487	319.336	82.5513	319.336	82.5029	319.336	82.9054	319.336	82.8662	319.336	83.1253	319.336	83.1029	319.336	83.1922
329.59	85.3404	329.59	85.2397	329.59	85.2419	329.59	84.9496	329.59	84.9467	329.59	84.4911	329.59	84.4718	329.59	83.8974	329.59	83.85	329.59	83.2133	329.59	83.1324	329.59	82.4949	329.59	82.3856	329.59	81.8066	329.59	81.6844	329.59	81.2136	329.59	81.0991	329.59	80.7724	329.59	80.6825	329.59	80.5227	329.59	80.4657	329.59	80.483	329.59	80.4597	329.59	80.6462	329.59	80.653	329.59	80.9744	329.59	81.0044	329.59	81.3998	329.59	81.4426	329.59	81.8386	329.59	81.8823	329.59	82.2125	329.59	82.2469	329.59	82.4633	329.59	82.4819	329.59	82.5569
341.309	85.2826	341.309	85.1561	341.309	85.182	341.309	84.814	341.309	84.8582	341.309	84.2822	341.309	84.3313	341.309	83.6015	341.309	83.6392	341.309	82.8279	341.309	82.8389	341.309	82.0332	341.309	82.0059	341.309	81.3017	341.309	81.2294	341.309	80.7177	341.309	80.5999	341.309	80.3436	341.309	80.1926	341.309	80.2034	341.309	80.0505	341.309	80.2838	341.309	80.1749	341.309	80.5499	341.309	80.524	341.309	80.9558	341.309	81.0216	341.309	81.4436	341.309	81.5741	341.309	81.9417	341.309	82.0908	341.309	82.3746	341.309	82.4984	341.309	82.6777	341.309	82.7465	341.309	82.8079
353.027	85.1794	353.027	85.0516	353.027	85.0722	353.027	84.7011	353.027	84.7331	353.027	84.1529	353.027	84.1823	353.027	83.4428	353.027	83.4575	353.027	82.6169	353.027	82.6145	353.027	81.7349	353.027	81.726	353.027	80.8751	353.027	80.877	353.027	80.1356	353.027	80.1562	353.027	79.6197	353.027	79.6439	353.027	79.4006	353.027	79.4031	353.027	79.4855	353.027	79.4678	353.027	79.8136	353.027	79.821	353.027	80.2922	353.027	80.38	353.027	80.8334	353.027	81.0167	353.027	81.3653	353.027	81.603	353.027	81.8266	353.027	82.0454	353.027	82.1626	353.027	82.2924	353.027	82.328
366.211	85.0454	366.211	84.9178	366.211	84.9287	366.211	84.5556	366.211	84.5712	366.211	83.9797	366.211	83.9908	366.211	83.2218	366.211	83.2228	366.211	82.3264	366.211	82.324	366.211	81.3556	366.211	81.3777	366.211	80.3971	366.211	80.4936	366.211	79.5653	366.211	79.7912	366.211	78.9826	366.211	79.3652	366.211	78.7351	366.211	79.2514	366.211	78.8283	366.211	79.4211	366.211	79.1887	366.211	79.8039	366.211	79.7108	366.211	80.3125	366.211	80.297	366.211	80.856	366.211	80.8692	366.211	81.3481	366.211	81.3634	366.211	81.7173	366.211	81.7262	366.211	81.915	366.211	81.9176
379.395	85.1917	379.395	85.0452	379.395	85.0875	379.395	84.6595	379.395	84.7346	379.395	84.059	379.395	84.1492	379.395	83.281	379.395	83.3632	379.395	82.3773	379.395	82.4265	379.395	81.4165	379.395	81.4104	379.395	80.4834	379.395	80.4094	379.395	79.6733	379.395	79.5385	379.395	79.0775	379.395	78.9187	379.395	78.7635	379.395	78.6468	379.395	78.7563	379.395	78.758	379.395	79.0293	379.395	79.2021	379.395	79.5111	379.395	79.857	379.395	80.1072	379.395	80.5726	379.395	80.7228	379.395	81.2134	379.395	81.2745	379.395	81.6818	379.395	81.6929	379.395	81.9234	379.395	81.9221
392.578	84.9528	392.578	84.7912	392.578	84.8508	392.578	84.3782	392.578	84.4862	392.578	83.7394	392.578	83.8734	392.578	82.9158	392.578	83.044	392.578	81.9642	392.578	82.0522	392.578	80.9572	392.578	80.9826	392.578	79.981	392.578	79.949	392.578	79.1296	392.578	79.0788	392.578	78.4979	392.578	78.4784	392.578	78.1686	392.578	78.2023	392.578	78.1884	392.578	78.2504	392.578	78.5389	392.578	78.5846	392.578	79.1294	392.578	79.1378	392.578	79.8279	392.578	79.811	392.578	80.5038	392.578	80.4843	392.578	81.0548	392.578	81.0443	392.578	81.4121	392.578	81.4093	392.578	81.5355
405.762	84.9318	405.762	84.7634	405.762	84.8107	405.762	84.3181	405.762	84.3976	405.762	83.6185	405.762	83.7035	405.762	82.6996	405.762	82.7593	405.762	81.6144	405.762	81.6251	405.762	80.4415	405.762	80.4004	405.762	79.2928	405.762	79.2233	405.762	78.3072	405.762	78.2492	405.762	77.6214	405.762	77.6098	405.762	77.3238	405.762	77.3792	405.762	77.4257	405.762	77.5657	405.762	77.8702	405.762	78.1101	405.762	78.5565	405.762	78.886	405.762	79.3593	405.762	79.7301	405.762	80.1487	405.762	80.4941	405.762	80.8131	405.762	81.0743	405.762	81.2721	405.762	81.4113	405.762	81.4782
420.41	84.9761	420.41	84.7802	420.41	84.8698	420.41	84.2963	420.41	84.4628	420.41	83.552	420.41	83.7738	420.41	82.5847	420.41	82.8411	420.41	81.4403	420.41	81.7256	420.41	80.1773	420.41	80.513	420.41	78.8848	420.41	79.3128	420.41	77.7102	420.41	78.2494	420.41	76.867	420.41	77.4466	420.41	76.5493	420.41	77.0078	420.41	76.7691	420.41	76.992	420.41	77.3391	420.41	77.386	420.41	78.0455	420.41	78.0862	420.41	78.765	420.41	78.921	420.41	79.4451	420.41	79.7105	420.41	80.0412	420.41	80.3166	420.41	80.4872	420.41	80.6593	420.41	80.7107
435.059	84.6124	435.059	84.4852	435.059	84.4272	435.059	84.053	435.059	83.9382	435.059	83.3383	435.059	83.1724	435.059	82.3792	435.059	82.1789	435.059	81.2311	435.059	81.0308	435.059	79.9673	435.059	79.8245	435.059	78.6755	435.059	78.6759	435.059	77.4609	435.059	77.714	435.059	76.4669	435.059	77.0696	435.059	75.9014	435.059	76.8451	435.059	75.9723	435.059	77.0618	435.059	76.6775	435.059	77.6331	435.059	77.7417	435.059	78.4084	435.059	78.8445	435.059	79.2387	435.059	79.7902	435.059	80.0033	435.059	80.4978	435.059	80.6092	435.059	80.9397	435.059	80.9894	435.059	81.1043
451.172	85.07	451.172	84.8085	451.172	85.0015	451.172	84.2265	451.172	84.6041	451.172	83.3495	451.172	83.8871	451.172	82.2266	451.172	82.8742	451.172	80.9338	451.172	81.6173	451.172	79.568	451.172	80.2138	451.172	78.2279	451.172	78.8171	451.172	76.9855	451.172	77.6156	451.172	75.8789	451.172	76.7663	451.172	74.9674	451.172	76.3268	451.172	74.4441	451.172	76.2713	451.172	74.616	451.172	76.5692	451.172	75.5432	451.172	77.1953	451.172	76.8634	451.172	78.0522	451.172	78.1609	451.172	78.9517	451.172	79.2049	451.172	79.6945	451.172	79.9019	451.172	80.14	451.172	80.2164
465.82	84.5378	465.82	84.3313	465.82	84.3889	465.82	83.7762	465.82	83.8991	465.82	82.9014	465.82	83.1039	465.82	81.7602	465.82	82.0611	465.82	80.4321	465.82	80.8502	465.82	79.0256	465.82	79.5678	465.82	77.6752	465.82	78.319	465.82	76.5208	465.82	77.2133	465.82	75.6674	465.82	76.3691	465.82	75.1582	465.82	75.9187	465.82	75.0084	465.82	75.9781	465.82	75.264	465.82	76.5606	465.82	75.9683	465.82	77.5138	465.82	77.0324	465.82	78.5854	465.82	78.223	465.82	79.5447	465.82	79.2982	465.82	80.2379	465.82	80.0963	465.82	80.5803	465.82	80.5343
483.398	84.5478	483.398	84.2461	483.398	84.4664	483.398	83.5894	483.398	83.9991	483.398	82.6311	483.398	83.1685	483.398	81.4497	483.398	82.0248	483.398	80.1469	483.398	80.6518	483.398	78.8448	483.398	79.1752	483.398	77.6766	483.398	77.7715	483.398	76.7554	483.398	76.6456	483.398	76.1235	483.398	75.9545	483.398	75.7338	483.398	75.7279	483.398	75.5079	483.398	75.8926	483.398	75.4375	483.398	76.3662	483.398	75.6304	483.398	77.081	483.398	76.2054	483.398	77.9289	483.398	77.1058	483.398	78.7412	483.398	78.0985	483.398	79.3423	483.398	78.9397	483.398	79.6045	483.398	79.4678
499.512	84.4028	499.512	84.1483	499.512	84.2454	499.512	83.4989	499.512	83.6808	499.512	82.4898	499.512	82.7375	499.512	81.1739	499.512	81.4692	499.512	79.6256	499.512	79.9551	499.512	77.9563	499.512	78.3047	499.512	76.3418	499.512	76.6716	499.512	75.0329	499.512	75.2661	499.512	74.2804	499.512	74.3228	499.512	74.1594	499.512	74.0069	499.512	74.5123	499.512	74.3341	499.512	75.1259	499.512	75.1776	499.512	75.8891	499.512	76.3153	499.512	76.7673	499.512	77.494	499.512	77.6974	499.512	78.5041	499.512	78.5551	499.512	79.2167	499.512	79.2088	499.512	79.5743	499.512	79.5653
517.09	84.0486	517.09	83.7621	517.09	83.934	517.09	83.0976	517.09	83.4286	517.09	82.1114	517.09	82.5725	517.09	80.8855	517.09	81.43	517.09	79.5115	517.09	80.0828	517.09	78.0777	517.09	78.6264	517.09	76.6704	517.09	77.1678	517.09	75.3928	517.09	75.8219	517.09	74.3765	517.09	74.7085	517.09	73.7465	517.09	73.9782	517.09	73.5503	517.09	73.8395	517.09	73.7498	517.09	74.4162	517.09	74.3022	517.09	75.517	517.09	75.1842	517.09	76.7581	517.09	76.2953	517.09	77.8386	517.09	77.4184	517.09	78.5953	517.09	78.3225	517.09	78.9464	517.09	78.854
536.133	83.3552	536.133	83.0787	536.133	83.2125	536.133	82.4045	536.133	82.6557	536.133	81.3761	536.133	81.715	536.133	80.0496	536.133	80.4386	536.133	78.489	536.133	78.8949	536.133	76.782	536.133	77.2011	536.133	75.0758	536.133	75.5842	536.133	73.6005	536.133	74.3884	536.133	72.6286	536.133	73.8598	536.133	72.3522	536.133	73.88	536.133	72.7486	536.133	74.1182	536.133	73.5758	536.133	74.4086	536.133	74.5434	536.133	74.8821	536.133	75.4775	536.133	75.7064	536.133	76.3362	536.133	76.7274	536.133	77.1116	536.133	77.5935	536.133	77.7396	536.133	78.0696	536.133	78.0985
555.176	82.7794	555.176	82.5645	555.176	82.5509	555.176	81.9457	555.176	81.8681	555.176	80.9765	555.176	80.7584	555.176	79.7125	555.176	79.2943	555.176	78.2172	555.176	77.5978	555.176	76.5961	555.176	75.8404	555.176	75.0407	555.176	74.2318	555.176	73.8094	555.176	72.9983	555.176	73.0816	555.176	72.3408	555.176	72.8307	555.176	72.3322	555.176	72.9233	555.176	72.8196	555.176	73.2899	555.176	73.5133	555.176	73.9075	555.176	74.1879	555.176	74.6639	555.176	74.762	555.176	75.3622	555.176	75.2436	555.176	75.8519	555.176	75.6461	555.176	76.0915	555.176	75.9478	555.176	76.1093
574.219	83.8499	574.219	83.5788	574.219	83.5864	574.219	82.8115	574.219	82.7707	574.219	81.6071	574.219	81.4074	574.219	80.0405	574.219	79.54	574.219	78.194	574.219	77.2901	574.219	76.1631	574.219	74.9192	574.219	74.1272	574.219	72.846	574.219	72.491	574.219	71.4673	574.219	71.8017	574.219	70.8854	574.219	72.1245	574.219	70.9619	574.219	72.912	574.219	71.531	574.219	73.6875	574.219	72.4381	574.219	74.3311	574.219	73.5149	574.219	74.935	574.219	74.5902	574.219	75.5785	574.219	75.5299	574.219	76.2036	574.219	76.2519	574.219	76.6658	574.219	76.7041	574.219	76.847
594.727	87.4349	594.727	87.0332	594.727	87.168	594.727	85.9789	594.727	86.2029	594.727	84.2644	594.727	84.5023	594.727	81.8506	594.727	82.0146	594.727	78.6692	594.727	78.6484	594.727	74.6306	594.727	74.2053	594.727	69.661	594.727	68.2401	594.727	64.1824	594.727	60.0153	594.727	61.4179	594.727	54.7662	594.727	62.7811	594.727	57.4532	594.727	65.162	594.727	61.1954	594.727	68.2665	594.727	66.6054	594.727	71.7489	594.727	71.7908	594.727	75.0064	594.727	75.9616	594.727	77.7762	594.727	79.0389	594.727	79.9602	594.727	81.0653	594.727	81.4697	594.727	82.1008	594.727	82.2112
615.234	86.8058	615.234	86.3462	615.234	86.561	615.234	85.2031	615.234	85.5952	615.234	83.3958	615.234	83.8969	615.234	80.9345	615.234	81.4546	615.234	77.8145	615.234	78.2447	615.234	74.0205	615.234	74.2252	615.234	69.5782	615.234	69.4364	615.234	64.7623	615.234	64.5541	615.234	60.4353	615.234	61.1435	615.234	56.614	615.234	59.2506	615.234	50.2395	615.234	61.822	615.234	60.5841	615.234	67.2891	615.234	68.4843	615.234	71.7826	615.234	73.4298	615.234	75.2809	615.234	76.7862	615.234	77.9865	615.234	79.0772	615.234	79.893	615.234	80.514	615.234	80.9487	615.234	81.1456
637.207	85.4062	637.207	84.9513	637.207	85.2078	637.207	83.8832	637.207	84.3219	637.207	82.2307	637.207	82.7364	637.207	79.9928	637.207	80.4616	637.207	77.1171	637.207	77.5003	637.207	73.53	637.207	73.8313	637.207	69.4417	637.207	69.5761	637.207	66.0141	637.207	65.5268	637.207	64.3032	637.207	62.844	637.207	64.0615	637.207	61.2253	637.207	64.8883	637.207	61.403	637.207	65.8085	637.207	65.5121	637.207	67.6308	637.207	70.3161	637.207	71.2491	637.207	74.109	637.207	74.9177	637.207	76.8974	637.207	77.6472	637.207	78.8107	637.207	79.3469	637.207	79.8803	637.207	80.0743
659.18	85.1999	659.18	84.8573	659.18	84.9026	659.18	83.8765	659.18	83.9657	659.18	82.2616	659.18	82.3843	659.18	80.0154	659.18	80.1368	659.18	77.1565	659.18	77.1788	659.18	73.8111	659.18	73.4837	659.18	70.4081	659.18	69.2502	659.18	67.5988	659.18	65.3413	659.18	65.3883	659.18	62.6399	659.18	63.2555	659.18	60.7244	659.18	62.367	659.18	60.3314	659.18	65.1605	659.18	62.838	659.18	69.1878	659.18	67.38	659.18	72.6863	659.18	72.1565	659.18	75.5457	659.18	75.955	659.18	77.7838	659.18	78.4829	659.18	79.3208	659.18	79.7997	659.18	80.0352
682.617	84.7062	682.617	84.2886	682.617	84.3929	682.617	83.1644	682.617	83.3309	682.617	81.3519	682.617	81.5031	682.617	78.8574	682.617	78.8729	682.617	75.699	682.617	75.3844	682.617	71.9736	682.617	71.093	682.617	67.9357	682.617	66.6651	682.617	63.9913	682.617	63.8019	682.617	60.6237	682.617	62.9571	682.617	58.1333	682.617	62.4782	682.617	57.2686	682.617	61.4725	682.617	60.6103	682.617	62.6443	682.617	65.8759	682.617	67.3792	682.617	70.6204	682.617	71.7716	682.617	74.3752	682.617	75.0958	682.617	77.0654	682.617	77.4645	682.617	78.7	682.617	78.8797	682.617	79.2997
707.52	84.2256	707.52	83.7558	707.52	83.9086	707.52	82.5042	707.52	82.8067	707.52	80.4902	707.52	80.9357	707.52	77.7572	707.52	78.3347	707.52	74.3458	707.52	75.0357	707.52	70.2267	707.52	70.973	707.52	65.4892	707.52	66.0367	707.52	62.0485	707.52	61.3809	707.52	61.7515	707.52	59.7187	707.52	60.6226	707.52	58.0324	707.52	56.7978	707.52	55.2335	707.52	59.6743	707.52	60.127	707.52	65.5955	707.52	66.0483	707.52	69.6385	707.52	70.5293	707.52	72.8933	707.52	74.0441	707.52	75.6015	707.52	76.5982	707.52	77.502	707.52	78.0604	707.52	78.3576
732.422	84.8156	732.422	84.2544	732.422	84.4988	732.422	82.856	732.422	83.3067	732.422	80.7038	732.422	81.2603	732.422	77.8702	732.422	78.3401	732.422	74.314	732.422	74.3691	732.422	69.8689	732.422	68.8685	732.422	65.0723	732.422	61.9829	732.422	63.4293	732.422	60.3741	732.422	64.1762	732.422	60.8721	732.422	63.9351	732.422	59.4398	732.422	62.0644	732.422	57.491	732.422	58.3586	732.422	58.7333	732.422	60.3129	732.422	64.4395	732.422	67.0228	732.422	69.6127	732.422	71.6432	732.422	73.3069	732.422	74.679	732.422	75.7469	732.422	76.531	732.422	77.0719	732.422	77.3259
757.324	84.7493	757.324	84.0843	757.324	84.4849	757.324	82.525	757.324	83.2505	757.324	80.0684	757.324	80.9907	757.324	76.5918	757.324	77.595	757.324	71.6992	757.324	72.8339	757.324	64.4035	757.324	66.561	757.324	56.7172	757.324	62.4289	757.324	60.0196	757.324	64.0741	757.324	61.5843	757.324	65.1881	757.324	61.3557	757.324	64.5701	757.324	59.2187	757.324	61.7338	757.324	54.618	757.324	58.7459	757.324	60.5067	757.324	64.6236	757.324	66.9524	757.324	70.2721	757.324	71.4738	757.324	74.3043	757.324	74.9941	757.324	77.0376	757.324	77.4335	757.324	78.4842	757.324	78.6165
785.156	85.5337	785.156	84.8565	785.156	85.2048	785.156	83.1867	785.156	83.8485	785.156	80.4623	785.156	81.4489	785.156	76.4422	785.156	77.9417	785.156	70.5972	785.156	73.0342	785.156	62.9328	785.156	66.0025	785.156	62.3064	785.156	61.9558	785.156	65.0759	785.156	65.3784	785.156	66.4577	785.156	66.449	785.156	66.6948	785.156	65.414	785.156	65.4182	785.156	62.3795	785.156	60.9274	785.156	55.2001	785.156	54.8446	785.156	61.4277	785.156	66.1556	785.156	69.6612	785.156	71.5689	785.156	74.3585	785.156	74.8612	785.156	77.0956	785.156	77.0649	785.156	78.34	785.156	78.2787
811.523	85.9295	811.523	85.1148	811.523	85.6624	811.523	83.2574	811.523	84.249	811.523	80.388	811.523	81.5559	811.523	76.5201	811.523	77.2988	811.523	71.5643	811.523	70.8544	811.523	65.2541	811.523	61.7253	811.523	62.0299	811.523	62.7291	811.523	65.5952	811.523	65.9107	811.523	67.2667	811.523	66.8304	811.523	66.6991	811.523	66.4325	811.523	64.5971	811.523	64.7807	811.523	60.1	811.523	59.8548	811.523	50.4173	811.523	57.381	811.523	65.8894	811.523	68.6801	811.523	72.4031	811.523	74.461	811.523	76.4244	811.523	77.93	811.523	78.9445	811.523	79.7504	811.523	80.0699
840.82	86.2932	840.82	85.6105	840.82	85.9391	840.82	83.9791	840.82	84.4084	840.82	81.323	840.82	81.5133	840.82	77.2023	840.82	76.9064	840.82	70.3709	840.82	69.694	840.82	59.5098	840.82	61.331	840.82	65.9492	840.82	65.6005	840.82	69.0206	840.82	67.6487	840.82	69.7204	840.82	68.0298	840.82	69.2023	840.82	67.9768	840.82	68.0428	840.82	66.6166	840.82	66.5967	840.82	61.5893	840.82	63.5133	840.82	56.406	840.82	58.0229	840.82	67.7426	840.82	67.9653	840.82	73.5208	840.82	73.9969	840.82	77.0155	840.82	77.3276	840.82	78.7635	840.82	78.8616
870.117	86.1546	870.117	85.4015	870.117	85.8346	870.117	83.5353	870.117	84.3555	870.117	80.316	870.117	81.477	870.117	75.107	870.117	76.6162	870.117	66.54	870.117	68.1115	870.117	65.2987	870.117	64.7117	870.117	69.8938	870.117	70.4097	870.117	71.856	870.117	72.2835	870.117	72.3895	870.117	72.0794	870.117	71.7855	870.117	70.5692	870.117	70.0676	870.117	68.8036	870.117	66.9853	870.117	67.0348	870.117	60.0525	870.117	62.1292	870.117	57.9875	870.117	59.6613	870.117	69.8398	870.117	71.9939	870.117	75.3039	870.117	77.2039	870.117	78.4711	870.117	79.561	870.117	79.896
900.879	86.3278	900.879	85.5907	900.879	85.8359	900.879	83.5705	900.879	84.0481	900.879	80.0161	900.879	80.7604	900.879	74.1597	900.879	75.3469	900.879	62.9524	900.879	65.6475	900.879	66.6749	900.879	67.8638	900.879	71.9134	900.879	72.8393	900.879	73.9031	900.879	74.352	900.879	74.2568	900.879	74.1501	900.879	73.3494	900.879	73.1591	900.879	71.4456	900.879	71.9331	900.879	68.961	900.879	70.1647	900.879	65.4587	900.879	65.8435	900.879	54.6678	900.879	51.9277	900.879	65.9866	900.879	71.2008	900.879	73.5929	900.879	77.0933	900.879	77.6346	900.879	79.5247	900.879	79.5945
933.105	86.3276	933.105	85.4526	933.105	85.8474	933.105	83.2235	933.105	83.8762	933.105	79.4077	933.105	80.0067	933.105	72.9265	933.105	73.0692	933.105	63.8965	933.105	67.9933	933.105	71.568	933.105	73.2221	933.105	75.1533	933.105	75.0743	933.105	76.4856	933.105	74.9878	933.105	76.7167	933.105	74.1504	933.105	76.1165	933.105	73.7148	933.105	74.723	933.105	73.7774	933.105	72.6799	933.105	72.9613	933.105	69.8219	933.105	69.8598	933.105	63.5407	933.105	57.5203	933.105	58.8207	933.105	68.6051	933.105	71.512	933.105	76.1851	933.105	76.7139	933.105	79.0352	933.105	79.0892
965.332	86.5168	965.332	85.5365	965.332	86.0476	965.332	83.0166	965.332	83.9484	965.332	78.2839	965.332	79.7452	965.332	69.2992	965.332	72.8431	965.332	71.0932	965.332	71.3684	965.332	75.7788	965.332	75.4488	965.332	77.3666	965.332	77.8275	965.332	77.729	965.332	78.8441	965.332	77.6508	965.332	78.3594	965.332	77.394	965.332	76.5637	965.332	76.8003	965.332	74.8812	965.332	75.4005	965.332	74.451	965.332	72.5692	965.332	73.5087	965.332	66.4479	965.332	68.7595	965.332	58.6167	965.332	63.2291	965.332	71.5222	965.332	75.5857	965.332	76.9242	965.332	79.3123	965.332	79.465
1,000.49	85.7114	1,000.49	84.8615	1,000.49	85.0866	1,000.49	82.4692	1,000.49	82.9247	1,000.49	78.4522	1,000.49	79.432	1,000.49	74.7495	1,000.49	76.5218	1,000.49	75.9551	1,000.49	77.0989	1,000.49	78.1492	1,000.49	78.6711	1,000.49	79.3601	1,000.49	79.1619	1,000.49	79.9158	1,000.49	78.6796	1,000.49	79.9356	1,000.49	77.7971	1,000.49	78.9843	1,000.49	76.8012	1,000.49	76.9828	1,000.49	76.0557	1,000.49	76.1257	1,000.49	75.9723	1,000.49	76.7963	1,000.49	75.4957	1,000.49	75.0513	1,000.49	72.5135	1,000.49	66.8126	1,000.49	60.9605	1,000.49	68.467	1,000.49	73.1566	1,000.49	75.8493	1,000.49	77.9427	1,000.49	78.4079
1,035.64	82.4848	1,035.64	81.9176	1,035.64	81.8992	1,035.64	80.0519	1,035.64	80.6796	1,035.64	77.5786	1,035.64	79.3199	1,035.64	76.6483	1,035.64	77.9468	1,035.64	77.6212	1,035.64	77.2269	1,035.64	78.6193	1,035.64	77.1104	1,035.64	78.7717	1,035.64	76.3843	1,035.64	77.9698	1,035.64	75.4201	1,035.64	77.0566	1,035.64	74.8955	1,035.64	76.8873	1,035.64	73.9447	1,035.64	76.4447	1,035.64	72.6032	1,035.64	74.7489	1,035.64	72.6285	1,035.64	73.7606	1,035.64	73.9659	1,035.64	73.8428	1,035.64	74.1965	1,035.64	71.0769	1,035.64	71.3984	1,035.64	67.8528	1,035.64	70.3539	1,035.64	73.5528	1,035.64	74.9832	1,035.64	76.1329
1,072.27	81.1435	1,072.27	80.5353	1,072.27	81.108	1,072.27	79.404	1,072.27	80.5741	1,072.27	77.9722	1,072.27	79.6404	1,072.27	76.0659	1,072.27	77.9409	1,072.27	73.4834	1,072.27	74.7734	1,072.27	71.1347	1,072.27	70.3749	1,072.27	70.3758	1,072.27	68.5793	1,072.27	69.8708	1,072.27	69.8262	1,072.27	68.2767	1,072.27	70.5732	1,072.27	66.227	1,072.27	69.3028	1,072.27	64.8015	1,072.27	66.1549	1,072.27	66.5099	1,072.27	65.1665	1,072.27	68.6982	1,072.27	66.7177	1,072.27	69.687	1,072.27	68.7858	1,072.27	68.8997	1,072.27	69.8977	1,072.27	67.5137	1,072.27	70.8259	1,072.27	70.1585	1,072.27	72.5593	1,072.27	72.6679
1,108.89	82.7947	1,108.89	82.2891	1,108.89	82.2294	1,108.89	80.7941	1,108.89	80.5925	1,108.89	78.3276	1,108.89	77.8177	1,108.89	74.3274	1,108.89	73.5274	1,108.89	66.9962	1,108.89	66.2918	1,108.89	37.6827	1,108.89	42.6527	1,108.89	60.6896	1,108.89	61.0037	1,108.89	65.7046	1,108.89	65.3316	1,108.89	69.2144	1,108.89	67.6407	1,108.89	70.2643	1,108.89	68.0252	1,108.89	68.2003	1,108.89	66.1362	1,108.89	63.2566	1,108.89	60.9639	1,108.89	58.5475	1,108.89	52.5829	1,108.89	62.3369	1,108.89	61.2097	1,108.89	66.8723	1,108.89	66.528	1,108.89	69.5155	1,108.89	70.5498	1,108.89	71.541	1,108.89	72.9491	1,108.89	73.1073
1,148.44	83.1934	1,148.44	82.6391	1,148.44	82.5876	1,148.44	81	1,148.44	80.66	1,148.44	78.0744	1,148.44	77.1102	1,148.44	72.92	1,148.44	71.1647	1,148.44	62.1447	1,148.44	59.5305	1,148.44	57.9368	1,148.44	64.4646	1,148.44	64.3237	1,148.44	69.9194	1,148.44	67.4445	1,148.44	71.8243	1,148.44	70.1218	1,148.44	72.0305	1,148.44	71.4863	1,148.44	71.2987	1,148.44	70.6091	1,148.44	69.5859	1,148.44	66.4324	1,148.44	66.101	1,148.44	56.9231	1,148.44	59.254	1,148.44	57.9387	1,148.44	59.8764	1,148.44	61.8234	1,148.44	64.1193	1,148.44	67.1292	1,148.44	67.8805	1,148.44	70.3697	1,148.44	70.9365	1,148.44	71.6351
1,189.45	83.8204	1,189.45	82.7806	1,189.45	83.3648	1,189.45	80.2694	1,189.45	81.1842	1,189.45	75.7079	1,189.45	76.9594	1,189.45	67.8837	1,189.45	70.4641	1,189.45	67.2035	1,189.45	67.6104	1,189.45	69.4814	1,189.45	70.9652	1,189.45	70.4566	1,189.45	71.689	1,189.45	72.4911	1,189.45	71.039	1,189.45	73.6422	1,189.45	72.0015	1,189.45	72.2717	1,189.45	73.1616	1,189.45	70.2375	1,189.45	71.8213	1,189.45	68.7258	1,189.45	68.284	1,189.45	61.6069	1,189.45	62.6311	1,189.45	58.1554	1,189.45	52.143	1,189.45	64.9485	1,189.45	66.5055	1,189.45	66.2763	1,189.45	70.4634	1,189.45	70.2752	1,189.45	72.8231	1,189.45	72.8688
1,230.47	85.6075	1,230.47	84.9546	1,230.47	84.5396	1,230.47	82.3971	1,230.47	81.4096	1,230.47	76.4896	1,230.47	74.8522	1,230.47	60.5204	1,230.47	65.994	1,230.47	70.3242	1,230.47	72.914	1,230.47	73.8257	1,230.47	74.3619	1,230.47	75.5603	1,230.47	75.1634	1,230.47	75.7827	1,230.47	76.201	1,230.47	76.0252	1,230.47	75.8753	1,230.47	76.54	1,230.47	74.4604	1,230.47	75.7725	1,230.47	73.4579	1,230.47	73.657	1,230.47	72.7321	1,230.47	69.7648	1,230.47	69.6897	1,230.47	59.961	1,230.47	59.2542	1,230.47	58.2645	1,230.47	56.7896	1,230.47	68.2133	1,230.47	67.9389	1,230.47	73.9487	1,230.47	73.678	1,230.47	75.4221
1,274.41	85.4531	1,274.41	84.6985	1,274.41	84.5032	1,274.41	81.8202	1,274.41	81.5727	1,274.41	74.6759	1,274.41	75.1577	1,274.41	59.1207	1,274.41	54.1193	1,274.41	72.0999	1,274.41	72.8529	1,274.41	75.1076	1,274.41	76.2627	1,274.41	76.7475	1,274.41	76.6401	1,274.41	76.0366	1,274.41	75.516	1,274.41	75.6514	1,274.41	74.6331	1,274.41	77.072	1,274.41	74.8234	1,274.41	76.8951	1,274.41	74.8004	1,274.41	75.0163	1,274.41	72.9158	1,274.41	71.2016	1,274.41	68.6776	1,274.41	63.1666	1,274.41	65.5391	1,274.41	66.0533	1,274.41	60.0663	1,274.41	63.5076	1,274.41	66.9824	1,274.41	72.5851	1,274.41	73.7093	1,274.41	75.3953
1,319.82	83.983	1,319.82	83.2011	1,319.82	83.1043	1,319.82	80.4527	1,319.82	80.6146	1,319.82	74.6059	1,319.82	75.2885	1,319.82	55.3389	1,319.82	51.6374	1,319.82	70.2602	1,319.82	73.6878	1,319.82	75.8234	1,319.82	76.5458	1,319.82	78.0652	1,319.82	76.938	1,319.82	78.1829	1,319.82	76.2575	1,319.82	75.8816	1,319.82	75.0928	1,319.82	74.2506	1,319.82	74.7977	1,319.82	75.547	1,319.82	75.4237	1,319.82	75.0692	1,319.82	75.0898	1,319.82	71.7322	1,319.82	70.4751	1,319.82	59.1807	1,319.82	64.4139	1,319.82	63.7273	1,319.82	66.393	1,319.82	64.3982	1,319.82	66.9452	1,319.82	70.2597	1,319.82	73.4966	1,319.82	74.5873
1,366.7	82.1357	1,366.7	81.8752	1,366.7	81.186	1,366.7	79.3572	1,366.7	79.655	1,366.7	73.799	1,366.7	75.5805	1,366.7	64.1288	1,366.7	60.4803	1,366.7	69.0685	1,366.7	70.2608	1,366.7	73.0805	1,366.7	75.454	1,366.7	75.753	1,366.7	76.7846	1,366.7	78.1793	1,366.7	75.8968	1,366.7	77.9183	1,366.7	75.6528	1,366.7	75.4802	1,366.7	76.2664	1,366.7	75.6288	1,366.7	75.8599	1,366.7	76.2768	1,366.7	74.5101	1,366.7	74.3637	1,366.7	68.7183	1,366.7	65.8965	1,366.7	66.4625	1,366.7	66.4165	1,366.7	68.5245	1,366.7	69.4636	1,366.7	67.3723	1,366.7	67.1817	1,366.7	70.5373	1,366.7	71.8174
1,413.57	81.5476	1,413.57	80.7884	1,413.57	81.0647	1,413.57	78.9791	1,413.57	79.4081	1,413.57	76.4133	1,413.57	77.2073	1,413.57	74.1433	1,413.57	75.0205	1,413.57	72.2996	1,413.57	73.4646	1,413.57	74.1303	1,413.57	74.5097	1,413.57	77.0365	1,413.57	76.6745	1,413.57	75.5141	1,413.57	77.5031	1,413.57	74.5062	1,413.57	77.7107	1,413.57	75.1059	1,413.57	76.9492	1,413.57	74.4787	1,413.57	76.3158	1,413.57	74.059	1,413.57	73.8198	1,413.57	72.0231	1,413.57	65.3902	1,413.57	66.7996	1,413.57	56.7771	1,413.57	63.5866	1,413.57	66.2933	1,413.57	69.8704	1,413.57	64.9165	1,413.57	66.871	1,413.57	66.8197	1,413.57	68.916
1,463.38	85.718	1,463.38	84.2038	1,463.38	84.0996	1,463.38	78.458	1,463.38	79.0135	1,463.38	74.9406	1,463.38	76.374	1,463.38	78.8376	1,463.38	79.0569	1,463.38	81.0512	1,463.38	80.4174	1,463.38	80.8186	1,463.38	79.8764	1,463.38	76.359	1,463.38	78.8583	1,463.38	72.7704	1,463.38	77.2498	1,463.38	75.9563	1,463.38	75.5742	1,463.38	74.3397	1,463.38	76.4023	1,463.38	73.1014	1,463.38	76.9449	1,463.38	74.5899	1,463.38	76.6346	1,463.38	74.9367	1,463.38	73.9346	1,463.38	71.7016	1,463.38	68.3822	1,463.38	59.4702	1,463.38	62.5244	1,463.38	70.857	1,463.38	67.6143	1,463.38	69.973	1,463.38	66.8137	1,463.38	68.0163
1,516.11	87.7044	1,516.11	85.398	1,516.11	86.2076	1,516.11	78.7521	1,516.11	79.3302	1,516.11	75.0844	1,516.11	78.715	1,516.11	82.0247	1,516.11	82.7993	1,516.11	83.2326	1,516.11	82.4378	1,516.11	80.8661	1,516.11	80.5126	1,516.11	78.553	1,516.11	77.4606	1,516.11	77.628	1,516.11	77.2936	1,516.11	78.1792	1,516.11	77.369	1,516.11	77.2422	1,516.11	75.4118	1,516.11	74.3473	1,516.11	75.7596	1,516.11	74.0166	1,516.11	75.5552	1,516.11	69.7235	1,516.11	75.5162	1,516.11	71.9694	1,516.11	72.6285	1,516.11	70.5159	1,516.11	63.0023	1,516.11	65.2333	1,516.11	61.3774	1,516.11	66.7308	1,516.11	70.0656	1,516.11	71.5316
1,568.85	89.3897	1,568.85	86.5723	1,568.85	87.381	1,568.85	76.9333	1,568.85	77.1807	1,568.85	76.9999	1,568.85	78.7168	1,568.85	83.651	1,568.85	84.0454	1,568.85	84.9173	1,568.85	84.3833	1,568.85	81.1028	1,568.85	81.2699	1,568.85	77.3214	1,568.85	77.6485	1,568.85	77.6281	1,568.85	74.7571	1,568.85	76.3471	1,568.85	71.81	1,568.85	77.429	1,568.85	75.9486	1,568.85	74.3475	1,568.85	73.5543	1,568.85	72.868	1,568.85	73.5944	1,568.85	73.0685	1,568.85	75.0308	1,568.85	69.0299	1,568.85	72.5189	1,568.85	70.2635	1,568.85	64.6456	1,568.85	52.7591	1,568.85	68.0948	1,568.85	70.3561	1,568.85	73.7011	1,568.85	73.5049
1,624.51	88.7346	1,624.51	86.2655	1,624.51	86.779	1,624.51	76.2933	1,624.51	75.7493	1,624.51	77.9859	1,624.51	79.0042	1,624.51	83.8236	1,624.51	83.8405	1,624.51	83.9306	1,624.51	83.6875	1,624.51	80.2724	1,624.51	82.0041	1,624.51	78.8309	1,624.51	79.5322	1,624.51	78.8359	1,624.51	74.5975	1,624.51	70.8469	1,624.51	70.716	1,624.51	72.6362	1,624.51	74.8829	1,624.51	76.602	1,624.51	73.8641	1,624.51	74.0956	1,624.51	72.8723	1,624.51	73.8444	1,624.51	72.8189	1,624.51	72.0548	1,624.51	71.848	1,624.51	70.5174	1,624.51	67.7939	1,624.51	58.0532	1,624.51	61.858	1,624.51	68.0183	1,624.51	72.7867	1,624.51	73.5253
1,681.64	87.2338	1,681.64	85.0207	1,681.64	85.7878	1,681.64	74.7465	1,681.64	75.9312	1,681.64	79.0732	1,681.64	78.6791	1,681.64	83.3926	1,681.64	83.5458	1,681.64	82.3104	1,681.64	83.0143	1,681.64	80.9569	1,681.64	80.7662	1,681.64	78.2915	1,681.64	75.5654	1,681.64	73.5387	1,681.64	71.6994	1,681.64	68.1852	1,681.64	72.2341	1,681.64	66.2136	1,681.64	71.3568	1,681.64	72.0057	1,681.64	73.2127	1,681.64	73.4368	1,681.64	74.5592	1,681.64	74.4109	1,681.64	73.9108	1,681.64	71.7249	1,681.64	72.4621	1,681.64	62.727	1,681.64	69.3065	1,681.64	67.6088	1,681.64	55.2018	1,681.64	71.3268	1,681.64	71.7833	1,681.64	73.2247
1,741.7	87.7246	1,741.7	85.0597	1,741.7	85.1558	1,741.7	67.2242	1,741.7	71.7779	1,741.7	79.2889	1,741.7	80.8634	1,741.7	82.6919	1,741.7	84.1009	1,741.7	83.2032	1,741.7	82.5578	1,741.7	81.8601	1,741.7	79.9475	1,741.7	77.5238	1,741.7	75.536	1,741.7	70.541	1,741.7	71.8455	1,741.7	69.0886	1,741.7	64.9544	1,741.7	62.3015	1,741.7	65.4865	1,741.7	61.6143	1,741.7	73.1557	1,741.7	72.1299	1,741.7	72.7144	1,741.7	77.0855	1,741.7	72.1996	1,741.7	75.7934	1,741.7	71.2618	1,741.7	71.5959	1,741.7	70.3241	1,741.7	53.4712	1,741.7	59.2313	1,741.7	69.54	1,741.7	70.1676	1,741.7	72.7447
1,803.22	88.9037	1,803.22	84.8642	1,803.22	86.1136	1,803.22	65.0345	1,803.22	72.7115	1,803.22	81.9392	1,803.22	82.7984	1,803.22	83.426	1,803.22	84.9147	1,803.22	81.6838	1,803.22	82.0653	1,803.22	79.5512	1,803.22	78.2197	1,803.22	73.7597	1,803.22	71.0414	1,803.22	66.1036	1,803.22	67.1726	1,803.22	62.9583	1,803.22	56.0141	1,803.22	66.078	1,803.22	58.6312	1,803.22	68.9525	1,803.22	61.9418	1,803.22	58.6795	1,803.22	68.9261	1,803.22	72.5839	1,803.22	70.2	1,803.22	71.6487	1,803.22	72.1706	1,803.22	72.8783	1,803.22	73.3928	1,803.22	63.2549	1,803.22	66.2426	1,803.22	68.5985	1,803.22	71.8745	1,803.22	73.7323
1,866.21	88.0245	1,866.21	83.6313	1,866.21	85.5612	1,866.21	78.7671	1,866.21	76.2163	1,866.21	82.766	1,866.21	82.9361	1,866.21	83.2634	1,866.21	82.0876	1,866.21	80.6011	1,866.21	79.0191	1,866.21	80.4978	1,866.21	78.9324	1,866.21	74.3892	1,866.21	77.5782	1,866.21	74.0748	1,866.21	77.9747	1,866.21	77.7393	1,866.21	77.3757	1,866.21	77.3716	1,866.21	75.0596	1,866.21	75.2423	1,866.21	71.3857	1,866.21	78.193	1,866.21	73.3378	1,866.21	69.0343	1,866.21	74.4658	1,866.21	73.5889	1,866.21	73.2609	1,866.21	70.0639	1,866.21	76.9527	1,866.21	71.7979	1,866.21	71.2462	1,866.21	65.1534	1,866.21	73.1771	1,866.21	74.3396
1,932.13	84.2194	1,932.13	83.3619	1,932.13	83.7836	1,932.13	77.9298	1,932.13	79.2672	1,932.13	77.2177	1,932.13	79.8368	1,932.13	80.759	1,932.13	81.466	1,932.13	83.4104	1,932.13	81.9583	1,932.13	82.22	1,932.13	80.4282	1,932.13	80.3515	1,932.13	78.7528	1,932.13	78.7404	1,932.13	77.1511	1,932.13	77.2518	1,932.13	75.1452	1,932.13	75.8521	1,932.13	75.6248	1,932.13	76.9897	1,932.13	73.9542	1,932.13	78.133	1,932.13	72.5712	1,932.13	69.3579	1,932.13	72.7971	1,932.13	73.2059	1,932.13	71.6874	1,932.13	67.2027	1,932.13	72.4265	1,932.13	71.7655	1,932.13	72.9203	1,932.13	71.2371	1,932.13	63.2198	1,932.13	68.0428
1,999.51	83.2379	1,999.51	82.1421	1,999.51	82.7744	1,999.51	72.4248	1,999.51	78.1108	1,999.51	77.6313	1,999.51	74.2725	1,999.51	81.7685	1,999.51	79.3347	1,999.51	83.8568	1,999.51	81.8762	1,999.51	81.7881	1,999.51	79.9651	1,999.51	81.1685	1,999.51	77.0122	1,999.51	78.7118	1,999.51	75.376	1,999.51	70.985	1,999.51	67.3634	1,999.51	61.3423	1,999.51	68.6246	1,999.51	58.7382	1,999.51	70.4456	1,999.51	76.8554	1,999.51	73.9853	1,999.51	73.6258	1,999.51	69.8432	1,999.51	73.0729	1,999.51	69.9415	1,999.51	71.6951	1,999.51	70.1853	1,999.51	58.0177	1,999.51	71.8965	1,999.51	69.2725	1,999.51	65.4913	1,999.51	66.1265
2,069.82	83.5065	2,069.82	82.2073	2,069.82	80.4155	2,069.82	73.2962	2,069.82	73.0949	2,069.82	74.6297	2,069.82	75.7096	2,069.82	81.3954	2,069.82	80.4864	2,069.82	81.8571	2,069.82	82.1493	2,069.82	79.2867	2,069.82	79.1176	2,069.82	77.8631	2,069.82	75.7727	2,069.82	74.0714	2,069.82	73.6266	2,069.82	64.2698	2,069.82	63.914	2,069.82	70.9175	2,069.82	69.6833	2,069.82	69.8755	2,069.82	66.9262	2,069.82	62.0152	2,069.82	71.6216	2,069.82	69.0444	2,069.82	70.6704	2,069.82	70.358	2,069.82	67.4428	2,069.82	70.7615	2,069.82	60.0907	2,069.82	61.4653	2,069.82	68.755	2,069.82	70.2333	2,069.82	66.5347	2,069.82	69.1189
2,143.07	84.3632	2,143.07	81.3291	2,143.07	81.9406	2,143.07	69.0446	2,143.07	71.6637	2,143.07	76.4797	2,143.07	74.6098	2,143.07	81.4363	2,143.07	80.455	2,143.07	80.8978	2,143.07	80.958	2,143.07	78.2617	2,143.07	77.2461	2,143.07	70.0824	2,143.07	75.6988	2,143.07	58.8181	2,143.07	69.9181	2,143.07	65.4606	2,143.07	64.6449	2,143.07	65.6991	2,143.07	65.655	2,143.07	63.3007	2,143.07	63.1755	2,143.07	67.7694	2,143.07	69.1657	2,143.07	67.6521	2,143.07	70.6113	2,143.07	66.7295	2,143.07	67.1041	2,143.07	66.7034	2,143.07	54.9461	2,143.07	58.0792	2,143.07	57.2422	2,143.07	67.695	2,143.07	64.4078	2,143.07	67.7795
2,219.24	84.4025	2,219.24	81.6948	2,219.24	81.5913	2,219.24	66.353	2,219.24	68.0475	2,219.24	77.8431	2,219.24	76.7866	2,219.24	80.6962	2,219.24	79.7302	2,219.24	77.9033	2,219.24	78.9148	2,219.24	73.8834	2,219.24	74.2342	2,219.24	66.6986	2,219.24	68.0103	2,219.24	64.2965	2,219.24	65.0159	2,219.24	40.0273	2,219.24	61.1035	2,219.24	61.3833	2,219.24	48.1211	2,219.24	58.0548	2,219.24	49.3055	2,219.24	65.3212	2,219.24	62.2083	2,219.24	66.3248	2,219.24	67.4067	2,219.24	60.9141	2,219.24	65.5004	2,219.24	58.9446	2,219.24	54.6704	2,219.24	48.6379	2,219.24	63.6252	2,219.24	64.9906	2,219.24	63.752	2,219.24	66.0753
2,296.88	83.4421	2,296.88	80.1217	2,296.88	80.8073	2,296.88	66.3804	2,296.88	68.4093	2,296.88	77.6788	2,296.88	76.4163	2,296.88	79.2093	2,296.88	78.2034	2,296.88	75.8957	2,296.88	76.7636	2,296.88	71.5955	2,296.88	71.5665	2,296.88	65.7441	2,296.88	66.2473	2,296.88	56.6331	2,296.88	50.0977	2,296.88	62.605	2,296.88	48.0613	2,296.88	61.4328	2,296.88	47.9821	2,296.88	58.7706	2,296.88	58.3096	2,296.88	60.823	2,296.88	58.3856	2,296.88	64.3522	2,296.88	64.6926	2,296.88	66.3479	2,296.88	66.0373	2,296.88	63.3217	2,296.88	59.7781	2,296.88	54.797	2,296.88	58.4744	2,296.88	65.1567	2,296.88	65.0794	2,296.88	65.1216
2,378.91	81.351	2,378.91	78.5109	2,378.91	79.0208	2,378.91	60.4357	2,378.91	68.269	2,378.91	76.0932	2,378.91	75.5558	2,378.91	77.7807	2,378.91	78.2756	2,378.91	76.1521	2,378.91	74.85	2,378.91	67.4278	2,378.91	67.4404	2,378.91	59.5481	2,378.91	60.4111	2,378.91	61.745	2,378.91	47.9356	2,378.91	63.4112	2,378.91	57.6372	2,378.91	63.3413	2,378.91	62.4413	2,378.91	58.5937	2,378.91	60.228	2,378.91	58.5772	2,378.91	51.0854	2,378.91	58.5333	2,378.91	61.0031	2,378.91	65.4855	2,378.91	63.4222	2,378.91	65.9225	2,378.91	57.4812	2,378.91	55.2704	2,378.91	58.049	2,378.91	64.8051	2,378.91	64.0183	2,378.91	63.8439
2,462.4	82.6512	2,462.4	79.3826	2,462.4	78.8439	2,462.4	65.3691	2,462.4	65.713	2,462.4	76.2623	2,462.4	75.35	2,462.4	77.4152	2,462.4	77.9609	2,462.4	74.5133	2,462.4	74.4098	2,462.4	65.9527	2,462.4	67.3559	2,462.4	61.8008	2,462.4	55.4811	2,462.4	66.0661	2,462.4	64.0113	2,462.4	67.4998	2,462.4	64.9386	2,462.4	66.9352	2,462.4	62.9625	2,462.4	64.3327	2,462.4	59.403	2,462.4	62.5214	2,462.4	52.8485	2,462.4	52.0322	2,462.4	52.8617	2,462.4	61.7261	2,462.4	61.8341	2,462.4	61.7229	2,462.4	60.245	2,462.4	54.5325	2,462.4	59.869	2,462.4	65.4338	2,462.4	61.7688	2,462.4	66.4628
2,548.83	83.3964	2,548.83	80.7233	2,548.83	80.8486	2,548.83	69.5056	2,548.83	69.8633	2,548.83	76.0634	2,548.83	75.8658	2,548.83	78.4826	2,548.83	78.4165	2,548.83	73.692	2,548.83	74.1725	2,548.83	65.1465	2,548.83	65.1884	2,548.83	70.6722	2,548.83	62.8001	2,548.83	71.8054	2,548.83	71.5873	2,548.83	70.7254	2,548.83	71.565	2,548.83	70.9983	2,548.83	70.6378	2,548.83	69.1747	2,548.83	63.2175	2,548.83	63.6826	2,548.83	63.5259	2,548.83	61.979	2,548.83	49.084	2,548.83	61.7335	2,548.83	62.8902	2,548.83	64.4108	2,548.83	62.8478	2,548.83	53.0413	2,548.83	61.5363	2,548.83	67.3533	2,548.83	64.5798	2,548.83	67.9008
2,639.65	83.0859	2,639.65	80.8507	2,639.65	80.6539	2,639.65	67.803	2,639.65	68.0263	2,639.65	77.9646	2,639.65	75.9752	2,639.65	79.3359	2,639.65	77.7377	2,639.65	71.248	2,639.65	73.6516	2,639.65	70.5848	2,639.65	70.2291	2,639.65	73.3182	2,639.65	69.3164	2,639.65	73.1935	2,639.65	71.9048	2,639.65	73.895	2,639.65	73.4439	2,639.65	71.7181	2,639.65	73.4363	2,639.65	71.7649	2,639.65	72.2401	2,639.65	68.7135	2,639.65	66.372	2,639.65	63.5016	2,639.65	59.393	2,639.65	62.2656	2,639.65	64.1639	2,639.65	66.9032	2,639.65	64.3449	2,639.65	56.8057	2,639.65	61.9238	2,639.65	67.7613	2,639.65	64.3759	2,639.65	66.7596
2,731.93	84.3262	2,731.93	79.2439	2,731.93	80.2245	2,731.93	67.9893	2,731.93	67.1788	2,731.93	77.2413	2,731.93	76.4933	2,731.93	71.7887	2,731.93	69.288	2,731.93	66.5428	2,731.93	70.2096	2,731.93	71.7147	2,731.93	71.9955	2,731.93	71.5115	2,731.93	72.3298	2,731.93	70.8483	2,731.93	64.6976	2,731.93	68.903	2,731.93	66.6526	2,731.93	68.6814	2,731.93	64.6679	2,731.93	67.4483	2,731.93	70.1692	2,731.93	65.4871	2,731.93	67.5565	2,731.93	61.1173	2,731.93	62.8473	2,731.93	57.1023	2,731.93	55.7878	2,731.93	62.4832	2,731.93	62.7734	2,731.93	41.6304	2,731.93	58.9526	2,731.93	66.2044	2,731.93	62.7418	2,731.93	64.8395
2,828.61	85.049	2,828.61	79.9049	2,828.61	80.2834	2,828.61	68.7855	2,828.61	68.0487	2,828.61	76.8089	2,828.61	76.5025	2,828.61	65.9235	2,828.61	67.1152	2,828.61	69.4627	2,828.61	69.7241	2,828.61	74.6009	2,828.61	72.1572	2,828.61	73.2217	2,828.61	74.9912	2,828.61	71.1227	2,828.61	67.0088	2,828.61	67.7049	2,828.61	59.41	2,828.61	66.5785	2,828.61	70.8484	2,828.61	65.6584	2,828.61	71.4311	2,828.61	67.2244	2,828.61	68.3729	2,828.61	62.8598	2,828.61	64.6966	2,828.61	60.7514	2,828.61	61.1862	2,828.61	60.8414	2,828.61	60.9607	2,828.61	56.8766	2,828.61	56.0344	2,828.61	64.9101	2,828.61	64.5752	2,828.61	66.4527
2,928.22	85.1944	2,928.22	80.4968	2,928.22	80.1077	2,928.22	69.191	2,928.22	69.3936	2,928.22	76.1852	2,928.22	76.6675	2,928.22	58.1645	2,928.22	67.4234	2,928.22	73.6086	2,928.22	72.6161	2,928.22	76.7541	2,928.22	75.2526	2,928.22	73.7518	2,928.22	76.1288	2,928.22	71.3047	2,928.22	65.241	2,928.22	70.7668	2,928.22	62.5903	2,928.22	69.7609	2,928.22	72.9277	2,928.22	68.6544	2,928.22	72.6127	2,928.22	67.6668	2,928.22	66.2018	2,928.22	66.756	2,928.22	68.0554	2,928.22	61.4972	2,928.22	59.5948	2,928.22	62.0307	2,928.22	62.068	2,928.22	47.7771	2,928.22	57.7511	2,928.22	67.1544	2,928.22	62.589	2,928.22	67.2823
3,030.76	84.83	3,030.76	80.4957	3,030.76	80.6902	3,030.76	68.5494	3,030.76	70.9611	3,030.76	76.5123	3,030.76	76.4452	3,030.76	64.6141	3,030.76	64.0404	3,030.76	75.4465	3,030.76	75.1386	3,030.76	77.3858	3,030.76	77.0175	3,030.76	74.7699	3,030.76	75.7951	3,030.76	74.4888	3,030.76	68.628	3,030.76	72.2596	3,030.76	69.6622	3,030.76	67.9493	3,030.76	74.1702	3,030.76	68.7034	3,030.76	72.0922	3,030.76	65.5172	3,030.76	66.7545	3,030.76	67.5865	3,030.76	68.9007	3,030.76	62.0847	3,030.76	58.4762	3,030.76	63.7644	3,030.76	64.3041	3,030.76	56.8364	3,030.76	55.0188	3,030.76	67.5875	3,030.76	61.3911	3,030.76	66.413
3,137.7	84.4464	3,137.7	80.5239	3,137.7	80.3479	3,137.7	71.1648	3,137.7	70.6474	3,137.7	75.6831	3,137.7	76.0827	3,137.7	67.0465	3,137.7	63.3605	3,137.7	77.2947	3,137.7	76.6607	3,137.7	77.1547	3,137.7	78.1675	3,137.7	77.1301	3,137.7	75.5381	3,137.7	74.452	3,137.7	72.7769	3,137.7	68.4021	3,137.7	70.9514	3,137.7	68.0024	3,137.7	73.4849	3,137.7	67.5555	3,137.7	70.8372	3,137.7	68.5882	3,137.7	67.6463	3,137.7	66.4175	3,137.7	67.9719	3,137.7	63.1153	3,137.7	63.2071	3,137.7	64.2466	3,137.7	62.2353	3,137.7	58.1823	3,137.7	53.347	3,137.7	67.1637	3,137.7	63.9551	3,137.7	65.1805
3,249.02	83.8208	3,249.02	80.0032	3,249.02	79.2123	3,249.02	71.4108	3,249.02	68.7938	3,249.02	74.9505	3,249.02	75.4585	3,249.02	70.731	3,249.02	65.6533	3,249.02	77.6928	3,249.02	78.2144	3,249.02	77.6818	3,249.02	80.0979	3,249.02	76.7995	3,249.02	76.6537	3,249.02	68.9472	3,249.02	76.4599	3,249.02	70.3103	3,249.02	72.4244	3,249.02	68.964	3,249.02	74.0285	3,249.02	65.5009	3,249.02	69.2985	3,249.02	68.1745	3,249.02	67.958	3,249.02	67.0054	3,249.02	68.8735	3,249.02	62.2305	3,249.02	62.3211	3,249.02	63.9164	3,249.02	63.4711	3,249.02	59.6602	3,249.02	52.5264	3,249.02	65.1558	3,249.02	65.1077	3,249.02	66.696
3,363.28	83.1829	3,363.28	79.3433	3,363.28	79.2337	3,363.28	70.3301	3,363.28	68.708	3,363.28	73.3812	3,363.28	73.8817	3,363.28	71.0269	3,363.28	68.9688	3,363.28	78.2311	3,363.28	78.2811	3,363.28	79.2903	3,363.28	81.0812	3,363.28	75.8921	3,363.28	78.7491	3,363.28	73.9236	3,363.28	78.3051	3,363.28	71.2958	3,363.28	74.2909	3,363.28	65.4531	3,363.28	74.1938	3,363.28	65.1618	3,363.28	63.5329	3,363.28	66.74	3,363.28	68.6236	3,363.28	67.0502	3,363.28	67.496	3,363.28	61.989	3,363.28	62.3252	3,363.28	63.247	3,363.28	59.4438	3,363.28	52.9456	3,363.28	56.7977	3,363.28	66.3333	3,363.28	65.0148	3,363.28	65.734
3,481.93	82.9091	3,481.93	78.2477	3,481.93	77.8787	3,481.93	70.8043	3,481.93	70.6665	3,481.93	69.8373	3,481.93	74.7462	3,481.93	71.7415	3,481.93	73.0838	3,481.93	79.5132	3,481.93	78.0715	3,481.93	78.4001	3,481.93	80.7595	3,481.93	76.681	3,481.93	78.3575	3,481.93	71.9401	3,481.93	77.4444	3,481.93	65.6973	3,481.93	74.4457	3,481.93	62.963	3,481.93	74.16	3,481.93	65.6665	3,481.93	70.1729	3,481.93	66.2059	3,481.93	69.5182	3,481.93	66.0158	3,481.93	64.9951	3,481.93	64.7967	3,481.93	63.3964	3,481.93	62.7629	3,481.93	53.3784	3,481.93	50.005	3,481.93	58.9483	3,481.93	66.5311	3,481.93	62.5982	3,481.93	65.8379
3,604.98	84.1294	3,604.98	77.5037	3,604.98	78.9477	3,604.98	68.4983	3,604.98	70.7523	3,604.98	63.2892	3,604.98	70.7705	3,604.98	74.6731	3,604.98	73.8117	3,604.98	78.9492	3,604.98	80.0128	3,604.98	79.1874	3,604.98	80.7292	3,604.98	74.9102	3,604.98	77.9667	3,604.98	67.953	3,604.98	75.9881	3,604.98	66.1603	3,604.98	74.0469	3,604.98	61.472	3,604.98	71.1569	3,604.98	61.6564	3,604.98	71.0473	3,604.98	65.0182	3,604.98	70.5235	3,604.98	64.7799	3,604.98	66.2058	3,604.98	64.9389	3,604.98	61.1761	3,604.98	60.0431	3,604.98	54.7352	3,604.98	48.5023	3,604.98	57.6431	3,604.98	64.2098	3,604.98	63.6446	3,604.98	64.7864
3,732.42	82.829	3,732.42	77.6484	3,732.42	80.4046	3,732.42	65.8204	3,732.42	70.6911	3,732.42	65.1862	3,732.42	64.0273	3,732.42	76.3089	3,732.42	75.9269	3,732.42	80.6463	3,732.42	81.5939	3,732.42	78.5302	3,732.42	80.4734	3,732.42	71.2918	3,732.42	76.1716	3,732.42	67.6344	3,732.42	70.1189	3,732.42	61.9064	3,732.42	70.8002	3,732.42	49.3144	3,732.42	63.8132	3,732.42	59.5528	3,732.42	67.3478	3,732.42	62.9163	3,732.42	67.202	3,732.42	63.654	3,732.42	66.9833	3,732.42	62.2601	3,732.42	58.0475	3,732.42	59.7372	3,732.42	59.6475	3,732.42	50.6561	3,732.42	55.6799	3,732.42	63.671	3,732.42	64.8293	3,732.42	64.8043
3,864.26	82.4778	3,864.26	76.9954	3,864.26	78.4231	3,864.26	64.2964	3,864.26	64.294	3,864.26	57.6512	3,864.26	68.569	3,864.26	77.6414	3,864.26	78.6225	3,864.26	80.5239	3,864.26	82.311	3,864.26	76.6026	3,864.26	78.8893	3,864.26	71.1042	3,864.26	73.5315	3,864.26	63.2275	3,864.26	68.052	3,864.26	49.6938	3,864.26	61.351	3,864.26	50.2537	3,864.26	60.659	3,864.26	46.955	3,864.26	63.704	3,864.26	61.3453	3,864.26	66.7702	3,864.26	62.6596	3,864.26	66.2839	3,864.26	65.025	3,864.26	64.0268	3,864.26	60.6008	3,864.26	56.2059	3,864.26	53.8555	3,864.26	60.0196	3,864.26	62.2243	3,864.26	62.8549	3,864.26	65.4555
4,000.49	84.0378	4,000.49	77.7726	4,000.49	78.003	4,000.49	61.2333	4,000.49	54.5153	4,000.49	66.7406	4,000.49	73.8183	4,000.49	78.6668	4,000.49	79.4042	4,000.49	79.8551	4,000.49	82.1572	4,000.49	77.2242	4,000.49	77.7979	4,000.49	70.5608	4,000.49	72.4854	4,000.49	63.8029	4,000.49	66.2392	4,000.49	58.2877	4,000.49	66.2992	4,000.49	51.5461	4,000.49	68.6706	4,000.49	51.1277	4,000.49	69.185	4,000.49	59.5409	4,000.49	65.5602	4,000.49	64.2021	4,000.49	67.3784	4,000.49	64.7719	4,000.49	62.456	4,000.49	60.5657	4,000.49	57.0501	4,000.49	53.0159	4,000.49	61.3168	4,000.49	64.7734	4,000.49	60.7897	4,000.49	65.9446
4,141.11	83.886	4,141.11	75.8938	4,141.11	76.715	4,141.11	62.3403	4,141.11	58.749	4,141.11	71.1845	4,141.11	76.2553	4,141.11	78.5733	4,141.11	80.3697	4,141.11	79.2768	4,141.11	80.4024	4,141.11	75.5437	4,141.11	75.8512	4,141.11	69.5729	4,141.11	73.17	4,141.11	64.2141	4,141.11	60.1161	4,141.11	52.8873	4,141.11	61.8096	4,141.11	42.5096	4,141.11	68.1105	4,141.11	50.813	4,141.11	66.8045	4,141.11	60.0467	4,141.11	66.7637	4,141.11	63.5953	4,141.11	66.3846	4,141.11	64.8879	4,141.11	64.2516	4,141.11	61.8656	4,141.11	57.3072	4,141.11	56.9839	4,141.11	61.5822	4,141.11	64.7992	4,141.11	62.4963	4,141.11	64.6361
4,287.6	84.5386	4,287.6	76.7972	4,287.6	77.5881	4,287.6	64.6012	4,287.6	61.2915	4,287.6	73.1768	4,287.6	76.4938	4,287.6	79.169	4,287.6	81.181	4,287.6	79.1791	4,287.6	79.9454	4,287.6	74.4137	4,287.6	74.6695	4,287.6	67.4999	4,287.6	70.1398	4,287.6	56.7097	4,287.6	56.7244	4,287.6	52.6628	4,287.6	63.0154	4,287.6	44.6869	4,287.6	67.9252	4,287.6	55.5099	4,287.6	59.748	4,287.6	58.5845	4,287.6	64.6227	4,287.6	63.6489	4,287.6	64.6672	4,287.6	63.9741	4,287.6	63.6307	4,287.6	62.2596	4,287.6	60.4782	4,287.6	59.7035	4,287.6	62.7869	4,287.6	61.1539	4,287.6	62.4222	4,287.6	65.2668
4,438.48	84.502	4,438.48	77.7018	4,438.48	77.5124	4,438.48	63.3677	4,438.48	61.8265	4,438.48	75.4808	4,438.48	75.7579	4,438.48	79.6657	4,438.48	80.9768	4,438.48	78.3829	4,438.48	79.0883	4,438.48	72.7682	4,438.48	73.9709	4,438.48	62.5348	4,438.48	67.9627	4,438.48	55.7131	4,438.48	61.3239	4,438.48	52.1392	4,438.48	59.2527	4,438.48	50.0068	4,438.48	65.9254	4,438.48	51.2299	4,438.48	49.7052	4,438.48	55.7179	4,438.48	63.1857	4,438.48	63.411	4,438.48	64.1251	4,438.48	64.4137	4,438.48	61.6376	4,438.48	61.6232	4,438.48	60.9665	4,438.48	60.73	4,438.48	62.7027	4,438.48	62.7655	4,438.48	60.223	4,438.48	65.2921
4,595.21	85.075	4,595.21	78.7348	4,595.21	80.0667	4,595.21	61.6065	4,595.21	63.942	4,595.21	77.5524	4,595.21	76.4647	4,595.21	79.7907	4,595.21	81.2708	4,595.21	76.1613	4,595.21	77.373	4,595.21	70.2044	4,595.21	70.6493	4,595.21	59.3147	4,595.21	61.5856	4,595.21	57.0114	4,595.21	64.111	4,595.21	56.4394	4,595.21	62.8825	4,595.21	55.2664	4,595.21	65.2597	4,595.21	34.6277	4,595.21	55.9433	4,595.21	56.0805	4,595.21	59.9381	4,595.21	62.7285	4,595.21	63.6457	4,595.21	63.717	4,595.21	61.9456	4,595.21	60.342	4,595.21	62.7183	4,595.21	61.0136	4,595.21	62.7206	4,595.21	63.3836	4,595.21	63.2131	4,595.21	64.6682
4,756.35	83.9746	4,756.35	78.6539	4,756.35	79.9293	4,756.35	66.8231	4,756.35	66.5997	4,756.35	78.6477	4,756.35	77.5401	4,756.35	79.4557	4,756.35	80.5371	4,756.35	74.2246	4,756.35	73.6971	4,756.35	66.0108	4,756.35	68.5445	4,756.35	63.8399	4,756.35	61.8052	4,756.35	58.8375	4,756.35	63.4052	4,756.35	60.1207	4,756.35	58.0263	4,756.35	50.8937	4,756.35	62.1734	4,756.35	50.2911	4,756.35	58.0371	4,756.35	53.8732	4,756.35	59.4113	4,756.35	63.2013	4,756.35	64.5777	4,756.35	63.9009	4,756.35	59.0942	4,756.35	59.7874	4,756.35	62.6388	4,756.35	61.4268	4,756.35	62.6865	4,756.35	63.1166	4,756.35	64.0799	4,756.35	65.0715
4,924.8	84.9868	4,924.8	78.4704	4,924.8	79.6827	4,924.8	68.3351	4,924.8	68.612	4,924.8	80.0395	4,924.8	79.8265	4,924.8	78.8229	4,924.8	79.6839	4,924.8	71.5055	4,924.8	70.9831	4,924.8	68.1343	4,924.8	63.6768	4,924.8	66.6734	4,924.8	64.4515	4,924.8	62.1993	4,924.8	57.3885	4,924.8	56.9616	4,924.8	50.836	4,924.8	57.8706	4,924.8	62.8765	4,924.8	53.1929	4,924.8	58.2471	4,924.8	58.485	4,924.8	59.6264	4,924.8	63.0366	4,924.8	62.8708	4,924.8	63.3465	4,924.8	62.1457	4,924.8	58.2354	4,924.8	61.89	4,924.8	60.4138	4,924.8	61.5086	4,924.8	62.7279	4,924.8	64.4173	4,924.8	63.3573
5,097.66	85.6399	5,097.66	78.5727	5,097.66	79.2128	5,097.66	71.2252	5,097.66	70.2124	5,097.66	80.2029	5,097.66	80.8426	5,097.66	78.343	5,097.66	78.7553	5,097.66	71.0714	5,097.66	67.5829	5,097.66	66.0383	5,097.66	68.6153	5,097.66	65.7766	5,097.66	68.6654	5,097.66	54.627	5,097.66	61.0971	5,097.66	60.7544	5,097.66	60.8252	5,097.66	51.7078	5,097.66	63.605	5,097.66	44.1594	5,097.66	56.3636	5,097.66	57.0821	5,097.66	57.64	5,097.66	62.9134	5,097.66	61.5816	5,097.66	61.4272	5,097.66	60.7601	5,097.66	59.6435	5,097.66	63.1465	5,097.66	63.3579	5,097.66	62.4831	5,097.66	64.5063	5,097.66	64.4466	5,097.66	63.9405
5,277.83	86.6457	5,277.83	78.543	5,277.83	80.0887	5,277.83	74.7017	5,277.83	74.3023	5,277.83	81.6876	5,277.83	81.1655	5,277.83	76.8785	5,277.83	78.3683	5,277.83	67.4521	5,277.83	67.9023	5,277.83	68.5678	5,277.83	69.4186	5,277.83	64.1006	5,277.83	70.1561	5,277.83	63.1381	5,277.83	63.6504	5,277.83	61.7351	5,277.83	58.0111	5,277.83	51.9521	5,277.83	59.9067	5,277.83	58.0116	5,277.83	59.4178	5,277.83	55.342	5,277.83	59.7455	5,277.83	63.014	5,277.83	61.9788	5,277.83	61.1175	5,277.83	58.3676	5,277.83	56.9759	5,277.83	61.4274	5,277.83	65.5403	5,277.83	64.239	5,277.83	64.8465	5,277.83	65.0247	5,277.83	61.1854
5,463.87	86.9235	5,463.87	79.7312	5,463.87	79.8327	5,463.87	76.4316	5,463.87	76.4351	5,463.87	81.7167	5,463.87	80.9975	5,463.87	76.3092	5,463.87	77.2325	5,463.87	66.6601	5,463.87	68.2345	5,463.87	68.8929	5,463.87	67.7345	5,463.87	68.0125	5,463.87	70.8019	5,463.87	63.2416	5,463.87	62.0051	5,463.87	57.8463	5,463.87	60.6038	5,463.87	56.8238	5,463.87	60.1885	5,463.87	58.6298	5,463.87	58.4936	5,463.87	58.8569	5,463.87	60.9521	5,463.87	62.4216	5,463.87	57.9578	5,463.87	61.4637	5,463.87	62.815	5,463.87	52.108	5,463.87	61.9728	5,463.87	66.9039	5,463.87	65.0216	5,463.87	66.8004	5,463.87	67.0216	5,463.87	61.8524
5,657.23	88.1907	5,657.23	81.4867	5,657.23	81.7873	5,657.23	77.0785	5,657.23	75.0559	5,657.23	82.9116	5,657.23	82.1359	5,657.23	74.3193	5,657.23	74.6576	5,657.23	69.1758	5,657.23	66.5399	5,657.23	71.4805	5,657.23	70.8757	5,657.23	60.6509	5,657.23	64.7234	5,657.23	47.8311	5,657.23	51.3405	5,657.23	57.8971	5,657.23	66.8217	5,657.23	59.152	5,657.23	64.6781	5,657.23	54.8312	5,657.23	62.9007	5,657.23	56.0882	5,657.23	60.8539	5,657.23	61.4064	5,657.23	58.6991	5,657.23	62.8649	5,657.23	61.5401	5,657.23	46.5094	5,657.23	54.8603	5,657.23	66.9233	5,657.23	65.814	5,657.23	67.1489	5,657.23	66.9541	5,657.23	62.893
5,856.45	87.5958	5,856.45	82.3463	5,856.45	82.478	5,856.45	79.2239	5,856.45	78.8117	5,856.45	83.0743	5,856.45	82.3942	5,856.45	72.185	5,856.45	72.9361	5,856.45	69.5396	5,856.45	70.5407	5,856.45	68.205	5,856.45	70.8974	5,856.45	59.5196	5,856.45	64.06	5,856.45	63.9616	5,856.45	64.6513	5,856.45	65.4191	5,856.45	68.8587	5,856.45	61.0967	5,856.45	67.2411	5,856.45	53.8758	5,856.45	61.106	5,856.45	56.1355	5,856.45	58.8556	5,856.45	60.4872	5,856.45	61.1254	5,856.45	62.7812	5,856.45	64.0354	5,856.45	52.0845	5,856.45	60.5533	5,856.45	64.8536	5,856.45	65.7563	5,856.45	67.3507	5,856.45	66.8942	5,856.45	64.1061
6,062.99	87.7621	6,062.99	83.2879	6,062.99	83.3164	6,062.99	80.7333	6,062.99	80.373	6,062.99	82.3428	6,062.99	82.7687	6,062.99	72.7448	6,062.99	72.893	6,062.99	68.3409	6,062.99	71.1379	6,062.99	65.3325	6,062.99	70.9607	6,062.99	69.2185	6,062.99	70.6684	6,062.99	67.5744	6,062.99	69.9526	6,062.99	64.6914	6,062.99	69.039	6,062.99	64.1041	6,062.99	66.4788	6,062.99	54.0431	6,062.99	46.4386	6,062.99	55.4279	6,062.99	57.127	6,062.99	57.4726	6,062.99	47.7176	6,062.99	62.982	6,062.99	61.3474	6,062.99	54.7	6,062.99	56.7786	6,062.99	64.9781	6,062.99	65.1479	6,062.99	67.0664	6,062.99	66.8521	6,062.99	64.9492
6,276.86	87.5628	6,276.86	83.5584	6,276.86	84.3883	6,276.86	81.0981	6,276.86	80.7018	6,276.86	82.2459	6,276.86	82.8112	6,276.86	71.5551	6,276.86	73.3121	6,276.86	59.3837	6,276.86	69.5872	6,276.86	68.0368	6,276.86	65.7242	6,276.86	70.8542	6,276.86	71.3148	6,276.86	68.3407	6,276.86	67.9157	6,276.86	64.1324	6,276.86	67.5633	6,276.86	63.6129	6,276.86	63.1147	6,276.86	56.5923	6,276.86	57.7966	6,276.86	59.2608	6,276.86	57.7278	6,276.86	59.2733	6,276.86	46.2194	6,276.86	62.8789	6,276.86	61.3341	6,276.86	54.808	6,276.86	49.8295	6,276.86	65.7777	6,276.86	63.9819	6,276.86	67.3145	6,276.86	66.4838	6,276.86	64.5922
6,498.05	87.7435	6,498.05	84.9455	6,498.05	84.5771	6,498.05	82.7658	6,498.05	82.0835	6,498.05	81.6192	6,498.05	81.9838	6,498.05	70.7966	6,498.05	72.862	6,498.05	57.3986	6,498.05	68.9763	6,498.05	70.1916	6,498.05	67.248	6,498.05	70.7862	6,498.05	71.595	6,498.05	65.4076	6,498.05	65.6504	6,498.05	57.7475	6,498.05	63.1629	6,498.05	60.2026	6,498.05	61.7336	6,498.05	51.8838	6,498.05	63.1894	6,498.05	53.1047	6,498.05	55.4789	6,498.05	55.3802	6,498.05	40.2519	6,498.05	61.0819	6,498.05	60.0451	6,498.05	56.7352	6,498.05	55.3858	6,498.05	64.7156	6,498.05	62.7258	6,498.05	67.0021	6,498.05	66.6128	6,498.05	64.7171
6,726.56	87.6943	6,726.56	84.8469	6,726.56	85.7612	6,726.56	83.1319	6,726.56	82.2478	6,726.56	81.2067	6,726.56	81.6745	6,726.56	69.7814	6,726.56	71.8	6,726.56	58.3056	6,726.56	66.9672	6,726.56	71.9071	6,726.56	67.453	6,726.56	68.0952	6,726.56	69.0852	6,726.56	58.211	6,726.56	57.2934	6,726.56	57.9855	6,726.56	67.103	6,726.56	56.2609	6,726.56	62.9138	6,726.56	53.6962	6,726.56	65.2016	6,726.56	52.3559	6,726.56	51.1058	6,726.56	52.6688	6,726.56	54.9448	6,726.56	58.8265	6,726.56	60.389	6,726.56	58.096	6,726.56	56.9866	6,726.56	63.5333	6,726.56	62.0756	6,726.56	66.0249	6,726.56	67.0282	6,726.56	63.9779
6,963.87	86.9441	6,963.87	85.3184	6,963.87	85.5177	6,963.87	83.0185	6,963.87	83.3534	6,963.87	80.4545	6,963.87	80.9333	6,963.87	69.721	6,963.87	71.101	6,963.87	65.4003	6,963.87	59.9388	6,963.87	70.8329	6,963.87	70.7256	6,963.87	61.8286	6,963.87	66.8665	6,963.87	50.902	6,963.87	56.8015	6,963.87	61.721	6,963.87	65.8765	6,963.87	57.7263	6,963.87	61.652	6,963.87	54.5828	6,963.87	65.1943	6,963.87	49.4792	6,963.87	53.1566	6,963.87	52.0316	6,963.87	57.2219	6,963.87	56.8412	6,963.87	58.962	6,963.87	58.9409	6,963.87	60.5254	6,963.87	63.1578	6,963.87	61.3513	6,963.87	64.9961	6,963.87	66.4649	6,963.87	63.2112
7,209.96	86.8866	7,209.96	85.3741	7,209.96	85.8858	7,209.96	83.3079	7,209.96	83.0488	7,209.96	79.8812	7,209.96	80.9247	7,209.96	68.8745	7,209.96	70.2726	7,209.96	65.6377	7,209.96	60.9106	7,209.96	67.7367	7,209.96	65.4492	7,209.96	68.1251	7,209.96	65.8277	7,209.96	61.8954	7,209.96	42.5897	7,209.96	65.1651	7,209.96	67.5745	7,209.96	60.3152	7,209.96	54.7019	7,209.96	57.0195	7,209.96	65.2493	7,209.96	58.8267	7,209.96	56.5166	7,209.96	55.9521	7,209.96	57.6882	7,209.96	56.7171	7,209.96	60.0738	7,209.96	59.0231	7,209.96	62.4915	7,209.96	62.6361	7,209.96	59.9967	7,209.96	64.7884	7,209.96	66.9287	7,209.96	61.2887
7,464.84	85.9608	7,464.84	85.3005	7,464.84	85.589	7,464.84	82.6577	7,464.84	83.0548	7,464.84	79.0956	7,464.84	79.5819	7,464.84	69.7423	7,464.84	70.0598	7,464.84	64.2201	7,464.84	63.3752	7,464.84	62.3298	7,464.84	57.1082	7,464.84	71.1359	7,464.84	59.3568	7,464.84	63.3876	7,464.84	63.912	7,464.84	63.1739	7,464.84	65.0311	7,464.84	57.1788	7,464.84	49.6161	7,464.84	52.4841	7,464.84	62.5082	7,464.84	58.2045	7,464.84	49.3678	7,464.84	53.277	7,464.84	56.5158	7,464.84	56.5573	7,464.84	56.9646	7,464.84	59.1138	7,464.84	61.4487	7,464.84	60.2178	7,464.84	58.7506	7,464.84	63.8763	7,464.84	67.2849	7,464.84	60.1172
7,727.05	86.1231	7,727.05	85.2052	7,727.05	85.7963	7,727.05	82.5736	7,727.05	82.1969	7,727.05	77.9686	7,727.05	78.9534	7,727.05	72.6749	7,727.05	70.0359	7,727.05	65.3379	7,727.05	64.7627	7,727.05	61.0488	7,727.05	48.3043	7,727.05	69.6576	7,727.05	64.4366	7,727.05	61.0701	7,727.05	68.2588	7,727.05	64.8277	7,727.05	63.1155	7,727.05	59.7403	7,727.05	54.2263	7,727.05	52.6287	7,727.05	58.8086	7,727.05	59.4105	7,727.05	52.0555	7,727.05	55.1072	7,727.05	57.2131	7,727.05	56.7257	7,727.05	58.5728	7,727.05	58.0634	7,727.05	61.033	7,727.05	58.5933	7,727.05	58.4521	7,727.05	63.961	7,727.05	67.7087	7,727.05	58.9592
7,999.51	85.1392	7,999.51	85.1183	7,999.51	85.3868	7,999.51	81.659	7,999.51	81.8196	7,999.51	76.986	7,999.51	77.4534	7,999.51	71.5981	7,999.51	69.6752	7,999.51	57.4291	7,999.51	50.4567	7,999.51	61.1804	7,999.51	50.4369	7,999.51	70.6564	7,999.51	70.3462	7,999.51	64.7212	7,999.51	69.4703	7,999.51	63.0432	7,999.51	63.0827	7,999.51	58.6882	7,999.51	56.4975	7,999.51	49.9634	7,999.51	55.3526	7,999.51	58.6595	7,999.51	46.4738	7,999.51	53.2345	7,999.51	55.5736	7,999.51	54.9167	7,999.51	55.0088	7,999.51	56.7229	7,999.51	61.0054	7,999.51	58.7435	7,999.51	57.4323	7,999.51	63.1933	7,999.51	66.3589	7,999.51	59.0554
8,282.23	84.7957	8,282.23	84.8938	8,282.23	85.4241	8,282.23	80.5517	8,282.23	81.0022	8,282.23	76.63	8,282.23	76.3449	8,282.23	70.1637	8,282.23	70.334	8,282.23	55.1917	8,282.23	51.4621	8,282.23	57.7294	8,282.23	59.4805	8,282.23	72.1273	8,282.23	72.3698	8,282.23	62.8572	8,282.23	67.1377	8,282.23	60.9913	8,282.23	64.7035	8,282.23	58.7446	8,282.23	57.3354	8,282.23	46.5334	8,282.23	44.5286	8,282.23	59.3657	8,282.23	50.8335	8,282.23	51.641	8,282.23	56.5033	8,282.23	56.125	8,282.23	53.6066	8,282.23	56.2949	8,282.23	58.6783	8,282.23	53.1864	8,282.23	55.3357	8,282.23	63.6432	8,282.23	65.9244	8,282.23	59.9901
8,573.73	84.2727	8,573.73	84.937	8,573.73	84.735	8,573.73	79.3716	8,573.73	79.4041	8,573.73	77.7516	8,573.73	74.8183	8,573.73	67.8309	8,573.73	66.8491	8,573.73	60.2815	8,573.73	53.0292	8,573.73	58.9965	8,573.73	65.3537	8,573.73	68.7629	8,573.73	70.5805	8,573.73	63.3371	8,573.73	60.5538	8,573.73	57.6814	8,573.73	63.8874	8,573.73	54.6072	8,573.73	59.94	8,573.73	45.903	8,573.73	52.0477	8,573.73	56.8369	8,573.73	47.6437	8,573.73	53.66	8,573.73	55.3785	8,573.73	54.4969	8,573.73	52.1815	8,573.73	56.1439	8,573.73	60.4299	8,573.73	53.7283	8,573.73	53.0644	8,573.73	63.189	8,573.73	65.6165	8,573.73	59.9859
8,876.95	84.3219	8,876.95	84.3754	8,876.95	84.3375	8,876.95	78.1833	8,876.95	77.2988	8,876.95	77.1995	8,876.95	74.3745	8,876.95	66.2759	8,876.95	62.2535	8,876.95	60.9761	8,876.95	56.0033	8,876.95	53.3869	8,876.95	60.0199	8,876.95	66.9239	8,876.95	65.469	8,876.95	64.9771	8,876.95	64.3796	8,876.95	59.9854	8,876.95	57.6012	8,876.95	55.7313	8,876.95	59.7122	8,876.95	50.8896	8,876.95	51.561	8,876.95	55.5879	8,876.95	44.2942	8,876.95	50.7758	8,876.95	54.3752	8,876.95	54.3355	8,876.95	53.5123	8,876.95	54.0793	8,876.95	58.7968	8,876.95	53.2033	8,876.95	51.4809	8,876.95	62.4629	8,876.95	64.7448	8,876.95	60.6759
9,188.96	85.5741	9,188.96	84.7752	9,188.96	84.7382	9,188.96	79.9175	9,188.96	78.1114	9,188.96	76.8097	9,188.96	73.9273	9,188.96	62.3947	9,188.96	58.9186	9,188.96	64.1271	9,188.96	61.4802	9,188.96	63.3666	9,188.96	64.6451	9,188.96	68.2101	9,188.96	60.5687	9,188.96	65.4549	9,188.96	66.3863	9,188.96	60.0381	9,188.96	59.2143	9,188.96	57.2092	9,188.96	61.2228	9,188.96	52.3726	9,188.96	44.7837	9,188.96	53.1027	9,188.96	43.0539	9,188.96	48.9282	9,188.96	56.4951	9,188.96	54.4301	9,188.96	50.6652	9,188.96	53.8443	9,188.96	56.1031	9,188.96	52.1085	9,188.96	49.0753	9,188.96	62.5266	9,188.96	63.304	9,188.96	60.8464
9,514.16	86.4761	9,514.16	85.5641	9,514.16	85.402	9,514.16	81.6567	9,514.16	81.0029	9,514.16	76.7171	9,514.16	74.537	9,514.16	55.6258	9,514.16	59.1766	9,514.16	68.5316	9,514.16	67.4864	9,514.16	66.82	9,514.16	65.6517	9,514.16	67.0612	9,514.16	57.5086	9,514.16	65.7917	9,514.16	64.8714	9,514.16	55.7361	9,514.16	56.8809	9,514.16	55.256	9,514.16	61.8939	9,514.16	49.972	9,514.16	53.7276	9,514.16	50.4607	9,514.16	38.6994	9,514.16	48.0616	9,514.16	51.9783	9,514.16	52.7484	9,514.16	49.4197	9,514.16	52.6929	9,514.16	50.5774	9,514.16	51.9838	9,514.16	50.2323	9,514.16	59.6134	9,514.16	62.3064	9,514.16	59.0628
9,849.61	86.6314	9,849.61	85.4728	9,849.61	85.9815	9,849.61	82.0808	9,849.61	82.3088	9,849.61	75.4078	9,849.61	75.5478	9,849.61	51.2508	9,849.61	57.3164	9,849.61	70.3087	9,849.61	70.7381	9,849.61	66.8489	9,849.61	65.3517	9,849.61	67.4475	9,849.61	63.3837	9,849.61	65.0983	9,849.61	63.3514	9,849.61	52.8261	9,849.61	56.3721	9,849.61	56.8149	9,849.61	61.6937	9,849.61	49.093	9,849.61	55.5371	9,849.61	48.7428	9,849.61	41.2379	9,849.61	46.3003	9,849.61	49.417	9,849.61	49.3033	9,849.61	43.9565	9,849.61	47.0088	9,849.61	48.3252	9,849.61	50.9697	9,849.61	52.2593	9,849.61	58.9781	9,849.61	60.7199	9,849.61	56.6838
10,196.8	86.4964	10,196.8	85.5489	10,196.8	85.7615	10,196.8	81.8933	10,196.8	82.4171	10,196.8	73.7768	10,196.8	75.5558	10,196.8	62.8543	10,196.8	55.9784	10,196.8	71.2315	10,196.8	69.8871	10,196.8	67.7548	10,196.8	65.6059	10,196.8	67.3265	10,196.8	64.3405	10,196.8	63.637	10,196.8	62.3034	10,196.8	55.8474	10,196.8	54.7307	10,196.8	57.1431	10,196.8	58.7329	10,196.8	47.5589	10,196.8	55.7512	10,196.8	48.3356	10,196.8	36.5342	10,196.8	44.0144	10,196.8	45.617	10,196.8	48.0197	10,196.8	39.2847	10,196.8	46.417	10,196.8	38.1252	10,196.8	51.0045	10,196.8	49.8954	10,196.8	58.5345	10,196.8	58.7224	10,196.8	57.0065
10,555.7	86.1904	10,555.7	85.4516	10,555.7	85.2361	10,555.7	81.4436	10,555.7	81.4624	10,555.7	71.7771	10,555.7	73.6851	10,555.7	66.5753	10,555.7	54.971	10,555.7	71.5265	10,555.7	66.8525	10,555.7	66.8381	10,555.7	63.0753	10,555.7	65.0762	10,555.7	61.2702	10,555.7	61.0373	10,555.7	59.4761	10,555.7	55.3355	10,555.7	45.3716	10,555.7	54.6013	10,555.7	58.1005	10,555.7	43.5222	10,555.7	56.7379	10,555.7	46.7046	10,555.7	47.0416	10,555.7	44.7867	10,555.7	37.0104	10,555.7	46.0847	10,555.7	44.595	10,555.7	46.0223	10,555.7	38.8225	10,555.7	47.3051	10,555.7	50.661	10,555.7	57.9591	10,555.7	56.9392	10,555.7	58.2865
10,927.7	85.8877	10,927.7	85.3315	10,927.7	85.0052	10,927.7	81.0264	10,927.7	80.9888	10,927.7	68.6803	10,927.7	70.7785	10,927.7	68.4021	10,927.7	64.2081	10,927.7	71.4462	10,927.7	65.7943	10,927.7	64.4346	10,927.7	60.9934	10,927.7	62.0505	10,927.7	57.0027	10,927.7	58.5285	10,927.7	60.7562	10,927.7	50.7866	10,927.7	48.7224	10,927.7	51.7398	10,927.7	57.1403	10,927.7	40.5082	10,927.7	55.6072	10,927.7	41.3551	10,927.7	47.6452	10,927.7	46.0535	10,927.7	37.3467	10,927.7	44.2185	10,927.7	41.8493	10,927.7	43.9032	10,927.7	43.8217	10,927.7	45.9683	10,927.7	48.4708	10,927.7	58.6985	10,927.7	55.6873	10,927.7	58.3574
11,313	85.6269	11,313	85.0998	11,313	84.7583	11,313	80.3067	11,313	80.0778	11,313	64.9457	11,313	66.6644	11,313	69.783	11,313	66.6545	11,313	70.4734	11,313	64.6503	11,313	60.5506	11,313	61.9848	11,313	61.6036	11,313	53.3184	11,313	57.2134	11,313	60.3932	11,313	53.8074	11,313	46.8035	11,313	51.6146	11,313	58.9359	11,313	43.6428	11,313	56.4084	11,313	45.8491	11,313	48.0523	11,313	49.4067	11,313	38.4474	11,313	43.0865	11,313	46.3137	11,313	41.2039	11,313	48.9818	11,313	43.1909	11,313	45.5763	11,313	57.8845	11,313	55.7499	11,313	57.3128
11,712.9	85.5152	11,712.9	84.9978	11,712.9	84.5293	11,712.9	79.7168	11,712.9	79.3169	11,712.9	61.831	11,712.9	64.3456	11,712.9	68.94	11,712.9	66.4419	11,712.9	68.0839	11,712.9	64.8101	11,712.9	60.8319	11,712.9	65.1054	11,712.9	59.5368	11,712.9	59.6532	11,712.9	60.1925	11,712.9	60.1457	11,712.9	57.1929	11,712.9	36.3444	11,712.9	53.5837	11,712.9	60.4326	11,712.9	47.4732	11,712.9	56.7516	11,712.9	49.6363	11,712.9	43.4496	11,712.9	53.1574	11,712.9	35.0099	11,712.9	47.0421	11,712.9	47.1215	11,712.9	46.0381	11,712.9	47.9709	11,712.9	39.178	11,712.9	42.7593	11,712.9	58.4511	11,712.9	54.173	11,712.9	57.8031
12,126	85.8431	12,126	84.7044	12,126	84.2579	12,126	78.6563	12,126	78.7385	12,126	56.2669	12,126	60.2881	12,126	65.7228	12,126	67.9845	12,126	66.0164	12,126	67.2193	12,126	63.6091	12,126	66.044	12,126	60.3312	12,126	59.016	12,126	58.3963	12,126	57.633	12,126	54.3111	12,126	47.7719	12,126	49.6154	12,126	61.3166	12,126	45.083	12,126	57.6415	12,126	47.3154	12,126	46.1277	12,126	50.7205	12,126	34.7578	12,126	47.0576	12,126	47.2664	12,126	44.5507	12,126	46.1058	12,126	44.5666	12,126	44.6691	12,126	58.4062	12,126	53.0962	12,126	57.3148
12,553.7	85.9716	12,553.7	84.3092	12,553.7	84.1987	12,553.7	77.137	12,553.7	77.1252	12,553.7	41.6096	12,553.7	57.5927	12,553.7	67.1576	12,553.7	68.6183	12,553.7	66.3856	12,553.7	67.7655	12,553.7	62.1068	12,553.7	63.3124	12,553.7	56.1645	12,553.7	53.6193	12,553.7	54.3428	12,553.7	51.7897	12,553.7	49.4725	12,553.7	53.8696	12,553.7	42.5691	12,553.7	62.1675	12,553.7	40.1456	12,553.7	57.4424	12,553.7	44.6077	12,553.7	47.7874	12,553.7	45.9027	12,553.7	39.6406	12,553.7	42.902	12,553.7	41.4728	12,553.7	41.7185	12,553.7	45.8402	12,553.7	39.808	12,553.7	40.5247	12,553.7	56.4596	12,553.7	50.0637	12,553.7	56.957
12,996.1	85.854	12,996.1	83.9325	12,996.1	83.9749	12,996.1	75.4899	12,996.1	75.786	12,996.1	58.2319	12,996.1	63.2463	12,996.1	67.8736	12,996.1	68.837	12,996.1	65.7294	12,996.1	65.1021	12,996.1	58.75	12,996.1	53.3207	12,996.1	49.5506	12,996.1	43.1747	12,996.1	48.5975	12,996.1	46.9243	12,996.1	34.6187	12,996.1	56.93	12,996.1	35.1027	12,996.1	63.4648	12,996.1	33.6406	12,996.1	58.7657	12,996.1	36.3119	12,996.1	49.226	12,996.1	42.5499	12,996.1	39.366	12,996.1	36.113	12,996.1	33.6661	12,996.1	42.9422	12,996.1	38.4522	12,996.1	35.1184	12,996.1	43.5987	12,996.1	55.6253	12,996.1	45.8172	12,996.1	56.4738
13,454.6	85.682	13,454.6	83.5742	13,454.6	83.4976	13,454.6	73.8246	13,454.6	74.1189	13,454.6	64.3399	13,454.6	65.7775	13,454.6	67.916	13,454.6	67.8297	13,454.6	63.8157	13,454.6	60.7039	13,454.6	52.9255	13,454.6	50.1508	13,454.6	44.0039	13,454.6	49.0196	13,454.6	34.9304	13,454.6	52.9489	13,454.6	45.0196	13,454.6	57.5513	13,454.6	32.6256	13,454.6	64.2501	13,454.6	26.1849	13,454.6	60.6666	13,454.6	33.8794	13,454.6	49.8352	13,454.6	43.3327	13,454.6	42.6619	13,454.6	35.7589	13,454.6	39.7735	13,454.6	41.6172	13,454.6	41.3981	13,454.6	39.7205	13,454.6	43.5639	13,454.6	54.7062	13,454.6	39.6222	13,454.6	56.7207
13,929.2	85.4781	13,929.2	83.2858	13,929.2	82.8674	13,929.2	72.8479	13,929.2	72.913	13,929.2	66.172	13,929.2	65.8096	13,929.2	67.8517	13,929.2	65.5881	13,929.2	61.7067	13,929.2	61.9766	13,929.2	47.9547	13,929.2	55.9623	13,929.2	44.7737	13,929.2	49.0159	13,929.2	40.7726	13,929.2	50.4864	13,929.2	48.6881	13,929.2	57.7772	13,929.2	38.1483	13,929.2	65.2757	13,929.2	32.0132	13,929.2	62.3781	13,929.2	35.8816	13,929.2	50.3241	13,929.2	42.9577	13,929.2	39.6685	13,929.2	39.606	13,929.2	39.1482	13,929.2	42.7688	13,929.2	44.297	13,929.2	38.9438	13,929.2	42.4	13,929.2	54.5052	13,929.2	39.1257	13,929.2	56.4149
14,419.9	85.4209	14,419.9	83.0598	14,419.9	82.4428	14,419.9	71.9128	14,419.9	70.9306	14,419.9	66.3978	14,419.9	65.9507	14,419.9	67.6485	14,419.9	65.6101	14,419.9	60.1386	14,419.9	62.6968	14,419.9	51.5995	14,419.9	57.8004	14,419.9	50.3257	14,419.9	43.7086	14,419.9	40.81	14,419.9	49.5164	14,419.9	48.4175	14,419.9	58.6611	14,419.9	39.3199	14,419.9	66.4747	14,419.9	28.2402	14,419.9	63.2235	14,419.9	27.3068	14,419.9	52.1754	14,419.9	40.3431	14,419.9	43.0992	14,419.9	38.2558	14,419.9	38.7441	14,419.9	42.5226	14,419.9	41.7733	14,419.9	34.9798	14,419.9	45.9121	14,419.9	54.9236	14,419.9	33.0299	14,419.9	57.0855
14,928.2	85.5818	14,928.2	82.8269	14,928.2	82.12	14,928.2	71.219	14,928.2	70.491	14,928.2	65.8891	14,928.2	66.3047	14,928.2	67.438	14,928.2	67.5658	14,928.2	60.2143	14,928.2	62.9542	14,928.2	52.5956	14,928.2	56.3814	14,928.2	50.6413	14,928.2	48.4987	14,928.2	42.4298	14,928.2	51.1517	14,928.2	46.0017	14,928.2	59.6509	14,928.2	33.7714	14,928.2	67.3575	14,928.2	11.0274	14,928.2	64.1996	14,928.2	31.3353	14,928.2	52.2738	14,928.2	35.369	14,928.2	42.042	14,928.2	37.8517	14,928.2	42.1982	14,928.2	42.2408	14,928.2	44.4201	14,928.2	41.0086	14,928.2	45.6368	14,928.2	55.0594	14,928.2	38.1237	14,928.2	56.7187
15,455.6	85.6652	15,455.6	82.5403	15,455.6	82.0394	15,455.6	70.4002	15,455.6	69.8402	15,455.6	66.7559	15,455.6	67.1569	15,455.6	67.5305	15,455.6	68.6331	15,455.6	58.9859	15,455.6	60.1404	15,455.6	52.5861	15,455.6	56.3859	15,455.6	50.2194	15,455.6	53.6291	15,455.6	46.1958	15,455.6	47.5038	15,455.6	45.9177	15,455.6	60.8339	15,455.6	27.4863	15,455.6	67.7288	15,455.6	27.4158	15,455.6	64.6857	15,455.6	39.6317	15,455.6	51.9791	15,455.6	27.1626	15,455.6	41.6082	15,455.6	35.4784	15,455.6	42.5079	15,455.6	41.9328	15,455.6	40.8778	15,455.6	43.6199	15,455.6	47.1854	15,455.6	55.3016	15,455.6	40.1882	15,455.6	55.9236
16,000.5	85.5501	16,000.5	82.1422	16,000.5	81.7849	16,000.5	68.2944	16,000.5	67.7307	16,000.5	68.3512	16,000.5	68.3124	16,000.5	67.147	16,000.5	67.5053	16,000.5	55.3251	16,000.5	59.7709	16,000.5	56.6244	16,000.5	56.5365	16,000.5	52.0103	16,000.5	53.4396	16,000.5	46.344	16,000.5	47.4672	16,000.5	40.096	16,000.5	60.0685	16,000.5	30.7273	16,000.5	67.8347	16,000.5	31.6177	16,000.5	64.7519	16,000.5	40.2619	16,000.5	53.0793	16,000.5	25.6951	16,000.5	31.2849	16,000.5	33.379	16,000.5	39.9298	16,000.5	40.0725	16,000.5	40.8185	16,000.5	43.6048	16,000.5	46.4346	16,000.5	54.9848	16,000.5	42.3748	16,000.5	55.4678
16,564.5	85.1841	16,564.5	81.5686	16,564.5	81.1994	16,564.5	66.1001	16,564.5	67.5708	16,564.5	69.6515	16,564.5	68.7371	16,564.5	67.2465	16,564.5	66.0451	16,564.5	55.3866	16,564.5	58.2353	16,564.5	59.4978	16,564.5	56.1145	16,564.5	51.8073	16,564.5	54.4043	16,564.5	48.3352	16,564.5	44.8103	16,564.5	35.2805	16,564.5	58.9255	16,564.5	34.4076	16,564.5	67.4049	16,564.5	33.2566	16,564.5	64.7297	16,564.5	42.5332	16,564.5	53.6017	16,564.5	26.5067	16,564.5	31.1101	16,564.5	34.2062	16,564.5	39.3433	16,564.5	43.4308	16,564.5	40.3493	16,564.5	44.8462	16,564.5	46.9812	16,564.5	54.0405	16,564.5	41.44	16,564.5	54.4658
17,148.9	84.4666	17,148.9	80.8797	17,148.9	80.4249	17,148.9	63.0833	17,148.9	65.827	17,148.9	70.3927	17,148.9	68.8677	17,148.9	66.8175	17,148.9	66.1332	17,148.9	56.3917	17,148.9	50.1647	17,148.9	59.6018	17,148.9	57.1054	17,148.9	49.4846	17,148.9	59.3494	17,148.9	47.983	17,148.9	42.7512	17,148.9	40.8649	17,148.9	58.6881	17,148.9	39.834	17,148.9	66.7032	17,148.9	34.2614	17,148.9	63.9846	17,148.9	44.1153	17,148.9	51.6813	17,148.9	33.7034	17,148.9	27.6019	17,148.9	37.6415	17,148.9	35.9687	17,148.9	43.4044	17,148.9	37.8835	17,148.9	45.9345	17,148.9	45.55	17,148.9	53.3899	17,148.9	42.2144	17,148.9	53.4691
17,752.4	83.8055	17,752.4	80.0237	17,752.4	79.789	17,752.4	57.1482	17,752.4	60.4466	17,752.4	70.4267	17,752.4	69.0701	17,752.4	64.7247	17,752.4	64.3987	17,752.4	58.6581	17,752.4	54.5744	17,752.4	58.7842	17,752.4	53.3614	17,752.4	50.2756	17,752.4	58.3827	17,752.4	49.0016	17,752.4	44.3543	17,752.4	39.8942	17,752.4	57.2758	17,752.4	39.0209	17,752.4	66.1776	17,752.4	36.9604	17,752.4	63.1495	17,752.4	44.5049	17,752.4	50.326	17,752.4	34.9307	17,752.4	37.0497	17,752.4	31.1547	17,752.4	26.1624	17,752.4	42.3922	17,752.4	34.2187	17,752.4	45.203	17,752.4	41.8703	17,752.4	51.7479	17,752.4	41.0235	17,752.4	52.1871
18,379.4	83.3091	18,379.4	79.3495	18,379.4	78.9188	18,379.4	38.1987	18,379.4	50.9654	18,379.4	70.2763	18,379.4	68.8503	18,379.4	59.7523	18,379.4	59.3784	18,379.4	58.7261	18,379.4	54.8054	18,379.4	58.0805	18,379.4	56.3358	18,379.4	48.0237	18,379.4	54.3128	18,379.4	43.2248	18,379.4	43.6539	18,379.4	39.028	18,379.4	56.2623	18,379.4	29.893	18,379.4	65.516	18,379.4	33.4123	18,379.4	62.7175	18,379.4	42.0819	18,379.4	49.7224	18,379.4	34.2143	18,379.4	37.5904	18,379.4	31.2558	18,379.4	39.0785	18,379.4	36.1335	18,379.4	24.2533	18,379.4	43.6588	18,379.4	42.9876	18,379.4	50.5903	18,379.4	39.037	18,379.4	51.0887
19,026.9	83.2856	19,026.9	78.8446	19,026.9	78.6378	19,026.9	57.9481	19,026.9	53.9712	19,026.9	69.6644	19,026.9	68.0775	19,026.9	50.5394	19,026.9	52.3363	19,026.9	59.7861	19,026.9	56.8135	19,026.9	56.1915	19,026.9	53.5645	19,026.9	41.0719	19,026.9	49.0979	19,026.9	35.9731	19,026.9	33.96	19,026.9	24.9813	19,026.9	54.4317	19,026.9	32.0569	19,026.9	65.6194	19,026.9	31.1867	19,026.9	63.1228	19,026.9	37.9245	19,026.9	49.9173	19,026.9	30.8053	19,026.9	35.9518	19,026.9	35.0719	19,026.9	37.5121	19,026.9	29.3831	19,026.9	14.9849	19,026.9	41.2092	19,026.9	43.1011	19,026.9	49.4478	19,026.9	37.9414	19,026.9	50.9041
19,697.8	83.6804	19,697.8	78.8001	19,697.8	78.6461	19,697.8	63.3053	19,697.8	59.6807	19,697.8	68.6133	19,697.8	67.1409	19,697.8	49.5083	19,697.8	42.8766	19,697.8	59.1235	19,697.8	53.74	19,697.8	47.7836	19,697.8	45.5928	19,697.8	46.3022	19,697.8	44.1534	19,697.8	45.4645	19,697.8	39.4802	19,697.8	41.7548	19,697.8	53.2767	19,697.8	32.3439	19,697.8	65.6813	19,697.8	20.834	19,697.8	63.3536	19,697.8	35.6437	19,697.8	50.4203	19,697.8	23.1672	19,697.8	34.2934	19,697.8	34.7953	19,697.8	39.2261	19,697.8	25.3041	19,697.8	23.0527	19,697.8	40.1176	19,697.8	43.0817	19,697.8	48.8568	19,697.8	35.6272	19,697.8	50.858
19,999.5	83.926	19,999.5	78.645	19,999.5	78.7768	19,999.5	65.239	19,999.5	62.309	19,999.5	67.8181	19,999.5	67.4055	19,999.5	52.1376	19,999.5	52.4371	19,999.5	59.059	19,999.5	50.7093	19,999.5	31.6703	19,999.5	42.6015	19,999.5	50.2945	19,999.5	45.768	19,999.5	48.5277	19,999.5	45.9437	19,999.5	37.4714	19,999.5	54.187	19,999.5	43.5437	19,999.5	66.1557	19,999.5	39.5762	19,999.5	64.1428	19,999.5	46.0933	19,999.5	50.4906	19,999.5	49.2767	19,999.5	44.5251	19,999.5	46.9758	19,999.5	45.4415	19,999.5	49.251	19,999.5	44.1307	19,999.5	45.8955	19,999.5	49.2178	19,999.5	50.8887	19,999.5	45.0871	19,999.5	54.3223
