"SPL Horizontal"
"On-Axis"		"10°"		"-10°"		"20°"		"-20°"		"30°"		"-30°"		"40°"		"-40°"		"50°"		"-50°"		"60°"		"-60°"		"70°"		"-70°"		"80°"		"-80°"		"90°"		"-90°"		"100°"		"-100°"		"110°"		"-110°"		"120°"		"-120°"		"130°"		"-130°"		"140°"		"-140°"		"150°"		"-150°"		"160°"		"-160°"		"170°"		"-170°"		"180°"
"Frequency [Hz]"	"Sound Pessure Level [dB]  / [2.83V 1m] "	"Frequency [Hz]"	"Sound Pessure Level [dB]  / [2.83V 1m] "	"Frequency [Hz]"	"Sound Pessure Level [dB]  / [2.83V 1m] "	"Frequency [Hz]"	"Sound Pessure Level [dB]  / [2.83V 1m] "	"Frequency [Hz]"	"Sound Pessure Level [dB]  / [2.83V 1m] "	"Frequency [Hz]"	"Sound Pessure Level [dB]  / [2.83V 1m] "	"Frequency [Hz]"	"Sound Pessure Level [dB]  / [2.83V 1m] "	"Frequency [Hz]"	"Sound Pessure Level [dB]  / [2.83V 1m] "	"Frequency [Hz]"	"Sound Pessure Level [dB]  / [2.83V 1m] "	"Frequency [Hz]"	"Sound Pessure Level [dB]  / [2.83V 1m] "	"Frequency [Hz]"	"Sound Pessure Level [dB]  / [2.83V 1m] "	"Frequency [Hz]"	"Sound Pessure Level [dB]  / [2.83V 1m] "	"Frequency [Hz]"	"Sound Pessure Level [dB]  / [2.83V 1m] "	"Frequency [Hz]"	"Sound Pessure Level [dB]  / [2.83V 1m] "	"Frequency [Hz]"	"Sound Pessure Level [dB]  / [2.83V 1m] "	"Frequency [Hz]"	"Sound Pessure Level [dB]  / [2.83V 1m] "	"Frequency [Hz]"	"Sound Pessure Level [dB]  / [2.83V 1m] "	"Frequency [Hz]"	"Sound Pessure Level [dB]  / [2.83V 1m] "	"Frequency [Hz]"	"Sound Pessure Level [dB]  / [2.83V 1m] "	"Frequency [Hz]"	"Sound Pessure Level [dB]  / [2.83V 1m] "	"Frequency [Hz]"	"Sound Pessure Level [dB]  / [2.83V 1m] "	"Frequency [Hz]"	"Sound Pessure Level [dB]  / [2.83V 1m] "	"Frequency [Hz]"	"Sound Pessure Level [dB]  / [2.83V 1m] "	"Frequency [Hz]"	"Sound Pessure Level [dB]  / [2.83V 1m] "	"Frequency [Hz]"	"Sound Pessure Level [dB]  / [2.83V 1m] "	"Frequency [Hz]"	"Sound Pessure Level [dB]  / [2.83V 1m] "	"Frequency [Hz]"	"Sound Pessure Level [dB]  / [2.83V 1m] "	"Frequency [Hz]"	"Sound Pessure Level [dB]  / [2.83V 1m] "	"Frequency [Hz]"	"Sound Pessure Level [dB]  / [2.83V 1m] "	"Frequency [Hz]"	"Sound Pessure Level [dB]  / [2.83V 1m] "	"Frequency [Hz]"	"Sound Pessure Level [dB]  / [2.83V 1m] "	"Frequency [Hz]"	"Sound Pessure Level [dB]  / [2.83V 1m] "	"Frequency [Hz]"	"Sound Pessure Level [dB]  / [2.83V 1m] "	"Frequency [Hz]"	"Sound Pessure Level [dB]  / [2.83V 1m] "	"Frequency [Hz]"	"Sound Pessure Level [dB]  / [2.83V 1m] "	"Frequency [Hz]"	"Sound Pessure Level [dB]  / [2.83V 1m] "
20.5078	45.2352	20.5078	45.1996	20.5078	45.3146	20.5078	45.2026	20.5078	45.4389	20.5078	45.2381	20.5078	45.6015	20.5078	45.3022	20.5078	45.787	20.5078	45.3938	20.5078	45.9722	20.5078	45.5154	20.5078	46.1302	20.5078	45.6704	20.5078	46.2362	20.5078	45.8615	20.5078	46.2726	20.5078	46.0874	20.5078	46.2332	20.5078	46.3413	20.5078	46.1261	20.5078	46.6103	20.5078	45.9789	20.5078	46.8745	20.5078	45.8412	20.5078	47.109	20.5078	45.7773	20.5078	47.2854	20.5078	45.8411	20.5078	47.3769	20.5078	46.045	20.5078	47.3632	20.5078	46.3509	20.5078	47.236	20.5078	46.6921	20.5078	47.0032
21.9727	45.9905	21.9727	45.8396	21.9727	46.1735	21.9727	45.7215	21.9727	46.3857	21.9727	45.6356	21.9727	46.6215	21.9727	45.5806	21.9727	46.8729	21.9727	45.5555	21.9727	47.1302	21.9727	45.56	21.9727	47.3835	21.9727	45.5956	21.9727	47.624	21.9727	45.6651	21.9727	47.8443	21.9727	45.7721	21.9727	48.0399	21.9727	45.9189	21.9727	48.208	21.9727	46.1041	21.9727	48.3465	21.9727	46.3219	21.9727	48.451	21.9727	46.5631	21.9727	48.5129	21.9727	46.8188	21.9727	48.5199	21.9727	47.0827	21.9727	48.4603	21.9727	47.3524	21.9727	48.3291	21.9727	47.625	21.9727	48.1335	21.9727	47.8913
23.4375	52.5968	23.4375	52.6505	23.4375	52.546	23.4375	52.706	23.4375	52.4993	23.4375	52.7616	23.4375	52.4578	23.4375	52.8151	23.4375	52.4225	23.4375	52.8642	23.4375	52.3944	23.4375	52.9062	23.4375	52.3751	23.4375	52.9392	23.4375	52.367	23.4375	52.9623	23.4375	52.3735	23.4375	52.976	23.4375	52.3983	23.4375	52.9826	23.4375	52.4441	23.4375	52.9854	23.4375	52.5109	23.4375	52.9881	23.4375	52.5951	23.4375	52.9939	23.4375	52.6897	23.4375	53.004	23.4375	52.7856	23.4375	53.0172	23.4375	52.8732	23.4375	53.0291	23.4375	52.9447	23.4375	53.0336	23.4375	52.9953	23.4375	53.0241
24.9023	50.2642	24.9023	50.392	24.9023	50.1619	24.9023	50.5429	24.9023	50.0882	24.9023	50.7158	24.9023	50.0465	24.9023	50.9105	24.9023	50.0393	24.9023	51.1271	24.9023	50.067	24.9023	51.3657	24.9023	50.1284	24.9023	51.6258	24.9023	50.2219	24.9023	51.9058	24.9023	50.3478	24.9023	52.203	24.9023	50.5091	24.9023	52.5127	24.9023	50.7113	24.9023	52.8262	24.9023	50.9597	24.9023	53.129	24.9023	51.2563	24.9023	53.3995	24.9023	51.5982	24.9023	53.6106	24.9023	51.976	24.9023	53.7349	24.9023	52.3739	24.9023	53.751	24.9023	52.7696	24.9023	53.6499	24.9023	53.1347	24.9023	53.4378
26.3672	49.7215	26.3672	49.7686	26.3672	49.6742	26.3672	49.8171	26.3672	49.6249	26.3672	49.8674	26.3672	49.5711	26.3672	49.9188	26.3672	49.5105	26.3672	49.97	26.3672	49.4423	26.3672	50.0187	26.3672	49.3674	26.3672	50.0625	26.3672	49.2901	26.3672	50.0987	26.3672	49.2173	26.3672	50.1246	26.3672	49.1574	26.3672	50.1378	26.3672	49.1181	26.3672	50.1361	26.3672	49.1041	26.3672	50.1183	26.3672	49.1169	26.3672	50.0841	26.3672	49.1555	26.3672	50.0329	26.3672	49.218	26.3672	49.9634	26.3672	49.3022	26.3672	49.8743	26.3672	49.4053	26.3672	49.7668	26.3672	49.5226	26.3672	49.6464
27.832	54.0029	27.832	54.0117	27.832	53.9842	27.832	54.0083	27.832	53.9576	27.832	53.991	27.832	53.9247	27.832	53.9589	27.832	53.8862	27.832	53.9122	27.832	53.8417	27.832	53.8517	27.832	53.7902	27.832	53.7787	27.832	53.731	27.832	53.6946	27.832	53.6636	27.832	53.601	27.832	53.5883	27.832	53.4998	27.832	53.506	27.832	53.3938	27.832	53.418	27.832	53.2873	27.832	53.3262	27.832	53.1856	27.832	53.2336	27.832	53.095	27.832	53.1448	27.832	53.0211	27.832	53.0652	27.832	52.9681	27.832	53.0006	27.832	52.9389	27.832	52.9559	27.832	52.9348
29.2969	55.209	29.2969	55.2143	29.2969	55.1978	29.2969	55.215	29.2969	55.1791	29.2969	55.2122	29.2969	55.1515	29.2969	55.2073	29.2969	55.1135	29.2969	55.2012	29.2969	55.0642	29.2969	55.1951	29.2969	55.0035	29.2969	55.1896	29.2969	54.9322	29.2969	55.1843	29.2969	54.853	29.2969	55.1777	29.2969	54.7697	29.2969	55.1672	29.2969	54.6874	29.2969	55.1491	29.2969	54.6116	29.2969	55.1196	29.2969	54.548	29.2969	55.0755	29.2969	54.5022	29.2969	55.0148	29.2969	54.4793	29.2969	54.9377	29.2969	54.4833	29.2969	54.8476	29.2969	54.5158	29.2969	54.7508	29.2969	54.5755	29.2969	54.6567
30.7617	57.5518	30.7617	57.5721	30.7617	57.5204	30.7617	57.5797	30.7617	57.4792	30.7617	57.5734	30.7617	57.4292	30.7617	57.5517	30.7617	57.3713	30.7617	57.5138	30.7617	57.3061	30.7617	57.4594	30.7617	57.2339	30.7617	57.3883	30.7617	57.155	30.7617	57.3012	30.7617	57.0693	30.7617	57.1993	30.7617	56.9772	30.7617	57.0847	30.7617	56.8798	30.7617	56.961	30.7617	56.7796	30.7617	56.8329	30.7617	56.6805	30.7617	56.7068	30.7617	56.5874	30.7617	56.5904	30.7617	56.5054	30.7617	56.4916	30.7617	56.4382	30.7617	56.4169	30.7617	56.3885	30.7617	56.3701	30.7617	56.3587	30.7617	56.3515
32.2266	59.7839	32.2266	59.7731	32.2266	59.7867	32.2266	59.7545	32.2266	59.781	32.2266	59.7278	32.2266	59.7663	32.2266	59.693	32.2266	59.7415	32.2266	59.65	32.2266	59.7058	32.2266	59.5991	32.2266	59.6585	32.2266	59.5407	32.2266	59.5995	32.2266	59.4757	32.2266	59.5297	32.2266	59.4052	32.2266	59.4508	32.2266	59.331	32.2266	59.3651	32.2266	59.2551	32.2266	59.2757	32.2266	59.1802	32.2266	59.1863	32.2266	59.1089	32.2266	59.1016	32.2266	59.0441	32.2266	59.0265	32.2266	58.988	32.2266	58.9657	32.2266	58.943	32.2266	58.9227	32.2266	58.9116	32.2266	58.8996	32.2266	58.8964
33.6914	61.4359	33.6914	61.4192	33.6914	61.4486	33.6914	61.3981	33.6914	61.4571	33.6914	61.3725	33.6914	61.461	33.6914	61.3422	33.6914	61.4594	33.6914	61.3073	33.6914	61.4513	33.6914	61.2685	33.6914	61.4357	33.6914	61.2264	33.6914	61.4119	33.6914	61.1822	33.6914	61.3795	33.6914	61.1368	33.6914	61.3388	33.6914	61.0915	33.6914	61.2906	33.6914	61.0472	33.6914	61.2364	33.6914	61.0055	33.6914	61.1783	33.6914	60.968	33.6914	61.119	33.6914	60.9366	33.6914	61.062	33.6914	60.9134	33.6914	61.0102	33.6914	60.9003	33.6914	60.9662	33.6914	60.8987	33.6914	60.9322	33.6914	60.9094
35.1562	62.6911	35.1562	62.6814	35.1562	62.6957	35.1562	62.6667	35.1562	62.6952	35.1562	62.6468	35.1562	62.6894	35.1562	62.6215	35.1562	62.6776	35.1562	62.5911	35.1562	62.659	35.1562	62.5556	35.1562	62.633	35.1562	62.5157	35.1562	62.5991	35.1562	62.472	35.1562	62.557	35.1562	62.4255	35.1562	62.5074	35.1562	62.3773	35.1562	62.4512	35.1562	62.3285	35.1562	62.3903	35.1562	62.2805	35.1562	62.3274	35.1562	62.2346	35.1562	62.2661	35.1562	62.1926	35.1562	62.2103	35.1562	62.1563	35.1562	62.1638	35.1562	62.128	35.1562	62.1297	35.1562	62.1096	35.1562	62.1093	35.1562	62.1029
36.6211	64.351	36.6211	64.3401	36.6211	64.3549	36.6211	64.3219	36.6211	64.3522	36.6211	64.2959	36.6211	64.3432	36.6211	64.2617	36.6211	64.3275	36.6211	64.2192	36.6211	64.305	36.6211	64.1686	36.6211	64.2751	36.6211	64.1106	36.6211	64.2374	36.6211	64.0461	36.6211	64.1915	36.6211	63.9766	36.6211	64.1374	36.6211	63.9044	36.6211	64.0756	36.6211	63.8322	36.6211	64.0076	36.6211	63.7633	36.6211	63.9355	36.6211	63.7015	36.6211	63.8626	36.6211	63.6505	36.6211	63.7926	36.6211	63.6136	36.6211	63.7288	36.6211	63.5929	36.6211	63.6744	36.6211	63.5894	36.6211	63.6317	36.6211	63.6028
38.0859	65.7749	38.0859	65.7694	38.0859	65.7734	38.0859	65.7568	38.0859	65.7651	38.0859	65.7369	38.0859	65.75	38.0859	65.7096	38.0859	65.7279	38.0859	65.6748	38.0859	65.6984	38.0859	65.6326	38.0859	65.6613	38.0859	65.5832	38.0859	65.6162	38.0859	65.5271	38.0859	65.5629	38.0859	65.4655	38.0859	65.5014	38.0859	65.3997	38.0859	65.4325	38.0859	65.3318	38.0859	65.358	38.0859	65.2642	38.0859	65.2811	38.0859	65.1996	38.0859	65.2063	38.0859	65.1405	38.0859	65.1386	38.0859	65.0896	38.0859	65.0826	38.0859	65.0496	38.0859	65.0418	38.0859	65.0231	38.0859	65.0181	38.0859	65.012
39.5508	67.1697	39.5508	67.1525	39.5508	67.1808	39.5508	67.1294	39.5508	67.1855	39.5508	67.1006	39.5508	67.183	39.5508	67.0659	39.5508	67.1727	39.5508	67.0255	39.5508	67.1536	39.5508	66.9794	39.5508	67.1251	39.5508	66.9281	39.5508	67.0869	39.5508	66.8722	39.5508	67.0392	39.5508	66.8129	39.5508	66.9823	39.5508	66.752	39.5508	66.9174	39.5508	66.6921	39.5508	66.8467	39.5508	66.6357	39.5508	66.7734	39.5508	66.5857	39.5508	66.7018	39.5508	66.5441	39.5508	66.6362	39.5508	66.5126	39.5508	66.5803	39.5508	66.4922	39.5508	66.5364	39.5508	66.4839	39.5508	66.5056	39.5508	66.4882
41.0156	67.6311	41.0156	67.627	41.0156	67.6311	41.0156	67.6192	41.0156	67.6269	41.0156	67.6082	41.0156	67.6179	41.0156	67.5947	41.0156	67.6032	41.0156	67.5798	41.0156	67.5821	41.0156	67.5646	41.0156	67.5533	41.0156	67.5498	41.0156	67.5161	41.0156	67.5348	41.0156	67.47	41.0156	67.5173	41.0156	67.415	41.0156	67.4932	41.0156	67.3523	41.0156	67.4575	41.0156	67.2841	41.0156	67.4062	41.0156	67.214	41.0156	67.3388	41.0156	67.1465	41.0156	67.2596	41.0156	67.0864	41.0156	67.1769	41.0156	67.0381	41.0156	67.1014	41.0156	67.0062	41.0156	67.0424	41.0156	66.9944	41.0156	67.0061
42.4805	69.798	42.4805	69.7846	42.4805	69.8041	42.4805	69.7644	42.4805	69.8027	42.4805	69.7382	42.4805	69.7939	42.4805	69.7069	42.4805	69.7777	42.4805	69.672	42.4805	69.7546	42.4805	69.6352	42.4805	69.7252	42.4805	69.5987	42.4805	69.6899	42.4805	69.5646	42.4805	69.6499	42.4805	69.5346	42.4805	69.6063	42.4805	69.5095	42.4805	69.5611	42.4805	69.4889	42.4805	69.5164	42.4805	69.4713	42.4805	69.4746	42.4805	69.4549	42.4805	69.4381	42.4805	69.4381	42.4805	69.4087	42.4805	69.4206	42.4805	69.3876	42.4805	69.4033	42.4805	69.3755	42.4805	69.388	42.4805	69.3722	42.4805	69.3769
43.9453	70.4541	43.9453	70.4487	43.9453	70.4527	43.9453	70.4366	43.9453	70.4446	43.9453	70.418	43.9453	70.4302	43.9453	70.3936	43.9453	70.4099	43.9453	70.3643	43.9453	70.3841	43.9453	70.3312	43.9453	70.3534	43.9453	70.2956	43.9453	70.3183	43.9453	70.2587	43.9453	70.2796	43.9453	70.2217	43.9453	70.2382	43.9453	70.1853	43.9453	70.1952	43.9453	70.15	43.9453	70.1521	43.9453	70.1161	43.9453	70.1104	43.9453	70.0836	43.9453	70.0718	43.9453	70.0532	43.9453	70.0378	43.9453	70.026	43.9453	70.0102	43.9453	70.0034	43.9453	69.9904	43.9453	69.9871	43.9453	69.9798	43.9453	69.9788
45.4102	71.4224	45.4102	71.4187	45.4102	71.4185	45.4102	71.4072	45.4102	71.4073	45.4102	71.3883	45.4102	71.3897	45.4102	71.3626	45.4102	71.3663	45.4102	71.3314	45.4102	71.338	45.4102	71.2961	45.4102	71.3053	45.4102	71.2583	45.4102	71.2689	45.4102	71.2194	45.4102	71.2293	45.4102	71.1804	45.4102	71.1871	45.4102	71.1419	45.4102	71.1432	45.4102	71.1043	45.4102	71.0986	45.4102	71.0676	45.4102	71.0547	45.4102	71.032	45.4102	71.0132	45.4102	70.998	45.4102	70.976	45.4102	70.9668	45.4102	70.9453	45.4102	70.9403	45.4102	70.9233	45.4102	70.921	45.4102	70.9115	45.4102	70.9109
46.875	72.3013	46.875	72.3067	46.875	72.2891	46.875	72.3051	46.875	72.2706	46.875	72.2968	46.875	72.2465	46.875	72.2823	46.875	72.2177	46.875	72.2627	46.875	72.1851	46.875	72.239	46.875	72.1499	46.875	72.2122	46.875	72.1132	46.875	72.1833	46.875	72.0759	46.875	72.153	46.875	72.039	46.875	72.1217	46.875	72.0034	46.875	72.0897	46.875	71.97	46.875	72.0574	46.875	71.9396	46.875	72.0249	46.875	71.9135	46.875	71.9927	46.875	71.8927	46.875	71.9614	46.875	71.8789	46.875	71.9325	46.875	71.8732	46.875	71.9074	46.875	71.8763	46.875	71.8881
48.3398	73.1429	48.3398	73.1431	48.3398	73.1356	48.3398	73.1362	48.3398	73.1216	48.3398	73.1223	48.3398	73.1015	48.3398	73.1018	48.3398	73.076	48.3398	73.0755	48.3398	73.046	48.3398	73.0443	48.3398	73.0125	48.3398	73.0096	48.3398	72.9769	48.3398	72.9728	48.3398	72.9402	48.3398	72.9352	48.3398	72.9038	48.3398	72.8982	48.3398	72.8688	48.3398	72.8628	48.3398	72.8362	48.3398	72.8301	48.3398	72.8068	48.3398	72.8007	48.3398	72.781	48.3398	72.7752	48.3398	72.7594	48.3398	72.7543	48.3398	72.7424	48.3398	72.7385	48.3398	72.7305	48.3398	72.728	48.3398	72.724	48.3398	72.7231
51.2695	74.9226	51.2695	74.923	51.2695	74.9135	51.2695	74.9148	51.2695	74.896	51.2695	74.8981	51.2695	74.8704	51.2695	74.8735	51.2695	74.8375	51.2695	74.8418	51.2695	74.7982	51.2695	74.8036	51.2695	74.7535	51.2695	74.7603	51.2695	74.7047	51.2695	74.713	51.2695	74.6532	51.2695	74.6632	51.2695	74.6006	51.2695	74.6125	51.2695	74.5486	51.2695	74.5623	51.2695	74.4991	51.2695	74.5144	51.2695	74.4539	51.2695	74.4701	51.2695	74.4148	51.2695	74.4308	51.2695	74.3831	51.2695	74.3977	51.2695	74.3598	51.2695	74.3714	51.2695	74.3451	51.2695	74.3526	51.2695	74.3391	51.2695	74.3417
52.7344	75.5097	52.7344	75.5101	52.7344	75.4998	52.7344	75.5011	52.7344	75.4807	52.7344	75.483	52.7344	75.4529	52.7344	75.4562	52.7344	75.4174	52.7344	75.4216	52.7344	75.3751	52.7344	75.3803	52.7344	75.3274	52.7344	75.3335	52.7344	75.2757	52.7344	75.2826	52.7344	75.2214	52.7344	75.229	52.7344	75.1663	52.7344	75.1744	52.7344	75.1119	52.7344	75.1202	52.7344	75.0599	52.7344	75.0678	52.7344	75.0116	52.7344	75.0188	52.7344	74.9688	52.7344	74.9747	52.7344	74.9326	52.7344	74.937	52.7344	74.9043	52.7344	74.9071	52.7344	74.8849	52.7344	74.8864	52.7344	74.8751	52.7344	74.8756
54.1992	76.0756	54.1992	76.0775	54.1992	76.0652	54.1992	76.0709	54.1992	76.0467	54.1992	76.0558	54.1992	76.0208	54.1992	76.0327	54.1992	75.9881	54.1992	76.002	54.1992	75.9497	54.1992	75.9647	54.1992	75.9068	54.1992	75.9217	54.1992	75.8608	54.1992	75.8743	54.1992	75.813	54.1992	75.8241	54.1992	75.7649	54.1992	75.7726	54.1992	75.7177	54.1992	75.7217	54.1992	75.6729	54.1992	75.673	54.1992	75.6316	54.1992	75.6283	54.1992	75.5948	54.1992	75.589	54.1992	75.5635	54.1992	75.5566	54.1992	75.5385	54.1992	75.5321	54.1992	75.5206	54.1992	75.516	54.1992	75.5106	54.1992	75.5089
55.6641	76.6223	55.6641	76.6204	55.6641	76.6152	55.6641	76.6095	55.6641	76.5993	55.6641	76.5902	55.6641	76.575	55.6641	76.5629	55.6641	76.5431	55.6641	76.5284	55.6641	76.5046	55.6641	76.4878	55.6641	76.4606	55.6641	76.4423	55.6641	76.4127	55.6641	76.3931	55.6641	76.3624	55.6641	76.342	55.6641	76.3114	55.6641	76.2904	55.6641	76.2612	55.6641	76.2401	55.6641	76.2134	55.6641	76.1928	55.6641	76.1694	55.6641	76.1498	55.6641	76.1302	55.6641	76.1125	55.6641	76.097	55.6641	76.082	55.6641	76.0706	55.6641	76.0591	55.6641	76.0517	55.6641	76.0445	55.6641	76.0408	55.6641	76.0383
58.5938	77.4793	58.5938	77.4738	58.5938	77.4756	58.5938	77.4592	58.5938	77.4628	58.5938	77.4361	58.5938	77.4414	58.5938	77.4052	58.5938	77.4122	58.5938	77.3674	58.5938	77.376	58.5938	77.3238	58.5938	77.3343	58.5938	77.2759	58.5938	77.2886	58.5938	77.225	58.5938	77.2403	58.5938	77.1729	58.5938	77.1912	58.5938	77.1212	58.5938	77.1427	58.5938	77.0718	58.5938	77.0962	58.5938	77.0264	58.5938	77.0528	58.5938	76.9866	58.5938	77.0136	58.5938	76.9537	58.5938	76.9793	58.5938	76.9286	58.5938	76.9507	58.5938	76.9121	58.5938	76.9283	58.5938	76.9041	58.5938	76.9127	58.5938	76.9045
60.0586	77.8428	60.0586	77.8409	60.0586	77.835	60.0586	77.8294	60.0586	77.8177	60.0586	77.8088	60.0586	77.7915	60.0586	77.7798	60.0586	77.7573	60.0586	77.7435	60.0586	77.7163	60.0586	77.7011	60.0586	77.6701	60.0586	77.6543	60.0586	77.6204	60.0586	77.6046	60.0586	77.5689	60.0586	77.5537	60.0586	77.5177	60.0586	77.5034	60.0586	77.4685	60.0586	77.4554	60.0586	77.4228	60.0586	77.4111	60.0586	77.3821	60.0586	77.3718	60.0586	77.3474	60.0586	77.3385	60.0586	77.3191	60.0586	77.3119	60.0586	77.2976	60.0586	77.2921	60.0586	77.2829	60.0586	77.2795	60.0586	77.275	60.0586	77.2738
62.9883	78.5708	62.9883	78.5657	62.9883	78.5658	62.9883	78.5506	62.9883	78.5508	62.9883	78.5263	62.9883	78.5265	62.9883	78.4934	62.9883	78.4936	62.9883	78.4533	62.9883	78.4534	62.9883	78.4073	62.9883	78.4073	62.9883	78.357	62.9883	78.3572	62.9883	78.3041	62.9883	78.3046	62.9883	78.2504	62.9883	78.2514	62.9883	78.1974	62.9883	78.1992	62.9883	78.1469	62.9883	78.1497	62.9883	78.1004	62.9883	78.1042	62.9883	78.0592	62.9883	78.0638	62.9883	78.0245	62.9883	78.0295	62.9883	77.9971	62.9883	78.0018	62.9883	77.9776	62.9883	77.9813	62.9883	77.9663	62.9883	77.9683	62.9883	77.9633
64.4531	78.8413	64.4531	78.8356	64.4531	78.8371	64.4531	78.8202	64.4531	78.8231	64.4531	78.7955	64.4531	78.8	64.4531	78.7626	64.4531	78.7685	64.4531	78.7224	64.4531	78.7299	64.4531	78.6764	64.4531	78.6856	64.4531	78.6262	64.4531	78.6372	64.4531	78.5735	64.4531	78.5863	64.4531	78.52	64.4531	78.5348	64.4531	78.4676	64.4531	78.4842	64.4531	78.4179	64.4531	78.4361	64.4531	78.3726	64.4531	78.3917	64.4531	78.333	64.4531	78.3521	64.4531	78.3003	64.4531	78.318	64.4531	78.2751	64.4531	78.2902	64.4531	78.258	64.4531	78.269	64.4531	78.249	64.4531	78.2548	64.4531	78.248
67.3828	79.2971	67.3828	79.2906	67.3828	79.2931	67.3828	79.2736	67.3828	79.2786	67.3828	79.2469	67.3828	79.2544	67.3828	79.2115	67.3828	79.2216	67.3828	79.1688	67.3828	79.1816	67.3828	79.1207	67.3828	79.1361	67.3828	79.0689	67.3828	79.0869	67.3828	79.0154	67.3828	79.036	67.3828	78.9623	67.3828	78.9853	67.3828	78.9114	67.3828	78.9362	67.3828	78.8643	67.3828	78.8904	67.3828	78.8225	67.3828	78.8488	67.3828	78.787	67.3828	78.8123	67.3828	78.7586	67.3828	78.7814	67.3828	78.7375	67.3828	78.7563	67.3828	78.7238	67.3828	78.7373	67.3828	78.7173	67.3828	78.7243	67.3828	78.7176
68.8477	79.5446	68.8477	79.5397	68.8477	79.5383	68.8477	79.5238	68.8477	79.521	68.8477	79.4974	68.8477	79.4935	68.8477	79.4616	68.8477	79.4567	68.8477	79.4177	68.8477	79.4123	68.8477	79.3674	68.8477	79.362	68.8477	79.3125	68.8477	79.3078	68.8477	79.2552	68.8477	79.2518	68.8477	79.1975	68.8477	79.1962	68.8477	79.1415	68.8477	79.1427	68.8477	79.0892	68.8477	79.0931	68.8477	79.0424	68.8477	79.0487	68.8477	79.0021	68.8477	79.0103	68.8477	78.9694	68.8477	78.9783	68.8477	78.9446	68.8477	78.953	68.8477	78.9277	68.8477	78.9343	68.8477	78.9186	68.8477	78.9223	68.8477	78.9169
71.7773	80.0719	71.7773	80.0633	71.7773	80.0687	71.7773	80.0432	71.7773	80.0541	71.7773	80.0122	71.7773	80.0284	71.7773	79.9715	71.7773	79.9929	71.7773	79.9225	71.7773	79.9489	71.7773	79.8668	71.7773	79.8981	71.7773	79.8068	71.7773	79.8426	71.7773	79.7446	71.7773	79.7844	71.7773	79.6827	71.7773	79.7257	71.7773	79.6235	71.7773	79.6684	71.7773	79.5692	71.7773	79.6144	71.7773	79.5215	71.7773	79.5651	71.7773	79.4816	71.7773	79.5216	71.7773	79.4502	71.7773	79.4848	71.7773	79.4273	71.7773	79.4549	71.7773	79.4129	71.7773	79.432	71.7773	79.4065	71.7773	79.4163	71.7773	79.4077
74.707	80.5461	74.707	80.5383	74.707	80.5423	74.707	80.5191	74.707	80.527	74.707	80.4893	74.707	80.501	74.707	80.4498	74.707	80.4652	74.707	80.4023	74.707	80.4212	74.707	80.3485	74.707	80.3706	74.707	80.2904	74.707	80.3155	74.707	80.2303	74.707	80.2581	74.707	80.1705	74.707	80.2004	74.707	80.1132	74.707	80.1444	74.707	80.0605	74.707	80.0919	74.707	80.0138	74.707	80.0444	74.707	79.9745	74.707	80.0029	74.707	79.9432	74.707	79.968	74.707	79.9201	74.707	79.94	74.707	79.905	74.707	79.9189	74.707	79.8977	74.707	79.9048	74.707	79.8977
77.6367	80.8531	77.6367	80.8483	77.6367	80.8462	77.6367	80.8319	77.6367	80.828	77.6367	80.8047	77.6367	80.7991	77.6367	80.7676	77.6367	80.7611	77.6367	80.7222	77.6367	80.7153	77.6367	80.6704	77.6367	80.664	77.6367	80.6142	77.6367	80.6091	77.6367	80.556	77.6367	80.5529	77.6367	80.4981	77.6367	80.4975	77.6367	80.4426	77.6367	80.4449	77.6367	80.3916	77.6367	80.3965	77.6367	80.3464	77.6367	80.3535	77.6367	80.3082	77.6367	80.3166	77.6367	80.2775	77.6367	80.2861	77.6367	80.2543	77.6367	80.2621	77.6367	80.2386	77.6367	80.2445	77.6367	80.23	77.6367	80.2332	77.6367	80.2283
79.1016	81.0169	79.1016	81.0134	79.1016	81.0081	79.1016	80.9978	79.1016	80.9875	79.1016	80.9706	79.1016	80.9561	79.1016	80.9331	79.1016	80.9152	79.1016	80.8867	79.1016	80.8667	79.1016	80.8335	79.1016	80.8128	79.1016	80.7757	79.1016	80.7557	79.1016	80.7157	79.1016	80.6978	79.1016	80.6561	79.1016	80.6413	79.1016	80.5991	79.1016	80.5884	79.1016	80.547	79.1016	80.5405	79.1016	80.5012	79.1016	80.4987	79.1016	80.4628	79.1016	80.4635	79.1016	80.4322	79.1016	80.4352	79.1016	80.4096	79.1016	80.4133	79.1016	80.3943	79.1016	80.3977	79.1016	80.386	79.1016	80.3879	79.1016	80.384
82.0312	81.5244	82.0312	81.5231	82.0312	81.5125	82.0312	81.5088	82.0312	81.4881	82.0312	81.482	82.0312	81.452	82.0312	81.444	82.0312	81.4059	82.0312	81.3964	82.0312	81.3517	82.0312	81.3416	82.0312	81.2917	82.0312	81.2819	82.0312	81.2285	82.0312	81.2202	82.0312	81.1647	82.0312	81.159	82.0312	81.1031	82.0312	81.1008	82.0312	81.0459	82.0312	81.0475	82.0312	80.9951	82.0312	81.0004	82.0312	80.952	82.0312	80.9602	82.0312	80.9173	82.0312	80.9272	82.0312	80.8912	82.0312	80.9011	82.0312	80.8731	82.0312	80.8815	82.0312	80.8624	82.0312	80.868	82.0312	80.8583	82.0312	80.8603
84.9609	81.8821	84.9609	81.8805	84.9609	81.8709	84.9609	81.8662	84.9609	81.8471	84.9609	81.84	84.9609	81.8115	84.9609	81.8031	84.9609	81.7657	84.9609	81.7571	84.9609	81.7113	84.9609	81.7042	84.9609	81.6506	84.9609	81.6463	84.9609	81.5861	84.9609	81.586	84.9609	81.5206	84.9609	81.5256	84.9609	81.4566	84.9609	81.4673	84.9609	81.3969	84.9609	81.4132	84.9609	81.3435	84.9609	81.3646	84.9609	81.2982	84.9609	81.3225	84.9609	81.2618	84.9609	81.2871	84.9609	81.2348	84.9609	81.2583	84.9609	81.2166	84.9609	81.2358	84.9609	81.2068	84.9609	81.2193	84.9609	81.2044	84.9609	81.2087
87.8906	82.0899	87.8906	82.0764	87.8906	82.0913	87.8906	82.0511	87.8906	82.0808	87.8906	82.0149	87.8906	82.0591	87.8906	81.9694	87.8906	82.0277	87.8906	81.9167	87.8906	81.988	87.8906	81.8594	87.8906	81.9421	87.8906	81.8006	87.8906	81.8924	87.8906	81.7432	87.8906	81.8411	87.8906	81.6901	87.8906	81.7908	87.8906	81.6437	87.8906	81.7435	87.8906	81.6055	87.8906	81.7008	87.8906	81.5764	87.8906	81.6639	87.8906	81.5563	87.8906	81.633	87.8906	81.5442	87.8906	81.6079	87.8906	81.5388	87.8906	81.5879	87.8906	81.5387	87.8906	81.572	87.8906	81.5426	87.8906	81.5594	87.8906	81.5497
90.8203	82.673	90.8203	82.6603	90.8203	82.6727	90.8203	82.6348	90.8203	82.6599	90.8203	82.5974	90.8203	82.6356	90.8203	82.5497	90.8203	82.6015	90.8203	82.4938	90.8203	82.5595	90.8203	82.4325	90.8203	82.5119	90.8203	82.3691	90.8203	82.4613	90.8203	82.3068	90.8203	82.4101	90.8203	82.2488	90.8203	82.3607	90.8203	82.1979	90.8203	82.315	90.8203	82.1561	90.8203	82.2743	90.8203	82.1247	90.8203	82.2393	90.8203	82.1039	90.8203	82.2099	90.8203	82.0931	90.8203	82.1854	90.8203	82.0908	90.8203	82.1648	90.8203	82.0952	90.8203	82.147	90.8203	82.1044	90.8203	82.1311	90.8203	82.1168
95.2148	83.1848	95.2148	83.1845	95.2148	83.1701	95.2148	83.1693	95.2148	83.141	95.2148	83.1404	95.2148	83.0987	95.2148	83.0993	95.2148	83.0454	95.2148	83.048	95.2148	82.984	95.2148	82.9892	95.2148	82.9179	95.2148	82.9256	95.2148	82.851	95.2148	82.8603	95.2148	82.787	95.2148	82.7963	95.2148	82.7292	95.2148	82.7364	95.2148	82.6803	95.2148	82.683	95.2148	82.6415	95.2148	82.638	95.2148	82.6128	95.2148	82.6025	95.2148	82.593	95.2148	82.5771	95.2148	82.5799	95.2148	82.5611	95.2148	82.5711	95.2148	82.5534	95.2148	82.5645	95.2148	82.5519	95.2148	82.559	95.2148	82.5544
98.1445	83.497	98.1445	83.499	98.1445	83.4798	98.1445	83.4858	98.1445	83.4477	98.1445	83.4584	98.1445	83.4022	98.1445	83.4185	98.1445	83.3454	98.1445	83.3682	98.1445	83.28	98.1445	83.3105	98.1445	83.2095	98.1445	83.2485	98.1445	83.1377	98.1445	83.1854	98.1445	83.0687	98.1445	83.1244	98.1445	83.0063	98.1445	83.0685	98.1445	82.9538	98.1445	83.0196	98.1445	82.9134	98.1445	82.9792	98.1445	82.8859	98.1445	82.9477	98.1445	82.8704	98.1445	82.9246	98.1445	82.865	98.1445	82.9088	98.1445	82.8665	98.1445	82.8983	98.1445	82.8718	98.1445	82.891	98.1445	82.8784	98.1445	82.8848
101.074	83.8864	101.074	83.8912	101.074	83.8634	101.074	83.878	101.074	83.8228	101.074	83.8478	101.074	83.7661	101.074	83.8026	101.074	83.6958	101.074	83.7448	101.074	83.615	101.074	83.6775	101.074	83.5276	101.074	83.6041	101.074	83.4381	101.074	83.5279	101.074	83.3513	101.074	83.4526	101.074	83.2716	101.074	83.381	101.074	83.2031	101.074	83.3159	101.074	83.1487	101.074	83.2591	101.074	83.1096	101.074	83.2117	101.074	83.0854	101.074	83.174	101.074	83.0741	101.074	83.1453	101.074	83.0727	101.074	83.1243	101.074	83.0776	101.074	83.1087	101.074	83.0861	101.074	83.0964
105.469	84.3863	105.469	84.3821	105.469	84.3739	105.469	84.3619	105.469	84.3448	105.469	84.3273	105.469	84.3002	105.469	84.2803	105.469	84.2416	105.469	84.2237	105.469	84.1716	105.469	84.1606	105.469	84.0932	105.469	84.0941	105.469	84.0101	105.469	84.0274	105.469	83.9267	105.469	83.963	105.469	83.8471	105.469	83.9031	105.469	83.7758	105.469	83.8492	105.469	83.7162	105.469	83.802	105.469	83.6709	105.469	83.7617	105.469	83.6405	105.469	83.728	105.469	83.6243	105.469	83.7006	105.469	83.6197	105.469	83.6784	105.469	83.6235	105.469	83.6603	105.469	83.6327	105.469	83.6452
108.398	84.7657	108.398	84.7598	108.398	84.7543	108.398	84.7375	108.398	84.726	108.398	84.7001	108.398	84.6814	108.398	84.6497	108.398	84.6223	108.398	84.5889	108.398	84.5511	108.398	84.5209	108.398	84.4708	108.398	84.4491	108.398	84.385	108.398	84.3768	108.398	84.2979	108.398	84.307	108.398	84.2139	108.398	84.242	108.398	84.1371	108.398	84.1836	108.398	84.0712	108.398	84.1325	108.398	84.0188	108.398	84.0888	108.398	83.981	108.398	84.0522	108.398	83.9575	108.398	84.0219	108.398	83.9464	108.398	83.9973	108.398	83.9451	108.398	83.9775	108.398	83.951	108.398	83.9621
112.793	85.2366	112.793	85.2333	112.793	85.223	112.793	85.2134	112.793	85.1925	112.793	85.1783	112.793	85.1462	112.793	85.1297	112.793	85.0856	112.793	85.0703	112.793	85.0135	112.793	85.0029	112.793	84.9331	112.793	84.9311	112.793	84.8484	112.793	84.8587	112.793	84.7639	112.793	84.789	112.793	84.684	112.793	84.7251	112.793	84.6128	112.793	84.669	112.793	84.5537	112.793	84.6215	112.793	84.5088	112.793	84.5825	112.793	84.4784	112.793	84.5513	112.793	84.4615	112.793	84.5264	112.793	84.4557	112.793	84.5066	112.793	84.4581	112.793	84.4903	112.793	84.4658	112.793	84.4768
117.188	85.7577	117.188	85.7491	117.188	85.7479	117.188	85.7235	117.188	85.7193	117.188	85.6828	117.188	85.6722	117.188	85.6293	117.188	85.608	117.188	85.5657	117.188	85.5292	117.188	85.4949	117.188	85.4394	117.188	85.4199	117.188	85.3433	117.188	85.3437	117.188	85.2461	117.188	85.2693	117.188	85.1535	117.188	85.1995	117.188	85.0711	117.188	85.1368	117.188	85.0034	117.188	85.0829	117.188	84.9533	117.188	85.0389	117.188	84.9215	117.188	85.0047	117.188	84.9063	117.188	84.9792	117.188	84.9042	117.188	84.9605	117.188	84.9105	117.188	84.9459	117.188	84.9211	117.188	84.9332
120.117	86.0349	120.117	86.0215	120.117	86.0294	120.117	85.9906	120.117	86.0047	120.117	85.9443	120.117	85.9613	120.117	85.8854	120.117	85.9008	120.117	85.8172	120.117	85.8258	120.117	85.743	120.117	85.7396	120.117	85.6663	120.117	85.6459	120.117	85.5899	120.117	85.5494	120.117	85.5161	120.117	85.4546	120.117	85.4468	120.117	85.3662	120.117	85.3833	120.117	85.2885	120.117	85.3264	120.117	85.2246	120.117	85.2768	120.117	85.1766	120.117	85.2348	120.117	85.1446	120.117	85.2002	120.117	85.1272	120.117	85.1727	120.117	85.1218	120.117	85.1514	120.117	85.1254	120.117	85.1356
124.512	86.4056	124.512	86.4026	124.512	86.3903	124.512	86.3816	124.512	86.3572	124.512	86.3441	124.512	86.3082	124.512	86.2926	124.512	86.2458	124.512	86.2303	124.512	86.1733	124.512	86.1612	124.512	86.0945	124.512	86.0896	124.512	86.0136	124.512	86.0195	124.512	85.9349	124.512	85.9545	124.512	85.8621	124.512	85.8972	124.512	85.7985	124.512	85.8488	124.512	85.7463	124.512	85.8092	124.512	85.7067	124.512	85.7775	124.512	85.6796	124.512	85.7519	124.512	85.6643	124.512	85.7309	124.512	85.6591	124.512	85.7129	124.512	85.662	124.512	85.6969	124.512	85.6705	124.512	85.6826
128.906	86.6966	128.906	86.6891	128.906	86.6833	128.906	86.6617	128.906	86.6495	128.906	86.6165	128.906	86.5967	128.906	86.5566	128.906	86.5276	128.906	86.4859	128.906	86.4458	128.906	86.409	128.906	86.3559	128.906	86.3305	128.906	86.2627	128.906	86.2549	128.906	86.1714	128.906	86.1859	128.906	86.0871	128.906	86.1261	128.906	86.0143	128.906	86.0769	128.906	85.9565	128.906	86.0383	128.906	85.9156	128.906	86.009	128.906	85.8917	128.906	85.9872	128.906	85.883	128.906	85.9703	128.906	85.8863	128.906	85.9559	128.906	85.8973	128.906	85.9421	128.906	85.912	128.906	85.9275
133.301	87.0333	133.301	87.0371	133.301	87.0073	133.301	87.0193	133.301	86.9598	133.301	86.9815	133.301	86.8927	133.301	86.9262	133.301	86.8091	133.301	86.8573	133.301	86.7132	133.301	86.7791	133.301	86.6101	133.301	86.6965	133.301	86.5054	133.301	86.6143	133.301	86.405	133.301	86.5371	133.301	86.3143	133.301	86.468	133.301	86.2376	133.301	86.409	133.301	86.1783	133.301	86.3603	133.301	86.1379	133.301	86.3206	133.301	86.116	133.301	86.2879	133.301	86.1107	133.301	86.2597	133.301	86.1187	133.301	86.2339	133.301	86.136	133.301	86.2087	133.301	86.1586	133.301	86.1835
139.16	87.2578	139.16	87.2553	139.16	87.2388	139.16	87.2318	139.16	87.1987	139.16	87.1894	139.16	87.1393	139.16	87.131	139.16	87.0635	139.16	87.0608	139.16	86.9752	139.16	86.9837	139.16	86.8795	139.16	86.9049	139.16	86.7821	139.16	86.8297	139.16	86.689	139.16	86.7624	139.16	86.6061	139.16	86.7061	139.16	86.5381	139.16	86.6619	139.16	86.4884	139.16	86.6296	139.16	86.4581	139.16	86.607	139.16	86.4461	139.16	86.5911	139.16	86.4496	139.16	86.5784	139.16	86.4644	139.16	86.5656	139.16	86.4858	139.16	86.5504	139.16	86.5093	139.16	86.5315
143.555	87.5199	143.555	87.5202	143.555	87.495	143.555	87.4963	143.555	87.4466	143.555	87.4502	143.555	87.377	143.555	87.3852	143.555	87.2899	143.555	87.3058	143.555	87.1901	143.555	87.2178	143.555	87.0832	143.555	87.1275	143.555	86.9755	143.555	87.0413	143.555	86.8734	143.555	86.9644	143.555	86.7832	143.555	86.9009	143.555	86.7101	143.555	86.8524	143.555	86.6577	143.555	86.8181	143.555	86.6273	143.555	86.7955	143.555	86.6178	143.555	86.7807	143.555	86.6256	143.555	86.7696	143.555	86.6455	143.555	86.7581	143.555	86.6719	143.555	86.7434	143.555	86.6992	143.555	86.7238
147.949	87.7145	147.949	87.7113	147.949	87.6903	147.949	87.6814	147.949	87.6395	147.949	87.6272	147.949	87.5644	147.949	87.5526	147.949	87.4691	147.949	87.4626	147.949	87.3591	147.949	87.3634	147.949	87.241	147.949	87.2619	147.949	87.122	147.949	87.1647	147.949	87.0095	147.949	87.0777	147.949	86.9102	147.949	87.0052	147.949	86.8296	147.949	86.9491	147.949	86.771	147.949	86.9092	147.949	86.7358	147.949	86.8829	147.949	86.7227	147.949	86.8666	147.949	86.7279	147.949	86.8559	147.949	86.746	147.949	86.8464	147.949	86.7706	147.949	86.8346	147.949	86.796	147.949	86.818
153.809	87.8218	153.809	87.8156	153.809	87.8015	153.809	87.7847	153.809	87.7541	153.809	87.7319	153.809	87.6803	153.809	87.661	153.809	87.5828	153.809	87.5763	153.809	87.4658	153.809	87.4832	153.809	87.3358	153.809	87.3873	153.809	87.2008	153.809	87.2945	153.809	87.0699	153.809	87.2099	153.809	86.9524	153.809	87.1373	153.809	86.8562	153.809	87.0784	153.809	86.7869	153.809	87.033	153.809	86.7465	153.809	86.9987	153.809	86.7334	153.809	86.9722	153.809	86.743	153.809	86.9497	153.809	86.7686	153.809	86.9276	153.809	86.803	153.809	86.9028	153.809	86.8394	153.809	86.8735
159.668	87.9568	159.668	87.9498	159.668	87.9375	159.668	87.9178	159.668	87.892	159.668	87.864	159.668	87.822	159.668	87.7926	159.668	87.731	159.668	87.7093	159.668	87.6237	159.668	87.6203	159.668	87.5061	159.668	87.5323	159.668	87.3849	159.668	87.4517	159.668	87.2674	159.668	87.3835	159.668	87.1609	159.668	87.3309	159.668	87.0722	159.668	87.2939	159.668	87.0065	159.668	87.2701	159.668	86.9675	159.668	87.2547	159.668	86.9555	159.668	87.242	159.668	86.9683	159.668	87.2269	159.668	87.0002	159.668	87.2055	159.668	87.0439	159.668	87.1756	159.668	87.0917	159.668	87.137
165.527	88.0626	165.527	88.0522	165.527	88.0418	165.527	88.012	165.527	87.9911	165.527	87.9451	165.527	87.9132	165.527	87.8566	165.527	87.8133	165.527	87.7533	165.527	87.6979	165.527	87.6433	165.527	87.5749	165.527	87.5354	165.527	87.4526	165.527	87.4382	165.527	87.339	165.527	87.3586	165.527	87.2411	165.527	87.3012	165.527	87.1639	165.527	87.2667	165.527	87.1104	165.527	87.2523	165.527	87.0812	165.527	87.2519	165.527	87.075	165.527	87.2578	165.527	87.0883	165.527	87.2626	165.527	87.1163	165.527	87.2603	165.527	87.1526	165.527	87.2475	165.527	87.1904	165.527	87.2235
171.387	88.0729	171.387	88.0531	171.387	88.0601	171.387	88.0022	171.387	88.0148	171.387	87.9236	171.387	87.939	171.387	87.8219	171.387	87.837	171.387	87.7037	171.387	87.7149	171.387	87.5772	171.387	87.5812	171.387	87.452	171.387	87.4454	171.387	87.338	171.387	87.3177	171.387	87.2445	171.387	87.207	171.387	87.1778	171.387	87.1202	171.387	87.1399	171.387	87.0607	171.387	87.1279	171.387	87.0286	171.387	87.1346	171.387	87.0212	171.387	87.1504	171.387	87.0336	171.387	87.1658	171.387	87.0597	171.387	87.1736	171.387	87.0927	171.387	87.1696	171.387	87.1258	171.387	87.153
177.246	87.97	177.246	87.9579	177.246	87.9492	177.246	87.9137	177.246	87.8962	177.246	87.84	177.246	87.8135	177.246	87.7412	177.246	87.7055	177.246	87.6238	177.246	87.5785	177.246	87.4962	177.246	87.441	177.246	87.3685	177.246	87.3029	177.246	87.2515	177.246	87.1746	177.246	87.1552	177.246	87.0659	177.246	87.0865	177.246	86.984	177.246	87.0481	177.246	86.9327	177.246	87.0374	177.246	86.9116	177.246	87.0474	177.246	86.9167	177.246	87.0681	177.246	86.9419	177.246	87.0894	177.246	86.9793	177.246	87.103	177.246	87.0211	177.246	87.1033	177.246	87.0595	177.246	87.0884
183.105	87.8996	183.105	87.8985	183.105	87.8638	183.105	87.8614	183.105	87.7923	183.105	87.7909	183.105	87.688	183.105	87.6916	183.105	87.5563	183.105	87.5701	183.105	87.4048	183.105	87.435	183.105	87.2435	183.105	87.2969	183.105	87.0846	183.105	87.1672	183.105	86.941	183.105	87.0573	183.105	86.8247	183.105	86.9762	183.105	86.7448	183.105	86.9288	183.105	86.7057	183.105	86.9141	183.105	86.7058	183.105	86.9257	183.105	86.7387	183.105	86.9533	183.105	86.794	183.105	86.9849	183.105	86.8595	183.105	87.0096	183.105	86.9231	183.105	87.0189	183.105	86.9748	183.105	87.0077
188.965	87.8146	188.965	87.8139	188.965	87.7789	188.965	87.7779	188.965	87.7068	188.965	87.7094	188.965	87.6003	188.965	87.6129	188.965	87.4629	188.965	87.4951	188.965	87.3006	188.965	87.3647	188.965	87.1222	188.965	87.2319	188.965	86.939	188.965	87.1077	188.965	86.7646	188.965	87.0022	188.965	86.6133	188.965	86.9225	188.965	86.4976	188.965	86.8717	188.965	86.4263	188.965	86.8474	188.965	86.4024	188.965	86.8427	188.965	86.4225	188.965	86.8477	188.965	86.4774	188.965	86.852	188.965	86.5543	188.965	86.8464	188.965	86.6387	188.965	86.824	188.965	86.7176	188.965	86.781
196.289	87.8515	196.289	87.8348	196.289	87.8267	196.289	87.7784	196.289	87.7606	196.289	87.6859	196.289	87.6559	196.289	87.5632	196.289	87.5173	196.289	87.418	196.289	87.3525	196.289	87.2609	196.289	87.1718	196.289	87.1043	196.289	86.9878	196.289	86.9618	196.289	86.8147	196.289	86.8461	196.289	86.6662	196.289	86.7662	196.289	86.5538	196.289	86.7249	196.289	86.4841	196.289	86.7178	196.289	86.4582	196.289	86.7348	196.289	86.4715	196.289	86.7622	196.289	86.5152	196.289	86.7871	196.289	86.5777	196.289	86.7988	196.289	86.6467	196.289	86.7908	196.289	86.7108	196.289	86.7609
203.613	87.6836	203.613	87.6587	203.613	87.6647	203.613	87.5918	203.613	87.6022	203.613	87.4867	203.613	87.4984	203.613	87.3499	203.613	87.3575	203.613	87.1902	203.613	87.1861	203.613	87.0185	203.613	86.9932	203.613	86.8474	203.613	86.7907	203.613	86.6902	203.613	86.5928	203.613	86.5596	203.613	86.4147	203.613	86.4647	203.613	86.2707	203.613	86.4093	203.613	86.1712	203.613	86.3902	203.613	86.1211	203.613	86.3981	203.613	86.1182	203.613	86.4198	203.613	86.1542	203.613	86.4417	203.613	86.2159	203.613	86.4522	203.613	86.2885	203.613	86.4432	203.613	86.3574	203.613	86.4112
210.938	87.462	210.938	87.4273	210.938	87.4518	210.938	87.349	210.938	87.3974	210.938	87.2303	210.938	87.3015	210.938	87.0769	210.938	87.1689	210.938	86.8972	210.938	87.0073	210.938	86.7027	210.938	86.8265	210.938	86.5076	210.938	86.6386	210.938	86.3272	210.938	86.4568	210.938	86.1766	210.938	86.2938	210.938	86.0666	210.938	86.1602	210.938	86.0023	210.938	86.0632	210.938	85.9807	210.938	86.0051	210.938	85.9925	210.938	85.9837	210.938	86.024	210.938	85.992	210.938	86.0613	210.938	86.0201	210.938	86.0926	210.938	86.0561	210.938	86.1095	210.938	86.0884	210.938	86.1079
218.262	87.2342	218.262	87.2138	218.262	87.2129	218.262	87.1525	218.262	87.1501	218.262	87.0526	218.262	87.0479	218.262	86.9177	218.262	86.9104	218.262	86.754	218.262	86.7453	218.262	86.5712	218.262	86.5635	218.262	86.3827	218.262	86.3797	218.262	86.2053	218.262	86.21	218.262	86.057	218.262	86.0699	218.262	85.953	218.262	85.9703	218.262	85.9013	218.262	85.9157	218.262	85.8994	218.262	85.9036	218.262	85.9354	218.262	85.9259	218.262	85.9921	218.262	85.9713	218.262	86.0522	218.262	86.0269	218.262	86.1019	218.262	86.08	218.262	86.1322	218.262	86.1197	218.262	86.1383
225.586	87.1517	225.586	87.1392	225.586	87.112	225.586	87.076	225.586	87.0209	225.586	86.9665	225.586	86.8813	225.586	86.8175	225.586	86.6991	225.586	86.6386	225.586	86.4836	225.586	86.4425	225.586	86.2482	225.586	86.244	225.586	86.0114	225.586	86.06	225.586	85.7955	225.586	85.9078	225.586	85.6233	225.586	85.8021	225.586	85.5127	225.586	85.7515	225.586	85.4719	225.586	85.7548	225.586	85.4964	225.586	85.8008	225.586	85.5716	225.586	85.8711	225.586	85.6774	225.586	85.9447	225.586	85.7925	225.586	86.0029	225.586	85.8978	225.586	86.0321	225.586	85.9784	225.586	86.0245
232.91	87.0373	232.91	87.0225	232.91	86.9951	232.91	86.9522	232.91	86.8965	232.91	86.8312	232.91	86.7447	232.91	86.6673	232.91	86.5453	232.91	86.4718	232.91	86.3064	232.91	86.2593	232.91	86.04	232.91	86.0466	232.91	85.7624	232.91	85.852	232.91	85.4951	232.91	85.6928	232.91	85.2629	232.91	85.5827	232.91	85.09	232.91	85.5283	232.91	84.9938	232.91	85.5265	232.91	84.9794	232.91	85.5646	232.91	85.0388	232.91	85.6228	232.91	85.1533	232.91	85.6793	232.91	85.2979	232.91	85.7142	232.91	85.4463	232.91	85.7127	232.91	85.5748	232.91	85.6664
241.699	86.8073	241.699	86.7692	241.699	86.7931	241.699	86.6811	241.699	86.725	241.699	86.5469	241.699	86.6033	241.699	86.3722	241.699	86.4311	241.699	86.1657	241.699	86.2148	241.699	85.9402	241.699	85.9647	241.699	85.7128	241.699	85.6956	241.699	85.5035	241.699	85.4268	241.699	85.332	241.699	85.1811	241.699	85.2126	241.699	84.9819	241.699	85.1508	241.699	84.8489	241.699	85.141	241.699	84.7917	241.699	85.169	241.699	84.8071	241.699	85.2162	241.699	84.8795	241.699	85.264	241.699	84.9855	241.699	85.2961	241.699	85.0995	241.699	85.3	241.699	85.1989	241.699	85.268
250.488	86.6712	250.488	86.6356	250.488	86.6444	250.488	86.5403	250.488	86.5548	250.488	86.3896	250.488	86.4045	250.488	86.19	250.488	86.1994	250.488	85.9508	250.488	85.9495	250.488	85.6853	250.488	85.6698	250.488	85.4125	250.488	85.3794	250.488	85.1571	250.488	85.1005	250.488	84.9464	250.488	84.8555	250.488	84.8035	250.488	84.6641	250.488	84.7382	250.488	84.5405	250.488	84.7418	250.488	84.4906	250.488	84.7904	250.488	84.5099	250.488	84.8557	250.488	84.5827	250.488	84.9143	250.488	84.685	250.488	84.9517	250.488	84.7907	250.488	84.9605	250.488	84.8787	250.488	84.9365
259.277	86.5155	259.277	86.4791	259.277	86.4921	259.277	86.3848	259.277	86.4087	259.277	86.2361	259.277	86.2675	259.277	86.0385	259.277	86.0734	259.277	85.7999	259.277	85.8351	259.277	85.5315	259.277	85.5653	259.277	85.249	259.277	85.2816	259.277	84.9742	259.277	85.0052	259.277	84.7354	259.277	84.7588	259.277	84.5631	259.277	84.5628	259.277	84.481	259.277	84.4316	259.277	84.4928	259.277	84.3715	259.277	84.5772	259.277	84.3809	259.277	84.6956	259.277	84.4497	259.277	84.8074	259.277	84.5592	259.277	84.8831	259.277	84.6841	259.277	84.9073	259.277	84.7974	259.277	84.8767
268.066	86.2861	268.066	86.2212	268.066	86.2823	268.066	86.0896	268.066	86.2099	268.066	85.8964	268.066	86.0705	268.066	85.6503	268.066	85.8681	268.066	85.3638	268.066	85.6097	268.066	85.0537	268.066	85.3076	268.066	84.7412	268.066	84.9809	268.066	84.4513	268.066	84.6559	268.066	84.2117	268.066	84.3626	268.066	84.0486	268.066	84.1285	268.066	83.979	268.066	83.9699	268.066	84.0028	268.066	83.8891	268.066	84.0983	268.066	83.8779	268.066	84.2268	268.066	83.9249	268.066	84.3448	268.066	84.0174	268.066	84.417	268.066	84.1387	268.066	84.4249	268.066	84.2652	268.066	84.3691
276.855	86.0735	276.855	86.0415	276.855	86.043	276.855	85.9434	276.855	85.9539	276.855	85.7787	276.855	85.8088	276.855	85.552	276.855	85.6092	276.855	85.2731	276.855	85.3577	276.855	84.9564	276.855	85.0627	276.855	84.6186	276.855	84.7435	276.855	84.2792	276.855	84.4322	276.855	83.962	276.855	84.1694	276.855	83.6965	276.855	83.9922	276.855	83.5144	276.855	83.9154	276.855	83.439	276.855	83.9224	276.855	83.472	276.855	83.9736	276.855	83.5876	276.855	84.0296	276.855	83.7406	276.855	84.0682	276.855	83.8854	276.855	84.0853	276.855	83.9927	276.855	84.0826	276.855	84.0555
287.109	85.8345	287.109	85.8002	287.109	85.8038	287.109	85.7019	287.109	85.7092	287.109	85.5421	287.109	85.5549	287.109	85.3263	287.109	85.3478	287.109	85.0647	287.109	85.0956	287.109	84.7745	287.109	84.8061	287.109	84.4781	287.109	84.4871	287.109	84.1985	287.109	84.15	287.109	83.9535	287.109	83.8153	287.109	83.7553	287.109	83.5183	287.109	83.6149	287.109	83.3061	287.109	83.545	287.109	83.2185	287.109	83.5558	287.109	83.2621	287.109	83.6421	287.109	83.4041	287.109	83.7757	287.109	83.5928	287.109	83.9098	287.109	83.7802	287.109	83.9966	287.109	83.9273	287.109	84.0047
297.363	85.8261	297.363	85.7745	297.363	85.8027	297.363	85.653	297.363	85.6983	297.363	85.4655	297.363	85.508	297.363	85.2162	297.363	85.2318	297.363	84.9127	297.363	84.8777	297.363	84.5706	297.363	84.4637	297.363	84.2183	297.363	84.018	297.363	83.8985	297.363	83.5777	297.363	83.6592	297.363	83.1825	297.363	83.5315	297.363	82.8654	297.363	83.5089	297.363	82.6505	297.363	83.551	297.363	82.5617	297.363	83.6122	297.363	82.6231	297.363	83.6686	297.363	82.8319	297.363	83.7214	297.363	83.1336	297.363	83.7743	297.363	83.439	297.363	83.8103	297.363	83.6692	297.363	83.7889
307.617	85.8428	307.617	85.8292	307.617	85.7755	307.617	85.7284	307.617	85.6389	307.617	85.5411	307.617	85.4455	307.617	85.274	307.617	85.2045	307.617	84.937	307.617	84.9213	307.617	84.5426	307.617	84.6009	307.617	84.1078	307.617	84.2539	307.617	83.6609	307.617	83.9015	307.617	83.2487	307.617	83.5761	307.617	82.9347	307.617	83.3123	307.617	82.7769	307.617	83.1321	307.617	82.7896	307.617	83.0354	307.617	82.9273	307.617	83.0082	307.617	83.1104	307.617	83.0366	307.617	83.269	307.617	83.1082	307.617	83.3664	307.617	83.2044	307.617	83.3966	307.617	83.2995	307.617	83.3696
319.336	85.497	319.336	85.4223	319.336	85.4999	319.336	85.284	319.336	85.4214	319.336	85.0852	319.336	85.2549	319.336	84.8247	319.336	85.0007	319.336	84.4996	319.336	84.6662	319.336	84.1109	319.336	84.2655	319.336	83.6704	319.336	83.8204	319.336	83.2065	319.336	83.3668	319.336	82.7682	319.336	82.9606	319.336	82.4223	319.336	82.6683	319.336	82.2359	319.336	82.536	319.336	82.2425	319.336	82.5559	319.336	82.4122	319.336	82.6721	319.336	82.6627	319.336	82.82	319.336	82.9048	319.336	82.9586	319.336	83.0813	319.336	83.0717	319.336	83.1743	319.336	83.1527	319.336	83.1922
329.59	85.3404	329.59	85.2671	329.59	85.3517	329.59	85.134	329.59	85.2934	329.59	84.9397	329.59	85.1556	329.59	84.6843	329.59	84.9318	329.59	84.3735	329.59	84.6238	329.59	84.0194	329.59	84.2428	329.59	83.6375	329.59	83.8072	329.59	83.2433	329.59	83.341	329.59	82.855	329.59	82.8772	329.59	82.4999	329.59	82.4627	329.59	82.2199	329.59	82.1534	329.59	82.0635	329.59	81.9899	329.59	82.0576	329.59	81.9703	329.59	82.1782	329.59	82.0528	329.59	82.354	329.59	82.1865	329.59	82.504	329.59	82.3335	329.59	82.5756	329.59	82.4663	329.59	82.5569
341.309	85.2826	341.309	85.2308	341.309	85.2243	341.309	85.0678	341.309	85.0642	341.309	84.8004	341.309	84.8148	341.309	84.4435	341.309	84.4898	341.309	84.0203	341.309	84.1021	341.309	83.5633	341.309	83.6652	341.309	83.1106	341.309	83.2005	341.309	82.6995	341.309	82.7438	341.309	82.3591	341.309	82.3457	341.309	82.1092	341.309	82.0609	341.309	81.9633	341.309	81.9272	341.309	81.93	341.309	81.9481	341.309	82.006	341.309	82.0905	341.309	82.1687	341.309	82.2989	341.309	82.3765	341.309	82.5143	341.309	82.5795	341.309	82.6892	341.309	82.733	341.309	82.7924	341.309	82.8079
353.027	85.1794	353.027	85.113	353.027	85.1635	353.027	84.9672	353.027	85.0613	353.027	84.7426	353.027	84.8708	353.027	84.437	353.027	84.5932	353.027	84.0497	353.027	84.2312	353.027	83.5888	353.027	83.787	353.027	83.0791	353.027	83.2622	353.027	82.5662	353.027	82.6671	353.027	82.111	353.027	82.0383	353.027	81.773	353.027	81.4563	353.027	81.5918	353.027	81.0358	353.027	81.5749	353.027	80.8717	353.027	81.6951	353.027	80.9724	353.027	81.8967	353.027	81.2554	353.027	82.1115	353.027	81.607	353.027	82.2787	353.027	81.9352	353.027	82.3577	353.027	82.1844	353.027	82.328
366.211	85.0454	366.211	84.968	366.211	85.0403	366.211	84.8064	366.211	84.9542	366.211	84.5604	366.211	84.7853	366.211	84.2314	366.211	84.5297	366.211	83.8201	366.211	84.1861	366.211	83.3289	366.211	83.762	366.211	82.7689	366.211	83.2762	366.211	82.1728	366.211	82.7553	366.211	81.6046	366.211	82.2286	366.211	81.1543	366.211	81.7281	366.211	80.9028	366.211	81.2982	366.211	80.8723	366.211	81.0014	366.211	81.0156	366.211	80.9003	366.211	81.2534	366.211	81.0113	366.211	81.514	366.211	81.2732	366.211	81.741	366.211	81.5738	366.211	81.8882	366.211	81.8086	366.211	81.9176
379.395	85.1917	379.395	85.1464	379.395	85.1585	379.395	85.0145	379.395	85.0504	379.395	84.7844	379.395	84.867	379.395	84.4438	379.395	84.6045	379.395	83.9866	379.395	84.2578	379.395	83.4216	379.395	83.8258	379.395	82.7796	379.395	83.3172	379.395	82.1157	379.395	82.758	379.395	81.5013	379.395	82.1981	379.395	81.0129	379.395	81.7127	379.395	80.7167	379.395	81.3812	379.395	80.6491	379.395	81.2442	379.395	80.7933	379.395	81.2774	379.395	81.0762	379.395	81.416	379.395	81.3981	379.395	81.595	379.395	81.6741	379.395	81.7646	379.395	81.8542	379.395	81.8847	379.395	81.9221
392.578	84.9528	392.578	84.886	392.578	84.9339	392.578	84.7362	392.578	84.8272	392.578	84.5062	392.578	84.6316	392.578	84.1986	392.578	84.3467	392.578	83.8149	392.578	83.9722	392.578	83.354	392.578	83.5087	392.578	82.8173	392.578	82.9633	392.578	82.2191	392.578	82.3564	392.578	81.599	392.578	81.7274	392.578	81.0276	392.578	81.138	392.578	80.5995	392.578	80.6723	392.578	80.4025	392.578	80.4164	392.578	80.462	392.578	80.4097	392.578	80.711	392.578	80.6086	392.578	81.0297	392.578	80.9119	392.578	81.3115	392.578	81.2145	392.578	81.4907	392.578	81.4379	392.578	81.5355
405.762	84.9318	405.762	84.8651	405.762	84.8914	405.762	84.6911	405.762	84.7457	405.762	84.4145	405.762	84.4962	405.762	84.045	405.762	84.1432	405.762	83.5925	405.762	83.6886	405.762	83.0634	405.762	83.1413	405.762	82.4637	405.762	82.5274	405.762	81.8178	405.762	81.8967	405.762	81.193	405.762	81.3152	405.762	80.6988	405.762	80.8415	405.762	80.4358	405.762	80.5124	405.762	80.4257	405.762	80.3545	405.762	80.6048	405.762	80.3862	405.762	80.8767	405.762	80.584	405.762	81.1532	405.762	80.8691	405.762	81.368	405.762	81.1495	405.762	81.4812	405.762	81.3628	405.762	81.4782
420.41	84.9761	420.41	84.904	420.41	84.9475	420.41	84.731	420.41	84.8282	420.41	84.4619	420.41	84.6347	420.41	84.1017	420.41	84.381	420.41	83.6528	420.41	84.0674	420.41	83.115	420.41	83.6734	420.41	82.486	420.41	83.1653	420.41	81.7672	420.41	82.5192	420.41	80.9869	420.41	81.7543	420.41	80.2338	420.41	80.9542	420.41	79.6597	420.41	80.2488	420.41	79.4058	420.41	79.7544	420.41	79.4946	420.41	79.5267	420.41	79.8181	420.41	79.5618	420.41	80.2192	420.41	79.8065	420.41	80.5572	420.41	80.1598	420.41	80.7353	420.41	80.4971	420.41	80.7107
435.059	84.6124	435.059	84.6025	435.059	84.5659	435.059	84.5348	435.059	84.4486	435.059	84.385	435.059	84.2441	435.059	84.1138	435.059	83.946	435.059	83.6859	435.059	83.5617	435.059	83.0905	435.059	83.1045	435.059	82.3527	435.059	82.5833	435.059	81.5279	435.059	82.0011	435.059	80.6888	435.059	81.3772	435.059	79.9222	435.059	80.7823	435.059	79.3339	435.059	80.3429	435.059	79.0363	435.059	80.169	435.059	79.0932	435.059	80.2611	435.059	79.4583	435.059	80.5134	435.059	79.9847	435.059	80.7991	435.059	80.503	435.059	81.0261	435.059	80.8929	435.059	81.1399	435.059	81.1043
451.172	85.07	451.172	85.025	451.172	85.0226	451.172	84.8865	451.172	84.8808	451.172	84.6536	451.172	84.6361	451.172	84.326	451.172	84.2754	451.172	83.9026	451.172	83.788	451.172	83.379	451.172	83.1721	451.172	82.7479	451.172	82.4384	451.172	82.0058	451.172	81.615	451.172	81.169	451.172	80.756	451.172	80.299	451.172	79.9501	451.172	79.5294	451.172	79.3159	451.172	79.0413	451.172	78.9676	451.172	78.9363	451.172	78.9562	451.172	79.1369	451.172	79.2224	451.172	79.472	451.172	79.6166	451.172	79.8092	451.172	79.9759	451.172	80.0748	451.172	80.1892	451.172	80.2164
465.82	84.5378	465.82	84.4383	465.82	84.5191	465.82	84.2321	465.82	84.3833	465.82	83.9384	465.82	84.1391	465.82	83.5726	465.82	83.7965	465.82	83.1363	465.82	83.363	465.82	82.6191	465.82	82.8435	465.82	82.0142	465.82	82.2378	465.82	81.3373	465.82	81.5406	465.82	80.642	465.82	80.7583	465.82	80.0172	465.82	79.9516	465.82	79.5603	465.82	79.2682	465.82	79.3392	465.82	78.8917	465.82	79.3729	465.82	78.9022	465.82	79.6198	465.82	79.2116	465.82	79.9738	465.82	79.6524	465.82	80.3018	465.82	80.076	465.82	80.5037	465.82	80.3861	465.82	80.5343
483.398	84.5478	483.398	84.5131	483.398	84.5245	483.398	84.4156	483.398	84.4414	483.398	84.244	483.398	84.2853	483.398	83.976	483.398	84.0288	483.398	83.5764	483.398	83.6347	483.398	83.0059	483.398	83.0696	483.398	82.2426	483.398	82.3265	483.398	81.3014	483.398	81.4362	483.398	80.2405	483.398	80.4576	483.398	79.1648	483.398	79.4647	483.398	78.2459	483.398	78.5819	483.398	77.7147	483.398	78.0196	483.398	77.7093	483.398	77.9384	483.398	78.1108	483.398	78.2431	483.398	78.651	483.398	78.6834	483.398	79.1137	483.398	79.0788	483.398	79.3941	483.398	79.3525	483.398	79.4678
499.512	84.4028	499.512	84.4131	499.512	84.3014	499.512	84.3143	499.512	84.1264	499.512	84.0965	499.512	83.8834	499.512	83.7599	499.512	83.5618	499.512	83.3088	499.512	83.1413	499.512	82.7396	499.512	82.6023	499.512	82.0333	499.512	81.9265	499.512	81.1754	499.512	81.1017	499.512	80.2019	499.512	80.1482	499.512	79.2358	499.512	79.1598	499.512	78.4585	499.512	78.3087	499.512	78.013	499.512	77.7751	499.512	77.9391	499.512	77.66	499.512	78.1855	499.512	77.9401	499.512	78.6272	499.512	78.4623	499.512	79.0981	499.512	79.0122	499.512	79.4456	499.512	79.4129	499.512	79.5653
517.09	84.0486	517.09	84.004	517.09	84.0121	517.09	83.8808	517.09	83.8916	517.09	83.6768	517.09	83.6911	517.09	83.3848	517.09	83.4192	517.09	82.9951	517.09	83.0713	517.09	82.4969	517.09	82.6185	517.09	81.8718	517.09	82.0235	517.09	81.09	517.09	81.2628	517.09	80.1406	517.09	80.3327	517.09	79.0986	517.09	79.2616	517.09	78.1634	517.09	78.1733	517.09	77.561	517.09	77.3369	517.09	77.3768	517.09	77.0194	517.09	77.5447	517.09	77.2227	517.09	77.9368	517.09	77.7211	517.09	78.3911	517.09	78.2706	517.09	78.7386	517.09	78.6867	517.09	78.854
536.133	83.3552	536.133	83.2934	536.133	83.3388	536.133	83.156	536.133	83.2431	536.133	82.948	536.133	83.0612	536.133	82.6701	536.133	82.7766	536.133	82.3108	536.133	82.3739	536.133	81.8464	536.133	81.849	536.133	81.2506	536.133	81.1927	536.133	80.4971	536.133	80.3697	536.133	79.5462	536.133	79.3441	536.133	78.364	536.133	78.1499	536.133	77.0568	536.133	76.9433	536.133	76.0823	536.133	76.0169	536.133	76.0071	536.133	75.7275	536.133	76.6539	536.133	76.1514	536.133	77.378	536.133	76.8966	536.133	77.8577	536.133	77.541	536.133	78.0783	536.133	77.9333	536.133	78.0985
555.176	82.7794	555.176	82.6905	555.176	82.7876	555.176	82.5214	555.176	82.7245	555.176	82.2822	555.176	82.6006	555.176	81.9712	555.176	82.418	555.176	81.5488	555.176	82.1585	555.176	80.9547	555.176	81.7794	555.176	80.1691	555.176	81.2349	555.176	79.2463	555.176	80.5045	555.176	78.2651	555.176	79.5892	555.176	77.2603	555.176	78.4924	555.176	76.2663	555.176	77.248	555.176	75.4308	555.176	75.9856	555.176	74.9856	555.176	74.9348	555.176	75.0418	555.176	74.3514	555.176	75.4594	555.176	74.404	555.176	75.9378	555.176	74.9653	555.176	76.2037	555.176	75.6458	555.176	76.1093
574.219	83.8499	574.219	83.7861	574.219	83.8486	574.219	83.681	574.219	83.7583	574.219	83.5331	574.219	83.5836	574.219	83.3371	574.219	83.3404	574.219	83.1014	574.219	83.0216	574.219	82.8049	574.219	82.5988	574.219	82.3453	574.219	82.0439	574.219	81.5919	574.219	81.33	574.219	80.5101	574.219	80.4397	574.219	79.2054	574.219	79.405	574.219	77.8181	574.219	78.3311	574.219	76.4332	574.219	77.3822	574.219	75.2699	574.219	76.7461	574.219	74.8081	574.219	76.5153	574.219	75.1727	574.219	76.5841	574.219	75.8838	574.219	76.766	574.219	76.5024	574.219	76.9024	574.219	76.847
594.727	87.4349	594.727	87.3709	594.727	87.4122	594.727	87.2144	594.727	87.3347	594.727	86.989	594.727	87.2229	594.727	86.7052	594.727	87.0634	594.727	86.3421	594.727	86.8157	594.727	85.8881	594.727	86.4306	594.727	85.3576	594.727	85.8746	594.727	84.7265	594.727	85.1498	594.727	83.9153	594.727	84.2781	594.727	82.9224	594.727	83.2673	594.727	81.9447	594.727	82.1286	594.727	81.2533	594.727	80.9689	594.727	80.9602	594.727	80.1046	594.727	81.048	594.727	79.9477	594.727	81.4281	594.727	80.4954	594.727	81.8869	594.727	81.2776	594.727	82.1923	594.727	81.8996	594.727	82.2112
615.234	86.8058	615.234	86.8039	615.234	86.7215	615.234	86.6966	615.234	86.5787	615.234	86.4995	615.234	86.3847	615.234	86.2432	615.234	86.1332	615.234	85.9186	615.234	85.8261	615.234	85.465	615.234	85.4699	615.234	84.8397	615.234	85.0425	615.234	84.0763	615.234	84.4784	615.234	83.2275	615.234	83.7008	615.234	82.2769	615.234	82.6742	615.234	81.2222	615.234	81.4681	615.234	80.2954	615.234	80.3342	615.234	79.9048	615.234	79.646	615.234	80.1176	615.234	79.5693	615.234	80.5928	615.234	79.9179	615.234	81.0103	615.234	80.4133	615.234	81.2075	615.234	80.8593	615.234	81.1456
637.207	85.4062	637.207	85.3126	637.207	85.4536	637.207	85.2278	637.207	85.3922	637.207	85.1519	637.207	85.2219	637.207	85.0446	637.207	85.0103	637.207	84.8594	637.207	84.8067	637.207	84.5588	637.207	84.5594	637.207	84.1025	637.207	84.1478	637.207	83.4248	637.207	83.4783	637.207	82.4485	637.207	82.5306	637.207	81.1613	637.207	81.3477	637.207	79.7256	637.207	80.0326	637.207	78.5088	637.207	78.7933	637.207	77.8769	637.207	78.018	637.207	77.9188	637.207	78.0747	637.207	78.4594	637.207	78.7592	637.207	79.1938	637.207	79.5012	637.207	79.7993	637.207	79.9688	637.207	80.0743
659.18	85.1999	659.18	85.1438	659.18	85.2052	659.18	85.0306	659.18	85.1719	659.18	84.8713	659.18	85.086	659.18	84.672	659.18	84.9062	659.18	84.4097	659.18	84.6088	659.18	84.0329	659.18	84.2077	659.18	83.4834	659.18	83.7172	659.18	82.7212	659.18	83.127	659.18	81.7374	659.18	82.3992	659.18	80.5348	659.18	81.4379	659.18	79.1192	659.18	80.1149	659.18	77.6648	659.18	78.4902	659.18	76.839	659.18	77.1269	659.18	77.2809	659.18	76.8134	659.18	78.4127	659.18	77.549	659.18	79.3976	659.18	78.669	659.18	79.9547	659.18	79.593	659.18	80.0352
682.617	84.7062	682.617	84.628	682.617	84.7024	682.617	84.4891	682.617	84.6187	682.617	84.3208	682.617	84.4648	682.617	84.1324	682.617	84.2589	682.617	83.9085	682.617	84.0371	682.617	83.6198	682.617	83.8155	682.617	83.217	682.617	83.5097	682.617	82.6274	682.617	82.946	682.617	81.7637	682.617	82.0116	682.617	80.5722	682.617	80.7892	682.617	79.1487	682.617	79.5133	682.617	77.8279	682.617	78.3701	682.617	77.0546	682.617	77.524	682.617	77.0798	682.617	77.2894	682.617	77.7416	682.617	77.7118	682.617	78.5736	682.617	78.3963	682.617	79.1595	682.617	78.9978	682.617	79.2997
707.52	84.2256	707.52	84.1206	707.52	84.2546	707.52	83.9673	707.52	84.1946	707.52	83.7684	707.52	84.093	707.52	83.5304	707.52	83.9994	707.52	83.2871	707.52	83.8731	707.52	83.0575	707.52	83.6307	707.52	82.7832	707.52	83.2681	707.52	82.3505	707.52	82.8219	707.52	81.6739	707.52	82.2081	707.52	80.6942	707.52	81.2359	707.52	79.3131	707.52	79.8067	707.52	77.5645	707.52	78.0467	707.52	76.1396	707.52	76.4096	707.52	76.0066	707.52	75.7733	707.52	76.7272	707.52	76.4903	707.52	77.4888	707.52	77.5776	707.52	78.0648	707.52	78.2366	707.52	78.3576
732.422	84.8156	732.422	84.7504	732.422	84.7743	732.422	84.5402	732.422	84.6594	732.422	84.2048	732.422	84.4657	732.422	83.841	732.422	84.1813	732.422	83.5215	732.422	83.8496	732.422	83.1838	732.422	83.5458	732.422	82.7108	732.422	83.2599	732.422	82.048	732.422	82.8741	732.422	81.1583	732.422	82.279	732.422	79.9909	732.422	81.432	732.422	78.6092	732.422	80.2922	732.422	77.2132	732.422	78.8071	732.422	75.9016	732.422	77.1291	732.422	74.9141	732.422	75.8564	732.422	75.0854	732.422	75.5325	732.422	76.2517	732.422	75.9931	732.422	77.1858	732.422	76.7736	732.422	77.3259
757.324	84.7493	757.324	84.6381	757.324	84.7611	757.324	84.4848	757.324	84.5998	757.324	84.269	757.324	84.2717	757.324	83.944	757.324	83.8902	757.324	83.5509	757.324	83.5595	757.324	83.202	757.324	83.2531	757.324	82.9057	757.324	82.8861	757.324	82.5201	757.324	82.4208	757.324	81.902	757.324	81.8136	757.324	80.9698	757.324	80.9852	757.324	79.6538	757.324	79.9058	757.324	77.9976	757.324	78.6126	757.324	76.4684	757.324	77.258	757.324	75.8654	757.324	76.4311	757.324	76.3607	757.324	76.7089	757.324	77.3945	757.324	77.5714	757.324	78.2955	757.324	78.3126	757.324	78.6165
785.156	85.5337	785.156	85.4831	785.156	85.4366	785.156	85.2808	785.156	85.2541	785.156	85.0111	785.156	85.0163	785.156	84.7432	785.156	84.7178	785.156	84.4248	785.156	84.3875	785.156	83.9637	785.156	84.085	785.156	83.3819	785.156	83.8093	785.156	82.7682	785.156	83.456	785.156	82.0734	785.156	82.8751	785.156	81.0934	785.156	81.9514	785.156	79.6889	785.156	80.6713	785.156	77.9826	785.156	79.1814	785.156	76.5219	785.156	77.7785	785.156	76.207	785.156	76.7944	785.156	76.948	785.156	76.6214	785.156	77.7068	785.156	77.309	785.156	78.1222	785.156	78.0455	785.156	78.2787
811.523	85.9295	811.523	85.8404	811.523	85.8883	811.523	85.6764	811.523	85.6503	811.523	85.3922	811.523	85.2785	811.523	84.9939	811.523	84.9094	811.523	84.6516	811.523	84.6142	811.523	84.4853	811.523	84.363	811.523	84.3484	811.523	84.0832	811.523	84.0133	811.523	83.7107	811.523	83.3715	811.523	83.1798	811.523	82.3471	811.523	82.4034	811.523	80.8674	811.523	81.2796	811.523	79.1333	811.523	79.7295	811.523	77.74	811.523	77.9418	811.523	77.2357	811.523	76.9264	811.523	77.858	811.523	77.5166	811.523	79.1044	811.523	78.6579	811.523	79.9841	811.523	79.546	811.523	80.0699
840.82	86.2932	840.82	86.1717	840.82	86.2225	840.82	85.8882	840.82	85.9816	840.82	85.4824	840.82	85.6364	840.82	85.0281	840.82	85.1987	840.82	84.5935	840.82	84.6797	840.82	84.135	840.82	84.2184	840.82	83.599	840.82	83.8996	840.82	83.0482	840.82	83.544	840.82	82.4993	840.82	82.9511	840.82	81.8111	840.82	82.1161	840.82	80.7628	840.82	81.0529	840.82	79.101	840.82	79.6186	840.82	77.0568	840.82	77.7827	840.82	76.2828	840.82	76.4308	840.82	77.2337	840.82	76.7961	840.82	78.2231	840.82	77.8979	840.82	78.7257	840.82	78.627	840.82	78.8616
870.117	86.1546	870.117	86.0315	870.117	86.0955	870.117	85.6733	870.117	85.8912	870.117	85.2602	870.117	85.4892	870.117	84.9682	870.117	84.971	870.117	84.6831	870.117	84.4798	870.117	84.3138	870.117	84.0383	870.117	83.9981	870.117	83.6627	870.117	83.7554	870.117	83.3511	870.117	83.2852	870.117	82.9397	870.117	82.2691	870.117	82.2098	870.117	80.7192	870.117	81.0264	870.117	79.0779	870.117	79.4646	870.117	77.7912	870.117	77.9515	870.117	77.225	870.117	77.1248	870.117	78.0077	870.117	77.4032	870.117	79.2767	870.117	78.48	870.117	79.8971	870.117	79.4468	870.117	79.896
900.879	86.3278	900.879	86.0526	900.879	86.3269	900.879	85.7607	900.879	85.9844	900.879	85.4264	900.879	85.5043	900.879	84.8798	900.879	85.0236	900.879	84.3204	900.879	84.537	900.879	83.962	900.879	84.0508	900.879	83.5233	900.879	83.6164	900.879	82.8202	900.879	83.2282	900.879	82.1692	900.879	82.7443	900.879	81.6895	900.879	81.9954	900.879	80.8245	900.879	80.8621	900.879	79.1439	900.879	79.2393	900.879	77.295	900.879	77.37	900.879	76.6956	900.879	76.249	900.879	77.1291	900.879	76.4611	900.879	78.1261	900.879	77.5349	900.879	79.2553	900.879	78.8467	900.879	79.5945
933.105	86.3276	933.105	86.2277	933.105	86.1757	933.105	85.8285	933.105	85.7723	933.105	85.2299	933.105	85.258	933.105	84.7374	933.105	84.7246	933.105	84.3298	933.105	84.0512	933.105	83.8847	933.105	83.3844	933.105	83.677	933.105	83.0184	933.105	83.6647	933.105	82.851	933.105	83.2627	933.105	82.6494	933.105	82.2398	933.105	82.1509	933.105	80.8414	933.105	81.1295	933.105	79.2022	933.105	79.7282	933.105	77.2467	933.105	77.9272	933.105	76.0083	933.105	75.8353	933.105	76.9415	933.105	75.9715	933.105	78.5574	933.105	77.6405	933.105	79.2941	933.105	78.563	933.105	79.0892
965.332	86.5168	965.332	86.237	965.332	86.4705	965.332	85.7586	965.332	86.1662	965.332	85.2367	965.332	85.5582	965.332	84.5482	965.332	84.7569	965.332	83.7726	965.332	84.1215	965.332	83.2955	965.332	83.5833	965.332	83.0475	965.332	83.0882	965.332	82.5895	965.332	82.8742	965.332	81.9053	965.332	82.5384	965.332	81.3337	965.332	81.8304	965.332	80.4925	965.332	80.9882	965.332	78.4778	965.332	79.2982	965.332	75.9678	965.332	76.2006	965.332	75.8232	965.332	74.6389	965.332	77.1147	965.332	75.8089	965.332	78.0395	965.332	77.431	965.332	78.8432	965.332	79.0207	965.332	79.465
1,000.49	85.7114	1,000.49	85.5121	1,000.49	85.5249	1,000.49	85.0379	1,000.49	84.9339	1,000.49	84.2681	1,000.49	84.2672	1,000.49	83.3596	1,000.49	83.5706	1,000.49	82.5726	1,000.49	82.6165	1,000.49	82.0478	1,000.49	81.8531	1,000.49	81.9146	1,000.49	81.6456	1,000.49	82.11	1,000.49	81.5914	1,000.49	82.2485	1,000.49	81.679	1,000.49	81.7488	1,000.49	81.5658	1,000.49	80.2694	1,000.49	80.5453	1,000.49	78.2985	1,000.49	78.9873	1,000.49	76.4264	1,000.49	77.3251	1,000.49	74.4465	1,000.49	74.7529	1,000.49	74.0447	1,000.49	74.2161	1,000.49	76.4616	1,000.49	76.3738	1,000.49	78.3487	1,000.49	77.5904	1,000.49	78.4079
1,035.64	82.4848	1,035.64	82.0855	1,035.64	82.4237	1,035.64	81.5124	1,035.64	82.0293	1,035.64	80.8638	1,035.64	81.4326	1,035.64	79.8409	1,035.64	80.5082	1,035.64	78.5519	1,035.64	79.3504	1,035.64	77.5973	1,035.64	78.2509	1,035.64	77.4382	1,035.64	77.3249	1,035.64	77.9412	1,035.64	76.9962	1,035.64	78.1167	1,035.64	77.3208	1,035.64	77.4769	1,035.64	77.5335	1,035.64	76.711	1,035.64	77.2152	1,035.64	75.4394	1,035.64	75.9195	1,035.64	72.1403	1,035.64	73.4479	1,035.64	70.3054	1,035.64	71.2115	1,035.64	73.5839	1,035.64	71.5495	1,035.64	74.7462	1,035.64	73.4631	1,035.64	75.3253	1,035.64	75.5182	1,035.64	76.1329
1,072.27	81.1435	1,072.27	80.7308	1,072.27	81.0532	1,072.27	80.2214	1,072.27	80.4928	1,072.27	79.3418	1,072.27	79.8838	1,072.27	78.0124	1,072.27	78.8289	1,072.27	76.7711	1,072.27	77.2112	1,072.27	75.3309	1,072.27	75.8869	1,072.27	73.5972	1,072.27	74.8067	1,072.27	72.9515	1,072.27	73.9478	1,072.27	73.4759	1,072.27	74.2039	1,072.27	73.9846	1,072.27	74.2866	1,072.27	73.5935	1,072.27	73.5553	1,072.27	71.7011	1,072.27	72.5026	1,072.27	69.1045	1,072.27	70.3725	1,072.27	66.5353	1,072.27	67.2827	1,072.27	67.5606	1,072.27	67.5483	1,072.27	70.915	1,072.27	70.3661	1,072.27	72.0145	1,072.27	72.5015	1,072.27	72.6679
1,108.89	82.7947	1,108.89	82.7385	1,108.89	82.7247	1,108.89	82.2824	1,108.89	82.4187	1,108.89	81.3951	1,108.89	81.7463	1,108.89	80.3252	1,108.89	80.8384	1,108.89	78.9471	1,108.89	79.7173	1,108.89	77.3106	1,108.89	78.3318	1,108.89	75.929	1,108.89	76.8553	1,108.89	75.0458	1,108.89	75.6825	1,108.89	75.0424	1,108.89	75.1001	1,108.89	75.1176	1,108.89	75.0693	1,108.89	74.1297	1,108.89	74.6959	1,108.89	72.6744	1,108.89	73.2186	1,108.89	70.7746	1,108.89	71.1981	1,108.89	67.0279	1,108.89	68.911	1,108.89	66.2728	1,108.89	66.5122	1,108.89	70.162	1,108.89	69.4396	1,108.89	72.638	1,108.89	72.1246	1,108.89	73.1073
1,148.44	83.1934	1,148.44	83.2317	1,148.44	83.1835	1,148.44	83.0849	1,148.44	83.0221	1,148.44	82.5566	1,148.44	82.5704	1,148.44	81.7471	1,148.44	81.7989	1,148.44	80.6383	1,148.44	80.6696	1,148.44	79.0015	1,148.44	79.3588	1,148.44	77.2145	1,148.44	77.8719	1,148.44	76.0787	1,148.44	76.2743	1,148.44	75.0853	1,148.44	75.3748	1,148.44	74.5716	1,148.44	75.0668	1,148.44	74.4066	1,148.44	74.6042	1,148.44	72.8942	1,148.44	73.728	1,148.44	70.6281	1,148.44	72.1669	1,148.44	67.6545	1,148.44	69.4892	1,148.44	65.8434	1,148.44	67.0904	1,148.44	69.2667	1,148.44	68.4481	1,148.44	70.7875	1,148.44	71.0048	1,148.44	71.6351
1,189.45	83.8204	1,189.45	83.7076	1,189.45	83.5794	1,189.45	83.381	1,189.45	83.3554	1,189.45	83.0837	1,189.45	82.9258	1,189.45	82.4648	1,189.45	82.098	1,189.45	81.5578	1,189.45	81.3221	1,189.45	80.4541	1,189.45	80.517	1,189.45	79.0578	1,189.45	79.2518	1,189.45	77.8229	1,189.45	77.96	1,189.45	76.714	1,189.45	76.9717	1,189.45	75.7421	1,189.45	76.0107	1,189.45	75.3651	1,189.45	75.3855	1,189.45	74.3539	1,189.45	74.4332	1,189.45	71.5208	1,189.45	71.8455	1,189.45	67.8748	1,189.45	68.0304	1,189.45	67.4866	1,189.45	66.5972	1,189.45	69.7627	1,189.45	68.3498	1,189.45	72.4333	1,189.45	70.7384	1,189.45	72.8688
1,230.47	85.6075	1,230.47	85.5867	1,230.47	85.5315	1,230.47	85.2791	1,230.47	85.2523	1,230.47	84.6407	1,230.47	84.6726	1,230.47	83.8223	1,230.47	83.8208	1,230.47	82.8696	1,230.47	82.527	1,230.47	81.7392	1,230.47	81.0805	1,230.47	80.3803	1,230.47	79.972	1,230.47	79.1232	1,230.47	79.0601	1,230.47	78.7411	1,230.47	78.6296	1,230.47	78.9185	1,230.47	78.5775	1,230.47	78.4526	1,230.47	78.1317	1,230.47	77.0756	1,230.47	76.9105	1,230.47	75.0174	1,230.47	74.7193	1,230.47	71.5297	1,230.47	71.3566	1,230.47	70.3851	1,230.47	68.917	1,230.47	72.9835	1,230.47	72.1733	1,230.47	74.7635	1,230.47	74.6533	1,230.47	75.4221
1,274.41	85.4531	1,274.41	85.1963	1,274.41	85.2707	1,274.41	84.7365	1,274.41	84.8269	1,274.41	84.312	1,274.41	84.1388	1,274.41	83.4165	1,274.41	83.2664	1,274.41	82.1687	1,274.41	82.1859	1,274.41	80.9	1,274.41	80.877	1,274.41	79.5351	1,274.41	79.4826	1,274.41	78.8754	1,274.41	78.016	1,274.41	78.4355	1,274.41	77.0444	1,274.41	77.5703	1,274.41	76.8779	1,274.41	77.065	1,274.41	76.4374	1,274.41	76.2338	1,274.41	75.6535	1,274.41	73.8731	1,274.41	74.2654	1,274.41	70.0897	1,274.41	70.0366	1,274.41	69.7157	1,274.41	67.5027	1,274.41	72.697	1,274.41	71.1478	1,274.41	74.7511	1,274.41	73.9819	1,274.41	75.3953
1,319.82	83.983	1,319.82	83.8653	1,319.82	83.9484	1,319.82	83.6377	1,319.82	83.6923	1,319.82	83.0609	1,319.82	83.2276	1,319.82	82.469	1,319.82	82.3062	1,319.82	81.4463	1,319.82	81.1806	1,319.82	79.4913	1,319.82	79.8507	1,319.82	77.7524	1,319.82	77.8561	1,319.82	76.851	1,319.82	76.0793	1,319.82	75.941	1,319.82	75.5466	1,319.82	74.9753	1,319.82	75.3669	1,319.82	74.8709	1,319.82	75.1859	1,319.82	73.7087	1,319.82	73.8926	1,319.82	70.8983	1,319.82	72.0745	1,319.82	68.131	1,319.82	69.5221	1,319.82	67.4217	1,319.82	63.528	1,319.82	71.8679	1,319.82	70.172	1,319.82	74.3582	1,319.82	73.428	1,319.82	74.5873
1,366.7	82.1357	1,366.7	81.9137	1,366.7	81.7154	1,366.7	81.2578	1,366.7	81.5782	1,366.7	80.918	1,366.7	81.1652	1,366.7	80.3651	1,366.7	80.3779	1,366.7	79.4694	1,366.7	79.7074	1,366.7	78.3272	1,366.7	78.2078	1,366.7	76.0471	1,366.7	76.366	1,366.7	72.9447	1,366.7	74.9684	1,366.7	71.094	1,366.7	73.4553	1,366.7	71.6428	1,366.7	73.0547	1,366.7	72.2151	1,366.7	72.8622	1,366.7	70.8341	1,366.7	73.3593	1,366.7	69.6873	1,366.7	71.9549	1,366.7	63.9214	1,366.7	66.7422	1,366.7	60.6673	1,366.7	60.4781	1,366.7	69.1629	1,366.7	66.0252	1,366.7	71.5033	1,366.7	71.1046	1,366.7	71.8174
1,413.57	81.5476	1,413.57	81.1298	1,413.57	81.8534	1,413.57	81.3628	1,413.57	81.4329	1,413.57	80.7227	1,413.57	81.0825	1,413.57	79.6414	1,413.57	80.9821	1,413.57	79.1572	1,413.57	79.8466	1,413.57	78.4117	1,413.57	78.2858	1,413.57	76.7456	1,413.57	77.7429	1,413.57	74.6345	1,413.57	75.9484	1,413.57	71.9903	1,413.57	73.9785	1,413.57	71.9175	1,413.57	72.2267	1,413.57	70.6086	1,413.57	72.4677	1,413.57	70.1104	1,413.57	71.7804	1,413.57	68.4956	1,413.57	68.9651	1,413.57	62.6557	1,413.57	66.7216	1,413.57	62.1077	1,413.57	57.2632	1,413.57	60.7811	1,413.57	60.2013	1,413.57	68.0326	1,413.57	66.1942	1,413.57	68.916
1,463.38	85.718	1,463.38	85.4019	1,463.38	85.7951	1,463.38	85.1803	1,463.38	85.5195	1,463.38	84.389	1,463.38	85.1286	1,463.38	83.6094	1,463.38	84.7361	1,463.38	83.133	1,463.38	84.2242	1,463.38	81.9729	1,463.38	83.2076	1,463.38	80.938	1,463.38	81.6048	1,463.38	79.4152	1,463.38	79.5283	1,463.38	78.1904	1,463.38	77.484	1,463.38	76.3985	1,463.38	76.7909	1,463.38	74.8214	1,463.38	75.8596	1,463.38	74.1511	1,463.38	75.9037	1,463.38	71.7344	1,463.38	74.4065	1,463.38	69.1408	1,463.38	71.8251	1,463.38	58.0443	1,463.38	67.0124	1,463.38	62.6204	1,463.38	64.2128	1,463.38	67.8761	1,463.38	65.8648	1,463.38	68.0163
1,516.11	87.7044	1,516.11	87.7806	1,516.11	87.4655	1,516.11	87.1137	1,516.11	87.3785	1,516.11	86.4554	1,516.11	86.7124	1,516.11	85.6127	1,516.11	85.6557	1,516.11	83.9192	1,516.11	84.8321	1,516.11	82.6857	1,516.11	83.9347	1,516.11	81.7536	1,516.11	82.7141	1,516.11	80.7994	1,516.11	81.4476	1,516.11	80.0333	1,516.11	80.2382	1,516.11	79.1268	1,516.11	78.5854	1,516.11	78.4175	1,516.11	78.4792	1,516.11	77.1091	1,516.11	77.7263	1,516.11	74.9401	1,516.11	75.3042	1,516.11	71.419	1,516.11	72.6186	1,516.11	67.5639	1,516.11	65.9962	1,516.11	68.4232	1,516.11	63.7019	1,516.11	71.8049	1,516.11	71.3037	1,516.11	71.5316
1,568.85	89.3897	1,568.85	89.2187	1,568.85	89.1358	1,568.85	88.6679	1,568.85	88.7499	1,568.85	87.8788	1,568.85	87.7388	1,568.85	86.6884	1,568.85	86.8058	1,568.85	85.5925	1,568.85	85.6722	1,568.85	84.4109	1,568.85	84.4388	1,568.85	83.471	1,568.85	82.7857	1,568.85	82.5149	1,568.85	80.6076	1,568.85	81.1979	1,568.85	80.2638	1,568.85	80.6025	1,568.85	79.8805	1,568.85	80.1111	1,568.85	79.1063	1,568.85	78.0003	1,568.85	79.3749	1,568.85	76.3792	1,568.85	79.0572	1,568.85	73.4316	1,568.85	76.3447	1,568.85	68.1906	1,568.85	70.5191	1,568.85	69.296	1,568.85	62.4615	1,568.85	71.2297	1,568.85	72.7495	1,568.85	73.5049
1,624.51	88.7346	1,624.51	88.4258	1,624.51	88.5542	1,624.51	87.6868	1,624.51	88.3658	1,624.51	86.8523	1,624.51	87.4977	1,624.51	86.3463	1,624.51	85.9942	1,624.51	84.9225	1,624.51	85.2535	1,624.51	83.8965	1,624.51	83.4596	1,624.51	82.7424	1,624.51	82.012	1,624.51	80.9917	1,624.51	80.8004	1,624.51	79.9547	1,624.51	78.5561	1,624.51	78.5397	1,624.51	79.053	1,624.51	78.5452	1,624.51	78.0817	1,624.51	78.1645	1,624.51	77.271	1,624.51	76.6024	1,624.51	77.7392	1,624.51	72.9105	1,624.51	72.9434	1,624.51	67.7618	1,624.51	67.0586	1,624.51	69.633	1,624.51	66.4059	1,624.51	71.2155	1,624.51	73.8837	1,624.51	73.5253
1,681.64	87.2338	1,681.64	87.2199	1,681.64	87.2081	1,681.64	86.8295	1,681.64	87.2157	1,681.64	86.533	1,681.64	86.4567	1,681.64	85.2232	1,681.64	85.4104	1,681.64	83.9167	1,681.64	83.9042	1,681.64	82.4093	1,681.64	82.6368	1,681.64	80.0033	1,681.64	81.8775	1,681.64	79.2968	1,681.64	80.4306	1,681.64	78.9508	1,681.64	79.2137	1,681.64	77.125	1,681.64	78.1201	1,681.64	76.2653	1,681.64	77.881	1,681.64	76.7248	1,681.64	76.9692	1,681.64	75.4611	1,681.64	76.5353	1,681.64	72.0423	1,681.64	75.1902	1,681.64	63.3873	1,681.64	69.6534	1,681.64	67.8008	1,681.64	66.3564	1,681.64	73.1526	1,681.64	72.8263	1,681.64	73.2247
1,741.7	87.7246	1,741.7	87.3842	1,741.7	87.6663	1,741.7	86.8742	1,741.7	87.4405	1,741.7	86.1824	1,741.7	85.8815	1,741.7	84.7015	1,741.7	85.5267	1,741.7	82.8997	1,741.7	84.8975	1,741.7	80.8829	1,741.7	82.5604	1,741.7	79.3908	1,741.7	81.4229	1,741.7	78.5899	1,741.7	80.3561	1,741.7	77.226	1,741.7	78.9111	1,741.7	74.8783	1,741.7	77.1928	1,741.7	76.2384	1,741.7	75.9475	1,741.7	75.9303	1,741.7	75.89	1,741.7	76.2534	1,741.7	75.7114	1,741.7	72.5742	1,741.7	75.0617	1,741.7	70.0566	1,741.7	70.7665	1,741.7	66.4138	1,741.7	59.358	1,741.7	74.0134	1,741.7	67.7478	1,741.7	72.7447
1,803.22	88.9037	1,803.22	88.4513	1,803.22	88.6225	1,803.22	87.6392	1,803.22	88.4069	1,803.22	86.9611	1,803.22	87.2688	1,803.22	85.3539	1,803.22	86.1287	1,803.22	83.5466	1,803.22	85.1797	1,803.22	82.8205	1,803.22	83.4389	1,803.22	81.284	1,803.22	81.9907	1,803.22	78.7879	1,803.22	80.0557	1,803.22	77.9785	1,803.22	78.6062	1,803.22	76.4266	1,803.22	75.6758	1,803.22	75.7082	1,803.22	75.8608	1,803.22	75.5739	1,803.22	77.8696	1,803.22	75.3243	1,803.22	77.8253	1,803.22	74.9761	1,803.22	76.2407	1,803.22	67.2956	1,803.22	70.6268	1,803.22	67.2715	1,803.22	62.9887	1,803.22	66.9683	1,803.22	66.2916	1,803.22	73.7323
1,866.21	88.0245	1,866.21	87.5145	1,866.21	88.0969	1,866.21	86.4795	1,866.21	87.0585	1,866.21	85.9272	1,866.21	85.8507	1,866.21	85.2952	1,866.21	85.4768	1,866.21	83.239	1,866.21	84.1606	1,866.21	82.0099	1,866.21	82.4814	1,866.21	80.7964	1,866.21	81.3919	1,866.21	79.5996	1,866.21	78.6938	1,866.21	76.6832	1,866.21	77.3851	1,866.21	72.7423	1,866.21	75.7277	1,866.21	72.9305	1,866.21	76.6447	1,866.21	76.1734	1,866.21	76.1867	1,866.21	76.5998	1,866.21	76.0362	1,866.21	73.8511	1,866.21	73.4556	1,866.21	68.2238	1,866.21	67.812	1,866.21	70.6957	1,866.21	69.9695	1,866.21	72.9183	1,866.21	72.9583	1,866.21	74.3396
1,932.13	84.2194	1,932.13	84.4012	1,932.13	83.5849	1,932.13	83.9847	1,932.13	83.8236	1,932.13	82.984	1,932.13	82.3925	1,932.13	81.0943	1,932.13	80.1733	1,932.13	80.061	1,932.13	80.2744	1,932.13	78.8194	1,932.13	78.2312	1,932.13	76.8651	1,932.13	78.8357	1,932.13	76.6889	1,932.13	75.2875	1,932.13	72.7483	1,932.13	72.7222	1,932.13	71.6781	1,932.13	69.9188	1,932.13	67.9359	1,932.13	70.8866	1,932.13	72.3088	1,932.13	74.885	1,932.13	75.5588	1,932.13	72.9205	1,932.13	73.0786	1,932.13	70.3896	1,932.13	65.4584	1,932.13	69.7038	1,932.13	69.3271	1,932.13	59.9557	1,932.13	71.7239	1,932.13	69.2618	1,932.13	68.0428
1,999.51	83.2379	1,999.51	83.0706	1,999.51	83.2519	1,999.51	82.7284	1,999.51	83.1406	1,999.51	80.9374	1,999.51	81.278	1,999.51	80.4204	1,999.51	80.7203	1,999.51	77.8495	1,999.51	78.9708	1,999.51	75.7015	1,999.51	78.3242	1,999.51	78.0414	1,999.51	78.025	1,999.51	77.0315	1,999.51	76.5486	1,999.51	76.2423	1,999.51	74.7531	1,999.51	74.748	1,999.51	73.8638	1,999.51	73.0228	1,999.51	65.8331	1,999.51	71.2146	1,999.51	65.9498	1,999.51	71.4508	1,999.51	67.1549	1,999.51	66.9626	1,999.51	66.2142	1,999.51	63.1501	1,999.51	70.85	1,999.51	64.7096	1,999.51	61.6514	1,999.51	69.9916	1,999.51	67.3867	1,999.51	66.1265
2,069.82	83.5065	2,069.82	83.3689	2,069.82	82.9378	2,069.82	82.5618	2,069.82	82.6694	2,069.82	81.6881	2,069.82	81.8897	2,069.82	80.0543	2,069.82	81.2121	2,069.82	78.4236	2,069.82	79.7733	2,069.82	76.0777	2,069.82	78.5488	2,069.82	76.4454	2,069.82	77.4987	2,069.82	74.0061	2,069.82	74.0662	2,069.82	72.3926	2,069.82	73.5715	2,069.82	73.135	2,069.82	73.5853	2,069.82	70.0575	2,069.82	71.1704	2,069.82	68.55	2,069.82	70.6093	2,069.82	66.5838	2,069.82	70.6699	2,069.82	68.3247	2,069.82	67.0677	2,069.82	63.6651	2,069.82	63.6253	2,069.82	54.5752	2,069.82	60.6811	2,069.82	60.4563	2,069.82	63.9235	2,069.82	69.1189
2,143.07	84.3632	2,143.07	84.1019	2,143.07	84.2206	2,143.07	83.2452	2,143.07	83.6674	2,143.07	81.5074	2,143.07	82.8701	2,143.07	79.8178	2,143.07	81.1572	2,143.07	79.01	2,143.07	79.7573	2,143.07	77.4306	2,143.07	78.5373	2,143.07	74.9476	2,143.07	76.4719	2,143.07	75.3934	2,143.07	74.4919	2,143.07	73.8024	2,143.07	74.1697	2,143.07	68.7075	2,143.07	74.1944	2,143.07	66.5457	2,143.07	73.3883	2,143.07	68.0088	2,143.07	70.5174	2,143.07	71.8491	2,143.07	71.646	2,143.07	72.4307	2,143.07	72.5543	2,143.07	67.8199	2,143.07	65.9036	2,143.07	56.7289	2,143.07	59.3213	2,143.07	66.7439	2,143.07	58.3182	2,143.07	67.7795
2,219.24	84.4025	2,219.24	84.1357	2,219.24	83.9831	2,219.24	83.2853	2,219.24	83.4782	2,219.24	82.1599	2,219.24	82.7477	2,219.24	81.1989	2,219.24	81.1121	2,219.24	80.0078	2,219.24	79.0482	2,219.24	78.2157	2,219.24	78.0216	2,219.24	76.796	2,219.24	76.4533	2,219.24	74.6868	2,219.24	75.111	2,219.24	73.4895	2,219.24	74.1787	2,219.24	73.5173	2,219.24	70.7459	2,219.24	68.9183	2,219.24	71.4932	2,219.24	66.4894	2,219.24	71.6887	2,219.24	70.779	2,219.24	70.2575	2,219.24	69.9551	2,219.24	71.8024	2,219.24	65.8517	2,219.24	68.6234	2,219.24	65.0032	2,219.24	61.7166	2,219.24	65.4819	2,219.24	65.6162	2,219.24	66.0753
2,296.88	83.4421	2,296.88	83.1154	2,296.88	83.1163	2,296.88	82.3145	2,296.88	82.2752	2,296.88	81.1371	2,296.88	81.4572	2,296.88	80.4232	2,296.88	80.6041	2,296.88	78.802	2,296.88	78.755	2,296.88	76.6784	2,296.88	76.9667	2,296.88	75.752	2,296.88	74.8198	2,296.88	73.5722	2,296.88	71.7517	2,296.88	72.0723	2,296.88	71.9423	2,296.88	71.0098	2,296.88	72.798	2,296.88	69.7606	2,296.88	70.4074	2,296.88	69.5267	2,296.88	67.9629	2,296.88	67.7224	2,296.88	69.3423	2,296.88	67.6661	2,296.88	69.957	2,296.88	65.3005	2,296.88	68.7345	2,296.88	62.4796	2,296.88	61.5613	2,296.88	63.6799	2,296.88	65.72	2,296.88	65.1216
2,378.91	81.351	2,378.91	81.6097	2,378.91	81.2912	2,378.91	80.7156	2,378.91	80.7474	2,378.91	79.1318	2,378.91	79.9174	2,378.91	77.7299	2,378.91	78.9398	2,378.91	76.6136	2,378.91	76.9777	2,378.91	75.0568	2,378.91	75.3467	2,378.91	73.7806	2,378.91	74.2099	2,378.91	73.4824	2,378.91	73.8573	2,378.91	71.1764	2,378.91	70.1338	2,378.91	68.4529	2,378.91	66.7919	2,378.91	68.8323	2,378.91	67.1523	2,378.91	67.0905	2,378.91	67.2847	2,378.91	68.0593	2,378.91	65.8964	2,378.91	68.3258	2,378.91	66.0725	2,378.91	64.4131	2,378.91	66.7943	2,378.91	58.3236	2,378.91	61.9406	2,378.91	63.9994	2,378.91	62.4559	2,378.91	63.8439
2,462.4	82.6512	2,462.4	82.2548	2,462.4	82.6484	2,462.4	81.518	2,462.4	81.6633	2,462.4	80.2849	2,462.4	80.8088	2,462.4	78.424	2,462.4	79.7296	2,462.4	77.0346	2,462.4	78.5171	2,462.4	75.78	2,462.4	77.0018	2,462.4	74.0486	2,462.4	75.3985	2,462.4	72.8669	2,462.4	74.4973	2,462.4	71.3316	2,462.4	72.7647	2,462.4	69.8967	2,462.4	71.5856	2,462.4	68.8318	2,462.4	70.345	2,462.4	66.2746	2,462.4	68.388	2,462.4	66.7866	2,462.4	67.7782	2,462.4	68.1054	2,462.4	69.229	2,462.4	65.3555	2,462.4	67.5408	2,462.4	60.6337	2,462.4	62.8249	2,462.4	64.9942	2,462.4	63.3231	2,462.4	66.4628
2,548.83	83.3964	2,548.83	83.2599	2,548.83	82.9057	2,548.83	82.5689	2,548.83	82.5583	2,548.83	81.9741	2,548.83	81.82	2,548.83	80.8256	2,548.83	80.6306	2,548.83	79.3229	2,548.83	79.2686	2,548.83	77.8867	2,548.83	77.6586	2,548.83	76.3652	2,548.83	76.5412	2,548.83	74.9589	2,548.83	75.3332	2,548.83	73.4134	2,548.83	73.8118	2,548.83	72.4382	2,548.83	72.2764	2,548.83	71.2097	2,548.83	71.7324	2,548.83	70.7384	2,548.83	69.8882	2,548.83	68.6899	2,548.83	68.1329	2,548.83	69.2396	2,548.83	68.796	2,548.83	67.5156	2,548.83	67.127	2,548.83	61.1204	2,548.83	59.9185	2,548.83	64.3899	2,548.83	65.9206	2,548.83	67.9008
2,639.65	83.0859	2,639.65	83.039	2,639.65	82.9165	2,639.65	82.6006	2,639.65	82.5962	2,639.65	82.1865	2,639.65	81.963	2,639.65	81.3658	2,639.65	80.9597	2,639.65	80.0673	2,639.65	79.7366	2,639.65	78.5278	2,639.65	78.23	2,639.65	76.957	2,639.65	76.8284	2,639.65	75.9748	2,639.65	75.5231	2,639.65	74.164	2,639.65	74.1039	2,639.65	72.3073	2,639.65	72.5873	2,639.65	71.8798	2,639.65	71.6864	2,639.65	70.043	2,639.65	70.3137	2,639.65	69.3458	2,639.65	68.0241	2,639.65	69.9519	2,639.65	68.8392	2,639.65	66.9664	2,639.65	68.1565	2,639.65	59.7547	2,639.65	60.7704	2,639.65	66.5023	2,639.65	58.5623	2,639.65	66.7596
2,731.93	84.3262	2,731.93	83.9026	2,731.93	84.5766	2,731.93	83.5412	2,731.93	83.8052	2,731.93	82.4356	2,731.93	83.0755	2,731.93	81.3868	2,731.93	82.0408	2,731.93	80.038	2,731.93	80.8043	2,731.93	78.326	2,731.93	79.4517	2,731.93	76.9282	2,731.93	77.373	2,731.93	75.6526	2,731.93	76.0978	2,731.93	74.153	2,731.93	74.3104	2,731.93	72.1218	2,731.93	72.8546	2,731.93	71.7298	2,731.93	71.5123	2,731.93	69.3698	2,731.93	70.5722	2,731.93	68.6268	2,731.93	68.4188	2,731.93	70.1054	2,731.93	69.1383	2,731.93	67.6255	2,731.93	69.8731	2,731.93	57.156	2,731.93	64.5734	2,731.93	62.4683	2,731.93	61.1885	2,731.93	64.8395
2,828.61	85.049	2,828.61	84.6798	2,828.61	84.909	2,828.61	83.8515	2,828.61	84.3754	2,828.61	82.9175	2,828.61	83.5871	2,828.61	81.6267	2,828.61	82.6774	2,828.61	80.4571	2,828.61	81.3481	2,828.61	78.9269	2,828.61	79.5607	2,828.61	77.1959	2,828.61	78.0903	2,828.61	76.1863	2,828.61	76.6163	2,828.61	74.4815	2,828.61	74.8036	2,828.61	71.9888	2,828.61	72.8972	2,828.61	71.2744	2,828.61	72.0817	2,828.61	69.2899	2,828.61	71.4193	2,828.61	68.2839	2,828.61	69.458	2,828.61	69.9611	2,828.61	69.7344	2,828.61	68.1963	2,828.61	70.6184	2,828.61	59.8928	2,828.61	64.6407	2,828.61	66.5407	2,828.61	61.248	2,828.61	66.4527
2,928.22	85.1944	2,928.22	84.8476	2,928.22	84.8773	2,928.22	84.1046	2,928.22	84.5001	2,928.22	83.4419	2,928.22	83.7773	2,928.22	82.4214	2,928.22	82.8349	2,928.22	81.1492	2,928.22	81.6217	2,928.22	79.6894	2,928.22	79.9518	2,928.22	77.9149	2,928.22	78.21	2,928.22	76.2641	2,928.22	76.9047	2,928.22	74.8164	2,928.22	75.7189	2,928.22	73.1436	2,928.22	73.3819	2,928.22	71.3564	2,928.22	72.1255	2,928.22	70.9067	2,928.22	71.0901	2,928.22	68.2198	2,928.22	67.8372	2,928.22	69.255	2,928.22	67.994	2,928.22	69.3773	2,928.22	69.2524	2,928.22	56.6802	2,928.22	64.4988	2,928.22	63.4632	2,928.22	62.2902	2,928.22	67.2823
3,030.76	84.83	3,030.76	84.7655	3,030.76	84.3498	3,030.76	84.0401	3,030.76	84.2226	3,030.76	83.5339	3,030.76	83.4869	3,030.76	82.6855	3,030.76	82.7362	3,030.76	81.6272	3,030.76	81.7887	3,030.76	80.0914	3,030.76	80.186	3,030.76	78.0624	3,030.76	78.4672	3,030.76	76.4814	3,030.76	76.9537	3,030.76	75.251	3,030.76	75.692	3,030.76	73.6342	3,030.76	73.8307	3,030.76	72.5691	3,030.76	72.0792	3,030.76	71.366	3,030.76	71.409	3,030.76	69.5463	3,030.76	69.5154	3,030.76	69.9622	3,030.76	67.9876	3,030.76	68.7249	3,030.76	69.3859	3,030.76	60.0961	3,030.76	64.9029	3,030.76	59.8414	3,030.76	58.255	3,030.76	66.413
3,137.7	84.4464	3,137.7	84.2524	3,137.7	84.2794	3,137.7	83.997	3,137.7	83.8174	3,137.7	83.5785	3,137.7	83.2634	3,137.7	82.8165	3,137.7	82.6243	3,137.7	81.8058	3,137.7	81.7977	3,137.7	80.4361	3,137.7	80.5572	3,137.7	78.4553	3,137.7	78.8439	3,137.7	76.3803	3,137.7	76.8302	3,137.7	75.1081	3,137.7	75.9018	3,137.7	72.8614	3,137.7	74.0244	3,137.7	71.8479	3,137.7	71.7418	3,137.7	72.2312	3,137.7	71.7293	3,137.7	69.457	3,137.7	70.5962	3,137.7	69.2645	3,137.7	68.2323	3,137.7	69.4537	3,137.7	69.6564	3,137.7	63.9566	3,137.7	66.6404	3,137.7	61.6234	3,137.7	54.2555	3,137.7	65.1805
3,249.02	83.8208	3,249.02	83.8049	3,249.02	83.7313	3,249.02	83.4379	3,249.02	83.6309	3,249.02	82.8438	3,249.02	83.0752	3,249.02	81.9986	3,249.02	82.3718	3,249.02	81.2892	3,249.02	81.4158	3,249.02	80.0031	3,249.02	80.3802	3,249.02	77.9977	3,249.02	78.932	3,249.02	76.5303	3,249.02	76.6984	3,249.02	75.4347	3,249.02	75.5831	3,249.02	73.3792	3,249.02	74.2774	3,249.02	71.4794	3,249.02	71.4785	3,249.02	72.1944	3,249.02	71.3123	3,249.02	70.196	3,249.02	70.7438	3,249.02	67.4926	3,249.02	68.8629	3,249.02	69.2265	3,249.02	68.8107	3,249.02	64.3829	3,249.02	67.1995	3,249.02	65.9403	3,249.02	60.1696	3,249.02	66.696
3,363.28	83.1829	3,363.28	82.9136	3,363.28	83.296	3,363.28	83.1562	3,363.28	82.7063	3,363.28	82.8755	3,363.28	82.5546	3,363.28	81.9284	3,363.28	81.4864	3,363.28	80.7222	3,363.28	80.3425	3,363.28	79.4405	3,363.28	79.3192	3,363.28	77.5334	3,363.28	77.6706	3,363.28	75.7618	3,363.28	75.4246	3,363.28	73.8816	3,363.28	73.9394	3,363.28	72.2081	3,363.28	72.5699	3,363.28	69.5385	3,363.28	68.7938	3,363.28	70.6566	3,363.28	69.4466	3,363.28	69.961	3,363.28	69.2366	3,363.28	67.4353	3,363.28	66.8064	3,363.28	68.7878	3,363.28	67.5894	3,363.28	63.6658	3,363.28	66.4664	3,363.28	59.4371	3,363.28	58.6167	3,363.28	65.734
3,481.93	82.9091	3,481.93	82.7284	3,481.93	83.0667	3,481.93	82.8748	3,481.93	82.9147	3,481.93	82.4034	3,481.93	82.6565	3,481.93	81.4318	3,481.93	82.2312	3,481.93	80.3336	3,481.93	81.8167	3,481.93	79.1181	3,481.93	80.6362	3,481.93	77.5543	3,481.93	78.7526	3,481.93	75.9057	3,481.93	76.8269	3,481.93	74.5247	3,481.93	74.8673	3,481.93	72.9727	3,481.93	73.2973	3,481.93	70.3939	3,481.93	71.1702	3,481.93	71.1489	3,481.93	70.7158	3,481.93	69.6068	3,481.93	71.1919	3,481.93	67.3402	3,481.93	68.6188	3,481.93	68.5995	3,481.93	69.2331	3,481.93	63.8923	3,481.93	67.1584	3,481.93	60.217	3,481.93	58.1426	3,481.93	65.8379
3,604.98	84.1294	3,604.98	84.1299	3,604.98	84.487	3,604.98	84.1917	3,604.98	84.7904	3,604.98	83.9879	3,604.98	84.5704	3,604.98	83.2013	3,604.98	84.0736	3,604.98	82.0885	3,604.98	83.1425	3,604.98	80.4548	3,604.98	81.7298	3,604.98	78.8651	3,604.98	79.9681	3,604.98	76.8501	3,604.98	77.7952	3,604.98	74.9251	3,604.98	75.6681	3,604.98	73.6326	3,604.98	74.4761	3,604.98	69.9549	3,604.98	72.7372	3,604.98	70.4463	3,604.98	71.1335	3,604.98	70.3035	3,604.98	72.5143	3,604.98	68.6739	3,604.98	69.9893	3,604.98	69.5595	3,604.98	70.7182	3,604.98	64.7741	3,604.98	67.2427	3,604.98	60.5052	3,604.98	57.383	3,604.98	64.7864
3,732.42	82.829	3,732.42	83.5323	3,732.42	82.4308	3,732.42	83.1303	3,732.42	83.4547	3,732.42	83.3079	3,732.42	83.3563	3,732.42	82.9481	3,732.42	83.0842	3,732.42	82.0094	3,732.42	82.0547	3,732.42	80.8865	3,732.42	80.4277	3,732.42	79.0962	3,732.42	78.6702	3,732.42	76.7493	3,732.42	77.0063	3,732.42	75.5901	3,732.42	73.4664	3,732.42	73.5388	3,732.42	72.7682	3,732.42	71.2134	3,732.42	71.3161	3,732.42	70.0944	3,732.42	68.0332	3,732.42	70.5586	3,732.42	70.1981	3,732.42	68.4324	3,732.42	67.254	3,732.42	69.7434	3,732.42	67.8407	3,732.42	64.5766	3,732.42	66.6381	3,732.42	59.4011	3,732.42	53.3164	3,732.42	64.8043
3,864.26	82.4778	3,864.26	82.9103	3,864.26	82.7838	3,864.26	83.0002	3,864.26	83.1916	3,864.26	83.2597	3,864.26	83.3064	3,864.26	82.7833	3,864.26	83.0804	3,864.26	80.9557	3,864.26	82.057	3,864.26	79.7702	3,864.26	80.3947	3,864.26	78.5911	3,864.26	78.6639	3,864.26	75.6348	3,864.26	77.19	3,864.26	73.1096	3,864.26	74.3972	3,864.26	71.6967	3,864.26	73.0749	3,864.26	68.8513	3,864.26	71.9546	3,864.26	66.8389	3,864.26	68.1316	3,864.26	69.1432	3,864.26	69.424	3,864.26	66.328	3,864.26	67.8519	3,864.26	67.2696	3,864.26	67.2379	3,864.26	63.0924	3,864.26	67.6973	3,864.26	60.6407	3,864.26	58.2057	3,864.26	65.4555
4,000.49	84.0378	4,000.49	83.6411	4,000.49	84.709	4,000.49	84.7067	4,000.49	84.2326	4,000.49	84.9653	4,000.49	84.3507	4,000.49	84.3394	4,000.49	83.7764	4,000.49	82.5758	4,000.49	82.5341	4,000.49	80.9873	4,000.49	80.5058	4,000.49	78.9966	4,000.49	78.7163	4,000.49	77.05	4,000.49	76.7423	4,000.49	73.9225	4,000.49	75.03	4,000.49	72.1785	4,000.49	71.8669	4,000.49	71.6014	4,000.49	70.6671	4,000.49	68.1852	4,000.49	67.5265	4,000.49	69.7441	4,000.49	68.5396	4,000.49	67.6521	4,000.49	66.8438	4,000.49	67.3731	4,000.49	66.4595	4,000.49	65.4205	4,000.49	66.5168	4,000.49	58.3579	4,000.49	56.6272	4,000.49	65.9446
4,141.11	83.886	4,141.11	84.1742	4,141.11	84.1362	4,141.11	84.9216	4,141.11	84.248	4,141.11	84.3366	4,141.11	84.0832	4,141.11	83.3727	4,141.11	83.9906	4,141.11	82.6939	4,141.11	82.8409	4,141.11	80.3742	4,141.11	81.0214	4,141.11	77.5061	4,141.11	79.1654	4,141.11	76.6698	4,141.11	77.0053	4,141.11	74.8617	4,141.11	75.1294	4,141.11	72.68	4,141.11	73.4614	4,141.11	71.9651	4,141.11	72.1754	4,141.11	68.024	4,141.11	68.6106	4,141.11	70.2797	4,141.11	68.0451	4,141.11	67.5578	4,141.11	68.233	4,141.11	66.2011	4,141.11	64.8722	4,141.11	65.7407	4,141.11	66.5345	4,141.11	60.7389	4,141.11	56.2412	4,141.11	64.6361
4,287.6	84.5386	4,287.6	85.1032	4,287.6	84.5066	4,287.6	84.8847	4,287.6	85.1535	4,287.6	84.7705	4,287.6	84.9828	4,287.6	83.9238	4,287.6	84.9108	4,287.6	83.3011	4,287.6	83.8883	4,287.6	81.1382	4,287.6	81.8665	4,287.6	78.9733	4,287.6	79.8058	4,287.6	77.3621	4,287.6	77.5012	4,287.6	75.091	4,287.6	75.8549	4,287.6	73.6522	4,287.6	73.5272	4,287.6	72.0436	4,287.6	71.8956	4,287.6	68.6477	4,287.6	70.8785	4,287.6	69.3888	4,287.6	68.185	4,287.6	67.786	4,287.6	69.8497	4,287.6	67.2692	4,287.6	66.098	4,287.6	66.6293	4,287.6	67.385	4,287.6	58.3347	4,287.6	58.2192	4,287.6	65.2668
4,438.48	84.502	4,438.48	84.5798	4,438.48	84.9332	4,438.48	84.846	4,438.48	85.1049	4,438.48	84.8736	4,438.48	85.2321	4,438.48	83.9659	4,438.48	84.521	4,438.48	82.5706	4,438.48	83.2499	4,438.48	80.8624	4,438.48	81.7117	4,438.48	79.0033	4,438.48	79.7701	4,438.48	77.0076	4,438.48	77.5997	4,438.48	74.5269	4,438.48	75.8742	4,438.48	72.4435	4,438.48	74.1539	4,438.48	70.5832	4,438.48	71.6541	4,438.48	68.8229	4,438.48	69.9951	4,438.48	68.8171	4,438.48	66.725	4,438.48	69.198	4,438.48	69.7323	4,438.48	66.826	4,438.48	64.957	4,438.48	66.3419	4,438.48	67.5964	4,438.48	59.9849	4,438.48	57.6242	4,438.48	65.2921
4,595.21	85.075	4,595.21	85.0132	4,595.21	85.1872	4,595.21	85.7912	4,595.21	85.4939	4,595.21	86.0733	4,595.21	85.833	4,595.21	85.1443	4,595.21	85.0546	4,595.21	83.5647	4,595.21	83.7384	4,595.21	81.7992	4,595.21	81.99	4,595.21	79.8387	4,595.21	79.617	4,595.21	77.5119	4,595.21	77.6512	4,595.21	74.7004	4,595.21	76.4255	4,595.21	73.1462	4,595.21	74.4019	4,595.21	70.881	4,595.21	72.0355	4,595.21	69.5684	4,595.21	70.7694	4,595.21	67.8422	4,595.21	68.0724	4,595.21	68.6316	4,595.21	69.9894	4,595.21	66.4694	4,595.21	66.9994	4,595.21	66.5539	4,595.21	68.4488	4,595.21	56.9114	4,595.21	57.5617	4,595.21	64.6682
4,756.35	83.9746	4,756.35	84.3554	4,756.35	83.937	4,756.35	84.8826	4,756.35	84.5195	4,756.35	84.5242	4,756.35	84.3465	4,756.35	83.8541	4,756.35	83.7969	4,756.35	83.0802	4,756.35	82.8774	4,756.35	81.1864	4,756.35	80.8452	4,756.35	79.3232	4,756.35	79.0594	4,756.35	77.5919	4,756.35	77.1097	4,756.35	75.3291	4,756.35	75.2221	4,756.35	73.7508	4,756.35	73.3199	4,756.35	71.9583	4,756.35	70.4175	4,756.35	70.5529	4,756.35	69.8036	4,756.35	68.9397	4,756.35	67.4602	4,756.35	69.5009	4,756.35	68.8777	4,756.35	68.0042	4,756.35	65.7009	4,756.35	66.9576	4,756.35	67.2905	4,756.35	59.4317	4,756.35	55.1342	4,756.35	65.0715
4,924.8	84.9868	4,924.8	84.8906	4,924.8	85.1115	4,924.8	84.7297	4,924.8	85.2233	4,924.8	84.3717	4,924.8	84.7931	4,924.8	83.2038	4,924.8	84.0786	4,924.8	81.6705	4,924.8	82.5933	4,924.8	79.8516	4,924.8	81.1662	4,924.8	77.8423	4,924.8	79.2884	4,924.8	76.1418	4,924.8	77.3576	4,924.8	73.4716	4,924.8	74.851	4,924.8	70.927	4,924.8	72.757	4,924.8	69.6971	4,924.8	70.3642	4,924.8	67.3081	4,924.8	68.5104	4,924.8	65.5081	4,924.8	67.1907	4,924.8	67.7539	4,924.8	68.5538	4,924.8	64.797	4,924.8	66.7406	4,924.8	64.8766	4,924.8	66.7504	4,924.8	49.3723	4,924.8	59.4622	4,924.8	63.3573
5,097.66	85.6399	5,097.66	85.4321	5,097.66	85.7323	5,097.66	85.4233	5,097.66	85.2405	5,097.66	85.1853	5,097.66	85.0593	5,097.66	84.3174	5,097.66	84.1905	5,097.66	82.8476	5,097.66	82.8504	5,097.66	81.4837	5,097.66	81.8437	5,097.66	79.3532	5,097.66	79.447	5,097.66	77.8361	5,097.66	77.5762	5,097.66	75.6282	5,097.66	75.1176	5,097.66	73.5599	5,097.66	73.2177	5,097.66	71.828	5,097.66	71.9006	5,097.66	69.6832	5,097.66	68.4751	5,097.66	67.685	5,097.66	67.0151	5,097.66	70.1257	5,097.66	67.8905	5,097.66	66.7402	5,097.66	66.735	5,097.66	67.3913	5,097.66	66.6186	5,097.66	58.3349	5,097.66	59.4862	5,097.66	63.9405
5,277.83	86.6457	5,277.83	86.5416	5,277.83	86.5375	5,277.83	86.1148	5,277.83	86.3216	5,277.83	85.3295	5,277.83	85.2998	5,277.83	84.7518	5,277.83	84.5587	5,277.83	83.2783	5,277.83	83.4845	5,277.83	81.5037	5,277.83	81.3977	5,277.83	79.0336	5,277.83	79.0536	5,277.83	76.4836	5,277.83	76.7786	5,277.83	74.5138	5,277.83	75.0912	5,277.83	72.6366	5,277.83	72.5569	5,277.83	70.2474	5,277.83	71.6605	5,277.83	67.6084	5,277.83	68.9404	5,277.83	65.7332	5,277.83	67.0162	5,277.83	67.7621	5,277.83	65.5833	5,277.83	64.4765	5,277.83	67.0137	5,277.83	66.1617	5,277.83	65.8082	5,277.83	56.4892	5,277.83	60.5753	5,277.83	61.1854
5,463.87	86.9235	5,463.87	86.3775	5,463.87	86.6093	5,463.87	85.8948	5,463.87	86.5053	5,463.87	84.9115	5,463.87	85.351	5,463.87	83.6355	5,463.87	84.0091	5,463.87	82.5687	5,463.87	82.7756	5,463.87	80.3071	5,463.87	80.7599	5,463.87	78.9055	5,463.87	79.4844	5,463.87	76.1861	5,463.87	77.1055	5,463.87	73.6334	5,463.87	74.4568	5,463.87	72.984	5,463.87	71.9354	5,463.87	71.0985	5,463.87	70.829	5,463.87	68.8071	5,463.87	69.0143	5,463.87	67.1479	5,463.87	67.2756	5,463.87	64.1552	5,463.87	65.243	5,463.87	63.8414	5,463.87	66.1631	5,463.87	65.9439	5,463.87	63.9378	5,463.87	54.0784	5,463.87	61.1951	5,463.87	61.8524
5,657.23	88.1907	5,657.23	87.676	5,657.23	88.0319	5,657.23	86.9319	5,657.23	87.1817	5,657.23	86.1861	5,657.23	86.512	5,657.23	84.4386	5,657.23	85.0921	5,657.23	82.5239	5,657.23	83.4183	5,657.23	80.8638	5,657.23	81.7939	5,657.23	78.5957	5,657.23	79.0752	5,657.23	75.7402	5,657.23	77.0252	5,657.23	74.3299	5,657.23	74.6127	5,657.23	70.4334	5,657.23	72.6529	5,657.23	70.2739	5,657.23	69.8577	5,657.23	68.669	5,657.23	68.6076	5,657.23	63.7483	5,657.23	66.1198	5,657.23	66.5861	5,657.23	65.6311	5,657.23	64.1116	5,657.23	65.5626	5,657.23	63.7598	5,657.23	63.0134	5,657.23	53.4078	5,657.23	61.9191	5,657.23	62.893
5,856.45	87.5958	5,856.45	87.033	5,856.45	87.4448	5,856.45	86.2845	5,856.45	86.5139	5,856.45	85.27	5,856.45	85.4581	5,856.45	84.3591	5,856.45	84.5206	5,856.45	82.9174	5,856.45	83.5874	5,856.45	81.726	5,856.45	81.8106	5,856.45	79.7677	5,856.45	80.0714	5,856.45	77.439	5,856.45	77.883	5,856.45	75.8391	5,856.45	76.1435	5,856.45	72.7742	5,856.45	73.1248	5,856.45	71.2921	5,856.45	71.1341	5,856.45	69.9957	5,856.45	70.1807	5,856.45	68.5908	5,856.45	68.1611	5,856.45	69.6402	5,856.45	67.2375	5,856.45	67.3214	5,856.45	69.3449	5,856.45	65.0244	5,856.45	64.6901	5,856.45	57.0626	5,856.45	63.4765	5,856.45	64.1061
6,062.99	87.7621	6,062.99	87.3691	6,062.99	87.3868	6,062.99	86.4382	6,062.99	86.7228	6,062.99	85.3965	6,062.99	85.5432	6,062.99	84.8046	6,062.99	84.7261	6,062.99	84.3827	6,062.99	84.1895	6,062.99	83.1317	6,062.99	83.3933	6,062.99	81.532	6,062.99	81.8549	6,062.99	79.1639	6,062.99	79.9341	6,062.99	76.8488	6,062.99	77.543	6,062.99	74.857	6,062.99	75.3766	6,062.99	72.8844	6,062.99	72.7096	6,062.99	70.512	6,062.99	71.1293	6,062.99	68.4601	6,062.99	70.0767	6,062.99	67.5846	6,062.99	67.3567	6,062.99	68.6884	6,062.99	69.6188	6,062.99	67.3557	6,062.99	66.5291	6,062.99	59.4823	6,062.99	63.5004	6,062.99	64.9492
6,276.86	87.5628	6,276.86	86.9805	6,276.86	87.139	6,276.86	85.5765	6,276.86	85.977	6,276.86	85.2357	6,276.86	85.0882	6,276.86	85.1627	6,276.86	84.8113	6,276.86	85.0426	6,276.86	84.9472	6,276.86	83.9231	6,276.86	84.2143	6,276.86	82.1018	6,276.86	82.5357	6,276.86	79.8226	6,276.86	80.4406	6,276.86	77.8723	6,276.86	77.9151	6,276.86	75.6636	6,276.86	75.6953	6,276.86	74.1417	6,276.86	73.2387	6,276.86	72.4175	6,276.86	72.2374	6,276.86	69.7894	6,276.86	69.1338	6,276.86	69.2364	6,276.86	68.3436	6,276.86	69.3275	6,276.86	69.9063	6,276.86	68.3768	6,276.86	66.4428	6,276.86	61.7425	6,276.86	65.8574	6,276.86	64.5922
6,498.05	87.7435	6,498.05	86.8663	6,498.05	87.1746	6,498.05	85.495	6,498.05	85.6083	6,498.05	85.2922	6,498.05	84.8585	6,498.05	85.8873	6,498.05	85.4988	6,498.05	85.8013	6,498.05	85.888	6,498.05	84.9678	6,498.05	84.9345	6,498.05	83.0228	6,498.05	83.5143	6,498.05	81.0587	6,498.05	81.4235	6,498.05	78.8777	6,498.05	78.7484	6,498.05	76.1129	6,498.05	76.6611	6,498.05	73.9922	6,498.05	74.4043	6,498.05	72.2844	6,498.05	72.7006	6,498.05	70.3268	6,498.05	70.8981	6,498.05	69.5514	6,498.05	68.5356	6,498.05	69.4444	6,498.05	70.4839	6,498.05	67.863	6,498.05	66.9448	6,498.05	61.8684	6,498.05	66.8831	6,498.05	64.7171
6,726.56	87.6943	6,726.56	86.6156	6,726.56	87.0682	6,726.56	85.1253	6,726.56	85.425	6,726.56	85.1339	6,726.56	84.9249	6,726.56	86.056	6,726.56	85.8507	6,726.56	86.1229	6,726.56	86.4558	6,726.56	85.286	6,726.56	85.9128	6,726.56	83.6044	6,726.56	84.2793	6,726.56	81.3756	6,726.56	82.0936	6,726.56	79.2162	6,726.56	79.6828	6,726.56	76.8924	6,726.56	77.3251	6,726.56	73.9645	6,726.56	75.1496	6,726.56	72.6248	6,726.56	73.4302	6,726.56	70.9658	6,726.56	72.0492	6,726.56	69.3999	6,726.56	68.448	6,726.56	69.9904	6,726.56	71.1091	6,726.56	68.213	6,726.56	68.2153	6,726.56	62.0511	6,726.56	67.3038	6,726.56	63.9779
6,963.87	86.9441	6,963.87	85.6466	6,963.87	86.0721	6,963.87	84.2685	6,963.87	84.3675	6,963.87	84.7803	6,963.87	84.3791	6,963.87	85.7634	6,963.87	85.6599	6,963.87	86.096	6,963.87	86.2201	6,963.87	85.1524	6,963.87	85.5627	6,963.87	83.185	6,963.87	83.8075	6,963.87	81.3374	6,963.87	81.5989	6,963.87	78.4903	6,963.87	79.1894	6,963.87	76.3198	6,963.87	76.9508	6,963.87	74.1451	6,963.87	74.3899	6,963.87	72.1209	6,963.87	72.8704	6,963.87	70.8835	6,963.87	70.8041	6,963.87	69.7317	6,963.87	68.6975	6,963.87	69.8097	6,963.87	69.9045	6,963.87	68.3735	6,963.87	67.4937	6,963.87	62.1821	6,963.87	67.4459	6,963.87	63.2112
7,209.96	86.8866	7,209.96	86.0061	7,209.96	86.3115	7,209.96	84.834	7,209.96	84.9094	7,209.96	85.1772	7,209.96	84.6657	7,209.96	86.3259	7,209.96	86.0652	7,209.96	86.5142	7,209.96	86.4765	7,209.96	85.7037	7,209.96	85.6103	7,209.96	83.6815	7,209.96	83.9144	7,209.96	81.7527	7,209.96	81.7247	7,209.96	78.9671	7,209.96	79.2428	7,209.96	76.3294	7,209.96	76.9607	7,209.96	74.1315	7,209.96	74.613	7,209.96	72.3272	7,209.96	72.6987	7,209.96	70.3644	7,209.96	71.0173	7,209.96	69.2962	7,209.96	68.4929	7,209.96	69.4285	7,209.96	69.4702	7,209.96	68.1613	7,209.96	68.2414	7,209.96	64.3552	7,209.96	67.2256	7,209.96	61.2887
7,464.84	85.9608	7,464.84	85.2529	7,464.84	85.5361	7,464.84	84.695	7,464.84	84.6752	7,464.84	84.7423	7,464.84	84.7605	7,464.84	85.7401	7,464.84	85.7485	7,464.84	85.5481	7,464.84	86.1559	7,464.84	84.6977	7,464.84	85.1976	7,464.84	82.7814	7,464.84	83.3459	7,464.84	80.3018	7,464.84	81.1514	7,464.84	77.6964	7,464.84	78.9497	7,464.84	75.8602	7,464.84	76.3057	7,464.84	73.2501	7,464.84	73.9518	7,464.84	71.5043	7,464.84	71.5068	7,464.84	69.7273	7,464.84	69.5741	7,464.84	68.447	7,464.84	67.5091	7,464.84	69.2067	7,464.84	68.7756	7,464.84	67.4632	7,464.84	67.8891	7,464.84	63.1122	7,464.84	66.2426	7,464.84	60.1172
7,727.05	86.1231	7,727.05	85.7074	7,727.05	85.8864	7,727.05	85.4776	7,727.05	85.6843	7,727.05	85.2438	7,727.05	85.6457	7,727.05	85.8291	7,727.05	86.1356	7,727.05	85.7062	7,727.05	86.3117	7,727.05	84.8129	7,727.05	85.357	7,727.05	82.9284	7,727.05	83.5425	7,727.05	80.617	7,727.05	81.5039	7,727.05	78.033	7,727.05	78.897	7,727.05	75.8921	7,727.05	76.4937	7,727.05	73.2943	7,727.05	74.3972	7,727.05	71.8528	7,727.05	71.8676	7,727.05	69.5432	7,727.05	70.6221	7,727.05	68.6139	7,727.05	68.2073	7,727.05	69.572	7,727.05	68.2067	7,727.05	67.7812	7,727.05	67.8563	7,727.05	64.0009	7,727.05	67.3511	7,727.05	58.9592
7,999.51	85.1392	7,999.51	85.5274	7,999.51	85.4279	7,999.51	85.4879	7,999.51	85.9619	7,999.51	85.0626	7,999.51	85.6593	7,999.51	85.2927	7,999.51	85.8179	7,999.51	85.2317	7,999.51	85.7521	7,999.51	84.509	7,999.51	84.9622	7,999.51	82.5997	7,999.51	83.3183	7,999.51	80.3208	7,999.51	81.2426	7,999.51	77.9581	7,999.51	78.645	7,999.51	75.2262	7,999.51	76.1127	7,999.51	72.7455	7,999.51	73.7138	7,999.51	71.2287	7,999.51	71.6993	7,999.51	69.0531	7,999.51	69.6882	7,999.51	68.2336	7,999.51	68.1224	7,999.51	69.3065	7,999.51	67.8177	7,999.51	66.6397	7,999.51	67.5427	7,999.51	62.8761	7,999.51	66.2925	7,999.51	59.0554
8,282.23	84.7957	8,282.23	85.958	8,282.23	85.4479	8,282.23	86.463	8,282.23	86.6007	8,282.23	85.6642	8,282.23	86.0222	8,282.23	85.2293	8,282.23	85.5734	8,282.23	84.912	8,282.23	85.3698	8,282.23	84.2113	8,282.23	84.533	8,282.23	82.6447	8,282.23	83.084	8,282.23	80.5508	8,282.23	80.9098	8,282.23	77.9055	8,282.23	78.6101	8,282.23	75.2821	8,282.23	75.9546	8,282.23	73.2529	8,282.23	73.5695	8,282.23	71.2915	8,282.23	71.2209	8,282.23	69.0286	8,282.23	69.4236	8,282.23	67.0837	8,282.23	67.5867	8,282.23	69.6408	8,282.23	67.7111	8,282.23	67.4047	8,282.23	67.3019	8,282.23	62.3243	8,282.23	66.1687	8,282.23	59.9901
8,573.73	84.2727	8,573.73	86.3935	8,573.73	85.4358	8,573.73	87.3509	8,573.73	87.3467	8,573.73	85.7068	8,573.73	86.5444	8,573.73	84.4909	8,573.73	85.34	8,573.73	84.484	8,573.73	84.986	8,573.73	84.0168	8,573.73	84.4322	8,573.73	82.4759	8,573.73	83.0928	8,573.73	80.2154	8,573.73	81.1208	8,573.73	77.8613	8,573.73	78.8126	8,573.73	74.9412	8,573.73	76.131	8,573.73	72.9567	8,573.73	73.7278	8,573.73	70.7187	8,573.73	71.1093	8,573.73	68.2447	8,573.73	69.4547	8,573.73	66.9051	8,573.73	67.5724	8,573.73	69.5275	8,573.73	67.3837	8,573.73	66.8879	8,573.73	67.9372	8,573.73	63.1243	8,573.73	65.7904	8,573.73	59.9859
8,876.95	84.3219	8,876.95	86.8086	8,876.95	85.9422	8,876.95	87.7604	8,876.95	87.7961	8,876.95	85.7726	8,876.95	86.5157	8,876.95	83.9617	8,876.95	84.5654	8,876.95	83.9287	8,876.95	84.3628	8,876.95	83.8394	8,876.95	84.2026	8,876.95	82.5809	8,876.95	83.2263	8,876.95	80.3636	8,876.95	81.2002	8,876.95	77.8556	8,876.95	78.8834	8,876.95	75.2925	8,876.95	75.9973	8,876.95	73.4321	8,876.95	73.7019	8,876.95	70.9264	8,876.95	70.7835	8,876.95	68.8748	8,876.95	69.2305	8,876.95	66.5079	8,876.95	67.3577	8,876.95	69.0221	8,876.95	66.9734	8,876.95	67.3472	8,876.95	67.0481	8,876.95	62.3579	8,876.95	65.7291	8,876.95	60.6759
9,188.96	85.5741	9,188.96	86.8939	9,188.96	86.7727	9,188.96	87.6074	9,188.96	87.8276	9,188.96	85.8942	9,188.96	86.2396	9,188.96	84.698	9,188.96	84.7273	9,188.96	85.1194	9,188.96	85.2575	9,188.96	84.7654	9,188.96	85.328	9,188.96	83.1408	9,188.96	84.1331	9,188.96	80.3337	9,188.96	81.9349	9,188.96	77.8766	9,188.96	79.1366	9,188.96	74.766	9,188.96	76.1937	9,188.96	72.7175	9,188.96	73.5027	9,188.96	69.6636	9,188.96	71.0705	9,188.96	68.1793	9,188.96	68.4048	9,188.96	66.7647	9,188.96	67.4901	9,188.96	68.4647	9,188.96	66.6899	9,188.96	64.7901	9,188.96	66.9089	9,188.96	61.746	9,188.96	65.5808	9,188.96	60.8464
9,514.16	86.4761	9,514.16	86.34	9,514.16	86.9919	9,514.16	86.358	9,514.16	86.6977	9,514.16	85.6975	9,514.16	85.1188	9,514.16	85.4926	9,514.16	85.1492	9,514.16	85.4851	9,514.16	86.0284	9,514.16	84.5192	9,514.16	85.7442	9,514.16	82.4328	9,514.16	83.8909	9,514.16	79.344	9,514.16	81.09	9,514.16	76.6283	9,514.16	78.1258	9,514.16	73.7289	9,514.16	75.0702	9,514.16	71.4738	9,514.16	72.3506	9,514.16	68.6388	9,514.16	69.7408	9,514.16	67.1526	9,514.16	67.6937	9,514.16	65.6638	9,514.16	65.9231	9,514.16	66.6889	9,514.16	65.9511	9,514.16	62.8721	9,514.16	65.6894	9,514.16	60.4169	9,514.16	64.0313	9,514.16	59.0628
9,849.61	86.6314	9,849.61	85.9486	9,849.61	86.5892	9,849.61	85.8956	9,849.61	85.7753	9,849.61	86.0645	9,849.61	85.337	9,849.61	85.9515	9,849.61	85.9019	9,849.61	85.5738	9,849.61	86.1653	9,849.61	84.0656	9,849.61	85.0193	9,849.61	81.7676	9,849.61	82.7088	9,849.61	78.9021	9,849.61	79.8814	9,849.61	76.161	9,849.61	76.7176	9,849.61	72.7947	9,849.61	73.8113	9,849.61	70.5257	9,849.61	71.1255	9,849.61	67.7169	9,849.61	68.3635	9,849.61	65.9938	9,849.61	66.5286	9,849.61	65.3463	9,849.61	65.0029	9,849.61	64.7345	9,849.61	64.2087	9,849.61	59.8742	9,849.61	64.3773	9,849.61	60.3884	9,849.61	62.8784	9,849.61	56.6838
10,196.8	86.4964	10,196.8	85.841	10,196.8	86.1444	10,196.8	85.7271	10,196.8	85.4938	10,196.8	86.0346	10,196.8	85.5318	10,196.8	85.7148	10,196.8	85.7685	10,196.8	85.0876	10,196.8	85.6211	10,196.8	83.4939	10,196.8	84.1772	10,196.8	81.2088	10,196.8	81.891	10,196.8	78.4371	10,196.8	79.0815	10,196.8	75.5319	10,196.8	76.2545	10,196.8	72.1543	10,196.8	73.3433	10,196.8	69.9566	10,196.8	70.617	10,196.8	66.8877	10,196.8	68.0262	10,196.8	65.2626	10,196.8	66.0339	10,196.8	64.4276	10,196.8	64.5591	10,196.8	64.0837	10,196.8	63.5115	10,196.8	58.9352	10,196.8	63.9798	10,196.8	59.1857	10,196.8	62.4324	10,196.8	57.0065
10,555.7	86.1904	10,555.7	85.3696	10,555.7	85.6994	10,555.7	85.169	10,555.7	85.2217	10,555.7	85.5911	10,555.7	85.4629	10,555.7	85.0762	10,555.7	85.2683	10,555.7	84.348	10,555.7	84.7407	10,555.7	83.1275	10,555.7	83.5348	10,555.7	80.9461	10,555.7	81.8133	10,555.7	78.2724	10,555.7	79.4418	10,555.7	75.2407	10,555.7	76.5787	10,555.7	71.861	10,555.7	73.3487	10,555.7	69.3904	10,555.7	70.7269	10,555.7	66.1402	10,555.7	67.7971	10,555.7	65.1826	10,555.7	66.1624	10,555.7	63.6167	10,555.7	64.7932	10,555.7	63.8136	10,555.7	64.0185	10,555.7	58.0289	10,555.7	63.7503	10,555.7	58.4416	10,555.7	62.2266	10,555.7	58.2865
10,927.7	85.8877	10,927.7	84.8445	10,927.7	85.2736	10,927.7	84.7217	10,927.7	84.9211	10,927.7	85.1147	10,927.7	85.1696	10,927.7	84.5147	10,927.7	84.5014	10,927.7	83.9798	10,927.7	84.2888	10,927.7	82.9083	10,927.7	83.6909	10,927.7	80.8275	10,927.7	82.1743	10,927.7	77.9628	10,927.7	79.6508	10,927.7	74.8759	10,927.7	76.6	10,927.7	71.7248	10,927.7	73.4413	10,927.7	68.7987	10,927.7	70.3194	10,927.7	65.1372	10,927.7	67.9957	10,927.7	64.7447	10,927.7	66.4064	10,927.7	63.1606	10,927.7	64.9043	10,927.7	62.4264	10,927.7	63.5812	10,927.7	55.5852	10,927.7	63.1894	10,927.7	58.1157	10,927.7	61.6489	10,927.7	58.3574
11,313	85.6269	11,313	84.6042	11,313	84.9631	11,313	84.4321	11,313	84.7808	11,313	84.669	11,313	85.0116	11,313	83.9209	11,313	84.1768	11,313	83.8123	11,313	84.1327	11,313	82.9654	11,313	83.7372	11,313	80.8772	11,313	82.3367	11,313	77.9834	11,313	79.897	11,313	74.4228	11,313	76.6394	11,313	71.6057	11,313	73.4034	11,313	68.4905	11,313	70.3742	11,313	65.072	11,313	67.9016	11,313	64.1858	11,313	65.9556	11,313	63.3674	11,313	64.7788	11,313	61.7122	11,313	62.9174	11,313	54.0388	11,313	62.7919	11,313	57.4096	11,313	60.9907	11,313	57.3128
11,712.9	85.5152	11,712.9	84.5856	11,712.9	84.9236	11,712.9	84.5447	11,712.9	84.8894	11,712.9	84.2121	11,712.9	84.7295	11,712.9	83.2759	11,712.9	83.6339	11,712.9	83.6239	11,712.9	83.8426	11,712.9	83.146	11,712.9	83.8455	11,712.9	80.9737	11,712.9	82.5338	11,712.9	78.0514	11,712.9	79.879	11,712.9	74.3339	11,712.9	76.7946	11,712.9	71.6516	11,712.9	73.57	11,712.9	67.8472	11,712.9	70.28	11,712.9	65.569	11,712.9	67.9656	11,712.9	64.3689	11,712.9	65.9707	11,712.9	63.8617	11,712.9	64.565	11,712.9	62.0504	11,712.9	62.1167	11,712.9	53.7259	11,712.9	62.4828	11,712.9	57.2317	11,712.9	60.9109	11,712.9	57.8031
12,126	85.8431	12,126	85.192	12,126	85.4138	12,126	84.9901	12,126	85.2544	12,126	84.0713	12,126	84.7291	12,126	83.0026	12,126	83.2868	12,126	83.4075	12,126	83.7803	12,126	83.1244	12,126	84.0555	12,126	80.903	12,126	82.5804	12,126	77.5561	12,126	79.9226	12,126	74.1695	12,126	76.4915	12,126	71.4207	12,126	73.3946	12,126	67.9233	12,126	70.1898	12,126	66.6945	12,126	67.4604	12,126	64.6386	12,126	65.6382	12,126	63.3007	12,126	64.4974	12,126	59.541	12,126	62.1718	12,126	53.3222	12,126	62.301	12,126	56.672	12,126	60.3724	12,126	57.3148
12,553.7	85.9716	12,553.7	85.4754	12,553.7	85.7054	12,553.7	85.1377	12,553.7	85.5029	12,553.7	84.1294	12,553.7	84.6488	12,553.7	83.1722	12,553.7	83.5303	12,553.7	83.6509	12,553.7	83.9168	12,553.7	83.218	12,553.7	84.0542	12,553.7	80.9399	12,553.7	82.4855	12,553.7	78.2669	12,553.7	79.713	12,553.7	74.059	12,553.7	76.3601	12,553.7	71.0835	12,553.7	73.1948	12,553.7	67.5927	12,553.7	70.093	12,553.7	66.3561	12,553.7	67.2262	12,553.7	64.626	12,553.7	65.6253	12,553.7	62.6337	12,553.7	64.322	12,553.7	57.7531	12,553.7	61.8271	12,553.7	55.0589	12,553.7	62.0567	12,553.7	55.1776	12,553.7	59.663	12,553.7	56.957
12,996.1	85.854	12,996.1	85.5903	12,996.1	85.7978	12,996.1	85.1132	12,996.1	85.5064	12,996.1	84.0147	12,996.1	84.6037	12,996.1	83.2025	12,996.1	83.7669	12,996.1	83.4131	12,996.1	83.8035	12,996.1	83.0947	12,996.1	83.8011	12,996.1	80.7702	12,996.1	82.1823	12,996.1	77.985	12,996.1	79.442	12,996.1	74.0774	12,996.1	76.1057	12,996.1	71.0694	12,996.1	72.7713	12,996.1	66.9181	12,996.1	69.5077	12,996.1	65.7011	12,996.1	67.2506	12,996.1	64.2337	12,996.1	65.2306	12,996.1	62.2005	12,996.1	64.1302	12,996.1	56.4707	12,996.1	61.3066	12,996.1	56.5297	12,996.1	61.5182	12,996.1	53.0658	12,996.1	59.1563	12,996.1	56.4738
13,454.6	85.682	13,454.6	85.488	13,454.6	85.769	13,454.6	84.8063	13,454.6	85.2951	13,454.6	83.9136	13,454.6	84.4597	13,454.6	83.084	13,454.6	83.7459	13,454.6	83.0135	13,454.6	83.3635	13,454.6	82.6972	13,454.6	83.348	13,454.6	80.4403	13,454.6	81.909	13,454.6	77.4427	13,454.6	79.1824	13,454.6	73.8094	13,454.6	75.8462	13,454.6	70.7892	13,454.6	72.3506	13,454.6	66.9372	13,454.6	69.1171	13,454.6	66.1425	13,454.6	66.8436	13,454.6	64.0043	13,454.6	64.6755	13,454.6	62.1872	13,454.6	63.6013	13,454.6	55.2827	13,454.6	60.792	13,454.6	57.2366	13,454.6	61.3052	13,454.6	50.9225	13,454.6	59.2741	13,454.6	56.7207
13,929.2	85.4781	13,929.2	85.408	13,929.2	85.6428	13,929.2	84.467	13,929.2	85.0576	13,929.2	83.6408	13,929.2	84.2783	13,929.2	82.7025	13,929.2	83.5979	13,929.2	82.4033	13,929.2	82.9078	13,929.2	82.185	13,929.2	82.9722	13,929.2	80.0811	13,929.2	81.82	13,929.2	77.1617	13,929.2	78.97	13,929.2	73.4707	13,929.2	75.7812	13,929.2	70.064	13,929.2	72.1973	13,929.2	66.3983	13,929.2	68.9623	13,929.2	65.9961	13,929.2	66.5182	13,929.2	63.4871	13,929.2	63.7468	13,929.2	61.4519	13,929.2	62.9446	13,929.2	54.4329	13,929.2	60.1964	13,929.2	58.1165	13,929.2	60.949	13,929.2	48.1573	13,929.2	59.4154	13,929.2	56.4149
14,419.9	85.4209	14,419.9	85.3623	14,419.9	85.6612	14,419.9	84.4147	14,419.9	84.9272	14,419.9	83.6305	14,419.9	84.2802	14,419.9	82.3522	14,419.9	83.5625	14,419.9	81.9566	14,419.9	82.7371	14,419.9	81.8582	14,419.9	82.949	14,419.9	79.7893	14,419.9	81.8232	14,419.9	76.5816	14,419.9	78.8778	14,419.9	73.1131	14,419.9	75.8085	14,419.9	69.3087	14,419.9	71.9109	14,419.9	65.9703	14,419.9	68.8404	14,419.9	65.2713	14,419.9	66.5707	14,419.9	62.0233	14,419.9	63.2485	14,419.9	60.1102	14,419.9	62.2868	14,419.9	52.9738	14,419.9	59.0721	14,419.9	57.7855	14,419.9	60.5665	14,419.9	42.6476	14,419.9	59.5014	14,419.9	57.0855
14,928.2	85.5818	14,928.2	85.2893	14,928.2	85.8064	14,928.2	84.3457	14,928.2	85.0839	14,928.2	83.5968	14,928.2	84.5372	14,928.2	82.1975	14,928.2	83.6368	14,928.2	81.6463	14,928.2	82.7163	14,928.2	81.5433	14,928.2	82.9069	14,928.2	79.5703	14,928.2	81.8604	14,928.2	76.2315	14,928.2	78.8263	14,928.2	72.9052	14,928.2	75.6311	14,928.2	68.879	14,928.2	71.6808	14,928.2	65.8687	14,928.2	68.699	14,928.2	64.5766	14,928.2	66.0634	14,928.2	60.9293	14,928.2	63.1327	14,928.2	58.7622	14,928.2	61.8139	14,928.2	48.9219	14,928.2	58.124	14,928.2	57.7256	14,928.2	60.1436	14,928.2	33.428	14,928.2	59.6748	14,928.2	56.7187
15,455.6	85.6652	15,455.6	85.2086	15,455.6	85.7579	15,455.6	84.3287	15,455.6	85.1882	15,455.6	83.6233	15,455.6	84.6629	15,455.6	82.1768	15,455.6	83.5687	15,455.6	81.496	15,455.6	82.5863	15,455.6	81.3643	15,455.6	82.6091	15,455.6	79.5226	15,455.6	81.777	15,455.6	76.2142	15,455.6	78.6973	15,455.6	72.8302	15,455.6	75.5595	15,455.6	68.4356	15,455.6	71.4602	15,455.6	65.7733	15,455.6	68.4583	15,455.6	64.5965	15,455.6	65.39	15,455.6	60.5994	15,455.6	62.6105	15,455.6	58.5888	15,455.6	61.7464	15,455.6	46.9342	15,455.6	57.2797	15,455.6	57.7835	15,455.6	59.1733	15,455.6	38.8863	15,455.6	59.6072	15,455.6	55.9236
16,000.5	85.5501	16,000.5	84.9203	16,000.5	85.4759	16,000.5	84.2467	16,000.5	85.056	16,000.5	83.4417	16,000.5	84.4271	16,000.5	81.9243	16,000.5	83.3335	16,000.5	81.2611	16,000.5	82.2908	16,000.5	81.206	16,000.5	82.2113	16,000.5	79.5586	16,000.5	81.4651	16,000.5	76.343	16,000.5	78.3253	16,000.5	73.001	16,000.5	75.3173	16,000.5	68.4209	16,000.5	70.9623	16,000.5	66.1084	16,000.5	67.9959	16,000.5	63.9106	16,000.5	64.9567	16,000.5	59.9911	16,000.5	61.8095	16,000.5	58.5866	16,000.5	61.0552	16,000.5	50.5272	16,000.5	56.4767	16,000.5	57.6468	16,000.5	57.8331	16,000.5	40.5817	16,000.5	58.8533	16,000.5	55.4678
16,564.5	85.1841	16,564.5	84.5214	16,564.5	84.984	16,564.5	84.0369	16,564.5	84.5832	16,564.5	83.0474	16,564.5	83.8141	16,564.5	81.6251	16,564.5	82.7609	16,564.5	80.6648	16,564.5	81.673	16,564.5	80.8174	16,564.5	81.5674	16,564.5	79.3049	16,564.5	80.7324	16,564.5	76.0541	16,564.5	77.6945	16,564.5	72.5953	16,564.5	74.5296	16,564.5	68.1789	16,564.5	70.3034	16,564.5	66.2337	16,564.5	67.1958	16,564.5	63.3306	16,564.5	64.1818	16,564.5	58.6208	16,564.5	61.352	16,564.5	57.4328	16,564.5	59.7243	16,564.5	52.3115	16,564.5	54.8463	16,564.5	57.4054	16,564.5	56.2445	16,564.5	42.1272	16,564.5	57.1741	16,564.5	54.4658
17,148.9	84.4666	17,148.9	83.8664	17,148.9	84.2949	17,148.9	83.4116	17,148.9	83.9755	17,148.9	82.4321	17,148.9	83.1725	17,148.9	81.1669	17,148.9	82.0463	17,148.9	80.2758	17,148.9	80.7482	17,148.9	80.3761	17,148.9	80.4951	17,148.9	79.0552	17,148.9	79.8567	17,148.9	75.7453	17,148.9	77.117	17,148.9	72.2149	17,148.9	73.5303	17,148.9	68.0614	17,148.9	69.5366	17,148.9	66.0977	17,148.9	66.1892	17,148.9	62.9323	17,148.9	63.1549	17,148.9	58.6431	17,148.9	60.4007	17,148.9	56.3983	17,148.9	58.4168	17,148.9	51.5622	17,148.9	51.9895	17,148.9	56.9847	17,148.9	54.0915	17,148.9	42.0885	17,148.9	55.3575	17,148.9	53.4691
17,752.4	83.8055	17,752.4	83.282	17,752.4	83.5988	17,752.4	82.7747	17,752.4	83.3955	17,752.4	81.836	17,752.4	82.4751	17,752.4	80.5341	17,752.4	81.4708	17,752.4	79.7587	17,752.4	80.1149	17,752.4	79.9829	17,752.4	79.9374	17,752.4	78.8684	17,752.4	79.4417	17,752.4	75.5158	17,752.4	76.7205	17,752.4	71.907	17,752.4	73.2061	17,752.4	67.7287	17,752.4	68.914	17,752.4	65.6695	17,752.4	65.7288	17,752.4	62.2482	17,752.4	62.2545	17,752.4	58.0159	17,752.4	59.3447	17,752.4	55.2292	17,752.4	58.1087	17,752.4	52.0988	17,752.4	49.1382	17,752.4	56.515	17,752.4	52.4058	17,752.4	42.1956	17,752.4	52.7692	17,752.4	52.1871
18,379.4	83.3091	18,379.4	82.9831	18,379.4	83.1893	18,379.4	82.557	18,379.4	82.97	18,379.4	81.7163	18,379.4	82.0188	18,379.4	80.4967	18,379.4	81.114	18,379.4	79.4527	18,379.4	79.5759	18,379.4	79.7641	18,379.4	79.4635	18,379.4	78.6291	18,379.4	79.0082	18,379.4	75.3855	18,379.4	76.3979	18,379.4	71.4893	18,379.4	72.5681	18,379.4	67.2268	18,379.4	68.5258	18,379.4	65.1384	18,379.4	65.2089	18,379.4	61.352	18,379.4	61.6055	18,379.4	56.7026	18,379.4	58.6061	18,379.4	54.4374	18,379.4	55.95	18,379.4	53.1345	18,379.4	45.9933	18,379.4	55.8064	18,379.4	50.4935	18,379.4	44.0424	18,379.4	50.1883	18,379.4	51.0887
19,026.9	83.2856	19,026.9	83.1925	19,026.9	83.2429	19,026.9	82.7483	19,026.9	82.9534	19,026.9	81.9471	19,026.9	81.9081	19,026.9	80.8267	19,026.9	80.9465	19,026.9	79.7482	19,026.9	79.3717	19,026.9	79.9502	19,026.9	79.1687	19,026.9	78.8206	19,026.9	78.6782	19,026.9	75.6191	19,026.9	76.0933	19,026.9	71.5715	19,026.9	72.1176	19,026.9	67.4858	19,026.9	68.1673	19,026.9	65.1257	19,026.9	64.6707	19,026.9	60.962	19,026.9	61.0249	19,026.9	56.3367	19,026.9	57.9144	19,026.9	52.9778	19,026.9	54.6206	19,026.9	53.6841	19,026.9	43.426	19,026.9	54.9119	19,026.9	47.409	19,026.9	46.5088	19,026.9	49.5342	19,026.9	50.9041
19,697.8	83.6804	19,697.8	83.7673	19,697.8	83.6536	19,697.8	83.3654	19,697.8	83.2734	19,697.8	82.5315	19,697.8	82.1416	19,697.8	81.425	19,697.8	81.0373	19,697.8	80.219	19,697.8	79.4954	19,697.8	80.3195	19,697.8	79.1041	19,697.8	79.1807	19,697.8	78.4977	19,697.8	76.0952	19,697.8	75.9665	19,697.8	71.765	19,697.8	71.8738	19,697.8	67.986	19,697.8	68.0626	19,697.8	65.1711	19,697.8	64.3848	19,697.8	60.4396	19,697.8	60.3415	19,697.8	56.6128	19,697.8	57.3345	19,697.8	51.3808	19,697.8	53.9199	19,697.8	54.2416	19,697.8	39.3836	19,697.8	53.594	19,697.8	42.2608	19,697.8	48.0018	19,697.8	50.7025	19,697.8	50.858
19,999.5	83.926	19,999.5	83.9813	19,999.5	83.8517	19,999.5	83.5918	19,999.5	83.3698	19,999.5	82.8917	19,999.5	82.3131	19,999.5	81.7183	19,999.5	81.1143	19,999.5	80.4307	19,999.5	79.5609	19,999.5	80.3159	19,999.5	79.0653	19,999.5	79.2123	19,999.5	78.4174	19,999.5	76.2386	19,999.5	75.7501	19,999.5	71.583	19,999.5	71.7827	19,999.5	67.8783	19,999.5	68.2921	19,999.5	65.1107	19,999.5	64.9972	19,999.5	60.2348	19,999.5	60.1645	19,999.5	53.1559	19,999.5	58.1464	19,999.5	53.7409	19,999.5	53.7262	19,999.5	52.2587	19,999.5	42.8761	19,999.5	52.6922	19,999.5	40.9537	19,999.5	49.4366	19,999.5	55.4964	19,999.5	54.3223
