"SPL Vertical"
"On-Axis"		"10°"		"-10°"		"20°"		"-20°"		"30°"		"-30°"		"40°"		"-40°"		"50°"		"-50°"		"60°"		"-60°"		"70°"		"-70°"		"80°"		"-80°"		"90°"		"-90°"		"100°"		"-100°"		"110°"		"-110°"		"120°"		"-120°"		"130°"		"-130°"		"140°"		"-140°"		"150°"		"-150°"		"160°"		"-160°"		"170°"		"-170°"		"180°"
"Frequency / Hz"	"Sound Pressure Level / dB (re 20 µPa/V)  [2.83V at 1m]"	"Frequency / Hz"	"Sound Pressure Level / dB (re 20 µPa/V)  [2.83V at 1m]"	"Frequency / Hz"	"Sound Pressure Level / dB (re 20 µPa/V)  [2.83V at 1m]"	"Frequency / Hz"	"Sound Pressure Level / dB (re 20 µPa/V)  [2.83V at 1m]"	"Frequency / Hz"	"Sound Pressure Level / dB (re 20 µPa/V)  [2.83V at 1m]"	"Frequency / Hz"	"Sound Pressure Level / dB (re 20 µPa/V)  [2.83V at 1m]"	"Frequency / Hz"	"Sound Pressure Level / dB (re 20 µPa/V)  [2.83V at 1m]"	"Frequency / Hz"	"Sound Pressure Level / dB (re 20 µPa/V)  [2.83V at 1m]"	"Frequency / Hz"	"Sound Pressure Level / dB (re 20 µPa/V)  [2.83V at 1m]"	"Frequency / Hz"	"Sound Pressure Level / dB (re 20 µPa/V)  [2.83V at 1m]"	"Frequency / Hz"	"Sound Pressure Level / dB (re 20 µPa/V)  [2.83V at 1m]"	"Frequency / Hz"	"Sound Pressure Level / dB (re 20 µPa/V)  [2.83V at 1m]"	"Frequency / Hz"	"Sound Pressure Level / dB (re 20 µPa/V)  [2.83V at 1m]"	"Frequency / Hz"	"Sound Pressure Level / dB (re 20 µPa/V)  [2.83V at 1m]"	"Frequency / Hz"	"Sound Pressure Level / dB (re 20 µPa/V)  [2.83V at 1m]"	"Frequency / Hz"	"Sound Pressure Level / dB (re 20 µPa/V)  [2.83V at 1m]"	"Frequency / Hz"	"Sound Pressure Level / dB (re 20 µPa/V)  [2.83V at 1m]"	"Frequency / Hz"	"Sound Pressure Level / dB (re 20 µPa/V)  [2.83V at 1m]"	"Frequency / Hz"	"Sound Pressure Level / dB (re 20 µPa/V)  [2.83V at 1m]"	"Frequency / Hz"	"Sound Pressure Level / dB (re 20 µPa/V)  [2.83V at 1m]"	"Frequency / Hz"	"Sound Pressure Level / dB (re 20 µPa/V)  [2.83V at 1m]"	"Frequency / Hz"	"Sound Pressure Level / dB (re 20 µPa/V)  [2.83V at 1m]"	"Frequency / Hz"	"Sound Pressure Level / dB (re 20 µPa/V)  [2.83V at 1m]"	"Frequency / Hz"	"Sound Pressure Level / dB (re 20 µPa/V)  [2.83V at 1m]"	"Frequency / Hz"	"Sound Pressure Level / dB (re 20 µPa/V)  [2.83V at 1m]"	"Frequency / Hz"	"Sound Pressure Level / dB (re 20 µPa/V)  [2.83V at 1m]"	"Frequency / Hz"	"Sound Pressure Level / dB (re 20 µPa/V)  [2.83V at 1m]"	"Frequency / Hz"	"Sound Pressure Level / dB (re 20 µPa/V)  [2.83V at 1m]"	"Frequency / Hz"	"Sound Pressure Level / dB (re 20 µPa/V)  [2.83V at 1m]"	"Frequency / Hz"	"Sound Pressure Level / dB (re 20 µPa/V)  [2.83V at 1m]"	"Frequency / Hz"	"Sound Pressure Level / dB (re 20 µPa/V)  [2.83V at 1m]"	"Frequency / Hz"	"Sound Pressure Level / dB (re 20 µPa/V)  [2.83V at 1m]"	"Frequency / Hz"	"Sound Pressure Level / dB (re 20 µPa/V)  [2.83V at 1m]"	"Frequency / Hz"	"Sound Pressure Level / dB (re 20 µPa/V)  [2.83V at 1m]"	"Frequency / Hz"	"Sound Pressure Level / dB (re 20 µPa/V)  [2.83V at 1m]"	"Frequency / Hz"	"Sound Pressure Level / dB (re 20 µPa/V)  [2.83V at 1m]"
20.5078	41.8557	20.5078	41.8613	20.5078	41.7595	20.5078	41.7965	20.5078	41.6397	20.5078	41.752	20.5078	41.6756	20.5078	41.8722	20.5078	42.1266	20.5078	42.3056	20.5078	43.1526	20.5078	43.1164	20.5078	44.6447	20.5078	44.2404	20.5078	46.3356	20.5078	45.5398	20.5078	48.0024	20.5078	46.8848	20.5078	49.5245	20.5078	48.189	20.5078	50.852	20.5078	49.4052	20.5078	51.9702	20.5078	50.5102	20.5078	52.8801	20.5078	51.4933	20.5078	53.5886	20.5078	52.3494	20.5078	54.1048	20.5078	53.0751	20.5078	54.4383	20.5078	53.6671	20.5078	54.5982	20.5078	54.1211	20.5078	54.5934	20.5078	54.432
21.9727	47.503	21.9727	47.3469	21.9727	47.4114	21.9727	46.952	21.9727	47.0584	21.9727	46.3235	21.9727	46.4316	21.9727	45.4723	21.9727	45.5434	21.9727	44.4409	21.9727	44.5027	21.9727	43.3684	21.9727	43.6697	21.9727	42.5945	21.9727	43.6905	21.9727	42.6123	21.9727	44.8466	21.9727	43.5913	21.9727	46.6147	21.9727	45.1439	21.9727	48.4119	21.9727	46.8173	21.9727	49.9826	21.9727	48.3782	21.9727	51.2631	21.9727	49.7477	21.9727	52.2559	21.9727	50.9099	21.9727	52.9803	21.9727	51.8676	21.9727	53.4571	21.9727	52.6269	21.9727	53.7041	21.9727	53.1918	21.9727	53.7356	21.9727	53.5625
23.4375	47.2249	23.4375	47.0528	23.4375	47.1261	23.4375	46.6206	23.4375	46.7505	23.4375	45.9477	23.4375	46.1148	23.4375	45.0859	23.4375	45.3147	23.4375	44.1799	23.4375	44.6489	23.4375	43.5583	23.4375	44.6765	23.4375	43.6793	23.4375	45.7492	23.4375	44.7025	23.4375	47.5058	23.4375	46.2813	23.4375	49.3863	23.4375	47.9934	23.4375	51.0942	23.4375	49.6111	23.4375	52.5371	23.4375	51.0536	23.4375	53.7042	23.4375	52.303	23.4375	54.6091	23.4375	53.3619	23.4375	55.2707	23.4375	54.2371	23.4375	55.7065	23.4375	54.9338	23.4375	55.9317	23.4375	55.4541	23.4375	55.9587	23.4375	55.7972
24.9023	50.2408	24.9023	50.0446	24.9023	50.1776	24.9023	49.5947	24.9023	49.8396	24.9023	48.8888	24.9023	49.2048	24.9023	47.9232	24.9023	48.2603	24.9023	46.7173	24.9023	47.0585	24.9023	45.3889	24.9023	45.8845	24.9023	44.3209	24.9023	45.4721	24.9023	44.2045	24.9023	46.446	24.9023	45.3273	24.9023	48.3136	24.9023	47.1199	24.9023	50.2808	24.9023	48.9824	24.9023	51.998	24.9023	50.6642	24.9023	53.3899	24.9023	52.1057	24.9023	54.466	24.9023	53.3083	24.9023	55.2534	24.9023	54.286	24.9023	55.7784	24.9023	55.0513	24.9023	56.0625	24.9023	55.6118	24.9023	56.1224	24.9023	55.9697
26.3672	53.0296	26.3672	52.7375	26.3672	53.1075	26.3672	52.2486	26.3672	52.9593	26.3672	51.5949	26.3672	52.5812	26.3672	50.8458	26.3672	51.9952	26.3672	50.1486	26.3672	51.2966	26.3672	49.7565	26.3672	50.7391	26.3672	49.9426	26.3672	50.7498	26.3672	50.7696	26.3672	51.6034	26.3672	52.0249	26.3672	53.0685	26.3672	53.4326	26.3672	54.7033	26.3672	54.8106	26.3672	56.2239	26.3672	56.0722	26.3672	57.5173	26.3672	57.1835	26.3672	58.5553	26.3672	58.1329	26.3672	59.3411	26.3672	58.917	26.3672	59.8882	26.3672	59.5332	26.3672	60.2119	26.3672	59.9779	26.3672	60.3266	26.3672	60.2451
27.832	53.9915	27.832	53.7423	27.832	54.0513	27.832	53.3278	27.832	53.9117	27.832	52.7946	27.832	53.581	27.832	52.2316	27.832	53.1085	27.832	51.7939	27.832	52.6312	27.832	51.6918	27.832	52.4199	27.832	52.0881	27.832	52.7938	27.832	52.9655	27.832	53.8295	27.832	54.1466	27.832	55.2658	27.832	55.4345	27.832	56.7785	27.832	56.6964	27.832	58.1692	27.832	57.8625	27.832	59.3539	27.832	58.9004	27.832	60.3079	27.832	59.7961	27.832	61.0312	27.832	60.5425	27.832	61.5331	27.832	61.1346	27.832	61.8259	27.832	61.5666	27.832	61.9216	27.832	61.8318
29.2969	54.4966	29.2969	54.2844	29.2969	54.5518	29.2969	53.95	29.2969	54.4392	29.2969	53.5604	29.2969	54.1787	29.2969	53.2275	29.2969	53.8436	29.2969	53.1071	29.2969	53.5984	29.2969	53.3491	29.2969	53.6996	29.2969	54.0053	29.2969	54.3565	29.2969	54.9917	29.2969	55.5279	29.2969	56.1562	29.2969	56.9617	29.2969	57.3638	29.2969	58.4106	29.2969	58.5274	29.2969	59.7291	29.2969	59.5992	29.2969	60.8535	29.2969	60.5549	29.2969	61.7631	29.2969	61.3819	29.2969	62.4574	29.2969	62.0725	29.2969	62.9436	29.2969	62.6202	29.2969	63.232	29.2969	63.0183	29.2969	63.3336	29.2969	63.259
30.7617	57.9696	30.7617	57.777	30.7617	58.0347	30.7617	57.476	30.7617	57.9651	30.7617	57.0999	30.7617	57.768	30.7617	56.7028	30.7617	57.4753	30.7617	56.3668	30.7617	57.1621	30.7617	56.198	30.7617	56.9623	30.7617	56.2983	30.7617	57.0483	30.7617	56.7151	30.7617	57.5375	30.7617	57.4121	30.7617	58.3926	30.7617	58.2928	30.7617	59.4503	30.7617	59.2513	30.7617	60.5357	30.7617	60.2041	30.7617	61.5288	30.7617	61.0953	30.7617	62.3657	30.7617	61.8905	30.7617	63.019	30.7617	62.5682	30.7617	63.4811	30.7617	63.1134	30.7617	63.7541	30.7617	63.5146	30.7617	63.8447	30.7617	63.7617
32.2266	58.5411	32.2266	58.334	32.2266	58.5966	32.2266	57.9948	32.2266	58.4919	32.2266	57.5579	32.2266	58.2322	32.2266	57.0827	32.2266	57.8496	32.2266	56.6658	32.2266	57.4287	32.2266	56.4417	32.2266	57.1359	32.2266	56.5441	32.2266	57.1992	32.2266	57.0315	32.2266	57.7702	32.2266	57.8443	32.2266	58.7781	32.2266	58.8504	32.2266	59.9954	32.2266	59.9194	32.2266	61.2108	32.2266	60.9594	32.2266	62.2982	32.2266	61.9157	32.2266	63.2005	32.2266	62.7575	32.2266	63.898	32.2266	63.4674	32.2266	64.3891	32.2266	64.0339	32.2266	64.6801	32.2266	64.4475	32.2266	64.7802	32.2266	64.6994
33.6914	58.2157	33.6914	58.0043	33.6914	58.2591	33.6914	57.654	33.6914	58.1246	33.6914	57.22	33.6914	57.8266	33.6914	56.799	33.6914	57.426	33.6914	56.5388	33.6914	57.0707	33.6914	56.6082	33.6914	57.0155	33.6914	57.1067	33.6914	57.5125	33.6914	57.9892	33.6914	58.5772	33.6914	59.1067	33.6914	59.9675	33.6914	60.3053	33.6914	61.4103	33.6914	61.4786	33.6914	62.7371	33.6914	62.5669	33.6914	63.8724	33.6914	63.5398	33.6914	64.7915	33.6914	64.3824	33.6914	65.4925	33.6914	65.0859	33.6914	65.9827	33.6914	65.6438	33.6914	66.2725	33.6914	66.0495	33.6914	66.3731	33.6914	66.2955
35.1562	60.8194	35.1562	60.7542	35.1562	60.8745	35.1562	60.6995	35.1562	60.9196	35.1562	60.6922	35.1562	60.9796	35.1562	60.7776	35.1562	61.1047	35.1562	60.9985	35.1562	61.3625	35.1562	61.3801	35.1562	61.8136	35.1562	61.9206	35.1562	62.4785	35.1562	62.592	35.1562	63.3204	35.1562	63.3509	35.1562	64.2615	35.1562	64.1512	35.1562	65.2159	35.1562	64.9521	35.1562	66.1135	35.1562	65.7215	35.1562	66.9061	35.1562	66.4351	35.1562	67.5655	35.1562	67.0742	35.1562	68.0772	35.1562	67.6242	35.1562	68.4361	35.1562	68.0726	35.1562	68.643	35.1562	68.4085	35.1562	68.7025	35.1562	68.6215
36.6211	64.2277	36.6211	64.1206	36.6211	64.2789	36.6211	63.9717	36.6211	64.2714	36.6211	63.8057	36.6211	64.2162	36.6211	63.6567	36.6211	64.1421	36.6211	63.567	36.6211	64.0992	36.6211	63.5809	36.6211	64.155	36.6211	63.7345	36.6211	64.3763	36.6211	64.0445	36.6211	64.7982	36.6211	64.5016	36.6211	65.4012	36.6211	65.0737	36.6211	66.1187	36.6211	65.7168	36.6211	66.8674	36.6211	66.3856	36.6211	67.5741	36.6211	67.0404	36.6211	68.1868	36.6211	67.649	36.6211	68.6744	36.6211	68.186	36.6211	69.0207	36.6211	68.6317	36.6211	69.2202	36.6211	68.97	36.6211	69.274	36.6211	69.1878
38.0859	65.4595	38.0859	65.351	38.0859	65.5113	38.0859	65.1986	38.0859	65.5042	38.0859	65.0256	38.0859	65.4499	38.0859	64.8648	38.0859	65.3768	38.0859	64.7578	38.0859	65.334	38.0859	64.7492	38.0859	65.3867	38.0859	64.8771	38.0859	65.5996	38.0859	65.1615	38.0859	66.0071	38.0859	65.5964	38.0859	66.5912	38.0859	66.1518	38.0859	67.2884	38.0859	66.7841	38.0859	68.0179	38.0859	67.4473	38.0859	68.7079	38.0859	68.1004	38.0859	69.3068	38.0859	68.71	38.0859	69.7828	38.0859	69.2498	38.0859	70.1196	38.0859	69.6994	38.0859	70.311	38.0859	70.0424	38.0859	70.3579	38.0859	70.2656
39.5508	66.63	39.5508	66.5236	39.5508	66.6898	39.5508	66.3825	39.5508	66.7013	39.5508	66.2289	39.5508	66.676	39.5508	66.0934	39.5508	66.6409	39.5508	66.0138	39.5508	66.6405	39.5508	66.0298	39.5508	66.7318	39.5508	66.1741	39.5508	66.9684	39.5508	66.4624	39.5508	67.377	39.5508	66.8882	39.5508	67.9399	39.5508	67.4244	39.5508	68.6013	39.5508	68.0317	39.5508	69.29	39.5508	68.6683	39.5508	69.9412	39.5508	69.2963	39.5508	70.507	39.5508	69.8841	39.5508	70.9569	39.5508	70.4065	39.5508	71.2744	39.5508	70.8434	39.5508	71.4529	39.5508	71.1784	39.5508	71.4926	39.5508	71.3984
41.0156	68.0567	41.0156	67.9555	41.0156	68.1189	41.0156	67.826	41.0156	68.1408	41.0156	67.6877	41.0156	68.1327	41.0156	67.5677	41.0156	68.1184	41.0156	67.4986	41.0156	68.1364	41.0156	67.5147	41.0156	68.2349	41.0156	67.6446	41.0156	68.4595	41.0156	67.9032	41.0156	68.8335	41.0156	68.2868	41.0156	69.3443	41.0156	68.7742	41.0156	69.946	41.0156	69.3319	41.0156	70.5768	41.0156	69.9228	41.0156	71.1779	41.0156	70.5114	41.0156	71.7036	41.0156	71.0672	41.0156	72.1232	41.0156	71.5649	41.0156	72.4193	41.0156	71.9839	41.0156	72.5841	41.0156	72.3075	41.0156	72.6169	41.0156	72.5221
42.4805	69.4286	42.4805	69.3334	42.4805	69.492	42.4805	69.2158	42.4805	69.5227	42.4805	69.0931	42.4805	69.5298	42.4805	68.9889	42.4805	69.5343	42.4805	68.9313	42.4805	69.5692	42.4805	68.9497	42.4805	69.6756	42.4805	69.0688	42.4805	69.8918	42.4805	69.3021	42.4805	70.2377	42.4805	69.6484	42.4805	70.7039	42.4805	70.0907	42.4805	71.2524	42.4805	70.6013	42.4805	71.8299	42.4805	71.1475	42.4805	72.3833	42.4805	71.6968	42.4805	72.8696	42.4805	72.2199	42.4805	73.2587	42.4805	72.6921	42.4805	73.5328	42.4805	73.0925	42.4805	73.6833	42.4805	73.4042	42.4805	73.7088	42.4805	73.6132
43.9453	70.689	43.9453	70.5985	43.9453	70.753	43.9453	70.4899	43.9453	70.7897	43.9453	70.3787	43.9453	70.8077	43.9453	70.2859	43.9453	70.8258	43.9453	70.2365	43.9453	70.8735	43.9453	70.2566	43.9453	70.9864	43.9453	70.3679	43.9453	71.1979	43.9453	70.5832	43.9453	71.5253	43.9453	70.9023	43.9453	71.9606	43.9453	71.3116	43.9453	72.4708	43.9453	71.7871	43.9453	73.0086	43.9453	72.2993	43.9453	73.5254	43.9453	72.8183	43.9453	73.9807	43.9453	73.3161	43.9453	74.3452	43.9453	73.7682	43.9453	74.6011	43.9453	74.1541	43.9453	74.7395	43.9453	74.4566	43.9453	74.7585	43.9453	74.6617
45.4102	72.0901	45.4102	72.0046	45.4102	72.1568	45.4102	71.9077	45.4102	72.2045	45.4102	71.8123	45.4102	72.2405	45.4102	71.7362	45.4102	72.2811	45.4102	71.7003	45.4102	72.3505	45.4102	71.7258	45.4102	72.4774	45.4102	71.8308	45.4102	72.688	45.4102	72.0264	45.4102	72.9954	45.4102	72.3131	45.4102	73.3927	45.4102	72.6808	45.4102	73.8529	45.4102	73.1102	45.4102	74.3364	45.4102	73.5767	45.4102	74.8011	45.4102	74.0536	45.4102	75.2107	45.4102	74.5154	45.4102	75.5381	45.4102	74.9389	45.4102	75.7658	45.4102	75.3039	45.4102	75.8848	45.4102	75.5934	45.4102	75.8929	45.4102	75.7933
46.875	73.2712	46.875	73.1854	46.875	73.3408	46.875	73.0899	46.875	73.3935	46.875	72.996	46.875	73.436	46.875	72.9198	46.875	73.4821	46.875	72.8796	46.875	73.5529	46.875	72.8945	46.875	73.6733	46.875	72.9812	46.875	73.8661	46.875	73.1505	46.875	74.1439	46.875	73.4044	46.875	74.502	46.875	73.7353	46.875	74.9181	46.875	74.1272	46.875	75.3576	46.875	74.5581	46.875	75.7823	46.875	75.0037	46.875	76.1581	46.875	75.4393	46.875	76.4586	46.875	75.8424	46.875	76.6661	46.875	76.1928	46.875	76.7714	46.875	76.4734	46.875	76.7718	46.875	76.67
48.3398	74.4674	48.3398	74.384	48.3398	74.5367	48.3398	74.2923	48.3398	74.5913	48.3398	74.2023	48.3398	74.6365	48.3398	74.128	48.3398	74.6845	48.3398	74.0855	48.3398	74.7533	48.3398	74.0915	48.3398	74.8645	48.3398	74.1611	48.3398	75.0383	48.3398	74.3045	48.3398	75.2865	48.3398	74.525	48.3398	75.6064	48.3398	74.8175	48.3398	75.9797	48.3398	75.169	48.3398	76.3762	48.3398	75.5608	48.3398	76.7616	48.3398	75.9709	48.3398	77.1039	48.3398	76.3764	48.3398	77.3776	48.3398	76.7554	48.3398	77.5654	48.3398	77.0881	48.3398	77.6574	48.3398	77.3572	48.3398	77.6509	48.3398	77.5484
51.2695	76.2566	51.2695	76.1702	51.2695	76.3342	51.2695	76.0797	51.2695	76.4026	51.2695	75.994	51.2695	76.4667	51.2695	75.9252	51.2695	76.5366	51.2695	75.8871	51.2695	76.6274	51.2695	75.8945	51.2695	76.7563	51.2695	75.9606	51.2695	76.9388	51.2695	76.0944	51.2695	77.183	51.2695	76.2993	51.2695	77.4856	51.2695	76.5713	51.2695	77.8302	51.2695	76.8995	51.2695	78.1912	51.2695	77.2674	51.2695	78.5388	51.2695	77.6551	51.2695	78.8448	51.2695	78.0415	51.2695	79.0864	51.2695	78.4058	51.2695	79.2475	51.2695	78.729	51.2695	79.319	51.2695	78.9943	51.2695	79.2982	51.2695	79.1876
52.7344	77.0768	52.7344	76.9865	52.7344	77.161	52.7344	76.8982	52.7344	77.2351	52.7344	76.8233	52.7344	77.2998	52.7344	76.7753	52.7344	77.3614	52.7344	76.7687	52.7344	77.4322	52.7344	76.8173	52.7344	77.5293	52.7344	76.9314	52.7344	77.6721	52.7344	77.1166	52.7344	77.8769	52.7344	77.3711	52.7344	78.1503	52.7344	77.6868	52.7344	78.4848	52.7344	78.0491	52.7344	78.8588	52.7344	78.4395	52.7344	79.2413	52.7344	78.8373	52.7344	79.5992	52.7344	79.2215	52.7344	79.9028	52.7344	79.5719	52.7344	80.1299	52.7344	79.8702	52.7344	80.2665	52.7344	80.1003	52.7344	80.3061	52.7344	80.2488
54.1992	77.9556	54.1992	77.8736	54.1992	78.0357	54.1992	77.7966	54.1992	78.1107	54.1992	77.7341	54.1992	78.1813	54.1992	77.6976	54.1992	78.2533	54.1992	77.6993	54.1992	78.3371	54.1992	77.7507	54.1992	78.4471	54.1992	77.8607	54.1992	78.5992	54.1992	78.034	54.1992	78.8061	54.1992	78.2698	54.1992	79.0721	54.1992	78.5614	54.1992	79.3895	54.1992	78.8969	54.1992	79.7388	54.1992	79.2601	54.1992	80.0926	54.1992	79.6325	54.1992	80.4212	54.1992	79.9949	54.1992	80.6979	54.1992	80.3281	54.1992	80.9024	54.1992	80.6146	54.1992	81.0217	54.1992	80.8385	54.1992	81.0497	54.1992	80.9868
55.6641	78.7683	55.6641	78.6879	55.6641	78.8494	55.6641	78.6138	55.6641	78.928	55.6641	78.5545	55.6641	79.0049	55.6641	78.5197	55.6641	79.0844	55.6641	78.5198	55.6641	79.1753	55.6641	78.5648	55.6641	79.2892	55.6641	78.6625	55.6641	79.4389	55.6641	78.8175	55.6641	79.6347	55.6641	79.0297	55.6641	79.88	55.6641	79.2938	55.6641	80.1684	55.6641	79.5999	55.6641	80.4833	55.6641	79.9341	55.6641	80.8011	55.6641	80.2799	55.6641	81.0955	55.6641	80.6192	55.6641	81.3422	55.6641	80.9342	55.6641	81.5224	55.6641	81.2078	55.6641	81.6236	55.6641	81.4247	55.6641	81.64	55.6641	81.5719
58.5938	80.028	58.5938	79.9474	58.5938	80.1137	58.5938	79.8768	58.5938	80.2017	58.5938	79.8227	58.5938	80.292	58.5938	79.7927	58.5938	80.3871	58.5938	79.7946	58.5938	80.4926	58.5938	79.8361	58.5938	80.6164	58.5938	79.923	58.5938	80.7668	58.5938	80.0588	58.5938	80.9508	58.5938	80.2438	58.5938	81.1702	58.5938	80.4742	58.5938	81.4202	58.5938	80.7424	58.5938	81.688	58.5938	81.0374	58.5938	81.955	58.5938	81.3456	58.5938	82.2	58.5938	81.6516	58.5938	82.4027	58.5938	81.9393	58.5938	82.5466	58.5938	82.1932	58.5938	82.6208	58.5938	82.3989	58.5938	82.6198	58.5938	82.5441
60.0586	80.6423	60.0586	80.5615	60.0586	80.7284	60.0586	80.4906	60.0586	80.8174	60.0586	80.4351	60.0586	80.9085	60.0586	80.4017	60.0586	81.0037	60.0586	80.3974	60.0586	81.1072	60.0586	80.4287	60.0586	81.2254	60.0586	80.5011	60.0586	81.3653	60.0586	80.618	60.0586	81.5326	60.0586	80.7802	60.0586	81.7295	60.0586	80.9851	60.0586	81.952	60.0586	81.2265	60.0586	82.1896	60.0586	81.4951	60.0586	82.4261	60.0586	81.7786	60.0586	82.6427	60.0586	82.0631	60.0586	82.8207	60.0586	82.3335	60.0586	82.9449	60.0586	82.5747	60.0586	83.0046	60.0586	82.7728	60.0586	82.9948	60.0586	82.9159
62.9883	81.537	62.9883	81.4559	62.9883	81.6254	62.9883	81.3856	62.9883	81.7183	62.9883	81.3311	62.9883	81.8147	62.9883	81.2974	62.9883	81.9154	62.9883	81.2902	62.9883	82.0226	62.9883	81.3146	62.9883	82.1406	62.9883	81.3749	62.9883	82.2739	62.9883	81.4742	62.9883	82.4266	62.9883	81.6132	62.9883	82.6002	62.9883	81.7902	62.9883	82.7915	62.9883	82.0007	62.9883	82.9924	62.9883	82.2372	62.9883	83.1901	62.9883	82.4897	62.9883	83.369	62.9883	82.7461	62.9883	83.5135	62.9883	82.993	62.9883	83.6101	62.9883	83.2166	62.9883	83.6494	62.9883	83.404	62.9883	83.6272	62.9883	83.5437
64.4531	81.8795	64.4531	81.8002	64.4531	81.9671	64.4531	81.7324	64.4531	82.0604	64.4531	81.6806	64.4531	82.158	64.4531	81.6492	64.4531	82.2603	64.4531	81.6431	64.4531	82.3688	64.4531	81.6668	64.4531	82.4867	64.4531	81.724	64.4531	82.6177	64.4531	81.8172	64.4531	82.765	64.4531	81.9474	64.4531	82.9297	64.4531	82.113	64.4531	83.109	64.4531	82.3101	64.4531	83.2955	64.4531	82.5322	64.4531	83.4778	64.4531	82.7701	64.4531	83.6416	64.4531	83.0127	64.4531	83.7726	64.4531	83.2476	64.4531	83.8583	64.4531	83.4618	64.4531	83.8899	64.4531	83.6428	64.4531	83.8635	64.4531	83.7794
67.3828	82.5215	67.3828	82.4466	67.3828	82.6071	67.3828	82.3852	67.3828	82.7013	67.3828	82.3406	67.3828	82.8025	67.3828	82.3161	67.3828	82.9098	67.3828	82.3148	67.3828	83.0238	67.3828	82.3399	67.3828	83.1456	67.3828	82.394	67.3828	83.2771	67.3828	82.4788	67.3828	83.4197	67.3828	82.595	67.3828	83.5732	67.3828	82.7414	67.3828	83.735	67.3828	82.9154	67.3828	83.8988	67.3828	83.1119	67.3828	84.0551	67.3828	83.3237	67.3828	84.1921	67.3828	83.5417	67.3828	84.2981	67.3828	83.7553	67.3828	84.3626	67.3828	83.9529	67.3828	84.3785	67.3828	84.1232	67.3828	84.3425	67.3828	84.2557
68.8477	82.8529	68.8477	82.7782	68.8477	82.9395	68.8477	82.7179	68.8477	83.0355	68.8477	82.6746	68.8477	83.1394	68.8477	82.6511	68.8477	83.2499	68.8477	82.65	68.8477	83.3668	68.8477	82.674	68.8477	83.4902	68.8477	82.7249	68.8477	83.6212	68.8477	82.8043	68.8477	83.7603	68.8477	82.9126	68.8477	83.907	68.8477	83.0492	68.8477	84.0586	68.8477	83.2116	68.8477	84.2095	68.8477	83.3956	68.8477	84.3512	68.8477	83.5948	68.8477	84.4733	68.8477	83.8012	68.8477	84.5651	68.8477	84.0049	68.8477	84.6175	68.8477	84.1951	68.8477	84.6239	68.8477	84.3609	68.8477	84.5818	68.8477	84.4925
71.7773	83.4441	71.7773	83.3701	71.7773	83.5314	71.7773	83.3113	71.7773	83.6297	71.7773	83.2697	71.7773	83.7369	71.7773	83.2472	71.7773	83.8511	71.7773	83.2453	71.7773	83.9707	71.7773	83.2656	71.7773	84.0947	71.7773	83.3093	71.7773	84.2224	71.7773	83.3773	71.7773	84.3531	71.7773	83.4699	71.7773	84.4855	71.7773	83.5869	71.7773	84.6171	71.7773	83.7266	71.7773	84.7431	71.7773	83.8862	71.7773	84.8571	71.7773	84.0609	71.7773	84.951	71.7773	84.2442	71.7773	85.0164	71.7773	84.428	71.7773	85.0461	71.7773	84.6031	71.7773	85.0351	71.7773	84.7596	71.7773	84.982	71.7773	84.8884
74.707	83.8499	74.707	83.7761	74.707	83.9383	74.707	83.7185	74.707	84.0389	74.707	83.6785	74.707	84.1495	74.707	83.6571	74.707	84.2673	74.707	83.655	74.707	84.3899	74.707	83.6729	74.707	84.5147	74.707	83.7111	74.707	84.64	74.707	83.7701	74.707	84.7638	74.707	83.8501	74.707	84.8843	74.707	83.9509	74.707	84.9989	74.707	84.0715	74.707	85.1038	74.707	84.21	74.707	85.1938	74.707	84.3631	74.707	85.2629	74.707	84.5259	74.707	85.3048	74.707	84.6918	74.707	85.3141	74.707	84.853	74.707	85.2875	74.707	85.0009	74.707	85.2243	74.707	85.1271
77.6367	84.1616	77.6367	84.0876	77.6367	84.2512	77.6367	84.0306	77.6367	84.3543	77.6367	83.9916	77.6367	84.468	77.6367	83.9708	77.6367	84.5891	77.6367	83.9682	77.6367	84.7143	77.6367	83.9836	77.6367	84.84	77.6367	84.0169	77.6367	84.9631	77.6367	84.068	77.6367	85.081	77.6367	84.1369	77.6367	85.1911	77.6367	84.2233	77.6367	85.2908	77.6367	84.327	77.6367	85.3768	77.6367	84.4469	77.6367	85.4454	77.6367	84.5808	77.6367	85.4921	77.6367	84.7252	77.6367	85.5125	77.6367	84.875	77.6367	85.5029	77.6367	85.0237	77.6367	85.4616	77.6367	85.1639	77.6367	85.389	77.6367	85.288
79.1016	84.3728	79.1016	84.2982	79.1016	84.4634	79.1016	84.2409	79.1016	84.5678	79.1016	84.2016	79.1016	84.6831	79.1016	84.1803	79.1016	84.8058	79.1016	84.1767	79.1016	84.9319	79.1016	84.1903	79.1016	85.0576	79.1016	84.2207	79.1016	85.1793	79.1016	84.2675	79.1016	85.2938	79.1016	84.3306	79.1016	85.3985	79.1016	84.4099	79.1016	85.4905	79.1016	84.5053	79.1016	85.5671	79.1016	84.6161	79.1016	85.625	79.1016	84.7407	79.1016	85.6605	79.1016	84.8763	79.1016	85.67	79.1016	85.0184	79.1016	85.6509	79.1016	85.1613	79.1016	85.6021	79.1016	85.298	79.1016	85.5244	79.1016	85.4213
82.0312	84.7469	82.0312	84.67	82.0312	84.8402	82.0312	84.6108	82.0312	84.9478	82.0312	84.5697	82.0312	85.0663	82.0312	84.5462	82.0312	85.1916	82.0312	84.5395	82.0312	85.3192	82.0312	84.5485	82.0312	85.4442	82.0312	84.5723	82.0312	85.5623	82.0312	84.6102	82.0312	85.6696	82.0312	84.6619	82.0312	85.7629	82.0312	84.7274	82.0312	85.8396	82.0312	84.807	82.0312	85.8974	82.0312	84.9007	82.0312	85.934	82.0312	85.0078	82.0312	85.9474	82.0312	85.1267	82.0312	85.9357	82.0312	85.2543	82.0312	85.8978	82.0312	85.3862	82.0312	85.834	82.0312	85.5164	82.0312	85.7463	82.0312	85.6386
84.9609	84.9483	84.9609	84.8699	84.9609	85.044	84.9609	84.81	84.9609	85.1545	84.9609	84.7685	84.9609	85.2763	84.9609	84.7447	84.9609	85.4049	84.9609	84.7373	84.9609	85.535	84.9609	84.7449	84.9609	85.6611	84.9609	84.7658	84.9609	85.7782	84.9609	84.7992	84.9609	85.8816	84.9609	84.8444	84.9609	85.9679	84.9609	84.9014	84.9609	86.0342	84.9609	84.9706	84.9609	86.0788	84.9609	85.0523	84.9609	86.1001	84.9609	85.1466	84.9609	86.0972	84.9609	85.2529	84.9609	86.0695	84.9609	85.3692	84.9609	86.0175	84.9609	85.4921	84.9609	85.9426	84.9609	85.6166	84.9609	85.8476	84.9609	85.7372
87.8906	85.1899	87.8906	85.1135	87.8906	85.2844	87.8906	85.0562	87.8906	85.3946	87.8906	85.0179	87.8906	85.5167	87.8906	84.9972	87.8906	85.6457	87.8906	84.9924	87.8906	85.776	87.8906	85.0015	87.8906	85.9015	87.8906	85.0226	87.8906	86.0164	87.8906	85.0539	87.8906	86.1158	87.8906	85.0947	87.8906	86.1956	87.8906	85.1447	87.8906	86.253	87.8906	85.2043	87.8906	86.2865	87.8906	85.2741	87.8906	86.2953	87.8906	85.3549	87.8906	86.2794	87.8906	85.4468	87.8906	86.2396	87.8906	85.5491	87.8906	86.1775	87.8906	85.6595	87.8906	86.0957	87.8906	85.7745	87.8906	85.998	87.8906	85.8891
90.8203	85.5846	90.8203	85.5089	90.8203	85.6781	90.8203	85.452	90.8203	85.7869	90.8203	85.4135	90.8203	85.9072	90.8203	85.3918	90.8203	86.0336	90.8203	85.3848	90.8203	86.1601	90.8203	85.39	90.8203	86.2803	90.8203	85.4052	90.8203	86.388	90.8203	85.4285	90.8203	86.4778	90.8203	85.4587	90.8203	86.5455	90.8203	85.4956	90.8203	86.5885	90.8203	85.5397	90.8203	86.6055	90.8203	85.5923	90.8203	86.5964	90.8203	85.6549	90.8203	86.5625	90.8203	85.7286	90.8203	86.5058	90.8203	85.814	90.8203	86.4293	90.8203	85.9103	90.8203	86.337	90.8203	86.0151	90.8203	86.2337	90.8203	86.1246
95.2148	85.729	95.2148	85.6628	95.2148	85.8169	95.2148	85.6183	95.2148	85.9248	95.2148	85.5935	95.2148	86.0486	95.2148	85.5853	95.2148	86.1822	95.2148	85.5898	95.2148	86.3178	95.2148	85.6033	95.2148	86.447	95.2148	85.6221	95.2148	86.5612	95.2148	85.6435	95.2148	86.6527	95.2148	85.666	95.2148	86.7158	95.2148	85.6894	95.2148	86.747	95.2148	85.7148	95.2148	86.7456	95.2148	85.7444	95.2148	86.7133	95.2148	85.7811	95.2148	86.6539	95.2148	85.8283	95.2148	86.5726	95.2148	85.8883	95.2148	86.4753	95.2148	85.9627	95.2148	86.3685	95.2148	86.0509	95.2148	86.2583	95.2148	86.1507
98.1445	85.8715	98.1445	85.8025	98.1445	85.9621	98.1445	85.755	98.1445	86.0723	98.1445	85.7268	98.1445	86.198	98.1445	85.7149	98.1445	86.3327	98.1445	85.715	98.1445	86.4685	98.1445	85.7231	98.1445	86.5965	98.1445	85.7355	98.1445	86.7078	98.1445	85.7492	98.1445	86.7943	98.1445	85.7625	98.1445	86.8498	98.1445	85.7752	98.1445	86.8707	98.1445	85.7885	98.1445	86.8563	98.1445	85.8052	98.1445	86.8086	98.1445	85.8288	98.1445	86.7321	98.1445	85.8634	98.1445	86.6333	98.1445	85.9128	98.1445	86.5194	98.1445	85.9793	98.1445	86.3984	98.1445	86.0636	98.1445	86.2778	98.1445	86.1644
101.074	86.0481	101.074	85.9748	101.074	86.1424	101.074	85.9223	101.074	86.2554	101.074	85.8886	101.074	86.3829	101.074	85.8705	101.074	86.5183	101.074	85.8638	101.074	86.6534	101.074	85.8641	101.074	86.779	101.074	85.8677	101.074	86.8858	101.074	85.8714	101.074	86.9655	101.074	85.8736	101.074	87.0116	101.074	85.874	101.074	87.0203	101.074	85.8742	101.074	86.9909	101.074	85.8771	101.074	86.926	101.074	85.8871	101.074	86.8307	101.074	85.9091	101.074	86.7126	101.074	85.9479	101.074	86.5806	101.074	86.0071	101.074	86.444	101.074	86.0884	101.074	86.3115	101.074	86.1911
105.469	86.1694	105.469	86.0971	105.469	86.2623	105.469	86.0452	105.469	86.3736	105.469	86.0116	105.469	86.4989	105.469	85.9929	105.469	86.6315	105.469	85.9846	105.469	86.763	105.469	85.9824	105.469	86.884	105.469	85.9818	105.469	86.985	105.469	85.9798	105.469	87.0572	105.469	85.9742	105.469	87.0941	105.469	85.9648	105.469	87.0916	105.469	85.953	105.469	87.0493	105.469	85.9421	105.469	86.9699	105.469	85.9369	105.469	86.8598	105.469	85.9432	105.469	86.7274	105.469	85.9668	105.469	86.5832	105.469	86.0127	105.469	86.4376	105.469	86.084	105.469	86.3008	105.469	86.1809
108.398	86.213	108.398	86.1438	108.398	86.3037	108.398	86.0956	108.398	86.4136	108.398	86.0665	108.398	86.5383	108.398	86.0525	108.398	86.6711	108.398	86.0492	108.398	86.8034	108.398	86.0515	108.398	86.9256	108.398	86.055	108.398	87.028	108.398	86.056	108.398	87.1016	108.398	86.0522	108.398	87.1395	108.398	86.0431	108.398	87.1376	108.398	86.0299	108.398	87.0951	108.398	86.016	108.398	87.0148	108.398	86.0064	108.398	86.9031	108.398	86.007	108.398	86.769	108.398	86.0244	108.398	86.6231	108.398	86.0641	108.398	86.4768	108.398	86.13	108.398	86.3405	108.398	86.223
112.793	86.2901	112.793	86.2174	112.793	86.3846	112.793	86.1663	112.793	86.4985	112.793	86.1349	112.793	86.6269	112.793	86.1193	112.793	86.7629	112.793	86.1148	112.793	86.8979	112.793	86.1162	112.793	87.0218	112.793	86.1185	112.793	87.1248	112.793	86.1178	112.793	87.1978	112.793	86.1114	112.793	87.2332	112.793	86.0984	112.793	87.2268	112.793	86.0801	112.793	87.1775	112.793	86.0597	112.793	87.0882	112.793	86.0425	112.793	86.9656	112.793	86.0354	112.793	86.8193	112.793	86.0456	112.793	86.6613	112.793	86.08	112.793	86.5041	112.793	86.1433	112.793	86.3595	112.793	86.2372
117.188	86.1418	117.188	86.0539	117.188	86.2509	117.188	85.9877	117.188	86.3782	117.188	85.9416	117.188	86.5187	117.188	85.9123	117.188	86.665	117.188	85.8952	117.188	86.8081	117.188	85.8852	117.188	86.9379	117.188	85.8774	117.188	87.0442	117.188	85.8677	117.188	87.1173	117.188	85.8533	117.188	87.1497	117.188	85.8332	117.188	87.1364	117.188	85.8087	117.188	87.0761	117.188	85.7834	117.188	86.9717	117.188	85.7631	117.188	86.8301	117.188	85.7551	117.188	86.6619	117.188	85.7676	117.188	86.4802	117.188	85.808	117.188	86.2991	117.188	85.8818	117.188	86.1323	117.188	85.9908
120.117	86.2196	120.117	86.1373	120.117	86.3208	120.117	86.0741	120.117	86.4382	120.117	86.0285	120.117	86.5674	120.117	85.9973	120.117	86.7018	120.117	85.9763	120.117	86.8329	120.117	85.9609	120.117	86.9514	120.117	85.9464	120.117	87.0475	120.117	85.929	120.117	87.1118	120.117	85.9062	120.117	87.1367	120.117	85.8773	120.117	87.1173	120.117	85.8438	120.117	87.0522	120.117	85.8094	120.117	86.9441	120.117	85.7799	120.117	86.7999	120.117	85.7628	120.117	86.6303	120.117	85.7666	120.117	86.4485	120.117	85.7988	120.117	86.2689	120.117	85.8654	120.117	86.1051	120.117	85.9683
124.512	86.3735	124.512	86.2956	124.512	86.4702	124.512	86.237	124.512	86.583	124.512	86.196	124.512	86.7073	124.512	86.1697	124.512	86.8364	124.512	86.1536	124.512	86.962	124.512	86.1428	124.512	87.0749	124.512	86.1324	124.512	87.1653	124.512	86.1182	124.512	87.2244	124.512	86.0974	124.512	87.2445	124.512	86.0689	124.512	87.2209	124.512	86.0337	124.512	87.1524	124.512	85.9954	124.512	87.042	124.512	85.9595	124.512	86.8968	124.512	85.9338	124.512	86.7278	124.512	85.9268	124.512	86.5488	124.512	85.947	124.512	86.3745	124.512	86.001	124.512	86.2186	124.512	86.092
128.906	86.2982	128.906	86.2133	128.906	86.4006	128.906	86.1466	128.906	86.5175	128.906	86.0972	128.906	86.6438	128.906	86.062	128.906	86.7729	128.906	86.037	128.906	86.8965	128.906	86.0171	128.906	87.0052	128.906	85.9976	128.906	87.0895	128.906	85.9741	128.906	87.1402	128.906	85.9436	128.906	87.15	128.906	85.905	128.906	87.1141	128.906	85.8594	128.906	87.0313	128.906	85.8105	128.906	86.9049	128.906	85.7643	128.906	86.7427	128.906	85.7289	128.906	86.5566	128.906	85.7139	128.906	86.3614	128.906	85.7285	128.906	86.1731	128.906	85.7804	128.906	86.0066	128.906	85.8735
133.301	86.2594	133.301	86.1686	133.301	86.3662	133.301	86.0952	133.301	86.4859	133.301	86.0382	133.301	86.6132	133.301	85.9949	133.301	86.7413	133.301	85.9613	133.301	86.8618	133.301	85.9324	133.301	86.9653	133.301	85.9032	133.301	87.042	133.301	85.8692	133.301	87.083	133.301	85.8274	133.301	87.0807	133.301	85.7766	133.301	87.0303	133.301	85.718	133.301	86.9309	133.301	85.6555	133.301	86.7862	133.301	85.5955	133.301	86.6047	133.301	85.5472	133.301	86.3994	133.301	85.5208	133.301	86.1865	133.301	85.5269	133.301	85.9834	133.301	85.5742	133.301	85.8063	133.301	85.6676
139.16	85.9781	139.16	85.8795	139.16	86.0934	139.16	85.7993	139.16	86.2218	139.16	85.7372	139.16	86.3578	139.16	85.6908	139.16	86.4944	139.16	85.6561	139.16	86.623	139.16	85.628	139.16	86.7345	139.16	85.6011	139.16	86.8189	139.16	85.5706	139.16	86.8669	139.16	85.533	139.16	86.8707	139.16	85.4866	139.16	86.8249	139.16	85.4324	139.16	86.7282	139.16	85.3742	139.16	86.5838	139.16	85.3186	139.16	86.3999	139.16	85.2748	139.16	86.1895	139.16	85.2536	139.16	85.9692	139.16	85.2659	139.16	85.7573	139.16	85.3206	139.16	85.5706	139.16	85.4225
143.555	85.8169	143.555	85.7081	143.555	85.9414	143.555	85.6174	143.555	86.0776	143.555	85.5453	143.555	86.2198	143.555	85.4901	143.555	86.3609	143.555	85.4486	143.555	86.493	143.555	85.4159	143.555	86.607	143.555	85.3869	143.555	86.6936	143.555	85.3566	143.555	86.7435	143.555	85.3213	143.555	86.7492	143.555	85.2791	143.555	86.7052	143.555	85.2307	143.555	86.61	143.555	85.1795	143.555	86.4665	143.555	85.1321	143.555	86.2826	143.555	85.0973	143.555	86.071	143.555	85.0858	143.555	85.848	143.555	85.1078	143.555	85.6315	143.555	85.1721	143.555	85.4387	143.555	85.2829
147.949	85.7264	147.949	85.6132	147.949	85.8517	147.949	85.5148	147.949	85.9854	147.949	85.4325	147.949	86.1224	147.949	85.3661	147.949	86.2568	147.949	85.3138	147.949	86.3819	147.949	85.2722	147.949	86.4898	147.949	85.2376	147.949	86.5722	147.949	85.206	147.949	86.6208	147.949	85.174	147.949	86.6284	147.949	85.1398	147.949	86.5898	147.949	85.1037	147.949	86.5031	147.949	85.0683	147.949	86.3709	147.949	85.0387	147.949	86.2003	147.949	85.0222	147.949	86.0028	147.949	85.0274	147.949	85.7933	147.949	85.0631	147.949	85.5883	147.949	85.1361	147.949	85.4031	147.949	85.25
153.809	85.7738	153.809	85.6913	153.809	85.8673	153.809	85.6199	153.809	85.9702	153.809	85.5585	153.809	86.08	153.809	85.5048	153.809	86.1926	153.809	85.4552	153.809	86.3021	153.809	85.4053	153.809	86.4009	153.809	85.3508	153.809	86.4792	153.809	85.2877	153.809	86.5263	153.809	85.2137	153.809	86.5314	153.809	85.1286	153.809	86.486	153.809	85.0351	153.809	86.385	153.809	84.9388	153.809	86.2293	153.809	84.8487	153.809	86.026	153.809	84.7763	153.809	85.789	153.809	84.7347	153.809	85.5374	153.809	84.7367	153.809	85.2929	153.809	84.7925	153.809	85.077	153.809	84.9067
159.668	85.3866	159.668	85.3096	159.668	85.4792	159.668	85.248	159.668	85.5861	159.668	85.2004	159.668	85.7043	159.668	85.1634	159.668	85.8294	159.668	85.1323	159.668	85.9548	159.668	85.1016	159.668	86.0716	159.668	85.0653	159.668	86.1684	159.668	85.0181	159.668	86.2325	159.668	84.9566	159.668	86.2516	159.668	84.8795	159.668	86.2153	159.668	84.7889	159.668	86.1181	159.668	84.6906	159.668	85.9605	159.668	84.5937	159.668	85.7508	159.668	84.5108	159.668	85.5042	159.668	84.4566	159.668	85.2423	159.668	84.4461	159.668	84.9894	159.668	84.4915	159.668	84.7691	159.668	84.5996
165.527	84.8018	165.527	84.7119	165.527	84.9106	165.527	84.641	165.527	85.037	165.527	84.5884	165.527	85.179	165.527	84.5519	165.527	85.3331	165.527	84.5275	165.527	85.4932	165.527	84.51	165.527	85.6503	165.527	84.4934	165.527	85.7919	165.527	84.472	165.527	85.9034	165.527	84.4413	165.527	85.9696	165.527	84.3991	165.527	85.9776	165.527	84.3465	165.527	85.9191	165.527	84.2879	165.527	85.7928	165.527	84.2317	165.527	85.6052	165.527	84.1893	165.527	85.3708	165.527	84.1745	165.527	85.1107	165.527	84.2013	165.527	84.8498	165.527	84.281	165.527	84.6126	165.527	84.419
171.387	84.0624	171.387	84.005	171.387	84.1404	171.387	83.9672	171.387	84.2412	171.387	83.9481	171.387	84.3675	171.387	83.9462	171.387	84.5215	171.387	83.9591	171.387	84.7029	171.387	83.9829	171.387	84.9063	171.387	84.0133	171.387	85.1202	171.387	84.0458	171.387	85.3273	171.387	84.0768	171.387	85.5076	171.387	84.1047	171.387	85.6413	171.387	84.1301	171.387	85.7131	171.387	84.1564	171.387	85.7144	171.387	84.1893	171.387	85.6452	171.387	84.2369	171.387	85.5137	171.387	84.3076	171.387	85.335	171.387	84.4092	171.387	85.129	171.387	84.5463	171.387	84.9169	171.387	84.718
177.246	84.1555	177.246	84.1003	177.246	84.194	177.246	84.0321	177.246	84.2156	177.246	83.9562	177.246	84.2239	177.246	83.8784	177.246	84.2276	177.246	83.8041	177.246	84.2384	177.246	83.7373	177.246	84.269	177.246	83.6812	177.246	84.3283	177.246	83.6381	177.246	84.4178	177.246	83.61	177.246	84.5295	177.246	83.5992	177.246	84.647	177.246	83.6082	177.246	84.7505	177.246	83.6399	177.246	84.8214	177.246	83.6965	177.246	84.8467	177.246	83.7796	177.246	84.8211	177.246	83.8886	177.246	84.7467	177.246	84.021	177.246	84.6319	177.246	84.1712	177.246	84.4887	177.246	84.3308
183.105	84.8579	183.105	84.7983	183.105	84.898	183.105	84.7234	183.105	84.9159	183.105	84.6376	183.105	84.911	183.105	84.5449	183.105	84.8861	183.105	84.4477	183.105	84.8466	183.105	84.3475	183.105	84.8	183.105	84.2451	183.105	84.7536	183.105	84.1414	183.105	84.7122	183.105	84.0381	183.105	84.6763	183.105	83.9385	183.105	84.6415	183.105	83.8475	183.105	84.6002	183.105	83.7713	183.105	84.5444	183.105	83.7166	183.105	84.4685	183.105	83.6894	183.105	84.3715	183.105	83.6937	183.105	84.2571	183.105	83.7309	183.105	84.1328	183.105	83.7994	183.105	84.0085	183.105	83.8943
188.965	84.958	188.965	84.8833	188.965	85.0122	188.965	84.7931	188.965	85.0421	188.965	84.6922	188.965	85.0459	188.965	84.5844	188.965	85.0246	188.965	84.472	188.965	84.9821	188.965	84.3557	188.965	84.924	188.965	84.2353	188.965	84.8566	188.965	84.1107	188.965	84.7845	188.965	83.9829	188.965	84.7093	188.965	83.855	188.965	84.6286	188.965	83.7324	188.965	84.5381	188.965	83.6226	188.965	84.4327	188.965	83.5341	188.965	84.3101	188.965	83.4752	188.965	84.1718	188.965	83.4522	188.965	84.0236	188.965	83.4687	188.965	83.8744	188.965	83.5242	188.965	83.7348	188.965	83.6151
196.289	84.6967	196.289	84.6057	196.289	84.7686	196.289	84.502	196.289	84.8155	196.289	84.3915	196.289	84.8336	196.289	84.2787	196.289	84.8215	196.289	84.1659	196.289	84.7805	196.289	84.0535	196.289	84.7144	196.289	83.9403	196.289	84.6283	196.289	83.8252	196.289	84.5276	196.289	83.7079	196.289	84.4165	196.289	83.59	196.289	84.2976	196.289	83.4755	196.289	84.1716	196.289	83.3707	196.289	84.0389	196.289	83.2828	196.289	83.9006	196.289	83.2192	196.289	83.7597	196.289	83.1858	196.289	83.6211	196.289	83.1856	196.289	83.4913	196.289	83.2192	196.289	83.3768	196.289	83.2843
203.613	84.3392	203.613	84.224	203.613	84.4302	203.613	84.0919	203.613	84.4908	203.613	83.9508	203.613	84.5176	203.613	83.8074	203.613	84.5103	203.613	83.6665	203.613	84.4714	203.613	83.5309	203.613	84.4062	203.613	83.4014	203.613	84.3208	203.613	83.2782	203.613	84.2213	203.613	83.1619	203.613	84.1118	203.613	83.0546	203.613	83.9946	203.613	82.9598	203.613	83.8702	203.613	82.8825	203.613	83.7387	203.613	82.828	203.613	83.6016	203.613	82.8006	203.613	83.4619	203.613	82.8024	203.613	83.3242	203.613	82.8333	203.613	83.1936	203.613	82.8913	203.613	83.0752	203.613	82.9731
210.938	84.5732	210.938	84.4462	210.938	84.6657	210.938	84.292	210.938	84.7174	210.938	84.1176	210.938	84.7239	210.938	83.9292	210.938	84.6832	210.938	83.7311	210.938	84.5961	210.938	83.5261	210.938	84.4658	210.938	83.3162	210.938	84.2981	210.938	83.1037	210.938	84.1004	210.938	82.8923	210.938	83.8811	210.938	82.6885	210.938	83.6491	210.938	82.5011	210.938	83.4137	210.938	82.3408	210.938	83.184	210.938	82.2174	210.938	82.9682	210.938	82.1378	210.938	82.7729	210.938	82.104	210.938	82.6017	210.938	82.113	210.938	82.4553	210.938	82.1584	210.938	82.3327	210.938	82.2332
218.262	84.4565	218.262	84.3313	218.262	84.556	218.262	84.1881	218.262	84.6231	218.262	84.0343	218.262	84.6531	218.262	83.8755	218.262	84.6433	218.262	83.715	218.262	84.5936	218.262	83.5537	218.262	84.5057	218.262	83.3907	218.262	84.3825	218.262	83.2247	218.262	84.227	218.262	83.0555	218.262	84.0428	218.262	82.8853	218.262	83.8336	218.262	82.7193	218.262	83.6049	218.262	82.5653	218.262	83.3647	218.262	82.4322	218.262	83.1239	218.262	82.3287	218.262	82.8953	218.262	82.2612	218.262	82.6911	218.262	82.2328	218.262	82.5205	218.262	82.2447	218.262	82.3885	218.262	82.2966
225.586	84.0742	225.586	83.9266	225.586	84.1927	225.586	83.7594	225.586	84.2743	225.586	83.583	225.586	84.3144	225.586	83.4065	225.586	84.3116	225.586	83.2368	225.586	84.2681	225.586	83.0778	225.586	84.1882	225.586	82.9309	225.586	84.0779	225.586	82.7961	225.586	83.9432	225.586	82.6737	225.586	83.7896	225.586	82.565	225.586	83.6219	225.586	82.4732	225.586	83.4451	225.586	82.4021	225.586	83.2652	225.586	82.3554	225.586	83.0896	225.586	82.335	225.586	82.9265	225.586	82.3402	225.586	82.7823	225.586	82.3681	225.586	82.6603	225.586	82.4152	225.586	82.5601	225.586	82.4792
232.91	84.0551	232.91	83.8965	232.91	84.1707	232.91	83.7044	232.91	84.2368	232.91	83.4897	232.91	84.251	232.91	83.2629	232.91	84.2153	232.91	83.0325	232.91	84.1356	232.91	82.8044	232.91	84.0204	232.91	82.582	232.91	83.8784	232.91	82.3677	232.91	83.7169	232.91	82.1647	232.91	83.5397	232.91	81.9787	232.91	83.3479	232.91	81.8179	232.91	83.1418	232.91	81.6923	232.91	82.9244	232.91	81.6107	232.91	82.7029	232.91	81.5776	232.91	82.4878	232.91	81.5913	232.91	82.2895	232.91	81.6448	232.91	82.1146	232.91	81.7288	232.91	81.9643	232.91	81.8362
241.699	83.9246	241.699	83.7658	241.699	84.0351	241.699	83.5684	241.699	84.0901	241.699	83.3436	241.699	84.0863	241.699	83.1021	241.699	84.0247	241.699	82.8528	241.699	83.9102	241.699	82.6021	241.699	83.7513	241.699	82.3549	241.699	83.558	241.699	82.1152	241.699	83.3406	241.699	81.8887	241.699	83.1083	241.699	81.6838	241.699	82.8689	241.699	81.5116	241.699	82.6302	241.699	81.3839	241.699	82.4012	241.699	81.3091	241.699	82.1919	241.699	81.2891	241.699	82.0111	241.699	81.3168	241.699	81.8623	241.699	81.3787	241.699	81.7419	241.699	81.4596	241.699	81.6404	241.699	81.5479
250.488	83.8301	250.488	83.6601	250.488	83.9378	250.488	83.4361	250.488	83.9787	250.488	83.1686	250.488	83.9528	250.488	82.8689	250.488	83.865	250.488	82.5478	250.488	83.7252	250.488	82.215	250.488	83.5461	250.488	81.8789	250.488	83.3409	250.488	81.548	250.488	83.1196	250.488	81.2321	250.488	82.8863	250.488	80.9439	250.488	82.6395	250.488	80.6984	250.488	82.3756	250.488	80.5109	250.488	82.0939	250.488	80.3923	250.488	81.8013	250.488	80.3449	250.488	81.5126	250.488	80.3615	250.488	81.2456	250.488	80.428	250.488	81.0134	250.488	80.5304	250.488	80.82	250.488	80.6609
259.277	84.3172	259.277	84.1676	259.277	84.4089	259.277	83.9671	259.277	84.4372	259.277	83.7233	259.277	84.3996	259.277	83.4431	259.277	84.2969	259.277	83.1318	259.277	84.1333	259.277	82.7936	259.277	83.9165	259.277	82.4322	259.277	83.6555	259.277	82.0529	259.277	83.3604	259.277	81.6652	259.277	83.04	259.277	81.2845	259.277	82.7022	259.277	80.9328	259.277	82.3547	259.277	80.6359	259.277	82.0074	259.277	80.4172	259.277	81.6728	259.277	80.2905	259.277	81.3649	259.277	80.2542	259.277	81.0948	259.277	80.2932	259.277	80.8663	259.277	80.3864	259.277	80.6758	259.277	80.5165
268.066	84.0228	268.066	83.8833	268.066	84.1149	268.066	83.706	268.066	84.1528	268.066	83.501	268.066	84.1334	268.066	83.2774	268.066	84.0588	268.066	83.0418	268.066	83.9357	268.066	82.798	268.066	83.7749	268.066	82.5484	268.066	83.5888	268.066	82.2956	268.066	83.3886	268.066	82.045	268.066	83.1818	268.066	81.8062	268.066	82.9712	268.066	81.5931	268.066	82.757	268.066	81.4219	268.066	82.5402	268.066	81.3062	268.066	82.3253	268.066	81.2525	268.066	82.1202	268.066	81.2575	268.066	81.9332	268.066	81.31	268.066	81.7689	268.066	81.3954	268.066	81.6265	268.066	81.5025
276.855	83.7294	276.855	83.5525	276.855	83.8429	276.855	83.3227	276.855	83.885	276.855	83.0513	276.855	83.8515	276.855	82.7489	276.855	83.743	276.855	82.4241	276.855	83.5653	276.855	82.0841	276.855	83.3292	276.855	81.7357	276.855	83.0499	276.855	81.3881	276.855	82.7457	276.855	81.0562	276.855	82.4355	276.855	80.7615	276.855	82.1375	276.855	80.5305	276.855	81.8679	276.855	80.388	276.855	81.6392	276.855	80.3471	276.855	81.4593	276.855	80.4015	276.855	81.3279	276.855	80.526	276.855	81.2347	276.855	80.6847	276.855	81.1602	276.855	80.8432	276.855	81.081	276.855	80.9779
287.109	83.643	287.109	83.4717	287.109	83.7512	287.109	83.2474	287.109	83.7898	287.109	82.9817	287.109	83.7566	287.109	82.6857	287.109	83.6543	287.109	82.3687	287.109	83.4896	287.109	82.0366	287.109	83.272	287.109	81.6932	287.109	83.0116	287.109	81.3424	287.109	82.7169	287.109	80.9915	287.109	82.394	287.109	80.6542	287.109	82.0477	287.109	80.3513	287.109	81.686	287.109	80.1077	287.109	81.324	287.109	79.9441	287.109	80.9847	287.109	79.8685	287.109	80.6939	287.109	79.8706	287.109	80.4683	287.109	79.926	287.109	80.3066	287.109	80.0072	287.109	80.1904	287.109	80.0958
297.363	83.978	297.363	83.836	297.363	84.0507	297.363	83.6325	297.363	84.0483	297.363	83.3755	297.363	83.9686	297.363	83.0723	297.363	83.8136	297.363	82.7283	297.363	83.5906	297.363	82.3485	297.363	83.3115	297.363	81.9387	297.363	82.992	297.363	81.5085	297.363	82.6493	297.363	81.0752	297.363	82.2997	297.363	80.6651	297.363	81.9569	297.363	80.3124	297.363	81.6327	297.363	80.0521	297.363	81.3378	297.363	79.9078	297.363	81.0826	297.363	79.8807	297.363	80.8745	297.363	79.948	297.363	80.7123	297.363	80.0717	297.363	80.584	297.363	80.2139	297.363	80.4694	297.363	80.3491
307.617	83.6208	307.617	83.4694	307.617	83.7173	307.617	83.2743	307.617	83.7494	307.617	83.0463	307.617	83.7118	307.617	82.7932	307.617	83.604	307.617	82.5188	307.617	83.4311	307.617	82.2231	307.617	83.2026	307.617	81.9055	307.617	82.9318	307.617	81.5686	307.617	82.6332	307.617	81.2228	307.617	82.3214	307.617	80.8899	307.617	82.0102	307.617	80.6018	307.617	81.7144	307.617	80.3937	307.617	81.4504	307.617	80.2912	307.617	81.2347	307.617	80.297	307.617	81.0777	307.617	80.3876	307.617	80.976	307.617	80.5222	307.617	80.9102	307.617	80.6596	307.617	80.851	307.617	80.7717
319.336	83.1549	319.336	82.9809	319.336	83.2661	319.336	82.7577	319.336	83.3042	319.336	82.4991	319.336	83.2641	319.336	82.2163	319.336	83.1456	319.336	81.9158	319.336	82.9539	319.336	81.5987	319.336	82.6977	319.336	81.2641	319.336	82.3881	319.336	80.914	319.336	82.0373	319.336	80.5591	319.336	81.6593	319.336	80.2228	319.336	81.2726	319.336	79.9411	319.336	80.9036	319.336	79.7535	319.336	80.5878	319.336	79.6861	319.336	80.3611	319.336	79.7364	319.336	80.2424	319.336	79.8696	319.336	80.219	319.336	80.0325	319.336	80.2481	319.336	80.1731	319.336	80.2754	319.336	80.257
329.59	83.1355	329.59	82.9445	329.59	83.2508	329.59	82.6925	329.59	83.2803	329.59	82.3957	329.59	83.2197	329.59	82.0686	329.59	83.0711	329.59	81.7206	329.59	82.8428	329.59	81.3558	329.59	82.5475	329.59	80.9746	329.59	82.201	329.59	80.5795	329.59	81.819	329.59	80.1818	329.59	81.4172	329.59	79.8076	329.59	81.0123	329.59	79.4982	329.59	80.6271	329.59	79.2997	329.59	80.294	329.59	79.2425	329.59	80.0494	329.59	79.3206	329.59	79.9172	329.59	79.4899	329.59	79.8893	329.59	79.6857	329.59	79.9225	329.59	79.8483	329.59	79.9568	329.59	79.9407
341.309	83.3088	341.309	83.1003	341.309	83.4347	341.309	82.8243	341.309	83.4675	341.309	82.4982	341.309	83.4035	341.309	82.1382	341.309	83.2457	341.309	81.756	341.309	83.0034	341.309	81.3577	341.309	82.6906	341.309	80.9453	341.309	82.3229	341.309	80.5218	341.309	81.9145	341.309	80.0976	341.309	81.4763	341.309	79.6968	341.309	81.019	341.309	79.3576	341.309	80.5601	341.309	79.1241	341.309	80.1328	341.309	79.0266	341.309	79.7853	341.309	79.0616	341.309	79.5618	341.309	79.1881	341.309	79.4733	341.309	79.3436	341.309	79.4823	341.309	79.4692	341.309	79.5221	341.309	79.5293
353.027	83.6313	353.027	83.3993	353.027	83.7639	353.027	83.0803	353.027	83.7895	353.027	82.6892	353.027	83.7066	353.027	82.2409	353.027	83.5199	353.027	81.7473	353.027	83.2391	353.027	81.2162	353.027	82.8777	353.027	80.6536	353.027	82.4497	353.027	80.0694	353.027	81.9672	353.027	79.4866	353.027	81.4395	353.027	78.9503	353.027	80.8777	353.027	78.5269	353.027	80.3045	353.027	78.286	353.027	79.7663	353.027	78.2616	353.027	79.3338	353.027	78.4229	353.027	79.0746	353.027	78.6847	353.027	79.0052	353.027	78.9477	353.027	79.0689	353.027	79.1342	353.027	79.1659	353.027	79.2051
366.211	83.4351	366.211	83.27	366.211	83.5158	366.211	83.032	366.211	83.5045	366.211	82.7343	366.211	83.4	366.211	82.3886	366.211	83.2078	366.211	82.0019	366.211	82.94	366.211	81.5764	366.211	82.6136	366.211	81.112	366.211	82.2472	366.211	80.6112	366.211	81.8566	366.211	80.0873	366.211	81.4507	366.211	79.5713	366.211	81.0319	366.211	79.1145	366.211	80.6034	366.211	78.7784	366.211	80.1794	366.211	78.6092	366.211	79.7928	366.211	78.6084	366.211	79.4875	366.211	78.7272	366.211	79.2934	366.211	78.8912	366.211	79.202	366.211	79.0347	366.211	79.1656	366.211	79.124
379.395	83.3102	379.395	83.1157	379.395	83.4169	379.395	82.8468	379.395	83.4268	379.395	82.5171	379.395	83.3362	379.395	82.137	379.395	83.1477	379.395	81.7102	379.395	82.869	379.395	81.2333	379.395	82.5108	379.395	80.7	379.395	82.0844	379.395	80.109	379.395	81.5995	379.395	79.4759	379.395	81.0648	379.395	78.8471	379.395	80.4941	379.395	78.3064	379.395	79.9177	379.395	77.9593	379.395	79.3939	379.395	77.8788	379.395	79.0038	379.395	78.049	379.395	78.8125	379.395	78.3673	379.395	78.8165	379.395	78.7042	379.395	78.934	379.395	78.9578	379.395	79.0509	379.395	79.0745
392.578	83.0413	392.578	82.8537	392.578	83.1332	392.578	82.5852	392.578	83.1203	392.578	82.2533	392.578	83.0016	392.578	81.8732	392.578	82.7853	392.578	81.4539	392.578	82.4884	392.578	80.9967	392.578	82.1345	392.578	80.4973	392.578	81.7486	392.578	79.9532	392.578	81.3494	392.578	79.3746	392.578	80.9419	392.578	78.7957	392.578	80.5185	392.578	78.2822	392.578	80.0703	392.578	77.9199	392.578	79.6073	392.578	77.7755	392.578	79.1726	392.578	77.8488	392.578	78.8345	392.578	78.0642	392.578	78.6449	392.578	78.3136	392.578	78.5944	392.578	78.5072	392.578	78.6105	392.578	78.6022
405.762	83.0399	405.762	82.8297	405.762	83.1711	405.762	82.5597	405.762	83.208	405.762	82.2478	405.762	83.1415	405.762	81.9039	405.762	82.9702	405.762	81.5264	405.762	82.6995	405.762	81.1024	405.762	82.3398	405.762	80.6143	405.762	81.9047	405.762	80.0504	405.762	81.4092	405.762	79.42	405.762	80.87	405.762	78.7696	405.762	80.3106	405.762	78.1949	405.762	79.7708	405.762	77.825	405.762	79.3131	405.762	77.7573	405.762	79.011	405.762	77.9794	405.762	78.9087	405.762	78.37	405.762	78.9794	405.762	78.7785	405.762	79.1299	405.762	79.0912	405.762	79.2487	405.762	79.2498
420.41	83.1576	420.41	82.9473	420.41	83.2608	420.41	82.6505	420.41	83.244	420.41	82.2906	420.41	83.1042	420.41	81.8885	420.41	82.848	420.41	81.455	420.41	82.4918	420.41	80.9881	420.41	82.0593	420.41	80.4747	420.41	81.5764	420.41	79.8998	420.41	81.0633	420.41	79.2601	420.41	80.5272	420.41	78.5808	420.41	79.963	420.41	77.9317	420.41	79.3683	420.41	77.4271	420.41	78.7714	420.41	77.1827	420.41	78.2508	420.41	77.2331	420.41	77.9154	420.41	77.4917	420.41	77.8247	420.41	77.8066	420.41	77.922	420.41	78.0446	420.41	78.0685	420.41	78.1327
435.059	83.1432	435.059	82.9216	435.059	83.2658	435.059	82.6226	435.059	83.2752	435.059	82.2707	435.059	83.1673	435.059	81.8851	435.059	82.9471	435.059	81.4726	435.059	82.6281	435.059	81.0245	435.059	82.229	435.059	80.5205	435.059	81.7696	435.059	79.9408	435.059	81.2646	435.059	79.2826	435.059	80.7209	435.059	78.5808	435.059	80.141	435.059	77.9269	435.059	79.5376	435.059	77.4653	435.059	78.9575	435.059	77.3261	435.059	78.4935	435.059	77.5187	435.059	78.2502	435.059	77.9102	435.059	78.2609	435.059	78.3199	435.059	78.4395	435.059	78.6103	435.059	78.6345	435.059	78.7145
451.172	82.5455	451.172	82.3038	451.172	82.6831	451.172	81.9858	451.172	82.7013	451.172	81.6249	451.172	82.5997	451.172	81.2485	451.172	82.3908	451.172	80.8656	451.172	82.0967	451.172	80.4613	451.172	81.7415	451.172	80.0035	451.172	81.3417	451.172	79.4594	451.172	80.8961	451.172	78.8164	451.172	80.3843	451.172	78.1075	451.172	79.7801	451.172	77.4374	451.172	79.0836	451.172	76.982	451.172	78.3661	451.172	76.9042	451.172	77.7983	451.172	77.2099	451.172	77.5793	451.172	77.7257	451.172	77.7523	451.172	78.2325	451.172	78.1388	451.172	78.5715	451.172	78.4968	451.172	78.663
465.82	82.9184	465.82	82.6685	465.82	83.0477	465.82	82.3275	465.82	83.0406	465.82	81.9326	465.82	82.8972	465.82	81.5167	465.82	82.6334	465.82	81.0952	465.82	82.2791	465.82	80.6573	465.82	81.8723	465.82	80.1702	465.82	81.4472	465.82	79.5937	465.82	81.0168	465.82	78.9011	465.82	80.5603	465.82	78.1046	465.82	80.0281	465.82	77.2876	465.82	79.3713	465.82	76.6278	465.82	78.5901	465.82	76.3402	465.82	77.7903	465.82	76.5017	465.82	77.1993	465.82	76.9518	465.82	77.0278	465.82	77.4299	465.82	77.2394	465.82	77.7375	465.82	77.5743	465.82	77.7823
483.398	82.9932	483.398	82.7368	483.398	83.1005	483.398	82.3622	483.398	83.0447	483.398	81.9132	483.398	82.8298	483.398	81.4368	483.398	82.4776	483.398	80.9653	483.398	82.0284	483.398	80.5009	483.398	81.5373	483.398	80.0131	483.398	81.0608	483.398	79.4526	483.398	80.6308	483.398	78.776	483.398	80.2298	483.398	77.9738	483.398	79.7907	483.398	77.1071	483.398	79.2323	483.398	76.3446	483.398	78.5162	483.398	75.9324	483.398	77.7099	483.398	76.0105	483.398	77.025	483.398	76.4434	483.398	76.7192	483.398	76.9413	483.398	76.835	483.398	77.272	483.398	77.1323	483.398	77.3297
499.512	82.5557	499.512	82.309	499.512	82.6755	499.512	81.9743	499.512	82.645	499.512	81.5991	499.512	82.4577	499.512	81.2243	499.512	82.1241	499.512	80.8656	499.512	81.6708	499.512	80.5037	499.512	81.1402	499.512	80.0914	499.512	80.5846	499.512	79.5736	499.512	80.0514	499.512	78.9118	499.512	79.5614	499.512	78.1091	499.512	79.0973	499.512	77.2444	499.512	78.6213	499.512	76.5059	499.512	78.1208	499.512	76.1448	499.512	77.653	499.512	76.2785	499.512	77.3429	499.512	76.7495	499.512	77.2918	499.512	77.2762	499.512	77.4607	499.512	77.6494	499.512	77.6822	499.512	77.7801
517.09	82.7074	517.09	82.356	517.09	82.875	517.09	81.8727	517.09	82.834	517.09	81.3377	517.09	82.5837	517.09	80.8441	517.09	82.148	517.09	80.459	517.09	81.5817	517.09	80.1826	517.09	80.9771	517.09	79.9439	517.09	80.4505	517.09	79.6388	517.09	80.0875	517.09	79.1749	517.09	79.8697	517.09	78.4993	517.09	79.6677	517.09	77.623	517.09	79.3191	517.09	76.6645	517.09	78.7166	517.09	75.8899	517.09	77.8783	517.09	75.6092	517.09	77.0076	517.09	75.8635	517.09	76.4552	517.09	76.35	517.09	76.4091	517.09	76.7298	517.09	76.6523	517.09	76.8275
536.133	83.0574	536.133	82.6057	536.133	83.2978	536.133	81.9903	536.133	83.3041	536.133	81.2925	536.133	83.0701	536.133	80.6255	536.133	82.6053	536.133	80.1003	536.133	81.9414	536.133	79.7612	536.133	81.148	536.133	79.5486	536.133	80.3501	536.133	79.3364	536.133	79.7086	536.133	78.9991	536.133	79.3252	536.133	78.4571	536.133	79.1368	536.133	77.7013	536.133	78.9512	536.133	76.8299	536.133	78.5929	536.133	76.0887	536.133	78.0139	536.133	75.7903	536.133	77.348	536.133	76.0168	536.133	76.8732	536.133	76.4989	536.133	76.778	536.133	76.8991	536.133	76.9322	536.133	77.0387
555.176	83.42	555.176	83.0384	555.176	83.5947	555.176	82.4633	555.176	83.561	555.176	81.7303	555.176	83.3223	555.176	80.91	555.176	82.8837	555.176	80.1104	555.176	82.2529	555.176	79.4482	555.176	81.4485	555.176	78.9824	555.176	80.5195	555.176	78.6673	555.176	79.5752	555.176	78.3845	555.176	78.7948	555.176	78.0215	555.176	78.3428	555.176	77.5324	555.176	78.2135	555.176	76.9737	555.176	78.2237	555.176	76.5171	555.176	78.1883	555.176	76.3727	555.176	78.0517	555.176	76.6002	555.176	77.8845	555.176	77.0294	555.176	77.7813	555.176	77.4257	555.176	77.7415	555.176	77.6592
574.219	83.6487	574.219	83.2628	574.219	83.7889	574.219	82.6438	574.219	83.6833	574.219	81.8264	574.219	83.3406	574.219	80.8814	574.219	82.779	574.219	79.9263	574.219	82.0322	574.219	79.106	574.219	81.1643	574.219	78.5218	574.219	80.2859	574.219	78.1564	574.219	79.5447	574.219	77.8921	574.219	79.0469	574.219	77.606	574.219	78.7533	574.219	77.2491	574.219	78.4936	574.219	76.881	574.219	78.1076	574.219	76.6575	574.219	77.577	574.219	76.7278	574.219	77.0854	574.219	77.0776	574.219	76.9189	574.219	77.5132	574.219	77.1585	574.219	77.8093	574.219	77.561	574.219	77.828
594.727	83.6046	594.727	83.3141	594.727	83.6981	594.727	82.8345	594.727	83.594	594.727	82.1866	594.727	83.2935	594.727	81.4103	594.727	82.7945	594.727	80.567	594.727	82.091	594.727	79.7326	594.727	81.1786	594.727	78.9742	594.727	80.0768	594.727	78.3175	594.727	78.8779	594.727	77.7353	594.727	77.8064	594.727	77.1785	594.727	77.1668	594.727	76.6365	594.727	77.059	594.727	76.193	594.727	77.2396	594.727	76.0219	594.727	77.4187	594.727	76.2489	594.727	77.5037	594.727	76.7838	594.727	77.5733	594.727	77.3751	594.727	77.7163	594.727	77.8012	594.727	77.8941	594.727	77.9644
615.234	83.7616	615.234	83.4335	615.234	83.8677	615.234	82.8946	615.234	83.7534	615.234	82.176	615.234	83.4274	615.234	81.3362	615.234	82.9005	615.234	80.4613	615.234	82.1842	615.234	79.6465	615.234	81.294	615.234	78.9539	615.234	80.263	615.234	78.3727	615.234	79.1654	615.234	77.8279	615.234	78.1347	615.234	77.2367	615.234	77.3259	615.234	76.5843	615.234	76.8063	615.234	75.9947	615.234	76.5139	615.234	75.7407	615.234	76.3846	615.234	76.0339	615.234	76.4691	615.234	76.7403	615.234	76.839	615.234	77.4963	615.234	77.3995	615.234	78.0101	615.234	77.909	615.234	78.149
637.207	83.6143	637.207	83.3119	637.207	83.7212	637.207	82.8158	637.207	83.6412	637.207	82.1459	637.207	83.3858	637.207	81.3472	637.207	82.9627	637.207	80.4924	637.207	82.3709	637.207	79.6709	637.207	81.6026	637.207	78.9545	637.207	80.6558	637.207	78.3554	637.207	79.5647	637.207	77.8158	637.207	78.4418	637.207	77.2468	637.207	77.4778	637.207	76.5929	637.207	76.8087	637.207	75.9006	637.207	76.3571	637.207	75.3689	637.207	75.9437	637.207	75.2656	637.207	75.5623	637.207	75.6348	637.207	75.4451	637.207	76.1864	637.207	75.7477	637.207	76.5706	637.207	76.2507	637.207	76.5929
659.18	82.9593	659.18	82.7152	659.18	83.0008	659.18	82.2738	659.18	82.8523	659.18	81.6632	659.18	82.5369	659.18	80.9373	659.18	82.08	659.18	80.1712	659.18	81.5004	659.18	79.4442	659.18	80.8078	659.18	78.8085	659.18	80.0107	659.18	78.2626	659.18	79.1405	659.18	77.7551	659.18	78.2863	659.18	77.2231	659.18	77.5942	659.18	76.6484	659.18	77.1721	659.18	76.1116	659.18	76.9718	659.18	75.8036	659.18	76.848	659.18	75.9004	659.18	76.7395	659.18	76.3518	659.18	76.7288	659.18	76.8934	659.18	76.9012	659.18	77.267	659.18	77.176	659.18	77.3512
682.617	83.3132	682.617	83.0119	682.617	83.3496	682.617	82.4471	682.617	83.1423	682.617	81.6551	682.617	82.7268	682.617	80.718	682.617	82.1451	682.617	79.7645	682.617	81.4383	682.617	78.9322	682.617	80.6426	682.617	78.2931	682.617	79.7934	682.617	77.8073	682.617	78.938	682.617	77.3686	682.617	78.1487	682.617	76.8911	682.617	77.508	682.617	76.3782	682.617	77.0538	682.617	75.9639	682.617	76.756	682.617	75.886	682.617	76.5983	682.617	76.2913	682.617	76.6645	682.617	77.0339	682.617	77.044	682.617	77.7918	682.617	77.6354	682.617	78.3017	682.617	78.1752	682.617	78.4332
707.52	83.7224	707.52	83.5634	707.52	83.6293	707.52	83.1409	707.52	83.3088	707.52	82.46	707.52	82.7937	707.52	81.5475	707.52	82.1162	707.52	80.4631	707.52	81.2955	707.52	79.3106	707.52	80.3289	707.52	78.2316	707.52	79.2002	707.52	77.3481	707.52	77.922	707.52	76.68	707.52	76.6268	707.52	76.1368	707.52	75.6333	707.52	75.6221	707.52	75.2205	707.52	75.163	707.52	75.234	707.52	74.9672	707.52	75.3085	707.52	75.2633	707.52	75.3605	707.52	75.9751	707.52	75.6127	707.52	76.7386	707.52	76.1893	707.52	77.2196	707.52	76.8503	707.52	77.2552
732.422	83.0184	732.422	82.8653	732.422	82.9437	732.422	82.4684	732.422	82.6746	732.422	81.8345	732.422	82.2517	732.422	80.9981	732.422	81.7083	732.422	80.0256	732.422	81.0526	732.422	79.0153	732.422	80.2565	732.422	78.0829	732.422	79.2647	732.422	77.3211	732.422	78.0429	732.422	76.7498	732.422	76.7037	732.422	76.3093	732.422	75.6803	732.422	75.9179	732.422	75.4888	732.422	75.5569	732.422	75.9341	732.422	75.3252	732.422	76.3604	732.422	75.3846	732.422	76.4556	732.422	75.765	732.422	76.3408	732.422	76.2635	732.422	76.3159	732.422	76.6114	732.422	76.4905	732.422	76.6672
757.324	83.8831	757.324	83.7004	757.324	83.7742	757.324	83.2237	757.324	83.4037	757.324	82.4776	757.324	82.8269	757.324	81.5124	757.324	82.1139	757.324	80.4005	757.324	81.325	757.324	79.2306	757.324	80.4734	757.324	78.0994	757.324	79.4954	757.324	77.1025	757.324	78.2552	757.324	76.3188	757.324	76.6171	757.324	75.7875	757.324	74.6839	757.324	75.5037	757.324	73.3587	757.324	75.4566	757.324	73.7997	757.324	75.6712	757.324	75.1954	757.324	76.1689	757.324	76.4106	757.324	76.8675	757.324	77.2357	757.324	77.5705	757.324	77.7931	757.324	78.0762	757.324	78.1538	757.324	78.2715
785.156	84.1241	785.156	83.9874	785.156	83.9978	785.156	83.5915	785.156	83.6382	785.156	82.9668	785.156	83.1084	785.156	82.1592	785.156	82.495	785.156	81.2138	785.156	81.8791	785.156	80.1599	785.156	81.2898	785.156	79.0072	785.156	80.6643	785.156	77.7547	785.156	79.844	785.156	76.4065	785.156	78.6007	785.156	75.0039	785.156	76.6746	785.156	73.7107	785.156	73.9294	785.156	72.9656	785.156	71.3765	785.156	73.3105	785.156	72.0076	785.156	74.6119	785.156	74.4244	785.156	76.1492	785.156	76.3456	785.156	77.4058	785.156	77.5726	785.156	78.1882	785.156	78.2554	785.156	78.4637
811.523	84.8448	811.523	84.6559	811.523	84.649	811.523	84.1191	811.523	84.0656	811.523	83.3121	811.523	83.1261	811.523	82.3549	811.523	81.9165	811.523	81.3863	811.523	80.6293	811.523	80.5058	811.523	79.6059	811.523	79.727	811.523	79.1531	811.523	78.9939	811.523	79.1383	811.523	78.2351	811.523	79.0349	811.523	77.3941	811.523	78.3212	811.523	76.4482	811.523	76.6291	811.523	75.486	811.523	74.0319	811.523	74.8766	811.523	72.8008	811.523	75.1781	811.523	74.9401	811.523	76.3588	811.523	77.2975	811.523	77.7361	811.523	78.7262	811.523	78.7942	811.523	79.3527	811.523	79.35
840.82	86.6743	840.82	86.3986	840.82	86.5753	840.82	85.7542	840.82	86.1215	840.82	84.7896	840.82	85.3454	840.82	83.6105	840.82	84.2847	840.82	82.371	840.82	82.9902	840.82	81.2188	840.82	81.5659	840.82	80.2304	840.82	80.249	840.82	79.4147	840.82	79.3864	840.82	78.7686	840.82	79.0466	840.82	78.2819	840.82	78.7152	840.82	77.8935	840.82	77.6265	840.82	77.52	840.82	75.0204	840.82	77.2085	840.82	71.0712	840.82	77.2767	840.82	72.9023	840.82	78.0404	840.82	77.2354	840.82	79.2633	840.82	79.7519	840.82	80.3824	840.82	80.8701	840.82	80.9974
870.117	87.0502	870.117	86.8945	870.117	86.7951	870.117	86.2967	870.117	86.1875	870.117	85.2758	870.117	85.2936	870.117	83.928	870.117	84.1647	870.117	82.4438	870.117	82.819	870.117	81.0494	870.117	81.2578	870.117	79.864	870.117	79.5869	870.117	78.8602	870.117	78.2946	870.117	78.0384	870.117	78.0707	870.117	77.5401	870.117	78.5612	870.117	77.4505	870.117	78.6245	870.117	77.5808	870.117	77.3944	870.117	77.6929	870.117	74.1673	870.117	77.854	870.117	70.3619	870.117	78.3922	870.117	74.0694	870.117	79.3337	870.117	77.9325	870.117	80.2059	870.117	79.8809	870.117	80.5075
900.879	86.9569	900.879	86.8144	900.879	86.7356	900.879	86.2582	900.879	86.2237	900.879	85.2801	900.879	85.4994	900.879	83.9399	900.879	84.6194	900.879	82.3963	900.879	83.5907	900.879	80.8911	900.879	82.363	900.879	79.6201	900.879	80.8814	900.879	78.6111	900.879	79.2648	900.879	77.8447	900.879	78.0706	900.879	77.4328	900.879	77.833	900.879	77.4741	900.879	77.9096	900.879	77.7829	900.879	77.1787	900.879	78.0473	900.879	74.9704	900.879	78.1831	900.879	72.2528	900.879	78.4091	900.879	73.9038	900.879	78.917	900.879	77.1041	900.879	79.4835	900.879	78.9721	900.879	79.6408
933.105	87.0525	933.105	87.0171	933.105	86.6891	933.105	86.5449	933.105	85.9968	933.105	85.6431	933.105	85.0614	933.105	84.3808	933.105	83.9532	933.105	82.8979	933.105	82.6845	933.105	81.3564	933.105	81.1959	933.105	79.8207	933.105	79.4534	933.105	78.1992	933.105	77.7834	933.105	76.4043	933.105	77.1425	933.105	74.7331	933.105	77.7062	933.105	74.0879	933.105	78.1549	933.105	74.7687	933.105	77.434	933.105	75.8999	933.105	75.0507	933.105	76.9816	933.105	72.254	933.105	78.0734	933.105	74.3252	933.105	79.1726	933.105	77.6377	933.105	79.9989	933.105	79.5309	933.105	80.2135
965.332	86.5259	965.332	86.3915	965.332	86.2442	965.332	85.7741	965.332	85.6567	965.332	84.6742	965.332	84.889	965.332	83.2073	965.332	84.0272	965.332	81.6624	965.332	83.0548	965.332	80.4081	965.332	81.8277	965.332	79.5243	965.332	80.1241	965.332	78.6946	965.332	77.8712	965.332	77.6227	965.332	75.997	965.332	76.411	965.332	76.3037	965.332	75.6607	965.332	77.369	965.332	75.7572	965.332	77.0996	965.332	76.165	965.332	74.6896	965.332	76.399	965.332	71.2958	965.332	76.7049	965.332	73.8684	965.332	77.5307	965.332	77.3438	965.332	78.6079	965.332	78.9842	965.332	79.2593
1000.49	86.415	1000.49	86.5367	1000.49	85.8203	1000.49	86.1099	1000.49	84.8903	1000.49	85.115	1000.49	83.8239	1000.49	83.6203	1000.49	82.8261	1000.49	81.8855	1000.49	81.9872	1000.49	80.4183	1000.49	81.1806	1000.49	79.5478	1000.49	80.0759	1000.49	78.8958	1000.49	78.2703	1000.49	77.8439	1000.49	75.7821	1000.49	76.1914	1000.49	74.8176	1000.49	74.8205	1000.49	76.5168	1000.49	75.4167	1000.49	77.4282	1000.49	77.0874	1000.49	75.9117	1000.49	78.328	1000.49	70.9621	1000.49	78.9959	1000.49	70.7498	1000.49	79.4594	1000.49	76.4082	1000.49	79.8893	1000.49	79.0816	1000.49	79.9641
1035.64	86.262	1035.64	86.5904	1035.64	85.6008	1035.64	86.4088	1035.64	84.8184	1035.64	85.5825	1035.64	84.1138	1035.64	84.0243	1035.64	83.5914	1035.64	81.7653	1035.64	83.2065	1035.64	79.2306	1035.64	82.7776	1035.64	77.5331	1035.64	82.0437	1035.64	77.2226	1035.64	80.7215	1035.64	77.3782	1035.64	78.6083	1035.64	77.4089	1035.64	76.0771	1035.64	77.4308	1035.64	74.8858	1035.64	77.6449	1035.64	75.0736	1035.64	77.9302	1035.64	74.2617	1035.64	78.0839	1035.64	71.9896	1035.64	78.2371	1035.64	72.6811	1035.64	78.7022	1035.64	76.301	1035.64	79.3206	1035.64	78.6244	1035.64	79.4824
1072.27	86.5224	1072.27	86.8307	1072.27	85.8259	1072.27	86.6453	1072.27	84.8765	1072.27	85.8728	1072.27	83.8593	1072.27	84.4444	1072.27	82.9872	1072.27	82.3879	1072.27	82.3858	1072.27	80.0066	1072.27	81.9432	1072.27	78.0055	1072.27	81.3233	1072.27	76.7372	1072.27	80.1919	1072.27	75.4364	1072.27	78.5997	1072.27	73.3653	1072.27	77.5102	1072.27	72.0034	1072.27	77.5424	1072.27	74.2547	1072.27	77.0912	1072.27	77.0156	1072.27	74.2755	1072.27	78.6111	1072.27	67.1811	1072.27	79.3001	1072.27	71.1206	1072.27	79.6098	1072.27	76.525	1072.27	79.8123	1072.27	78.858	1072.27	79.7145
1108.89	87.1449	1108.89	87.2849	1108.89	86.5878	1108.89	87.012	1108.89	85.6301	1108.89	86.2895	1108.89	84.3735	1108.89	85.0384	1108.89	83.0351	1108.89	83.2222	1108.89	81.9131	1108.89	81.0203	1108.89	81.188	1108.89	79.0407	1108.89	80.6298	1108.89	77.8922	1108.89	79.686	1108.89	77.0645	1108.89	78.0386	1108.89	75.5022	1108.89	76.8508	1108.89	72.9514	1108.89	78.006	1108.89	72.1886	1108.89	79.1998	1108.89	74.651	1108.89	78.1757	1108.89	76.7567	1108.89	72.897	1108.89	78.0549	1108.89	62.8235	1108.89	79.1617	1108.89	75.6146	1108.89	80.1375	1108.89	79.3671	1108.89	80.4424
1148.44	87.2718	1148.44	87.3468	1148.44	86.7584	1148.44	86.9583	1148.44	85.8833	1148.44	86.096	1148.44	84.7739	1148.44	84.7405	1148.44	83.5717	1148.44	82.9122	1148.44	82.4262	1148.44	80.845	1148.44	81.4879	1148.44	79.1767	1148.44	80.7163	1148.44	78.3686	1148.44	79.6934	1148.44	77.7845	1148.44	77.934	1148.44	76.5311	1148.44	76.2174	1148.44	74.5174	1148.44	77.2355	1148.44	73.5701	1148.44	78.9339	1148.44	75.0397	1148.44	78.5923	1148.44	76.703	1148.44	74.9659	1148.44	77.7927	1148.44	67.2113	1148.44	78.6639	1148.44	73.6857	1148.44	79.3419	1148.44	77.9031	1148.44	79.3312
1189.45	87.2701	1189.45	87.1905	1189.45	86.9542	1189.45	86.717	1189.45	86.2559	1189.45	85.8237	1189.45	85.2247	1189.45	84.4316	1189.45	83.9586	1189.45	82.4648	1189.45	82.6389	1189.45	80.0864	1189.45	81.5255	1189.45	78.149	1189.45	80.6465	1189.45	77.4926	1189.45	79.4072	1189.45	77.145	1189.45	76.8815	1189.45	75.8293	1189.45	74.1519	1189.45	73.4894	1189.45	76.8763	1189.45	72.9545	1189.45	79.4953	1189.45	75.1227	1189.45	79.1062	1189.45	76.7184	1189.45	74.4365	1189.45	77.3948	1189.45	59.1305	1189.45	78.0163	1189.45	74.7584	1189.45	78.9255	1189.45	78.59	1189.45	79.4398
1230.47	86.9185	1230.47	86.6293	1230.47	86.8355	1230.47	86.0999	1230.47	86.3114	1230.47	85.3559	1230.47	85.3869	1230.47	84.1991	1230.47	84.1455	1230.47	82.3139	1230.47	82.6985	1230.47	79.5755	1230.47	81.4076	1230.47	76.9968	1230.47	80.7711	1230.47	76.7179	1230.47	80.3091	1230.47	77.2101	1230.47	78.4811	1230.47	76.2396	1230.47	72.6372	1230.47	72.9676	1230.47	69.8594	1230.47	70.0002	1230.47	77.8543	1230.47	73.8779	1230.47	79.7064	1230.47	76.8852	1230.47	77.2313	1230.47	78.132	1230.47	65.4762	1230.47	78.7081	1230.47	71.7839	1230.47	79.2938	1230.47	77.8858	1230.47	79.4318
1274.41	87.4497	1274.41	86.9961	1274.41	87.3709	1274.41	86.1884	1274.41	86.8257	1274.41	85.3617	1274.41	85.9761	1274.41	84.5226	1274.41	84.9075	1274.41	83.1551	1274.41	83.5608	1274.41	80.6389	1274.41	81.8458	1274.41	76.7003	1274.41	80.0431	1274.41	73.8309	1274.41	79.1159	1274.41	75.2278	1274.41	78.7829	1274.41	75.9969	1274.41	76.7277	1274.41	74.2844	1274.41	70.1186	1274.41	70.2467	1274.41	74.0277	1274.41	70.9581	1274.41	79.0982	1274.41	74.5454	1274.41	79.4284	1274.41	76.6017	1274.41	74.9071	1274.41	78.1686	1274.41	56.9953	1274.41	79.2739	1274.41	75.3774	1274.41	78.9112
1319.82	88.5787	1319.82	88.1614	1319.82	88.3485	1319.82	87.0798	1319.82	87.6688	1319.82	85.6241	1319.82	86.7645	1319.82	84.2471	1319.82	85.7658	1319.82	82.8985	1319.82	84.6712	1319.82	80.8284	1319.82	83.3733	1319.82	77.1981	1319.82	81.7918	1319.82	73.2543	1319.82	80.1929	1319.82	74.9182	1319.82	79.0897	1319.82	76.7753	1319.82	77.8039	1319.82	76.2827	1319.82	74.5009	1319.82	74.161	1319.82	73.4607	1319.82	73.2201	1319.82	78.4636	1319.82	74.0932	1319.82	80.0363	1319.82	74.6435	1319.82	77.4249	1319.82	75.9174	1319.82	68.2032	1319.82	77.655	1319.82	73.4781	1319.82	77.5874
1366.7	88.7355	1366.7	88.4578	1366.7	88.4464	1366.7	87.5128	1366.7	87.8072	1366.7	86.0427	1366.7	86.9704	1366.7	84.4353	1366.7	85.932	1366.7	82.883	1366.7	84.6771	1366.7	80.8958	1366.7	83.3576	1366.7	77.6965	1366.7	82.2001	1366.7	73.1419	1366.7	81.1926	1366.7	71.2128	1366.7	79.9903	1366.7	72.7622	1366.7	77.9951	1366.7	73.0612	1366.7	74.3719	1366.7	73.4119	1366.7	72.3179	1366.7	75.5277	1366.7	76.5738	1366.7	76.7936	1366.7	78.5488	1366.7	75.9432	1366.7	77.1478	1366.7	74.0029	1366.7	72.3038	1366.7	73.9431	1366.7	70.9671	1366.7	73.8465
1413.57	89.0371	1413.57	88.7389	1413.57	88.7782	1413.57	87.7039	1413.57	88.148	1413.57	86.015	1413.57	87.1891	1413.57	84.1996	1413.57	85.8666	1413.57	82.7899	1413.57	84.2088	1413.57	81.4709	1413.57	82.3595	1413.57	79.5352	1413.57	80.6231	1413.57	76.8649	1413.57	79.4659	1413.57	74.8373	1413.57	78.893	1413.57	73.8929	1413.57	77.8985	1413.57	71.3683	1413.57	75.3027	1413.57	70.7483	1413.57	72.3644	1413.57	75.6461	1413.57	74.5034	1413.57	78.0112	1413.57	76.4468	1413.57	77.7525	1413.57	76.2074	1413.57	75.8127	1413.57	74.7239	1413.57	74.1755	1413.57	73.7459	1413.57	73.7997
1463.38	89.0355	1463.38	88.7568	1463.38	88.7551	1463.38	87.6755	1463.38	88.2353	1463.38	85.7402	1463.38	87.6269	1463.38	83.4096	1463.38	86.735	1463.38	81.9347	1463.38	85.2333	1463.38	81.4429	1463.38	82.9422	1463.38	80.4523	1463.38	80.1651	1463.38	78.563	1463.38	78.4057	1463.38	77.6499	1463.38	78.4863	1463.38	78.0522	1463.38	78.1869	1463.38	76.3755	1463.38	75.9455	1463.38	69.9571	1463.38	73.1256	1463.38	73.7821	1463.38	72.823	1463.38	78.165	1463.38	72.2444	1463.38	78.4165	1463.38	74.4196	1463.38	76.4979	1463.38	77.1473	1463.38	75.06	1463.38	77.3954	1463.38	75.9614
1516.11	88.1037	1516.11	88.1161	1516.11	87.919	1516.11	87.4921	1516.11	87.824	1516.11	85.9491	1516.11	87.5084	1516.11	83.524	1516.11	86.4999	1516.11	81.0015	1516.11	84.5651	1516.11	79.656	1516.11	81.6742	1516.11	78.9564	1516.11	77.9764	1516.11	77.9706	1516.11	74.7109	1516.11	77.6903	1516.11	75.3177	1516.11	78.4753	1516.11	76.7963	1516.11	78.0281	1516.11	76.0593	1516.11	74.565	1516.11	74.7379	1516.11	70.7068	1516.11	74.7965	1516.11	74.3276	1516.11	71.4316	1516.11	75.6147	1516.11	66.1805	1516.11	74.5397	1516.11	73.9188	1516.11	73.618	1516.11	75.6612	1516.11	74.6227
1568.85	87.6222	1568.85	87.1845	1568.85	88.0063	1568.85	86.4677	1568.85	87.9996	1568.85	85.0296	1568.85	87.1905	1568.85	82.6907	1568.85	85.531	1568.85	79.7822	1568.85	83.2895	1568.85	77.3372	1568.85	80.8462	1568.85	75.8756	1568.85	78.3161	1568.85	74.6571	1568.85	75.1835	1568.85	74.6958	1568.85	72.6733	1568.85	76.6084	1568.85	72.2082	1568.85	77.5332	1568.85	68.464	1568.85	76.2294	1568.85	71.7967	1568.85	73.7904	1568.85	76.345	1568.85	73.9177	1568.85	74.6967	1568.85	74.8725	1568.85	61.774	1568.85	74.8895	1568.85	71.5782	1568.85	74.9759	1568.85	75.4163	1568.85	75.5745
1624.51	87.6439	1624.51	86.3787	1624.51	88.4837	1624.51	85.2849	1624.51	88.1689	1624.51	84.162	1624.51	86.445	1624.51	82.4653	1624.51	83.749	1624.51	79.8097	1624.51	81.2613	1624.51	76.4054	1624.51	79.8081	1624.51	74.4793	1624.51	78.565	1624.51	74.726	1624.51	76.0664	1624.51	74.3292	1624.51	74.3667	1624.51	73.0322	1624.51	76.1303	1624.51	72.6879	1624.51	74.3136	1624.51	72.8492	1624.51	59.7101	1624.51	72.2182	1624.51	74.7386	1624.51	72.3916	1624.51	76.4503	1624.51	73.9042	1624.51	70.5606	1624.51	75.6805	1624.51	67.664	1624.51	77.0089	1624.51	75.1253	1624.51	77.141
1681.64	87.3476	1681.64	86.2361	1681.64	87.5216	1681.64	83.87	1681.64	87.2908	1681.64	80.5727	1681.64	86.6228	1681.64	79.1588	1681.64	84.6791	1681.64	80.3401	1681.64	81.3	1681.64	80.7775	1681.64	77.2887	1681.64	79.911	1681.64	70.5808	1681.64	78.5897	1681.64	65.43	1681.64	78.2571	1681.64	64.3321	1681.64	78.1643	1681.64	59.8694	1681.64	77.1689	1681.64	68.5809	1681.64	77.3185	1681.64	66.3349	1681.64	77.6746	1681.64	73.7691	1681.64	75.6397	1681.64	75.5955	1681.64	73.6166	1681.64	67.2041	1681.64	73.889	1681.64	71.4172	1681.64	74.4905	1681.64	77.3503	1681.64	77.0013
1741.7	85.5122	1741.7	84.2946	1741.7	86.5004	1741.7	82.6477	1741.7	86.8843	1741.7	80.1768	1741.7	85.7927	1741.7	77.2195	1741.7	82.1832	1741.7	76.8071	1741.7	74.4874	1741.7	78.214	1741.7	55.8059	1741.7	78.3395	1741.7	64.2207	1741.7	77.1899	1741.7	71.3381	1741.7	76.5971	1741.7	72.5892	1741.7	76.4662	1741.7	70.5376	1741.7	74.5224	1741.7	69.8818	1741.7	73.979	1741.7	64.7509	1741.7	76.0636	1741.7	65.4456	1741.7	74.7148	1741.7	73.1503	1741.7	69.0123	1741.7	70.1993	1741.7	66.9946	1741.7	62.6435	1741.7	70.3753	1741.7	73.727	1741.7	74.1046
1803.22	84.4754	1803.22	81.5445	1803.22	86.015	1803.22	78.8117	1803.22	85.547	1803.22	77.4541	1803.22	82.6251	1803.22	75.7961	1803.22	76.4264	1803.22	73.2293	1803.22	65.4204	1803.22	71.8715	1803.22	66.9931	1803.22	71.9324	1803.22	69.2506	1803.22	72.102	1803.22	69.9856	1803.22	73.0723	1803.22	71.2307	1803.22	73.5711	1803.22	72.176	1803.22	72.1234	1803.22	71.7681	1803.22	72.2888	1803.22	68.2584	1803.22	74.6354	1803.22	55.2278	1803.22	74.0137	1803.22	66.8712	1803.22	68.906	1803.22	66.1083	1803.22	58.2608	1803.22	63.8225	1803.22	60.6059	1803.22	69.2776	1803.22	67.8772
1866.21	85.4271	1866.21	82.1548	1866.21	86.141	1866.21	76.0881	1866.21	84.5541	1866.21	73.2136	1866.21	80.8109	1866.21	75.3762	1866.21	74.5729	1866.21	75.338	1866.21	60.9769	1866.21	73.6486	1866.21	67.4651	1866.21	71.0251	1866.21	71.3679	1866.21	67.2652	1866.21	70.5519	1866.21	62.9643	1866.21	65.9972	1866.21	61.2329	1866.21	64.5578	1866.21	53.2845	1866.21	71.688	1866.21	64.0824	1866.21	72.923	1866.21	71.7268	1866.21	69.4914	1866.21	73.5032	1866.21	68.7834	1866.21	71.1672	1866.21	64.5758	1866.21	65.2295	1866.21	63.5546	1866.21	61.9368	1866.21	69.2867	1866.21	66.9226
1932.13	85.3187	1932.13	82.3916	1932.13	86.3914	1932.13	76.7947	1932.13	85.5509	1932.13	64.0719	1932.13	81.83	1932.13	69.4508	1932.13	71.465	1932.13	74.2833	1932.13	70.4735	1932.13	75.855	1932.13	77.5795	1932.13	76.3008	1932.13	78.2988	1932.13	76.0747	1932.13	75.8024	1932.13	75.8811	1932.13	73.909	1932.13	75.8897	1932.13	73.7313	1932.13	73.6878	1932.13	73.3816	1932.13	64.8394	1932.13	73.5619	1932.13	65.2421	1932.13	69.1412	1932.13	69.8671	1932.13	69.4711	1932.13	70.1173	1932.13	69.0449	1932.13	68.6356	1932.13	66.5843	1932.13	66.9717	1932.13	68.4419	1932.13	67.0329
1999.51	85.6815	1999.51	81.4185	1999.51	86.9789	1999.51	74.3667	1999.51	84.8201	1999.51	69.1786	1999.51	78.187	1999.51	71.4357	1999.51	68.921	1999.51	70.5369	1999.51	68.9088	1999.51	64.1826	1999.51	70.2072	1999.51	63.1859	1999.51	74.6515	1999.51	68.9874	1999.51	75.1613	1999.51	71.1324	1999.51	72.8459	1999.51	71.9021	1999.51	68.3251	1999.51	70.0346	1999.51	66.2905	1999.51	64.525	1999.51	74.0479	1999.51	58.9724	1999.51	71.9321	1999.51	68.3672	1999.51	68.3238	1999.51	69.2818	1999.51	67.374	1999.51	66.3737	1999.51	68.9916	1999.51	64.3996	1999.51	70.2292	1999.51	66.3411
2069.82	85.7107	2069.82	82.4901	2069.82	86.1359	2069.82	75.6151	2069.82	83.7259	2069.82	61.3406	2069.82	78.5246	2069.82	74.9109	2069.82	64.1064	2069.82	76.9313	2069.82	73.6234	2069.82	75.522	2069.82	79.3321	2069.82	72.4768	2069.82	81.2804	2069.82	69.6102	2069.82	80.0773	2069.82	66.8438	2069.82	78.5908	2069.82	64.8787	2069.82	78.3564	2069.82	71.6068	2069.82	74.5701	2069.82	73.4145	2069.82	69.7219	2069.82	70.7186	2069.82	67.734	2069.82	70.2144	2069.82	70.0535	2069.82	69.3308	2069.82	67.9113	2069.82	65.0453	2069.82	70.8666	2069.82	60.5379	2069.82	72.4833	2069.82	65.2734
2143.07	86.298	2143.07	82.7949	2143.07	87.1188	2143.07	75.3179	2143.07	84.5915	2143.07	65.0123	2143.07	76.7091	2143.07	75.4068	2143.07	60.9701	2143.07	75.241	2143.07	72.9759	2143.07	69.2064	2143.07	77.5698	2143.07	66.1682	2143.07	81.2019	2143.07	76.5174	2143.07	81.7771	2143.07	79.1712	2143.07	79.509	2143.07	78.4179	2143.07	75.9599	2143.07	77.5084	2143.07	66.7502	2143.07	75.9112	2143.07	75.6877	2143.07	72.2498	2143.07	76.5579	2143.07	68.3327	2143.07	68.1983	2143.07	63.1269	2143.07	65.6717	2143.07	50.4408	2143.07	72.5202	2143.07	54.9422	2143.07	70.3346	2143.07	59.2154
2219.24	86.1732	2219.24	81.5798	2219.24	87.6502	2219.24	74.2336	2219.24	85.2347	2219.24	63.3201	2219.24	74.6744	2219.24	73.733	2219.24	75.3184	2219.24	77.5968	2219.24	79.8619	2219.24	78.7143	2219.24	80.2118	2219.24	78.2894	2219.24	80.9082	2219.24	75.5973	2219.24	79.0635	2219.24	73.1106	2219.24	77.0185	2219.24	75.1596	2219.24	77.9687	2219.24	74.0962	2219.24	74.2027	2219.24	73.7503	2219.24	74.6112	2219.24	74.3406	2219.24	72.9639	2219.24	71.6838	2219.24	67.3706	2219.24	70.5586	2219.24	63.1259	2219.24	62.8245	2219.24	72.142	2219.24	59.9127	2219.24	73.6639	2219.24	65.5324
2296.88	84.8631	2296.88	81.5499	2296.88	86.6734	2296.88	77.031	2296.88	84.7512	2296.88	65.0512	2296.88	74.0748	2296.88	75.3998	2296.88	77.518	2296.88	78.8597	2296.88	82.5192	2296.88	79.4098	2296.88	82.0565	2296.88	79.4694	2296.88	80.9774	2296.88	78.7529	2296.88	79.2427	2296.88	77.2703	2296.88	75.2765	2296.88	76.7694	2296.88	76.961	2296.88	74.8228	2296.88	75.3112	2296.88	72.5844	2296.88	75.2199	2296.88	73.8049	2296.88	75.326	2296.88	71.632	2296.88	66.9673	2296.88	70.3112	2296.88	57.7755	2296.88	65.0653	2296.88	70.946	2296.88	61.1923	2296.88	71.4996	2296.88	64.8543
2378.91	85.5572	2378.91	83.1735	2378.91	86.4717	2378.91	77.5157	2378.91	84.3071	2378.91	69.3136	2378.91	72.6049	2378.91	76.1006	2378.91	78.3557	2378.91	78.5714	2378.91	83.2839	2378.91	78.7847	2378.91	83.388	2378.91	76.8891	2378.91	81.4366	2378.91	74.5332	2378.91	77.3157	2378.91	72.6877	2378.91	73.2519	2378.91	69.1325	2378.91	75.537	2378.91	72.6455	2378.91	74.9572	2378.91	74.0127	2378.91	74.3066	2378.91	73.7855	2378.91	74.3594	2378.91	73.5388	2378.91	69.6883	2378.91	70.2155	2378.91	59.5596	2378.91	65.4475	2378.91	68.9412	2378.91	58.2793	2378.91	71.2113	2378.91	68.314
2462.4	85.8666	2462.4	84.3559	2462.4	86.5664	2462.4	78.9855	2462.4	84.7796	2462.4	72.3294	2462.4	74.2465	2462.4	78.8014	2462.4	77.8302	2462.4	79.6528	2462.4	82.8555	2462.4	79.5915	2462.4	83.0175	2462.4	79.2898	2462.4	81.3538	2462.4	76.9735	2462.4	77.4231	2462.4	77.1303	2462.4	73.8519	2462.4	77.5755	2462.4	73.8238	2462.4	73.9942	2462.4	73.7585	2462.4	73.6528	2462.4	73.3511	2462.4	73.915	2462.4	73.788	2462.4	72.0768	2462.4	68.5904	2462.4	70.6177	2462.4	63.3323	2462.4	64.2599	2462.4	69.418	2462.4	64.5652	2462.4	72.8361	2462.4	68.8176
2548.83	85.8047	2548.83	84.2076	2548.83	85.1935	2548.83	77.5535	2548.83	83.6345	2548.83	75.2976	2548.83	75.0378	2548.83	79.692	2548.83	77.1355	2548.83	80.7227	2548.83	83.0077	2548.83	80.0268	2548.83	83.0804	2548.83	79.5883	2548.83	81.1937	2548.83	78.8774	2548.83	77.7235	2548.83	77.0236	2548.83	74.4322	2548.83	75.3432	2548.83	74.8658	2548.83	72.8173	2548.83	73.3101	2548.83	72.2226	2548.83	72.4021	2548.83	73.5092	2548.83	74.3653	2548.83	72.4547	2548.83	67.1869	2548.83	70.2552	2548.83	63.2047	2548.83	64.9666	2548.83	67.0265	2548.83	61.6019	2548.83	71.667	2548.83	69.7969
2639.65	86.3222	2639.65	83.9709	2639.65	85.5085	2639.65	77.5314	2639.65	82.1953	2639.65	76.0085	2639.65	73.6092	2639.65	81.1387	2639.65	77.0771	2639.65	82.5485	2639.65	82.2554	2639.65	81.3866	2639.65	82.7093	2639.65	79.5704	2639.65	80.7614	2639.65	76.6422	2639.65	76.2977	2639.65	69.1913	2639.65	71.548	2639.65	70.6019	2639.65	74.0996	2639.65	72.0779	2639.65	75.9631	2639.65	69.5252	2639.65	72.1013	2639.65	74.3041	2639.65	72.6486	2639.65	72.3125	2639.65	70.0001	2639.65	68.2177	2639.65	65.8288	2639.65	64.4356	2639.65	67.0743	2639.65	63.1609	2639.65	73.2093	2639.65	68.7829
2731.93	86.9105	2731.93	84.3393	2731.93	86.2167	2731.93	77.4497	2731.93	82.6743	2731.93	78.2567	2731.93	73.9692	2731.93	82.0864	2731.93	77.8855	2731.93	82.3404	2731.93	81.6213	2731.93	80.5148	2731.93	81.9396	2731.93	78.66	2731.93	80.522	2731.93	77.8179	2731.93	76.7603	2731.93	77.4019	2731.93	75.9548	2731.93	76.0731	2731.93	75.6878	2731.93	73.9185	2731.93	74.3318	2731.93	71.2349	2731.93	72.3734	2731.93	72.4413	2731.93	71.4544	2731.93	73.0284	2731.93	64.8646	2731.93	69.4445	2731.93	64.5035	2731.93	64.7898	2731.93	66.5285	2731.93	60.3667	2731.93	71.2427	2731.93	67.2386
2828.61	86.76	2828.61	84.2547	2828.61	85.924	2828.61	77.0956	2828.61	82.6095	2828.61	80.3381	2828.61	75.0579	2828.61	82.2659	2828.61	78.7507	2828.61	81.3247	2828.61	82.1519	2828.61	79.8302	2828.61	81.52	2828.61	77.8311	2828.61	79.3371	2828.61	76.3372	2828.61	75.0132	2828.61	74.8444	2828.61	75.4726	2828.61	72.362	2828.61	76.3071	2828.61	72.5159	2828.61	74.4536	2828.61	69.5566	2828.61	71.5096	2828.61	71.2635	2828.61	71.3423	2828.61	72.8551	2828.61	67.2627	2828.61	68.561	2828.61	62.3477	2828.61	63.1651	2828.61	67.9895	2828.61	63.4202	2828.61	72.2146	2828.61	67.0621
2928.22	86.432	2928.22	83.2965	2928.22	85.4947	2928.22	77.9043	2928.22	81.8885	2928.22	81.1249	2928.22	76.0116	2928.22	82.0284	2928.22	79.4091	2928.22	81.3285	2928.22	82.0962	2928.22	79.7731	2928.22	81.6948	2928.22	78.3355	2928.22	79.6545	2928.22	76.8592	2928.22	75.1184	2928.22	72.6367	2928.22	73.2075	2928.22	70.3503	2928.22	74.1091	2928.22	72.1879	2928.22	72.528	2928.22	68.8552	2928.22	71.9821	2928.22	71.0593	2928.22	70.3409	2928.22	72.5131	2928.22	63.894	2928.22	69.2291	2928.22	65.5751	2928.22	63.7079	2928.22	68.0231	2928.22	62.8443	2928.22	71.3973	2928.22	67.0496
3030.76	86.8809	3030.76	83.3822	3030.76	85.8602	3030.76	79.578	3030.76	81.6643	3030.76	82.0008	3030.76	76.4289	3030.76	81.9216	3030.76	79.6504	3030.76	80.8399	3030.76	82.3229	3030.76	80.0791	3030.76	81.7852	3030.76	78.237	3030.76	80.0675	3030.76	75.6726	3030.76	75.2613	3030.76	74.5485	3030.76	73.763	3030.76	74.0555	3030.76	74.0932	3030.76	73.4714	3030.76	68.7139	3030.76	71.5633	3030.76	69.8863	3030.76	70.2116	3030.76	71.7193	3030.76	73.1397	3030.76	67.8681	3030.76	70.5918	3030.76	63.8879	3030.76	64.1536	3030.76	68.045	3030.76	61.8881	3030.76	71.4963	3030.76	68.0724
3137.7	85.9776	3137.7	82.4432	3137.7	85.5254	3137.7	80.4649	3137.7	81.8646	3137.7	82.4234	3137.7	76.5026	3137.7	82.1205	3137.7	79.7114	3137.7	81.3253	3137.7	82.1823	3137.7	80.1927	3137.7	81.6601	3137.7	78.7957	3137.7	80.2061	3137.7	77.2887	3137.7	75.1699	3137.7	76.4391	3137.7	72.6052	3137.7	73.6725	3137.7	73.3643	3137.7	72.2475	3137.7	67.6048	3137.7	70.9773	3137.7	70.0514	3137.7	67.9818	3137.7	71.4985	3137.7	72.0885	3137.7	65.8312	3137.7	69.8131	3137.7	61.7682	3137.7	64.8424	3137.7	67.0071	3137.7	60.087	3137.7	70.4712	3137.7	68.9574
3249.02	85.9169	3249.02	82.2654	3249.02	85.4483	3249.02	81.3415	3249.02	82.1216	3249.02	82.2575	3249.02	78.2576	3249.02	82.5704	3249.02	79.4172	3249.02	82.2562	3249.02	82.1247	3249.02	80.7131	3249.02	81.3293	3249.02	78.1829	3249.02	79.0107	3249.02	74.9533	3249.02	73.7487	3249.02	72.8581	3249.02	70.2863	3249.02	71.1177	3249.02	72.2625	3249.02	71.0039	3249.02	66.0717	3249.02	70.1534	3249.02	67.8139	3249.02	68.4977	3249.02	70.6923	3249.02	70.5454	3249.02	66.2309	3249.02	69.4879	3249.02	50.022	3249.02	64.7025	3249.02	67.7489	3249.02	56.5422	3249.02	70.8127	3249.02	66.2622
3363.28	85.5567	3363.28	82.2395	3363.28	85.2697	3363.28	81.9807	3363.28	81.9799	3363.28	82.4131	3363.28	79.8036	3363.28	83.4346	3363.28	79.0813	3363.28	82.1628	3363.28	82.0193	3363.28	79.3597	3363.28	81.5909	3363.28	76.8517	3363.28	78.4177	3363.28	74.9713	3363.28	73.3374	3363.28	73.7504	3363.28	67.0412	3363.28	72.1776	3363.28	66.6129	3363.28	71.198	3363.28	65.401	3363.28	68.7355	3363.28	65.5893	3363.28	69.0728	3363.28	69.4152	3363.28	70.9017	3363.28	64.1488	3363.28	69.9285	3363.28	57.8901	3363.28	63.7604	3363.28	69.3205	3363.28	56.3611	3363.28	68.6947	3363.28	66.6011
3481.93	85.2149	3481.93	82.7263	3481.93	85.6333	3481.93	81.7542	3481.93	82.0038	3481.93	82.8173	3481.93	80.2845	3481.93	83.2348	3481.93	80.1344	3481.93	81.2859	3481.93	81.6148	3481.93	79.1643	3481.93	81.7248	3481.93	77.3566	3481.93	78.7952	3481.93	74.8761	3481.93	74.6285	3481.93	71.4422	3481.93	72.1734	3481.93	70.0122	3481.93	71.9585	3481.93	70.7496	3481.93	57.3952	3481.93	68.7071	3481.93	62.8428	3481.93	66.6531	3481.93	67.0243	3481.93	70.773	3481.93	62.999	3481.93	70.0351	3481.93	57.4739	3481.93	65.6977	3481.93	67.9659	3481.93	50.694	3481.93	68.9138	3481.93	66.461
3604.98	84.6826	3604.98	83.2145	3604.98	84.9329	3604.98	82.3908	3604.98	82.303	3604.98	83.5101	3604.98	81.1291	3604.98	82.9409	3604.98	79.7962	3604.98	80.386	3604.98	81.0454	3604.98	78.9465	3604.98	82.3436	3604.98	76.9014	3604.98	79.8248	3604.98	74.4796	3604.98	75.9984	3604.98	73.5081	3604.98	74.1397	3604.98	72.6082	3604.98	73.0385	3604.98	70.6996	3604.98	61.1824	3604.98	69.2482	3604.98	65.6832	3604.98	66.6087	3604.98	64.6671	3604.98	70.0993	3604.98	64.9935	3604.98	69.8313	3604.98	42.9773	3604.98	66.9564	3604.98	66.6059	3604.98	53.2045	3604.98	68.5153	3604.98	67.3181
3732.42	84.7306	3732.42	83.6288	3732.42	84.4057	3732.42	82.87	3732.42	82.1125	3732.42	84.3195	3732.42	81.8323	3732.42	82.8704	3732.42	81.1752	3732.42	80.7314	3732.42	80.4344	3732.42	79.033	3732.42	82.4469	3732.42	77.3602	3732.42	81.2358	3732.42	75.5274	3732.42	78.115	3732.42	73.4118	3732.42	76.7537	3732.42	71.7201	3732.42	74.1139	3732.42	71.3364	3732.42	62.1302	3732.42	68.3664	3732.42	63.0275	3732.42	67.2838	3732.42	65.3736	3732.42	69.0196	3732.42	66.9505	3732.42	68.8599	3732.42	54.8175	3732.42	64.3307	3732.42	66.6223	3732.42	60.3626	3732.42	68.358	3732.42	65.7237
3864.26	85.011	3864.26	83.6802	3864.26	84.6322	3864.26	83.5199	3864.26	82.9331	3864.26	84.3269	3864.26	82.6608	3864.26	82.5373	3864.26	82.2067	3864.26	80.7864	3864.26	80.8391	3864.26	78.0989	3864.26	82.1161	3864.26	76.5142	3864.26	81.3163	3864.26	73.9314	3864.26	78.9429	3864.26	72.6018	3864.26	75.7028	3864.26	71.8001	3864.26	72.3524	3864.26	71.0398	3864.26	65.4867	3864.26	70.0076	3864.26	66.6403	3864.26	65.1124	3864.26	63.9268	3864.26	70.5516	3864.26	66.0283	3864.26	69.2268	3864.26	59.6504	3864.26	63.9325	3864.26	66.0035	3864.26	62.6759	3864.26	66.059	3864.26	58.98
4000.49	85.3423	4000.49	83.8806	4000.49	84.2391	4000.49	83.8616	4000.49	82.9643	4000.49	84.2881	4000.49	83.5467	4000.49	82.8017	4000.49	82.3365	4000.49	80.5334	4000.49	80.534	4000.49	78.223	4000.49	82.8133	4000.49	76.3061	4000.49	81.0003	4000.49	74.6898	4000.49	77.4631	4000.49	73.3233	4000.49	72.9779	4000.49	72.3484	4000.49	64.3508	4000.49	70.1837	4000.49	65.5388	4000.49	71.0856	4000.49	66.8472	4000.49	64.9492	4000.49	58.6475	4000.49	70.0512	4000.49	64.96	4000.49	68.1587	4000.49	62.3414	4000.49	62.295	4000.49	63.3261	4000.49	60.0551	4000.49	63.7747	4000.49	57.8987
4141.11	85.8823	4141.11	83.9216	4141.11	84.49	4141.11	84.4208	4141.11	82.9681	4141.11	84.118	4141.11	83.8434	4141.11	82.5694	4141.11	82.7874	4141.11	80.7624	4141.11	78.6442	4141.11	78.9466	4141.11	82.0863	4141.11	76.9028	4141.11	80.8132	4141.11	75.1449	4141.11	76.9158	4141.11	72.3269	4141.11	71.2815	4141.11	70.5061	4141.11	55.408	4141.11	70.2133	4141.11	61.2718	4141.11	70.8093	4141.11	68.3074	4141.11	65.2701	4141.11	64.2298	4141.11	69.7097	4141.11	64.2202	4141.11	69.2247	4141.11	65.763	4141.11	61.5358	4141.11	60.9242	4141.11	61.0983	4141.11	64.1746	4141.11	59.463
4287.6	85.9889	4287.6	83.8556	4287.6	84.5833	4287.6	84.3628	4287.6	82.6288	4287.6	83.9691	4287.6	84.0224	4287.6	82.8346	4287.6	83.0807	4287.6	80.4762	4287.6	79.0977	4287.6	79.4504	4287.6	81.3867	4287.6	76.6116	4287.6	80.3043	4287.6	74.4224	4287.6	75.5086	4287.6	74.4185	4287.6	72.6634	4287.6	72.6596	4287.6	66.2996	4287.6	70.9682	4287.6	51.754	4287.6	69.9229	4287.6	61.7373	4287.6	68.9024	4287.6	64.3445	4287.6	66.4431	4287.6	62.2235	4287.6	69.4301	4287.6	64.565	4287.6	60.523	4287.6	67.8047	4287.6	49.8179	4287.6	67.4173	4287.6	63.9823
4438.48	85.9114	4438.48	84.2191	4438.48	85.1618	4438.48	84.6219	4438.48	82.1421	4438.48	83.7198	4438.48	84.4223	4438.48	82.0326	4438.48	83.0262	4438.48	81.1806	4438.48	78.8149	4438.48	78.5733	4438.48	81.7405	4438.48	76.3081	4438.48	81.4629	4438.48	73.889	4438.48	75.8365	4438.48	69.6306	4438.48	74.2565	4438.48	67.1887	4438.48	63.4337	4438.48	69.0317	4438.48	68.9332	4438.48	70.1654	4438.48	63.9756	4438.48	68.0444	4438.48	40.0001	4438.48	67.4101	4438.48	65.2167	4438.48	68.7209	4438.48	62.637	4438.48	62.2589	4438.48	65.7586	4438.48	51.9427	4438.48	64.5746	4438.48	61.2005
4595.21	85.6458	4595.21	83.9002	4595.21	85.5048	4595.21	84.068	4595.21	82.3044	4595.21	83.6069	4595.21	84.201	4595.21	82.3904	4595.21	83.2499	4595.21	80.7684	4595.21	77.4886	4595.21	79.4681	4595.21	80.6894	4595.21	75.4614	4595.21	81.3123	4595.21	73.7399	4595.21	77.5462	4595.21	73.0879	4595.21	75.1494	4595.21	70.5673	4595.21	62.5522	4595.21	67.9537	4595.21	70.9867	4595.21	67.0068	4595.21	69.3197	4595.21	67.0689	4595.21	65.6511	4595.21	68.0419	4595.21	66.0156	4595.21	68.5585	4595.21	53.8291	4595.21	61.4707	4595.21	61.6135	4595.21	55.3249	4595.21	64.6314	4595.21	58.2316
4756.35	85.7824	4756.35	84.1693	4756.35	85.7197	4756.35	84.5055	4756.35	82.3768	4756.35	83.9079	4756.35	84.296	4756.35	82.1368	4756.35	83.4907	4756.35	80.3791	4756.35	78.2191	4756.35	77.8195	4756.35	80.2803	4756.35	75.7628	4756.35	80.7537	4756.35	72.4666	4756.35	78.0526	4756.35	70.2561	4756.35	75.4	4756.35	68.6854	4756.35	65.3792	4756.35	69.5858	4756.35	69.8712	4756.35	68.1694	4756.35	71.6725	4756.35	68.4256	4756.35	68.1494	4756.35	66.5348	4756.35	65.2849	4756.35	69.8422	4756.35	61.8588	4756.35	64.325	4756.35	64.0054	4756.35	45.3831	4756.35	59.5627	4756.35	55.0307
4924.8	85.5412	4924.8	84.249	4924.8	86.3266	4924.8	84.6267	4924.8	83.1387	4924.8	84.1298	4924.8	84.1129	4924.8	81.7838	4924.8	83.4437	4924.8	79.5807	4924.8	78.1321	4924.8	77.3175	4924.8	80.1783	4924.8	74.8482	4924.8	80.898	4924.8	73.6906	4924.8	78.3132	4924.8	71.5767	4924.8	74.207	4924.8	68.7121	4924.8	65.7482	4924.8	68.1812	4924.8	58.8313	4924.8	67.2391	4924.8	69.8124	4924.8	66.0316	4924.8	66.919	4924.8	67.697	4924.8	60.2945	4924.8	69.1086	4924.8	65.6073	4924.8	66.7263	4924.8	64.6768	4924.8	59.0804	4924.8	63.3503	4924.8	56.7636
5097.66	85.328	5097.66	84.2044	5097.66	86.2697	5097.66	84.8942	5097.66	83.6626	5097.66	84.4121	5097.66	84.0397	5097.66	81.9042	5097.66	83.3069	5097.66	79.5932	5097.66	77.4435	5097.66	77.9269	5097.66	80.7912	5097.66	76.4644	5097.66	80.6326	5097.66	73.7983	5097.66	76.7914	5097.66	71.4403	5097.66	74.3765	5097.66	70.535	5097.66	64.4314	5097.66	68.3315	5097.66	57.1821	5097.66	67.9462	5097.66	64.2485	5097.66	66.1583	5097.66	61.8594	5097.66	67.5555	5097.66	59.2118	5097.66	69.3526	5097.66	64.2385	5097.66	66.4818	5097.66	64.8095	5097.66	58.8463	5097.66	60.5569	5097.66	49.5356
5277.83	84.9258	5277.83	84.6347	5277.83	86.3044	5277.83	85.2783	5277.83	84.0513	5277.83	83.9048	5277.83	84.1584	5277.83	82.0544	5277.83	83.6466	5277.83	80.164	5277.83	77.2235	5277.83	78.6906	5277.83	79.1414	5277.83	75.8177	5277.83	80.7499	5277.83	74.3297	5277.83	76.0733	5277.83	70.5499	5277.83	73.0815	5277.83	67.8778	5277.83	58.8769	5277.83	66.9793	5277.83	60.1582	5277.83	67.7579	5277.83	64.7829	5277.83	65.472	5277.83	62.3059	5277.83	67.4013	5277.83	62.1688	5277.83	68.9894	5277.83	61.766	5277.83	66.4302	5277.83	62.6083	5277.83	61.4328	5277.83	58.6406	5277.83	54.6931
5463.87	85.1986	5463.87	85.0603	5463.87	85.8945	5463.87	85.4762	5463.87	84.4821	5463.87	83.9774	5463.87	83.8623	5463.87	81.8881	5463.87	83.6449	5463.87	80.6841	5463.87	78.5359	5463.87	77.5565	5463.87	77.3101	5463.87	75.8085	5463.87	78.7483	5463.87	73.4546	5463.87	75.3439	5463.87	71.7582	5463.87	72.0873	5463.87	69.3556	5463.87	67.2242	5463.87	64.5044	5463.87	59.8302	5463.87	66.3322	5463.87	63.6132	5463.87	63.6113	5463.87	62.6191	5463.87	65.3049	5463.87	64.4933	5463.87	68.5902	5463.87	61.2574	5463.87	66.8177	5463.87	61.3182	5463.87	59.3963	5463.87	59.6829	5463.87	55.3538
5657.23	84.6552	5657.23	84.8765	5657.23	85.1272	5657.23	85.7939	5657.23	84.7645	5657.23	84.1771	5657.23	83.9918	5657.23	82.3205	5657.23	84.1859	5657.23	80.3459	5657.23	78.8448	5657.23	78.0718	5657.23	78.2753	5657.23	75.6097	5657.23	78.5761	5657.23	73.6806	5657.23	75.1947	5657.23	70.3439	5657.23	70.5327	5657.23	68.947	5657.23	68.4009	5657.23	66.2842	5657.23	51.877	5657.23	65.9228	5657.23	62.8357	5657.23	64.3636	5657.23	55.3144	5657.23	64.728	5657.23	64.1097	5657.23	68.0016	5657.23	61.0409	5657.23	67.9738	5657.23	62.6722	5657.23	59.3142	5657.23	58.3047	5657.23	50.9922
5856.45	84.9471	5856.45	85.1138	5856.45	85.5549	5856.45	85.281	5856.45	85.0171	5856.45	83.4677	5856.45	83.5926	5856.45	81.9744	5856.45	83.6683	5856.45	80.1183	5856.45	78.4634	5856.45	78.3128	5856.45	77.071	5856.45	75.4659	5856.45	78.0031	5856.45	73.2375	5856.45	73.9068	5856.45	70.977	5856.45	71.7502	5856.45	69.908	5856.45	67.4106	5856.45	67.2519	5856.45	62.0871	5856.45	67.5607	5856.45	55.6436	5856.45	66.5362	5856.45	50.8575	5856.45	65.5194	5856.45	55.4345	5856.45	68.4904	5856.45	62.7817	5856.45	68.2212	5856.45	61.4142	5856.45	60.7126	5856.45	55.2051	5856.45	56.7572
6062.99	85.2403	6062.99	84.829	6062.99	85.4442	6062.99	85.0461	6062.99	85.3601	6062.99	83.312	6062.99	83.4738	6062.99	81.4654	6062.99	82.9934	6062.99	80.3357	6062.99	79.2854	6062.99	77.6906	6062.99	74.3128	6062.99	75.5212	6062.99	78.4575	6062.99	74.4634	6062.99	77.7501	6062.99	71.477	6062.99	72.9624	6062.99	70.601	6062.99	67.777	6062.99	67.4827	6062.99	60.3511	6062.99	66.8089	6062.99	44.7963	6062.99	66.5694	6062.99	51.5637	6062.99	67.462	6062.99	54.8924	6062.99	67.8276	6062.99	59.222	6062.99	68.8467	6062.99	60.795	6062.99	58.9629	6062.99	57.6644	6062.99	57.1962
6276.86	84.9755	6276.86	85.2399	6276.86	85.6612	6276.86	84.7785	6276.86	85.1354	6276.86	82.8254	6276.86	83.5381	6276.86	81.582	6276.86	82.0488	6276.86	80.0976	6276.86	79.4203	6276.86	77.6174	6276.86	76.4223	6276.86	75.727	6276.86	78.0658	6276.86	73.7782	6276.86	76.4885	6276.86	69.674	6276.86	73.0665	6276.86	68.5603	6276.86	69.7387	6276.86	67.5241	6276.86	61.3298	6276.86	66.0232	6276.86	59.2327	6276.86	63.8114	6276.86	53.0752	6276.86	66.9349	6276.86	57.9594	6276.86	65.0404	6276.86	56.4788	6276.86	68.5023	6276.86	60.036	6276.86	56.7865	6276.86	60.6655	6276.86	52.3438
6498.05	85.1898	6498.05	85.4717	6498.05	85.7657	6498.05	84.5204	6498.05	84.9422	6498.05	82.7472	6498.05	83.7529	6498.05	81.8793	6498.05	81.8817	6498.05	79.2377	6498.05	79.3321	6498.05	77.6596	6498.05	74.6375	6498.05	74.1678	6498.05	79.2203	6498.05	71.8062	6498.05	76.5982	6498.05	69.4156	6498.05	72.3506	6498.05	66.9801	6498.05	67.5855	6498.05	66.0757	6498.05	59.3053	6498.05	64.9647	6498.05	56.3872	6498.05	63.0472	6498.05	54.9772	6498.05	64.7542	6498.05	60.6508	6498.05	63.962	6498.05	59.9495	6498.05	67.3979	6498.05	58.054	6498.05	60.4661	6498.05	56.4734	6498.05	59.17
6726.56	85.2555	6726.56	85.4519	6726.56	85.5569	6726.56	84.3304	6726.56	85.0235	6726.56	83.3224	6726.56	83.3789	6726.56	81.3737	6726.56	81.4443	6726.56	79.6934	6726.56	79.5689	6726.56	76.3407	6726.56	71.0686	6726.56	73.7888	6726.56	77.8387	6726.56	72.4375	6726.56	71.0517	6726.56	70.2162	6726.56	69.0032	6726.56	66.9976	6726.56	69.4623	6726.56	67.0195	6726.56	57.6669	6726.56	65.1315	6726.56	56.6832	6726.56	63.9373	6726.56	43.3126	6726.56	63.4431	6726.56	52.6085	6726.56	64.3854	6726.56	56.841	6726.56	67.7039	6726.56	57.7568	6726.56	61.4382	6726.56	59.1206	6726.56	59.4441
6963.87	85.2087	6963.87	85.4249	6963.87	85.6098	6963.87	84.3113	6963.87	84.8365	6963.87	83.2894	6963.87	83.2521	6963.87	80.8389	6963.87	80.5542	6963.87	79.5935	6963.87	79.6868	6963.87	76.3422	6963.87	71.3365	6963.87	74.9672	6963.87	77.0638	6963.87	72.417	6963.87	71.3908	6963.87	69.086	6963.87	69.3594	6963.87	65.5282	6963.87	66.4608	6963.87	66.0246	6963.87	56.2857	6963.87	63.7327	6963.87	52.1756	6963.87	63.489	6963.87	52.5969	6963.87	63.4116	6963.87	55.7855	6963.87	62.5924	6963.87	56.7441	6963.87	66.9705	6963.87	56.2804	6963.87	62.1878	6963.87	51.8872	6963.87	60.2447
7209.96	85.3657	7209.96	85.4161	7209.96	85.602	7209.96	84.601	7209.96	84.472	7209.96	82.6274	7209.96	83.2868	7209.96	81.1221	7209.96	80.1679	7209.96	79.2217	7209.96	79.4359	7209.96	76.8895	7209.96	69.9545	7209.96	73.7294	7209.96	74.6124	7209.96	70.3422	7209.96	70.8724	7209.96	68.24	7209.96	68.3291	7209.96	64.4869	7209.96	62.9108	7209.96	64.3755	7209.96	60.3146	7209.96	61.7199	7209.96	56.407	7209.96	61.0533	7209.96	46.431	7209.96	61.4169	7209.96	53.8287	7209.96	60.6763	7209.96	56.7334	7209.96	65.3705	7209.96	57.369	7209.96	63.0841	7209.96	56.4002	7209.96	59.3397
7464.84	85.8342	7464.84	85.6543	7464.84	85.5242	7464.84	84.8483	7464.84	84.6254	7464.84	82.6786	7464.84	82.9567	7464.84	81.4712	7464.84	79.8206	7464.84	79.1924	7464.84	78.5493	7464.84	76.1252	7464.84	68.8953	7464.84	72.1273	7464.84	73.4189	7464.84	69.5098	7464.84	72.2278	7464.84	68.3749	7464.84	66.8232	7464.84	64.8256	7464.84	61.2851	7464.84	64.0036	7464.84	59.7837	7464.84	62.0887	7464.84	51.058	7464.84	60.1229	7464.84	52.4035	7464.84	61.2595	7464.84	55.3091	7464.84	58.6554	7464.84	55.6386	7464.84	65.0411	7464.84	51.6308	7464.84	62.8112	7464.84	57.211	7464.84	60.6758
7727.05	86.1674	7727.05	85.8633	7727.05	85.6061	7727.05	84.7585	7727.05	84.5078	7727.05	83.1953	7727.05	82.6539	7727.05	81.4587	7727.05	79.7719	7727.05	79.3952	7727.05	78.9382	7727.05	75.1931	7727.05	70.7753	7727.05	72.4663	7727.05	72.8461	7727.05	69.1526	7727.05	70.9908	7727.05	68.4938	7727.05	67.1933	7727.05	64.2022	7727.05	65.7344	7727.05	63.7959	7727.05	65.0319	7727.05	61.0584	7727.05	53.3834	7727.05	59.9637	7727.05	55.0631	7727.05	62.2156	7727.05	51.6557	7727.05	57.9348	7727.05	55.5919	7727.05	64.5024	7727.05	54.2579	7727.05	62.4919	7727.05	57.9548	7727.05	60.912
7999.51	86.16	7999.51	86.041	7999.51	85.6556	7999.51	84.8164	7999.51	84.5919	7999.51	83.4311	7999.51	82.5172	7999.51	81.4448	7999.51	79.8095	7999.51	79.1294	7999.51	78.4593	7999.51	74.8465	7999.51	72.6712	7999.51	71.634	7999.51	71.7598	7999.51	68.5855	7999.51	70.0775	7999.51	66.8755	7999.51	65.5326	7999.51	63.2508	7999.51	64.3609	7999.51	62.7381	7999.51	63.4756	7999.51	60.4244	7999.51	51.1715	7999.51	57.4047	7999.51	54.9281	7999.51	62.3444	7999.51	54.5883	7999.51	55.8723	7999.51	53.9326	7999.51	63.4669	7999.51	52.1038	7999.51	60.9603	7999.51	54.8673	7999.51	58.5094
8282.23	86.4647	8282.23	86.2882	8282.23	85.9118	8282.23	84.8735	8282.23	84.4043	8282.23	83.3359	8282.23	82.5935	8282.23	81.6091	8282.23	79.612	8282.23	78.6561	8282.23	77.5955	8282.23	74.1654	8282.23	71.3289	8282.23	70.1374	8282.23	68.9173	8282.23	67.6165	8282.23	67.657	8282.23	64.9019	8282.23	59.0961	8282.23	62.5927	8282.23	60.852	8282.23	61.4239	8282.23	60.9333	8282.23	59.9936	8282.23	46.0842	8282.23	56.4042	8282.23	49.6516	8282.23	61.8434	8282.23	55.382	8282.23	54.2834	8282.23	54.1055	8282.23	61.6439	8282.23	53.1209	8282.23	61.3098	8282.23	55.8252	8282.23	57.8688
8573.73	86.7508	8573.73	86.5768	8573.73	86.1504	8573.73	84.8795	8573.73	84.3799	8573.73	83.4158	8573.73	82.2965	8573.73	81.4408	8573.73	79.4629	8573.73	77.9747	8573.73	76.856	8573.73	73.2113	8573.73	69.596	8573.73	69.6345	8573.73	65.9983	8573.73	67.1638	8573.73	65.7735	8573.73	64.7837	8573.73	58.1858	8573.73	61.442	8573.73	61.1345	8573.73	59.8273	8573.73	62.5088	8573.73	59.3927	8573.73	51.0994	8573.73	56.8071	8573.73	50.5469	8573.73	60.9999	8573.73	52.4315	8573.73	52.2427	8573.73	54.9226	8573.73	60.6794	8573.73	49.136	8573.73	60.2757	8573.73	54.7053	8573.73	56.9143
8876.95	87.0602	8876.95	86.8228	8876.95	86.3389	8876.95	84.9089	8876.95	84.3662	8876.95	83.3707	8876.95	82.252	8876.95	80.7681	8876.95	79.1787	8876.95	77.36	8876.95	76.3794	8876.95	72.3555	8876.95	68.1279	8876.95	68.8891	8876.95	63.9013	8876.95	65.7067	8876.95	66.4158	8876.95	62.609	8876.95	53.0596	8876.95	58.3124	8876.95	58.8085	8876.95	57.9554	8876.95	62.6443	8876.95	57.7177	8876.95	52.6887	8876.95	54.7255	8876.95	48.6725	8876.95	58.9461	8876.95	48.141	8876.95	51.5375	8876.95	50.2039	8876.95	58.5977	8876.95	50.2102	8876.95	58.4094	8876.95	50.3886	8876.95	54.1938
9188.96	87.616	9188.96	87.2011	9188.96	86.6958	9188.96	85.2111	9188.96	84.6133	9188.96	83.2579	9188.96	82.2389	9188.96	80.2576	9188.96	78.5621	9188.96	76.7102	9188.96	75.5725	9188.96	70.706	9188.96	66.3206	9188.96	66.6231	9188.96	61.8204	9188.96	63.3393	9188.96	64.9398	9188.96	58.3308	9188.96	50.4391	9188.96	56.4406	9188.96	46.2905	9188.96	55.6313	9188.96	60.2732	9188.96	56.855	9188.96	51.3507	9188.96	52.9461	9188.96	49.3915	9188.96	57.0879	9188.96	50.4799	9188.96	51.0797	9188.96	49.5065	9188.96	54.8982	9188.96	50.3969	9188.96	58.0352	9188.96	43.9747	9188.96	50.3522
9514.16	88.1811	9514.16	87.6791	9514.16	87.1946	9514.16	85.5966	9514.16	84.946	9514.16	83.0408	9514.16	82.2728	9514.16	80.0949	9514.16	77.9769	9514.16	75.284	9514.16	74.3782	9514.16	69.6799	9514.16	61.1342	9514.16	64.4909	9514.16	58.3698	9514.16	64.032	9514.16	63.9622	9514.16	58.8722	9514.16	57.8895	9514.16	57.3031	9514.16	44.7055	9514.16	52.1371	9514.16	58.4492	9514.16	56.6042	9514.16	44.2176	9514.16	51.679	9514.16	46.8728	9514.16	56.2198	9514.16	44.6063	9514.16	50.039	9514.16	46.4061	9514.16	53.0657	9514.16	49.0823	9514.16	56.3034	9514.16	41.0343	9514.16	49.2991
9849.61	88.9169	9849.61	88.1314	9849.61	87.7034	9849.61	85.9709	9849.61	85.2861	9849.61	83.039	9849.61	82.2484	9849.61	79.4562	9849.61	77.1135	9849.61	74.1059	9849.61	72.8571	9849.61	67.8594	9849.61	62.5718	9849.61	65.0427	9849.61	54.1721	9849.61	62.9828	9849.61	67.4247	9849.61	58.6362	9849.61	63.7656	9849.61	57.3144	9849.61	45.368	9849.61	52.5705	9849.61	56.3023	9849.61	56.4883	9849.61	52.0982	9849.61	50.875	9849.61	42.4003	9849.61	53.9706	9849.61	37.0825	9849.61	50.2823	9849.61	43.8142	9849.61	51.0091	9849.61	46.9736	9849.61	52.8828	9849.61	39.7904	9849.61	49.4878
10196.8	89.5138	10196.8	88.5785	10196.8	88.1595	10196.8	86.2018	10196.8	85.5605	10196.8	83.1015	10196.8	82.4145	10196.8	78.3421	10196.8	76.2428	10196.8	73.4995	10196.8	72.0032	10196.8	69.7256	10196.8	69.526	10196.8	65.7596	10196.8	59.6296	10196.8	65.5381	10196.8	68.505	10196.8	60.9222	10196.8	62.9895	10196.8	58.8034	10196.8	49.9775	10196.8	54.6912	10196.8	53.2527	10196.8	58.2677	10196.8	50.8231	10196.8	53.1054	10196.8	50.1198	10196.8	55.4715	10196.8	35.4792	10196.8	53.0354	10196.8	46.7702	10196.8	54.5856	10196.8	43.5744	10196.8	47.6822	10196.8	44.4525	10196.8	51.027
10555.7	89.7198	10555.7	88.6657	10555.7	88.2729	10555.7	86.4049	10555.7	85.581	10555.7	82.6625	10555.7	82.0549	10555.7	78.5343	10555.7	76.1567	10555.7	73.0571	10555.7	69.865	10555.7	71.2916	10555.7	72.7948	10555.7	68.5309	10555.7	64.4607	10555.7	66.8003	10555.7	69.7523	10555.7	64.219	10555.7	61.5382	10555.7	61.5029	10555.7	58.3657	10555.7	58.0063	10555.7	52.0718	10555.7	59.3591	10555.7	36.8931	10555.7	55.236	10555.7	47.8976	10555.7	56.1802	10555.7	43.8113	10555.7	56.187	10555.7	47.361	10555.7	56.9732	10555.7	44.5839	10555.7	54.1796	10555.7	40.4349	10555.7	51.3633
10927.7	89.7159	10927.7	88.6045	10927.7	88.1985	10927.7	86.1394	10927.7	85.5421	10927.7	82.5238	10927.7	82.1751	10927.7	78.7266	10927.7	76.225	10927.7	74.8271	10927.7	70.1472	10927.7	72.8732	10927.7	74.5318	10927.7	72.635	10927.7	68.8384	10927.7	68.9474	10927.7	71.1711	10927.7	66.1551	10927.7	61.2761	10927.7	63.1082	10927.7	54.0895	10927.7	59.8696	10927.7	54.1619	10927.7	60.9921	10927.7	48.8136	10927.7	55.807	10927.7	49.5287	10927.7	58.6823	10927.7	42.2486	10927.7	58.4713	10927.7	53.0128	10927.7	58.8901	10927.7	50.1311	10927.7	56.4444	10927.7	40.4251	10927.7	51.7379
11313	89.3722	11313	88.5109	11313	88.0518	11313	85.8083	11313	85.0295	11313	82.1635	11313	81.8694	11313	79.6676	11313	76.5683	11313	75.4963	11313	74.8307	11313	75.8471	11313	75.016	11313	73.2855	11313	73.355	11313	70.1361	11313	72.8831	11313	67.1855	11313	65.6025	11313	65.1623	11313	53.8304	11313	60.525	11313	53.9646	11313	61.8775	11313	56.4741	11313	58.0546	11313	51.7335	11313	58.3069	11313	42.279	11313	58.7398	11313	48.16	11313	60.2441	11313	46.4733	11313	56.5654	11313	41.4198	11313	51.1296
11712.9	88.7651	11712.9	88.2683	11712.9	87.8449	11712.9	85.3807	11712.9	84.7297	11712.9	81.7457	11712.9	81.2909	11712.9	79.7099	11712.9	76.4584	11712.9	77.5487	11712.9	77.0594	11712.9	76.4535	11712.9	76.5928	11712.9	75.1787	11712.9	74.9262	11712.9	70.415	11712.9	71.9569	11712.9	67.6158	11712.9	66.1013	11712.9	65.0441	11712.9	52.2526	11712.9	62.3211	11712.9	53.6834	11712.9	62.1305	11712.9	50.2548	11712.9	57.8383	11712.9	55.9884	11712.9	56.2067	11712.9	49.9322	11712.9	58.9738	11712.9	48.7988	11712.9	59.5782	11712.9	53.3475	11712.9	56.6523	11712.9	43.0646	11712.9	55.7123
12126	88.6429	12126	88.089	12126	87.6096	12126	84.8637	12126	84.9139	12126	82.011	12126	80.3965	12126	79.3211	12126	78.1356	12126	78.8773	12126	79.0355	12126	77.9048	12126	78.2009	12126	74.9951	12126	74.9034	12126	71.632	12126	69.8468	12126	68.1127	12126	64.8647	12126	65.6616	12126	53.3046	12126	62.7696	12126	54.1895	12126	61.9172	12126	59.4933	12126	58.3687	12126	57.6811	12126	55.3169	12126	48.2386	12126	58.4615	12126	45.9753	12126	59.5582	12126	54.8533	12126	56.5507	12126	49.6424	12126	57.7792
12553.7	88.0197	12553.7	87.8867	12553.7	87.4111	12553.7	84.7015	12553.7	85.1134	12553.7	81.8627	12553.7	80.0329	12553.7	80.6132	12553.7	80.8018	12553.7	80.0295	12553.7	80.1053	12553.7	78.62	12553.7	79.9671	12553.7	76.5845	12553.7	75.005	12553.7	71.4581	12553.7	68.7044	12553.7	68.5006	12553.7	69.0158	12553.7	65.692	12553.7	61.6418	12553.7	62.9856	12553.7	55.7086	12553.7	62.1545	12553.7	59.0297	12553.7	56.7501	12553.7	59.1661	12553.7	55.1893	12553.7	48.1419	12553.7	57.6128	12553.7	48.5519	12553.7	60.2912	12553.7	51.9465	12553.7	56.599	12553.7	48.3823	12553.7	58.4479
12996.1	87.454	12996.1	87.5307	12996.1	87.2881	12996.1	85.2936	12996.1	85.3493	12996.1	81.9341	12996.1	80.5808	12996.1	81.9908	12996.1	82.5673	12996.1	81.5253	12996.1	81.2895	12996.1	80.0702	12996.1	81.3881	12996.1	77.1785	12996.1	75.9711	12996.1	72.1415	12996.1	70.1682	12996.1	69.3526	12996.1	65.4938	12996.1	66.0276	12996.1	65.235	12996.1	63.3096	12996.1	59.2237	12996.1	61.0775	12996.1	54.9308	12996.1	57.8498	12996.1	56.7642	12996.1	55.591	12996.1	48.628	12996.1	59.6067	12996.1	56.1929	12996.1	60.5086	12996.1	58.7238	12996.1	57.5195	12996.1	43.5375	12996.1	59.0055
13454.6	87.0355	13454.6	87.4914	13454.6	87.1169	13454.6	86.3729	13454.6	86.2991	13454.6	83.2013	13454.6	82.6806	13454.6	83.642	13454.6	83.2577	13454.6	83.1852	13454.6	82.4028	13454.6	81.4646	13454.6	82.3613	13454.6	77.7076	13454.6	78.3514	13454.6	72.7128	13454.6	68.3359	13454.6	68.9081	13454.6	66.7248	13454.6	65.9364	13454.6	64.3358	13454.6	62.4353	13454.6	51.0669	13454.6	59.0294	13454.6	53.882	13454.6	58.9011	13454.6	56.9739	13454.6	52.9951	13454.6	58.0877	13454.6	61.2368	13454.6	56.87	13454.6	60.466	13454.6	60.8955	13454.6	57.8035	13454.6	44.2209	13454.6	57.9882
13929.2	87.3259	13929.2	87.9622	13929.2	87.4694	13929.2	87.7609	13929.2	87.8731	13929.2	85.5968	13929.2	85.2658	13929.2	85.9666	13929.2	84.5113	13929.2	84.857	13929.2	83.8679	13929.2	83.0639	13929.2	84.4264	13929.2	78.2547	13929.2	76.6427	13929.2	72.8952	13929.2	68.7358	13929.2	69.9851	13929.2	69.966	13929.2	67.5255	13929.2	64.1673	13929.2	63.2497	13929.2	60.1537	13929.2	58.1507	13929.2	53.1663	13929.2	61.0489	13929.2	59.3006	13929.2	46.6841	13929.2	61.2382	13929.2	63.401	13929.2	58.4278	13929.2	61.0455	13929.2	60.4646	13929.2	58.5511	13929.2	49.8568	13929.2	59.5794
14419.9	88.7889	14419.9	89.8019	14419.9	89.1351	14419.9	88.8837	14419.9	89.0864	14419.9	87.5912	14419.9	88.118	14419.9	88.0098	14419.9	86.6425	14419.9	86.0791	14419.9	84.2872	14419.9	83.5964	14419.9	84.3251	14419.9	78.287	14419.9	79.1375	14419.9	73.4324	14419.9	64.33	14419.9	70.7633	14419.9	70.3966	14419.9	67.6213	14419.9	68.5091	14419.9	65.0544	14419.9	65.2492	14419.9	59.5651	14419.9	63.286	14419.9	62.5094	14419.9	58.3983	14419.9	52.6332	14419.9	60.809	14419.9	65.088	14419.9	49.9511	14419.9	61.7748	14419.9	58.5928	14419.9	58.8426	14419.9	53.8437	14419.9	60.7791
14928.2	89.8621	14928.2	90.2377	14928.2	90.1389	14928.2	89.0847	14928.2	89.5728	14928.2	87.8212	14928.2	89.0781	14928.2	87.7213	14928.2	86.3204	14928.2	85.3737	14928.2	84.1244	14928.2	81.6538	14928.2	81.9071	14928.2	77.6207	14928.2	77.5076	14928.2	72.2191	14928.2	65.3392	14928.2	69.7836	14928.2	68.5362	14928.2	65.5245	14928.2	67.9061	14928.2	64.6665	14928.2	65.2525	14928.2	58.0498	14928.2	61.5092	14928.2	61.8029	14928.2	56.225	14928.2	53.8311	14928.2	54.4057	14928.2	64.1596	14928.2	44.8679	14928.2	58.4915	14928.2	57.3765	14928.2	57.785	14928.2	51.5898	14928.2	58.9213
15455.6	89.3902	15455.6	89.1459	15455.6	88.7695	15455.6	87.8946	15455.6	88.0203	15455.6	85.8316	15455.6	86.9732	15455.6	85.081	15455.6	83.6728	15455.6	81.5823	15455.6	81.0479	15455.6	77.9622	15455.6	76.033	15455.6	74.404	15455.6	73.7603	15455.6	68.0104	15455.6	53.4949	15455.6	64.7053	15455.6	58.8869	15455.6	60.268	15455.6	64.2113	15455.6	60.3315	15455.6	61.4816	15455.6	53.5155	15455.6	57.2477	15455.6	57.9084	15455.6	53.7906	15455.6	48.1443	15455.6	47.6739	15455.6	59.7586	15455.6	47.6155	15455.6	53.1885	15455.6	53.9454	15455.6	51.768	15455.6	44.2263	15455.6	55.1486
16000.5	87.7528	16000.5	87.3843	16000.5	86.5795	16000.5	86.3935	16000.5	85.6364	16000.5	83.5017	16000.5	83.673	16000.5	81.7137	16000.5	80.3517	16000.5	77.1343	16000.5	77.6435	16000.5	74.1338	16000.5	70.8849	16000.5	68.6843	16000.5	68.5577	16000.5	60.9258	16000.5	54.9362	16000.5	58.5811	16000.5	56.6685	16000.5	52.2931	16000.5	58.7338	16000.5	53.9456	16000.5	58.3065	16000.5	47.6569	16000.5	53.037	16000.5	52.1192	16000.5	48.0947	16000.5	43.2241	16000.5	47.5457	16000.5	52.3804	16000.5	42.073	16000.5	49.7002	16000.5	45.3728	16000.5	47.5186	16000.5	41.7664	16000.5	52.2939
16564.5	86.5598	16564.5	86.1272	16564.5	85.1135	16564.5	84.9492	16564.5	83.5652	16564.5	81.7959	16564.5	80.6789	16564.5	78.7654	16564.5	77.3462	16564.5	74.1206	16564.5	74.1591	16564.5	70.3674	16564.5	68.02	16564.5	63.8219	16564.5	66.8289	16564.5	56.0499	16564.5	48.2128	16564.5	54.7691	16564.5	55.6554	16564.5	47.825	16564.5	55.9446	16564.5	50.1701	16564.5	53.4841	16564.5	44.1216	16564.5	47.2338	16564.5	48.2207	16564.5	41.6823	16564.5	42.5318	16564.5	42.4763	16564.5	48.7928	16564.5	36.6079	16564.5	47.8416	16564.5	47.0466	16564.5	47.1905	16564.5	48.5714	16564.5	45.9466
17148.9	85.5122	17148.9	85.1532	17148.9	83.8435	17148.9	83.7665	17148.9	81.8008	17148.9	80.4982	17148.9	78.3224	17148.9	77.1378	17148.9	74.5949	17148.9	71.9582	17148.9	70.6867	17148.9	67.5827	17148.9	61.186	17148.9	59.9328	17148.9	62.0311	17148.9	55.2917	17148.9	50.854	17148.9	51.4859	17148.9	51.4094	17148.9	46.8109	17148.9	54.6267	17148.9	48.0981	17148.9	45.6211	17148.9	40.882	17148.9	49.3583	17148.9	46.0874	17148.9	38.768	17148.9	42.556	17148.9	44.3299	17148.9	46.9915	17148.9	32.0176	17148.9	46.2141	17148.9	41.2319	17148.9	47.7466	17148.9	39.0295	17148.9	39.9737
17752.4	84.4149	17752.4	84.1667	17752.4	82.6426	17752.4	82.6065	17752.4	79.8545	17752.4	78.8604	17752.4	75.9311	17752.4	75.6094	17752.4	70.9036	17752.4	70.1188	17752.4	67.487	17752.4	65.4215	17752.4	59.2016	17752.4	60.5403	17752.4	61.4104	17752.4	54.8096	17752.4	47.6255	17752.4	51.1475	17752.4	50.3835	17752.4	48.2117	17752.4	50.2969	17752.4	46.8426	17752.4	39.1253	17752.4	40.6458	17752.4	48.9036	17752.4	45.6792	17752.4	38.8761	17752.4	42.7329	17752.4	40.0047	17752.4	46.1522	17752.4	24.1416	17752.4	44.7181	17752.4	38.9427	17752.4	46.2499	17752.4	37.6157	17752.4	39.4302
18379.4	83.159	18379.4	82.9883	18379.4	81.2268	18379.4	81.4374	18379.4	78.1462	18379.4	77.4964	18379.4	74.0263	18379.4	74.2716	18379.4	68.2561	18379.4	69.1105	18379.4	65.459	18379.4	65.0972	18379.4	59.0756	18379.4	61.2496	18379.4	56.2726	18379.4	55.0298	18379.4	51.1143	18379.4	51.0961	18379.4	50.4149	18379.4	48.021	18379.4	45.8442	18379.4	44.7349	18379.4	45.9684	18379.4	39.9298	18379.4	45.9358	18379.4	45.1298	18379.4	35.508	18379.4	42.1545	18379.4	37.219	18379.4	45.0918	18379.4	34.6333	18379.4	43.2553	18379.4	40.0908	18379.4	45.6463	18379.4	40.2303	18379.4	43.4228
19026.9	81.8046	19026.9	81.6852	19026.9	79.9976	19026.9	80.0722	19026.9	76.5647	19026.9	76.3416	19026.9	72.3856	19026.9	73.4465	19026.9	67.8381	19026.9	69.046	19026.9	64.8651	19026.9	65.8709	19026.9	59.4202	19026.9	62.0331	19026.9	54.4781	19026.9	55.6104	19026.9	51.7902	19026.9	51.7684	19026.9	47.0371	19026.9	48.0419	19026.9	40.3319	19026.9	43.8621	19026.9	38.9232	19026.9	41.0296	19026.9	41.1476	19026.9	45.6297	19026.9	35.8714	19026.9	41.4512	19026.9	37.4042	19026.9	44.9016	19026.9	36.6995	19026.9	42.0952	19026.9	39.2735	19026.9	45.2334	19026.9	41.3489	19026.9	40.2923
19697.8	80.6068	19697.8	80.5191	19697.8	79.3064	19697.8	78.3133	19697.8	75.6016	19697.8	74.508	19697.8	71.3308	19697.8	71.9684	19697.8	68.2135	19697.8	68.7795	19697.8	65.4474	19697.8	66.0838	19697.8	61.7317	19697.8	62.6912	19697.8	59.6688	19697.8	56.4992	19697.8	54.2217	19697.8	51.8874	19697.8	44.6073	19697.8	48.6655	19697.8	48.9678	19697.8	43.6509	19697.8	47.2177	19697.8	43.3298	19697.8	36.4491	19697.8	45.8403	19697.8	36.5012	19697.8	41.2722	19697.8	38.8569	19697.8	44.1336	19697.8	38.8641	19697.8	38.4357	19697.8	40.173	19697.8	41.9769	19697.8	40.3485	19697.8	46.1595
19999.5	80.114	19999.5	79.9384	19999.5	79.1027	19999.5	77.5058	19999.5	75.1569	19999.5	73.5456	19999.5	71.1014	19999.5	71.1954	19999.5	67.2219	19999.5	68.9747	19999.5	66.5083	19999.5	66.8694	19999.5	63.153	19999.5	63.0375	19999.5	60.4656	19999.5	57.1223	19999.5	57.0792	19999.5	53.9368	19999.5	46.1073	19999.5	49.3412	19999.5	53.5251	19999.5	40.6698	19999.5	53.0787	19999.5	44.4091	19999.5	46.1371	19999.5	44.8853	19999.5	37.6695	19999.5	43.1801	19999.5	35.3634	19999.5	41.7806	19999.5	46.3605	19999.5	48.3371	19999.5	46.283	19999.5	40.9657	19999.5	46.7824	19999.5	50.6369
