"SPL Horizontal"
"On-Axis"		"10°"		"-10°"		"20°"		"-20°"		"30°"		"-30°"		"40°"		"-40°"		"50°"		"-50°"		"60°"		"-60°"		"70°"		"-70°"		"80°"		"-80°"		"90°"		"-90°"		"100°"		"-100°"		"110°"		"-110°"		"120°"		"-120°"		"130°"		"-130°"		"140°"		"-140°"		"150°"		"-150°"		"160°"		"-160°"		"170°"		"-170°"		"180°"
"Frequency / Hz"	"Sound Pressure Level / dB (re 20 µPa/V)  [2.83V at 1m]"	"Frequency / Hz"	"Sound Pressure Level / dB (re 20 µPa/V)  [2.83V at 1m]"	"Frequency / Hz"	"Sound Pressure Level / dB (re 20 µPa/V)  [2.83V at 1m]"	"Frequency / Hz"	"Sound Pressure Level / dB (re 20 µPa/V)  [2.83V at 1m]"	"Frequency / Hz"	"Sound Pressure Level / dB (re 20 µPa/V)  [2.83V at 1m]"	"Frequency / Hz"	"Sound Pressure Level / dB (re 20 µPa/V)  [2.83V at 1m]"	"Frequency / Hz"	"Sound Pressure Level / dB (re 20 µPa/V)  [2.83V at 1m]"	"Frequency / Hz"	"Sound Pressure Level / dB (re 20 µPa/V)  [2.83V at 1m]"	"Frequency / Hz"	"Sound Pressure Level / dB (re 20 µPa/V)  [2.83V at 1m]"	"Frequency / Hz"	"Sound Pressure Level / dB (re 20 µPa/V)  [2.83V at 1m]"	"Frequency / Hz"	"Sound Pressure Level / dB (re 20 µPa/V)  [2.83V at 1m]"	"Frequency / Hz"	"Sound Pressure Level / dB (re 20 µPa/V)  [2.83V at 1m]"	"Frequency / Hz"	"Sound Pressure Level / dB (re 20 µPa/V)  [2.83V at 1m]"	"Frequency / Hz"	"Sound Pressure Level / dB (re 20 µPa/V)  [2.83V at 1m]"	"Frequency / Hz"	"Sound Pressure Level / dB (re 20 µPa/V)  [2.83V at 1m]"	"Frequency / Hz"	"Sound Pressure Level / dB (re 20 µPa/V)  [2.83V at 1m]"	"Frequency / Hz"	"Sound Pressure Level / dB (re 20 µPa/V)  [2.83V at 1m]"	"Frequency / Hz"	"Sound Pressure Level / dB (re 20 µPa/V)  [2.83V at 1m]"	"Frequency / Hz"	"Sound Pressure Level / dB (re 20 µPa/V)  [2.83V at 1m]"	"Frequency / Hz"	"Sound Pressure Level / dB (re 20 µPa/V)  [2.83V at 1m]"	"Frequency / Hz"	"Sound Pressure Level / dB (re 20 µPa/V)  [2.83V at 1m]"	"Frequency / Hz"	"Sound Pressure Level / dB (re 20 µPa/V)  [2.83V at 1m]"	"Frequency / Hz"	"Sound Pressure Level / dB (re 20 µPa/V)  [2.83V at 1m]"	"Frequency / Hz"	"Sound Pressure Level / dB (re 20 µPa/V)  [2.83V at 1m]"	"Frequency / Hz"	"Sound Pressure Level / dB (re 20 µPa/V)  [2.83V at 1m]"	"Frequency / Hz"	"Sound Pressure Level / dB (re 20 µPa/V)  [2.83V at 1m]"	"Frequency / Hz"	"Sound Pressure Level / dB (re 20 µPa/V)  [2.83V at 1m]"	"Frequency / Hz"	"Sound Pressure Level / dB (re 20 µPa/V)  [2.83V at 1m]"	"Frequency / Hz"	"Sound Pressure Level / dB (re 20 µPa/V)  [2.83V at 1m]"	"Frequency / Hz"	"Sound Pressure Level / dB (re 20 µPa/V)  [2.83V at 1m]"	"Frequency / Hz"	"Sound Pressure Level / dB (re 20 µPa/V)  [2.83V at 1m]"	"Frequency / Hz"	"Sound Pressure Level / dB (re 20 µPa/V)  [2.83V at 1m]"	"Frequency / Hz"	"Sound Pressure Level / dB (re 20 µPa/V)  [2.83V at 1m]"	"Frequency / Hz"	"Sound Pressure Level / dB (re 20 µPa/V)  [2.83V at 1m]"	"Frequency / Hz"	"Sound Pressure Level / dB (re 20 µPa/V)  [2.83V at 1m]"	"Frequency / Hz"	"Sound Pressure Level / dB (re 20 µPa/V)  [2.83V at 1m]"
20.5078	41.8557	20.5078	41.8837	20.5078	41.7485	20.5078	41.8364	20.5078	41.6356	20.5078	41.7946	20.5078	41.6707	20.5078	41.9159	20.5078	42.0492	20.5078	42.3866	20.5078	42.8876	20.5078	43.3021	20.5078	44.1235	20.5078	44.5833	20.5078	45.5733	20.5078	46.0477	20.5078	47.0621	20.5078	47.5295	20.5078	48.4788	20.5078	48.9255	20.5078	49.7681	20.5078	50.1844	20.5078	50.9061	20.5078	51.2842	20.5078	51.885	20.5078	52.2181	20.5078	52.7034	20.5078	52.9853	20.5078	53.3626	20.5078	53.5879	20.5078	53.864	20.5078	54.0284	20.5078	54.2091	20.5078	54.3091	20.5078	54.3984	20.5078	54.432
21.9727	47.503	21.9727	47.4168	21.9727	47.3514	21.9727	47.0882	21.9727	46.9622	21.9727	46.5091	21.9727	46.3362	21.9727	45.678	21.9727	45.4911	21.9727	44.632	21.9727	44.5063	21.9727	43.5346	21.9727	43.6166	21.9727	42.8227	21.9727	43.2814	21.9727	43.0938	21.9727	43.8942	21.9727	44.3997	21.9727	45.2806	21.9727	46.1647	21.9727	46.9406	21.9727	47.9102	21.9727	48.5353	21.9727	49.4449	21.9727	49.9307	21.9727	50.723	21.9727	51.0925	21.9727	51.747	21.9727	52.0204	21.9727	52.5308	21.9727	52.7237	21.9727	53.0882	21.9727	53.2112	21.9727	53.4298	21.9727	53.4897	21.9727	53.5625
23.4375	47.2249	23.4375	47.0576	23.4375	47.1295	23.4375	46.6205	23.4375	46.7821	23.4375	45.9167	23.4375	46.2078	23.4375	44.9918	23.4375	45.4804	23.4375	44.0261	23.4375	44.7919	23.4375	43.4782	23.4375	44.514	23.4375	43.9351	23.4375	45.0252	23.4375	45.398	23.4375	46.2961	23.4375	47.282	23.4375	47.93	23.4375	49.1312	23.4375	49.58	23.4375	50.7695	23.4375	51.0794	23.4375	52.1573	23.4375	52.3725	23.4375	53.2995	23.4375	53.449	23.4375	54.211	23.4375	54.3139	23.4375	54.9065	23.4375	54.975	23.4375	55.3978	23.4375	55.4396	23.4375	55.693	23.4375	55.7128	23.4375	55.7972
24.9023	50.2408	24.9023	50.1362	24.9023	50.0934	24.9023	49.7753	24.9023	49.6892	24.9023	49.1464	24.9023	49.0166	24.9023	48.239	24.9023	48.067	24.9023	47.0752	24.9023	46.8708	24.9023	45.8056	24.9023	45.6049	24.9023	44.909	24.9023	44.7936	24.9023	45.1283	24.9023	45.1595	24.9023	46.5464	24.9023	46.6661	24.9023	48.4469	24.9023	48.5766	24.9023	50.2842	24.9023	50.3925	24.9023	51.8702	24.9023	51.9525	24.9023	53.1732	24.9023	53.2328	24.9023	54.2057	24.9023	54.2471	24.9023	54.9872	24.9023	55.0146	24.9023	55.5346	24.9023	55.5511	24.9023	55.8597	24.9023	55.8674	24.9023	55.9697
26.3672	53.0296	26.3672	52.8759	26.3672	52.9679	26.3672	52.5036	26.3672	52.6997	26.3672	51.9206	26.3672	52.2453	26.3672	51.1675	26.3672	51.6553	26.3672	50.3691	26.3672	51.0473	26.3672	49.8102	26.3672	50.6468	26.3672	49.8965	26.3672	50.7454	26.3672	50.8046	26.3672	51.4855	26.3672	52.2583	26.3672	52.7074	26.3672	53.8608	26.3672	54.1192	26.3672	55.3724	26.3672	55.5039	26.3672	56.697	26.3672	56.7518	26.3672	57.8074	26.3672	57.8193	26.3672	58.7021	26.3672	58.6928	26.3672	59.387	26.3672	59.3704	26.3672	59.869	26.3672	59.8538	26.3672	60.1538	26.3672	60.145	26.3672	60.2451
27.832	53.9915	27.832	53.8142	27.832	53.9789	27.832	53.4566	27.832	53.782	27.832	52.9534	27.832	53.4236	27.832	52.3917	27.832	52.9599	27.832	51.9502	27.832	52.509	27.832	51.8956	27.832	52.2735	27.832	52.4352	27.832	52.4861	27.832	53.5172	27.832	53.2431	27.832	54.8865	27.832	54.4095	27.832	56.3006	27.832	55.7485	27.832	57.6183	27.832	57.0739	27.832	58.7766	27.832	58.2833	27.832	59.7524	27.832	59.3308	27.832	60.5399	27.832	60.1989	27.832	61.1395	27.832	60.8827	27.832	61.5534	27.832	61.3821	27.832	61.7838	27.832	61.6981	27.832	61.8318
29.2969	54.4966	29.2969	54.4024	29.2969	54.4344	29.2969	54.1736	29.2969	54.2192	29.2969	53.8662	29.2969	53.8835	29.2969	53.5883	29.2969	53.5074	29.2969	53.5072	29.2969	53.2409	29.2969	53.8003	29.2969	53.2933	29.2969	54.5401	29.2969	53.8277	29.2969	55.6316	29.2969	54.8238	29.2969	56.8938	29.2969	56.0971	29.2969	58.1691	29.2969	57.4455	29.2969	59.3596	29.2969	58.7336	29.2969	60.4153	29.2969	59.8914	29.2969	61.3133	29.2969	60.8883	29.2969	62.0443	29.2969	61.7125	29.2969	62.6051	29.2969	62.3612	29.2969	62.9946	29.2969	62.8343	29.2969	63.2126	29.2969	63.1332	29.2969	63.259
30.7617	57.9696	30.7617	57.9095	30.7617	57.9026	30.7617	57.733	30.7617	57.7103	30.7617	57.4659	30.7617	57.4081	30.7617	57.1574	30.7617	57.0336	30.7617	56.8899	30.7617	56.6594	30.7617	56.7781	30.7617	56.4029	30.7617	56.9375	30.7617	56.409	30.7617	57.4235	30.7617	56.7821	30.7617	58.1913	30.7617	57.5105	30.7617	59.1264	30.7617	58.4743	30.7617	60.1072	30.7617	59.525	30.7617	61.0423	30.7617	60.5472	30.7617	61.8745	30.7617	61.4698	30.7617	62.5714	30.7617	62.2546	30.7617	63.1157	30.7617	62.8827	30.7617	63.4984	30.7617	63.3453	30.7617	63.7145	30.7617	63.6387	30.7617	63.7617
32.2266	58.5411	32.2266	58.4747	32.2266	58.4559	32.2266	58.2656	32.2266	58.2219	32.2266	57.9378	32.2266	57.8563	32.2266	57.5422	32.2266	57.402	32.2266	57.1728	32.2266	56.9467	32.2266	56.9736	32.2266	56.6396	32.2266	57.1029	32.2266	56.6659	32.2266	57.6399	32.2266	57.1439	32.2266	58.5206	32.2266	58.0252	32.2266	59.5885	32.2266	59.137	32.2266	60.6914	32.2266	60.3023	32.2266	61.7263	32.2266	61.4027	32.2266	62.6357	32.2266	62.3746	32.2266	63.3912	32.2266	63.1881	32.2266	63.9795	32.2266	63.8305	32.2266	64.395	32.2266	64.2971	32.2266	64.6353	32.2266	64.5868	32.2266	64.6994
33.6914	58.2157	33.6914	58.1226	33.6914	58.1431	33.6914	57.8747	33.6914	57.9134	33.6914	57.5092	33.6914	57.5598	33.6914	57.1083	33.6914	57.1575	33.6914	56.822	33.6914	56.8468	33.6914	56.8554	33.6914	56.8279	33.6914	57.3641	33.6914	57.2699	33.6914	58.3245	33.6914	58.1748	33.6914	59.5552	33.6914	59.3762	33.6914	60.8586	33.6914	60.6736	33.6914	62.1018	33.6914	61.9257	33.6914	63.2151	33.6914	63.0563	33.6914	64.1673	33.6914	64.0305	33.6914	64.9464	33.6914	64.8343	33.6914	65.5486	33.6914	65.4631	33.6914	65.9737	33.6914	65.9161	33.6914	66.2224	33.6914	66.1934	33.6914	66.2955
35.1562	60.8194	35.1562	60.8501	35.1562	60.7792	35.1562	60.8849	35.1562	60.7369	35.1562	60.9564	35.1562	60.7217	35.1562	61.111	35.1562	60.7814	35.1562	61.3966	35.1562	60.9734	35.1562	61.8453	35.1562	61.3447	35.1562	62.458	35.1562	61.91	35.1562	63.2026	35.1562	62.6427	35.1562	64.0262	35.1562	63.4857	35.1562	64.8723	35.1562	64.3733	35.1562	65.6917	35.1562	65.2474	35.1562	66.447	35.1562	66.064	35.1562	67.1119	35.1562	66.7927	35.1562	67.6682	35.1562	67.4136	35.1562	68.1039	35.1562	67.9135	35.1562	68.4109	35.1562	68.2844	35.1562	68.5844	35.1562	68.5213	35.1562	68.6215
36.6211	64.2277	36.6211	64.1939	36.6211	64.2063	36.6211	64.1118	36.6211	64.1344	36.6211	64.0007	36.6211	64.0287	36.6211	63.8935	36.6211	63.919	36.6211	63.8365	36.6211	63.8485	36.6211	63.8837	36.6211	63.8692	36.6211	64.082	36.6211	64.0301	36.6211	64.4533	36.6211	64.3597	36.6211	64.983	36.6211	64.8519	36.6211	65.6247	36.6211	65.4676	36.6211	66.3182	36.6211	66.1495	36.6211	67.0059	36.6211	66.8393	36.6211	67.6413	36.6211	67.4882	36.6211	68.1909	36.6211	68.0599	36.6211	68.6321	36.6211	68.5293	36.6211	68.9505	36.6211	68.8799	36.6211	69.1372	36.6211	69.1013	36.6211	69.1878
38.0859	65.4595	38.0859	65.4281	38.0859	65.4348	38.0859	65.3473	38.0859	65.358	38.0859	65.2361	38.0859	65.2452	38.0859	65.1266	38.0859	65.1254	38.0859	65.0638	38.0859	65.0408	38.0859	65.1003	38.0859	65.0435	38.0859	65.2829	38.0859	65.1837	38.0859	65.6348	38.0859	65.4922	38.0859	66.1436	38.0859	65.9655	38.0859	66.7658	38.0859	66.5663	38.0859	67.4428	38.0859	67.2378	38.0859	68.1173	38.0859	67.9209	38.0859	68.7425	38.0859	68.5658	38.0859	69.2845	38.0859	69.1355	38.0859	69.72	38.0859	69.6042	38.0859	70.034	38.0859	69.955	38.0859	70.2174	38.0859	70.1774	38.0859	70.2656
39.5508	66.63	39.5508	66.5976	39.5508	66.6165	39.5508	66.5261	39.5508	66.561	39.5508	66.4338	39.5508	66.4785	39.5508	66.3512	39.5508	66.3959	39.5508	66.3196	39.5508	66.3511	39.5508	66.3854	39.5508	66.3891	39.5508	66.5881	39.5508	66.5519	39.5508	66.945	39.5508	66.864	39.5508	67.4432	39.5508	67.3212	39.5508	68.0427	39.5508	67.8912	39.5508	68.6909	39.5508	68.5247	39.5508	69.3357	39.5508	69.1694	39.5508	69.934	39.5508	69.7798	39.5508	70.4536	39.5508	70.3208	39.5508	70.872	39.5508	70.7673	39.5508	71.1742	39.5508	71.1021	39.5508	71.3513	39.5508	71.3146	39.5508	71.3984
41.0156	68.0567	41.0156	68.029	41.0156	68.0461	41.0156	67.9695	41.0156	68.0004	41.0156	67.8948	41.0156	67.9326	41.0156	67.8319	41.0156	67.866	41.0156	67.8164	41.0156	67.8332	41.0156	67.8878	41.0156	67.8729	41.0156	68.0795	41.0156	68.0214	41.0156	68.4068	41.0156	68.3012	41.0156	68.8601	41.0156	68.7118	41.0156	69.4067	41.0156	69.228	41.0156	70.0012	41.0156	69.808	41.0156	70.5969	41.0156	70.405	41.0156	71.1535	41.0156	70.9762	41.0156	71.6394	41.0156	71.4871	41.0156	72.0319	41.0156	71.9121	41.0156	72.3155	41.0156	72.2332	41.0156	72.4807	41.0156	72.4388	41.0156	72.5221
42.4805	69.4286	42.4805	69.4091	42.4805	69.417	42.4805	69.3646	42.4805	69.377	42.4805	69.3099	42.4805	69.32	42.4805	69.2683	42.4805	69.2662	42.4805	69.2703	42.4805	69.244	42.4805	69.3491	42.4805	69.2864	42.4805	69.5323	42.4805	69.4248	42.4805	69.8334	42.4805	69.6796	42.4805	70.2453	42.4805	70.0519	42.4805	70.7415	42.4805	70.5218	42.4805	71.2835	42.4805	71.054	42.4805	71.8302	42.4805	71.6069	42.4805	72.3442	42.4805	72.1406	42.4805	72.7953	42.4805	72.6219	42.4805	73.1609	42.4805	73.0251	42.4805	73.4251	42.4805	73.332	42.4805	73.5777	42.4805	73.5304	42.4805	73.6132
43.9453	70.689	43.9453	70.6726	43.9453	70.6796	43.9453	70.6355	43.9453	70.6469	43.9453	70.591	43.9453	70.6014	43.9453	70.5596	43.9453	70.5616	43.9453	70.5684	43.9453	70.5526	43.9453	70.6464	43.9453	70.6033	43.9453	70.8184	43.9453	70.7409	43.9453	71.0971	43.9453	70.9831	43.9453	71.4775	43.9453	71.3309	43.9453	71.9373	43.9453	71.7676	43.9453	72.4429	43.9453	72.2624	43.9453	72.9563	43.9453	72.7779	43.9453	73.4424	43.9453	73.2777	43.9453	73.8717	43.9453	73.7299	43.9453	74.2217	43.9453	74.1099	43.9453	74.4763	43.9453	74.3992	43.9453	74.6248	43.9453	74.5856	43.9453	74.6617
45.4102	72.0901	45.4102	72.0791	45.4102	72.0829	45.4102	72.0545	45.4102	72.0601	45.4102	72.0274	45.4102	72.0305	45.4102	72.0151	45.4102	72.0098	45.4102	72.0399	45.4102	72.0189	45.4102	72.1252	45.4102	72.0813	45.4102	72.2911	45.4102	72.2188	45.4102	72.5478	45.4102	72.4454	45.4102	72.8919	45.4102	72.7623	45.4102	73.3056	45.4102	73.1561	45.4102	73.7611	45.4102	73.6018	45.4102	74.2261	45.4102	74.0678	45.4102	74.6689	45.4102	74.5219	45.4102	75.0625	45.4102	74.9352	45.4102	75.3851	45.4102	75.2841	45.4102	75.6207	45.4102	75.5509	45.4102	75.7587	45.4102	75.7231	45.4102	75.7933
46.875	73.2712	46.875	73.2629	46.875	73.2639	46.875	73.2429	46.875	73.2428	46.875	73.221	46.875	73.2161	46.875	73.2122	46.875	73.1972	46.875	73.2361	46.875	73.2045	46.875	73.3132	46.875	73.2586	46.875	73.4613	46.875	73.3792	46.875	73.6905	46.875	73.5793	46.875	73.9988	46.875	73.8617	46.875	74.3722	46.875	74.2161	46.875	74.7867	46.875	74.6214	46.875	75.2132	46.875	75.0494	46.875	75.6226	46.875	75.4703	46.875	75.9885	46.875	75.8566	46.875	76.2897	46.875	76.1851	46.875	76.5102	46.875	76.4378	46.875	76.6389	46.875	76.602	46.875	76.67
48.3398	74.4674	48.3398	74.4513	48.3398	74.4701	48.3398	74.4249	48.3398	74.4612	48.3398	74.3968	48.3398	74.4476	48.3398	74.3801	48.3398	74.441	48.3398	74.3918	48.3398	74.4568	48.3398	74.4504	48.3398	74.5124	48.3398	74.5726	48.3398	74.6244	48.3398	74.7687	48.3398	74.8041	48.3398	75.039	48.3398	75.0544	48.3398	75.3729	48.3398	75.3677	48.3398	75.7498	48.3398	75.7267	48.3398	76.1436	48.3398	76.1077	48.3398	76.5266	48.3398	76.4843	48.3398	76.8736	48.3398	76.831	48.3398	77.163	48.3398	77.1259	48.3398	77.3786	48.3398	77.3513	48.3398	77.5092	48.3398	77.4948	48.3398	77.5484
51.2695	76.2566	51.2695	76.2439	51.2695	76.2609	51.2695	76.2261	51.2695	76.258	51.2695	76.2109	51.2695	76.2533	51.2695	76.21	51.2695	76.2565	51.2695	76.2378	51.2695	76.2805	51.2695	76.3098	51.2695	76.3399	51.2695	76.439	51.2695	76.4486	51.2695	76.6333	51.2695	76.6167	51.2695	76.892	51.2695	76.8472	51.2695	77.2051	51.2695	77.1345	51.2695	77.5545	51.2695	77.4644	51.2695	77.9172	51.2695	77.8163	51.2695	78.2687	51.2695	78.1668	51.2695	78.586	51.2695	78.4923	51.2695	78.8495	51.2695	78.772	51.2695	79.0438	51.2695	78.9887	51.2695	79.1585	51.2695	79.1299	51.2695	79.1876
52.7344	77.0768	52.7344	77.0676	52.7344	77.0796	52.7344	77.0553	52.7344	77.077	52.7344	77.0472	52.7344	77.0744	52.7344	77.0547	52.7344	77.0812	52.7344	77.092	52.7344	77.1102	52.7344	77.1745	52.7344	77.1762	52.7344	77.3156	52.7344	77.2938	52.7344	77.5236	52.7344	77.4737	52.7344	77.7984	52.7344	77.7199	52.7344	78.1306	52.7344	78.0272	52.7344	78.5018	52.7344	78.381	52.7344	78.8882	52.7344	78.7598	52.7344	79.2638	52.7344	79.1383	52.7344	79.6038	52.7344	79.4909	52.7344	79.8867	52.7344	79.7947	52.7344	80.0955	52.7344	80.0307	52.7344	80.2185	52.7344	80.185	52.7344	80.2488
54.1992	77.9556	54.1992	77.9529	54.1992	77.9564	54.1992	77.9509	54.1992	77.9563	54.1992	77.9561	54.1992	77.9598	54.1992	77.9778	54.1992	77.9751	54.1992	78.0279	54.1992	78.0129	54.1992	78.1189	54.1992	78.0857	54.1992	78.2618	54.1992	78.2053	54.1992	78.4631	54.1992	78.3807	54.1992	78.7225	54.1992	78.6149	54.1992	79.0318	54.1992	78.9034	54.1992	79.3754	54.1992	79.2335	54.1992	79.7322	54.1992	79.5863	54.1992	80.0792	54.1992	79.9394	54.1992	80.3935	54.1992	80.2693	54.1992	80.6552	54.1992	80.5547	54.1992	80.8481	54.1992	80.7776	54.1992	80.9608	54.1992	80.9245	54.1992	80.9868
55.6641	78.7683	55.6641	78.7648	55.6641	78.7725	55.6641	78.7642	55.6641	78.778	55.6641	78.7717	55.6641	78.7889	55.6641	78.7954	55.6641	78.8117	55.6641	78.845	55.6641	78.8553	55.6641	78.931	55.6641	78.93	55.6641	79.0629	55.6641	79.0455	55.6641	79.2462	55.6641	79.2092	55.6641	79.4813	55.6641	79.4238	55.6641	79.7616	55.6641	79.6855	55.6641	80.074	55.6641	79.984	55.6641	80.4001	55.6641	80.3032	55.6641	80.7193	55.6641	80.6231	55.6641	81.0105	55.6641	80.9228	55.6641	81.2547	55.6641	81.1825	55.6641	81.4364	55.6641	81.3851	55.6641	81.5443	55.6641	81.5177	55.6641	81.5719
58.5938	80.028	58.5938	80.0314	58.5938	80.0296	58.5938	80.0414	58.5938	80.0369	58.5938	80.0617	58.5938	80.0527	58.5938	80.0979	58.5938	80.0819	58.5938	80.1569	58.5938	80.1309	58.5938	80.246	58.5938	80.2069	58.5938	80.3715	58.5938	80.317	58.5938	80.5376	58.5938	80.4665	58.5938	80.7443	58.5938	80.6572	58.5938	80.9867	58.5938	80.8864	58.5938	81.255	58.5938	81.1462	58.5938	81.5349	58.5938	81.4237	58.5938	81.8093	58.5938	81.7029	58.5938	82.0606	58.5938	81.9657	58.5938	82.2719	58.5938	82.1949	58.5938	82.4292	58.5938	82.375	58.5938	82.522	58.5938	82.494	58.5938	82.5441
60.0586	80.6423	60.0586	80.6462	60.0586	80.6437	60.0586	80.6567	60.0586	80.6509	60.0586	80.6768	60.0586	80.6663	60.0586	80.7112	60.0586	80.6938	60.0586	80.7655	60.0586	80.739	60.0586	80.8459	60.0586	80.8078	60.0586	80.958	60.0586	80.9064	60.0586	81.1054	60.0586	81.0393	60.0586	81.2886	60.0586	81.2087	60.0586	81.5041	60.0586	81.4127	60.0586	81.7437	60.0586	81.6447	60.0586	81.9951	60.0586	81.8941	60.0586	82.2433	60.0586	82.1464	60.0586	82.4719	60.0586	82.3854	60.0586	82.6653	60.0586	82.5949	60.0586	82.8098	60.0586	82.7602	60.0586	82.8954	60.0586	82.8698	60.0586	82.9159
62.9883	81.537	62.9883	81.5404	62.9883	81.5406	62.9883	81.5517	62.9883	81.5517	62.9883	81.5731	62.9883	81.5718	62.9883	81.6078	62.9883	81.6038	62.9883	81.6598	62.9883	81.6515	62.9883	81.7337	62.9883	81.7192	62.9883	81.8336	62.9883	81.8112	62.9883	81.9623	62.9883	81.9309	62.9883	82.1205	62.9883	82.0797	62.9883	82.3057	62.9883	82.2563	62.9883	82.5117	62.9883	82.4557	62.9883	82.7288	62.9883	82.6694	62.9883	82.9444	62.9883	82.8856	62.9883	83.1446	62.9883	83.0909	62.9883	83.3156	62.9883	83.2709	62.9883	83.4448	62.9883	83.4129	62.9883	83.5227	62.9883	83.5061	62.9883	83.5437
64.4531	81.8795	64.4531	81.8822	64.4531	81.885	64.4531	81.8938	64.4531	81.8987	64.4531	81.916	64.4531	81.9221	64.4531	81.9515	64.4531	81.9574	64.4531	82.0037	64.4531	82.0076	64.4531	82.0762	64.4531	82.0762	64.4531	82.1726	64.4531	82.1666	64.4531	82.2951	64.4531	82.2815	64.4531	82.4443	64.4531	82.4221	64.4531	82.6178	64.4531	82.5873	64.4531	82.8104	64.4531	82.7726	64.4531	83.0131	64.4531	82.9706	64.4531	83.2148	64.4531	83.1708	64.4531	83.4024	64.4531	83.3608	64.4531	83.563	64.4531	83.5276	64.4531	83.6848	64.4531	83.6591	64.4531	83.7588	64.4531	83.7453	64.4531	83.7794
67.3828	82.5215	67.3828	82.5254	67.3828	82.5283	67.3828	82.5405	67.3828	82.546	67.3828	82.5679	67.3828	82.5752	67.3828	82.609	67.3828	82.6171	67.3828	82.6656	67.3828	82.6733	67.3828	82.74	67.3828	82.7455	67.3828	82.8339	67.3828	82.8357	67.3828	82.9487	67.3828	82.9453	67.3828	83.0844	67.3828	83.0746	67.3828	83.2391	67.3828	83.2224	67.3828	83.4084	67.3828	83.3854	67.3828	83.5854	67.3828	83.5577	67.3828	83.7611	67.3828	83.7309	67.3828	83.9246	67.3828	83.895	67.3828	84.0648	67.3828	84.039	67.3828	84.1716	67.3828	84.1525	67.3828	84.2369	67.3828	84.2268	67.3828	84.2557
68.8477	82.8529	68.8477	82.8565	68.8477	82.8611	68.8477	82.8722	68.8477	82.881	68.8477	82.9007	68.8477	82.9129	68.8477	82.9429	68.8477	82.9576	68.8477	83.0002	68.8477	83.0158	68.8477	83.0739	68.8477	83.0887	68.8477	83.1652	68.8477	83.1776	68.8477	83.2751	68.8477	83.2831	68.8477	83.4032	68.8477	83.4055	68.8477	83.5478	68.8477	83.5437	68.8477	83.7052	68.8477	83.6947	68.8477	83.8693	68.8477	83.8533	68.8477	84.0319	68.8477	84.0124	68.8477	84.1834	68.8477	84.1629	68.8477	84.3136	68.8477	84.2949	68.8477	84.413	68.8477	84.3988	68.8477	84.4742	68.8477	84.4666	68.8477	84.4925
71.7773	83.4441	71.7773	83.4479	71.7773	83.4535	71.7773	83.4648	71.7773	83.4757	71.7773	83.495	71.7773	83.5106	71.7773	83.5387	71.7773	83.558	71.7773	83.5959	71.7773	83.6177	71.7773	83.6669	71.7773	83.6898	71.7773	83.7519	71.7773	83.7742	71.7773	83.8509	71.7773	83.8708	71.7773	83.9633	71.7773	83.9794	71.7773	84.0878	71.7773	84.0989	71.7773	84.2215	71.7773	84.227	71.7773	84.3599	71.7773	84.36	71.7773	84.4967	71.7773	84.4924	71.7773	84.6243	71.7773	84.6173	71.7773	84.7344	71.7773	84.7266	71.7773	84.819	71.7773	84.8125	71.7773	84.8717	71.7773	84.868	71.7773	84.8884
74.707	83.8499	74.707	83.8544	74.707	83.8598	74.707	83.8732	74.707	83.8836	74.707	83.9057	74.707	83.9208	74.707	83.9515	74.707	83.9705	74.707	84.0095	74.707	84.0317	74.707	84.0792	74.707	84.1032	74.707	84.1596	74.707	84.1842	74.707	84.2501	74.707	84.2738	74.707	84.3497	74.707	84.371	74.707	84.4573	74.707	84.4749	74.707	84.5707	74.707	84.5837	74.707	84.6866	74.707	84.6948	74.707	84.8004	74.707	84.8041	74.707	84.9062	74.707	84.9066	74.707	84.9977	74.707	84.996	74.707	85.0682	74.707	85.066	74.707	85.1125	74.707	85.111	74.707	85.1271
77.6367	84.1616	77.6367	84.1668	77.6367	84.1717	77.6367	84.1871	77.6367	84.1968	77.6367	84.2216	77.6367	84.2358	77.6367	84.269	77.6367	84.2873	77.6367	84.3276	77.6367	84.3494	77.6367	84.3958	77.6367	84.4204	77.6367	84.4721	77.6367	84.4983	77.6367	84.555	77.6367	84.5816	77.6367	84.6433	77.6367	84.6691	77.6367	84.7359	77.6367	84.7594	77.6367	84.8312	77.6367	84.8514	77.6367	84.9269	77.6367	84.9431	77.6367	85.02	77.6367	85.032	77.6367	85.1063	77.6367	85.1142	77.6367	85.1807	77.6367	85.1855	77.6367	85.2384	77.6367	85.2409	77.6367	85.2751	77.6367	85.2761	77.6367	85.288
79.1016	84.3728	79.1016	84.3775	79.1016	84.3838	79.1016	84.3976	79.1016	84.41	79.1016	84.4319	79.1016	84.4502	79.1016	84.479	79.1016	84.5028	79.1016	84.5368	79.1016	84.5655	79.1016	84.6034	79.1016	84.6361	79.1016	84.6768	79.1016	84.7124	79.1016	84.7553	79.1016	84.7925	79.1016	84.8377	79.1016	84.8748	79.1016	84.9228	79.1016	84.9583	79.1016	85.0093	79.1016	85.0417	79.1016	85.0955	79.1016	85.1235	79.1016	85.1788	79.1016	85.2018	79.1016	85.2559	79.1016	85.2736	79.1016	85.3227	79.1016	85.3352	79.1016	85.3748	79.1016	85.3827	79.1016	85.4085	79.1016	85.4123	79.1016	85.4213
82.0312	84.7469	82.0312	84.7499	82.0312	84.7599	82.0312	84.7686	82.0312	84.7885	82.0312	84.8017	82.0312	84.8311	82.0312	84.847	82.0312	84.8854	82.0312	84.9022	82.0312	84.9487	82.0312	84.9646	82.0312	85.0179	82.0312	85.0316	82.0312	85.0903	82.0312	85.1011	82.0312	85.1634	82.0312	85.1717	82.0312	85.2354	82.0312	85.2422	82.0312	85.3049	82.0312	85.3118	82.0312	85.3712	82.0312	85.3796	82.0312	85.4336	82.0312	85.4444	82.0312	85.4911	82.0312	85.5042	82.0312	85.5423	82.0312	85.5563	82.0312	85.5851	82.0312	85.5977	82.0312	85.617	82.0312	85.6258	82.0312	85.6354	82.0312	85.6386
84.9609	84.9483	84.9609	84.9516	84.9609	84.9618	84.9609	84.9711	84.9609	84.9914	84.9609	85.0053	84.9609	85.0354	84.9609	85.0517	84.9609	85.0911	84.9609	85.1074	84.9609	85.1551	84.9609	85.169	84.9609	85.2241	84.9609	85.2337	84.9609	85.2946	84.9609	85.2987	84.9609	85.3638	84.9609	85.3624	84.9609	85.4293	84.9609	85.4234	84.9609	85.4898	84.9609	85.4813	84.9609	85.5448	84.9609	85.5357	84.9609	85.5939	84.9609	85.5863	84.9609	85.6372	84.9609	85.6322	84.9609	85.6741	84.9609	85.672	84.9609	85.7039	84.9609	85.7038	84.9609	85.7253	84.9609	85.726	84.9609	85.7368	84.9609	85.7372
87.8906	85.1899	87.8906	85.1959	87.8906	85.2014	87.8906	85.2186	87.8906	85.2296	87.8906	85.2561	87.8906	85.2727	87.8906	85.3057	87.8906	85.3278	87.8906	85.3639	87.8906	85.3912	87.8906	85.4268	87.8906	85.4591	87.8906	85.4909	87.8906	85.5275	87.8906	85.5532	87.8906	85.5931	87.8906	85.6115	87.8906	85.6533	87.8906	85.6645	87.8906	85.7067	87.8906	85.7117	87.8906	85.7526	87.8906	85.7534	87.8906	85.7911	87.8906	85.7897	87.8906	85.8229	87.8906	85.8211	87.8906	85.8485	87.8906	85.8473	87.8906	85.8682	87.8906	85.8679	87.8906	85.8818	87.8906	85.882	87.8906	85.889	87.8906	85.8891
90.8203	85.5846	90.8203	85.5919	90.8203	85.5942	90.8203	85.6154	90.8203	85.62	90.8203	85.6531	90.8203	85.6602	90.8203	85.7016	90.8203	85.7116	90.8203	85.7574	90.8203	85.7705	90.8203	85.8162	90.8203	85.8325	90.8203	85.8741	90.8203	85.8935	90.8203	85.9277	90.8203	85.95	90.8203	85.9748	90.8203	85.9992	90.8203	86.0139	90.8203	86.0395	90.8203	86.0449	90.8203	86.0705	90.8203	86.0685	90.8203	86.0929	90.8203	86.0861	90.8203	86.108	90.8203	86.0991	90.8203	86.1176	90.8203	86.1088	90.8203	86.123	90.8203	86.116	90.8203	86.1257	90.8203	86.1212	90.8203	86.1261	90.8203	86.1246
95.2148	85.729	95.2148	85.7383	95.2148	85.7398	95.2148	85.7669	95.2148	85.7701	95.2148	85.812	95.2148	85.8174	95.2148	85.8693	95.2148	85.8774	95.2148	85.9336	95.2148	85.9452	95.2148	85.9995	95.2148	86.0151	95.2148	86.0614	95.2148	86.0813	95.2148	86.1147	95.2148	86.139	95.2148	86.1559	95.2148	86.1842	95.2148	86.1834	95.2148	86.2147	95.2148	86.1971	95.2148	86.2301	95.2148	86.1988	95.2148	86.2319	95.2148	86.1917	95.2148	86.2229	95.2148	86.1796	95.2148	86.2071	95.2148	86.1666	95.2148	86.1887	95.2148	86.1559	95.2148	86.1713	95.2148	86.1501	95.2148	86.1581	95.2148	86.1507
98.1445	85.8715	98.1445	85.8797	98.1445	85.8833	98.1445	85.9066	98.1445	85.914	98.1445	85.9496	98.1445	85.9612	98.1445	86.0042	98.1445	86.0206	98.1445	86.0652	98.1445	86.0867	98.1445	86.1266	98.1445	86.1538	98.1445	86.1828	98.1445	86.2159	98.1445	86.2288	98.1445	86.2676	98.1445	86.261	98.1445	86.305	98.1445	86.2777	98.1445	86.3256	98.1445	86.2789	98.1445	86.329	98.1445	86.2669	98.1445	86.317	98.1445	86.2455	98.1445	86.2929	98.1445	86.2197	98.1445	86.2617	98.1445	86.1945	98.1445	86.2285	98.1445	86.1747	98.1445	86.1987	98.1445	86.164	98.1445	86.1764	98.1445	86.1644
101.074	86.0481	101.074	86.0542	101.074	86.0612	101.074	86.0783	101.074	86.0924	101.074	86.1177	101.074	86.1391	101.074	86.1678	101.074	86.197	101.074	86.2233	101.074	86.2606	101.074	86.2781	101.074	86.3237	101.074	86.3263	101.074	86.3802	101.074	86.3629	101.074	86.4246	101.074	86.3841	101.074	86.4525	101.074	86.3881	101.074	86.4616	101.074	86.3752	101.074	86.4514	101.074	86.3482	101.074	86.4238	101.074	86.3116	101.074	86.3831	101.074	86.2713	101.074	86.3348	101.074	86.2339	101.074	86.2854	101.074	86.2052	101.074	86.2416	101.074	86.19	101.074	86.2089	101.074	86.1911
105.469	86.1694	105.469	86.1748	105.469	86.1827	105.469	86.1976	105.469	86.2138	105.469	86.2351	105.469	86.2597	105.469	86.2828	105.469	86.3162	105.469	86.335	105.469	86.3775	105.469	86.3854	105.469	86.4374	105.469	86.4281	105.469	86.4893	105.469	86.4576	105.469	86.5275	105.469	86.4699	105.469	86.5475	105.469	86.4633	105.469	86.5465	105.469	86.438	105.469	86.5243	105.469	86.3972	105.469	86.483	105.469	86.346	105.469	86.4272	105.469	86.2914	105.469	86.3635	105.469	86.2411	105.469	86.2998	105.469	86.2023	105.469	86.2438	105.469	86.1811	105.469	86.2026	105.469	86.1809
108.398	86.213	108.398	86.2183	108.398	86.2269	108.398	86.2418	108.398	86.2589	108.398	86.2803	108.398	86.3065	108.398	86.3294	108.398	86.3649	108.398	86.3834	108.398	86.4285	108.398	86.4359	108.398	86.4908	108.398	86.4806	108.398	86.5451	108.398	86.5118	108.398	86.5854	108.398	86.5254	108.398	86.6068	108.398	86.5193	108.398	86.6065	108.398	86.4937	108.398	86.5839	108.398	86.4515	108.398	86.5412	108.398	86.3981	108.398	86.4829	108.398	86.3407	108.398	86.4161	108.398	86.2874	108.398	86.3488	108.398	86.2461	108.398	86.2896	108.398	86.2234	108.398	86.2459	108.398	86.223
112.793	86.2901	112.793	86.2943	112.793	86.305	112.793	86.3164	112.793	86.338	112.793	86.3536	112.793	86.3861	112.793	86.4014	112.793	86.4451	112.793	86.4541	112.793	86.509	112.793	86.5052	112.793	86.5712	112.793	86.5482	112.793	86.6249	112.793	86.5772	112.793	86.6639	112.793	86.5878	112.793	86.6829	112.793	86.5775	112.793	86.6789	112.793	86.5465	112.793	86.6509	112.793	86.4976	112.793	86.6012	112.793	86.4366	112.793	86.5345	112.793	86.3712	112.793	86.4583	112.793	86.3105	112.793	86.3816	112.793	86.2634	112.793	86.3138	112.793	86.2375	112.793	86.2636	112.793	86.2372
117.188	86.1418	117.188	86.1388	117.188	86.1632	117.188	86.1532	117.188	86.2017	117.188	86.1825	117.188	86.2545	117.188	86.2223	117.188	86.317	117.188	86.2671	117.188	86.3832	117.188	86.3106	117.188	86.4464	117.188	86.346	117.188	86.4995	117.188	86.3676	117.188	86.5361	117.188	86.3707	117.188	86.5507	117.188	86.3527	117.188	86.5398	117.188	86.314	117.188	86.5027	117.188	86.2575	117.188	86.4412	117.188	86.1894	117.188	86.3607	117.188	86.1183	117.188	86.2689	117.188	86.054	117.188	86.176	117.188	86.0065	117.188	86.0924	117.188	85.9837	117.188	86.0282	117.188	85.9908
120.117	86.2196	120.117	86.2167	120.117	86.2393	120.117	86.2295	120.117	86.2747	120.117	86.2554	120.117	86.3234	120.117	86.2903	120.117	86.3809	120.117	86.3287	120.117	86.4417	120.117	86.3645	120.117	86.4992	120.117	86.3914	120.117	86.5466	120.117	86.4037	120.117	86.5773	120.117	86.3971	120.117	86.5859	120.117	86.3693	120.117	86.569	120.117	86.3209	120.117	86.5255	120.117	86.2553	120.117	86.4573	120.117	86.1791	120.117	86.3697	120.117	86.1013	120.117	86.2706	120.117	86.0322	120.117	86.1704	120.117	85.982	120.117	86.08	120.117	85.9591	120.117	86.0099	120.117	85.9683
124.512	86.3735	124.512	86.3777	124.512	86.3856	124.512	86.397	124.512	86.4135	124.512	86.4284	124.512	86.4552	124.512	86.4677	124.512	86.5066	124.512	86.5094	124.512	86.5626	124.512	86.5475	124.512	86.6166	124.512	86.5757	124.512	86.6618	124.512	86.5882	124.512	86.6913	124.512	86.5806	124.512	86.6996	124.512	86.5506	124.512	86.6826	124.512	86.4985	124.512	86.6391	124.512	86.4276	124.512	86.5709	124.512	86.3447	124.512	86.483	124.512	86.2587	124.512	86.3839	124.512	86.1806	124.512	86.284	124.512	86.1213	124.512	86.1953	124.512	86.0899	124.512	86.1285	124.512	86.092
128.906	86.2982	128.906	86.3049	128.906	86.3059	128.906	86.3245	128.906	86.3275	128.906	86.3543	128.906	86.3612	128.906	86.3903	128.906	86.4035	128.906	86.4271	128.906	86.4493	128.906	86.4588	128.906	86.4924	128.906	86.4793	128.906	86.5263	128.906	86.4831	128.906	86.5444	128.906	86.4656	128.906	86.5409	128.906	86.4247	128.906	86.5123	128.906	86.3606	128.906	86.4574	128.906	86.277	128.906	86.3782	128.906	86.1807	128.906	86.2803	128.906	86.0812	128.906	86.1726	128.906	85.99	128.906	86.0663	128.906	85.919	128.906	85.9739	128.906	85.878	128.906	85.9068	128.906	85.8735
133.301	86.2594	133.301	86.2676	133.301	86.2641	133.301	86.2874	133.301	86.2818	133.301	86.3159	133.301	86.3105	133.301	86.3488	133.301	86.3469	133.301	86.3807	133.301	86.3861	133.301	86.4056	133.301	86.4219	133.301	86.4172	133.301	86.4475	133.301	86.4098	133.301	86.4562	133.301	86.3791	133.301	86.4423	133.301	86.3228	133.301	86.4019	133.301	86.2419	133.301	86.3339	133.301	86.1404	133.301	86.2404	133.301	86.0259	133.301	86.1275	133.301	85.9093	133.301	86.0048	133.301	85.8034	133.301	85.8845	133.301	85.7211	133.301	85.7802	133.301	85.6735	133.301	85.7047	133.301	85.6676
139.16	85.9781	139.16	85.9921	139.16	85.9775	139.16	86.0182	139.16	85.9905	139.16	86.0534	139.16	86.0155	139.16	86.0935	139.16	86.0493	139.16	86.1329	139.16	86.0873	139.16	86.1655	139.16	86.1234	139.16	86.1847	139.16	86.1506	139.16	86.1843	139.16	86.1622	139.16	86.1596	139.16	86.1519	139.16	86.1078	139.16	86.1156	139.16	86.0294	139.16	86.0519	139.16	85.9283	139.16	85.9627	139.16	85.812	139.16	85.8542	139.16	85.6916	139.16	85.736	139.16	85.58	139.16	85.6206	139.16	85.4908	139.16	85.5219	139.16	85.4358	139.16	85.4526	139.16	85.4225
143.555	85.8169	143.555	85.8316	143.555	85.8148	143.555	85.8574	143.555	85.8255	143.555	85.8916	143.555	85.848	143.555	85.9302	143.555	85.8796	143.555	85.9682	143.555	85.916	143.555	85.9997	143.555	85.9517	143.555	86.0184	143.555	85.9797	143.555	86.0182	143.555	85.9933	143.555	85.9944	143.555	85.9862	143.555	85.9444	143.555	85.9538	143.555	85.8683	143.555	85.8945	143.555	85.7701	143.555	85.81	143.555	85.6572	143.555	85.7059	143.555	85.5403	143.555	85.5916	143.555	85.4323	143.555	85.4792	143.555	85.3466	143.555	85.3823	143.555	85.2944	143.555	85.3137	143.555	85.2829
147.949	85.7264	147.949	85.7505	147.949	85.7112	147.949	85.7819	147.949	85.706	147.949	85.8182	147.949	85.7109	147.949	85.8562	147.949	85.725	147.949	85.8918	147.949	85.7459	147.949	85.92	147.949	85.7697	147.949	85.9357	147.949	85.7911	147.949	85.9335	147.949	85.804	147.949	85.9096	147.949	85.8024	147.949	85.8616	147.949	85.7816	147.949	85.7902	147.949	85.7389	147.949	85.6988	147.949	85.6747	147.949	85.5947	147.949	85.593	147.949	85.4875	147.949	85.5014	147.949	85.3889	147.949	85.4099	147.949	85.3107	147.949	85.3304	147.949	85.2624	147.949	85.2742	147.949	85.25
153.809	85.7738	153.809	85.786	153.809	85.7701	153.809	85.8059	153.809	85.7748	153.809	85.8317	153.809	85.7869	153.809	85.8603	153.809	85.8042	153.809	85.8871	153.809	85.8234	153.809	85.9063	153.809	85.8395	153.809	85.9112	153.809	85.8463	153.809	85.8949	153.809	85.8372	153.809	85.8518	153.809	85.8059	153.809	85.7787	153.809	85.7477	153.809	85.6755	153.809	85.6608	153.809	85.5465	153.809	85.5473	153.809	85.4004	153.809	85.4139	153.809	85.2499	153.809	85.2713	153.809	85.1105	153.809	85.134	153.809	84.9983	153.809	85.0182	153.809	84.9274	153.809	84.9386	153.809	84.9067
159.668	85.3866	159.668	85.4049	159.668	85.3811	159.668	85.4346	159.668	85.3887	159.668	85.4734	159.668	85.4088	159.668	85.5175	159.668	85.4394	159.668	85.5612	159.668	85.4765	159.668	85.5975	159.668	85.5143	159.668	85.6181	159.668	85.5449	159.668	85.6147	159.668	85.5595	159.668	85.5804	159.668	85.5494	159.668	85.511	159.668	85.508	159.668	85.4061	159.668	85.4317	159.668	85.2704	159.668	85.3215	159.668	85.1141	159.668	85.1837	159.668	84.952	159.668	85.0299	159.668	84.8023	159.668	84.8765	159.668	84.684	159.668	84.7421	159.668	84.6131	159.668	84.645	159.668	84.5996
165.527	84.8018	165.527	84.8277	165.527	84.7887	165.527	84.8654	165.527	84.789	165.527	84.9142	165.527	84.8038	165.527	84.9717	165.527	84.8331	165.527	85.034	165.527	84.8754	165.527	85.0948	165.527	84.9264	165.527	85.1459	165.527	84.9792	165.527	85.1783	165.527	85.0247	165.527	85.1834	165.527	85.0529	165.527	85.155	165.527	85.0549	165.527	85.0908	165.527	85.0248	165.527	84.9935	165.527	84.961	165.527	84.8712	165.527	84.8675	165.527	84.7372	165.527	84.754	165.527	84.6084	165.527	84.6352	165.527	84.5029	165.527	84.5287	165.527	84.4365	165.527	84.452	165.527	84.419
171.387	84.0624	171.387	84.0904	171.387	84.0506	171.387	84.137	171.387	84.0541	171.387	84.2046	171.387	84.0731	171.387	84.2942	171.387	84.1087	171.387	84.404	171.387	84.1614	171.387	84.5284	171.387	84.2303	171.387	84.6582	171.387	84.3116	171.387	84.782	171.387	84.3993	171.387	84.8882	171.387	84.4856	171.387	84.9668	171.387	84.5625	171.387	85.0114	171.387	84.6234	171.387	85.0202	171.387	84.6646	171.387	84.9962	171.387	84.6862	171.387	84.9471	171.387	84.692	171.387	84.8836	171.387	84.6894	171.387	84.8176	171.387	84.6873	171.387	84.7599	171.387	84.6946	171.387	84.718
177.246	84.1555	177.246	84.1722	177.246	84.1232	177.246	84.1758	177.246	84.0765	177.246	84.1716	177.246	84.0196	177.246	84.1666	177.246	83.9598	177.246	84.1681	177.246	83.9051	177.246	84.1816	177.246	83.8636	177.246	84.2092	177.246	83.8412	177.246	84.2496	177.246	83.8404	177.246	84.2979	177.246	83.8606	177.246	84.3475	177.246	83.8981	177.246	84.3913	177.246	83.948	177.246	84.4239	177.246	84.0048	177.246	84.4417	177.246	84.0643	177.246	84.4439	177.246	84.1233	177.246	84.4313	177.246	84.1801	177.246	84.4065	177.246	84.234	177.246	84.3722	177.246	84.2844	177.246	84.3308
183.105	84.8579	183.105	84.841	183.105	84.8512	183.105	84.8039	183.105	84.8197	183.105	84.7523	183.105	84.7652	183.105	84.6928	183.105	84.6916	183.105	84.6317	183.105	84.6043	183.105	84.5735	183.105	84.5093	183.105	84.5202	183.105	84.4124	183.105	84.471	183.105	84.3178	183.105	84.4229	183.105	84.2285	183.105	84.3721	183.105	84.1461	183.105	84.3158	183.105	84.0716	183.105	84.2527	183.105	84.0061	183.105	84.1842	183.105	83.951	183.105	84.1133	183.105	83.9083	183.105	84.0447	183.105	83.8801	183.105	83.9828	183.105	83.8679	183.105	83.9317	183.105	83.8727	183.105	83.8943
188.965	84.958	188.965	84.9222	188.965	84.966	188.965	84.8616	188.965	84.9457	188.965	84.7812	188.965	84.8987	188.965	84.6877	188.965	84.8285	188.965	84.5884	188.965	84.7395	188.965	84.4896	188.965	84.6364	188.965	84.3956	188.965	84.5237	188.965	84.3083	188.965	84.4051	188.965	84.2265	188.965	84.2836	188.965	84.1478	188.965	84.162	188.965	84.0691	188.965	84.0431	188.965	83.9887	188.965	83.9306	188.965	83.9071	188.965	83.8287	188.965	83.827	188.965	83.7421	188.965	83.7527	188.965	83.675	188.965	83.6895	188.965	83.6307	188.965	83.6423	188.965	83.6107	188.965	83.6151
196.289	84.6967	196.289	84.6755	196.289	84.6893	196.289	84.6272	196.289	84.6537	196.289	84.5551	196.289	84.5922	196.289	84.4639	196.289	84.5085	196.289	84.3592	196.289	84.4071	196.289	84.2466	196.289	84.2928	196.289	84.1308	196.289	84.1701	196.289	84.0159	196.289	84.043	196.289	83.9044	196.289	83.9147	196.289	83.7982	196.289	83.7887	196.289	83.6984	196.289	83.6687	196.289	83.6064	196.289	83.5586	196.289	83.5234	196.289	83.4628	196.289	83.4507	196.289	83.3853	196.289	83.3895	196.289	83.3288	196.289	83.3407	196.289	83.2939	196.289	83.3052	196.289	83.2798	196.289	83.2843
203.613	84.3392	203.613	84.2955	203.613	84.349	203.613	84.2199	203.613	84.325	203.613	84.1168	203.613	84.2698	203.613	83.9927	203.613	84.1878	203.613	83.8552	203.613	84.0842	203.613	83.7126	203.613	83.965	203.613	83.5727	203.613	83.8359	203.613	83.4422	203.613	83.7022	203.613	83.3259	203.613	83.569	203.613	83.227	203.613	83.4406	203.613	83.147	203.613	83.3218	203.613	83.0857	203.613	83.2169	203.613	83.0416	203.613	83.1299	203.613	83.0119	203.613	83.0633	203.613	82.9932	203.613	83.0174	203.613	82.9819	203.613	82.9899	203.613	82.9754	203.613	82.9767	203.613	82.9731
210.938	84.5732	210.938	84.5484	210.938	84.5567	210.938	84.4822	210.938	84.5001	210.938	84.3761	210.938	84.4064	210.938	84.2329	210.938	84.2792	210.938	84.0562	210.938	84.1236	210.938	83.8509	210.938	83.9446	210.938	83.6231	210.938	83.748	210.938	83.3808	210.938	83.54	210.938	83.1338	210.938	83.3274	210.938	82.8942	210.938	83.118	210.938	82.6757	210.938	82.9203	210.938	82.4913	210.938	82.7429	210.938	82.3509	210.938	82.5925	210.938	82.2582	210.938	82.4728	210.938	82.2098	210.938	82.3828	210.938	82.1967	210.938	82.3173	210.938	82.2076	210.938	82.2693	210.938	82.2332
218.262	84.4565	218.262	84.4376	218.262	84.441	218.262	84.3858	218.262	84.3913	218.262	84.3038	218.262	84.3094	218.262	84.1951	218.262	84.1984	218.262	84.0635	218.262	84.0624	218.262	83.9125	218.262	83.9058	218.262	83.7451	218.262	83.7329	218.262	83.5642	218.262	83.5479	218.262	83.3736	218.262	83.3553	218.262	83.1787	218.262	83.1607	218.262	82.9866	218.262	82.9707	218.262	82.8063	218.262	82.7934	218.262	82.6469	218.262	82.6368	218.262	82.5158	218.262	82.5079	218.262	82.4165	218.262	82.4104	218.262	82.3489	218.262	82.3445	218.262	82.31	218.262	82.3076	218.262	82.2966
225.586	84.0742	225.586	84.05	225.586	84.0592	225.586	83.989	225.586	84.0052	225.586	83.8958	225.586	83.915	225.586	83.7769	225.586	83.7935	225.586	83.6395	225.586	83.6475	225.586	83.4908	225.586	83.4848	225.586	83.3371	225.586	83.3134	225.586	83.1842	225.586	83.1416	225.586	83.037	225.586	82.9772	225.586	82.9003	225.586	82.8277	225.586	82.7791	225.586	82.6998	225.586	82.6781	225.586	82.5988	225.586	82.6006	225.586	82.5274	225.586	82.5472	225.586	82.4848	225.586	82.5148	225.586	82.4662	225.586	82.4972	225.586	82.4643	225.586	82.4873	225.586	82.4707	225.586	82.4792
232.91	84.0551	232.91	84.0069	232.91	84.0532	232.91	83.91	232.91	84.0023	232.91	83.7686	232.91	83.9059	232.91	83.5888	232.91	83.7692	232.91	83.3785	232.91	83.599	232.91	83.1471	232.91	83.4027	232.91	82.9046	232.91	83.1878	232.91	82.6616	232.91	82.9622	232.91	82.4296	232.91	82.7345	232.91	82.2204	232.91	82.5146	232.91	82.0456	232.91	82.3138	232.91	81.9142	232.91	82.1437	232.91	81.8304	232.91	82.0131	232.91	81.7911	232.91	81.9254	232.91	81.7861	232.91	81.8762	232.91	81.8008	232.91	81.8543	232.91	81.8208	232.91	81.8452	232.91	81.8362
241.699	83.9246	241.699	83.9001	241.699	83.8947	241.699	83.8238	241.699	83.8097	241.699	83.7004	241.699	83.6715	241.699	83.5361	241.699	83.4841	241.699	83.3378	241.699	83.2537	241.699	83.1131	241.699	82.9885	241.699	82.8701	241.699	82.6987	241.699	82.618	241.699	82.3974	241.699	82.3677	241.699	82.1007	241.699	82.1329	241.699	81.828	241.699	81.9286	241.699	81.6002	241.699	81.7685	241.699	81.436	241.699	81.6608	241.699	81.3456	241.699	81.6036	241.699	81.3266	241.699	81.584	241.699	81.3624	241.699	81.5816	241.699	81.4278	241.699	81.5748	241.699	81.4962	241.699	81.5479
250.488	83.8301	250.488	83.7634	250.488	83.8347	250.488	83.6381	250.488	83.7761	250.488	83.4599	250.488	83.6556	250.488	83.2365	250.488	83.4764	250.488	82.977	250.488	83.2432	250.488	82.691	250.488	82.9621	250.488	82.3887	250.488	82.6406	250.488	82.0806	250.488	82.2887	250.488	81.7786	250.488	81.9201	250.488	81.4959	250.488	81.5533	250.488	81.2474	250.488	81.2127	250.488	81.0461	250.488	80.9251	250.488	80.9001	250.488	80.7138	250.488	80.8077	250.488	80.5903	250.488	80.7566	250.488	80.5481	250.488	80.7272	250.488	80.565	250.488	80.6996	250.488	80.6113	250.488	80.6609
259.277	84.3172	259.277	84.248	259.277	84.3297	259.277	84.1234	259.277	84.2854	259.277	83.9455	259.277	84.1851	259.277	83.7181	259.277	84.0297	259.277	83.4452	259.277	83.8204	259.277	83.1318	259.277	83.5583	259.277	82.784	259.277	83.2452	259.277	82.4104	259.277	82.8853	259.277	82.0233	259.277	82.4875	259.277	81.6412	259.277	82.0677	259.277	81.2878	259.277	81.6502	259.277	80.989	259.277	81.2667	259.277	80.7652	259.277	80.9496	259.277	80.6228	259.277	80.7218	259.277	80.551	259.277	80.5869	259.277	80.5256	259.277	80.5274	259.277	80.52	259.277	80.5135	259.277	80.5165
268.066	84.0228	268.066	83.9708	268.066	84.0235	268.066	83.869	268.066	83.9745	268.066	83.7211	268.066	83.8796	268.066	83.5334	268.066	83.7442	268.066	83.3134	268.066	83.5744	268.066	83.0691	268.066	83.3755	268.066	82.8087	268.066	83.1527	268.066	82.541	268.066	82.9109	268.066	82.2762	268.066	82.6567	268.066	82.0268	268.066	82.3997	268.066	81.8077	268.066	82.1538	268.066	81.6337	268.066	81.9359	268.066	81.5154	268.066	81.7616	268.066	81.4541	268.066	81.6397	268.066	81.44	268.066	81.5679	268.066	81.4554	268.066	81.5334	268.066	81.4808	268.066	81.5172	268.066	81.5025
276.855	83.7294	276.855	83.6572	276.855	83.7331	276.855	83.5183	276.855	83.6685	276.855	83.3159	276.855	83.5372	276.855	83.0554	276.855	83.3423	276.855	82.7441	276.855	83.0882	276.855	82.3922	276.855	82.781	276.855	82.0139	276.855	82.4296	276.855	81.6291	276.855	82.0475	276.855	81.2645	276.855	81.6554	276.855	80.9521	276.855	81.2832	276.855	80.7238	276.855	80.9678	276.855	80.6014	276.855	80.7453	276.855	80.5862	276.855	80.6376	276.855	80.6557	276.855	80.6399	276.855	80.7699	276.855	80.7208	276.855	80.8843	276.855	80.833	276.855	80.9612	276.855	80.93	276.855	80.9779
287.109	83.643	287.109	83.5711	287.109	83.6524	287.109	83.4333	287.109	83.6052	287.109	83.2287	287.109	83.5085	287.109	82.9593	287.109	83.3689	287.109	82.6295	287.109	83.191	287.109	82.2462	287.109	82.9761	287.109	81.8198	287.109	82.7216	287.109	81.3658	287.109	82.4236	287.109	80.9072	287.109	82.0804	287.109	80.4769	287.109	81.6981	287.109	80.1153	287.109	81.2956	287.109	79.8612	287.109	80.9066	287.109	79.7368	287.109	80.5739	287.109	79.7341	287.109	80.3336	287.109	79.8158	287.109	80.1968	287.109	79.9304	287.109	80.1413	287.109	80.0323	287.109	80.1228	287.109	80.0958
297.363	83.978	297.363	83.9858	297.363	83.8999	297.363	83.9238	297.363	83.7516	297.363	83.7927	297.363	83.5353	297.363	83.5926	297.363	83.2556	297.363	83.3229	297.363	82.9209	297.363	82.983	297.363	82.543	297.363	82.5754	297.363	82.139	297.363	82.1085	297.363	81.73	297.363	81.602	297.363	81.3412	297.363	81.0908	297.363	80.9988	297.363	80.6252	297.363	80.7256	297.363	80.2617	297.363	80.535	297.363	80.0425	297.363	80.4272	297.363	79.9746	297.363	80.3875	297.363	80.025	297.363	80.3896	297.363	80.1378	297.363	80.402	297.363	80.2582	297.363	80.3953	297.363	80.3491
307.617	83.6208	307.617	83.5869	307.617	83.596	307.617	83.4978	307.617	83.5099	307.617	83.3579	307.617	83.362	307.617	83.171	307.617	83.153	307.617	82.9398	307.617	82.8856	307.617	82.6654	307.617	82.564	307.617	82.3489	307.617	82.1961	307.617	81.9945	307.617	81.7958	307.617	81.6133	307.617	81.3864	307.617	81.2286	307.617	81.003	307.617	80.8768	307.617	80.6896	307.617	80.6023	307.617	80.4866	307.617	80.4427	307.617	80.4134	307.617	80.4091	307.617	80.4543	307.617	80.4772	307.617	80.5633	307.617	80.5962	307.617	80.6823	307.617	80.7092	307.617	80.7615	307.617	80.7717
319.336	83.1549	319.336	83.0862	319.336	83.1564	319.336	82.9545	319.336	83.0881	319.336	82.7652	319.336	82.949	319.336	82.524	319.336	82.7388	319.336	82.2357	319.336	82.4576	319.336	81.904	319.336	82.1065	319.336	81.5331	319.336	81.6892	319.336	81.132	319.336	81.2165	319.336	80.7197	319.336	80.7119	319.336	80.3296	319.336	80.2184	319.336	80.0092	319.336	79.7991	319.336	79.8067	319.336	79.5232	319.336	79.7491	319.336	79.4356	319.336	79.8228	319.336	79.5268	319.336	79.9752	319.336	79.7336	319.336	80.1367	319.336	79.9699	319.336	80.2445	319.336	80.1601	319.336	80.257
329.59	83.1355	329.59	83.0345	329.59	83.1598	329.59	82.8611	329.59	83.1057	329.59	82.6218	329.59	82.9727	329.59	82.3248	329.59	82.7604	329.59	81.9787	329.59	82.4677	329.59	81.5919	329.59	82.0923	329.59	81.1735	329.59	81.6337	329.59	80.7362	329.59	81.0974	329.59	80.3015	329.59	80.5043	329.59	79.9044	329.59	79.9013	329.59	79.5924	329.59	79.3676	329.59	79.4122	329.59	79.0013	329.59	79.3858	329.59	78.8753	329.59	79.492	329.59	78.9859	329.59	79.6704	329.59	79.25	329.59	79.8453	329.59	79.5538	329.59	79.9499	329.59	79.8027	329.59	79.9407
341.309	83.3088	341.309	83.2215	341.309	83.3108	341.309	83.0485	341.309	83.2297	341.309	82.7915	341.309	83.0698	341.309	82.4535	341.309	82.8361	341.309	82.0392	341.309	82.5334	341.309	81.5553	341.309	82.1657	341.309	81.0123	341.309	81.7368	341.309	80.4292	341.309	81.2525	341.309	79.8396	341.309	80.727	341.309	79.2976	341.309	80.1902	341.309	78.875	341.309	79.6937	341.309	78.6397	341.309	79.3062	341.309	78.6192	341.309	79.0884	341.309	78.7774	341.309	79.0571	341.309	79.0296	341.309	79.1682	341.309	79.282	341.309	79.3373	341.309	79.462	341.309	79.4783	341.309	79.5293
353.027	83.6313	353.027	83.5469	353.027	83.6288	353.027	83.3749	353.027	83.5393	353.027	83.1134	353.027	83.3621	353.027	82.7586	353.027	83.0956	353.027	82.3042	353.027	82.7364	353.027	81.7428	353.027	82.2804	353.027	81.0699	353.027	81.7241	353.027	80.2915	353.027	81.0702	353.027	79.4404	353.027	80.3368	353.027	78.5976	353.027	79.5725	353.027	77.9063	353.027	78.8698	353.027	77.534	353.027	78.3578	353.027	77.5618	353.027	78.1454	353.027	77.9045	353.027	78.2393	353.027	78.3771	353.027	78.5299	353.027	78.8112	353.027	78.8636	353.027	79.1027	353.027	79.1143	353.027	79.2051
366.211	83.4351	366.211	83.4013	366.211	83.4032	366.211	83.3009	366.211	83.3073	366.211	83.1336	366.211	83.1495	366.211	82.8984	366.211	82.9302	366.211	82.592	366.211	82.6466	366.211	82.2085	366.211	82.2925	366.211	81.7411	366.211	81.8598	366.211	81.186	366.211	81.3442	366.211	80.5516	366.211	80.7536	366.211	79.8699	366.211	80.1202	366.211	79.2094	366.211	79.5099	366.211	78.6744	366.211	79.0181	366.211	78.3702	366.211	78.7337	366.211	78.3369	366.211	78.6823	366.211	78.5131	366.211	78.8016	366.211	78.7749	366.211	78.979	366.211	79.0039	366.211	79.1088	366.211	79.124
379.395	83.3102	379.395	83.2431	379.395	83.3033	379.395	83.1052	379.395	83.2196	379.395	82.8993	379.395	83.0562	379.395	82.6255	379.395	82.8084	379.395	82.2797	379.395	82.4684	379.395	81.8527	379.395	82.0236	379.395	81.3335	379.395	81.4592	379.395	80.7165	379.395	80.7632	379.395	80.0145	379.395	79.9384	379.395	79.2767	379.395	79.0248	379.395	78.6057	379.395	78.1321	379.395	78.1449	379.395	77.4547	379.395	78.0062	379.395	77.1972	379.395	78.176	379.395	77.4016	379.395	78.5158	379.395	77.894	379.395	78.8553	379.395	78.4359	379.395	79.0656	379.395	78.8573	379.395	79.0745
392.578	83.0413	392.578	82.9729	392.578	83.0352	392.578	82.8336	392.578	82.9536	392.578	82.6284	392.578	82.7979	392.578	82.3615	392.578	82.5692	392.578	82.0328	392.578	82.2664	392.578	81.6355	392.578	81.884	392.578	81.1569	392.578	81.4128	392.578	80.584	392.578	80.8436	392.578	79.9152	392.578	80.1763	392.578	79.1785	392.578	79.4344	392.578	78.4537	392.578	78.6849	392.578	77.8785	392.578	78.0502	392.578	77.5977	392.578	77.6755	392.578	77.6549	392.578	77.6364	392.578	77.9433	392.578	77.8657	392.578	78.2846	392.578	78.1993	392.578	78.5314	392.578	78.4785	392.578	78.6022
405.762	83.0399	405.762	82.9245	405.762	83.0827	405.762	82.7388	405.762	83.0527	405.762	82.4867	405.762	82.9497	405.762	82.1713	405.762	82.7718	405.762	81.7929	405.762	82.5124	405.762	81.3467	405.762	82.1589	405.762	80.8248	405.762	81.6943	405.762	80.2234	405.762	81.1023	405.762	79.5565	405.762	80.3784	405.762	78.8764	405.762	79.5498	405.762	78.2886	405.762	78.7043	405.762	77.9343	405.762	78.0116	405.762	77.9093	405.762	77.6734	405.762	78.1774	405.762	77.7716	405.762	78.5884	405.762	78.1782	405.762	78.975	405.762	78.6666	405.762	79.2171	405.762	79.056	405.762	79.2498
420.41	83.1576	420.41	83.0967	420.41	83.1237	420.41	82.9379	420.41	83.0036	420.41	82.6823	420.41	82.8092	420.41	82.3338	420.41	82.5514	420.41	81.8945	420.41	82.2355	420.41	81.3612	420.41	81.857	420.41	80.7245	420.41	81.401	420.41	79.9732	420.41	80.8464	420.41	79.1081	420.41	80.1761	420.41	78.1687	420.41	79.393	420.41	77.2728	420.41	78.545	420.41	76.6311	420.41	77.7519	420.41	76.4477	420.41	77.1987	420.41	76.7243	420.41	77.0354	420.41	77.2393	420.41	77.2382	420.41	77.7381	420.41	77.6182	420.41	78.0583	420.41	77.9638	420.41	78.1327
435.059	83.1432	435.059	83.1067	435.059	83.1042	435.059	82.9918	435.059	82.9942	435.059	82.7955	435.059	82.8189	435.059	82.5124	435.059	82.5819	435.059	82.1316	435.059	82.2817	435.059	81.6355	435.059	81.9081	435.059	81.0002	435.059	81.4433	435.059	80.2021	435.059	80.8659	435.059	79.2318	435.059	80.1636	435.059	78.1267	435.059	79.3529	435.059	77.0299	435.059	78.5097	435.059	76.2398	435.059	77.7945	435.059	76.078	435.059	77.4134	435.059	76.5469	435.059	77.4672	435.059	77.3088	435.059	77.8387	435.059	78.0257	435.059	78.2909	435.059	78.516	435.059	78.6222	435.059	78.7145
451.172	82.5455	451.172	82.538	451.172	82.4718	451.172	82.4538	451.172	82.3196	451.172	82.3003	451.172	82.0981	451.172	82.0798	451.172	81.8174	451.172	81.7825	451.172	81.4805	451.172	81.3823	451.172	81.0757	451.172	80.8402	451.172	80.5751	451.172	80.113	451.172	79.9425	451.172	79.1701	451.172	79.1501	451.172	78.0271	451.172	78.2096	451.172	76.8165	451.172	77.2264	451.172	75.8781	451.172	76.4542	451.172	75.6502	451.172	76.2173	451.172	76.1919	451.172	76.5993	451.172	77.084	451.172	77.3204	451.172	77.9096	451.172	78.0292	451.172	78.46	451.172	78.5088	451.172	78.663
465.82	82.9184	465.82	82.8422	465.82	82.9039	465.82	82.6899	465.82	82.7943	465.82	82.4811	465.82	82.5939	465.82	82.2327	465.82	82.3116	465.82	81.9482	465.82	81.953	465.82	81.6094	465.82	81.5123	465.82	81.1776	465.82	80.9662	465.82	80.6008	465.82	80.275	465.82	79.8288	465.82	79.3921	465.82	78.8354	465.82	78.2862	465.82	77.6629	465.82	76.9961	465.82	76.504	465.82	75.7409	465.82	75.7539	465.82	75.0019	465.82	75.7548	465.82	75.1711	465.82	76.3559	465.82	75.9896	465.82	77.0921	465.82	76.8932	465.82	77.6192	465.82	77.5334	465.82	77.7823
483.398	82.9932	483.398	82.8755	483.398	83.0106	483.398	82.6615	483.398	82.9376	483.398	82.37	483.398	82.7924	483.398	82.0285	483.398	82.5924	483.398	81.6605	483.398	82.3431	483.398	81.2677	483.398	82.0303	483.398	80.8197	483.398	81.6184	483.398	80.257	483.398	81.0563	483.398	79.5082	483.398	80.2879	483.398	78.5174	483.398	79.269	483.398	77.2932	483.398	78.0011	483.398	76.0087	483.398	76.6096	483.398	75.1126	483.398	75.4677	483.398	75.0777	483.398	75.101	483.398	75.7638	483.398	75.5812	483.398	76.5956	483.398	76.3913	483.398	77.1699	483.398	77.0483	483.398	77.3297
499.512	82.5557	499.512	82.5273	499.512	82.4851	499.512	82.3982	499.512	82.3313	499.512	82.1776	499.512	82.1222	499.512	81.8791	499.512	81.8899	499.512	81.5118	499.512	81.6547	499.512	81.072	499.512	81.4096	499.512	80.5377	499.512	81.115	499.512	79.8714	499.512	80.7089	499.512	79.0324	499.512	80.1268	499.512	78.0036	499.512	79.3249	499.512	76.8455	499.512	78.3148	499.512	75.7873	499.512	77.2255	499.512	75.2429	499.512	76.3671	499.512	75.4734	499.512	76.1067	499.512	76.2225	499.512	76.4715	499.512	77.0257	499.512	77.0917	499.512	77.5849	499.512	77.5936	499.512	77.7801
517.09	82.7074	517.09	82.5969	517.09	82.6702	517.09	82.359	517.09	82.4838	517.09	82.0313	517.09	82.1661	517.09	81.6604	517.09	81.7522	517.09	81.2859	517.09	81.2873	517.09	80.9181	517.09	80.81	517.09	80.5239	517.09	80.3299	517.09	80.0335	517.09	79.8121	517.09	79.3629	517.09	79.1833	517.09	78.4436	517.09	78.3593	517.09	77.2658	517.09	77.289	517.09	75.9676	517.09	76.0353	517.09	74.9568	517.09	74.9113	517.09	74.7503	517.09	74.4725	517.09	75.3251	517.09	74.9259	517.09	76.1215	517.09	75.7842	517.09	76.6863	517.09	76.5039	517.09	76.8275
536.133	83.0574	536.133	82.9586	536.133	83.0039	536.133	82.7126	536.133	82.807	536.133	82.3416	536.133	82.4886	536.133	81.8858	536.133	82.0813	536.133	81.3978	536.133	81.624	536.133	80.9236	536.133	81.1493	536.133	80.4741	536.133	80.6661	536.133	80.0056	536.133	80.1469	536.133	79.4302	536.133	79.5319	536.133	78.649	536.133	78.7535	536.133	77.6013	536.133	77.7787	536.133	76.3465	536.133	76.6787	536.133	75.209	536.133	75.7224	536.133	74.7708	536.133	75.3296	536.133	75.2373	536.133	75.6451	536.133	76.0877	536.133	76.3046	536.133	76.7693	536.133	76.8545	536.133	77.0387
555.176	83.42	555.176	83.3401	555.176	83.352	555.176	83.1181	555.176	83.138	555.176	82.7666	555.176	82.7894	555.176	82.3042	555.176	82.3275	555.176	81.754	555.176	81.7813	555.176	81.1394	555.176	81.1812	555.176	80.4757	555.176	80.5469	555.176	79.7595	555.176	79.8772	555.176	78.9661	555.176	79.1501	555.176	78.0661	555.176	78.3429	555.176	77.0711	555.176	77.4739	555.176	76.1133	555.176	76.6607	555.176	75.4988	555.176	76.1405	555.176	75.5243	555.176	76.1243	555.176	76.1058	555.176	76.5498	555.176	76.8477	555.176	77.1169	555.176	77.4175	555.176	77.5404	555.176	77.6592
574.219	83.6487	574.219	83.5165	574.219	83.6364	574.219	83.2475	574.219	83.4777	574.219	82.8553	574.219	83.1773	574.219	82.3586	574.219	82.7457	574.219	81.776	574.219	82.1983	574.219	81.1178	574.219	81.5501	574.219	80.3742	574.219	80.8078	574.219	79.5112	574.219	79.9586	574.219	78.4802	574.219	78.965	574.219	77.2551	574.219	77.7761	574.219	75.9196	574.219	76.3779	574.219	74.8171	574.219	74.9337	574.219	74.5189	574.219	73.9996	574.219	75.174	574.219	74.222	574.219	76.2396	574.219	75.3374	574.219	77.1763	574.219	76.555	574.219	77.7347	574.219	77.4294	574.219	77.828
594.727	83.6046	594.727	83.5205	594.727	83.5561	594.727	83.3081	594.727	83.387	594.727	82.9874	594.727	83.1226	594.727	82.5888	594.727	82.7926	594.727	82.1421	594.727	82.4182	594.727	81.6593	594.727	81.9967	594.727	81.1203	594.727	81.4933	594.727	80.4669	594.727	80.8465	594.727	79.6123	594.727	79.9836	594.727	78.4655	594.727	78.8469	594.727	76.9891	594.727	77.4424	594.727	75.364	594.727	75.9611	594.727	74.2864	594.727	74.947	594.727	74.5625	594.727	74.9985	594.727	75.7674	594.727	75.9022	594.727	76.9638	594.727	76.9445	594.727	77.7268	594.727	77.6856	594.727	77.9644
615.234	83.7616	615.234	83.6455	615.234	83.6889	615.234	83.3492	615.234	83.4302	615.234	82.8925	615.234	83.0029	615.234	82.3081	615.234	82.4426	615.234	81.6395	615.234	81.8025	615.234	80.93	615.234	81.1395	615.234	80.1982	615.234	80.4834	615.234	79.4139	615.234	79.8032	615.234	78.4965	615.234	79.005	615.234	77.351	615.234	77.9705	615.234	75.954	615.234	76.6412	615.234	74.5508	615.234	75.1954	615.234	73.8778	615.234	74.3074	615.234	74.5065	615.234	74.6898	615.234	75.8433	615.234	75.9117	615.234	77.0788	615.234	77.1113	615.234	77.8747	615.234	77.8901	615.234	78.149
637.207	83.6143	637.207	83.5489	637.207	83.5711	637.207	83.3777	637.207	83.4272	637.207	83.1126	637.207	83.1968	637.207	82.7692	637.207	82.8928	637.207	82.3545	637.207	82.5174	637.207	81.8571	637.207	82.0546	637.207	81.2396	637.207	81.4658	637.207	80.4394	637.207	80.6906	637.207	79.3711	637.207	79.6494	637.207	77.9327	637.207	78.2496	637.207	76.0305	637.207	76.4134	637.207	73.7236	637.207	74.2174	637.207	71.7915	637.207	72.3863	637.207	71.8769	637.207	72.3649	637.207	73.5569	637.207	73.8486	637.207	75.1935	637.207	75.3556	637.207	76.2265	637.207	76.3009	637.207	76.5929
659.18	82.9593	659.18	82.8264	659.18	82.9346	659.18	82.5515	659.18	82.7673	659.18	82.1807	659.18	82.4993	659.18	81.7854	659.18	82.1917	659.18	81.4356	659.18	81.9001	659.18	81.155	659.18	81.6387	659.18	80.8885	659.18	81.3567	659.18	80.5158	659.18	80.9487	659.18	79.8922	659.18	80.2866	659.18	78.8853	659.18	79.2447	659.18	77.4107	659.18	77.7237	659.18	75.5539	659.18	75.7399	659.18	73.9423	659.18	73.7851	659.18	73.7726	659.18	73.2082	659.18	74.962	659.18	74.3707	659.18	76.2854	659.18	75.8828	659.18	77.128	659.18	76.9328	659.18	77.3512
682.617	83.3132	682.617	83.2106	682.617	83.2067	682.617	82.9136	682.617	82.9015	682.617	82.461	682.617	82.4411	682.617	81.915	682.617	81.9068	682.617	81.3523	682.617	81.4039	682.617	80.8318	682.617	81.0092	682.617	80.3465	682.617	80.7043	682.617	79.8003	682.617	80.3632	682.617	79.0349	682.617	79.8085	682.617	77.881	682.617	78.8706	682.617	76.229	682.617	77.4292	682.617	74.262	682.617	75.5318	682.617	73.0833	682.617	73.8356	682.617	73.9603	682.617	73.7908	682.617	75.8021	682.617	75.3099	682.617	77.3282	682.617	76.9272	682.617	78.2118	682.617	78.0034	682.617	78.4332
707.52	83.7224	707.52	83.6003	707.52	83.6365	707.52	83.281	707.52	83.345	707.52	82.7949	707.52	82.8643	707.52	82.2007	707.52	82.2347	707.52	81.5826	707.52	81.5326	707.52	81.0184	707.52	80.8635	707.52	80.5189	707.52	80.3064	707.52	79.9905	707.52	79.8301	707.52	79.2559	707.52	79.2701	707.52	78.1015	707.52	78.3914	707.52	76.3085	707.52	76.9563	707.52	73.7539	707.52	74.7972	707.52	71.1895	707.52	72.2427	707.52	71.4184	707.52	71.4067	707.52	73.8248	707.52	73.302	707.52	75.8336	707.52	75.42	707.52	76.9598	707.52	76.7536	707.52	77.2552
732.422	83.0184	732.422	82.8923	732.422	82.8963	732.422	82.5283	732.422	82.5496	732.422	81.9717	732.422	82.0381	732.422	81.3075	732.422	81.4559	732.422	80.6505	732.422	80.9057	732.422	80.0995	732.422	80.4429	732.422	79.6644	732.422	80.0305	732.422	79.2371	732.422	79.5522	732.422	78.6391	732.422	78.8665	732.422	77.6905	732.422	77.8465	732.422	76.2625	732.422	76.4073	732.422	74.4007	732.422	74.5945	732.422	72.7491	732.422	72.9077	732.422	72.6729	732.422	72.528	732.422	74.0642	732.422	73.6929	732.422	75.5264	732.422	75.1828	732.422	76.4307	732.422	76.239	732.422	76.6672
757.324	83.8831	757.324	83.7333	757.324	83.7406	757.324	83.2998	757.324	83.3142	757.324	82.6182	757.324	82.6335	757.324	81.7694	757.324	81.7704	757.324	80.8924	757.324	80.8667	757.324	80.1454	757.324	80.1189	757.324	79.5944	757.324	79.6484	757.324	79.128	757.324	79.3528	757.324	78.5122	757.324	78.9539	757.324	77.4995	757.324	78.1601	757.324	75.8948	757.324	76.7481	757.324	73.7205	757.324	74.6534	757.324	72.0133	757.324	72.5513	757.324	72.8227	757.324	72.5974	757.324	75.0579	757.324	74.6654	757.324	76.9008	757.324	76.6232	757.324	77.9676	757.324	77.8321	757.324	78.2715
785.156	84.1241	785.156	83.98	785.156	84.0197	785.156	83.6067	785.156	83.6618	785.156	83.0413	785.156	83.063	785.156	82.3458	785.156	82.2666	785.156	81.6041	785.156	81.3617	785.156	80.8884	785.156	80.4752	785.156	80.1981	785.156	79.7026	785.156	79.4196	785.156	79.0003	785.156	78.3429	785.156	78.1585	785.156	76.6934	785.156	76.8802	785.156	74.1262	785.156	74.86	785.156	70.4299	785.156	71.9858	785.156	68.4172	785.156	69.86	785.156	71.7425	785.156	71.7195	785.156	75.0357	785.156	74.6864	785.156	77.0965	785.156	76.7987	785.156	78.1782	785.156	78.0166	785.156	78.4637
811.523	84.8448	811.523	84.574	811.523	84.7959	811.523	83.9785	811.523	84.4333	811.523	83.0749	811.523	83.7722	811.523	81.9577	811.523	82.8754	811.523	80.879	811.523	81.9133	811.523	80.2001	811.523	81.1681	811.523	80.0235	811.523	80.8196	811.523	79.9808	811.523	80.6824	811.523	79.5684	811.523	80.3338	811.523	78.3719	811.523	79.3693	811.523	75.9434	811.523	77.4101	811.523	71.486	811.523	73.947	811.523	66.1622	811.523	68.9885	811.523	71.1752	811.523	70.1086	811.523	75.5452	811.523	74.5763	811.523	77.9215	811.523	77.3265	811.523	79.0833	811.523	78.8003	811.523	79.35
840.82	86.6743	840.82	86.4587	840.82	86.5928	840.82	85.9303	840.82	86.2038	840.82	85.0585	840.82	85.4813	840.82	83.8432	840.82	84.4241	840.82	82.4317	840.82	83.146	840.82	81.2963	840.82	82.0105	840.82	81.0167	840.82	81.5168	840.82	81.4191	840.82	81.6583	840.82	81.7278	840.82	81.8237	840.82	81.3471	840.82	81.423	840.82	79.8602	840.82	80.0309	840.82	76.6392	840.82	77.1164	840.82	69.8432	840.82	71.6772	840.82	66.9881	840.82	69.3164	840.82	75.0042	840.82	75.3425	840.82	78.6803	840.82	78.8234	840.82	80.4399	840.82	80.512	840.82	80.9974
870.117	87.0502	870.117	86.9003	870.117	86.9536	870.117	86.4849	870.117	86.6113	870.117	85.7725	870.117	86.008	870.117	84.7387	870.117	85.1278	870.117	83.4162	870.117	83.997	870.117	82.0002	870.117	82.7782	870.117	80.9262	870.117	81.8378	870.117	80.539	870.117	81.4741	870.117	80.5323	870.117	81.4345	870.117	80.2265	870.117	81.1013	870.117	79.0258	870.117	79.8975	870.117	76.2542	870.117	77.1654	870.117	70.2962	870.117	71.3258	870.117	65.4977	870.117	64.4466	870.117	74.0101	870.117	73.824	870.117	78.0277	870.117	78.0304	870.117	79.9251	870.117	79.9493	870.117	80.5075
900.879	86.9569	900.879	86.7976	900.879	86.8724	900.879	86.384	900.879	86.536	900.879	85.6934	900.879	85.9238	900.879	84.7105	900.879	85.0108	900.879	83.4816	900.879	83.8196	900.879	82.2299	900.879	82.5331	900.879	81.4151	900.879	81.5892	900.879	81.3187	900.879	81.3492	900.879	81.5328	900.879	81.5109	900.879	81.3829	900.879	81.4145	900.879	80.3599	900.879	80.5444	900.879	77.969	900.879	78.4321	900.879	73.2107	900.879	74.1969	900.879	65.6404	900.879	66.6986	900.879	72.1149	900.879	71.6039	900.879	76.8031	900.879	76.6662	900.879	78.9823	900.879	78.9685	900.879	79.6408
933.105	87.0525	933.105	86.9292	933.105	86.9562	933.105	86.5532	933.105	86.6309	933.105	85.8599	933.105	86.0233	933.105	84.7752	933.105	85.0498	933.105	83.2642	933.105	83.6355	933.105	81.4605	933.105	81.8287	933.105	79.9175	933.105	80.1053	933.105	79.4216	933.105	79.4553	933.105	79.7819	933.105	79.9432	933.105	80.0121	933.105	80.4103	933.105	79.3931	933.105	80.0063	933.105	77.3559	933.105	78.202	933.105	72.8064	933.105	74.1292	933.105	65.6245	933.105	66.7213	933.105	72.8928	933.105	71.8872	933.105	77.5591	933.105	77.0134	933.105	79.6684	933.105	79.4173	933.105	80.2135
965.332	86.5259	965.332	86.3958	965.332	86.4296	965.332	86.0318	965.332	86.0986	965.332	85.3998	965.332	85.507	965.332	84.4319	965.332	84.6012	965.332	83.0532	965.332	83.3146	965.332	81.3005	965.332	81.6577	965.332	79.6257	965.332	79.964	965.332	78.96	965.332	79.054	965.332	79.3397	965.332	79.2213	965.332	79.6461	965.332	79.5376	965.332	79.0399	965.332	79.1014	965.332	76.9549	965.332	77.3305	965.332	72.4045	965.332	73.3825	965.332	65.9433	965.332	66.5605	965.332	72.3248	965.332	71.1392	965.332	76.7336	965.332	76.1109	965.332	78.7459	965.332	78.4727	965.332	79.2593
1000.49	86.415	1000.49	86.2922	1000.49	86.3488	1000.49	85.9469	1000.49	86.0874	1000.49	85.3067	1000.49	85.5784	1000.49	84.2609	1000.49	84.7208	1000.49	82.6782	1000.49	83.3749	1000.49	80.5039	1000.49	81.4223	1000.49	78.21	1000.49	79.069	1000.49	77.4515	1000.49	77.6771	1000.49	78.5327	1000.49	78.4092	1000.49	79.5153	1000.49	79.5123	1000.49	79.3638	1000.49	79.5607	1000.49	77.5548	1000.49	77.9852	1000.49	72.9276	1000.49	73.8271	1000.49	62.5443	1000.49	61.9141	1000.49	72.256	1000.49	70.0368	1000.49	77.3158	1000.49	76.375	1000.49	79.4619	1000.49	79.0572	1000.49	79.9641
1035.64	86.262	1035.64	86.1162	1035.64	86.2383	1035.64	85.8037	1035.64	86.037	1035.64	85.3041	1035.64	85.6431	1035.64	84.5527	1035.64	85.007	1035.64	83.4386	1035.64	84.0239	1035.64	81.8472	1035.64	82.5617	1035.64	79.8301	1035.64	80.6053	1035.64	78.052	1035.64	78.6688	1035.64	77.6214	1035.64	77.9374	1035.64	78.0008	1035.64	78.3069	1035.64	77.6849	1035.64	78.2958	1035.64	75.6425	1035.64	76.8809	1035.64	70.0766	1035.64	72.8813	1035.64	53.0629	1035.64	59.1016	1035.64	72.0279	1035.64	69.2755	1035.64	76.8489	1035.64	75.8993	1035.64	78.9473	1035.64	78.6107	1035.64	79.4824
1072.27	86.5224	1072.27	86.3572	1072.27	86.5112	1072.27	86.0136	1072.27	86.3154	1072.27	85.4548	1072.27	85.9064	1072.27	84.5788	1072.27	85.2016	1072.27	83.2237	1072.27	84.0513	1072.27	81.2425	1072.27	82.3027	1072.27	78.8649	1072.27	80.0922	1072.27	77.6672	1072.27	78.6157	1072.27	78.7201	1072.27	79.1584	1072.27	79.9547	1072.27	80.2924	1072.27	80.0205	1072.27	80.5927	1072.27	78.3988	1072.27	79.5132	1072.27	74.0921	1072.27	76.3305	1072.27	61.5071	1072.27	67.8876	1072.27	70.6748	1072.27	66.2105	1072.27	76.6745	1072.27	75.4961	1072.27	79.1067	1072.27	78.7201	1072.27	79.7145
1108.89	87.1449	1108.89	86.9784	1108.89	87.0712	1108.89	86.616	1108.89	86.7872	1108.89	86.1242	1108.89	86.3657	1108.89	85.4793	1108.89	85.8234	1108.89	84.4934	1108.89	85.02	1108.89	82.8424	1108.89	83.6545	1108.89	80.135	1108.89	81.3528	1108.89	76.4002	1108.89	78.0463	1108.89	75.1761	1108.89	76.2518	1108.89	77.7068	1108.89	78.2864	1108.89	79.2582	1108.89	80.0019	1108.89	78.8563	1108.89	79.9216	1108.89	75.9181	1108.89	77.5249	1108.89	67.5111	1108.89	70.497	1108.89	69.7266	1108.89	64.9695	1108.89	76.9294	1108.89	75.8711	1108.89	79.7344	1108.89	79.3917	1108.89	80.4424
1148.44	87.2718	1148.44	87.0942	1148.44	87.2092	1148.44	86.711	1148.44	86.9201	1148.44	86.1771	1148.44	86.4536	1148.44	85.4981	1148.44	85.8326	1148.44	84.564	1148.44	84.9724	1148.44	83.1443	1148.44	83.6656	1148.44	80.9677	1148.44	81.6875	1148.44	78.125	1148.44	79.1945	1148.44	76.7001	1148.44	77.8661	1148.44	78.2648	1148.44	78.9753	1148.44	79.7104	1148.44	80.1876	1148.44	79.5444	1148.44	80.0237	1148.44	77.1144	1148.44	77.8114	1148.44	70.0906	1148.44	71.7243	1148.44	64.6121	1148.44	58.8569	1148.44	75.2318	1148.44	74.043	1148.44	78.5716	1148.44	78.0924	1148.44	79.3312
1189.45	87.2701	1189.45	87.0778	1189.45	87.1489	1189.45	86.6225	1189.45	86.7551	1189.45	86.0261	1189.45	86.2069	1189.45	85.3856	1189.45	85.6242	1189.45	84.6233	1189.45	84.9698	1189.45	83.4455	1189.45	83.9604	1189.45	81.4426	1189.45	82.1616	1189.45	78.2986	1189.45	79.1897	1189.45	75.3087	1189.45	75.9555	1189.45	76.351	1189.45	76.5674	1189.45	78.2213	1189.45	78.5954	1189.45	78.2924	1189.45	78.9763	1189.45	75.9309	1189.45	77.1643	1189.45	69.1054	1189.45	71.744	1189.45	66.8811	1189.45	61.7708	1189.45	75.3297	1189.45	74.0059	1189.45	78.5999	1189.45	78.197	1189.45	79.4398
1230.47	86.9185	1230.47	86.6702	1230.47	86.7901	1230.47	86.1131	1230.47	86.3128	1230.47	85.3929	1230.47	85.6167	1230.47	84.6492	1230.47	84.8991	1230.47	83.8707	1230.47	84.2293	1230.47	82.8132	1230.47	83.3293	1230.47	81.0442	1230.47	81.665	1230.47	78.1126	1230.47	78.7379	1230.47	74.9816	1230.47	75.4162	1230.47	76.1439	1230.47	76.3381	1230.47	78.4704	1230.47	78.7951	1230.47	78.8961	1230.47	79.5863	1230.47	76.909	1230.47	78.2655	1230.47	71.1311	1230.47	73.7217	1230.47	66.998	1230.47	63.7943	1230.47	75.0463	1230.47	73.9338	1230.47	78.4715	1230.47	78.2596	1230.47	79.4318
1274.41	87.4497	1274.41	87.1614	1274.41	87.289	1274.41	86.431	1274.41	86.712	1274.41	85.3744	1274.41	85.8142	1274.41	84.3016	1274.41	84.8135	1274.41	83.5172	1274.41	83.9751	1274.41	82.8369	1274.41	83.2663	1274.41	81.6135	1274.41	82.1801	1274.41	79.0724	1274.41	79.9824	1274.41	74.4841	1274.41	76.0277	1274.41	72.6047	1274.41	73.5901	1274.41	76.7325	1274.41	77.1206	1274.41	78.6407	1274.41	79.2716	1274.41	77.8889	1274.41	78.9129	1274.41	73.9285	1274.41	75.5333	1274.41	67.5703	1274.41	66.62	1274.41	74.121	1274.41	72.1803	1274.41	77.9747	1274.41	77.398	1274.41	78.9112
1319.82	88.5787	1319.82	88.2257	1319.82	88.4803	1319.82	87.4459	1319.82	87.9138	1319.82	86.2835	1319.82	86.9177	1319.82	84.8883	1319.82	85.6546	1319.82	83.555	1319.82	84.4236	1319.82	82.4588	1319.82	83.4291	1319.82	81.2915	1319.82	82.4198	1319.82	79.3964	1319.82	80.7598	1319.82	76.2486	1319.82	77.8062	1319.82	74.0189	1319.82	74.771	1319.82	76.662	1319.82	76.7703	1319.82	78.9058	1319.82	79.2342	1319.82	78.8907	1319.82	79.3772	1319.82	76.1976	1319.82	76.7466	1319.82	70.573	1319.82	69.8124	1319.82	72.6199	1319.82	69.8597	1319.82	76.6461	1319.82	75.7587	1319.82	77.5874
1366.7	88.7355	1366.7	88.4048	1366.7	88.6285	1366.7	87.653	1366.7	88.112	1366.7	86.5572	1366.7	87.2463	1366.7	85.2686	1366.7	86.128	1366.7	83.9951	1366.7	84.9133	1366.7	82.8864	1366.7	83.7741	1366.7	81.8453	1366.7	82.659	1366.7	80.4498	1366.7	81.1094	1366.7	78.0815	1366.7	78.4827	1366.7	74.7429	1366.7	75.151	1366.7	74.5902	1366.7	75.5121	1366.7	77.1848	1366.7	77.8618	1366.7	77.9351	1366.7	78.4336	1366.7	76.0158	1366.7	76.6035	1366.7	70.2387	1366.7	70.8996	1366.7	65.8111	1366.7	59.1393	1366.7	72.2373	1366.7	71.2629	1366.7	73.8465
1413.57	89.0371	1413.57	88.7548	1413.57	88.8252	1413.57	88.007	1413.57	88.146	1413.57	86.9097	1413.57	87.0877	1413.57	85.6867	1413.57	85.8138	1413.57	84.5362	1413.57	84.5388	1413.57	83.4154	1413.57	83.386	1413.57	82.051	1413.57	82.1672	1413.57	80.0651	1413.57	80.3939	1413.57	77.0646	1413.57	77.6397	1413.57	74.2596	1413.57	74.9725	1413.57	76.056	1413.57	76.0356	1413.57	78.5296	1413.57	78.2694	1413.57	78.9702	1413.57	78.9321	1413.57	77.0118	1413.57	77.3312	1413.57	71.3106	1413.57	71.8173	1413.57	53.1986	1413.57	56.9685	1413.57	70.8648	1413.57	71.6292	1413.57	73.7997
1463.38	89.0355	1463.38	88.7354	1463.38	88.7649	1463.38	87.8883	1463.38	87.8992	1463.38	86.5319	1463.38	86.442	1463.38	84.8381	1463.38	84.5417	1463.38	83.3107	1463.38	82.7164	1463.38	82.4179	1463.38	81.6236	1463.38	81.723	1463.38	81.013	1463.38	80.393	1463.38	79.9488	1463.38	77.9498	1463.38	77.6338	1463.38	74.6683	1463.38	73.5926	1463.38	73.9015	1463.38	72.4969	1463.38	76.4397	1463.38	76.293	1463.38	77.8192	1463.38	77.9363	1463.38	76.5554	1463.38	76.735	1463.38	71.1022	1463.38	71.6801	1463.38	68.2641	1463.38	65.7356	1463.38	74.5834	1463.38	73.4608	1463.38	75.9614
1516.11	88.1037	1516.11	87.9032	1516.11	87.8828	1516.11	87.2506	1516.11	87.2236	1516.11	86.0975	1516.11	86.0727	1516.11	84.4646	1516.11	84.3938	1516.11	82.6137	1516.11	82.3281	1516.11	81.1229	1516.11	80.4223	1516.11	80.2134	1516.11	79.1537	1516.11	79.1953	1516.11	77.9291	1516.11	77.2975	1516.11	75.9186	1516.11	74.5612	1516.11	73.474	1516.11	73.2264	1516.11	72.7047	1516.11	74.1836	1516.11	73.7671	1516.11	74.3351	1516.11	74.2673	1516.11	71.8931	1516.11	72.4577	1516.11	63.7975	1516.11	65.2888	1516.11	67.4805	1516.11	63.5399	1516.11	73.4358	1516.11	72.3048	1516.11	74.6227
1568.85	87.6222	1568.85	87.3107	1568.85	87.4699	1568.85	86.5692	1568.85	86.8372	1568.85	85.3775	1568.85	85.7576	1568.85	83.6906	1568.85	84.2741	1568.85	81.6523	1568.85	82.4888	1568.85	79.8623	1568.85	80.8042	1568.85	78.7648	1568.85	79.6475	1568.85	77.5105	1568.85	78.4292	1568.85	74.8872	1568.85	76.1517	1568.85	71.8024	1568.85	73.2072	1568.85	73.3089	1568.85	72.7057	1568.85	75.1126	1568.85	73.8338	1568.85	74.3705	1568.85	73.8042	1568.85	70.2552	1568.85	71.3524	1568.85	55.7066	1568.85	62.37	1568.85	68.6361	1568.85	67.2452	1568.85	74.142	1568.85	73.8834	1568.85	75.5745
1624.51	87.6439	1624.51	87.2891	1624.51	87.5652	1624.51	86.5362	1624.51	87.0442	1624.51	85.3862	1624.51	86.0556	1624.51	83.6972	1624.51	84.5668	1624.51	81.3361	1624.51	82.7029	1624.51	78.916	1624.51	81.0293	1624.51	77.9355	1624.51	80.1591	1624.51	77.4605	1624.51	79.4056	1624.51	75.2142	1624.51	77.2919	1624.51	70.0195	1624.51	72.5073	1624.51	70.267	1624.51	70.5379	1624.51	74.4402	1624.51	74.5674	1624.51	75.2172	1624.51	75.3548	1624.51	72.172	1624.51	72.4635	1624.51	62.3565	1624.51	60.2474	1624.51	71.652	1624.51	68.7933	1624.51	76.2619	1624.51	75.2371	1624.51	77.141
1681.64	87.3476	1681.64	87.1663	1681.64	87.2154	1681.64	86.65	1681.64	86.7732	1681.64	85.7457	1681.64	85.9372	1681.64	84.2945	1681.64	84.497	1681.64	82.1117	1681.64	82.225	1681.64	79.4753	1681.64	79.4329	1681.64	77.967	1681.64	77.9152	1681.64	77.8787	1681.64	77.864	1681.64	76.6216	1681.64	76.5442	1681.64	71.5921	1681.64	71.3116	1681.64	66.2576	1681.64	67.7341	1681.64	74.8255	1681.64	75.3489	1681.64	77.39	1681.64	77.5633	1681.64	76.1561	1681.64	76.1627	1681.64	70.0261	1681.64	69.6339	1681.64	68.5114	1681.64	67.034	1681.64	75.3989	1681.64	74.9899	1681.64	77.0013
1741.7	85.5122	1741.7	85.3256	1741.7	85.2118	1741.7	84.722	1741.7	84.4852	1741.7	83.8542	1741.7	83.4579	1741.7	82.7176	1741.7	82.1952	1741.7	81.0352	1741.7	80.5528	1741.7	78.5479	1741.7	78.239	1741.7	75.7163	1741.7	75.7498	1741.7	74.5809	1741.7	75.4729	1741.7	74.7552	1741.7	76.2144	1741.7	72.9067	1741.7	74.6797	1741.7	63.4325	1741.7	67.1764	1741.7	68.4106	1741.7	66.9958	1741.7	75.1766	1741.7	75.1153	1741.7	76.0641	1741.7	76.6542	1741.7	72.7162	1741.7	73.9976	1741.7	66.1966	1741.7	67.1212	1741.7	71.86	1741.7	71.5627	1741.7	74.1046
1803.22	84.4754	1803.22	83.8962	1803.22	84.4809	1803.22	82.771	1803.22	83.9683	1803.22	81.3444	1803.22	83.0095	1803.22	79.9814	1803.22	81.7139	1803.22	78.7098	1803.22	80.167	1803.22	77.1838	1803.22	78.3068	1803.22	75.1932	1803.22	76.2173	1803.22	73.1473	1803.22	75.1363	1803.22	72.4893	1803.22	75.7425	1803.22	72.775	1803.22	75.5155	1803.22	70.8299	1803.22	71.8846	1803.22	62.8446	1803.22	62.2871	1803.22	68.9122	1803.22	71.0356	1803.22	72.935	1803.22	74.049	1803.22	71.1213	1803.22	72.3729	1803.22	60.6355	1803.22	64.3142	1803.22	64.9226	1803.22	61.8885	1803.22	67.8772
1866.21	85.4271	1866.21	84.9937	1866.21	85.2914	1866.21	83.9769	1866.21	84.6901	1866.21	82.5576	1866.21	83.6717	1866.21	80.9257	1866.21	82.3297	1866.21	79.1343	1866.21	80.7973	1866.21	77.3011	1866.21	78.9754	1866.21	75.7851	1866.21	76.7686	1866.21	75.0052	1866.21	74.9818	1866.21	74.9734	1866.21	74.7276	1866.21	74.702	1866.21	74.5507	1866.21	72.901	1866.21	72.5017	1866.21	69.5313	1866.21	68.3059	1866.21	69.6003	1866.21	70.617	1866.21	71.8001	1866.21	73.4608	1866.21	71.0466	1866.21	71.6306	1866.21	64.2112	1866.21	61.4303	1866.21	58.7474	1866.21	63.5749	1866.21	66.9226
1932.13	85.3187	1932.13	85.0149	1932.13	85.0096	1932.13	84.176	1932.13	84.0515	1932.13	82.9323	1932.13	82.606	1932.13	81.4577	1932.13	81.1413	1932.13	79.8229	1932.13	79.981	1932.13	77.8862	1932.13	78.8005	1932.13	75.6408	1932.13	77.0699	1932.13	74.484	1932.13	74.8335	1932.13	75.086	1932.13	73.9864	1932.13	74.8254	1932.13	74.6574	1932.13	72.8946	1932.13	73.3755	1932.13	71.3104	1932.13	69.2057	1932.13	72.8341	1932.13	71.0514	1932.13	74.6086	1932.13	73.6709	1932.13	73.5324	1932.13	71.8057	1932.13	67.183	1932.13	60.9707	1932.13	55.5759	1932.13	64.0739	1932.13	67.0329
1999.51	85.6815	1999.51	85.3559	1999.51	85.406	1999.51	84.5152	1999.51	84.5314	1999.51	83.3184	1999.51	83.2302	1999.51	82.0636	1999.51	81.847	1999.51	80.9555	1999.51	80.6111	1999.51	79.7438	1999.51	79.3989	1999.51	78.0659	1999.51	78.0256	1999.51	76.0307	1999.51	76.2449	1999.51	74.373	1999.51	74.7358	1999.51	73.3038	1999.51	75.1188	1999.51	71.6179	1999.51	74.4028	1999.51	70.5985	1999.51	69.2188	1999.51	73.1256	1999.51	67.938	1999.51	75.03	1999.51	72.8831	1999.51	74.06	1999.51	72.1637	1999.51	67.8473	1999.51	64.4952	1999.51	56.2102	1999.51	60.9102	1999.51	66.3411
2069.82	85.7107	2069.82	85.4162	2069.82	85.4199	2069.82	84.6763	2069.82	84.5507	2069.82	83.6605	2069.82	83.2493	2069.82	82.5298	2069.82	81.6968	2069.82	81.3403	2069.82	80.1416	2069.82	79.9906	2069.82	78.871	2069.82	78.4362	2069.82	77.9493	2069.82	76.6531	2069.82	76.9339	2069.82	74.7122	2069.82	75.3083	2069.82	73.8229	2069.82	74.0893	2069.82	73.4002	2069.82	73.88	2069.82	70.5118	2069.82	71.0896	2069.82	70.7031	2069.82	66.773	2069.82	74.0416	2069.82	73.1224	2069.82	73.4784	2069.82	73.5119	2069.82	67.6368	2069.82	67.1661	2069.82	56.7544	2069.82	55.6112	2069.82	65.2734
2143.07	86.298	2143.07	85.9757	2143.07	85.974	2143.07	85.0553	2143.07	85.1126	2143.07	83.7875	2143.07	83.9223	2143.07	82.5657	2143.07	82.6627	2143.07	81.5269	2143.07	81.4334	2143.07	80.4109	2143.07	80.0937	2143.07	79.0853	2143.07	78.7659	2143.07	77.4604	2143.07	78.0757	2143.07	75.6111	2143.07	77.3494	2143.07	74.8555	2143.07	75.4301	2143.07	75.0799	2143.07	74.5057	2143.07	74.0474	2143.07	73.4973	2143.07	72.5714	2143.07	68.1601	2143.07	74.7448	2143.07	71.1783	2143.07	75.518	2143.07	72.9586	2143.07	71.616	2143.07	68.5798	2143.07	56.8248	2143.07	53.4453	2143.07	59.2154
2219.24	86.1732	2219.24	85.8981	2219.24	85.7946	2219.24	85.0982	2219.24	84.9812	2219.24	84.0848	2219.24	83.8909	2219.24	83.0705	2219.24	82.7091	2219.24	82.2346	2219.24	81.741	2219.24	81.3181	2219.24	80.67	2219.24	79.8154	2219.24	79.2847	2219.24	78.4384	2219.24	77.8715	2219.24	77.4691	2219.24	76.1835	2219.24	75.3881	2219.24	74.9585	2219.24	73.7289	2219.24	74.0975	2219.24	72.6396	2219.24	73.0377	2219.24	70.2155	2219.24	70.4421	2219.24	73.4461	2219.24	72.9151	2219.24	74.402	2219.24	75.2532	2219.24	70.7927	2219.24	71.8083	2219.24	63.6863	2219.24	60.8554	2219.24	65.5324
2296.88	84.8631	2296.88	84.6391	2296.88	84.6723	2296.88	84.027	2296.88	84.1259	2296.88	83.273	2296.88	83.3147	2296.88	82.5785	2296.88	82.3895	2296.88	81.8277	2296.88	81.5855	2296.88	80.7731	2296.88	80.6303	2296.88	79.3095	2296.88	78.7961	2296.88	77.9867	2296.88	76.9367	2296.88	77.1078	2296.88	76.2098	2296.88	75.704	2296.88	74.3884	2296.88	74.4325	2296.88	73.1547	2296.88	73.906	2296.88	73.5866	2296.88	71.108	2296.88	69.2012	2296.88	73.0445	2296.88	71.0176	2296.88	74.8597	2296.88	74.4967	2296.88	71.6728	2296.88	72.6006	2296.88	65.3167	2296.88	65.8745	2296.88	64.8543
2378.91	85.5572	2378.91	85.5188	2378.91	85.5401	2378.91	85.3408	2378.91	85.3771	2378.91	84.8934	2378.91	84.8899	2378.91	83.9425	2378.91	83.9019	2378.91	82.6646	2378.91	82.6664	2378.91	81.5764	2378.91	81.9104	2378.91	80.0961	2378.91	80.6433	2378.91	77.8509	2378.91	78.1906	2378.91	76.527	2378.91	77.0056	2378.91	75.4389	2378.91	75.6817	2378.91	74.0079	2378.91	73.4586	2378.91	74.2072	2378.91	74.3299	2378.91	70.771	2378.91	72.698	2378.91	71.3951	2378.91	68.0189	2378.91	74.1147	2378.91	73.5848	2378.91	71.7665	2378.91	73.0957	2378.91	67.5451	2378.91	68.7717	2378.91	68.314
2462.4	85.8666	2462.4	85.8333	2462.4	85.8085	2462.4	85.6796	2462.4	85.6575	2462.4	85.2825	2462.4	85.3407	2462.4	84.2928	2462.4	84.6186	2462.4	82.9284	2462.4	83.2051	2462.4	81.6179	2462.4	81.7534	2462.4	80.1105	2462.4	80.7235	2462.4	78.0839	2462.4	78.6885	2462.4	76.466	2462.4	76.7467	2462.4	75.4118	2462.4	76.1593	2462.4	73.0553	2462.4	72.7587	2462.4	74.3795	2462.4	73.218	2462.4	72.5917	2462.4	73.1836	2462.4	68.9846	2462.4	69.9448	2462.4	72.9383	2462.4	72.5092	2462.4	71.0342	2462.4	71.9914	2462.4	68.8787	2462.4	68.218	2462.4	68.8176
2548.83	85.8047	2548.83	85.7034	2548.83	85.7421	2548.83	85.4682	2548.83	85.4109	2548.83	85.0208	2548.83	84.8585	2548.83	84.1706	2548.83	84.0608	2548.83	82.642	2548.83	82.7494	2548.83	81.0712	2548.83	81.0429	2548.83	79.8037	2548.83	79.6811	2548.83	77.585	2548.83	77.5304	2548.83	75.8937	2548.83	75.1353	2548.83	75.0067	2548.83	74.6929	2548.83	72.1922	2548.83	72.5491	2548.83	73.274	2548.83	71.6564	2548.83	73.3902	2548.83	73.051	2548.83	69.4244	2548.83	69.0832	2548.83	72.3948	2548.83	71.5033	2548.83	70.3234	2548.83	70.0864	2548.83	68.9211	2548.83	67.5864	2548.83	69.7969
2639.65	86.3222	2639.65	86.2748	2639.65	86.0632	2639.65	85.9574	2639.65	85.4995	2639.65	85.4294	2639.65	84.985	2639.65	84.6773	2639.65	84.438	2639.65	83.2737	2639.65	83.2616	2639.65	81.2519	2639.65	81.2528	2639.65	79.6044	2639.65	79.4806	2639.65	77.5744	2639.65	78.1612	2639.65	74.8211	2639.65	75.4337	2639.65	74.2855	2639.65	74.5952	2639.65	70.7006	2639.65	72.5823	2639.65	71.4649	2639.65	70.6984	2639.65	72.7822	2639.65	72.3258	2639.65	68.9808	2639.65	69.3588	2639.65	72.1382	2639.65	71.5213	2639.65	69.8581	2639.65	71.1934	2639.65	65.6365	2639.65	63.943	2639.65	68.7829
2731.93	86.9105	2731.93	86.6872	2731.93	86.763	2731.93	86.1301	2731.93	86.2641	2731.93	85.3763	2731.93	85.5313	2731.93	84.5957	2731.93	84.7434	2731.93	83.5041	2731.93	83.7225	2731.93	81.5671	2731.93	81.9518	2731.93	79.4881	2731.93	79.8002	2731.93	78.0602	2731.93	78.017	2731.93	75.5272	2731.93	75.3883	2731.93	74.3796	2731.93	74.3283	2731.93	72.2077	2731.93	73.2721	2731.93	69.2326	2731.93	70.0494	2731.93	72.2619	2731.93	72.2476	2731.93	69.0472	2731.93	68.7168	2731.93	71.0255	2731.93	70.0435	2731.93	70.8328	2731.93	71.2877	2731.93	64.0846	2731.93	67.2018	2731.93	67.2386
2828.61	86.76	2828.61	86.5986	2828.61	86.6914	2828.61	86.1923	2828.61	86.356	2828.61	85.3537	2828.61	85.6672	2828.61	84.3118	2828.61	84.6258	2828.61	83.216	2828.61	83.4675	2828.61	81.3742	2828.61	81.8639	2828.61	79.218	2828.61	79.765	2828.61	77.6774	2828.61	78.2873	2828.61	75.4254	2828.61	75.9377	2828.61	74.7424	2828.61	74.0243	2828.61	72.4961	2828.61	73.1649	2828.61	69.1761	2828.61	69.8439	2828.61	72.449	2828.61	72.7957	2828.61	69.6709	2828.61	70.6682	2828.61	70.6743	2828.61	69.1817	2828.61	71.1084	2828.61	71.8448	2828.61	66.9305	2828.61	66.5243	2828.61	67.0621
2928.22	86.432	2928.22	86.4055	2928.22	86.4295	2928.22	86.2136	2928.22	86.3412	2928.22	85.5609	2928.22	85.8369	2928.22	84.3097	2928.22	84.5968	2928.22	82.6979	2928.22	83.0121	2928.22	80.9245	2928.22	81.3672	2928.22	78.5303	2928.22	79.2342	2928.22	76.7206	2928.22	77.4987	2928.22	74.5423	2928.22	75.746	2928.22	73.3645	2928.22	73.1716	2928.22	73.3285	2928.22	73.3327	2928.22	69.2062	2928.22	68.7953	2928.22	72.1202	2928.22	71.9119	2928.22	70.7516	2928.22	71.4785	2928.22	70.3253	2928.22	70.1443	2928.22	70.6869	2928.22	70.6344	2928.22	67.3841	2928.22	67.7555	2928.22	67.0496
3030.76	86.8809	3030.76	86.8479	3030.76	86.81	3030.76	86.5915	3030.76	86.5644	3030.76	85.8781	3030.76	85.9623	3030.76	84.5684	3030.76	84.9146	3030.76	82.8735	3030.76	83.402	3030.76	81.0623	3030.76	81.5829	3030.76	78.4947	3030.76	79.4386	3030.76	76.3885	3030.76	77.5313	3030.76	74.3676	3030.76	75.5301	3030.76	71.2567	3030.76	72.7742	3030.76	71.7442	3030.76	72.7278	3030.76	68.3143	3030.76	70.0643	3030.76	71.6327	3030.76	71.0046	3030.76	70.4015	3030.76	71.4448	3030.76	70.8506	3030.76	69.8941	3030.76	70.4868	3030.76	71.6101	3030.76	66.6536	3030.76	67.6346	3030.76	68.0724
3137.7	85.9776	3137.7	85.9371	3137.7	85.9345	3137.7	85.8478	3137.7	85.8816	3137.7	85.4723	3137.7	85.573	3137.7	84.3971	3137.7	84.5885	3137.7	82.7565	3137.7	82.8815	3137.7	80.9819	3137.7	81.0606	3137.7	78.8086	3137.7	78.8477	3137.7	76.4627	3137.7	76.3023	3137.7	74.8911	3137.7	75.0826	3137.7	72.4162	3137.7	72.4407	3137.7	71.8259	3137.7	71.6446	3137.7	68.4098	3137.7	69.4714	3137.7	70.3499	3137.7	69.5939	3137.7	70.408	3137.7	71.252	3137.7	70.5076	3137.7	69.051	3137.7	70.9519	3137.7	70.6975	3137.7	65.8556	3137.7	66.6385	3137.7	68.9574
3249.02	85.9169	3249.02	85.7831	3249.02	85.8809	3249.02	85.4744	3249.02	85.6713	3249.02	84.736	3249.02	85.2303	3249.02	83.3472	3249.02	84.3338	3249.02	81.4686	3249.02	82.6896	3249.02	79.2962	3249.02	80.5782	3249.02	76.9734	3249.02	78.4528	3249.02	74.5615	3249.02	76.0704	3249.02	72.9765	3249.02	74.5419	3249.02	71.2159	3249.02	72.375	3249.02	70.8627	3249.02	71.1147	3249.02	68.3218	3249.02	69.7137	3249.02	68.9527	3249.02	68.7706	3249.02	69.6206	3249.02	70.9811	3249.02	69.9654	3249.02	69.2985	3249.02	71.1252	3249.02	71.6735	3249.02	64.9216	3249.02	65.8574	3249.02	66.2622
3363.28	85.5567	3363.28	85.5496	3363.28	85.5667	3363.28	85.4545	3363.28	85.3712	3363.28	84.9953	3363.28	84.9414	3363.28	84.0236	3363.28	84.0613	3363.28	82.3241	3363.28	82.3369	3363.28	80.351	3363.28	80.2238	3363.28	78.2599	3363.28	78.1881	3363.28	75.7564	3363.28	75.4616	3363.28	73.8342	3363.28	73.5518	3363.28	71.2856	3363.28	71.8238	3363.28	70.2333	3363.28	70.0044	3363.28	67.7858	3363.28	68.7905	3363.28	67.8979	3363.28	66.7831	3363.28	70.0185	3363.28	69.6197	3363.28	68.6105	3363.28	68.8004	3363.28	70.3953	3363.28	70.4585	3363.28	65.8284	3363.28	66.0795	3363.28	66.6011
3481.93	85.2149	3481.93	85.2437	3481.93	85.2219	3481.93	85.1277	3481.93	85.178	3481.93	84.4547	3481.93	84.8208	3481.93	83.4884	3481.93	84.0373	3481.93	81.805	3481.93	82.564	3481.93	79.6694	3481.93	80.4105	3481.93	77.8101	3481.93	78.496	3481.93	75.2034	3481.93	75.9793	3481.93	73.5079	3481.93	73.897	3481.93	71.8043	3481.93	72.0407	3481.93	71.2665	3481.93	70.5871	3481.93	69.6586	3481.93	69.0152	3481.93	68.3507	3481.93	66.9803	3481.93	70.3589	3481.93	70.6608	3481.93	69.7852	3481.93	69.0987	3481.93	71.5917	3481.93	71.919	3481.93	64.5178	3481.93	66.534	3481.93	66.461
3604.98	84.6826	3604.98	84.9928	3604.98	84.84	3604.98	85.2888	3604.98	84.9908	3604.98	84.8347	3604.98	84.4972	3604.98	83.918	3604.98	83.6152	3604.98	82.6823	3604.98	82.3976	3604.98	80.4453	3604.98	80.0934	3604.98	78.4315	3604.98	77.9317	3604.98	76.2217	3604.98	75.6098	3604.98	73.5622	3604.98	73.4459	3604.98	71.2254	3604.98	71.1465	3604.98	69.5506	3604.98	69.2942	3604.98	68.5153	3604.98	68.0407	3604.98	66.1774	3604.98	65.1338	3604.98	70.3924	3604.98	71.0216	3604.98	69.8043	3604.98	67.7126	3604.98	72.3051	3604.98	72.8894	3604.98	65.3648	3604.98	66.1523	3604.98	67.3181
3732.42	84.7306	3732.42	85.2507	3732.42	84.9306	3732.42	85.6619	3732.42	85.4348	3732.42	85.0887	3732.42	85.1862	3732.42	83.6047	3732.42	83.9564	3732.42	82.34	3732.42	82.615	3732.42	80.4065	3732.42	80.899	3732.42	78.164	3732.42	78.4849	3732.42	76.4213	3732.42	76.538	3732.42	74.0738	3732.42	74.0304	3732.42	72.2234	3732.42	72.4483	3732.42	70.4224	3732.42	69.5713	3732.42	69.3995	3732.42	69.9493	3732.42	63.4856	3732.42	61.7587	3732.42	70.0055	3732.42	70.4988	3732.42	68.5627	3732.42	67.9378	3732.42	72.0076	3732.42	71.9442	3732.42	62.3081	3732.42	64.8446	3732.42	65.7237
3864.26	85.011	3864.26	85.3504	3864.26	84.9405	3864.26	85.7454	3864.26	85.241	3864.26	85.6657	3864.26	85.2533	3864.26	84.3427	3864.26	84.0817	3864.26	82.3517	3864.26	82.1521	3864.26	80.8216	3864.26	80.4486	3864.26	78.6441	3864.26	78.287	3864.26	76.5036	3864.26	76.645	3864.26	74.0613	3864.26	74.275	3864.26	72.0753	3864.26	71.9899	3864.26	70.1498	3864.26	69.8624	3864.26	69.5832	3864.26	69.4161	3864.26	64.5955	3864.26	65.558	3864.26	68.5495	3864.26	68.2214	3864.26	66.6347	3864.26	67.5826	3864.26	71.75	3864.26	70.3146	3864.26	63.7493	3864.26	66.538	3864.26	58.98
4000.49	85.3423	4000.49	85.5673	4000.49	85.3806	4000.49	85.5733	4000.49	85.437	4000.49	85.2051	4000.49	85.4459	4000.49	84.262	4000.49	84.7216	4000.49	82.5249	4000.49	82.7429	4000.49	80.4476	4000.49	80.8006	4000.49	77.922	4000.49	78.4967	4000.49	75.9356	4000.49	76.0216	4000.49	73.5978	4000.49	74.2147	4000.49	71.7859	4000.49	71.8247	4000.49	69.1283	4000.49	69.1933	4000.49	68.906	4000.49	68.9509	4000.49	65.468	4000.49	67.9484	4000.49	67.0194	4000.49	65.1617	4000.49	66.3523	4000.49	67.6747	4000.49	71.4102	4000.49	69.9548	4000.49	65.0072	4000.49	65.9076	4000.49	57.8987
4141.11	85.8823	4141.11	86.0735	4141.11	85.9479	4141.11	86.1878	4141.11	85.8192	4141.11	85.4891	4141.11	85.1842	4141.11	84.2846	4141.11	84.3412	4141.11	82.6493	4141.11	82.6127	4141.11	80.808	4141.11	80.2516	4141.11	78.2333	4141.11	78.4046	4141.11	75.647	4141.11	76.1931	4141.11	73.0075	4141.11	73.4573	4141.11	71.7021	4141.11	72.0733	4141.11	68.5336	4141.11	67.8706	4141.11	69.7293	4141.11	69.4595	4141.11	64.2103	4141.11	64.3406	4141.11	69.5054	4141.11	71.3392	4141.11	63.6923	4141.11	67.8005	4141.11	71.7551	4141.11	70.232	4141.11	65.2431	4141.11	68.7881	4141.11	59.463
4287.6	85.9889	4287.6	86.0127	4287.6	86.1115	4287.6	85.7519	4287.6	86.0713	4287.6	84.9913	4287.6	85.4968	4287.6	83.6551	4287.6	84.2185	4287.6	81.8856	4287.6	82.6158	4287.6	80.4493	4287.6	80.9879	4287.6	78.5985	4287.6	78.8444	4287.6	76.3559	4287.6	76.7213	4287.6	74.0845	4287.6	74.1593	4287.6	72.3171	4287.6	72.0089	4287.6	69.9048	4287.6	70.032	4287.6	68.6787	4287.6	67.9913	4287.6	67.4859	4287.6	68.0497	4287.6	68.1635	4287.6	64.0121	4287.6	68.079	4287.6	69.103	4287.6	67.7353	4287.6	67.4585	4287.6	65.0402	4287.6	65.5869	4287.6	63.9823
4438.48	85.9114	4438.48	86.1136	4438.48	86.0186	4438.48	85.9429	4438.48	85.8846	4438.48	85.0968	4438.48	85.1711	4438.48	84.2128	4438.48	84.1091	4438.48	83.0005	4438.48	82.7069	4438.48	80.8505	4438.48	81.0549	4438.48	78.9562	4438.48	79.302	4438.48	76.2256	4438.48	76.6381	4438.48	73.5169	4438.48	74.5123	4438.48	71.8946	4438.48	72.5569	4438.48	68.8478	4438.48	70.0658	4438.48	68.925	4438.48	67.8075	4438.48	65.6606	4438.48	67.4554	4438.48	67.6647	4438.48	67.5609	4438.48	69.1938	4438.48	70.0007	4438.48	70.3226	4438.48	69.2215	4438.48	64.5637	4438.48	66.6998	4438.48	61.2005
4595.21	85.6458	4595.21	85.4567	4595.21	85.7019	4595.21	85.1737	4595.21	85.4376	4595.21	84.4283	4595.21	84.8004	4595.21	83.0726	4595.21	83.8219	4595.21	82.2888	4595.21	82.9858	4595.21	80.6053	4595.21	81.3698	4595.21	78.9579	4595.21	79.1116	4595.21	76.7524	4595.21	77.0319	4595.21	74.3177	4595.21	74.1955	4595.21	72.4483	4595.21	71.9127	4595.21	70.5104	4595.21	70.9359	4595.21	68.7016	4595.21	68.6147	4595.21	67.0286	4595.21	67.3832	4595.21	67.7139	4595.21	67.2319	4595.21	68.2515	4595.21	69.3998	4595.21	70.3089	4595.21	67.8905	4595.21	64.2345	4595.21	67.8671	4595.21	58.2316
4756.35	85.7824	4756.35	85.6515	4756.35	85.629	4756.35	85.1682	4756.35	85.2308	4756.35	84.7986	4756.35	84.6829	4756.35	84.0235	4756.35	83.8561	4756.35	83.1448	4756.35	82.9218	4756.35	81.6139	4756.35	81.6673	4756.35	79.5334	4756.35	79.4042	4756.35	76.8681	4756.35	76.9915	4756.35	74.3219	4756.35	74.8325	4756.35	71.0959	4756.35	72.2078	4756.35	69.826	4756.35	70.0148	4756.35	68.5418	4756.35	67.0824	4756.35	66.9079	4756.35	67.7135	4756.35	68.4389	4756.35	67.5147	4756.35	67.3685	4756.35	69.421	4756.35	69.0244	4756.35	68.3184	4756.35	65.0256	4756.35	67.7155	4756.35	55.0307
4924.8	85.5412	4924.8	85.1967	4924.8	85.2381	4924.8	84.6342	4924.8	84.7768	4924.8	84.335	4924.8	84.4174	4924.8	83.9812	4924.8	84.1147	4924.8	82.9137	4924.8	83.147	4924.8	81.3572	4924.8	81.9649	4924.8	78.6501	4924.8	79.5413	4924.8	76.0425	4924.8	77.228	4924.8	73.0232	4924.8	73.2852	4924.8	71.7491	4924.8	71.6978	4924.8	70.307	4924.8	70.4363	4924.8	68.0318	4924.8	67.4664	4924.8	67.5057	4924.8	67.5116	4924.8	68.1482	4924.8	67.6025	4924.8	70.272	4924.8	69.7614	4924.8	68.9024	4924.8	66.919	4924.8	65.9485	4924.8	68.0916	4924.8	56.7636
5097.66	85.328	5097.66	84.8756	5097.66	85.0763	5097.66	84.2733	5097.66	84.6118	5097.66	84.2738	5097.66	84.4273	5097.66	84.2515	5097.66	84.5465	5097.66	83.1985	5097.66	83.5315	5097.66	81.7429	5097.66	81.8571	5097.66	79.475	5097.66	79.4974	5097.66	76.9399	5097.66	77.3624	5097.66	73.871	5097.66	74.0304	5097.66	71.3901	5097.66	71.6665	5097.66	69.5334	5097.66	69.4607	5097.66	66.7321	5097.66	66.8134	5097.66	67.8914	5097.66	68.1527	5097.66	65.4832	5097.66	65.365	5097.66	69.7235	5097.66	69.5163	5097.66	68.2752	5097.66	66.4769	5097.66	64.7151	5097.66	67.9246	5097.66	49.5356
5277.83	84.9258	5277.83	84.475	5277.83	84.649	5277.83	84.2602	5277.83	84.2308	5277.83	84.582	5277.83	84.1849	5277.83	84.6682	5277.83	84.1665	5277.83	83.5645	5277.83	83.3837	5277.83	81.199	5277.83	81.3482	5277.83	78.6282	5277.83	78.7492	5277.83	75.7952	5277.83	75.6544	5277.83	72.1582	5277.83	72.8738	5277.83	70.3035	5277.83	70.939	5277.83	68.9049	5277.83	69.2188	5277.83	66.4922	5277.83	66.0002	5277.83	68.7382	5277.83	68.298	5277.83	65.4497	5277.83	65.9413	5277.83	68.8912	5277.83	68.6885	5277.83	66.7887	5277.83	66.1063	5277.83	65.41	5277.83	66.2095	5277.83	54.6931
5463.87	85.1986	5463.87	84.9024	5463.87	84.8306	5463.87	84.6757	5463.87	84.4878	5463.87	84.9972	5463.87	84.7994	5463.87	84.5754	5463.87	84.636	5463.87	83.2464	5463.87	83.693	5463.87	80.7694	5463.87	81.3317	5463.87	78.1763	5463.87	78.4229	5463.87	75.3247	5463.87	76.2609	5463.87	72.417	5463.87	73.2317	5463.87	69.8583	5463.87	70.2257	5463.87	68.4795	5463.87	67.5714	5463.87	65.755	5463.87	65.017	5463.87	67.7387	5463.87	67.5961	5463.87	66.3945	5463.87	65.719	5463.87	69.0273	5463.87	68.223	5463.87	66.8236	5463.87	66.4018	5463.87	64.8469	5463.87	66.8036	5463.87	55.3538
5657.23	84.6552	5657.23	84.5609	5657.23	84.5193	5657.23	84.6421	5657.23	84.689	5657.23	84.8751	5657.23	84.9079	5657.23	84.0543	5657.23	84.3262	5657.23	82.4968	5657.23	83.0652	5657.23	80.2988	5657.23	80.845	5657.23	77.9523	5657.23	78.6573	5657.23	75.7447	5657.23	75.8038	5657.23	72.9186	5657.23	72.9986	5657.23	69.9724	5657.23	70.5826	5657.23	67.28	5657.23	67.8146	5657.23	64.8271	5657.23	64.6897	5657.23	65.526	5657.23	66.0644	5657.23	65.9733	5657.23	65.371	5657.23	66.5581	5657.23	67.3675	5657.23	65.5351	5657.23	66.4448	5657.23	65.095	5657.23	65.3693	5657.23	50.9922
5856.45	84.9471	5856.45	84.4798	5856.45	84.7269	5856.45	84.2654	5856.45	84.4185	5856.45	84.6535	5856.45	84.6012	5856.45	84.2614	5856.45	84.2993	5856.45	83.4034	5856.45	83.5403	5856.45	81.4681	5856.45	81.822	5856.45	79.0514	5856.45	79.1239	5856.45	76.2576	5856.45	76.7345	5856.45	72.4963	5856.45	73.4786	5856.45	69.6841	5856.45	70.895	5856.45	66.7683	5856.45	67.0841	5856.45	64.0047	5856.45	65.88	5856.45	66.1774	5856.45	65.5975	5856.45	66.5635	5856.45	65.8431	5856.45	66.8056	5856.45	67.3277	5856.45	64.9214	5856.45	65.3773	5856.45	64.334	5856.45	65.1249	5856.45	56.7572
6062.99	85.2403	6062.99	84.6638	6062.99	84.7559	6062.99	84.2124	6062.99	84.1372	6062.99	84.6027	6062.99	84.3749	6062.99	84.3415	6062.99	84.2304	6062.99	83.0671	6062.99	83.2887	6062.99	81.008	6062.99	81.4804	6062.99	77.8945	6062.99	78.753	6062.99	74.7428	6062.99	76.0226	6062.99	71.9498	6062.99	73.0625	6062.99	69.2484	6062.99	69.7679	6062.99	65.5397	6062.99	66.635	6062.99	64.0407	6062.99	66.4434	6062.99	64.0889	6062.99	67.1471	6062.99	65.0687	6062.99	63.6098	6062.99	67.8882	6062.99	66.3046	6062.99	64.2835	6062.99	67.0347	6062.99	65.3676	6062.99	66.1516	6062.99	57.1962
6276.86	84.9755	6276.86	84.4311	6276.86	84.5354	6276.86	83.7806	6276.86	83.8654	6276.86	84.0811	6276.86	83.9461	6276.86	83.9835	6276.86	83.8786	6276.86	82.3235	6276.86	82.6948	6276.86	80.4042	6276.86	80.865	6276.86	77.7832	6276.86	78.3195	6276.86	74.6186	6276.86	75.1614	6276.86	71.6472	6276.86	72.512	6276.86	68.7781	6276.86	68.921	6276.86	66.7454	6276.86	65.9563	6276.86	64.7089	6276.86	65.8735	6276.86	63.3339	6276.86	63.7045	6276.86	64.3913	6276.86	63.718	6276.86	66.9519	6276.86	66.7817	6276.86	63.8109	6276.86	64.9106	6276.86	64.8207	6276.86	65.1784	6276.86	52.3438
6498.05	85.1898	6498.05	84.7673	6498.05	84.7409	6498.05	84.2785	6498.05	84.2834	6498.05	84.1836	6498.05	83.9941	6498.05	83.8445	6498.05	83.6737	6498.05	82.3756	6498.05	82.4434	6498.05	80.3571	6498.05	80.3679	6498.05	77.2999	6498.05	77.6789	6498.05	74.4372	6498.05	74.7183	6498.05	71.8038	6498.05	71.9498	6498.05	68.9725	6498.05	68.1996	6498.05	65.7128	6498.05	66.4796	6498.05	64.1197	6498.05	64.0421	6498.05	61.8643	6498.05	61.8798	6498.05	62.8815	6498.05	62.3668	6498.05	65.9316	6498.05	66.0409	6498.05	63.2745	6498.05	65.1105	6498.05	63.6453	6498.05	63.6344	6498.05	59.17
6726.56	85.2555	6726.56	85.0703	6726.56	84.9613	6726.56	84.547	6726.56	84.4972	6726.56	84.1256	6726.56	84.0091	6726.56	83.5009	6726.56	83.3601	6726.56	82.1296	6726.56	82.186	6726.56	80.022	6726.56	80.0799	6726.56	77.3828	6726.56	77.5605	6726.56	74.3131	6726.56	74.5738	6726.56	71.4202	6726.56	71.2327	6726.56	68.5766	6726.56	68.239	6726.56	65.9435	6726.56	64.7187	6726.56	63.9545	6726.56	64.0043	6726.56	62.1971	6726.56	62.1882	6726.56	60.6492	6726.56	61.7668	6726.56	65.4538	6726.56	65.6662	6726.56	64.081	6726.56	65.292	6726.56	62.2001	6726.56	63.2077	6726.56	59.4441
6963.87	85.2087	6963.87	85.269	6963.87	85.0003	6963.87	84.7238	6963.87	84.6539	6963.87	84.0719	6963.87	83.9835	6963.87	83.2945	6963.87	83.1936	6963.87	82.1417	6963.87	82.0694	6963.87	80.1727	6963.87	80.0475	6963.87	77.4638	6963.87	77.7979	6963.87	74.237	6963.87	74.8959	6963.87	71.257	6963.87	71.3802	6963.87	68.4165	6963.87	68.2292	6963.87	65.6049	6963.87	66.7763	6963.87	63.0253	6963.87	63.633	6963.87	62.2226	6963.87	59.3357	6963.87	61.4658	6963.87	61.6039	6963.87	65.4351	6963.87	64.9572	6963.87	62.181	6963.87	64.7181	6963.87	61.7951	6963.87	63.1932	6963.87	60.2447
7209.96	85.3657	7209.96	85.6964	7209.96	85.3929	7209.96	85.2366	7209.96	85.3225	7209.96	84.2771	7209.96	84.2032	7209.96	83.5949	7209.96	83.3595	7209.96	82.3144	7209.96	82.293	7209.96	80.5316	7209.96	80.4014	7209.96	77.4573	7209.96	77.9513	7209.96	74.2872	7209.96	74.8907	7209.96	70.973	7209.96	71.5122	7209.96	68.6521	7209.96	68.2133	7209.96	65.9587	7209.96	66.3359	7209.96	62.5218	7209.96	63.6288	7209.96	62.467	7209.96	59.6411	7209.96	61.8557	7209.96	61.9867	7209.96	63.7222	7209.96	64.5728	7209.96	64.1135	7209.96	64.1855	7209.96	59.205	7209.96	60.8438	7209.96	59.3397
7464.84	85.8342	7464.84	86.2175	7464.84	85.971	7464.84	85.8395	7464.84	85.8208	7464.84	84.6024	7464.84	84.558	7464.84	83.7949	7464.84	83.4277	7464.84	82.4091	7464.84	82.298	7464.84	80.3932	7464.84	80.3994	7464.84	77.4631	7464.84	77.8908	7464.84	74.231	7464.84	74.8019	7464.84	70.7655	7464.84	71.0388	7464.84	68.802	7464.84	67.9928	7464.84	65.6516	7464.84	65.4724	7464.84	62.0305	7464.84	62.8357	7464.84	60.7328	7464.84	60.251	7464.84	62.0403	7464.84	61.2121	7464.84	63.0372	7464.84	63.9738	7464.84	64.015	7464.84	64.0613	7464.84	58.1989	7464.84	59.0039	7464.84	60.6758
7727.05	86.1674	7727.05	86.6002	7727.05	86.1661	7727.05	86.1125	7727.05	86.1344	7727.05	84.7715	7727.05	84.6606	7727.05	83.8096	7727.05	83.3845	7727.05	82.4031	7727.05	82.2221	7727.05	80.1734	7727.05	80.0108	7727.05	77.2997	7727.05	77.4401	7727.05	73.743	7727.05	73.9898	7727.05	70.7442	7727.05	70.1739	7727.05	68.3038	7727.05	67.2004	7727.05	65.4556	7727.05	64.897	7727.05	62.0385	7727.05	61.381	7727.05	59.8099	7727.05	59.1164	7727.05	61.8729	7727.05	61.2288	7727.05	62.5482	7727.05	62.9376	7727.05	63.1571	7727.05	62.7646	7727.05	56.0903	7727.05	57.6537	7727.05	60.912
7999.51	86.16	7999.51	86.7897	7999.51	86.3918	7999.51	86.2418	7999.51	86.2582	7999.51	84.8205	7999.51	84.5255	7999.51	83.6755	7999.51	83.229	7999.51	82.2035	7999.51	81.9308	7999.51	79.967	7999.51	79.5732	7999.51	76.8352	7999.51	76.8213	7999.51	73.4658	7999.51	73.4079	7999.51	70.6781	7999.51	69.6735	7999.51	68.0737	7999.51	66.7538	7999.51	65.5892	7999.51	63.9137	7999.51	62.4038	7999.51	60.9022	7999.51	59.0998	7999.51	59.8078	7999.51	61.3328	7999.51	61.1585	7999.51	61.9041	7999.51	61.6302	7999.51	63.2012	7999.51	62.5469	7999.51	56.6987	7999.51	57.934	7999.51	58.5094
8282.23	86.4647	8282.23	86.9074	8282.23	86.5438	8282.23	86.3993	8282.23	86.2498	8282.23	84.7783	8282.23	84.5222	8282.23	83.6819	8282.23	82.9786	8282.23	82.0381	8282.23	81.6872	8282.23	79.8153	8282.23	79.3474	8282.23	76.7029	8282.23	76.5357	8282.23	73.2796	8282.23	73.0511	8282.23	70.5076	8282.23	69.5261	8282.23	67.8451	8282.23	66.5881	8282.23	65.3558	8282.23	63.5684	8282.23	61.008	8282.23	60.7655	8282.23	59.3135	8282.23	59.6871	8282.23	60.2012	8282.23	61.0645	8282.23	61.2966	8282.23	61.4222	8282.23	62.9462	8282.23	62.4903	8282.23	56.8754	8282.23	56.5593	8282.23	57.8688
8573.73	86.7508	8573.73	87.0264	8573.73	86.7085	8573.73	86.4587	8573.73	86.3057	8573.73	84.8727	8573.73	84.5711	8573.73	83.6591	8573.73	82.919	8573.73	81.9105	8573.73	81.4954	8573.73	79.5652	8573.73	79.0034	8573.73	76.3208	8573.73	76.1583	8573.73	72.7795	8573.73	72.3629	8573.73	69.7003	8573.73	68.9397	8573.73	67.0704	8573.73	65.8322	8573.73	64.4653	8573.73	62.4104	8573.73	60.5412	8573.73	59.991	8573.73	59.1153	8573.73	59.3657	8573.73	59.218	8573.73	60.3593	8573.73	61.6299	8573.73	60.6249	8573.73	62.6739	8573.73	61.9776	8573.73	56.7948	8573.73	55.1814	8573.73	56.9143
8876.95	87.0602	8876.95	87.2377	8876.95	87.0141	8876.95	86.5916	8876.95	86.4058	8876.95	85.0156	8876.95	84.8675	8876.95	83.6432	8876.95	82.9898	8876.95	81.6839	8876.95	81.2643	8876.95	79.0657	8876.95	78.3832	8876.95	75.7337	8876.95	75.4178	8876.95	72.2704	8876.95	71.5385	8876.95	69.2266	8876.95	67.8981	8876.95	66.5176	8876.95	65.1639	8876.95	63.8855	8876.95	61.5226	8876.95	60.5334	8876.95	59.4454	8876.95	57.633	8876.95	58.6119	8876.95	59.1298	8876.95	59.1195	8876.95	60.88	8876.95	59.5937	8876.95	61.3355	8876.95	60.3384	8876.95	57.0596	8876.95	55.0881	8876.95	54.1938
9188.96	87.616	9188.96	87.5589	9188.96	87.4488	9188.96	86.8503	9188.96	86.7299	9188.96	85.2175	9188.96	85.2295	9188.96	83.5553	9188.96	83.0394	9188.96	81.3941	9188.96	80.9358	9188.96	78.7579	9188.96	77.9862	9188.96	75.3325	9188.96	75.025	9188.96	72.0515	9188.96	70.9864	9188.96	68.9331	9188.96	67.3424	9188.96	65.9728	9188.96	64.6871	9188.96	63.0956	9188.96	60.8772	9188.96	60.1527	9188.96	59.4955	9188.96	58.1601	9188.96	58.0001	9188.96	58.3183	9188.96	58.2734	9188.96	59.7432	9188.96	58.1004	9188.96	60.3925	9188.96	59.6326	9188.96	58.6127	9188.96	55.1084	9188.96	50.3522
9514.16	88.1811	9514.16	88.0345	9514.16	87.8967	9514.16	87.2742	9514.16	87.0112	9514.16	85.5448	9514.16	85.4635	9514.16	83.5674	9514.16	83.0527	9514.16	81.2006	9514.16	80.742	9514.16	78.366	9514.16	77.8864	9514.16	74.6475	9514.16	74.6776	9514.16	71.4388	9514.16	70.5384	9514.16	68.4524	9514.16	67.2824	9514.16	64.9803	9514.16	64.0586	9514.16	62.0537	9514.16	59.549	9514.16	59.0394	9514.16	59.2545	9514.16	57.4197	9514.16	57.7943	9514.16	58.1811	9514.16	57.0642	9514.16	59.308	9514.16	57.9723	9514.16	59.5646	9514.16	57.9211	9514.16	57.6767	9514.16	53.4235	9514.16	49.2991
9849.61	88.9169	9849.61	88.5653	9849.61	88.5579	9849.61	87.6069	9849.61	87.581	9849.61	85.732	9849.61	85.8435	9849.61	83.5902	9849.61	83.2284	9849.61	80.9498	9849.61	80.6044	9849.61	77.9625	9849.61	77.5389	9849.61	74.1223	9849.61	74.0019	9849.61	70.3967	9849.61	69.8234	9849.61	66.9969	9849.61	66.3843	9849.61	64.1707	9849.61	62.7465	9849.61	60.6823	9849.61	58.5175	9849.61	58.351	9849.61	58.3915	9849.61	56.3346	9849.61	57.1866	9849.61	57.1904	9849.61	56.2183	9849.61	58.6401	9849.61	57.6295	9849.61	57.192	9849.61	54.4118	9849.61	55.9951	9849.61	52.647	9849.61	49.4878
10196.8	89.5138	10196.8	89.1221	10196.8	89.094	10196.8	88.0844	10196.8	88.02	10196.8	86.1212	10196.8	86.2997	10196.8	83.5305	10196.8	83.1235	10196.8	80.0616	10196.8	79.8297	10196.8	76.4858	10196.8	75.7137	10196.8	72.2659	10196.8	71.6465	10196.8	68.2161	10196.8	66.7884	10196.8	64.5477	10196.8	61.9288	10196.8	61.9621	10196.8	58.6576	10196.8	58.2839	10196.8	56.1258	10196.8	56.7106	10196.8	54.8405	10196.8	54.5431	10196.8	54.1462	10196.8	54.1263	10196.8	52.0004	10196.8	57.5257	10196.8	54.4261	10196.8	52.7989	10196.8	48.3916	10196.8	51.5749	10196.8	47.6748	10196.8	51.027
10555.7	89.7198	10555.7	89.4432	10555.7	89.4381	10555.7	88.2519	10555.7	88.1604	10555.7	86.0195	10555.7	86.2241	10555.7	82.958	10555.7	82.4062	10555.7	78.8395	10555.7	78.4996	10555.7	74.6836	10555.7	73.8176	10555.7	69.6563	10555.7	69.1846	10555.7	65.7639	10555.7	62.3171	10555.7	62.0207	10555.7	55.9322	10555.7	59.7202	10555.7	56.2016	10555.7	55.119	10555.7	53.232	10555.7	55.389	10555.7	52.4752	10555.7	51.8175	10555.7	52.8576	10555.7	50.4407	10555.7	47.3734	10555.7	55.937	10555.7	51.9567	10555.7	50.782	10555.7	46.2202	10555.7	48.195	10555.7	45.6179	10555.7	51.3633
10927.7	89.7159	10927.7	89.3247	10927.7	89.4234	10927.7	87.8585	10927.7	88.1647	10927.7	85.4813	10927.7	85.6507	10927.7	81.9383	10927.7	81.8754	10927.7	77.9281	10927.7	76.8378	10927.7	72.6173	10927.7	70.3195	10927.7	67.6676	10927.7	61.454	10927.7	64.3331	10927.7	59.4856	10927.7	62.496	10927.7	60.7499	10927.7	60.5198	10927.7	57.361	10927.7	55.2932	10927.7	55.652	10927.7	55.8101	10927.7	50.7173	10927.7	48.4292	10927.7	47.2172	10927.7	49.0415	10927.7	42.001	10927.7	52.8351	10927.7	50.5146	10927.7	54.8351	10927.7	49.1491	10927.7	45.4289	10927.7	49.6966	10927.7	51.7379
11313	89.3722	11313	89.0445	11313	88.8206	11313	87.4485	11313	87.9544	11313	84.9858	11313	85.1175	11313	80.8988	11313	80.7134	11313	76.0331	11313	74.6553	11313	70.742	11313	67.5774	11313	68.4686	11313	66.2643	11313	65.4861	11313	64.7879	11313	63.5046	11313	61.1847	11313	59.7383	11313	60.0637	11313	58.624	11313	58.1204	11313	58.1636	11313	55.8554	11313	49.4583	11313	52.5529	11313	50.9842	11313	45.2953	11313	53.6003	11313	40.7518	11313	56.6939	11313	55.0171	11313	49.0578	11313	53.4495	11313	51.1296
11712.9	88.7651	11712.9	88.2613	11712.9	88.4907	11712.9	87.0387	11712.9	87.4532	11712.9	84.3009	11712.9	84.6549	11712.9	80.467	11712.9	79.102	11712.9	75.7484	11712.9	73.013	11712.9	73.0509	11712.9	71.4441	11712.9	71.1477	11712.9	71.0265	11712.9	69.4041	11712.9	68.446	11712.9	66.6822	11712.9	67.3714	11712.9	64.3569	11712.9	63.9661	11712.9	61.8717	11712.9	61.7756	11712.9	57.8526	11712.9	58.2457	11712.9	54.6975	11712.9	53.6949	11712.9	49.0664	11712.9	48.5442	11712.9	55.2171	11712.9	49.037	11712.9	56.4708	11712.9	57.3257	11712.9	48.5317	11712.9	52.2722	11712.9	55.7123
12126	88.6429	12126	87.6318	12126	88.0882	12126	86.8054	12126	86.8008	12126	83.7564	12126	84.1956	12126	80.1208	12126	79.5219	12126	78.1326	12126	76.0541	12126	76.053	12126	75.3264	12126	75.3357	12126	74.7211	12126	72.6343	12126	72.3385	12126	69.6297	12126	70.2939	12126	66.6714	12126	66.67	12126	63.3951	12126	63.4496	12126	60.462	12126	59.7449	12126	59.023	12126	53.2982	12126	52.0012	12126	52.4491	12126	54.7714	12126	51.1864	12126	59.2926	12126	59.8951	12126	47.2582	12126	50.7311	12126	57.7792
12553.7	88.0197	12553.7	87.2431	12553.7	87.1763	12553.7	86.0702	12553.7	86.4845	12553.7	83.8088	12553.7	84.2543	12553.7	81.6277	12553.7	80.0889	12553.7	79.7245	12553.7	78.3334	12553.7	78.8359	12553.7	78.3282	12553.7	77.8984	12553.7	77.233	12553.7	74.27	12553.7	74.7891	12553.7	71.0447	12553.7	70.2087	12553.7	68.1614	12553.7	67.8996	12553.7	65.3755	12553.7	63.2814	12553.7	62.7662	12553.7	62.8395	12553.7	60.6544	12553.7	57.9403	12553.7	55.314	12553.7	56.2439	12553.7	57.082	12553.7	49.9489	12553.7	61.2354	12553.7	60.0722	12553.7	50.8386	12553.7	52.3692	12553.7	58.4479
12996.1	87.454	12996.1	86.578	12996.1	86.8769	12996.1	85.754	12996.1	85.718	12996.1	84.3774	12996.1	84.3899	12996.1	83.4872	12996.1	82.2893	12996.1	82.0914	12996.1	80.8326	12996.1	81.6552	12996.1	81.0227	12996.1	79.8374	12996.1	79.7321	12996.1	75.8257	12996.1	75.5254	12996.1	72.5593	12996.1	72.6743	12996.1	69.6648	12996.1	68.9619	12996.1	65.8815	12996.1	63.9965	12996.1	64.2856	12996.1	64.6122	12996.1	61.3891	12996.1	60.4171	12996.1	54.9561	12996.1	58.4128	12996.1	59.2457	12996.1	52.9734	12996.1	62.1402	12996.1	60.9142	12996.1	55.2944	12996.1	52.2464	12996.1	59.0055
13454.6	87.0355	13454.6	87.0888	13454.6	87.4168	13454.6	85.7767	13454.6	85.4537	13454.6	85.7846	13454.6	85.2938	13454.6	85.4487	13454.6	84.7513	13454.6	85.1124	13454.6	83.9117	13454.6	83.8249	13454.6	83.4114	13454.6	81.4088	13454.6	81.3069	13454.6	76.923	13454.6	76.764	13454.6	74.1584	13454.6	73.795	13454.6	71.0498	13454.6	70.1308	13454.6	67.6553	13454.6	65.4171	13454.6	65.4028	13454.6	65.8108	13454.6	62.8372	13454.6	61.1833	13454.6	54.0636	13454.6	59.9576	13454.6	59.5013	13454.6	53.4403	13454.6	61.897	13454.6	62.0258	13454.6	56.7914	13454.6	54.749	13454.6	57.9882
13929.2	87.3259	13929.2	88.3663	13929.2	87.6906	13929.2	86.6687	13929.2	86.5271	13929.2	87.8505	13929.2	86.7389	13929.2	87.5833	13929.2	86.6355	13929.2	87.1171	13929.2	86.1671	13929.2	85.3629	13929.2	85.1212	13929.2	83.0775	13929.2	82.1527	13929.2	78.984	13929.2	78.2191	13929.2	75.9582	13929.2	74.7369	13929.2	73.0077	13929.2	71.8286	13929.2	68.7713	13929.2	68.0411	13929.2	67.142	13929.2	67.1741	13929.2	63.9284	13929.2	63.3716	13929.2	53.9865	13929.2	62.3868	13929.2	59.6151	13929.2	55.962	13929.2	63.6535	13929.2	62.7528	13929.2	59.0299	13929.2	56.3193	13929.2	59.5794
14419.9	88.7889	14419.9	89.4258	14419.9	89.2557	14419.9	88.7225	14419.9	88.27	14419.9	89.2339	14419.9	88.2862	14419.9	89.0805	14419.9	88.6764	14419.9	88.5341	14419.9	87.7501	14419.9	86.4439	14419.9	86.2436	14419.9	84.4512	14419.9	83.3763	14419.9	80.6341	14419.9	79.7597	14419.9	76.9922	14419.9	76.3433	14419.9	73.9087	14419.9	72.5182	14419.9	69.2687	14419.9	68.9119	14419.9	68.8252	14419.9	68.5576	14419.9	64.5325	14419.9	65.0931	14419.9	52.1706	14419.9	64.5719	14419.9	61.408	14419.9	58.162	14419.9	64.1994	14419.9	63.2806	14419.9	59.269	14419.9	55.4183	14419.9	60.7791
14928.2	89.8621	14928.2	89.9678	14928.2	89.6175	14928.2	89.0987	14928.2	89.3155	14928.2	88.6155	14928.2	88.1367	14928.2	88.685	14928.2	88.2513	14928.2	87.5153	14928.2	87.2218	14928.2	85.5457	14928.2	85.4493	14928.2	83.5018	14928.2	82.3029	14928.2	78.902	14928.2	78.6925	14928.2	75.6698	14928.2	74.7477	14928.2	71.1208	14928.2	70.4697	14928.2	67.3703	14928.2	68.0328	14928.2	67.1842	14928.2	67.0316	14928.2	61.7113	14928.2	63.7142	14928.2	45.0841	14928.2	63.2667	14928.2	60.032	14928.2	56.9965	14928.2	63.0534	14928.2	61.0473	14928.2	57.8947	14928.2	56.0808	14928.2	58.9213
15455.6	89.3902	15455.6	88.7675	15455.6	88.9915	15455.6	87.8567	15455.6	88.3	15455.6	86.3202	15455.6	86.3739	15455.6	85.9167	15455.6	85.5905	15455.6	84.0184	15455.6	84.0845	15455.6	82.0274	15455.6	81.9811	15455.6	79.3096	15455.6	78.4637	15455.6	74.2486	15455.6	74	15455.6	70.9031	15455.6	69.5438	15455.6	65.5266	15455.6	65.3217	15455.6	64.0516	15455.6	64.1789	15455.6	62.8129	15455.6	62.4162	15455.6	56.3064	15455.6	59.5184	15455.6	43.6235	15455.6	58.5105	15455.6	54.0541	15455.6	52.9531	15455.6	59.7898	15455.6	56.6491	15455.6	52.265	15455.6	53.9381	15455.6	55.1486
16000.5	87.7528	16000.5	87.1106	16000.5	87.4901	16000.5	85.3373	16000.5	86.4044	16000.5	83.2014	16000.5	83.736	16000.5	81.7985	16000.5	82.0911	16000.5	79.7087	16000.5	79.8427	16000.5	77.3271	16000.5	77.3245	16000.5	74.2001	16000.5	72.5809	16000.5	69.4332	16000.5	67.6845	16000.5	65.979	16000.5	63.6183	16000.5	61.6033	16000.5	59.877	16000.5	58.8833	16000.5	57.978	16000.5	56.3222	16000.5	56.6931	16000.5	52.5701	16000.5	54.9715	16000.5	45.1782	16000.5	52.9937	16000.5	50.7981	16000.5	46.9107	16000.5	55.6242	16000.5	51.5927	16000.5	45.9683	16000.5	48.6481	16000.5	52.2939
16564.5	86.5598	16564.5	85.9351	16564.5	86.3303	16564.5	83.7633	16564.5	84.8397	16564.5	80.7646	16564.5	81.687	16564.5	78.1377	16564.5	78.749	16564.5	75.4972	16564.5	75.2619	16564.5	73.09	16564.5	72.0027	16564.5	71.0629	16564.5	67.057	16564.5	66.4162	16564.5	62.9873	16564.5	62.7423	16564.5	59.9032	16564.5	58.153	16564.5	54.9303	16564.5	53.8544	16564.5	53.7493	16564.5	51.576	16564.5	52.4564	16564.5	48.6329	16564.5	50.8314	16564.5	34.1914	16564.5	48.6176	16564.5	45.0111	16564.5	40.7203	16564.5	52.1575	16564.5	43.2914	16564.5	46.7547	16564.5	49.9193	16564.5	45.9466
17148.9	85.5122	17148.9	84.85	17148.9	85.1954	17148.9	82.663	17148.9	83.477	17148.9	78.818	17148.9	79.6587	17148.9	74.819	17148.9	74.9954	17148.9	71.6857	17148.9	71.1586	17148.9	69.7398	17148.9	68.2035	17148.9	69.3436	17148.9	64.6145	17148.9	64.7392	17148.9	60.4918	17148.9	60.4706	17148.9	55.9887	17148.9	56.4848	17148.9	51.8673	17148.9	52.5238	17148.9	50.8049	17148.9	49.1485	17148.9	50.9814	17148.9	46.0281	17148.9	47.7688	17148.9	37.1444	17148.9	45.9454	17148.9	43.1014	17148.9	37.101	17148.9	48.7382	17148.9	38.6188	17148.9	44.6509	17148.9	47.045	17148.9	39.9737
17752.4	84.4149	17752.4	83.8459	17752.4	83.845	17752.4	81.4818	17752.4	81.4867	17752.4	76.9537	17752.4	76.6786	17752.4	71.2069	17752.4	69.8934	17752.4	67.9289	17752.4	67.3156	17752.4	68.2279	17752.4	65.8978	17752.4	68.1396	17752.4	63.2563	17752.4	63.1106	17752.4	59.807	17752.4	59.1279	17752.4	54.4695	17752.4	55.8692	17752.4	51.9112	17752.4	51.911	17752.4	49.5863	17752.4	47.2486	17752.4	49.1668	17752.4	40.0867	17752.4	42.5264	17752.4	41.3623	17752.4	41.866	17752.4	42.4719	17752.4	33.479	17752.4	46.918	17752.4	37.6854	17752.4	47.1647	17752.4	42.5911	17752.4	39.4302
18379.4	83.159	18379.4	82.6212	18379.4	82.2649	18379.4	80.2681	18379.4	79.2211	18379.4	76.0074	18379.4	72.3206	18379.4	66.9769	18379.4	58.4108	18379.4	64.9326	18379.4	66.1561	18379.4	67.5305	18379.4	65.5771	18379.4	67.7389	18379.4	63.0262	18379.4	63.1865	18379.4	58.9339	18379.4	59.5832	18379.4	52.8865	18379.4	55.9966	18379.4	51.3878	18379.4	52.6999	18379.4	48.3853	18379.4	47.2268	18379.4	47.5931	18379.4	41.5089	18379.4	37.9679	18379.4	39.1068	18379.4	39.9669	18379.4	38.5079	18379.4	33.0351	18379.4	40.5589	18379.4	33.2796	18379.4	45.3077	18379.4	36.7297	18379.4	43.4228
19026.9	81.8046	19026.9	81.5182	19026.9	80.5528	19026.9	79.5231	19026.9	76.6268	19026.9	75.8092	19026.9	66.1079	19026.9	65.2643	19026.9	63.4311	19026.9	64.505	19026.9	68.007	19026.9	68.3439	19026.9	65.4797	19026.9	68.9889	19026.9	60.1728	19026.9	64.6315	19026.9	53.917	19026.9	60.612	19026.9	46.6333	19026.9	57.776	19026.9	48.088	19026.9	54.315	19026.9	43.6499	19026.9	48.7376	19026.9	42.6555	19026.9	45.9828	19026.9	35.238	19026.9	26.1887	19026.9	37.8298	19026.9	30.1159	19026.9	29.4172	19026.9	25.8232	19026.9	35.6365	19026.9	43.552	19026.9	40.62	19026.9	40.2923
19697.8	80.6068	19697.8	81.0081	19697.8	78.8954	19697.8	79.5502	19697.8	74.9222	19697.8	75.5646	19697.8	70.9156	19697.8	58.2717	19697.8	71.7605	19697.8	67.4001	19697.8	68.5382	19697.8	70.2053	19697.8	63.312	19697.8	70.6213	19697.8	52.7163	19697.8	65.3825	19697.8	52.3837	19697.8	61.362	19697.8	51.2609	19697.8	58.9967	19697.8	45.4406	19697.8	56.0053	19697.8	46.0248	19697.8	50.6804	19697.8	40.6967	19697.8	48.0297	19697.8	39.966	19697.8	26.4505	19697.8	40.1323	19697.8	36.9916	19697.8	26.2537	19697.8	24.3606	19697.8	35.5479	19697.8	38.5809	19697.8	42.8883	19697.8	46.1595
19999.5	80.114	19999.5	80.7849	19999.5	78.3707	19999.5	79.7084	19999.5	75.4074	19999.5	76.064	19999.5	73.9828	19999.5	54.0154	19999.5	73.7613	19999.5	68.1907	19999.5	68.1517	19999.5	70.2491	19999.5	61.12	19999.5	71.0407	19999.5	60.3773	19999.5	65.1841	19999.5	59.35	19999.5	61.0616	19999.5	57.6051	19999.5	60.3294	19999.5	49.2659	19999.5	56.5808	19999.5	48.2176	19999.5	50.4489	19999.5	35.5685	19999.5	48.5205	19999.5	45.3119	19999.5	42.98	19999.5	35.0937	19999.5	48.3854	19999.5	38.9988	19999.5	39.4083	19999.5	44.8435	19999.5	41.4042	19999.5	45.4571	19999.5	50.6369
