"SPL Horizontal"
"On-Axis"		"10°"		"-10°"		"20°"		"-20°"		"30°"		"-30°"		"40°"		"-40°"		"50°"		"-50°"		"60°"		"-60°"		"70°"		"-70°"		"80°"		"-80°"		"90°"		"-90°"		"100°"		"-100°"		"110°"		"-110°"		"120°"		"-120°"		"130°"		"-130°"		"140°"		"-140°"		"150°"		"-150°"		"160°"		"-160°"		"170°"		"-170°"		"180°"
"Frequency [Hz]"	"Sound Pessure Level [dB]   [0.3V at 1m]"	"Frequency [Hz]"	"Sound Pessure Level [dB]   [0.3V at 1m]"	"Frequency [Hz]"	"Sound Pessure Level [dB]   [0.3V at 1m]"	"Frequency [Hz]"	"Sound Pessure Level [dB]   [0.3V at 1m]"	"Frequency [Hz]"	"Sound Pessure Level [dB]   [0.3V at 1m]"	"Frequency [Hz]"	"Sound Pessure Level [dB]   [0.3V at 1m]"	"Frequency [Hz]"	"Sound Pessure Level [dB]   [0.3V at 1m]"	"Frequency [Hz]"	"Sound Pessure Level [dB]   [0.3V at 1m]"	"Frequency [Hz]"	"Sound Pessure Level [dB]   [0.3V at 1m]"	"Frequency [Hz]"	"Sound Pessure Level [dB]   [0.3V at 1m]"	"Frequency [Hz]"	"Sound Pessure Level [dB]   [0.3V at 1m]"	"Frequency [Hz]"	"Sound Pessure Level [dB]   [0.3V at 1m]"	"Frequency [Hz]"	"Sound Pessure Level [dB]   [0.3V at 1m]"	"Frequency [Hz]"	"Sound Pessure Level [dB]   [0.3V at 1m]"	"Frequency [Hz]"	"Sound Pessure Level [dB]   [0.3V at 1m]"	"Frequency [Hz]"	"Sound Pessure Level [dB]   [0.3V at 1m]"	"Frequency [Hz]"	"Sound Pessure Level [dB]   [0.3V at 1m]"	"Frequency [Hz]"	"Sound Pessure Level [dB]   [0.3V at 1m]"	"Frequency [Hz]"	"Sound Pessure Level [dB]   [0.3V at 1m]"	"Frequency [Hz]"	"Sound Pessure Level [dB]   [0.3V at 1m]"	"Frequency [Hz]"	"Sound Pessure Level [dB]   [0.3V at 1m]"	"Frequency [Hz]"	"Sound Pessure Level [dB]   [0.3V at 1m]"	"Frequency [Hz]"	"Sound Pessure Level [dB]   [0.3V at 1m]"	"Frequency [Hz]"	"Sound Pessure Level [dB]   [0.3V at 1m]"	"Frequency [Hz]"	"Sound Pessure Level [dB]   [0.3V at 1m]"	"Frequency [Hz]"	"Sound Pessure Level [dB]   [0.3V at 1m]"	"Frequency [Hz]"	"Sound Pessure Level [dB]   [0.3V at 1m]"	"Frequency [Hz]"	"Sound Pessure Level [dB]   [0.3V at 1m]"	"Frequency [Hz]"	"Sound Pessure Level [dB]   [0.3V at 1m]"	"Frequency [Hz]"	"Sound Pessure Level [dB]   [0.3V at 1m]"	"Frequency [Hz]"	"Sound Pessure Level [dB]   [0.3V at 1m]"	"Frequency [Hz]"	"Sound Pessure Level [dB]   [0.3V at 1m]"	"Frequency [Hz]"	"Sound Pessure Level [dB]   [0.3V at 1m]"	"Frequency [Hz]"	"Sound Pessure Level [dB]   [0.3V at 1m]"	"Frequency [Hz]"	"Sound Pessure Level [dB]   [0.3V at 1m]"	"Frequency [Hz]"	"Sound Pessure Level [dB]   [0.3V at 1m]"
27.832	60.3598	27.832	60.3086	27.832	60.3365	27.832	60.1883	27.832	60.2635	27.832	60.0386	27.832	60.197	27.832	59.9395	27.832	60.2234	27.832	60.0082	27.832	60.4434	27.832	60.3637	27.832	60.9334	27.832	61.0609	27.832	61.7025	27.832	62.0502	27.832	62.6878	27.832	63.2125	27.832	63.7908	27.832	64.4247	27.832	64.9189	27.832	65.596	27.832	66.0032	27.832	66.67	27.832	66.9977	27.832	67.6142	27.832	67.8725	27.832	68.4096	27.832	68.6075	27.832	69.0443	27.832	69.1884	27.832	69.5101	27.832	69.6044	27.832	69.8012	27.832	69.8479	27.832	69.9141
29.2969	64.6023	29.2969	64.5756	29.2969	64.6042	29.2969	64.5323	29.2969	64.5866	29.2969	64.4947	29.2969	64.5681	29.2969	64.4979	29.2969	64.5804	29.2969	64.5865	29.2969	64.6649	29.2969	64.8049	29.2969	64.8652	29.2969	65.1822	29.2969	65.2136	29.2969	65.72	29.2969	65.7182	29.2969	66.3894	29.2969	66.3577	29.2969	67.1414	29.2969	67.088	29.2969	67.9213	29.2969	67.856	29.2969	68.6793	29.2969	68.6111	29.2969	69.3751	29.2969	69.3109	29.2969	69.9784	29.2969	69.9229	29.2969	70.4667	29.2969	70.423	29.2969	70.8239	29.2969	70.7939	29.2969	71.0394	29.2969	71.0241	29.2969	71.1068
30.7617	67.188	30.7617	67.2096	30.7617	67.1327	30.7617	67.2037	30.7617	67.052	30.7617	67.1905	30.7617	66.9692	30.7617	67.2037	30.7617	66.9234	30.7617	67.288	30.7617	66.9663	30.7617	67.4909	30.7617	67.1518	30.7617	67.848	30.7617	67.5177	30.7617	68.3686	30.7617	68.0685	30.7617	69.0299	30.7617	68.7712	30.7617	69.7844	30.7617	69.5687	30.7617	70.5756	30.7617	70.3983	30.7617	71.3502	30.7617	71.2051	30.7617	72.0644	30.7617	71.9464	30.7617	72.6846	30.7617	72.5907	30.7617	73.1866	30.7617	73.1156	30.7617	73.5529	30.7617	73.505	30.7617	73.7722	30.7617	73.748	30.7617	73.8378
32.2266	70.3279	32.2266	70.3359	32.2266	70.2948	32.2266	70.3226	32.2266	70.2435	32.2266	70.3022	32.2266	70.1918	32.2266	70.2993	32.2266	70.1683	32.2266	70.3473	32.2266	70.2101	32.2266	70.4832	32.2266	70.3563	32.2266	70.7392	32.2266	70.6375	32.2266	71.1311	32.2266	71.0638	32.2266	71.6509	32.2266	71.6194	32.2266	72.2682	32.2266	72.267	32.2266	72.9386	32.2266	72.9585	32.2266	73.6147	32.2266	73.6461	32.2266	74.2535	32.2266	74.2886	32.2266	74.82	32.2266	74.853	32.2266	75.2871	32.2266	75.3144	32.2266	75.6355	32.2266	75.6546	32.2266	75.8517	32.2266	75.8615	32.2266	75.9279
33.6914	72.6462	33.6914	72.6249	33.6914	72.6442	33.6914	72.5837	33.6914	72.625	33.6914	72.5366	33.6914	72.6047	33.6914	72.5073	33.6914	72.6085	33.6914	72.5289	33.6914	72.6689	33.6914	72.6385	33.6914	72.8197	33.6914	72.869	33.6914	73.088	33.6914	73.2373	33.6914	73.4838	33.6914	73.7369	33.6914	73.9956	33.6914	74.3383	33.6914	74.5928	33.6914	74.9973	33.6914	75.2337	33.6914	75.6663	33.6914	75.8749	33.6914	76.3018	33.6914	76.4772	33.6914	76.8684	33.6914	77.0082	33.6914	77.3386	33.6914	77.4425	33.6914	77.6925	33.6914	77.7612	33.6914	77.9168	33.6914	77.951	33.6914	78.0038
35.1562	74.6174	35.1562	74.6018	35.1562	74.6055	35.1562	74.5607	35.1562	74.5742	35.1562	74.5064	35.1562	74.5409	35.1562	74.4616	35.1562	74.533	35.1562	74.4592	35.1562	74.5844	35.1562	74.5387	35.1562	74.7309	35.1562	74.7369	35.1562	74.9999	35.1562	75.077	35.1562	75.4012	35.1562	75.5573	35.1562	75.9215	35.1562	76.1508	35.1562	76.528	35.1562	76.8125	35.1562	77.1772	35.1562	77.4923	35.1562	77.8246	35.1562	78.1436	35.1562	78.4302	35.1562	78.7281	35.1562	78.9616	35.1562	79.2166	35.1562	79.3931	35.1562	79.5881	35.1562	79.7061	35.1562	79.8282	35.1562	79.8872	35.1562	79.9288
36.6211	76.3654	36.6211	76.3258	36.6211	76.4081	36.6211	76.2967	36.6211	76.4541	36.6211	76.2929	36.6211	76.5104	36.6211	76.3346	36.6211	76.5904	36.6211	76.4452	36.6211	76.7122	36.6211	76.6462	36.6211	76.8949	36.6211	76.9505	36.6211	77.1548	36.6211	77.3581	36.6211	77.5001	36.6211	77.8539	36.6211	77.9272	36.6211	78.4109	36.6211	78.4202	36.6211	78.9957	36.6211	78.9539	36.6211	79.5737	36.6211	79.4977	36.6211	80.1132	36.6211	80.0205	36.6211	80.5872	36.6211	80.4936	36.6211	80.9737	36.6211	80.8923	36.6211	81.2563	36.6211	81.1966	36.6211	81.4235	36.6211	81.3921	36.6211	81.4691
38.0859	79.088	38.0859	79.0929	38.0859	79.0758	38.0859	79.0957	38.0859	79.0572	38.0859	79.1069	38.0859	79.0394	38.0859	79.142	38.0859	79.0351	38.0859	79.2196	38.0859	79.0626	38.0859	79.3585	38.0859	79.1431	38.0859	79.5735	38.0859	79.297	38.0859	79.871	38.0859	79.5387	38.0859	80.2465	38.0859	79.8718	38.0859	80.684	38.0859	80.2863	38.0859	81.1587	38.0859	80.76	38.0859	81.641	38.0859	81.2627	38.0859	82.101	38.0859	81.7612	38.0859	82.5106	38.0859	82.2237	38.0859	82.8459	38.0859	82.6225	38.0859	83.0878	38.0859	82.9352	38.0859	83.2227	38.0859	83.1453	38.0859	83.2425
39.5508	80.7247	39.5508	80.7459	39.5508	80.6947	39.5508	80.7601	39.5508	80.6603	39.5508	80.7744	39.5508	80.6311	39.5508	80.8013	39.5508	80.6227	39.5508	80.8571	39.5508	80.6546	39.5508	80.9607	39.5508	80.7483	39.5508	81.1298	39.5508	80.9225	39.5508	81.3764	39.5508	81.1879	39.5508	81.7031	39.5508	81.5432	39.5508	82.1005	39.5508	81.974	39.5508	82.5485	39.5508	82.4549	39.5508	83.0191	39.5508	82.9542	39.5508	83.4816	39.5508	83.4394	39.5508	83.9056	39.5508	83.88	39.5508	84.2646	39.5508	84.2502	39.5508	84.5368	39.5508	84.5294	39.5508	84.7062	39.5508	84.7032	39.5508	84.7629
41.0156	82.5391	41.0156	82.5353	41.0156	82.539	41.0156	82.5308	41.0156	82.5373	41.0156	82.5332	41.0156	82.5408	41.0156	82.5548	41.0156	82.5611	41.0156	82.611	41.0156	82.6131	41.0156	82.7185	41.0156	82.7137	41.0156	82.8921	41.0156	82.8781	41.0156	83.1406	41.0156	83.1163	41.0156	83.464	41.0156	83.4295	41.0156	83.8513	41.0156	83.8086	41.0156	84.2827	41.0156	84.2344	41.0156	84.7317	41.0156	84.6815	41.0156	85.1698	41.0156	85.1212	41.0156	85.5692	41.0156	85.5257	41.0156	85.9052	41.0156	85.8697	41.0156	86.1579	41.0156	86.1329	41.0156	86.3127	41.0156	86.2998	41.0156	86.3609
42.4805	84.153	42.4805	84.1477	42.4805	84.1574	42.4805	84.1444	42.4805	84.1623	42.4805	84.1502	42.4805	84.1736	42.4805	84.1761	42.4805	84.2011	42.4805	84.2359	42.4805	84.2577	42.4805	84.3442	42.4805	84.358	42.4805	84.514	42.4805	84.5156	42.4805	84.7528	42.4805	84.7396	42.4805	85.0603	42.4805	85.0319	42.4805	85.4269	42.4805	85.385	42.4805	85.8344	42.4805	85.7827	42.4805	86.2588	42.4805	86.2019	42.4805	86.6732	42.4805	86.6164	42.4805	87.0515	42.4805	86.9995	42.4805	87.37	42.4805	87.327	42.4805	87.6094	42.4805	87.5788	42.4805	87.7554	42.4805	87.7395	42.4805	87.7996
43.9453	85.7702	43.9453	85.7756	43.9453	85.7677	43.9453	85.7864	43.9453	85.7695	43.9453	85.8089	43.9453	85.7804	43.9453	85.852	43.9453	85.8087	43.9453	85.9272	43.9453	85.8657	43.9453	86.046	43.9453	85.9637	43.9453	86.2185	43.9453	86.1143	43.9453	86.4504	43.9453	86.3257	43.9453	86.7408	43.9453	86.5995	43.9453	87.0812	43.9453	86.9296	43.9453	87.456	43.9453	87.3018	43.9453	87.8443	43.9453	87.6958	43.9453	88.2228	43.9453	88.0874	43.9453	88.5675	43.9453	88.4518	43.9453	88.8569	43.9453	88.7658	43.9453	89.0726	43.9453	89.0099	43.9453	89.2011	43.9453	89.1691	43.9453	89.234
45.4102	87.2468	45.4102	87.2586	45.4102	87.2401	45.4102	87.2772	45.4102	87.2399	45.4102	87.3077	45.4102	87.2507	45.4102	87.3576	45.4102	87.2803	45.4102	87.4362	45.4102	87.3383	45.4102	87.5535	45.4102	87.4358	45.4102	87.7179	45.4102	87.5827	45.4102	87.9346	45.4102	87.7858	45.4102	88.2031	45.4102	88.0462	45.4102	88.5168	45.4102	88.358	45.4102	88.8624	45.4102	88.7083	45.4102	89.2215	45.4102	89.0783	45.4102	89.573	45.4102	89.446	45.4102	89.8947	45.4102	89.7882	45.4102	90.1659	45.4102	90.0832	45.4102	90.369	45.4102	90.3125	45.4102	90.4906	45.4102	90.4619	45.4102	90.5224
46.875	88.7673	46.875	88.7808	46.875	88.7614	46.875	88.803	46.875	88.7644	46.875	88.8376	46.875	88.7803	46.875	88.8903	46.875	88.8151	46.875	88.9683	46.875	88.8767	46.875	89.0793	46.875	88.9733	46.875	89.2299	46.875	89.1125	46.875	89.4243	46.875	89.2993	46.875	89.6625	46.875	89.5341	46.875	89.9394	46.875	89.8123	46.875	90.2445	46.875	90.1231	46.875	90.5628	46.875	90.4513	46.875	90.876	46.875	90.7779	46.875	91.1646	46.875	91.0828	46.875	91.4097	46.875	91.3464	46.875	91.5947	46.875	91.5516	46.875	91.7067	46.875	91.6848	46.875	91.7376
48.3398	90.1317	48.3398	90.1428	48.3398	90.1273	48.3398	90.1617	48.3398	90.1309	48.3398	90.1914	48.3398	90.1459	48.3398	90.2369	48.3398	90.1777	48.3398	90.3045	48.3398	90.2332	48.3398	90.4012	48.3398	90.3198	48.3398	90.533	48.3398	90.4444	48.3398	90.7045	48.3398	90.6117	48.3398	90.9163	48.3398	90.8229	48.3398	91.1648	48.3398	91.0743	48.3398	91.4415	48.3398	91.3571	48.3398	91.733	48.3398	91.6574	48.3398	92.0229	48.3398	91.958	48.3398	92.2926	48.3398	92.2397	48.3398	92.524	48.3398	92.4839	48.3398	92.7004	48.3398	92.6735	48.3398	92.8091	48.3398	92.7956	48.3398	92.8418
51.2695	92.0312	51.2695	92.0378	51.2695	92.0377	51.2695	92.0584	51.2695	92.058	51.2695	92.0953	51.2695	92.0944	51.2695	92.1521	51.2695	92.1504	51.2695	92.2334	51.2695	92.2306	51.2695	92.3439	51.2695	92.3396	51.2695	92.4877	51.2695	92.4812	51.2695	92.6668	51.2695	92.6578	51.2695	92.8809	51.2695	92.869	51.2695	93.1256	51.2695	93.1106	51.2695	93.3928	51.2695	93.3749	51.2695	93.6705	51.2695	93.6504	51.2695	93.944	51.2695	93.9229	51.2695	94.1969	51.2695	94.1766	51.2695	94.4131	51.2695	94.3954	51.2695	94.578	51.2695	94.5649	51.2695	94.6803	51.2695	94.6733	51.2695	94.7127
52.7344	92.9385	52.7344	92.9442	52.7344	92.9466	52.7344	92.9643	52.7344	92.9689	52.7344	93.0006	52.7344	93.0069	52.7344	93.0556	52.7344	93.0631	52.7344	93.1326	52.7344	93.1403	52.7344	93.235	52.7344	93.2418	52.7344	93.3655	52.7344	93.3702	52.7344	93.5257	52.7344	93.5271	52.7344	93.715	52.7344	93.712	52.7344	93.9299	52.7344	93.9221	52.7344	94.1638	52.7344	94.1512	52.7344	94.4068	52.7344	94.3905	52.7344	94.6465	52.7344	94.6279	52.7344	94.8687	52.7344	94.85	52.7344	95.0592	52.7344	95.0426	52.7344	95.2049	52.7344	95.1924	52.7344	95.2952	52.7344	95.2886	52.7344	95.3238
54.1992	93.6882	54.1992	93.6946	54.1992	93.6945	54.1992	93.7142	54.1992	93.7135	54.1992	93.7486	54.1992	93.7462	54.1992	93.7997	54.1992	93.7942	54.1992	93.8699	54.1992	93.8596	54.1992	93.9617	54.1992	93.9449	54.1992	94.077	54.1992	94.0522	54.1992	94.2171	54.1992	94.1834	54.1992	94.3813	54.1992	94.3386	54.1992	94.5669	54.1992	94.5162	54.1992	94.7684	54.1992	94.7119	54.1992	94.9777	54.1992	94.9185	54.1992	95.1842	54.1992	95.1261	54.1992	95.3756	54.1992	95.3228	54.1992	95.5394	54.1992	95.4957	54.1992	95.6636	54.1992	95.6324	54.1992	95.7388	54.1992	95.7226	54.1992	95.759
55.6641	94.2477	55.6641	94.26	55.6641	94.2476	55.6641	94.285	55.6641	94.2601	55.6641	94.3233	55.6641	94.2864	55.6641	94.3765	55.6641	94.328	55.6641	94.4463	55.6641	94.387	55.6641	94.5346	55.6641	94.4656	55.6641	94.6432	55.6641	94.5659	55.6641	94.773	55.6641	94.6893	55.6641	94.9238	55.6641	94.836	55.6641	95.0935	55.6641	95.0043	55.6641	95.2775	55.6641	95.19	55.6641	95.4689	55.6641	95.3862	55.6641	95.6584	55.6641	95.5836	55.6641	95.8348	55.6641	95.7708	55.6641	95.9862	55.6641	95.9357	55.6641	96.1012	55.6641	96.0662	55.6641	96.1706	55.6641	96.1527	55.6641	96.1884
58.5938	94.9872	58.5938	94.9973	58.5938	94.991	58.5938	95.0215	58.5938	95.009	58.5938	95.06	58.5938	95.0415	58.5938	95.1131	58.5938	95.0892	58.5938	95.1816	58.5938	95.1528	58.5938	95.2661	58.5938	95.2329	58.5938	95.3669	58.5938	95.3302	58.5938	95.4842	58.5938	95.4449	58.5938	95.6173	58.5938	95.5764	58.5938	95.7642	58.5938	95.7228	58.5938	95.9215	58.5938	95.8809	58.5938	96.0839	58.5938	96.0453	58.5938	96.2441	58.5938	96.2089	58.5938	96.3933	58.5938	96.3629	58.5938	96.5219	58.5938	96.4977	58.5938	96.6206	58.5938	96.6036	58.5938	96.6814	58.5938	96.6727	58.5938	96.6994
60.0586	95.2622	60.0586	95.2707	60.0586	95.2676	60.0586	95.2932	60.0586	95.2871	60.0586	95.3297	60.0586	95.3207	60.0586	95.3802	60.0586	95.3685	60.0586	95.445	60.0586	95.4308	60.0586	95.5241	60.0586	95.5078	60.0586	95.6177	60.0586	95.5995	60.0586	95.7254	60.0586	95.7058	60.0586	95.8467	60.0586	95.8258	60.0586	95.9797	60.0586	95.958	60.0586	96.1215	60.0586	96.0994	60.0586	96.2676	60.0586	96.2459	60.0586	96.4117	60.0586	96.3911	60.0586	96.5461	60.0586	96.5277	60.0586	96.6623	60.0586	96.6472	60.0586	96.7518	60.0586	96.741	60.0586	96.8075	60.0586	96.8018	60.0586	96.8247
62.9883	95.6267	62.9883	95.6346	62.9883	95.6333	62.9883	95.6568	62.9883	95.6544	62.9883	95.6929	62.9883	95.6895	62.9883	95.7423	62.9883	95.7384	62.9883	95.8044	62.9883	95.8001	62.9883	95.8782	62.9883	95.8741	62.9883	95.9631	62.9883	95.9594	62.9883	96.0582	62.9883	96.0549	62.9883	96.1622	62.9883	96.1595	62.9883	96.2739	62.9883	96.2715	62.9883	96.3907	62.9883	96.3885	62.9883	96.5096	62.9883	96.5073	62.9883	96.626	62.9883	96.6236	62.9883	96.7343	62.9883	96.7317	62.9883	96.828	62.9883	96.8256	62.9883	96.9007	62.9883	96.8988	62.9883	96.9466	62.9883	96.9456	62.9883	96.962
64.4531	95.7708	64.4531	95.7772	64.4531	95.7788	64.4531	95.7977	64.4531	95.8009	64.4531	95.8318	64.4531	95.8368	64.4531	95.8786	64.4531	95.8856	64.4531	95.9372	64.4531	95.9462	64.4531	96.0065	64.4531	96.0175	64.4531	96.0853	64.4531	96.0983	64.4531	96.1726	64.4531	96.1872	64.4531	96.2671	64.4531	96.2827	64.4531	96.3673	64.4531	96.3833	64.4531	96.4714	64.4531	96.4869	64.4531	96.5765	64.4531	96.5907	64.4531	96.6791	64.4531	96.6913	64.4531	96.7744	64.4531	96.7843	64.4531	96.8571	64.4531	96.8644	64.4531	96.9216	64.4531	96.9263	64.4531	96.9629	64.4531	96.9652	64.4531	96.9779
67.3828	96.0341	67.3828	96.0416	67.3828	96.041	67.3828	96.063	67.3828	96.0619	67.3828	96.0975	67.3828	96.0959	67.3828	96.1439	67.3828	96.1418	67.3828	96.2004	67.3828	96.1979	67.3828	96.2654	67.3828	96.2624	67.3828	96.3369	67.3828	96.3332	67.3828	96.4133	67.3828	96.4086	67.3828	96.4929	67.3828	96.4868	67.3828	96.5742	67.3828	96.5665	67.3828	96.6556	67.3828	96.6462	67.3828	96.7353	67.3828	96.7244	67.3828	96.811	67.3828	96.7991	67.3828	96.8797	67.3828	96.8678	67.3828	96.9381	67.3828	96.9274	67.3828	96.9824	67.3828	96.9743	67.3828	97.0094	67.3828	97.0051	67.3828	97.0172
68.8477	96.0913	68.8477	96.1001	68.8477	96.0974	68.8477	96.1234	68.8477	96.1181	68.8477	96.1602	68.8477	96.1524	68.8477	96.2089	68.8477	96.1987	68.8477	96.2673	68.8477	96.2551	68.8477	96.3334	68.8477	96.3192	68.8477	96.4047	68.8477	96.3888	68.8477	96.4792	68.8477	96.4618	68.8477	96.555	68.8477	96.5362	68.8477	96.6305	68.8477	96.6106	68.8477	96.7042	68.8477	96.6836	68.8477	96.7747	68.8477	96.754	68.8477	96.8403	68.8477	96.8204	68.8477	96.899	68.8477	96.8809	68.8477	96.9482	68.8477	96.9331	68.8477	96.9851	68.8477	96.9742	68.8477	97.0071	68.8477	97.0014	68.8477	97.0127
71.7773	96.2007	71.7773	96.2098	71.7773	96.2071	71.7773	96.234	71.7773	96.2286	71.7773	96.2718	71.7773	96.2641	71.7773	96.3213	71.7773	96.3116	71.7773	96.3798	71.7773	96.3686	71.7773	96.4446	71.7773	96.4322	71.7773	96.5128	71.7773	96.4996	71.7773	96.5816	71.7773	96.5681	71.7773	96.649	71.7773	96.6355	71.7773	96.7132	71.7773	96.7	71.7773	96.7729	71.7773	96.7603	71.7773	96.8276	71.7773	96.8157	71.7773	96.8763	71.7773	96.8656	71.7773	96.9186	71.7773	96.9092	71.7773	96.9531	71.7773	96.9456	71.7773	96.9788	71.7773	96.9735	71.7773	96.9943	71.7773	96.9915	71.7773	96.9986
74.707	96.2833	74.707	96.2922	74.707	96.2901	74.707	96.3163	74.707	96.312	74.707	96.3539	74.707	96.3479	74.707	96.4028	74.707	96.3953	74.707	96.46	74.707	96.4515	74.707	96.5222	74.707	96.513	74.707	96.586	74.707	96.5767	74.707	96.6486	74.707	96.6395	74.707	96.7072	74.707	96.6986	74.707	96.7603	74.707	96.7523	74.707	96.8066	74.707	96.7995	74.707	96.8461	74.707	96.8398	74.707	96.8787	74.707	96.8733	74.707	96.905	74.707	96.9005	74.707	96.9254	74.707	96.9218	74.707	96.9398	74.707	96.9373	74.707	96.9483	74.707	96.947	74.707	96.9507
77.6367	96.381	77.6367	96.3888	77.6367	96.3886	77.6367	96.4115	77.6367	96.4111	77.6367	96.4473	77.6367	96.4469	77.6367	96.4938	77.6367	96.4935	77.6367	96.5477	77.6367	96.5475	77.6367	96.6053	77.6367	96.6055	77.6367	96.663	77.6367	96.6637	77.6367	96.7175	77.6367	96.7188	77.6367	96.7659	77.6367	96.7679	77.6367	96.8064	77.6367	96.8091	77.6367	96.8383	77.6367	96.8415	77.6367	96.8617	77.6367	96.8651	77.6367	96.8776	77.6367	96.8811	77.6367	96.8877	77.6367	96.8909	77.6367	96.8937	77.6367	96.8963	77.6367	96.897	77.6367	96.8988	77.6367	96.8987	77.6367	96.8997	77.6367	96.8996
79.1016	96.3981	79.1016	96.4059	79.1016	96.4064	79.1016	96.4292	79.1016	96.4302	79.1016	96.4663	79.1016	96.4678	79.1016	96.5143	79.1016	96.5165	79.1016	96.5699	79.1016	96.573	79.1016	96.6292	79.1016	96.6332	79.1016	96.6883	79.1016	96.6933	79.1016	96.7436	79.1016	96.7496	79.1016	96.792	79.1016	96.7991	79.1016	96.8317	79.1016	96.8397	79.1016	96.8618	79.1016	96.8703	79.1016	96.8826	79.1016	96.8912	79.1016	96.8952	79.1016	96.9034	79.1016	96.9017	79.1016	96.909	79.1016	96.9043	79.1016	96.9102	79.1016	96.9048	79.1016	96.909	79.1016	96.905	79.1016	96.9071	79.1016	96.9056
82.0312	96.438	82.0312	96.4443	82.0312	96.4489	82.0312	96.4671	82.0312	96.4763	82.0312	96.5047	82.0312	96.5184	82.0312	96.5541	82.0312	96.5722	82.0312	96.6116	82.0312	96.6339	82.0312	96.6729	82.0312	96.6992	82.0312	96.7338	82.0312	96.7636	82.0312	96.7901	82.0312	96.823	82.0312	96.8387	82.0312	96.8739	82.0312	96.8772	82.0312	96.9137	82.0312	96.9046	82.0312	96.9414	82.0312	96.9215	82.0312	96.9571	82.0312	96.9293	82.0312	96.9622	82.0312	96.9306	82.0312	96.9593	82.0312	96.9284	82.0312	96.9514	82.0312	96.9257	82.0312	96.9418	82.0312	96.9248	82.0312	96.9331	82.0312	96.9271
84.9609	96.5088	84.9609	96.5139	84.9609	96.5204	84.9609	96.5351	84.9609	96.5478	84.9609	96.5705	84.9609	96.5892	84.9609	96.6173	84.9609	96.6415	84.9609	96.6719	84.9609	96.7008	84.9609	96.7299	84.9609	96.7629	84.9609	96.7869	84.9609	96.8232	84.9609	96.8389	84.9609	96.8775	84.9609	96.8823	84.9609	96.9223	84.9609	96.9149	84.9609	96.9551	84.9609	96.9356	84.9609	96.9748	84.9609	96.9449	84.9609	96.9817	84.9609	96.9446	84.9609	96.9778	84.9609	96.9378	84.9609	96.9661	84.9609	96.928	84.9609	96.9503	84.9609	96.919	84.9609	96.9344	84.9609	96.9139	84.9609	96.9217	84.9609	96.9146
87.8906	96.5363	87.8906	96.5437	87.8906	96.5453	87.8906	96.5668	87.8906	96.5701	87.8906	96.6038	87.8906	96.6089	87.8906	96.6517	87.8906	96.6589	87.8906	96.7066	87.8906	96.7163	87.8906	96.7643	87.8906	96.7767	87.8906	96.8202	87.8906	96.8356	87.8906	96.8702	87.8906	96.8886	87.8906	96.9108	87.8906	96.9322	87.8906	96.9396	87.8906	96.9637	87.8906	96.9557	87.8906	96.9816	87.8906	96.9596	87.8906	96.9865	87.8906	96.9536	87.8906	96.98	87.8906	96.9411	87.8906	96.9653	87.8906	96.9262	87.8906	96.9465	87.8906	96.9132	87.8906	96.9279	87.8906	96.9056	87.8906	96.9133	87.8906	96.9054
90.8203	96.6294	90.8203	96.6378	90.8203	96.6369	90.8203	96.6615	90.8203	96.6597	90.8203	96.6985	90.8203	96.6959	90.8203	96.746	90.8203	96.7425	90.8203	96.7999	90.8203	96.7955	90.8203	96.8557	90.8203	96.8507	90.8203	96.9087	90.8203	96.9032	90.8203	96.9543	90.8203	96.9487	90.8203	96.9888	90.8203	96.9833	90.8203	97.0095	90.8203	97.0045	90.8203	97.0153	90.8203	97.0111	90.8203	97.0069	90.8203	97.0037	90.8203	96.987	90.8203	96.9847	90.8203	96.9598	90.8203	96.9583	90.8203	96.9304	90.8203	96.9296	90.8203	96.9044	90.8203	96.904	90.8203	96.8866	90.8203	96.8864	90.8203	96.8802
95.2148	96.7284	95.2148	96.7332	95.2148	96.7374	95.2148	96.7511	95.2148	96.7593	95.2148	96.7803	95.2148	96.7923	95.2148	96.8181	95.2148	96.8336	95.2148	96.8605	95.2148	96.8793	95.2148	96.9034	95.2148	96.925	95.2148	96.9418	95.2148	96.9659	95.2148	96.9715	95.2148	96.9975	95.2148	96.9884	95.2148	97.016	95.2148	96.9902	95.2148	97.0187	95.2148	96.976	95.2148	97.0046	95.2148	96.9469	95.2148	96.9746	95.2148	96.9064	95.2148	96.9321	95.2148	96.8597	95.2148	96.8822	95.2148	96.8135	95.2148	96.8316	95.2148	96.775	95.2148	96.7877	95.2148	96.7503	95.2148	96.7569	95.2148	96.7438
98.1445	96.7525	98.1445	96.7572	98.1445	96.7608	98.1445	96.7743	98.1445	96.7814	98.1445	96.8021	98.1445	96.8125	98.1445	96.8378	98.1445	96.8511	98.1445	96.8777	98.1445	96.8936	98.1445	96.9172	98.1445	96.9355	98.1445	96.9518	98.1445	96.9721	98.1445	96.9767	98.1445	96.9987	98.1445	96.988	98.1445	97.0114	98.1445	96.9831	98.1445	97.0075	98.1445	96.9612	98.1445	96.986	98.1445	96.9235	98.1445	96.948	98.1445	96.8738	98.1445	96.897	98.1445	96.8179	98.1445	96.8386	98.1445	96.7634	98.1445	96.7803	98.1445	96.7179	98.1445	96.73	98.1445	96.6887	98.1445	96.695	98.1445	96.6806
101.074	96.8187	101.074	96.8208	101.074	96.8283	101.074	96.8341	101.074	96.849	101.074	96.8571	101.074	96.8789	101.074	96.8869	101.074	96.9153	101.074	96.9201	101.074	96.9544	101.074	96.9522	101.074	96.9919	101.074	96.9786	101.074	97.0229	101.074	96.9947	101.074	97.0429	101.074	96.9968	101.074	97.0478	101.074	96.9823	101.074	97.0349	101.074	96.9505	101.074	97.0033	101.074	96.903	101.074	96.9543	101.074	96.8439	101.074	96.8916	101.074	96.7796	101.074	96.8216	101.074	96.7182	101.074	96.7522	101.074	96.6682	101.074	96.6922	101.074	96.6374	101.074	96.6498	101.074	96.6307
105.469	96.8954	105.469	96.8979	105.469	96.9032	105.469	96.91	105.469	96.9206	105.469	96.9303	105.469	96.9458	105.469	96.9558	105.469	96.976	105.469	96.9829	105.469	97.0074	105.469	97.0072	105.469	97.0355	105.469	97.024	105.469	97.0557	105.469	97.0285	105.469	97.0633	105.469	97.0171	105.469	97.0544	105.469	96.9873	105.469	97.0263	105.469	96.9388	105.469	96.9786	105.469	96.8736	105.469	96.9131	105.469	96.7966	105.469	96.8341	105.469	96.7152	105.469	96.7489	105.469	96.6387	105.469	96.6665	105.469	96.5767	105.469	96.5965	105.469	96.5377	105.469	96.5481	105.469	96.5276
108.398	96.8131	108.398	96.8175	108.398	96.8199	108.398	96.8327	108.398	96.8374	108.398	96.8569	108.398	96.8637	108.398	96.8875	108.398	96.8961	108.398	96.9205	108.398	96.9308	108.398	96.9515	108.398	96.9632	108.398	96.9755	108.398	96.9885	108.398	96.9877	108.398	97.002	108.398	96.9839	108.398	96.9995	108.398	96.9614	108.398	96.9782	108.398	96.9194	108.398	96.9373	108.398	96.86	108.398	96.8783	108.398	96.7877	108.398	96.8057	108.398	96.7096	108.398	96.7264	108.398	96.635	108.398	96.6492	108.398	96.5735	108.398	96.5838	108.398	96.5337	108.398	96.5392	108.398	96.5216
112.793	96.7727	112.793	96.7743	112.793	96.7817	112.793	96.7864	112.793	96.8009	112.793	96.8076	112.793	96.8285	112.793	96.8356	112.793	96.862	112.793	96.8672	112.793	96.8979	112.793	96.8981	112.793	96.9319	112.793	96.9236	112.793	96.9593	112.793	96.9388	112.793	96.9753	112.793	96.9394	112.793	96.9755	112.793	96.9223	112.793	96.957	112.793	96.8863	112.793	96.9187	112.793	96.8326	112.793	96.862	112.793	96.7655	112.793	96.7911	112.793	96.6917	112.793	96.7129	112.793	96.6201	112.793	96.6364	112.793	96.5604	112.793	96.5715	112.793	96.5216	112.793	96.5272	112.793	96.5098
117.188	96.8228	117.188	96.8199	117.188	96.8348	117.188	96.8257	117.188	96.8555	117.188	96.8388	117.188	96.8837	117.188	96.8569	117.188	96.9169	117.188	96.877	117.188	96.9518	117.188	96.8953	117.188	96.984	117.188	96.9074	117.188	97.0087	117.188	96.909	117.188	97.0207	117.188	96.8963	117.188	97.0155	117.188	96.8665	117.188	96.9897	117.188	96.819	117.188	96.9418	117.188	96.7555	117.188	96.8733	117.188	96.6807	117.188	96.7885	117.188	96.6018	117.188	96.6949	117.188	96.5282	117.188	96.6022	117.188	96.4699	117.188	96.5213	117.188	96.4362	117.188	96.4625	117.188	96.4331
120.117	96.9025	120.117	96.9047	120.117	96.9089	120.117	96.9148	120.117	96.9236	120.117	96.9315	120.117	96.9454	120.117	96.9527	120.117	96.9723	120.117	96.9751	120.117	97.0012	120.117	96.9949	120.117	97.0283	120.117	97.0079	120.117	97.0488	120.117	97.0095	120.117	97.0581	120.117	96.996	120.117	97.0517	120.117	96.9648	120.117	97.0264	120.117	96.9154	120.117	96.9809	120.117	96.8496	120.117	96.9165	120.117	96.7725	120.117	96.8373	120.117	96.6914	120.117	96.7503	120.117	96.6158	120.117	96.6647	120.117	96.5555	120.117	96.5906	120.117	96.5192	120.117	96.5376	120.117	96.5128
124.512	96.9331	124.512	96.9368	124.512	96.9373	124.512	96.9479	124.512	96.9492	124.512	96.9649	124.512	96.9679	124.512	96.9859	124.512	96.9917	124.512	97.008	124.512	97.0177	124.512	97.0275	124.512	97.0421	124.512	97.0404	124.512	97.0604	124.512	97.0421	124.512	97.068	124.512	97.0289	124.512	97.0603	124.512	96.9981	124.512	97.0341	124.512	96.9488	124.512	96.988	124.512	96.8829	124.512	96.9234	124.512	96.8049	124.512	96.8445	124.512	96.7222	124.512	96.7585	124.512	96.6443	124.512	96.6745	124.512	96.581	124.512	96.6028	124.512	96.5414	124.512	96.5528	124.512	96.5314
128.906	96.9979	128.906	97.0051	128.906	96.995	128.906	97.0162	128.906	96.9963	128.906	97.0301	128.906	97.0012	128.906	97.0451	128.906	97.0084	128.906	97.0589	128.906	97.0157	128.906	97.0684	128.906	97.0202	128.906	97.0699	128.906	97.0182	128.906	97.0596	128.906	97.0059	128.906	97.0339	128.906	96.9795	128.906	96.9904	128.906	96.9363	128.906	96.9283	128.906	96.8756	128.906	96.8492	128.906	96.799	128.906	96.7574	128.906	96.7113	128.906	96.6602	128.906	96.6198	128.906	96.5671	128.906	96.5343	128.906	96.4885	128.906	96.4653	128.906	96.4342	128.906	96.4221	128.906	96.411
133.301	97.1045	133.301	97.1034	133.301	97.1081	133.301	97.1044	133.301	97.1141	133.301	97.1062	133.301	97.1213	133.301	97.1064	133.301	97.1279	133.301	97.1021	133.301	97.1308	133.301	97.0897	133.301	97.1264	133.301	97.0652	133.301	97.1106	133.301	97.0248	133.301	97.0789	133.301	96.9653	133.301	97.0276	133.301	96.8851	133.301	96.9541	133.301	96.7849	133.301	96.8581	133.301	96.6681	133.301	96.7422	133.301	96.5412	133.301	96.6124	133.301	96.4141	133.301	96.4778	133.301	96.2985	133.301	96.3507	133.301	96.207	133.301	96.244	133.301	96.151	133.301	96.1702	133.301	96.138
139.16	96.8329	139.16	96.8344	139.16	96.8388	139.16	96.8428	139.16	96.8518	139.16	96.8568	139.16	96.8709	139.16	96.874	139.16	96.894	139.16	96.8909	139.16	96.9179	139.16	96.9029	139.16	96.9382	139.16	96.9048	139.16	96.9494	139.16	96.891	139.16	96.9458	139.16	96.857	139.16	96.9219	139.16	96.7997	139.16	96.8734	139.16	96.7188	139.16	96.7987	139.16	96.6172	139.16	96.6996	139.16	96.5017	139.16	96.5818	139.16	96.3823	139.16	96.4549	139.16	96.2719	139.16	96.3317	139.16	96.1838	139.16	96.2263	139.16	96.13	139.16	96.1521	139.16	96.1186
143.555	96.7534	143.555	96.7542	143.555	96.7544	143.555	96.7565	143.555	96.7576	143.555	96.7599	143.555	96.7631	143.555	96.7635	143.555	96.771	143.555	96.7656	143.555	96.7804	143.555	96.7633	143.555	96.7891	143.555	96.7528	143.555	96.7937	143.555	96.7297	143.555	96.7896	143.555	96.6901	143.555	96.7717	143.555	96.6316	143.555	96.7352	143.555	96.5541	143.555	96.6771	143.555	96.4607	143.555	96.5974	143.555	96.358	143.555	96.4992	143.555	96.2555	143.555	96.3898	143.555	96.1647	143.555	96.2797	143.555	96.097	143.555	96.1812	143.555	96.0619	143.555	96.1064	143.555	96.0649
147.949	96.8414	147.949	96.8528	147.949	96.8286	147.949	96.8629	147.949	96.8145	147.949	96.8717	147.949	96.7989	147.949	96.8784	147.949	96.7817	147.949	96.8819	147.949	96.7623	147.949	96.8797	147.949	96.74	147.949	96.8689	147.949	96.7132	147.949	96.8458	147.949	96.68	147.949	96.8072	147.949	96.6387	147.949	96.7508	147.949	96.5878	147.949	96.6768	147.949	96.5269	147.949	96.5877	147.949	96.4574	147.949	96.4891	147.949	96.3824	147.949	96.3889	147.949	96.3072	147.949	96.2962	147.949	96.2386	147.949	96.2203	147.949	96.1842	147.949	96.1684	147.949	96.1512	147.949	96.145
153.809	96.7517	153.809	96.7502	153.809	96.7549	153.809	96.7506	153.809	96.7593	153.809	96.752	153.809	96.7638	153.809	96.7529	153.809	96.7661	153.809	96.7506	153.809	96.7631	153.809	96.7412	153.809	96.7504	153.809	96.7198	153.809	96.7228	153.809	96.681	153.809	96.6753	153.809	96.6201	153.809	96.6036	153.809	96.5341	153.809	96.5057	153.809	96.4228	153.809	96.3829	153.809	96.2897	153.809	96.2407	153.809	96.1427	153.809	96.0882	153.809	95.9928	153.809	95.9384	153.809	95.8535	153.809	95.8052	153.809	95.7384	153.809	95.7022	153.809	95.6596	153.809	95.6401	153.809	95.6255
159.668	96.4575	159.668	96.4546	159.668	96.4579	159.668	96.4501	159.668	96.4557	159.668	96.4451	159.668	96.4515	159.668	96.4403	159.668	96.4457	159.668	96.4356	159.668	96.4383	159.668	96.4289	159.668	96.4279	159.668	96.4164	159.668	96.4113	159.668	96.3926	159.668	96.3836	159.668	96.3511	159.668	96.3387	159.668	96.2862	159.668	96.2712	159.668	96.1945	159.668	96.1777	159.668	96.0765	159.668	96.0585	159.668	95.9376	159.668	95.9193	159.668	95.7887	159.668	95.7711	159.668	95.6448	159.668	95.6294	159.668	95.5235	159.668	95.5119	159.668	95.4413	159.668	95.435	159.668	95.4102
165.527	96.3513	165.527	96.3395	165.527	96.3493	165.527	96.3143	165.527	96.3343	165.527	96.2772	165.527	96.3082	165.527	96.2304	165.527	96.2734	165.527	96.1766	165.527	96.2321	165.527	96.118	165.527	96.1862	165.527	96.0561	165.527	96.1361	165.527	95.9912	165.527	96.081	165.527	95.9227	165.527	96.019	165.527	95.8493	165.527	95.9478	165.527	95.7699	165.527	95.8656	165.527	95.6845	165.527	95.772	165.527	95.5947	165.527	95.6698	165.527	95.505	165.527	95.5647	165.527	95.4223	165.527	95.4656	165.527	95.3552	165.527	95.3828	165.527	95.3128	165.527	95.326	165.527	95.302
171.387	96.8367	171.387	96.8371	171.387	96.8271	171.387	96.8288	171.387	96.8077	171.387	96.8119	171.387	96.7778	171.387	96.7858	171.387	96.7365	171.387	96.7492	171.387	96.6824	171.387	96.6997	171.387	96.6142	171.387	96.6343	171.387	96.5301	171.387	96.5501	171.387	96.4289	171.387	96.4456	171.387	96.3112	171.387	96.3212	171.387	96.1792	171.387	96.1808	171.387	96.0382	171.387	96.0313	171.387	95.8958	171.387	95.8819	171.387	95.761	171.387	95.743	171.387	95.6426	171.387	95.6241	171.387	95.5479	171.387	95.5321	171.387	95.4815	171.387	95.471	171.387	95.4459	171.387	95.4423
177.246	96.6301	177.246	96.6115	177.246	96.6403	177.246	96.5848	177.246	96.6425	177.246	96.5513	177.246	96.6377	177.246	96.5122	177.246	96.6271	177.246	96.4682	177.246	96.6113	177.246	96.4189	177.246	96.5893	177.246	96.3624	177.246	96.5584	177.246	96.296	177.246	96.5145	177.246	96.2164	177.246	96.4526	177.246	96.1217	177.246	96.3683	177.246	96.0119	177.246	96.2597	177.246	95.8906	177.246	96.1287	177.246	95.7649	177.246	95.9818	177.246	95.6444	177.246	95.8296	177.246	95.5407	177.246	95.6856	177.246	95.4645	177.246	95.5635	177.246	95.4251	177.246	95.4751	177.246	95.428
183.105	96.7973	183.105	96.7883	183.105	96.7932	183.105	96.7671	183.105	96.7762	183.105	96.7354	183.105	96.7477	183.105	96.6951	183.105	96.7096	183.105	96.648	183.105	96.6641	183.105	96.5946	183.105	96.6125	183.105	96.5343	183.105	96.5553	183.105	96.4652	183.105	96.4915	183.105	96.3853	183.105	96.4195	183.105	96.2933	183.105	96.3376	183.105	96.1899	183.105	96.245	183.105	96.0785	183.105	96.1431	183.105	95.9654	183.105	96.0355	183.105	95.8591	183.105	95.9286	183.105	95.7687	183.105	95.8301	183.105	95.7022	183.105	95.7482	183.105	95.6656	183.105	95.6902	183.105	95.6617
188.965	96.6925	188.965	96.6843	188.965	96.6848	188.965	96.6608	188.965	96.6618	188.965	96.6236	188.965	96.6256	188.965	96.5751	188.965	96.5785	188.965	96.5176	188.965	96.5228	188.965	96.4525	188.965	96.4599	188.965	96.3799	188.965	96.3902	188.965	96.2989	188.965	96.3128	188.965	96.2082	188.965	96.2263	188.965	96.107	188.965	96.1297	188.965	95.9966	188.965	96.0234	188.965	95.8806	188.965	95.9103	188.965	95.7651	188.965	95.7954	188.965	95.6577	188.965	95.6857	188.965	95.5662	188.965	95.5891	188.965	95.4972	188.965	95.5132	188.965	95.4555	188.965	95.4637	188.965	95.4441
196.289	96.7306	196.289	96.7156	196.289	96.7239	196.289	96.68	196.289	96.6966	196.289	96.6271	196.289	96.6516	196.289	96.5615	196.289	96.5928	196.289	96.4885	196.289	96.5243	196.289	96.4127	196.289	96.4495	196.289	96.3373	196.289	96.3701	196.289	96.2629	196.289	96.2866	196.289	96.1882	196.289	96.1984	196.289	96.1109	196.289	96.1049	196.289	96.0289	196.289	96.0073	196.289	95.942	196.289	95.9084	196.289	95.8529	196.289	95.8132	196.289	95.7668	196.289	95.7275	196.289	95.69	196.289	95.6569	196.289	95.6289	196.289	95.6056	196.289	95.5881	196.289	95.5762	196.289	95.5703
203.613	96.6704	203.613	96.6416	203.613	96.6697	203.613	96.5832	203.613	96.6412	203.613	96.4967	203.613	96.5884	203.613	96.3853	203.613	96.5155	203.613	96.2535	203.613	96.4271	203.613	96.1066	203.613	96.3274	203.613	95.9506	203.613	96.2196	203.613	95.7919	203.613	96.1056	203.613	95.6373	203.613	95.9865	203.613	95.4935	203.613	95.8634	203.613	95.3674	203.613	95.7384	203.613	95.2647	203.613	95.6151	203.613	95.1887	203.613	95.4988	203.613	95.1398	203.613	95.3946	203.613	95.1154	203.613	95.3068	203.613	95.111	203.613	95.2371	203.613	95.1223	203.613	95.1845	203.613	95.1469
210.938	96.9581	210.938	96.9683	210.938	96.9185	210.938	96.948	210.938	96.8511	210.938	96.8973	210.938	96.7585	210.938	96.8169	210.938	96.644	210.938	96.708	210.938	96.5112	210.938	96.5719	210.938	96.3636	210.938	96.4106	210.938	96.2046	210.938	96.2261	210.938	96.0369	210.938	96.022	210.938	95.8631	210.938	95.8043	210.938	95.6863	210.938	95.5822	210.938	95.5109	210.938	95.3681	210.938	95.343	210.938	95.1765	210.938	95.1899	210.938	95.0199	210.938	95.0587	210.938	94.9061	210.938	94.9542	210.938	94.8356	210.938	94.8775	210.938	94.8033	210.938	94.8273	210.938	94.8021
218.262	96.8027	218.262	96.8227	218.262	96.7652	218.262	96.825	218.262	96.7108	218.262	96.8097	218.262	96.6412	218.262	96.7767	218.262	96.558	218.262	96.7251	218.262	96.4633	218.262	96.6536	218.262	96.3581	218.262	96.5602	218.262	96.2433	218.262	96.4436	218.262	96.1188	218.262	96.3037	218.262	95.9851	218.262	96.1427	218.262	95.8431	218.262	95.9658	218.262	95.696	218.262	95.7814	218.262	95.5487	218.262	95.6006	218.262	95.4084	218.262	95.435	218.262	95.2838	218.262	95.2946	218.262	95.1831	218.262	95.1863	218.262	95.113	218.262	95.1135	218.262	95.0771	218.262	95.0772
225.586	96.5977	225.586	96.6083	225.586	96.5597	225.586	96.5941	225.586	96.4938	225.586	96.559	225.586	96.4021	225.586	96.5073	225.586	96.2888	225.586	96.4417	225.586	96.1591	225.586	96.363	225.586	96.0185	225.586	96.2698	225.586	95.8724	225.586	96.1601	225.586	95.7255	225.586	96.0328	225.586	95.5824	225.586	95.8896	225.586	95.448	225.586	95.736	225.586	95.3276	225.586	95.5812	225.586	95.2262	225.586	95.4361	225.586	95.147	225.586	95.3109	225.586	95.0913	225.586	95.2115	225.586	95.0577	225.586	95.1389	225.586	95.0431	225.586	95.0899	225.586	95.0443	225.586	95.0596
232.91	96.6216	232.91	96.5904	232.91	96.6143	232.91	96.5245	232.91	96.5686	232.91	96.43	232.91	96.4871	232.91	96.3152	232.91	96.3749	232.91	96.1881	232.91	96.238	232.91	96.0555	232.91	96.0822	232.91	95.921	232.91	95.9122	232.91	95.7851	232.91	95.7313	232.91	95.6465	232.91	95.5427	232.91	95.5042	232.91	95.351	232.91	95.3595	232.91	95.1635	232.91	95.2168	232.91	94.9909	232.91	95.0824	232.91	94.8448	232.91	94.9627	232.91	94.7352	232.91	94.8615	232.91	94.6666	232.91	94.7797	232.91	94.6372	232.91	94.7156	232.91	94.6405	232.91	94.6686
241.699	96.7141	241.699	96.7022	241.699	96.6876	241.699	96.6551	241.699	96.6205	241.699	96.5767	241.699	96.5132	241.699	96.4708	241.699	96.369	241.699	96.3415	241.699	96.194	241.699	96.1931	241.699	95.9958	241.699	96.0303	241.699	95.7822	241.699	95.8577	241.699	95.5599	241.699	95.6801	241.699	95.3354	241.699	95.502	241.699	95.1166	241.699	95.3283	241.699	94.9147	241.699	95.1652	241.699	94.7445	241.699	95.0197	241.699	94.62	241.699	94.898	241.699	94.5485	241.699	94.8026	241.699	94.527	241.699	94.7306	241.699	94.5429	241.699	94.6742	241.699	94.5798	241.699	94.6252
250.488	96.6856	250.488	96.6044	250.488	96.7174	250.488	96.4793	250.488	96.6967	250.488	96.3183	250.488	96.6234	250.488	96.1303	250.488	96.4994	250.488	95.9241	250.488	96.3294	250.488	95.7066	250.488	96.1203	250.488	95.4829	250.488	95.882	250.488	95.2571	250.488	95.6261	250.488	95.035	250.488	95.3651	250.488	94.8253	250.488	95.1112	250.488	94.6393	250.488	94.8756	250.488	94.4875	250.488	94.6682	250.488	94.3759	250.488	94.4979	250.488	94.3032	250.488	94.3707	250.488	94.2615	250.488	94.2877	250.488	94.24	250.488	94.2432	250.488	94.2292	250.488	94.226	250.488	94.224
259.277	97.1098	259.277	97.0728	259.277	97.1011	259.277	96.9898	259.277	97.0486	259.277	96.8628	259.277	96.955	259.277	96.6961	259.277	96.8226	259.277	96.495	259.277	96.6525	259.277	96.2649	259.277	96.4453	259.277	96.0107	259.277	96.2017	259.277	95.7363	259.277	95.9246	259.277	95.4475	259.277	95.6207	259.277	95.1539	259.277	95.3027	259.277	94.8708	259.277	94.9889	259.277	94.618	259.277	94.7021	259.277	94.4143	259.277	94.4638	259.277	94.2696	259.277	94.2879	259.277	94.181	259.277	94.1767	259.277	94.1341	259.277	94.1199	259.277	94.1113	259.277	94.1001	259.277	94.1004
268.066	97.1299	268.066	97.0983	268.066	97.1225	268.066	97.0298	268.066	97.0779	268.066	96.9301	268.066	97.0011	268.066	96.8074	268.066	96.8981	268.066	96.6706	268.066	96.7744	268.066	96.526	268.066	96.633	268.066	96.376	268.066	96.4738	268.066	96.2187	268.066	96.2948	268.066	96.0503	268.066	96.0953	268.066	95.8694	268.066	95.879	268.066	95.6805	268.066	95.6559	268.066	95.4949	268.066	95.4421	268.066	95.3279	268.066	95.2559	268.066	95.1922	268.066	95.1121	268.066	95.0932	268.066	95.0171	268.066	95.0271	268.066	94.9673	268.066	94.9854	268.066	94.9524	268.066	94.9607
276.855	96.8235	276.855	96.7538	276.855	96.8344	276.855	96.6279	276.855	96.7858	276.855	96.451	276.855	96.6791	276.855	96.2313	276.855	96.5179	276.855	95.98	276.855	96.3083	276.855	95.7097	276.855	96.0596	276.855	95.4331	276.855	95.7842	276.855	95.1609	276.855	95.4969	276.855	94.9028	276.855	95.214	276.855	94.669	276.855	94.9515	276.855	94.472	276.855	94.7236	276.855	94.3256	276.855	94.5421	276.855	94.2387	276.855	94.4142	276.855	94.2091	276.855	94.3399	276.855	94.2223	276.855	94.31	276.855	94.2562	276.855	94.3077	276.855	94.2899	276.855	94.3131	276.855	94.3098
287.109	96.8457	287.109	96.8691	287.109	96.7807	287.109	96.8428	287.109	96.684	287.109	96.7614	287.109	96.5655	287.109	96.6231	287.109	96.4334	287.109	96.4319	287.109	96.2914	287.109	96.1971	287.109	96.1363	287.109	95.9314	287.109	95.958	287.109	95.6459	287.109	95.7434	287.109	95.3464	287.109	95.4835	287.109	95.0346	287.109	95.1801	287.109	94.7154	287.109	94.8508	287.109	94.4065	287.109	94.5269	287.109	94.1392	287.109	94.2451	287.109	93.9452	287.109	94.033	287.109	93.8363	287.109	93.8991	287.109	93.7957	287.109	93.8316	287.109	93.7913	287.109	93.8058	287.109	93.7968
297.363	97.4855	297.363	97.4954	297.363	97.4178	297.363	97.4496	297.363	97.2916	297.363	97.3494	297.363	97.1084	297.363	97.1949	297.363	96.8722	297.363	96.985	297.363	96.5899	297.363	96.7192	297.363	96.2703	297.363	96.4006	297.363	95.9236	297.363	96.0387	297.363	95.5611	297.363	95.65	297.363	95.1954	297.363	95.2562	297.363	94.8423	297.363	94.8817	297.363	94.5225	297.363	94.5497	297.363	94.2595	297.363	94.2805	297.363	94.0728	297.363	94.0883	297.363	93.9679	297.363	93.9765	297.363	93.9306	297.363	93.9328	297.363	93.9318	297.363	93.9307	297.363	93.9412	297.363	93.9403
307.617	96.8753	307.617	96.8428	307.617	96.8614	307.617	96.7729	307.617	96.7956	307.617	96.6756	307.617	96.6775	307.617	96.5588	307.617	96.5118	307.617	96.4263	307.617	96.3083	307.617	96.2773	307.617	96.08	307.617	96.1098	307.617	95.8406	307.617	95.9244	307.617	95.6014	307.617	95.7269	307.617	95.37	307.617	95.5281	307.617	95.1509	307.617	95.3407	307.617	94.9501	307.617	95.1755	307.617	94.7798	307.617	95.0407	307.617	94.6581	307.617	94.9415	307.617	94.6009	307.617	94.8783	307.617	94.6088	307.617	94.8429	307.617	94.6617	307.617	94.8176	307.617	94.7283	307.617	94.7829
319.336	96.6949	319.336	96.6463	319.336	96.6849	319.336	96.5468	319.336	96.6135	319.336	96.4082	319.336	96.4823	319.336	96.2445	319.336	96.2961	319.336	96.0673	319.336	96.0608	319.336	95.8811	319.336	95.7822	319.336	95.682	319.336	95.4651	319.336	95.4598	319.336	95.1145	319.336	95.2059	319.336	94.7406	319.336	94.9224	319.336	94.3642	319.336	94.6286	319.336	94.0195	319.336	94.3592	319.336	93.7489	319.336	94.1518	319.336	93.5879	319.336	94.0273	319.336	93.5471	319.336	93.9775	319.336	93.6048	319.336	93.9691	319.336	93.7166	319.336	93.9605	319.336	93.8334	319.336	93.9192
329.59	96.7543	329.59	96.6378	329.59	96.801	329.59	96.4593	329.59	96.776	329.59	96.2322	329.59	96.6804	329.59	95.9745	329.59	96.5168	329.59	95.7039	329.59	96.2876	329.59	95.4334	329.59	95.9949	329.59	95.1687	329.59	95.6419	329.59	94.9104	329.59	95.2351	329.59	94.6603	329.59	94.7872	329.59	94.4273	329.59	94.3223	329.59	94.2285	329.59	93.8796	329.59	94.0819	329.59	93.5127	329.59	93.9948	329.59	93.2755	329.59	93.9564	329.59	93.1967	329.59	93.9407	329.59	93.2608	329.59	93.9169	329.59	93.4144	329.59	93.8586	329.59	93.5941	329.59	93.7504
341.309	97.0765	341.309	96.9962	341.309	97.0767	341.309	96.837	341.309	97.0006	341.309	96.6068	341.309	96.8566	341.309	96.3215	341.309	96.6574	341.309	96.0051	341.309	96.4184	341.309	95.6847	341.309	96.1546	341.309	95.3808	341.309	95.8759	341.309	95.0979	341.309	95.584	341.309	94.8254	341.309	95.2738	341.309	94.5499	341.309	94.9384	341.309	94.2721	341.309	94.5782	341.309	94.0157	341.309	94.2095	341.309	93.8171	341.309	93.8683	341.309	93.6993	341.309	93.6028	341.309	93.6514	341.309	93.4515	341.309	93.6339	341.309	93.4183	341.309	93.6046	341.309	93.4674	341.309	93.5443
353.027	97.3704	353.027	97.2577	353.027	97.3935	353.027	97.0512	353.027	97.3331	353.027	96.7491	353.027	97.1958	353.027	96.353	353.027	96.9868	353.027	95.8685	353.027	96.71	353.027	95.3071	353.027	96.3685	353.027	94.6886	353.027	95.9666	353.027	94.0449	353.027	95.5136	353.027	93.4213	353.027	95.0258	353.027	92.8736	353.027	94.5295	353.027	92.4615	353.027	94.0593	353.027	92.2346	353.027	93.655	353.027	92.2132	353.027	93.3519	353.027	92.3677	353.027	93.17	353.027	92.6206	353.027	93.1029	353.027	92.877	353.027	93.1158	353.027	93.0636	353.027	93.1521	353.027	93.1504
366.211	97.1303	366.211	97.1922	366.211	97.0036	366.211	97.1825	366.211	96.8204	366.211	97.0973	366.211	96.5906	366.211	96.9368	366.211	96.3262	366.211	96.7062	366.211	96.0406	366.211	96.4136	366.211	95.7472	366.211	96.0664	366.211	95.4562	366.211	95.6696	366.211	95.1726	366.211	95.2281	366.211	94.8962	366.211	94.754	366.211	94.6244	366.211	94.2728	366.211	94.3567	366.211	93.8235	366.211	94.0992	366.211	93.4524	366.211	93.8658	366.211	93.1992	366.211	93.673	366.211	93.0802	366.211	93.5283	366.211	93.0777	366.211	93.4226	366.211	93.1475	366.211	93.3337	366.211	93.242
379.395	97.1169	379.395	97.1097	379.395	97.0625	379.395	97.043	379.395	96.9458	379.395	96.9193	379.395	96.7683	379.395	96.7414	379.395	96.5343	379.395	96.5122	379.395	96.2483	379.395	96.2345	379.395	95.9102	379.395	95.91	379.395	95.5112	379.395	95.5376	379.395	95.0356	379.395	95.1164	379.395	94.4737	379.395	94.6533	379.395	93.8442	379.395	94.1749	379.395	93.2165	379.395	93.7345	379.395	92.7094	379.395	93.3999	379.395	92.4386	379.395	93.2172	379.395	92.4344	379.395	93.1758	379.395	92.618	379.395	93.211	379.395	92.8662	379.395	93.2425	379.395	93.0802	379.395	93.2084
392.578	96.7547	392.578	96.6457	392.578	96.8	392.578	96.4904	392.578	96.774	392.578	96.3125	392.578	96.6782	392.578	96.1349	392.578	96.5203	392.578	95.9714	392.578	96.3114	392.578	95.8208	392.578	96.063	392.578	95.6644	392.578	95.7838	392.578	95.4712	392.578	95.4767	392.578	95.2075	392.578	95.1363	392.578	94.8519	392.578	94.7523	392.578	94.4106	392.578	94.3198	392.578	93.926	392.578	93.8531	392.578	93.4689	392.578	93.3946	392.578	93.1102	392.578	93.01	392.578	92.8843	392.578	92.7583	392.578	92.7724	392.578	92.6524	392.578	92.722	392.578	92.6491	392.578	92.6846
405.762	97.2409	405.762	97.0874	405.762	97.2831	405.762	96.8303	405.762	97.2143	405.762	96.4853	405.762	97.0432	405.762	96.0767	405.762	96.7874	405.762	95.6381	405.762	96.4707	405.762	95.2105	405.762	96.1185	405.762	94.8332	405.762	95.7497	405.762	94.5287	405.762	95.3691	405.762	94.2892	405.762	94.9679	405.762	94.0817	405.762	94.5358	405.762	93.8742	405.762	94.0814	405.762	93.6654	405.762	93.6493	405.762	93.4913	405.762	93.314	405.762	93.3976	405.762	93.1402	405.762	93.3957	405.762	93.1354	405.762	93.4465	405.762	93.2421	405.762	93.4869	405.762	93.3758	405.762	93.4676
420.41	97.5106	420.41	97.4694	420.41	97.4101	420.41	97.2788	420.41	97.1863	420.41	96.9435	420.41	96.8667	420.41	96.4819	420.41	96.4854	420.41	95.9279	420.41	96.0803	420.41	95.3327	420.41	95.6882	420.41	94.7615	420.41	95.341	420.41	94.2805	420.41	95.0613	420.41	93.93	420.41	94.8562	420.41	93.703	420.41	94.7095	420.41	93.5526	420.41	94.5812	420.41	93.4266	420.41	94.4233	420.41	93.2985	420.41	94.204	420.41	93.1743	420.41	93.9254	420.41	93.0757	420.41	93.6249	420.41	93.0188	420.41	93.3565	420.41	93.0084	420.41	93.1618	420.41	93.0506
435.059	98.0429	435.059	97.9874	435.059	97.9868	435.059	97.8179	435.059	97.8156	435.059	97.5277	435.059	97.5232	435.059	97.1117	435.059	97.1083	435.059	96.5755	435.059	96.5831	435.059	95.9443	435.059	95.9818	435.059	95.2695	435.059	95.3642	435.059	94.6259	435.059	94.8088	435.059	94.0913	435.059	94.3882	435.059	93.716	435.059	94.1363	435.059	93.5022	435.059	94.034	435.059	93.4158	435.059	94.0283	435.059	93.4168	435.059	94.0663	435.059	93.4794	435.059	94.1127	435.059	93.5909	435.059	94.1461	435.059	93.7363	435.059	94.1503	435.059	93.8901	435.059	94.1114	435.059	94.0225
451.172	97.9006	451.172	97.9372	451.172	97.7509	451.172	97.8588	451.172	97.4855	451.172	97.6578	451.172	97.1004	451.172	97.3222	451.172	96.5981	451.172	96.8396	451.172	95.9975	451.172	96.2044	451.172	95.3439	451.172	95.43	451.172	94.7037	451.172	94.5674	451.172	94.1389	451.172	93.7209	451.172	93.6797	451.172	93.0342	451.172	93.33	451.172	92.6272	451.172	93.1011	451.172	92.5253	451.172	93.0222	451.172	92.6651	451.172	93.1058	451.172	92.9511	451.172	93.3126	451.172	93.2908	451.172	93.5651	451.172	93.6044	451.172	93.7866	451.172	93.8325	451.172	93.9224	451.172	93.9415
465.82	98.275	465.82	98.2022	465.82	98.2311	465.82	98.023	465.82	98.0599	465.82	97.7466	465.82	97.7519	465.82	97.3804	465.82	97.2969	465.82	96.9331	465.82	96.6838	465.82	96.4184	465.82	95.9057	465.82	95.8558	465.82	94.9752	465.82	95.269	465.82	93.9564	465.82	94.692	465.82	93.0019	465.82	94.1836	465.82	92.3383	465.82	93.8289	465.82	92.1246	465.82	93.6915	465.82	92.3036	465.82	93.7502	465.82	92.6803	465.82	93.9086	465.82	93.0959	465.82	94.0696	465.82	93.4765	465.82	94.1792	465.82	93.7933	465.82	94.2164	465.82	94.0284	465.82	94.1694
483.398	98.6361	483.398	98.482	483.398	98.6873	483.398	98.2233	483.398	98.6359	483.398	97.8591	483.398	98.4755	483.398	97.3873	483.398	98.1888	483.398	96.7996	483.398	97.7479	483.398	96.0826	483.398	97.1198	483.398	95.236	483.398	96.279	483.398	94.3071	483.398	95.226	483.398	93.4254	483.398	94.0216	483.398	92.7832	483.398	92.8387	483.398	92.5173	483.398	91.989	483.398	92.6013	483.398	91.7679	483.398	92.9027	483.398	92.1479	483.398	93.2987	483.398	92.8069	483.398	93.7028	483.398	93.4489	483.398	94.0448	483.398	93.9335	483.398	94.2672	483.398	94.2267	483.398	94.334
499.512	98.398	499.512	98.3854	499.512	98.3511	499.512	98.2971	499.512	98.2522	499.512	98.1095	499.512	98.1006	499.512	97.7943	499.512	97.8868	499.512	97.3226	499.512	97.591	499.512	96.6674	499.512	97.1846	499.512	95.807	499.512	96.6364	499.512	94.7395	499.512	95.9272	499.512	93.5251	499.512	95.0712	499.512	92.3659	499.512	94.1443	499.512	91.6319	499.512	93.3053	499.512	91.6058	499.512	92.7649	499.512	92.1464	499.512	92.6581	499.512	92.8807	499.512	92.9279	499.512	93.546	499.512	93.384	499.512	94.0301	499.512	93.8419	499.512	94.2982	499.512	94.1831	499.512	94.3453
517.09	97.9367	517.09	97.9204	517.09	97.8835	517.09	97.8389	517.09	97.7558	517.09	97.6921	517.09	97.5501	517.09	97.4726	517.09	97.2642	517.09	97.1635	517.09	96.8926	517.09	96.7395	517.09	96.4193	517.09	96.1697	517.09	95.8144	517.09	95.4218	517.09	95.043	517.09	94.4739	517.09	94.094	517.09	93.353	517.09	93.0333	517.09	92.2186	517.09	92.0694	517.09	91.4403	517.09	91.5307	517.09	91.3903	517.09	91.6156	517.09	91.9816	517.09	92.1716	517.09	92.7799	517.09	92.8788	517.09	93.4593	517.09	93.4966	517.09	93.8894	517.09	93.9002	517.09	94.0369
536.133	97.7465	536.133	97.6206	536.133	97.7801	536.133	97.4165	536.133	97.7176	536.133	97.1568	536.133	97.5595	536.133	96.861	536.133	97.3028	536.133	96.5264	536.133	96.9345	536.133	96.116	536.133	96.4318	536.133	95.5662	536.133	95.7715	536.133	94.8155	536.133	94.9461	536.133	93.8471	536.133	93.9837	536.133	92.7497	536.133	92.9739	536.133	91.7839	536.133	92.1042	536.133	91.3302	536.133	91.6462	536.133	91.5584	536.133	91.769	536.133	92.2245	536.133	92.3317	536.133	92.9688	536.133	93.0187	536.133	93.5718	536.133	93.5943	536.133	93.9479	536.133	93.9563	536.133	94.0761
555.176	97.7338	555.176	97.7153	555.176	97.6804	555.176	97.6232	555.176	97.5542	555.176	97.4502	555.176	97.3537	555.176	97.1823	555.176	97.0756	555.176	96.8013	555.176	96.7103	555.176	96.2885	555.176	96.2334	555.176	95.6248	555.176	95.5942	555.176	94.7877	555.176	94.716	555.176	93.7541	555.176	93.5293	555.176	92.5326	555.176	92.066	555.176	91.2718	555.176	90.6578	555.176	90.4306	555.176	90.0383	555.176	90.57	555.176	90.5941	555.176	91.5598	555.176	91.7515	555.176	92.7394	555.176	92.8794	555.176	93.6773	555.176	93.7294	555.176	94.2404	555.176	94.247	555.176	94.4226
574.219	97.7706	574.219	97.6658	574.219	97.7987	574.219	97.493	574.219	97.7482	574.219	97.2656	574.219	97.62	574.219	96.9938	574.219	97.4117	574.219	96.6693	574.219	97.1089	574.219	96.2485	574.219	96.6813	574.219	95.6484	574.219	96.0856	574.219	94.7614	574.219	95.2719	574.219	93.4928	574.219	94.1901	574.219	91.8375	574.219	92.8113	574.219	90.0691	574.219	91.2138	574.219	88.9863	574.219	89.8017	574.219	89.2893	574.219	89.3689	574.219	90.4614	574.219	90.1514	574.219	91.6942	574.219	91.3957	574.219	92.6433	574.219	92.4643	574.219	93.2162	574.219	93.1397	574.219	93.387
594.727	97.386	594.727	97.3873	594.727	97.3732	594.727	97.3739	594.727	97.3516	594.727	97.3374	594.727	97.3187	594.727	97.2561	594.727	97.2589	594.727	97.0925	594.727	97.1388	594.727	96.7996	594.727	96.9073	594.727	96.327	594.727	96.4982	594.727	95.623	594.727	95.8357	594.727	94.6367	594.727	94.8457	594.727	93.3372	594.727	93.4855	594.727	91.7921	594.727	91.8344	594.727	90.3628	594.727	90.3146	594.727	89.7856	594.727	89.7531	594.727	90.3618	594.727	90.4112	594.727	91.4499	594.727	91.5468	594.727	92.4317	594.727	92.5286	594.727	93.0734	594.727	93.1334	594.727	93.3139
615.234	97.619	615.234	97.5372	615.234	97.5814	615.234	97.3444	615.234	97.426	615.234	97.0635	615.234	97.1649	615.234	96.732	615.234	96.8228	615.234	96.3843	615.234	96.4285	615.234	96.0169	615.234	95.9939	615.234	95.5667	615.234	95.4879	615.234	94.9287	615.234	94.8232	615.234	93.9998	615.234	93.873	615.234	92.7319	615.234	92.5213	615.234	91.2213	615.234	90.7888	615.234	89.8961	615.234	89.1779	615.234	89.5483	615.234	88.8707	615.234	90.431	615.234	90.0913	615.234	91.8043	615.234	91.6726	615.234	92.9886	615.234	92.92	615.234	93.7225	615.234	93.6831	615.234	93.9522
637.207	97.4995	637.207	97.4424	637.207	97.4761	637.207	97.3115	637.207	97.3935	637.207	97.1349	637.207	97.2883	637.207	96.9421	637.207	97.1801	637.207	96.7382	637.207	97.041	637.207	96.4821	637.207	96.7967	637.207	96.0851	637.207	96.3568	637.207	95.4305	637.207	95.6455	637.207	94.3969	637.207	94.6085	637.207	92.8837	637.207	93.1978	637.207	90.8964	637.207	91.374	637.207	88.8618	637.207	89.2552	637.207	87.9816	637.207	87.6491	637.207	88.7581	637.207	87.8895	637.207	90.0577	637.207	89.3899	637.207	91.1067	637.207	90.7794	637.207	91.7356	637.207	91.6234	637.207	91.9206
659.18	96.5411	659.18	96.4377	659.18	96.566	659.18	96.2746	659.18	96.5126	659.18	96.083	659.18	96.4052	659.18	95.9008	659.18	96.2849	659.18	95.759	659.18	96.1813	659.18	95.649	659.18	96.0736	659.18	95.4875	659.18	95.8706	659.18	95.1207	659.18	95.4337	659.18	94.3772	659.18	94.6189	659.18	93.1335	659.18	93.3094	659.18	91.4017	659.18	91.4608	659.18	89.5644	659.18	89.3011	659.18	88.6747	659.18	87.8523	659.18	89.3829	659.18	88.3024	659.18	90.7521	659.18	89.8142	659.18	91.8841	659.18	91.2096	659.18	92.5028	659.18	92.1456	659.18	92.5817
682.617	96.3371	682.617	96.307	682.617	96.2045	682.617	96.1151	682.617	95.9497	682.617	95.8113	682.617	95.6343	682.617	95.4691	682.617	95.3244	682.617	95.139	682.617	95.0784	682.617	94.8114	682.617	94.9125	682.617	94.4151	682.617	94.7545	682.617	93.8294	682.617	94.4439	682.617	92.8875	682.617	93.7877	682.617	91.3959	682.617	92.6279	682.617	89.2764	682.617	90.9362	682.617	87.2546	682.617	89.1008	682.617	87.4733	682.617	88.3306	682.617	89.5566	682.617	89.3222	682.617	91.4837	682.617	90.9504	682.617	92.7461	682.617	92.3081	682.617	93.3973	682.617	93.1692	682.617	93.5274
707.52	96.7587	707.52	96.6598	707.52	96.714	707.52	96.4579	707.52	96.5133	707.52	96.202	707.52	96.1941	707.52	95.9405	707.52	95.8395	707.52	95.7085	707.52	95.526	707.52	95.496	707.52	95.2586	707.52	95.2099	707.52	94.9565	707.52	94.6735	707.52	94.4901	707.52	93.671	707.52	93.7003	707.52	91.9807	707.52	92.3755	707.52	89.353	707.52	90.2154	707.52	85.591	707.52	86.8857	707.52	82.6369	707.52	83.346	707.52	85.1544	707.52	84.5912	707.52	88.4367	707.52	87.8008	707.52	90.4935	707.52	89.9728	707.52	91.5107	707.52	91.2054	707.52	91.7095
732.422	95.1292	732.422	95.0816	732.422	95.0754	732.422	94.9324	732.422	94.9464	732.422	94.7304	732.422	94.7872	732.422	94.5831	732.422	94.6648	732.422	94.5939	732.422	94.6473	732.422	94.739	732.422	94.7385	732.422	94.8402	732.422	94.823	732.422	94.6715	732.422	94.6937	732.422	94.0319	732.422	94.1216	732.422	92.7145	732.422	92.8884	732.422	90.4349	732.422	90.7665	732.422	86.8724	732.422	87.5219	732.422	83.3816	732.422	83.8234	732.422	85.2543	732.422	84.3642	732.422	88.444	732.422	87.6732	732.422	90.4434	732.422	90.0443	732.422	91.4781	732.422	91.3323	732.422	91.7669
757.324	96.6408	757.324	96.4427	757.324	96.5223	757.324	95.9526	757.324	96.0995	757.324	95.2497	757.324	95.4493	757.324	94.5269	757.324	94.7713	757.324	94.1045	757.324	94.3881	757.324	94.1974	757.324	94.5013	757.324	94.6149	757.324	94.9161	757.324	94.916	757.324	95.2218	757.324	94.7124	757.324	95.0783	757.324	93.7103	757.324	94.2346	757.324	91.6073	757.324	92.4215	757.324	87.9664	757.324	89.2135	757.324	83.2209	757.324	84.2841	757.324	84.8691	757.324	83.6905	757.324	89.0299	757.324	88.2922	757.324	91.5798	757.324	91.2702	757.324	92.9073	757.324	92.8065	757.324	93.3007
785.156	96.5108	785.156	96.4377	785.156	96.3353	785.156	96.0795	785.156	95.96	785.156	95.4547	785.156	95.4222	785.156	94.6867	785.156	94.7608	785.156	94.0414	785.156	94.0643	785.156	93.8243	785.156	93.5243	785.156	94.0576	785.156	93.3665	785.156	94.384	785.156	93.5546	785.156	94.3645	785.156	93.6693	785.156	93.6409	785.156	93.1956	785.156	91.8437	785.156	91.689	785.156	88.3017	785.156	88.6006	785.156	80.7477	785.156	82.7973	785.156	76.8914	785.156	79.1409	785.156	86.0035	785.156	85.5677	785.156	89.6571	785.156	89.1961	785.156	91.2955	785.156	91.0278	785.156	91.6875
811.523	95.9141	811.523	95.7059	811.523	95.8289	811.523	95.2183	811.523	95.4259	811.523	94.4454	811.523	94.6954	811.523	93.4022	811.523	93.6904	811.523	92.2667	811.523	92.6469	811.523	91.5673	811.523	92.0864	811.523	91.8234	811.523	92.3692	811.523	92.6524	811.523	93.072	811.523	93.2261	811.523	93.5067	811.523	93.0334	811.523	93.2477	811.523	91.7816	811.523	92.0278	811.523	89.0634	811.523	89.4672	811.523	83.8477	811.523	84.519	811.523	77.6089	811.523	75.3545	811.523	84.1144	811.523	82.9485	811.523	88.1251	811.523	87.8385	811.523	89.989	811.523	89.9546	811.523	90.5535
840.82	96.8337	840.82	96.6754	840.82	96.6655	840.82	96.1715	840.82	96.1639	840.82	95.2884	840.82	95.293	840.82	94.0018	840.82	94.0213	840.82	92.4165	840.82	92.4507	840.82	91.117	840.82	91.136	840.82	91.0943	840.82	91.065	840.82	92.1317	840.82	92.1476	840.82	93.0742	840.82	93.2472	840.82	93.2811	840.82	93.6616	840.82	92.4655	840.82	93.0717	840.82	90.2532	840.82	91.1198	840.82	85.5743	840.82	86.9529	840.82	73.1361	840.82	77.4995	840.82	82.3548	840.82	80.908	840.82	88.0048	840.82	87.1193	840.82	90.1861	840.82	89.713	840.82	90.6254
870.117	97.0766	870.117	97.0652	870.117	96.9526	870.117	96.8521	870.117	96.6944	870.117	96.3383	870.117	96.231	870.117	95.433	870.117	95.4459	870.117	94.1015	870.117	94.2488	870.117	92.5142	870.117	92.7489	870.117	91.3937	870.117	91.5663	870.117	91.6436	870.117	91.572	870.117	92.7135	870.117	92.4725	870.117	93.4353	870.117	93.2104	870.117	93.2203	870.117	93.12	870.117	91.7423	870.117	91.7995	870.117	88.4416	870.117	88.6716	870.117	81.1729	870.117	81.7529	870.117	71.7008	870.117	70.865	870.117	84.3641	870.117	84.2014	870.117	87.9659	870.117	87.9176	870.117	88.9315
900.879	97.2853	900.879	97.189	900.879	97.2094	900.879	96.9303	900.879	96.9447	900.879	96.4674	900.879	96.4836	900.879	95.7216	900.879	95.7961	900.879	94.6581	900.879	94.8252	900.879	93.3812	900.879	93.5829	900.879	92.2615	900.879	92.3776	900.879	91.928	900.879	91.9296	900.879	92.5004	900.879	92.4791	900.879	93.1861	900.879	93.2002	900.879	93.2142	900.879	93.2944	900.879	92.1537	900.879	92.3408	900.879	89.585	900.879	89.9674	900.879	84.6041	900.879	85.4499	900.879	77.8129	900.879	78.1312	900.879	82.8644	900.879	81.3875	900.879	86.2971	900.879	85.6488	900.879	87.0583
933.105	97.7214	933.105	97.6462	933.105	97.6397	933.105	97.3632	933.105	97.4228	933.105	96.8598	933.105	97.0172	933.105	96.1553	933.105	96.3129	933.105	95.2184	933.105	95.1848	933.105	93.9475	933.105	93.5625	933.105	92.4026	933.105	91.6893	933.105	91.3083	933.105	90.5865	933.105	91.5436	933.105	91.051	933.105	92.3397	933.105	92.0193	933.105	92.4987	933.105	92.3916	933.105	91.4655	933.105	91.7186	933.105	88.8414	933.105	89.6265	933.105	83.9747	933.105	85.3577	933.105	80.148	933.105	79.6443	933.105	84.771	933.105	83.7769	933.105	87.761	933.105	87.4081	933.105	88.5603
965.332	97.5389	965.332	97.4622	965.332	97.4705	965.332	97.2841	965.332	97.2128	965.332	96.9719	965.332	96.7749	965.332	96.4122	965.332	96.1842	965.332	95.4847	965.332	95.4126	965.332	94.1786	965.332	94.3627	965.332	92.7354	965.332	92.9769	965.332	91.6846	965.332	91.5428	965.332	91.4409	965.332	90.8961	965.332	91.7374	965.332	91.2373	965.332	91.7764	965.332	91.4907	965.332	90.7874	965.332	90.7331	965.332	88.1181	965.332	88.389	965.332	82.8144	965.332	83.6005	965.332	78.4123	965.332	77.7853	965.332	83.7085	965.332	83.0363	965.332	86.6857	965.332	86.531	965.332	87.5318
1000.49	97.4961	1000.49	97.3741	1000.49	97.4094	1000.49	97.0331	1000.49	97.1365	1000.49	96.4805	1000.49	96.6769	1000.49	95.6888	1000.49	95.9836	1000.49	94.5784	1000.49	94.9448	1000.49	93.1333	1000.49	93.4178	1000.49	91.6542	1000.49	91.4902	1000.49	90.972	1000.49	90.2066	1000.49	91.5086	1000.49	90.8318	1000.49	92.364	1000.49	92.1072	1000.49	92.6478	1000.49	92.6649	1000.49	91.9147	1000.49	92.1428	1000.49	89.7304	1000.49	90.3074	1000.49	85.2803	1000.49	86.5251	1000.49	78.8716	1000.49	79.7855	1000.49	82.8444	1000.49	80.3937	1000.49	86.2861	1000.49	85.0948	1000.49	86.874
1035.64	97.54	1035.64	97.3268	1035.64	97.5517	1035.64	96.9997	1035.64	97.2942	1035.64	96.5562	1035.64	96.8292	1035.64	95.9346	1035.64	96.2616	1035.64	95.0578	1035.64	95.5256	1035.64	93.7771	1035.64	94.3706	1035.64	91.9435	1035.64	92.6161	1035.64	90.0585	1035.64	90.5902	1035.64	89.8418	1035.64	89.696	1035.64	91.023	1035.64	90.5804	1035.64	91.6295	1035.64	91.5266	1035.64	90.907	1035.64	91.3151	1035.64	88.5954	1035.64	89.4799	1035.64	83.9206	1035.64	85.3933	1035.64	75.8168	1035.64	78.0404	1035.64	82.1959	1035.64	82.004	1035.64	86.608	1035.64	86.5971	1035.64	87.8545
1072.27	97.7533	1072.27	97.6825	1072.27	97.6522	1072.27	97.4399	1072.27	97.3574	1072.27	97.0148	1072.27	96.8574	1072.27	96.3755	1072.27	96.2038	1072.27	95.4434	1072.27	95.451	1072.27	94.129	1072.27	94.482	1072.27	92.4063	1072.27	93.0529	1072.27	90.6894	1072.27	91.3525	1072.27	90.4342	1072.27	90.6883	1072.27	91.5915	1072.27	91.4578	1072.27	92.295	1072.27	92.0843	1072.27	91.8142	1072.27	91.7254	1072.27	89.9254	1072.27	90.1313	1072.27	85.9953	1072.27	86.9051	1072.27	79.4364	1072.27	81.9258	1072.27	81.4693	1072.27	81.7203	1072.27	85.4036	1072.27	85.1822	1072.27	86.4678
1108.89	97.5887	1108.89	97.3293	1108.89	97.5144	1108.89	96.8865	1108.89	97.109	1108.89	96.4114	1108.89	96.5105	1108.89	95.9092	1108.89	95.8671	1108.89	95.242	1108.89	95.2116	1108.89	94.1596	1108.89	94.3318	1108.89	92.3985	1108.89	92.7895	1108.89	90.0164	1108.89	90.3247	1108.89	88.2604	1108.89	88.2492	1108.89	89.1873	1108.89	89.1801	1108.89	91.0685	1108.89	90.8702	1108.89	91.6624	1108.89	91.3684	1108.89	90.3048	1108.89	90.2668	1108.89	86.4819	1108.89	86.9501	1108.89	78.8379	1108.89	79.9334	1108.89	79.323	1108.89	79.8593	1108.89	84.3905	1108.89	84.6694	1108.89	85.8729
1148.44	97.7015	1148.44	97.542	1148.44	97.5875	1148.44	97.1355	1148.44	97.1521	1148.44	96.5061	1148.44	96.4695	1148.44	95.7663	1148.44	95.7934	1148.44	95.0198	1148.44	95.1987	1148.44	94.1505	1148.44	94.3391	1148.44	92.8682	1148.44	92.9131	1148.44	91.0834	1148.44	91.1132	1148.44	89.6584	1148.44	89.7577	1148.44	89.9019	1148.44	89.7342	1148.44	90.798	1148.44	90.504	1148.44	90.9793	1148.44	90.8221	1148.44	89.9385	1148.44	89.9935	1148.44	87.0411	1148.44	87.4269	1148.44	80.9718	1148.44	82.0426	1148.44	79.6866	1148.44	79.4676	1148.44	84.5117	1148.44	84.2089	1148.44	85.8245
1189.45	97.3116	1189.45	97.273	1189.45	97.0801	1189.45	96.9036	1189.45	96.6721	1189.45	96.2999	1189.45	96.0711	1189.45	95.5976	1189.45	95.2286	1189.45	94.7946	1189.45	94.2383	1189.45	93.7852	1189.45	93.2256	1189.45	92.3665	1189.45	91.9979	1189.45	90.1855	1189.45	90.1521	1189.45	87.424	1189.45	87.888	1189.45	86.8838	1189.45	87.2933	1189.45	88.8864	1189.45	88.7928	1189.45	89.9594	1189.45	89.8349	1189.45	89.1191	1189.45	89.3861	1189.45	86.2167	1189.45	86.953	1189.45	81.6249	1189.45	81.9055	1189.45	79.5561	1189.45	79.7619	1189.45	82.2159	1189.45	83.2397	1189.45	83.9617
1230.47	96.5831	1230.47	96.5358	1230.47	96.4714	1230.47	96.1646	1230.47	96.2237	1230.47	95.4613	1230.47	95.5983	1230.47	94.5733	1230.47	94.4915	1230.47	93.561	1230.47	93.3119	1230.47	92.3851	1230.47	92.437	1230.47	91.131	1230.47	91.3707	1230.47	89.8246	1230.47	89.5766	1230.47	88.503	1230.47	87.7723	1230.47	88.1123	1230.47	87.8022	1230.47	88.7287	1230.47	88.708	1230.47	88.7721	1230.47	88.6922	1230.47	87.3866	1230.47	87.5034	1230.47	84.4327	1230.47	85.3324	1230.47	81.4248	1230.47	82.0049	1230.47	81.9301	1230.47	80.254	1230.47	83.7953	1230.47	83.1861	1230.47	84.5662
1274.41	96.9491	1274.41	96.7566	1274.41	96.7305	1274.41	96.1775	1274.41	96.2149	1274.41	95.3387	1274.41	95.5249	1274.41	94.3575	1274.41	94.6297	1274.41	93.2957	1274.41	93.5245	1274.41	92.1727	1274.41	92.4663	1274.41	90.8851	1274.41	91.3622	1274.41	89.0637	1274.41	89.4593	1274.41	86.252	1274.41	86.6836	1274.41	84.1014	1274.41	85.8156	1274.41	86.1672	1274.41	87.4945	1274.41	88.0881	1274.41	88.58	1274.41	87.6466	1274.41	88.1356	1274.41	84.3516	1274.41	85.6555	1274.41	80.1064	1274.41	81.2186	1274.41	82.8175	1274.41	81.659	1274.41	85.1368	1274.41	84.4845	1274.41	85.5142
1319.82	97.0315	1319.82	96.8168	1319.82	96.7749	1319.82	96.1725	1319.82	96.1968	1319.82	95.1648	1319.82	95.469	1319.82	93.875	1319.82	94.5028	1319.82	92.6468	1319.82	93.2887	1319.82	91.7513	1319.82	92.1411	1319.82	90.6875	1319.82	91.033	1319.82	88.908	1319.82	89.3966	1319.82	86.8602	1319.82	87.1395	1319.82	86.1809	1319.82	85.8572	1319.82	87.2605	1319.82	87.1828	1319.82	87.9507	1319.82	88.2943	1319.82	86.6051	1319.82	87.253	1319.82	82.1018	1319.82	83.4747	1319.82	74.852	1319.82	77.3713	1319.82	81.0182	1319.82	81.4713	1319.82	85.0854	1319.82	85.4977	1319.82	86.4648
1366.7	96.7634	1366.7	96.7037	1366.7	96.5594	1366.7	96.1675	1366.7	96.2161	1366.7	95.1263	1366.7	95.6278	1366.7	93.8729	1366.7	94.6537	1366.7	92.8729	1366.7	93.3615	1366.7	92.1009	1366.7	92.05	1366.7	90.9771	1366.7	90.8808	1366.7	89.3296	1366.7	89.48	1366.7	87.4063	1366.7	87.3878	1366.7	85.1137	1366.7	85.4797	1366.7	84.3534	1366.7	86.1051	1366.7	85.8815	1366.7	87.243	1366.7	85.4912	1366.7	86.6198	1366.7	81.5139	1366.7	83.5254	1366.7	68.8467	1366.7	75.543	1366.7	77.7185	1366.7	75.7588	1366.7	83.4069	1366.7	82.8132	1366.7	84.6939
1413.57	97.7163	1413.57	97.4469	1413.57	97.5723	1413.57	96.9133	1413.57	96.8685	1413.57	96.0927	1413.57	95.9138	1413.57	95.0828	1413.57	95.1003	1413.57	94.0297	1413.57	94.1261	1413.57	92.7907	1413.57	92.6929	1413.57	91.2109	1413.57	91.3576	1413.57	89.3248	1413.57	90.0278	1413.57	87.1542	1413.57	87.5055	1413.57	86.1584	1413.57	85.1162	1413.57	87.4211	1413.57	87.0555	1413.57	88.6137	1413.57	89.0823	1413.57	88.5135	1413.57	89.0271	1413.57	85.9273	1413.57	86.4223	1413.57	76.9886	1413.57	79.0339	1413.57	77.0951	1413.57	73.1811	1413.57	83.2869	1413.57	82.1036	1413.57	84.0299
1463.38	97.4625	1463.38	97.2152	1463.38	97.2679	1463.38	96.6393	1463.38	96.6271	1463.38	95.7992	1463.38	95.708	1463.38	94.6992	1463.38	94.6978	1463.38	93.5713	1463.38	93.5811	1463.38	92.7363	1463.38	92.3875	1463.38	91.9437	1463.38	91.4621	1463.38	90.6897	1463.38	90.3564	1463.38	88.7418	1463.38	88.0752	1463.38	86.6	1463.38	84.842	1463.38	86.0925	1463.38	84.7225	1463.38	87.5298	1463.38	87.5813	1463.38	88.2032	1463.38	88.715	1463.38	86.3364	1463.38	86.9896	1463.38	80.0125	1463.38	81.2204	1463.38	73.9743	1463.38	67.7393	1463.38	81.5714	1463.38	79.8131	1463.38	82.8421
1516.11	96.9863	1516.11	96.7834	1516.11	96.8729	1516.11	96.3216	1516.11	96.3969	1516.11	95.4848	1516.11	95.5658	1516.11	94.1907	1516.11	94.3991	1516.11	92.686	1516.11	92.9493	1516.11	91.2055	1516.11	91.3697	1516.11	89.9627	1516.11	90.0723	1516.11	88.9557	1516.11	89.1562	1516.11	87.0148	1516.11	87.7005	1516.11	83.9335	1516.11	84.6879	1516.11	84.5103	1516.11	83.4776	1516.11	86.8616	1516.11	86.7065	1516.11	87.491	1516.11	88.3433	1516.11	85.8324	1516.11	87.5029	1516.11	80.3922	1516.11	83.6375	1516.11	72.1515	1516.11	74.5416	1516.11	80.584	1516.11	78.3883	1516.11	82.1779
1568.85	97.4519	1568.85	97.1978	1568.85	97.3581	1568.85	96.5384	1568.85	96.8037	1568.85	95.5424	1568.85	95.7839	1568.85	94.3776	1568.85	94.5053	1568.85	92.8643	1568.85	93.0959	1568.85	90.9251	1568.85	91.7317	1568.85	89.4787	1568.85	90.7289	1568.85	88.6852	1568.85	89.9111	1568.85	87.1819	1568.85	88.5199	1568.85	84.9667	1568.85	86.2643	1568.85	83.8939	1568.85	84.5001	1568.85	85.3715	1568.85	85.7951	1568.85	86.6553	1568.85	87.2975	1568.85	85.7276	1568.85	86.6283	1568.85	80.9428	1568.85	83.305	1568.85	73.284	1568.85	78.5139	1568.85	80.979	1568.85	79.6277	1568.85	82.164
1624.51	97.8268	1624.51	97.5405	1624.51	97.6727	1624.51	96.8617	1624.51	97.1046	1624.51	95.8771	1624.51	96.2534	1624.51	94.6849	1624.51	95.0588	1624.51	93.2486	1624.51	93.4547	1624.51	91.5985	1624.51	91.8068	1624.51	90.1997	1624.51	90.4033	1624.51	89.3432	1624.51	89.3002	1624.51	88.3493	1624.51	88.2389	1624.51	86.2507	1624.51	86.3102	1624.51	83.4804	1624.51	83.7082	1624.51	84.6981	1624.51	84.0851	1624.51	86.3403	1624.51	86.0131	1624.51	85.4648	1624.51	85.9372	1624.51	81.6063	1624.51	83.0407	1624.51	73.0849	1624.51	79.1267	1624.51	78.749	1624.51	80.355	1624.51	81.5194
1681.64	97.7707	1681.64	97.6016	1681.64	97.508	1681.64	97.0589	1681.64	96.8946	1681.64	96.0584	1681.64	96.0649	1681.64	94.6616	1681.64	94.9279	1681.64	93.2249	1681.64	93.3469	1681.64	91.8783	1681.64	91.4517	1681.64	90.5034	1681.64	89.6904	1681.64	89.3154	1681.64	88.4398	1681.64	87.8312	1681.64	87.1999	1681.64	84.9962	1681.64	84.9182	1681.64	83.6325	1681.64	82.8136	1681.64	85.0335	1681.64	83.9261	1681.64	86.4753	1681.64	85.6627	1681.64	86.4018	1681.64	85.6751	1681.64	83.287	1681.64	82.8025	1681.64	78.9309	1681.64	78.8092	1681.64	81.3671	1681.64	81.2814	1681.64	82.8111
1741.7	97.0706	1741.7	97.0182	1741.7	96.8698	1741.7	96.4966	1741.7	96.449	1741.7	95.4688	1741.7	95.6307	1741.7	94.146	1741.7	94.3862	1741.7	92.722	1741.7	92.8061	1741.7	90.9719	1741.7	91.0429	1741.7	89.1797	1741.7	89.2916	1741.7	88.1237	1741.7	87.9588	1741.7	86.8233	1741.7	86.691	1741.7	85.0052	1741.7	84.8487	1741.7	83.8535	1741.7	83.17	1741.7	84.4984	1741.7	82.8053	1741.7	85.6286	1741.7	84.5633	1741.7	84.7506	1741.7	84.4305	1741.7	81.239	1741.7	80.4844	1741.7	78.1496	1741.7	76.5563	1741.7	82.01	1741.7	80.7365	1741.7	83.2165
1803.22	97.4649	1803.22	97.2651	1803.22	97.3441	1803.22	96.607	1803.22	96.9565	1803.22	95.466	1803.22	96.1226	1803.22	94.0526	1803.22	94.9084	1803.22	92.5954	1803.22	93.4367	1803.22	90.7479	1803.22	91.7944	1803.22	88.833	1803.22	90.2946	1803.22	87.5948	1803.22	89.1078	1803.22	86.3168	1803.22	87.8755	1803.22	84.7374	1803.22	85.9142	1803.22	82.1304	1803.22	83.5276	1803.22	82.8569	1803.22	83.2184	1803.22	84.9751	1803.22	84.9858	1803.22	84.2631	1803.22	85.0361	1803.22	80.0643	1803.22	81.5563	1803.22	77.1234	1803.22	77.1907	1803.22	82.3716	1803.22	81.9345	1803.22	84.0827
1866.21	98.1455	1866.21	97.8598	1866.21	97.9975	1866.21	97.1065	1866.21	97.4387	1866.21	96.0648	1866.21	96.3653	1866.21	94.8625	1866.21	95.0772	1866.21	93.2861	1866.21	93.7359	1866.21	91.2894	1866.21	92.0743	1866.21	89.3713	1866.21	90.2297	1866.21	87.8844	1866.21	88.6697	1866.21	86.6045	1866.21	87.9308	1866.21	85.0375	1866.21	86.3816	1866.21	82.766	1866.21	83.8128	1866.21	82.3056	1866.21	84.2476	1866.21	84.6603	1866.21	85.8087	1866.21	85.1564	1866.21	85.5092	1866.21	81.5718	1866.21	81.1617	1866.21	73.8923	1866.21	74.7986	1866.21	81.3726	1866.21	80.6746	1866.21	83.1444
1932.13	98.0792	1932.13	97.8641	1932.13	97.7571	1932.13	97.0429	1932.13	96.9791	1932.13	96.083	1932.13	95.5862	1932.13	94.9584	1932.13	94.0487	1932.13	93.3677	1932.13	92.6899	1932.13	91.6885	1932.13	91.1325	1932.13	89.8373	1932.13	89.203	1932.13	88.2174	1932.13	87.1594	1932.13	86.7932	1932.13	85.8613	1932.13	85.0489	1932.13	84.5388	1932.13	83.2436	1932.13	82.9604	1932.13	82.1323	1932.13	82.7625	1932.13	84.9982	1932.13	84.1166	1932.13	85.9075	1932.13	85.5487	1932.13	82.4983	1932.13	82.9943	1932.13	77.2603	1932.13	74.9608	1932.13	80.5408	1932.13	80.9656	1932.13	83.2143
1999.51	97.7557	1999.51	97.3968	1999.51	97.4534	1999.51	96.4554	1999.51	96.5984	1999.51	95.3525	1999.51	95.2662	1999.51	93.8258	1999.51	93.7517	1999.51	92.1627	1999.51	92.1594	1999.51	90.9196	1999.51	90.4843	1999.51	89.1702	1999.51	88.7967	1999.51	87.4873	1999.51	86.7893	1999.51	86.0423	1999.51	85.07	1999.51	83.6433	1999.51	84.3414	1999.51	83.1122	1999.51	82.7779	1999.51	82.7175	1999.51	81.1461	1999.51	84.5867	1999.51	82.8749	1999.51	84.8455	1999.51	84.0576	1999.51	81.7487	1999.51	81.9922	1999.51	77.1165	1999.51	74.2928	1999.51	82.143	1999.51	79.0632	1999.51	82.9498
2069.82	98.3631	2069.82	97.9245	2069.82	98.2638	2069.82	96.9929	2069.82	97.4954	2069.82	95.7076	2069.82	96.212	2069.82	94.069	2069.82	94.7333	2069.82	92.244	2069.82	92.8412	2069.82	90.4191	2069.82	90.8543	2069.82	88.5327	2069.82	89.5256	2069.82	86.5722	2069.82	88.5257	2069.82	85.0371	2069.82	86.9362	2069.82	83.7781	2069.82	85.3981	2069.82	81.0786	2069.82	83.7167	2069.82	80.5949	2069.82	80.6012	2069.82	82.9675	2069.82	82.739	2069.82	83.7717	2069.82	83.6624	2069.82	80.6516	2069.82	82.3038	2069.82	75.6207	2069.82	77.023	2069.82	82.2423	2069.82	82.0979	2069.82	84.661
2143.07	98.7206	2143.07	98.3822	2143.07	98.3541	2143.07	97.5948	2143.07	97.4379	2143.07	96.4678	2143.07	96.2435	2143.07	95.0577	2143.07	94.485	2143.07	93.188	2143.07	92.4391	2143.07	90.9143	2143.07	90.5964	2143.07	88.7406	2143.07	88.9655	2143.07	86.7204	2143.07	87.8741	2143.07	85.337	2143.07	86.697	2143.07	85.238	2143.07	85.0077	2143.07	82.6256	2143.07	82.7959	2143.07	80.0193	2143.07	80.0357	2143.07	81.7241	2143.07	82.5036	2143.07	83.3592	2143.07	83.4414	2143.07	81.3203	2143.07	80.3672	2143.07	70.9003	2143.07	69.9114	2143.07	80.2102	2143.07	78.6264	2143.07	82.8251
2219.24	97.5149	2219.24	97.5476	2219.24	97.2719	2219.24	96.9453	2219.24	96.5294	2219.24	95.7416	2219.24	95.3568	2219.24	94.3323	2219.24	94.151	2219.24	92.458	2219.24	92.3736	2219.24	90.7799	2219.24	90.5075	2219.24	88.73	2219.24	88.2948	2219.24	86.7379	2219.24	85.9247	2219.24	84.5259	2219.24	84.2876	2219.24	85.386	2219.24	83.1286	2219.24	82.9218	2219.24	82.588	2219.24	78.8729	2219.24	81.0743	2219.24	79.0397	2219.24	78.7763	2219.24	83.0384	2219.24	82.6759	2219.24	81.9063	2219.24	82.3612	2219.24	75.1928	2219.24	75.5346	2219.24	76.3982	2219.24	75.6455	2219.24	78.6881
2296.88	98.3045	2296.88	98.0124	2296.88	97.9333	2296.88	96.924	2296.88	97.1142	2296.88	95.4856	2296.88	95.7414	2296.88	93.8209	2296.88	94.3335	2296.88	92.2762	2296.88	92.8479	2296.88	90.5326	2296.88	90.891	2296.88	88.1941	2296.88	88.6278	2296.88	86.0499	2296.88	86.6501	2296.88	84.3356	2296.88	85.4703	2296.88	82.829	2296.88	83.5014	2296.88	82.5222	2296.88	81.814	2296.88	79.7005	2296.88	81.4049	2296.88	79.0594	2296.88	79.4933	2296.88	81.4277	2296.88	81.6277	2296.88	81.2742	2296.88	82.8414	2296.88	76.3592	2296.88	78.0555	2296.88	78.1486	2296.88	76.3028	2296.88	79.2849
2378.91	99.1275	2378.91	98.7826	2378.91	98.7206	2378.91	97.8433	2378.91	97.7031	2378.91	96.5206	2378.91	96.28	2378.91	94.8017	2378.91	94.531	2378.91	92.9209	2378.91	92.8858	2378.91	91.2494	2378.91	91.3891	2378.91	89.2371	2378.91	89.223	2378.91	86.5799	2378.91	86.4577	2378.91	84.7802	2378.91	85.0675	2378.91	83.3564	2378.91	83.3084	2378.91	82.0875	2378.91	81.7063	2378.91	80.5941	2378.91	82.2053	2378.91	78.7585	2378.91	80.425	2378.91	80.8582	2378.91	80.4507	2378.91	81.2613	2378.91	81.3658	2378.91	78.1117	2378.91	78.7288	2378.91	79.7013	2378.91	80.1415	2378.91	82.2012
2462.4	98.6101	2462.4	98.246	2462.4	98.3224	2462.4	97.4656	2462.4	97.5164	2462.4	96.2792	2462.4	96.0371	2462.4	94.6271	2462.4	94.0716	2462.4	92.6288	2462.4	91.9493	2462.4	90.7295	2462.4	90.3822	2462.4	88.9176	2462.4	89.2721	2462.4	87.0163	2462.4	86.6589	2462.4	85.3702	2462.4	84.2085	2462.4	84.2234	2462.4	83.8188	2462.4	82.1397	2462.4	80.8071	2462.4	81.2404	2462.4	79.7457	2462.4	79.9233	2462.4	80.439	2462.4	80.6187	2462.4	80.6116	2462.4	79.2705	2462.4	80.0256	2462.4	74.9308	2462.4	73.5497	2462.4	81.5575	2462.4	78.8107	2462.4	82.5318
2548.83	98.4817	2548.83	98.0033	2548.83	98.2997	2548.83	96.9634	2548.83	97.4328	2548.83	95.4844	2548.83	96.0897	2548.83	93.8006	2548.83	94.3986	2548.83	91.6885	2548.83	92.2874	2548.83	89.4866	2548.83	90.1292	2548.83	87.8543	2548.83	88.5581	2548.83	85.7632	2548.83	86.7976	2548.83	84.5398	2548.83	84.5604	2548.83	83.5152	2548.83	84.0367	2548.83	81.2323	2548.83	82.0428	2548.83	79.0981	2548.83	79.614	2548.83	77.8736	2548.83	79.0346	2548.83	80.7834	2548.83	80.0863	2548.83	79.6538	2548.83	80.9465	2548.83	73.0614	2548.83	75.7344	2548.83	78.9224	2548.83	77.863	2548.83	81.9083
2639.65	99.0014	2639.65	98.5822	2639.65	98.8822	2639.65	97.6498	2639.65	97.9501	2639.65	96.1377	2639.65	96.6598	2639.65	94.3739	2639.65	94.9468	2639.65	92.4223	2639.65	92.986	2639.65	90.1831	2639.65	91.1765	2639.65	88.3315	2639.65	89.5275	2639.65	86.6076	2639.65	87.3675	2639.65	84.7849	2639.65	84.9449	2639.65	84.0582	2639.65	84.6666	2639.65	82.3363	2639.65	83.5652	2639.65	80.5261	2639.65	80.9521	2639.65	77.8313	2639.65	79.2403	2639.65	79.0473	2639.65	79.4659	2639.65	80.1509	2639.65	80.0276	2639.65	73.2016	2639.65	76.4078	2639.65	77.7411	2639.65	75.9331	2639.65	81.5942
2731.93	98.9387	2731.93	98.7011	2731.93	98.6076	2731.93	97.726	2731.93	97.6857	2731.93	96.1981	2731.93	96.2556	2731.93	94.5129	2731.93	94.8576	2731.93	92.8004	2731.93	93.1298	2731.93	90.8758	2731.93	91.0491	2731.93	89.1877	2731.93	89.1107	2731.93	87.3199	2731.93	87.7161	2731.93	84.6893	2731.93	85.6144	2731.93	83.4979	2731.93	84.204	2731.93	82.0719	2731.93	82.687	2731.93	81.1582	2731.93	80.7964	2731.93	79.3522	2731.93	80.5774	2731.93	79.7132	2731.93	79.4481	2731.93	79.8064	2731.93	81.2878	2731.93	75.296	2731.93	76.6565	2731.93	78.0334	2731.93	78.9811	2731.93	81.2081
2828.61	98.7243	2828.61	98.3679	2828.61	98.5214	2828.61	97.4736	2828.61	97.582	2828.61	96.0446	2828.61	96.1854	2828.61	94.2129	2828.61	94.6511	2828.61	92.4013	2828.61	92.9065	2828.61	90.3809	2828.61	90.8916	2828.61	88.5454	2828.61	88.671	2828.61	87.1928	2828.61	87.1307	2828.61	84.4686	2828.61	84.5928	2828.61	82.6385	2828.61	83.4873	2828.61	81.7773	2828.61	82.9918	2828.61	80.3313	2828.61	80.3976	2828.61	80.2771	2828.61	79.3796	2828.61	78.5989	2828.61	79.2212	2828.61	79.3421	2828.61	78.8927	2828.61	72.8014	2828.61	76.5874	2828.61	77.662	2828.61	76.4903	2828.61	82.1611
2928.22	98.7529	2928.22	98.3644	2928.22	98.483	2928.22	97.4038	2928.22	97.6532	2928.22	95.9753	2928.22	96.3529	2928.22	94.1588	2928.22	94.6037	2928.22	92.1596	2928.22	92.6555	2928.22	89.9901	2928.22	90.6715	2928.22	87.6001	2928.22	88.2196	2928.22	86.496	2928.22	86.2483	2928.22	84.6023	2928.22	85.021	2928.22	81.9657	2928.22	82.3815	2928.22	81.4677	2928.22	81.4943	2928.22	78.8173	2928.22	80.1997	2928.22	79.2943	2928.22	79.9854	2928.22	78.4874	2928.22	78.9739	2928.22	80.2672	2928.22	79.6353	2928.22	74.8917	2928.22	74.119	2928.22	77.3046	2928.22	78.5276	2928.22	79.0649
3030.76	98.9727	3030.76	98.6068	3030.76	98.5529	3030.76	97.6951	3030.76	97.7344	3030.76	96.3933	3030.76	96.4799	3030.76	94.7773	3030.76	94.8055	3030.76	92.6755	3030.76	92.8324	3030.76	90.2898	3030.76	90.533	3030.76	88.5118	3030.76	88.0971	3030.76	85.7577	3030.76	86.2795	3030.76	84.0446	3030.76	84.4436	3030.76	82.4695	3030.76	82.3541	3030.76	81.768	3030.76	80.9862	3030.76	80.2325	3030.76	79.8368	3030.76	79.6073	3030.76	79.5721	3030.76	79.3577	3030.76	77.1277	3030.76	79.1639	3030.76	79.5025	3030.76	75.2147	3030.76	74.75	3030.76	77.383	3030.76	76.2649	3030.76	80.6936
3137.7	98.7641	3137.7	98.3823	3137.7	98.4811	3137.7	97.4195	3137.7	97.6711	3137.7	95.9016	3137.7	96.3797	3137.7	94.0896	3137.7	94.6684	3137.7	92.1213	3137.7	92.6171	3137.7	89.8908	3137.7	90.4956	3137.7	87.1813	3137.7	87.9389	3137.7	84.9804	3137.7	85.5886	3137.7	83.6238	3137.7	83.7523	3137.7	81.6122	3137.7	81.2635	3137.7	81.0212	3137.7	81.5347	3137.7	80.3843	3137.7	79.3784	3137.7	79.3389	3137.7	79.3232	3137.7	79.3762	3137.7	78.332	3137.7	79.8654	3137.7	78.776	3137.7	74.606	3137.7	75.1323	3137.7	77.371	3137.7	76.5739	3137.7	80.4688
3249.02	98.9965	3249.02	98.722	3249.02	98.7097	3249.02	97.8674	3249.02	97.8461	3249.02	96.5901	3249.02	96.459	3249.02	94.8601	3249.02	94.6277	3249.02	92.6721	3249.02	92.413	3249.02	90.4304	3249.02	90.175	3249.02	87.5224	3249.02	87.7921	3249.02	85.2363	3249.02	85.2199	3249.02	83.6049	3249.02	83.9285	3249.02	81.7994	3249.02	80.8847	3249.02	79.8343	3249.02	80.1249	3249.02	78.2315	3249.02	79.0465	3249.02	79.1901	3249.02	78.7932	3249.02	76.9136	3249.02	79.2083	3249.02	78.6148	3249.02	78.2965	3249.02	74.3209	3249.02	76.4184	3249.02	75.5183	3249.02	74.0858	3249.02	82.2342
3363.28	98.7909	3363.28	98.4469	3363.28	98.5864	3363.28	97.4968	3363.28	97.7443	3363.28	95.9392	3363.28	96.4606	3363.28	93.9644	3363.28	94.6162	3363.28	92.071	3363.28	92.5795	3363.28	90.0807	3363.28	90.2823	3363.28	87.711	3363.28	88.3329	3363.28	85.3782	3363.28	85.7574	3363.28	83.7795	3363.28	84.1398	3363.28	81.8066	3363.28	81.9858	3363.28	81.518	3363.28	80.9777	3363.28	79.6124	3363.28	79.1461	3363.28	81.6079	3363.28	79.5593	3363.28	80.1293	3363.28	79.2764	3363.28	80.839	3363.28	79.8509	3363.28	76.4924	3363.28	78.0732	3363.28	75.8913	3363.28	72.1605	3363.28	80.3099
3481.93	99.8024	3481.93	99.5063	3481.93	99.3957	3481.93	98.4638	3481.93	98.3816	3481.93	96.9844	3481.93	96.8476	3481.93	95.0579	3481.93	94.8818	3481.93	92.5976	3481.93	92.4862	3481.93	90.3455	3481.93	90.1568	3481.93	88.053	3481.93	87.8979	3481.93	85.1999	3481.93	85.7596	3481.93	83.7465	3481.93	83.6109	3481.93	81.0654	3481.93	82.1641	3481.93	80.6851	3481.93	80.9648	3481.93	78.5863	3481.93	80.0154	3481.93	77.822	3481.93	78.2778	3481.93	79.5409	3481.93	77.2709	3481.93	79.6032	3481.93	79.6048	3481.93	78.535	3481.93	77.9423	3481.93	75.5338	3481.93	76.0976	3481.93	78.9425
3604.98	99.4228	3604.98	99.0021	3604.98	99.1881	3604.98	97.912	3604.98	98.2068	3604.98	96.2797	3604.98	96.6826	3604.98	94.4481	3604.98	94.7085	3604.98	92.0313	3604.98	92.3102	3604.98	89.515	3604.98	89.6965	3604.98	87.6342	3604.98	87.4207	3604.98	85.5658	3604.98	85.2062	3604.98	83.5369	3604.98	82.6551	3604.98	82.0714	3604.98	82.2476	3604.98	81.0524	3604.98	79.3869	3604.98	78.9682	3604.98	79.8398	3604.98	76.9569	3604.98	75.481	3604.98	79.3691	3604.98	76.355	3604.98	79.4684	3604.98	78.0554	3604.98	78.2883	3604.98	78.1625	3604.98	74.5042	3604.98	73.0402	3604.98	79.4414
3732.42	100.047	3732.42	99.7027	3732.42	99.6709	3732.42	98.7877	3732.42	98.6344	3732.42	97.2816	3732.42	97.0923	3732.42	95.1893	3732.42	94.8906	3732.42	92.6761	3732.42	92.5716	3732.42	89.663	3732.42	90.0756	3732.42	87.3445	3732.42	87.6499	3732.42	85.5683	3732.42	85.5903	3732.42	83.2637	3732.42	83.9035	3732.42	81.4416	3732.42	82.9975	3732.42	80.0347	3732.42	80.3918	3732.42	80.0658	3732.42	79.7639	3732.42	76.9923	3732.42	76.3541	3732.42	79.695	3732.42	80.213	3732.42	79.7365	3732.42	78.8951	3732.42	78.9512	3732.42	79.3368	3732.42	73.9645	3732.42	74.0014	3732.42	80.4152
3864.26	99.3869	3864.26	99.0431	3864.26	99.1155	3864.26	98.1482	3864.26	98.3087	3864.26	96.62	3864.26	96.8925	3864.26	94.5185	3864.26	94.711	3864.26	91.9414	3864.26	92.2469	3864.26	89.3657	3864.26	89.7064	3864.26	86.8268	3864.26	86.8782	3864.26	85.3852	3864.26	85.1931	3864.26	83.1704	3864.26	83.1982	3864.26	82.2398	3864.26	81.5909	3864.26	79.9678	3864.26	79.5391	3864.26	79.4666	3864.26	79.3032	3864.26	77.6764	3864.26	76.9146	3864.26	79.3198	3864.26	79.4397	3864.26	78.1122	3864.26	76.7076	3864.26	77.7924	3864.26	78.8928	3864.26	75.8615	3864.26	73.9907	3864.26	80.0903
4000.49	99.7652	4000.49	99.5376	4000.49	99.5069	4000.49	98.6326	4000.49	98.6999	4000.49	97.196	4000.49	97.1191	4000.49	94.949	4000.49	94.9178	4000.49	92.3949	4000.49	92.2827	4000.49	89.8997	4000.49	89.6503	4000.49	87.3429	4000.49	86.8742	4000.49	85.2296	4000.49	85.1684	4000.49	83.0094	4000.49	82.3907	4000.49	81.7408	4000.49	80.4491	4000.49	79.552	4000.49	79.1486	4000.49	78.8514	4000.49	79.2118	4000.49	72.1959	4000.49	75.3813	4000.49	76.8254	4000.49	78.2359	4000.49	76.7253	4000.49	76.2666	4000.49	78.1499	4000.49	78.7656	4000.49	74.4403	4000.49	73.4583	4000.49	79.5971
4141.11	99.3732	4141.11	98.9429	4141.11	99.1619	4141.11	98.0153	4141.11	98.3484	4141.11	96.538	4141.11	96.759	4141.11	94.2856	4141.11	94.4536	4141.11	91.5766	4141.11	91.7562	4141.11	89.0385	4141.11	88.7786	4141.11	86.7631	4141.11	86.5868	4141.11	84.5201	4141.11	84.8112	4141.11	82.9133	4141.11	83.637	4141.11	81.3867	4141.11	81.5479	4141.11	78.7704	4141.11	79.4757	4141.11	78.8568	4141.11	78.2951	4141.11	75.935	4141.11	76.7296	4141.11	75.6459	4141.11	75.7311	4141.11	77.1171	4141.11	74.9046	4141.11	78.9148	4141.11	77.3243	4141.11	75.7773	4141.11	71.3328	4141.11	79.0425
4287.6	99.485	4287.6	99.0647	4287.6	99.1406	4287.6	98.1637	4287.6	98.2545	4287.6	96.4297	4287.6	96.5066	4287.6	94.1668	4287.6	94.0989	4287.6	91.2424	4287.6	91.1231	4287.6	89.0428	4287.6	88.7083	4287.6	86.554	4287.6	86.5367	4287.6	84.4409	4287.6	84.0572	4287.6	82.5808	4287.6	82.8785	4287.6	80.5374	4287.6	80.6347	4287.6	78.9602	4287.6	79.7048	4287.6	77.1754	4287.6	76.2756	4287.6	76.8888	4287.6	75.0624	4287.6	76.9691	4287.6	76.406	4287.6	74.0416	4287.6	76.6171	4287.6	77.253	4287.6	77.4033	4287.6	72.1462	4287.6	70.1827	4287.6	78.8389
4438.48	99.2786	4438.48	98.8735	4438.48	99.0264	4438.48	97.9452	4438.48	98.099	4438.48	96.1668	4438.48	96.3509	4438.48	93.6857	4438.48	93.8763	4438.48	91.1968	4438.48	91.1609	4438.48	88.464	4438.48	88.8871	4438.48	86.4478	4438.48	86.6516	4438.48	85.3057	4438.48	84.8038	4438.48	83.1711	4438.48	81.7234	4438.48	81.5329	4438.48	80.9977	4438.48	80.2447	4438.48	79.2214	4438.48	78.103	4438.48	77.7331	4438.48	76.9918	4438.48	77.9547	4438.48	76.2377	4438.48	73.8462	4438.48	74.6024	4438.48	74.7296	4438.48	75.4546	4438.48	78.1326	4438.48	71.7515	4438.48	71.8721	4438.48	78.8914
4595.21	99.109	4595.21	98.8889	4595.21	98.8527	4595.21	97.9871	4595.21	98.0275	4595.21	96.2094	4595.21	95.9384	4595.21	93.3882	4595.21	93.2619	4595.21	90.5714	4595.21	90.6189	4595.21	88.6456	4595.21	88.349	4595.21	86.7834	4595.21	86.5029	4595.21	84.199	4595.21	85.2676	4595.21	82.4479	4595.21	83.499	4595.21	81.204	4595.21	80.674	4595.21	78.8367	4595.21	78.5323	4595.21	78.1442	4595.21	78.6621	4595.21	75.7372	4595.21	76.4269	4595.21	74.8743	4595.21	74.8491	4595.21	74.7045	4595.21	75.9077	4595.21	77.693	4595.21	76.8754	4595.21	71.867	4595.21	62.2493	4595.21	77.8063
4756.35	99.5112	4756.35	98.9942	4756.35	99.1654	4756.35	98.0663	4756.35	98.2284	4756.35	96.0373	4756.35	96.2347	4756.35	93.5469	4756.35	93.4018	4756.35	91.1599	4756.35	91.2348	4756.35	89.3339	4756.35	89.1679	4756.35	87.4913	4756.35	87.5534	4756.35	85.0064	4756.35	85.2549	4756.35	82.9539	4756.35	83.8192	4756.35	81.2368	4756.35	81.5122	4756.35	79.7724	4756.35	79.6326	4756.35	77.3062	4756.35	77.3139	4756.35	77.2332	4756.35	76.0549	4756.35	76.2334	4756.35	72.1762	4756.35	75.5486	4756.35	74.8548	4756.35	77.947	4756.35	77.6448	4756.35	68.8167	4756.35	72.8477	4756.35	77.3816
4924.8	99.0027	4924.8	98.7742	4924.8	98.7408	4924.8	97.5965	4924.8	97.5364	4924.8	95.8035	4924.8	95.4298	4924.8	93.0055	4924.8	93.1413	4924.8	91.3522	4924.8	91.1473	4924.8	89.3934	4924.8	89.3285	4924.8	87.9603	4924.8	87.4601	4924.8	85.6845	4924.8	84.6603	4924.8	82.9325	4924.8	82.0341	4924.8	81.9006	4924.8	80.9328	4924.8	79.4862	4924.8	78.839	4924.8	77.7476	4924.8	77.7994	4924.8	75.9507	4924.8	77.3733	4924.8	72.2182	4924.8	74.9705	4924.8	75.0093	4924.8	76.315	4924.8	74.172	4924.8	75.2686	4924.8	72.8599	4924.8	68.6359	4924.8	77.6098
5097.66	99.1519	5097.66	98.9002	5097.66	98.6952	5097.66	97.8428	5097.66	97.6534	5097.66	95.7957	5097.66	95.4321	5097.66	93.792	5097.66	93.2119	5097.66	91.9051	5097.66	91.642	5097.66	90.3833	5097.66	89.8186	5097.66	87.2631	5097.66	87.478	5097.66	84.6845	5097.66	85.1042	5097.66	82.7664	5097.66	83.0092	5097.66	80.5379	5097.66	80.2769	5097.66	78.3983	5097.66	78.9257	5097.66	77.9655	5097.66	77.5294	5097.66	76.6833	5097.66	76.2794	5097.66	74.1207	5097.66	73.3542	5097.66	75.3979	5097.66	76.2082	5097.66	76.0485	5097.66	74.3877	5097.66	73.8989	5097.66	68.8676	5097.66	79.2507
5277.83	98.9437	5277.83	98.4576	5277.83	98.533	5277.83	97.243	5277.83	97.2932	5277.83	95.254	5277.83	95.3794	5277.83	93.3276	5277.83	93.4379	5277.83	91.9262	5277.83	91.9715	5277.83	89.5283	5277.83	89.6371	5277.83	87.2915	5277.83	87.1886	5277.83	84.32	5277.83	83.6609	5277.83	81.3539	5277.83	80.9377	5277.83	79.153	5277.83	80.2581	5277.83	78.1309	5277.83	78.39	5277.83	77.1491	5277.83	75.8645	5277.83	75.2782	5277.83	75.5421	5277.83	72.2901	5277.83	72.809	5277.83	75.0382	5277.83	74.4895	5277.83	73.6094	5277.83	74.1841	5277.83	68.7369	5277.83	73.1278	5277.83	76.5485
5463.87	98.8269	5463.87	98.4639	5463.87	98.4493	5463.87	97.2583	5463.87	97.2088	5463.87	95.4056	5463.87	95.3216	5463.87	93.7788	5463.87	93.657	5463.87	91.9543	5463.87	91.8162	5463.87	89.3878	5463.87	89.3612	5463.87	86.4199	5463.87	86.3288	5463.87	83.4564	5463.87	83.5154	5463.87	81.3712	5463.87	80.6282	5463.87	78.3881	5463.87	77.8069	5463.87	75.8168	5463.87	77.2781	5463.87	74.9105	5463.87	75.8911	5463.87	75.205	5463.87	73.3811	5463.87	71.4128	5463.87	71.6547	5463.87	72.7065	5463.87	74.5005	5463.87	70.8887	5463.87	71.0043	5463.87	69.0666	5463.87	68.2757	5463.87	74.7057
5657.23	99.1167	5657.23	98.8144	5657.23	98.5679	5657.23	97.4858	5657.23	97.178	5657.23	95.8162	5657.23	95.3883	5657.23	93.8933	5657.23	93.3972	5657.23	91.8439	5657.23	91.298	5657.23	88.5902	5657.23	88.1579	5657.23	84.9966	5657.23	84.7113	5657.23	81.0474	5657.23	81.0837	5657.23	78.0228	5657.23	78.653	5657.23	76.3663	5657.23	77.2731	5657.23	75.784	5657.23	75.8787	5657.23	73.434	5657.23	73.9298	5657.23	74.2639	5657.23	73.3587	5657.23	68.3735	5657.23	70.2287	5657.23	72.3647	5657.23	72.7962	5657.23	71.5752	5657.23	67.9903	5657.23	66.0736	5657.23	66.5141	5657.23	74.4094
5856.45	98.9898	5856.45	98.6935	5856.45	98.5182	5856.45	97.3944	5856.45	96.9822	5856.45	95.4785	5856.45	94.9012	5856.45	93.5609	5856.45	93.0445	5856.45	91.0457	5856.45	90.5249	5856.45	87.2274	5856.45	87.1707	5856.45	83.3004	5856.45	83.4036	5856.45	80.802	5856.45	80.6885	5856.45	78.4733	5856.45	78.0214	5856.45	76.6994	5856.45	75.7011	5856.45	74.2806	5856.45	74.1339	5856.45	73.6081	5856.45	71.6424	5856.45	72.8125	5856.45	72.2869	5856.45	69.843	5856.45	68.9002	5856.45	72.2009	5856.45	69.8733	5856.45	68.9546	5856.45	67.5292	5856.45	67.6852	5856.45	70.1376	5856.45	73.8341
6062.99	99.3493	6062.99	98.8979	6062.99	98.7393	6062.99	97.3163	6062.99	97.0971	6062.99	95.4497	6062.99	95.122	6062.99	93.5204	6062.99	92.9068	6062.99	90.5893	6062.99	90.4161	6062.99	86.9963	6062.99	86.5327	6062.99	83.2586	6062.99	82.714	6062.99	80.3444	6062.99	79.9287	6062.99	78.3742	6062.99	77.6136	6062.99	77.7999	6062.99	75.9162	6062.99	75.9325	6062.99	74.2908	6062.99	72.8721	6062.99	72.8892	6062.99	72.894	6062.99	71.5174	6062.99	68.964	6062.99	68.1364	6062.99	68.9566	6062.99	71.0127	6062.99	68.0828	6062.99	63.2754	6062.99	68.3079	6062.99	65.7574	6062.99	72.3827
6276.86	99.3759	6276.86	98.8372	6276.86	98.6752	6276.86	97.1057	6276.86	96.9296	6276.86	95.2485	6276.86	94.7348	6276.86	93.1231	6276.86	92.6418	6276.86	89.9511	6276.86	89.576	6276.86	86.0008	6276.86	85.2861	6276.86	82.1244	6276.86	81.4149	6276.86	80.3119	6276.86	79.7349	6276.86	78.6657	6276.86	77.4726	6276.86	76.7169	6276.86	75.366	6276.86	74.8381	6276.86	73.4006	6276.86	73.3857	6276.86	72.7333	6276.86	71.4801	6276.86	70.465	6276.86	70.643	6276.86	72.5443	6276.86	70.1846	6276.86	69.6797	6276.86	66.1099	6276.86	61.5458	6276.86	65.8737	6276.86	64.8759	6276.86	73.2518
6498.05	99.4673	6498.05	98.9256	6498.05	98.774	6498.05	97.1146	6498.05	96.8035	6498.05	95.2266	6498.05	94.6499	6498.05	93.0617	6498.05	92.3901	6498.05	89.4301	6498.05	88.7988	6498.05	85.5519	6498.05	84.5031	6498.05	82.9652	6498.05	81.6978	6498.05	80.9999	6498.05	79.3262	6498.05	79.3672	6498.05	78.6955	6498.05	77.9525	6498.05	76.5551	6498.05	75.9508	6498.05	75.7181	6498.05	73.4587	6498.05	74.0803	6498.05	73.3287	6498.05	71.7092	6498.05	72.6	6498.05	71.3328	6498.05	69.9582	6498.05	70.1312	6498.05	62.9874	6498.05	64.1697	6498.05	68.5759	6498.05	67.2713	6498.05	71.7858
6726.56	99.6545	6726.56	99.1051	6726.56	98.9323	6726.56	97.3331	6726.56	96.9083	6726.56	95.6837	6726.56	94.9621	6726.56	93.4102	6726.56	92.6557	6726.56	89.6669	6726.56	88.7067	6726.56	86.0338	6726.56	84.5367	6726.56	84.0401	6726.56	82.7606	6726.56	82.4554	6726.56	81.5421	6726.56	80.3398	6726.56	79.4084	6726.56	77.9829	6726.56	77.6762	6726.56	76.4279	6726.56	75.1824	6726.56	75.7499	6726.56	75.841	6726.56	73.8125	6726.56	72.6753	6726.56	73.5493	6726.56	72.5283	6726.56	72.1037	6726.56	71.184	6726.56	66.4959	6726.56	66.9035	6726.56	67.1728	6726.56	66.6035	6726.56	74.4555
6963.87	99.5761	6963.87	98.8987	6963.87	98.6932	6963.87	97.2802	6963.87	96.7427	6963.87	95.8597	6963.87	95.0998	6963.87	93.589	6963.87	92.5677	6963.87	89.7169	6963.87	88.6032	6963.87	86.9518	6963.87	85.6492	6963.87	85.1715	6963.87	84.8755	6963.87	83.2848	6963.87	82.7411	6963.87	80.8913	6963.87	79.8759	6963.87	78.8258	6963.87	78.5117	6963.87	77.0714	6963.87	76.6536	6963.87	75.4146	6963.87	75.3916	6963.87	74.1983	6963.87	74.1241	6963.87	73.5238	6963.87	72.0156	6963.87	71.0697	6963.87	71.2917	6963.87	65.4305	6963.87	68.1392	6963.87	69.2548	6963.87	67.9417	6963.87	72.4444
7209.96	99.5391	7209.96	98.9528	7209.96	98.6003	7209.96	97.3562	7209.96	96.759	7209.96	96.1796	7209.96	95.3723	7209.96	93.4718	7209.96	92.5387	7209.96	89.8748	7209.96	88.6158	7209.96	87.8192	7209.96	86.6724	7209.96	85.9302	7209.96	85.1743	7209.96	83.1656	7209.96	82.7272	7209.96	80.7679	7209.96	80.462	7209.96	78.0302	7209.96	77.7671	7209.96	76.8011	7209.96	76.766	7209.96	75.6802	7209.96	74.5243	7209.96	73.9381	7209.96	74.1767	7209.96	72.3291	7209.96	71.2165	7209.96	71.4308	7209.96	69.0427	7209.96	60.1082	7209.96	69.8067	7209.96	67.4941	7209.96	67.7053	7209.96	74.2331
7464.84	99.5679	7464.84	98.9529	7464.84	98.5947	7464.84	97.6119	7464.84	96.8396	7464.84	96.1389	7464.84	95.3753	7464.84	93.19	7464.84	92.0996	7464.84	90.0345	7464.84	88.9748	7464.84	88.2425	7464.84	87.4023	7464.84	85.8357	7464.84	84.9133	7464.84	82.6782	7464.84	82.1242	7464.84	79.8585	7464.84	79.4769	7464.84	77.7614	7464.84	76.7519	7464.84	75.8991	7464.84	74.2646	7464.84	74.6837	7464.84	74.1015	7464.84	74.1373	7464.84	73.0291	7464.84	72.0525	7464.84	72.4462	7464.84	68.5198	7464.84	66.18	7464.84	64.5136	7464.84	66.5802	7464.84	66.4851	7464.84	67.3327	7464.84	70.733
7727.05	99.531	7727.05	98.8662	7727.05	98.5162	7727.05	97.5382	7727.05	96.9647	7727.05	95.8757	7727.05	95.3238	7727.05	92.923	7727.05	92.092	7727.05	90.3379	7727.05	89.2562	7727.05	88.0648	7727.05	87.276	7727.05	84.9609	7727.05	84.17	7727.05	81.5872	7727.05	81.1402	7727.05	78.7316	7727.05	77.7692	7727.05	76.7437	7727.05	75.3419	7727.05	74.5095	7727.05	73.005	7727.05	72.9066	7727.05	72.5244	7727.05	72.456	7727.05	70.6114	7727.05	71.1773	7727.05	69.4455	7727.05	69.4714	7727.05	69.3664	7727.05	58.1281	7727.05	64.7988	7727.05	66.4815	7727.05	68.4932	7727.05	67.2058
7999.51	99.5214	7999.51	98.9449	7999.51	98.5687	7999.51	97.4939	7999.51	97.0142	7999.51	95.6392	7999.51	94.9954	7999.51	92.6074	7999.51	91.4916	7999.51	89.7481	7999.51	88.7996	7999.51	87.2175	7999.51	86.5402	7999.51	83.796	7999.51	82.99	7999.51	80.2711	7999.51	78.9166	7999.51	77.5309	7999.51	76.0142	7999.51	75.6054	7999.51	74.4081	7999.51	73.0649	7999.51	72.4058	7999.51	73.355	7999.51	72.342	7999.51	70.7766	7999.51	71.3951	7999.51	71.198	7999.51	66.508	7999.51	67.0987	7999.51	64.261	7999.51	63.0059	7999.51	66.8424	7999.51	63.982	7999.51	64.1643	7999.51	67.9035
8282.23	99.5989	8282.23	98.9865	8282.23	98.5897	8282.23	97.5288	8282.23	97.1307	8282.23	95.5203	8282.23	94.8551	8282.23	92.3013	8282.23	91.229	8282.23	89.6578	8282.23	89.0353	8282.23	86.5957	8282.23	86.1678	8282.23	82.6163	8282.23	82.18	8282.23	79.74	8282.23	78.0535	8282.23	77.0413	8282.23	75.6371	8282.23	75.466	8282.23	74.1301	8282.23	73.4452	8282.23	72.6634	8282.23	72.2729	8282.23	71.2505	8282.23	71.5505	8282.23	70.1871	8282.23	69.1911	8282.23	68.2909	8282.23	66.5983	8282.23	66.7682	8282.23	65.5887	8282.23	65.5498	8282.23	63.9529	8282.23	65.826	8282.23	64.9169
8573.73	99.7405	8573.73	99.1033	8573.73	98.7934	8573.73	97.6706	8573.73	97.4187	8573.73	95.4964	8573.73	94.8055	8573.73	92.3131	8573.73	91.5146	8573.73	89.5194	8573.73	89.5215	8573.73	86.1279	8573.73	85.9182	8573.73	82.3181	8573.73	80.8483	8573.73	79.2328	8573.73	77.8622	8573.73	77.4031	8573.73	76.1703	8573.73	75.259	8573.73	74.2625	8573.73	74.7083	8573.73	72.9853	8573.73	72.1941	8573.73	71.8302	8573.73	71.2673	8573.73	71.0294	8573.73	70.2027	8573.73	68.1716	8573.73	67.9146	8573.73	68.581	8573.73	65.6298	8573.73	63.3175	8573.73	63.2322	8573.73	65.5398	8573.73	64.4402
8876.95	99.9303	8876.95	99.2147	8876.95	98.9325	8876.95	97.9384	8876.95	97.7363	8876.95	95.6008	8876.95	95.0039	8876.95	92.7656	8876.95	92.4858	8876.95	90.027	8876.95	89.9823	8876.95	85.9139	8876.95	85.3349	8876.95	82.0761	8876.95	81.4026	8876.95	79.7568	8876.95	79.9673	8876.95	78.3291	8876.95	78.6064	8876.95	76.5962	8876.95	76.1877	8876.95	74.8468	8876.95	74.1944	8876.95	73.4084	8876.95	72.7409	8876.95	71.1385	8876.95	71.3131	8876.95	69.8957	8876.95	70.2304	8876.95	67.7201	8876.95	69.9489	8876.95	68.5754	8876.95	62.5637	8876.95	61.884	8876.95	66.8755	8876.95	66.0376
9188.96	99.6989	9188.96	99.2109	9188.96	99.0172	9188.96	98.2424	9188.96	98.096	9188.96	95.7128	9188.96	95.4108	9188.96	92.9212	9188.96	93.4166	9188.96	90.0378	9188.96	90.2032	9188.96	85.763	9188.96	85.6117	9188.96	82.936	9188.96	83.7053	9188.96	80.5887	9188.96	81.5112	9188.96	78.3926	9188.96	78.8066	9188.96	76.1305	9188.96	76.5056	9188.96	74.4818	9188.96	74.3592	9188.96	73.1341	9188.96	72.6508	9188.96	71.5612	9188.96	73.1431	9188.96	69.021	9188.96	70.7739	9188.96	69.5438	9188.96	68.3059	9188.96	64.1489	9188.96	66.2867	9188.96	61.8183	9188.96	63.9327	9188.96	66.9511
9514.16	99.508	9514.16	99.3282	9514.16	99.1289	9514.16	98.4536	9514.16	98.3375	9514.16	95.5108	9514.16	95.3739	9514.16	92.8802	9514.16	93.452	9514.16	89.1965	9514.16	89.7278	9514.16	84.7448	9514.16	85.8916	9514.16	82.9782	9514.16	84.1617	9514.16	80.4837	9514.16	81.3092	9514.16	77.8175	9514.16	77.3548	9514.16	75.7959	9514.16	75.7658	9514.16	73.0924	9514.16	74.1929	9514.16	72.2537	9514.16	72.875	9514.16	68.1976	9514.16	71.633	9514.16	69.4333	9514.16	72.4424	9514.16	70.847	9514.16	67.5252	9514.16	65.7245	9514.16	65.1656	9514.16	64.104	9514.16	69.1685	9514.16	64.8099
9849.61	100.014	9849.61	99.9929	9849.61	99.7959	9849.61	98.6403	9849.61	98.4802	9849.61	95.3241	9849.61	95.0414	9849.61	92.9872	9849.61	92.8278	9849.61	89.0982	9849.61	88.261	9849.61	86.0433	9849.61	86.1518	9849.61	84.0148	9849.61	84.2077	9849.61	81.306	9849.61	80.8018	9849.61	77.9949	9849.61	78.1724	9849.61	76.1396	9849.61	75.3157	9849.61	73.3379	9849.61	73.5021	9849.61	71.4232	9849.61	69.9934	9849.61	66.3702	9849.61	69.5707	9849.61	73.5761	9849.61	73.5826	9849.61	72.766	9849.61	67.3538	9849.61	68.8743	9849.61	63.1683	9849.61	62.4754	9849.61	69.8018	9849.61	62.2419
10196.8	100.358	10196.8	100.16	10196.8	100.419	10196.8	98.455	10196.8	98.7045	10196.8	95.1173	10196.8	95.3805	10196.8	92.8621	10196.8	93.0473	10196.8	89.0108	10196.8	88.9952	10196.8	86.4905	10196.8	86.8231	10196.8	83.9004	10196.8	83.4667	10196.8	79.5002	10196.8	78.9005	10196.8	76.4619	10196.8	76.7745	10196.8	73.4788	10196.8	73.0399	10196.8	73.003	10196.8	71.8344	10196.8	69.5631	10196.8	69.8111	10196.8	62.0017	10196.8	69.593	10196.8	70.5735	10196.8	69.6458	10196.8	68.615	10196.8	67.3348	10196.8	64.3512	10196.8	66.463	10196.8	64.7522	10196.8	64.0785	10196.8	68.8362
10555.7	100.186	10555.7	100.097	10555.7	100.293	10555.7	98.3934	10555.7	98.4191	10555.7	94.6241	10555.7	95.193	10555.7	92.0566	10555.7	93.0933	10555.7	88.1283	10555.7	89.5482	10555.7	84.7458	10555.7	86.1575	10555.7	81.2763	10555.7	81.4453	10555.7	76.2163	10555.7	76.796	10555.7	73.2663	10555.7	73.7295	10555.7	71.0126	10555.7	73.7664	10555.7	71.2538	10555.7	72.6358	10555.7	69.9318	10555.7	69.1651	10555.7	45.2076	10555.7	63.4799	10555.7	70.5758	10555.7	73.4228	10555.7	68.5912	10555.7	68.8977	10555.7	69.0126	10555.7	61.4663	10555.7	67.3921	10555.7	63.3842	10555.7	62.8742
10927.7	99.621	10927.7	100.016	10927.7	99.8385	10927.7	97.9578	10927.7	97.98	10927.7	95.1153	10927.7	95.094	10927.7	92.2113	10927.7	92.954	10927.7	87.4356	10927.7	89.1021	10927.7	84.0801	10927.7	85.6249	10927.7	78.6918	10927.7	80.4335	10927.7	74.3952	10927.7	77.346	10927.7	73.0116	10927.7	74.3508	10927.7	72.5343	10927.7	73.118	10927.7	70.5297	10927.7	71.6043	10927.7	69.7641	10927.7	71.8273	10927.7	59.2797	10927.7	68.2347	10927.7	69.9442	10927.7	72.7591	10927.7	68.0651	10927.7	66.7953	10927.7	68.7651	10927.7	66.8917	10927.7	52.4421	10927.7	58.0673	10927.7	67.2917
11313	98.9388	11313	99.9079	11313	99.6891	11313	97.9213	11313	97.8599	11313	95.9867	11313	95.6733	11313	92.4487	11313	92.7402	11313	88.7435	11313	89.548	11313	85.1412	11313	84.6552	11313	80.9755	11313	80.6367	11313	78.9327	11313	78.4435	11313	76.4427	11313	77.3956	11313	73.848	11313	75.2878	11313	72.4648	11313	71.7265	11313	71.4747	11313	72.3989	11313	64.7278	11313	66.8462	11313	69.4792	11313	70.2571	11313	69.4982	11313	70.6307	11313	65.5967	11313	68.6554	11313	58.3692	11313	61.0061	11313	64.9857
11712.9	99.0893	11712.9	99.8495	11712.9	100.163	11712.9	98.0512	11712.9	98.0193	11712.9	96.1518	11712.9	96.0598	11712.9	92.4097	11712.9	93.0842	11712.9	90.2008	11712.9	89.7828	11712.9	84.718	11712.9	84.6893	11712.9	81.4376	11712.9	82.7999	11712.9	79.0989	11712.9	81.2637	11712.9	77.3925	11712.9	77.7066	11712.9	72.7107	11712.9	75.8128	11712.9	71.9264	11712.9	73.7045	11712.9	70.2638	11712.9	71.74	11712.9	68.2971	11712.9	65.4193	11712.9	68.9787	11712.9	68.9281	11712.9	69.2323	11712.9	70.096	11712.9	68.0966	11712.9	67.5892	11712.9	67.8745	11712.9	66.0048	11712.9	63.0657
12126	99.7446	12126	99.9619	12126	100.299	12126	97.8448	12126	98.5233	12126	95.5863	12126	96.1922	12126	92.0155	12126	93.043	12126	88.5081	12126	89.526	12126	82.857	12126	85.6284	12126	81.9155	12126	83.1952	12126	79.392	12126	80.3752	12126	76.5805	12126	76.4576	12126	72.7908	12126	75.0181	12126	70.176	12126	72.098	12126	64.166	12126	70.0717	12126	68.5458	12126	69.2618	12126	66.7105	12126	66.8811	12126	68.9447	12126	67.5027	12126	66.6406	12126	65.4591	12126	62.0828	12126	67.2206	12126	66.863
12553.7	99.9719	12553.7	99.9044	12553.7	100.37	12553.7	97.9636	12553.7	98.9679	12553.7	95.3167	12553.7	96.0294	12553.7	92.4444	12553.7	92.8931	12553.7	87.4529	12553.7	88.4834	12553.7	83.0213	12553.7	84.5671	12553.7	80.4528	12553.7	81.8665	12553.7	78.6442	12553.7	77.9579	12553.7	76.2105	12553.7	74.6511	12553.7	73.5942	12553.7	73.1809	12553.7	66.3197	12553.7	70.9045	12553.7	64.5588	12553.7	66.6294	12553.7	70.8233	12553.7	68.9412	12553.7	65.2283	12553.7	66.7175	12553.7	69.9776	12553.7	64.0546	12553.7	67.8593	12553.7	51.8617	12553.7	64.8985	12553.7	56.2448	12553.7	67.4007
12996.1	100.369	12996.1	100.241	12996.1	100.572	12996.1	98.8026	12996.1	99.4224	12996.1	95.451	12996.1	96.406	12996.1	92.4032	12996.1	93.5169	12996.1	85.8096	12996.1	88.1517	12996.1	82.9012	12996.1	84.7966	12996.1	80.677	12996.1	81.3727	12996.1	77.5381	12996.1	77.8865	12996.1	74.9539	12996.1	74.5257	12996.1	73.0194	12996.1	73.5445	12996.1	69.6751	12996.1	72.4032	12996.1	69.9168	12996.1	68.1859	12996.1	70.3819	12996.1	60.3027	12996.1	63.8886	12996.1	64.047	12996.1	62.7151	12996.1	61.8969	12996.1	72.1308	12996.1	62.6214	12996.1	70.4353	12996.1	60.8624	12996.1	64.788
13454.6	100.311	13454.6	100.01	13454.6	100.632	13454.6	99.3241	13454.6	100.077	13454.6	95.9389	13454.6	96.7329	13454.6	92.7086	13454.6	93.6343	13454.6	87.2588	13454.6	88.5593	13454.6	84.4966	13454.6	85.501	13454.6	81.0461	13454.6	81.0485	13454.6	77.4967	13454.6	77.6079	13454.6	75.8397	13454.6	75.7332	13454.6	72.8572	13454.6	73.3055	13454.6	70.8652	13454.6	70.2307	13454.6	71.3003	13454.6	69.876	13454.6	66.8658	13454.6	64.9808	13454.6	66.2285	13454.6	65.6209	13454.6	61.8903	13454.6	59.3241	13454.6	71.3823	13454.6	56.7587	13454.6	60.0142	13454.6	62.3803	13454.6	64.7229
13929.2	101.213	13929.2	100.507	13929.2	100.98	13929.2	99.7237	13929.2	100.65	13929.2	96.1993	13929.2	97.1348	13929.2	92.8258	13929.2	93.5429	13929.2	88.3412	13929.2	89.7028	13929.2	84.2309	13929.2	85.1032	13929.2	81.0747	13929.2	81.7204	13929.2	78.2191	13929.2	78.8545	13929.2	74.5435	13929.2	76.8825	13929.2	72.534	13929.2	72.7258	13929.2	70.1966	13929.2	69.0686	13929.2	70.6319	13929.2	69.4917	13929.2	64.8091	13929.2	67.4047	13929.2	66.5893	13929.2	62.9847	13929.2	63.7615	13929.2	58.3431	13929.2	71.6323	13929.2	61.0902	13929.2	67.5041	13929.2	58.3409	13929.2	64.6871
14419.9	101.954	14419.9	100.52	14419.9	101.13	14419.9	99.3074	14419.9	100.182	14419.9	95.6803	14419.9	96.565	14419.9	91.8112	14419.9	92.4993	14419.9	87.8565	14419.9	88.8392	14419.9	82.5192	14419.9	82.7659	14419.9	79.5952	14419.9	80.0564	14419.9	76.4291	14419.9	76.8836	14419.9	71.9954	14419.9	73.9604	14419.9	71.3821	14419.9	69.6722	14419.9	68.7659	14419.9	64.6936	14419.9	66.671	14419.9	66.67	14419.9	63.8981	14419.9	67.0488	14419.9	62.3474	14419.9	55.6789	14419.9	68.6497	14419.9	56.0938	14419.9	68.4352	14419.9	53.1835	14419.9	62.6497	14419.9	67.5392	14419.9	64.2192
14928.2	102.163	14928.2	100.798	14928.2	101.211	14928.2	98.9412	14928.2	99.7336	14928.2	94.979	14928.2	95.941	14928.2	90.0192	14928.2	90.8106	14928.2	85.9401	14928.2	85.7998	14928.2	78.9634	14928.2	80.6348	14928.2	75.4355	14928.2	77.1726	14928.2	72.2982	14928.2	73.8687	14928.2	68.0458	14928.2	72.0859	14928.2	67.9097	14928.2	67.331	14928.2	65.2294	14928.2	62.7339	14928.2	61.4355	14928.2	65.4723	14928.2	59.3494	14928.2	61.989	14928.2	58.7221	14928.2	62.6815	14928.2	61.2513	14928.2	51.9022	14928.2	63.9944	14928.2	57.0696	14928.2	57.3801	14928.2	55.9794	14928.2	62.8776
15455.6	101.894	15455.6	100.676	15455.6	101.106	15455.6	97.9826	15455.6	99.0289	15455.6	93.5206	15455.6	94.7122	15455.6	87.1075	15455.6	88.9004	15455.6	80.611	15455.6	82.7505	15455.6	72.8813	15455.6	77.8034	15455.6	65.8548	15455.6	73.5798	15455.6	64.0462	15455.6	69.2763	15455.6	62.0066	15455.6	67.4405	15455.6	63.3929	15455.6	63.0652	15455.6	56.8207	15455.6	62.2919	15455.6	47.7684	15455.6	63.8904	15455.6	54.8431	15455.6	60.342	15455.6	57.1917	15455.6	60.0368	15455.6	53.7133	15455.6	42.0681	15455.6	58.104	15455.6	53.1358	15455.6	54.7607	15455.6	56.6627	15455.6	55.4461
16000.5	101.679	16000.5	100.44	16000.5	100.54	16000.5	96.8903	16000.5	97.3667	16000.5	90.6552	16000.5	91.6042	16000.5	81.9893	16000.5	84.9503	16000.5	70.2645	16000.5	76.9853	16000.5	49.0035	16000.5	66.6848	16000.5	52.738	16000.5	59.8774	16000.5	51.7115	16000.5	57.9241	16000.5	52.4668	16000.5	52.2672	16000.5	51.9106	16000.5	49.6508	16000.5	46.4343	16000.5	51.0637	16000.5	54.0952	16000.5	52.7417	16000.5	48.5804	16000.5	51.9826	16000.5	52.8271	16000.5	49.445	16000.5	61.7134	16000.5	38.6907	16000.5	60.6878	16000.5	56.4747	16000.5	59.099	16000.5	55.6826	16000.5	59.0063
16564.5	101.687	16564.5	100.119	16564.5	100.09	16564.5	95.4917	16564.5	95.6301	16564.5	85.8656	16564.5	86.8687	16564.5	72.1856	16564.5	77.3113	16564.5	72.8503	16564.5	71.0342	16564.5	73.047	16564.5	68.925	16564.5	71.2992	16564.5	66.7272	16564.5	67.5101	16564.5	61.6584	16564.5	65.5948	16564.5	57.0942	16564.5	56.7423	16564.5	57.7714	16564.5	56.3671	16564.5	57.7899	16564.5	55.669	16564.5	56.4081	16564.5	56.2166	16564.5	54.0708	16564.5	51.0361	16564.5	46.8506	16564.5	47.4467	16564.5	47.1029	16564.5	43.239	16564.5	55.8116	16564.5	54.2328	16564.5	56.4618	16564.5	42.0021
17148.9	101.53	17148.9	99.6588	17148.9	99.4273	17148.9	93.7038	17148.9	93.3572	17148.9	76.9521	17148.9	75.6848	17148.9	79.7451	17148.9	78.8085	17148.9	80.5946	17148.9	79.5342	17148.9	78.7922	17148.9	76.9073	17148.9	76.6999	17148.9	73.7589	17148.9	72.1813	17148.9	70.6168	17148.9	69.6443	17148.9	64.2592	17148.9	61.5585	17148.9	66.3129	17148.9	63.7379	17148.9	65.2417	17148.9	63.5676	17148.9	61.755	17148.9	59.0959	17148.9	59.0582	17148.9	53.9671	17148.9	59.5855	17148.9	49.1364	17148.9	56.0538	17148.9	46.7185	17148.9	57.8458	17148.9	56.2116	17148.9	60.8441	17148.9	56.8872
17752.4	100.738	17752.4	98.751	17752.4	98.3746	17752.4	92.2959	17752.4	91.1024	17752.4	79.5028	17752.4	74.3443	17752.4	83.076	17752.4	82.03	17752.4	82.4707	17752.4	81.5597	17752.4	79.8286	17752.4	79.1141	17752.4	77.2545	17752.4	74.312	17752.4	73.4097	17752.4	72.759	17752.4	69.7693	17752.4	66.881	17752.4	64.2047	17752.4	68.507	17752.4	66.1881	17752.4	65.6762	17752.4	64.1422	17752.4	60.884	17752.4	59.8932	17752.4	55.8116	17752.4	49.1557	17752.4	61.2638	17752.4	53.3256	17752.4	53.2259	17752.4	48.8499	17752.4	60.7199	17752.4	49.7626	17752.4	51.4739	17752.4	55.1071
18379.4	100.316	18379.4	98.0526	18379.4	97.5844	18379.4	91.0763	18379.4	88.9924	18379.4	85.8477	18379.4	84.8017	18379.4	87.1842	18379.4	86.0272	18379.4	84.955	18379.4	84.3633	18379.4	81.8497	18379.4	81.2096	18379.4	78.5636	18379.4	77.1111	18379.4	75.206	18379.4	74.4771	18379.4	70.8228	18379.4	69.5117	18379.4	68.7741	18379.4	69.6294	18379.4	68.052	18379.4	66.0879	18379.4	67.0935	18379.4	59.1711	18379.4	63.4492	18379.4	61.9257	18379.4	61.4553	18379.4	63.3171	18379.4	49.9563	18379.4	52.9021	18379.4	55.2756	18379.4	52.6271	18379.4	47.1901	18379.4	61.7631	18379.4	64.9247
19026.9	99.498	19026.9	97.3798	19026.9	96.6736	19026.9	91.1475	19026.9	88.3615	19026.9	89.3151	19026.9	88.564	19026.9	89.3429	19026.9	88.1782	19026.9	86.0194	19026.9	85.2247	19026.9	82.7243	19026.9	81.9172	19026.9	79.9554	19026.9	78.6485	19026.9	76.0741	19026.9	74.6634	19026.9	71.3905	19026.9	71.7587	19026.9	70.2687	19026.9	70.4313	19026.9	68.5518	19026.9	66.8005	19026.9	67.368	19026.9	58.7822	19026.9	60.565	19026.9	63.199	19026.9	59.061	19026.9	65.9304	19026.9	53.65	19026.9	57.8686	19026.9	57.1921	19026.9	61.5287	19026.9	49.8797	19026.9	58.01	19026.9	63.5297
19697.8	97.8004	19697.8	95.8385	19697.8	94.6454	19697.8	90.6475	19697.8	87.3835	19697.8	90.6163	19697.8	90.2187	19697.8	89.8003	19697.8	88.9371	19697.8	86.1572	19697.8	85.6377	19697.8	82.6557	19697.8	82.221	19697.8	79.9543	19697.8	78.7185	19697.8	75.231	19697.8	74.2634	19697.8	71.4778	19697.8	72.1004	19697.8	70.2161	19697.8	70.2993	19697.8	67.2689	19697.8	66.7665	19697.8	65.9584	19697.8	58.7798	19697.8	60.7142	19697.8	63.6774	19697.8	59.9386	19697.8	67.2695	19697.8	51.3712	19697.8	58.7976	19697.8	56.1517	19697.8	60.0644	19697.8	56.4401	19697.8	58.3239	19697.8	66.2484
19999.5	97.1144	19999.5	95.1939	19999.5	93.5352	19999.5	90.5588	19999.5	87.7418	19999.5	91.0595	19999.5	90.5921	19999.5	89.7719	19999.5	88.8594	19999.5	85.8985	19999.5	85.2926	19999.5	82.6606	19999.5	82.0258	19999.5	79.6193	19999.5	77.8775	19999.5	74.5605	19999.5	74.5572	19999.5	71.4664	19999.5	72.2946	19999.5	70.5924	19999.5	70.0834	19999.5	66.9545	19999.5	67.3784	19999.5	66.0938	19999.5	58.8147	19999.5	60.1695	19999.5	62.8805	19999.5	60.4091	19999.5	66.4274	19999.5	47.0949	19999.5	61.004	19999.5	57.157	19999.5	61.0927	19999.5	50.4807	19999.5	60.0275	19999.5	66.287
