"SPL Vertical"
"On-Axis"		"10°"		"-10°"		"20°"		"-20°"		"30°"		"-30°"		"40°"		"-40°"		"50°"		"-50°"		"60°"		"-60°"		"70°"		"-70°"		"80°"		"-80°"		"90°"		"-90°"		"100°"		"-100°"		"110°"		"-110°"		"120°"		"-120°"		"130°"		"-130°"		"140°"		"-140°"		"150°"		"-150°"		"160°"		"-160°"		"170°"		"-170°"		"180°"
"Frequency [Hz]"	"Sound Pessure Level [dB]    /[0.3V at 1m]"	"Frequency [Hz]"	"Sound Pessure Level [dB]    /[0.3V at 1m]"	"Frequency [Hz]"	"Sound Pessure Level [dB]    /[0.3V at 1m]"	"Frequency [Hz]"	"Sound Pessure Level [dB]    /[0.3V at 1m]"	"Frequency [Hz]"	"Sound Pessure Level [dB]    /[0.3V at 1m]"	"Frequency [Hz]"	"Sound Pessure Level [dB]    /[0.3V at 1m]"	"Frequency [Hz]"	"Sound Pessure Level [dB]    /[0.3V at 1m]"	"Frequency [Hz]"	"Sound Pessure Level [dB]    /[0.3V at 1m]"	"Frequency [Hz]"	"Sound Pessure Level [dB]    /[0.3V at 1m]"	"Frequency [Hz]"	"Sound Pessure Level [dB]    /[0.3V at 1m]"	"Frequency [Hz]"	"Sound Pessure Level [dB]    /[0.3V at 1m]"	"Frequency [Hz]"	"Sound Pessure Level [dB]    /[0.3V at 1m]"	"Frequency [Hz]"	"Sound Pessure Level [dB]    /[0.3V at 1m]"	"Frequency [Hz]"	"Sound Pessure Level [dB]    /[0.3V at 1m]"	"Frequency [Hz]"	"Sound Pessure Level [dB]    /[0.3V at 1m]"	"Frequency [Hz]"	"Sound Pessure Level [dB]    /[0.3V at 1m]"	"Frequency [Hz]"	"Sound Pessure Level [dB]    /[0.3V at 1m]"	"Frequency [Hz]"	"Sound Pessure Level [dB]    /[0.3V at 1m]"	"Frequency [Hz]"	"Sound Pessure Level [dB]    /[0.3V at 1m]"	"Frequency [Hz]"	"Sound Pessure Level [dB]    /[0.3V at 1m]"	"Frequency [Hz]"	"Sound Pessure Level [dB]    /[0.3V at 1m]"	"Frequency [Hz]"	"Sound Pessure Level [dB]    /[0.3V at 1m]"	"Frequency [Hz]"	"Sound Pessure Level [dB]    /[0.3V at 1m]"	"Frequency [Hz]"	"Sound Pessure Level [dB]    /[0.3V at 1m]"	"Frequency [Hz]"	"Sound Pessure Level [dB]    /[0.3V at 1m]"	"Frequency [Hz]"	"Sound Pessure Level [dB]    /[0.3V at 1m]"	"Frequency [Hz]"	"Sound Pessure Level [dB]    /[0.3V at 1m]"	"Frequency [Hz]"	"Sound Pessure Level [dB]    /[0.3V at 1m]"	"Frequency [Hz]"	"Sound Pessure Level [dB]    /[0.3V at 1m]"	"Frequency [Hz]"	"Sound Pessure Level [dB]    /[0.3V at 1m]"	"Frequency [Hz]"	"Sound Pessure Level [dB]    /[0.3V at 1m]"	"Frequency [Hz]"	"Sound Pessure Level [dB]    /[0.3V at 1m]"	"Frequency [Hz]"	"Sound Pessure Level [dB]    /[0.3V at 1m]"	"Frequency [Hz]"	"Sound Pessure Level [dB]    /[0.3V at 1m]"	"Frequency [Hz]"	"Sound Pessure Level [dB]    /[0.3V at 1m]"	"Frequency [Hz]"	"Sound Pessure Level [dB]    /[0.3V at 1m]"
27.832	60.3598	27.832	59.8204	27.832	60.8721	27.832	59.389	27.832	61.2844	27.832	59.2572	27.832	61.5669	27.832	59.59	27.832	61.7178	27.832	60.4003	27.832	61.7611	27.832	61.54	27.832	61.7513	27.832	62.8205	27.832	61.7824	27.832	64.1035	27.832	61.9804	27.832	65.3119	27.832	62.4587	27.832	66.4084	27.832	63.2484	27.832	67.3757	27.832	64.2733	27.832	68.2051	27.832	65.402	27.832	68.8901	27.832	66.5137	27.832	69.4246	27.832	67.5256	27.832	69.8016	27.832	68.3898	27.832	70.0138	27.832	69.0818	27.832	70.0535	27.832	69.5909	27.832	69.9141
29.2969	64.6023	29.2969	64.2984	29.2969	64.9229	29.2969	64.075	29.2969	65.2141	29.2969	64.0048	29.2969	65.4477	29.2969	64.1486	29.2969	65.6118	29.2969	64.5296	29.2969	65.7094	29.2969	65.122	29.2969	65.7601	29.2969	65.8645	29.2969	65.8017	29.2969	66.6863	29.2969	65.8899	29.2969	67.5254	29.2969	66.0885	29.2969	68.3349	29.2969	66.4479	29.2969	69.0819	29.2969	66.98	29.2969	69.7429	29.2969	67.6501	29.2969	70.3002	29.2969	68.3915	29.2969	70.7398	29.2969	69.1317	29.2969	71.0497	29.2969	69.8094	29.2969	71.2193	29.2969	70.3809	29.2969	71.2401	29.2969	70.8184	29.2969	71.1068
30.7617	67.188	30.7617	66.9667	30.7617	67.4133	30.7617	66.8047	30.7617	67.603	30.7617	66.7664	30.7617	67.7332	30.7617	66.9101	30.7617	67.7956	30.7617	67.2658	30.7617	67.7983	30.7617	67.8223	30.7617	67.7695	30.7617	68.5326	30.7617	67.7608	30.7617	69.3335	30.7617	67.8448	30.7617	70.1647	30.7617	68.098	30.7617	70.9773	30.7617	68.5669	30.7617	71.7349	30.7617	69.2399	30.7617	72.4109	30.7617	70.0506	30.7617	72.985	30.7617	70.9102	30.7617	73.4409	30.7617	71.7381	30.7617	73.7649	30.7617	72.475	30.7617	73.945	30.7617	73.0831	30.7617	73.9716	30.7617	73.5408	30.7617	73.8378
32.2266	70.3279	32.2266	70.1557	32.2266	70.5025	32.2266	70.0249	32.2266	70.6509	32.2266	69.9802	32.2266	70.7552	32.2266	70.0644	32.2266	70.8091	32.2266	70.3058	32.2266	70.8193	32.2266	70.7082	32.2266	70.8076	32.2266	71.2495	32.2266	70.8128	32.2266	71.8894	32.2266	70.8887	32.2266	72.581	32.2266	71.092	32.2266	73.2805	32.2266	71.4615	32.2266	73.9507	32.2266	71.9972	32.2266	74.562	32.2266	72.6573	32.2266	75.0907	32.2266	73.3756	32.2266	75.5173	32.2266	74.0838	32.2266	75.826	32.2266	74.7258	32.2266	76.0034	32.2266	75.2619	32.2266	76.0395	32.2266	75.6671	32.2266	75.9279
33.6914	72.6462	33.6914	72.4909	33.6914	72.8014	33.6914	72.3691	33.6914	72.9316	33.6914	72.3208	33.6914	73.022	33.6914	72.3856	33.6914	73.0685	33.6914	72.5923	33.6914	73.0787	33.6914	72.9497	33.6914	73.0743	33.6914	73.443	33.6914	73.0921	33.6914	74.0382	33.6914	73.1811	33.6914	74.6928	33.6914	73.3916	33.6914	75.364	33.6914	73.7563	33.6914	76.0145	33.6914	74.2731	33.6914	76.6132	33.6914	74.9035	33.6914	77.1352	33.6914	75.5868	33.6914	77.5602	33.6914	76.2599	33.6914	77.8713	33.6914	76.8699	33.6914	78.0551	33.6914	77.3785	33.6914	78.1014	33.6914	77.7611	33.6914	78.0038
35.1562	74.6174	35.1562	74.4601	35.1562	74.7666	35.1562	74.3262	35.1562	74.8861	35.1562	74.2544	35.1562	74.9639	35.1562	74.2862	35.1562	74.9984	35.1562	74.4556	35.1562	74.9993	35.1562	74.7784	35.1562	74.99	35.1562	75.2459	35.1562	75.008	35.1562	75.8277	35.1562	75.1023	35.1562	76.4806	35.1562	75.3214	35.1562	77.1598	35.1562	75.6952	35.1562	77.8246	35.1562	76.2192	35.1562	78.4414	35.1562	76.8534	35.1562	78.983	35.1562	77.5371	35.1562	79.4274	35.1562	78.2083	35.1562	79.7565	35.1562	78.8147	35.1562	79.9562	35.1562	79.3184	35.1562	80.0157	35.1562	79.6944	35.1562	79.9288
36.6211	76.3654	36.6211	76.2729	36.6211	76.4822	36.6211	76.2317	36.6211	76.6015	36.6211	76.2694	36.6211	76.7085	36.6211	76.4088	36.6211	76.7973	36.6211	76.6622	36.6211	76.8717	36.6211	77.0273	36.6211	76.9462	36.6211	77.4879	36.6211	77.0456	36.6211	78.0182	36.6211	77.2021	36.6211	78.5877	36.6211	77.4473	36.6211	79.1663	36.6211	77.8009	36.6211	79.7264	36.6211	78.2615	36.6211	80.2439	36.6211	78.8036	36.6211	80.698	36.6211	79.3855	36.6211	81.0703	36.6211	79.9601	36.6211	81.3452	36.6211	80.4846	36.6211	81.5094	36.6211	80.9251	36.6211	81.5527	36.6211	81.2579	36.6211	81.4691
38.0859	79.088	38.0859	79.012	38.0859	79.1725	38.0859	78.9642	38.0859	79.2503	38.0859	78.9659	38.0859	79.3113	38.0859	79.0374	38.0859	79.352	38.0859	79.194	38.0859	79.3768	38.0859	79.4424	38.0859	79.3987	38.0859	79.7789	38.0859	79.4401	38.0859	80.1896	38.0859	79.5302	38.0859	80.6528	38.0859	79.6994	38.0859	81.1432	38.0859	79.9696	38.0859	81.634	38.0859	80.345	38.0859	82.0996	38.0859	80.807	38.0859	82.5166	38.0859	81.3196	38.0859	82.8639	38.0859	81.8384	38.0859	83.1231	38.0859	82.3205	38.0859	83.2792	38.0859	82.7307	38.0859	83.3211	38.0859	83.0433	38.0859	83.2425
39.5508	80.7247	39.5508	80.6478	39.5508	80.8069	39.5508	80.5946	39.5508	80.8807	39.5508	80.5856	39.5508	80.9372	39.5508	80.6411	39.5508	80.9742	39.5508	80.7777	39.5508	80.9967	39.5508	81.0044	39.5508	81.0178	39.5508	81.3199	39.5508	81.0592	39.5508	81.7126	39.5508	81.1491	39.5508	82.1624	39.5508	81.316	39.5508	82.6441	39.5508	81.5808	39.5508	83.1305	39.5508	81.9467	39.5508	83.5952	39.5508	82.3963	39.5508	84.0136	39.5508	82.8948	39.5508	84.3638	39.5508	83.3996	39.5508	84.627	39.5508	83.869	39.5508	84.7878	39.5508	84.2681	39.5508	84.8351	39.5508	84.5714	39.5508	84.7629
41.0156	82.5391	41.0156	82.4751	41.0156	82.6116	41.0156	82.4355	41.0156	82.6804	41.0156	82.4379	41.0156	82.7377	41.0156	82.4997	41.0156	82.7812	41.0156	82.6346	41.0156	82.8151	41.0156	82.8503	41.0156	82.8507	41.0156	83.1457	41.0156	82.9063	41.0156	83.5109	41.0156	83.0053	41.0156	83.9286	41.0156	83.1715	41.0156	84.3764	41.0156	83.4224	41.0156	84.8298	41.0156	83.7611	41.0156	85.2641	41.0156	84.1736	41.0156	85.6563	41.0156	84.6305	41.0156	85.9852	41.0156	85.0946	41.0156	86.2327	41.0156	85.5282	41.0156	86.384	41.0156	85.8987	41.0156	86.4286	41.0156	86.1817	41.0156	86.3609
42.4805	84.153	42.4805	84.0925	42.4805	84.2235	42.4805	84.0562	42.4805	84.2926	42.4805	84.0599	42.4805	84.3534	42.4805	84.1191	42.4805	84.4036	42.4805	84.2463	42.4805	84.4469	42.4805	84.4484	42.4805	84.4931	42.4805	84.7251	42.4805	84.5582	42.4805	85.0676	42.4805	84.6626	42.4805	85.4607	42.4805	84.827	42.4805	85.8839	42.4805	85.0664	42.4805	86.3143	42.4805	85.3841	42.4805	86.7288	42.4805	85.7678	42.4805	87.1047	42.4805	86.192	42.4805	87.4218	42.4805	86.6231	42.4805	87.6621	42.4805	87.0266	42.4805	87.8112	42.4805	87.3716	42.4805	87.8588	42.4805	87.6346	42.4805	87.7996
43.9453	85.7702	43.9453	85.7169	43.9453	85.836	43.9453	85.6885	43.9453	85.9043	43.9453	85.6987	43.9453	85.9689	43.9453	85.7607	43.9453	86.0276	43.9453	85.8848	43.9453	86.083	43.9453	86.077	43.9453	86.1435	43.9453	86.3366	43.9453	86.222	43.9453	86.6564	43.9453	86.3354	43.9453	87.0227	43.9453	86.5005	43.9453	87.4175	43.9453	86.7295	43.9453	87.8202	43.9453	87.0251	43.9453	88.2092	43.9453	87.3774	43.9453	88.5636	43.9453	87.7649	43.9453	88.8638	43.9453	88.1586	43.9453	89.0927	43.9453	88.5276	43.9453	89.2365	43.9453	88.8436	43.9453	89.2852	43.9453	89.0841	43.9453	89.234
45.4102	87.2468	45.4102	87.2039	45.4102	87.3035	45.4102	87.1855	45.4102	87.3655	45.4102	87.2032	45.4102	87.4272	45.4102	87.268	45.4102	87.4868	45.4102	87.3889	45.4102	87.5465	45.4102	87.5707	45.4102	87.6134	45.4102	87.813	45.4102	87.6985	45.4102	88.1097	45.4102	87.8157	45.4102	88.4491	45.4102	87.9791	45.4102	88.8155	45.4102	88.1987	45.4102	89.1902	45.4102	88.4765	45.4102	89.5536	45.4102	88.8038	45.4102	89.8858	45.4102	89.1622	45.4102	90.1683	45.4102	89.526	45.4102	90.3846	45.4102	89.8674	45.4102	90.5213	45.4102	90.1603	45.4102	90.5687	45.4102	90.3836	45.4102	90.5224
46.875	88.7673	46.875	88.7353	46.875	88.814	46.875	88.7263	46.875	88.8683	46.875	88.7495	46.875	88.9259	46.875	88.8137	46.875	88.985	46.875	88.9259	46.875	89.0473	46.875	89.09	46.875	89.1179	46.875	89.3061	46.875	89.2053	46.875	89.5695	46.875	89.3201	46.875	89.8707	46.875	89.4729	46.875	90.1969	46.875	89.6717	46.875	90.532	46.875	89.9184	46.875	90.8586	46.875	90.2069	46.875	91.1586	46.875	90.5226	46.875	91.4148	46.875	90.8444	46.875	91.6116	46.875	91.1482	46.875	91.7362	46.875	91.4107	46.875	91.7796	46.875	91.6119	46.875	91.7376
48.3398	90.1317	48.3398	90.0941	48.3398	90.1822	48.3398	90.0774	48.3398	90.2393	48.3398	90.0898	48.3398	90.2986	48.3398	90.1396	48.3398	90.3583	48.3398	90.2335	48.3398	90.4195	48.3398	90.3756	48.3398	90.4864	48.3398	90.5665	48.3398	90.5661	48.3398	90.8027	48.3398	90.6682	48.3398	91.0763	48.3398	90.8026	48.3398	91.3756	48.3398	90.9773	48.3398	91.6863	48.3398	91.1952	48.3398	91.9917	48.3398	91.4522	48.3398	92.2748	48.3398	91.736	48.3398	92.5187	48.3398	92.0277	48.3398	92.7081	48.3398	92.3048	48.3398	92.8303	48.3398	92.545	48.3398	92.8762	48.3398	92.7287	48.3398	92.8418
51.2695	92.0312	51.2695	92.006	51.2695	92.0745	51.2695	92.0042	51.2695	92.1312	51.2695	92.0317	51.2695	92.1982	51.2695	92.094	51.2695	92.274	51.2695	92.1954	51.2695	92.3591	51.2695	92.3384	51.2695	92.4561	51.2695	92.523	51.2695	92.5691	51.2695	92.7459	51.2695	92.7036	51.2695	93.0009	51.2695	92.8648	51.2695	93.2786	51.2695	93.0561	51.2695	93.567	51.2695	93.2772	51.2695	93.8521	51.2695	93.5228	51.2695	94.1191	51.2695	93.7822	51.2695	94.3529	51.2695	94.0402	51.2695	94.5393	51.2695	94.2788	51.2695	94.6664	51.2695	94.4803	51.2695	94.7256	51.2695	94.6288	51.2695	94.7127
52.7344	92.9385	52.7344	92.9147	52.7344	92.98	52.7344	92.913	52.7344	93.0353	52.7344	92.9379	52.7344	93.1016	52.7344	92.9936	52.7344	93.1773	52.7344	93.0836	52.7344	93.2621	52.7344	93.2096	52.7344	93.3573	52.7344	93.3717	52.7344	93.4656	52.7344	93.5674	52.7344	93.5905	52.7344	93.7913	52.7344	93.7359	52.7344	94.0359	52.7344	93.9041	52.7344	94.2909	52.7344	94.0954	52.7344	94.5442	52.7344	94.306	52.7344	94.7825	52.7344	94.5276	52.7344	94.9922	52.7344	94.7481	52.7344	95.1604	52.7344	94.9526	52.7344	95.2763	52.7344	95.1256	52.7344	95.332	52.7344	95.2529	52.7344	95.3238
54.1992	93.6882	54.1992	93.6639	54.1992	93.7282	54.1992	93.6588	54.1992	93.7809	54.1992	93.6765	54.1992	93.8439	54.1992	93.7204	54.1992	93.9157	54.1992	93.7934	54.1992	93.9957	54.1992	93.8973	54.1992	94.0845	54.1992	94.0325	54.1992	94.1835	54.1992	94.1975	54.1992	94.2953	54.1992	94.3884	54.1992	94.4224	54.1992	94.5992	54.1992	94.5668	54.1992	94.8214	54.1992	94.7289	54.1992	95.0445	54.1992	94.9061	54.1992	95.2566	54.1992	95.0922	54.1992	95.4454	54.1992	95.2776	54.1992	95.5987	54.1992	95.4498	54.1992	95.7063	54.1992	95.5955	54.1992	95.7609	54.1992	95.7019	54.1992	95.759
55.6641	94.2477	55.6641	94.2226	55.6641	94.2876	55.6641	94.2155	55.6641	94.3398	55.6641	94.2293	55.6641	94.4022	55.6641	94.2673	55.6641	94.4732	55.6641	94.3319	55.6641	94.5524	55.6641	94.4251	55.6641	94.6399	55.6641	94.5473	55.6641	94.7368	55.6641	94.6976	55.6641	94.8451	55.6641	94.8729	55.6641	94.9666	55.6641	95.0681	55.6641	95.103	55.6641	95.2755	55.6641	95.2544	55.6641	95.4856	55.6641	95.4184	55.6641	95.6874	55.6641	95.5895	55.6641	95.8688	55.6641	95.7591	55.6641	96.0183	55.6641	95.9158	55.6641	96.1257	55.6641	96.0471	55.6641	96.1836	55.6641	96.141	55.6641	96.1884
58.5938	94.9872	58.5938	94.9644	58.5938	95.0255	58.5938	94.959	58.5938	95.0778	58.5938	94.9727	58.5938	95.1424	58.5938	95.0071	58.5938	95.2181	58.5938	95.0638	58.5938	95.3036	58.5938	95.1436	58.5938	95.398	58.5938	95.2471	58.5938	95.5008	58.5938	95.3734	58.5938	95.6117	58.5938	95.5205	58.5938	95.7307	58.5938	95.6847	58.5938	95.8574	58.5938	95.8605	58.5938	95.9909	58.5938	96.0406	58.5938	96.1289	58.5938	96.216	58.5938	96.2673	58.5938	96.3769	58.5938	96.3997	58.5938	96.5134	58.5938	96.518	58.5938	96.6165	58.5938	96.613	58.5938	96.6797	58.5938	96.6758	58.5938	96.6994
60.0586	95.2622	60.0586	95.2396	60.0586	95.2999	60.0586	95.2333	60.0586	95.3515	60.0586	95.2445	60.0586	95.4156	60.0586	95.2745	60.0586	95.4909	60.0586	95.3241	60.0586	95.5762	60.0586	95.3942	60.0586	95.67	60.0586	95.4851	60.0586	95.7712	60.0586	95.5964	60.0586	95.879	60.0586	95.7266	60.0586	95.9923	60.0586	95.8728	60.0586	96.1104	60.0586	96.0305	60.0586	96.2319	60.0586	96.1936	60.0586	96.3547	60.0586	96.3543	60.0586	96.4753	60.0586	96.5037	60.0586	96.5885	60.0586	96.6327	60.0586	96.6876	60.0586	96.733	60.0586	96.7647	60.0586	96.7982	60.0586	96.8124	60.0586	96.8247
62.9883	95.6267	62.9883	95.601	62.9883	95.6675	62.9883	95.5907	62.9883	95.7226	62.9883	95.5962	62.9883	95.7911	62.9883	95.6178	62.9883	95.8715	62.9883	95.6558	62.9883	95.962	62.9883	95.7103	62.9883	96.0604	62.9883	95.7817	62.9883	96.1644	62.9883	95.8696	62.9883	96.2715	62.9883	95.9735	62.9883	96.3795	62.9883	96.0916	62.9883	96.486	62.9883	96.2211	62.9883	96.5891	62.9883	96.3577	62.9883	96.6867	62.9883	96.4956	62.9883	96.7761	62.9883	96.6279	62.9883	96.854	62.9883	96.7471	62.9883	96.9163	62.9883	96.8461	62.9883	96.958	62.9883	96.9189	62.9883	96.9745	62.9883	96.962
64.4531	95.7708	64.4531	95.7441	64.4531	95.812	64.4531	95.732	64.4531	95.8671	64.4531	95.7346	64.4531	95.9355	64.4531	95.7516	64.4531	96.0156	64.4531	95.7832	64.4531	96.1057	64.4531	95.8296	64.4531	96.2031	64.4531	95.8908	64.4531	96.3053	64.4531	95.9668	64.4531	96.4092	64.4531	96.0573	64.4531	96.5119	64.4531	96.1611	64.4531	96.6109	64.4531	96.2761	64.4531	96.7037	64.4531	96.3987	64.4531	96.7884	64.4531	96.5242	64.4531	96.8628	64.4531	96.6466	64.4531	96.9244	64.4531	96.759	64.4531	96.9701	64.4531	96.855	64.4531	96.9965	64.4531	96.9292	64.4531	97	64.4531	96.9779
67.3828	96.0341	67.3828	96.0127	67.3828	96.0696	67.3828	96.0045	67.3828	96.1193	67.3828	96.0086	67.3828	96.1827	67.3828	96.0242	67.3828	96.2586	67.3828	96.0503	67.3828	96.345	67.3828	96.0866	67.3828	96.4389	67.3828	96.1326	67.3828	96.5368	67.3828	96.1886	67.3828	96.6348	67.3828	96.2546	67.3828	96.7292	67.3828	96.3305	67.3828	96.8164	67.3828	96.4156	67.3828	96.8938	67.3828	96.5085	67.3828	96.9591	67.3828	96.6065	67.3828	97.0107	67.3828	96.7057	67.3828	97.0474	67.3828	96.8013	67.3828	97.0678	67.3828	96.8881	67.3828	97.0703	67.3828	96.9613	67.3828	97.0537	67.3828	97.0172
68.8477	96.0913	68.8477	96.0668	68.8477	96.1301	68.8477	96.0557	68.8477	96.1836	68.8477	96.057	68.8477	96.2513	68.8477	96.0692	68.8477	96.3319	68.8477	96.0914	68.8477	96.423	68.8477	96.1228	68.8477	96.5214	68.8477	96.1631	68.8477	96.623	68.8477	96.2122	68.8477	96.7234	68.8477	96.2704	68.8477	96.8182	68.8477	96.3379	68.8477	96.9034	68.8477	96.4147	68.8477	96.9758	68.8477	96.4998	68.8477	97.0332	68.8477	96.5914	68.8477	97.0742	68.8477	96.6863	68.8477	97.0979	68.8477	96.7804	68.8477	97.1038	68.8477	96.8692	68.8477	97.0916	68.8477	96.9479	68.8477	97.0611	68.8477	97.0127
71.7773	96.2007	71.7773	96.1758	71.7773	96.2401	71.7773	96.1642	71.7773	96.2948	71.7773	96.164	71.7773	96.3645	71.7773	96.1734	71.7773	96.4479	71.7773	96.1907	71.7773	96.5424	71.7773	96.2149	71.7773	96.6442	71.7773	96.2452	71.7773	96.7486	71.7773	96.2816	71.7773	96.8503	71.7773	96.3248	71.7773	96.9441	71.7773	96.3755	71.7773	97.0252	71.7773	96.4347	71.7773	97.0896	71.7773	96.5027	71.7773	97.1348	71.7773	96.5792	71.7773	97.1595	71.7773	96.6627	71.7773	97.1636	71.7773	96.7502	71.7773	97.148	71.7773	96.8382	71.7773	97.114	71.7773	96.9224	71.7773	97.0635	71.7773	96.9986
74.707	96.2833	74.707	96.2577	74.707	96.3234	74.707	96.2449	74.707	96.3789	74.707	96.2425	74.707	96.4499	74.707	96.2484	74.707	96.5348	74.707	96.2603	74.707	96.631	74.707	96.2769	74.707	96.7343	74.707	96.2971	74.707	96.8395	74.707	96.321	74.707	96.9408	74.707	96.3493	74.707	97.0321	74.707	96.3834	74.707	97.1079	74.707	96.4251	74.707	97.1639	74.707	96.476	74.707	97.197	74.707	96.5371	74.707	97.2061	74.707	96.6085	74.707	97.1916	74.707	96.6887	74.707	97.1555	74.707	96.7751	74.707	97.1008	74.707	96.8639	74.707	97.0312	74.707	96.9507
77.6367	96.381	77.6367	96.3549	77.6367	96.4211	77.6367	96.3408	77.6367	96.4766	77.6367	96.3359	77.6367	96.5474	77.6367	96.3376	77.6367	96.6322	77.6367	96.3433	77.6367	96.7281	77.6367	96.3512	77.6367	96.8306	77.6367	96.3601	77.6367	96.9342	77.6367	96.3701	77.6367	97.0325	77.6367	96.3822	77.6367	97.119	77.6367	96.3983	77.6367	97.1875	77.6367	96.421	77.6367	97.2332	77.6367	96.4534	77.6367	97.2529	77.6367	96.4978	77.6367	97.2457	77.6367	96.5559	77.6367	97.2125	77.6367	96.6275	77.6367	97.1565	77.6367	96.7111	77.6367	97.082	77.6367	96.8033	77.6367	96.9944	77.6367	96.8996
79.1016	96.3981	79.1016	96.3724	79.1016	96.4385	79.1016	96.359	79.1016	96.495	79.1016	96.3551	79.1016	96.5676	79.1016	96.3577	79.1016	96.6548	79.1016	96.3639	79.1016	96.7537	79.1016	96.3717	79.1016	96.8595	79.1016	96.3798	79.1016	96.9665	79.1016	96.3881	79.1016	97.0678	79.1016	96.3975	79.1016	97.1567	79.1016	96.4102	79.1016	97.2267	79.1016	96.4292	79.1016	97.2726	79.1016	96.4577	79.1016	97.291	79.1016	96.4987	79.1016	97.2808	79.1016	96.5544	79.1016	97.2431	79.1016	96.6252	79.1016	97.1814	79.1016	96.7097	79.1016	97.1004	79.1016	96.8048	79.1016	97.0063	79.1016	96.9056
82.0312	96.438	82.0312	96.4082	82.0312	96.4832	82.0312	96.3917	82.0312	96.5452	82.0312	96.3856	82.0312	96.6238	82.0312	96.3866	82.0312	96.7173	82.0312	96.3916	82.0312	96.8224	82.0312	96.3984	82.0312	96.9341	82.0312	96.4054	82.0312	97.0463	82.0312	96.412	82.0312	97.1518	82.0312	96.4193	82.0312	97.2433	82.0312	96.4293	82.0312	97.3139	82.0312	96.4451	82.0312	97.3581	82.0312	96.4702	82.0312	97.3722	82.0312	96.5083	82.0312	97.3551	82.0312	96.562	82.0312	97.3082	82.0312	96.6325	82.0312	97.2355	82.0312	96.7191	82.0312	97.1429	82.0312	96.8189	82.0312	97.0376	82.0312	96.9271
84.9609	96.5088	84.9609	96.4782	84.9609	96.5544	84.9609	96.46	84.9609	96.616	84.9609	96.4514	84.9609	96.6937	84.9609	96.4492	84.9609	96.7859	84.9609	96.4503	84.9609	96.8893	84.9609	96.4522	84.9609	96.9992	84.9609	96.4533	84.9609	97.1092	84.9609	96.453	84.9609	97.2123	84.9609	96.4524	84.9609	97.3009	84.9609	96.4535	84.9609	97.3678	84.9609	96.4597	84.9609	97.4072	84.9609	96.4751	84.9609	97.4152	84.9609	96.5041	84.9609	97.3903	84.9609	96.5502	84.9609	97.3342	84.9609	96.6155	84.9609	97.2512	84.9609	96.7	84.9609	97.148	84.9609	96.8013	84.9609	97.0329	84.9609	96.9146
87.8906	96.5363	87.8906	96.509	87.8906	96.5784	87.8906	96.4938	87.8906	96.6369	87.8906	96.4875	87.8906	96.7122	87.8906	96.4865	87.8906	96.8028	87.8906	96.4874	87.8906	96.9056	87.8906	96.4878	87.8906	97.016	87.8906	96.4858	87.8906	97.1275	87.8906	96.4811	87.8906	97.2327	87.8906	96.4747	87.8906	97.3237	87.8906	96.469	87.8906	97.3928	87.8906	96.4679	87.8906	97.4333	87.8906	96.4761	87.8906	97.4408	87.8906	96.4983	87.8906	97.4135	87.8906	96.539	87.8906	97.3528	87.8906	96.6008	87.8906	97.2635	87.8906	96.6844	87.8906	97.1529	87.8906	96.7876	87.8906	97.0302	87.8906	96.9054
90.8203	96.6294	90.8203	96.6027	90.8203	96.6708	90.8203	96.5882	90.8203	96.7283	90.8203	96.5822	90.8203	96.8021	90.8203	96.5812	90.8203	96.8907	90.8203	96.5815	90.8203	96.991	90.8203	96.5798	90.8203	97.0979	90.8203	96.5741	90.8203	97.2053	90.8203	96.5634	90.8203	97.3056	90.8203	96.5485	90.8203	97.3908	90.8203	96.5316	90.8203	97.4528	90.8203	96.5167	90.8203	97.4848	90.8203	96.5091	90.8203	97.4822	90.8203	96.5148	90.8203	97.4433	90.8203	96.5395	90.8203	97.3698	90.8203	96.5879	90.8203	97.2672	90.8203	96.6621	90.8203	97.1442	90.8203	96.7611	90.8203	97.0114	90.8203	96.8802
95.2148	96.7284	95.2148	96.6957	95.2148	96.7737	95.2148	96.6731	95.2148	96.8328	95.2148	96.6574	95.2148	96.9057	95.2148	96.6448	95.2148	96.9909	95.2148	96.6318	95.2148	97.0854	95.2148	96.6151	95.2148	97.1846	95.2148	96.5923	95.2148	97.2822	95.2148	96.5626	95.2148	97.3708	95.2148	96.5267	95.2148	97.4425	95.2148	96.4871	95.2148	97.489	95.2148	96.4486	95.2148	97.5034	95.2148	96.4175	95.2148	97.4808	95.2148	96.4014	95.2148	97.4195	95.2148	96.408	95.2148	97.3218	95.2148	96.4438	95.2148	97.1942	95.2148	96.5127	95.2148	97.0467	95.2148	96.6143	95.2148	96.8921	95.2148	96.7438
98.1445	96.7525	98.1445	96.7161	98.1445	96.8008	98.1445	96.6891	98.1445	96.8621	98.1445	96.6685	98.1445	96.9363	98.1445	96.6505	98.1445	97.0218	98.1445	96.6317	98.1445	97.1156	98.1445	96.6085	98.1445	97.213	98.1445	96.5788	98.1445	97.308	98.1445	96.5415	98.1445	97.3931	98.1445	96.4973	98.1445	97.4603	98.1445	96.4491	98.1445	97.5013	98.1445	96.4017	98.1445	97.509	98.1445	96.3621	98.1445	97.4784	98.1445	96.3384	98.1445	97.4079	98.1445	96.3392	98.1445	97.2999	98.1445	96.3717	98.1445	97.1612	98.1445	96.4403	98.1445	97.0025	98.1445	96.5449	98.1445	96.8375	98.1445	96.6806
101.074	96.8187	101.074	96.7791	101.074	96.8688	101.074	96.7477	101.074	96.9305	101.074	96.7215	101.074	97.0037	101.074	96.697	101.074	97.0869	101.074	96.6705	101.074	97.1772	101.074	96.6389	101.074	97.2702	101.074	96.5997	101.074	97.3599	101.074	96.5522	101.074	97.4389	101.074	96.4971	101.074	97.4993	101.074	96.4375	101.074	97.5329	101.074	96.3787	101.074	97.5322	101.074	96.3282	101.074	97.4923	101.074	96.2948	101.074	97.4115	101.074	96.2878	101.074	97.2923	101.074	96.3154	101.074	97.1419	101.074	96.3825	101.074	96.9717	101.074	96.4893	101.074	96.7962	101.074	96.6307
105.469	96.8954	105.469	96.8597	105.469	96.9399	105.469	96.8302	105.469	96.9948	105.469	96.8034	105.469	97.0603	105.469	96.7753	105.469	97.1352	105.469	96.7422	105.469	97.2167	105.469	96.7006	105.469	97.3005	105.469	96.6482	105.469	97.3806	105.469	96.5845	105.469	97.4499	105.469	96.5107	105.469	97.5001	105.469	96.4306	105.469	97.5228	105.469	96.3505	105.469	97.5107	105.469	96.279	105.469	97.4587	105.469	96.2263	105.469	97.365	105.469	96.2031	105.469	97.2324	105.469	96.2185	105.469	97.0687	105.469	96.2784	105.469	96.8862	105.469	96.3832	105.469	96.7003	105.469	96.5276
108.398	96.8131	108.398	96.7787	108.398	96.8585	108.398	96.7525	108.398	96.9162	108.398	96.731	108.398	96.9862	108.398	96.7097	108.398	97.0669	108.398	96.6844	108.398	97.1551	108.398	96.6511	108.398	97.246	108.398	96.6072	108.398	97.3334	108.398	96.5515	108.398	97.4097	108.398	96.4849	108.398	97.4666	108.398	96.4111	108.398	97.4954	108.398	96.336	108.398	97.4888	108.398	96.2683	108.398	97.4413	108.398	96.2182	108.398	97.3514	108.398	96.1965	108.398	97.2218	108.398	96.2126	108.398	97.0603	108.398	96.2727	108.398	96.8791	108.398	96.3775	108.398	96.6939	108.398	96.5216
112.793	96.7727	112.793	96.7271	112.793	96.8293	112.793	96.6907	112.793	96.8975	112.793	96.6606	112.793	96.9768	112.793	96.633	112.793	97.0652	112.793	96.6039	112.793	97.1597	112.793	96.5693	112.793	97.256	112.793	96.5261	112.793	97.3482	112.793	96.4728	112.793	97.429	112.793	96.4099	112.793	97.4902	112.793	96.3404	112.793	97.5229	112.793	96.2701	112.793	97.5191	112.793	96.2074	112.793	97.4729	112.793	96.1627	112.793	97.3818	112.793	96.1471	112.793	97.2483	112.793	96.1705	112.793	97.08	112.793	96.2393	112.793	96.8897	112.793	96.3543	112.793	96.6936	112.793	96.5098
117.188	96.8228	117.188	96.7675	117.188	96.8854	117.188	96.7178	117.188	96.9563	117.188	96.6713	117.188	97.0354	117.188	96.6246	117.188	97.1216	117.188	96.5745	117.188	97.2129	117.188	96.5179	117.188	97.3056	117.188	96.4525	117.188	97.3946	117.188	96.3777	117.188	97.473	117.188	96.295	117.188	97.5321	117.188	96.2084	117.188	97.5626	117.188	96.1249	117.188	97.5555	117.188	96.0539	117.188	97.5037	117.188	96.0069	117.188	97.404	117.188	95.9956	117.188	97.258	117.188	96.03	117.188	97.073	117.188	96.116	117.188	96.8619	117.188	96.253	117.188	96.6422	117.188	96.4331
120.117	96.9025	120.117	96.8613	120.117	96.9502	120.117	96.824	120.117	97.0056	120.117	96.7877	120.117	97.0695	120.117	96.7489	120.117	97.1413	120.117	96.7042	120.117	97.2194	120.117	96.6506	120.117	97.3008	120.117	96.5863	120.117	97.381	120.117	96.5112	120.117	97.4532	120.117	96.4273	120.117	97.5095	120.117	96.3392	120.117	97.5405	120.117	96.2542	120.117	97.5373	120.117	96.1816	120.117	97.4928	120.117	96.1325	120.117	97.4034	120.117	96.1177	120.117	97.2704	120.117	96.1464	120.117	97.1007	120.117	96.2234	120.117	96.9067	120.117	96.3479	120.117	96.7047	120.117	96.5128
124.512	96.9331	124.512	96.8931	124.512	96.981	124.512	96.8591	124.512	97.0374	124.512	96.8285	124.512	97.1021	124.512	96.7976	124.512	97.1739	124.512	96.7624	124.512	97.2508	124.512	96.7191	124.512	97.3298	124.512	96.6651	124.512	97.4065	124.512	96.5991	124.512	97.4746	124.512	96.5223	124.512	97.5263	124.512	96.4383	124.512	97.5527	124.512	96.3537	124.512	97.545	124.512	96.2776	124.512	97.4965	124.512	96.2208	124.512	97.4039	124.512	96.1947	124.512	97.269	124.512	96.2092	124.512	97.0996	124.512	96.2706	124.512	96.9086	124.512	96.3799	124.512	96.7131	124.512	96.5314
128.906	96.9979	128.906	96.9475	128.906	97.0522	128.906	96.9002	128.906	97.1108	128.906	96.8539	128.906	97.1731	128.906	96.8061	128.906	97.2385	128.906	96.7536	128.906	97.3055	128.906	96.6932	128.906	97.3721	128.906	96.6226	128.906	97.4348	128.906	96.541	128.906	97.4885	128.906	96.4495	128.906	97.5259	128.906	96.3519	128.906	97.5386	128.906	96.2549	128.906	97.5175	128.906	96.1677	128.906	97.4557	128.906	96.1015	128.906	97.3494	128.906	96.0684	128.906	97.2004	128.906	96.0787	128.906	97.0166	128.906	96.1396	128.906	96.8116	128.906	96.2523	128.906	96.6033	128.906	96.411
133.301	97.1045	133.301	97.058	133.301	97.1518	133.301	97.0107	133.301	97.2008	133.301	96.9597	133.301	97.2518	133.301	96.9019	133.301	97.304	133.301	96.8337	133.301	97.3561	133.301	96.7521	133.301	97.4057	133.301	96.655	133.301	97.4491	133.301	96.5421	133.301	97.4811	133.301	96.4154	133.301	97.4943	133.301	96.2797	133.301	97.4804	133.301	96.143	133.301	97.4306	133.301	96.016	133.301	97.3382	133.301	95.9121	133.301	97.2002	133.301	95.8454	133.301	97.0193	133.301	95.8289	133.301	96.8048	133.301	95.8716	133.301	96.5726	133.301	95.9764	133.301	96.3431	133.301	96.138
139.16	96.8329	139.16	96.7886	139.16	96.8851	139.16	96.7507	139.16	96.9452	139.16	96.7163	139.16	97.0121	139.16	96.6809	139.16	97.0844	139.16	96.6392	139.16	97.1596	139.16	96.5858	139.16	97.2348	139.16	96.5165	139.16	97.3056	139.16	96.4287	139.16	97.3656	139.16	96.3231	139.16	97.4063	139.16	96.2037	139.16	97.4179	139.16	96.0784	139.16	97.3905	139.16	95.959	139.16	97.316	139.16	95.86	139.16	97.1907	139.16	95.7973	139.16	97.017	139.16	95.7854	139.16	96.8043	139.16	95.8346	139.16	96.5691	139.16	95.9477	139.16	96.3328	139.16	96.1186
143.555	96.7534	143.555	96.6948	143.555	96.8143	143.555	96.6382	143.555	96.8774	143.555	96.582	143.555	96.942	143.555	96.5239	143.555	97.0077	143.555	96.4606	143.555	97.0739	143.555	96.3887	143.555	97.1393	143.555	96.3052	143.555	97.2016	143.555	96.2089	143.555	97.2562	143.555	96.1011	143.555	97.2958	143.555	95.986	143.555	97.3111	143.555	95.8715	143.555	97.2918	143.555	95.7688	143.555	97.2288	143.555	95.6917	143.555	97.1167	143.555	95.6543	143.555	96.9559	143.555	95.6692	143.555	96.7536	143.555	95.7438	143.555	96.5241	143.555	95.8785	143.555	96.2872	143.555	96.0649
147.949	96.8414	147.949	96.7894	147.949	96.8937	147.949	96.737	147.949	96.9462	147.949	96.6824	147.949	96.9984	147.949	96.6231	147.949	97.0497	147.949	96.5562	147.949	97.0997	147.949	96.4789	147.949	97.1476	147.949	96.3896	147.949	97.192	147.949	96.2885	147.949	97.2297	147.949	96.1784	147.949	97.255	147.949	96.0647	147.949	97.2603	147.949	95.9557	147.949	97.2366	147.949	95.862	147.949	97.1759	147.949	95.7953	147.949	97.0734	147.949	95.7671	147.949	96.9292	147.949	95.7864	147.949	96.7499	147.949	95.8576	147.949	96.548	147.949	95.9797	147.949	96.3402	147.949	96.145
153.809	96.7517	153.809	96.7006	153.809	96.806	153.809	96.6519	153.809	96.8627	153.809	96.603	153.809	96.9203	153.809	96.5497	153.809	96.9768	153.809	96.4868	153.809	97.03	153.809	96.409	153.809	97.0775	153.809	96.3123	153.809	97.1158	153.809	96.1948	153.809	97.1398	153.809	96.058	153.809	97.1424	153.809	95.907	153.809	97.1147	153.809	95.7508	153.809	97.0476	153.809	95.6019	153.809	96.9341	153.809	95.4753	153.809	96.772	153.809	95.3866	153.809	96.5657	153.809	95.35	153.809	96.3272	153.809	95.3759	153.809	96.0757	153.809	95.4689	153.809	95.8341	153.809	95.6255
159.668	96.4575	159.668	96.3973	159.668	96.5216	159.668	96.3419	159.668	96.5877	159.668	96.2896	159.668	96.6534	159.668	96.2369	159.668	96.7168	159.668	96.1782	159.668	96.7765	159.668	96.1075	159.668	96.8317	159.668	96.0191	159.668	96.8802	159.668	95.9098	159.668	96.9178	159.668	95.7796	159.668	96.937	159.668	95.6328	159.668	96.9275	159.668	95.4782	159.668	96.8778	159.668	95.329	159.668	96.7785	159.668	95.2018	159.668	96.6246	159.668	95.1142	159.668	96.4188	159.668	95.0831	159.668	96.1726	159.668	95.1205	159.668	95.9055	159.668	95.2312	159.668	95.6425	159.668	95.4102
165.527	96.3513	165.527	96.2527	165.527	96.4456	165.527	96.1537	165.527	96.5316	165.527	96.0568	165.527	96.6062	165.527	95.9625	165.527	96.6682	165.527	95.8691	165.527	96.718	165.527	95.7729	165.527	96.7571	165.527	95.6698	165.527	96.7869	165.527	95.5562	165.527	96.8066	165.527	95.4309	165.527	96.8121	165.527	95.2965	165.527	96.7952	165.527	95.1602	165.527	96.7454	165.527	95.0342	165.527	96.6525	165.527	94.9345	165.527	96.5097	165.527	94.8785	165.527	96.3166	165.527	94.8819	165.527	96.0809	165.527	94.9545	165.527	95.8181	165.527	95.0975	165.527	95.5501	165.527	95.302
171.387	96.8367	171.387	96.7435	171.387	96.9233	171.387	96.6451	171.387	97.0004	171.387	96.5411	171.387	97.0648	171.387	96.4292	171.387	97.1139	171.387	96.306	171.387	97.1467	171.387	96.1683	171.387	97.1628	171.387	96.0144	171.387	97.1628	171.387	95.8458	171.387	97.1459	171.387	95.6674	171.387	97.1095	171.387	95.4882	171.387	97.0484	171.387	95.3203	171.387	96.9555	171.387	95.1779	171.387	96.8241	171.387	95.0755	171.387	96.6505	171.387	95.0255	171.387	96.4369	171.387	95.0366	171.387	96.1922	171.387	95.1123	171.387	95.932	171.387	95.2501	171.387	95.6754	171.387	95.4423
177.246	96.6301	177.246	96.5236	177.246	96.7316	177.246	96.4162	177.246	96.8234	177.246	96.3107	177.246	96.9022	177.246	96.2073	177.246	96.9659	177.246	96.1039	177.246	97.0148	177.246	95.9965	177.246	97.0499	177.246	95.881	177.246	97.0718	177.246	95.7548	177.246	97.0791	177.246	95.6183	177.246	97.0671	177.246	95.4757	177.246	97.0277	177.246	95.3355	177.246	96.9514	177.246	95.2096	177.246	96.8297	177.246	95.1122	177.246	96.6588	177.246	95.057	177.246	96.4419	177.246	95.0561	177.246	96.1903	177.246	95.1173	177.246	95.9224	177.246	95.2428	177.246	95.6608	177.246	95.428
183.105	96.7973	183.105	96.708	183.105	96.8788	183.105	96.6138	183.105	96.9494	183.105	96.5161	183.105	97.0069	183.105	96.4145	183.105	97.0508	183.105	96.307	183.105	97.0828	183.105	96.1906	183.105	97.1058	183.105	96.0633	183.105	97.1223	183.105	95.9249	183.105	97.1321	183.105	95.7785	183.105	97.1308	183.105	95.6309	183.105	97.1094	183.105	95.4922	183.105	97.0561	183.105	95.3748	183.105	96.9599	183.105	95.2914	183.105	96.8143	183.105	95.2535	183.105	96.6207	183.105	95.2695	183.105	96.3892	183.105	95.3439	183.105	96.1377	183.105	95.4764	183.105	95.888	183.105	95.6617
188.965	96.6925	188.965	96.5641	188.965	96.8089	188.965	96.4293	188.965	96.9074	188.965	96.2924	188.965	96.9838	188.965	96.155	188.965	97.0366	188.965	96.0163	188.965	97.0673	188.965	95.8742	188.965	97.0798	188.965	95.7266	188.965	97.0787	188.965	95.5736	188.965	97.0664	188.965	95.4182	188.965	97.0416	188.965	95.2673	188.965	96.9982	188.965	95.1311	188.965	96.9264	188.965	95.0219	188.965	96.8161	188.965	94.9525	188.965	96.6603	188.965	94.9338	188.965	96.4586	188.965	94.9735	188.965	96.2189	188.965	95.0743	188.965	95.9564	188.965	95.2339	188.965	95.6911	188.965	95.4441
196.289	96.7306	196.289	96.6067	196.289	96.839	196.289	96.4751	196.289	96.9258	196.289	96.3425	196.289	96.9877	196.289	96.2132	196.289	97.0255	196.289	96.0875	196.289	97.0433	196.289	95.9623	196.289	97.0476	196.289	95.833	196.289	97.0446	196.289	95.6962	196.289	97.0377	196.289	95.552	196.289	97.0246	196.289	95.4066	196.289	96.9972	196.289	95.2713	196.289	96.9434	196.289	95.1611	196.289	96.851	196.289	95.0913	196.289	96.7121	196.289	95.0739	196.289	96.5262	196.289	95.1151	196.289	96.3017	196.289	95.2153	196.289	96.0544	196.289	95.3699	196.289	95.804	196.289	95.5703
203.613	96.6704	203.613	96.5417	203.613	96.7703	203.613	96.3902	203.613	96.8368	203.613	96.2221	203.613	96.8677	203.613	96.0428	203.613	96.8646	203.613	95.8569	203.613	96.8331	203.613	95.6677	203.613	96.7825	203.613	95.4781	203.613	96.7239	203.613	95.2909	203.613	96.6668	203.613	95.1105	203.613	96.6146	203.613	94.9437	203.613	96.5625	203.613	94.7998	203.613	96.498	203.613	94.6902	203.613	96.4059	203.613	94.6264	203.613	96.2735	203.613	94.6172	203.613	96.0961	203.613	94.6674	203.613	95.8788	203.613	94.7766	203.613	95.6354	203.613	94.9396	203.613	95.3847	203.613	95.1469
210.938	96.9581	210.938	96.8381	210.938	97.0526	210.938	96.6976	210.938	97.1158	210.938	96.5398	210.938	97.1434	210.938	96.3656	210.938	97.1333	210.938	96.1742	210.938	97.0867	210.938	95.9644	210.938	97.0083	210.938	95.7363	210.938	96.9053	210.938	95.4936	210.938	96.7853	210.938	95.2447	210.938	96.6537	210.938	95.0024	210.938	96.5119	210.938	94.7833	210.938	96.3562	210.938	94.6045	210.938	96.1804	210.938	94.4807	210.938	95.9792	210.938	94.4209	210.938	95.7524	210.938	94.4279	210.938	95.5071	210.938	94.4985	210.938	95.2565	210.938	94.6261	210.938	95.0165	210.938	94.8021
218.262	96.8027	218.262	96.6922	218.262	96.8993	218.262	96.5735	218.262	96.9757	218.262	96.4495	218.262	97.0268	218.262	96.3204	218.262	97.0497	218.262	96.1832	218.262	97.0454	218.262	96.0339	218.262	97.0174	218.262	95.8692	218.262	96.9711	218.262	95.6888	218.262	96.9103	218.262	95.4966	218.262	96.8355	218.262	95.3016	218.262	96.7423	218.262	95.1168	218.262	96.6224	218.262	94.9576	218.262	96.4675	218.262	94.8384	218.262	96.2733	218.262	94.7703	218.262	96.0431	218.262	94.7597	218.262	95.7889	218.262	94.8085	218.262	95.5295	218.262	94.9155	218.262	95.2862	218.262	95.0772
225.586	96.5977	225.586	96.4641	225.586	96.7111	225.586	96.3197	225.586	96.7951	225.586	96.1718	225.586	96.8433	225.586	96.0233	225.586	96.8542	225.586	95.8729	225.586	96.8314	225.586	95.7165	225.586	96.7826	225.586	95.5509	225.586	96.7177	225.586	95.376	225.586	96.6454	225.586	95.197	225.586	96.5692	225.586	95.0243	225.586	96.4858	225.586	94.8718	225.586	96.386	225.586	94.7541	225.586	96.259	225.586	94.6824	225.586	96.098	225.586	94.6628	225.586	95.9042	225.586	94.6954	225.586	95.6878	225.586	94.7761	225.586	95.4645	225.586	94.8993	225.586	95.2508	225.586	95.0596
232.91	96.6216	232.91	96.4379	232.91	96.7714	232.91	96.2329	232.91	96.877	232.91	96.0188	232.91	96.9328	232.91	95.8045	232.91	96.9389	232.91	95.5936	232.91	96.9018	232.91	95.3852	232.91	96.8329	232.91	95.1761	232.91	96.7459	232.91	94.9643	232.91	96.6525	232.91	94.7526	232.91	96.558	232.91	94.5498	232.91	96.4583	232.91	94.3705	232.91	96.3416	232.91	94.2314	232.91	96.1931	232.91	94.1475	232.91	96.0019	232.91	94.128	232.91	95.766	232.91	94.1751	232.91	95.495	232.91	94.2852	232.91	95.2072	232.91	94.4521	232.91	94.9251	232.91	94.6686
241.699	96.7141	241.699	96.5201	241.699	96.8747	241.699	96.3047	241.699	96.9923	241.699	96.0804	241.699	97.0611	241.699	95.8576	241.699	97.0794	241.699	95.6424	241.699	97.0501	241.699	95.4362	241.699	96.979	241.699	95.237	241.699	96.8741	241.699	95.0429	241.699	96.7424	241.699	94.8552	241.699	96.5877	241.699	94.681	241.699	96.4096	241.699	94.5318	241.699	96.2047	241.699	94.4207	241.699	95.9705	241.699	94.3567	241.699	95.7114	241.699	94.3414	241.699	95.4415	241.699	94.3685	241.699	95.1822	241.699	94.4285	241.699	94.9542	241.699	94.5141	241.699	94.769	241.699	94.6252
250.488	96.6856	250.488	96.5121	250.488	96.8107	250.488	96.3007	250.488	96.879	250.488	96.0618	250.488	96.8867	250.488	95.8041	250.488	96.8356	250.488	95.5336	250.488	96.7345	250.488	95.2537	250.488	96.5993	250.488	94.9667	250.488	96.4504	250.488	94.6765	250.488	96.3078	250.488	94.3908	250.488	96.1841	250.488	94.1227	250.488	96.0781	250.488	93.8901	250.488	95.9743	250.488	93.7128	250.488	95.8487	250.488	93.6072	250.488	95.6787	250.488	93.5819	250.488	95.4517	250.488	93.6371	250.488	95.1704	250.488	93.7675	250.488	94.8529	250.488	93.966	250.488	94.5274	250.488	94.224
259.277	97.1098	259.277	96.9181	259.277	97.2522	259.277	96.6858	259.277	97.3377	259.277	96.421	259.277	97.3616	259.277	96.1297	259.277	97.3236	259.277	95.8152	259.277	97.2288	259.277	95.4798	259.277	97.0873	259.277	95.1272	259.277	96.9134	259.277	94.7656	259.277	96.722	259.277	94.4097	259.277	96.5236	259.277	94.0805	259.277	96.3206	259.277	93.8024	259.277	96.106	259.277	93.5988	259.277	95.8686	259.277	93.4852	259.277	95.6004	259.277	93.4656	259.277	95.3028	259.277	93.5321	259.277	94.9875	259.277	93.6701	259.277	94.6719	259.277	93.8635	259.277	94.3724	259.277	94.1004
268.066	97.1299	268.066	96.9612	268.066	97.2648	268.066	96.7715	268.066	97.3547	268.066	96.5712	268.066	97.3921	268.066	96.3659	268.066	97.3749	268.066	96.1555	268.066	97.3074	268.066	95.9366	268.066	97.1993	268.066	95.7059	268.066	97.0646	268.066	95.4652	268.066	96.9183	268.066	95.2237	268.066	96.7714	268.066	94.9972	268.066	96.6261	268.066	94.8048	268.066	96.4745	268.066	94.6633	268.066	96.3028	268.066	94.5829	268.066	96.1003	268.066	94.5645	268.066	95.8675	268.066	94.6016	268.066	95.618	268.066	94.6845	268.066	95.3727	268.066	94.8054	268.066	95.1504	268.066	94.9607
276.855	96.8235	276.855	96.5938	276.855	96.9978	276.855	96.3238	276.855	97.1058	276.855	96.0307	276.855	97.1416	276.855	95.7308	276.855	97.105	276.855	95.4357	276.855	97.0019	276.855	95.1505	276.855	96.8447	276.855	94.8748	276.855	96.6506	276.855	94.6077	276.855	96.4389	276.855	94.3539	276.855	96.2252	276.855	94.1268	276.855	96.0168	276.855	93.9474	276.855	95.8105	276.855	93.8361	276.855	95.5974	276.855	93.8022	276.855	95.3702	276.855	93.8388	276.855	95.1306	276.855	93.9255	276.855	94.8906	276.855	94.0399	276.855	94.6674	276.855	94.1683	276.855	94.4734	276.855	94.3098
287.109	96.8457	287.109	96.6192	287.109	97.0204	287.109	96.3479	287.109	97.1387	287.109	96.04	287.109	97.1983	287.109	95.7053	287.109	97.2003	287.109	95.3544	287.109	97.1483	287.109	94.9983	287.109	97.0475	287.109	94.648	287.109	96.9038	287.109	94.3142	287.109	96.724	287.109	94.0087	287.109	96.5149	287.109	93.7455	287.109	96.2823	287.109	93.539	287.109	96.0273	287.109	93.3999	287.109	95.7455	287.109	93.3309	287.109	95.4308	287.109	93.3258	287.109	95.0835	287.109	93.3741	287.109	94.7182	287.109	93.4675	287.109	94.3633	287.109	93.6057	287.109	94.0498	287.109	93.7968
297.363	97.4855	297.363	97.3582	297.363	97.5521	297.363	97.1749	297.363	97.5534	297.363	96.9362	297.363	97.489	297.363	96.6377	297.363	97.3655	297.363	96.2729	297.363	97.1976	297.363	95.8388	297.363	97.0053	297.363	95.3417	297.363	96.8096	297.363	94.8015	297.363	96.6244	297.363	94.2529	297.363	96.4504	297.363	93.7427	297.363	96.2746	297.363	93.3229	297.363	96.0775	297.363	93.0388	297.363	95.8432	297.363	92.9151	297.363	95.5678	297.363	92.9463	297.363	95.2593	297.363	93.1017	297.363	94.932	297.363	93.3405	297.363	94.5982	297.363	93.6277	297.363	94.266	297.363	93.9403
307.617	96.8753	307.617	96.6765	307.617	97.0303	307.617	96.4575	307.617	97.1227	307.617	96.2396	307.617	97.1428	307.617	96.0335	307.617	97.0907	307.617	95.8348	307.617	96.9763	307.617	95.6278	307.617	96.8183	307.617	95.3948	307.617	96.6414	307.617	95.1277	307.617	96.4709	307.617	94.835	307.617	96.3249	307.617	94.5428	307.617	96.2073	307.617	94.2886	307.617	96.1053	307.617	94.1095	307.617	95.9958	307.617	94.0292	307.617	95.8583	307.617	94.0514	307.617	95.6841	307.617	94.1621	307.617	95.4784	307.617	94.3372	307.617	95.2533	307.617	94.5511	307.617	95.0193	307.617	94.7829
319.336	96.6949	319.336	96.5151	319.336	96.8159	319.336	96.2893	319.336	96.869	319.336	96.0317	319.336	96.8508	319.336	95.7521	319.336	96.7639	319.336	95.4529	319.336	96.6175	319.336	95.1282	319.336	96.4267	319.336	94.7696	319.336	96.2096	319.336	94.3765	319.336	95.9832	319.336	93.9648	319.336	95.7589	319.336	93.5719	319.336	95.5406	319.336	93.2507	319.336	95.3261	319.336	93.0521	319.336	95.1111	319.336	93.0016	319.336	94.8941	319.336	93.0867	319.336	94.6798	319.336	93.2655	319.336	94.4763	319.336	93.4875	319.336	94.2875	319.336	93.7124	319.336	94.1067	319.336	93.9192
329.59	96.7543	329.59	96.5475	329.59	96.8966	329.59	96.2949	329.59	96.9587	329.59	96.0123	329.59	96.9315	329.59	95.708	329.59	96.8156	329.59	95.381	329.59	96.6225	329.59	95.0253	329.59	96.3737	329.59	94.6382	329.59	96.0965	329.59	94.2284	329.59	95.8151	329.59	93.8206	329.59	95.5414	329.59	93.4547	329.59	95.2715	329.59	93.1782	329.59	94.9933	329.59	93.0301	329.59	94.7011	329.59	93.0224	329.59	94.4094	329.59	93.1315	329.59	94.1535	329.59	93.3074	329.59	93.9698	329.59	93.4942	329.59	93.8661	329.59	93.6485	329.59	93.81	329.59	93.7504
341.309	97.0765	341.309	96.8235	341.309	97.2535	341.309	96.5178	341.309	97.3406	341.309	96.19	341.309	97.333	341.309	95.8722	341.309	97.2347	341.309	95.5851	341.309	97.0589	341.309	95.3249	341.309	96.8266	341.309	95.0631	341.309	96.5631	341.309	94.7627	341.309	96.2926	341.309	94.4008	341.309	96.0305	341.309	93.9875	341.309	95.7779	341.309	93.5705	341.309	95.5231	341.309	93.2234	341.309	95.2486	341.309	93.0142	341.309	94.9431	341.309	92.9679	341.309	94.6106	341.309	93.0532	341.309	94.2757	341.309	93.2069	341.309	93.9751	341.309	93.3758	341.309	93.7337	341.309	93.5443
353.027	97.3704	353.027	97.085	353.027	97.5613	353.027	96.7253	353.027	97.6424	353.027	96.3103	353.027	97.6066	353.027	95.8552	353.027	97.4569	353.027	95.3716	353.027	97.2061	353.027	94.8722	353.027	96.8768	353.027	94.3726	353.027	96.499	353.027	93.8893	353.027	96.1044	353.027	93.4362	353.027	95.7179	353.027	93.0265	353.027	95.3484	353.027	92.6816	353.027	94.988	353.027	92.4366	353.027	94.6247	353.027	92.3291	353.027	94.2618	353.027	92.372	353.027	93.9258	353.027	92.5347	353.027	93.651	353.027	92.755	353.027	93.4498	353.027	92.9712	353.027	93.298	353.027	93.1504
366.211	97.1303	366.211	96.9153	366.211	97.2757	366.211	96.6508	366.211	97.3373	366.211	96.3569	366.211	97.3094	366.211	96.046	366.211	97.1959	366.211	95.7178	366.211	97.0106	366.211	95.3623	366.211	96.7755	366.211	94.9688	366.211	96.5181	366.211	94.5371	366.211	96.2644	366.211	94.0831	366.211	96.0304	366.211	93.6392	366.211	95.8141	366.211	93.2489	366.211	95.5929	366.211	92.9553	366.211	95.3316	366.211	92.786	366.211	95.0017	366.211	92.742	366.211	94.6036	366.211	92.7978	366.211	94.1768	366.211	92.9153	366.211	93.7842	366.211	93.0646	366.211	93.472	366.211	93.242
379.395	97.1169	379.395	96.8599	379.395	97.2988	379.395	96.5539	379.395	97.3876	379.395	96.2267	379.395	97.3769	379.395	95.8972	379.395	97.2737	379.395	95.566	379.395	97.0984	379.395	95.2148	379.395	96.8801	379.395	94.8198	379.395	96.6461	379.395	94.3702	379.395	96.4088	379.395	93.8838	379.395	96.1581	379.395	93.4095	379.395	95.8678	379.395	93.0144	379.395	95.5111	379.395	92.7568	379.395	95.078	379.395	92.6579	379.395	94.5905	379.395	92.6945	379.395	94.1093	379.395	92.8152	379.395	93.714	379.395	92.9648	379.395	93.453	379.395	93.1013	379.395	93.3064	379.395	93.2084
392.578	96.7547	392.578	96.5148	392.578	96.9145	392.578	96.2233	392.578	96.9728	392.578	95.9109	392.578	96.9167	392.578	95.6021	392.578	96.7449	392.578	95.3035	392.578	96.4734	392.578	95.0003	392.578	96.1436	392.578	94.6644	392.578	95.8226	392.578	94.2717	392.578	95.5856	392.578	93.8188	392.578	95.4733	392.578	93.3325	392.578	95.4573	392.578	92.8687	392.578	95.449	392.578	92.499	392.578	95.3448	392.578	92.2806	392.578	95.0711	392.578	92.2236	392.578	94.6121	392.578	92.2837	392.578	94.0254	392.578	92.3943	392.578	93.435	392.578	92.5186	392.578	92.9719	392.578	92.6846
405.762	97.2409	405.762	96.8384	405.762	97.5214	405.762	96.3603	405.762	97.6549	405.762	95.8726	405.762	97.6338	405.762	95.4456	405.762	97.4657	405.762	95.1197	405.762	97.1742	405.762	94.8765	405.762	96.8006	405.762	94.645	405.762	96.4033	405.762	94.3432	405.762	96.0464	405.762	93.9221	405.762	95.7741	405.762	93.393	405.762	95.5856	405.762	92.8363	405.762	95.4342	405.762	92.3839	405.762	95.2563	405.762	92.1586	405.762	95.0102	405.762	92.1991	405.762	94.6983	405.762	92.4439	405.762	94.3622	405.762	92.7884	405.762	94.046	405.762	93.1446	405.762	93.7575	405.762	93.4676
420.41	97.5106	420.41	97.1682	420.41	97.713	420.41	96.7029	420.41	97.7658	420.41	96.1438	420.41	97.6651	420.41	95.5384	420.41	97.4141	420.41	94.9516	420.41	97.0297	420.41	94.4524	420.41	96.5514	420.41	94.0846	420.41	96.0497	420.41	93.8433	420.41	95.6191	420.41	93.6791	420.41	95.3425	420.41	93.5315	420.41	95.2372	420.41	93.3608	420.41	95.2351	420.41	93.1636	420.41	95.2218	420.41	92.9677	420.41	95.0954	420.41	92.8143	420.41	94.8051	420.41	92.7355	420.41	94.3668	420.41	92.7434	420.41	93.8599	420.41	92.8422	420.41	93.3944	420.41	93.0506
435.059	98.0429	435.059	97.707	435.059	98.2515	435.059	97.2653	435.059	98.3193	435.059	96.7501	435.059	98.2369	435.059	96.2011	435.059	97.9968	435.059	95.6555	435.059	97.5976	435.059	95.1385	435.059	97.0539	435.059	94.6614	435.059	96.4121	435.059	94.229	435.059	95.7649	435.059	93.8491	435.059	95.2432	435.059	93.5366	435.059	94.9578	435.059	93.3099	435.059	94.9132	435.059	93.1848	435.059	94.9943	435.059	93.1673	435.059	95.0525	435.059	93.2476	435.059	94.9941	435.059	93.3997	435.059	94.8087	435.059	93.5909	435.059	94.5467	435.059	93.799	435.059	94.2723	435.059	94.0225
451.172	97.9006	451.172	97.596	451.172	98.0655	451.172	97.1575	451.172	98.0906	451.172	96.6029	451.172	97.979	451.172	95.9713	451.172	97.7362	451.172	95.324	451.172	97.37	451.172	94.7267	451.172	96.8909	451.172	94.2183	451.172	96.3151	451.172	93.7984	451.172	95.6755	451.172	93.4515	451.172	95.0387	451.172	93.1816	451.172	94.512	451.172	93.0186	451.172	94.1992	451.172	92.9893	451.172	94.1136	451.172	93.0855	451.172	94.1549	451.172	93.2632	451.172	94.1995	451.172	93.4685	451.172	94.1872	451.172	93.6606	451.172	94.1248	451.172	93.8189	451.172	94.0399	451.172	93.9415
465.82	98.275	465.82	97.9009	465.82	98.5215	465.82	97.4358	465.82	98.6125	465.82	96.913	465.82	98.5349	465.82	96.3522	465.82	98.2889	465.82	95.7613	465.82	97.8856	465.82	95.1512	465.82	97.349	465.82	94.5507	465.82	96.7223	465.82	94.0073	465.82	96.0724	465.82	93.5715	465.82	95.4852	465.82	93.2756	465.82	95.041	465.82	93.1255	465.82	94.7775	465.82	93.1097	465.82	94.6668	465.82	93.207	465.82	94.6335	465.82	93.385	465.82	94.6032	465.82	93.6012	465.82	94.5382	465.82	93.8157	465.82	94.4371	465.82	94.0061	465.82	94.312	465.82	94.1694
483.398	98.6361	483.398	98.3243	483.398	98.7648	483.398	97.814	483.398	98.7343	483.398	97.1152	483.398	98.5651	483.398	96.2798	483.398	98.2688	483.398	95.407	483.398	97.8501	483.398	94.6173	483.398	97.3151	483.398	93.9894	483.398	96.682	483.398	93.5195	483.398	95.9927	483.398	93.1604	483.398	95.3196	483.398	92.8948	483.398	94.7577	483.398	92.7607	483.398	94.3849	483.398	92.8078	483.398	94.2103	483.398	93.0349	483.398	94.1698	483.398	93.3747	483.398	94.1866	483.398	93.7336	483.398	94.2257	483.398	94.0362	483.398	94.2817	483.398	94.2404	483.398	94.3334	483.398	94.334
499.512	98.398	499.512	98.2216	499.512	98.4534	499.512	97.9375	499.512	98.3873	499.512	97.5578	499.512	98.2138	499.512	97.08	499.512	97.9511	499.512	96.4901	499.512	97.6083	499.512	95.7825	499.512	97.1819	499.512	94.9801	499.512	96.6646	499.512	94.1415	499.512	96.0612	499.512	93.3559	499.512	95.4045	499.512	92.7312	499.512	94.7659	499.512	92.3722	499.512	94.2466	499.512	92.3334	499.512	93.9322	499.512	92.579	499.512	93.8338	499.512	93.0006	499.512	93.8905	499.512	93.4745	499.512	94.0307	499.512	93.8996	499.512	94.1976	499.512	94.2035	499.512	94.3269	499.512	94.3453
517.09	97.9367	517.09	97.7702	517.09	97.9932	517.09	97.4688	517.09	97.9598	517.09	97.0238	517.09	97.8414	517.09	96.4573	517.09	97.6316	517.09	95.822	517.09	97.3263	517.09	95.1838	517.09	96.934	517.09	94.5897	517.09	96.4777	517.09	94.0451	517.09	95.9928	517.09	93.5245	517.09	95.5195	517.09	93.015	517.09	95.0927	517.09	92.5586	517.09	94.7311	517.09	92.2549	517.09	94.4366	517.09	92.2085	517.09	94.2096	517.09	92.4485	517.09	94.064	517.09	92.8943	517.09	94.0168	517.09	93.3953	517.09	94.0516	517.09	93.8046	517.09	94.0935	517.09	94.0369
536.133	97.7465	536.133	97.4241	536.133	97.892	536.133	96.9509	536.133	97.8593	536.133	96.3838	536.133	97.664	536.133	95.8046	536.133	97.333	536.133	95.286	536.133	96.8989	536.133	94.8443	536.133	96.395	536.133	94.4311	536.133	95.8545	536.133	93.9835	536.133	95.3115	536.133	93.4857	536.133	94.8006	536.133	92.9993	536.133	94.3586	536.133	92.6457	536.133	94.0259	536.133	92.5369	536.133	93.8307	536.133	92.6938	536.133	93.7587	536.133	93.0342	536.133	93.7596	536.133	93.4338	536.133	93.8028	536.133	93.7837	536.133	93.8936	536.133	94.0088	536.133	94.011	536.133	94.0761
555.176	97.7338	555.176	97.4849	555.176	97.8102	555.176	97.0942	555.176	97.7187	555.176	96.612	555.176	97.4928	555.176	96.0775	555.176	97.1739	555.176	95.4983	555.176	96.7945	555.176	94.8592	555.176	96.3736	555.176	94.1508	555.176	95.9198	555.176	93.3934	555.176	95.4323	555.176	92.6505	555.176	94.8989	555.176	92.0354	555.176	94.3105	555.176	91.6939	555.176	93.7018	555.176	91.7343	555.176	93.1898	555.176	92.1397	555.176	92.9433	555.176	92.7662	555.176	93.0545	555.176	93.4307	555.176	93.4385	555.176	93.9837	555.176	93.9005	555.176	94.3293	555.176	94.2641	555.176	94.4226
574.219	97.7706	574.219	97.4161	574.219	97.8888	574.219	96.8541	574.219	97.7777	574.219	96.1559	574.219	97.4613	574.219	95.4079	574.219	96.9708	574.219	94.6607	574.219	96.3503	574.219	93.9195	574.219	95.6689	574.219	93.2001	574.219	95.0316	574.219	92.5745	574.219	94.5632	574.219	92.1332	574.219	94.3367	574.219	91.9093	574.219	94.2798	574.219	91.8708	574.219	94.1869	574.219	91.9744	574.219	93.8585	574.219	92.198	574.219	93.256	574.219	92.5261	574.219	92.6086	574.219	92.9119	574.219	92.3326	574.219	93.26	574.219	92.5824	574.219	93.4505	574.219	93.0506	574.219	93.387
594.727	97.386	594.727	97.1828	594.727	97.447	594.727	96.8184	594.727	97.3774	594.727	96.2848	594.727	97.1764	594.727	95.6102	594.727	96.8337	594.727	94.8704	594.727	96.337	594.727	94.1576	594.727	95.6847	594.727	93.5115	594.727	94.9047	594.727	92.8903	594.727	94.0728	594.727	92.2393	594.727	93.3165	594.727	91.6014	594.727	92.7844	594.727	91.1668	594.727	92.5633	594.727	91.1523	594.727	92.5851	594.727	91.5588	594.727	92.6764	594.727	92.1589	594.727	92.7358	594.727	92.7204	594.727	92.8052	594.727	93.1201	594.727	92.9562	594.727	93.3165	594.727	93.1613	594.727	93.3139
615.234	97.619	615.234	97.2814	615.234	97.6998	615.234	96.7045	615.234	97.542	615.234	95.942	615.234	97.1867	615.234	95.0756	615.234	96.6804	615.234	94.1998	615.234	96.0649	615.234	93.3988	615.234	95.379	615.234	92.7139	615.234	94.6642	615.234	92.1218	615.234	93.962	615.234	91.5637	615.234	93.3069	615.234	91.0258	615.234	92.7294	615.234	90.6208	615.234	92.2544	615.234	90.5722	615.234	91.8901	615.234	91.0169	615.234	91.6707	615.234	91.8261	615.234	91.7407	615.234	92.7194	615.234	92.2269	615.234	93.458	615.234	92.9654	615.234	93.8943	615.234	93.617	615.234	93.9522
637.207	97.4995	637.207	97.3264	637.207	97.456	637.207	96.8985	637.207	97.2552	637.207	96.227	637.207	96.9444	637.207	95.3848	637.207	96.5428	637.207	94.4958	637.207	96.0494	637.207	93.6733	637.207	95.4615	637.207	92.9292	637.207	94.7919	637.207	92.1761	637.207	94.0775	637.207	91.3557	637.207	93.3666	637.207	90.5476	637.207	92.695	637.207	89.9513	637.207	92.0969	637.207	89.7664	637.207	91.626	637.207	90.0547	637.207	91.2867	637.207	90.6708	637.207	91.006	637.207	91.3504	637.207	90.8312	637.207	91.8665	637.207	90.9838	637.207	92.078	637.207	91.4612	637.207	91.9206
659.18	96.5411	659.18	96.3845	659.18	96.5683	659.18	96.0903	659.18	96.4661	659.18	95.6531	659.18	96.2335	659.18	95.0833	659.18	95.8773	659.18	94.3964	659.18	95.4113	659.18	93.6064	659.18	94.8561	659.18	92.7589	659.18	94.2434	659.18	91.9534	659.18	93.6146	659.18	91.2835	659.18	93.0025	659.18	90.7618	659.18	92.4102	659.18	90.3705	659.18	91.8295	659.18	90.1686	659.18	91.3051	659.18	90.2833	659.18	90.9685	659.18	90.7645	659.18	90.9512	659.18	91.4727	659.18	91.2537	659.18	92.1477	659.18	91.7502	659.18	92.5559	659.18	92.2601	659.18	92.5817
682.617	96.3371	682.617	95.955	682.617	96.4421	682.617	95.3157	682.617	96.2925	682.617	94.5041	682.617	95.9298	682.617	93.6466	682.617	95.408	682.617	92.8369	682.617	94.7951	682.617	92.0889	682.617	94.1789	682.617	91.3816	682.617	93.6651	682.617	90.7299	682.617	93.3196	682.617	90.1936	682.617	93.0556	682.617	89.8492	682.617	92.6409	682.617	89.7796	682.617	91.8841	682.617	90.0471	682.617	90.8725	682.617	90.6288	682.617	90.157	682.617	91.4075	682.617	90.3686	682.617	92.2321	682.617	91.3237	682.617	92.9524	682.617	92.3925	682.617	93.4255	682.617	93.1795	682.617	93.5274
707.52	96.7587	707.52	96.5451	707.52	96.6997	707.52	96.0788	707.52	96.3954	707.52	95.4112	707.52	95.9046	707.52	94.6032	707.52	95.2786	707.52	93.7075	707.52	94.5431	707.52	92.7509	707.52	93.7252	707.52	91.7163	707.52	92.901	707.52	90.5686	707.52	92.2123	707.52	89.3715	707.52	91.7773	707.52	88.4293	707.52	91.5176	707.52	88.1767	707.52	91.1445	707.52	88.7033	707.52	90.3562	707.52	89.6412	707.52	89.1024	707.52	90.5919	707.52	88.0208	707.52	91.3501	707.52	88.2585	707.52	91.8432	707.52	89.569	707.52	92.0018	707.52	90.8764	707.52	91.7095
732.422	95.1292	732.422	94.9592	732.422	95.1605	732.422	94.6843	732.422	95.0301	732.422	94.3341	732.422	94.7272	732.422	93.9024	732.422	94.2492	732.422	93.3468	732.422	93.5914	732.422	92.6504	732.422	92.759	732.422	91.8633	732.422	91.8411	732.422	91.0552	732.422	91.1093	732.422	90.2735	732.422	90.8862	732.422	89.6131	732.422	91.0833	732.422	89.2625	732.422	91.1943	732.422	89.3717	732.422	90.8002	732.422	89.8951	732.422	89.8376	732.422	90.6205	732.422	88.8059	732.422	91.3102	732.422	88.7675	732.422	91.7984	732.422	89.8574	732.422	91.983	732.422	91.0463	732.422	91.7669
757.324	96.6408	757.324	96.2712	757.324	96.7151	757.324	95.6345	757.324	96.4852	757.324	94.7967	757.324	95.9814	757.324	93.932	757.324	95.2625	757.324	93.2549	757.324	94.3656	757.324	92.7286	757.324	93.2829	757.324	92.043	757.324	92.0498	757.324	90.9684	757.324	90.9517	757.324	89.5949	757.324	90.5072	757.324	88.4193	757.324	90.7365	757.324	88.1554	757.324	90.9258	757.324	88.9774	757.324	90.3909	757.324	90.3459	757.324	88.8004	757.324	91.7185	757.324	86.7546	757.324	92.8108	757.324	87.2273	757.324	93.4974	757.324	89.943	757.324	93.6989	757.324	92.1138	757.324	93.3007
785.156	96.5108	785.156	96.2277	785.156	96.5162	785.156	95.6418	785.156	96.3065	785.156	94.8187	785.156	95.9268	785.156	93.9163	785.156	95.379	785.156	93.0988	785.156	94.6244	785.156	92.41	785.156	93.6048	785.156	91.7214	785.156	92.3072	785.156	90.7993	785.156	90.9197	785.156	89.4551	785.156	89.9961	785.156	87.7548	785.156	90.0355	785.156	86.3367	785.156	90.58	785.156	86.2972	785.156	90.6782	785.156	87.6746	785.156	89.5989	785.156	89.4765	785.156	86.7205	785.156	91.0406	785.156	82.9303	785.156	92.0703	785.156	85.7233	785.156	92.3671	785.156	89.6403	785.156	91.6875
811.523	95.9141	811.523	95.5074	811.523	95.9331	811.523	94.7007	811.523	95.6551	811.523	93.5992	811.523	95.2031	811.523	92.4985	811.523	94.6559	811.523	91.7929	811.523	93.9894	811.523	91.4864	811.523	93.0799	811.523	91.1198	811.523	91.7422	811.523	90.3396	811.523	89.8445	811.523	89.1293	811.523	87.9181	811.523	87.6908	811.523	87.9178	811.523	86.286	811.523	89.5328	811.523	85.3756	811.523	90.4544	811.523	85.8204	811.523	89.8509	811.523	87.5541	811.523	87.6013	811.523	89.4161	811.523	84.7683	811.523	90.7055	811.523	85.6799	811.523	91.1544	811.523	88.6691	811.523	90.5535
840.82	96.8337	840.82	96.65	840.82	96.5327	840.82	95.9204	840.82	95.9158	840.82	94.7209	840.82	95.2017	840.82	93.3192	840.82	94.5637	840.82	92.1812	840.82	94.0355	840.82	91.5824	840.82	93.463	840.82	91.2046	840.82	92.5333	840.82	90.583	840.82	90.871	840.82	89.542	840.82	88.3262	840.82	88.2021	840.82	86.4774	840.82	86.997	840.82	87.9092	840.82	86.5401	840.82	89.7098	840.82	87.0375	840.82	89.8353	840.82	88.2027	840.82	87.6176	840.82	89.602	840.82	82.3992	840.82	90.7511	840.82	83.3652	840.82	91.2241	840.82	88.343	840.82	90.6254
870.117	97.0766	870.117	97.3301	870.117	96.4978	870.117	97.0502	870.117	95.8168	870.117	96.1484	870.117	95.1875	870.117	94.7414	870.117	94.688	870.117	93.2455	870.117	94.3219	870.117	92.256	870.117	93.9863	870.117	91.8951	870.117	93.4657	870.117	91.6148	870.117	92.4353	870.117	90.8685	870.117	90.4364	870.117	89.4346	870.117	87.2263	870.117	87.4552	870.117	85.9889	870.117	85.7644	870.117	88.8405	870.117	85.7914	870.117	90.5225	870.117	87.2972	870.117	89.812	870.117	88.9463	870.117	85.8923	870.117	90.0902	870.117	76.6852	870.117	90.3107	870.117	84.4268	870.117	88.9315
900.879	97.2853	900.879	97.9136	900.879	96.3639	900.879	97.9797	900.879	95.4616	900.879	97.3469	900.879	94.8041	900.879	96.0088	900.879	94.4852	900.879	94.1555	900.879	94.4515	900.879	92.4367	900.879	94.5187	900.879	91.6911	900.879	94.4424	900.879	91.644	900.879	93.9282	900.879	91.419	900.879	92.6076	900.879	90.637	900.879	90.1763	900.879	89.3747	900.879	87.6058	900.879	88.1374	900.879	88.4404	900.879	87.7228	900.879	90.462	900.879	88.2161	900.879	90.7711	900.879	88.9343	900.879	88.6444	900.879	89.3528	900.879	83.3528	900.879	89.0067	900.879	82.4115	900.879	87.0583
933.105	97.7214	933.105	98.3138	933.105	96.7967	933.105	98.4479	933.105	95.7134	933.105	97.9724	933.105	94.7675	933.105	96.7786	933.105	94.19	933.105	94.9754	933.105	93.9317	933.105	93.1682	933.105	93.7791	933.105	92.1796	933.105	93.5102	933.105	91.7176	933.105	92.8836	933.105	90.8623	933.105	91.5892	933.105	89.3107	933.105	89.4366	933.105	87.566	933.105	87.479	933.105	86.6298	933.105	88.3558	933.105	86.7633	933.105	90.3429	933.105	87.7053	933.105	91.0336	933.105	89.1023	933.105	89.6218	933.105	90.2339	933.105	85.7043	933.105	90.3193	933.105	84.7034	933.105	88.5603
965.332	97.5389	965.332	98.1995	965.332	96.7433	965.332	98.4848	965.332	95.8921	965.332	98.1351	965.332	95.0553	965.332	97.0029	965.332	94.464	965.332	95.0749	965.332	94.2838	965.332	92.7458	965.332	94.3408	965.332	91.4114	965.332	94.309	965.332	91.6373	965.332	93.9556	965.332	91.8173	965.332	93.0416	965.332	90.9809	965.332	91.2292	965.332	89.1403	965.332	88.7895	965.332	87.5196	965.332	88.4085	965.332	87.7716	965.332	90.0579	965.332	88.8326	965.332	90.7472	965.332	89.6255	965.332	89.675	965.332	90.0248	965.332	86.4692	965.332	89.6229	965.332	84.2228	965.332	87.5318
1000.49	97.4961	1000.49	98.0532	1000.49	96.7335	1000.49	98.2811	1000.49	96.0191	1000.49	98.0384	1000.49	95.5445	1000.49	97.1032	1000.49	95.1906	1000.49	95.3916	1000.49	94.7638	1000.49	93.336	1000.49	94.314	1000.49	92.1128	1000.49	94.0693	1000.49	92.3152	1000.49	93.9403	1000.49	92.8297	1000.49	93.3996	1000.49	92.5075	1000.49	91.8784	1000.49	90.772	1000.49	89.06	1000.49	87.8118	1000.49	87.3306	1000.49	86.696	1000.49	89.6254	1000.49	88.6248	1000.49	90.9696	1000.49	90.0045	1000.49	89.953	1000.49	90.1049	1000.49	86.8999	1000.49	89.1231	1000.49	84.5986	1000.49	86.874
1035.64	97.54	1035.64	98.2341	1035.64	96.6109	1035.64	98.6164	1035.64	95.565	1035.64	98.5107	1035.64	94.7177	1035.64	97.7068	1035.64	94.3174	1035.64	96.0459	1035.64	94.2279	1035.64	93.5073	1035.64	94.1792	1035.64	90.5288	1035.64	94.0744	1035.64	88.9376	1035.64	93.898	1035.64	90.0002	1035.64	93.5173	1035.64	91.3251	1035.64	92.646	1035.64	91.5143	1035.64	90.9049	1035.64	90.3217	1035.64	88.5752	1035.64	88.239	1035.64	88.3899	1035.64	88.2395	1035.64	89.6528	1035.64	90.0085	1035.64	88.8615	1035.64	90.6701	1035.64	85.4237	1035.64	89.9471	1035.64	84.5428	1035.64	87.8545
1072.27	97.7533	1072.27	98.2205	1072.27	97.1048	1072.27	98.3215	1072.27	96.5016	1072.27	97.9544	1072.27	96.0362	1072.27	97.029	1072.27	95.7096	1072.27	95.4715	1072.27	95.4964	1072.27	93.3199	1072.27	95.1862	1072.27	91.1478	1072.27	94.6538	1072.27	90.1257	1072.27	94.113	1072.27	89.7966	1072.27	93.4522	1072.27	88.9359	1072.27	91.9959	1072.27	87.7758	1072.27	89.3854	1072.27	87.5559	1072.27	87.2687	1072.27	88.1867	1072.27	88.8269	1072.27	88.9879	1072.27	90.7918	1072.27	89.7317	1072.27	90.7178	1072.27	89.9104	1072.27	88.1255	1072.27	88.9673	1072.27	84.6941	1072.27	86.4678
1108.89	97.5887	1108.89	97.9089	1108.89	97.0885	1108.89	97.9741	1108.89	96.6714	1108.89	97.7564	1108.89	96.4119	1108.89	97.0471	1108.89	96.061	1108.89	95.5209	1108.89	95.4359	1108.89	92.995	1108.89	94.5737	1108.89	89.9915	1108.89	93.6903	1108.89	88.1069	1108.89	93.1812	1108.89	87.6355	1108.89	93.2126	1108.89	87.5551	1108.89	93.0174	1108.89	87.5795	1108.89	91.6108	1108.89	87.1385	1108.89	89.2081	1108.89	86.3193	1108.89	88.9578	1108.89	87.2279	1108.89	90.3781	1108.89	89.2271	1108.89	90.3329	1108.89	90.2399	1108.89	87.7368	1108.89	89.4117	1108.89	82.6046	1108.89	85.8729
1148.44	97.7015	1148.44	97.7905	1148.44	97.4813	1148.44	97.6209	1148.44	97.1498	1148.44	97.2256	1148.44	96.7013	1148.44	96.6341	1148.44	96.2838	1148.44	95.6265	1148.44	95.868	1148.44	93.9766	1148.44	95.0621	1148.44	91.74	1148.44	93.6357	1148.44	89.9042	1148.44	92.1334	1148.44	89.6873	1148.44	91.3955	1148.44	89.647	1148.44	91.1745	1148.44	88.5095	1148.44	90.3429	1148.44	86.5257	1148.44	88.1123	1148.44	84.8821	1148.44	87.8606	1148.44	85.9538	1148.44	90.6318	1148.44	88.354	1148.44	91.6079	1148.44	89.4534	1148.44	90.1036	1148.44	88.5797	1148.44	86.438	1148.44	85.8245
1189.45	97.3116	1189.45	97.4469	1189.45	97.1898	1189.45	97.3761	1189.45	97.1281	1189.45	96.9795	1189.45	96.9296	1189.45	96.2628	1189.45	96.4895	1189.45	95.3297	1189.45	95.9086	1189.45	94.195	1189.45	95.1257	1189.45	92.4726	1189.45	93.9278	1189.45	90.0606	1189.45	92.4615	1189.45	88.7036	1189.45	91.0718	1189.45	89.1803	1189.45	90.1189	1189.45	89.02	1189.45	89.8615	1189.45	87.0406	1189.45	89.2109	1189.45	83.053	1189.45	88.114	1189.45	83.0552	1189.45	88.973	1189.45	87.1059	1189.45	90.1623	1189.45	88.3527	1189.45	89.2094	1189.45	86.7827	1189.45	85.8531	1189.45	83.9617
1230.47	96.5831	1230.47	96.8553	1230.47	96.5799	1230.47	97.0042	1230.47	96.8345	1230.47	96.6241	1230.47	96.9434	1230.47	95.7637	1230.47	96.567	1230.47	94.8	1230.47	95.8609	1230.47	94.0385	1230.47	95.0453	1230.47	93.1588	1230.47	93.9588	1230.47	91.6735	1230.47	92.5812	1230.47	90.5634	1230.47	91.0646	1230.47	90.7898	1230.47	89.3235	1230.47	90.6517	1230.47	88.1621	1230.47	89.094	1230.47	87.4925	1230.47	85.9734	1230.47	86.6652	1230.47	82.783	1230.47	87.7159	1230.47	85.03	1230.47	89.021	1230.47	87.1374	1230.47	88.5735	1230.47	86.2139	1230.47	86.379	1230.47	84.5662
1274.41	96.9491	1274.41	96.7799	1274.41	97.1047	1274.41	96.565	1274.41	97.0469	1274.41	96.1746	1274.41	96.6669	1274.41	95.5517	1274.41	96.0764	1274.41	94.5103	1274.41	95.5231	1274.41	93.1776	1274.41	94.8772	1274.41	92.1207	1274.41	93.5364	1274.41	90.5351	1274.41	91.36	1274.41	87.258	1274.41	88.8092	1274.41	86.9591	1274.41	86.5231	1274.41	89.7647	1274.41	86.6346	1274.41	90.2291	1274.41	86.9242	1274.41	87.9072	1274.41	86.154	1274.41	83.6627	1274.41	86.9063	1274.41	86.3233	1274.41	87.4081	1274.41	88.9581	1274.41	87.067	1274.41	88.022	1274.41	85.9172	1274.41	85.5142
1319.82	97.0315	1319.82	96.3233	1319.82	97.5262	1319.82	95.7558	1319.82	97.5704	1319.82	95.1366	1319.82	97.0434	1319.82	94.0552	1319.82	95.9017	1319.82	92.9453	1319.82	94.5372	1319.82	92.3783	1319.82	93.6597	1319.82	91.7355	1319.82	92.8475	1319.82	90.5926	1319.82	91.2903	1319.82	89.0417	1319.82	89.3764	1319.82	86.9372	1319.82	87.0643	1319.82	85.6455	1319.82	83.9804	1319.82	87.2809	1319.82	84.966	1319.82	87.954	1319.82	86.5135	1319.82	85.3364	1319.82	86.0027	1319.82	83.7723	1319.82	86.0573	1319.82	86.9637	1319.82	86.362	1319.82	87.1013	1319.82	86.4479	1319.82	86.4648
1366.7	96.7634	1366.7	95.8783	1366.7	97.3401	1366.7	94.9921	1366.7	97.49	1366.7	94.0367	1366.7	97.0995	1366.7	93.1031	1366.7	95.8754	1366.7	92.1859	1366.7	94.044	1366.7	90.934	1366.7	92.5847	1366.7	90.3181	1366.7	91.442	1366.7	90.1861	1366.7	89.5685	1366.7	89.5844	1366.7	87.6815	1366.7	88.634	1366.7	86.3192	1366.7	87.6155	1366.7	83.6629	1366.7	87.0701	1366.7	81.3621	1366.7	86.2229	1366.7	84.3336	1366.7	83.3583	1366.7	86.9295	1366.7	81.3885	1366.7	87.0081	1366.7	84.8867	1366.7	86.2327	1366.7	85.9314	1366.7	85.1393	1366.7	84.6939
1413.57	97.7163	1413.57	96.5917	1413.57	98.16	1413.57	94.9641	1413.57	98.0287	1413.57	93.7024	1413.57	97.2438	1413.57	93.0747	1413.57	95.5247	1413.57	92.0322	1413.57	93.3033	1413.57	89.7788	1413.57	92.0041	1413.57	87.3843	1413.57	91.2178	1413.57	87.2466	1413.57	89.4702	1413.57	85.0762	1413.57	87.2349	1413.57	78.7942	1413.57	84.668	1413.57	83.9267	1413.57	79.8239	1413.57	87.7079	1413.57	79.3651	1413.57	88.1761	1413.57	81.9844	1413.57	85.6315	1413.57	85.2971	1413.57	80.5918	1413.57	86.56	1413.57	83.2774	1413.57	86.4643	1413.57	85.1699	1413.57	85.3664	1413.57	84.0299
1463.38	97.4625	1463.38	96.2026	1463.38	98.0965	1463.38	94.7543	1463.38	98.0051	1463.38	93.5994	1463.38	97.224	1463.38	92.8791	1463.38	95.5154	1463.38	92.0614	1463.38	92.6525	1463.38	90.2006	1463.38	90.0855	1463.38	87.4625	1463.38	89.3348	1463.38	86.1394	1463.38	88.0601	1463.38	85.7519	1463.38	86.4872	1463.38	84.1029	1463.38	86.5592	1463.38	79.1006	1463.38	85.5016	1463.38	81.6086	1463.38	80.7929	1463.38	86.9442	1463.38	78.5696	1463.38	86.8404	1463.38	82.9295	1463.38	81.7324	1463.38	86.2456	1463.38	81.6868	1463.38	86.7612	1463.38	82.4506	1463.38	85.9176	1463.38	82.8421
1516.11	96.9863	1516.11	95.3648	1516.11	97.9334	1516.11	93.4991	1516.11	97.6561	1516.11	91.7788	1516.11	96.3036	1516.11	90.9077	1516.11	94.502	1516.11	90.2864	1516.11	92.0477	1516.11	88.7452	1516.11	88.6854	1516.11	86.5478	1516.11	86.2342	1516.11	85.1077	1516.11	85.4019	1516.11	86.8732	1516.11	84.1438	1516.11	87.7963	1516.11	83.084	1516.11	84.7392	1516.11	81.7203	1516.11	79.3106	1516.11	80.1475	1516.11	83.0279	1516.11	79.474	1516.11	85.2572	1516.11	81.9209	1516.11	83.2314	1516.11	84.5443	1516.11	79.4544	1516.11	85.5797	1516.11	78.5537	1516.11	85.338	1516.11	82.1779
1568.85	97.4519	1568.85	95.0901	1568.85	98.201	1568.85	91.9464	1568.85	97.4349	1568.85	89.7639	1568.85	95.4639	1568.85	88.5956	1568.85	92.7319	1568.85	88.5973	1568.85	89.4192	1568.85	88.8173	1568.85	85.8879	1568.85	87.8756	1568.85	84.1053	1568.85	86.0867	1568.85	83.6697	1568.85	85.329	1568.85	81.9481	1568.85	86.3615	1568.85	82.3713	1568.85	85.4627	1568.85	83.4805	1568.85	79.4501	1568.85	79.1348	1568.85	80.275	1568.85	74.281	1568.85	83.2486	1568.85	78.6629	1568.85	80.6956	1568.85	80.4202	1568.85	77.4849	1568.85	83.3645	1568.85	76.0879	1568.85	84.4788	1568.85	82.164
1624.51	97.8268	1624.51	95.371	1624.51	98.3917	1624.51	91.3318	1624.51	97.2104	1624.51	88.061	1624.51	94.5784	1624.51	87.4554	1624.51	90.9825	1624.51	87.8434	1624.51	86.9214	1624.51	87.8201	1624.51	83.3579	1624.51	86.3767	1624.51	82.6125	1624.51	84.972	1624.51	83.7974	1624.51	84.7275	1624.51	84.1965	1624.51	86.0852	1624.51	81.9585	1624.51	86.6749	1624.51	77.9446	1624.51	84.3735	1624.51	75.957	1624.51	80.3828	1624.51	69.1787	1624.51	81.0344	1624.51	74.3653	1624.51	77.3329	1624.51	78.5814	1624.51	70.1422	1624.51	82.7859	1624.51	67.9614	1624.51	84.5495	1624.51	81.5194
1681.64	97.7707	1681.64	95.7355	1681.64	98.151	1681.64	91.9387	1681.64	96.8554	1681.64	87.3474	1681.64	93.714	1681.64	86.6047	1681.64	88.5228	1681.64	87.1304	1681.64	81.0774	1681.64	87.3865	1681.64	76.8881	1681.64	86.9675	1681.64	81.4641	1681.64	85.6337	1681.64	84.0923	1681.64	83.7392	1681.64	83.7076	1681.64	82.0302	1681.64	83.0362	1681.64	85.4981	1681.64	84.7932	1681.64	85.7719	1681.64	81.8295	1681.64	81.4452	1681.64	73.7253	1681.64	81.3363	1681.64	68.0971	1681.64	77.2906	1681.64	74.358	1681.64	55.5212	1681.64	82.1398	1681.64	72.2029	1681.64	85.1142	1681.64	82.8111
1741.7	97.0706	1741.7	95.5903	1741.7	97.2878	1741.7	92.0703	1741.7	95.8087	1741.7	84.9745	1741.7	91.9278	1741.7	83.751	1741.7	85.0022	1741.7	85.6195	1741.7	71.419	1741.7	85.6726	1741.7	77.0279	1741.7	86.3151	1741.7	81.4151	1741.7	86.8414	1741.7	84.6056	1741.7	85.4109	1741.7	85.5525	1741.7	84.4498	1741.7	84.1803	1741.7	85.2215	1741.7	83.406	1741.7	84.8049	1741.7	80.9893	1741.7	81.9695	1741.7	75.6732	1741.7	78.6288	1741.7	74.3324	1741.7	76.7291	1741.7	70.7237	1741.7	60.5203	1741.7	78.6012	1741.7	75.0708	1741.7	84.2588	1741.7	83.2165
1803.22	97.4649	1803.22	95.6335	1803.22	97.3749	1803.22	91.7567	1803.22	94.9963	1803.22	83.5654	1803.22	90.1889	1803.22	82.2018	1803.22	80.4243	1803.22	85.7505	1803.22	73.8073	1803.22	85.8931	1803.22	81.0074	1803.22	86.0147	1803.22	83.2187	1803.22	86.5148	1803.22	85.4958	1803.22	87.1971	1803.22	86.2409	1803.22	85.5254	1803.22	83.1545	1803.22	83.9226	1803.22	84.0078	1803.22	85.6614	1803.22	83.1929	1803.22	84.0431	1803.22	77.3096	1803.22	80.5622	1803.22	73.8651	1803.22	76.0093	1803.22	76.1093	1803.22	69.1608	1803.22	76.5332	1803.22	76.7851	1803.22	84.6239	1803.22	84.0827
1866.21	98.1455	1866.21	96.1441	1866.21	97.8901	1866.21	91.2413	1866.21	95.073	1866.21	80.7595	1866.21	88.7705	1866.21	79.8098	1866.21	74.0874	1866.21	84.9848	1866.21	81.3422	1866.21	86.1248	1866.21	84.0684	1866.21	86.6463	1866.21	85.2293	1866.21	86.7676	1866.21	86.9508	1866.21	86.5009	1866.21	88.3483	1866.21	84.2361	1866.21	86.9161	1866.21	81.5786	1866.21	82.9589	1866.21	84.5277	1866.21	83.3621	1866.21	83.808	1866.21	80.9251	1866.21	80.2482	1866.21	74.5767	1866.21	78.15	1866.21	78.2968	1866.21	66.8759	1866.21	75.9774	1866.21	75.8376	1866.21	84.0738	1866.21	83.1444
1932.13	98.0792	1932.13	96.5759	1932.13	97.4496	1932.13	91.2168	1932.13	94.3921	1932.13	74.8925	1932.13	86.7279	1932.13	80.419	1932.13	75.4846	1932.13	84.9309	1932.13	85.0181	1932.13	86.5236	1932.13	86.3974	1932.13	85.9408	1932.13	85.8827	1932.13	83.3325	1932.13	86.6529	1932.13	80.0191	1932.13	87.681	1932.13	76.0721	1932.13	86.0472	1932.13	76.0817	1932.13	84.4229	1932.13	81.077	1932.13	85.1898	1932.13	84.036	1932.13	83.1224	1932.13	79.1895	1932.13	77.8494	1932.13	78.5337	1932.13	77.7696	1932.13	64.263	1932.13	76.4033	1932.13	78.7249	1932.13	83.9018	1932.13	83.2143
1999.51	97.7557	1999.51	96.3021	1999.51	96.5903	1999.51	90.8829	1999.51	92.7706	1999.51	78.3937	1999.51	83.7753	1999.51	80.7254	1999.51	81.9474	1999.51	85.5071	1999.51	87.0323	1999.51	86.9815	1999.51	87.3181	1999.51	85.4321	1999.51	86.4363	1999.51	82.7401	1999.51	86.8004	1999.51	82.469	1999.51	88.0111	1999.51	82.291	1999.51	88.1614	1999.51	82.4998	1999.51	85.1902	1999.51	74.6288	1999.51	83.4168	1999.51	83.4892	1999.51	82.7718	1999.51	80.1755	1999.51	78.2972	1999.51	77.6658	1999.51	79.9943	1999.51	60.9572	1999.51	71.7439	1999.51	78.1922	1999.51	83.3007	1999.51	82.9498
2069.82	98.3631	2069.82	96.0185	2069.82	96.8917	2069.82	90.2416	2069.82	91.7969	2069.82	81.5107	2069.82	80.8419	2069.82	82.577	2069.82	82.9276	2069.82	88.1949	2069.82	88.1972	2069.82	89.0044	2069.82	88.2457	2069.82	87.8834	2069.82	87.1506	2069.82	85.8949	2069.82	86.9534	2069.82	85.6881	2069.82	87.1719	2069.82	86.8672	2069.82	86.8681	2069.82	86.3028	2069.82	82.5292	2069.82	82.7688	2069.82	84.117	2069.82	84.1159	2069.82	83.456	2069.82	82.874	2069.82	77.122	2069.82	76.5865	2069.82	79.1449	2069.82	69.8571	2069.82	75.604	2069.82	78.9258	2069.82	84.0676	2069.82	84.661
2143.07	98.7206	2143.07	96.2317	2143.07	97.5387	2143.07	90.5611	2143.07	92.6951	2143.07	83.2156	2143.07	82.0082	2143.07	86.526	2143.07	83.4114	2143.07	89.5542	2143.07	87.8389	2143.07	88.3308	2143.07	88.5267	2143.07	85.7174	2143.07	87.1838	2143.07	85.5888	2143.07	87.0878	2143.07	85.0956	2143.07	86.5092	2143.07	83.6817	2143.07	87.1955	2143.07	84.0328	2143.07	84.7971	2143.07	82.143	2143.07	83.6067	2143.07	82.0184	2143.07	82.5817	2143.07	83.5266	2143.07	76.5111	2143.07	72.1855	2143.07	79.108	2143.07	72.9232	2143.07	75.0197	2143.07	75.7652	2143.07	82.9578	2143.07	82.8251
2219.24	97.5149	2219.24	95.7039	2219.24	96.6223	2219.24	91.4162	2219.24	92.2634	2219.24	82.4833	2219.24	84.6608	2219.24	89.6809	2219.24	85.1996	2219.24	89.097	2219.24	88.1637	2219.24	88.1388	2219.24	88.3247	2219.24	87.5705	2219.24	85.5292	2219.24	86.1114	2219.24	84.7271	2219.24	82.7448	2219.24	87.0744	2219.24	79.4288	2219.24	83.8459	2219.24	81.7815	2219.24	87.7606	2219.24	82.015	2219.24	85.0888	2219.24	78.5634	2219.24	81.9567	2219.24	83.1601	2219.24	73.5005	2219.24	79.4902	2219.24	74.2416	2219.24	76.4082	2219.24	74.343	2219.24	68.5633	2219.24	80.8008	2219.24	78.6881
2296.88	98.3045	2296.88	96.2156	2296.88	97.3238	2296.88	91.2895	2296.88	91.1856	2296.88	88.8513	2296.88	86.0869	2296.88	89.5087	2296.88	87.1311	2296.88	88.4493	2296.88	88.996	2296.88	89.6338	2296.88	88.5458	2296.88	86.2881	2296.88	86.7177	2296.88	83.0372	2296.88	84.9746	2296.88	86.0564	2296.88	85.1671	2296.88	84.4614	2296.88	83.428	2296.88	80.5364	2296.88	86.1184	2296.88	82.6856	2296.88	86.2058	2296.88	78.5901	2296.88	81.4424	2296.88	80.7858	2296.88	75.4832	2296.88	79.6178	2296.88	65.875	2296.88	78.0868	2296.88	74.6975	2296.88	78.182	2296.88	81.4211	2296.88	79.2849
2378.91	99.1275	2378.91	97.0561	2378.91	98.6655	2378.91	92.5601	2378.91	93.3875	2378.91	91.2625	2378.91	85.7777	2378.91	89.2548	2378.91	88.6704	2378.91	89.8912	2378.91	89.8411	2378.91	88.9738	2378.91	89.1825	2378.91	88.5277	2378.91	88.6952	2378.91	87.8953	2378.91	88.4432	2378.91	85.1361	2378.91	88.7587	2378.91	82.4088	2378.91	85.4295	2378.91	80.7279	2378.91	81.8225	2378.91	81.3401	2378.91	82.3383	2378.91	82.6674	2378.91	82.407	2378.91	78.6552	2378.91	78.0509	2378.91	79.019	2378.91	63.3213	2378.91	78.8611	2378.91	73.982	2378.91	79.6921	2378.91	81.6662	2378.91	82.2012
2462.4	98.6101	2462.4	97.2632	2462.4	97.8404	2462.4	94.0124	2462.4	94.2338	2462.4	91.2459	2462.4	87.5674	2462.4	90.3388	2462.4	90.2984	2462.4	91.3513	2462.4	91.0406	2462.4	90.5244	2462.4	90.4322	2462.4	89.2812	2462.4	88.6296	2462.4	86.6867	2462.4	85.4748	2462.4	85.543	2462.4	87.1922	2462.4	85.2939	2462.4	81.2152	2462.4	82.2376	2462.4	82.0631	2462.4	79.436	2462.4	79.8594	2462.4	84.1128	2462.4	81.3707	2462.4	80.8371	2462.4	79.0594	2462.4	78.8859	2462.4	54.3049	2462.4	77.7001	2462.4	72.9731	2462.4	82.2543	2462.4	82.0408	2462.4	82.5318
2548.83	98.4817	2548.83	97.0051	2548.83	97.2808	2548.83	94.4875	2548.83	93.4081	2548.83	91.5973	2548.83	90.1946	2548.83	92.5877	2548.83	91.081	2548.83	92.6493	2548.83	91.8829	2548.83	90.5149	2548.83	90.9078	2548.83	88.5188	2548.83	89.366	2548.83	86.3965	2548.83	85.9632	2548.83	82.2655	2548.83	83.2296	2548.83	81.0946	2548.83	80.6941	2548.83	82.726	2548.83	78.1549	2548.83	80.5486	2548.83	81.4506	2548.83	80.7983	2548.83	81.0507	2548.83	82.0868	2548.83	79.9095	2548.83	78.9709	2548.83	72.1217	2548.83	76.883	2548.83	58.4911	2548.83	79.7757	2548.83	78.6021	2548.83	81.9083
2639.65	99.0014	2639.65	97.4947	2639.65	98.1618	2639.65	94.5861	2639.65	94.0519	2639.65	93.083	2639.65	90.577	2639.65	93.7931	2639.65	92.1475	2639.65	91.6047	2639.65	92.5047	2639.65	89.634	2639.65	91.3312	2639.65	88.269	2639.65	89.3449	2639.65	86.4382	2639.65	88.0421	2639.65	85.3368	2639.65	84.527	2639.65	84.2272	2639.65	82.8618	2639.65	79.0802	2639.65	75.3666	2639.65	78.9497	2639.65	80.7849	2639.65	79.8021	2639.65	80.667	2639.65	80.8396	2639.65	81.1293	2639.65	78.8525	2639.65	67.1267	2639.65	78.4487	2639.65	62.5389	2639.65	80.5635	2639.65	82.1344	2639.65	81.5942
2731.93	98.9387	2731.93	97.9596	2731.93	97.9564	2731.93	95.2178	2731.93	95.1434	2731.93	94.1314	2731.93	92.2357	2731.93	93.6186	2731.93	93.1271	2731.93	91.9269	2731.93	93.2983	2731.93	90.4542	2731.93	92.1368	2731.93	87.7107	2731.93	89.1469	2731.93	85.5396	2731.93	86.4277	2731.93	83.5171	2731.93	83.0552	2731.93	79.5613	2731.93	73.7835	2731.93	81.3747	2731.93	75.9272	2731.93	78.8958	2731.93	81.2224	2731.93	78.8027	2731.93	80.9363	2731.93	80.0575	2731.93	77.9041	2731.93	77.4622	2731.93	66.1132	2731.93	78.3475	2731.93	70.9971	2731.93	81.5692	2731.93	81.6733	2731.93	81.2081
2828.61	98.7243	2828.61	97.9563	2828.61	97.9746	2828.61	96.3972	2828.61	95.1017	2828.61	94.9204	2828.61	93.2509	2828.61	93.1882	2828.61	93.7127	2828.61	92.6808	2828.61	93.3174	2828.61	89.9984	2828.61	92.1909	2828.61	86.2909	2828.61	89.8423	2828.61	86.163	2828.61	86.7868	2828.61	81.5974	2828.61	82.9839	2828.61	82.4677	2828.61	79.1204	2828.61	80.4696	2828.61	75.5415	2828.61	77.5508	2828.61	82.5581	2828.61	79.4087	2828.61	80.5327	2828.61	79.8979	2828.61	78.3675	2828.61	77.816	2828.61	61.0042	2828.61	77.313	2828.61	70.0405	2828.61	81.2338	2828.61	83.2656	2828.61	82.1611
2928.22	98.7529	2928.22	98.1782	2928.22	97.6411	2928.22	96.6354	2928.22	95.8786	2928.22	94.9618	2928.22	94.0501	2928.22	93.5376	2928.22	94.1558	2928.22	91.5679	2928.22	93.8846	2928.22	88.9127	2928.22	92.4774	2928.22	87.4736	2928.22	90.4288	2928.22	83.8028	2928.22	86.8467	2928.22	84.7678	2928.22	79.3861	2928.22	82.4779	2928.22	78.8886	2928.22	80.5825	2928.22	79.7814	2928.22	77.8	2928.22	80.915	2928.22	78.3157	2928.22	80.0472	2928.22	79.47	2928.22	79.1203	2928.22	78.6907	2928.22	72.6794	2928.22	75.941	2928.22	72.3902	2928.22	80.3739	2928.22	81.2405	2928.22	79.0649
3030.76	98.9727	3030.76	99.0934	3030.76	97.6566	3030.76	97.1292	3030.76	95.5266	3030.76	94.9966	3030.76	94.7897	3030.76	93.8455	3030.76	94.5968	3030.76	92.1532	3030.76	94.022	3030.76	90.2774	3030.76	92.4748	3030.76	86.6717	3030.76	90.0289	3030.76	85.5236	3030.76	84.9485	3030.76	82.8914	3030.76	66.4289	3030.76	77.2975	3030.76	75.6625	3030.76	81.2921	3030.76	82.2243	3030.76	78.1208	3030.76	78.3043	3030.76	77.0977	3030.76	79.043	3030.76	79.1328	3030.76	78.5363	3030.76	77.7685	3030.76	72.5803	3030.76	77.8549	3030.76	71.2873	3030.76	80.6364	3030.76	77.8374	3030.76	80.6936
3137.7	98.7641	3137.7	98.6	3137.7	97.6672	3137.7	97.7463	3137.7	96.0463	3137.7	95.0843	3137.7	94.757	3137.7	93.4992	3137.7	94.7893	3137.7	92.3776	3137.7	94.1195	3137.7	89.7833	3137.7	91.979	3137.7	87.4033	3137.7	89.1062	3137.7	84.6395	3137.7	82.8307	3137.7	82.3675	3137.7	75.0591	3137.7	82.361	3137.7	80.1393	3137.7	78.3217	3137.7	82.1345	3137.7	79.2469	3137.7	76.256	3137.7	77.7404	3137.7	78.3536	3137.7	78.256	3137.7	78.1465	3137.7	78.3418	3137.7	69.9557	3137.7	78.2955	3137.7	70.6929	3137.7	81.2701	3137.7	76.8808	3137.7	80.4688
3249.02	98.9965	3249.02	99.5102	3249.02	97.8731	3249.02	96.9744	3249.02	96.1926	3249.02	95.0996	3249.02	95.5443	3249.02	94.5023	3249.02	94.504	3249.02	91.9424	3249.02	93.9855	3249.02	88.6713	3249.02	91.8615	3249.02	85.8175	3249.02	88.7113	3249.02	84.5237	3249.02	84.8551	3249.02	85.3764	3249.02	81.2688	3249.02	81.7502	3249.02	77.9112	3249.02	80.874	3249.02	84.3647	3249.02	78.2699	3249.02	77.5836	3249.02	76.5214	3249.02	78.5649	3249.02	79.9914	3249.02	77.8568	3249.02	77.9939	3249.02	73.9797	3249.02	75.0378	3249.02	66.8443	3249.02	80.6259	3249.02	78.8929	3249.02	82.2342
3363.28	98.7909	3363.28	99.6387	3363.28	97.5144	3363.28	97.3476	3363.28	96.8499	3363.28	95.2962	3363.28	95.1327	3363.28	94.4542	3363.28	94.9321	3363.28	91.9651	3363.28	93.1043	3363.28	89.3908	3363.28	92.3533	3363.28	87.3274	3363.28	88.0171	3363.28	84.3465	3363.28	86.1603	3363.28	81.1076	3363.28	83.3337	3363.28	77.6655	3363.28	84.0969	3363.28	80.9606	3363.28	82.9156	3363.28	77.3282	3363.28	78.2026	3363.28	77.5768	3363.28	78.5672	3363.28	79.2127	3363.28	78.9204	3363.28	78.418	3363.28	75.6032	3363.28	76.2593	3363.28	70.3958	3363.28	80.5026	3363.28	78.832	3363.28	80.3099
3481.93	99.8024	3481.93	99.6251	3481.93	97.6539	3481.93	96.8043	3481.93	97.5464	3481.93	96.0986	3481.93	95.5372	3481.93	94.0435	3481.93	94.221	3481.93	91.8181	3481.93	93.2097	3481.93	89.1517	3481.93	91.5565	3481.93	87.2009	3481.93	87.3495	3481.93	84.6288	3481.93	83.863	3481.93	81.406	3481.93	81.8644	3481.93	83.5662	3481.93	85.4127	3481.93	76.9034	3481.93	81.8244	3481.93	79.0599	3481.93	77.0192	3481.93	74.9392	3481.93	78.9789	3481.93	77.3227	3481.93	77.2279	3481.93	78.9841	3481.93	77.0012	3481.93	77.4158	3481.93	72.3784	3481.93	78.3676	3481.93	75.9023	3481.93	78.9425
3604.98	99.4228	3604.98	99.2759	3604.98	96.8805	3604.98	97.2249	3604.98	97.3217	3604.98	95.5139	3604.98	95.8443	3604.98	94.401	3604.98	93.7845	3604.98	91.7504	3604.98	92.876	3604.98	88.6507	3604.98	91.089	3604.98	85.7642	3604.98	86.4024	3604.98	83.4036	3604.98	82.3997	3604.98	84.1234	3604.98	78.022	3604.98	81.1939	3604.98	84.7148	3604.98	78.3453	3604.98	82.8802	3604.98	75.702	3604.98	76.5588	3604.98	74.7208	3604.98	77.7377	3604.98	76.9484	3604.98	75.422	3604.98	77.1882	3604.98	77.0457	3604.98	77.4822	3604.98	73.0791	3604.98	79.6488	3604.98	72.024	3604.98	79.4414
3732.42	100.047	3732.42	99.2096	3732.42	97.7748	3732.42	97.1022	3732.42	97.2021	3732.42	96.0954	3732.42	96.4765	3732.42	93.7364	3732.42	92.6498	3732.42	91.6316	3732.42	92.2592	3732.42	87.9166	3732.42	90.1517	3732.42	85.5493	3732.42	85.2342	3732.42	83.4823	3732.42	81.0495	3732.42	81.7058	3732.42	64.1179	3732.42	79.9471	3732.42	83.6134	3732.42	79.6176	3732.42	82.043	3732.42	77.9049	3732.42	77.4581	3732.42	74.9539	3732.42	77.7954	3732.42	75.3458	3732.42	72.6262	3732.42	77.0738	3732.42	76.3317	3732.42	77.0575	3732.42	72.5141	3732.42	78.3216	3732.42	74.5007	3732.42	80.4152
3864.26	99.3869	3864.26	98.8702	3864.26	97.3891	3864.26	97.5394	3864.26	97.338	3864.26	95.5131	3864.26	96.3708	3864.26	94.4501	3864.26	92.5489	3864.26	90.8977	3864.26	90.6976	3864.26	87.9859	3864.26	89.6137	3864.26	85.7193	3864.26	83.66	3864.26	83.0447	3864.26	82.2981	3864.26	81.4342	3864.26	77.2186	3864.26	80.3396	3864.26	80.871	3864.26	78.9659	3864.26	74.9279	3864.26	75.8528	3864.26	76.687	3864.26	74.134	3864.26	77.4645	3864.26	75.8853	3864.26	72.1707	3864.26	76.8519	3864.26	75.8985	3864.26	77.4123	3864.26	71.4245	3864.26	77.1428	3864.26	72.7486	3864.26	80.0903
4000.49	99.7652	4000.49	98.9637	4000.49	97.7981	4000.49	97.1483	4000.49	97.0018	4000.49	96.087	4000.49	96.7586	4000.49	93.3077	4000.49	92.2911	4000.49	90.7758	4000.49	89.2258	4000.49	87.8621	4000.49	88.218	4000.49	86.1957	4000.49	83.1217	4000.49	84.4113	4000.49	84.065	4000.49	81.215	4000.49	78.8719	4000.49	81.1976	4000.49	73.6347	4000.49	78.484	4000.49	63.1845	4000.49	79.0739	4000.49	76.7002	4000.49	73.568	4000.49	75.0276	4000.49	75.0441	4000.49	66.9785	4000.49	76.4151	4000.49	76.0198	4000.49	77.225	4000.49	70.1872	4000.49	78.1635	4000.49	74.0356	4000.49	79.5971
4141.11	99.3732	4141.11	98.7343	4141.11	97.6889	4141.11	97.6644	4141.11	96.9482	4141.11	95.5404	4141.11	96.3858	4141.11	93.5845	4141.11	92.7351	4141.11	90.245	4141.11	89.1251	4141.11	88.3334	4141.11	88.3846	4141.11	86.7473	4141.11	85.063	4141.11	84.3405	4141.11	85.6238	4141.11	80.9082	4141.11	80.9424	4141.11	81.5939	4141.11	70.7575	4141.11	78.0874	4141.11	76.607	4141.11	77.0427	4141.11	76.6156	4141.11	73.9047	4141.11	72.0306	4141.11	74.5507	4141.11	70.7112	4141.11	76.6322	4141.11	74.6215	4141.11	76.062	4141.11	72.6073	4141.11	78.2864	4141.11	73.0008	4141.11	79.0425
4287.6	99.485	4287.6	98.8626	4287.6	97.9221	4287.6	96.8356	4287.6	96.9215	4287.6	95.7374	4287.6	96.6645	4287.6	93.0374	4287.6	92.1904	4287.6	90.5356	4287.6	89.3448	4287.6	88.8554	4287.6	88.5602	4287.6	85.8131	4287.6	88.8091	4287.6	84.9159	4287.6	87.1419	4287.6	83.0472	4287.6	80.4238	4287.6	80.7575	4287.6	72.927	4287.6	77.5395	4287.6	79.7757	4287.6	77.7911	4287.6	77.5841	4287.6	73.485	4287.6	73.2045	4287.6	74.9735	4287.6	73.4678	4287.6	75.7132	4287.6	69.857	4287.6	75.0263	4287.6	74.5483	4287.6	77.7265	4287.6	71.8528	4287.6	78.8389
4438.48	99.2786	4438.48	98.5937	4438.48	98.3008	4438.48	97.5126	4438.48	96.5293	4438.48	95.2641	4438.48	96.3953	4438.48	93.2121	4438.48	92.0362	4438.48	91.0827	4438.48	89.7256	4438.48	88.2003	4438.48	89.5004	4438.48	86.1026	4438.48	90.5732	4438.48	83.2462	4438.48	88.3567	4438.48	79.1329	4438.48	83.6913	4438.48	79.6449	4438.48	66.8906	4438.48	78.9358	4438.48	78.8537	4438.48	73.9398	4438.48	78.6267	4438.48	74.8643	4438.48	75.5716	4438.48	74.7226	4438.48	70.6567	4438.48	74.7521	4438.48	70.8953	4438.48	74.9769	4438.48	74.7708	4438.48	77.4764	4438.48	68.992	4438.48	78.8914
4595.21	99.109	4595.21	98.9081	4595.21	97.9395	4595.21	96.7988	4595.21	96.7734	4595.21	95.2355	4595.21	96.5732	4595.21	93.2254	4595.21	92.258	4595.21	90.9194	4595.21	88.3145	4595.21	87.9848	4595.21	90.296	4595.21	84.8796	4595.21	90.0787	4595.21	83.0238	4595.21	87.9631	4595.21	82.7226	4595.21	81.7271	4595.21	78.6433	4595.21	74.3937	4595.21	77.2284	4595.21	73.223	4595.21	76.6548	4595.21	76.9546	4595.21	72.984	4595.21	76.489	4595.21	73.4046	4595.21	67.8778	4595.21	73.247	4595.21	71.8889	4595.21	73.1387	4595.21	74.6874	4595.21	76.8697	4595.21	71.5625	4595.21	77.8063
4756.35	99.5112	4756.35	98.3351	4756.35	98.57	4756.35	96.9911	4756.35	96.2451	4756.35	95.3566	4756.35	95.7783	4756.35	93.5886	4756.35	92.3505	4756.35	90.6721	4756.35	88.7422	4756.35	87.3504	4756.35	90.5759	4756.35	86.1587	4756.35	89.2179	4756.35	83.3569	4756.35	87.4461	4756.35	80.0307	4756.35	84.2307	4756.35	80.0822	4756.35	71.9777	4756.35	78.541	4756.35	62.1037	4756.35	73.8591	4756.35	73.7653	4756.35	75.1644	4756.35	74.993	4756.35	73.2664	4756.35	67.5698	4756.35	71.0538	4756.35	73.3746	4756.35	75.2627	4756.35	75.4178	4756.35	77.485	4756.35	73.0513	4756.35	77.3816
4924.8	99.0027	4924.8	98.4656	4924.8	98.5905	4924.8	97.0303	4924.8	96.2594	4924.8	95.5043	4924.8	95.3897	4924.8	93.577	4924.8	92.7842	4924.8	90.5591	4924.8	89.2817	4924.8	87.8452	4924.8	91.5466	4924.8	85.0852	4924.8	89.6853	4924.8	83.3888	4924.8	85.3857	4924.8	81.5882	4924.8	82.4028	4924.8	76.9945	4924.8	74.2458	4924.8	78.6528	4924.8	73.4958	4924.8	75.916	4924.8	69.5258	4924.8	74.8715	4924.8	68.6803	4924.8	72.6079	4924.8	72.861	4924.8	72.5855	4924.8	73.4977	4924.8	73.6551	4924.8	74.6171	4924.8	77.2477	4924.8	70.7267	4924.8	77.6098
5097.66	99.1519	5097.66	98.4747	5097.66	98.7134	5097.66	96.8035	5097.66	96.1062	5097.66	95.8096	5097.66	95.4089	5097.66	93.578	5097.66	92.6841	5097.66	90.7421	5097.66	88.9799	5097.66	88.2326	5097.66	91.63	5097.66	86.454	5097.66	89.946	5097.66	83.9288	5097.66	84.9963	5097.66	80.4223	5097.66	79.8763	5097.66	80.2202	5097.66	75.0249	5097.66	77.7387	5097.66	76.3573	5097.66	73.5026	5097.66	66.2921	5097.66	75.5065	5097.66	70.5039	5097.66	72.4585	5097.66	71.3129	5097.66	71.3785	5097.66	67.0361	5097.66	72.0368	5097.66	75.3909	5097.66	76.3792	5097.66	70.4542	5097.66	79.2507
5277.83	98.9437	5277.83	98.1434	5277.83	98.9623	5277.83	97.1691	5277.83	96.725	5277.83	95.6723	5277.83	94.5607	5277.83	93.5137	5277.83	93.2984	5277.83	90.4333	5277.83	88.5121	5277.83	88.5285	5277.83	91.1696	5277.83	85.8533	5277.83	89.0145	5277.83	81.9385	5277.83	81.274	5277.83	79.6231	5277.83	79.5865	5277.83	76.8321	5277.83	70.6953	5277.83	75.6107	5277.83	74.1304	5277.83	73.8997	5277.83	73.8031	5277.83	73.7578	5277.83	71.165	5277.83	70.2727	5277.83	65.7638	5277.83	72.6768	5277.83	68.4022	5277.83	71.5379	5277.83	75.4466	5277.83	76.1278	5277.83	69.3847	5277.83	76.5485
5463.87	98.8269	5463.87	98.6236	5463.87	99.3594	5463.87	97.2075	5463.87	96.652	5463.87	95.5399	5463.87	94.3326	5463.87	93.2497	5463.87	93.1406	5463.87	90.4823	5463.87	88.4364	5463.87	87.8388	5463.87	88.6475	5463.87	84.4218	5463.87	88.1676	5463.87	81.9744	5463.87	80.5643	5463.87	79.9376	5463.87	79.0517	5463.87	77.8356	5463.87	63.1507	5463.87	74.3946	5463.87	65.6688	5463.87	71.0864	5463.87	72.2482	5463.87	71.9188	5463.87	73.5147	5463.87	69.7808	5463.87	71.0072	5463.87	69.4785	5463.87	68.6481	5463.87	66.8069	5463.87	73.9368	5463.87	75.3655	5463.87	69.4333	5463.87	74.7057
5657.23	99.1167	5657.23	98.7414	5657.23	98.8816	5657.23	97.0895	5657.23	96.87	5657.23	95.6286	5657.23	94.1505	5657.23	93.0315	5657.23	92.7633	5657.23	91.0735	5657.23	87.484	5657.23	86.8334	5657.23	87.1416	5657.23	84.0044	5657.23	86.2626	5657.23	79.7737	5657.23	79.9432	5657.23	78.5799	5657.23	77.4457	5657.23	76.5725	5657.23	68.0918	5657.23	74.0127	5657.23	68.8612	5657.23	72.9372	5657.23	69.1425	5657.23	72.0693	5657.23	72.6493	5657.23	66.3529	5657.23	71.065	5657.23	68.6582	5657.23	67.7876	5657.23	68.2548	5657.23	74.4978	5657.23	73.0681	5657.23	62.1043	5657.23	74.4094
5856.45	98.9898	5856.45	98.6033	5856.45	98.7003	5856.45	97.2011	5856.45	97.1094	5856.45	95.3239	5856.45	93.7012	5856.45	92.9723	5856.45	92.4848	5856.45	90.2231	5856.45	88.5986	5856.45	85.7088	5856.45	87.3944	5856.45	83.8975	5856.45	81.9983	5856.45	80.2682	5856.45	82.9969	5856.45	77.5093	5856.45	78.6746	5856.45	76.5672	5856.45	65.613	5856.45	74.7641	5856.45	61.3912	5856.45	71.6857	5856.45	71.6218	5856.45	72.4644	5856.45	69.8036	5856.45	65.7357	5856.45	69.9196	5856.45	68.6516	5856.45	67.5932	5856.45	64.2914	5856.45	72.8187	5856.45	71.8772	5856.45	62.296	5856.45	73.8341
6062.99	99.3493	6062.99	98.5573	6062.99	98.6135	6062.99	97.1317	6062.99	96.9385	6062.99	95.0127	6062.99	93.5	6062.99	92.9197	6062.99	92.5512	6062.99	88.8575	6062.99	88.067	6062.99	85.9492	6062.99	86.2693	6062.99	82.4047	6062.99	83.08	6062.99	80.5017	6062.99	82.9693	6062.99	77.9562	6062.99	76.0893	6062.99	76.7428	6062.99	71.7269	6062.99	75.1775	6062.99	61.6965	6062.99	72.4918	6062.99	75.1408	6062.99	70.908	6062.99	69.4571	6062.99	66.87	6062.99	67.448	6062.99	68.3692	6062.99	64.7345	6062.99	66.2639	6062.99	70.7925	6062.99	71.1043	6062.99	63.2663	6062.99	72.3827
6276.86	99.3759	6276.86	98.5016	6276.86	98.4569	6276.86	97.3105	6276.86	96.9649	6276.86	94.8403	6276.86	93.2241	6276.86	92.5753	6276.86	92.2408	6276.86	88.9631	6276.86	87.4746	6276.86	85.2858	6276.86	84.5806	6276.86	82.3886	6276.86	83.1756	6276.86	79.1576	6276.86	84.1613	6276.86	77.7964	6276.86	77.8774	6276.86	75.0206	6276.86	69.6211	6276.86	73.5318	6276.86	63.8987	6276.86	71.6653	6276.86	73.0149	6276.86	71.504	6276.86	70.6295	6276.86	67.4265	6276.86	69.2717	6276.86	66.6604	6276.86	61.8752	6276.86	61.5562	6276.86	71.0198	6276.86	70.5905	6276.86	60.7774	6276.86	73.2518
6498.05	99.4673	6498.05	98.5872	6498.05	98.5817	6498.05	97.1196	6498.05	96.8133	6498.05	94.8129	6498.05	93.0854	6498.05	91.9488	6498.05	91.84	6498.05	89.0129	6498.05	86.7949	6498.05	84.9688	6498.05	83.9311	6498.05	81.9388	6498.05	83.3723	6498.05	79.4162	6498.05	84.4103	6498.05	75.6303	6498.05	78.6298	6498.05	76.602	6498.05	74.332	6498.05	73.7994	6498.05	60.8165	6498.05	71.6537	6498.05	70.1961	6498.05	70.6711	6498.05	69.5811	6498.05	68.2125	6498.05	57.8902	6498.05	63.308	6498.05	65.097	6498.05	65.7945	6498.05	70.8155	6498.05	70.5803	6498.05	64.7254	6498.05	71.7858
6726.56	99.6545	6726.56	98.8706	6726.56	98.7773	6726.56	97.224	6726.56	96.5097	6726.56	94.9376	6726.56	93.6315	6726.56	92.0358	6726.56	91.417	6726.56	88.7961	6726.56	86.099	6726.56	84.7095	6726.56	82.1106	6726.56	81.2616	6726.56	86.7456	6726.56	80.0625	6726.56	84.2361	6726.56	75.7165	6726.56	81.0213	6726.56	77.3682	6726.56	75.7353	6726.56	73.9978	6726.56	69.0991	6726.56	74.392	6726.56	65.5448	6726.56	71.45	6726.56	66.2704	6726.56	69.341	6726.56	62.1182	6726.56	65.1559	6726.56	68.1558	6726.56	50.5366	6726.56	70.1738	6726.56	69.8164	6726.56	62.3429	6726.56	74.4555
6963.87	99.5761	6963.87	99.029	6963.87	98.7245	6963.87	97.3393	6963.87	96.8745	6963.87	95.2131	6963.87	94.0651	6963.87	92.7676	6963.87	91.3972	6963.87	88.1603	6963.87	86.1548	6963.87	85.3273	6963.87	82.6545	6963.87	82.0927	6963.87	87.3867	6963.87	80.9378	6963.87	81.5422	6963.87	78.0974	6963.87	79.8177	6963.87	77.1607	6963.87	73.8852	6963.87	72.244	6963.87	65.0696	6963.87	74.1747	6963.87	53.5735	6963.87	73.4002	6963.87	57.7263	6963.87	70.4592	6963.87	69.8655	6963.87	67.4029	6963.87	70.2865	6963.87	63.442	6963.87	69.7778	6963.87	68.6739	6963.87	65.9553	6963.87	72.4444
7209.96	99.5391	7209.96	99.0847	7209.96	98.7118	7209.96	97.3718	7209.96	96.9957	7209.96	95.4561	7209.96	94.3074	7209.96	92.6809	7209.96	90.7741	7209.96	88.2334	7209.96	86.5936	7209.96	85.3808	7209.96	82.763	7209.96	83.4334	7209.96	87.5332	7209.96	80.3472	7209.96	81.1417	7209.96	75.9399	7209.96	81.1619	7209.96	76.9141	7209.96	73.9174	7209.96	72.2763	7209.96	63.9534	7209.96	72.9974	7209.96	58.6779	7209.96	72.3036	7209.96	62.6259	7209.96	70.979	7209.96	68.1655	7209.96	63.3101	7209.96	69.0565	7209.96	61.0289	7209.96	68.7154	7209.96	69.454	7209.96	64.3716	7209.96	74.2331
7464.84	99.5679	7464.84	99.2401	7464.84	98.6645	7464.84	97.4755	7464.84	97.165	7464.84	95.6374	7464.84	94.6872	7464.84	92.1399	7464.84	90.718	7464.84	88.1238	7464.84	86.0996	7464.84	85.1656	7464.84	84.4106	7464.84	82.8783	7464.84	85.6005	7464.84	78.3485	7464.84	74.3411	7464.84	77.4394	7464.84	81.291	7464.84	75.8614	7464.84	74.0829	7464.84	72.3172	7464.84	69.0492	7464.84	71.6006	7464.84	64.4473	7464.84	70.7292	7464.84	62.2468	7464.84	70.4489	7464.84	65.8071	7464.84	63.754	7464.84	68.9896	7464.84	60.0048	7464.84	70.9531	7464.84	62.5203	7464.84	59.3517	7464.84	70.733
7727.05	99.531	7727.05	98.8878	7727.05	98.3422	7727.05	97.5197	7727.05	96.9405	7727.05	95.3356	7727.05	94.6138	7727.05	92.5428	7727.05	90.3143	7727.05	87.9753	7727.05	87.6913	7727.05	85.2957	7727.05	84.1663	7727.05	81.9919	7727.05	82.702	7727.05	78.3401	7727.05	74.3944	7727.05	76.3764	7727.05	77.8183	7727.05	74.2258	7727.05	61.0916	7727.05	72.3482	7727.05	71.3416	7727.05	71.7012	7727.05	66.6896	7727.05	67.1319	7727.05	63.4806	7727.05	71.0709	7727.05	60.4967	7727.05	68.355	7727.05	69.3848	7727.05	58.0313	7727.05	69.0989	7727.05	62.4465	7727.05	53.9132	7727.05	67.2058
7999.51	99.5214	7999.51	98.863	7999.51	98.4598	7999.51	97.3912	7999.51	97.1384	7999.51	95.0547	7999.51	94.5416	7999.51	91.7519	7999.51	90.471	7999.51	87.178	7999.51	87.6009	7999.51	84.2112	7999.51	83.6626	7999.51	81.7839	7999.51	80.7166	7999.51	78.3256	7999.51	79.2593	7999.51	74.5112	7999.51	77.2576	7999.51	72.313	7999.51	61.0331	7999.51	70.7212	7999.51	68.4606	7999.51	66.9229	7999.51	64.6052	7999.51	68.1222	7999.51	61.4253	7999.51	66.7819	7999.51	61.076	7999.51	68.3714	7999.51	64.6852	7999.51	58.0806	7999.51	68.8941	7999.51	51.6487	7999.51	50.4406	7999.51	67.9035
8282.23	99.5989	8282.23	98.9185	8282.23	98.6424	8282.23	97.1255	8282.23	97.2663	8282.23	95.1073	8282.23	94.615	8282.23	90.6127	8282.23	90.497	8282.23	87.5861	8282.23	87.5776	8282.23	83.9878	8282.23	82.3412	8282.23	80.5435	8282.23	79.1652	8282.23	74.6941	8282.23	80.8652	8282.23	70.9853	8282.23	73.5282	8282.23	69.1511	8282.23	69.6737	8282.23	70.4649	8282.23	69.3265	8282.23	68.7007	8282.23	65.4331	8282.23	67.1085	8282.23	65.5297	8282.23	67.8306	8282.23	54.6599	8282.23	67.8718	8282.23	63.8475	8282.23	51.6536	8282.23	68.3123	8282.23	50.5967	8282.23	55.4148	8282.23	64.9169
8573.73	99.7405	8573.73	98.943	8573.73	98.8814	8573.73	97.2365	8573.73	97.6547	8573.73	94.8402	8573.73	94.9025	8573.73	90.5231	8573.73	90.4336	8573.73	87.1504	8573.73	87.9937	8573.73	83.1823	8573.73	80.8134	8573.73	77.7638	8573.73	77.9748	8573.73	74.3796	8573.73	81.9449	8573.73	72.7517	8573.73	74.6298	8573.73	71.291	8573.73	73.8591	8573.73	70.2139	8573.73	69.6619	8573.73	70.6303	8573.73	50.9526	8573.73	68.5558	8573.73	62.8725	8573.73	68.4503	8573.73	54.8749	8573.73	69.658	8573.73	65.5051	8573.73	55.3005	8573.73	67.9469	8573.73	58.1879	8573.73	52.6199	8573.73	64.4402
8876.95	99.9303	8876.95	98.9536	8876.95	98.9447	8876.95	97.5668	8876.95	97.8626	8876.95	94.374	8876.95	94.9943	8876.95	90.785	8876.95	91.1857	8876.95	87.294	8876.95	88.9747	8876.95	82.8765	8876.95	80.48	8876.95	78.5854	8876.95	78.8586	8876.95	75.2871	8876.95	81.0862	8876.95	74.7204	8876.95	75.2158	8876.95	71.6475	8876.95	77.182	8876.95	70.6775	8876.95	72.5201	8876.95	69.1477	8876.95	63.7999	8876.95	70.3471	8876.95	64.777	8876.95	70.1406	8876.95	60.0191	8876.95	68.3329	8876.95	64.0816	8876.95	57.9967	8876.95	66.2012	8876.95	54.6084	8876.95	58.3302	8876.95	66.0376
9188.96	99.6989	9188.96	98.8357	9188.96	98.9128	9188.96	97.7735	9188.96	98.0955	9188.96	94.5672	9188.96	95.1328	9188.96	91.2114	9188.96	91.8144	9188.96	88.3411	9188.96	89.5586	9188.96	81.8469	9188.96	81.8265	9188.96	79.7726	9188.96	78.1355	9188.96	76.3679	9188.96	80.7117	9188.96	75.276	9188.96	72.9583	9188.96	71.7426	9188.96	77.3702	9188.96	72.8777	9188.96	71.9202	9188.96	70.4298	9188.96	62.0527	9188.96	69.1512	9188.96	65.1395	9188.96	71.4644	9188.96	59.4304	9188.96	67.6537	9188.96	64.1071	9188.96	63.8385	9188.96	60.669	9188.96	55.7598	9188.96	52.142	9188.96	66.9511
9514.16	99.508	9514.16	99.0775	9514.16	99.1651	9514.16	97.7464	9514.16	98.3936	9514.16	94.4085	9514.16	95.4027	9514.16	91.6165	9514.16	92.1729	9514.16	87.186	9514.16	88.7681	9514.16	83.2071	9514.16	80.226	9514.16	79.7582	9514.16	79.7959	9514.16	77.8825	9514.16	80.5077	9514.16	74.2057	9514.16	69.0714	9514.16	72.2673	9514.16	76.7778	9514.16	70.9043	9514.16	72.2345	9514.16	70.1652	9514.16	63.5593	9514.16	68.8193	9514.16	62.5954	9514.16	70.1274	9514.16	63.1151	9514.16	66.4547	9514.16	65.1152	9514.16	63.8633	9514.16	61.6577	9514.16	59.117	9514.16	57.5604	9514.16	64.8099
9849.61	100.014	9849.61	99.6464	9849.61	99.5607	9849.61	98.112	9849.61	98.296	9849.61	94.1618	9849.61	95.0957	9849.61	91.644	9849.61	91.8714	9849.61	85.3556	9849.61	87.5612	9849.61	82.2483	9849.61	81.419	9849.61	79.0894	9849.61	79.6374	9849.61	74.4158	9849.61	80.2715	9849.61	71.5826	9849.61	72.8932	9849.61	69.5566	9849.61	72.5793	9849.61	68.6575	9849.61	70.0049	9849.61	68.5456	9849.61	59.8171	9849.61	65.8754	9849.61	59.5682	9849.61	68.7507	9849.61	62.183	9849.61	67.3035	9849.61	64.5027	9849.61	66.6771	9849.61	52.2852	9849.61	52.4282	9849.61	63.5401	9849.61	62.2419
10196.8	100.358	10196.8	99.7742	10196.8	100.252	10196.8	98.0501	10196.8	98.5323	10196.8	94.049	10196.8	95.3413	10196.8	90.9632	10196.8	92.2054	10196.8	86.0695	10196.8	88.3973	10196.8	82.5161	10196.8	84.7039	10196.8	79.5117	10196.8	80.4396	10196.8	75.0134	10196.8	78.9589	10196.8	72.6661	10196.8	70.4094	10196.8	70.0335	10196.8	71.5619	10196.8	70.6581	10196.8	62.7845	10196.8	69.2421	10196.8	63.588	10196.8	68.5181	10196.8	57.5342	10196.8	69.8156	10196.8	62.115	10196.8	67.5888	10196.8	63.543	10196.8	64.5317	10196.8	64.4921	10196.8	61.7096	10196.8	43.7769	10196.8	68.8362
10555.7	100.186	10555.7	99.6661	10555.7	100.43	10555.7	97.6723	10555.7	98.5385	10555.7	93.9092	10555.7	95.5108	10555.7	90.7563	10555.7	92.2873	10555.7	86.6254	10555.7	89.5388	10555.7	83.8416	10555.7	85.1439	10555.7	78.9422	10555.7	77.7001	10555.7	75.9353	10555.7	75.2368	10555.7	71.2708	10555.7	73.1559	10555.7	68.913	10555.7	73.5032	10555.7	69.0207	10555.7	66.9133	10555.7	67.2535	10555.7	68.7069	10555.7	63.7461	10555.7	62.4391	10555.7	70.9612	10555.7	66.7901	10555.7	67.7719	10555.7	66.0256	10555.7	66.8265	10555.7	59.7113	10555.7	54.5549	10555.7	61.8223	10555.7	62.8742
10927.7	99.621	10927.7	99.4193	10927.7	100.227	10927.7	96.8224	10927.7	97.9018	10927.7	93.6773	10927.7	95.5106	10927.7	90.6277	10927.7	92.5009	10927.7	86.1072	10927.7	89.3136	10927.7	82.5883	10927.7	82.4817	10927.7	77.5574	10927.7	72.5695	10927.7	72.7678	10927.7	76.8431	10927.7	70.2454	10927.7	69.8907	10927.7	68.4834	10927.7	75.6618	10927.7	70.7569	10927.7	67.5125	10927.7	65.0666	10927.7	56.8147	10927.7	63.9996	10927.7	63.2913	10927.7	66.3442	10927.7	61.413	10927.7	69.0847	10927.7	66.6122	10927.7	68.8997	10927.7	52.4893	10927.7	54.3245	10927.7	59.2578	10927.7	67.2917
11313	98.9388	11313	99.4079	11313	99.991	11313	97.0509	11313	97.6292	11313	94.5943	11313	95.9894	11313	90.9599	11313	92.6246	11313	87.1385	11313	88.4461	11313	82.322	11313	79.3197	11313	79.2153	11313	78.568	11313	74.2709	11313	76.8179	11313	70.9922	11313	72.638	11313	68.2083	11313	74.4167	11313	69.4567	11313	63.7821	11313	65.6169	11313	54.3344	11313	62.2625	11313	60.1034	11313	68.4504	11313	58.8856	11313	69.7796	11313	63.8998	11313	66.4359	11313	57.6462	11313	59.8413	11313	61.262	11313	64.9857
11712.9	99.0893	11712.9	99.7024	11712.9	100.115	11712.9	96.9583	11712.9	97.7341	11712.9	94.3292	11712.9	95.6618	11712.9	90.5404	11712.9	92.042	11712.9	85.6221	11712.9	87.7855	11712.9	81.5753	11712.9	78.7214	11712.9	76.8178	11712.9	81.8391	11712.9	72.5281	11712.9	74.6198	11712.9	71.116	11712.9	75.2996	11712.9	67.8076	11712.9	73.0849	11712.9	67.9204	11712.9	58.8168	11712.9	67.0459	11712.9	61.6493	11712.9	60.7856	11712.9	60.8866	11712.9	67.2364	11712.9	58.2202	11712.9	68.7355	11712.9	66.6459	11712.9	64.6812	11712.9	45.2917	11712.9	50.9926	11712.9	62.7855	11712.9	63.0657
12126	99.7446	12126	99.8406	12126	100.1	12126	97.2293	12126	98.0178	12126	94.0512	12126	95.2954	12126	89.6734	12126	91.5964	12126	85.4581	12126	87.2008	12126	80.0251	12126	83.5579	12126	77.9007	12126	80.3051	12126	70.8877	12126	70.1102	12126	70.9528	12126	75.9947	12126	64.0592	12126	74.2468	12126	65.7531	12126	54.5568	12126	66.3138	12126	56.9527	12126	51.5478	12126	58.9113	12126	66.2008	12126	57.9888	12126	68.2745	12126	64.2665	12126	62.7851	12126	58.6927	12126	52.2262	12126	61.3498	12126	66.863
12553.7	99.9719	12553.7	99.5022	12553.7	100.204	12553.7	97.1192	12553.7	98.5929	12553.7	93.4793	12553.7	95.2642	12553.7	89.2807	12553.7	91.4638	12553.7	84.8807	12553.7	86.843	12553.7	77.7181	12553.7	85.9318	12553.7	74.3001	12553.7	79.4569	12553.7	71.8544	12553.7	72.0279	12553.7	69.3679	12553.7	73.497	12553.7	66.4118	12553.7	76.9945	12553.7	62.6239	12553.7	66.0274	12553.7	63.8825	12553.7	58.3887	12553.7	57.195	12553.7	55.482	12553.7	42.4625	12553.7	61.5263	12553.7	62.2375	12553.7	59.0218	12553.7	66.7666	12553.7	59.1144	12553.7	66.5539	12553.7	60.347	12553.7	67.4007
12996.1	100.369	12996.1	99.6266	12996.1	100.384	12996.1	97.5153	12996.1	99.1288	12996.1	93.0782	12996.1	95.7227	12996.1	88.8413	12996.1	91.2634	12996.1	82.9731	12996.1	87.5191	12996.1	74.8899	12996.1	85.496	12996.1	74.4304	12996.1	79.1011	12996.1	71.8801	12996.1	69.174	12996.1	68.0686	12996.1	73.1191	12996.1	67.0008	12996.1	77.0929	12996.1	64.1248	12996.1	66.5739	12996.1	59.0475	12996.1	64.8225	12996.1	54.0449	12996.1	51.7528	12996.1	61.3738	12996.1	58.6772	12996.1	63.7731	12996.1	58.8806	12996.1	68.8851	12996.1	63.9235	12996.1	65.2689	12996.1	68.9941	12996.1	64.788
13454.6	100.311	13454.6	99.3909	13454.6	100.365	13454.6	97.9752	13454.6	99.8572	13454.6	93.726	13454.6	96.3739	13454.6	89.402	13454.6	92.0833	13454.6	83.6074	13454.6	87.7415	13454.6	80.3636	13454.6	82.5396	13454.6	75.3106	13454.6	78.3805	13454.6	74.3139	13454.6	68.0513	13454.6	65.8702	13454.6	71.5622	13454.6	67.9426	13454.6	78.2858	13454.6	63.8728	13454.6	69.3765	13454.6	61.1766	13454.6	65.3429	13454.6	55.8976	13454.6	57.4603	13454.6	50.3652	13454.6	58.7315	13454.6	63.7777	13454.6	48.8802	13454.6	66.3559	13454.6	60.1832	13454.6	65.5094	13454.6	67.8011	13454.6	64.7229
13929.2	101.213	13929.2	99.7678	13929.2	100.977	13929.2	98.2784	13929.2	100.255	13929.2	94.0773	13929.2	96.8224	13929.2	89.8302	13929.2	91.7456	13929.2	83.4778	13929.2	88.2376	13929.2	80.4747	13929.2	82.2902	13929.2	74.0472	13929.2	77.1155	13929.2	70.0193	13929.2	63.0495	13929.2	67.1682	13929.2	74.5768	13929.2	67.227	13929.2	78.1543	13929.2	64.5087	13929.2	69.803	13929.2	62.7122	13929.2	63.7306	13929.2	56.0835	13929.2	58.5674	13929.2	50.3882	13929.2	64.8638	13929.2	58.7077	13929.2	58.9408	13929.2	64.6114	13929.2	59.0423	13929.2	62.2541	13929.2	67.8189	13929.2	64.6871
14419.9	101.954	14419.9	99.9801	14419.9	101.434	14419.9	98.0144	14419.9	100.078	14419.9	93.4194	14419.9	96.6673	14419.9	88.5925	14419.9	91.1685	14419.9	83.3809	14419.9	87.9623	14419.9	78.5027	14419.9	83.604	14419.9	73.8509	14419.9	75.4455	14419.9	70.1855	14419.9	65.4733	14419.9	66.3655	14419.9	71.9172	14419.9	63.9768	14419.9	76.6955	14419.9	60.9044	14419.9	69.3317	14419.9	59.0731	14419.9	63.0889	14419.9	54.7705	14419.9	61.352	14419.9	54.064	14419.9	64.4972	14419.9	47.4025	14419.9	58.7488	14419.9	55.6548	14419.9	57.6754	14419.9	54.1898	14419.9	62.4494	14419.9	64.2192
14928.2	102.163	14928.2	100.408	14928.2	101.323	14928.2	97.7069	14928.2	99.6302	14928.2	92.511	14928.2	96.2184	14928.2	86.6789	14928.2	90.2608	14928.2	81.0665	14928.2	86.3104	14928.2	73.6005	14928.2	81.655	14928.2	70.0141	14928.2	70.1356	14928.2	64.6754	14928.2	66.4114	14928.2	63.1703	14928.2	69.5471	14928.2	57.559	14928.2	76.7255	14928.2	58.3707	14928.2	70.0343	14928.2	55.5855	14928.2	59.5391	14928.2	52.412	14928.2	59.9216	14928.2	40.5262	14928.2	57.1187	14928.2	54.4966	14928.2	44.7929	14928.2	60.3985	14928.2	48.3612	14928.2	61.3618	14928.2	56.5433	14928.2	62.8776
15455.6	101.894	15455.6	100.346	15455.6	101.178	15455.6	97.0116	15455.6	98.8721	15455.6	91.2292	15455.6	94.9719	15455.6	83.5024	15455.6	88.4685	15455.6	76.6749	15455.6	81.9914	15455.6	69.1752	15455.6	77.4476	15455.6	64.455	15455.6	67.3848	15455.6	57.454	15455.6	62.2104	15455.6	53.389	15455.6	64.396	15455.6	54.251	15455.6	74.563	15455.6	52.5946	15455.6	68.7068	15455.6	46.9617	15455.6	50.0972	15455.6	45.8754	15455.6	50.8338	15455.6	45.077	15455.6	50.2791	15455.6	53.1063	15455.6	49.9664	15455.6	54.9416	15455.6	55.9356	15455.6	57.721	15455.6	50.0858	15455.6	55.4461
16000.5	101.679	16000.5	100.238	16000.5	100.717	16000.5	95.7713	16000.5	97.2756	16000.5	88.4861	16000.5	92.1699	16000.5	78.6681	16000.5	84.4899	16000.5	69.2609	16000.5	76.5421	16000.5	63.6957	16000.5	68.8694	16000.5	54.5135	16000.5	58.6336	16000.5	54.3056	16000.5	55.9144	16000.5	50.2822	16000.5	62.0517	16000.5	33.3965	16000.5	71.665	16000.5	44.3908	16000.5	67.4235	16000.5	46.9156	16000.5	41.7455	16000.5	49.5974	16000.5	47.6583	16000.5	52.2645	16000.5	53.3005	16000.5	51.638	16000.5	54.274	16000.5	52.0975	16000.5	50.4183	16000.5	57.9089	16000.5	55.7936	16000.5	59.0063
16564.5	101.687	16564.5	99.8404	16564.5	100.225	16564.5	94.2083	16564.5	95.4458	16564.5	83.2065	16564.5	87.6323	16564.5	73.9802	16564.5	76.4567	16564.5	72.678	16564.5	67.9139	16564.5	70.6498	16564.5	57.4756	16564.5	64.4327	16564.5	57.5747	16564.5	62.9626	16564.5	50.9582	16564.5	58.487	16564.5	58.2879	16564.5	43.3438	16564.5	72.7225	16564.5	53.8546	16564.5	69.2323	16564.5	53.1436	16564.5	50.2155	16564.5	55.0327	16564.5	43.0785	16564.5	54.6297	16564.5	53.6801	16564.5	48.5959	16564.5	49.4746	16564.5	31.5901	16564.5	46.8611	16564.5	49.8614	16564.5	52.1863	16564.5	42.0021
17148.9	101.53	17148.9	99.3005	17148.9	99.5146	17148.9	92.1969	17148.9	93.2037	17148.9	64.0861	17148.9	79.9344	17148.9	79.9082	17148.9	72.7398	17148.9	77.5491	17148.9	73.1598	17148.9	76.1021	17148.9	68.136	17148.9	69.7564	17148.9	65.8378	17148.9	67.6871	17148.9	61.3472	17148.9	61.1307	17148.9	64.5384	17148.9	49.9345	17148.9	77.5443	17148.9	60.7222	17148.9	73.0806	17148.9	59.6026	17148.9	55.2721	17148.9	58.1624	17148.9	44.2084	17148.9	57.8505	17148.9	53.4058	17148.9	46.5892	17148.9	46.4125	17148.9	55.3247	17148.9	57.8883	17148.9	60.1887	17148.9	55.218	17148.9	56.8872
17752.4	100.738	17752.4	98.3409	17752.4	98.3825	17752.4	90.5273	17752.4	90.9758	17752.4	78.4692	17752.4	70.7787	17752.4	82.2504	17752.4	78.7924	17752.4	78.8839	17752.4	75.7405	17752.4	76.6778	17752.4	68.4983	17752.4	70.5897	17752.4	64.4807	17752.4	67.6584	17752.4	66.2702	17752.4	59.8497	17752.4	66.6596	17752.4	56.322	17752.4	79.536	17752.4	61.4273	17752.4	74.3665	17752.4	59.8883	17752.4	55.3703	17752.4	59.0658	17752.4	49.4473	17752.4	59.3999	17752.4	51.6944	17752.4	57.2255	17752.4	54.0443	17752.4	59.185	17752.4	49.7346	17752.4	61.6442	17752.4	58.33	17752.4	55.1071
18379.4	100.316	18379.4	97.5977	18379.4	97.2785	18379.4	89.067	18379.4	88.077	18379.4	85.2827	18379.4	82.1122	18379.4	85.7671	18379.4	84.1962	18379.4	81.4915	18379.4	79.8415	18379.4	77.1668	18379.4	73.3485	18379.4	72.6466	18379.4	68.203	18379.4	67.6779	18379.4	68.6939	18379.4	60.5884	18379.4	69.0159	18379.4	61.6482	18379.4	82.1954	18379.4	63.4167	18379.4	76.4225	18379.4	60.2311	18379.4	47.0287	18379.4	58.8736	18379.4	48.5667	18379.4	59.5566	18379.4	46.2671	18379.4	55.6431	18379.4	47.4177	18379.4	54.762	18379.4	51.3821	18379.4	43.43	18379.4	53.4648	18379.4	64.9247
19026.9	99.498	19026.9	96.9602	19026.9	96.2569	19026.9	89.2067	19026.9	86.86	19026.9	88.2438	19026.9	86.6749	19026.9	87.2364	19026.9	85.9309	19026.9	82.3651	19026.9	80.6749	19026.9	78.2674	19026.9	77.0436	19026.9	73.7341	19026.9	70.7575	19026.9	67.9175	19026.9	68.392	19026.9	62.7588	19026.9	68.7915	19026.9	62.7922	19026.9	83.637	19026.9	64.5103	19026.9	76.8175	19026.9	60.8685	19026.9	50.2813	19026.9	57.8788	19026.9	42.4031	19026.9	57.2531	19026.9	49.5332	19026.9	55.5865	19026.9	57.1369	19026.9	56.5935	19026.9	45.6064	19026.9	56.2513	19026.9	51.0419	19026.9	63.5297
19697.8	97.8004	19697.8	95.5069	19697.8	94.1933	19697.8	88.7667	19697.8	87.0721	19697.8	89.1068	19697.8	88.8601	19697.8	87.3929	19697.8	86.7805	19697.8	82.2796	19697.8	81.7537	19697.8	78.0411	19697.8	78.1939	19697.8	73.0928	19697.8	71.7836	19697.8	67.5926	19697.8	68.3106	19697.8	62.4042	19697.8	68.8954	19697.8	61.8742	19697.8	83.9895	19697.8	62.8552	19697.8	76.8682	19697.8	60.0173	19697.8	51.4137	19697.8	55.558	19697.8	44.7522	19697.8	56.3786	19697.8	46.5161	19697.8	55.4991	19697.8	53.4729	19697.8	56.7018	19697.8	48.5851	19697.8	54.6564	19697.8	46.7	19697.8	66.2484
19999.5	97.1144	19999.5	94.6027	19999.5	93.0429	19999.5	88.2767	19999.5	87.5007	19999.5	89.3195	19999.5	89.3939	19999.5	87.4381	19999.5	86.8896	19999.5	81.7904	19999.5	80.8164	19999.5	77.4972	19999.5	78.454	19999.5	72.8769	19999.5	71.6593	19999.5	68.3659	19999.5	67.7051	19999.5	60.6846	19999.5	70.627	19999.5	64.8951	19999.5	83.7851	19999.5	62.8779	19999.5	76.368	19999.5	58.8577	19999.5	54.3286	19999.5	56.6539	19999.5	44.9748	19999.5	54.5812	19999.5	29.599	19999.5	54.3497	19999.5	48.4354	19999.5	53.6933	19999.5	54.5354	19999.5	58.5782	19999.5	54.7862	19999.5	66.287
