"SPL Horizontal"
"On-Axis"		"10°"		"-10°"		"20°"		"-20°"		"30°"		"-30°"		"40°"		"-40°"		"50°"		"-50°"		"60°"		"-60°"		"70°"		"-70°"		"80°"		"-80°"		"90°"		"-90°"		"100°"		"-100°"		"110°"		"-110°"		"120°"		"-120°"		"130°"		"-130°"		"140°"		"-140°"		"150°"		"-150°"		"160°"		"-160°"		"170°"		"-170°"		"180°"
"Frequency [Hz]"	"Sound Pessure Level [dB]   [2.83V at 1m]"	"Frequency [Hz]"	"Sound Pessure Level [dB]   [2.83V at 1m]"	"Frequency [Hz]"	"Sound Pessure Level [dB]   [2.83V at 1m]"	"Frequency [Hz]"	"Sound Pessure Level [dB]   [2.83V at 1m]"	"Frequency [Hz]"	"Sound Pessure Level [dB]   [2.83V at 1m]"	"Frequency [Hz]"	"Sound Pessure Level [dB]   [2.83V at 1m]"	"Frequency [Hz]"	"Sound Pessure Level [dB]   [2.83V at 1m]"	"Frequency [Hz]"	"Sound Pessure Level [dB]   [2.83V at 1m]"	"Frequency [Hz]"	"Sound Pessure Level [dB]   [2.83V at 1m]"	"Frequency [Hz]"	"Sound Pessure Level [dB]   [2.83V at 1m]"	"Frequency [Hz]"	"Sound Pessure Level [dB]   [2.83V at 1m]"	"Frequency [Hz]"	"Sound Pessure Level [dB]   [2.83V at 1m]"	"Frequency [Hz]"	"Sound Pessure Level [dB]   [2.83V at 1m]"	"Frequency [Hz]"	"Sound Pessure Level [dB]   [2.83V at 1m]"	"Frequency [Hz]"	"Sound Pessure Level [dB]   [2.83V at 1m]"	"Frequency [Hz]"	"Sound Pessure Level [dB]   [2.83V at 1m]"	"Frequency [Hz]"	"Sound Pessure Level [dB]   [2.83V at 1m]"	"Frequency [Hz]"	"Sound Pessure Level [dB]   [2.83V at 1m]"	"Frequency [Hz]"	"Sound Pessure Level [dB]   [2.83V at 1m]"	"Frequency [Hz]"	"Sound Pessure Level [dB]   [2.83V at 1m]"	"Frequency [Hz]"	"Sound Pessure Level [dB]   [2.83V at 1m]"	"Frequency [Hz]"	"Sound Pessure Level [dB]   [2.83V at 1m]"	"Frequency [Hz]"	"Sound Pessure Level [dB]   [2.83V at 1m]"	"Frequency [Hz]"	"Sound Pessure Level [dB]   [2.83V at 1m]"	"Frequency [Hz]"	"Sound Pessure Level [dB]   [2.83V at 1m]"	"Frequency [Hz]"	"Sound Pessure Level [dB]   [2.83V at 1m]"	"Frequency [Hz]"	"Sound Pessure Level [dB]   [2.83V at 1m]"	"Frequency [Hz]"	"Sound Pessure Level [dB]   [2.83V at 1m]"	"Frequency [Hz]"	"Sound Pessure Level [dB]   [2.83V at 1m]"	"Frequency [Hz]"	"Sound Pessure Level [dB]   [2.83V at 1m]"	"Frequency [Hz]"	"Sound Pessure Level [dB]   [2.83V at 1m]"	"Frequency [Hz]"	"Sound Pessure Level [dB]   [2.83V at 1m]"	"Frequency [Hz]"	"Sound Pessure Level [dB]   [2.83V at 1m]"	"Frequency [Hz]"	"Sound Pessure Level [dB]   [2.83V at 1m]"	"Frequency [Hz]"	"Sound Pessure Level [dB]   [2.83V at 1m]"	"Frequency [Hz]"	"Sound Pessure Level [dB]   [2.83V at 1m]"
20.5078	46.2773	20.5078	46.2103	20.5078	46.3734	20.5078	46.1768	20.5078	46.4922	20.5078	46.1786	20.5078	46.6271	20.5078	46.2136	20.5078	46.7721	20.5078	46.2773	20.5078	46.9223	20.5078	46.3628	20.5078	47.074	20.5078	46.4631	20.5078	47.2239	20.5078	46.5723	20.5078	47.3692	20.5078	46.6865	20.5078	47.5066	20.5078	46.8041	20.5078	47.6329	20.5078	46.9255	20.5078	47.745	20.5078	47.0525	20.5078	47.8398	20.5078	47.1865	20.5078	47.914	20.5078	47.3274	20.5078	47.9637	20.5078	47.4717	20.5078	47.985	20.5078	47.6131	20.5078	47.9742	20.5078	47.7424	20.5078	47.929	20.5078	47.8503
21.9727	47.4911	21.9727	47.5223	21.9727	47.4966	21.9727	47.5876	21.9727	47.5387	21.9727	47.6825	21.9727	47.6151	21.9727	47.8013	21.9727	47.7216	21.9727	47.9376	21.9727	47.8524	21.9727	48.0857	21.9727	48.0016	21.9727	48.2406	21.9727	48.1632	21.9727	48.3988	21.9727	48.3323	21.9727	48.5578	21.9727	48.5049	21.9727	48.7164	21.9727	48.6782	21.9727	48.8735	21.9727	48.8499	21.9727	49.0277	21.9727	49.0174	21.9727	49.1762	21.9727	49.1767	21.9727	49.3141	21.9727	49.3221	21.9727	49.435	21.9727	49.4464	21.9727	49.5309	21.9727	49.5414	21.9727	49.5939	21.9727	49.6002	21.9727	49.618
23.4375	50.8674	23.4375	50.8507	23.4375	50.8942	23.4375	50.8444	23.4375	50.9298	23.4375	50.8475	23.4375	50.9719	23.4375	50.8579	23.4375	51.0176	23.4375	50.8725	23.4375	51.0638	23.4375	50.8878	23.4375	51.1071	23.4375	50.9003	23.4375	51.1444	23.4375	50.9073	23.4375	51.1731	23.4375	50.907	23.4375	51.191	23.4375	50.8992	23.4375	51.1971	23.4375	50.8854	23.4375	51.1909	23.4375	50.869	23.4375	51.1732	23.4375	50.8544	23.4375	51.1453	23.4375	50.8463	23.4375	51.109	23.4375	50.8487	23.4375	51.0665	23.4375	50.8637	23.4375	51.0202	23.4375	50.8911	23.4375	50.973	23.4375	50.9287
24.9023	50.0607	24.9023	50.0425	24.9023	50.0902	24.9023	50.036	24.9023	50.1296	24.9023	50.041	24.9023	50.1773	24.9023	50.0568	24.9023	50.2311	24.9023	50.0822	24.9023	50.2888	24.9023	50.1159	24.9023	50.3482	24.9023	50.1566	24.9023	50.4075	24.9023	50.2035	24.9023	50.465	24.9023	50.2557	24.9023	50.5197	24.9023	50.3123	24.9023	50.5708	24.9023	50.3724	24.9023	50.6178	24.9023	50.4343	24.9023	50.6598	24.9023	50.4963	24.9023	50.6959	24.9023	50.5562	24.9023	50.7244	24.9023	50.6118	24.9023	50.7435	24.9023	50.6607	24.9023	50.7515	24.9023	50.7007	24.9023	50.7471	24.9023	50.73
26.3672	52.4211	26.3672	52.3895	26.3672	52.4603	26.3672	52.366	26.3672	52.5064	26.3672	52.3503	26.3672	52.5578	26.3672	52.342	26.3672	52.6128	26.3672	52.34	26.3672	52.6693	26.3672	52.3436	26.3672	52.7253	26.3672	52.3521	26.3672	52.7784	26.3672	52.3651	26.3672	52.8265	26.3672	52.3828	26.3672	52.8677	26.3672	52.4055	26.3672	52.9002	26.3672	52.4339	26.3672	52.9226	26.3672	52.4685	26.3672	52.9339	26.3672	52.5096	26.3672	52.9337	26.3672	52.5567	26.3672	52.922	26.3672	52.6089	26.3672	52.899	26.3672	52.6642	26.3672	52.8657	26.3672	52.7202	26.3672	52.8235	26.3672	52.7742
27.832	54.494	27.832	54.5502	27.832	54.436	27.832	54.603	27.832	54.3774	27.832	54.6509	27.832	54.3194	27.832	54.6921	27.832	54.2632	27.832	54.7249	27.832	54.2097	27.832	54.7476	27.832	54.1602	27.832	54.7591	27.832	54.1158	27.832	54.7584	27.832	54.0778	27.832	54.7453	27.832	54.0474	27.832	54.72	27.832	54.0257	27.832	54.683	27.832	54.0136	27.832	54.6355	27.832	54.0118	27.832	54.5788	27.832	54.021	27.832	54.5147	27.832	54.0416	27.832	54.4453	27.832	54.0736	27.832	54.3732	27.832	54.1169	27.832	54.3013	27.832	54.1705	27.832	54.2328
29.2969	56.4031	29.2969	56.4033	29.2969	56.3971	29.2969	56.3981	29.2969	56.3851	29.2969	56.3875	29.2969	56.3668	29.2969	56.3713	29.2969	56.3422	29.2969	56.3495	29.2969	56.3112	29.2969	56.3217	29.2969	56.2742	29.2969	56.2878	29.2969	56.2317	29.2969	56.2476	29.2969	56.1846	29.2969	56.2014	29.2969	56.1339	29.2969	56.1498	29.2969	56.0808	29.2969	56.0942	29.2969	56.0267	29.2969	56.0361	29.2969	55.9735	29.2969	55.9782	29.2969	55.9231	29.2969	55.9232	29.2969	55.8778	29.2969	55.8744	29.2969	55.84	29.2969	55.8351	29.2969	55.8122	29.2969	55.8081	29.2969	55.7967	29.2969	55.7951
30.7617	57.7117	30.7617	57.7124	30.7617	57.7033	30.7617	57.7058	30.7617	57.687	30.7617	57.692	30.7617	57.6628	30.7617	57.671	30.7617	57.6305	30.7617	57.6431	30.7617	57.5906	30.7617	57.6082	30.7617	57.5435	30.7617	57.5664	30.7617	57.4903	30.7617	57.5181	30.7617	57.4322	30.7617	57.4636	30.7617	57.3707	30.7617	57.4038	30.7617	57.3077	30.7617	57.3399	30.7617	57.2448	30.7617	57.2739	30.7617	57.1843	30.7617	57.208	30.7617	57.1281	30.7617	57.1455	30.7617	57.0787	30.7617	57.0897	30.7617	57.0383	30.7617	57.0443	30.7617	57.0095	30.7617	57.0121	30.7617	56.9947	30.7617	56.9954
32.2266	59.165	32.2266	59.1488	32.2266	59.1727	32.2266	59.1246	32.2266	59.1713	32.2266	59.0929	32.2266	59.1606	32.2266	59.0543	32.2266	59.1402	32.2266	59.0093	32.2266	59.1102	32.2266	58.9583	32.2266	59.0711	32.2266	58.9022	32.2266	59.0234	32.2266	58.8417	32.2266	58.9682	32.2266	58.7778	32.2266	58.9068	32.2266	58.712	32.2266	58.8407	32.2266	58.6462	32.2266	58.7716	32.2266	58.5824	32.2266	58.7016	32.2266	58.5236	32.2266	58.6329	32.2266	58.4726	32.2266	58.568	32.2266	58.4326	32.2266	58.5096	32.2266	58.4064	32.2266	58.4607	32.2266	58.3958	32.2266	58.424	32.2266	58.4018
33.6914	60.7607	33.6914	60.7297	33.6914	60.7817	33.6914	60.6895	33.6914	60.7919	33.6914	60.6408	33.6914	60.7907	33.6914	60.5844	33.6914	60.7775	33.6914	60.5211	33.6914	60.7518	33.6914	60.4519	33.6914	60.7136	33.6914	60.378	33.6914	60.6629	33.6914	60.3006	33.6914	60.6006	33.6914	60.2217	33.6914	60.5279	33.6914	60.1432	33.6914	60.4465	33.6914	60.0679	33.6914	60.3589	33.6914	59.9984	33.6914	60.2681	33.6914	59.9376	33.6914	60.1774	33.6914	59.8885	33.6914	60.0906	33.6914	59.8537	33.6914	60.0114	33.6914	59.8354	33.6914	59.9435	33.6914	59.8351	33.6914	59.89	33.6914	59.8534
35.1562	61.7321	35.1562	61.6964	35.1562	61.7703	35.1562	61.6642	35.1562	61.8098	35.1562	61.6365	35.1562	61.8495	35.1562	61.6141	35.1562	61.8886	35.1562	61.5975	35.1562	61.9261	35.1562	61.5871	35.1562	61.9613	35.1562	61.5832	35.1562	61.9934	35.1562	61.5856	35.1562	62.0219	35.1562	61.5944	35.1562	62.046	35.1562	61.6094	35.1562	62.0646	35.1562	61.6305	35.1562	62.0767	35.1562	61.6575	35.1562	62.0811	35.1562	61.6903	35.1562	62.0766	35.1562	61.7285	35.1562	62.0624	35.1562	61.7717	35.1562	62.0383	35.1562	61.8187	35.1562	62.0049	35.1562	61.868	35.1562	61.9637	35.1562	61.9172
36.6211	63.6017	36.6211	63.6067	36.6211	63.5863	36.6211	63.6016	36.6211	63.5606	36.6211	63.5866	36.6211	63.5249	36.6211	63.5626	36.6211	63.4799	36.6211	63.5302	36.6211	63.4267	36.6211	63.4904	36.6211	63.3667	36.6211	63.4444	36.6211	63.3016	36.6211	63.3932	36.6211	63.2337	36.6211	63.3384	36.6211	63.1654	36.6211	63.2811	36.6211	63.0994	36.6211	63.2228	36.6211	63.0383	36.6211	63.1647	36.6211	62.9846	36.6211	63.108	36.6211	62.9404	36.6211	63.0541	36.6211	62.9073	36.6211	63.0043	36.6211	62.8862	36.6211	62.9605	36.6211	62.8777	36.6211	62.9243	36.6211	62.8816	36.6211	62.8975
38.0859	65.4451	38.0859	65.4584	38.0859	65.4183	38.0859	65.4583	38.0859	65.3785	38.0859	65.4449	38.0859	65.3263	38.0859	65.4187	38.0859	65.2627	38.0859	65.3803	38.0859	65.1893	38.0859	65.3311	38.0859	65.1078	38.0859	65.2723	38.0859	65.0208	38.0859	65.2057	38.0859	64.9309	38.0859	65.1333	38.0859	64.8413	38.0859	65.0572	38.0859	64.7555	38.0859	64.9795	38.0859	64.6769	38.0859	64.9018	38.0859	64.6088	38.0859	64.8261	38.0859	64.5542	38.0859	64.7536	38.0859	64.5154	38.0859	64.6861	38.0859	64.4939	38.0859	64.6251	38.0859	64.4899	38.0859	64.5728	38.0859	64.5029	38.0859	64.5312
39.5508	66.6962	39.5508	66.6813	39.5508	66.6992	39.5508	66.6548	39.5508	66.6899	39.5508	66.6175	39.5508	66.6682	39.5508	66.5704	39.5508	66.6344	39.5508	66.5146	39.5508	66.589	39.5508	66.4517	39.5508	66.5328	39.5508	66.3832	39.5508	66.4669	39.5508	66.311	39.5508	66.393	39.5508	66.2371	39.5508	66.3131	39.5508	66.1635	39.5508	66.2298	39.5508	66.0922	39.5508	66.1463	39.5508	66.0254	39.5508	66.0657	39.5508	65.9646	39.5508	65.9916	39.5508	65.9117	39.5508	65.9272	39.5508	65.8681	39.5508	65.8752	39.5508	65.8353	39.5508	65.8375	39.5508	65.8147	39.5508	65.8149	39.5508	65.8075
41.0156	67.7499	41.0156	67.7328	41.0156	67.7575	41.0156	67.7065	41.0156	67.7559	41.0156	67.6716	41.0156	67.7454	41.0156	67.6288	41.0156	67.7268	41.0156	67.5795	41.0156	67.7008	41.0156	67.5252	41.0156	67.6686	41.0156	67.4679	41.0156	67.6312	41.0156	67.4095	41.0156	67.5897	41.0156	67.3522	41.0156	67.545	41.0156	67.2981	41.0156	67.4981	41.0156	67.2491	41.0156	67.4497	41.0156	67.2071	41.0156	67.4004	41.0156	67.1734	41.0156	67.3513	41.0156	67.1491	41.0156	67.3034	41.0156	67.1351	41.0156	67.2583	41.0156	67.1317	41.0156	67.2175	41.0156	67.1389	41.0156	67.183	41.0156	67.1563
42.4805	69.0833	42.4805	69.0812	42.4805	69.0742	42.4805	69.0678	42.4805	69.0543	42.4805	69.0437	42.4805	69.0242	42.4805	69.0096	42.4805	68.985	42.4805	68.9665	42.4805	68.9382	42.4805	68.9161	42.4805	68.8855	42.4805	68.8601	42.4805	68.8289	42.4805	68.8005	42.4805	68.7707	42.4805	68.7395	42.4805	68.713	42.4805	68.6791	42.4805	68.6577	42.4805	68.6216	42.4805	68.6065	42.4805	68.5687	42.4805	68.5605	42.4805	68.5221	42.4805	68.5203	42.4805	68.4833	42.4805	68.4862	42.4805	68.4531	42.4805	68.4585	42.4805	68.4321	42.4805	68.4375	42.4805	68.4204	42.4805	68.4237	42.4805	68.4178
43.9453	70.329	43.9453	70.3197	43.9453	70.3243	43.9453	70.2968	43.9453	70.3056	43.9453	70.2612	43.9453	70.2733	43.9453	70.2142	43.9453	70.2282	43.9453	70.1571	43.9453	70.1717	43.9453	70.0918	43.9453	70.1054	43.9453	70.0202	43.9453	70.0316	43.9453	69.9443	43.9453	69.9527	43.9453	69.8662	43.9453	69.8713	43.9453	69.7881	43.9453	69.7903	43.9453	69.7122	43.9453	69.7123	43.9453	69.6406	43.9453	69.6396	43.9453	69.5756	43.9453	69.5744	43.9453	69.5192	43.9453	69.5184	43.9453	69.4733	43.9453	69.4731	43.9453	69.4395	43.9453	69.4398	43.9453	69.419	43.9453	69.4192	43.9453	69.4122
45.4102	71.8631	45.4102	71.8638	45.4102	71.8469	45.4102	71.8494	45.4102	71.8154	45.4102	71.8208	45.4102	71.7689	45.4102	71.7789	45.4102	71.7085	45.4102	71.7252	45.4102	71.6355	45.4102	71.6612	45.4102	71.5523	45.4102	71.589	45.4102	71.4614	45.4102	71.5104	45.4102	71.366	45.4102	71.4276	45.4102	71.2697	45.4102	71.3428	45.4102	71.1762	45.4102	71.2582	45.4102	71.0891	45.4102	71.1759	45.4102	71.0116	45.4102	71.098	45.4102	70.9463	45.4102	71.0266	45.4102	70.8951	45.4102	70.9638	45.4102	70.8591	45.4102	70.9117	45.4102	70.8389	45.4102	70.8719	45.4102	70.8346	45.4102	70.8458
46.875	73.1367	46.875	73.1281	46.875	73.1298	46.875	73.1042	46.875	73.1074	46.875	73.0658	46.875	73.0698	46.875	73.0138	46.875	73.0178	46.875	72.9496	46.875	72.9526	46.875	72.875	46.875	72.8758	46.875	72.7919	46.875	72.7895	46.875	72.7028	46.875	72.6963	46.875	72.6103	46.875	72.5992	46.875	72.5173	46.875	72.5014	46.875	72.4264	46.875	72.4064	46.875	72.3407	46.875	72.3176	46.875	72.2625	46.875	72.2383	46.875	72.1942	46.875	72.171	46.875	72.1378	46.875	72.1179	46.875	72.0949	46.875	72.0804	46.875	72.067	46.875	72.0593	46.875	72.0549
48.3398	74.3515	48.3398	74.3382	48.3398	74.3491	48.3398	74.3092	48.3398	74.3309	48.3398	74.2654	48.3398	74.2972	48.3398	74.2078	48.3398	74.2487	48.3398	74.1376	48.3398	74.1865	48.3398	74.0567	48.3398	74.112	48.3398	73.9672	48.3398	74.0271	48.3398	73.8717	48.3398	73.9341	48.3398	73.773	48.3398	73.8357	48.3398	73.6742	48.3398	73.735	48.3398	73.5787	48.3398	73.6353	48.3398	73.4896	48.3398	73.5402	48.3398	73.41	48.3398	73.4531	48.3398	73.3422	48.3398	73.3769	48.3398	73.2885	48.3398	73.3143	48.3398	73.2502	48.3398	73.2672	48.3398	73.2284	48.3398	73.2368	48.3398	73.2239
51.2695	76.1959	51.2695	76.18	51.2695	76.2021	51.2695	76.1548	51.2695	76.1985	51.2695	76.1211	51.2695	76.1856	51.2695	76.0803	51.2695	76.1644	51.2695	76.0341	51.2695	76.1359	51.2695	75.9845	51.2695	76.1016	51.2695	75.9338	51.2695	76.0629	51.2695	75.884	51.2695	76.0213	51.2695	75.8374	51.2695	75.9784	51.2695	75.7956	51.2695	75.9355	51.2695	75.7598	51.2695	75.8937	51.2695	75.7308	51.2695	75.854	51.2695	75.7089	51.2695	75.8171	51.2695	75.6939	51.2695	75.7839	51.2695	75.6854	51.2695	75.7547	51.2695	75.6832	51.2695	75.73	51.2695	75.6867	51.2695	75.7104	51.2695	75.6959
52.7344	77.3292	52.7344	77.3213	52.7344	77.3253	52.7344	77.3021	52.7344	77.3101	52.7344	77.2723	52.7344	77.2849	52.7344	77.2337	52.7344	77.2513	52.7344	77.1885	52.7344	77.2117	52.7344	77.1394	52.7344	77.1688	52.7344	77.0895	52.7344	77.1254	52.7344	77.0418	52.7344	77.0844	52.7344	76.9992	52.7344	77.0483	52.7344	76.9642	52.7344	77.0187	52.7344	76.9382	52.7344	76.9966	52.7344	76.9219	52.7344	76.9817	52.7344	76.9149	52.7344	76.9729	52.7344	76.9156	52.7344	76.9682	52.7344	76.9219	52.7344	76.9655	52.7344	76.9314	52.7344	76.9626	52.7344	76.9417	52.7344	76.958	52.7344	76.951
54.1992	78.6738	54.1992	78.6711	54.1992	78.6584	54.1992	78.6505	54.1992	78.6254	54.1992	78.6131	54.1992	78.5756	54.1992	78.5602	54.1992	78.5106	54.1992	78.4938	54.1992	78.4328	54.1992	78.4164	54.1992	78.345	54.1992	78.331	54.1992	78.2506	54.1992	78.2409	54.1992	78.1537	54.1992	78.1498	54.1992	78.0582	54.1992	78.0611	54.1992	77.9682	54.1992	77.9781	54.1992	77.8874	54.1992	77.9033	54.1992	77.8184	54.1992	77.8388	54.1992	77.7629	54.1992	77.7854	54.1992	77.7214	54.1992	77.7431	54.1992	77.6933	54.1992	77.7113	54.1992	77.6774	54.1992	77.6893	54.1992	77.6721	54.1992	77.6763
55.6641	79.5988	55.6641	79.5901	55.6641	79.5903	55.6641	79.5648	55.6641	79.5649	55.6641	79.5236	55.6641	79.5233	55.6641	79.4681	55.6641	79.4667	55.6641	79.4001	55.6641	79.3972	55.6641	79.3222	55.6641	79.3169	55.6641	79.2372	55.6641	79.2288	55.6641	79.148	55.6641	79.1361	55.6641	79.058	55.6641	79.0422	55.6641	78.9702	55.6641	78.9508	55.6641	78.8876	55.6641	78.8651	55.6641	78.8126	55.6641	78.7881	55.6641	78.747	55.6641	78.722	55.6641	78.6919	55.6641	78.6685	55.6641	78.6481	55.6641	78.6282	55.6641	78.6156	55.6641	78.6011	55.6641	78.5945	55.6641	78.5869	55.6641	78.5848
58.5938	81.368	58.5938	81.3566	58.5938	81.3624	58.5938	81.3284	58.5938	81.3398	58.5938	81.2847	58.5938	81.3011	58.5938	81.227	58.5938	81.2478	58.5938	81.1578	58.5938	81.1818	58.5938	81.0796	58.5938	81.1057	58.5938	80.9958	58.5938	81.0227	58.5938	80.9096	58.5938	80.936	58.5938	80.8245	58.5938	80.8491	58.5938	80.7438	58.5938	80.7655	58.5938	80.67	58.5938	80.6883	58.5938	80.6054	58.5938	80.6198	58.5938	80.5511	58.5938	80.5618	58.5938	80.5078	58.5938	80.5152	58.5938	80.4753	58.5938	80.4799	58.5938	80.4529	58.5938	80.4555	58.5938	80.44	58.5938	80.4411	58.5938	80.4361
60.0586	82.157	60.0586	82.1454	60.0586	82.151	60.0586	82.1166	60.0586	82.1276	60.0586	82.0718	60.0586	82.0877	60.0586	82.0128	60.0586	82.0328	60.0586	81.9419	60.0586	81.9651	60.0586	81.8621	60.0586	81.8873	60.0586	81.7766	60.0586	81.8027	60.0586	81.689	60.0586	81.7146	60.0586	81.6028	60.0586	81.6269	60.0586	81.5214	60.0586	81.543	60.0586	81.4476	60.0586	81.4659	60.0586	81.3835	60.0586	81.3982	60.0586	81.3303	60.0586	81.3414	60.0586	81.2883	60.0586	81.2961	60.0586	81.2572	60.0586	81.2623	60.0586	81.2361	60.0586	81.2391	60.0586	81.2241	60.0586	81.2255	60.0586	81.2206
62.9883	83.5071	62.9883	83.4949	62.9883	83.5008	62.9883	83.4649	62.9883	83.4763	62.9883	83.4181	62.9883	83.4347	62.9883	83.3565	62.9883	83.3776	62.9883	83.2827	62.9883	83.3075	62.9883	83.1999	62.9883	83.2273	62.9883	83.1117	62.9883	83.1405	62.9883	83.0221	62.9883	83.051	62.9883	82.9348	62.9883	82.9626	62.9883	82.8535	62.9883	82.879	62.9883	82.781	62.9883	82.8033	62.9883	82.7194	62.9883	82.7379	62.9883	82.6696	62.9883	82.6841	62.9883	82.6316	62.9883	82.6423	62.9883	82.6044	62.9883	82.6116	62.9883	82.5866	62.9883	82.591	62.9883	82.577	62.9883	82.5791	62.9883	82.5746
64.4531	84.0304	64.4531	84.0166	64.4531	84.024	64.4531	83.9832	64.4531	83.9977	64.4531	83.9314	64.4531	83.9525	64.4531	83.8634	64.4531	83.8902	64.4531	83.7819	64.4531	83.8133	64.4531	83.6904	64.4531	83.7251	64.4531	83.5927	64.4531	83.6292	64.4531	83.4932	64.4531	83.5299	64.4531	83.396	64.4531	83.4315	64.4531	83.3052	64.4531	83.3381	64.4531	83.2241	64.4531	83.2533	64.4531	83.155	64.4531	83.1797	64.4531	83.0991	64.4531	83.119	64.4531	83.0563	64.4531	83.0716	64.4531	83.0259	64.4531	83.0367	64.4531	83.0062	64.4531	83.013	64.4531	82.9957	64.4531	82.999	64.4531	82.9934
67.3828	84.9137	67.3828	84.8991	67.3828	84.9089	67.3828	84.8654	67.3828	84.8848	67.3828	84.8138	67.3828	84.8425	67.3828	84.746	67.3828	84.7836	67.3828	84.6646	67.3828	84.7103	67.3828	84.5726	67.3828	84.6254	67.3828	84.4735	67.3828	84.5322	67.3828	84.3715	67.3828	84.4344	67.3828	84.2703	67.3828	84.3357	67.3828	84.1741	67.3828	84.2397	67.3828	84.0861	67.3828	84.1498	67.3828	84.0093	67.3828	84.0687	67.3828	83.9454	67.3828	83.9983	67.3828	83.8952	67.3828	83.9398	67.3828	83.8587	67.3828	83.8935	67.3828	83.8354	67.3828	83.8592	67.3828	83.8244	67.3828	83.8364	67.3828	83.8248
68.8477	85.2085	68.8477	85.1963	68.8477	85.2018	68.8477	85.1654	68.8477	85.1762	68.8477	85.1172	68.8477	85.133	68.8477	85.0534	68.8477	85.0739	68.8477	84.9767	68.8477	85.0012	68.8477	84.8902	68.8477	84.9181	68.8477	84.7975	68.8477	84.8279	68.8477	84.7025	68.8477	84.7345	68.8477	84.6091	68.8477	84.6416	68.8477	84.521	68.8477	84.553	68.8477	84.4411	68.8477	84.4715	68.8477	84.3719	68.8477	84.3998	68.8477	84.3147	68.8477	84.3393	68.8477	84.27	68.8477	84.2905	68.8477	84.2374	68.8477	84.2532	68.8477	84.216	68.8477	84.2267	68.8477	84.2048	68.8477	84.2103	68.8477	84.203
71.7773	85.6657	71.7773	85.6538	71.7773	85.6578	71.7773	85.6225	71.7773	85.6303	71.7773	85.5734	71.7773	85.5845	71.7773	85.5084	71.7773	85.5222	71.7773	85.4307	71.7773	85.4464	71.7773	85.3436	71.7773	85.3603	71.7773	85.2511	71.7773	85.2679	71.7773	85.1575	71.7773	85.1735	71.7773	85.0668	71.7773	85.0812	71.7773	84.9827	71.7773	84.9949	71.7773	84.908	71.7773	84.9178	71.7773	84.8448	71.7773	84.8521	71.7773	84.7938	71.7773	84.7989	71.7773	84.7549	71.7773	84.7582	71.7773	84.727	71.7773	84.729	71.7773	84.7087	71.7773	84.7097	71.7773	84.6985	71.7773	84.6989	71.7773	84.6953
74.707	85.9336	74.707	85.9208	74.707	85.9254	74.707	85.8877	74.707	85.8966	74.707	85.8359	74.707	85.8484	74.707	85.7677	74.707	85.783	74.707	85.6863	74.707	85.7033	74.707	85.5956	74.707	85.613	74.707	85.4999	74.707	85.5166	74.707	85.4036	74.707	85.4184	74.707	85.3112	74.707	85.3232	74.707	85.2263	74.707	85.235	74.707	85.152	74.707	85.1572	74.707	85.09	74.707	85.092	74.707	85.0409	74.707	85.0403	74.707	85.004	74.707	85.0019	74.707	84.978	74.707	84.9753	74.707	84.961	74.707	84.9586	74.707	84.9513	74.707	84.9499	74.707	84.9477
77.6367	86.0823	77.6367	86.0678	77.6367	86.0749	77.6367	86.0323	77.6367	86.0461	77.6367	85.9774	77.6367	85.9969	77.6367	85.9058	77.6367	85.9297	77.6367	85.821	77.6367	85.8476	77.6367	85.727	77.6367	85.7544	77.6367	85.6285	77.6367	85.6546	77.6367	85.5301	77.6367	85.5531	77.6367	85.4364	77.6367	85.4547	77.6367	85.3512	77.6367	85.3637	77.6367	85.2773	77.6367	85.2839	77.6367	85.2164	77.6367	85.2174	77.6367	85.1687	77.6367	85.1654	77.6367	85.1333	77.6367	85.1274	77.6367	85.1085	77.6367	85.1018	77.6367	85.0921	77.6367	85.0865	77.6367	85.0824	77.6367	85.0792	77.6367	85.0782
79.1016	86.1308	79.1016	86.1156	79.1016	86.1238	79.1016	86.079	79.1016	86.0948	79.1016	86.0227	79.1016	86.0452	79.1016	85.9494	79.1016	85.9773	79.1016	85.8628	79.1016	85.8944	79.1016	85.7672	79.1016	85.8003	79.1016	85.6672	79.1016	85.6998	79.1016	85.5678	79.1016	85.5977	79.1016	85.4737	79.1016	85.499	79.1016	85.3886	79.1016	85.4081	79.1016	85.3155	79.1016	85.3286	79.1016	85.2558	79.1016	85.2627	79.1016	85.2097	79.1016	85.2114	79.1016	85.176	79.1016	85.1741	79.1016	85.1529	79.1016	85.1492	79.1016	85.138	79.1016	85.1343	79.1016	85.1294	79.1016	85.1272	79.1016	85.1258
82.0312	86.2066	82.0312	86.1881	82.0312	86.2019	82.0312	86.1471	82.0312	86.1742	82.0312	86.0857	82.0312	86.1249	82.0312	86.0069	82.0312	86.0565	82.0312	85.9145	82.0312	85.9724	82.0312	85.8133	82.0312	85.8769	82.0312	85.7085	82.0312	85.7747	82.0312	85.6054	82.0312	85.6712	82.0312	85.5088	82.0312	85.5714	82.0312	85.423	82.0312	85.4797	82.0312	85.3508	82.0312	85.3997	82.0312	85.2935	82.0312	85.3336	82.0312	85.2509	82.0312	85.282	82.0312	85.2215	82.0312	85.2443	82.0312	85.203	82.0312	85.2184	82.0312	85.1926	82.0312	85.202	82.0312	85.1882	82.0312	85.1926	82.0312	85.1883
84.9609	86.2815	84.9609	86.2621	84.9609	86.2764	84.9609	86.219	84.9609	86.2471	84.9609	86.1543	84.9609	86.195	84.9609	86.0714	84.9609	86.1229	84.9609	85.9743	84.9609	86.0345	84.9609	85.8682	84.9609	85.9343	84.9609	85.7588	84.9609	85.8277	84.9609	85.6516	84.9609	85.7201	84.9609	85.5519	84.9609	85.617	84.9609	85.4641	84.9609	85.5231	84.9609	85.391	84.9609	85.4418	84.9609	85.3337	84.9609	85.3753	84.9609	85.2918	84.9609	85.324	84.9609	85.2633	84.9609	85.2869	84.9609	85.2458	84.9609	85.2617	84.9609	85.2362	84.9609	85.2459	84.9609	85.2324	84.9609	85.2369	84.9609	85.2327
87.8906	86.3892	87.8906	86.3702	87.8906	86.383	87.8906	86.327	87.8906	86.3521	87.8906	86.2617	87.8906	86.2982	87.8906	86.178	87.8906	86.2245	87.8906	86.0805	87.8906	86.1351	87.8906	85.9748	87.8906	86.0352	87.8906	85.8672	87.8906	85.9306	87.8906	85.7639	87.8906	85.8274	87.8906	85.6707	87.8906	85.7313	87.8906	85.592	87.8906	85.647	87.8906	85.5307	87.8906	85.5779	87.8906	85.4872	87.8906	85.5254	87.8906	85.4599	87.8906	85.4889	87.8906	85.4458	87.8906	85.4661	87.8906	85.4409	87.8906	85.4539	87.8906	85.441	87.8906	85.4485	87.8906	85.443	87.8906	85.4464	87.8906	85.4449
90.8203	86.6144	90.8203	86.5953	90.8203	86.6068	90.8203	86.5505	90.8203	86.5732	90.8203	86.4826	90.8203	86.5154	90.8203	86.3951	90.8203	86.4367	90.8203	86.2933	90.8203	86.3418	90.8203	86.1833	90.8203	86.2365	90.8203	86.0719	90.8203	86.1272	90.8203	85.9662	90.8203	86.021	90.8203	85.8726	90.8203	85.9244	90.8203	85.7961	90.8203	85.8428	90.8203	85.7399	90.8203	85.7797	90.8203	85.7043	90.8203	85.7366	90.8203	85.6873	90.8203	85.7119	90.8203	85.6847	90.8203	85.7023	90.8203	85.691	90.8203	85.7027	90.8203	85.7009	90.8203	85.7078	90.8203	85.7094	90.8203	85.7126	90.8203	85.7136
95.2148	86.868	95.2148	86.8477	95.2148	86.8591	95.2148	86.7991	95.2148	86.8214	95.2148	86.7248	95.2148	86.7569	95.2148	86.6288	95.2148	86.6689	95.2148	86.5162	95.2148	86.5623	95.2148	86.3936	95.2148	86.4431	95.2148	86.2682	95.2148	86.3183	95.2148	86.1477	95.2148	86.1954	95.2148	86.0391	95.2148	86.0819	95.2148	85.9482	95.2148	85.984	95.2148	85.8788	95.2148	85.9064	95.2148	85.8319	95.2148	85.8511	95.2148	85.8055	95.2148	85.8172	95.2148	85.7957	95.2148	85.8015	95.2148	85.7968	95.2148	85.7986	95.2148	85.8027	95.2148	85.8025	95.2148	85.8082	95.2148	85.8078	95.2148	85.8102
98.1445	86.9829	98.1445	86.9615	98.1445	86.9741	98.1445	86.911	98.1445	86.9355	98.1445	86.8339	98.1445	86.8693	98.1445	86.7345	98.1445	86.779	98.1445	86.6184	98.1445	86.6695	98.1445	86.4922	98.1445	86.5473	98.1445	86.3638	98.1445	86.4197	98.1445	86.241	98.1445	86.2944	98.1445	86.1312	98.1445	86.1792	98.1445	86.0402	98.1445	86.0805	98.1445	85.9718	98.1445	86.003	98.1445	85.9268	98.1445	85.9485	98.1445	85.9029	98.1445	85.9161	98.1445	85.8957	98.1445	85.9021	98.1445	85.899	98.1445	85.901	98.1445	85.9066	98.1445	85.9064	98.1445	85.9133	98.1445	85.9127	98.1445	85.9156
101.074	87.1002	101.074	87.0765	101.074	87.0919	101.074	87.0218	101.074	87.0521	101.074	86.9391	101.074	86.9829	101.074	86.8327	101.074	86.8879	101.074	86.7087	101.074	86.7726	101.074	86.5744	101.074	86.6437	101.074	86.4381	101.074	86.5088	101.074	86.3085	101.074	86.3766	101.074	86.1937	101.074	86.2551	101.074	86.1001	101.074	86.1517	101.074	86.0315	101.074	86.0713	101.074	85.9885	101.074	86.016	101.074	85.9684	101.074	85.9848	101.074	85.9658	101.074	85.9733	101.074	85.9737	101.074	85.9755	101.074	85.9852	101.074	85.9843	101.074	85.9941	101.074	85.993	101.074	85.997
105.469	87.3235	105.469	87.2966	105.469	87.3157	105.469	87.236	105.469	87.2736	105.469	87.1443	105.469	87.1995	105.469	87.0259	105.469	87.0971	105.469	86.8868	105.469	86.9717	105.469	86.7343	105.469	86.83	105.469	86.5772	105.469	86.68	105.469	86.4249	105.469	86.5305	105.469	86.2864	105.469	86.3903	105.469	86.1698	105.469	86.2673	105.469	86.0802	105.469	86.1675	105.469	86.0197	105.469	86.0938	105.469	85.9862	105.469	86.0459	105.469	85.9748	105.469	86.0199	105.469	85.9783	105.469	86.0099	105.469	85.9888	105.469	86.0086	105.469	85.9999	105.469	86.0093	105.469	86.007
108.398	87.4749	108.398	87.4509	108.398	87.4647	108.398	87.3936	108.398	87.4209	108.398	87.3058	108.398	87.3456	108.398	87.1917	108.398	87.2427	108.398	87.0573	108.398	87.1176	108.398	86.9098	108.398	86.9771	108.398	86.7576	108.398	86.8291	108.398	86.6097	108.398	86.6823	108.398	86.4748	108.398	86.5452	108.398	86.3603	108.398	86.4255	108.398	86.2712	108.398	86.3288	108.398	86.2095	108.398	86.2578	108.398	86.1735	108.398	86.212	108.398	86.1587	108.398	86.1876	108.398	86.1584	108.398	86.1786	108.398	86.1656	108.398	86.1782	108.398	86.1738	108.398	86.1798	108.398	86.179
112.793	87.5761	112.793	87.5532	112.793	87.5637	112.793	87.496	112.793	87.5168	112.793	87.4077	112.793	87.4381	112.793	87.2932	112.793	87.3321	112.793	87.1594	112.793	87.2053	112.793	87.0145	112.793	87.0656	112.793	86.8683	112.793	86.9219	112.793	86.7307	112.793	86.7841	112.793	86.6108	112.793	86.6613	112.793	86.5161	112.793	86.561	112.793	86.4506	112.793	86.4883	112.793	86.4147	112.793	86.4443	112.793	86.4049	112.793	86.4265	112.793	86.4143	112.793	86.4289	112.793	86.4345	112.793	86.4435	112.793	86.4566	112.793	86.4616	112.793	86.4735	112.793	86.4757	112.793	86.4804
117.188	87.6755	117.188	87.6514	117.188	87.6594	117.188	87.5884	117.188	87.604	117.188	87.4896	117.188	87.5122	117.188	87.3606	117.188	87.3889	117.188	87.2086	117.188	87.2412	117.188	87.0431	117.188	87.0782	117.188	86.875	117.188	86.9102	117.188	86.7158	117.188	86.7487	117.188	86.5766	117.188	86.6049	117.188	86.4663	117.188	86.4881	117.188	86.3901	117.188	86.4042	117.188	86.3485	117.188	86.355	117.188	86.3374	117.188	86.3371	117.188	86.3484	117.188	86.3434	117.188	86.3714	117.188	86.3642	117.188	86.3958	117.188	86.3892	117.188	86.4133	117.188	86.4093	117.188	86.4182
120.117	88.0444	120.117	88.0176	120.117	88.03	120.117	87.951	120.117	87.975	120.117	87.848	120.117	87.8818	120.117	87.7139	120.117	87.7549	120.117	87.556	120.117	87.6008	120.117	87.3836	120.117	87.428	120.117	87.2071	120.117	87.2466	120.117	87.0381	120.117	87.0683	120.117	86.8873	120.117	86.9047	120.117	86.7637	120.117	86.7663	120.117	86.6728	120.117	86.6607	120.117	86.6155	120.117	86.5911	120.117	86.5884	120.117	86.5559	120.117	86.584	120.117	86.5487	120.117	86.5928	120.117	86.5603	120.117	86.6052	120.117	86.5805	120.117	86.6132	120.117	86.5998	120.117	86.6117
124.512	88.3896	124.512	88.358	124.512	88.3803	124.512	88.2865	124.512	88.3309	124.512	88.1786	124.512	88.2443	124.512	88.0398	124.512	88.1256	124.512	87.878	124.512	87.9818	124.512	87.7035	124.512	87.822	124.512	87.5279	124.512	87.657	124.512	87.3643	124.512	87.4983	124.512	87.2246	124.512	87.3575	124.512	87.1186	124.512	87.2442	124.512	87.0518	124.512	87.1646	124.512	87.024	124.512	87.1202	124.512	87.0297	124.512	87.1072	124.512	87.059	124.512	87.1178	124.512	87.0998	124.512	87.1413	124.512	87.1404	124.512	87.1665	124.512	87.1712	124.512	87.1838	124.512	87.1862
128.906	88.6365	128.906	88.61	128.906	88.6187	128.906	88.5405	128.906	88.5577	128.906	88.4314	128.906	88.4564	128.906	88.2884	128.906	88.3204	128.906	88.1198	128.906	88.1573	128.906	87.9363	128.906	87.9772	128.906	87.7507	128.906	87.7926	128.906	87.5772	128.906	87.617	128.906	87.4296	128.906	87.4645	128.906	87.3191	128.906	87.3468	128.906	87.2523	128.906	87.2716	128.906	87.2291	128.906	87.2403	128.906	87.2432	128.906	87.2477	128.906	87.283	128.906	87.2831	128.906	87.3342	128.906	87.3321	128.906	87.3826	128.906	87.3802	128.906	87.4164	128.906	87.4149	128.906	87.428
133.301	88.897	133.301	88.8667	133.301	88.8796	133.301	88.7897	133.301	88.8153	133.301	88.6691	133.301	88.7067	133.301	88.5102	133.301	88.5585	133.301	88.3206	133.301	88.3777	133.301	88.1107	133.301	88.1738	133.301	87.8934	133.301	87.9588	133.301	87.6837	133.301	87.7468	133.301	87.4975	133.301	87.5534	133.301	87.3488	133.301	87.3931	133.301	87.2473	133.301	87.277	133.301	87.1957	133.301	87.2102	133.301	87.1889	133.301	87.19	133.301	87.2149	133.301	87.2066	133.301	87.2577	133.301	87.2451	133.301	87.3009	133.301	87.2892	133.301	87.331	133.301	87.3241	133.301	87.3395
139.16	89.0343	139.16	89.0104	139.16	89.0136	139.16	88.9429	139.16	88.9492	139.16	88.8351	139.16	88.844	139.16	88.692	139.16	88.7029	139.16	88.5212	139.16	88.533	139.16	88.3322	139.16	88.3435	139.16	88.1363	139.16	88.1452	139.16	87.9462	139.16	87.9505	139.16	87.7746	139.16	87.7723	139.16	87.6328	139.16	87.6222	139.16	87.5282	139.16	87.5089	139.16	87.4634	139.16	87.4365	139.16	87.4348	139.16	87.4031	139.16	87.4342	139.16	87.4016	139.16	87.45	139.16	87.4206	139.16	87.47	139.16	87.4479	139.16	87.4839	139.16	87.4721	139.16	87.4852
143.555	89.0645	143.555	89.0312	143.555	89.0461	143.555	88.9481	143.555	88.977	143.555	88.8195	143.555	88.8605	143.555	88.6523	143.555	88.7027	143.555	88.4565	143.555	88.5124	143.555	88.2443	143.555	88.3014	143.555	88.0305	143.555	88.0838	143.555	87.8311	143.555	87.8753	143.555	87.6612	143.555	87.6916	143.555	87.5328	143.555	87.5462	143.555	87.4526	143.555	87.4477	143.555	87.4195	143.555	87.3981	143.555	87.4257	143.555	87.392	143.555	87.4582	143.555	87.4186	143.555	87.5016	143.555	87.4634	143.555	87.5414	143.555	87.5114	143.555	87.5662	143.555	87.5498	143.555	87.5694
147.949	89.6151	147.949	89.5776	147.949	89.5973	147.949	89.4861	147.949	89.5247	147.949	89.3443	147.949	89.4004	147.949	89.1585	147.949	89.2298	147.949	88.9378	147.949	89.0211	147.949	88.6943	147.949	88.7857	147.949	88.4431	147.949	88.5381	147.949	88.2019	147.949	88.2956	147.949	87.9889	147.949	88.077	147.949	87.8204	147.949	87.8993	147.949	87.7073	147.949	87.7748	147.949	87.6522	147.949	87.7075	147.949	87.6485	147.949	87.6922	147.949	87.6823	147.949	87.7154	147.949	87.7354	147.949	87.7592	147.949	87.7898	147.949	87.8052	147.949	87.8304	147.949	87.8379	147.949	87.8475
153.809	89.8626	153.809	89.8285	153.809	89.8444	153.809	89.7436	153.809	89.7743	153.809	89.6119	153.809	89.6549	153.809	89.4397	153.809	89.4913	153.809	89.2359	153.809	89.2912	153.809	89.0126	153.809	89.0654	153.809	88.7847	153.809	88.828	153.809	88.5694	153.809	88.5961	153.809	88.3844	153.809	88.3887	153.809	88.2455	153.809	88.2243	153.809	88.1627	153.809	88.1171	153.809	88.1376	153.809	88.0731	153.809	88.1622	153.809	88.0878	153.809	88.2206	153.809	88.1467	153.809	88.2925	153.809	88.2285	153.809	88.3575	153.809	88.3108	153.809	88.3986	153.809	88.3741	153.809	88.4051
159.668	89.7743	159.668	89.7333	159.668	89.7607	159.668	89.6397	159.668	89.6932	159.668	89.498	159.668	89.5746	159.668	89.3149	159.668	89.4105	159.668	89.1001	159.668	89.2086	159.668	88.8656	159.668	88.9795	159.668	88.6259	159.668	88.7361	159.668	88.397	159.668	88.4932	159.668	88.1947	159.668	88.2669	159.668	88.0329	159.668	88.0729	159.668	87.9205	159.668	87.9239	159.668	87.8595	159.668	87.8281	159.668	87.8443	159.668	87.7858	159.668	87.8624	159.668	87.7897	159.668	87.8972	159.668	87.8253	159.668	87.9315	159.668	87.8746	159.668	87.9512	159.668	87.9199	159.668	87.9477
165.527	89.8358	165.527	89.7881	165.527	89.8166	165.527	89.6755	165.527	89.7318	165.527	89.5037	165.527	89.5862	165.527	89.2826	165.527	89.388	165.527	89.0262	165.527	89.1496	165.527	88.7534	165.527	88.8875	165.527	88.4868	165.527	88.6221	165.527	88.2501	165.527	88.3755	165.527	88.0645	165.527	88.1689	165.527	87.9436	165.527	88.0178	165.527	87.8895	165.527	87.9285	165.527	87.8928	165.527	87.8972	165.527	87.936	165.527	87.9119	165.527	87.9984	165.527	87.9561	165.527	88.0611	165.527	88.0134	165.527	88.1099	165.527	88.0695	165.527	88.1363	165.527	88.1133	165.527	88.1371
171.387	90.3724	171.387	90.3312	171.387	90.344	171.387	90.2215	171.387	90.2461	171.387	90.0461	171.387	90.0806	171.387	89.8102	171.387	89.8516	171.387	89.5216	171.387	89.5661	171.387	89.1926	171.387	89.2353	171.387	88.8414	171.387	88.8763	171.387	88.4926	171.387	88.5132	171.387	88.1764	171.387	88.1763	171.387	87.9244	171.387	87.8991	171.387	87.7608	171.387	87.7095	171.387	87.6941	171.387	87.6211	171.387	87.7128	171.387	87.6271	171.387	87.7892	171.387	87.7024	171.387	87.8888	171.387	87.8123	171.387	87.9793	171.387	87.9228	171.387	88.0366	171.387	88.0067	171.387	88.0469
177.246	90.4321	177.246	90.3804	177.246	90.4194	177.246	90.2664	177.246	90.343	177.246	90.0944	177.246	90.2058	177.246	89.8717	177.246	90.0135	177.246	89.6089	177.246	89.7747	177.246	89.3203	177.246	89.5012	177.246	89.024	177.246	89.2089	177.246	88.7421	177.246	88.9176	177.246	88.4982	177.246	88.65	177.246	88.3147	177.246	88.4296	177.246	88.2066	177.246	88.2756	177.246	88.1771	177.246	88.1982	177.246	88.2153	177.246	88.1949	177.246	88.2981	177.246	88.25	177.246	88.3968	177.246	88.3386	177.246	88.4837	177.246	88.4331	177.246	88.5374	177.246	88.5083	177.246	88.546
183.105	90.6369	183.105	90.5835	183.105	90.6242	183.105	90.4658	183.105	90.5458	183.105	90.2881	183.105	90.4042	183.105	90.0574	183.105	90.2046	183.105	89.784	183.105	89.9553	183.105	89.4824	183.105	89.6685	183.105	89.1714	183.105	89.3608	183.105	88.8734	183.105	89.0537	183.105	88.6132	183.105	88.7721	183.105	88.4131	183.105	88.5413	183.105	88.2887	183.105	88.3814	183.105	88.2433	183.105	88.3016	183.105	88.2669	183.105	88.2966	183.105	88.3382	183.105	88.3478	183.105	88.4304	183.105	88.4287	183.105	88.517	183.105	88.5116	183.105	88.5768	183.105	88.5728	183.105	88.5966
188.965	90.6618	188.965	90.6096	188.965	90.6426	188.965	90.4873	188.965	90.5534	188.965	90.2986	188.965	90.3979	188.965	90.0507	188.965	90.1821	188.965	89.7554	188.965	89.9155	188.965	89.4297	188.965	89.6116	188.965	89.097	188.965	89.289	188.965	88.786	188.965	88.9722	188.965	88.528	188.965	88.69	188.965	88.3507	188.965	88.4717	188.965	88.2695	188.965	88.3395	188.965	88.2823	188.965	88.3015	188.965	88.3691	188.965	88.3474	188.965	88.4981	188.965	88.4518	188.965	88.635	188.965	88.5817	188.965	88.7498	188.965	88.705	188.965	88.821	188.965	88.7958	188.965	88.837
196.289	90.8115	196.289	90.7632	196.289	90.7852	196.289	90.6413	196.289	90.6853	196.289	90.4495	196.289	90.5156	196.289	90.1946	196.289	90.2824	196.289	89.887	196.289	89.9956	196.289	89.5426	196.289	89.6693	196.289	89.1833	196.289	89.3232	196.289	88.838	196.289	88.9827	196.289	88.5402	196.289	88.6779	196.289	88.3227	196.289	88.4399	196.289	88.2081	196.289	88.2933	196.289	88.2005	196.289	88.2481	196.289	88.2823	196.289	88.2949	196.289	88.4198	196.289	88.4072	196.289	88.5733	196.289	88.5485	196.289	88.707	196.289	88.6825	196.289	88.794	196.289	88.7793	196.289	88.8193
203.613	90.549	203.613	90.4782	203.613	90.5357	203.613	90.3246	203.613	90.4392	203.613	90.0921	203.613	90.2626	203.613	89.7879	203.613	90.0115	203.613	89.4241	203.613	89.6948	203.613	89.0187	203.613	89.3261	203.613	88.5986	203.613	88.9253	203.613	88.1998	203.613	88.5212	203.613	87.8654	203.613	88.1511	203.613	87.6375	203.613	87.8573	203.613	87.5436	203.613	87.677	203.613	87.5838	203.613	87.6283	203.613	87.7295	203.613	87.7016	203.613	87.9328	203.613	87.861	203.613	88.1423	203.613	88.0577	203.613	88.3148	203.613	88.2434	203.613	88.4201	203.613	88.3799	203.613	88.4426
210.938	90.9811	210.938	90.9379	210.938	90.9399	210.938	90.8101	210.938	90.8153	210.938	90.5993	210.938	90.6102	210.938	90.309	210.938	90.3291	210.938	89.946	210.938	89.9795	210.938	89.5222	210.938	89.5736	210.938	89.0567	210.938	89.1302	210.938	88.5788	210.938	88.6765	210.938	88.1281	210.938	88.2489	210.938	87.7518	210.938	87.8894	210.938	87.4936	210.938	87.6373	210.938	87.3784	210.938	87.5151	210.938	87.4	210.938	87.5185	210.938	87.5219	210.938	87.6159	210.938	87.6916	210.938	87.7594	210.938	87.8566	210.938	87.8997	210.938	87.9761	210.938	87.9969	210.938	88.0254
218.262	90.9192	218.262	90.8742	218.262	90.8924	218.262	90.7588	218.262	90.7941	218.262	90.5752	218.262	90.6255	218.262	90.3273	218.262	90.3893	218.262	90.0209	218.262	90.09	218.262	89.6648	218.262	89.7351	218.262	89.2724	218.262	89.3367	218.262	88.8634	218.262	88.9136	218.262	88.4655	218.262	88.4929	218.262	88.1121	218.262	88.1087	218.262	87.8368	218.262	87.7972	218.262	87.6625	218.262	87.5869	218.262	87.5922	218.262	87.4881	218.262	87.6059	218.262	87.4882	218.262	87.6677	218.262	87.5556	218.262	87.7378	218.262	87.6504	218.262	87.783	218.262	87.7353	218.262	87.7835
225.586	90.6422	225.586	90.5881	225.586	90.6141	225.586	90.4536	225.586	90.5045	225.586	90.2441	225.586	90.3173	225.586	89.9683	225.586	90.0594	225.586	89.6396	225.586	89.7411	225.586	89.2762	225.586	89.3776	225.586	88.9031	225.586	88.9905	225.586	88.551	225.586	88.6092	225.586	88.2548	225.586	88.2703	225.586	88.0471	225.586	88.0128	225.586	87.9482	225.586	87.8676	225.586	87.9587	225.586	87.8453	225.586	88.0573	225.586	87.9303	225.586	88.2077	225.586	88.0859	225.586	88.3691	225.586	88.2672	225.586	88.5055	225.586	88.4331	225.586	88.59	225.586	88.5527	225.586	88.6072
232.91	90.5454	232.91	90.4527	232.91	90.541	232.91	90.2636	232.91	90.4408	232.91	89.9822	232.91	90.2482	232.91	89.6163	232.91	89.9683	232.91	89.1802	232.91	89.6085	232.91	88.6966	232.91	89.1807	232.91	88.1999	232.91	88.7039	232.91	87.7377	232.91	88.2082	232.91	87.3671	232.91	87.7389	232.91	87.1409	232.91	87.3542	232.91	87.0873	232.91	87.1124	232.91	87.1944	232.91	87.0483	232.91	87.4137	232.91	87.1533	232.91	87.6798	232.91	87.3776	232.91	87.9314	232.91	87.6523	232.91	88.122	232.91	87.9128	232.91	88.2226	232.91	88.1115	232.91	88.2192
241.699	90.8553	241.699	90.8066	241.699	90.8098	241.699	90.6637	241.699	90.6709	241.699	90.4276	241.699	90.4412	241.699	90.101	241.699	90.1251	241.699	89.6892	241.699	89.7301	241.699	89.2033	241.699	89.2676	241.699	88.6637	241.699	88.7548	241.699	88.1049	241.699	88.2179	241.699	87.5787	241.699	87.6952	241.699	87.15	241.699	87.2382	241.699	86.8801	241.699	86.9041	241.699	86.7994	241.699	86.7376	241.699	86.8887	241.699	86.7478	241.699	87.0868	241.699	86.8997	241.699	87.3173	241.699	87.1282	241.699	87.5132	241.699	87.3628	241.699	87.6288	241.699	87.5462	241.699	87.6406
250.488	90.2774	250.488	90.1663	250.488	90.2871	250.488	89.9555	250.488	90.1957	250.488	89.6494	250.488	90.0064	250.488	89.2557	250.488	89.7249	250.488	88.7867	250.488	89.3605	250.488	88.2613	250.488	88.9273	250.488	87.7086	250.488	88.4458	250.488	87.1707	250.488	87.9444	250.488	86.7021	250.488	87.4597	250.488	86.36	250.488	87.0343	250.488	86.1845	250.488	86.7105	250.488	86.179	250.488	86.5193	250.488	86.3072	250.488	86.4689	250.488	86.5096	250.488	86.5377	250.488	86.7247	250.488	86.6807	250.488	86.9033	250.488	86.8425	250.488	87.0123	250.488	86.9727	250.488	87.0353
259.277	91.0092	259.277	90.9381	259.277	90.9725	259.277	90.7568	259.277	90.83	259.277	90.4629	259.277	90.5829	259.277	90.0549	259.277	90.2317	259.277	89.5341	259.277	89.7777	259.277	88.907	259.277	89.2264	259.277	88.1918	259.277	88.5932	259.277	87.4276	259.277	87.9118	259.277	86.686	259.277	87.243	259.277	86.0737	259.277	86.6746	259.277	85.7062	259.277	86.2996	259.277	85.645	259.277	86.1711	259.277	85.8508	259.277	86.2674	259.277	86.2088	259.277	86.5054	259.277	86.5961	259.277	86.7868	259.277	86.9235	259.277	87.0323	259.277	87.1419	259.277	87.1901	259.277	87.2311
268.066	91.201	268.066	91.151	268.066	91.167	268.066	91.014	268.066	91.0534	268.066	90.7883	268.066	90.8652	268.066	90.474	268.066	90.607	268.066	90.0732	268.066	90.2824	268.066	89.5916	268.066	89.8946	268.066	89.0413	268.066	89.4488	268.066	88.4456	268.066	88.9561	268.066	87.8456	268.066	88.44	268.066	87.3025	268.066	87.9402	268.066	86.8897	268.066	87.5104	268.066	86.6656	268.066	87.204	268.066	86.6406	268.066	87.0506	268.066	86.7675	268.066	87.0388	268.066	86.9665	268.066	87.1211	268.066	87.161	268.066	87.2355	268.066	87.2984	268.066	87.3261	268.066	87.3537
276.855	90.2539	276.855	90.1892	276.855	90.2153	276.855	90.0201	276.855	90.0756	276.855	89.7469	276.855	89.8391	276.855	89.3716	276.855	89.5121	276.855	88.9002	276.855	89.1049	276.855	88.3467	276.855	88.6329	276.855	87.7392	276.855	88.1202	276.855	87.129	276.855	87.6043	276.855	86.5952	276.855	87.1402	276.855	86.2351	276.855	86.7961	276.855	86.1267	276.855	86.6342	276.855	86.2806	276.855	86.6799	276.855	86.6287	276.855	86.9022	276.855	87.0631	276.855	87.2275	276.855	87.4843	276.855	87.5711	276.855	87.8228	276.855	87.8625	276.855	88.0393	276.855	88.0536	276.855	88.1167
287.109	90.3709	287.109	90.3579	287.109	90.2796	287.109	90.237	287.109	90.0881	287.109	90.0038	287.109	89.801	287.109	89.6535	287.109	89.4247	287.109	89.1812	287.109	88.9677	287.109	88.5837	287.109	88.4409	287.109	87.865	287.109	87.8589	287.109	87.0454	287.109	87.2431	287.109	86.1781	287.109	86.6286	287.109	85.3693	287.109	86.0731	287.109	84.7795	287.109	85.6573	287.109	84.5609	287.109	85.4602	287.109	84.7423	287.109	85.5094	287.109	85.1941	287.109	85.7525	287.109	85.727	287.109	86.0827	287.109	86.1925	287.109	86.3904	287.109	86.5079	287.109	86.5936	287.109	86.6413
297.363	90.7159	297.363	90.6605	297.363	90.6718	297.363	90.5078	297.363	90.5247	297.363	90.2571	297.363	90.2691	297.363	89.9054	297.363	89.8983	297.363	89.447	297.363	89.4058	297.363	88.8759	297.363	88.7893	297.363	88.191	297.363	88.0574	297.363	87.4053	297.363	87.2418	297.363	86.5594	297.363	86.4103	297.363	85.7364	297.363	85.6732	297.363	85.063	297.363	85.1595	297.363	84.6713	297.363	84.9548	297.363	84.6218	297.363	85.0442	297.363	84.8574	297.363	85.3239	297.363	85.2441	297.363	85.6634	297.363	85.6448	297.363	85.9535	297.363	85.9583	297.363	86.1205	297.363	86.1248
307.617	90.424	307.617	90.4048	307.617	90.356	307.617	90.2974	307.617	90.2032	307.617	90.1023	307.617	89.9699	307.617	89.8199	307.617	89.6607	307.617	89.4495	307.617	89.2795	307.617	88.9903	307.617	88.8279	307.617	88.4439	307.617	88.3085	307.617	87.8224	307.617	87.7306	307.617	87.1607	307.617	87.1227	307.617	86.5284	307.617	86.5437	307.617	86.0291	307.617	86.084	307.617	85.7637	307.617	85.8358	307.617	85.7673	307.617	85.8371	307.617	85.9802	307.617	86.0389	307.617	86.2881	307.617	86.3344	307.617	86.5822	307.617	86.6155	307.617	86.7887	307.617	86.8065	307.617	86.8679
319.336	89.7917	319.336	89.7492	319.336	89.7456	319.336	89.6204	319.336	89.6083	319.336	89.4066	319.336	89.3766	319.336	89.1073	319.336	89.046	319.336	88.7184	319.336	88.6106	319.336	88.2331	319.336	88.065	319.336	87.6454	319.336	87.4079	319.336	86.9593	319.336	86.6519	319.336	86.2069	319.336	85.8402	319.336	85.472	319.336	85.0704	319.336	84.9013	319.336	84.5022	319.336	84.657	319.336	84.2999	319.336	84.7976	319.336	84.5064	319.336	85.2164	319.336	84.9942	319.336	85.7255	319.336	85.5659	319.336	86.168	319.336	86.0644	319.336	86.4512	319.336	86.4002	319.336	86.5327
329.59	89.5854	329.59	89.4928	329.59	89.5677	329.59	89.2929	329.59	89.4405	329.59	88.9939	329.59	89.2071	329.59	88.6075	329.59	88.8707	329.59	88.1475	329.59	88.4328	329.59	87.6276	329.59	87.8937	329.59	87.0621	329.59	87.2576	329.59	86.471	329.59	86.5419	329.59	85.8912	329.59	85.7925	329.59	85.3878	329.59	85.0999	329.59	85.0521	329.59	84.5984	329.59	84.9651	329.59	84.4157	329.59	85.1392	329.59	84.5834	329.59	85.4953	329.59	85.0036	329.59	85.9057	329.59	85.5173	329.59	86.2537	329.59	85.9871	329.59	86.4613	329.59	86.3258	329.59	86.4888
341.309	89.6377	341.309	89.5396	341.309	89.6274	341.309	89.334	341.309	89.5081	341.309	89.0214	341.309	89.2812	341.309	88.601	341.309	88.9496	341.309	88.071	341.309	88.517	341.309	87.4309	341.309	87.9866	341.309	86.6843	341.309	87.3609	341.309	85.848	341.309	86.646	341.309	84.968	341.309	85.864	341.309	84.1457	341.309	85.0726	341.309	83.5497	341.309	84.3859	341.309	83.355	341.309	83.9603	341.309	83.6013	341.309	83.9097	341.309	84.1373	341.309	84.2028	341.309	84.7422	341.309	84.6779	341.309	85.2472	341.309	85.1534	341.309	85.5605	341.309	85.4995	341.309	85.6451
353.027	89.6741	353.027	89.5956	353.027	89.6272	353.027	89.3902	353.027	89.4568	353.027	89.0559	353.027	89.1643	353.027	88.5885	353.027	88.7491	353.027	87.9804	353.027	88.2077	353.027	87.2213	353.027	87.5347	353.027	86.3056	353.027	86.7283	353.027	85.2517	353.027	85.803	353.027	84.1403	353.027	84.8157	353.027	83.1712	353.027	83.9026	353.027	82.6592	353.027	83.2915	353.027	82.8186	353.027	83.1955	353.027	83.5159	353.027	83.6162	353.027	84.4125	353.027	84.331	353.027	85.2398	353.027	85.0869	353.027	85.8614	353.027	85.7183	353.027	86.2244	353.027	86.141	353.027	86.3158
366.211	89.8876	366.211	89.9671	366.211	89.722	366.211	89.9524	366.211	89.4793	366.211	89.8357	366.211	89.1686	366.211	89.6083	366.211	88.7957	366.211	89.2582	366.211	88.3582	366.211	88.7686	366.211	87.8424	366.211	88.1175	366.211	87.2244	366.211	87.2812	366.211	86.479	366.211	86.2451	366.211	85.5978	366.211	85.0292	366.211	84.6188	366.211	83.7408	366.211	83.6643	366.211	82.6402	366.211	82.9524	366.211	82.0907	366.211	82.6952	366.211	82.2389	366.211	82.9039	366.211	82.8253	366.211	83.3674	366.211	83.4784	366.211	83.8354	366.211	83.9662	366.211	84.1391	366.211	84.1927
379.395	89.4236	379.395	89.4403	379.395	89.3131	379.395	89.3669	379.395	89.1073	379.395	89.2063	379.395	88.8062	379.395	88.9561	379.395	88.4083	379.395	88.6044	379.395	87.9065	379.395	88.1292	379.395	87.284	379.395	87.5027	379.395	86.5132	379.395	86.701	379.395	85.5624	379.395	85.7238	379.395	84.4179	379.395	84.6358	379.395	83.144	379.395	83.6344	379.395	82	379.395	83.0606	379.395	81.4806	379.395	83.1592	379.395	81.889	379.395	83.7778	379.395	82.8919	379.395	84.5418	379.395	83.968	379.395	85.1749	379.395	84.8316	379.395	85.5515	379.395	85.3901	379.395	85.6282
392.578	89.2304	392.578	89.1459	392.578	89.2175	392.578	88.9707	392.578	89.1045	392.578	88.7141	392.578	88.8906	392.578	88.3848	392.578	88.5746	392.578	87.9833	392.578	88.1531	392.578	87.4951	392.578	87.6202	392.578	86.8894	392.578	86.9688	392.578	86.1302	392.578	86.1921	392.578	85.2007	392.578	85.2888	392.578	84.1433	392.578	84.2776	392.578	83.1159	392.578	83.234	392.578	82.41	392.578	82.3471	392.578	82.2871	392.578	81.9114	392.578	82.7009	392.578	82.1	392.578	83.343	392.578	82.7361	392.578	83.9211	392.578	83.4673	392.578	84.2687	392.578	84.0332	392.578	84.3119
405.762	89.3395	405.762	89.268	405.762	89.2982	405.762	89.0884	405.762	89.1466	405.762	88.8087	405.762	88.8937	405.762	88.4346	405.762	88.5503	405.762	87.9651	405.762	88.1199	405.762	87.3911	405.762	87.5912	405.762	86.698	405.762	86.9347	405.762	85.8721	405.762	86.1094	405.762	84.9179	405.762	85.0832	405.762	83.8973	405.762	83.8782	405.762	82.9939	405.762	82.6623	405.762	82.5249	405.762	81.843	405.762	82.7175	405.762	81.8578	405.762	83.4228	405.762	82.6281	405.762	84.2689	405.762	83.6577	405.762	84.9692	405.762	84.5642	405.762	85.3835	405.762	85.1823	405.762	85.459
420.41	88.9209	420.41	88.8377	420.41	88.8786	420.41	88.6295	420.41	88.7182	420.41	88.3054	420.41	88.4522	420.41	87.8799	420.41	88.0943	420.41	87.3665	420.41	87.6546	420.41	86.7677	420.41	87.1339	420.41	86.0668	420.41	86.5202	420.41	85.2283	420.41	85.7905	420.41	84.2117	420.41	84.9201	420.41	83.0117	420.41	83.9041	420.41	81.7531	420.41	82.7996	420.41	80.8237	420.41	81.7915	420.41	80.7302	420.41	81.2087	420.41	81.4548	420.41	81.3038	420.41	82.4417	420.41	81.9421	420.41	83.245	420.41	82.7393	420.41	83.6858	420.41	83.3872	420.41	83.726
435.059	88.6932	435.059	88.6529	435.059	88.6029	435.059	88.4841	435.059	88.3881	435.059	88.1948	435.059	88.0629	435.059	87.7958	435.059	87.6479	435.059	87.2944	435.059	87.1631	435.059	86.6876	435.059	86.6177	435.059	85.9564	435.059	85.9995	435.059	85.0694	435.059	85.2743	435.059	83.9994	435.059	84.4002	435.059	82.7673	435.059	83.367	435.059	81.5345	435.059	82.2761	435.059	80.712	435.059	81.4481	435.059	80.7646	435.059	81.3282	435.059	81.616	435.059	81.9778	435.059	82.727	435.059	82.9527	435.059	83.681	435.059	83.8188	435.059	84.3015	435.059	84.3685	435.059	84.5341
451.172	88.4256	451.172	88.3703	451.172	88.3787	451.172	88.2198	451.172	88.2314	451.172	87.9852	451.172	87.9918	451.172	87.6739	451.172	87.6666	451.172	87.2804	451.172	87.2511	451.172	86.7785	451.172	86.7202	451.172	86.1178	451.172	86.0271	451.172	85.2258	451.172	85.1097	451.172	84.0191	451.172	83.9063	451.172	82.439	451.172	82.3963	451.172	80.57	451.172	80.716	451.172	78.9706	451.172	79.397	451.172	78.7351	451.172	79.2521	451.172	79.9193	451.172	80.2538	451.172	81.42	451.172	81.5674	451.172	82.602	451.172	82.6493	451.172	83.3151	451.172	83.3245	451.172	83.5513
465.82	88.3791	465.82	88.2526	465.82	88.373	465.82	88.0171	465.82	88.2323	465.82	87.712	465.82	87.9757	465.82	87.3784	465.82	87.6341	465.82	87.0397	465.82	87.2354	465.82	86.6856	465.82	86.7862	465.82	86.2683	465.82	86.2599	465.82	85.7112	465.82	85.5973	465.82	84.9251	465.82	84.7165	465.82	83.8282	465.82	83.5317	465.82	82.3872	465.82	81.9973	465.82	80.7425	465.82	80.2547	465.82	79.4637	465.82	78.9591	465.82	79.3712	465.82	79.0448	465.82	80.3307	465.82	80.2197	465.82	81.4618	465.82	81.4591	465.82	82.2476	465.82	82.2663	465.82	82.5294
483.398	89.039	483.398	88.863	483.398	89.0394	483.398	88.5234	483.398	88.8758	483.398	88.0619	483.398	88.5749	483.398	87.5469	483.398	88.171	483.398	87.0498	483.398	87.6964	483.398	86.6042	483.398	87.1698	483.398	86.1767	483.398	86.5831	483.398	85.6781	483.398	85.8963	483.398	85.0008	483.398	85.0459	483.398	84.0576	483.398	83.972	483.398	82.8408	483.398	82.6783	483.398	81.5689	483.398	81.3622	483.398	80.8715	483.398	80.5687	483.398	81.3136	483.398	80.8428	483.398	82.4699	483.398	81.9193	483.398	83.5703	483.398	83.1026	483.398	84.2365	483.398	83.9726	483.398	84.3693
499.512	89.4249	499.512	89.3242	499.512	89.38	499.512	89.0834	499.512	89.2014	499.512	88.723	499.512	88.9184	499.512	88.2726	499.512	88.568	499.512	87.7623	499.512	88.1792	499.512	87.2062	499.512	87.7545	499.512	86.5846	499.512	87.2608	499.512	85.8407	499.512	86.6354	499.512	84.9051	499.512	85.8025	499.512	83.7511	499.512	84.6983	499.512	82.4965	499.512	83.3239	499.512	81.5404	499.512	81.8811	499.512	81.4294	499.512	80.9625	499.512	82.1873	499.512	81.1898	499.512	83.2518	499.512	82.2691	499.512	84.1454	499.512	83.4458	499.512	84.6569	499.512	84.3041	499.512	84.7155
517.09	89.8596	517.09	89.7236	517.09	89.7846	517.09	89.3929	517.09	89.5058	517.09	88.9051	517.09	89.0548	517.09	88.3139	517.09	88.4841	517.09	87.6754	517.09	87.8521	517.09	87.0222	517.09	87.1944	517.09	86.3338	517.09	86.4956	517.09	85.5242	517.09	85.6807	517.09	84.4574	517.09	84.6255	517.09	82.9877	517.09	83.1801	517.09	81.0782	517.09	81.2417	517.09	79.2385	517.09	79.108	517.09	79.0227	517.09	78.3371	517.09	80.7046	517.09	79.9442	517.09	82.6546	517.09	82.1295	517.09	84.0967	517.09	83.793	517.09	84.9229	517.09	84.7863	517.09	85.1516
536.133	90.0459	536.133	89.9061	536.133	89.9871	536.133	89.5792	536.133	89.7408	536.133	89.1066	536.133	89.3353	536.133	88.5568	536.133	88.8136	536.133	88.0046	536.133	88.2329	536.133	87.4918	536.133	87.6518	536.133	86.9919	536.133	87.0985	536.133	86.4048	536.133	86.5333	536.133	85.5786	536.133	85.8401	536.133	84.3332	536.133	84.854	536.133	82.4938	536.133	83.412	536.133	80.0874	536.133	81.4718	536.133	78.2988	536.133	79.5687	536.133	79.3083	536.133	79.3321	536.133	81.6267	536.133	80.9867	536.133	83.4263	536.133	82.8261	536.133	84.4054	536.133	84.0741	536.133	84.6068
555.176	90.1873	555.176	90.0657	555.176	90.0785	555.176	89.7193	555.176	89.757	555.176	89.1827	555.176	89.2639	555.176	88.5259	555.176	88.6645	555.176	87.8474	555.176	88.0421	555.176	87.233	555.176	87.4698	555.176	86.6905	555.176	86.9623	555.176	86.1251	555.176	86.4489	555.176	85.3815	555.176	85.7982	555.176	84.2985	555.176	84.8657	555.176	82.7434	555.176	83.5221	555.176	80.705	555.176	81.7034	555.176	78.7431	555.176	79.6973	555.176	78.5011	555.176	78.8048	555.176	80.1428	555.176	79.9568	555.176	81.9108	555.176	81.6942	555.176	83.0214	555.176	82.9054	555.176	83.3541
574.219	90.4764	574.219	90.2978	574.219	90.4154	574.219	89.8928	574.219	90.1114	574.219	89.2856	574.219	89.5766	574.219	88.5197	574.219	88.8481	574.219	87.6662	574.219	87.9981	574.219	86.8128	574.219	87.1311	574.219	86.0177	574.219	86.3446	574.219	85.2509	574.219	85.6505	574.219	84.3827	574.219	84.9154	574.219	83.2273	574.219	83.8877	574.219	81.601	574.219	82.2737	574.219	79.4861	574.219	79.8579	574.219	77.7933	574.219	77.272	574.219	78.5919	574.219	77.6008	574.219	80.9649	574.219	80.381	574.219	82.9739	574.219	82.6985	574.219	84.1618	574.219	84.0523	574.219	84.52
594.727	89.8309	594.727	89.7611	594.727	89.7042	594.727	89.4984	594.727	89.3957	594.727	89.0663	594.727	88.9365	594.727	88.507	594.727	88.3755	594.727	87.8776	594.727	87.7789	594.727	87.2424	594.727	87.2101	594.727	86.6442	594.727	86.6835	594.727	86.0559	594.727	86.1337	594.727	85.3457	594.727	85.4376	594.727	84.2968	594.727	84.4608	594.727	82.6567	594.727	83.0857	594.727	80.2233	594.727	81.2305	594.727	77.3256	594.727	79.001	594.727	76.3428	594.727	77.3344	594.727	78.2618	594.727	77.849	594.727	80.2893	594.727	79.6581	594.727	81.4627	594.727	81.1125	594.727	81.7325
615.234	89.861	615.234	89.6892	615.234	89.7066	615.234	89.2091	615.234	89.2278	615.234	88.4617	615.234	88.4623	615.234	87.5368	615.234	87.5144	615.234	86.6076	615.234	86.5779	615.234	85.9036	615.234	85.8808	615.234	85.5394	615.234	85.5122	615.234	85.3622	615.234	85.3156	615.234	85.0626	615.234	85.0143	615.234	84.3626	615.234	84.37	615.234	83.0692	615.234	83.2333	615.234	81.1127	615.234	81.5956	615.234	78.9883	615.234	79.8833	615.234	78.6639	615.234	79.3816	615.234	80.5716	615.234	80.6377	615.234	82.535	615.234	82.3227	615.234	83.6983	615.234	83.5249	615.234	84.0075
637.207	90.9154	637.207	90.7795	637.207	90.7781	637.207	90.3586	637.207	90.3745	637.207	89.6452	637.207	89.7062	637.207	88.6519	637.207	88.779	637.207	87.4346	637.207	87.6242	637.207	86.1219	637.207	86.343	637.207	84.9242	637.207	85.1528	637.207	84.0392	637.207	84.3105	637.207	83.4353	637.207	83.8186	637.207	82.7735	637.207	83.2977	637.207	81.5848	637.207	82.237	637.207	79.4464	637.207	80.1693	637.207	76.4574	637.207	76.9325	637.207	75.7377	637.207	75.3999	637.207	78.7481	637.207	78.5552	637.207	81.4829	637.207	81.5195	637.207	83.0859	637.207	83.1541	637.207	83.6371
659.18	89.9896	659.18	89.8044	659.18	89.9	659.18	89.3775	659.18	89.5374	659.18	88.7712	659.18	88.9346	659.18	88.0633	659.18	88.1528	659.18	87.3332	659.18	87.2865	659.18	86.6491	659.18	86.4617	659.18	86.0393	659.18	85.7851	659.18	85.4511	659.18	85.246	659.18	84.743	659.18	84.6842	659.18	83.7147	659.18	83.866	659.18	82.1262	659.18	82.5531	659.18	79.6979	659.18	80.5024	659.18	76.453	659.18	77.5587	659.18	75.1268	659.18	74.9407	659.18	77.798	659.18	76.291	659.18	80.3423	659.18	79.1637	659.18	81.6706	659.18	81.0793	659.18	81.8932
682.617	91.2841	682.617	91.1227	682.617	91.1263	682.617	90.6288	682.617	90.6485	682.617	89.7939	682.617	89.8419	682.617	88.6561	682.617	88.7219	682.617	87.3631	682.617	87.386	682.617	86.2097	682.617	86.086	682.617	85.4855	682.617	85.1841	682.617	85.1629	682.617	84.8251	682.617	84.9112	682.617	84.7143	682.617	84.3755	682.617	84.3998	682.617	83.2433	682.617	83.512	682.617	81.1645	682.617	81.7456	682.617	77.9838	682.617	79.0071	682.617	76.4386	682.617	77.1529	682.617	79.5297	682.617	79.3121	682.617	82.475	682.617	82.1462	682.617	84.0833	682.617	83.8907	682.617	84.5221
707.52	92.4318	707.52	92.2624	707.52	92.2973	707.52	91.8002	707.52	91.8452	707.52	91.0458	707.52	91.0636	707.52	89.9867	707.52	89.9494	707.52	88.6188	707.52	88.5292	707.52	87.0159	707.52	86.9164	707.52	85.4606	707.52	85.4076	707.52	84.4373	707.52	84.4573	707.52	84.0784	707.52	84.1961	707.52	83.8105	707.52	84.0857	707.52	82.9065	707.52	83.3991	707.52	80.7282	707.52	81.5208	707.52	76.6469	707.52	77.7962	707.52	74.7845	707.52	73.9086	707.52	79.7288	707.52	78.0571	707.52	83.1872	707.52	82.1513	707.52	84.871	707.52	84.3771	707.52	85.2266
732.422	92.0381	732.422	91.8946	732.422	91.9382	732.422	91.4974	732.422	91.6022	732.422	90.835	732.422	91.0245	732.422	89.9002	732.422	90.179	732.422	88.7085	732.422	89.032	732.422	87.3436	732.422	87.6138	732.422	86.0105	732.422	86.1485	732.422	84.9978	732.422	85.0569	732.422	84.4137	732.422	84.5055	732.422	83.9595	732.422	84.0995	732.422	83.0992	732.422	83.3036	732.422	81.2288	732.422	81.6479	732.422	77.3764	732.422	78.4209	732.422	68.8632	732.422	72.128	732.422	72.8477	732.422	72.1933	732.422	79.1453	732.422	78.5305	732.422	81.8435	732.422	81.5624	732.422	82.5499
757.324	92.7723	757.324	92.5679	757.324	92.7117	757.324	92.1159	757.324	92.3659	757.324	91.4202	757.324	91.7221	757.324	90.4674	757.324	90.7827	757.324	89.248	757.324	89.5774	757.324	87.8266	757.324	88.1864	757.324	86.4686	757.324	86.7876	757.324	85.6014	757.324	85.7011	757.324	85.3056	757.324	85.2021	757.324	85.0939	757.324	85.0648	757.324	84.381	757.324	84.6169	757.324	82.606	757.324	83.1408	757.324	78.8264	757.324	79.7717	757.324	71.4691	757.324	73.4682	757.324	75.678	757.324	75.6674	757.324	81.0541	757.324	80.906	757.324	83.4406	757.324	83.3638	757.324	84.1078
785.156	92.382	785.156	92.184	785.156	92.3216	785.156	91.712	785.156	92.0162	785.156	90.961	785.156	91.4554	785.156	89.9178	785.156	90.5983	785.156	88.5356	785.156	89.3829	785.156	86.7646	785.156	87.7495	785.156	84.7263	785.156	85.7297	785.156	83.0812	785.156	83.7218	785.156	82.7258	785.156	82.6181	785.156	83.1578	785.156	82.5892	785.156	83.1618	785.156	82.6544	785.156	82.0456	785.156	82.0028	785.156	79.2293	785.156	80.0191	785.156	73.3347	785.156	75.6052	785.156	71.5335	785.156	70.8423	785.156	78.6418	785.156	77.4882	785.156	81.9489	785.156	81.4617	785.156	82.7815
811.523	92.0476	811.523	91.882	811.523	91.958	811.523	91.4727	811.523	91.5919	811.523	90.8006	811.523	90.942	811.523	89.8331	811.523	90.0222	811.523	88.5684	811.523	88.8718	811.523	87.0693	811.523	87.5718	811.523	85.4885	811.523	86.2723	811.523	84.1216	811.523	85.2035	811.523	83.3696	811.523	84.5889	811.523	83.2812	811.523	84.3932	811.523	83.2348	811.523	84.1682	811.523	82.4094	811.523	83.272	811.523	79.9852	811.523	81.0191	811.523	74.3334	811.523	76.2074	811.523	65.9471	811.523	67.1562	811.523	75.8207	811.523	74.8263	811.523	79.62	811.523	79.256	811.523	80.5612
840.82	92.0691	840.82	91.8345	840.82	91.9929	840.82	91.3028	840.82	91.6129	840.82	90.5108	840.82	90.9456	840.82	89.4902	840.82	90.0128	840.82	88.2448	840.82	88.8307	840.82	86.7836	840.82	87.4017	840.82	85.1984	840.82	85.7714	840.82	83.7956	840.82	84.2005	840.82	83.1531	840.82	83.2825	840.82	83.4346	840.82	83.3389	840.82	83.8563	840.82	83.7321	840.82	83.5034	840.82	83.5443	840.82	81.6233	840.82	82.0122	840.82	76.9244	840.82	78.0749	840.82	63.5737	840.82	69.3127	840.82	73.8193	840.82	73.7046	840.82	78.682	840.82	78.6135	840.82	79.8996
870.117	91.3806	870.117	91.2132	870.117	91.2762	870.117	90.7981	870.117	90.8973	870.117	90.1451	870.117	90.2744	870.117	89.2226	870.117	89.4332	870.117	87.9483	870.117	88.3416	870.117	86.2221	870.117	86.8999	870.117	84.0198	870.117	84.9877	870.117	81.5998	870.117	82.68	870.117	79.9076	870.117	80.8673	870.117	80.049	870.117	80.8064	870.117	81.1817	870.117	81.552	870.117	81.7223	870.117	81.6531	870.117	80.7454	870.117	80.4417	870.117	77.3666	870.117	77.214	870.117	70.2036	870.117	71.5612	870.117	73.5085	870.117	73.926	870.117	78.3019	870.117	78.2208	870.117	79.5723
900.879	90.7035	900.879	90.5388	900.879	90.5507	900.879	90.0715	900.879	90.1071	900.879	89.3554	900.879	89.4177	900.879	88.4606	900.879	88.5236	900.879	87.4383	900.879	87.4578	900.879	86.2703	900.879	86.231	900.879	84.8396	900.879	84.8194	900.879	83.0395	900.879	83.2112	900.879	81.1244	900.879	81.5493	900.879	80.0197	900.879	80.3647	900.879	80.1149	900.879	80.1227	900.879	80.2655	900.879	80.1085	900.879	79.3265	900.879	79.1484	900.879	76.3114	900.879	76.1497	900.879	69.3095	900.879	69.4977	900.879	69.6819	900.879	71.1607	900.879	75.5514	900.879	76.1745	900.879	77.3505
933.105	89.7045	933.105	89.497	933.105	89.561	933.105	88.9647	933.105	89.0839	933.105	88.1643	933.105	88.3261	933.105	87.1413	933.105	87.3369	933.105	85.8869	933.105	86.1051	933.105	84.3513	933.105	84.5327	933.105	82.5145	933.105	82.4744	933.105	80.5607	933.105	79.9464	933.105	79.221	933.105	77.9425	933.105	79.3617	933.105	78.1993	933.105	80.2882	933.105	79.3993	933.105	80.6178	933.105	79.8063	933.105	79.5769	933.105	78.8952	933.105	76.6427	933.105	76.0773	933.105	71.5985	933.105	70.5825	933.105	72.1346	933.105	71.4653	933.105	76.242	933.105	76.0661	933.105	77.5386
965.332	88.6297	965.332	88.4459	965.332	88.4435	965.332	87.9273	965.332	87.9002	965.332	87.1414	965.332	87.0574	965.332	86.162	965.332	85.9935	965.332	85.0276	965.332	84.7658	965.332	83.7003	965.332	83.354	965.332	82.0666	965.332	81.6748	965.332	80.0375	965.332	79.7122	965.332	77.9777	965.332	77.6296	965.332	77.2305	965.332	76.0665	965.332	78.0533	965.332	76.2714	965.332	78.8379	965.332	77.5599	965.332	78.5408	965.332	77.8539	965.332	76.4662	965.332	75.8488	965.332	72.0485	965.332	69.8543	965.332	69.9899	965.332	67.919	965.332	73.537	965.332	73.6994	965.332	75.0822
1000.49	87.8647	1000.49	87.6156	1000.49	87.6965	1000.49	87.0117	1000.49	87.0892	1000.49	86.1346	1000.49	86.0872	1000.49	85.0506	1000.49	84.8178	1000.49	83.7956	1000.49	83.4417	1000.49	82.4464	1000.49	82.0552	1000.49	81.1389	1000.49	80.6222	1000.49	79.8625	1000.49	79.0028	1000.49	78.491	1000.49	77.2985	1000.49	77.4429	1000.49	76.3942	1000.49	77.5029	1000.49	76.8041	1000.49	77.8696	1000.49	77.2938	1000.49	77.0979	1000.49	76.6381	1000.49	74.2821	1000.49	73.9894	1000.49	69.4746	1000.49	68.4029	1000.49	71.1633	1000.49	68.2656	1000.49	74.7741	1000.49	73.4849	1000.49	75.5096
1035.64	87.8459	1035.64	87.6997	1035.64	87.5847	1035.64	87.1841	1035.64	86.9125	1035.64	86.3453	1035.64	85.9205	1035.64	85.2508	1035.64	84.7946	1035.64	83.9793	1035.64	83.6617	1035.64	82.5447	1035.64	82.4311	1035.64	80.8493	1035.64	80.8653	1035.64	78.7562	1035.64	78.825	1035.64	76.4093	1035.64	76.5724	1035.64	75.3002	1035.64	74.8197	1035.64	76.656	1035.64	74.2684	1035.64	78.0623	1035.64	75.1352	1035.64	77.8887	1035.64	75.9286	1035.64	75.5476	1035.64	74.9119	1035.64	70.9289	1035.64	71.0816	1035.64	70.3427	1035.64	68.2562	1035.64	73.531	1035.64	72.3767	1035.64	74.3133
1072.27	87.4612	1072.27	87.3507	1072.27	87.143	1072.27	86.8153	1072.27	86.4371	1072.27	85.9521	1072.27	85.4136	1072.27	84.9585	1072.27	84.1666	1072.27	83.9541	1072.27	82.8261	1072.27	82.8024	1072.27	81.5594	1072.27	81.3694	1072.27	80.3978	1072.27	79.8514	1072.27	79.0642	1072.27	78.3936	1072.27	77.3607	1072.27	76.7884	1072.27	75.7145	1072.27	75.4645	1072.27	74.9536	1072.27	75.2152	1072.27	75.2399	1072.27	75.0841	1072.27	75.5681	1072.27	73.6891	1072.27	74.5557	1072.27	70.2413	1072.27	70.6149	1072.27	69.1831	1072.27	64.4094	1072.27	73.0152	1072.27	71.2516	1072.27	74.0939
1108.89	87.9416	1108.89	87.703	1108.89	87.616	1108.89	87.024	1108.89	86.7706	1108.89	86.0773	1108.89	85.6112	1108.89	84.9348	1108.89	84.381	1108.89	83.6003	1108.89	83.203	1108.89	82.1914	1108.89	82.0221	1108.89	80.8162	1108.89	80.7022	1108.89	79.237	1108.89	79.1393	1108.89	77.139	1108.89	77.3082	1108.89	74.9861	1108.89	75.4098	1108.89	74.8469	1108.89	74.1871	1108.89	76.637	1108.89	74.4072	1108.89	77.2784	1108.89	74.9999	1108.89	75.1852	1108.89	73.9313	1108.89	70.5264	1108.89	70.076	1108.89	73.218	1108.89	71.7054	1108.89	76.8094	1108.89	76.2028	1108.89	77.7175
1148.44	87.9837	1148.44	87.9205	1148.44	87.6755	1148.44	87.4771	1148.44	86.9864	1148.44	86.6526	1148.44	85.9621	1148.44	85.5524	1148.44	84.7408	1148.44	84.4177	1148.44	83.4426	1148.44	83.3799	1148.44	82.0713	1148.44	82.2775	1148.44	80.6029	1148.44	80.9421	1148.44	79.0855	1148.44	79.27	1148.44	77.5674	1148.44	77.1947	1148.44	76.1363	1148.44	75.607	1148.44	75.4674	1148.44	75.754	1148.44	76.3228	1148.44	75.8631	1148.44	77.1261	1148.44	73.9399	1148.44	75.9136	1148.44	69.4363	1148.44	71.0929	1148.44	71.6897	1148.44	66.2615	1148.44	75.5092	1148.44	73.336	1148.44	76.0596
1189.45	88.9426	1189.45	88.7297	1189.45	88.6332	1189.45	88.0995	1189.45	87.8125	1189.45	87.1613	1189.45	86.6204	1189.45	86.0068	1189.45	85.2261	1189.45	84.7162	1189.45	83.8041	1189.45	83.2895	1189.45	82.559	1189.45	81.7554	1189.45	81.5946	1189.45	80.2715	1189.45	80.708	1189.45	78.7109	1189.45	79.36	1189.45	76.7481	1189.45	77.155	1189.45	75.332	1189.45	74.9836	1189.45	76.126	1189.45	74.6814	1189.45	76.8895	1189.45	75.2696	1189.45	75.1524	1189.45	74.3521	1189.45	69.7767	1189.45	69.1308	1189.45	72.1957	1189.45	69.8365	1189.45	76.8412	1189.45	76.1673	1189.45	78.0227
1230.47	87.8329	1230.47	87.7253	1230.47	87.5523	1230.47	87.2271	1230.47	86.967	1230.47	86.4186	1230.47	86.1375	1230.47	85.3125	1230.47	85.0863	1230.47	83.9397	1230.47	83.8676	1230.47	82.661	1230.47	82.6191	1230.47	81.7556	1230.47	81.3873	1230.47	80.7808	1230.47	79.9463	1230.47	79.3819	1230.47	78.2706	1230.47	77.6731	1230.47	76.8711	1230.47	75.8434	1230.47	75.5783	1230.47	75.2629	1230.47	74.531	1230.47	75.5524	1230.47	75.5505	1230.47	73.8019	1230.47	76.0723	1230.47	67.9702	1230.47	72.8374	1230.47	68.6666	1230.47	64.6137	1230.47	74.0778	1230.47	72.0954	1230.47	75.1173
1274.41	88.2041	1274.41	87.993	1274.41	88.0708	1274.41	87.4029	1274.41	87.5727	1274.41	86.365	1274.41	86.6731	1274.41	84.9246	1274.41	85.4366	1274.41	83.399	1274.41	84.1325	1274.41	82.1851	1274.41	82.9402	1274.41	81.2114	1274.41	81.6938	1274.41	80.0062	1274.41	80.3101	1274.41	78.1372	1274.41	78.9757	1274.41	75.4639	1274.41	77.5046	1274.41	73.1767	1274.41	75.8064	1274.41	73.8276	1274.41	74.9201	1274.41	74.8988	1274.41	74.7553	1274.41	73.002	1274.41	73.5373	1274.41	63.2401	1274.41	68.3599	1274.41	69.8674	1274.41	64.1626	1274.41	75.5527	1274.41	74.2716	1274.41	76.7775
1319.82	88.9032	1319.82	88.5375	1319.82	88.8256	1319.82	87.7804	1319.82	88.2307	1319.82	86.6584	1319.82	87.1243	1319.82	85.1846	1319.82	85.7528	1319.82	83.51	1319.82	84.5093	1319.82	82.0058	1319.82	83.4263	1319.82	80.693	1319.82	82.0218	1319.82	79.2353	1319.82	80.0704	1319.82	77.8292	1319.82	78.0514	1319.82	76.3616	1319.82	76.3817	1319.82	74.1248	1319.82	75.0438	1319.82	73.1246	1319.82	74.3104	1319.82	74.446	1319.82	74.4629	1319.82	72.9305	1319.82	74.6112	1319.82	63.6609	1319.82	72.3665	1319.82	66.9364	1319.82	63.4045	1319.82	73.3944	1319.82	70.8218	1319.82	74.5682
1366.7	89.1072	1366.7	88.9535	1366.7	88.9616	1366.7	88.433	1366.7	88.5222	1366.7	87.3954	1366.7	87.7584	1366.7	85.901	1366.7	86.5707	1366.7	84.3405	1366.7	84.9715	1366.7	82.856	1366.7	83.307	1366.7	81.2279	1366.7	81.9212	1366.7	79.8117	1366.7	80.5724	1366.7	78.9526	1366.7	79.0134	1366.7	77.5291	1366.7	77.2896	1366.7	74.5339	1366.7	75.1934	1366.7	72.143	1366.7	74.1694	1366.7	74.0473	1366.7	75.7393	1366.7	74.9065	1366.7	76.4327	1366.7	71.0679	1366.7	73.2045	1366.7	59.878	1366.7	51.1994	1366.7	73.1377	1366.7	71.3562	1366.7	75.0275
1413.57	89.0572	1413.57	88.8621	1413.57	89.008	1413.57	88.2979	1413.57	88.5705	1413.57	87.2983	1413.57	87.6158	1413.57	86.0408	1413.57	86.3441	1413.57	84.6672	1413.57	84.9289	1413.57	83.1139	1413.57	83.2897	1413.57	81.2909	1413.57	81.6882	1413.57	79.3482	1413.57	80.2044	1413.57	77.5595	1413.57	78.2021	1413.57	76.2608	1413.57	76.3994	1413.57	74.9566	1413.57	75.9874	1413.57	72.9281	1413.57	75.4221	1413.57	74.9407	1413.57	75.0445	1413.57	76.4134	1413.57	74.885	1413.57	72.2888	1413.57	71.243	1413.57	52.4163	1413.57	66.7058	1413.57	71.6331	1413.57	73.2343	1413.57	74.4954
1463.38	88.4995	1463.38	88.4783	1463.38	88.331	1463.38	88.0719	1463.38	87.9789	1463.38	87.2105	1463.38	87.2853	1463.38	85.967	1463.38	86.1562	1463.38	84.5802	1463.38	84.5308	1463.38	83.3859	1463.38	82.6139	1463.38	81.952	1463.38	81.0378	1463.38	80.2187	1463.38	79.5779	1463.38	79.222	1463.38	77.8741	1463.38	78.1246	1463.38	76.5268	1463.38	76.3743	1463.38	75.0505	1463.38	74.3793	1463.38	73.0718	1463.38	74.7424	1463.38	72.7434	1463.38	76.3419	1463.38	74.0995	1463.38	73.5086	1463.38	72.848	1463.38	61.8015	1463.38	64.4676	1463.38	65.2458	1463.38	63.5627	1463.38	68.8199
1516.11	88.7144	1516.11	88.7095	1516.11	88.3536	1516.11	88.4492	1516.11	87.6563	1516.11	87.825	1516.11	86.9033	1516.11	86.8322	1516.11	85.9646	1516.11	85.4823	1516.11	84.3432	1516.11	83.7636	1516.11	82.0324	1516.11	82.1444	1516.11	79.8797	1516.11	80.2799	1516.11	78.0702	1516.11	77.564	1516.11	75.5477	1516.11	75.7604	1516.11	73.1436	1516.11	75.2785	1516.11	71.5247	1516.11	74.0638	1516.11	69.3688	1516.11	72.2731	1516.11	70.1524	1516.11	73.1602	1516.11	71.7018	1516.11	73.1889	1516.11	70.7242	1516.11	67.2729	1516.11	63.76	1516.11	62.1473	1516.11	64.223	1516.11	69.2008
1568.85	92.2537	1568.85	92.0297	1568.85	91.9124	1568.85	91.267	1568.85	91.1765	1568.85	90.1656	1568.85	89.9491	1568.85	88.6197	1568.85	88.0135	1568.85	86.2866	1568.85	85.5801	1568.85	83.4202	1568.85	82.865	1568.85	80.9433	1568.85	79.6309	1568.85	77.6308	1568.85	76.009	1568.85	72.5718	1568.85	71.9755	1568.85	73.4097	1568.85	69.7449	1568.85	74.6253	1568.85	70.6083	1568.85	72.9638	1568.85	69.2886	1568.85	70.8275	1568.85	68.0443	1568.85	71.9757	1568.85	71.2481	1568.85	73.4029	1568.85	71.0979	1568.85	70.1062	1568.85	62.0621	1568.85	66.6082	1568.85	64.0018	1568.85	68.5123
1624.51	93.7763	1624.51	93.425	1624.51	93.3017	1624.51	92.5003	1624.51	92.1724	1624.51	91.2216	1624.51	90.6422	1624.51	89.3907	1624.51	88.6194	1624.51	86.8153	1624.51	85.8665	1624.51	83.6681	1624.51	82.4874	1624.51	80.8681	1624.51	79.2357	1624.51	78.8486	1624.51	76.882	1624.51	75.8266	1624.51	75.1936	1624.51	71.1783	1624.51	72.0994	1624.51	68.7779	1624.51	67.4353	1624.51	69.1161	1624.51	66.7312	1624.51	70.1145	1624.51	65.134	1624.51	72.1501	1624.51	71.4814	1624.51	72.1672	1624.51	72.5404	1624.51	68.6815	1624.51	67.9299	1624.51	69.8435	1624.51	68.4076	1624.51	71.0641
1681.64	92.171	1681.64	91.9457	1681.64	91.5646	1681.64	91.1572	1681.64	90.2279	1681.64	89.8879	1681.64	88.5585	1681.64	88.1103	1681.64	86.6966	1681.64	85.9683	1681.64	84.5977	1681.64	83.3867	1681.64	82.381	1681.64	80.9665	1681.64	80.2399	1681.64	80.0235	1681.64	78.6628	1681.64	78.6194	1681.64	77.2959	1681.64	74.6497	1681.64	73.9516	1681.64	72.0744	1681.64	71.3083	1681.64	70.7881	1681.64	72.4063	1681.64	69.985	1681.64	69.6691	1681.64	71.7893	1681.64	72.3431	1681.64	72.0243	1681.64	74.7224	1681.64	68.6747	1681.64	71.8153	1681.64	70.5267	1681.64	65.4411	1681.64	72.2938
1741.7	90.9295	1741.7	90.7145	1741.7	90.5664	1741.7	89.9156	1741.7	89.5858	1741.7	88.5394	1741.7	88.3001	1741.7	86.937	1741.7	87.0604	1741.7	85.1862	1741.7	85.5012	1741.7	82.8856	1741.7	83.2834	1741.7	80.6441	1741.7	80.8793	1741.7	78.9864	1741.7	78.9444	1741.7	76.711	1741.7	77.5002	1741.7	73.9804	1741.7	75.9046	1741.7	73.8383	1741.7	74.3704	1741.7	74.8748	1741.7	73.2649	1741.7	72.7983	1741.7	69.8702	1741.7	72.055	1741.7	70.8335	1741.7	72.9851	1741.7	73.5858	1741.7	68.1568	1741.7	69.947	1741.7	71.8539	1741.7	63.7851	1741.7	72.9341
1803.22	90.9165	1803.22	90.4139	1803.22	90.6566	1803.22	89.5353	1803.22	89.698	1803.22	88.2842	1803.22	88.6449	1803.22	86.5834	1803.22	87.4743	1803.22	84.7975	1803.22	85.8452	1803.22	82.9818	1803.22	83.9518	1803.22	80.6187	1803.22	81.9034	1803.22	79.126	1803.22	80.225	1803.22	78.2174	1803.22	79.2057	1803.22	76.074	1803.22	76.5931	1803.22	74.3904	1803.22	73.4408	1803.22	73.2548	1803.22	75.1781	1803.22	69.5986	1803.22	74.1624	1803.22	71.9978	1803.22	70.1562	1803.22	73.2672	1803.22	71.6393	1803.22	67.4635	1803.22	67.1245	1803.22	70.8703	1803.22	66.566	1803.22	72.9014
1866.21	91.2791	1866.21	90.9197	1866.21	91.3171	1866.21	90.2224	1866.21	90.7272	1866.21	88.9728	1866.21	89.5087	1866.21	87.5169	1866.21	88.0552	1866.21	86.1408	1866.21	86.7448	1866.21	84.4181	1866.21	85.3213	1866.21	81.8922	1866.21	83.171	1866.21	79.0421	1866.21	80.788	1866.21	78.4554	1866.21	79.5764	1866.21	76.0946	1866.21	78.0734	1866.21	69.1452	1866.21	73.2388	1866.21	72.6611	1866.21	74.1334	1866.21	70.6638	1866.21	73.47	1866.21	67.6604	1866.21	68.1684	1866.21	70.4344	1866.21	72.429	1866.21	67.5034	1866.21	69.9196	1866.21	70.8268	1866.21	69.7872	1866.21	73.0742
1932.13	91.0604	1932.13	91.0539	1932.13	90.5682	1932.13	90.3183	1932.13	90.0342	1932.13	89.3881	1932.13	89.1915	1932.13	88.1756	1932.13	87.7253	1932.13	86.3658	1932.13	85.938	1932.13	84.7242	1932.13	83.9997	1932.13	82.6928	1932.13	81.8161	1932.13	79.9688	1932.13	79.5843	1932.13	78.1094	1932.13	77.0666	1932.13	76.2232	1932.13	74.2583	1932.13	74.3544	1932.13	72.6461	1932.13	73.2906	1932.13	73.0493	1932.13	72.7119	1932.13	73.8314	1932.13	69.3076	1932.13	69.3256	1932.13	71.3902	1932.13	68.7686	1932.13	67.6851	1932.13	68.7792	1932.13	69.3797	1932.13	69.1332	1932.13	72.399
1999.51	89.9669	1999.51	89.7601	1999.51	89.916	1999.51	89.4879	1999.51	89.2317	1999.51	88.4575	1999.51	88.1107	1999.51	86.8438	1999.51	86.4832	1999.51	85.3261	1999.51	84.5193	1999.51	83.5556	1999.51	83.1159	1999.51	81.5235	1999.51	81.3003	1999.51	78.9793	1999.51	78.2509	1999.51	76.5065	1999.51	76.2501	1999.51	74.9977	1999.51	75.0525	1999.51	72.6037	1999.51	70.6719	1999.51	70.0509	1999.51	71.5663	1999.51	72.601	1999.51	72.9166	1999.51	71.7181	1999.51	65.8311	1999.51	68.2634	1999.51	66.9614	1999.51	69.9995	1999.51	67.6834	1999.51	69.833	1999.51	69.0354	1999.51	74.4504
2069.82	88.9983	2069.82	89.0305	2069.82	88.8307	2069.82	88.4721	2069.82	88.6932	2069.82	87.627	2069.82	88.1123	2069.82	86.3933	2069.82	86.6276	2069.82	84.4751	2069.82	84.6808	2069.82	82.459	2069.82	82.2634	2069.82	79.6001	2069.82	79.4646	2069.82	75.8331	2069.82	77.9173	2069.82	73.7366	2069.82	77.069	2069.82	73.2126	2069.82	76.7187	2069.82	70.7344	2069.82	74.2486	2069.82	72.7185	2069.82	71.0379	2069.82	72.5833	2069.82	73.2101	2069.82	70.6425	2069.82	69.7669	2069.82	71.9479	2069.82	70.9576	2069.82	64.794	2069.82	68.8717	2069.82	65.3516	2069.82	62.4045	2069.82	67.5333
2143.07	89.0278	2143.07	88.7158	2143.07	88.8471	2143.07	88.3566	2143.07	88.333	2143.07	87.9259	2143.07	87.6479	2143.07	86.7159	2143.07	86.4953	2143.07	84.1806	2143.07	84.3356	2143.07	81.3759	2143.07	81.5867	2143.07	79.7883	2143.07	79.2883	2143.07	77.4855	2143.07	77.2955	2143.07	74.3086	2143.07	77.11	2143.07	71.8671	2143.07	75.1927	2143.07	67.4791	2143.07	68.45	2143.07	61.8309	2143.07	67.5099	2143.07	70.8666	2143.07	69.16	2143.07	67.7889	2143.07	68.2148	2143.07	67.8048	2143.07	67.0261	2143.07	65.7173	2143.07	68.1706	2143.07	69.5948	2143.07	61.7686	2143.07	71.4709
2219.24	87.1802	2219.24	87.4033	2219.24	87.0442	2219.24	87.1213	2219.24	86.7281	2219.24	86.5897	2219.24	85.8411	2219.24	85.6086	2219.24	84.8628	2219.24	83.7334	2219.24	83.086	2219.24	81.499	2219.24	80.5937	2219.24	79.1028	2219.24	78.6736	2219.24	75.9085	2219.24	76.1893	2219.24	72.6481	2219.24	72.4665	2219.24	73.4442	2219.24	71.453	2219.24	72.0312	2219.24	70.2726	2219.24	65.6011	2219.24	61.2764	2219.24	67.4325	2219.24	67.1773	2219.24	67.9074	2219.24	66.9401	2219.24	66.0715	2219.24	65.2716	2219.24	65.2419	2219.24	64.7256	2219.24	65.0437	2219.24	61.7531	2219.24	67.5697
2296.88	86.2175	2296.88	86.2512	2296.88	86.3659	2296.88	86.0616	2296.88	86.0007	2296.88	85.1472	2296.88	85.1162	2296.88	83.9047	2296.88	83.8715	2296.88	82.1453	2296.88	82.0426	2296.88	79.6176	2296.88	79.4096	2296.88	77.0815	2296.88	76.4267	2296.88	74.9803	2296.88	74.1827	2296.88	72.2629	2296.88	71.374	2296.88	70.8102	2296.88	68.0417	2296.88	70.3763	2296.88	67.3744	2296.88	65.3378	2296.88	63.5902	2296.88	68.1048	2296.88	66.0918	2296.88	63.7907	2296.88	66.3222	2296.88	64.6181	2296.88	61.83	2296.88	60.7177	2296.88	64.9418	2296.88	63.0136	2296.88	60.334	2296.88	68.3622
2378.91	86.8205	2378.91	86.8244	2378.91	86.7208	2378.91	86.5111	2378.91	86.233	2378.91	85.5748	2378.91	85.4573	2378.91	84.0991	2378.91	84.1237	2378.91	82.2146	2378.91	82.1007	2378.91	79.802	2378.91	79.8532	2378.91	77.0452	2378.91	77.1944	2378.91	73.9908	2378.91	74.4625	2378.91	70.6096	2378.91	71.6157	2378.91	69.7607	2378.91	69.4335	2378.91	69.5909	2378.91	68.973	2378.91	65.3838	2378.91	64.5659	2378.91	66.5007	2378.91	62.0992	2378.91	67.4716	2378.91	65.7057	2378.91	61.7387	2378.91	62.427	2378.91	62.2412	2378.91	63.2661	2378.91	63.3363	2378.91	57.3368	2378.91	65.9857
2462.4	86.4077	2462.4	86.5172	2462.4	86.335	2462.4	86.3649	2462.4	86.146	2462.4	85.6145	2462.4	85.3685	2462.4	84.1943	2462.4	83.5714	2462.4	82.211	2462.4	81.4029	2462.4	79.8739	2462.4	78.893	2462.4	76.9786	2462.4	76.0373	2462.4	74.5041	2462.4	73.7458	2462.4	72.3198	2462.4	71.8113	2462.4	69.3572	2462.4	69.4624	2462.4	69.3112	2462.4	68.6479	2462.4	64.9947	2462.4	65.7245	2462.4	64.8541	2462.4	61.7254	2462.4	64.9934	2462.4	66.3622	2462.4	62.8908	2462.4	61.4254	2462.4	61.8242	2462.4	63.7677	2462.4	60.5892	2462.4	59.6067	2462.4	67.4926
2548.83	85.9613	2548.83	85.958	2548.83	85.8456	2548.83	85.6991	2548.83	85.4058	2548.83	84.7667	2548.83	84.7243	2548.83	83.1987	2548.83	83.0708	2548.83	81.0075	2548.83	80.6656	2548.83	78.6629	2548.83	78.4319	2548.83	76.0433	2548.83	75.9364	2548.83	72.8504	2548.83	72.6456	2548.83	71.1577	2548.83	70.3511	2548.83	68.9228	2548.83	67.7712	2548.83	67.7278	2548.83	67.1577	2548.83	65.6984	2548.83	67.4025	2548.83	62.6001	2548.83	63.1635	2548.83	67.599	2548.83	64.696	2548.83	65.276	2548.83	62.1592	2548.83	62.1399	2548.83	62.2783	2548.83	63.5757	2548.83	52.4443	2548.83	65.5664
2639.65	86.4366	2639.65	86.5863	2639.65	86.3137	2639.65	86.4236	2639.65	86.3108	2639.65	85.6842	2639.65	85.5996	2639.65	83.9189	2639.65	83.7011	2639.65	81.5385	2639.65	81.4957	2639.65	79.1361	2639.65	78.7719	2639.65	76.6843	2639.65	76.1675	2639.65	74.4579	2639.65	73.9714	2639.65	72.3259	2639.65	71.618	2639.65	69.8147	2639.65	69.8169	2639.65	68.012	2639.65	68.5521	2639.65	67.5047	2639.65	66.323	2639.65	64.6913	2639.65	61.964	2639.65	66.4458	2639.65	68.2386	2639.65	62.8026	2639.65	64.7684	2639.65	64.4592	2639.65	65.4066	2639.65	61.3618	2639.65	58.736	2639.65	65.7478
2731.93	86.5714	2731.93	86.8056	2731.93	86.6633	2731.93	86.816	2731.93	86.4141	2731.93	85.9879	2731.93	85.535	2731.93	84.3026	2731.93	84.1178	2731.93	82.4863	2731.93	81.8642	2731.93	80.3197	2731.93	79.1253	2731.93	78.0968	2731.93	76.9134	2731.93	75.9095	2731.93	74.7114	2731.93	73.3098	2731.93	71.8856	2731.93	71.762	2731.93	69.5754	2731.93	69.6893	2731.93	66.9167	2731.93	68.9745	2731.93	69.1054	2731.93	61.2027	2731.93	64.7239	2731.93	65.1008	2731.93	64.7505	2731.93	65.8579	2731.93	60.4614	2731.93	63.5485	2731.93	63.3942	2731.93	63.1732	2731.93	61.0006	2731.93	68.0942
2828.61	86.3042	2828.61	86.6343	2828.61	86.4695	2828.61	86.7889	2828.61	86.734	2828.61	86.4994	2828.61	86.3046	2828.61	85.0504	2828.61	84.814	2828.61	83.0804	2828.61	82.862	2828.61	80.931	2828.61	80.8528	2828.61	78.3592	2828.61	78.1382	2828.61	76.4131	2828.61	75.976	2828.61	75.2403	2828.61	74.7291	2828.61	73.289	2828.61	72.0394	2828.61	69.4898	2828.61	70.3734	2828.61	70.18	2828.61	68.2597	2828.61	67.582	2828.61	57.2011	2828.61	69.152	2828.61	66.8946	2828.61	62.9327	2828.61	63.7894	2828.61	66.2934	2828.61	67.3837	2828.61	66.6207	2828.61	60.1495	2828.61	69.8031
2928.22	85.5065	2928.22	85.9226	2928.22	85.9493	2928.22	86.5599	2928.22	86.1996	2928.22	86.3025	2928.22	86.0574	2928.22	85.2267	2928.22	85.0958	2928.22	83.3155	2928.22	83.2006	2928.22	81.2678	2928.22	81.0178	2928.22	79.1357	2928.22	78.7113	2928.22	77.6901	2928.22	77.5124	2928.22	76.4137	2928.22	75.9055	2928.22	72.9118	2928.22	73.9398	2928.22	72.4549	2928.22	71.5786	2928.22	70.3178	2928.22	71.2561	2928.22	65.2458	2928.22	68.7602	2928.22	67.2986	2928.22	66.1494	2928.22	64.8769	2928.22	64.0092	2928.22	66.0713	2928.22	67.2531	2928.22	57.1306	2928.22	60.2728	2928.22	71.8008
3030.76	85.7286	3030.76	86.1027	3030.76	85.9697	3030.76	86.6875	3030.76	86.1518	3030.76	86.5151	3030.76	86.004	3030.76	85.7826	3030.76	84.4799	3030.76	83.7525	3030.76	82.5379	3030.76	81.9222	3030.76	80.8226	3030.76	79.929	3030.76	79.3659	3030.76	77.2892	3030.76	76.5421	3030.76	75.4513	3030.76	74.4506	3030.76	73.4107	3030.76	72.7743	3030.76	71.4237	3030.76	69.9862	3030.76	69.0824	3030.76	69.5285	3030.76	64.8631	3030.76	66.7549	3030.76	67.4313	3030.76	64.2459	3030.76	64.8994	3030.76	63.4152	3030.76	65.9537	3030.76	65.0306	3030.76	67.0629	3030.76	59.9199	3030.76	71.8515
3137.7	86.0538	3137.7	86.3221	3137.7	85.8546	3137.7	86.4593	3137.7	86.1549	3137.7	85.9075	3137.7	85.522	3137.7	84.9331	3137.7	84.2294	3137.7	83.3534	3137.7	82.8629	3137.7	81.7202	3137.7	81.5198	3137.7	79.8393	3137.7	80.372	3137.7	76.9486	3137.7	77.3226	3137.7	74.9298	3137.7	74.6625	3137.7	73.6428	3137.7	72.6305	3137.7	70.2434	3137.7	71.5235	3137.7	72.0638	3137.7	69.457	3137.7	68.2029	3137.7	69.2072	3137.7	66.1446	3137.7	66.9743	3137.7	64.7634	3137.7	68.0873	3137.7	67.6646	3137.7	65.396	3137.7	63.1572	3137.7	59.2289	3137.7	71.7612
3249.02	87.8137	3249.02	87.6357	3249.02	87.4416	3249.02	87.3155	3249.02	87.5767	3249.02	86.74	3249.02	86.849	3249.02	85.2967	3249.02	85.8387	3249.02	83.8451	3249.02	84.644	3249.02	81.8196	3249.02	82.9386	3249.02	79.702	3249.02	80.819	3249.02	77.2769	3249.02	78.5224	3249.02	74.8462	3249.02	76.4097	3249.02	72.5933	3249.02	73.9618	3249.02	71.8721	3249.02	72.0794	3249.02	69.4077	3249.02	69.7084	3249.02	69.368	3249.02	67.7467	3249.02	66.3337	3249.02	67.6519	3249.02	62.8474	3249.02	67.3875	3249.02	65.7693	3249.02	62.4767	3249.02	64.3933	3249.02	56.3953	3249.02	70.0982
3363.28	89.0181	3363.28	88.4292	3363.28	88.8704	3363.28	87.6791	3363.28	88.4451	3363.28	86.9354	3363.28	87.2738	3363.28	85.8083	3363.28	86.0682	3363.28	84.5422	3363.28	84.5948	3363.28	82.777	3363.28	82.3241	3363.28	80.6716	3363.28	79.5705	3363.28	78.1721	3363.28	77.5568	3363.28	75.2908	3363.28	74.8677	3363.28	71.5322	3363.28	72.7667	3363.28	71.4557	3363.28	70.3721	3363.28	66.4362	3363.28	69.5746	3363.28	67.2578	3363.28	68.2255	3363.28	67.1257	3363.28	64.5396	3363.28	66.9107	3363.28	66.0111	3363.28	60.5216	3363.28	60.0307	3363.28	50.8077	3363.28	58.9366	3363.28	68.2474
3481.93	90.5557	3481.93	89.9249	3481.93	90.2467	3481.93	88.6804	3481.93	88.9194	3481.93	86.9056	3481.93	87.4196	3481.93	84.9229	3481.93	85.5703	3481.93	82.2046	3481.93	83.6557	3481.93	79.6176	3481.93	81.3712	3481.93	77.5949	3481.93	78.3469	3481.93	74.8272	3481.93	74.9608	3481.93	72.3773	3481.93	72.662	3481.93	70.1736	3481.93	71.8974	3481.93	69.4262	3481.93	70.7147	3481.93	66.0043	3481.93	69.1939	3481.93	64.766	3481.93	64.4111	3481.93	66.3692	3481.93	58.5426	3481.93	64.2606	3481.93	67.0401	3481.93	58.4486	3481.93	60.2769	3481.93	49.5431	3481.93	59.6808	3481.93	66.5386
3604.98	89.9512	3604.98	89.4239	3604.98	89.4588	3604.98	88.1486	3604.98	88.054	3604.98	86.3608	3604.98	85.9883	3604.98	84.1146	3604.98	84.1691	3604.98	81.9836	3604.98	81.7332	3604.98	79.5127	3604.98	79.2584	3604.98	76.8751	3604.98	76.9054	3604.98	74.5418	3604.98	74.0118	3604.98	71.4201	3604.98	71.1218	3604.98	70.2778	3604.98	69.6323	3604.98	68.1284	3604.98	66.6191	3604.98	67.5526	3604.98	64.5875	3604.98	63.676	3604.98	64.9715	3604.98	60.2979	3604.98	61.6597	3604.98	62.2089	3604.98	63.1936	3604.98	57.8909	3604.98	48.911	3604.98	57.1423	3604.98	54.1502	3604.98	65.2676
3732.42	90.4172	3732.42	89.7241	3732.42	89.9179	3732.42	87.9906	3732.42	88.6475	3732.42	85.9497	3732.42	86.5636	3732.42	83.5372	3732.42	84.6787	3732.42	81.4093	3732.42	82.3663	3732.42	78.6185	3732.42	79.8922	3732.42	75.2821	3732.42	77.5146	3732.42	72.7969	3732.42	75.3089	3732.42	70.4638	3732.42	72.5874	3732.42	68.8235	3732.42	69.4049	3732.42	66.3374	3732.42	67.9618	3732.42	66.2989	3732.42	66.7232	3732.42	66.41	3732.42	66.6342	3732.42	62.483	3732.42	63.2576	3732.42	61.9949	3732.42	63.7566	3732.42	59.0635	3732.42	54.8664	3732.42	57.1731	3732.42	49.0275	3732.42	65.575
3864.26	90.2113	3864.26	89.3755	3864.26	89.4403	3864.26	87.6153	3864.26	87.852	3864.26	85.5737	3864.26	85.8014	3864.26	83.2787	3864.26	83.8795	3864.26	81.4049	3864.26	81.5654	3864.26	79.0137	3864.26	78.7828	3864.26	76.1636	3864.26	75.9019	3864.26	74.1752	3864.26	73.421	3864.26	71.0598	3864.26	72.1724	3864.26	69.2009	3864.26	70.0319	3864.26	66.8587	3864.26	68.3416	3864.26	65.7159	3864.26	67.7191	3864.26	66.5845	3864.26	65.8823	3864.26	63.8566	3864.26	62.2498	3864.26	62.9323	3864.26	61.5547	3864.26	52.9134	3864.26	54.8224	3864.26	49.9122	3864.26	50.7988	3864.26	64.1785
4000.49	90.7558	4000.49	89.903	4000.49	90.1732	4000.49	87.8765	4000.49	88.3175	4000.49	85.6255	4000.49	86.1749	4000.49	83.7943	4000.49	84.5309	4000.49	81.1914	4000.49	82.5915	4000.49	78.2676	4000.49	80	4000.49	75.564	4000.49	76.9169	4000.49	73.2914	4000.49	74.7081	4000.49	70.8811	4000.49	71.931	4000.49	69.161	4000.49	70.0729	4000.49	67.9077	4000.49	69.3296	4000.49	67.5799	4000.49	66.7826	4000.49	62.7157	4000.49	63.7712	4000.49	62.6995	4000.49	62.2946	4000.49	61.9518	4000.49	65.1548	4000.49	52.7807	4000.49	61.941	4000.49	55.6573	4000.49	50.1089	4000.49	63.4447
4141.11	91.262	4141.11	90.4765	4141.11	90.5704	4141.11	88.3445	4141.11	88.8574	4141.11	86.1731	4141.11	86.8235	4141.11	84.1176	4141.11	84.977	4141.11	81.9319	4141.11	82.4432	4141.11	78.8503	4141.11	80.0099	4141.11	76.3517	4141.11	77.9449	4141.11	75.4454	4141.11	75.2581	4141.11	72.5986	4141.11	73.4597	4141.11	70.7386	4141.11	71.3038	4141.11	67.1116	4141.11	68.8822	4141.11	68.9386	4141.11	68.7825	4141.11	64.789	4141.11	67.426	4141.11	62.4214	4141.11	65.6854	4141.11	65.4171	4141.11	63.4633	4141.11	58.6741	4141.11	61.706	4141.11	52.3208	4141.11	55.281	4141.11	64.477
4287.6	92.6069	4287.6	91.509	4287.6	91.8458	4287.6	88.9223	4287.6	89.7728	4287.6	86.3165	4287.6	87.7383	4287.6	84.0462	4287.6	86.1461	4287.6	82.0696	4287.6	83.4511	4287.6	79.8718	4287.6	80.8189	4287.6	78.4177	4287.6	79.4011	4287.6	76.295	4287.6	78.0635	4287.6	74.5622	4287.6	75.7563	4287.6	73.1571	4287.6	73.2453	4287.6	71.5476	4287.6	71.6397	4287.6	69.9298	4287.6	70.5938	4287.6	70.1478	4287.6	70.1635	4287.6	65.491	4287.6	68.8898	4287.6	69.1447	4287.6	65.8865	4287.6	62.7599	4287.6	63.4935	4287.6	54.0608	4287.6	57.1806	4287.6	66.077
4438.48	92.9665	4438.48	91.6094	4438.48	91.7396	4438.48	88.5608	4438.48	89.3511	4438.48	87.0023	4438.48	87.358	4438.48	86.3533	4438.48	86.3732	4438.48	84.1671	4438.48	85.2583	4438.48	83.2336	4438.48	83.3179	4438.48	82.1173	4438.48	81.2615	4438.48	80.0861	4438.48	79.7706	4438.48	77.9099	4438.48	78.0011	4438.48	75.11	4438.48	75.395	4438.48	72.617	4438.48	74.3822	4438.48	70.5126	4438.48	71.9893	4438.48	69.7126	4438.48	69.7179	4438.48	68.3615	4438.48	71.5853	4438.48	70.0063	4438.48	69.9937	4438.48	61.9174	4438.48	66.975	4438.48	58.9299	4438.48	57.3055	4438.48	65.7108
4595.21	91.4048	4595.21	89.7658	4595.21	90.5808	4595.21	86.9538	4595.21	87.5844	4595.21	86.5426	4595.21	86.8317	4595.21	86.4156	4595.21	86.6921	4595.21	86.3126	4595.21	85.0645	4595.21	84.9626	4595.21	84.7123	4595.21	83.3527	4595.21	84.2233	4595.21	81.8333	4595.21	81.8351	4595.21	79.4029	4595.21	79.1602	4595.21	77.0737	4595.21	76.889	4595.21	74.1517	4595.21	74.663	4595.21	74.2619	4595.21	74.5132	4595.21	70.9053	4595.21	72.74	4595.21	70.8139	4595.21	71.3618	4595.21	71.264	4595.21	70.6807	4595.21	64.0499	4595.21	69.0498	4595.21	58.7631	4595.21	63.9373	4595.21	69.9191
4756.35	91.1336	4756.35	89.2137	4756.35	89.253	4756.35	87.02	4756.35	86.7936	4756.35	87.9751	4756.35	86.8083	4756.35	87.8027	4756.35	87.0118	4756.35	87.091	4756.35	86.2903	4756.35	85.8588	4756.35	85.8481	4756.35	84.2487	4756.35	84.0493	4756.35	81.1093	4756.35	82.3773	4756.35	79.3702	4756.35	79.6199	4756.35	76.7383	4756.35	77.3329	4756.35	74.819	4756.35	75.8805	4756.35	73.1531	4756.35	73.9582	4756.35	70.2277	4756.35	70.4537	4756.35	69.6187	4756.35	71.2385	4756.35	70.899	4756.35	68.3003	4756.35	61.5107	4756.35	69.175	4756.35	52.0958	4756.35	62.4503	4756.35	68.4484
4924.8	89.8376	4924.8	88.1389	4924.8	88.0448	4924.8	86.7863	4924.8	85.8745	4924.8	87.3552	4924.8	86.7895	4924.8	87.3017	4924.8	86.6159	4924.8	86.6548	4924.8	86.6228	4924.8	85.8987	4924.8	86.1492	4924.8	83.8584	4924.8	84.3462	4924.8	80.8912	4924.8	81.6857	4924.8	77.6831	4924.8	79.6575	4924.8	75.2435	4924.8	77.367	4924.8	74.6652	4924.8	75.3319	4924.8	72.3559	4924.8	73.727	4924.8	71.3431	4924.8	73.5624	4924.8	70.6145	4924.8	69.399	4924.8	71.6288	4924.8	69.9412	4924.8	65.503	4924.8	67.5574	4924.8	62.6498	4924.8	61.1173	4924.8	65.0921
5097.66	89.7254	5097.66	87.7766	5097.66	88.1394	5097.66	86.9648	5097.66	87.5455	5097.66	87.1917	5097.66	87.6836	5097.66	86.8836	5097.66	87.4866	5097.66	87.4289	5097.66	87.9348	5097.66	86.3414	5097.66	87.347	5097.66	83.9641	5097.66	85.3167	5097.66	81.4706	5097.66	82.1352	5097.66	79.1042	5097.66	78.9532	5097.66	76.1649	5097.66	75.9579	5097.66	74.1078	5097.66	73.7338	5097.66	73.2873	5097.66	70.9896	5097.66	71.1666	5097.66	73.1033	5097.66	69.9339	5097.66	70.0502	5097.66	69.8024	5097.66	69.8356	5097.66	65.2452	5097.66	68.8263	5097.66	57.9376	5097.66	57.52	5097.66	67.3032
5277.83	88.3312	5277.83	86.4783	5277.83	86.8476	5277.83	86.4806	5277.83	87.177	5277.83	87.074	5277.83	87.3513	5277.83	87.5173	5277.83	87.9755	5277.83	88.0257	5277.83	88.9739	5277.83	86.7015	5277.83	87.7714	5277.83	84.3323	5277.83	85.211	5277.83	81.3159	5277.83	82.1254	5277.83	78.2665	5277.83	78.7286	5277.83	74.984	5277.83	76.4258	5277.83	72.9136	5277.83	74.8517	5277.83	71.9345	5277.83	72.0338	5277.83	70.863	5277.83	72.2549	5277.83	69.7496	5277.83	69.99	5277.83	70.0356	5277.83	68.9146	5277.83	65.7008	5277.83	69.2872	5277.83	52.896	5277.83	55.6864	5277.83	68.0196
5463.87	86.5133	5463.87	85.6377	5463.87	86.9121	5463.87	87.7842	5463.87	88.5228	5463.87	87.9814	5463.87	88.5795	5463.87	88.8351	5463.87	89.3451	5463.87	89.4202	5463.87	89.843	5463.87	87.0863	5463.87	88.4046	5463.87	84.0235	5463.87	85.374	5463.87	80.9887	5463.87	81.982	5463.87	77.6733	5463.87	79.165	5463.87	75.1122	5463.87	75.909	5463.87	73.9729	5463.87	74.7556	5463.87	71.1841	5463.87	72.6998	5463.87	71.7255	5463.87	72.6844	5463.87	70.3467	5463.87	71.3892	5463.87	70.3594	5463.87	69.3001	5463.87	65.9889	5463.87	69.0243	5463.87	53.1189	5463.87	60.0755	5463.87	67.8206
5657.23	84.5233	5657.23	86.9576	5657.23	87.0679	5657.23	89.5174	5657.23	89.597	5657.23	89.5277	5657.23	89.1788	5657.23	90.4008	5657.23	89.7158	5657.23	90.1471	5657.23	90.446	5657.23	87.7116	5657.23	88.2928	5657.23	84.2296	5657.23	84.5333	5657.23	80.9321	5657.23	81.2632	5657.23	79.1062	5657.23	77.9567	5657.23	75.8463	5657.23	75.6742	5657.23	74.0251	5657.23	73.1224	5657.23	72.9995	5657.23	72.6647	5657.23	71.5673	5657.23	72.9264	5657.23	71.0849	5657.23	72.2849	5657.23	69.5615	5657.23	70.3641	5657.23	68.7761	5657.23	69.335	5657.23	55.3991	5657.23	55.6358	5657.23	65.9524
5856.45	85.4058	5856.45	89.119	5856.45	89.1086	5856.45	90.8702	5856.45	90.6962	5856.45	90.6683	5856.45	89.7165	5856.45	91.4061	5856.45	90.8637	5856.45	91.0476	5856.45	90.4434	5856.45	88.1247	5856.45	87.2915	5856.45	84.7183	5856.45	83.1005	5856.45	81.6492	5856.45	80.145	5856.45	78.8177	5856.45	77.0308	5856.45	76.2904	5856.45	75.917	5856.45	74.272	5856.45	74.2562	5856.45	71.4779	5856.45	71.4637	5856.45	70.8592	5856.45	71.3589	5856.45	70.0202	5856.45	71.2543	5856.45	70.5271	5856.45	68.4041	5856.45	67.4549	5856.45	68.7462	5856.45	53.1565	5856.45	47.7506	5856.45	65.564
6062.99	85.3977	6062.99	89.1912	6062.99	89.4536	6062.99	90.9412	6062.99	90.3267	6062.99	91.2074	6062.99	90.0857	6062.99	92.3748	6062.99	91.2028	6062.99	91.2732	6062.99	90.1179	6062.99	87.5016	6062.99	86.318	6062.99	83.8909	6062.99	82.1776	6062.99	80.8446	6062.99	80.3782	6062.99	78.4235	6062.99	77.5715	6062.99	75.0281	6062.99	75.6545	6062.99	73.711	6062.99	74.1419	6062.99	71.9978	6062.99	72.0121	6062.99	71.5303	6062.99	71.9818	6062.99	69.9202	6062.99	67.4134	6062.99	67.1614	6062.99	69.91	6062.99	69.1743	6062.99	69.9048	6062.99	54.6762	6062.99	60.83	6062.99	64.8019
6276.86	82.538	6276.86	87.7118	6276.86	86.868	6276.86	88.9726	6276.86	88.3954	6276.86	91.0801	6276.86	90.3527	6276.86	92.0763	6276.86	91.4796	6276.86	90.0296	6276.86	89.3083	6276.86	85.9301	6276.86	85.5556	6276.86	83.5665	6276.86	83.1659	6276.86	81.4099	6276.86	81.5009	6276.86	78.2326	6276.86	78.5537	6276.86	76.1381	6276.86	76.0606	6276.86	72.9766	6276.86	72.3974	6276.86	70.9432	6276.86	72.2638	6276.86	70.0852	6276.86	70.9219	6276.86	69.9367	6276.86	70.7304	6276.86	67.22	6276.86	67.8273	6276.86	67.7568	6276.86	69.3307	6276.86	54.5193	6276.86	61.9377	6276.86	61.1532
6498.05	87.0227	6498.05	87.7557	6498.05	86.3981	6498.05	88.237	6498.05	87.071	6498.05	91.2944	6498.05	90.891	6498.05	91.1321	6498.05	90.7875	6498.05	88.2001	6498.05	87.9762	6498.05	85.729	6498.05	86.0779	6498.05	84.2899	6498.05	84.3844	6498.05	81.8238	6498.05	82.1701	6498.05	78.3611	6498.05	78.346	6498.05	75.8809	6498.05	76.3986	6498.05	72.6694	6498.05	73.634	6498.05	71.0447	6498.05	71.6159	6498.05	70.4789	6498.05	69.9286	6498.05	67.0813	6498.05	70.3603	6498.05	65.7371	6498.05	67.4727	6498.05	69.3116	6498.05	68.1445	6498.05	59.9617	6498.05	60.8185	6498.05	59.1525
6726.56	88.3373	6726.56	87.5754	6726.56	86.6477	6726.56	88.5961	6726.56	87.9717	6726.56	91.0207	6726.56	91.1696	6726.56	89.4123	6726.56	89.417	6726.56	87.2733	6726.56	87.2216	6726.56	86.334	6726.56	86.4653	6726.56	84.1802	6726.56	84.1982	6726.56	80.2684	6726.56	81.01	6726.56	77.1061	6726.56	76.2239	6726.56	74.2341	6726.56	74.5304	6726.56	71.1368	6726.56	70.1609	6726.56	66.9813	6726.56	69.559	6726.56	67.7197	6726.56	67.7126	6726.56	67.1199	6726.56	68.2761	6726.56	63.1026	6726.56	65.2681	6726.56	65.5351	6726.56	66.2122	6726.56	59.8958	6726.56	62.1648	6726.56	61.1142
6963.87	87.0686	6963.87	86.077	6963.87	86.1896	6963.87	88.9567	6963.87	88.4396	6963.87	90.1354	6963.87	90.6451	6963.87	87.8264	6963.87	88.1704	6963.87	87.0458	6963.87	87.0556	6963.87	85.8296	6963.87	86.3194	6963.87	82.7394	6963.87	83.0506	6963.87	79.3754	6963.87	79.0455	6963.87	75.1753	6963.87	74.7628	6963.87	72.517	6963.87	72.79	6963.87	69.1404	6963.87	70.0989	6963.87	67.0125	6963.87	68.0083	6963.87	66.001	6963.87	63.4432	6963.87	65.5706	6963.87	65.3552	6963.87	60.2198	6963.87	60.0129	6963.87	64.1567	6963.87	62.737	6963.87	55.5325	6963.87	59.6352	6963.87	61.4879
7209.96	85.4756	7209.96	85.4251	7209.96	85.3809	7209.96	89.2177	7209.96	89.2162	7209.96	89.4998	7209.96	90.2737	7209.96	87.4081	7209.96	87.866	7209.96	87.4783	7209.96	87.4455	7209.96	85.6147	7209.96	85.8031	7209.96	81.2145	7209.96	81.5421	7209.96	76.993	7209.96	76.7531	7209.96	72.4702	7209.96	72.8527	7209.96	69.688	7209.96	69.9098	7209.96	67.5536	7209.96	67.0489	7209.96	64.9215	7209.96	67.135	7209.96	63.1074	7209.96	63.3966	7209.96	62.4159	7209.96	62.344	7209.96	55.2232	7209.96	58.7547	7209.96	59.0957	7209.96	60.4704	7209.96	51.7255	7209.96	57.3106	7209.96	60.1028
7464.84	84.9742	7464.84	86.315	7464.84	86.6819	7464.84	90.2574	7464.84	90.2478	7464.84	89.6616	7464.84	90.4195	7464.84	88.0415	7464.84	88.2392	7464.84	87.694	7464.84	87.6414	7464.84	84.8221	7464.84	85.0657	7464.84	79.5913	7464.84	79.4861	7464.84	75.0835	7464.84	73.6727	7464.84	70.7811	7464.84	70.2046	7464.84	68.3511	7464.84	66.9384	7464.84	65.3296	7464.84	64.0328	7464.84	63.626	7464.84	64.895	7464.84	63.9703	7464.84	61.1993	7464.84	62.3239	7464.84	60.8562	7464.84	54.8384	7464.84	56.1216	7464.84	59.461	7464.84	58.0279	7464.84	48.1251	7464.84	58.7088	7464.84	60.6064
7727.05	86.6702	7727.05	88.4634	7727.05	88.8913	7727.05	91.5107	7727.05	91.6644	7727.05	89.9951	7727.05	90.8346	7727.05	88.8581	7727.05	88.9642	7727.05	88.0584	7727.05	88.0478	7727.05	83.9452	7727.05	84.4384	7727.05	77.0323	7727.05	77.9599	7727.05	72.8618	7727.05	73.371	7727.05	69.7488	7727.05	70.1917	7727.05	67.7199	7727.05	68.1286	7727.05	65.2693	7727.05	65.2471	7727.05	63.8211	7727.05	63.4631	7727.05	62.7091	7727.05	62.3388	7727.05	62.1907	7727.05	62.4213	7727.05	51.8605	7727.05	57.1252	7727.05	57.3326	7727.05	58.8954	7727.05	47.7993	7727.05	57.8881	7727.05	60.8053
7999.51	88.8415	7999.51	90.3169	7999.51	90.6149	7999.51	91.8403	7999.51	92.041	7999.51	89.5147	7999.51	90.3544	7999.51	88.9721	7999.51	88.8863	7999.51	87.2141	7999.51	87.5339	7999.51	82.0337	7999.51	83.0925	7999.51	75.9796	7999.51	76.9179	7999.51	73.3908	7999.51	73.2428	7999.51	70.9003	7999.51	71.3025	7999.51	68.6301	7999.51	68.0041	7999.51	64.5505	7999.51	65.2434	7999.51	65.3818	7999.51	65.2451	7999.51	63.5259	7999.51	60.784	7999.51	61.4344	7999.51	61.0847	7999.51	47.0466	7999.51	55.9729	7999.51	60.2298	7999.51	60.3372	7999.51	52.2798	7999.51	59.9805	7999.51	62.5243
8282.23	89.2357	8282.23	90.2471	8282.23	90.6109	8282.23	90.5168	8282.23	90.8299	8282.23	88.2276	8282.23	88.4591	8282.23	87.6188	8282.23	87.3119	8282.23	84.6202	8282.23	84.7407	8282.23	79.0944	8282.23	79.6978	8282.23	75.5667	8282.23	76.0722	8282.23	73.0568	8282.23	72.7247	8282.23	70.238	8282.23	70.4332	8282.23	66.664	8282.23	65.9832	8282.23	63.8524	8282.23	64.4411	8282.23	62.8983	8282.23	62.646	8282.23	60.0875	8282.23	60.1956	8282.23	59.1521	8282.23	57.5407	8282.23	36.7851	8282.23	52.3225	8282.23	57.4088	8282.23	56.8742	8282.23	51.0608	8282.23	58.1734	8282.23	60.6305
8573.73	88.568	8573.73	89.2665	8573.73	89.5231	8573.73	88.8846	8573.73	89.1786	8573.73	87.3763	8573.73	87.2445	8573.73	85.8271	8573.73	85.8369	8573.73	81.7045	8573.73	82.1318	8573.73	77.202	8573.73	77.5184	8573.73	74.027	8573.73	75.4159	8573.73	70.6614	8573.73	71.0159	8573.73	66.8629	8573.73	68.6536	8573.73	63.2557	8573.73	62.9442	8573.73	58.9	8573.73	61.9281	8573.73	57.5032	8573.73	60.6722	8573.73	56.8572	8573.73	54.3198	8573.73	52.7817	8573.73	54.2283	8573.73	40.9369	8573.73	50.2719	8573.73	53.5019	8573.73	56.6386	8573.73	51.1001	8573.73	55.1203	8573.73	57.5644
8876.95	88.0044	8876.95	88.5257	8876.95	88.4579	8876.95	87.9592	8876.95	88.0891	8876.95	86.6718	8876.95	86.9208	8876.95	84.2926	8876.95	84.7402	8876.95	79.6099	8876.95	80.3466	8876.95	75.3377	8876.95	76.5603	8876.95	71.5265	8876.95	73.6239	8876.95	67.6325	8876.95	68.1932	8876.95	63.2244	8876.95	64.827	8876.95	58.6078	8876.95	59.1064	8876.95	56.1434	8876.95	57.7692	8876.95	53.1481	8876.95	55.1568	8876.95	50.8025	8876.95	50.9266	8876.95	46.9006	8876.95	48.6156	8876.95	47.2126	8876.95	43.6569	8876.95	48.5188	8876.95	51.9285	8876.95	48.1236	8876.95	50.8304	8876.95	54.3223
9188.96	88.0695	9188.96	88.5127	9188.96	88.3465	9188.96	88.1007	9188.96	88.0412	9188.96	86.6857	9188.96	86.8887	9188.96	83.6138	9188.96	84.2126	9188.96	78.1969	9188.96	79.6126	9188.96	73.9007	9188.96	75.3396	9188.96	67.6314	9188.96	70.3433	9188.96	61.4619	9188.96	63.3658	9188.96	55.1923	9188.96	58.9791	9188.96	52.6079	9188.96	54.7547	9188.96	51.749	9188.96	53.9941	9188.96	45.088	9188.96	50.9557	9188.96	43.13	9188.96	44.8699	9188.96	41.6841	9188.96	47.9071	9188.96	45.4879	9188.96	40.5892	9188.96	43.4208	9188.96	48.5432	9188.96	44.4126	9188.96	47.5516	9188.96	53.6589
9514.16	89.0967	9514.16	89.862	9514.16	89.5723	9514.16	89.735	9514.16	89.506	9514.16	88.2739	9514.16	88.3731	9514.16	84.7091	9514.16	85.4443	9514.16	78.7088	9514.16	79.6773	9514.16	73.6009	9514.16	74.4964	9514.16	63.3488	9514.16	68.1453	9514.16	55.3745	9514.16	55.2912	9514.16	55.1422	9514.16	52.2744	9514.16	50.6941	9514.16	51.9576	9514.16	51.8844	9514.16	53.1991	9514.16	50.6241	9514.16	46.0116	9514.16	43.3749	9514.16	38.4651	9514.16	40.2014	9514.16	48.211	9514.16	48.1169	9514.16	38.058	9514.16	45.2664	9514.16	45.1349	9514.16	45.5763	9514.16	45.0716	9514.16	54.2803
9849.61	90.1129	9849.61	90.8984	9849.61	90.8003	9849.61	91.0768	9849.61	90.7341	9849.61	89.7732	9849.61	89.8792	9849.61	85.6657	9849.61	86.1659	9849.61	79.2941	9849.61	79.5713	9849.61	73.5575	9849.61	74.5531	9849.61	59.0044	9849.61	63.7055	9849.61	58.4637	9849.61	59.8991	9849.61	61.2086	9849.61	59.0966	9849.61	53.4757	9849.61	58.2522	9849.61	57.2026	9849.61	56.6313	9849.61	53.7704	9849.61	49.5632	9849.61	50.2716	9849.61	48.3881	9849.61	45.1048	9849.61	48.9699	9849.61	50.1286	9849.61	36.62	9849.61	47.7708	9849.61	40.8278	9849.61	50.0607	9849.61	44.9693	9849.61	55.7198
10196.8	89.6195	10196.8	90.0106	10196.8	90.0306	10196.8	90.285	10196.8	89.7896	10196.8	89.1064	10196.8	89.132	10196.8	84.1851	10196.8	84.0313	10196.8	77.5456	10196.8	77.8049	10196.8	68.7667	10196.8	70.5936	10196.8	61.2134	10196.8	58.2414	10196.8	60.982	10196.8	66.1284	10196.8	61.9614	10196.8	62.2582	10196.8	54.8696	10196.8	60.3912	10196.8	58.1069	10196.8	57.4813	10196.8	53.9068	10196.8	51.7769	10196.8	49.3742	10196.8	49.8513	10196.8	44.8584	10196.8	50.3139	10196.8	51.9964	10196.8	37.4868	10196.8	46.0515	10196.8	29.8819	10196.8	50.5206	10196.8	45.0083	10196.8	56.6009
10555.7	88.9655	10555.7	89.1863	10555.7	89.2521	10555.7	89.8708	10555.7	89.498	10555.7	88.5248	10555.7	88.9915	10555.7	82.7443	10555.7	82.1497	10555.7	75.4334	10555.7	76.822	10555.7	55.3668	10555.7	59.9802	10555.7	68.5362	10555.7	68.3502	10555.7	64.8111	10555.7	68.3332	10555.7	62.9513	10555.7	63.6162	10555.7	57.1651	10555.7	60.4148	10555.7	58.1046	10555.7	58.2961	10555.7	52.3633	10555.7	51.4038	10555.7	48.3115	10555.7	49.1069	10555.7	39.3331	10555.7	48.1625	10555.7	53.319	10555.7	41.3454	10555.7	48.7093	10555.7	37.9107	10555.7	51.9013	10555.7	43.4701	10555.7	57.9036
10927.7	87.1313	10927.7	86.4788	10927.7	87.5117	10927.7	88.6302	10927.7	88.7304	10927.7	87.2759	10927.7	88.4032	10927.7	80.4812	10927.7	80.2294	10927.7	70.2069	10927.7	74.0333	10927.7	68.4774	10927.7	67.2192	10927.7	71.1706	10927.7	71.4976	10927.7	65.843	10927.7	66.9547	10927.7	62.5172	10927.7	61.5815	10927.7	58.8304	10927.7	57.297	10927.7	57.8223	10927.7	55.873	10927.7	51.5585	10927.7	46.432	10927.7	46.6772	10927.7	45.3301	10927.7	36.4167	10927.7	45.9882	10927.7	55.4126	10927.7	45.86	10927.7	51.05	10927.7	34.0262	10927.7	52.721	10927.7	44.9785	10927.7	59.0216
11313	90.5526	11313	86.6325	11313	88.6406	11313	89.8524	11313	90.631	11313	88.4918	11313	90.0111	11313	82.8249	11313	82.9682	11313	69.2128	11313	71.6182	11313	77.2868	11313	76.4633	11313	73.8202	11313	72.8717	11313	68.078	11313	65.2653	11313	65.8125	11313	59.0977	11313	62.4639	11313	61.4803	11313	61.2889	11313	58.1202	11313	53.7247	11313	44.511	11313	50.0685	11313	53.5282	11313	46.3731	11313	46.1601	11313	59.1114	11313	49.2579	11313	53.5849	11313	46.2756	11313	52.056	11313	44.7271	11313	63.2162
11712.9	90.5657	11712.9	86.0239	11712.9	87.0615	11712.9	87.812	11712.9	88.8256	11712.9	86.1488	11712.9	86.0966	11712.9	83.0305	11712.9	80.0864	11712.9	71.7167	11712.9	70.1992	11712.9	76.6421	11712.9	75.9915	11712.9	70.9005	11712.9	65.3952	11712.9	68.1011	11712.9	69.0007	11712.9	64.8567	11712.9	64.4895	11712.9	61.1228	11712.9	64.4961	11712.9	59.8412	11712.9	59.7916	11712.9	51.0841	11712.9	51.0541	11712.9	50.3546	11712.9	55.7656	11712.9	40.981	11712.9	40.6369	11712.9	57.0087	11712.9	52.5534	11712.9	45.4726	11712.9	47.9469	11712.9	43.3301	11712.9	46.6456	11712.9	62.9283
12126	89.5175	12126	86.7475	12126	87.1875	12126	87.072	12126	87.0359	12126	83.6484	12126	83.5501	12126	80.7447	12126	80.814	12126	74.1647	12126	78.7881	12126	72.5154	12126	75.3672	12126	69.1886	12126	71.1838	12126	68.7789	12126	72.4314	12126	63.1054	12126	66.3043	12126	60.7771	12126	65.2734	12126	56.856	12126	60.5908	12126	48.5016	12126	52.7155	12126	51.9601	12126	55.8234	12126	39.3426	12126	43.4052	12126	56.6034	12126	54.9906	12126	49.3555	12126	52.4597	12126	51.4413	12126	54.1164	12126	64.4162
12553.7	90.2971	12553.7	88.9975	12553.7	89.3501	12553.7	87.1052	12553.7	86.607	12553.7	83.6954	12553.7	83.9041	12553.7	78.0607	12553.7	80.344	12553.7	75.6495	12553.7	78.8478	12553.7	68.5061	12553.7	71.7219	12553.7	70.0237	12553.7	71.2467	12553.7	66.427	12553.7	69.8579	12553.7	59.0802	12553.7	64.2601	12553.7	57.2315	12553.7	62.1106	12553.7	55.9711	12553.7	56.8682	12553.7	42.077	12553.7	53.8098	12553.7	50.2852	12553.7	53.7441	12553.7	34.3133	12553.7	44.4689	12553.7	53.2507	12553.7	54.7996	12553.7	47.8244	12553.7	52.671	12553.7	53.7143	12553.7	55.8905	12553.7	62.6552
12996.1	90.201	12996.1	88.9371	12996.1	89.4608	12996.1	85.827	12996.1	85.8046	12996.1	82.349	12996.1	82.9547	12996.1	74.6763	12996.1	78.0472	12996.1	70.2105	12996.1	75.2011	12996.1	67.446	12996.1	68.9358	12996.1	65.3102	12996.1	67.7819	12996.1	60.2871	12996.1	63.5186	12996.1	55.2493	12996.1	61.1513	12996.1	53.7374	12996.1	54.7677	12996.1	52.9687	12996.1	49.151	12996.1	47.0126	12996.1	52.0063	12996.1	45.7864	12996.1	51.2182	12996.1	34.5615	12996.1	44.0979	12996.1	50.9307	12996.1	53.4393	12996.1	48.6931	12996.1	51.1783	12996.1	53.5856	12996.1	56.3011	12996.1	59.3334
13454.6	90.2088	13454.6	88.7777	13454.6	89.4973	13454.6	84.9295	13454.6	85.2886	13454.6	80.6822	13454.6	81.7679	13454.6	72.2245	13454.6	74.8882	13454.6	59.6584	13454.6	68.7767	13454.6	67.1077	13454.6	67.9759	13454.6	61.7925	13454.6	65.2467	13454.6	62.5093	13454.6	54.5608	13454.6	57.5774	13454.6	60.2311	13454.6	55.1693	13454.6	52.3829	13454.6	49.6648	13454.6	51.2185	13454.6	48.273	13454.6	50.7485	13454.6	46.4681	13454.6	49.8027	13454.6	31.0311	13454.6	45.3966	13454.6	50.5489	13454.6	52.1034	13454.6	51.4411	13454.6	50.3948	13454.6	52.4969	13454.6	54.6955	13454.6	58.4399
13929.2	90.1628	13929.2	88.4923	13929.2	89.4394	13929.2	84.0974	13929.2	84.4697	13929.2	78.2628	13929.2	79.5739	13929.2	65.3803	13929.2	66.5177	13929.2	68.9687	13929.2	64.2284	13929.2	67.5948	13929.2	69.9774	13929.2	67.9122	13929.2	68.9604	13929.2	65.8276	13929.2	63.0129	13929.2	60.2123	13929.2	63.5219	13929.2	57.9202	13929.2	58.6524	13929.2	49.7491	13929.2	55.566	13929.2	49.5854	13929.2	51.4995	13929.2	46.9848	13929.2	51.8139	13929.2	19.0191	13929.2	46.9303	13929.2	52.1356	13929.2	54.1286	13929.2	55.3415	13929.2	51.8487	13929.2	54.0941	13929.2	55.5093	13929.2	59.5365
14419.9	90.3445	14419.9	87.8627	14419.9	88.5793	14419.9	82.1883	14419.9	82.3792	14419.9	72.6135	14419.9	73.5925	14419.9	63.6572	14419.9	66.474	14419.9	74.1428	14419.9	73.2171	14419.9	70.5957	14419.9	70.7342	14419.9	70.7072	14419.9	71.608	14419.9	66.1848	14419.9	65.3937	14419.9	58.7757	14419.9	62.1	14419.9	56.9937	14419.9	58.1236	14419.9	51.9926	14419.9	55.0504	14419.9	44.8852	14419.9	46.3608	14419.9	47.9864	14419.9	50.6582	14419.9	42.3052	14419.9	47.3665	14419.9	51.6836	14419.9	53.5169	14419.9	56.3939	14419.9	49.4331	14419.9	52.5543	14419.9	54.0385	14419.9	60.0147
14928.2	89.2048	14928.2	86.9816	14928.2	86.8367	14928.2	81.8213	14928.2	81.4897	14928.2	73.8461	14928.2	73.0974	14928.2	65.2428	14928.2	66.6354	14928.2	71.8336	14928.2	71.3123	14928.2	69.9982	14928.2	68.4866	14928.2	68.224	14928.2	67.5629	14928.2	62.7322	14928.2	56.732	14928.2	54.2864	14928.2	50.9866	14928.2	54.7398	14928.2	47.0274	14928.2	50.8346	14928.2	43.0415	14928.2	45.0066	14928.2	39.2622	14928.2	48.4092	14928.2	45.7527	14928.2	40.1664	14928.2	41.2646	14928.2	49.4274	14928.2	47.3323	14928.2	51.6075	14928.2	41.3526	14928.2	44.0224	14928.2	49.0008	14928.2	55.5539
15455.6	89.7426	15455.6	88.5612	15455.6	86.9538	15455.6	84.2783	15455.6	82.3325	15455.6	75.2571	15455.6	74.3434	15455.6	56.9933	15455.6	66.1989	15455.6	69.8522	15455.6	70.2145	15455.6	69.7245	15455.6	69.1964	15455.6	65.0893	15455.6	60.1691	15455.6	61.5836	15455.6	58.9924	15455.6	54.7872	15455.6	54.3582	15455.6	54.6119	15455.6	51.9312	15455.6	49.5276	15455.6	48.2821	15455.6	43.2766	15455.6	44.5701	15455.6	41.6908	15455.6	43.6597	15455.6	38.946	15455.6	39.5443	15455.6	48.4599	15455.6	41.2936	15455.6	45.9971	15455.6	39.5237	15455.6	42.083	15455.6	52.0632	15455.6	54.2961
16000.5	90.8929	16000.5	88.7583	16000.5	88.7921	16000.5	83.5773	16000.5	83.4403	16000.5	71.0882	16000.5	72.4589	16000.5	71.4634	16000.5	72.6127	16000.5	72.9829	16000.5	74.799	16000.5	69.1989	16000.5	70.9944	16000.5	63.5684	16000.5	67.6133	16000.5	61.6767	16000.5	61.1632	16000.5	56.9665	16000.5	54.8306	16000.5	50.209	16000.5	53.4454	16000.5	45.9817	16000.5	49.6375	16000.5	49.0209	16000.5	47.7934	16000.5	47.7697	16000.5	43.0139	16000.5	46.6128	16000.5	40.1077	16000.5	48.8831	16000.5	45.644	16000.5	50.7625	16000.5	49.242	16000.5	49.2302	16000.5	54.1034	16000.5	48.3848
16564.5	92.7781	16564.5	89.185	16564.5	90.9476	16564.5	80.4437	16564.5	84.4093	16564.5	73.4622	16564.5	73.4814	16564.5	78.3631	16564.5	78.0976	16564.5	77.9103	16564.5	78.0152	16564.5	70.3057	16564.5	72.9372	16564.5	67.2169	16564.5	68.1238	16564.5	56.7735	16564.5	58.0073	16564.5	50.6787	16564.5	53.0566	16564.5	42.9599	16564.5	53.9375	16564.5	45.1951	16564.5	50.0754	16564.5	48.177	16564.5	48.9784	16564.5	50.4201	16564.5	47.8545	16564.5	46.9686	16564.5	46.5614	16564.5	53.0869	16564.5	49.296	16564.5	55.4012	16564.5	52.335	16564.5	51.2061	16564.5	53.4262	16564.5	51.787
17148.9	93.4165	17148.9	89.6969	17148.9	91.6678	17148.9	80.3839	17148.9	85.1245	17148.9	76.4762	17148.9	75.0746	17148.9	78.7568	17148.9	77.3987	17148.9	76.6259	17148.9	76.4932	17148.9	69.0778	17148.9	69.5339	17148.9	59.7041	17148.9	64.383	17148.9	47.6696	17148.9	56.4048	17148.9	40.3736	17148.9	45.0307	17148.9	50.8443	17148.9	53.9937	17148.9	46.3946	17148.9	47.2624	17148.9	42.9315	17148.9	46.5886	17148.9	47.8625	17148.9	46.5816	17148.9	44.876	17148.9	45.4658	17148.9	53.0073	17148.9	49.4336	17148.9	53.8578	17148.9	51.9179	17148.9	51.3797	17148.9	54.4853	17148.9	52.9176
17752.4	91.1508	17752.4	87.1767	17752.4	88.8234	17752.4	76.1456	17752.4	80.4338	17752.4	75.9963	17752.4	71.6897	17752.4	76.8081	17752.4	75.6119	17752.4	71.9475	17752.4	73.6776	17752.4	64.6173	17752.4	63.5386	17752.4	54.5727	17752.4	57.1484	17752.4	53.5922	17752.4	58.5577	17752.4	38.1165	17752.4	42.5174	17752.4	47.6189	17752.4	53.2336	17752.4	43.6456	17752.4	44.5815	17752.4	43.3244	17752.4	43.2834	17752.4	44.5571	17752.4	44.7801	17752.4	43.5054	17752.4	46.1427	17752.4	48.8562	17752.4	50.1279	17752.4	51.6983	17752.4	50.5552	17752.4	52.1209	17752.4	53.9985	17752.4	50.5843
18379.4	92.0383	18379.4	87.5932	18379.4	88.8024	18379.4	78.5893	18379.4	81.9348	18379.4	78.9492	18379.4	78.4964	18379.4	77.5368	18379.4	77.8453	18379.4	69.2912	18379.4	72.6198	18379.4	57.9848	18379.4	63.5587	18379.4	62.5813	18379.4	62.6003	18379.4	51.9696	18379.4	65.4176	18379.4	49.2942	18379.4	44.844	18379.4	53.0044	18379.4	57.2723	18379.4	42.6032	18379.4	49.2181	18379.4	44.5353	18379.4	48.2417	18379.4	49.0968	18379.4	49.3843	18379.4	48.2575	18379.4	48.7396	18379.4	54.5586	18379.4	55.364	18379.4	53.978	18379.4	54.7699	18379.4	54.6989	18379.4	54.1944	18379.4	52.5396
19026.9	93.0203	19026.9	88.9788	19026.9	91.0568	19026.9	81.2411	19026.9	85.2977	19026.9	75.7503	19026.9	78.1254	19026.9	74.4933	19026.9	76.0548	19026.9	64.2949	19026.9	69.1442	19026.9	58.5568	19026.9	54.9265	19026.9	59.4131	19026.9	65.0648	19026.9	50.178	19026.9	59.4613	19026.9	51.8984	19026.9	54.9748	19026.9	49.1007	19026.9	54.9212	19026.9	42.9156	19026.9	44.68	19026.9	42.9172	19026.9	49.0335	19026.9	43.7259	19026.9	48.3247	19026.9	48.8409	19026.9	48.5314	19026.9	52.5007	19026.9	54.1281	19026.9	53.2308	19026.9	54.4101	19026.9	53.5697	19026.9	51.6505	19026.9	56.2259
19697.8	92.48	19697.8	87.9915	19697.8	89.9446	19697.8	79.2046	19697.8	81.9267	19697.8	74.2654	19697.8	72.114	19697.8	71.9336	19697.8	72.7018	19697.8	58.1793	19697.8	67.488	19697.8	62.8166	19697.8	63.8266	19697.8	63.4094	19697.8	60.0183	19697.8	57.3072	19697.8	62.6363	19697.8	49.0021	19697.8	54.9664	19697.8	50.4336	19697.8	55.2756	19697.8	49.5797	19697.8	40.193	19697.8	38.2448	19697.8	44.507	19697.8	47.4406	19697.8	46.2804	19697.8	49.1354	19697.8	47.5348	19697.8	53.0441	19697.8	50.7299	19697.8	54.836	19697.8	48.5222	19697.8	55.0984	19697.8	45.5044	19697.8	57.1272
19999.5	92.9408	19999.5	88.2356	19999.5	90.1546	19999.5	79.56	19999.5	81.3139	19999.5	75.9694	19999.5	73.3881	19999.5	71.385	19999.5	73.302	19999.5	63.4187	19999.5	68.7578	19999.5	60.9788	19999.5	66.2164	19999.5	66.1529	19999.5	55.9659	19999.5	58.3385	19999.5	64.5564	19999.5	44.2697	19999.5	53.1312	19999.5	51.9733	19999.5	54.3384	19999.5	53.2202	19999.5	45.3172	19999.5	40.7241	19999.5	45.948	19999.5	49.4297	19999.5	38.059	19999.5	46.4392	19999.5	50.2029	19999.5	56.132	19999.5	57.2026	19999.5	50.9641	19999.5	60.4166	19999.5	57.6181	19999.5	45.9348	19999.5	59.1899
