"SPL Vertical"
"On-Axis"		"10°"		"-10°"		"20°"		"-20°"		"30°"		"-30°"		"40°"		"-40°"		"50°"		"-50°"		"60°"		"-60°"		"70°"		"-70°"		"80°"		"-80°"		"90°"		"-90°"		"100°"		"-100°"		"110°"		"-110°"		"120°"		"-120°"		"130°"		"-130°"		"140°"		"-140°"		"150°"		"-150°"		"160°"		"-160°"		"170°"		"-170°"		"180°"
"Frequency [Hz]"	"Sound Pessure Level [dB]   [2.83V at 1m]"	"Frequency [Hz]"	"Sound Pessure Level [dB]   [2.83V at 1m]"	"Frequency [Hz]"	"Sound Pessure Level [dB]   [2.83V at 1m]"	"Frequency [Hz]"	"Sound Pessure Level [dB]   [2.83V at 1m]"	"Frequency [Hz]"	"Sound Pessure Level [dB]   [2.83V at 1m]"	"Frequency [Hz]"	"Sound Pessure Level [dB]   [2.83V at 1m]"	"Frequency [Hz]"	"Sound Pessure Level [dB]   [2.83V at 1m]"	"Frequency [Hz]"	"Sound Pessure Level [dB]   [2.83V at 1m]"	"Frequency [Hz]"	"Sound Pessure Level [dB]   [2.83V at 1m]"	"Frequency [Hz]"	"Sound Pessure Level [dB]   [2.83V at 1m]"	"Frequency [Hz]"	"Sound Pessure Level [dB]   [2.83V at 1m]"	"Frequency [Hz]"	"Sound Pessure Level [dB]   [2.83V at 1m]"	"Frequency [Hz]"	"Sound Pessure Level [dB]   [2.83V at 1m]"	"Frequency [Hz]"	"Sound Pessure Level [dB]   [2.83V at 1m]"	"Frequency [Hz]"	"Sound Pessure Level [dB]   [2.83V at 1m]"	"Frequency [Hz]"	"Sound Pessure Level [dB]   [2.83V at 1m]"	"Frequency [Hz]"	"Sound Pessure Level [dB]   [2.83V at 1m]"	"Frequency [Hz]"	"Sound Pessure Level [dB]   [2.83V at 1m]"	"Frequency [Hz]"	"Sound Pessure Level [dB]   [2.83V at 1m]"	"Frequency [Hz]"	"Sound Pessure Level [dB]   [2.83V at 1m]"	"Frequency [Hz]"	"Sound Pessure Level [dB]   [2.83V at 1m]"	"Frequency [Hz]"	"Sound Pessure Level [dB]   [2.83V at 1m]"	"Frequency [Hz]"	"Sound Pessure Level [dB]   [2.83V at 1m]"	"Frequency [Hz]"	"Sound Pessure Level [dB]   [2.83V at 1m]"	"Frequency [Hz]"	"Sound Pessure Level [dB]   [2.83V at 1m]"	"Frequency [Hz]"	"Sound Pessure Level [dB]   [2.83V at 1m]"	"Frequency [Hz]"	"Sound Pessure Level [dB]   [2.83V at 1m]"	"Frequency [Hz]"	"Sound Pessure Level [dB]   [2.83V at 1m]"	"Frequency [Hz]"	"Sound Pessure Level [dB]   [2.83V at 1m]"	"Frequency [Hz]"	"Sound Pessure Level [dB]   [2.83V at 1m]"	"Frequency [Hz]"	"Sound Pessure Level [dB]   [2.83V at 1m]"	"Frequency [Hz]"	"Sound Pessure Level [dB]   [2.83V at 1m]"	"Frequency [Hz]"	"Sound Pessure Level [dB]   [2.83V at 1m]"	"Frequency [Hz]"	"Sound Pessure Level [dB]   [2.83V at 1m]"	"Frequency [Hz]"	"Sound Pessure Level [dB]   [2.83V at 1m]"	"Frequency [Hz]"	"Sound Pessure Level [dB]   [2.83V at 1m]"
20.5078	46.2773	20.5078	45.056	20.5078	47.5276	20.5078	43.989	20.5078	48.7169	20.5078	43.2008	20.5078	49.7919	20.5078	42.745	20.5078	50.7244	20.5078	42.567	20.5078	51.5006	20.5078	42.5452	20.5078	52.1149	20.5078	42.5631	20.5078	52.5656	20.5078	42.5485	20.5078	52.854	20.5078	42.48	20.5078	52.983	20.5078	42.3848	20.5078	52.9566	20.5078	42.3376	20.5078	52.7802	20.5078	42.4496	20.5078	52.4593	20.5078	42.8291	20.5078	51.9999	20.5078	43.5199	20.5078	51.4077	20.5078	44.4715	20.5078	50.6889	20.5078	45.5762	20.5078	49.8498	20.5078	46.7277	20.5078	48.8992	20.5078	47.8503
21.9727	47.4911	21.9727	46.3919	21.9727	48.6786	21.9727	45.5335	21.9727	49.8358	21.9727	45.0381	21.9727	50.8902	21.9727	44.9156	21.9727	51.8037	21.9727	45.0596	21.9727	52.5582	21.9727	45.3286	21.9727	53.1463	21.9727	45.6146	21.9727	53.5668	21.9727	45.8609	21.9727	53.8224	21.9727	46.0519	21.9727	53.9185	21.9727	46.2006	21.9727	53.8632	21.9727	46.3396	21.9727	53.6667	21.9727	46.5128	21.9727	53.3416	21.9727	46.7654	21.9727	52.9025	21.9727	47.1306	21.9727	52.3656	21.9727	47.6191	21.9727	51.7486	21.9727	48.2173	21.9727	51.0705	21.9727	48.8953	21.9727	50.3524	21.9727	49.618
23.4375	50.8674	23.4375	50.072	23.4375	51.7271	23.4375	49.4067	23.4375	52.5869	23.4375	48.9178	23.4375	53.3948	23.4375	48.6141	23.4375	54.1136	23.4375	48.4649	23.4375	54.7186	23.4375	48.4174	23.4375	55.194	23.4375	48.4186	23.4375	55.5304	23.4375	48.4294	23.4375	55.7231	23.4375	48.4294	23.4375	55.7709	23.4375	48.4165	23.4375	55.6754	23.4375	48.4054	23.4375	55.4406	23.4375	48.4248	23.4375	55.0732	23.4375	48.5136	23.4375	54.5823	23.4375	48.7131	23.4375	53.9806	23.4375	49.0556	23.4375	53.2858	23.4375	49.5527	23.4375	52.5222	23.4375	50.1894	23.4375	51.7225	23.4375	50.9287
24.9023	50.0607	24.9023	49.2368	24.9023	51.0115	24.9023	48.6425	24.9023	51.9854	24.9023	48.3314	24.9023	52.9039	24.9023	48.2764	24.9023	53.7168	24.9023	48.3906	24.9023	54.3947	24.9023	48.576	24.9023	54.922	24.9023	48.7577	24.9023	55.2913	24.9023	48.8918	24.9023	55.5007	24.9023	48.9607	24.9023	55.5521	24.9023	48.9667	24.9023	55.4504	24.9023	48.9284	24.9023	55.2031	24.9023	48.8788	24.9023	54.8204	24.9023	48.8638	24.9023	54.3151	24.9023	48.9366	24.9023	53.7036	24.9023	49.1463	24.9023	53.0069	24.9023	49.5219	24.9023	52.253	24.9023	50.0609	24.9023	51.4785	24.9023	50.73
26.3672	52.4211	26.3672	51.5563	26.3672	53.3458	26.3672	50.8302	26.3672	54.2593	26.3672	50.3047	26.3672	55.1078	26.3672	49.9974	26.3672	55.8552	26.3672	49.8753	26.3672	56.4786	26.3672	49.8743	26.3672	56.9645	26.3672	49.9289	26.3672	57.3056	26.3672	49.9906	26.3672	57.4991	26.3672	50.034	26.3672	57.5456	26.3672	50.0557	26.3672	57.4487	26.3672	50.0716	26.3672	57.2145	26.3672	50.114	26.3672	56.8511	26.3672	50.2268	26.3672	56.3688	26.3672	50.4548	26.3672	55.7805	26.3672	50.8304	26.3672	55.1022	26.3672	51.3603	26.3672	54.355	26.3672	52.0224	26.3672	53.5668	26.3672	52.7742
27.832	54.494	27.832	53.787	27.832	55.2574	27.832	53.1917	27.832	56.0216	27.832	52.748	27.832	56.7396	27.832	52.4664	27.832	57.3764	27.832	52.326	27.832	57.9071	27.832	52.2856	27.832	58.3152	27.832	52.3003	27.832	58.5906	27.832	52.3333	27.832	58.7285	27.832	52.3623	27.832	58.728	27.832	52.3792	27.832	58.5922	27.832	52.3898	27.832	58.3279	27.832	52.4117	27.832	57.945	27.832	52.4718	27.832	57.4572	27.832	52.6023	27.832	56.8819	27.832	52.8332	27.832	56.2415	27.832	53.184	27.832	55.5635	27.832	53.6564	27.832	54.8813	27.832	54.2328
29.2969	56.4031	29.2969	55.7892	29.2969	57.068	29.2969	55.266	29.2969	57.7404	29.2969	54.8589	29.2969	58.38	29.2969	54.5727	29.2969	58.9538	29.2969	54.3915	29.2969	59.4367	29.2969	54.2866	29.2969	59.8107	29.2969	54.2263	29.2969	60.0639	29.2969	54.1846	29.2969	60.1896	29.2969	54.1449	29.2969	60.1854	29.2969	54.1022	29.2969	60.0529	29.2969	54.0631	29.2969	59.7972	29.2969	54.0455	29.2969	59.4269	29.2969	54.0763	29.2969	58.9544	29.2969	54.1872	29.2969	58.3956	29.2969	54.4071	29.2969	57.7713	29.2969	54.7528	29.2969	57.1076	29.2969	55.2225	29.2969	56.4364	29.2969	55.7951
30.7617	57.7117	30.7617	57.1547	30.7617	58.3214	30.7617	56.6843	30.7617	58.9439	30.7617	56.3198	30.7617	59.5408	30.7617	56.0618	30.7617	60.079	30.7617	55.8936	30.7617	60.5326	30.7617	55.7887	30.7617	60.8826	30.7617	55.7195	30.7617	61.1163	30.7617	55.6635	30.7617	61.2263	30.7617	55.6075	30.7617	61.21	30.7617	55.5485	30.7617	61.0693	30.7617	55.4938	30.7617	60.81	30.7617	55.4604	30.7617	60.4417	30.7617	55.4733	30.7617	59.9781	30.7617	55.561	30.7617	59.4367	30.7617	55.7494	30.7617	58.8391	30.7617	56.0543	30.7617	58.2118	30.7617	56.4752	30.7617	57.5857	30.7617	56.9954
32.2266	59.165	32.2266	58.6705	32.2266	59.7125	32.2266	58.2569	32.2266	60.2779	32.2266	57.9385	32.2266	60.8252	32.2266	57.7129	32.2266	61.3227	32.2266	57.5637	32.2266	61.7445	32.2266	57.4673	32.2266	62.071	32.2266	57.3992	32.2266	62.2889	32.2266	57.3404	32.2266	62.3903	32.2266	57.2794	32.2266	62.3718	32.2266	57.2138	32.2266	62.2351	32.2266	57.1503	32.2266	61.9857	32.2266	57.1041	32.2266	61.6331	32.2266	57.0975	32.2266	61.1908	32.2266	57.1568	32.2266	60.6764	32.2266	57.3071	32.2266	60.1117	32.2266	57.5652	32.2266	59.5234	32.2266	57.9344	32.2266	58.9423	32.2266	58.4018
33.6914	60.7607	33.6914	60.2937	33.6914	61.2687	33.6914	59.8906	33.6914	61.7888	33.6914	59.5635	33.6914	62.291	33.6914	59.3123	33.6914	62.7472	33.6914	59.1261	33.6914	63.1339	33.6914	58.988	33.6914	63.4328	33.6914	58.8799	33.6914	63.6307	33.6914	58.787	33.6914	63.7195	33.6914	58.7008	33.6914	63.6957	33.6914	58.6199	33.6914	63.5602	33.6914	58.551	33.6914	63.318	33.6914	58.5084	33.6914	62.9778	33.6914	58.5122	33.6914	62.5521	33.6914	58.5857	33.6914	62.0574	33.6914	58.75	33.6914	61.5137	33.6914	59.0182	33.6914	60.9458	33.6914	59.3906	33.6914	60.3819	33.6914	59.8534
35.1562	61.7321	35.1562	61.294	35.1562	62.2272	35.1562	60.9364	35.1562	62.7479	35.1562	60.6698	35.1562	63.2605	35.1562	60.4905	35.1562	63.7345	35.1562	60.3835	35.1562	64.1444	35.1562	60.3288	35.1562	64.4712	35.1562	60.3069	35.1562	64.702	35.1562	60.3033	35.1562	64.8297	35.1562	60.3105	35.1562	64.8527	35.1562	60.3282	35.1562	64.7739	35.1562	60.3623	35.1562	64.6008	35.1562	60.4238	35.1562	64.3442	35.1562	60.5263	35.1562	64.0177	35.1562	60.6823	35.1562	63.6371	35.1562	60.9006	35.1562	63.2191	35.1562	61.1836	35.1562	62.7812	35.1562	61.5262	35.1562	62.3413	35.1562	61.9172
36.6211	63.6017	36.6211	63.1678	36.6211	64.0645	36.6211	62.7842	36.6211	64.5311	36.6211	62.4651	36.6211	64.9759	36.6211	62.2157	36.6211	65.3752	36.6211	62.0326	36.6211	65.7089	36.6211	61.9059	36.6211	65.9612	36.6211	61.8229	36.6211	66.1206	36.6211	61.7714	36.6211	66.1805	36.6211	61.7422	36.6211	66.1389	36.6211	61.7302	36.6211	65.9981	36.6211	61.7355	36.6211	65.765	36.6211	61.7625	36.6211	65.4507	36.6211	61.8194	36.6211	65.0705	36.6211	61.9171	36.6211	64.6428	36.6211	62.0668	36.6211	64.1891	36.6211	62.2781	36.6211	63.7322	36.6211	62.5555	36.6211	63.2949	36.6211	62.8975
38.0859	65.4451	38.0859	65.1202	38.0859	65.7968	38.0859	64.8358	38.0859	66.1571	38.0859	64.5991	38.0859	66.5053	38.0859	64.4108	38.0859	66.8205	38.0859	64.2663	38.0859	67.0839	38.0859	64.1573	38.0859	67.2794	38.0859	64.0747	38.0859	67.3954	38.0859	64.0102	38.0859	67.4245	38.0859	63.9579	38.0859	67.3641	38.0859	63.9148	38.0859	67.2165	38.0859	63.8817	38.0859	66.9889	38.0859	63.8624	38.0859	66.6929	38.0859	63.8644	38.0859	66.3446	38.0859	63.8973	38.0859	65.9632	38.0859	63.9719	38.0859	65.5702	38.0859	64.0984	38.0859	65.1878	38.0859	64.284	38.0859	64.836	38.0859	64.5312
39.5508	66.6962	39.5508	66.3518	39.5508	67.0625	39.5508	66.0419	39.5508	67.4337	39.5508	65.7736	39.5508	67.7907	39.5508	65.5481	39.5508	68.1142	39.5508	65.3619	39.5508	68.3868	39.5508	65.2086	39.5508	68.5934	39.5508	65.0815	39.5508	68.723	39.5508	64.9749	39.5508	68.7685	39.5508	64.8866	39.5508	68.727	39.5508	64.8176	39.5508	68.5999	39.5508	64.7727	39.5508	68.3928	39.5508	64.7597	39.5508	68.1147	39.5508	64.7885	39.5508	67.7781	39.5508	64.8689	39.5508	67.3983	39.5508	65.0092	39.5508	66.9926	39.5508	65.2138	39.5508	66.5797	39.5508	65.4821	39.5508	66.1786	39.5508	65.8075
41.0156	67.7499	41.0156	67.4615	41.0156	68.0672	41.0156	67.2137	41.0156	68.3968	41.0156	67.012	41.0156	68.7192	41.0156	66.8558	41.0156	69.0148	41.0156	66.7395	41.0156	69.2651	41.0156	66.6549	41.0156	69.4549	41.0156	66.5933	41.0156	69.5729	41.0156	66.5473	41.0156	69.6122	41.0156	66.5121	41.0156	69.5707	41.0156	66.4859	41.0156	69.4512	41.0156	66.4702	41.0156	69.2608	41.0156	66.4692	41.0156	69.0107	41.0156	66.4893	41.0156	68.7155	41.0156	66.5384	41.0156	68.3919	41.0156	66.6244	41.0156	68.0577	41.0156	66.7538	41.0156	67.7303	41.0156	66.931	41.0156	67.4256	41.0156	67.1563
42.4805	69.0833	42.4805	68.7992	42.4805	69.389	42.4805	68.5482	42.4805	69.701	42.4805	68.337	42.4805	70.0019	42.4805	68.1672	42.4805	70.2741	42.4805	68.0362	42.4805	70.5011	42.4805	67.9384	42.4805	70.6693	42.4805	67.8673	42.4805	70.7685	42.4805	67.8167	42.4805	70.7926	42.4805	67.782	42.4805	70.7401	42.4805	67.7606	42.4805	70.6139	42.4805	67.7524	42.4805	70.4216	42.4805	67.7598	42.4805	70.1745	42.4805	67.7869	42.4805	69.8871	42.4805	67.8394	42.4805	69.576	42.4805	67.9238	42.4805	69.2584	42.4805	68.0459	42.4805	68.9506	42.4805	68.21	42.4805	68.6669	42.4805	68.4178
43.9453	70.329	43.9453	70.0459	43.9453	70.6277	43.9453	69.7892	43.9453	70.9281	43.9453	69.5656	43.9453	71.2142	43.9453	69.3775	43.9453	71.4699	43.9453	69.2238	43.9453	71.6801	43.9453	69.1006	43.9453	71.8319	43.9453	69.0032	43.9453	71.9154	43.9453	68.9268	43.9453	71.9248	43.9453	68.8678	43.9453	71.8583	43.9453	68.8244	43.9453	71.7185	43.9453	68.7968	43.9453	71.5124	43.9453	68.7873	43.9453	71.251	43.9453	68.8002	43.9453	70.9486	43.9453	68.8415	43.9453	70.6218	43.9453	68.9178	43.9453	70.2885	43.9453	69.0356	43.9453	69.9661	43.9453	69.1998	43.9453	69.67	43.9453	69.4122
45.4102	71.8631	45.4102	71.6055	45.4102	72.1302	45.4102	71.3669	45.4102	72.395	45.4102	71.1534	45.4102	72.6439	45.4102	70.9682	45.4102	72.863	45.4102	70.8115	45.4102	73.039	45.4102	70.6815	45.4102	73.1606	45.4102	70.5754	45.4102	73.219	45.4102	70.4901	45.4102	73.2092	45.4102	70.423	45.4102	73.1301	45.4102	70.3724	45.4102	72.9847	45.4102	70.3383	45.4102	72.7804	45.4102	70.3222	45.4102	72.5281	45.4102	70.3272	45.4102	72.2417	45.4102	70.3579	45.4102	71.9373	45.4102	70.4201	45.4102	71.6311	45.4102	70.5194	45.4102	71.3388	45.4102	70.6606	45.4102	71.0738	45.4102	70.8458
46.875	73.1367	46.875	72.9032	46.875	73.3783	46.875	72.6856	46.875	73.6174	46.875	72.489	46.875	73.8418	46.875	72.3156	46.875	74.0387	46.875	72.1652	46.875	74.1954	46.875	72.0364	46.875	74.3011	46.875	71.9266	46.875	74.3475	46.875	71.8335	46.875	74.3293	46.875	71.7555	46.875	74.2455	46.875	71.6922	46.875	74.0992	46.875	71.6442	46.875	73.8975	46.875	71.6139	46.875	73.6514	46.875	71.605	46.875	73.3745	46.875	71.6223	46.875	73.0825	46.875	71.6714	46.875	72.7911	46.875	71.7575	46.875	72.515	46.875	71.8847	46.875	72.2667	46.875	72.0549
48.3398	74.3515	48.3398	74.1325	48.3398	74.5767	48.3398	73.9267	48.3398	74.7984	48.3398	73.7389	48.3398	75.0056	48.3398	73.5712	48.3398	75.1863	48.3398	73.4239	48.3398	75.329	48.3398	73.2957	48.3398	75.4234	48.3398	73.1849	48.3398	75.4614	48.3398	73.0895	48.3398	75.4383	48.3398	73.0081	48.3398	75.3527	48.3398	72.9403	48.3398	75.2074	48.3398	72.8868	48.3398	75.0091	48.3398	72.8498	48.3398	74.768	48.3398	72.8326	48.3398	74.4975	48.3398	72.8401	48.3398	74.2127	48.3398	72.8779	48.3398	73.9294	48.3398	72.9516	48.3398	73.6624	48.3398	73.0661	48.3398	73.4242	48.3398	73.2239
51.2695	76.1959	51.2695	76.0083	51.2695	76.3946	51.2695	75.8379	51.2695	76.5958	51.2695	75.6883	51.2695	76.7894	51.2695	75.5606	51.2695	76.9643	51.2695	75.4544	51.2695	77.1099	51.2695	75.3677	51.2695	77.2168	51.2695	75.2986	51.2695	77.2778	51.2695	75.245	51.2695	77.2888	51.2695	75.2058	51.2695	77.249	51.2695	75.1806	51.2695	77.161	51.2695	75.1702	51.2695	77.0305	51.2695	75.1763	51.2695	76.8658	51.2695	75.2017	51.2695	76.6765	51.2695	75.249	51.2695	76.4728	51.2695	75.3211	51.2695	76.2647	51.2695	75.4196	51.2695	76.0611	51.2695	75.545	51.2695	75.8694	51.2695	75.6959
52.7344	77.3292	52.7344	77.1329	52.7344	77.5331	52.7344	76.9521	52.7344	77.7352	52.7344	76.7922	52.7344	77.9253	52.7344	76.6569	52.7344	78.0928	52.7344	76.5475	52.7344	78.2281	52.7344	76.4637	52.7344	78.3232	52.7344	76.4044	52.7344	78.3725	52.7344	76.3674	52.7344	78.3737	52.7344	76.3509	52.7344	78.3276	52.7344	76.3529	52.7344	78.2383	52.7344	76.3721	52.7344	78.1128	52.7344	76.4075	52.7344	77.9599	52.7344	76.4585	52.7344	77.7893	52.7344	76.5251	52.7344	77.6104	52.7344	76.6073	52.7344	77.4314	52.7344	76.7055	52.7344	77.2589	52.7344	76.8201	52.7344	77.0978	52.7344	76.951
54.1992	78.6738	54.1992	78.4847	54.1992	78.8615	54.1992	78.3011	54.1992	79.0396	54.1992	78.1285	54.1992	79.1989	54.1992	77.9707	54.1992	79.3303	54.1992	77.8299	54.1992	79.4251	54.1992	77.7074	54.1992	79.4762	54.1992	77.6033	54.1992	79.4785	54.1992	77.5173	54.1992	79.4301	54.1992	77.4491	54.1992	79.3326	54.1992	77.3981	54.1992	79.191	54.1992	77.3643	54.1992	79.0136	54.1992	77.3478	54.1992	78.8112	54.1992	77.3492	54.1992	78.5959	54.1992	77.3697	54.1992	78.3795	54.1992	77.4109	54.1992	78.1725	54.1992	77.4744	54.1992	77.9831	54.1992	77.5624	54.1992	77.8168	54.1992	77.6763
55.6641	79.5988	55.6641	79.4224	55.6641	79.7736	55.6641	79.2507	55.6641	79.9395	55.6641	79.0884	55.6641	80.0879	55.6641	78.9388	55.6641	80.2104	55.6641	78.8039	55.6641	80.2988	55.6641	78.6846	55.6641	80.3462	55.6641	78.5812	55.6641	80.3477	55.6641	78.4933	55.6641	80.3011	55.6641	78.421	55.6641	80.2075	55.6641	78.364	55.6641	80.0713	55.6641	78.3227	55.6641	79.8998	55.6641	78.2978	55.6641	79.703	55.6641	78.2905	55.6641	79.4923	55.6641	78.3024	55.6641	79.2793	55.6641	78.3357	55.6641	79.0746	55.6641	78.3925	55.6641	78.887	55.6641	78.475	55.6641	78.7225	55.6641	78.5848
58.5938	81.368	58.5938	81.2014	58.5938	81.5309	58.5938	81.0368	58.5938	81.6829	58.5938	80.8794	58.5938	81.8168	58.5938	80.7329	58.5938	81.925	58.5938	80.6001	58.5938	82.0006	58.5938	80.4828	58.5938	82.038	58.5938	80.3822	58.5938	82.0334	58.5938	80.2986	58.5938	81.9855	58.5938	80.2321	58.5938	81.896	58.5938	80.1827	58.5938	81.7693	58.5938	80.1503	58.5938	81.6126	58.5938	80.1349	58.5938	81.435	58.5938	80.1367	58.5938	81.2466	58.5938	80.1564	58.5938	81.0573	58.5938	80.195	58.5938	80.8757	58.5938	80.2536	58.5938	80.7089	58.5938	80.3336	58.5938	80.5615	58.5938	80.4361
60.0586	82.157	60.0586	81.9942	60.0586	82.3143	60.0586	81.8318	60.0586	82.4596	60.0586	81.675	60.0586	82.5859	60.0586	81.5278	60.0586	82.6862	60.0586	81.3933	60.0586	82.7543	60.0586	81.2738	60.0586	82.785	60.0586	81.1708	60.0586	82.7752	60.0586	81.0853	60.0586	82.7238	60.0586	81.0176	60.0586	82.6329	60.0586	80.9678	60.0586	82.5071	60.0586	80.9357	60.0586	82.3535	60.0586	80.9212	60.0586	82.1809	60.0586	80.9243	60.0586	81.9988	60.0586	80.9452	60.0586	81.8168	60.0586	80.9844	60.0586	81.6427	60.0586	81.0427	60.0586	81.4828	60.0586	81.1212	60.0586	81.3414	60.0586	81.2206
62.9883	83.5071	62.9883	83.3544	62.9883	83.651	62.9883	83.1989	62.9883	83.7804	62.9883	83.0454	62.9883	83.8891	62.9883	82.8987	62.9883	83.9714	62.9883	82.7626	62.9883	84.0221	62.9883	82.6403	62.9883	84.0373	62.9883	82.5341	62.9883	84.0152	62.9883	82.4459	62.9883	83.9557	62.9883	82.3767	62.9883	83.8617	62.9883	82.3268	62.9883	83.7381	62.9883	82.2962	62.9883	83.5921	62.9883	82.2842	62.9883	83.4321	62.9883	82.2903	62.9883	83.2665	62.9883	82.3137	62.9883	83.1033	62.9883	82.3538	62.9883	82.9488	62.9883	82.4106	62.9883	82.8077	62.9883	82.484	62.9883	82.6825	62.9883	82.5746
64.4531	84.0304	64.4531	83.8836	64.4531	84.166	64.4531	83.7311	64.4531	84.2848	64.4531	83.5781	64.4531	84.3811	64.4531	83.4292	64.4531	84.4497	64.4531	83.2887	64.4531	84.4859	64.4531	83.1602	64.4531	84.4867	64.4531	83.0467	64.4531	84.4503	64.4531	82.9504	64.4531	84.3777	64.4531	82.8728	64.4531	84.2719	64.4531	82.8147	64.4531	84.1386	64.4531	82.776	64.4531	83.9853	64.4531	82.7563	64.4531	83.8209	64.4531	82.7545	64.4531	83.654	64.4531	82.7698	64.4531	83.4925	64.4531	82.8014	64.4531	83.3426	64.4531	82.8489	64.4531	83.2084	64.4531	82.9128	64.4531	83.0918	64.4531	82.9934
67.3828	84.9137	67.3828	84.7827	67.3828	85.033	67.3828	84.6447	67.3828	85.1354	67.3828	84.5043	67.3828	85.216	67.3828	84.3659	67.3828	85.27	67.3828	84.2332	67.3828	85.2936	67.3828	84.1095	67.3828	85.284	67.3828	83.9975	67.3828	85.24	67.3828	83.8994	67.3828	85.1625	67.3828	83.8168	67.3828	85.0546	67.3828	83.7505	67.3828	84.9216	67.3828	83.701	67.3828	84.7708	67.3828	83.6684	67.3828	84.6102	67.3828	83.6525	67.3828	84.4483	67.3828	83.6531	67.3828	84.2925	67.3828	83.6701	67.3828	84.149	67.3828	83.7039	67.3828	84.022	67.3828	83.7552	67.3828	83.9137	67.3828	83.8248
68.8477	85.2085	68.8477	85.0788	68.8477	85.3264	68.8477	84.9421	68.8477	85.4272	68.8477	84.8033	68.8477	85.5061	68.8477	84.667	68.8477	85.5588	68.8477	84.5372	68.8477	85.5815	68.8477	84.4174	68.8477	85.5721	68.8477	84.3105	68.8477	85.5297	68.8477	84.2187	68.8477	85.4556	68.8477	84.1433	68.8477	85.3531	68.8477	84.0851	68.8477	85.2277	68.8477	84.0442	68.8477	85.0863	68.8477	84.0201	68.8477	84.9366	68.8477	84.0123	68.8477	84.7862	68.8477	84.0201	68.8477	84.6419	68.8477	84.0431	68.8477	84.5088	68.8477	84.081	68.8477	84.3904	68.8477	84.1341	68.8477	84.2883	68.8477	84.203
71.7773	85.6657	71.7773	85.5397	71.7773	85.7776	71.7773	85.4047	71.7773	85.8707	71.7773	85.2658	71.7773	85.9405	71.7773	85.1281	71.7773	85.9833	71.7773	84.9963	71.7773	85.9963	71.7773	84.8746	71.7773	85.9783	71.7773	84.7666	71.7773	85.9295	71.7773	84.675	71.7773	85.8519	71.7773	84.6016	71.7773	85.7495	71.7773	84.5471	71.7773	85.6282	71.7773	84.5115	71.7773	85.4946	71.7773	84.4939	71.7773	85.3561	71.7773	84.4931	71.7773	85.2194	71.7773	84.5074	71.7773	85.0898	71.7773	84.5356	71.7773	84.9712	71.7773	84.5765	71.7773	84.8656	71.7773	84.6298	71.7773	84.7737	71.7773	84.6953
74.707	85.9336	74.707	85.8118	74.707	86.0391	74.707	85.6789	74.707	86.1239	74.707	85.5401	74.707	86.1838	74.707	85.4009	74.707	86.2158	74.707	85.2665	74.707	86.2179	74.707	85.1417	74.707	86.1895	74.707	85.0306	74.707	86.1317	74.707	84.9364	74.707	86.0473	74.707	84.8612	74.707	85.941	74.707	84.8059	74.707	85.8188	74.707	84.7705	74.707	85.6878	74.707	84.7537	74.707	85.5548	74.707	84.7539	74.707	85.4261	74.707	84.7691	74.707	85.3061	74.707	84.7973	74.707	85.1978	74.707	84.837	74.707	85.1021	74.707	84.8871	74.707	85.0191	74.707	84.9477
77.6367	86.0823	77.6367	85.9639	77.6367	86.1824	77.6367	85.8324	77.6367	86.2601	77.6367	85.6931	77.6367	86.3117	77.6367	85.5519	77.6367	86.3346	77.6367	85.4142	77.6367	86.3277	77.6367	85.2855	77.6367	86.2909	77.6367	85.1705	77.6367	86.2262	77.6367	85.0727	77.6367	86.1368	77.6367	84.9947	77.6367	86.0281	77.6367	84.9376	77.6367	85.9061	77.6367	84.9014	77.6367	85.7778	77.6367	84.8848	77.6367	85.6497	77.6367	84.8858	77.6367	85.5273	77.6367	84.9019	77.6367	85.4144	77.6367	84.9308	77.6367	85.3131	77.6367	84.9706	77.6367	85.2238	77.6367	85.0199	77.6367	85.1458	77.6367	85.0782
79.1016	86.1308	79.1016	86.0128	79.1016	86.2297	79.1016	85.8808	79.1016	86.3052	79.1016	85.7403	79.1016	86.3539	79.1016	85.5972	79.1016	86.3737	79.1016	85.4573	79.1016	86.3634	79.1016	85.3263	79.1016	86.3236	79.1016	85.2091	79.1016	86.2563	79.1016	85.1096	79.1016	86.1654	79.1016	85.0306	79.1016	86.0562	79.1016	84.9733	79.1016	85.935	79.1016	84.9377	79.1016	85.8086	79.1016	84.9223	79.1016	85.6833	79.1016	84.9251	79.1016	85.5642	79.1016	84.9434	79.1016	85.4547	79.1016	84.9745	79.1016	85.3565	79.1016	85.0163	79.1016	85.2696	79.1016	85.0669	79.1016	85.1931	79.1016	85.1258
82.0312	86.2066	82.0312	86.0883	82.0312	86.3036	82.0312	85.9537	82.0312	86.3752	82.0312	85.8086	82.0312	86.4185	82.0312	85.6593	82.0312	86.4319	82.0312	85.5122	82.0312	86.4149	82.0312	85.3737	82.0312	86.3689	82.0312	85.2495	82.0312	86.2967	82.0312	85.1442	82.0312	86.2026	82.0312	85.0612	82.0312	86.0924	82.0312	85.002	82.0312	85.9725	82.0312	84.9667	82.0312	85.8494	82.0312	84.9538	82.0312	85.729	82.0312	84.9609	82.0312	85.6154	82.0312	84.9848	82.0312	85.5114	82.0312	85.0222	82.0312	85.4175	82.0312	85.0699	82.0312	85.3332	82.0312	85.1258	82.0312	85.2572	82.0312	85.1883
84.9609	86.2815	84.9609	86.1661	84.9609	86.3734	84.9609	86.032	84.9609	86.4383	84.9609	85.8847	84.9609	86.4737	84.9609	85.7309	84.9609	86.4786	84.9609	85.5772	84.9609	86.4534	84.9609	85.4305	84.9609	86.4003	84.9609	85.2974	84.9609	86.3225	84.9609	85.1835	84.9609	86.2252	84.9609	85.0927	84.9609	86.1141	84.9609	85.0276	84.9609	85.9957	84.9609	84.9888	84.9609	85.8762	84.9609	84.975	84.9609	85.7605	84.9609	84.9836	84.9609	85.6522	84.9609	85.0109	84.9609	85.5528	84.9609	85.0529	84.9609	85.4625	84.9609	85.1058	84.9609	85.3799	84.9609	85.1664	84.9609	85.3037	84.9609	85.2327
87.8906	86.3892	87.8906	86.2786	87.8906	86.4755	87.8906	86.1483	87.8906	86.5341	87.8906	86.004	87.8906	86.5634	87.8906	85.8523	87.8906	86.5628	87.8906	85.7004	87.8906	86.5337	87.8906	85.5556	87.8906	86.4788	87.8906	85.4249	87.8906	86.4027	87.8906	85.3143	87.8906	86.3108	87.8906	85.2284	87.8906	86.2093	87.8906	85.1699	87.8906	86.1045	87.8906	85.1395	87.8906	86.0016	87.8906	85.1356	87.8906	85.9046	87.8906	85.1552	87.8906	85.8151	87.8906	85.1939	87.8906	85.7331	87.8906	85.2467	87.8906	85.6571	87.8906	85.3087	87.8906	85.585	87.8906	85.3758	87.8906	85.5147	87.8906	85.4449
90.8203	86.6144	90.8203	86.5123	90.8203	86.6898	90.8203	86.3882	90.8203	86.7357	90.8203	86.2478	90.8203	86.7507	90.8203	86.098	90.8203	86.7353	90.8203	85.9464	90.8203	86.6916	90.8203	85.8009	90.8203	86.6238	90.8203	85.6692	90.8203	86.5375	90.8203	85.5581	90.8203	86.4396	90.8203	85.4728	90.8203	86.3374	90.8203	85.4166	90.8203	86.2379	90.8203	85.3902	90.8203	86.1462	90.8203	85.3919	90.8203	86.0655	90.8203	85.418	90.8203	85.9959	90.8203	85.4629	90.8203	85.9355	90.8203	85.5206	90.8203	85.8808	90.8203	85.5848	90.8203	85.8276	90.8203	85.6504	90.8203	85.7726	90.8203	85.7136
95.2148	86.868	95.2148	86.7773	95.2148	86.9288	95.2148	86.6608	95.2148	86.9567	95.2148	86.5244	95.2148	86.9508	95.2148	86.3751	95.2148	86.9122	95.2148	86.2204	95.2148	86.8436	95.2148	86.0687	95.2148	86.7503	95.2148	85.928	95.2148	86.6389	95.2148	85.8055	95.2148	86.5179	95.2148	85.707	95.2148	86.396	95.2148	85.6363	95.2148	86.2813	95.2148	85.5947	95.2148	86.1802	95.2148	85.581	95.2148	86.0961	95.2148	85.5916	95.2148	86.029	95.2148	85.6212	95.2148	85.9761	95.2148	85.6636	95.2148	85.9327	95.2148	85.7126	95.2148	85.8934	95.2148	85.7627	95.2148	85.8535	95.2148	85.8102
98.1445	86.9829	98.1445	86.8961	98.1445	87.0383	98.1445	86.7824	98.1445	87.0598	98.1445	86.6477	98.1445	87.0465	98.1445	86.4989	98.1445	86.9996	98.1445	86.3443	98.1445	86.9227	98.1445	86.1921	98.1445	86.8212	98.1445	86.0507	98.1445	86.7027	98.1445	85.9276	98.1445	86.5762	98.1445	85.8288	98.1445	86.4509	98.1445	85.7579	98.1445	86.3354	98.1445	85.7162	98.1445	86.2363	98.1445	85.7022	98.1445	86.1566	98.1445	85.7123	98.1445	86.096	98.1445	85.7408	98.1445	86.051	98.1445	85.7813	98.1445	86.0159	98.1445	85.8273	98.1445	85.9847	98.1445	85.8733	98.1445	85.9524	98.1445	85.9156
101.074	87.1002	101.074	87.0155	101.074	87.1514	101.074	86.9016	101.074	87.1666	101.074	86.7646	101.074	87.1452	101.074	86.6117	101.074	87.089	101.074	86.4514	101.074	87.0017	101.074	86.2927	101.074	86.8898	101.074	86.1444	101.074	86.7615	101.074	86.0147	101.074	86.6265	101.074	85.9104	101.074	86.495	101.074	85.8356	101.074	86.3764	101.074	85.7919	101.074	86.2773	101.074	85.7779	101.074	86.2008	101.074	85.7893	101.074	86.1459	101.074	85.82	101.074	86.108	101.074	85.8628	101.074	86.0806	101.074	85.9103	101.074	86.0566	101.074	85.9565	101.074	86.03	101.074	85.997
105.469	87.3235	105.469	87.2466	105.469	87.3638	105.469	87.137	105.469	87.3651	105.469	87.0004	105.469	87.3273	105.469	86.844	105.469	87.2523	105.469	86.6761	105.469	87.1446	105.469	86.5057	105.469	87.0107	105.469	86.342	105.469	86.8597	105.469	86.1939	105.469	86.7021	105.469	86.0687	105.469	86.5491	105.469	85.9719	105.469	86.411	105.469	85.9061	105.469	86.2956	105.469	85.871	105.469	86.2067	105.469	85.8632	105.469	86.1437	105.469	85.8768	105.469	86.1021	105.469	85.9049	105.469	86.0747	105.469	85.94	105.469	86.0538	105.469	85.9756	105.469	86.0327	105.469	86.007
108.398	87.4749	108.398	87.4021	108.398	87.5121	108.398	87.2976	108.398	87.5112	108.398	87.1672	108.398	87.4722	108.398	87.0179	108.398	87.3969	108.398	86.8577	108.398	87.2896	108.398	86.6953	108.398	87.1572	108.398	86.5394	108.398	87.0083	108.398	86.398	108.398	86.8533	108.398	86.2779	108.398	86.7029	108.398	86.1842	108.398	86.5672	108.398	86.1189	108.398	86.4536	108.398	86.0818	108.398	86.3658	108.398	86.0696	108.398	86.3035	108.398	86.0771	108.398	86.2624	108.398	86.098	108.398	86.2361	108.398	86.1254	108.398	86.2173	108.398	86.1537	108.398	86.1997	108.398	86.179
112.793	87.5761	112.793	87.4991	112.793	87.616	112.793	87.3893	112.793	87.6162	112.793	87.2533	112.793	87.577	112.793	87.0993	112.793	87.5011	112.793	86.9364	112.793	87.3938	112.793	86.7747	112.793	87.2633	112.793	86.6241	112.793	87.1196	112.793	86.4934	112.793	86.9745	112.793	86.3898	112.793	86.8394	112.793	86.3176	112.793	86.7242	112.793	86.2779	112.793	86.6353	112.793	86.2687	112.793	86.5744	112.793	86.2846	112.793	86.5388	112.793	86.3187	112.793	86.5219	112.793	86.3625	112.793	86.5154	112.793	86.4083	112.793	86.5106	112.793	86.4491	112.793	86.5004	112.793	86.4804
117.188	87.6755	117.188	87.594	117.188	87.7136	117.188	87.4737	117.188	87.7062	117.188	87.3214	117.188	87.6542	117.188	87.146	117.188	87.561	117.188	86.958	117.188	87.4332	117.188	86.7691	117.188	87.2804	117.188	86.5912	117.188	87.1144	117.188	86.4354	117.188	86.9487	117.188	86.3109	117.188	86.7965	117.188	86.2236	117.188	86.6689	117.188	86.1752	117.188	86.5727	117.188	86.1635	117.188	86.5093	117.188	86.1823	117.188	86.4747	117.188	86.2231	117.188	86.4607	117.188	86.2758	117.188	86.4569	117.188	86.331	117.188	86.4535	117.188	86.3803	117.188	86.4422	117.188	86.4182
120.117	88.0444	120.117	87.9693	120.117	88.0743	120.117	87.8529	120.117	88.0573	120.117	87.7017	120.117	87.9945	120.117	87.5237	120.117	87.8895	120.117	87.329	120.117	87.749	120.117	87.129	120.117	87.5827	120.117	86.9358	120.117	87.4026	120.117	86.7611	120.117	87.2223	120.117	86.6152	120.117	87.0556	120.117	86.5056	120.117	86.9139	120.117	86.4359	120.117	86.8049	120.117	86.405	120.117	86.7304	120.117	86.4078	120.117	86.6866	120.117	86.4362	120.117	86.6654	120.117	86.48	120.117	86.6564	120.117	86.5292	120.117	86.6493	120.117	86.5752	120.117	86.6361	120.117	86.6117
124.512	88.3896	124.512	88.3186	124.512	88.416	124.512	88.2069	124.512	88.3961	124.512	88.0608	124.512	88.3315	124.512	87.8889	124.512	88.2266	124.512	87.7016	124.512	88.0888	124.512	87.5106	124.512	87.9287	124.512	87.3284	124.512	87.7592	124.512	87.1672	124.512	87.5945	124.512	87.0374	124.512	87.4484	124.512	86.9464	124.512	87.3318	124.512	86.8973	124.512	87.2508	124.512	86.8885	124.512	87.2053	124.512	86.9137	124.512	87.1895	124.512	86.9633	124.512	87.1933	124.512	87.0258	124.512	87.2049	124.512	87.0899	124.512	87.2128	124.512	87.1457	124.512	87.2083	124.512	87.1862
128.906	88.6365	128.906	88.5672	128.906	88.6571	128.906	88.4534	128.906	88.6277	128.906	88.3017	128.906	88.55	128.906	88.121	128.906	88.4291	128.906	87.9224	128.906	88.2736	128.906	87.7186	128.906	88.0954	128.906	87.5235	128.906	87.9096	128.906	87.3507	128.906	87.7326	128.906	87.2124	128.906	87.5804	128.906	87.1172	128.906	87.4654	128.906	87.0693	128.906	87.3936	128.906	87.0668	128.906	87.3638	128.906	87.1027	128.906	87.3677	128.906	87.1656	128.906	87.3921	128.906	87.2421	128.906	87.4222	128.906	87.3187	128.906	87.4442	128.906	87.3835	128.906	87.4481	128.906	87.428
133.301	88.897	133.301	88.8313	133.301	88.9098	133.301	88.7165	133.301	88.8683	133.301	88.5588	133.301	88.7741	133.301	88.3665	133.301	88.6318	133.301	88.15	133.301	88.4497	133.301	87.922	133.301	88.2398	133.301	87.6962	133.301	88.0175	133.301	87.4877	133.301	87.8008	133.301	87.3103	133.301	87.6078	133.301	87.1756	133.301	87.4542	133.301	87.0905	133.301	87.3493	133.301	87.0558	133.301	87.2943	133.301	87.066	133.301	87.2816	133.301	87.1099	133.301	87.2974	133.301	87.1733	133.301	87.3249	133.301	87.2411	133.301	87.3482	133.301	87.2997	133.301	87.3553	133.301	87.3395
139.16	89.0343	139.16	88.9683	139.16	89.0503	139.16	88.8563	139.16	89.0149	139.16	88.7047	139.16	88.9296	139.16	88.522	139.16	88.7991	139.16	88.3184	139.16	88.6315	139.16	88.1056	139.16	88.4383	139.16	87.8963	139.16	88.2336	139.16	87.7031	139.16	88.0332	139.16	87.5378	139.16	87.8525	139.16	87.4097	139.16	87.7045	139.16	87.3243	139.16	87.5968	139.16	87.2822	139.16	87.5304	139.16	87.2789	139.16	87.4997	139.16	87.3056	139.16	87.4942	139.16	87.3509	139.16	87.5009	139.16	87.4027	139.16	87.5074	139.16	87.4501	139.16	87.504	139.16	87.4852
143.555	89.0645	143.555	88.9957	143.555	89.0764	143.555	88.8741	143.555	89.0306	143.555	88.7068	143.555	88.9298	143.555	88.5036	143.555	88.7803	143.555	88.2769	143.555	88.5926	143.555	88.041	143.555	88.3811	143.555	87.8117	143.555	88.163	143.555	87.605	143.555	87.9572	143.555	87.435	143.555	87.7814	143.555	87.3123	143.555	87.6486	143.555	87.2419	143.555	87.5649	143.555	87.2225	143.555	87.5278	143.555	87.2469	143.555	87.5272	143.555	87.3031	143.555	87.5485	143.555	87.3768	143.555	87.5755	143.555	87.4537	143.555	87.594	143.555	87.521	143.555	87.5937	143.555	87.5694
147.949	89.6151	147.949	89.5537	147.949	89.6156	147.949	89.4345	147.949	89.5547	147.949	89.2634	147.949	89.4355	147.949	89.049	147.949	89.2643	147.949	88.8025	147.949	89.0517	147.949	88.5382	147.949	88.8121	147.949	88.2726	147.949	88.5638	147.949	88.0239	147.949	88.3271	147.949	87.8101	147.949	88.1219	147.949	87.6463	147.949	87.9639	147.949	87.5419	147.949	87.861	147.949	87.4986	147.949	87.8116	147.949	87.5096	147.949	87.8053	147.949	87.5618	147.949	87.8255	147.949	87.6381	147.949	87.854	147.949	87.7207	147.949	87.8742	147.949	87.7943	147.949	87.8741	147.949	87.8475
153.809	89.8626	153.809	89.8104	153.809	89.8561	153.809	89.7025	153.809	89.7903	153.809	89.5446	153.809	89.6683	153.809	89.3449	153.809	89.4967	153.809	89.114	153.809	89.2865	153.809	88.8653	153.809	89.0531	153.809	88.6146	153.809	88.816	153.809	88.38	153.809	88.597	153.809	88.1798	153.809	88.4169	153.809	88.0306	153.809	88.2917	153.809	87.9434	153.809	88.2282	153.809	87.9212	153.809	88.222	153.809	87.9574	153.809	88.2589	153.809	88.0374	153.809	88.3184	153.809	88.1416	153.809	88.3787	153.809	88.2492	153.809	88.4209	153.809	88.3417	153.809	88.4318	153.809	88.4051
159.668	89.7743	159.668	89.7266	159.668	89.7626	159.668	89.6233	159.668	89.6909	159.668	89.4699	159.668	89.5615	159.668	89.2742	159.668	89.3804	159.668	89.0457	159.668	89.1578	159.668	88.7956	159.668	88.9082	159.668	88.5374	159.668	88.65	159.668	88.2862	159.668	88.4042	159.668	88.0586	159.668	88.1916	159.668	87.8704	159.668	88.029	159.668	87.7348	159.668	87.9256	159.668	87.6589	159.668	87.88	159.668	87.6416	159.668	87.8809	159.668	87.6736	159.668	87.91	159.668	87.7386	159.668	87.9468	159.668	87.8177	159.668	87.9729	159.668	87.8923	159.668	87.9751	159.668	87.9477
165.527	89.8358	165.527	89.7837	165.527	89.8205	165.527	89.6686	165.527	89.7374	165.527	89.4979	165.527	89.5899	165.527	89.2821	165.527	89.3865	165.527	89.0341	165.527	89.1411	165.527	88.7693	165.527	88.8725	165.527	88.5043	165.527	88.6043	165.527	88.2568	165.527	88.3617	165.527	88.0435	165.527	88.1679	165.527	87.8789	165.527	88.0385	165.527	87.7725	165.527	87.9777	165.527	87.7275	165.527	87.9769	165.527	87.7396	165.527	88.0181	165.527	87.7972	165.527	88.078	165.527	87.8839	165.527	88.1344	165.527	87.981	165.527	88.1692	165.527	88.0704	165.527	88.1713	165.527	88.1371
171.387	90.3724	171.387	90.3301	171.387	90.3432	171.387	90.2188	171.387	90.2423	171.387	90.0434	171.387	90.0723	171.387	89.8108	171.387	89.8396	171.387	89.5306	171.387	89.5555	171.387	89.2157	171.387	89.2364	171.387	88.8828	171.387	88.9047	171.387	88.5525	171.387	88.587	171.387	88.248	171.387	88.3113	171.387	87.9926	171.387	88.1013	171.387	87.8054	171.387	87.9706	171.387	87.6971	171.387	87.9179	171.387	87.6668	171.387	87.9276	171.387	87.7024	171.387	87.9746	171.387	87.7826	171.387	88.0308	171.387	87.8825	171.387	88.0714	171.387	87.9772	171.387	88.0793	171.387	88.0469
177.246	90.4321	177.246	90.3886	177.246	90.4065	177.246	90.2807	177.246	90.3104	177.246	90.1155	177.246	90.146	177.246	89.9023	177.246	89.9203	177.246	89.6524	177.246	89.6457	177.246	89.3791	177.246	89.3406	177.246	89.0979	177.246	89.0292	177.246	88.8263	177.246	88.7398	177.246	88.5833	177.246	88.5006	177.246	88.3868	177.246	88.3338	177.246	88.2508	177.246	88.2497	177.246	88.1824	177.246	88.2432	177.246	88.179	177.246	88.2953	177.246	88.2288	177.246	88.3789	177.246	88.3125	177.246	88.4655	177.246	88.4074	177.246	88.5313	177.246	88.4913	177.246	88.5603	177.246	88.546
183.105	90.6369	183.105	90.5898	183.105	90.6128	183.105	90.4754	183.105	90.5167	183.105	90.3005	183.105	90.3519	183.105	90.074	183.105	90.1262	183.105	89.8074	183.105	89.8527	183.105	89.5145	183.105	89.5498	183.105	89.2116	183.105	89.2407	183.105	88.9178	183.105	88.9518	183.105	88.6534	183.105	88.7088	183.105	88.4384	183.105	88.5319	183.105	88.2885	183.105	88.4307	183.105	88.2116	183.105	88.4017	183.105	88.2052	183.105	88.4287	183.105	88.2563	183.105	88.4881	183.105	88.3441	183.105	88.5538	183.105	88.4445	183.105	88.6031	183.105	88.5347	183.105	88.62	183.105	88.5966
188.965	90.6618	188.965	90.6188	188.965	90.6265	188.965	90.5023	188.965	90.5118	188.965	90.3202	188.965	90.3214	188.965	90.0829	188.965	90.0644	188.965	89.8036	188.965	89.7568	188.965	89.4982	188.965	89.4218	188.965	89.1853	188.965	89.0892	188.965	88.8867	188.965	88.7927	188.965	88.6254	188.965	88.5643	188.965	88.4235	188.965	88.4261	188.965	88.2974	188.965	88.384	188.965	88.2538	188.965	88.4253	188.965	88.2871	188.965	88.5229	188.965	88.38	188.965	88.6438	188.965	88.5078	188.965	88.7559	188.965	88.6427	188.965	88.8344	188.965	88.7592	188.965	88.8633	188.965	88.837
196.289	90.8115	196.289	90.7674	196.289	90.7741	196.289	90.6466	196.289	90.6537	196.289	90.457	196.289	90.4534	196.289	90.2091	196.289	90.1815	196.289	89.9157	196.289	89.853	196.289	89.5926	196.289	89.4905	196.289	89.2585	196.289	89.124	196.289	88.9357	196.289	88.7892	196.289	88.6487	196.289	88.5224	196.289	88.4219	196.289	88.3519	196.289	88.2749	196.289	88.2894	196.289	88.2172	196.289	88.325	196.289	88.2447	196.289	88.4305	196.289	88.3395	196.289	88.5682	196.289	88.4742	196.289	88.7007	196.289	88.6177	196.289	88.7976	196.289	88.7404	196.289	88.8397	196.289	88.8193
203.613	90.549	203.613	90.5056	203.613	90.5026	203.613	90.3771	203.613	90.3649	203.613	90.1712	203.613	90.1391	203.613	89.8979	203.613	89.8343	203.613	89.5697	203.613	89.4669	203.613	89.2024	203.613	89.0627	203.613	88.816	203.613	88.6566	203.613	88.4357	203.613	88.2912	203.613	88.0919	203.613	88.0093	203.613	87.8173	203.613	87.8431	203.613	87.641	203.613	87.8029	203.613	87.5794	203.613	87.8726	203.613	87.6293	203.613	88.0155	203.613	87.7676	203.613	88.186	203.613	87.9571	203.613	88.3412	203.613	88.1563	203.613	88.4476	203.613	88.3276	203.613	88.4841	203.613	88.4426
210.938	90.9811	210.938	90.9414	210.938	90.9281	210.938	90.8141	210.938	90.7794	210.938	90.6066	210.938	90.5358	210.938	90.3275	210.938	90.203	210.938	89.9874	210.938	89.7934	210.938	89.5993	210.938	89.3282	210.938	89.1799	210.938	88.8395	210.938	88.7508	210.938	88.3701	210.938	88.3395	210.938	87.9699	210.938	87.9782	210.938	87.6847	210.938	87.6988	210.938	87.5409	210.938	87.5262	210.938	87.5339	210.938	87.4688	210.938	87.629	210.938	87.5143	210.938	87.7747	210.938	87.6326	210.938	87.9195	210.938	87.7832	210.938	88.0228	210.938	87.9255	210.938	88.0606	210.938	88.0254
218.262	90.9192	218.262	90.8731	218.262	90.8839	218.262	90.7518	218.262	90.764	218.262	90.5632	218.262	90.5597	218.262	90.3165	218.262	90.2756	218.262	90.0216	218.262	89.9218	218.262	89.6891	218.262	89.5143	218.262	89.3312	218.262	89.0765	218.262	88.9621	218.262	88.6391	218.262	88.5992	218.262	88.2384	218.262	88.2629	218.262	87.9116	218.262	87.9754	218.262	87.6875	218.262	87.7573	218.262	87.5766	218.262	87.622	218.262	87.5658	218.262	87.5705	218.262	87.622	218.262	87.5891	218.262	87.7032	218.262	87.6518	218.262	87.7713	218.262	87.7267	218.262	87.801	218.262	87.7835
225.586	90.6422	225.586	90.5942	225.586	90.5994	225.586	90.4616	225.586	90.4642	225.586	90.2547	225.586	90.2406	225.586	89.9865	225.586	89.9396	225.586	89.6729	225.586	89.5796	225.586	89.3319	225.586	89.1872	225.586	88.9844	225.586	88.7966	225.586	88.6543	225.586	88.4469	225.586	88.3675	225.586	88.1756	225.586	88.1489	225.586	88.0098	225.586	88.0173	225.586	87.9579	225.586	87.9794	225.586	88.0071	225.586	88.0268	225.586	88.1275	225.586	88.1377	225.586	88.2814	225.586	88.2817	225.586	88.4317	225.586	88.4261	225.586	88.5481	225.586	88.5419	225.586	88.6098	225.586	88.6072
232.91	90.5454	232.91	90.493	232.91	90.4911	232.91	90.3402	232.91	90.3283	232.91	90.0967	232.91	90.0611	232.91	89.7757	232.91	89.7009	232.91	89.3927	232.91	89.2682	232.91	88.9668	232.91	88.7947	232.91	88.521	232.91	88.3234	232.91	88.0838	232.91	87.9062	232.91	87.69	232.91	87.5947	232.91	87.378	232.91	87.4261	232.91	87.183	232.91	87.4086	232.91	87.1256	232.91	87.5181	232.91	87.2021	232.91	87.7067	232.91	87.3831	232.91	87.9194	232.91	87.6222	232.91	88.1066	232.91	87.8688	232.91	88.2316	232.91	88.0786	232.91	88.2719	232.91	88.2192
241.699	90.8553	241.699	90.819	241.699	90.7855	241.699	90.6831	241.699	90.6061	241.699	90.4564	241.699	90.3178	241.699	90.15	241.699	89.927	241.699	89.7768	241.699	89.4482	241.699	89.3525	241.699	88.9066	241.699	88.8961	241.699	88.3411	241.699	88.4306	241.699	87.8046	241.699	87.9835	241.699	87.3586	241.699	87.5858	241.699	87.0589	241.699	87.2694	241.699	86.9343	241.699	87.0618	241.699	86.9736	241.699	86.9784	241.699	87.1288	241.699	87.015	241.699	87.334	241.699	87.1453	241.699	87.5255	241.699	87.3258	241.699	87.6551	241.699	87.5063	241.699	87.6953	241.699	87.6406
250.488	90.2774	250.488	90.2185	250.488	90.218	250.488	90.0507	250.488	90.0347	250.488	89.7872	250.488	89.7277	250.488	89.4434	250.488	89.3048	250.488	89.0364	250.488	88.7843	250.488	88.5852	250.488	88.1987	250.488	88.1113	250.488	87.5982	250.488	87.641	250.488	87.0489	250.488	87.2061	250.488	86.6209	250.488	86.8427	250.488	86.3653	250.488	86.5839	250.488	86.2916	250.488	86.4493	250.488	86.3647	250.488	86.4366	250.488	86.5248	250.488	86.5208	250.488	86.712	250.488	86.6624	250.488	86.8801	250.488	86.8186	250.488	86.999	250.488	86.952	250.488	87.0526	250.488	87.0353
259.277	91.0092	259.277	90.9538	259.277	90.9422	259.277	90.7822	259.277	90.7475	259.277	90.5015	259.277	90.4216	259.277	90.1197	259.277	89.9647	259.277	89.6473	259.277	89.3837	259.277	89.0998	259.277	88.6969	259.277	88.5002	259.277	87.9417	259.277	87.8823	259.277	87.1829	259.277	87.2922	259.277	86.5164	259.277	86.7855	259.277	86.0533	259.277	86.4172	259.277	85.8725	259.277	86.2252	259.277	85.9701	259.277	86.2149	259.277	86.2584	259.277	86.3553	259.277	86.6168	259.277	86.5894	259.277	86.942	259.277	86.8517	259.277	87.1685	259.277	87.0817	259.277	87.2658	259.277	87.2311
268.066	91.201	268.066	91.1368	268.066	91.1669	268.066	90.9834	268.066	91.0279	268.066	90.7507	268.066	90.7805	268.066	90.4486	268.066	90.4254	268.066	90.0859	268.066	89.9691	268.066	89.671	268.066	89.4262	268.066	89.2136	268.066	88.8231	268.066	88.7284	268.066	88.2023	268.066	88.2385	268.066	87.6238	268.066	87.7775	268.066	87.1571	268.066	87.387	268.066	86.8603	268.066	87.1064	268.066	86.7537	268.066	86.9592	268.066	86.8082	268.066	86.9412	268.066	86.9598	268.066	87.021	268.066	87.1372	268.066	87.1494	268.066	87.2823	268.066	87.2746	268.066	87.3589	268.066	87.3537
276.855	90.2539	276.855	90.1686	276.855	90.2272	276.855	89.9829	276.855	90.0804	276.855	89.7102	276.855	89.8095	276.855	89.3654	276.855	89.4167	276.855	88.9632	276.855	88.9135	276.855	88.5186	276.855	88.3258	276.855	88.0488	276.855	87.7012	276.855	87.577	276.855	87.1149	276.855	87.138	276.855	86.6649	276.855	86.7806	276.855	86.4419	276.855	86.5602	276.855	86.4821	276.855	86.5185	276.855	86.7416	276.855	86.6594	276.855	87.1219	276.855	86.9417	276.855	87.519	276.855	87.2956	276.855	87.8538	276.855	87.647	276.855	88.0779	276.855	87.9349	276.855	88.1675	276.855	88.1167
287.109	90.3709	287.109	90.3219	287.109	90.3053	287.109	90.1597	287.109	90.1264	287.109	89.8895	287.109	89.8368	287.109	89.521	287.109	89.4389	287.109	89.0687	287.109	88.9349	287.109	88.552	287.109	88.3279	287.109	87.9935	287.109	87.6302	287.109	87.4173	287.109	86.876	287.109	86.8479	287.109	86.1417	287.109	86.3131	287.109	85.5544	287.109	85.8501	287.109	85.2569	287.109	85.5106	287.109	85.3127	287.109	85.3512	287.109	85.6432	287.109	85.4041	287.109	86.081	287.109	85.6466	287.109	86.4703	287.109	86.0002	287.109	86.7137	287.109	86.3626	287.109	86.7701	287.109	86.6413
297.363	90.7159	297.363	90.6566	297.363	90.6531	297.363	90.4868	297.363	90.4588	297.363	90.2163	297.363	90.1281	297.363	89.8514	297.363	89.6642	297.363	89.3953	297.363	89.0793	297.363	88.8518	297.363	88.3953	297.363	88.2322	297.363	87.6446	297.363	87.5633	297.363	86.8712	297.363	86.8929	297.363	86.1357	297.363	86.2868	297.363	85.5196	297.363	85.8132	297.363	85.1159	297.363	85.5187	297.363	84.9892	297.363	85.4105	297.363	85.1241	297.363	85.4587	297.363	85.4209	297.363	85.6125	297.363	85.7492	297.363	85.8137	297.363	86.0052	297.363	86.0031	297.363	86.1335	297.363	86.1248
307.617	90.424	307.617	90.3448	307.617	90.3889	307.617	90.1629	307.617	90.232	307.617	89.8934	307.617	89.9509	307.617	89.5522	307.617	89.5479	307.617	89.1528	307.617	89.0315	307.617	88.7044	307.617	88.4194	307.617	88.2139	307.617	87.7424	307.617	87.6933	307.617	87.0488	307.617	87.169	307.617	86.4062	307.617	86.6887	307.617	85.895	307.617	86.3159	307.617	85.5889	307.617	86.1073	307.617	85.524	307.617	86.0826	307.617	85.6768	307.617	86.2104	307.617	85.9708	307.617	86.4231	307.617	86.3089	307.617	86.644	307.617	86.6049	307.617	86.8076	307.617	86.8004	307.617	86.8679
319.336	89.7917	319.336	89.7204	319.336	89.7522	319.336	89.5484	319.336	89.5954	319.336	89.2882	319.336	89.3179	319.336	88.9527	319.336	88.9192	319.336	88.5525	319.336	88.4016	319.336	88.0938	319.336	87.772	319.336	87.5803	319.336	87.0473	319.336	87.0183	319.336	86.2641	319.336	86.4273	319.336	85.4954	319.336	85.8513	319.336	84.8635	319.336	85.3648	319.336	84.518	319.336	85.0599	319.336	84.5514	319.336	85.0054	319.336	84.9142	319.336	85.1995	319.336	85.4428	319.336	85.562	319.336	85.9625	319.336	85.9743	319.336	86.3516	319.336	86.3252	319.336	86.5474	319.336	86.5327
329.59	89.5854	329.59	89.5238	329.59	89.5173	329.59	89.3427	329.59	89.3147	329.59	89.0571	329.59	88.978	329.59	88.6857	329.59	88.5138	329.59	88.2483	329.59	87.9358	329.59	87.7619	329.59	87.2683	329.59	87.2389	329.59	86.5511	329.59	86.6889	329.59	85.8467	329.59	86.1288	329.59	85.2422	329.59	85.5969	329.59	84.8359	329.59	85.1627	329.59	84.701	329.59	84.9137	329.59	84.8425	329.59	84.9116	329.59	85.1888	329.59	85.1446	329.59	85.627	329.59	85.5265	329.59	86.0459	329.59	85.9407	329.59	86.3602	329.59	86.2849	329.59	86.5158	329.59	86.4888
341.309	89.6377	341.309	89.5774	341.309	89.5813	341.309	89.4102	341.309	89.4012	341.309	89.1476	341.309	89.0936	341.309	88.8015	341.309	88.6581	341.309	88.3844	341.309	88.096	341.309	87.9084	341.309	87.4101	341.309	87.3857	341.309	86.6077	341.309	86.8271	341.309	85.7114	341.309	86.2438	341.309	84.7818	341.309	85.6547	341.309	83.9488	341.309	85.0998	341.309	83.4136	341.309	84.6527	341.309	83.3459	341.309	84.4087	341.309	83.7228	341.309	84.4319	341.309	84.3341	341.309	84.6936	341.309	84.9471	341.309	85.0751	341.309	85.4088	341.309	85.431	341.309	85.6467	341.309	85.6451
353.027	89.6741	353.027	89.5899	353.027	89.615	353.027	89.3755	353.027	89.4041	353.027	89.0455	353.027	89.0394	353.027	88.6129	353.027	88.5258	353.027	88.0875	353.027	87.8758	353.027	87.4783	353.027	87.1101	353.027	86.8002	353.027	86.2606	353.027	86.083	353.027	85.3769	353.027	85.3793	353.027	84.5413	353.027	84.7652	353.027	83.8839	353.027	84.3298	353.027	83.5651	353.027	84.1514	353.027	83.6846	353.027	84.2631	353.027	84.1811	353.027	84.6266	353.027	84.8618	353.027	85.1379	353.027	85.5244	353.027	85.665	353.027	86.029	353.027	86.087	353.027	86.3011	353.027	86.3158
366.211	89.8876	366.211	89.7939	366.211	89.8556	366.211	89.5859	366.211	89.6927	366.211	89.2822	366.211	89.3975	366.211	88.905	366.211	88.9702	366.211	88.472	366.211	88.4106	366.211	87.9888	366.211	87.7201	366.211	87.4476	366.211	86.9053	366.211	86.8341	366.211	85.9868	366.211	86.1423	366.211	85.0141	366.211	85.39	366.211	84.0862	366.211	84.6303	366.211	83.3603	366.211	83.954	366.211	82.9981	366.211	83.4728	366.211	83.0436	366.211	83.2739	366.211	83.3696	366.211	83.362	366.211	83.7749	366.211	83.6414	366.211	84.0974	366.211	83.9632	366.211	84.2462	366.211	84.1927
379.395	89.4236	379.395	89.3295	379.395	89.3933	379.395	89.1194	379.395	89.2348	379.395	88.8061	379.395	88.9491	379.395	88.4047	379.395	88.5411	379.395	87.9297	379.395	88.017	379.395	87.3909	379.395	87.3816	379.395	86.7897	379.395	86.6383	379.395	86.1219	379.395	85.7974	379.395	85.3884	379.395	84.8981	379.395	84.6145	379.395	84.0486	379.395	83.8769	379.395	83.4522	379.395	83.3233	379.395	83.3274	379.395	83.1337	379.395	83.7032	379.395	83.389	379.395	84.3609	379.395	83.975	379.395	85.0241	379.395	84.6648	379.395	85.5058	379.395	85.2574	379.395	85.7163	379.395	85.6282
392.578	89.2304	392.578	89.0885	392.578	89.2369	392.578	88.8227	392.578	89.1032	392.578	88.45	392.578	88.8306	392.578	87.9923	392.578	88.426	392.578	87.475	392.578	87.9016	392.578	86.9238	392.578	87.2742	392.578	86.3587	392.578	86.5655	392.578	85.7897	392.578	85.8027	392.578	85.2171	392.578	85.0212	392.578	84.6415	392.578	84.275	392.578	84.0777	392.578	83.6564	392.578	83.5679	392.578	83.2962	392.578	83.1864	392.578	83.2925	392.578	83.0256	392.578	83.5984	392.578	83.144	392.578	84.0229	392.578	83.4998	392.578	84.3561	392.578	83.9474	392.578	84.465	392.578	84.3119
405.762	89.3395	405.762	89.1598	405.762	89.3721	405.762	88.8446	405.762	89.2554	405.762	88.4149	405.762	88.9934	405.762	87.8988	405.762	88.5924	405.762	87.3243	405.762	88.0565	405.762	86.71	405.762	87.3851	405.762	86.0601	405.762	86.5731	405.762	85.3682	405.762	85.6233	405.762	84.6338	405.762	84.5805	405.762	83.8878	405.762	83.5977	405.762	83.219	405.762	82.9763	405.762	82.7788	405.762	82.9931	405.762	82.7196	405.762	83.5719	405.762	83.0746	405.762	84.3535	405.762	83.7116	405.762	85.0337	405.762	84.4258	405.762	85.4672	405.762	85.0448	405.762	85.6088	405.762	85.459
420.41	88.9209	420.41	88.7565	420.41	88.9389	420.41	88.4582	420.41	88.8051	420.41	88.0423	420.41	88.5225	420.41	87.5242	420.41	88.1007	420.41	86.9171	420.41	87.5545	420.41	86.2334	420.41	86.9021	420.41	85.4902	420.41	86.1628	420.41	84.7128	420.41	85.3527	420.41	83.937	420.41	84.485	420.41	83.209	420.41	83.5926	420.41	82.583	420.41	82.7841	420.41	82.1178	420.41	82.2834	420.41	81.8733	420.41	82.2982	420.41	81.901	420.41	82.7576	420.41	82.2109	420.41	83.3449	420.41	82.7263	420.41	83.7745	420.41	83.2891	420.41	83.9083	420.41	83.726
435.059	88.6932	435.059	88.4694	435.059	88.7616	435.059	88.1027	435.059	88.6715	435.059	87.6169	435.059	88.4261	435.059	87.0461	435.059	88.0327	435.059	86.4294	435.059	87.5015	435.059	85.7996	435.059	86.8452	435.059	85.1701	435.059	86.0802	435.059	84.5315	435.059	85.2281	435.059	83.8638	435.059	84.3248	435.059	83.1656	435.059	83.4457	435.059	82.4925	435.059	82.7432	435.059	81.9824	435.059	82.4371	435.059	81.8186	435.059	82.655	435.059	82.0959	435.059	83.2563	435.059	82.7153	435.059	83.9362	435.059	83.4555	435.059	84.4447	435.059	84.1083	435.059	84.6551	435.059	84.5341
451.172	88.4256	451.172	88.2716	451.172	88.4218	451.172	87.9701	451.172	88.2689	451.172	87.5473	451.172	87.9896	451.172	87.0344	451.172	87.6087	451.172	86.4525	451.172	87.1407	451.172	85.8005	451.172	86.5821	451.172	85.0543	451.172	85.9147	451.172	84.1793	451.172	85.1169	451.172	83.1518	451.172	84.1829	451.172	81.9902	451.172	83.1557	451.172	80.8101	451.172	82.1893	451.172	79.8914	451.172	81.593	451.172	79.6103	451.172	81.6541	451.172	80.0906	451.172	82.2726	451.172	81.0412	451.172	83.0328	451.172	82.0807	451.172	83.5859	451.172	82.9624	451.172	83.7703	451.172	83.5513
465.82	88.3791	465.82	88.2388	465.82	88.3413	465.82	87.944	465.82	88.1233	465.82	87.5336	465.82	87.7461	465.82	87.0512	465.82	87.2477	465.82	86.5347	465.82	86.6689	465.82	86.0055	465.82	86.035	465.82	85.4614	465.82	85.3458	465.82	84.8741	465.82	84.5802	465.82	84.1949	465.82	83.7206	465.82	83.3694	465.82	82.7913	465.82	82.3663	465.82	81.9108	465.82	81.2363	465.82	81.3189	465.82	80.2155	465.82	81.2479	465.82	79.749	465.82	81.657	465.82	80.1056	465.82	82.2358	465.82	80.9836	465.82	82.6739	465.82	81.8895	465.82	82.7942	465.82	82.5294
483.398	89.039	483.398	88.8386	483.398	89.0309	483.398	88.4518	483.398	88.8167	483.398	87.9235	483.398	88.4207	483.398	87.3151	483.398	87.8824	483.398	86.6914	483.398	87.2479	483.398	86.1006	483.398	86.5585	483.398	85.5545	483.398	85.8395	483.398	85.023	483.398	85.0942	483.398	84.4539	483.398	84.3117	483.398	83.811	483.398	83.5032	483.398	83.1099	483.398	82.7699	483.398	82.4366	483.398	82.3544	483.398	81.9415	483.398	82.5038	483.398	81.804	483.398	83.1539	483.398	82.1385	483.398	83.9357	483.398	82.8638	483.398	84.4989	483.398	83.7064	483.398	84.6579	483.398	84.3693
499.512	89.4249	499.512	89.1993	499.512	89.4391	499.512	88.7796	499.512	89.2526	499.512	88.2128	499.512	88.8943	499.512	87.5662	499.512	88.3982	499.512	86.9063	499.512	87.7905	499.512	86.2772	499.512	87.0827	499.512	85.6953	499.512	86.2746	499.512	85.1536	499.512	85.3647	499.512	84.6198	499.512	84.3699	499.512	84.0335	499.512	83.3675	499.512	83.3318	499.512	82.5683	499.512	82.5239	499.512	82.3112	499.512	81.8032	499.512	82.7577	499.512	81.5617	499.512	83.6196	499.512	82.0422	499.512	84.4512	499.512	82.9952	499.512	84.9689	499.512	83.9821	499.512	85.0613	499.512	84.7155
517.09	89.8596	517.09	89.7024	517.09	89.7709	517.09	89.2868	517.09	89.4715	517.09	88.6332	517.09	89.0143	517.09	87.8088	517.09	88.4646	517.09	86.932	517.09	87.8856	517.09	86.1421	517.09	87.312	517.09	85.5288	517.09	86.7253	517.09	85.0768	517.09	86.0523	517.09	84.6827	517.09	85.1915	517.09	84.2172	517.09	84.0689	517.09	83.5742	517.09	82.7585	517.09	82.722	517.09	81.724	517.09	81.8147	517.09	81.7508	517.09	81.3389	517.09	82.8435	517.09	81.8218	517.09	84.149	517.09	83.0406	517.09	85.0767	517.09	84.3001	517.09	85.4243	517.09	85.1516
536.133	90.0459	536.133	89.7919	536.133	89.9924	536.133	89.268	536.133	89.624	536.133	88.5364	536.133	88.9706	536.133	87.6762	536.133	88.108	536.133	86.7643	536.133	87.1605	536.133	85.8474	536.133	86.2715	536.133	84.9184	536.133	85.5329	536.133	83.9288	536.133	84.9261	536.133	82.8558	536.133	84.3526	536.133	81.8027	536.133	83.7294	536.133	81.0416	536.133	83.09	536.133	80.8061	536.133	82.6586	536.133	81.0096	536.133	82.752	536.133	81.4364	536.133	83.3949	536.133	82.0586	536.133	84.2103	536.133	82.9168	536.133	84.7976	536.133	83.8599	536.133	84.946	536.133	84.6068
555.176	90.1873	555.176	90	555.176	90.1373	555.176	89.5969	555.176	89.8469	555.176	89.0121	555.176	89.3307	555.176	88.2821	555.176	88.615	555.176	87.441	555.176	87.7363	555.176	86.5317	555.176	86.7473	555.176	85.621	555.176	85.727	555.176	84.7805	555.176	84.7629	555.176	84.0214	555.176	83.8887	555.176	83.2644	555.176	83.0443	555.176	82.4053	555.176	82.1779	555.176	81.4171	555.176	81.4838	555.176	80.4259	555.176	81.4588	555.176	79.7678	555.176	82.2427	555.176	79.8973	555.176	83.2502	555.176	80.8923	555.176	83.8997	555.176	82.234	555.176	83.9455	555.176	83.3541
574.219	90.4764	574.219	90.2731	574.219	90.3773	574.219	89.7772	574.219	89.9844	574.219	89.0209	574.219	89.3262	574.219	88.068	574.219	88.4564	574.219	87.0173	574.219	87.4553	574.219	85.9884	574.219	86.4205	574.219	85.0864	574.219	85.4384	574.219	84.3607	574.219	84.5479	574.219	83.776	574.219	83.7172	574.219	83.2057	574.219	82.8571	574.219	82.4668	574.219	81.9029	574.219	81.4166	574.219	81.0378	574.219	80.1664	574.219	80.9138	574.219	79.449	574.219	81.9313	574.219	80.1838	574.219	83.3804	574.219	81.8761	574.219	84.4614	574.219	83.4786	574.219	84.8601	574.219	84.52
594.727	89.8309	594.727	89.5922	594.727	89.8123	594.727	89.1326	594.727	89.5331	594.727	88.5169	594.727	89.0149	594.727	87.8203	594.727	88.2902	594.727	87.1086	594.727	87.3947	594.727	86.4243	594.727	86.374	594.727	85.7785	594.727	85.2977	594.727	85.1437	594.727	84.2551	594.727	84.46	594.727	83.3041	594.727	83.6617	594.727	82.4051	594.727	82.7155	594.727	81.4662	594.727	81.6488	594.727	80.5911	594.727	80.5537	594.727	80.3243	594.727	79.5906	594.727	81.0245	594.727	79.0693	594.727	82.0544	594.727	79.3947	594.727	82.6556	594.727	80.4969	594.727	82.5395	594.727	81.7325
615.234	89.861	615.234	89.6059	615.234	89.7847	615.234	89.0462	615.234	89.3878	615.234	88.2485	615.234	88.7203	615.234	87.3256	615.234	87.8697	615.234	86.4312	615.234	86.9432	615.234	85.7109	615.234	86.0292	615.234	85.221	615.234	85.1579	615.234	84.8952	615.234	84.2988	615.234	84.5959	615.234	83.3926	615.234	84.1777	615.234	82.3962	615.234	83.5188	615.234	81.3701	615.234	82.5611	615.234	80.6506	615.234	81.4324	615.234	80.8036	615.234	80.6502	615.234	81.8487	615.234	80.8802	615.234	83.0946	615.234	81.9695	615.234	83.981	615.234	83.1713	615.234	84.296	615.234	84.0075
637.207	90.9154	637.207	90.562	637.207	90.8992	637.207	89.8433	637.207	90.5297	637.207	88.8019	637.207	89.8349	637.207	87.538	637.207	88.8575	637.207	86.2255	637.207	87.673	637.207	85.0898	637.207	86.4076	637.207	84.3057	637.207	85.2167	637.207	83.8811	637.207	84.193	637.207	83.6831	637.207	83.2759	637.207	83.549	637.207	82.2759	637.207	83.3136	637.207	80.9978	637.207	82.776	637.207	79.5276	637.207	81.7194	637.207	78.9641	637.207	80.1033	637.207	80.4951	637.207	78.7795	637.207	82.667	637.207	79.6198	637.207	84.0841	637.207	81.8543	637.207	84.4126	637.207	83.6371
659.18	89.9896	659.18	89.7781	659.18	89.9046	659.18	89.2816	659.18	89.5351	659.18	88.536	659.18	88.9088	659.18	87.5945	659.18	88.0641	659.18	86.5164	659.18	87.0569	659.18	85.3603	659.18	85.9742	659.18	84.1915	659.18	84.924	659.18	83.1032	659.18	83.9712	659.18	82.2193	659.18	83.0601	659.18	81.6341	659.18	82.017	659.18	81.3403	659.18	80.6583	659.18	81.2419	659.18	79.0672	659.18	81.1947	659.18	78.1643	659.18	81.0486	659.18	79.0077	659.18	80.8064	659.18	80.6197	659.18	80.7738	659.18	81.7921	659.18	81.2333	659.18	82.1929	659.18	81.8932
682.617	91.2841	682.617	91.1148	682.617	91.0277	682.617	90.5297	682.617	90.3627	682.617	89.567	682.617	89.3494	682.617	88.3136	682.617	88.1103	682.617	86.9351	682.617	86.8288	682.617	85.6739	682.617	85.7029	682.617	84.7337	682.617	84.8628	682.617	84.1027	682.617	84.3004	682.617	83.5809	682.617	83.8498	682.617	82.9952	682.617	83.2414	682.617	82.3197	682.617	82.2137	682.617	81.6587	682.617	80.7538	682.617	81.222	682.617	79.7888	682.617	81.2846	682.617	80.786	682.617	81.9297	682.617	82.7167	682.617	82.8962	682.617	84.1188	682.617	83.8482	682.617	84.6827	682.617	84.5221
707.52	92.4318	707.52	92.2189	707.52	92.2967	707.52	91.6722	707.52	91.7986	707.52	90.7906	707.52	90.9306	707.52	89.5681	707.52	89.6936	707.52	88.0558	707.52	88.1159	707.52	86.4747	707.52	86.3244	707.52	85.2492	707.52	84.6382	707.52	84.6622	707.52	83.4693	707.52	84.4656	707.52	82.8843	707.52	84.1734	707.52	82.4667	707.52	83.4284	707.52	81.6861	707.52	82.0203	707.52	80.1979	707.52	79.8999	707.52	78.7342	707.52	77.8797	707.52	79.9836	707.52	78.6198	707.52	82.7841	707.52	81.4574	707.52	84.7503	707.52	83.8545	707.52	85.5377	707.52	85.2266
732.422	92.0381	732.422	91.7232	732.422	91.9779	732.422	91.0452	732.422	91.5453	732.422	90.0405	732.422	90.7458	732.422	88.7586	732.422	89.587	732.422	87.2387	732.422	88.0978	732.422	85.5401	732.422	86.3783	732.422	83.8991	732.422	84.671	732.422	82.8601	732.422	83.3415	732.422	82.7875	732.422	82.6314	732.422	83.2449	732.422	82.3965	732.422	83.5706	732.422	82.1296	732.422	83.3776	732.422	81.1556	732.422	82.4297	732.422	78.965	732.422	80.5447	732.422	77.0274	732.422	78.2461	732.422	79.226	732.422	78.3647	732.422	81.9162	732.422	80.7646	732.422	82.9997	732.422	82.5499
757.324	92.7723	757.324	92.5772	757.324	92.6034	757.324	91.9911	757.324	92.1014	757.324	91.0009	757.324	91.2867	757.324	89.6116	757.324	90.1568	757.324	87.8477	757.324	88.6934	757.324	85.7812	757.324	86.9014	757.324	83.6512	757.324	84.8783	757.324	82.0861	757.324	82.9514	757.324	81.8171	757.324	81.8074	757.324	82.5196	757.324	81.8221	757.324	83.1506	757.324	82.1815	757.324	83.016	757.324	81.8939	757.324	81.8775	757.324	80.7516	757.324	80.0811	757.324	80.1478	757.324	79.2564	757.324	81.7148	757.324	80.6893	757.324	83.6102	757.324	82.7298	757.324	84.4526	757.324	84.1078
785.156	92.382	785.156	92.0889	785.156	92.2891	785.156	91.4155	785.156	91.8331	785.156	90.36	785.156	91.076	785.156	88.9088	785.156	90.0736	785.156	87.0689	785.156	88.8242	785.156	84.8881	785.156	87.2844	785.156	82.4565	785.156	85.4719	785.156	79.9337	785.156	83.5744	785.156	77.7073	785.156	81.8311	785.156	76.8404	785.156	80.1704	785.156	78.0081	785.156	78.5017	785.156	79.4725	785.156	77.5769	785.156	79.6969	785.156	77.737	785.156	78.2739	785.156	78.4448	785.156	76.2141	785.156	80.1843	785.156	77.5196	785.156	82.2344	785.156	80.7414	785.156	83.2541	785.156	82.7815
811.523	92.0476	811.523	91.7026	811.523	91.9143	811.523	90.8864	811.523	91.3912	811.523	89.6899	811.523	90.6033	811.523	88.2248	811.523	89.6241	811.523	86.5878	811.523	88.4393	811.523	84.8905	811.523	87.0192	811.523	83.2793	811.523	85.4333	811.523	81.86	811.523	83.871	811.523	80.557	811.523	82.5043	811.523	79.2721	811.523	81.3544	811.523	78.5948	811.523	80.2977	811.523	79.2143	811.523	79.0426	811.523	79.9201	811.523	77.3752	811.523	79.3629	811.523	76.7134	811.523	77.133	811.523	78.7857	811.523	75.2123	811.523	80.9353	811.523	77.7757	811.523	81.6074	811.523	80.5612
840.82	92.0691	840.82	91.5291	840.82	92.1177	840.82	90.477	840.82	91.705	840.82	88.9501	840.82	90.8777	840.82	87.118	840.82	89.7211	840.82	85.2956	840.82	88.3237	840.82	83.7394	840.82	86.735	840.82	82.3391	840.82	85.0445	840.82	80.7437	840.82	83.4884	840.82	78.9196	840.82	82.2573	840.82	77.7891	840.82	81.2731	840.82	78.2977	840.82	80.4382	840.82	79.2802	840.82	79.5068	840.82	79.4448	840.82	78.1626	840.82	78.2798	840.82	77.72	840.82	75.5488	840.82	79.4921	840.82	73.1996	840.82	81.1975	840.82	76.392	840.82	81.4593	840.82	79.8996
870.117	91.3806	870.117	90.7175	870.117	91.4878	870.117	89.5883	870.117	91.0722	870.117	88.129	870.117	90.2749	870.117	86.4324	870.117	89.2473	870.117	84.5731	870.117	88.0327	870.117	82.7114	870.117	86.5705	870.117	81.0919	870.117	84.8673	870.117	79.8741	870.117	83.1506	870.117	78.8257	870.117	81.8292	870.117	77.2639	870.117	81.0833	870.117	75.0829	870.117	80.3679	870.117	74.9633	870.117	78.8	870.117	76.8397	870.117	76.1254	870.117	77.6154	870.117	75.0464	870.117	76.8628	870.117	77.8973	870.117	75.6199	870.117	80.347	870.117	76.8687	870.117	80.9247	870.117	79.5723
900.879	90.7035	900.879	89.9402	900.879	90.9459	900.879	88.7074	900.879	90.6518	900.879	87.1127	900.879	89.8562	900.879	85.3878	900.879	88.6314	900.879	83.8422	900.879	87.0693	900.879	82.6128	900.879	85.2963	900.879	81.6027	900.879	83.5012	900.879	80.8735	900.879	82.0385	900.879	80.5988	900.879	81.3981	900.879	80.1973	900.879	81.3922	900.879	78.6063	900.879	81.1019	900.879	75.679	900.879	79.8794	900.879	74.5975	900.879	77.2783	900.879	75.7768	900.879	73.8439	900.879	75.5257	900.879	75.6959	900.879	73.4102	900.879	78.8138	900.879	73.5953	900.879	79.3711	900.879	77.3505
933.105	89.7045	933.105	88.7879	933.105	90.0073	933.105	87.4518	933.105	89.6559	933.105	86.0488	933.105	88.7242	933.105	84.8719	933.105	87.4283	933.105	83.815	933.105	86.0814	933.105	82.4523	933.105	84.7566	933.105	80.4295	933.105	83.1562	933.105	77.6905	933.105	81.0757	933.105	75.3261	933.105	79.0725	933.105	75.6774	933.105	78.3382	933.105	76.7268	933.105	78.5236	933.105	76.2747	933.105	78.2394	933.105	75.0856	933.105	76.7181	933.105	75.502	933.105	74.6848	933.105	76.1209	933.105	75.9445	933.105	75.4135	933.105	78.2923	933.105	75.4871	933.105	78.8371	933.105	77.5386
965.332	88.6297	965.332	87.7736	965.332	89.0032	965.332	86.6061	965.332	88.8162	965.332	85.3475	965.332	88.0442	965.332	84.1238	965.332	86.7205	965.332	82.9402	965.332	85.0358	965.332	81.8647	965.332	83.3762	965.332	80.968	965.332	81.9534	965.332	79.9158	965.332	80.4941	965.332	78.0854	965.332	78.941	965.332	75.4975	965.332	78.0278	965.332	74.1706	965.332	77.8738	965.332	74.2124	965.332	77.3273	965.332	73.6575	965.332	75.359	965.332	73.6826	965.332	71.5346	965.332	74.1986	965.332	71.2326	965.332	73.3951	965.332	75.1682	965.332	72.6651	965.332	76.5597	965.332	75.0822
1000.49	87.8647	1000.49	86.9895	1000.49	88.2969	1000.49	85.7665	1000.49	88.2262	1000.49	84.4217	1000.49	87.5888	1000.49	83.2954	1000.49	86.3768	1000.49	82.5572	1000.49	84.7219	1000.49	81.9775	1000.49	82.8901	1000.49	81.33	1000.49	81.1402	1000.49	80.797	1000.49	79.4746	1000.49	80.3316	1000.49	77.5898	1000.49	78.9849	1000.49	75.848	1000.49	75.6724	1000.49	75.7658	1000.49	72.0337	1000.49	76.2192	1000.49	73.02	1000.49	75.4189	1000.49	73.823	1000.49	73.4931	1000.49	73.2139	1000.49	74.0429	1000.49	71.8497	1000.49	76.809	1000.49	72.1956	1000.49	77.4859	1000.49	75.5096
1035.64	87.8459	1035.64	86.7692	1035.64	88.2729	1035.64	85.2975	1035.64	88	1035.64	83.8569	1035.64	87.1045	1035.64	82.7675	1035.64	85.7275	1035.64	81.9991	1035.64	84.0249	1035.64	81.3295	1035.64	82.1234	1035.64	80.6529	1035.64	80.2041	1035.64	80.2126	1035.64	78.6215	1035.64	80.5024	1035.64	77.5751	1035.64	80.9777	1035.64	77.0912	1035.64	80.1062	1035.64	77.3633	1035.64	76.8675	1035.64	77.6191	1035.64	71.6112	1035.64	76.6163	1035.64	70.6891	1035.64	73.4286	1035.64	72.826	1035.64	71.3797	1035.64	73.5299	1035.64	74.91	1035.64	73.338	1035.64	75.8366	1035.64	74.3133
1072.27	87.4612	1072.27	86.1878	1072.27	87.9399	1072.27	84.4894	1072.27	87.6318	1072.27	83.1201	1072.27	86.7071	1072.27	82.4214	1072.27	85.4138	1072.27	81.8908	1072.27	84.0345	1072.27	80.9997	1072.27	82.6778	1072.27	79.7118	1072.27	81.1189	1072.27	78.2787	1072.27	79.135	1072.27	76.9252	1072.27	77.0811	1072.27	76.8673	1072.27	75.4843	1072.27	78.0525	1072.27	74.6694	1072.27	78.0087	1072.27	75.281	1072.27	76.2334	1072.27	75.7498	1072.27	74.8997	1072.27	74.335	1072.27	74.7123	1072.27	72.4519	1072.27	72.8843	1072.27	74.4677	1072.27	71.0915	1072.27	75.7287	1072.27	74.0939
1108.89	87.9416	1108.89	86.351	1108.89	88.7689	1108.89	84.6804	1108.89	88.6684	1108.89	83.7699	1108.89	87.7541	1108.89	83.4744	1108.89	86.2289	1108.89	82.9636	1108.89	84.2585	1108.89	81.8123	1108.89	81.9312	1108.89	80.1399	1108.89	79.5334	1108.89	78.2627	1108.89	77.6734	1108.89	76.4636	1108.89	76.2718	1108.89	75.1657	1108.89	75.4477	1108.89	75.3199	1108.89	76.1414	1108.89	76.2123	1108.89	76.7158	1108.89	76.0276	1108.89	75.621	1108.89	74.4712	1108.89	72.545	1108.89	72.9224	1108.89	71.6121	1108.89	73.5073	1108.89	75.556	1108.89	75.827	1108.89	77.819	1108.89	77.7175
1148.44	87.9837	1148.44	86.4057	1148.44	89.2741	1148.44	85.6877	1148.44	89.6631	1148.44	85.8118	1148.44	89.0195	1148.44	85.7303	1148.44	87.4719	1148.44	85.1514	1148.44	85.5481	1148.44	84.2077	1148.44	83.9383	1148.44	82.8889	1148.44	82.5236	1148.44	81.3891	1148.44	80.5994	1148.44	80.4075	1148.44	77.718	1148.44	79.875	1148.44	73.9835	1148.44	78.9547	1148.44	74.9441	1148.44	77.4363	1148.44	77.9074	1148.44	75.2156	1148.44	77.9124	1148.44	74.0828	1148.44	75.3415	1148.44	75.2904	1148.44	74.2062	1148.44	74.3034	1148.44	77.3389	1148.44	71.508	1148.44	78.4911	1148.44	76.0596
1189.45	88.9426	1189.45	88.1288	1189.45	89.8467	1189.45	88.0327	1189.45	90.2021	1189.45	88.2097	1189.45	89.7503	1189.45	88.0263	1189.45	88.5133	1189.45	87.4547	1189.45	86.7747	1189.45	86.5983	1189.45	84.9803	1189.45	85.345	1189.45	83.4994	1189.45	83.4879	1189.45	82.1813	1189.45	81.6638	1189.45	80.4132	1189.45	81.2045	1189.45	77.3723	1189.45	80.8382	1189.45	74.0362	1189.45	79.5652	1189.45	76.8049	1189.45	78.3119	1189.45	79.1804	1189.45	77.9273	1189.45	77.8694	1189.45	77.8431	1189.45	74.4365	1189.45	76.622	1189.45	77.7919	1189.45	75.2555	1189.45	79.6865	1189.45	78.0227
1230.47	87.8329	1230.47	88.2814	1230.47	88.53	1230.47	89.2424	1230.47	89.3534	1230.47	89.5676	1230.47	89.4192	1230.47	89.0061	1230.47	88.5454	1230.47	88.0331	1230.47	86.9552	1230.47	87.1844	1230.47	85.1037	1230.47	86.308	1230.47	83.5489	1230.47	84.7823	1230.47	82.2345	1230.47	82.2335	1230.47	80.3438	1230.47	79.9757	1230.47	77.2887	1230.47	79.4224	1230.47	74.4291	1230.47	78.2827	1230.47	76.0986	1230.47	76.6557	1230.47	78.4679	1230.47	76.8376	1230.47	77.832	1230.47	78.6417	1230.47	73.2339	1230.47	78.7361	1230.47	75.9175	1230.47	75.5136	1230.47	77.7719	1230.47	75.1173
1274.41	88.2041	1274.41	88.7882	1274.41	88.4682	1274.41	89.6086	1274.41	88.8784	1274.41	89.7798	1274.41	88.6604	1274.41	89.0876	1274.41	87.6926	1274.41	87.7754	1274.41	86.3019	1274.41	86.39	1274.41	84.773	1274.41	85.3503	1274.41	82.9872	1274.41	84.1522	1274.41	81.0979	1274.41	82.0601	1274.41	79.9228	1274.41	80.4722	1274.41	78.2078	1274.41	80.8108	1274.41	74.6685	1274.41	79.7365	1274.41	76.2497	1274.41	76.6323	1274.41	77.9698	1274.41	75.6261	1274.41	76.9355	1274.41	76.9454	1274.41	74.8574	1274.41	76.4709	1274.41	76.3437	1274.41	75.0272	1274.41	78.0844	1274.41	76.7775
1319.82	88.9032	1319.82	89.6934	1319.82	88.3312	1319.82	90.1604	1319.82	88.2258	1319.82	90.0486	1319.82	88.0216	1319.82	89.2271	1319.82	87.2527	1319.82	87.7696	1319.82	85.8184	1319.82	86.1409	1319.82	84.1198	1319.82	84.6129	1319.82	83.0429	1319.82	83.278	1319.82	81.9487	1319.82	82.1139	1319.82	80.4423	1319.82	79.3072	1319.82	79.1383	1319.82	76.676	1319.82	74.9753	1319.82	78.9383	1319.82	73.4586	1319.82	78.733	1319.82	78.1859	1319.82	75.4348	1319.82	78.1372	1319.82	77.8428	1319.82	75.0291	1319.82	78.4916	1319.82	74.3403	1319.82	74.3461	1319.82	76.9848	1319.82	74.5682
1366.7	89.1072	1366.7	89.9581	1366.7	88.4238	1366.7	90.6029	1366.7	87.9419	1366.7	90.3908	1366.7	87.6193	1366.7	89.1544	1366.7	87.1159	1366.7	87.329	1366.7	86.0445	1366.7	85.5768	1366.7	84.4138	1366.7	84.4113	1366.7	82.9116	1366.7	83.3276	1366.7	81.7826	1366.7	82.078	1366.7	80.2327	1366.7	81.0684	1366.7	78.2316	1366.7	78.7626	1366.7	75.3669	1366.7	77.0481	1366.7	72.382	1366.7	77.7076	1366.7	76.4165	1366.7	76.6782	1366.7	78.113	1366.7	77.1078	1366.7	75.0193	1366.7	77.9342	1366.7	75.6599	1366.7	74.9123	1366.7	77.8161	1366.7	75.0275
1413.57	89.0572	1413.57	90.0522	1413.57	88.6537	1413.57	90.8598	1413.57	88.5049	1413.57	90.7568	1413.57	87.9689	1413.57	89.68	1413.57	87.0268	1413.57	87.7444	1413.57	85.9769	1413.57	84.7918	1413.57	84.6842	1413.57	81.4866	1413.57	83.1654	1413.57	79.0875	1413.57	82.397	1413.57	74.7619	1413.57	82.0142	1413.57	73.3795	1413.57	80.0462	1413.57	78.1032	1413.57	75.7082	1413.57	78.547	1413.57	74.2366	1413.57	76.8889	1413.57	77.9237	1413.57	74.7453	1413.57	78.471	1413.57	76.2762	1413.57	76.0193	1413.57	78.4953	1413.57	75.8585	1413.57	76.662	1413.57	76.6452	1413.57	74.4954
1463.38	88.4995	1463.38	90.3872	1463.38	87.2382	1463.38	91.4122	1463.38	87.2413	1463.38	91.0768	1463.38	87.2956	1463.38	89.5424	1463.38	86.7685	1463.38	87.1875	1463.38	85.8125	1463.38	84.3875	1463.38	84.3602	1463.38	80.61	1463.38	82.6861	1463.38	75.431	1463.38	81.7033	1463.38	73.2042	1463.38	81.7955	1463.38	69.7846	1463.38	82.6789	1463.38	67.9138	1463.38	81.424	1463.38	77.0446	1463.38	74.8978	1463.38	79.0109	1463.38	75.4582	1463.38	76.041	1463.38	78.4066	1463.38	73.0197	1463.38	75.7429	1463.38	76.8331	1463.38	74.1988	1463.38	74.0401	1463.38	75.8186	1463.38	68.8199
1516.11	88.7144	1516.11	91.2956	1516.11	85.7399	1516.11	92.3392	1516.11	85.0715	1516.11	91.6622	1516.11	86.0693	1516.11	89.4726	1516.11	86.4563	1516.11	86.1659	1516.11	86.303	1516.11	82.5048	1516.11	85.7361	1516.11	79.7726	1516.11	84.5276	1516.11	77.2423	1516.11	82.5429	1516.11	71.8785	1516.11	81.0122	1516.11	68.5825	1516.11	82.03	1516.11	65.4074	1516.11	81.8662	1516.11	69.8835	1516.11	79.7721	1516.11	75.8479	1516.11	79.2373	1516.11	76.1429	1516.11	79.3348	1516.11	69.2966	1516.11	78.0307	1516.11	74.8633	1516.11	75.353	1516.11	74.6023	1516.11	74.504	1516.11	69.2008
1568.85	92.2537	1568.85	92.9687	1568.85	89.8698	1568.85	92.2853	1568.85	86.0183	1568.85	90.1813	1568.85	83.7475	1568.85	86.2105	1568.85	84.6768	1568.85	80.3025	1568.85	84.9239	1568.85	72.1321	1568.85	84.1089	1568.85	65.4261	1568.85	83.5344	1568.85	70.6264	1568.85	83.3135	1568.85	74.4634	1568.85	81.4729	1568.85	73.0317	1568.85	79.9848	1568.85	73.8751	1568.85	81.4605	1568.85	75.1044	1568.85	80.8762	1568.85	64.1573	1568.85	80.9446	1568.85	71.627	1568.85	79.8597	1568.85	67.2163	1568.85	77.6171	1568.85	70.4245	1568.85	75.0685	1568.85	74.2378	1568.85	70.9376	1568.85	68.5123
1624.51	93.7763	1624.51	92.5426	1624.51	92.9922	1624.51	89.1647	1624.51	90.4589	1624.51	83.5306	1624.51	86.7108	1624.51	75.4916	1624.51	83.0669	1624.51	77.995	1624.51	80.5734	1624.51	80.5229	1624.51	79.0804	1624.51	81.0803	1624.51	79.3777	1624.51	80.3589	1624.51	79.5783	1624.51	79.4316	1624.51	78.4753	1624.51	78.4406	1624.51	78.7013	1624.51	76.1366	1624.51	78.4332	1624.51	76.8455	1624.51	74.7086	1624.51	74.3746	1624.51	77.1677	1624.51	56.6235	1624.51	76.6534	1624.51	65.2076	1624.51	71.2088	1624.51	70.3404	1624.51	72.9771	1624.51	74.2512	1624.51	65.1604	1624.51	71.0641
1681.64	92.171	1681.64	89.6005	1681.64	92.8302	1681.64	86.0066	1681.64	91.9071	1681.64	84.9753	1681.64	89.9088	1681.64	86.1981	1681.64	87.1771	1681.64	86.4905	1681.64	84.0597	1681.64	85.441	1681.64	80.6985	1681.64	83.7244	1681.64	77.0409	1681.64	83.029	1681.64	71.7569	1681.64	81.883	1681.64	69.7724	1681.64	79.8075	1681.64	64.5554	1681.64	76.6275	1681.64	71.5219	1681.64	75.3913	1681.64	72.4655	1681.64	76.1551	1681.64	70.7431	1681.64	70.2867	1681.64	71.3895	1681.64	68.6323	1681.64	67.1063	1681.64	71.0711	1681.64	64.2337	1681.64	72.9436	1681.64	67.7993	1681.64	72.2938
1741.7	90.9295	1741.7	90.2145	1741.7	91.6889	1741.7	89.8158	1741.7	91.8073	1741.7	89.4594	1741.7	90.6813	1741.7	88.425	1741.7	88.7688	1741.7	87.2773	1741.7	86.5327	1741.7	86.2049	1741.7	83.2995	1741.7	84.1293	1741.7	79.767	1741.7	80.3401	1741.7	78.8272	1741.7	78.5302	1741.7	74.9181	1741.7	77.7645	1741.7	67.7295	1741.7	74.8032	1741.7	71.711	1741.7	75.3588	1741.7	67.981	1741.7	77.0984	1741.7	69.0997	1741.7	72.8329	1741.7	72.5346	1741.7	65.5741	1741.7	68.3508	1741.7	67.842	1741.7	65.5251	1741.7	72.9804	1741.7	71.3275	1741.7	72.9341
1803.22	90.9165	1803.22	91.0258	1803.22	90.8916	1803.22	91.2484	1803.22	90.9233	1803.22	90.6307	1803.22	90.7853	1803.22	89.2584	1803.22	89.8123	1803.22	87.9093	1803.22	87.8658	1803.22	85.8156	1803.22	85.1376	1803.22	82.7728	1803.22	81.8699	1803.22	80.6253	1803.22	79.3913	1803.22	79.1147	1803.22	78.6142	1803.22	74.1605	1803.22	74.507	1803.22	68.5714	1803.22	63.7572	1803.22	75.0442	1803.22	74.3816	1803.22	76.5363	1803.22	75.1324	1803.22	76.8813	1803.22	75.7491	1803.22	74.994	1803.22	72.6629	1803.22	72.2321	1803.22	67.7774	1803.22	75.2966	1803.22	69.739	1803.22	72.9014
1866.21	91.2791	1866.21	91.2548	1866.21	91.2822	1866.21	91.5063	1866.21	90.9455	1866.21	90.9227	1866.21	90.2208	1866.21	89.1873	1866.21	89.1559	1866.21	87.7567	1866.21	87.6221	1866.21	85.9755	1866.21	85.2846	1866.21	82.9118	1866.21	81.4042	1866.21	80.4863	1866.21	78.9201	1866.21	78.7912	1866.21	78.0589	1866.21	77.9531	1866.21	74.2757	1866.21	77.664	1866.21	73.4095	1866.21	73.5384	1866.21	70.1042	1866.21	68.2096	1866.21	71.2547	1866.21	71.5894	1866.21	75.1388	1866.21	72.829	1866.21	74.1984	1866.21	71.4666	1866.21	70.7964	1866.21	75.7563	1866.21	70.5093	1866.21	73.0742
1932.13	91.0604	1932.13	91.4797	1932.13	90.8912	1932.13	90.7485	1932.13	90.7231	1932.13	89.4184	1932.13	90.1175	1932.13	88.6464	1932.13	89.407	1932.13	86.3871	1932.13	88.0551	1932.13	83.2872	1932.13	85.4792	1932.13	82.7579	1932.13	82.3983	1932.13	82.0025	1932.13	79.6851	1932.13	78.9916	1932.13	78.2488	1932.13	75.467	1932.13	75.2632	1932.13	77.7812	1932.13	67.2773	1932.13	77.2284	1932.13	73.5052	1932.13	71.1336	1932.13	74.8999	1932.13	71.7642	1932.13	72.7858	1932.13	74.72	1932.13	74.462	1932.13	72.0014	1932.13	66.1935	1932.13	74.4654	1932.13	68.3289	1932.13	72.399
1999.51	89.9669	1999.51	90.7144	1999.51	89.5785	1999.51	90.4212	1999.51	89.6	1999.51	89.0639	1999.51	89.565	1999.51	87.8612	1999.51	88.6487	1999.51	86.25	1999.51	86.3302	1999.51	83.8307	1999.51	84.0336	1999.51	81.1669	1999.51	80.8847	1999.51	77.7046	1999.51	75.6259	1999.51	77.1116	1999.51	76.278	1999.51	75.4285	1999.51	71.9026	1999.51	70.9036	1999.51	71.6371	1999.51	73.2804	1999.51	72.8582	1999.51	70.8254	1999.51	72.204	1999.51	66.6091	1999.51	70.8101	1999.51	72.5779	1999.51	73.0074	1999.51	72.0803	1999.51	67.8388	1999.51	75.3029	1999.51	69.2114	1999.51	74.4504
2069.82	88.9983	2069.82	89.6447	2069.82	88.2681	2069.82	89.5552	2069.82	87.7712	2069.82	88.385	2069.82	87.6314	2069.82	86.7276	2069.82	87.3062	2069.82	85.0231	2069.82	85.9033	2069.82	83.1393	2069.82	82.7697	2069.82	80.8704	2069.82	80.7697	2069.82	78.4332	2069.82	79.291	2069.82	73.8281	2069.82	73.2963	2069.82	72.8679	2069.82	73.9682	2069.82	68.6924	2069.82	72.3829	2069.82	68.7741	2069.82	69.9459	2069.82	73.0694	2069.82	73.6853	2069.82	71.0789	2069.82	72.7907	2069.82	69.9798	2069.82	74.5079	2069.82	71.8653	2069.82	68.4942	2069.82	70.815	2069.82	65.8311	2069.82	67.5333
2143.07	89.0278	2143.07	88.9657	2143.07	88.1488	2143.07	88.396	2143.07	87.4324	2143.07	88.0877	2143.07	86.6406	2143.07	86.1505	2143.07	86.2398	2143.07	83.3339	2143.07	85.0296	2143.07	81.4873	2143.07	82.0593	2143.07	79.11	2143.07	78.9521	2143.07	75.5253	2143.07	72.5346	2143.07	71.0816	2143.07	66.9696	2143.07	74.0992	2143.07	67.4808	2143.07	75.5164	2143.07	70.3856	2143.07	68.9934	2143.07	71.5834	2143.07	67.4522	2143.07	68.787	2143.07	70.1453	2143.07	69.606	2143.07	70.3155	2143.07	73.3695	2143.07	67.4522	2143.07	71.0251	2143.07	72.2777	2143.07	69.7916	2143.07	71.4709
2219.24	87.1802	2219.24	87.7539	2219.24	87.1877	2219.24	87.39	2219.24	86.8695	2219.24	86.2199	2219.24	86.3804	2219.24	85.665	2219.24	85.4006	2219.24	83.3046	2219.24	83.807	2219.24	79.9825	2219.24	81.6229	2219.24	78.8549	2219.24	77.8501	2219.24	76.9247	2219.24	74.332	2219.24	75.3061	2219.24	72.1191	2219.24	71.91	2219.24	67.5748	2219.24	67.3364	2219.24	65.0284	2219.24	65.5602	2219.24	67.1179	2219.24	67.0492	2219.24	68.7559	2219.24	66.5786	2219.24	67.5624	2219.24	66.0448	2219.24	69.0351	2219.24	67.3022	2219.24	61.4808	2219.24	69.3808	2219.24	62.3659	2219.24	67.5697
2296.88	86.2175	2296.88	86.6993	2296.88	85.6312	2296.88	86.6065	2296.88	85.2214	2296.88	85.5243	2296.88	85.6347	2296.88	84.6909	2296.88	84.8933	2296.88	82.0297	2296.88	82.9999	2296.88	79.4128	2296.88	80.5296	2296.88	78.0417	2296.88	77.7815	2296.88	73.9085	2296.88	73.5947	2296.88	70.104	2296.88	68.4821	2296.88	70.1619	2296.88	67.7479	2296.88	70.6308	2296.88	65.9232	2296.88	65.7679	2296.88	64.8978	2296.88	66.1174	2296.88	69.0742	2296.88	66.0741	2296.88	67.0963	2296.88	64.6626	2296.88	68.1181	2296.88	65.1421	2296.88	58.5032	2296.88	68.0481	2296.88	59.494	2296.88	68.3622
2378.91	86.8205	2378.91	86.372	2378.91	86.4231	2378.91	85.7719	2378.91	84.8219	2378.91	85.5105	2378.91	84.1123	2378.91	83.5373	2378.91	84.1408	2378.91	81.6306	2378.91	82.5565	2378.91	79.6072	2378.91	79.9476	2378.91	75.6439	2378.91	75.5772	2378.91	73.9934	2378.91	72.1585	2378.91	73.4185	2378.91	70.2318	2378.91	71.0488	2378.91	66.6655	2378.91	62.7404	2378.91	65.8849	2378.91	65.7111	2378.91	58.4331	2378.91	61.59	2378.91	67.5242	2378.91	67.3404	2378.91	66.6009	2378.91	64.6866	2378.91	68.2723	2378.91	66.4182	2378.91	61.9157	2378.91	67.5937	2378.91	58.1259	2378.91	65.9857
2462.4	86.4077	2462.4	86.3101	2462.4	86.4291	2462.4	85.7148	2462.4	85.6529	2462.4	85.2048	2462.4	83.985	2462.4	83.5308	2462.4	83.367	2462.4	80.9895	2462.4	81.9787	2462.4	77.9969	2462.4	79.4391	2462.4	75.8158	2462.4	75.5291	2462.4	74.9619	2462.4	66.775	2462.4	69.6069	2462.4	67.0362	2462.4	69.64	2462.4	69.0059	2462.4	68.0016	2462.4	69.1096	2462.4	64.0085	2462.4	65.5831	2462.4	63.4306	2462.4	67.7587	2462.4	63.455	2462.4	67.4718	2462.4	62.8629	2462.4	68.6502	2462.4	65.4005	2462.4	59.8286	2462.4	65.5369	2462.4	58.6503	2462.4	67.4926
2548.83	85.9613	2548.83	85.7176	2548.83	85.7098	2548.83	85.7678	2548.83	85.2199	2548.83	84.6901	2548.83	84.3586	2548.83	83.3002	2548.83	82.8221	2548.83	81.3235	2548.83	81.6023	2548.83	78.7225	2548.83	79.3914	2548.83	75.8036	2548.83	77.1719	2548.83	72.6608	2548.83	70.8223	2548.83	71.2228	2548.83	64.0922	2548.83	68.2033	2548.83	71.0838	2548.83	68.1045	2548.83	71.6756	2548.83	64.9114	2548.83	68.6931	2548.83	61.9393	2548.83	69.5884	2548.83	65.2025	2548.83	67.6381	2548.83	62.5033	2548.83	70.1568	2548.83	64.9849	2548.83	62.3218	2548.83	67.1422	2548.83	56.9291	2548.83	65.5664
2639.65	86.4366	2639.65	85.4993	2639.65	86.5662	2639.65	85.8497	2639.65	84.8165	2639.65	85.3208	2639.65	84.008	2639.65	83.6072	2639.65	83.5502	2639.65	81.1268	2639.65	81.8688	2639.65	77.0631	2639.65	79.5619	2639.65	75.7812	2639.65	76.7498	2639.65	74.2307	2639.65	73.8536	2639.65	71.4084	2639.65	68.1797	2639.65	70.2885	2639.65	66.9913	2639.65	66.445	2639.65	70.754	2639.65	64.1751	2639.65	68.5815	2639.65	62.6614	2639.65	70.3316	2639.65	64.9487	2639.65	69.9473	2639.65	65.4394	2639.65	70.4187	2639.65	66.1718	2639.65	61.761	2639.65	65.778	2639.65	58.6824	2639.65	65.7478
2731.93	86.5714	2731.93	86.0617	2731.93	87.5079	2731.93	85.806	2731.93	86.5483	2731.93	85.7859	2731.93	83.9989	2731.93	84.1127	2731.93	83.3353	2731.93	80.5091	2731.93	82.4529	2731.93	79.5723	2731.93	80.479	2731.93	77.0245	2731.93	77.1982	2731.93	75.4223	2731.93	75.4604	2731.93	73.3896	2731.93	75.7223	2731.93	69.74	2731.93	69.7272	2731.93	69.7702	2731.93	67.0919	2731.93	66.8997	2731.93	66.9947	2731.93	64.7345	2731.93	67.7974	2731.93	66.4958	2731.93	70.5377	2731.93	62.8702	2731.93	71.8053	2731.93	65.3643	2731.93	63.9927	2731.93	68.8495	2731.93	51.4134	2731.93	68.0942
2828.61	86.3042	2828.61	85.9119	2828.61	87.4912	2828.61	87.0692	2828.61	86.7196	2828.61	86.3551	2828.61	84.8048	2828.61	83.7272	2828.61	83.4147	2828.61	81.671	2828.61	82.3885	2828.61	80.156	2828.61	80.945	2828.61	77.7184	2828.61	77.968	2828.61	75.8682	2828.61	74.9757	2828.61	73.4126	2828.61	75.0447	2828.61	72.2309	2828.61	72.3166	2828.61	70.5255	2828.61	69.5437	2828.61	66.6652	2828.61	65.2344	2828.61	64.5977	2828.61	69.2093	2828.61	65.7695	2828.61	71.8398	2828.61	66.9992	2828.61	72.4752	2828.61	68.0844	2828.61	63.5133	2828.61	67.076	2828.61	49.082	2828.61	69.8031
2928.22	85.5065	2928.22	85.9267	2928.22	87.2831	2928.22	87.2472	2928.22	87.421	2928.22	86.1126	2928.22	84.9033	2928.22	83.1039	2928.22	82.7829	2928.22	81.7449	2928.22	82.1523	2928.22	80.0238	2928.22	81.4098	2928.22	79.9998	2928.22	79.6803	2928.22	77.3871	2928.22	76.7807	2928.22	76.2849	2928.22	76.7643	2928.22	73.9137	2928.22	72.871	2928.22	70.4716	2928.22	68.4941	2928.22	69.268	2928.22	69.5913	2928.22	66.8005	2928.22	68.7252	2928.22	66.6181	2928.22	73.5057	2928.22	65.5095	2928.22	71.6689	2928.22	67.4191	2928.22	66.201	2928.22	70.0759	2928.22	55.8646	2928.22	71.8008
3030.76	85.7286	3030.76	86.9955	3030.76	85.9749	3030.76	86.5292	3030.76	86.383	3030.76	84.4718	3030.76	85.0802	3030.76	83.9888	3030.76	82.9667	3030.76	83.8027	3030.76	82.0634	3030.76	82.8756	3030.76	81.2483	3030.76	80.7681	3030.76	79.4367	3030.76	77.2926	3030.76	78.2086	3030.76	74.245	3030.76	76.8544	3030.76	72.3039	3030.76	72.9642	3030.76	72.5853	3030.76	64.2613	3030.76	66.8325	3030.76	71.5894	3030.76	66.6235	3030.76	69.1261	3030.76	66.2433	3030.76	73.1824	3030.76	69.1599	3030.76	71.6227	3030.76	71.1296	3030.76	64.6954	3030.76	67.8181	3030.76	56.844	3030.76	71.8515
3137.7	86.0538	3137.7	86.6735	3137.7	85.9223	3137.7	86.0203	3137.7	85.3403	3137.7	84.2993	3137.7	83.7966	3137.7	84.9355	3137.7	83.0196	3137.7	84.5137	3137.7	83.2928	3137.7	82.6826	3137.7	82.0845	3137.7	80.5478	3137.7	80.5333	3137.7	78.7845	3137.7	78.0577	3137.7	76.692	3137.7	70.286	3137.7	72.9881	3137.7	52.5289	3137.7	68.7347	3137.7	63.4752	3137.7	68.8979	3137.7	69.3813	3137.7	66.0165	3137.7	68.1945	3137.7	67.6526	3137.7	72.3708	3137.7	65.2829	3137.7	70.8439	3137.7	68.8452	3137.7	66.4343	3137.7	69.4249	3137.7	48.932	3137.7	71.7612
3249.02	87.8137	3249.02	87.2367	3249.02	87.1326	3249.02	85.9478	3249.02	86.239	3249.02	85.918	3249.02	84.8757	3249.02	86.4733	3249.02	83.5352	3249.02	84.7465	3249.02	84.1644	3249.02	82.182	3249.02	83.0023	3249.02	79.2	3249.02	80.2654	3249.02	76.3011	3249.02	76.1474	3249.02	72.6096	3249.02	68.307	3249.02	72.6344	3249.02	68.9113	3249.02	71.7967	3249.02	64.5274	3249.02	69.4191	3249.02	64.184	3249.02	63.3995	3249.02	69.5186	3249.02	59.2772	3249.02	71.4952	3249.02	64.5629	3249.02	70.0323	3249.02	68.9843	3249.02	67.8423	3249.02	67.9928	3249.02	60.1707	3249.02	70.0982
3363.28	89.0181	3363.28	89.227	3363.28	88.7709	3363.28	87.3955	3363.28	87.9046	3363.28	87.0787	3363.28	86.1377	3363.28	86.2325	3363.28	84.6823	3363.28	84.6083	3363.28	84.0758	3363.28	81.6754	3363.28	83.2363	3363.28	79.6239	3363.28	81.1397	3363.28	76.6379	3363.28	75.7719	3363.28	74.2929	3363.28	65.8805	3363.28	74.1516	3363.28	67.0265	3363.28	66.8756	3363.28	66.0947	3363.28	67.3998	3363.28	65.7949	3363.28	60.6351	3363.28	70.1699	3363.28	66.6864	3363.28	70.8664	3363.28	66.1962	3363.28	68.5484	3363.28	65.9594	3363.28	67.4589	3363.28	69.4844	3363.28	59.2033	3363.28	68.2474
3481.93	90.5557	3481.93	89.473	3481.93	89.3532	3481.93	87.8103	3481.93	88.4642	3481.93	86.8375	3481.93	86.6284	3481.93	85.6296	3481.93	84.6995	3481.93	82.8302	3481.93	83.4111	3481.93	79.9536	3481.93	82.102	3481.93	77.5806	3481.93	80.3349	3481.93	74.4506	3481.93	72.9295	3481.93	73.7994	3481.93	71.2098	3481.93	69.7278	3481.93	71.5861	3481.93	68.6884	3481.93	66.8366	3481.93	63.2145	3481.93	61.8563	3481.93	64.7287	3481.93	67.6215	3481.93	59.2325	3481.93	70.6887	3481.93	59.5877	3481.93	66.4866	3481.93	63.0527	3481.93	64.1563	3481.93	66.7169	3481.93	58.3505	3481.93	66.5386
3604.98	89.9512	3604.98	89.4066	3604.98	88.897	3604.98	87.3416	3604.98	87.6584	3604.98	86.647	3604.98	85.8912	3604.98	84.6103	3604.98	83.9611	3604.98	81.3635	3604.98	82.9825	3604.98	78.6756	3604.98	81.0711	3604.98	74.6733	3604.98	78.9089	3604.98	72.5854	3604.98	73.9075	3604.98	70.4902	3604.98	70.4701	3604.98	69.183	3604.98	69.7608	3604.98	66.7909	3604.98	68.3048	3604.98	68.0765	3604.98	61.5862	3604.98	53.2881	3604.98	65.2549	3604.98	56.6223	3604.98	69.7298	3604.98	63.4785	3604.98	66.4007	3604.98	61.7244	3604.98	62.9998	3604.98	64.8935	3604.98	59.1666	3604.98	65.2676
3732.42	90.4172	3732.42	88.9231	3732.42	89.1481	3732.42	87.4302	3732.42	87.5395	3732.42	86.2057	3732.42	85.5583	3732.42	83.9901	3732.42	83.5692	3732.42	81.32	3732.42	82.3615	3732.42	78.6394	3732.42	81.282	3732.42	77.9431	3732.42	77.3303	3732.42	74.1701	3732.42	74.0321	3732.42	68.9142	3732.42	70.4204	3732.42	68.4635	3732.42	70.7609	3732.42	68.9936	3732.42	66.4485	3732.42	63.3935	3732.42	61.6954	3732.42	62.7476	3732.42	67.7208	3732.42	62.7789	3732.42	69.1867	3732.42	61.4668	3732.42	66.0516	3732.42	60.1161	3732.42	62.9754	3732.42	65.1179	3732.42	57.6343	3732.42	65.575
3864.26	90.2113	3864.26	89.1343	3864.26	89.3107	3864.26	87.161	3864.26	87.483	3864.26	86.075	3864.26	85.1216	3864.26	83.6045	3864.26	83.2131	3864.26	80.644	3864.26	82.2149	3864.26	78.4278	3864.26	80.682	3864.26	76.1985	3864.26	77.2914	3864.26	72.9353	3864.26	72.7812	3864.26	74.5825	3864.26	69.9646	3864.26	71.9104	3864.26	69.896	3864.26	65.0359	3864.26	67.9291	3864.26	68.5266	3864.26	60.3486	3864.26	61.6522	3864.26	63.0634	3864.26	58.3221	3864.26	68.6271	3864.26	61.4227	3864.26	64.4784	3864.26	60.3397	3864.26	60.956	3864.26	65.9454	3864.26	60.1547	3864.26	64.1785
4000.49	90.7558	4000.49	88.9356	4000.49	89.4592	4000.49	87.9331	4000.49	87.5658	4000.49	86.2447	4000.49	85.6333	4000.49	83.6835	4000.49	82.7608	4000.49	81.451	4000.49	81.4551	4000.49	80.0212	4000.49	80.3788	4000.49	77.1271	4000.49	76.8097	4000.49	75.4481	4000.49	72.504	4000.49	71.1703	4000.49	69.3401	4000.49	70.3993	4000.49	61.6654	4000.49	69.8308	4000.49	68.2871	4000.49	65.2089	4000.49	54.11	4000.49	65.0829	4000.49	63.6693	4000.49	61.7645	4000.49	67.7781	4000.49	62.2533	4000.49	64.9164	4000.49	61.3944	4000.49	61.1601	4000.49	66.0704	4000.49	60.0736	4000.49	63.4447
4141.11	91.262	4141.11	90.4673	4141.11	90.1232	4141.11	88.6132	4141.11	88.3058	4141.11	86.4286	4141.11	86.1875	4141.11	83.7325	4141.11	82.9899	4141.11	81.969	4141.11	79.8794	4141.11	79.5858	4141.11	79.4696	4141.11	77.1222	4141.11	76.5946	4141.11	73.6344	4141.11	74.9861	4141.11	73.4267	4141.11	72.8043	4141.11	69.0646	4141.11	64.3868	4141.11	67.2501	4141.11	64.8843	4141.11	66.5758	4141.11	59.6218	4141.11	63.0625	4141.11	64.6123	4141.11	58.9281	4141.11	68.1354	4141.11	57.4323	4141.11	67.2676	4141.11	59.4004	4141.11	60.0745	4141.11	66.1549	4141.11	63.4683	4141.11	64.477
4287.6	92.6069	4287.6	91.1715	4287.6	91.1523	4287.6	89.3731	4287.6	89.3952	4287.6	87.1932	4287.6	87.0269	4287.6	84.4823	4287.6	83.4749	4287.6	82.4382	4287.6	81.1117	4287.6	79.8747	4287.6	80.7974	4287.6	78.1165	4287.6	79.5537	4287.6	74.6469	4287.6	77.8851	4287.6	69.8841	4287.6	70.2797	4287.6	72.8955	4287.6	70.9682	4287.6	72.1001	4287.6	68.709	4287.6	67.0606	4287.6	62.9189	4287.6	64.8018	4287.6	66.4691	4287.6	61.1805	4287.6	68.9788	4287.6	61.0598	4287.6	64.7658	4287.6	60.8474	4287.6	62.8463	4287.6	67.4016	4287.6	60.7965	4287.6	66.077
4438.48	92.9665	4438.48	91.3588	4438.48	91.1516	4438.48	89.1074	4438.48	88.749	4438.48	85.2713	4438.48	87.928	4438.48	84.3058	4438.48	85.1416	4438.48	81.651	4438.48	81.2998	4438.48	79.4793	4438.48	82.3165	4438.48	77.6624	4438.48	82.693	4438.48	79.0848	4438.48	81.5118	4438.48	74.8776	4438.48	77.2251	4438.48	74.0687	4438.48	76.8601	4438.48	69.5408	4438.48	65.9769	4438.48	71.1503	4438.48	62.7364	4438.48	65.6891	4438.48	70.452	4438.48	60.4213	4438.48	70.8621	4438.48	62.0758	4438.48	70.8926	4438.48	61.471	4438.48	66.6352	4438.48	68.008	4438.48	62.5813	4438.48	65.7108
4595.21	91.4048	4595.21	89.2747	4595.21	90.3142	4595.21	86.196	4595.21	88.8424	4595.21	84.563	4595.21	87.8265	4595.21	83.4895	4595.21	86.4974	4595.21	81.1929	4595.21	85.3964	4595.21	83.9215	4595.21	83.2991	4595.21	82.1152	4595.21	82.1421	4595.21	77.5097	4595.21	79.404	4595.21	75.9598	4595.21	78.6486	4595.21	76.2126	4595.21	72.5116	4595.21	71.6009	4595.21	60.5364	4595.21	70.8333	4595.21	59.3079	4595.21	67.0194	4595.21	58.9076	4595.21	65.3553	4595.21	72.1357	4595.21	63.0448	4595.21	71.9401	4595.21	64.6736	4595.21	65.0295	4595.21	68.925	4595.21	59.149	4595.21	69.9191
4756.35	91.1336	4756.35	88.6941	4756.35	90.1805	4756.35	86.9325	4756.35	88.3938	4756.35	84.4491	4756.35	87.3117	4756.35	83.6283	4756.35	85.9247	4756.35	83.5281	4756.35	84.0579	4756.35	82.1003	4756.35	83.3102	4756.35	79.4239	4756.35	83.1236	4756.35	78.206	4756.35	79.7616	4756.35	74.093	4756.35	78.1111	4756.35	71.0334	4756.35	74.8515	4756.35	69.3946	4756.35	64.1905	4756.35	69.1676	4756.35	65.8699	4756.35	67.9509	4756.35	60.5875	4756.35	65.6369	4756.35	70.7555	4756.35	56.9663	4756.35	71.4565	4756.35	55.9399	4756.35	62.7494	4756.35	66.3351	4756.35	64.7029	4756.35	68.4484
4924.8	89.8376	4924.8	88.6911	4924.8	89.2633	4924.8	86.3837	4924.8	87.9069	4924.8	85.307	4924.8	86.4743	4924.8	84.6505	4924.8	85.222	4924.8	84.7775	4924.8	83.3077	4924.8	83.341	4924.8	83.5546	4924.8	81.6939	4924.8	83.2702	4924.8	77.0205	4924.8	78.7472	4924.8	76.8134	4924.8	76.178	4924.8	74.6241	4924.8	71.1701	4924.8	72.5737	4924.8	64.8527	4924.8	69.9336	4924.8	68.5833	4924.8	69.6326	4924.8	66.7459	4924.8	68.5264	4924.8	67.1028	4924.8	60.0564	4924.8	67.8406	4924.8	49.3376	4924.8	62.0015	4924.8	64.9316	4924.8	63.4525	4924.8	65.0921
5097.66	89.7254	5097.66	88.5254	5097.66	88.4471	5097.66	86.7239	5097.66	87.3297	5097.66	86.0304	5097.66	85.5832	5097.66	85.2282	5097.66	83.1935	5097.66	84.6641	5097.66	83.1698	5097.66	84.035	5097.66	82.5488	5097.66	81.2845	5097.66	81.9114	5097.66	78.5496	5097.66	78.3822	5097.66	74.4945	5097.66	75.1516	5097.66	72.7639	5097.66	73.3935	5097.66	71.465	5097.66	68.4308	5097.66	68.7922	5097.66	67.059	5097.66	69.4461	5097.66	67.198	5097.66	68.185	5097.66	63.4382	5097.66	60.9265	5097.66	67.0881	5097.66	51.8992	5097.66	64.3162	5097.66	67.7546	5097.66	59.5436	5097.66	67.3032
5277.83	88.3312	5277.83	87.3176	5277.83	87.0179	5277.83	86.7789	5277.83	86.1469	5277.83	85.791	5277.83	84.8827	5277.83	85.9781	5277.83	84.2832	5277.83	86.3444	5277.83	84.9281	5277.83	83.9577	5277.83	83.4865	5277.83	80.8073	5277.83	80.6703	5277.83	75.9139	5277.83	74.8072	5277.83	75.7081	5277.83	72.0655	5277.83	73.7385	5277.83	73.4812	5277.83	71.2201	5277.83	71.8777	5277.83	69.0828	5277.83	54.5972	5277.83	70.3831	5277.83	65.0438	5277.83	68.7393	5277.83	59.5287	5277.83	64.2724	5277.83	67.3932	5277.83	56.3	5277.83	63.6609	5277.83	63.5877	5277.83	57.8667	5277.83	68.0196
5463.87	86.5133	5463.87	87.0084	5463.87	85.005	5463.87	87.4374	5463.87	86.4222	5463.87	86.6778	5463.87	85.4522	5463.87	88.4001	5463.87	85.7563	5463.87	87.6768	5463.87	87.0617	5463.87	85.8048	5463.87	86.8048	5463.87	82.9652	5463.87	81.2723	5463.87	80.2552	5463.87	75.3387	5463.87	76.8093	5463.87	71.4899	5463.87	74.9938	5463.87	72.1974	5463.87	71.8707	5463.87	71.2725	5463.87	70.3083	5463.87	65.3074	5463.87	71.8315	5463.87	67.2991	5463.87	70.613	5463.87	62.4844	5463.87	67.3399	5463.87	68.2888	5463.87	59.1359	5463.87	63.3034	5463.87	65.5429	5463.87	61.8268	5463.87	67.8206
5657.23	84.5233	5657.23	87.5729	5657.23	85.5971	5657.23	88.5658	5657.23	88.767	5657.23	89.486	5657.23	88.528	5657.23	90.3829	5657.23	88.6916	5657.23	89.2485	5657.23	89.0149	5657.23	87.6779	5657.23	88.0918	5657.23	84.3559	5657.23	82.3239	5657.23	80.2035	5657.23	77.3904	5657.23	77.407	5657.23	70.2625	5657.23	74.4306	5657.23	70.1262	5657.23	72.136	5657.23	71.2436	5657.23	70.5971	5657.23	65.5675	5657.23	73.5964	5657.23	65.4486	5657.23	71.6779	5657.23	64.7168	5657.23	69.0327	5657.23	65.163	5657.23	60.8067	5657.23	52.6231	5657.23	67.5927	5657.23	62.6418	5657.23	65.9524
5856.45	85.4058	5856.45	89.2863	5856.45	88.9144	5856.45	90.8087	5856.45	91.1994	5856.45	91.4947	5856.45	90.6284	5856.45	91.6511	5856.45	90.8546	5856.45	90.8669	5856.45	90.1816	5856.45	88.0564	5856.45	88.1516	5856.45	84.7001	5856.45	83.5344	5856.45	80.9384	5856.45	80.7512	5856.45	78.1696	5856.45	74.8962	5856.45	75.933	5856.45	70.2308	5856.45	73.4609	5856.45	72.9304	5856.45	71.5062	5856.45	66.7389	5856.45	73.3962	5856.45	64.668	5856.45	72.9787	5856.45	64.4654	5856.45	70.0287	5856.45	69.701	5856.45	61.7863	5856.45	64.7796	5856.45	67.86	5856.45	58.2733	5856.45	65.564
6062.99	85.3977	6062.99	89.0304	6062.99	89.9178	6062.99	91.1269	6062.99	91.4058	6062.99	91.8729	6062.99	91.566	6062.99	92.4073	6062.99	92.175	6062.99	90.4819	6062.99	90.8335	6062.99	87.8036	6062.99	88.2653	6062.99	84.7295	6062.99	84.1786	6062.99	79.5369	6062.99	81.6887	6062.99	78.0307	6062.99	77.2539	6062.99	75.4912	6062.99	67.8665	6062.99	72.6313	6062.99	57.9111	6062.99	71.5381	6062.99	65.451	6062.99	72.0633	6062.99	66.9256	6062.99	72.5809	6062.99	64.4564	6062.99	69.3353	6062.99	70.8075	6062.99	61.1835	6062.99	62.6226	6062.99	66.19	6062.99	59.2156	6062.99	64.8019
6276.86	82.538	6276.86	85.9191	6276.86	88.581	6276.86	89.3629	6276.86	89.5121	6276.86	92.3275	6276.86	91.1931	6276.86	91.4755	6276.86	92.0211	6276.86	89.4878	6276.86	89.6024	6276.86	86.2495	6276.86	86.6055	6276.86	82.8743	6276.86	85.1923	6276.86	79.7149	6276.86	80.5364	6276.86	76.4077	6276.86	75.5978	6276.86	74.5038	6276.86	76.0301	6276.86	72.82	6276.86	68.3866	6276.86	71.3073	6276.86	54.2815	6276.86	71.8064	6276.86	62.2913	6276.86	73.8218	6276.86	70.0677	6276.86	70.4583	6276.86	70.3151	6276.86	57.454	6276.86	62.0823	6276.86	68.4268	6276.86	64.3427	6276.86	61.1532
6498.05	87.0227	6498.05	84.2071	6498.05	87.2953	6498.05	88.2022	6498.05	86.1012	6498.05	91.2699	6498.05	90.5503	6498.05	89.9917	6498.05	90.3177	6498.05	87.9065	6498.05	86.7742	6498.05	85.1054	6498.05	85.1807	6498.05	83.4797	6498.05	85.4126	6498.05	81.2166	6498.05	77.024	6498.05	79.2759	6498.05	72.6434	6498.05	76.059	6498.05	78.0445	6498.05	72.9103	6498.05	73.4021	6498.05	70.9345	6498.05	65.6429	6498.05	72.1226	6498.05	62.7811	6498.05	73.5743	6498.05	62.2776	6498.05	67.9755	6498.05	62.6236	6498.05	55.0135	6498.05	58.3547	6498.05	64.6411	6498.05	65.4493	6498.05	59.1525
6726.56	88.3373	6726.56	84.5625	6726.56	86.7876	6726.56	87.7128	6726.56	87.2848	6726.56	90.109	6726.56	90.4928	6726.56	88.332	6726.56	88.1867	6726.56	85.7556	6726.56	85.4421	6726.56	85.1603	6726.56	85.5748	6726.56	83.3946	6726.56	83.7743	6726.56	79.7724	6726.56	77.8085	6726.56	76.1065	6726.56	72.7238	6726.56	72.5054	6726.56	74.5004	6726.56	69.4961	6726.56	71.8655	6726.56	68.7357	6726.56	60.7488	6726.56	69.1278	6726.56	62.5152	6726.56	71.2648	6726.56	67.5378	6726.56	65.6921	6726.56	58.4063	6726.56	39.3776	6726.56	56.2902	6726.56	65.1683	6726.56	58.6787	6726.56	61.1142
6963.87	87.0686	6963.87	84.8967	6963.87	85.7805	6963.87	87.4837	6963.87	88.5958	6963.87	89.4626	6963.87	89.9516	6963.87	86.6419	6963.87	86.442	6963.87	84.7287	6963.87	84.291	6963.87	84.2847	6963.87	85.6783	6963.87	81.5733	6963.87	81.852	6963.87	75.8715	6963.87	77.8373	6963.87	70.661	6963.87	73.7574	6963.87	67.9377	6963.87	64.314	6963.87	65.1782	6963.87	70.0104	6963.87	65.338	6963.87	52.9124	6963.87	64.8893	6963.87	50.5834	6963.87	68.0279	6963.87	63.8626	6963.87	59.6066	6963.87	56.5145	6963.87	55.7715	6963.87	58.2222	6963.87	61.7026	6963.87	53.099	6963.87	61.4879
7209.96	85.4756	7209.96	85.2436	7209.96	84.9593	7209.96	88.2583	7209.96	88.9815	7209.96	89.0549	7209.96	89.4678	7209.96	86.1503	7209.96	86.1381	7209.96	84.8434	7209.96	84.2723	7209.96	83.4409	7209.96	83.8074	7209.96	79.5179	7209.96	80.5552	7209.96	73.1154	7209.96	76.2535	7209.96	70.5579	7209.96	67.8438	7209.96	68.4576	7209.96	56.6119	7209.96	63.3768	7209.96	66.7729	7209.96	63.6431	7209.96	56.9572	7209.96	61.865	7209.96	61.3222	7209.96	66.0503	7209.96	62.7422	7209.96	57.6842	7209.96	57.4289	7209.96	44.578	7209.96	52.658	7209.96	59.062	7209.96	56.0718	7209.96	60.1028
7464.84	84.9742	7464.84	86.7761	7464.84	85.917	7464.84	89.3924	7464.84	89.7678	7464.84	89.3738	7464.84	89.7888	7464.84	86.8441	7464.84	87.2744	7464.84	85.3028	7464.84	85.7225	7464.84	82.4964	7464.84	83.1435	7464.84	76.439	7464.84	80.6429	7464.84	71.1649	7464.84	74.0584	7464.84	65.3621	7464.84	68.2917	7464.84	64.3631	7464.84	63.0671	7464.84	60.751	7464.84	67.3405	7464.84	59.2646	7464.84	59.3163	7464.84	59.3203	7464.84	58.0869	7464.84	63.097	7464.84	62.5428	7464.84	58.4393	7464.84	55.9509	7464.84	53.7341	7464.84	51.0499	7464.84	58.4591	7464.84	54.7491	7464.84	60.6064
7727.05	86.6702	7727.05	89.2341	7727.05	88.314	7727.05	90.7659	7727.05	91.3722	7727.05	89.8309	7727.05	90.4096	7727.05	87.7526	7727.05	87.8602	7727.05	85.6669	7727.05	87.1087	7727.05	82.1244	7727.05	83.4183	7727.05	74.4136	7727.05	77.9821	7727.05	69.0256	7727.05	66.1495	7727.05	65.9541	7727.05	69.7813	7727.05	62.2318	7727.05	61.4363	7727.05	61.4958	7727.05	61.8923	7727.05	62.4342	7727.05	57.2286	7727.05	61.0646	7727.05	51.4701	7727.05	63.6645	7727.05	60.4327	7727.05	58.4668	7727.05	53.8036	7727.05	49.3364	7727.05	50.3983	7727.05	57.8791	7727.05	55.329	7727.05	60.8053
7999.51	88.8415	7999.51	91.0812	7999.51	90.2671	7999.51	91.1736	7999.51	91.903	7999.51	89.51	7999.51	89.949	7999.51	87.958	7999.51	87.7495	7999.51	85.7077	7999.51	85.9205	7999.51	80.475	7999.51	81.1678	7999.51	74.5306	7999.51	77.2853	7999.51	70.2196	7999.51	70.2339	7999.51	68.9794	7999.51	70.4007	7999.51	65.6228	7999.51	62.4156	7999.51	60.4048	7999.51	66.3471	7999.51	61.138	7999.51	58.8064	7999.51	62.6305	7999.51	55.4795	7999.51	64.352	7999.51	63.8142	7999.51	57.6484	7999.51	55.4923	7999.51	46.4263	7999.51	53.9492	7999.51	59.2846	7999.51	58.02	7999.51	62.5243
8282.23	89.2357	8282.23	90.9326	8282.23	90.331	8282.23	89.9987	8282.23	90.4048	8282.23	87.5377	8282.23	88.4905	8282.23	86.5032	8282.23	86.7046	8282.23	82.4982	8282.23	83.1486	8282.23	77.6041	8282.23	77.0266	8282.23	73.2599	8282.23	75.5651	8282.23	70.0544	8282.23	72.8354	8282.23	68.7032	8282.23	66.8857	8282.23	63.7802	8282.23	61.284	8282.23	59.9981	8282.23	61.6387	8282.23	63.1697	8282.23	54.2125	8282.23	58.8693	8282.23	54.0613	8282.23	61.843	8282.23	57.6062	8282.23	57.1802	8282.23	46.8247	8282.23	47.1867	8282.23	55.1622	8282.23	57.461	8282.23	53.2422	8282.23	60.6305
8573.73	88.568	8573.73	89.9513	8573.73	89.2259	8573.73	88.4742	8573.73	88.7268	8573.73	86.4678	8573.73	87.2129	8573.73	84.6793	8573.73	85.1517	8573.73	79.0349	8573.73	80.222	8573.73	74.2589	8573.73	76.2922	8573.73	73.0802	8573.73	72.9584	8573.73	67.7114	8573.73	70.6358	8573.73	64.1502	8573.73	62.5956	8573.73	57.9424	8573.73	61.2911	8573.73	55.5971	8573.73	61.242	8573.73	57.8329	8573.73	49.4516	8573.73	56.5013	8573.73	50.3887	8573.73	58.6904	8573.73	56.3793	8573.73	51.1175	8573.73	53.0741	8573.73	30.2447	8573.73	47.4039	8573.73	51.4374	8573.73	52.7008	8573.73	57.5644
8876.95	88.0044	8876.95	88.8474	8876.95	88.2633	8876.95	87.3871	8876.95	87.8228	8876.95	85.9451	8876.95	86.468	8876.95	82.998	8876.95	84.0012	8876.95	75.5983	8876.95	78.9989	8876.95	73.4322	8876.95	74.2004	8876.95	69.525	8876.95	71.2703	8876.95	62.0856	8876.95	66.7195	8876.95	57.3419	8876.95	60.7721	8876.95	50.6376	8876.95	59.0352	8876.95	47.4693	8876.95	59.5216	8876.95	54.4621	8876.95	38.0174	8876.95	52.6211	8876.95	43.0775	8876.95	53.3802	8876.95	48.6798	8876.95	40.8907	8876.95	51.1405	8876.95	37.3393	8876.95	50.3183	8876.95	45.7623	8876.95	50.9604	8876.95	54.3223
9188.96	88.0695	9188.96	88.5146	9188.96	88.6067	9188.96	87.241	9188.96	88.0236	9188.96	86.164	9188.96	86.3817	9188.96	81.9882	9188.96	83.4381	9188.96	75.4724	9188.96	76.908	9188.96	71.9572	9188.96	72.5146	9188.96	65.2359	9188.96	69.224	9188.96	53.3218	9188.96	61.6821	9188.96	51.3865	9188.96	59.9523	9188.96	41.2993	9188.96	54.176	9188.96	43.8816	9188.96	59.878	9188.96	48.5844	9188.96	51.3717	9188.96	47.5982	9188.96	47.2309	9188.96	47.3593	9188.96	40.9285	9188.96	37.0609	9188.96	43.5977	9188.96	41.7319	9188.96	41.7868	9188.96	40.2289	9188.96	48.9912	9188.96	53.6589
9514.16	89.0967	9514.16	89.5037	9514.16	90.0402	9514.16	88.5716	9514.16	89.3785	9514.16	87.3789	9514.16	87.7905	9514.16	83.1419	9514.16	83.9011	9514.16	77.0222	9514.16	76.6526	9514.16	72.3822	9514.16	73.5261	9514.16	64.3511	9514.16	66.8375	9514.16	52.9617	9514.16	50.1895	9514.16	57.416	9514.16	51.8167	9514.16	51.5512	9514.16	60.8008	9514.16	49.2597	9514.16	62.4212	9514.16	52.1359	9514.16	46.7439	9514.16	50.0674	9514.16	46.6715	9514.16	50.8917	9514.16	46.1129	9514.16	38.7665	9514.16	43.1413	9514.16	37.7722	9514.16	42.856	9514.16	44.0227	9514.16	52.0053	9514.16	54.2803
9849.61	90.1129	9849.61	90.6908	9849.61	91.0185	9849.61	89.7886	9849.61	90.6594	9849.61	88.9253	9849.61	89.1484	9849.61	84.0761	9849.61	84.1512	9849.61	77.9346	9849.61	76.8492	9849.61	72.3711	9849.61	71.9101	9849.61	62.403	9849.61	60.4066	9849.61	58.6075	9849.61	55.7358	9849.61	58.6239	9849.61	47.699	9849.61	51.9751	9849.61	65.59	9849.61	51.4502	9849.61	66.3962	9849.61	51.2925	9849.61	49.4228	9849.61	49.7373	9849.61	51.8699	9849.61	51.9087	9849.61	49.2729	9849.61	40.159	9849.61	50.3344	9849.61	39.9488	9849.61	50.299	9849.61	47.8897	9849.61	55.8316	9849.61	55.7198
10196.8	89.6195	10196.8	90.1204	10196.8	90.279	10196.8	88.8829	10196.8	89.7847	10196.8	88.2516	10196.8	88.2657	10196.8	82.1639	10196.8	81.819	10196.8	75.9964	10196.8	74.2494	10196.8	67.0804	10196.8	65.38	10196.8	56.5962	10196.8	54.3925	10196.8	61.095	10196.8	63.8589	10196.8	58.6622	10196.8	48.015	10196.8	55.5783	10196.8	66.1326	10196.8	50.2696	10196.8	66.362	10196.8	53.1749	10196.8	49.8054	10196.8	51.2078	10196.8	50.9194	10196.8	51.0587	10196.8	52.4376	10196.8	42.2527	10196.8	52.7706	10196.8	35.5789	10196.8	51.8146	10196.8	48.4235	10196.8	57.1566	10196.8	56.6009
10555.7	88.9655	10555.7	89.3989	10555.7	89.5187	10555.7	88.4729	10555.7	89.2826	10555.7	87.7145	10555.7	88.0859	10555.7	80.1391	10555.7	80.5308	10555.7	73.9593	10555.7	72.0396	10555.7	56.7045	10555.7	56.0435	10555.7	66.3628	10555.7	65.7182	10555.7	63.1542	10555.7	68.6751	10555.7	59.0116	10555.7	55.6296	10555.7	55.8775	10555.7	66.9067	10555.7	49.3719	10555.7	66.7295	10555.7	54.7812	10555.7	55.979	10555.7	52.6927	10555.7	52.4595	10555.7	51.5788	10555.7	57.2267	10555.7	42.7617	10555.7	56.0535	10555.7	46.597	10555.7	55.2846	10555.7	52.2974	10555.7	58.5133	10555.7	57.9036
10927.7	87.1313	10927.7	87.1202	10927.7	87.5243	10927.7	87.4103	10927.7	87.814	10927.7	86.553	10927.7	87.2423	10927.7	78.3108	10927.7	79.1973	10927.7	68.2389	10927.7	71.4682	10927.7	68.9186	10927.7	63.5303	10927.7	69.0129	10927.7	71.2411	10927.7	62.0032	10927.7	67.2074	10927.7	59.9466	10927.7	57.1673	10927.7	53	10927.7	67.8989	10927.7	47.2432	10927.7	67.1056	10927.7	58.1125	10927.7	59.56	10927.7	53.8755	10927.7	53.4699	10927.7	53.4317	10927.7	58.8725	10927.7	51.2149	10927.7	56.1931	10927.7	53.7427	10927.7	56.9656	10927.7	54.0223	10927.7	59.33	10927.7	59.0216
11313	90.5526	11313	88.3222	11313	89.3237	11313	88.7308	11313	89.003	11313	87.3704	11313	88.7105	11313	80.9621	11313	82.3091	11313	66.4953	11313	75.3669	11313	74.9623	11313	74.1022	11313	71.9852	11313	70.5535	11313	61.4794	11313	64.8902	11313	63.4882	11313	59.9797	11313	49.7745	11313	69.9658	11313	57.4585	11313	69.605	11313	62.0397	11313	64.3972	11313	57.5603	11313	54.1296	11313	55.7157	11313	61.7244	11313	57.5186	11313	57.3756	11313	59.2618	11313	58.4545	11313	56.508	11313	62.0778	11313	63.2162
11712.9	90.5657	11712.9	87.7971	11712.9	87.8484	11712.9	86.7987	11712.9	87.0878	11712.9	84.337	11712.9	85.0744	11712.9	80.1531	11712.9	80.3398	11712.9	72.8572	11712.9	71.6813	11712.9	73.775	11712.9	74.4397	11712.9	70.0434	11712.9	60.4255	11712.9	63.928	11712.9	66.4612	11712.9	62.589	11712.9	62.7641	11712.9	53.8756	11712.9	66.6447	11712.9	58.6484	11712.9	67.6754	11712.9	60.0998	11712.9	64.6789	11712.9	54.6776	11712.9	53.4747	11712.9	53.201	11712.9	60.2377	11712.9	57.782	11712.9	56.1225	11712.9	58.32	11712.9	56.6171	11712.9	56.3834	11712.9	60.9848	11712.9	62.9283
12126	89.5175	12126	88.0839	12126	87.1936	12126	86.2415	12126	86.9616	12126	83.3939	12126	81.3164	12126	79.0866	12126	78.2964	12126	74.9558	12126	75.2536	12126	70.5635	12126	71.5531	12126	69.2784	12126	68.5236	12126	66.4069	12126	69.1436	12126	61.4476	12126	63.2079	12126	56.8621	12126	67.8249	12126	57.9314	12126	68.9689	12126	55.5904	12126	59.6878	12126	50.6466	12126	33.2099	12126	51.9995	12126	57.1109	12126	58.1013	12126	51.8941	12126	58.08	12126	53.6073	12126	56.633	12126	61.0566	12126	64.4162
12553.7	90.2971	12553.7	89.5217	12553.7	88.7356	12553.7	86.0797	12553.7	88.1257	12553.7	83.8381	12553.7	82.088	12553.7	77.4864	12553.7	76.4958	12553.7	75.462	12553.7	74.6233	12553.7	70.1998	12553.7	66.5117	12553.7	68.7505	12553.7	69.1656	12553.7	64.4459	12553.7	66.7455	12553.7	55.4784	12553.7	58.6336	12553.7	55.827	12553.7	66.4294	12553.7	52.9598	12553.7	69.3278	12553.7	43.9709	12553.7	57.0156	12553.7	46.7987	12553.7	41.435	12553.7	45.4469	12553.7	49.0221	12553.7	55.5625	12553.7	40.4182	12553.7	54.3476	12553.7	47.4449	12553.7	55.8395	12553.7	56.0302	12553.7	62.6552
12996.1	90.201	12996.1	90.0265	12996.1	88.4096	12996.1	85.7955	12996.1	85.813	12996.1	83.8426	12996.1	79.9296	12996.1	77.2065	12996.1	70.3243	12996.1	72.2879	12996.1	71.3163	12996.1	67.6818	12996.1	63.981	12996.1	64.5869	12996.1	61.6933	12996.1	59.4779	12996.1	57.7325	12996.1	51.2261	12996.1	49.6003	12996.1	49.4806	12996.1	64.5208	12996.1	44.7899	12996.1	68.2841	12996.1	42.7986	12996.1	58.4425	12996.1	42.0507	12996.1	45.8979	12996.1	33.8883	12996.1	40.3746	12996.1	49.3715	12996.1	44.5259	12996.1	46.34	12996.1	44.3418	12996.1	50.7698	12996.1	50.9317	12996.1	59.3334
13454.6	90.2088	13454.6	89.9867	13454.6	88.517	13454.6	85.0452	13454.6	84.9718	13454.6	82.3983	13454.6	78.7242	13454.6	73.6838	13454.6	69.5998	13454.6	63.9948	13454.6	68.5607	13454.6	64.4469	13454.6	64.3858	13454.6	56.4725	13454.6	58.37	13454.6	57.5305	13454.6	57.0334	13454.6	51.3912	13454.6	56.7885	13454.6	50.1303	13454.6	64.1395	13454.6	46.8231	13454.6	69.3559	13454.6	43.579	13454.6	58.7401	13454.6	36.2201	13454.6	52.4287	13454.6	37.4154	13454.6	42.6406	13454.6	46.7181	13454.6	47.4717	13454.6	44.9144	13454.6	43.1373	13454.6	49.6443	13454.6	45.0393	13454.6	58.4399
13929.2	90.1628	13929.2	89.7435	13929.2	88.8039	13929.2	83.6915	13929.2	84.7793	13929.2	79.4028	13929.2	78.518	13929.2	63.1515	13929.2	69.7146	13929.2	65.0417	13929.2	65.4906	13929.2	66.8755	13929.2	65.5025	13929.2	64.92	13929.2	62.3223	13929.2	62.2436	13929.2	61.0667	13929.2	57.2771	13929.2	60.7841	13929.2	47.5322	13929.2	64.3131	13929.2	52.4314	13929.2	68.9376	13929.2	51.8101	13929.2	59.7673	13929.2	49.2594	13929.2	53.2965	13929.2	44.5269	13929.2	52.5996	13929.2	45.3027	13929.2	55.0548	13929.2	50.8707	13929.2	53.4424	13929.2	52.4724	13929.2	53.6313	13929.2	59.5365
14419.9	90.3445	14419.9	89.1367	14419.9	88.9873	14419.9	80.4525	14419.9	83.4675	14419.9	69.2834	14419.9	74.1221	14419.9	66.7955	14419.9	64.771	14419.9	71.8287	14419.9	68.5256	14419.9	67.1257	14419.9	68.4013	14419.9	67.1101	14419.9	65.656	14419.9	62.9479	14419.9	63.3912	14419.9	52.716	14419.9	59.2403	14419.9	48.8808	14419.9	65.9289	14419.9	53.2081	14419.9	70.1989	14419.9	53.1303	14419.9	59.0307	14419.9	52.9929	14419.9	51.3929	14419.9	43.5873	14419.9	54.0458	14419.9	43.7236	14419.9	55.108	14419.9	52.781	14419.9	54.6733	14419.9	55.642	14419.9	57.9386	14419.9	60.0147
14928.2	89.2048	14928.2	87.9659	14928.2	87.7088	14928.2	80.6276	14928.2	81.9137	14928.2	73.2293	14928.2	69.2122	14928.2	67.1567	14928.2	59.6979	14928.2	68.8404	14928.2	67.3578	14928.2	66.2729	14928.2	65.6974	14928.2	60.4316	14928.2	65.037	14928.2	58.6974	14928.2	53.7727	14928.2	42.9447	14928.2	55.5203	14928.2	50.8962	14928.2	63.9828	14928.2	48.1944	14928.2	69.5285	14928.2	48.6384	14928.2	55.6749	14928.2	51.0821	14928.2	50.4934	14928.2	38.0785	14928.2	46.0421	14928.2	46.6484	14928.2	52.9564	14928.2	50.3207	14928.2	51.547	14928.2	54.6743	14928.2	56.163	14928.2	55.5539
15455.6	89.7426	15455.6	88.7373	15455.6	87.8007	15455.6	82.7968	15455.6	83.0012	15455.6	73.0209	15455.6	71.0412	15455.6	59.5889	15455.6	58.5535	15455.6	65.8298	15455.6	64.6062	15455.6	67.3414	15455.6	66.2798	15455.6	52.7776	15455.6	58.4525	15455.6	57.5164	15455.6	58.4875	15455.6	52.0261	15455.6	54.8554	15455.6	49.828	15455.6	62.3998	15455.6	45.1499	15455.6	69.1345	15455.6	48.5813	15455.6	55.7193	15455.6	47.4389	15455.6	49.3959	15455.6	42.1751	15455.6	43.6982	15455.6	51.5279	15455.6	54.224	15455.6	50.6981	15455.6	52.397	15455.6	53.8628	15455.6	55.8323	15455.6	54.2961
16000.5	90.8929	16000.5	88.8602	16000.5	88.8531	16000.5	82.3377	16000.5	82.7834	16000.5	67.2977	16000.5	67.0643	16000.5	69.3138	16000.5	67.5486	16000.5	69.7398	16000.5	70.7497	16000.5	66.6618	16000.5	67.9033	16000.5	59.0027	16000.5	64.5681	16000.5	56.0753	16000.5	59.876	16000.5	50.8807	16000.5	55.3574	16000.5	40.0752	16000.5	62.1957	16000.5	38.8738	16000.5	69.477	16000.5	41.1834	16000.5	58.233	16000.5	40.5189	16000.5	49.1016	16000.5	42.9373	16000.5	50.1705	16000.5	51.0469	16000.5	55.6712	16000.5	47.8059	16000.5	55.2166	16000.5	48.398	16000.5	54.3584	16000.5	48.3848
16564.5	92.7781	16564.5	89.9709	16564.5	90.7422	16564.5	79.3037	16564.5	83.2664	16564.5	69.7548	16564.5	66.257	16564.5	75.8849	16564.5	72.6565	16564.5	74.1423	16564.5	73.5035	16564.5	67.567	16564.5	69.2538	16564.5	56.7223	16564.5	65.6124	16564.5	52.8764	16564.5	56.1548	16564.5	44.2073	16564.5	56.6042	16564.5	40.2008	16564.5	64.9882	16564.5	39.609	16564.5	71.0448	16564.5	50.3205	16564.5	59.7874	16564.5	47.5731	16564.5	54.1485	16564.5	44.9275	16564.5	54.4103	16564.5	51.3676	16564.5	58.9016	16564.5	44.593	16564.5	58.1337	16564.5	32.1732	16564.5	59.4173	16564.5	51.787
17148.9	93.4165	17148.9	90.7147	17148.9	91.2576	17148.9	80.9516	17148.9	83.3947	17148.9	74.3391	17148.9	69.3572	17148.9	76.2817	17148.9	72.7437	17148.9	73.3708	17148.9	73.481	17148.9	65.9009	17148.9	66.0831	17148.9	41.8317	17148.9	61.0198	17148.9	48.2162	17148.9	54.9648	17148.9	49.9268	17148.9	56.0701	17148.9	42.1684	17148.9	64.5844	17148.9	42.9917	17148.9	71.0089	17148.9	52.6501	17148.9	60.541	17148.9	46.9405	17148.9	56.2853	17148.9	48.9643	17148.9	57.1385	17148.9	55.0854	17148.9	59.4716	17148.9	52.6009	17148.9	59.0451	17148.9	37.1727	17148.9	60.2478	17148.9	52.9176
17752.4	91.1508	17752.4	88.1074	17752.4	88.3328	17752.4	77.352	17752.4	78.1327	17752.4	73.976	17752.4	68.7021	17752.4	74.6782	17752.4	70.908	17752.4	69.2971	17752.4	70.8251	17752.4	58.8005	17752.4	62.0311	17752.4	57.7734	17752.4	54.5701	17752.4	44.8958	17752.4	54.0665	17752.4	51.1242	17752.4	51.7148	17752.4	38.1149	17752.4	59.7709	17752.4	44.7265	17752.4	67.1198	17752.4	51.6993	17752.4	57.8357	17752.4	45.8883	17752.4	53.8827	17752.4	46.63	17752.4	55.1974	17752.4	53.5703	17752.4	57.4188	17752.4	52.3207	17752.4	57.0731	17752.4	33.0377	17752.4	60.0692	17752.4	50.5843
18379.4	92.0383	18379.4	88.7203	18379.4	88.3507	18379.4	78.0491	18379.4	79.4111	18379.4	78.025	18379.4	75.7345	18379.4	75.8873	18379.4	72.3357	18379.4	67.677	18379.4	70.2372	18379.4	57.0967	18379.4	59.6883	18379.4	64.6306	18379.4	60.4464	18379.4	48.0913	18379.4	58.3691	18379.4	55.5057	18379.4	54.414	18379.4	47.217	18379.4	62.37	18379.4	48.761	18379.4	69.7117	18379.4	56.4134	18379.4	58.5624	18379.4	53.4524	18379.4	56.2241	18379.4	53.6767	18379.4	56.6274	18379.4	58.0971	18379.4	59.6525	18379.4	57.3698	18379.4	58.8654	18379.4	50.0928	18379.4	60.6581	18379.4	52.5396
19026.9	93.0203	19026.9	89.9228	19026.9	89.9961	19026.9	81.5587	19026.9	82.4229	19026.9	75.8211	19026.9	74.3353	19026.9	73.2505	19026.9	69.9027	19026.9	63.9929	19026.9	66.4382	19026.9	59.1252	19026.9	54.6213	19026.9	63.4362	19026.9	60.6838	19026.9	55.6957	19026.9	53.2948	19026.9	54.8324	19026.9	55.348	19026.9	49.8651	19026.9	62.2052	19026.9	49.9825	19026.9	71.4126	19026.9	56.3738	19026.9	58.6064	19026.9	55.3929	19026.9	56.6687	19026.9	53.9169	19026.9	57.7777	19026.9	57.5529	19026.9	59.9407	19026.9	56.4204	19026.9	59.424	19026.9	53.0992	19026.9	59.7676	19026.9	56.2259
19697.8	92.48	19697.8	88.7805	19697.8	88.4331	19697.8	79.2446	19697.8	79.0422	19697.8	73.0512	19697.8	70.4417	19697.8	69.808	19697.8	68.0822	19697.8	61.3036	19697.8	66.5995	19697.8	64.8516	19697.8	56.8736	19697.8	62.9394	19697.8	59.6814	19697.8	49.4302	19697.8	57.534	19697.8	56.6269	19697.8	53.3855	19697.8	49.0874	19697.8	58.4544	19697.8	48.9042	19697.8	70.0038	19697.8	57.0864	19697.8	52.8381	19697.8	56.053	19697.8	55.9736	19697.8	54.7598	19697.8	58.1323	19697.8	58.5144	19697.8	58.8641	19697.8	58.3816	19697.8	60.2551	19697.8	42.6752	19697.8	60.8421	19697.8	57.1272
19999.5	92.9408	19999.5	88.8711	19999.5	88.946	19999.5	78.9481	19999.5	79.9488	19999.5	72.1605	19999.5	73.045	19999.5	70.4437	19999.5	67.1992	19999.5	64.1789	19999.5	69.1687	19999.5	65.7764	19999.5	57.2329	19999.5	65.2437	19999.5	62.2099	19999.5	52.3486	19999.5	58.1803	19999.5	57.6948	19999.5	57.0539	19999.5	55.0943	19999.5	56.9383	19999.5	51.2445	19999.5	70.2923	19999.5	60.915	19999.5	38.2995	19999.5	54.7643	19999.5	57.2106	19999.5	56.8932	19999.5	57.9823	19999.5	59.1336	19999.5	63.0058	19999.5	61.3787	19999.5	62.5045	19999.5	51.8413	19999.5	64.0761	19999.5	59.1899
