"SPL Horizontal"
"On-Axis"		"10°"		"-10°"		"20°"		"-20°"		"30°"		"-30°"		"40°"		"-40°"		"50°"		"-50°"		"60°"		"-60°"		"70°"		"-70°"		"80°"		"-80°"		"90°"		"-90°"		"100°"		"-100°"		"110°"		"-110°"		"120°"		"-120°"		"130°"		"-130°"		"140°"		"-140°"		"150°"		"-150°"		"160°"		"-160°"		"170°"		"-170°"		"180°"
"Frequency / Hz"	"Sound Pressure Level / dB (re 20 µPa/V)  [2.83  V @ 1. m]"	"Frequency / Hz"	"Sound Pressure Level / dB (re 20 µPa/V)  [2.83  V @ 1. m]"	"Frequency / Hz"	"Sound Pressure Level / dB (re 20 µPa/V)  [2.83  V @ 1. m]"	"Frequency / Hz"	"Sound Pressure Level / dB (re 20 µPa/V)  [2.83  V @ 1. m]"	"Frequency / Hz"	"Sound Pressure Level / dB (re 20 µPa/V)  [2.83  V @ 1. m]"	"Frequency / Hz"	"Sound Pressure Level / dB (re 20 µPa/V)  [2.83  V @ 1. m]"	"Frequency / Hz"	"Sound Pressure Level / dB (re 20 µPa/V)  [2.83  V @ 1. m]"	"Frequency / Hz"	"Sound Pressure Level / dB (re 20 µPa/V)  [2.83  V @ 1. m]"	"Frequency / Hz"	"Sound Pressure Level / dB (re 20 µPa/V)  [2.83  V @ 1. m]"	"Frequency / Hz"	"Sound Pressure Level / dB (re 20 µPa/V)  [2.83  V @ 1. m]"	"Frequency / Hz"	"Sound Pressure Level / dB (re 20 µPa/V)  [2.83  V @ 1. m]"	"Frequency / Hz"	"Sound Pressure Level / dB (re 20 µPa/V)  [2.83  V @ 1. m]"	"Frequency / Hz"	"Sound Pressure Level / dB (re 20 µPa/V)  [2.83  V @ 1. m]"	"Frequency / Hz"	"Sound Pressure Level / dB (re 20 µPa/V)  [2.83  V @ 1. m]"	"Frequency / Hz"	"Sound Pressure Level / dB (re 20 µPa/V)  [2.83  V @ 1. m]"	"Frequency / Hz"	"Sound Pressure Level / dB (re 20 µPa/V)  [2.83  V @ 1. m]"	"Frequency / Hz"	"Sound Pressure Level / dB (re 20 µPa/V)  [2.83  V @ 1. m]"	"Frequency / Hz"	"Sound Pressure Level / dB (re 20 µPa/V)  [2.83  V @ 1. m]"	"Frequency / Hz"	"Sound Pressure Level / dB (re 20 µPa/V)  [2.83  V @ 1. m]"	"Frequency / Hz"	"Sound Pressure Level / dB (re 20 µPa/V)  [2.83  V @ 1. m]"	"Frequency / Hz"	"Sound Pressure Level / dB (re 20 µPa/V)  [2.83  V @ 1. m]"	"Frequency / Hz"	"Sound Pressure Level / dB (re 20 µPa/V)  [2.83  V @ 1. m]"	"Frequency / Hz"	"Sound Pressure Level / dB (re 20 µPa/V)  [2.83  V @ 1. m]"	"Frequency / Hz"	"Sound Pressure Level / dB (re 20 µPa/V)  [2.83  V @ 1. m]"	"Frequency / Hz"	"Sound Pressure Level / dB (re 20 µPa/V)  [2.83  V @ 1. m]"	"Frequency / Hz"	"Sound Pressure Level / dB (re 20 µPa/V)  [2.83  V @ 1. m]"	"Frequency / Hz"	"Sound Pressure Level / dB (re 20 µPa/V)  [2.83  V @ 1. m]"	"Frequency / Hz"	"Sound Pressure Level / dB (re 20 µPa/V)  [2.83  V @ 1. m]"	"Frequency / Hz"	"Sound Pressure Level / dB (re 20 µPa/V)  [2.83  V @ 1. m]"	"Frequency / Hz"	"Sound Pressure Level / dB (re 20 µPa/V)  [2.83  V @ 1. m]"	"Frequency / Hz"	"Sound Pressure Level / dB (re 20 µPa/V)  [2.83  V @ 1. m]"	"Frequency / Hz"	"Sound Pressure Level / dB (re 20 µPa/V)  [2.83  V @ 1. m]"	"Frequency / Hz"	"Sound Pressure Level / dB (re 20 µPa/V)  [2.83  V @ 1. m]"	"Frequency / Hz"	"Sound Pressure Level / dB (re 20 µPa/V)  [2.83  V @ 1. m]"	"Frequency / Hz"	"Sound Pressure Level / dB (re 20 µPa/V)  [2.83  V @ 1. m]"	"Frequency / Hz"	"Sound Pressure Level / dB (re 20 µPa/V)  [2.83  V @ 1. m]"
20.5078	61.6308	20.5078	61.5042	20.5078	61.6916	20.5078	61.3076	20.5078	61.6946	20.5078	61.0404	20.5078	61.6511	20.5078	60.7044	20.5078	61.5738	20.5078	60.3019	20.5078	61.4729	20.5078	59.8327	20.5078	61.3519	20.5078	59.2915	20.5078	61.2032	20.5078	58.6659	20.5078	61.0088	20.5078	57.939	20.5078	60.7446	20.5078	57.0966	20.5078	60.3884	20.5078	56.142	20.5078	59.9293	20.5078	55.1223	20.5078	59.374	20.5078	54.1639	20.5078	58.747	20.5078	53.4866	20.5078	58.0803	20.5078	53.309	20.5078	57.3961	20.5078	53.6599	20.5078	56.6931	20.5078	54.3508	20.5078	55.9514	20.5078	55.1582
21.9727	66.7332	21.9727	66.7144	21.9727	66.7366	21.9727	66.678	21.9727	66.7283	21.9727	66.6232	21.9727	66.7132	21.9727	66.5504	21.9727	66.6966	21.9727	66.4612	21.9727	66.6827	21.9727	66.3579	21.9727	66.6736	21.9727	66.2434	21.9727	66.6673	21.9727	66.1207	21.9727	66.6575	21.9727	65.9935	21.9727	66.6346	21.9727	65.8677	21.9727	66.5881	21.9727	65.7506	21.9727	66.5101	21.9727	65.6498	21.9727	66.3981	21.9727	65.5711	21.9727	66.2568	21.9727	65.517	21.9727	66.0974	21.9727	65.4883	21.9727	65.9353	21.9727	65.4859	21.9727	65.7861	21.9727	65.5123	21.9727	65.6622	21.9727	65.5704
23.4375	66.3551	23.4375	66.3738	23.4375	66.3066	23.4375	66.3604	23.4375	66.2315	23.4375	66.3134	23.4375	66.134	23.4375	66.2322	23.4375	66.0188	23.4375	66.1174	23.4375	65.8901	23.4375	65.9705	23.4375	65.7514	23.4375	65.7947	23.4375	65.6042	23.4375	65.5944	23.4375	65.4482	23.4375	65.3757	23.4375	65.282	23.4375	65.1461	23.4375	65.1047	23.4375	64.9141	23.4375	64.9183	23.4375	64.6893	23.4375	64.7283	23.4375	64.4811	23.4375	64.5438	23.4375	64.2991	23.4375	64.3743	23.4375	64.1525	23.4375	64.2282	23.4375	64.0493	23.4375	64.1118	23.4375	63.9947	23.4375	64.0303	23.4375	63.9895
24.9023	68.9589	24.9023	68.9579	24.9023	68.9405	24.9023	68.9368	24.9023	68.9042	24.9023	68.8948	24.9023	68.8523	24.9023	68.8321	24.9023	68.7874	24.9023	68.749	24.9023	68.7128	24.9023	68.6467	24.9023	68.6315	24.9023	68.5271	24.9023	68.546	24.9023	68.3936	24.9023	68.458	24.9023	68.2514	24.9023	68.3685	24.9023	68.1074	24.9023	68.2778	24.9023	67.9703	24.9023	68.1865	24.9023	67.8484	24.9023	68.0954	24.9023	67.7482	24.9023	68.0054	24.9023	67.6738	24.9023	67.9177	24.9023	67.6264	24.9023	67.8339	24.9023	67.606	24.9023	67.757	24.9023	67.6116	24.9023	67.6911	24.9023	67.6411
26.3672	71.4131	26.3672	71.348	26.3672	71.4679	26.3672	71.273	26.3672	71.5117	26.3672	71.1892	26.3672	71.5441	26.3672	71.0976	26.3672	71.5648	26.3672	70.9998	26.3672	71.5734	26.3672	70.8982	26.3672	71.5695	26.3672	70.7955	26.3672	71.5529	26.3672	70.6952	26.3672	71.5235	26.3672	70.6018	26.3672	71.4814	26.3672	70.5203	26.3672	71.427	26.3672	70.4563	26.3672	71.3605	26.3672	70.4145	26.3672	71.2825	26.3672	70.3981	26.3672	71.1937	26.3672	70.4081	26.3672	71.0957	26.3672	70.4433	26.3672	70.9905	26.3672	70.5012	26.3672	70.8816	26.3672	70.5782	26.3672	70.7732	26.3672	70.6704
27.832	72.793	27.832	72.769	27.832	72.8149	27.832	72.7431	27.832	72.835	27.832	72.7154	27.832	72.8535	27.832	72.6865	27.832	72.8703	27.832	72.6574	27.832	72.8855	27.832	72.6291	27.832	72.899	27.832	72.603	27.832	72.9107	27.832	72.5806	27.832	72.9209	27.832	72.5631	27.832	72.93	27.832	72.552	27.832	72.9385	27.832	72.5487	27.832	72.9463	27.832	72.5548	27.832	72.9519	27.832	72.5716	27.832	72.9528	27.832	72.6	27.832	72.9457	27.832	72.6399	27.832	72.9275	27.832	72.6895	27.832	72.8967	27.832	72.7452	27.832	72.8538	27.832	72.8018
29.2969	72.5684	29.2969	72.5388	29.2969	72.5803	29.2969	72.4913	29.2969	72.5753	29.2969	72.4265	29.2969	72.5547	29.2969	72.346	29.2969	72.5204	29.2969	72.2525	29.2969	72.4741	29.2969	72.1498	29.2969	72.4178	29.2969	72.0425	29.2969	72.3535	29.2969	71.9357	29.2969	72.2834	29.2969	71.8347	29.2969	72.21	29.2969	71.7443	29.2969	72.1363	29.2969	71.6689	29.2969	72.0647	29.2969	71.6117	29.2969	71.9973	29.2969	71.575	29.2969	71.9344	29.2969	71.5591	29.2969	71.8755	29.2969	71.563	29.2969	71.8192	29.2969	71.584	29.2969	71.7646	29.2969	71.6184	29.2969	71.7118	29.2969	71.6622
30.7617	75.6368	30.7617	75.6185	30.7617	75.6398	30.7617	75.5849	30.7617	75.6276	30.7617	75.5363	30.7617	75.6007	30.7617	75.4738	30.7617	75.5598	30.7617	75.3988	30.7617	75.506	30.7617	75.3135	30.7617	75.4405	30.7617	75.2208	30.7617	75.3654	30.7617	75.1242	30.7617	75.2831	30.7617	75.0275	30.7617	75.1964	30.7617	74.9346	30.7617	75.1088	30.7617	74.8491	30.7617	75.0235	30.7617	74.7742	30.7617	74.9429	30.7617	74.7124	30.7617	74.8692	30.7617	74.6656	30.7617	74.8034	30.7617	74.6348	30.7617	74.7464	30.7617	74.6199	30.7617	74.6987	30.7617	74.6202	30.7617	74.661	30.7617	74.6344
32.2266	76.5818	32.2266	76.5606	32.2266	76.5888	32.2266	76.5253	32.2266	76.5818	32.2266	76.4762	32.2266	76.5613	32.2266	76.4143	32.2266	76.5279	32.2266	76.3412	32.2266	76.4827	32.2266	76.259	32.2266	76.4267	32.2266	76.1708	32.2266	76.3617	32.2266	76.0799	32.2266	76.2898	32.2266	75.9903	32.2266	76.2135	32.2266	75.9056	32.2266	76.1356	32.2266	75.8293	32.2266	76.0588	32.2266	75.764	32.2266	75.9854	32.2266	75.712	32.2266	75.9167	32.2266	75.6744	32.2266	75.8536	32.2266	75.6522	32.2266	75.7966	32.2266	75.6451	32.2266	75.7467	32.2266	75.6525	32.2266	75.705	32.2266	75.673
33.6914	77.5412	33.6914	77.52	33.6914	77.55	33.6914	77.4868	33.6914	77.5463	33.6914	77.4419	33.6914	77.5304	33.6914	77.3863	33.6914	77.5024	33.6914	77.3213	33.6914	77.4629	33.6914	77.2484	33.6914	77.4126	33.6914	77.1701	33.6914	77.3528	33.6914	77.0889	33.6914	77.2852	33.6914	77.0078	33.6914	77.2121	33.6914	76.9298	33.6914	77.1361	33.6914	76.8579	33.6914	77.0601	33.6914	76.7948	33.6914	76.9865	33.6914	76.7427	33.6914	76.9175	33.6914	76.7035	33.6914	76.8545	33.6914	76.6783	33.6914	76.7989	33.6914	76.6674	33.6914	76.7515	33.6914	76.6703	33.6914	76.7136	33.6914	76.6861
35.1562	79.0276	35.1562	79.0119	35.1562	79.0313	35.1562	78.9844	35.1562	79.0229	35.1562	78.9456	35.1562	79.0026	35.1562	78.8964	35.1562	78.9707	35.1562	78.8377	35.1562	78.9279	35.1562	78.7711	35.1562	78.8752	35.1562	78.6984	35.1562	78.814	35.1562	78.622	35.1562	78.7463	35.1562	78.5445	35.1562	78.6747	35.1562	78.4686	35.1562	78.602	35.1562	78.3974	35.1562	78.531	35.1562	78.3336	35.1562	78.4639	35.1562	78.2799	35.1562	78.4024	35.1562	78.2383	35.1562	78.3473	35.1562	78.2102	35.1562	78.2993	35.1562	78.1958	35.1562	78.2592	35.1562	78.1946	35.1562	78.2276	35.1562	78.2057
36.6211	80.0168	36.6211	80.0062	36.6211	80.0145	36.6211	79.9829	36.6211	79.9993	36.6211	79.9474	36.6211	79.9717	36.6211	79.9006	36.6211	79.9324	36.6211	79.8438	36.6211	79.8824	36.6211	79.7787	36.6211	79.8231	36.6211	79.7074	36.6211	79.7563	36.6211	79.6326	36.6211	79.6844	36.6211	79.5569	36.6211	79.6101	36.6211	79.4831	36.6211	79.5362	36.6211	79.4139	36.6211	79.4653	36.6211	79.3515	36.6211	79.3998	36.6211	79.2976	36.6211	79.3413	36.6211	79.2535	36.6211	79.291	36.6211	79.22	36.6211	79.2498	36.6211	79.1976	36.6211	79.2183	36.6211	79.1863	36.6211	79.1969	36.6211	79.1862
38.0859	79.6027	38.0859	79.5925	38.0859	79.6019	38.0859	79.5713	38.0859	79.5898	38.0859	79.5399	38.0859	79.5671	38.0859	79.4991	38.0859	79.5342	38.0859	79.4505	38.0859	79.4923	38.0859	79.3957	38.0859	79.4427	38.0859	79.3369	38.0859	79.3875	38.0859	79.2765	38.0859	79.3287	38.0859	79.217	38.0859	79.2688	38.0859	79.1607	38.0859	79.2103	38.0859	79.1096	38.0859	79.1556	38.0859	79.0652	38.0859	79.1062	38.0859	79.0284	38.0859	79.0634	38.0859	78.9996	38.0859	79.0276	38.0859	78.9785	38.0859	78.9992	38.0859	78.9648	38.0859	78.9781	38.0859	78.9579	38.0859	78.9644	38.0859	78.9577
39.5508	80.0196	39.5508	80.0121	39.5508	80.0158	39.5508	79.9936	39.5508	80.0007	39.5508	79.9648	39.5508	79.9744	39.5508	79.9264	39.5508	79.9377	39.5508	79.8797	39.5508	79.8916	39.5508	79.826	39.5508	79.8376	39.5508	79.7671	39.5508	79.7778	39.5508	79.7052	39.5508	79.7147	39.5508	79.6427	39.5508	79.651	39.5508	79.5821	39.5508	79.5895	39.5508	79.5258	39.5508	79.533	39.5508	79.4761	39.5508	79.4834	39.5508	79.4344	39.5508	79.4422	39.5508	79.4017	39.5508	79.4095	39.5508	79.3779	39.5508	79.385	39.5508	79.3625	39.5508	79.3679	39.5508	79.3544	39.5508	79.3573	39.5508	79.3528
41.0156	80.7221	41.0156	80.7131	41.0156	80.7166	41.0156	80.69	41.0156	80.6967	41.0156	80.6531	41.0156	80.6627	41.0156	80.6033	41.0156	80.6153	41.0156	80.5416	41.0156	80.5555	41.0156	80.4692	41.0156	80.4852	41.0156	80.3883	41.0156	80.4063	41.0156	80.3011	41.0156	80.3214	41.0156	80.2106	41.0156	80.2331	41.0156	80.12	41.0156	80.1445	41.0156	80.0325	41.0156	80.0584	41.0156	79.9513	41.0156	79.9776	41.0156	79.8791	41.0156	79.9044	41.0156	79.8183	41.0156	79.8409	41.0156	79.7704	41.0156	79.7887	41.0156	79.7366	41.0156	79.7493	41.0156	79.7174	41.0156	79.7239	41.0156	79.7131
42.4805	80.9889	42.4805	80.9751	42.4805	80.9882	42.4805	80.9474	42.4805	80.9728	42.4805	80.9069	42.4805	80.9429	42.4805	80.8548	42.4805	80.899	42.4805	80.7929	42.4805	80.842	42.4805	80.7227	42.4805	80.7735	42.4805	80.6461	42.4805	80.6953	42.4805	80.5647	42.4805	80.61	42.4805	80.4803	42.4805	80.5205	42.4805	80.3953	42.4805	80.4301	42.4805	80.3125	42.4805	80.3422	42.4805	80.2354	42.4805	80.2602	42.4805	80.1672	42.4805	80.1869	42.4805	80.1102	42.4805	80.1247	42.4805	80.0657	42.4805	80.0754	42.4805	80.0343	42.4805	80.0399	42.4805	80.0158	42.4805	80.0183	42.4805	80.0104
43.9453	81.6457	43.9453	81.6408	43.9453	81.6361	43.9453	81.6216	43.9453	81.6122	43.9453	81.5889	43.9453	81.5744	43.9453	81.5438	43.9453	81.5239	43.9453	81.4878	43.9453	81.462	43.9453	81.4226	43.9453	81.3906	43.9453	81.3502	43.9453	81.3118	43.9453	81.273	43.9453	81.2282	43.9453	81.1932	43.9453	81.1425	43.9453	81.1132	43.9453	81.0577	43.9453	81.0356	43.9453	80.9767	43.9453	80.9626	43.9453	80.9022	43.9453	80.8962	43.9453	80.8371	43.9453	80.8381	43.9453	80.7835	43.9453	80.7895	43.9453	80.7434	43.9453	80.7512	43.9453	80.7176	43.9453	80.724	43.9453	80.7062	43.9453	80.7087
45.4102	82.0077	45.4102	82.0046	45.4102	81.9961	45.4102	81.9872	45.4102	81.9698	45.4102	81.9564	45.4102	81.9295	45.4102	81.9134	45.4102	81.8761	45.4102	81.8598	45.4102	81.811	45.4102	81.7976	45.4102	81.7361	45.4102	81.7288	45.4102	81.6537	45.4102	81.6556	45.4102	81.5667	45.4102	81.5801	45.4102	81.4779	45.4102	81.5041	45.4102	81.3905	45.4102	81.4294	45.4102	81.3076	45.4102	81.3574	45.4102	81.2325	45.4102	81.2895	45.4102	81.168	45.4102	81.2272	45.4102	81.1166	45.4102	81.1719	45.4102	81.08	45.4102	81.1252	45.4102	81.0593	45.4102	81.089	45.4102	81.0545	45.4102	81.0648
46.875	82.2791	46.875	82.2742	46.875	82.2694	46.875	82.2552	46.875	82.245	46.875	82.2229	46.875	82.2067	46.875	82.1789	46.875	82.1555	46.875	82.1247	46.875	82.0929	46.875	82.0626	46.875	82.0211	46.875	81.9948	46.875	81.9426	46.875	81.9233	46.875	81.8601	46.875	81.8506	46.875	81.7766	46.875	81.7783	46.875	81.695	46.875	81.7084	46.875	81.6183	46.875	81.6423	46.875	81.5491	46.875	81.5813	46.875	81.4898	46.875	81.5265	46.875	81.4424	46.875	81.479	46.875	81.4085	46.875	81.4397	46.875	81.3887	46.875	81.4098	46.875	81.383	46.875	81.3904
48.3398	82.5878	48.3398	82.5844	48.3398	82.5762	48.3398	82.5667	48.3398	82.55	48.3398	82.5355	48.3398	82.5096	48.3398	82.4921	48.3398	82.4565	48.3398	82.4382	48.3398	82.3922	48.3398	82.376	48.3398	82.3193	48.3398	82.3075	48.3398	82.2402	48.3398	82.2351	48.3398	82.1581	48.3398	82.1611	48.3398	82.0758	48.3398	82.0876	48.3398	81.9965	48.3398	82.0166	48.3398	81.9226	48.3398	81.9499	48.3398	81.8567	48.3398	81.8887	48.3398	81.8007	48.3398	81.8344	48.3398	81.7561	48.3398	81.7879	48.3398	81.724	48.3398	81.7502	48.3398	81.7049	48.3398	81.7221	48.3398	81.6986	48.3398	81.7046
51.2695	83.2272	51.2695	83.2277	51.2695	83.212	51.2695	83.2137	51.2695	83.1822	51.2695	83.1858	51.2695	83.1386	51.2695	83.1452	51.2695	83.0825	51.2695	83.0933	51.2695	83.0155	51.2695	83.032	51.2695	82.9398	51.2695	82.9633	51.2695	82.858	51.2695	82.8893	51.2695	82.7729	51.2695	82.8126	51.2695	82.6874	51.2695	82.7353	51.2695	82.6047	51.2695	82.6597	51.2695	82.5275	51.2695	82.5878	51.2695	82.4587	51.2695	82.5214	51.2695	82.4006	51.2695	82.4618	51.2695	82.3551	51.2695	82.4101	51.2695	82.3234	51.2695	82.3672	51.2695	82.3059	51.2695	82.3343	51.2695	82.3025	51.2695	82.3123
52.7344	83.4724	52.7344	83.4745	52.7344	83.4556	52.7344	83.4622	52.7344	83.4244	52.7344	83.4361	52.7344	83.3796	52.7344	83.3973	52.7344	83.3222	52.7344	83.3472	52.7344	83.254	52.7344	83.2875	52.7344	83.1773	52.7344	83.2201	52.7344	83.0945	52.7344	83.1474	52.7344	83.0085	52.7344	83.0714	52.7344	82.9223	52.7344	82.9945	52.7344	82.8388	52.7344	82.9187	52.7344	82.761	52.7344	82.8462	52.7344	82.6917	52.7344	82.7784	52.7344	82.6333	52.7344	82.7168	52.7344	82.5881	52.7344	82.6625	52.7344	82.5575	52.7344	82.6164	52.7344	82.5419	52.7344	82.5799	52.7344	82.5412	52.7344	82.5544
54.1992	83.6861	54.1992	83.6868	54.1992	83.6711	54.1992	83.6735	54.1992	83.6421	54.1992	83.6471	54.1992	83.5995	54.1992	83.6088	54.1992	83.5448	54.1992	83.56	54.1992	83.4793	54.1992	83.5028	54.1992	83.4054	54.1992	83.4389	54.1992	83.3256	54.1992	83.3706	54.1992	83.2425	54.1992	83.2998	54.1992	83.159	54.1992	83.2284	54.1992	83.0782	54.1992	83.1582	54.1992	83.0028	54.1992	83.0908	54.1992	82.9357	54.1992	83.0274	54.1992	82.8795	54.1992	82.969	54.1992	82.8362	54.1992	82.9168	54.1992	82.8073	54.1992	82.8717	54.1992	82.7935	54.1992	82.8352	54.1992	82.7944	54.1992	82.8088
55.6641	83.9055	55.6641	83.9056	55.6641	83.8908	55.6641	83.8914	55.6641	83.8617	55.6641	83.8637	55.6641	83.8188	55.6641	83.8239	55.6641	83.7633	55.6641	83.7737	55.6641	83.6971	55.6641	83.715	55.6641	83.6224	55.6641	83.65	55.6641	83.5418	55.6641	83.581	55.6641	83.4584	55.6641	83.5101	55.6641	83.3751	55.6641	83.4395	55.6641	83.2951	55.6641	83.3708	55.6641	83.2213	55.6641	83.3056	55.6641	83.1563	55.6641	83.2448	55.6641	83.1027	55.6641	83.1894	55.6641	83.0621	55.6641	83.1402	55.6641	83.0356	55.6641	83.0979	55.6641	83.0235	55.6641	83.0637	55.6641	83.025	55.6641	83.0389
58.5938	84.4349	58.5938	84.4281	58.5938	84.4261	58.5938	84.4063	58.5938	84.4019	58.5938	84.3706	58.5938	84.3628	58.5938	84.3226	58.5938	84.31	58.5938	84.2643	58.5938	84.2453	58.5938	84.198	58.5938	84.1709	58.5938	84.1263	58.5938	84.0895	58.5938	84.0518	58.5938	84.0041	58.5938	83.977	58.5938	83.9177	58.5938	83.9039	58.5938	83.8337	58.5938	83.8344	58.5938	83.7553	58.5938	83.7696	58.5938	83.6853	58.5938	83.7107	58.5938	83.6264	58.5938	83.6584	58.5938	83.5805	58.5938	83.6135	58.5938	83.5483	58.5938	83.5767	58.5938	83.53	58.5938	83.5491	58.5938	83.5247	58.5938	83.5314
60.0586	84.662	60.0586	84.6553	60.0586	84.6532	60.0586	84.6336	60.0586	84.629	60.0586	84.598	60.0586	84.5902	60.0586	84.55	60.0586	84.5378	60.0586	84.4915	60.0586	84.4738	60.0586	84.4249	60.0586	84.4005	60.0586	84.3527	60.0586	84.3204	60.0586	84.2775	60.0586	84.2367	60.0586	84.2018	60.0586	84.1525	60.0586	84.1282	60.0586	84.0709	60.0586	84.0584	60.0586	83.9949	60.0586	83.9942	60.0586	83.9272	60.0586	83.9367	60.0586	83.8701	60.0586	83.8867	60.0586	83.8251	60.0586	83.8447	60.0586	83.793	60.0586	83.8112	60.0586	83.7739	60.0586	83.7866	60.0586	83.7671	60.0586	83.7717
62.9883	85.0775	62.9883	85.0667	62.9883	85.0728	62.9883	85.0411	62.9883	85.0529	62.9883	85.0016	62.9883	85.0183	62.9883	84.9501	62.9883	84.9705	62.9883	84.8888	62.9883	84.9113	62.9883	84.8201	62.9883	84.843	62.9883	84.7471	62.9883	84.7686	62.9883	84.6726	62.9883	84.6908	62.9883	84.5996	62.9883	84.6128	62.9883	84.5306	62.9883	84.5376	62.9883	84.4676	62.9883	84.4677	62.9883	84.412	62.9883	84.4057	62.9883	84.3647	62.9883	84.3532	62.9883	84.3258	62.9883	84.3113	62.9883	84.2951	62.9883	84.2805	62.9883	84.2722	62.9883	84.2604	62.9883	84.257	62.9883	84.2505	62.9883	84.2496
64.4531	85.2668	64.4531	85.255	64.4531	85.2626	64.4531	85.2279	64.4531	85.2427	64.4531	85.1865	64.4531	85.2077	64.4531	85.1328	64.4531	85.159	64.4531	85.069	64.4531	85.0986	64.4531	84.998	64.4531	85.029	64.4531	84.9227	64.4531	84.9529	64.4531	84.8463	64.4531	84.8736	64.4531	84.7719	64.4531	84.7942	64.4531	84.7022	64.4531	84.7179	64.4531	84.6392	64.4531	84.6475	64.4531	84.5844	64.4531	84.5854	64.4531	84.5385	64.4531	84.5333	64.4531	84.5014	64.4531	84.4922	64.4531	84.4727	64.4531	84.4621	64.4531	84.4517	64.4531	84.4427	64.4531	84.438	64.4531	84.4329	64.4531	84.4316
67.3828	85.5812	67.3828	85.5652	67.3828	85.58	67.3828	85.5327	67.3828	85.5618	67.3828	85.4849	67.3828	85.5273	67.3828	85.424	67.3828	85.4781	67.3828	85.3527	67.3828	85.4163	67.3828	85.2743	67.3828	85.3447	67.3828	85.1923	67.3828	85.2664	67.3828	85.1107	67.3828	85.1849	67.3828	85.033	67.3828	85.1037	67.3828	84.9622	67.3828	85.0264	67.3828	84.9005	67.3828	84.9557	67.3828	84.8494	67.3828	84.894	67.3828	84.809	67.3828	84.8427	67.3828	84.7788	67.3828	84.8023	67.3828	84.7575	67.3828	84.7725	67.3828	84.7438	67.3828	84.7523	67.3828	84.7366	67.3828	84.7404	67.3828	84.7354
68.8477	85.7316	68.8477	85.7123	68.8477	85.7332	68.8477	85.6759	68.8477	85.7173	68.8477	85.6238	68.8477	85.6846	68.8477	85.558	68.8477	85.6367	68.8477	85.4814	68.8477	85.5757	68.8477	85.3975	68.8477	85.5042	68.8477	85.3099	68.8477	85.4254	68.8477	85.2229	68.8477	85.3427	68.8477	85.1402	68.8477	85.2596	68.8477	85.0652	68.8477	85.1796	68.8477	85.0004	68.8477	85.1056	68.8477	84.9473	68.8477	85.04	68.8477	84.9064	68.8477	84.9843	68.8477	84.877	68.8477	84.9391	68.8477	84.858	68.8477	84.904	68.8477	84.8479	68.8477	84.8782	68.8477	84.8453	68.8477	84.8603	68.8477	84.8495
71.7773	86.0213	71.7773	85.9985	71.7773	86.0257	71.7773	85.958	71.7773	86.0121	71.7773	85.901	71.7773	85.9813	71.7773	85.8298	71.7773	85.9349	71.7773	85.7471	71.7773	85.8752	71.7773	85.6566	71.7773	85.8048	71.7773	85.5624	71.7773	85.7268	71.7773	85.4688	71.7773	85.6444	71.7773	85.3802	71.7773	85.5611	71.7773	85.3003	71.7773	85.4801	71.7773	85.2321	71.7773	85.4041	71.7773	85.1773	71.7773	85.3354	71.7773	85.1365	71.7773	85.2751	71.7773	85.1092	71.7773	85.224	71.7773	85.0939	71.7773	85.182	71.7773	85.089	71.7773	85.1484	71.7773	85.0927	71.7773	85.1226	71.7773	85.1041
74.707	86.3355	74.707	86.3144	74.707	86.3379	74.707	86.2751	74.707	86.3221	74.707	86.2186	74.707	86.2894	74.707	86.1471	74.707	86.2415	74.707	86.0632	74.707	86.1809	74.707	85.9708	74.707	86.1105	74.707	85.8741	74.707	86.0335	74.707	85.7778	74.707	85.9535	74.707	85.6865	74.707	85.8739	74.707	85.6047	74.707	85.7978	74.707	85.5358	74.707	85.7278	74.707	85.4821	74.707	85.6657	74.707	85.4444	74.707	85.6121	74.707	85.4221	74.707	85.5667	74.707	85.4137	74.707	85.5285	74.707	85.4165	74.707	85.4963	74.707	85.428	74.707	85.4689	74.707	85.446
77.6367	86.4949	77.6367	86.4798	77.6367	86.491	77.6367	86.4461	77.6367	86.4688	77.6367	86.3949	77.6367	86.4297	77.6367	86.3283	77.6367	86.3756	77.6367	86.2491	77.6367	86.3093	77.6367	86.1611	77.6367	86.2341	77.6367	86.0688	77.6367	86.1538	77.6367	85.9767	77.6367	86.0723	77.6367	85.8897	77.6367	85.9935	77.6367	85.8121	77.6367	85.9208	77.6367	85.747	77.6367	85.8571	77.6367	85.6966	77.6367	85.8036	77.6367	85.6614	77.6367	85.7608	77.6367	85.6404	77.6367	85.7274	77.6367	85.6316	77.6367	85.7018	77.6367	85.6322	77.6367	85.6815	77.6367	85.6394	77.6367	85.6648	77.6367	85.6507
79.1016	86.5278	79.1016	86.5152	79.1016	86.5212	79.1016	86.4838	79.1016	86.496	79.1016	86.4345	79.1016	86.4536	79.1016	86.3695	79.1016	86.3962	79.1016	86.2917	79.1016	86.3266	79.1016	86.2049	79.1016	86.2483	79.1016	86.1134	79.1016	86.1653	79.1016	86.022	79.1016	86.0817	79.1016	85.9356	79.1016	86.0018	79.1016	85.8584	79.1016	85.9293	79.1016	85.7939	79.1016	85.867	79.1016	85.744	79.1016	85.8163	79.1016	85.7091	79.1016	85.7773	79.1016	85.6882	79.1016	85.7488	79.1016	85.679	79.1016	85.7283	79.1016	85.6785	79.1016	85.7134	79.1016	85.6835	79.1016	85.7016	79.1016	85.6917
82.0312	86.6876	82.0312	86.677	82.0312	86.6775	82.0312	86.6461	82.0312	86.6474	82.0312	86.5959	82.0312	86.5985	82.0312	86.5288	82.0312	86.5332	82.0312	86.4476	82.0312	86.4544	82.0312	86.3564	82.0312	86.366	82.0312	86.2597	82.0312	86.2722	82.0312	86.1627	82.0312	86.1779	82.0312	86.0704	82.0312	86.0878	82.0312	85.9875	82.0312	86.0064	82.0312	85.9177	82.0312	85.9372	82.0312	85.8631	82.0312	85.8824	82.0312	85.8241	82.0312	85.8424	82.0312	85.7994	82.0312	85.816	82.0312	85.7865	82.0312	85.8002	82.0312	85.7817	82.0312	85.7916	82.0312	85.7817	82.0312	85.7869	82.0312	85.7839
84.9609	86.872	84.9609	86.8604	84.9609	86.8615	84.9609	86.827	84.9609	86.8296	84.9609	86.7732	84.9609	86.7776	84.9609	86.701	84.9609	86.7079	84.9609	86.6136	84.9609	86.6235	84.9609	86.515	84.9609	86.5281	84.9609	86.41	84.9609	86.426	84.9609	86.3037	84.9609	86.3219	84.9609	86.2012	84.9609	86.2208	84.9609	86.1073	84.9609	86.127	84.9609	86.0257	84.9609	86.0445	84.9609	85.9587	84.9609	85.9756	84.9609	85.9072	84.9609	85.9216	84.9609	85.8703	84.9609	85.8818	84.9609	85.8461	84.9609	85.8546	84.9609	85.8319	84.9609	85.8374	84.9609	85.8252	84.9609	85.8279	84.9609	85.824
87.8906	86.8611	87.8906	86.8505	87.8906	86.8505	87.8906	86.8191	87.8906	86.8194	87.8906	86.7681	87.8906	86.7694	87.8906	86.6997	87.8906	86.7028	87.8906	86.6173	87.8906	86.6229	87.8906	86.5249	87.8906	86.5335	87.8906	86.4273	87.8906	86.4392	87.8906	86.3299	87.8906	86.3447	87.8906	86.2375	87.8906	86.2548	87.8906	86.1549	87.8906	86.1737	87.8906	86.0852	87.8906	86.1047	87.8906	86.0305	87.8906	86.0498	87.8906	85.991	87.8906	86.009	87.8906	85.9653	87.8906	85.9811	87.8906	85.9508	87.8906	85.9635	87.8906	85.9443	87.8906	85.9533	87.8906	85.9429	87.8906	85.9475	87.8906	85.9443
90.8203	86.8761	90.8203	86.868	90.8203	86.8617	90.8203	86.8379	90.8203	86.8255	90.8203	86.7871	90.8203	86.7691	90.8203	86.718	90.8203	86.6949	90.8203	86.6339	90.8203	86.6064	90.8203	86.5393	90.8203	86.5077	90.8203	86.4392	90.8203	86.4038	90.8203	86.3389	90.8203	86.2999	90.8203	86.2438	90.8203	86.2015	90.8203	86.1584	90.8203	86.1135	90.8203	86.0861	90.8203	86.0396	90.8203	86.0285	90.8203	85.9823	90.8203	85.9856	90.8203	85.9419	90.8203	85.9558	90.8203	85.9169	90.8203	85.9362	90.8203	85.9046	90.8203	85.9236	90.8203	85.9013	90.8203	85.915	90.8203	85.9034	90.8203	85.9084
95.2148	86.8841	95.2148	86.8692	95.2148	86.8769	95.2148	86.8327	95.2148	86.8482	95.2148	86.7761	95.2148	86.7998	95.2148	86.7021	95.2148	86.7343	95.2148	86.6143	95.2148	86.6551	95.2148	86.5178	95.2148	86.5665	95.2148	86.418	95.2148	86.4734	95.2148	86.3209	95.2148	86.3807	95.2148	86.2322	95.2148	86.2935	95.2148	86.1569	95.2148	86.2162	95.2148	86.0981	95.2148	86.152	95.2148	86.057	95.2148	86.1027	95.2148	86.0327	95.2148	86.0685	95.2148	86.022	95.2148	86.0478	95.2148	86.0207	95.2148	86.0375	95.2148	86.0243	95.2148	86.0339	95.2148	86.0288	95.2148	86.033	95.2148	86.0318
98.1445	86.8562	98.1445	86.8437	98.1445	86.8445	98.1445	86.8074	98.1445	86.8092	98.1445	86.7489	98.1445	86.7524	98.1445	86.6709	98.1445	86.6768	98.1445	86.5774	98.1445	86.5865	98.1445	86.4733	98.1445	86.4865	98.1445	86.3645	98.1445	86.3825	98.1445	86.2573	98.1445	86.2806	98.1445	86.158	98.1445	86.1866	98.1445	86.0722	98.1445	86.1056	98.1445	86.0039	98.1445	86.0411	98.1445	85.9553	98.1445	85.9944	98.1445	85.9259	98.1445	85.9646	98.1445	85.9133	98.1445	85.9489	98.1445	85.913	98.1445	85.9427	98.1445	85.9198	98.1445	85.9412	98.1445	85.9287	98.1445	85.9399	98.1445	85.936
101.074	86.762	101.074	86.7605	101.074	86.7382	101.074	86.7344	101.074	86.6896	101.074	86.6854	101.074	86.6179	101.074	86.6165	101.074	86.526	101.074	86.5315	101.074	86.4181	101.074	86.4354	101.074	86.2993	101.074	86.3336	101.074	86.176	101.074	86.2318	101.074	86.0552	101.074	86.1354	101.074	85.9438	101.074	86.049	101.074	85.8485	101.074	85.9759	101.074	85.7742	101.074	85.9174	101.074	85.7235	101.074	85.8733	101.074	85.6966	101.074	85.8414	101.074	85.6903	101.074	85.8183	101.074	85.6997	101.074	85.7999	101.074	85.7186	101.074	85.7824	101.074	85.7412	101.074	85.763
105.469	86.7834	105.469	86.7624	105.469	86.773	105.469	86.7107	105.469	86.7323	105.469	86.6303	105.469	86.6632	105.469	86.5247	105.469	86.5693	105.469	86.399	105.469	86.4549	105.469	86.2596	105.469	86.3258	105.469	86.1144	105.469	86.1883	105.469	85.9718	105.469	86.0493	105.469	85.8403	105.469	85.9159	105.469	85.7271	105.469	85.7943	105.469	85.637	105.469	85.6902	105.469	85.5719	105.469	85.6073	105.469	85.5299	105.469	85.5469	105.469	85.5065	105.469	85.5083	105.469	85.4957	105.469	85.488	105.469	85.4914	105.469	85.4811	105.469	85.4887	105.469	85.4818	105.469	85.4854
108.398	87.1287	108.398	87.1047	108.398	87.1203	108.398	87.0489	108.398	87.0803	108.398	86.9633	108.398	87.0107	108.398	86.851	108.398	86.9149	108.398	86.7169	108.398	86.7973	108.398	86.567	108.398	86.6636	108.398	86.4086	108.398	86.5201	108.398	86.2499	108.398	86.3739	108.398	86.0991	108.398	86.232	108.398	85.9641	108.398	86.1006	108.398	85.8511	108.398	85.9849	108.398	85.7638	108.398	85.8883	108.398	85.7026	108.398	85.812	108.398	85.6652	108.398	85.7552	108.398	85.647	108.398	85.715	108.398	85.6423	108.398	85.6876	108.398	85.6464	108.398	85.6689	108.398	85.6556
112.793	87.18	112.793	87.1697	112.793	87.1596	112.793	87.129	112.793	87.1095	112.793	87.0593	112.793	87.0318	112.793	86.9632	112.793	86.9299	112.793	86.8447	112.793	86.8086	112.793	86.7093	112.793	86.6736	112.793	86.5635	112.793	86.5314	112.793	86.4149	112.793	86.3892	112.793	86.2715	112.793	86.2538	112.793	86.1413	112.793	86.1313	112.793	86.0303	112.793	86.0263	112.793	85.9424	112.793	85.9416	112.793	85.8784	112.793	85.8778	112.793	85.8358	112.793	85.8336	112.793	85.81	112.793	85.8062	112.793	85.7958	112.793	85.7915	112.793	85.7885	112.793	85.7856	112.793	85.7852
117.188	87.0518	117.188	87.0316	117.188	87.0414	117.188	86.9823	117.188	87.0001	117.188	86.9064	117.188	86.9289	117.188	86.8075	117.188	86.8304	117.188	86.6897	117.188	86.7087	117.188	86.5579	117.188	86.5695	117.188	86.4177	117.188	86.42	117.188	86.2753	117.188	86.2683	117.188	86.137	117.188	86.1228	117.188	86.0095	117.188	85.9914	117.188	85.8986	117.188	85.8803	117.188	85.8087	117.188	85.793	117.188	85.7416	117.188	85.7303	117.188	85.6966	117.188	85.6897	117.188	85.6701	117.188	85.6666	117.188	85.6569	117.188	85.6556	117.188	85.6518	117.188	85.6515	117.188	85.6506
120.117	87.0066	120.117	86.9804	120.117	87.0001	120.117	86.9227	120.117	86.9607	120.117	86.8364	120.117	86.8895	120.117	86.7253	120.117	86.7892	120.117	86.5946	120.117	86.6637	120.117	86.4501	120.117	86.5185	120.117	86.2988	120.117	86.3602	120.117	86.1474	120.117	86.1968	120.117	86.0026	120.117	86.0369	120.117	85.8706	120.117	85.8888	120.117	85.7562	120.117	85.76	120.117	85.6626	120.117	85.6557	120.117	85.5911	120.117	85.5781	120.117	85.5407	120.117	85.5259	120.117	85.5084	120.117	85.4953	120.117	85.4897	120.117	85.4803	120.117	85.48	120.117	85.4751	120.117	85.4755
124.512	87.1581	124.512	87.1228	124.512	87.1622	124.512	87.0576	124.512	87.1352	124.512	86.9648	124.512	87.0782	124.512	86.8483	124.512	86.9937	124.512	86.7132	124.512	86.8853	124.512	86.5657	124.512	86.7576	124.512	86.413	124.512	86.6161	124.512	86.2623	124.512	86.4675	124.512	86.1208	124.512	86.3187	124.512	85.9944	124.512	86.1768	124.512	85.8877	124.512	86.0483	124.512	85.8029	124.512	85.938	124.512	85.7404	124.512	85.8489	124.512	85.6983	124.512	85.7811	124.512	85.6735	124.512	85.7326	124.512	85.6621	124.512	85.6999	124.512	85.6605	124.512	85.6788	124.512	85.6663
128.906	86.9487	128.906	86.9106	128.906	86.955	128.906	86.8417	128.906	86.9304	128.906	86.7444	128.906	86.8771	128.906	86.6231	128.906	86.7984	128.906	86.4839	128.906	86.6986	128.906	86.3345	128.906	86.5831	128.906	86.1837	128.906	86.4575	128.906	86.0404	128.906	86.3281	128.906	85.9128	128.906	86.2013	128.906	85.8073	128.906	86.0831	128.906	85.7276	128.906	85.9789	128.906	85.6744	128.906	85.8922	128.906	85.6453	128.906	85.8248	128.906	85.6358	128.906	85.7756	128.906	85.6402	128.906	85.7416	128.906	85.6526	128.906	85.7181	128.906	85.6683	128.906	85.7003	128.906	85.6844
133.301	86.8601	133.301	86.833	133.301	86.8519	133.301	86.771	133.301	86.81	133.301	86.6762	133.301	86.7377	133.301	86.5529	133.301	86.64	133.301	86.4074	133.301	86.5231	133.301	86.248	133.301	86.3942	133.301	86.0846	133.301	86.2612	133.301	85.9284	133.301	86.1319	133.301	85.7902	133.301	86.0136	133.301	85.6792	133.301	85.9121	133.301	85.6014	133.301	85.8316	133.301	85.5584	133.301	85.7733	133.301	85.5471	133.301	85.736	133.301	85.5606	133.301	85.7157	133.301	85.5893	133.301	85.7065	133.301	85.6235	133.301	85.7014	133.301	85.6552	133.301	85.694	133.301	85.6792
139.16	86.7243	139.16	86.7118	139.16	86.6965	139.16	86.6595	139.16	86.6299	139.16	86.57	139.16	86.5275	139.16	86.4473	139.16	86.3947	139.16	86.2978	139.16	86.2384	139.16	86.1294	139.16	86.0675	139.16	85.9518	139.16	85.8922	139.16	85.7756	139.16	85.7233	139.16	85.6118	139.16	85.5711	139.16	85.47	139.16	85.4443	139.16	85.3577	139.16	85.3484	139.16	85.2788	139.16	85.285	139.16	85.2326	139.16	85.2511	139.16	85.2145	139.16	85.2403	139.16	85.2168	139.16	85.2436	139.16	85.2299	139.16	85.2519	139.16	85.245	139.16	85.2573	139.16	85.2553
143.555	86.5649	143.555	86.5453	143.555	86.5432	143.555	86.4853	143.555	86.4812	143.555	86.3874	143.555	86.3814	143.555	86.2557	143.555	86.2482	143.555	86.0966	143.555	86.0876	143.555	85.9178	143.555	85.9075	143.555	85.7291	143.555	85.7174	143.555	85.5409	143.555	85.5279	143.555	85.3642	143.555	85.3501	143.555	85.2085	143.555	85.1942	143.555	85.081	143.555	85.0677	143.555	84.9853	143.555	84.9746	143.555	84.9209	143.555	84.914	143.555	84.8838	143.555	84.8808	143.555	84.8672	143.555	84.8673	143.555	84.8633	143.555	84.8649	143.555	84.8648	143.555	84.8661	143.555	84.8665
147.949	86.206	147.949	86.1755	147.949	86.1959	147.949	86.1058	147.949	86.1453	147.949	85.9998	147.949	86.0562	147.949	85.8622	147.949	85.932	147.949	85.6994	147.949	85.7781	147.949	85.5194	147.949	85.602	147.949	85.3315	147.949	85.4129	147.949	85.1462	147.949	85.2216	147.949	84.9738	147.949	85.0399	147.949	84.8236	147.949	84.8786	147.949	84.7025	147.949	84.7464	147.949	84.6142	147.949	84.648	147.949	84.558	147.949	84.5836	147.949	84.5293	147.949	84.5484	147.949	84.5208	147.949	84.5345	147.949	84.5237	147.949	84.5326	147.949	84.53	147.949	84.5345	147.949	84.5343
153.809	85.9696	153.809	85.9294	153.809	85.9619	153.809	85.843	153.809	85.9069	153.809	85.7137	153.809	85.8069	153.809	85.5472	153.809	85.6664	153.809	85.3517	153.809	85.4915	153.809	85.1374	153.809	85.2911	153.809	84.9166	153.809	85.0759	153.809	84.7027	153.809	84.8588	153.809	84.5089	153.809	84.6541	153.809	84.3464	153.809	84.4755	153.809	84.2226	153.809	84.3339	153.809	84.1402	153.809	84.2348	153.809	84.0969	153.809	84.1768	153.809	84.0855	153.809	84.1524	153.809	84.0962	153.809	84.1495	153.809	84.1175	153.809	84.1553	153.809	84.1395	153.809	84.1592	153.809	84.1545
159.668	86.0778	159.668	86.0389	159.668	86.0691	159.668	85.9535	159.668	86.013	159.668	85.8247	159.668	85.9113	159.668	85.6575	159.668	85.7671	159.668	85.459	159.668	85.5856	159.668	85.2384	159.668	85.3735	159.668	85.0069	159.668	85.1402	159.668	84.7771	159.668	84.8977	159.668	84.5614	159.668	84.66	159.668	84.3713	159.668	84.442	159.668	84.2151	159.668	84.2573	159.668	84.0973	159.668	84.1152	159.668	84.0181	159.668	84.0192	159.668	83.9729	159.668	83.9653	159.668	83.9536	159.668	83.9439	159.668	83.95	159.668	83.9421	159.668	83.9519	159.668	83.9477	159.668	83.9521
165.527	85.9568	165.527	85.9189	165.527	85.9416	165.527	85.8281	165.527	85.8747	165.527	85.687	165.527	85.7591	165.527	85.5003	165.527	85.6	165.527	85.2758	165.527	85.4046	165.527	85.0249	165.527	85.1827	165.527	84.7629	165.527	84.9467	165.527	84.5081	165.527	84.7114	165.527	84.2796	165.527	84.4927	165.527	84.0936	165.527	84.3052	165.527	83.9601	165.527	84.1592	165.527	83.8797	165.527	84.0581	165.527	83.8454	165.527	83.998	165.527	83.8447	165.527	83.9693	165.527	83.8643	165.527	83.9597	165.527	83.8921	165.527	83.9572	165.527	83.9194	165.527	83.9525	165.527	83.9404
171.387	86.0113	171.387	85.979	171.387	85.9899	171.387	85.894	171.387	85.915	171.387	85.7582	171.387	85.7875	171.387	85.5754	171.387	85.61	171.387	85.3512	171.387	85.3867	171.387	85.0939	171.387	85.1244	171.387	84.8153	171.387	84.8331	171.387	84.5305	171.387	84.5274	171.387	84.2571	171.387	84.2266	171.387	84.0137	171.387	83.9537	171.387	83.8164	171.387	83.7316	171.387	83.6753	171.387	83.5771	171.387	83.5918	171.387	83.495	171.387	83.5582	171.387	83.4757	171.387	83.5593	171.387	83.4986	171.387	83.5769	171.387	83.5389	171.387	83.5931	171.387	83.5754	171.387	83.5946
177.246	85.9873	177.246	85.935	177.246	85.9926	177.246	85.8356	177.246	85.9519	177.246	85.6904	177.246	85.8671	177.246	85.5024	177.246	85.7416	177.246	85.2771	177.246	85.5796	177.246	85.0235	177.246	85.3874	177.246	84.7542	177.246	85.1724	177.246	84.4857	177.246	84.9441	177.246	84.2374	177.246	84.7136	177.246	84.0279	177.246	84.4938	177.246	83.8714	177.246	84.2978	177.246	83.7741	177.246	84.1375	177.246	83.7318	177.246	84.0204	177.246	83.7328	177.246	83.9466	177.246	83.7609	177.246	83.9082	177.246	83.8002	177.246	83.8915	177.246	83.8375	177.246	83.8811	177.246	83.865
183.105	85.8983	183.105	85.8805	183.105	85.8686	183.105	85.8142	183.105	85.7937	183.105	85.6997	183.105	85.6772	183.105	85.5393	183.105	85.5238	183.105	85.3372	183.105	85.3402	183.105	85.1011	183.105	85.1346	183.105	84.8422	183.105	84.9175	183.105	84.5761	183.105	84.701	183.105	84.3225	183.105	84.4989	183.105	84.1029	183.105	84.3246	183.105	83.9369	183.105	84.1891	183.105	83.8366	183.105	84.0985	183.105	83.8024	183.105	84.0518	183.105	83.8226	183.105	84.0403	183.105	83.8773	183.105	84.0495	183.105	83.9445	183.105	84.0628	183.105	84.0052	183.105	84.0653	183.105	84.0471
188.965	85.9435	188.965	85.9206	188.965	85.9122	188.965	85.8442	188.965	85.8277	188.965	85.7164	188.965	85.6928	188.965	85.5415	188.965	85.5122	188.965	85.3259	188.965	85.2927	188.965	85.0782	188.965	85.0438	188.965	84.8104	188.965	84.7781	188.965	84.5379	188.965	84.5114	188.965	84.2792	188.965	84.2615	188.965	84.0546	188.965	84.0474	188.965	83.8828	188.965	83.8852	188.965	83.7758	188.965	83.7847	188.965	83.7345	188.965	83.7457	188.965	83.7473	188.965	83.7573	188.965	83.7931	188.965	83.8002	188.965	83.8478	188.965	83.8519	188.965	83.8903	188.965	83.892	188.965	83.9065
196.289	86.5441	196.289	86.5118	196.289	86.5202	196.289	86.4238	196.289	86.4404	196.289	86.2815	196.289	86.3064	196.289	86.0878	196.289	86.1218	196.289	85.8468	196.289	85.892	196.289	85.5654	196.289	85.6255	196.289	85.2536	196.289	85.3339	196.289	84.9257	196.289	85.0322	196.289	84.6005	196.289	84.7383	196.289	84.3015	196.289	84.472	196.289	84.0533	196.289	84.2516	196.289	83.8764	196.289	84.0914	196.289	83.7803	196.289	83.996	196.289	83.7594	196.289	83.9584	196.289	83.794	196.289	83.96	196.289	83.8569	196.289	83.9762	196.289	83.921	196.289	83.9835	196.289	83.9663
203.613	86.6626	203.613	86.619	203.613	86.6539	203.613	86.525	203.613	86.592	203.613	86.3838	203.613	86.4772	203.613	86.1995	203.613	86.3111	203.613	85.978	203.613	86.0967	203.613	85.7264	203.613	85.8391	203.613	85.4533	203.613	85.5461	203.613	85.1683	203.613	85.2286	203.613	84.8831	203.613	84.9014	203.613	84.611	203.613	84.583	203.613	84.3672	203.613	84.2942	203.613	84.1667	203.613	84.0553	203.613	84.0195	203.613	83.8812	203.613	83.9259	203.613	83.7773	203.613	83.8754	203.613	83.7369	203.613	83.8498	203.613	83.7424	203.613	83.8302	203.613	83.7715	203.613	83.8044
210.938	86.487	210.938	86.4227	210.938	86.4973	210.938	86.3048	210.938	86.4544	210.938	86.1363	210.938	86.3608	210.938	85.9226	210.938	86.2199	210.938	85.6724	210.938	86.0367	210.938	85.398	210.938	85.818	210.938	85.1147	210.938	85.5726	210.938	84.8403	210.938	85.3115	210.938	84.5933	210.938	85.0473	210.938	84.3903	210.938	84.7941	210.938	84.2431	210.938	84.5669	210.938	84.1559	210.938	84.3803	210.938	84.1234	210.938	84.2457	210.938	84.1318	210.938	84.1682	210.938	84.1617	210.938	84.1429	210.938	84.1931	210.938	84.1547	210.938	84.2102	210.938	84.1825	210.938	84.2056
218.262	86.3324	218.262	86.3029	218.262	86.3104	218.262	86.2203	218.262	86.2393	218.262	86.0842	218.262	86.1226	218.262	85.8961	218.262	85.965	218.262	85.6597	218.262	85.7723	218.262	85.3819	218.262	85.5524	218.262	85.074	218.262	85.3151	218.262	84.7515	218.262	85.0715	218.262	84.4334	218.262	84.8335	218.262	84.1418	218.262	84.6116	218.262	83.8993	218.262	84.4138	218.262	83.7256	218.262	84.2451	218.262	83.6308	218.262	84.1077	218.262	83.6097	218.262	84.0023	218.262	83.6414	218.262	83.9269	218.262	83.6981	218.262	83.8759	218.262	83.7556	218.262	83.8387	218.262	83.802
225.586	86.4273	225.586	86.4171	225.586	86.3823	225.586	86.3501	225.586	86.2857	225.586	86.227	225.586	86.1426	225.586	86.0511	225.586	85.96	225.586	85.8294	225.586	85.7469	225.586	85.5727	225.586	85.5152	225.586	85.2956	225.586	85.28	225.586	85.0158	225.586	85.0591	225.586	84.7519	225.586	84.8708	225.586	84.5208	225.586	84.7292	225.586	84.3357	225.586	84.6394	225.586	84.2063	225.586	84.5951	225.586	84.1381	225.586	84.5801	225.586	84.1299	225.586	84.5749	225.586	84.1719	225.586	84.563	225.586	84.2465	225.586	84.5343	225.586	84.3336	225.586	84.4852	225.586	84.4166
232.91	86.5055	232.91	86.4982	232.91	86.4391	232.91	86.4183	232.91	86.3007	232.91	86.2692	232.91	86.0948	232.91	86.0566	232.91	85.8297	232.91	85.7893	232.91	85.5175	232.91	85.4796	232.91	85.1749	232.91	85.1445	232.91	84.8234	232.91	84.8053	232.91	84.489	232.91	84.4859	232.91	84.2005	232.91	84.2098	232.91	83.984	232.91	83.9953	232.91	83.8545	232.91	83.8532	232.91	83.8099	232.91	83.7845	232.91	83.8299	232.91	83.78	232.91	83.8843	232.91	83.8208	232.91	83.9437	232.91	83.8831	232.91	83.9867	232.91	83.944	232.91	84.0021	232.91	83.9869
241.699	86.4849	241.699	86.4196	241.699	86.4883	241.699	86.2955	241.699	86.4271	241.699	86.1169	241.699	86.299	241.699	85.8896	241.699	86.1026	241.699	85.6217	241.699	85.8379	241.699	85.3249	241.699	85.508	241.699	85.0146	241.699	85.1209	241.699	84.709	241.699	84.6929	241.699	84.4266	241.699	84.2524	241.699	84.1824	241.699	83.8411	241.699	83.9853	241.699	83.5093	241.699	83.839	241.699	83.2997	241.699	83.745	241.699	83.2275	241.699	83.7012	241.699	83.2713	241.699	83.6978	241.699	83.3844	241.699	83.7141	241.699	83.5162	241.699	83.7224	241.699	83.6279	241.699	83.6978
250.488	86.3019	250.488	86.2283	250.488	86.3125	250.488	86.0926	250.488	86.26	250.488	85.8958	250.488	86.1457	250.488	85.6397	250.488	85.9724	250.488	85.3282	250.488	85.745	250.488	84.9705	250.488	85.4703	250.488	84.5844	250.488	85.1571	250.488	84.1997	250.488	84.817	250.488	83.8566	250.488	84.4662	250.488	83.5949	250.488	84.1283	250.488	83.4379	250.488	83.8346	250.488	83.3809	250.488	83.6186	250.488	83.3969	250.488	83.5022	250.488	83.4536	250.488	83.482	250.488	83.5256	250.488	83.5281	250.488	83.5954	250.488	83.5973	250.488	83.6482	250.488	83.6517	250.488	83.6699
259.277	86.1959	259.277	86.1168	259.277	86.2085	259.277	85.9743	259.277	86.1549	259.277	85.7737	259.277	86.0394	259.277	85.52	259.277	85.869	259.277	85.2168	259.277	85.6519	259.277	84.8667	259.277	85.3966	259.277	84.4753	259.277	85.1109	259.277	84.0561	259.277	84.8034	259.277	83.6368	259.277	84.486	259.277	83.2614	259.277	84.1759	259.277	82.983	259.277	83.8969	259.277	82.8435	259.277	83.6758	259.277	82.8499	259.277	83.5331	259.277	82.9688	259.277	83.4732	259.277	83.1434	259.277	83.4793	259.277	83.3185	259.277	83.5167	259.277	83.4542	259.277	83.5448	259.277	83.53
268.066	86.6447	268.066	86.5705	268.066	86.6491	268.066	86.4288	268.066	86.5855	268.066	86.2257	268.066	86.4585	268.066	85.9696	268.066	86.2733	268.066	85.67	268.066	86.0346	268.066	85.3372	268.066	85.7473	268.066	84.9836	268.066	85.4192	268.066	84.6248	268.066	85.0631	268.066	84.2787	268.066	84.6971	268.066	83.9624	268.066	84.341	268.066	83.6902	268.066	84.0148	268.066	83.4729	268.066	83.7377	268.066	83.3191	268.066	83.5261	268.066	83.2325	268.066	83.3883	268.066	83.2069	268.066	83.3175	268.066	83.2228	268.066	83.2927	268.066	83.2535	268.066	83.2869	268.066	83.2772
276.855	86.0636	276.855	86.0983	276.855	85.9918	276.855	86.087	276.855	85.887	276.855	86.0161	276.855	85.7499	276.855	85.8713	276.855	85.5782	276.855	85.6421	276.855	85.3669	276.855	85.3283	276.855	85.1098	276.855	84.9428	276.855	84.8031	276.855	84.5132	276.855	84.4516	276.855	84.0813	276.855	84.0753	276.855	83.6978	276.855	83.7104	276.855	83.4082	276.855	83.4009	276.855	83.2311	276.855	83.1831	276.855	83.1479	276.855	83.0688	276.855	83.118	276.855	83.0405	276.855	83.1071	276.855	83.0613	276.855	83.1018	276.855	83.0925	276.855	83.1031	276.855	83.1098	276.855	83.1096
287.109	85.7561	287.109	85.7478	287.109	85.7095	287.109	85.69	287.109	85.6016	287.109	85.5886	287.109	85.4259	287.109	85.4513	287.109	85.1827	287.109	85.2843	287.109	84.8844	287.109	85.0891	287.109	84.556	287.109	84.861	287.109	84.2276	287.109	84.5934	287.109	83.9247	287.109	84.2843	287.109	83.6624	287.109	83.9435	287.109	83.4444	287.109	83.5978	287.109	83.2678	287.109	83.2933	287.109	83.1279	287.109	83.0837	287.109	83.0244	287.109	82.9986	287.109	82.9608	287.109	83.0151	287.109	82.9409	287.109	83.0681	287.109	82.9637	287.109	83.0949	287.109	83.0167	287.109	83.072
297.363	85.7113	297.363	85.6515	297.363	85.6928	297.363	85.5187	297.363	85.6006	297.363	85.3268	297.363	85.4462	297.363	85.0945	297.363	85.2452	297.363	84.8403	297.363	85.0133	297.363	84.5762	297.363	84.7663	297.363	84.3046	297.363	84.5189	297.363	84.0207	297.363	84.2798	297.363	83.7218	297.363	84.0474	297.363	83.4179	297.363	83.8137	297.363	83.1331	297.363	83.5762	297.363	82.8938	297.363	83.3485	297.363	82.7149	297.363	83.1549	297.363	82.5982	297.363	83.0127	297.363	82.5422	297.363	82.9174	297.363	82.5463	297.363	82.8456	297.363	82.6016	297.363	82.7715	297.363	82.6856
307.617	85.569	307.617	85.3745	307.617	85.6294	307.617	85.0525	307.617	85.5725	307.617	84.6352	307.617	85.4323	307.617	84.179	307.617	85.251	307.617	83.7579	307.617	85.0676	307.617	83.4423	307.617	84.9081	307.617	83.2666	307.617	84.7808	307.617	83.2062	307.617	84.6779	307.617	83.1917	307.617	84.5803	307.617	83.1521	307.617	84.4636	307.617	83.0497	307.617	84.3041	307.617	82.8898	307.617	84.0886	307.617	82.7077	307.617	83.82	307.617	82.5437	307.617	83.5162	307.617	82.4249	307.617	83.2029	307.617	82.366	307.617	82.9073	307.617	82.379	307.617	82.6566	307.617	82.4755
319.336	87.7861	319.336	87.7733	319.336	87.6421	319.336	87.6013	319.336	87.3386	319.336	87.259	319.336	86.8735	319.336	86.7305	319.336	86.2546	319.336	86.009	319.336	85.5157	319.336	85.126	319.336	84.7413	319.336	84.1934	319.336	84.0862	319.336	83.4307	319.336	83.7403	319.336	83.09	319.336	83.8001	319.336	83.2535	319.336	84.1729	319.336	83.7541	319.336	84.6631	319.336	84.3476	319.336	85.1137	319.336	84.8716	319.336	85.4556	319.336	85.2673	319.336	85.6859	319.336	85.5418	319.336	85.8309	319.336	85.7282	319.336	85.9149	319.336	85.8533	319.336	85.9471	319.336	85.9266
329.59	88.672	329.59	88.6273	329.59	88.6003	329.59	88.4638	329.59	88.4054	329.59	88.1718	329.59	88.0733	329.59	87.7389	329.59	87.5885	329.59	87.1571	329.59	86.9407	329.59	86.433	329.59	86.1334	329.59	85.6049	329.59	85.2	329.59	84.7663	329.59	84.236	329.59	84.0733	329.59	83.4384	329.59	83.6965	329.59	83.0688	329.59	83.7132	329.59	83.2467	329.59	84.0504	329.59	83.8016	329.59	84.549	329.59	84.4505	329.59	85.0587	329.59	85.0102	329.59	85.4809	329.59	85.4243	329.59	85.771	329.59	85.7047	329.59	85.9232	329.59	85.877	329.59	85.9525
341.309	88.0606	341.309	87.9726	341.309	88.0398	341.309	87.7784	341.309	87.902	341.309	87.4725	341.309	87.6348	341.309	87.0421	341.309	87.2236	341.309	86.4712	341.309	86.6547	341.309	85.7518	341.309	85.9217	341.309	84.904	341.309	85.0378	341.309	84.0044	341.309	84.0579	341.309	83.207	341.309	83.1089	341.309	82.7036	341.309	82.4051	341.309	82.6049	341.309	82.1691	341.309	82.8606	341.309	82.4472	341.309	83.3265	341.309	83.053	341.309	83.8616	341.309	83.7369	341.309	84.3609	341.309	84.3305	341.309	84.7538	341.309	84.7603	341.309	85.0015	341.309	85.0111	341.309	85.0891
353.027	87.7111	353.027	87.6728	353.027	87.6528	353.027	87.5363	353.027	87.4932	353.027	87.293	353.027	87.2237	353.027	86.9266	353.027	86.8337	353.027	86.4136	353.027	86.3101	353.027	85.7261	353.027	85.636	353.027	84.8398	353.027	84.7933	353.027	83.7572	353.027	83.7768	353.027	82.5625	353.027	82.6393	353.027	81.5018	353.027	81.5737	353.027	80.9558	353.027	80.947	353.027	81.1139	353.027	81.0397	353.027	81.7445	353.027	81.6916	353.027	82.4969	353.027	82.5089	353.027	83.1665	353.027	83.2261	353.027	83.6761	353.027	83.7432	353.027	83.9994	353.027	84.041	353.027	84.1239
366.211	87.4582	366.211	87.399	366.211	87.445	366.211	87.2692	366.211	87.3571	366.211	87.0689	366.211	87.1883	366.211	86.7939	366.211	86.9259	366.211	86.4328	366.211	86.5521	366.211	85.9659	366.211	86.0509	366.211	85.3702	366.211	85.4178	366.211	84.6316	366.211	84.6621	366.211	83.7684	366.211	83.8015	366.211	82.8644	366.211	82.8662	366.211	82.0919	366.211	81.9419	366.211	81.6629	366.211	81.2392	366.211	81.6787	366.211	81.0376	366.211	82.0323	366.211	81.3893	366.211	82.5076	366.211	82.0146	366.211	82.9214	366.211	82.6063	366.211	83.1687	366.211	83.0159	366.211	83.2045
379.395	87.3917	379.395	87.3213	379.395	87.3659	379.395	87.1587	379.395	87.2388	379.395	86.9012	379.395	87.0075	379.395	86.536	379.395	86.6724	379.395	86.0427	379.395	86.2369	379.395	85.4037	379.395	85.7052	379.395	84.6188	379.395	85.0798	379.395	83.7182	379.395	84.3685	379.395	82.7761	379.395	83.6039	379.395	81.9217	379.395	82.8655	379.395	81.3236	379.395	82.2742	379.395	81.1148	379.395	81.94	379.395	81.2919	379.395	81.8987	379.395	81.7134	379.395	82.1008	379.395	82.2049	379.395	82.4398	379.395	82.6401	379.395	82.7854	379.395	82.9464	379.395	83.0219	379.395	83.0807
392.578	87.3161	392.578	87.242	392.578	87.3155	392.578	87.0928	392.578	87.2388	392.578	86.8684	392.578	87.0794	392.578	86.5658	392.578	86.8223	392.578	86.1707	392.578	86.4432	392.578	85.649	392.578	85.9122	392.578	84.9507	392.578	85.2043	392.578	84.0339	392.578	84.3137	392.578	82.9142	392.578	83.2728	392.578	81.7395	392.578	82.1788	392.578	80.836	392.578	81.225	392.578	80.5348	392.578	80.6779	392.578	80.8215	392.578	80.6969	392.578	81.3808	392.578	81.1515	392.578	81.9395	392.578	81.7477	392.578	82.3723	392.578	82.2603	392.578	82.6361	392.578	82.5896	392.578	82.7129
405.762	86.688	405.762	86.6636	405.762	86.6513	405.762	86.5835	405.762	86.5393	405.762	86.4416	405.762	86.3354	405.762	86.2212	405.762	86.029	405.762	85.8989	405.762	85.6205	405.762	85.4515	405.762	85.12	405.762	84.8611	405.762	84.5414	405.762	84.1157	405.762	83.9055	405.762	83.2141	405.762	83.2551	405.762	82.1986	405.762	82.668	405.762	81.222	405.762	82.2413	405.762	80.5765	405.762	82.0444	405.762	80.5031	405.762	82.0787	405.762	80.914	405.762	82.2761	405.762	81.5081	405.762	82.5291	405.762	82.0586	405.762	82.7309	405.762	82.4723	405.762	82.8073	405.762	82.7236
420.41	87.0121	420.41	87.0177	420.41	86.9472	420.41	86.9496	420.41	86.8281	420.41	86.7906	420.41	86.6465	420.41	86.5248	420.41	86.3794	420.41	86.1397	420.41	85.9922	420.41	85.6242	420.41	85.4407	420.41	84.9647	420.41	84.6711	420.41	84.1459	420.41	83.625	420.41	83.1675	420.41	82.2649	420.41	82.0927	420.41	80.6518	420.41	81.1237	420.41	79.0998	420.41	80.6013	420.41	78.2279	420.41	80.7272	420.41	78.4003	420.41	81.2917	420.41	79.2532	420.41	81.9151	420.41	80.28	420.41	82.3512	420.41	81.2097	420.41	82.5062	420.41	81.9219	420.41	82.3614
435.059	86.9936	435.059	86.909	435.059	87.0322	435.059	86.7726	435.059	87.0206	435.059	86.567	435.059	86.947	435.059	86.2643	435.059	86.7953	435.059	85.835	435.059	86.5482	435.059	85.2623	435.059	86.1879	435.059	84.5578	435.059	85.6926	435.059	83.7618	435.059	85.0299	435.059	82.9196	435.059	84.1591	435.059	82.0513	435.059	83.0529	435.059	81.1656	435.059	81.7516	435.059	80.3522	435.059	80.4604	435.059	79.8597	435.059	79.5915	435.059	79.9113	435.059	79.4639	435.059	80.3732	435.059	79.9023	435.059	80.883	435.059	80.492	435.059	81.1899	435.059	80.9661	435.059	81.2144
451.172	87.0745	451.172	87.0156	451.172	87.0659	451.172	86.9198	451.172	86.964	451.172	86.7993	451.172	86.7661	451.172	86.6387	451.172	86.491	451.172	86.4016	451.172	86.1604	451.172	86.0402	451.172	85.7802	451.172	85.4999	451.172	85.3354	451.172	84.7307	451.172	84.8021	451.172	83.7192	451.172	84.1668	451.172	82.5408	451.172	83.4496	451.172	81.403	451.172	82.7208	451.172	80.5999	451.172	82.0922	451.172	80.3411	451.172	81.6781	451.172	80.6079	451.172	81.5478	451.172	81.1824	451.172	81.6852	451.172	81.7869	451.172	81.9767	451.172	82.2115	451.172	82.254	451.172	82.3634
465.82	86.5706	465.82	86.5556	465.82	86.5033	465.82	86.4932	465.82	86.3238	465.82	86.3993	465.82	86.0203	465.82	86.2523	465.82	85.598	465.82	86.0026	465.82	85.0735	465.82	85.6027	465.82	84.4624	465.82	85.0275	465.82	83.7605	465.82	84.2721	465.82	82.9292	465.82	83.3423	465.82	81.9269	465.82	82.2678	465.82	80.8159	465.82	81.1521	465.82	79.8999	465.82	80.2075	465.82	79.6205	465.82	79.6613	465.82	80.0364	465.82	79.5811	465.82	80.7442	465.82	79.8889	465.82	81.3808	465.82	80.4636	465.82	81.7822	465.82	81.1209	465.82	81.8784	465.82	81.6427
483.398	86.026	483.398	85.9164	483.398	86.0876	483.398	85.7437	483.398	86.1119	483.398	85.5	483.398	86.0955	483.398	85.1876	483.398	86.0146	483.398	84.8074	483.398	85.8247	483.398	84.3405	483.398	85.4683	483.398	83.7406	483.398	84.896	483.398	82.9585	483.398	84.0884	483.398	82.0017	483.398	83.0622	483.398	81.0072	483.398	81.8579	483.398	80.2522	483.398	80.5507	483.398	79.9897	483.398	79.3535	483.398	80.2114	483.398	78.71	483.398	80.6699	483.398	78.9151	483.398	81.0969	483.398	79.6255	483.398	81.334	483.398	80.3331	483.398	81.3441	483.398	80.8409	483.398	81.168
499.512	85.7557	499.512	85.7717	499.512	85.7499	499.512	85.8032	499.512	85.7382	499.512	85.8264	499.512	85.7098	499.512	85.7879	499.512	85.657	499.512	85.6269	499.512	85.5586	499.512	85.2975	499.512	85.3666	499.512	84.7654	499.512	85.0179	499.512	83.9839	499.512	84.4663	499.512	82.883	499.512	83.7052	499.512	81.4143	499.512	82.7559	499.512	79.7127	499.512	81.6488	499.512	78.389	499.512	80.486	499.512	78.268	499.512	79.6015	499.512	79.1464	499.512	79.4548	499.512	80.2086	499.512	80.0173	499.512	81.0381	499.512	80.7825	499.512	81.5187	499.512	81.367	499.512	81.6259
517.09	85.667	517.09	85.6905	517.09	85.6115	517.09	85.6803	517.09	85.5241	517.09	85.6338	517.09	85.4085	517.09	85.548	517.09	85.2715	517.09	85.4104	517.09	85.1088	517.09	85.1933	517.09	84.8891	517.09	84.8592	517.09	84.5492	517.09	84.3589	517.09	84.0019	517.09	83.6169	517.09	83.1634	517.09	82.5338	517.09	82.0152	517.09	81.0613	517.09	80.7062	517.09	79.433	517.09	79.6186	517.09	78.4943	517.09	79.1911	517.09	78.9775	517.09	79.5173	517.09	80.1787	517.09	80.2679	517.09	81.1902	517.09	81.03	517.09	81.7285	517.09	81.5731	517.09	81.8252
536.133	85.4973	536.133	85.4886	536.133	85.4712	536.133	85.4683	536.133	85.4083	536.133	85.4475	536.133	85.3278	536.133	85.4	536.133	85.2384	536.133	85.2719	536.133	85.1112	536.133	85.0065	536.133	84.8821	536.133	84.5564	536.133	84.4761	536.133	83.8818	536.133	83.8372	536.133	82.9509	536.133	82.9378	536.133	81.757	536.133	81.7649	536.133	80.3945	536.133	80.3498	536.133	79.1971	536.133	78.9287	536.133	78.6593	536.133	78.0723	536.133	78.9157	536.133	78.2242	536.133	79.6704	536.133	79.1379	536.133	80.5874	536.133	80.2779	536.133	81.3258	536.133	81.1929	536.133	81.5746
555.176	84.8405	555.176	84.7374	555.176	84.9317	555.176	84.6608	555.176	85.0044	555.176	84.6628	555.176	85.0562	555.176	84.7444	555.176	85.0811	555.176	84.8304	555.176	85.0897	555.176	84.8151	555.176	85.094	555.176	84.6124	555.176	85.0502	555.176	84.1685	555.176	84.8439	555.176	83.4609	555.176	84.3377	555.176	82.4884	555.176	83.4032	555.176	81.2559	555.176	81.9437	555.176	79.8648	555.176	80.0545	555.176	78.8363	555.176	78.4848	555.176	78.9561	555.176	78.4156	555.176	79.954	555.176	79.5107	555.176	80.942	555.176	80.6728	555.176	81.5521	555.176	81.4441	555.176	81.7309
574.219	85.1192	574.219	85.0355	574.219	85.0439	574.219	84.8189	574.219	84.8155	574.219	84.5374	574.219	84.4902	574.219	84.3053	574.219	84.1656	574.219	84.2124	574.219	83.9092	574.219	84.2324	574.219	83.7108	574.219	84.2265	574.219	83.5088	574.219	84.0143	574.219	83.2329	574.219	83.4335	574.219	82.825	574.219	82.3837	574.219	82.2276	574.219	80.8766	574.219	81.3683	574.219	79.1721	574.219	80.2909	574.219	78.0561	574.219	79.4294	574.219	78.3901	574.219	79.3867	574.219	79.671	574.219	80.0585	574.219	80.8928	574.219	80.8875	574.219	81.6323	574.219	81.5361	574.219	81.826
594.727	85.3788	594.727	85.2304	594.727	85.3887	594.727	84.9562	594.727	85.2661	594.727	84.6198	594.727	85.0104	594.727	84.2923	594.727	84.6423	594.727	83.9753	594.727	84.2284	594.727	83.6316	594.727	83.8464	594.727	83.2803	594.727	83.5207	594.727	82.9241	594.727	83.1757	594.727	82.3893	594.727	82.643	594.727	81.4332	594.727	81.7512	594.727	80.0102	594.727	80.4522	594.727	78.4922	594.727	78.9503	594.727	77.7036	594.727	77.8205	594.727	78.0623	594.727	77.7278	594.727	78.9935	594.727	78.564	594.727	79.8887	594.727	79.6022	594.727	80.4724	594.727	80.3463	594.727	80.6387
615.234	85.2167	615.234	85.2581	615.234	85.0695	615.234	85.1379	615.234	84.8857	615.234	84.8489	615.234	84.7072	615.234	84.4569	615.234	84.542	615.234	84.08	615.234	84.4075	615.234	83.8014	615.234	84.3251	615.234	83.5955	615.234	84.2318	615.234	83.327	615.234	83.9769	615.234	82.7819	615.234	83.4261	615.234	81.7279	615.234	82.503	615.234	80.0099	615.234	81.1619	615.234	77.685	615.234	79.4405	615.234	75.42	615.234	77.6516	615.234	74.8455	615.234	76.6014	615.234	76.227	615.234	77.0724	615.234	78.0268	615.234	78.4674	615.234	79.3818	615.234	79.6193	615.234	79.9582
637.207	85.2347	637.207	85.148	637.207	85.1485	637.207	84.864	637.207	84.9363	637.207	84.4109	637.207	84.6372	637.207	83.8974	637.207	84.2831	637.207	83.5044	637.207	83.9134	637.207	83.3355	637.207	83.5479	637.207	83.2526	637.207	83.1609	637.207	82.9835	637.207	82.721	637.207	82.36	637.207	82.172	637.207	81.3815	637.207	81.362	637.207	80.0824	637.207	80.1317	637.207	78.4675	637.207	78.53	637.207	76.8793	637.207	77.0131	637.207	76.5543	637.207	76.417	637.207	77.8458	637.207	77.1509	637.207	79.2743	637.207	78.5241	637.207	80.0885	637.207	79.6797	637.207	80.2246
659.18	86.053	659.18	85.9114	659.18	86.0247	659.18	85.6045	659.18	85.7893	659.18	85.1356	659.18	85.3096	659.18	84.549	659.18	84.6163	659.18	83.89	659.18	83.8573	659.18	83.1782	659.18	83.2054	659.18	82.5406	659.18	82.6753	659.18	82.1625	659.18	82.1996	659.18	81.9178	659.18	81.7763	659.18	81.4401	659.18	81.2744	659.18	80.4408	659.18	80.2945	659.18	78.8098	659.18	78.5137	659.18	76.9744	659.18	76.2993	659.18	76.2462	659.18	75.397	659.18	77.0899	659.18	76.6318	659.18	78.3554	659.18	78.1994	659.18	79.2019	659.18	79.1422	659.18	79.4498
682.617	86.7579	682.617	86.6622	682.617	86.668	682.617	86.3447	682.617	86.4383	682.617	85.8316	682.617	86.0942	682.617	85.2316	682.617	85.6559	682.617	84.7208	682.617	85.1731	682.617	84.436	682.617	84.7292	682.617	84.2696	682.617	84.3599	682.617	83.9269	682.617	83.9824	682.617	83.2382	682.617	83.4551	682.617	82.2003	682.617	82.6457	682.617	80.788	682.617	81.4707	682.617	78.9148	682.617	79.8681	682.617	76.6683	682.617	77.7497	682.617	75.1003	682.617	75.7791	682.617	75.8855	682.617	76.0487	682.617	77.7326	682.617	77.8	682.617	79.0511	682.617	79.0834	682.617	79.5002
707.52	86.5024	707.52	86.4531	707.52	86.3728	707.52	86.1908	707.52	86.0813	707.52	85.7074	707.52	85.6175	707.52	85.0926	707.52	84.9757	707.52	84.5095	707.52	84.2358	707.52	84.0536	707.52	83.6344	707.52	83.7694	707.52	83.4129	707.52	83.645	707.52	83.3946	707.52	83.391	707.52	83.0939	707.52	82.6252	707.52	82.3308	707.52	81.236	707.52	81.2164	707.52	79.3209	707.52	79.675	707.52	77.0975	707.52	77.7925	707.52	75.6233	707.52	76.8341	707.52	76.4378	707.52	77.5891	707.52	78.2256	707.52	78.6788	707.52	79.3961	707.52	79.3981	707.52	79.7022
732.422	86.5695	732.422	86.4498	732.422	86.4731	732.422	86.0856	732.422	86.1313	732.422	85.4618	732.422	85.5565	732.422	84.6732	732.422	84.8703	732.422	83.8872	732.422	84.1888	732.422	83.2564	732.422	83.5595	732.422	82.806	732.422	83.0602	732.422	82.4385	732.422	82.7406	732.422	82.1401	732.422	82.4566	732.422	81.8113	732.422	81.9296	732.422	80.9354	732.422	80.8999	732.422	78.9466	732.422	79.1882	732.422	76.0071	732.422	76.8751	732.422	74.4454	732.422	75.0651	732.422	75.7296	732.422	75.4074	732.422	77.4151	732.422	76.9202	732.422	78.4875	732.422	78.2064	732.422	78.7694
757.324	86.402	757.324	86.2014	757.324	86.2451	757.324	85.7135	757.324	85.8219	757.324	85.0929	757.324	85.2084	757.324	84.3993	757.324	84.3683	757.324	83.6558	757.324	83.406	757.324	83.046	757.324	82.7137	757.324	82.7864	757.324	82.4815	757.324	82.7374	757.324	82.4398	757.324	82.5124	757.324	82.3644	757.324	81.8932	757.324	82.0885	757.324	80.8737	757.324	81.2542	757.324	79.5137	757.324	79.6591	757.324	77.9559	757.324	77.6005	757.324	76.5249	757.324	75.8033	757.324	76.1702	757.324	75.3385	757.324	77.3374	757.324	76.3775	757.324	78.4436	757.324	77.6914	757.324	78.5224
785.156	86.1494	785.156	86.0658	785.156	86.083	785.156	85.726	785.156	85.8263	785.156	85.043	785.156	85.2861	785.156	84.0895	785.156	84.4895	785.156	83.0373	785.156	83.5086	785.156	82.0048	785.156	82.4086	785.156	81.1128	785.156	81.4381	785.156	80.6051	785.156	80.7954	785.156	80.4558	785.156	80.3116	785.156	80.1804	785.156	79.9628	785.156	79.4807	785.156	79.6783	785.156	78.3943	785.156	78.7687	785.156	76.9765	785.156	76.6542	785.156	75.7754	785.156	74.1299	785.156	75.9924	785.156	73.7111	785.156	77.209	785.156	75.6497	785.156	78.3983	785.156	77.8124	785.156	78.7935
811.523	86.1398	811.523	86.0831	811.523	85.8958	811.523	85.6732	811.523	85.5102	811.523	85.037	811.523	84.9979	811.523	84.3474	811.523	84.1782	811.523	83.5868	811.523	83.0778	811.523	82.6837	811.523	82.0115	811.523	81.9001	811.523	81.2074	811.523	81.4206	811.523	80.8767	811.523	80.8675	811.523	80.9165	811.523	80.0244	811.523	80.5214	811.523	79.0892	811.523	79.3366	811.523	77.7976	811.523	77.9968	811.523	76.0262	811.523	76.9087	811.523	75.0261	811.523	76.0955	811.523	75.3509	811.523	76.5585	811.523	75.9562	811.523	77.5845	811.523	76.3804	811.523	77.6658	811.523	76.9836
840.82	86.6676	840.82	86.5042	840.82	86.6288	840.82	86.2289	840.82	86.3192	840.82	85.7453	840.82	85.7615	840.82	84.8635	840.82	84.9552	840.82	83.6723	840.82	83.8811	840.82	82.5998	840.82	82.6524	840.82	81.7789	840.82	81.4987	840.82	80.788	840.82	80.6885	840.82	79.6966	840.82	80.3293	840.82	78.9694	840.82	79.9506	840.82	78.1196	840.82	78.8589	840.82	76.6973	840.82	76.8841	840.82	74.8811	840.82	74.9668	840.82	73.0297	840.82	74.0688	840.82	73.1859	840.82	74.5819	840.82	75.1269	840.82	76.0885	840.82	76.3746	840.82	76.8098	840.82	76.8034
870.117	87.2086	870.117	87.1279	870.117	87.0014	870.117	86.6383	870.117	86.5342	870.117	85.7958	870.117	85.7864	870.117	84.8852	870.117	84.8333	870.117	83.9546	870.117	83.8701	870.117	82.9443	870.117	83.0103	870.117	82.3031	870.117	82.154	870.117	82.2495	870.117	81.4959	870.117	82.1014	870.117	81.2454	870.117	81.2151	870.117	80.8528	870.117	79.6264	870.117	79.9329	870.117	77.5693	870.117	78.5166	870.117	74.6124	870.117	75.9345	870.117	71.4486	870.117	72.1887	870.117	73.2642	870.117	72.1291	870.117	76.5339	870.117	74.703	870.117	78.1945	870.117	76.8067	870.117	78.1436
900.879	86.7878	900.879	86.7255	900.879	86.6566	900.879	86.5124	900.879	86.4257	900.879	86.1074	900.879	86.0813	900.879	85.3423	900.879	85.3953	900.879	84.2628	900.879	84.2708	900.879	83.0268	900.879	82.8072	900.879	81.6694	900.879	81.4078	900.879	80.5455	900.879	80.8647	900.879	80.1196	900.879	80.8632	900.879	80.0598	900.879	80.6753	900.879	79.7078	900.879	80.2534	900.879	78.234	900.879	79.0762	900.879	74.8194	900.879	76.2185	900.879	69.9429	900.879	71.3557	900.879	70.4072	900.879	71.0033	900.879	75.0308	900.879	75.0332	900.879	77.3383	900.879	76.9613	900.879	77.6585
933.105	87.3165	933.105	87.2157	933.105	87.1168	933.105	86.7555	933.105	86.7846	933.105	86.0412	933.105	86.3234	933.105	85.1881	933.105	85.5485	933.105	84.1372	933.105	84.4688	933.105	82.7965	933.105	83.2598	933.105	81.7501	933.105	82.1151	933.105	81.7756	933.105	81.4828	933.105	81.9754	933.105	81.5452	933.105	81.8174	933.105	81.9555	933.105	81.3457	933.105	81.8986	933.105	79.9977	933.105	80.457	933.105	77.3292	933.105	77.524	933.105	73.0305	933.105	74.0605	933.105	69.5561	933.105	72.4685	933.105	73.6299	933.105	74.2994	933.105	76.5667	933.105	76.1952	933.105	77.101
965.332	87.721	965.332	87.5516	965.332	87.5791	965.332	87.2383	965.332	87.0885	965.332	86.9043	965.332	86.4605	965.332	86.3282	965.332	85.8832	965.332	85.1418	965.332	85.0723	965.332	83.6455	965.332	83.8591	965.332	82.472	965.332	82.67	965.332	81.3677	965.332	81.6475	965.332	80.4881	965.332	81.019	965.332	80.5633	965.332	80.953	965.332	80.6107	965.332	80.3766	965.332	79.6268	965.332	79.1314	965.332	77.3946	965.332	77.2943	965.332	74.0833	965.332	74.1135	965.332	71.4865	965.332	70.9693	965.332	73.9728	965.332	73.138	965.332	76.6593	965.332	75.7157	965.332	76.9774
1,000.49	87.7345	1,000.49	87.768	1,000.49	87.6029	1,000.49	87.4076	1,000.49	87.4354	1,000.49	86.7218	1,000.49	87.0439	1,000.49	86.0788	1,000.49	86.2521	1,000.49	85.4786	1,000.49	85.1457	1,000.49	84.4182	1,000.49	83.9332	1,000.49	82.4891	1,000.49	82.3376	1,000.49	80.843	1,000.49	80.7117	1,000.49	80.8849	1,000.49	80.4169	1,000.49	81.1851	1,000.49	80.7856	1,000.49	80.8514	1,000.49	80.7165	1,000.49	79.9102	1,000.49	79.6982	1,000.49	77.9853	1,000.49	77.5934	1,000.49	74.715	1,000.49	74.7383	1,000.49	72.3053	1,000.49	71.9266	1,000.49	74.1056	1,000.49	73.1507	1,000.49	77.0796	1,000.49	76.7501	1,000.49	78.2144
1,035.64	87.1983	1,035.64	87.0865	1,035.64	87.1424	1,035.64	86.8293	1,035.64	86.9888	1,035.64	86.3707	1,035.64	86.6138	1,035.64	85.6277	1,035.64	85.7505	1,035.64	84.46	1,035.64	84.6384	1,035.64	82.8849	1,035.64	83.4272	1,035.64	81.6443	1,035.64	81.8288	1,035.64	81.1037	1,035.64	80.3985	1,035.64	80.4138	1,035.64	79.6457	1,035.64	79.7384	1,035.64	79.5421	1,035.64	79.8878	1,035.64	80.014	1,035.64	79.8883	1,035.64	79.7909	1,035.64	78.2678	1,035.64	77.8997	1,035.64	74.4879	1,035.64	74.1254	1,035.64	70.7521	1,035.64	70.2819	1,035.64	72.4428	1,035.64	72.7747	1,035.64	74.2146	1,035.64	74.9603	1,035.64	74.8231
1,072.27	86.5266	1,072.27	86.3598	1,072.27	86.4186	1,072.27	85.9081	1,072.27	86.0085	1,072.27	85.516	1,072.27	85.5378	1,072.27	85.2229	1,072.27	85.0928	1,072.27	84.4478	1,072.27	84.1521	1,072.27	83.223	1,072.27	82.8159	1,072.27	81.7219	1,072.27	81.4899	1,072.27	79.7896	1,072.27	79.7693	1,072.27	78.905	1,072.27	78.2801	1,072.27	79.4401	1,072.27	78.8604	1,072.27	79.1911	1,072.27	79.9132	1,072.27	78.1803	1,072.27	79.7227	1,072.27	77.1187	1,072.27	77.9009	1,072.27	74.4442	1,072.27	74.2995	1,072.27	69.4997	1,072.27	70.9023	1,072.27	71.137	1,072.27	70.6736	1,072.27	75.4479	1,072.27	73.1697	1,072.27	75.7904
1,108.89	86.0304	1,108.89	86.129	1,108.89	85.9784	1,108.89	86.2001	1,108.89	85.6696	1,108.89	85.626	1,108.89	85.1061	1,108.89	84.3449	1,108.89	84.5155	1,108.89	83.064	1,108.89	83.7526	1,108.89	82.1944	1,108.89	82.3486	1,108.89	80.8847	1,108.89	80.6829	1,108.89	78.887	1,108.89	79.4482	1,108.89	77.8591	1,108.89	78.641	1,108.89	77.5162	1,108.89	77.1153	1,108.89	78.2679	1,108.89	76.6267	1,108.89	78.8539	1,108.89	77.7808	1,108.89	77.3755	1,108.89	77.7216	1,108.89	74.9682	1,108.89	75.707	1,108.89	72.4082	1,108.89	70.3579	1,108.89	72.2994	1,108.89	68.6533	1,108.89	74.2545	1,108.89	72.1787	1,108.89	73.9117
1,148.44	86.2248	1,148.44	85.9616	1,148.44	85.9383	1,148.44	85.3931	1,148.44	85.5071	1,148.44	84.7597	1,148.44	85.1562	1,148.44	84.0475	1,148.44	84.4701	1,148.44	83.7365	1,148.44	83.5501	1,148.44	82.9382	1,148.44	82.7975	1,148.44	80.9906	1,148.44	81.4897	1,148.44	79.3742	1,148.44	79.5229	1,148.44	77.7943	1,148.44	77.6313	1,148.44	76.8255	1,148.44	77.4343	1,148.44	77.5814	1,148.44	78.108	1,148.44	77.5168	1,148.44	77.3731	1,148.44	76.2257	1,148.44	76.8405	1,148.44	72.7973	1,148.44	75.2643	1,148.44	68.817	1,148.44	72.1157	1,148.44	69.8145	1,148.44	70.5116	1,148.44	71.9876	1,148.44	72.5406	1,148.44	73.0428
1,189.45	85.6227	1,189.45	85.6765	1,189.45	86.0769	1,189.45	85.7875	1,189.45	86.2346	1,189.45	84.941	1,189.45	85.7062	1,189.45	83.8218	1,189.45	84.8745	1,189.45	82.9532	1,189.45	83.9529	1,189.45	81.4887	1,189.45	82.8449	1,189.45	80.3638	1,189.45	81.3887	1,189.45	79.1619	1,189.45	79.4263	1,189.45	77.3163	1,189.45	78.028	1,189.45	77.8342	1,189.45	76.8584	1,189.45	77.1944	1,189.45	77.2405	1,189.45	76.2844	1,189.45	77.8744	1,189.45	76.4283	1,189.45	76.6	1,189.45	73.4503	1,189.45	74.573	1,189.45	69.7949	1,189.45	72.0046	1,189.45	71.544	1,189.45	70.4352	1,189.45	74.471	1,189.45	71.9651	1,189.45	74.9357
1,230.47	86.9347	1,230.47	86.8119	1,230.47	86.4399	1,230.47	85.8845	1,230.47	86.0304	1,230.47	85.2927	1,230.47	85.1169	1,230.47	84.5731	1,230.47	84.2147	1,230.47	83.0863	1,230.47	83.6718	1,230.47	81.8769	1,230.47	82.3081	1,230.47	80.6044	1,230.47	81.064	1,230.47	78.9491	1,230.47	79.9195	1,230.47	76.8727	1,230.47	78.1829	1,230.47	73.6953	1,230.47	76.3223	1,230.47	75.5988	1,230.47	75.2904	1,230.47	77.2579	1,230.47	76.6321	1,230.47	75.9948	1,230.47	76.2787	1,230.47	73.8615	1,230.47	74.1326	1,230.47	71.1527	1,230.47	69.5403	1,230.47	71.7611	1,230.47	72.971	1,230.47	73.5766	1,230.47	74.9701	1,230.47	75.3275
1,274.41	86.7218	1,274.41	86.5393	1,274.41	86.5452	1,274.41	86.4402	1,274.41	85.8217	1,274.41	85.343	1,274.41	85.3969	1,274.41	84.4635	1,274.41	84.3779	1,274.41	83.9519	1,274.41	82.9945	1,274.41	82.3492	1,274.41	82.2108	1,274.41	80.8811	1,274.41	81.2224	1,274.41	79.347	1,274.41	80.134	1,274.41	77.518	1,274.41	77.4069	1,274.41	76.8214	1,274.41	75.6829	1,274.41	77.0967	1,274.41	76.6884	1,274.41	76.0681	1,274.41	75.95	1,274.41	75.0606	1,274.41	75.5995	1,274.41	72.3979	1,274.41	73.2407	1,274.41	64.6703	1,274.41	70.4866	1,274.41	67.3247	1,274.41	65.0734	1,274.41	71.1425	1,274.41	72.5527	1,274.41	74.0121
1,319.82	86.9912	1,319.82	86.3034	1,319.82	87.1173	1,319.82	86.5441	1,319.82	86.2971	1,319.82	86.466	1,319.82	85.1531	1,319.82	84.8137	1,319.82	84.7331	1,319.82	83.7129	1,319.82	84.321	1,319.82	82.8763	1,319.82	82.8346	1,319.82	81.6791	1,319.82	81.6329	1,319.82	80.0245	1,319.82	79.3724	1,319.82	78.4489	1,319.82	75.9244	1,319.82	77.2182	1,319.82	76.3039	1,319.82	77.0051	1,319.82	77.8819	1,319.82	78.4512	1,319.82	76.8142	1,319.82	76.5745	1,319.82	76.997	1,319.82	76.9144	1,319.82	76.6351	1,319.82	74.2853	1,319.82	71.0317	1,319.82	71.8708	1,319.82	69.2312	1,319.82	72.3954	1,319.82	70.2812	1,319.82	73.7856
1,366.7	86.4887	1,366.7	86.2948	1,366.7	85.9897	1,366.7	85.0809	1,366.7	85.4636	1,366.7	84.1045	1,366.7	84.8682	1,366.7	83.858	1,366.7	84.2137	1,366.7	83.2911	1,366.7	82.9889	1,366.7	82.5675	1,366.7	81.2017	1,366.7	80.7434	1,366.7	79.9747	1,366.7	78.474	1,366.7	78.6217	1,366.7	77.2989	1,366.7	77.7717	1,366.7	75.7573	1,366.7	76.2806	1,366.7	73.7797	1,366.7	73.8387	1,366.7	75.6603	1,366.7	76.0956	1,366.7	78.4282	1,366.7	76.4692	1,366.7	75.0468	1,366.7	73.9297	1,366.7	66.5314	1,366.7	70.3062	1,366.7	69.5085	1,366.7	70.089	1,366.7	71.9709	1,366.7	75.164	1,366.7	73.6501
1,413.57	85.7692	1,413.57	85.7343	1,413.57	85.2824	1,413.57	84.9253	1,413.57	84.93	1,413.57	84.2875	1,413.57	84.3842	1,413.57	82.9571	1,413.57	83.1825	1,413.57	81.6724	1,413.57	82.183	1,413.57	80.8383	1,413.57	81.254	1,413.57	78.9891	1,413.57	79.8838	1,413.57	78.3648	1,413.57	78.477	1,413.57	76.1087	1,413.57	77.412	1,413.57	73.3691	1,413.57	75.8105	1,413.57	74.5075	1,413.57	73.4814	1,413.57	75.3288	1,413.57	74.9855	1,413.57	72.8319	1,413.57	74.5979	1,413.57	73.0667	1,413.57	71.717	1,413.57	66.612	1,413.57	68.3991	1,413.57	66.6885	1,413.57	68.632	1,413.57	69.4587	1,413.57	71.1052	1,413.57	72.7933
1,463.38	85.2994	1,463.38	85.185	1,463.38	85.142	1,463.38	84.4656	1,463.38	84.5433	1,463.38	83.4951	1,463.38	83.3808	1,463.38	82.2978	1,463.38	82.4448	1,463.38	80.6534	1,463.38	81.3767	1,463.38	79.4956	1,463.38	79.9139	1,463.38	78.0908	1,463.38	78.2397	1,463.38	76.7584	1,463.38	77.5118	1,463.38	74.9877	1,463.38	76.1914	1,463.38	73.1229	1,463.38	72.3537	1,463.38	71.5652	1,463.38	72.704	1,463.38	71.6432	1,463.38	73.044	1,463.38	73.6143	1,463.38	73.9869	1,463.38	69.063	1,463.38	73.1423	1,463.38	65.471	1,463.38	67.5151	1,463.38	66.6804	1,463.38	64.4972	1,463.38	72.9833	1,463.38	70.2888	1,463.38	72.6462
1,516.11	85.7691	1,516.11	85.2868	1,516.11	85.653	1,516.11	84.8599	1,516.11	84.7796	1,516.11	84.0304	1,516.11	84.1744	1,516.11	82.5425	1,516.11	83.0898	1,516.11	81.1542	1,516.11	81.1016	1,516.11	79.9243	1,516.11	79.7784	1,516.11	78.9502	1,516.11	78.9908	1,516.11	77.6034	1,516.11	77.3042	1,516.11	75.8904	1,516.11	75.488	1,516.11	74.2677	1,516.11	75.1324	1,516.11	73.1989	1,516.11	73.2376	1,516.11	73.7131	1,516.11	72.996	1,516.11	72.9164	1,516.11	72.8153	1,516.11	71.4952	1,516.11	70.4886	1,516.11	66.1895	1,516.11	67.7254	1,516.11	55.0564	1,516.11	69.3677	1,516.11	66.6885	1,516.11	68.4456	1,516.11	69.4568
1,568.85	85.2182	1,568.85	85.2462	1,568.85	85.146	1,568.85	84.4376	1,568.85	84.8452	1,568.85	83.2864	1,568.85	83.6113	1,568.85	82.845	1,568.85	82.3117	1,568.85	81.4573	1,568.85	81.2121	1,568.85	80.124	1,568.85	79.9669	1,568.85	78.1309	1,568.85	78.6931	1,568.85	76.4872	1,568.85	77.4572	1,568.85	75.9843	1,568.85	76.2984	1,568.85	74.6907	1,568.85	74.2029	1,568.85	73.3584	1,568.85	72.2351	1,568.85	72.3526	1,568.85	73.5385	1,568.85	73.5842	1,568.85	74.3726	1,568.85	72.7901	1,568.85	73.6828	1,568.85	68.7082	1,568.85	68.2605	1,568.85	69.883	1,568.85	56.201	1,568.85	71.5757	1,568.85	70.6283	1,568.85	73.2288
1,624.51	84.2098	1,624.51	83.7814	1,624.51	83.7098	1,624.51	83.4501	1,624.51	83.0996	1,624.51	82.7061	1,624.51	82.4328	1,624.51	80.834	1,624.51	81.0009	1,624.51	79.1924	1,624.51	79.6982	1,624.51	77.832	1,624.51	77.8648	1,624.51	77.5564	1,624.51	76.2373	1,624.51	75.6739	1,624.51	75.4922	1,624.51	73.2574	1,624.51	73.6205	1,624.51	72.465	1,624.51	71.8003	1,624.51	70.5247	1,624.51	71.4478	1,624.51	72.385	1,624.51	69.4881	1,624.51	71.914	1,624.51	71.3969	1,624.51	70.7757	1,624.51	71.127	1,624.51	66.5762	1,624.51	68.4171	1,624.51	54.9602	1,624.51	62.4288	1,624.51	64.1489	1,624.51	69.4126	1,624.51	68.5398
1,681.64	82.9744	1,681.64	82.7119	1,681.64	82.979	1,681.64	81.9279	1,681.64	82.2185	1,681.64	80.7929	1,681.64	81.2638	1,681.64	80.059	1,681.64	80.4961	1,681.64	78.8115	1,681.64	78.9201	1,681.64	77.213	1,681.64	77.4046	1,681.64	75.2623	1,681.64	76.2999	1,681.64	74.7223	1,681.64	75.0507	1,681.64	73.9421	1,681.64	73.5105	1,681.64	71.2678	1,681.64	72.947	1,681.64	70.2612	1,681.64	70.0538	1,681.64	68.4672	1,681.64	70.2833	1,681.64	70.6781	1,681.64	70.1322	1,681.64	70.0681	1,681.64	69.5163	1,681.64	67.1694	1,681.64	66.476	1,681.64	63.8039	1,681.64	60.6834	1,681.64	68.912	1,681.64	64.8974	1,681.64	69.6374
1,741.7	83.5227	1,741.7	83.4717	1,741.7	83.3613	1,741.7	82.62	1,741.7	83.124	1,741.7	81.5231	1,741.7	82.0604	1,741.7	80.0497	1,741.7	80.9454	1,741.7	78.4151	1,741.7	79.7561	1,741.7	77.3146	1,741.7	78.6757	1,741.7	76.5381	1,741.7	77.1195	1,741.7	74.0906	1,741.7	75.5047	1,741.7	73.1272	1,741.7	74.7027	1,741.7	72.582	1,741.7	72.6845	1,741.7	70.3945	1,741.7	71.6817	1,741.7	70.504	1,741.7	70.5532	1,741.7	71.0325	1,741.7	71.5961	1,741.7	70.948	1,741.7	72.0194	1,741.7	63.2639	1,741.7	68.9855	1,741.7	59.0627	1,741.7	64.2837	1,741.7	65.7091	1,741.7	66.499	1,741.7	67.4334
1,803.22	84.036	1,803.22	83.6983	1,803.22	83.7731	1,803.22	83.3306	1,803.22	83.2123	1,803.22	82.5776	1,803.22	82.6243	1,803.22	81.0799	1,803.22	81.4741	1,803.22	79.5866	1,803.22	80.0947	1,803.22	78.0012	1,803.22	78.346	1,803.22	76.6713	1,803.22	77.0919	1,803.22	76.0702	1,803.22	76.3425	1,803.22	73.5785	1,803.22	74.8996	1,803.22	71.2988	1,803.22	73.8094	1,803.22	71.1069	1,803.22	71.8285	1,803.22	70.0887	1,803.22	70.1457	1,803.22	71.3335	1,803.22	70.7322	1,803.22	71.1952	1,803.22	71.6285	1,803.22	69.5763	1,803.22	68.0937	1,803.22	62.6155	1,803.22	59.8043	1,803.22	68.964	1,803.22	67.7933	1,803.22	71.1966
1,866.21	83.3528	1,866.21	83.2034	1,866.21	83.1005	1,866.21	82.6423	1,866.21	82.4058	1,866.21	81.6967	1,866.21	81.5383	1,866.21	80.8546	1,866.21	80.5501	1,866.21	80.0874	1,866.21	79.4431	1,866.21	78.5075	1,866.21	78.1593	1,866.21	76.8377	1,866.21	76.7428	1,866.21	75.3712	1,866.21	74.9325	1,866.21	74.8407	1,866.21	73.8461	1,866.21	73.6591	1,866.21	72.8234	1,866.21	70.5407	1,866.21	71.2368	1,866.21	69.5849	1,866.21	69.4566	1,866.21	70.4815	1,866.21	70.0762	1,866.21	71.0689	1,866.21	70.9021	1,866.21	66.7121	1,866.21	69.2022	1,866.21	59.802	1,866.21	59.422	1,866.21	64.5591	1,866.21	62.7066	1,866.21	65.8755
1,932.13	82.2273	1,932.13	82.2468	1,932.13	82.0518	1,932.13	81.4902	1,932.13	81.5397	1,932.13	80.9108	1,932.13	80.4328	1,932.13	79.7458	1,932.13	79.514	1,932.13	78.291	1,932.13	77.9491	1,932.13	77.4856	1,932.13	76.7536	1,932.13	76.5728	1,932.13	75.7538	1,932.13	75.4666	1,932.13	74.5624	1,932.13	74.0745	1,932.13	73.7154	1,932.13	72.6341	1,932.13	72.3279	1,932.13	70.9835	1,932.13	71.2152	1,932.13	70.4833	1,932.13	69.2628	1,932.13	70.549	1,932.13	68.2348	1,932.13	70.8093	1,932.13	69.2112	1,932.13	67.5386	1,932.13	68.6556	1,932.13	59.8727	1,932.13	63.7172	1,932.13	65.1527	1,932.13	63.3078	1,932.13	67.737
1,999.51	82.5061	1,999.51	82.0763	1,999.51	82.5051	1,999.51	81.5828	1,999.51	81.9661	1,999.51	80.8488	1,999.51	81.1622	1,999.51	79.9305	1,999.51	80.0217	1,999.51	78.822	1,999.51	79.1	1,999.51	77.41	1,999.51	77.9309	1,999.51	76.2024	1,999.51	76.5896	1,999.51	74.7356	1,999.51	75.5295	1,999.51	73.7711	1,999.51	74.192	1,999.51	73.0989	1,999.51	72.8484	1,999.51	70.8619	1,999.51	71.8996	1,999.51	68.0725	1,999.51	70.8967	1,999.51	68.8003	1,999.51	69.7304	1,999.51	70.0107	1,999.51	71.0253	1,999.51	66.6028	1,999.51	70.0613	1,999.51	61.963	1,999.51	65.2454	1,999.51	67.1427	1,999.51	61.8169	1,999.51	67.1631
2,069.82	83.9611	2,069.82	83.83	2,069.82	83.5133	2,069.82	83.184	2,069.82	83.1387	2,069.82	82.3143	2,069.82	82.5655	2,069.82	81.1762	2,069.82	81.9023	2,069.82	80.1784	2,069.82	80.6806	2,069.82	78.8774	2,069.82	79.1847	2,069.82	77.1532	2,069.82	78.0936	2,069.82	76.3156	2,069.82	77.0654	2,069.82	74.4132	2,069.82	75.6292	2,069.82	71.693	2,069.82	74.0723	2,069.82	71.8284	2,069.82	73.2705	2,069.82	71.4895	2,069.82	71.07	2,069.82	70.8078	2,069.82	70.7192	2,069.82	72.1325	2,069.82	70.7883	2,069.82	70.4968	2,069.82	70.4676	2,069.82	60.5702	2,069.82	64.913	2,069.82	63.6723	2,069.82	66.6056	2,069.82	67.206
2,143.07	84.33	2,143.07	84.2525	2,143.07	84.3763	2,143.07	83.832	2,143.07	83.7767	2,143.07	83.1764	2,143.07	82.9597	2,143.07	82.4898	2,143.07	82.195	2,143.07	81.4341	2,143.07	81.536	2,143.07	80.149	2,143.07	80.373	2,143.07	79.0896	2,143.07	78.5309	2,143.07	77.4433	2,143.07	77.2626	2,143.07	76.4038	2,143.07	76.476	2,143.07	75.5737	2,143.07	74.5394	2,143.07	73.3206	2,143.07	72.7847	2,143.07	70.2576	2,143.07	72.9577	2,143.07	69.2566	2,143.07	71.1938	2,143.07	70.9677	2,143.07	72.4559	2,143.07	71.2325	2,143.07	71.7075	2,143.07	66.1314	2,143.07	68.1866	2,143.07	66.092	2,143.07	65.0985	2,143.07	69.5475
2,219.24	84.4266	2,219.24	84.256	2,219.24	83.9775	2,219.24	83.5732	2,219.24	83.6155	2,219.24	82.9195	2,219.24	83.1133	2,219.24	82.1335	2,219.24	82.6066	2,219.24	81.4902	2,219.24	81.5295	2,219.24	80.1375	2,219.24	80.5667	2,219.24	78.7901	2,219.24	79.3549	2,219.24	78.0689	2,219.24	77.7879	2,219.24	75.8417	2,219.24	76.5649	2,219.24	73.6596	2,219.24	75.0094	2,219.24	73.8596	2,219.24	73.8382	2,219.24	73.7385	2,219.24	71.2412	2,219.24	72.3455	2,219.24	70.1637	2,219.24	73.1442	2,219.24	70.4535	2,219.24	71.4378	2,219.24	70.9768	2,219.24	64.2928	2,219.24	66.507	2,219.24	67.416	2,219.24	66.9032	2,219.24	69.9441
2,296.88	84.9103	2,296.88	84.7014	2,296.88	85.3606	2,296.88	84.4342	2,296.88	84.9469	2,296.88	83.6859	2,296.88	84.0502	2,296.88	82.7664	2,296.88	83.3994	2,296.88	81.8822	2,296.88	83.136	2,296.88	81.2178	2,296.88	81.904	2,296.88	79.3628	2,296.88	80.4622	2,296.88	77.6103	2,296.88	79.0746	2,296.88	77.141	2,296.88	77.8667	2,296.88	75.2919	2,296.88	76.1197	2,296.88	73.419	2,296.88	74.2373	2,296.88	71.7466	2,296.88	74.5046	2,296.88	68.2122	2,296.88	72.8821	2,296.88	70.1392	2,296.88	73.1823	2,296.88	71.9838	2,296.88	72.6078	2,296.88	67.2117	2,296.88	68.5251	2,296.88	66.9045	2,296.88	66.5733	2,296.88	68.8787
2,378.91	86.5749	2,378.91	86.2669	2,378.91	85.9637	2,378.91	85.681	2,378.91	86.0911	2,378.91	85.4669	2,378.91	86.2273	2,378.91	84.8875	2,378.91	85.6794	2,378.91	84.1766	2,378.91	84.2169	2,378.91	82.4408	2,378.91	83.4579	2,378.91	81.0719	2,378.91	82.1611	2,378.91	80.0073	2,378.91	80.4963	2,378.91	77.969	2,378.91	79.1293	2,378.91	75.1229	2,378.91	77.4239	2,378.91	73.7719	2,378.91	75.7776	2,378.91	75.2734	2,378.91	74.156	2,378.91	73.7497	2,378.91	73.2961	2,378.91	72.1296	2,378.91	73.3282	2,378.91	72.3496	2,378.91	73.9981	2,378.91	67.9949	2,378.91	70.3794	2,378.91	67.7875	2,378.91	68.7661	2,378.91	71.8972
2,462.4	85.5913	2,462.4	85.6726	2,462.4	86.3293	2,462.4	85.9569	2,462.4	85.9236	2,462.4	85.4847	2,462.4	85.1617	2,462.4	84.6694	2,462.4	84.7686	2,462.4	83.9979	2,462.4	84.9307	2,462.4	83.6045	2,462.4	83.4978	2,462.4	81.8259	2,462.4	81.8403	2,462.4	79.6316	2,462.4	79.8775	2,462.4	79.1171	2,462.4	78.5356	2,462.4	78.1447	2,462.4	76.4953	2,462.4	74.6995	2,462.4	74.2567	2,462.4	73.4948	2,462.4	74.6662	2,462.4	73.1854	2,462.4	72.2538	2,462.4	72.631	2,462.4	71.3611	2,462.4	72.629	2,462.4	72.344	2,462.4	67.8927	2,462.4	68.535	2,462.4	69.2978	2,462.4	68.6189	2,462.4	71.9415
2,548.83	86.1036	2,548.83	86.0345	2,548.83	85.6115	2,548.83	85.739	2,548.83	86.0947	2,548.83	85.8308	2,548.83	87.0902	2,548.83	85.6325	2,548.83	86.7505	2,548.83	84.8984	2,548.83	85.3173	2,548.83	83.2428	2,548.83	84.4509	2,548.83	81.9468	2,548.83	83.2449	2,548.83	80.3927	2,548.83	81.7552	2,548.83	78.7247	2,548.83	80.1524	2,548.83	76.011	2,548.83	78.9018	2,548.83	74.0508	2,548.83	76.1581	2,548.83	75.4031	2,548.83	74.0063	2,548.83	73.7909	2,548.83	74.8693	2,548.83	71.3824	2,548.83	72.9518	2,548.83	72.8622	2,548.83	73.4069	2,548.83	68.0889	2,548.83	70.5268	2,548.83	69.9233	2,548.83	66.9127	2,548.83	71.8242
2,639.65	85.7603	2,639.65	85.9158	2,639.65	86.452	2,639.65	86.5746	2,639.65	86.9089	2,639.65	86.9312	2,639.65	86.3292	2,639.65	86.5978	2,639.65	86.1894	2,639.65	85.7795	2,639.65	86.0707	2,639.65	84.3595	2,639.65	85.0061	2,639.65	82.713	2,639.65	83.4352	2,639.65	80.2783	2,639.65	81.4244	2,639.65	78.4843	2,639.65	79.615	2,639.65	77.8075	2,639.65	78.27	2,639.65	74.6336	2,639.65	76.1194	2,639.65	72.5977	2,639.65	75.126	2,639.65	74.0239	2,639.65	74.2409	2,639.65	71.894	2,639.65	72.6523	2,639.65	70.8056	2,639.65	73.1079	2,639.65	66.378	2,639.65	69.0683	2,639.65	64.7555	2,639.65	68.7118	2,639.65	70.2999
2,731.93	85.8993	2,731.93	85.8846	2,731.93	85.9001	2,731.93	85.6786	2,731.93	85.6818	2,731.93	85.38	2,731.93	86.4608	2,731.93	85.5253	2,731.93	86.6963	2,731.93	85.1092	2,731.93	85.9456	2,731.93	84.1803	2,731.93	84.2605	2,731.93	82.7303	2,731.93	83.2153	2,731.93	81.433	2,731.93	81.7406	2,731.93	79.5561	2,731.93	80.0218	2,731.93	78.4091	2,731.93	78.5788	2,731.93	75.3652	2,731.93	76.6185	2,731.93	75.0314	2,731.93	73.8705	2,731.93	75.0827	2,731.93	74.0792	2,731.93	71.3502	2,731.93	73.419	2,731.93	73.1344	2,731.93	72.2748	2,731.93	68.8516	2,731.93	70.6812	2,731.93	67.3293	2,731.93	67.697	2,731.93	71.7879
2,828.61	85.3045	2,828.61	85.5428	2,828.61	85.5803	2,828.61	86.2265	2,828.61	86.4485	2,828.61	86.5525	2,828.61	86.9585	2,828.61	86.6853	2,828.61	86.4554	2,828.61	86.3991	2,828.61	85.6455	2,828.61	84.4593	2,828.61	85.4427	2,828.61	82.8203	2,828.61	83.7085	2,828.61	80.3871	2,828.61	81.8736	2,828.61	78.6185	2,828.61	79.6143	2,828.61	77.9765	2,828.61	78.715	2,828.61	75.1161	2,828.61	76.5779	2,828.61	70.9181	2,828.61	74.0347	2,828.61	74.3727	2,828.61	75.0937	2,828.61	72.6119	2,828.61	72.8803	2,828.61	70.2611	2,828.61	74.3611	2,828.61	68.2791	2,828.61	70.1235	2,828.61	69.7196	2,828.61	69.3634	2,828.61	72.6745
2,928.22	85.2383	2,928.22	85.2625	2,928.22	86.0229	2,928.22	85.975	2,928.22	86.4798	2,928.22	86.5362	2,928.22	86.4146	2,928.22	85.8292	2,928.22	86.9824	2,928.22	85.4667	2,928.22	87.0205	2,928.22	84.746	2,928.22	85.0769	2,928.22	83.0674	2,928.22	83.7793	2,928.22	81.9179	2,928.22	82.7279	2,928.22	79.7605	2,928.22	80.7486	2,928.22	78.0833	2,928.22	78.5763	2,928.22	76.3135	2,928.22	78.411	2,928.22	73.5424	2,928.22	75.2408	2,928.22	74.9271	2,928.22	73.8133	2,928.22	72.1177	2,928.22	74.5484	2,928.22	72.697	2,928.22	72.4225	2,928.22	69.2369	2,928.22	72.0102	2,928.22	68.5263	2,928.22	65.855	2,928.22	73.2611
3,030.76	83.4129	3,030.76	84.4354	3,030.76	83.7251	3,030.76	85.7142	3,030.76	85.1749	3,030.76	86.0187	3,030.76	86.8684	3,030.76	86.4791	3,030.76	86.2782	3,030.76	85.7865	3,030.76	84.9361	3,030.76	84.5175	3,030.76	84.1732	3,030.76	82.3379	3,030.76	82.785	3,030.76	80.4962	3,030.76	80.6176	3,030.76	78.4802	3,030.76	78.933	3,030.76	77.0072	3,030.76	77.8722	3,030.76	76.1399	3,030.76	75.9045	3,030.76	72.2032	3,030.76	72.3007	3,030.76	74.4008	3,030.76	73.0345	3,030.76	72.6408	3,030.76	72.2303	3,030.76	69.0059	3,030.76	72.9658	3,030.76	65.8458	3,030.76	68.6214	3,030.76	66.7084	3,030.76	68.0069	3,030.76	71.2363
3,137.7	84.2871	3,137.7	85.0046	3,137.7	84.4911	3,137.7	86.286	3,137.7	85.8737	3,137.7	86.5469	3,137.7	87.2148	3,137.7	86.1125	3,137.7	87.2616	3,137.7	85.7062	3,137.7	86.5458	3,137.7	83.9745	3,137.7	85.1578	3,137.7	82.2478	3,137.7	83.0558	3,137.7	80.4166	3,137.7	81.6912	3,137.7	78.5148	3,137.7	79.4502	3,137.7	76.607	3,137.7	78.047	3,137.7	75.8395	3,137.7	76.7841	3,137.7	70.5657	3,137.7	74.4471	3,137.7	74.0696	3,137.7	73.7204	3,137.7	74.0289	3,137.7	73.3682	3,137.7	70.805	3,137.7	73.2471	3,137.7	68.7455	3,137.7	71.9637	3,137.7	67.0628	3,137.7	65.4246	3,137.7	72.7648
3,249.02	84.0275	3,249.02	84.882	3,249.02	84.6448	3,249.02	85.8483	3,249.02	85.6968	3,249.02	86.8881	3,249.02	86.1342	3,249.02	85.7498	3,249.02	86.9706	3,249.02	84.6824	3,249.02	86.5442	3,249.02	83.9503	3,249.02	84.8694	3,249.02	81.9724	3,249.02	82.7952	3,249.02	79.8309	3,249.02	81.2604	3,249.02	78.4729	3,249.02	79.4044	3,249.02	76.523	3,249.02	76.8366	3,249.02	75.8839	3,249.02	76.754	3,249.02	72.7176	3,249.02	73.6367	3,249.02	71.5256	3,249.02	70.9369	3,249.02	70.6982	3,249.02	72.7369	3,249.02	70.98	3,249.02	71.3622	3,249.02	67.346	3,249.02	70.3074	3,249.02	63.8745	3,249.02	64.9272	3,249.02	71.0577
3,363.28	83.9417	3,363.28	84.2808	3,363.28	84.4136	3,363.28	85.5702	3,363.28	84.9703	3,363.28	86.1896	3,363.28	85.5827	3,363.28	85.942	3,363.28	85.4409	3,363.28	84.3314	3,363.28	85.3923	3,363.28	82.976	3,363.28	83.892	3,363.28	80.789	3,363.28	81.69	3,363.28	78.5611	3,363.28	79.7567	3,363.28	77.2836	3,363.28	77.8797	3,363.28	75.5491	3,363.28	75.2999	3,363.28	74.5302	3,363.28	74.0234	3,363.28	73.3053	3,363.28	71.1892	3,363.28	71.1859	3,363.28	69.8078	3,363.28	70.328	3,363.28	71.1787	3,363.28	68.1101	3,363.28	71.2447	3,363.28	65.7805	3,363.28	69.1492	3,363.28	62.6228	3,363.28	64.7724	3,363.28	68.6508
3,481.93	84.8372	3,481.93	85.3637	3,481.93	84.8413	3,481.93	85.7002	3,481.93	85.8147	3,481.93	85.886	3,481.93	86.2313	3,481.93	85.9035	3,481.93	85.6152	3,481.93	85.0804	3,481.93	85.0993	3,481.93	82.53	3,481.93	84.2862	3,481.93	80.4176	3,481.93	82.4165	3,481.93	79.0796	3,481.93	80.5676	3,481.93	76.1386	3,481.93	79.1254	3,481.93	74.2187	3,481.93	76.9891	3,481.93	73.3359	3,481.93	75.3036	3,481.93	70.9494	3,481.93	74.3508	3,481.93	72.1668	3,481.93	72.0161	3,481.93	73.5764	3,481.93	69.1259	3,481.93	69.4624	3,481.93	71.3904	3,481.93	69.8954	3,481.93	69.6472	3,481.93	57.3805	3,481.93	61.3992	3,481.93	68.4301
3,604.98	84.8264	3,604.98	85.1096	3,604.98	85.2152	3,604.98	86.0654	3,604.98	85.408	3,604.98	86.2294	3,604.98	86.1797	3,604.98	85.4535	3,604.98	85.7917	3,604.98	84.4771	3,604.98	84.3594	3,604.98	82.931	3,604.98	83.5684	3,604.98	81.0716	3,604.98	81.898	3,604.98	78.7239	3,604.98	80.119	3,604.98	76.4533	3,604.98	78.7372	3,604.98	74.6512	3,604.98	76.1941	3,604.98	74.2204	3,604.98	75.28	3,604.98	71.0771	3,604.98	73.8827	3,604.98	73.0869	3,604.98	71.3591	3,604.98	72.165	3,604.98	71.5472	3,604.98	70.0347	3,604.98	69.6463	3,604.98	70.9307	3,604.98	71.0157	3,604.98	54.6523	3,604.98	60.8342	3,604.98	69.7315
3,732.42	85.0346	3,732.42	85.0935	3,732.42	85.035	3,732.42	85.3667	3,732.42	85.2351	3,732.42	85.1968	3,732.42	85.7614	3,732.42	84.6218	3,732.42	85.5103	3,732.42	83.6712	3,732.42	84.4971	3,732.42	82.2276	3,732.42	83.0954	3,732.42	80.5503	3,732.42	81.9843	3,732.42	78.7184	3,732.42	80.2357	3,732.42	77.1948	3,732.42	78.0091	3,732.42	75.2968	3,732.42	75.6145	3,732.42	73.2638	3,732.42	74.4815	3,732.42	71.3279	3,732.42	73.7176	3,732.42	70.7388	3,732.42	70.2194	3,732.42	70.933	3,732.42	70.716	3,732.42	68.5367	3,732.42	68.2545	3,732.42	68.6606	3,732.42	70.6809	3,732.42	46.5971	3,732.42	56.899	3,732.42	67.4185
3,864.26	84.5218	3,864.26	84.9838	3,864.26	84.4643	3,864.26	85.4272	3,864.26	85.0655	3,864.26	85.2737	3,864.26	85.2383	3,864.26	84.9828	3,864.26	85.213	3,864.26	84.2136	3,864.26	84.3993	3,864.26	82.8379	3,864.26	82.941	3,864.26	80.9397	3,864.26	81.0994	3,864.26	79.2442	3,864.26	79.6396	3,864.26	77.6376	3,864.26	77.5635	3,864.26	75.5843	3,864.26	76.2342	3,864.26	73.8605	3,864.26	73.7085	3,864.26	71.6107	3,864.26	72.3482	3,864.26	70.3656	3,864.26	70.3339	3,864.26	72.3634	3,864.26	70.4605	3,864.26	67.1208	3,864.26	66.9448	3,864.26	70.8047	3,864.26	70.5415	3,864.26	52.5603	3,864.26	49.57	3,864.26	68.5914
4,000.49	83.9382	4,000.49	83.676	4,000.49	84.0545	4,000.49	84.2888	4,000.49	84.007	4,000.49	84.6764	4,000.49	84.3294	4,000.49	84.1775	4,000.49	84.1387	4,000.49	83.3393	4,000.49	83.8431	4,000.49	82.3929	4,000.49	82.7121	4,000.49	80.6375	4,000.49	81.2584	4,000.49	78.4065	4,000.49	79.3979	4,000.49	76.8011	4,000.49	77.1541	4,000.49	74.49	4,000.49	75.4567	4,000.49	73.143	4,000.49	73.3718	4,000.49	71.6397	4,000.49	73.1403	4,000.49	69.5725	4,000.49	68.8692	4,000.49	71.8848	4,000.49	72.4826	4,000.49	68.0562	4,000.49	68.4566	4,000.49	69.953	4,000.49	68.6423	4,000.49	54.6157	4,000.49	37.0543	4,000.49	68.0242
4,141.11	83.6688	4,141.11	83.4801	4,141.11	83.6441	4,141.11	83.3513	4,141.11	83.8706	4,141.11	83.2006	4,141.11	83.6487	4,141.11	83.524	4,141.11	83.8503	4,141.11	83.7824	4,141.11	83.6171	4,141.11	82.8889	4,141.11	82.6921	4,141.11	81.1933	4,141.11	80.7183	4,141.11	79.5535	4,141.11	79.321	4,141.11	77.0104	4,141.11	77.124	4,141.11	75.0545	4,141.11	76.1495	4,141.11	72.6564	4,141.11	72.6984	4,141.11	71.5457	4,141.11	71.3207	4,141.11	70.284	4,141.11	69.299	4,141.11	70.6892	4,141.11	70.8752	4,141.11	69.0675	4,141.11	70.0143	4,141.11	69.8992	4,141.11	68.8718	4,141.11	58.3505	4,141.11	55.7137	4,141.11	67.0432
4,287.6	83.5328	4,287.6	82.9421	4,287.6	83.1267	4,287.6	83.0074	4,287.6	82.9409	4,287.6	83.1135	4,287.6	83.3027	4,287.6	83.6739	4,287.6	83.5993	4,287.6	83.9444	4,287.6	83.9466	4,287.6	82.8346	4,287.6	83.0301	4,287.6	80.9657	4,287.6	81.279	4,287.6	79.0444	4,287.6	79.8288	4,287.6	77.5227	4,287.6	77.4714	4,287.6	74.1501	4,287.6	75.7066	4,287.6	73.8797	4,287.6	73.0476	4,287.6	70.2239	4,287.6	71.9804	4,287.6	69.7453	4,287.6	70.4432	4,287.6	68.8522	4,287.6	69.7415	4,287.6	67.4666	4,287.6	70.218	4,287.6	68.621	4,287.6	69.0424	4,287.6	53.5242	4,287.6	61.8393	4,287.6	67.5862
4,438.48	83.4952	4,438.48	82.7603	4,438.48	83.0685	4,438.48	82.4834	4,438.48	81.9533	4,438.48	83.1628	4,438.48	82.4433	4,438.48	83.6035	4,438.48	83.0947	4,438.48	84.0427	4,438.48	83.4552	4,438.48	83.3923	4,438.48	83.0762	4,438.48	81.6074	4,438.48	81.303	4,438.48	79.7007	4,438.48	79.5986	4,438.48	77.487	4,438.48	76.8269	4,438.48	75.4057	4,438.48	74.7359	4,438.48	73.4725	4,438.48	73.0685	4,438.48	71.118	4,438.48	70.7424	4,438.48	70.1449	4,438.48	69.1276	4,438.48	69.5123	4,438.48	69.9538	4,438.48	67.5869	4,438.48	69.449	4,438.48	68.3009	4,438.48	68.0708	4,438.48	55.0228	4,438.48	63.0789	4,438.48	64.5405
4,595.21	84.0156	4,595.21	83.0433	4,595.21	83.7492	4,595.21	82.5194	4,595.21	82.9994	4,595.21	82.5014	4,595.21	82.7343	4,595.21	83.2419	4,595.21	83.6171	4,595.21	83.7384	4,595.21	84.3579	4,595.21	83.0581	4,595.21	83.6864	4,595.21	81.3063	4,595.21	81.5603	4,595.21	78.7075	4,595.21	79.77	4,595.21	76.7264	4,595.21	77.2938	4,595.21	74.4422	4,595.21	75.2644	4,595.21	72.1827	4,595.21	73.291	4,595.21	69.5815	4,595.21	70.351	4,595.21	70.0555	4,595.21	69.7398	4,595.21	69.9326	4,595.21	69.4261	4,595.21	68.6534	4,595.21	70.7209	4,595.21	67.6219	4,595.21	67.6339	4,595.21	57.7342	4,595.21	64.1126	4,595.21	65.3672
4,756.35	83.9391	4,756.35	82.9646	4,756.35	82.997	4,756.35	82.0278	4,756.35	81.6789	4,756.35	82.7761	4,756.35	82.0615	4,756.35	83.7308	4,756.35	82.8659	4,756.35	84.3802	4,756.35	83.6867	4,756.35	83.5584	4,756.35	82.9862	4,756.35	81.6292	4,756.35	80.8419	4,756.35	79.8581	4,756.35	79.0441	4,756.35	77.6474	4,756.35	76.6473	4,756.35	74.7148	4,756.35	74.4566	4,756.35	73.8985	4,756.35	72.3915	4,756.35	70.7393	4,756.35	71.0669	4,756.35	69.7281	4,756.35	68.3862	4,756.35	69.6613	4,756.35	68.4194	4,756.35	69.3654	4,756.35	69.9599	4,756.35	68.6107	4,756.35	67.1687	4,756.35	60.0912	4,756.35	62.165	4,756.35	63.746
4,924.8	85.345	4,924.8	84.4167	4,924.8	84.6005	4,924.8	83.1993	4,924.8	82.8532	4,924.8	83.332	4,924.8	83.1408	4,924.8	84.207	4,924.8	83.9129	4,924.8	84.2569	4,924.8	84.2647	4,924.8	83.3045	4,924.8	83.5471	4,924.8	80.999	4,924.8	81.8068	4,924.8	78.7275	4,924.8	79.7781	4,924.8	76.521	4,924.8	77.0901	4,924.8	73.805	4,924.8	74.7773	4,924.8	72.439	4,924.8	73.3349	4,924.8	69.0421	4,924.8	70.4007	4,924.8	68.4783	4,924.8	68.7725	4,924.8	67.5766	4,924.8	68.5015	4,924.8	68.4555	4,924.8	69.8304	4,924.8	67.7703	4,924.8	67.4441	4,924.8	62.1165	4,924.8	64.5037	4,924.8	62.7631
5,097.66	85.0012	5,097.66	84.0326	5,097.66	84.4657	5,097.66	82.7414	5,097.66	82.9406	5,097.66	82.8462	5,097.66	82.7592	5,097.66	83.6951	5,097.66	83.3676	5,097.66	84.001	5,097.66	83.4864	5,097.66	82.7715	5,097.66	82.6389	5,097.66	80.9399	5,097.66	80.6275	5,097.66	78.833	5,097.66	78.7173	5,097.66	76.7274	5,097.66	76.1675	5,097.66	73.772	5,097.66	73.5292	5,097.66	71.9227	5,097.66	71.9912	5,097.66	69.2717	5,097.66	69.7067	5,097.66	68.8308	5,097.66	68.9192	5,097.66	67.7312	5,097.66	67.9772	5,097.66	68.0334	5,097.66	69.2898	5,097.66	68.0827	5,097.66	66.2795	5,097.66	61.1272	5,097.66	66.1663	5,097.66	62.195
5,277.83	86.0353	5,277.83	85.5254	5,277.83	85.47	5,277.83	84.3511	5,277.83	84.0725	5,277.83	83.926	5,277.83	83.3264	5,277.83	84.2227	5,277.83	83.6624	5,277.83	84.1105	5,277.83	83.8593	5,277.83	82.8273	5,277.83	82.652	5,277.83	80.9218	5,277.83	80.3451	5,277.83	78.2926	5,277.83	78.191	5,277.83	75.2161	5,277.83	75.7656	5,277.83	71.9797	5,277.83	73.4108	5,277.83	71.1014	5,277.83	71.3531	5,277.83	68.0654	5,277.83	69.139	5,277.83	68.1639	5,277.83	68.2505	5,277.83	66.3776	5,277.83	67.117	5,277.83	67.2825	5,277.83	67.9438	5,277.83	64.9581	5,277.83	66.3209	5,277.83	60.6791	5,277.83	65.2926	5,277.83	55.7725
5,463.87	85.7535	5,463.87	85.1592	5,463.87	85.4556	5,463.87	84.092	5,463.87	84.5518	5,463.87	82.8548	5,463.87	83.427	5,463.87	82.8314	5,463.87	83.3251	5,463.87	82.4316	5,463.87	83.2883	5,463.87	80.6477	5,463.87	81.8423	5,463.87	78.3942	5,463.87	79.3161	5,463.87	75.8973	5,463.87	77.5832	5,463.87	73.7426	5,463.87	74.9029	5,463.87	70.9732	5,463.87	72.4692	5,463.87	70.3158	5,463.87	69.8211	5,463.87	67.9303	5,463.87	67.9913	5,463.87	67.4221	5,463.87	66.9576	5,463.87	65.7857	5,463.87	66.2557	5,463.87	65.4087	5,463.87	67.0696	5,463.87	64.8701	5,463.87	64.937	5,463.87	60.0859	5,463.87	64.8906	5,463.87	50.8915
5,657.23	85.6467	5,657.23	85.0512	5,657.23	85.2409	5,657.23	84.1349	5,657.23	84.4668	5,657.23	83.0922	5,657.23	83.4764	5,657.23	82.8283	5,657.23	83.0269	5,657.23	82.8782	5,657.23	82.7566	5,657.23	81.3968	5,657.23	81.4427	5,657.23	78.9588	5,657.23	79.1719	5,657.23	76.9168	5,657.23	77.1932	5,657.23	74.3701	5,657.23	74.6437	5,657.23	71.3933	5,657.23	72.3772	5,657.23	69.9602	5,657.23	70.3946	5,657.23	67.6134	5,657.23	68.424	5,657.23	65.3248	5,657.23	66.3845	5,657.23	65.1903	5,657.23	63.6413	5,657.23	63.806	5,657.23	65.8362	5,657.23	64.5767	5,657.23	65.0941	5,657.23	62.1762	5,657.23	65.0293	5,657.23	38.4217
5,856.45	85.785	5,856.45	85.4195	5,856.45	85.3724	5,856.45	84.2389	5,856.45	84.4742	5,856.45	82.7033	5,856.45	82.7915	5,856.45	81.6474	5,856.45	81.9236	5,856.45	81.1201	5,856.45	81.1383	5,856.45	79.5236	5,856.45	80.1173	5,856.45	76.8337	5,856.45	78.2673	5,856.45	74.8742	5,856.45	76.2842	5,856.45	72.6878	5,856.45	73.2128	5,856.45	69.2329	5,856.45	71.3377	5,856.45	65.6466	5,856.45	69.4007	5,856.45	64.1823	5,856.45	66.9397	5,856.45	61.5091	5,856.45	66.2008	5,856.45	61.8949	5,856.45	63.3722	5,856.45	61.6285	5,856.45	65.4164	5,856.45	63.4123	5,856.45	62.9059	5,856.45	62.7449	5,856.45	64.7154	5,856.45	49.4406
6,062.99	86.0088	6,062.99	85.9582	6,062.99	85.907	6,062.99	84.2713	6,062.99	84.6383	6,062.99	82.2655	6,062.99	82.0624	6,062.99	80.387	6,062.99	81.0659	6,062.99	79.6272	6,062.99	80.6673	6,062.99	79.1051	6,062.99	79.9006	6,062.99	76.6227	6,062.99	77.6589	6,062.99	75.4549	6,062.99	76.0455	6,062.99	73.0911	6,062.99	73.3892	6,062.99	70.0992	6,062.99	71.4769	6,062.99	67.3299	6,062.99	68.662	6,062.99	63.655	6,062.99	67.2931	6,062.99	61.7728	6,062.99	64.9149	6,062.99	62.5097	6,062.99	64.4793	6,062.99	60.5991	6,062.99	64.8407	6,062.99	60.4337	6,062.99	62.1622	6,062.99	62.7184	6,062.99	65.2124	6,062.99	48.0076
6,276.86	85.3968	6,276.86	85.2505	6,276.86	85.4381	6,276.86	83.9846	6,276.86	84.4896	6,276.86	81.6081	6,276.86	82.429	6,276.86	80.1715	6,276.86	81.175	6,276.86	80.2062	6,276.86	81.3435	6,276.86	80.0444	6,276.86	80.3988	6,276.86	77.6297	6,276.86	78.8885	6,276.86	75.7299	6,276.86	76.7637	6,276.86	73.233	6,276.86	74.1172	6,276.86	70.0856	6,276.86	71.8319	6,276.86	68.394	6,276.86	68.2249	6,276.86	66.3855	6,276.86	66.6038	6,276.86	64.496	6,276.86	65.1774	6,276.86	63.5972	6,276.86	65.061	6,276.86	63.4664	6,276.86	63.8031	6,276.86	59.3478	6,276.86	61.8399	6,276.86	63.0896	6,276.86	63.7351	6,276.86	55.8247
6,498.05	85.0756	6,498.05	84.9918	6,498.05	85.3052	6,498.05	84.3787	6,498.05	84.5768	6,498.05	81.9633	6,498.05	82.4108	6,498.05	80.4638	6,498.05	80.7479	6,498.05	80.7491	6,498.05	81.0161	6,498.05	80.1631	6,498.05	80.6557	6,498.05	77.817	6,498.05	78.837	6,498.05	75.7797	6,498.05	76.9471	6,498.05	72.9835	6,498.05	73.7981	6,498.05	70.0102	6,498.05	71.4781	6,498.05	66.8011	6,498.05	68.4053	6,498.05	65.0719	6,498.05	66.9305	6,498.05	61.265	6,498.05	65.6954	6,498.05	61.0904	6,498.05	63.6933	6,498.05	61.3383	6,498.05	63.2949	6,498.05	60.1748	6,498.05	60.6242	6,498.05	62.2864	6,498.05	62.6685	6,498.05	55.6971
6,726.56	85.3595	6,726.56	85.4552	6,726.56	85.6741	6,726.56	85.0523	6,726.56	84.9361	6,726.56	82.7135	6,726.56	82.8255	6,726.56	81.0091	6,726.56	81.4362	6,726.56	81.3286	6,726.56	81.8011	6,726.56	80.9681	6,726.56	81.116	6,726.56	78.136	6,726.56	79.5282	6,726.56	75.6376	6,726.56	77.032	6,726.56	72.2804	6,726.56	73.9144	6,726.56	69.815	6,726.56	70.8846	6,726.56	67.1264	6,726.56	68.0422	6,726.56	64.6471	6,726.56	66.4461	6,726.56	64.284	6,726.56	64.0419	6,726.56	59.0741	6,726.56	65.798	6,726.56	61.6115	6,726.56	62.7993	6,726.56	60.1121	6,726.56	58.8918	6,726.56	62.6557	6,726.56	61.0883	6,726.56	54.2875
6,963.87	85.3387	6,963.87	85.5354	6,963.87	85.6361	6,963.87	84.9958	6,963.87	85.2434	6,963.87	82.4457	6,963.87	83.4156	6,963.87	81.5407	6,963.87	82.1644	6,963.87	81.5188	6,963.87	82.2364	6,963.87	80.5577	6,963.87	81.5391	6,963.87	77.9416	6,963.87	79.3784	6,963.87	75.2034	6,963.87	76.8778	6,963.87	71.6315	6,963.87	73.2109	6,963.87	68.3455	6,963.87	70.4239	6,963.87	66.212	6,963.87	67.9499	6,963.87	64.2882	6,963.87	65.613	6,963.87	63.0165	6,963.87	60.9656	6,963.87	60.3906	6,963.87	62.2714	6,963.87	60.9637	6,963.87	62.8599	6,963.87	58.7307	6,963.87	61.9952	6,963.87	62.0748	6,963.87	61.1877	6,963.87	45.7284
7,209.96	85.0831	7,209.96	85.1751	7,209.96	85.27	7,209.96	84.477	7,209.96	84.9887	7,209.96	82.1653	7,209.96	83.3073	7,209.96	81.5558	7,209.96	81.7548	7,209.96	81.3148	7,209.96	81.7257	7,209.96	80.2183	7,209.96	81.0736	7,209.96	77.3061	7,209.96	78.4653	7,209.96	75.0742	7,209.96	75.3287	7,209.96	71.3349	7,209.96	72.1019	7,209.96	68.2707	7,209.96	69.8036	7,209.96	65.7504	7,209.96	66.79	7,209.96	64.0235	7,209.96	64.3843	7,209.96	60.1797	7,209.96	60.2829	7,209.96	59.0269	7,209.96	60.7216	7,209.96	58.3351	7,209.96	62.0829	7,209.96	60.0191	7,209.96	60.3772	7,209.96	61.7794	7,209.96	60.9703	7,209.96	43.242
7,464.84	84.7468	7,464.84	84.9255	7,464.84	84.9858	7,464.84	84.1642	7,464.84	84.6972	7,464.84	82.1985	7,464.84	83.1581	7,464.84	81.4156	7,464.84	81.617	7,464.84	81.1978	7,464.84	81.481	7,464.84	79.6635	7,464.84	80.3139	7,464.84	76.3274	7,464.84	77.2871	7,464.84	74.0161	7,464.84	74.3743	7,464.84	70.4671	7,464.84	70.6512	7,464.84	66.8248	7,464.84	68.409	7,464.84	63.0524	7,464.84	65.4403	7,464.84	62.5348	7,464.84	62.608	7,464.84	61.5519	7,464.84	60.1291	7,464.84	59.0467	7,464.84	57.551	7,464.84	59.2145	7,464.84	58.6149	7,464.84	58.7261	7,464.84	59.3522	7,464.84	62.097	7,464.84	59.5903	7,464.84	53.9037
7,727.05	84.8485	7,727.05	84.8465	7,727.05	84.9887	7,727.05	84.2412	7,727.05	84.4406	7,727.05	82.5767	7,727.05	83.1342	7,727.05	81.395	7,727.05	81.5013	7,727.05	80.7635	7,727.05	80.8908	7,727.05	79.2867	7,727.05	79.7469	7,727.05	75.0806	7,727.05	76.1562	7,727.05	72.6142	7,727.05	73.4053	7,727.05	68.8384	7,727.05	70.163	7,727.05	64.8947	7,727.05	67.1019	7,727.05	63.0151	7,727.05	64.3992	7,727.05	61.1043	7,727.05	60.9951	7,727.05	61.5557	7,727.05	60.7874	7,727.05	58.5569	7,727.05	58.6083	7,727.05	56.3553	7,727.05	60.5501	7,727.05	56.5485	7,727.05	60.0823	7,727.05	62.0492	7,727.05	59.5619	7,727.05	55.725
7,999.51	84.994	7,999.51	84.5472	7,999.51	84.9628	7,999.51	84.2245	7,999.51	84.4819	7,999.51	82.5283	7,999.51	83.216	7,999.51	81.018	7,999.51	81.2769	7,999.51	80.3501	7,999.51	80.7446	7,999.51	78.8465	7,999.51	79.1784	7,999.51	75.417	7,999.51	76.5545	7,999.51	72.3279	7,999.51	73.6462	7,999.51	68.8367	7,999.51	70.2511	7,999.51	66.2668	7,999.51	67.2669	7,999.51	63.5365	7,999.51	64.241	7,999.51	60.4516	7,999.51	60.3402	7,999.51	61.4679	7,999.51	62.013	7,999.51	57.7818	7,999.51	53.5241	7,999.51	56.1253	7,999.51	59.2554	7,999.51	55.8607	7,999.51	59.4538	7,999.51	62.0227	7,999.51	60.8754	7,999.51	57.7627
8,282.23	85.0801	8,282.23	84.2815	8,282.23	84.9587	8,282.23	84.1879	8,282.23	84.3656	8,282.23	82.7991	8,282.23	83.2261	8,282.23	80.9875	8,282.23	81.4628	8,282.23	80.0627	8,282.23	80.7037	8,282.23	78.609	8,282.23	79.3938	8,282.23	75.6968	8,282.23	76.8691	8,282.23	73.2136	8,282.23	74.1027	8,282.23	68.9618	8,282.23	70.2316	8,282.23	66.3256	8,282.23	66.783	8,282.23	62.6732	8,282.23	64.3289	8,282.23	59.6074	8,282.23	62.7083	8,282.23	59.5335	8,282.23	60.9147	8,282.23	56.775	8,282.23	53.6695	8,282.23	57.0366	8,282.23	59.087	8,282.23	54.3529	8,282.23	60.7332	8,282.23	61.5946	8,282.23	59.6825	8,282.23	54.7575
8,573.73	85.2955	8,573.73	84.4636	8,573.73	85.0327	8,573.73	84.5079	8,573.73	84.5617	8,573.73	83.1728	8,573.73	83.6789	8,573.73	81.0756	8,573.73	81.7339	8,573.73	79.7366	8,573.73	80.5848	8,573.73	78.4683	8,573.73	79.2323	8,573.73	75.054	8,573.73	76.2152	8,573.73	72.7278	8,573.73	73.2191	8,573.73	68.6046	8,573.73	69.5816	8,573.73	64.5745	8,573.73	66.0841	8,573.73	62.0593	8,573.73	64.1287	8,573.73	58.8626	8,573.73	60.57	8,573.73	58.2263	8,573.73	61.4765	8,573.73	53.7241	8,573.73	59.2332	8,573.73	55.6454	8,573.73	59.8584	8,573.73	52.904	8,573.73	57.9313	8,573.73	60.0309	8,573.73	59.1453	8,573.73	54.818
8,876.95	85.7363	8,876.95	84.7555	8,876.95	85.3422	8,876.95	84.788	8,876.95	84.8446	8,876.95	83.3484	8,876.95	83.9464	8,876.95	80.9957	8,876.95	81.6146	8,876.95	79.448	8,876.95	80.3329	8,876.95	78.2404	8,876.95	78.8429	8,876.95	73.9523	8,876.95	75.6414	8,876.95	71.9552	8,876.95	72.4416	8,876.95	67.4502	8,876.95	69.1014	8,876.95	62.903	8,876.95	64.7465	8,876.95	62.0123	8,876.95	62.6399	8,876.95	58.1758	8,876.95	60.325	8,876.95	55.793	8,876.95	60.0787	8,876.95	52.7094	8,876.95	59.4926	8,876.95	52.4499	8,876.95	59.4462	8,876.95	51.0796	8,876.95	57.3772	8,876.95	57.2691	8,876.95	58.4715	8,876.95	51.6056
9,188.96	86.0383	9,188.96	84.9398	9,188.96	85.5132	9,188.96	84.8883	9,188.96	84.925	9,188.96	83.2561	9,188.96	83.8299	9,188.96	80.7883	9,188.96	81.2	9,188.96	79.2315	9,188.96	80.2063	9,188.96	78.0719	9,188.96	78.7275	9,188.96	73.8574	9,188.96	75.6313	9,188.96	70.8661	9,188.96	72.258	9,188.96	66.7646	9,188.96	68.7009	9,188.96	62.7941	9,188.96	64.6133	9,188.96	62.3056	9,188.96	62.1603	9,188.96	58.7565	9,188.96	59.7564	9,188.96	56.7075	9,188.96	59.7697	9,188.96	52.9608	9,188.96	55.7305	9,188.96	48.5538	9,188.96	58.2037	9,188.96	52.765	9,188.96	56.322	9,188.96	56.4244	9,188.96	56.8084	9,188.96	41.0202
9,514.16	85.87	9,514.16	84.7941	9,514.16	85.3455	9,514.16	84.6348	9,514.16	84.6752	9,514.16	82.9069	9,514.16	83.4415	9,514.16	80.3463	9,514.16	80.8902	9,514.16	78.9387	9,514.16	79.87	9,514.16	77.6301	9,514.16	78.1676	9,514.16	73.7657	9,514.16	75.526	9,514.16	70.2192	9,514.16	71.9839	9,514.16	66.3279	9,514.16	67.8959	9,514.16	63.0349	9,514.16	64.1297	9,514.16	61.4019	9,514.16	62.1477	9,514.16	57.4772	9,514.16	58.4698	9,514.16	58.17	9,514.16	59.6307	9,514.16	52.0938	9,514.16	53.8705	9,514.16	51.2633	9,514.16	57.6269	9,514.16	54.4697	9,514.16	56.762	9,514.16	55.4931	9,514.16	55.5813	9,514.16	42.6151
9,849.61	85.6016	9,849.61	84.802	9,849.61	85.2882	9,849.61	84.3319	9,849.61	84.5823	9,849.61	82.4554	9,849.61	83.1015	9,849.61	80.3138	9,849.61	80.7485	9,849.61	78.8468	9,849.61	79.5179	9,849.61	76.7264	9,849.61	77.6138	9,849.61	72.9793	9,849.61	74.4903	9,849.61	69.1224	9,849.61	70.7366	9,849.61	65.3845	9,849.61	67.3527	9,849.61	62.4546	9,849.61	62.4469	9,849.61	60.1339	9,849.61	61.219	9,849.61	56.4872	9,849.61	58.0001	9,849.61	57.2147	9,849.61	59.5265	9,849.61	52.2436	9,849.61	50.5264	9,849.61	53.9393	9,849.61	56.2495	9,849.61	49.7453	9,849.61	55.2782	9,849.61	54.7493	9,849.61	55.1005	9,849.61	45.5685
10,196.8	85.7203	10,196.8	85.1322	10,196.8	85.4672	10,196.8	84.3527	10,196.8	84.6927	10,196.8	82.4944	10,196.8	83.0536	10,196.8	80.6927	10,196.8	80.8729	10,196.8	78.3505	10,196.8	78.8981	10,196.8	76.4537	10,196.8	76.7849	10,196.8	72.6315	10,196.8	73.5387	10,196.8	69.3916	10,196.8	70.0329	10,196.8	65.7703	10,196.8	66.8513	10,196.8	61.7693	10,196.8	61.3391	10,196.8	59.3641	10,196.8	60.0483	10,196.8	58.7471	10,196.8	55.5802	10,196.8	55.6226	10,196.8	57.9051	10,196.8	53.3406	10,196.8	54.9131	10,196.8	56.0389	10,196.8	54.3726	10,196.8	50.0954	10,196.8	53.5289	10,196.8	53.3982	10,196.8	51.3061	10,196.8	46.1914
10,555.7	85.9824	10,555.7	85.4297	10,555.7	85.7294	10,555.7	84.4413	10,555.7	84.6795	10,555.7	82.6205	10,555.7	83.0504	10,555.7	80.6565	10,555.7	80.8077	10,555.7	77.9415	10,555.7	78.1082	10,555.7	76.7099	10,555.7	76.4044	10,555.7	72.7299	10,555.7	73.3083	10,555.7	69.931	10,555.7	69.1318	10,555.7	66.2071	10,555.7	66.4871	10,555.7	60.602	10,555.7	61.1502	10,555.7	60.0251	10,555.7	60.0832	10,555.7	57.1722	10,555.7	53.6174	10,555.7	55.6283	10,555.7	55.4244	10,555.7	52.3387	10,555.7	53.4222	10,555.7	54.0243	10,555.7	53.7085	10,555.7	52.985	10,555.7	51.9364	10,555.7	51.0327	10,555.7	53.1925	10,555.7	45.5488
10,927.7	86.0917	10,927.7	85.404	10,927.7	85.9142	10,927.7	84.477	10,927.7	84.5562	10,927.7	82.81	10,927.7	82.9555	10,927.7	80.4688	10,927.7	80.4936	10,927.7	78.1177	10,927.7	77.7782	10,927.7	76.5933	10,927.7	76.195	10,927.7	72.8089	10,927.7	72.9612	10,927.7	69.6692	10,927.7	67.5481	10,927.7	65.3865	10,927.7	64.9497	10,927.7	60.8659	10,927.7	59.2882	10,927.7	59.7493	10,927.7	58.6208	10,927.7	55.2174	10,927.7	51.3971	10,927.7	54.0743	10,927.7	54.549	10,927.7	51.5426	10,927.7	49.0527	10,927.7	51.284	10,927.7	52.3945	10,927.7	53.907	10,927.7	51.765	10,927.7	48.2257	10,927.7	53.0496	10,927.7	43.2282
11,313	86.2157	11,313	85.4151	11,313	85.9672	11,313	84.5872	11,313	84.5809	11,313	82.7259	11,313	82.9498	11,313	79.8327	11,313	80.1559	11,313	77.519	11,313	77.2697	11,313	76.0888	11,313	75.54	11,313	72.5859	11,313	72.0202	11,313	69.0278	11,313	66.0723	11,313	65.5877	11,313	64.1966	11,313	61.3986	11,313	58.1164	11,313	60.0748	11,313	58.469	11,313	55.2734	11,313	53.381	11,313	55.0461	11,313	55.3498	11,313	50.5073	11,313	48.0246	11,313	48.2773	11,313	48.2777	11,313	55.853	11,313	50.3765	11,313	45.869	11,313	51.7495	11,313	34.088
11,712.9	86.2809	11,712.9	85.7007	11,712.9	85.9264	11,712.9	84.7183	11,712.9	84.6128	11,712.9	82.6566	11,712.9	82.7438	11,712.9	79.9225	11,712.9	79.6305	11,712.9	77.5383	11,712.9	76.9124	11,712.9	75.4883	11,712.9	74.5434	11,712.9	71.9757	11,712.9	70.9028	11,712.9	68.6754	11,712.9	65.4781	11,712.9	65.78	11,712.9	64.5331	11,712.9	61.2716	11,712.9	57.7846	11,712.9	59.9194	11,712.9	57.5437	11,712.9	53.8664	11,712.9	45.8836	11,712.9	55.834	11,712.9	56.5713	11,712.9	49.8708	11,712.9	51.0719	11,712.9	52.8234	11,712.9	53.0124	11,712.9	55.7959	11,712.9	47.3232	11,712.9	44.7277	11,712.9	51.7784	11,712.9	41.497
12,126	86.4601	12,126	85.9533	12,126	86.0799	12,126	84.7137	12,126	84.6944	12,126	82.6133	12,126	82.6448	12,126	80.0252	12,126	79.6921	12,126	77.4143	12,126	76.7863	12,126	74.9622	12,126	73.586	12,126	71.553	12,126	70.5878	12,126	68.5421	12,126	64.8621	12,126	64.6958	12,126	63.4037	12,126	61.2715	12,126	58.6421	12,126	58.9543	12,126	56.7297	12,126	54.4561	12,126	49.1088	12,126	53.3987	12,126	53.0279	12,126	49.2503	12,126	50.1997	12,126	51.059	12,126	50.6499	12,126	55.5847	12,126	47.3733	12,126	44.0342	12,126	50.2612	12,126	43.9887
12,553.7	86.6236	12,553.7	86.0023	12,553.7	86.1108	12,553.7	84.7392	12,553.7	84.6365	12,553.7	82.4749	12,553.7	82.354	12,553.7	79.8729	12,553.7	79.5523	12,553.7	77.0317	12,553.7	76.2879	12,553.7	74.4569	12,553.7	72.6049	12,553.7	71.5039	12,553.7	69.9566	12,553.7	68.6458	12,553.7	63.8612	12,553.7	64.5068	12,553.7	62.6394	12,553.7	61.0231	12,553.7	58.4508	12,553.7	58.5356	12,553.7	54.9418	12,553.7	55.0176	12,553.7	48.4989	12,553.7	53.6372	12,553.7	53.6228	12,553.7	50.0597	12,553.7	45.593	12,553.7	49.1147	12,553.7	47.3809	12,553.7	55.3485	12,553.7	46.8743	12,553.7	41.5497	12,553.7	50.9427	12,553.7	44.6387
12,996.1	86.7363	12,996.1	86.0339	12,996.1	86.136	12,996.1	84.9431	12,996.1	84.5717	12,996.1	82.2154	12,996.1	82.0894	12,996.1	79.3672	12,996.1	79.1895	12,996.1	75.8681	12,996.1	75.636	12,996.1	73.7535	12,996.1	72.3587	12,996.1	70.5392	12,996.1	68.7955	12,996.1	67.5696	12,996.1	63.0958	12,996.1	63.3397	12,996.1	61.3781	12,996.1	60.3036	12,996.1	56.2767	12,996.1	57.8217	12,996.1	54.3023	12,996.1	53.0665	12,996.1	47.6396	12,996.1	54.5404	12,996.1	53.698	12,996.1	48.4515	12,996.1	43.3671	12,996.1	50.69	12,996.1	47.6249	12,996.1	54.5264	12,996.1	45.7031	12,996.1	34.9131	12,996.1	52.4103	12,996.1	38.834
13,454.6	86.9554	13,454.6	86.2724	13,454.6	86.3042	13,454.6	85.0897	13,454.6	84.6379	13,454.6	82.1495	13,454.6	82.0232	13,454.6	79.0729	13,454.6	78.6591	13,454.6	74.9194	13,454.6	74.7237	13,454.6	72.9156	13,454.6	71.4362	13,454.6	69.9606	13,454.6	67.2307	13,454.6	66.9763	13,454.6	62.1828	13,454.6	62.4338	13,454.6	60.604	13,454.6	61.0883	13,454.6	57.6702	13,454.6	56.1419	13,454.6	54.1525	13,454.6	48.6509	13,454.6	51.4821	13,454.6	53.7964	13,454.6	52.3948	13,454.6	48.1424	13,454.6	43.9202	13,454.6	51.091	13,454.6	49.5456	13,454.6	55.8791	13,454.6	40.9932	13,454.6	38.4663	13,454.6	51.0951	13,454.6	33.849
13,929.2	87.0143	13,929.2	86.3154	13,929.2	86.2795	13,929.2	84.8484	13,929.2	84.6706	13,929.2	82.207	13,929.2	82.0252	13,929.2	79.1331	13,929.2	78.0653	13,929.2	74.8803	13,929.2	73.8908	13,929.2	72.0143	13,929.2	69.3592	13,929.2	69.465	13,929.2	66.4738	13,929.2	66.9691	13,929.2	61.9768	13,929.2	61.7289	13,929.2	59.7128	13,929.2	60.8055	13,929.2	59.075	13,929.2	54.7944	13,929.2	55.0798	13,929.2	52.9714	13,929.2	52.1052	13,929.2	50.6292	13,929.2	53.3768	13,929.2	48.5649	13,929.2	42.8738	13,929.2	53.3871	13,929.2	45.5143	13,929.2	54.9928	13,929.2	43.3874	13,929.2	35.1599	13,929.2	48.3839	13,929.2	44.4833
14,419.9	86.9787	14,419.9	86.1531	14,419.9	86.1798	14,419.9	84.8222	14,419.9	84.4055	14,419.9	81.8571	14,419.9	81.5606	14,419.9	78.3259	14,419.9	77.3794	14,419.9	74.1836	14,419.9	72.9762	14,419.9	70.9628	14,419.9	68.0774	14,419.9	68.863	14,419.9	65.9936	14,419.9	68.0014	14,419.9	62.1345	14,419.9	60.127	14,419.9	58.2967	14,419.9	58.88	14,419.9	58.7982	14,419.9	54.1605	14,419.9	52.8902	14,419.9	52.9815	14,419.9	53.4446	14,419.9	49.4322	14,419.9	54.6004	14,419.9	47.8091	14,419.9	47.1414	14,419.9	54.1725	14,419.9	38.2349	14,419.9	54.2326	14,419.9	37.9916	14,419.9	37.6099	14,419.9	47.6156	14,419.9	42.5273
14,928.2	86.6807	14,928.2	85.8534	14,928.2	86.0355	14,928.2	84.6442	14,928.2	83.9861	14,928.2	81.2829	14,928.2	80.7577	14,928.2	77.6852	14,928.2	76.4519	14,928.2	72.8084	14,928.2	71.4223	14,928.2	69.3513	14,928.2	66.1794	14,928.2	67.8853	14,928.2	64.3513	14,928.2	67.5382	14,928.2	63.6182	14,928.2	59.0374	14,928.2	57.2166	14,928.2	58.1668	14,928.2	57.8707	14,928.2	54.408	14,928.2	51.6033	14,928.2	53.0893	14,928.2	52.2148	14,928.2	47.646	14,928.2	52.4131	14,928.2	45.7991	14,928.2	48.5074	14,928.2	51.3916	14,928.2	41.548	14,928.2	54.3499	14,928.2	45.3127	14,928.2	40.2439	14,928.2	48.9193	14,928.2	36.2653
15,455.6	86.784	15,455.6	85.9634	15,455.6	86.1484	15,455.6	84.4638	15,455.6	83.8832	15,455.6	81.0706	15,455.6	80.6351	15,455.6	77.2588	15,455.6	75.7374	15,455.6	71.3223	15,455.6	68.9419	15,455.6	68.343	15,455.6	62.2587	15,455.6	66.9789	15,455.6	64.1911	15,455.6	66.7965	15,455.6	64.6635	15,455.6	61.7449	15,455.6	61.6372	15,455.6	58.2832	15,455.6	59.4802	15,455.6	55.2769	15,455.6	54.1319	15,455.6	53.92	15,455.6	53.6327	15,455.6	50.9429	15,455.6	55.4547	15,455.6	44.2131	15,455.6	51.2588	15,455.6	51.7242	15,455.6	39.4973	15,455.6	56.4985	15,455.6	44.2647	15,455.6	41.7923	15,455.6	49.0941	15,455.6	42.2833
16,000.5	86.7053	16,000.5	85.7175	16,000.5	85.979	16,000.5	84.1876	16,000.5	83.7392	16,000.5	80.6634	16,000.5	79.9646	16,000.5	76.4107	16,000.5	74.5435	16,000.5	70.6171	16,000.5	65.6673	16,000.5	68.0091	16,000.5	63.0055	16,000.5	67.5313	16,000.5	67.1118	16,000.5	69.4405	16,000.5	66.8799	16,000.5	60.4693	16,000.5	62.2056	16,000.5	59.2278	16,000.5	61.0947	16,000.5	53.8311	16,000.5	54.714	16,000.5	54.9632	16,000.5	53.9871	16,000.5	53.7124	16,000.5	55.0097	16,000.5	48.218	16,000.5	49.9464	16,000.5	52.1004	16,000.5	38.7496	16,000.5	56.8815	16,000.5	42.4142	16,000.5	39.0301	16,000.5	48.5867	16,000.5	41.1046
16,564.5	86.3361	16,564.5	85.4676	16,564.5	85.6219	16,564.5	84.032	16,564.5	83.3899	16,564.5	79.8848	16,564.5	79.2482	16,564.5	75.6657	16,564.5	73.5325	16,564.5	69.2275	16,564.5	63.9975	16,564.5	66.0779	16,564.5	62.4467	16,564.5	68.2676	16,564.5	68.9655	16,564.5	69.8482	16,564.5	68.4413	16,564.5	61.2421	16,564.5	62.8169	16,564.5	60.019	16,564.5	60.601	16,564.5	54.2654	16,564.5	55.3287	16,564.5	55.9329	16,564.5	56.354	16,564.5	54.0277	16,564.5	56.0796	16,564.5	48.3659	16,564.5	48.4528	16,564.5	52.8207	16,564.5	29.9553	16,564.5	56.0147	16,564.5	39.0384	16,564.5	39.7362	16,564.5	48.3645	16,564.5	31.9693
17,148.9	85.7337	17,148.9	85.0527	17,148.9	85.0347	17,148.9	83.7369	17,148.9	82.6395	17,148.9	78.8147	17,148.9	78.4784	17,148.9	74.5119	17,148.9	71.7129	17,148.9	67.2701	17,148.9	61.4451	17,148.9	66.3783	17,148.9	64.4208	17,148.9	68.4876	17,148.9	69.3895	17,148.9	68.8014	17,148.9	68.527	17,148.9	62.7391	17,148.9	64.4186	17,148.9	59.5485	17,148.9	60.6223	17,148.9	53.9246	17,148.9	55.5662	17,148.9	53.2987	17,148.9	54.8778	17,148.9	53.0188	17,148.9	54.1515	17,148.9	48.2773	17,148.9	45.2777	17,148.9	51.5378	17,148.9	25.1977	17,148.9	55.0672	17,148.9	34.6581	17,148.9	46.5067	17,148.9	47.9513	17,148.9	35.9627
17,752.4	85.1737	17,752.4	84.5418	17,752.4	84.3041	17,752.4	82.9629	17,752.4	81.9576	17,752.4	77.9573	17,752.4	77.7532	17,752.4	72.6706	17,752.4	69.7786	17,752.4	65.4582	17,752.4	61.8573	17,752.4	66.4444	17,752.4	66.1771	17,752.4	67.6099	17,752.4	69.2675	17,752.4	68.8292	17,752.4	67.8701	17,752.4	61.1937	17,752.4	64.2736	17,752.4	58.2855	17,752.4	59.658	17,752.4	51.8497	17,752.4	55.3827	17,752.4	51.4471	17,752.4	53.0659	17,752.4	51.1032	17,752.4	53.2305	17,752.4	46.7054	17,752.4	45.1194	17,752.4	49.9954	17,752.4	34.5693	17,752.4	53.7295	17,752.4	36.4969	17,752.4	48.1875	17,752.4	47.902	17,752.4	41.3232
18,379.4	84.4041	18,379.4	83.7878	18,379.4	83.4878	18,379.4	81.9325	18,379.4	80.8184	18,379.4	76.8446	18,379.4	76.1375	18,379.4	70.4744	18,379.4	67.3309	18,379.4	63.2607	18,379.4	63.4081	18,379.4	65.035	18,379.4	65.7679	18,379.4	67.0356	18,379.4	68.7384	18,379.4	67.0609	18,379.4	66.9233	18,379.4	60.5325	18,379.4	62.9166	18,379.4	56.543	18,379.4	58.5146	18,379.4	52.9459	18,379.4	53.6768	18,379.4	48.9246	18,379.4	52.2612	18,379.4	48.6332	18,379.4	51.3191	18,379.4	44.7912	18,379.4	43.2926	18,379.4	48.1573	18,379.4	31.8918	18,379.4	51.0013	18,379.4	35.9021	18,379.4	48.3865	18,379.4	47.9242	18,379.4	39.3064
19,026.9	83.7901	19,026.9	83.0668	19,026.9	82.7598	19,026.9	81.0186	19,026.9	79.7063	19,026.9	75.4672	19,026.9	74.0612	19,026.9	67.5537	19,026.9	63.9044	19,026.9	62.2737	19,026.9	63.583	19,026.9	64.2261	19,026.9	64.1972	19,026.9	64.7836	19,026.9	66.8077	19,026.9	64.428	19,026.9	64.7827	19,026.9	59.7909	19,026.9	61.8389	19,026.9	52.2504	19,026.9	56.8714	19,026.9	53.1851	19,026.9	51.7484	19,026.9	46.8409	19,026.9	49.482	19,026.9	43.4623	19,026.9	46.2891	19,026.9	41.7961	19,026.9	38.0198	19,026.9	46.613	19,026.9	34.0001	19,026.9	47.1394	19,026.9	31.6397	19,026.9	48.6003	19,026.9	48.0361	19,026.9	41.4785
19,697.8	83.2962	19,697.8	82.4673	19,697.8	82.1855	19,697.8	79.9813	19,697.8	78.6742	19,697.8	73.3744	19,697.8	71.7947	19,697.8	64.3089	19,697.8	62.3799	19,697.8	61.4029	19,697.8	63.7554	19,697.8	62.1167	19,697.8	63.2808	19,697.8	61.8039	19,697.8	63.8131	19,697.8	62.1618	19,697.8	62.5365	19,697.8	56.4827	19,697.8	59.6605	19,697.8	48.5978	19,697.8	54.2216	19,697.8	51.1268	19,697.8	51.1481	19,697.8	43.6324	19,697.8	46.1403	19,697.8	36.6981	19,697.8	45.9441	19,697.8	39.0076	19,697.8	37.2334	19,697.8	44.0947	19,697.8	36.1677	19,697.8	41.9336	19,697.8	21.7655	19,697.8	47.6283	19,697.8	47.0168	19,697.8	36.8792
19,999.5	83.1639	19,999.5	82.2545	19,999.5	81.952	19,999.5	79.6548	19,999.5	78.1564	19,999.5	71.9254	19,999.5	70.0649	19,999.5	62.3128	19,999.5	61.1098	19,999.5	63.1275	19,999.5	64.7459	19,999.5	59.3197	19,999.5	64.2089	19,999.5	61.0438	19,999.5	63.0178	19,999.5	60.9145	19,999.5	61.2302	19,999.5	56.2618	19,999.5	57.6241	19,999.5	50.6687	19,999.5	56.1472	19,999.5	53.2139	19,999.5	51.4415	19,999.5	53.0883	19,999.5	48.0587	19,999.5	51.0431	19,999.5	51.8553	19,999.5	48.9101	19,999.5	42.4554	19,999.5	49.4436	19,999.5	44.009	19,999.5	46.2465	19,999.5	42.0901	19,999.5	43.7993	19,999.5	55.2066	19,999.5	40.0978
