"SPL Vertical"
"On-Axis"		"10°"		"-10°"		"20°"		"-20°"		"30°"		"-30°"		"40°"		"-40°"		"50°"		"-50°"		"60°"		"-60°"		"70°"		"-70°"		"80°"		"-80°"		"90°"		"-90°"		"100°"		"-100°"		"110°"		"-110°"		"120°"		"-120°"		"130°"		"-130°"		"140°"		"-140°"		"150°"		"-150°"		"160°"		"-160°"		"170°"		"-170°"		"180°"
"Frequency / Hz"	"Sound Pressure Level / dB (re 20 µPa/V)  [2.83  V @ 1. m]"	"Frequency / Hz"	"Sound Pressure Level / dB (re 20 µPa/V)  [2.83  V @ 1. m]"	"Frequency / Hz"	"Sound Pressure Level / dB (re 20 µPa/V)  [2.83  V @ 1. m]"	"Frequency / Hz"	"Sound Pressure Level / dB (re 20 µPa/V)  [2.83  V @ 1. m]"	"Frequency / Hz"	"Sound Pressure Level / dB (re 20 µPa/V)  [2.83  V @ 1. m]"	"Frequency / Hz"	"Sound Pressure Level / dB (re 20 µPa/V)  [2.83  V @ 1. m]"	"Frequency / Hz"	"Sound Pressure Level / dB (re 20 µPa/V)  [2.83  V @ 1. m]"	"Frequency / Hz"	"Sound Pressure Level / dB (re 20 µPa/V)  [2.83  V @ 1. m]"	"Frequency / Hz"	"Sound Pressure Level / dB (re 20 µPa/V)  [2.83  V @ 1. m]"	"Frequency / Hz"	"Sound Pressure Level / dB (re 20 µPa/V)  [2.83  V @ 1. m]"	"Frequency / Hz"	"Sound Pressure Level / dB (re 20 µPa/V)  [2.83  V @ 1. m]"	"Frequency / Hz"	"Sound Pressure Level / dB (re 20 µPa/V)  [2.83  V @ 1. m]"	"Frequency / Hz"	"Sound Pressure Level / dB (re 20 µPa/V)  [2.83  V @ 1. m]"	"Frequency / Hz"	"Sound Pressure Level / dB (re 20 µPa/V)  [2.83  V @ 1. m]"	"Frequency / Hz"	"Sound Pressure Level / dB (re 20 µPa/V)  [2.83  V @ 1. m]"	"Frequency / Hz"	"Sound Pressure Level / dB (re 20 µPa/V)  [2.83  V @ 1. m]"	"Frequency / Hz"	"Sound Pressure Level / dB (re 20 µPa/V)  [2.83  V @ 1. m]"	"Frequency / Hz"	"Sound Pressure Level / dB (re 20 µPa/V)  [2.83  V @ 1. m]"	"Frequency / Hz"	"Sound Pressure Level / dB (re 20 µPa/V)  [2.83  V @ 1. m]"	"Frequency / Hz"	"Sound Pressure Level / dB (re 20 µPa/V)  [2.83  V @ 1. m]"	"Frequency / Hz"	"Sound Pressure Level / dB (re 20 µPa/V)  [2.83  V @ 1. m]"	"Frequency / Hz"	"Sound Pressure Level / dB (re 20 µPa/V)  [2.83  V @ 1. m]"	"Frequency / Hz"	"Sound Pressure Level / dB (re 20 µPa/V)  [2.83  V @ 1. m]"	"Frequency / Hz"	"Sound Pressure Level / dB (re 20 µPa/V)  [2.83  V @ 1. m]"	"Frequency / Hz"	"Sound Pressure Level / dB (re 20 µPa/V)  [2.83  V @ 1. m]"	"Frequency / Hz"	"Sound Pressure Level / dB (re 20 µPa/V)  [2.83  V @ 1. m]"	"Frequency / Hz"	"Sound Pressure Level / dB (re 20 µPa/V)  [2.83  V @ 1. m]"	"Frequency / Hz"	"Sound Pressure Level / dB (re 20 µPa/V)  [2.83  V @ 1. m]"	"Frequency / Hz"	"Sound Pressure Level / dB (re 20 µPa/V)  [2.83  V @ 1. m]"	"Frequency / Hz"	"Sound Pressure Level / dB (re 20 µPa/V)  [2.83  V @ 1. m]"	"Frequency / Hz"	"Sound Pressure Level / dB (re 20 µPa/V)  [2.83  V @ 1. m]"	"Frequency / Hz"	"Sound Pressure Level / dB (re 20 µPa/V)  [2.83  V @ 1. m]"	"Frequency / Hz"	"Sound Pressure Level / dB (re 20 µPa/V)  [2.83  V @ 1. m]"	"Frequency / Hz"	"Sound Pressure Level / dB (re 20 µPa/V)  [2.83  V @ 1. m]"	"Frequency / Hz"	"Sound Pressure Level / dB (re 20 µPa/V)  [2.83  V @ 1. m]"	"Frequency / Hz"	"Sound Pressure Level / dB (re 20 µPa/V)  [2.83  V @ 1. m]"
20.5078	61.6308	20.5078	60.353	20.5078	62.9203	20.5078	59.2013	20.5078	64.153	20.5078	58.3289	20.5078	65.2886	20.5078	57.8644	20.5078	66.2987	20.5078	57.8195	20.5078	67.1562	20.5078	58.0786	20.5078	67.8304	20.5078	58.4845	20.5078	68.2853	20.5078	58.914	20.5078	68.4801	20.5078	59.2935	20.5078	68.3705	20.5078	59.5846	20.5078	67.9104	20.5078	59.7655	20.5078	67.0518	20.5078	59.8182	20.5078	65.7432	20.5078	59.7185	20.5078	63.9263	20.5078	59.4287	20.5078	61.5414	20.5078	58.8915	20.5078	58.5961	20.5078	58.0274	20.5078	55.5598	20.5078	56.7559	20.5078	54.1577	20.5078	55.1582
21.9727	66.7332	21.9727	66.1214	21.9727	67.471	21.9727	65.667	21.9727	68.29	21.9727	65.3801	21.9727	69.1394	21.9727	65.2462	21.9727	69.9677	21.9727	65.2325	21.9727	70.7252	21.9727	65.2972	21.9727	71.3643	21.9727	65.4001	21.9727	71.841	21.9727	65.5076	21.9727	72.1173	21.9727	65.5955	21.9727	72.1642	21.9727	65.6475	21.9727	71.9656	21.9727	65.6544	21.9727	71.5212	21.9727	65.6128	21.9727	70.8488	21.9727	65.5263	21.9727	69.9856	21.9727	65.4084	21.9727	68.9899	21.9727	65.289	21.9727	67.9434	21.9727	65.2214	21.9727	66.9522	21.9727	65.2855	21.9727	66.1318	21.9727	65.5704
23.4375	66.3551	23.4375	65.5923	23.4375	67.2003	23.4375	64.9547	23.4375	68.0787	23.4375	64.4688	23.4375	68.9406	23.4375	64.1371	23.4375	69.7382	23.4375	63.9377	23.4375	70.4257	23.4375	63.8336	23.4375	70.9591	23.4375	63.7843	23.4375	71.2983	23.4375	63.7551	23.4375	71.4104	23.4375	63.7212	23.4375	71.2746	23.4375	63.668	23.4375	70.8871	23.4375	63.5908	23.4375	70.2646	23.4375	63.4937	23.4375	69.4446	23.4375	63.3903	23.4375	68.483	23.4375	63.3044	23.4375	67.4476	23.4375	63.2725	23.4375	66.4118	23.4375	63.3425	23.4375	65.4482	23.4375	63.5672	23.4375	64.6238	23.4375	63.9895
24.9023	68.9589	24.9023	68.3947	24.9023	69.6131	24.9023	67.9448	24.9023	70.321	24.9023	67.6167	24.9023	71.0386	24.9023	67.4013	24.9023	71.7192	24.9023	67.277	24.9023	72.3153	24.9023	67.2167	24.9023	72.7817	24.9023	67.1943	24.9023	73.0783	24.9023	67.1887	24.9023	73.1741	24.9023	67.1851	24.9023	73.0528	24.9023	67.1755	24.9023	72.7167	24.9023	67.1574	24.9023	72.1894	24.9023	67.1338	24.9023	71.5151	24.9023	67.112	24.9023	70.7534	24.9023	67.1046	24.9023	69.9702	24.9023	67.1292	24.9023	69.227	24.9023	67.2089	24.9023	68.573	24.9023	67.3706	24.9023	68.0401	24.9023	67.6411
26.3672	71.4131	26.3672	70.9222	26.3672	71.9821	26.3672	70.5256	26.3672	72.6021	26.3672	70.2273	26.3672	73.2381	26.3672	70.0198	26.3672	73.8499	26.3672	69.8875	26.3672	74.3948	26.3672	69.8114	26.3672	74.8306	26.3672	69.7732	26.3672	75.1191	26.3672	69.7579	26.3672	75.2314	26.3672	69.7555	26.3672	75.1526	26.3672	69.7605	26.3672	74.8869	26.3672	69.7724	26.3672	74.4585	26.3672	69.7943	26.3672	73.9096	26.3672	69.8328	26.3672	73.2931	26.3672	69.8974	26.3672	72.6617	26.3672	70.0001	26.3672	72.0594	26.3672	70.1544	26.3672	71.5167	26.3672	70.3739	26.3672	71.0512	26.3672	70.6704
27.832	72.793	27.832	72.4742	27.832	73.197	27.832	72.2438	27.832	73.6704	27.832	72.0941	27.832	74.1844	27.832	72.0107	27.832	74.7005	27.832	71.9766	27.832	75.1737	27.832	71.9755	27.832	75.5582	27.832	71.9943	27.832	75.8134	27.832	72.0235	27.832	75.91	27.832	72.0575	27.832	75.8371	27.832	72.0939	27.832	75.6063	27.832	72.1331	27.832	75.252	27.832	72.1776	27.832	74.8252	27.832	72.2311	27.832	74.3804	27.832	72.298	27.832	73.9607	27.832	72.3832	27.832	73.5903	27.832	72.4918	27.832	73.2761	27.832	72.6293	27.832	73.0152	27.832	72.8018
29.2969	72.5684	29.2969	72.1018	29.2969	73.1151	29.2969	71.7312	29.2969	73.7137	29.2969	71.459	29.2969	74.3272	29.2969	71.2759	29.2969	74.9124	29.2969	71.165	29.2969	75.4231	29.2969	71.1065	29.2969	75.8137	29.2969	71.0822	29.2969	76.043	29.2969	71.0776	29.2969	76.0804	29.2969	71.0829	29.2969	75.9128	29.2969	71.0927	29.2969	75.5506	29.2969	71.1052	29.2969	75.0314	29.2969	71.1219	29.2969	74.4167	29.2969	71.1466	29.2969	73.7791	29.2969	71.1855	29.2969	73.1831	29.2969	71.2464	29.2969	72.6683	29.2969	71.3389	29.2969	72.2476	29.2969	71.4737	29.2969	71.9161	29.2969	71.6622
30.7617	75.6368	30.7617	75.2458	30.7617	76.0799	30.7617	74.9159	30.7617	76.5584	30.7617	74.6488	30.7617	77.0482	30.7617	74.4405	30.7617	77.5184	30.7617	74.2832	30.7617	77.9333	30.7617	74.1675	30.7617	78.2553	30.7617	74.0843	30.7617	78.4493	30.7617	74.026	30.7617	78.4884	30.7617	73.9872	30.7617	78.3604	30.7617	73.9651	30.7617	78.0725	30.7617	73.9589	30.7617	77.6533	30.7617	73.97	30.7617	77.1486	30.7617	74.0013	30.7617	76.6126	30.7617	74.057	30.7617	76.0945	30.7617	74.1422	30.7617	75.6284	30.7617	74.2626	30.7617	75.2298	30.7617	74.4243	30.7617	74.9004	30.7617	74.6344
32.2266	76.5818	32.2266	76.2475	32.2266	76.9634	32.2266	75.9665	32.2266	77.3791	32.2266	75.7385	32.2266	77.8078	32.2266	75.5588	32.2266	78.2213	32.2266	75.4204	32.2266	78.5856	32.2266	75.3153	32.2266	78.8647	32.2266	75.2364	32.2266	79.0254	32.2266	75.1779	32.2266	79.0439	32.2266	75.136	32.2266	78.912	32.2266	75.1088	32.2266	78.6411	32.2266	75.0962	32.2266	78.2627	32.2266	75.0996	32.2266	77.8215	32.2266	75.1218	32.2266	77.364	32.2266	75.1666	32.2266	76.9277	32.2266	75.2387	32.2266	76.5348	32.2266	75.3435	32.2266	76.1944	32.2266	75.4865	32.2266	75.9078	32.2266	75.673
33.6914	77.5412	33.6914	77.2053	33.6914	77.9189	33.6914	76.9174	33.6914	78.326	33.6914	76.6784	33.6914	78.7432	33.6914	76.4852	33.6914	79.1445	33.6914	76.3326	33.6914	79.4983	33.6914	76.2143	33.6914	79.7704	33.6914	76.1246	33.6914	79.9288	33.6914	76.0585	33.6914	79.9503	33.6914	76.0127	33.6914	79.8278	33.6914	75.9855	33.6914	79.5738	33.6914	75.977	33.6914	79.2197	33.6914	75.9888	33.6914	78.8077	33.6914	76.0239	33.6914	78.3791	33.6914	76.0859	33.6914	77.9647	33.6914	76.1791	33.6914	77.5822	33.6914	76.3078	33.6914	77.2397	33.6914	76.4757	33.6914	76.9406	33.6914	76.6861
35.1562	79.0276	35.1562	78.7054	35.1562	79.3787	35.1562	78.4184	35.1562	79.7483	35.1562	78.1694	35.1562	80.1207	35.1562	77.9588	35.1562	80.4752	35.1562	77.7848	35.1562	80.7856	35.1562	77.6451	35.1562	81.0231	35.1562	77.5364	35.1562	81.1603	35.1562	77.4563	35.1562	81.1775	35.1562	77.4026	35.1562	81.0687	35.1562	77.3743	35.1562	80.8458	35.1562	77.3716	35.1562	80.5364	35.1562	77.3954	35.1562	80.1764	35.1562	77.4476	35.1562	79.7991	35.1562	77.5304	35.1562	79.4286	35.1562	77.646	35.1562	79.0786	35.1562	77.7965	35.1562	78.7558	35.1562	77.9829	35.1562	78.4639	35.1562	78.2057
36.6211	80.0168	36.6211	79.779	36.6211	80.2758	36.6211	79.5648	36.6211	80.5502	36.6211	79.3747	36.6211	80.8298	36.6211	79.208	36.6211	81.0986	36.6211	79.0633	36.6211	81.3353	36.6211	78.9396	36.6211	81.5149	36.6211	78.836	36.6211	81.6126	36.6211	78.752	36.6211	81.6108	36.6211	78.6876	36.6211	81.5049	36.6211	78.6434	36.6211	81.3063	36.6211	78.6206	36.6211	81.0405	36.6211	78.6205	36.6211	80.739	36.6211	78.645	36.6211	80.43	36.6211	78.6958	36.6211	80.1324	36.6211	78.7746	36.6211	79.8561	36.6211	78.8824	36.6211	79.6053	36.6211	79.0196	36.6211	79.3816	36.6211	79.1862
38.0859	79.6027	38.0859	79.3597	38.0859	79.8698	38.0859	79.1434	38.0859	80.1544	38.0859	78.9542	38.0859	80.4455	38.0859	78.791	38.0859	80.7265	38.0859	78.6524	38.0859	80.9753	38.0859	78.5368	38.0859	81.1666	38.0859	78.4431	38.0859	81.2764	38.0859	78.3708	38.0859	81.2877	38.0859	78.3196	38.0859	81.1972	38.0859	78.29	38.0859	81.0175	38.0859	78.2829	38.0859	80.7737	38.0859	78.2993	38.0859	80.4951	38.0859	78.3406	38.0859	80.2062	38.0859	78.4081	38.0859	79.9221	38.0859	78.503	38.0859	79.6509	38.0859	78.6261	38.0859	79.3972	38.0859	78.7777	38.0859	79.165	38.0859	78.9577
39.5508	80.0196	39.5508	79.781	39.5508	80.2768	39.5508	79.5647	39.5508	80.5465	39.5508	79.3721	39.5508	80.8181	39.5508	79.2037	39.5508	81.0767	39.5508	79.0592	39.5508	81.3027	39.5508	78.9384	39.5508	81.4731	39.5508	78.8409	39.5508	81.566	39.5508	78.7666	39.5508	81.5659	39.5508	78.7156	39.5508	81.4699	39.5508	78.6881	39.5508	81.2902	39.5508	78.6845	39.5508	81.0514	39.5508	78.7054	39.5508	80.7826	39.5508	78.7511	39.5508	80.5076	39.5508	78.822	39.5508	80.2413	39.5508	78.9179	39.5508	79.9903	39.5508	79.0388	39.5508	79.7574	39.5508	79.184	39.5508	79.5444	39.5508	79.3528
41.0156	80.7221	41.0156	80.4862	41.0156	80.9705	41.0156	80.2666	41.0156	81.2254	41.0156	80.0652	41.0156	81.4772	41.0156	79.8831	41.0156	81.712	41.0156	79.7209	41.0156	81.9118	41.0156	79.5791	41.0156	82.0554	41.0156	79.458	41.0156	82.1227	41.0156	79.3581	41.0156	82.0993	41.0156	79.2799	41.0156	81.9827	41.0156	79.224	41.0156	81.7845	41.0156	79.1913	41.0156	81.5274	41.0156	79.183	41.0156	81.2385	41.0156	79.2	41.0156	80.9412	41.0156	79.2439	41.0156	80.6517	41.0156	79.3161	41.0156	80.3794	41.0156	79.4178	41.0156	80.1299	41.0156	79.55	41.0156	79.9069	41.0156	79.7131
42.4805	80.9889	42.4805	80.7613	42.4805	81.2254	42.4805	80.5464	42.4805	81.465	42.4805	80.3468	42.4805	81.6992	42.4805	80.1646	42.4805	81.9161	42.4805	80.0013	42.4805	82.0998	42.4805	79.8581	42.4805	82.2317	42.4805	79.7361	42.4805	82.2934	42.4805	79.6362	42.4805	82.2717	42.4805	79.5593	42.4805	82.1638	42.4805	79.506	42.4805	81.9796	42.4805	79.4769	42.4805	81.74	42.4805	79.4725	42.4805	81.4698	42.4805	79.4936	42.4805	81.1905	42.4805	79.5409	42.4805	80.9167	42.4805	79.6153	42.4805	80.657	42.4805	79.7179	42.4805	80.4167	42.4805	79.8494	42.4805	80.2001	42.4805	80.0104
43.9453	81.6457	43.9453	81.4264	43.9453	81.871	43.9453	81.2168	43.9453	82.0971	43.9453	81.0197	43.9453	82.3164	43.9453	80.8374	43.9453	82.5182	43.9453	80.6719	43.9453	82.6884	43.9453	80.5252	43.9453	82.8104	43.9453	80.3989	43.9453	82.8681	43.9453	80.2948	43.9453	82.8503	43.9453	80.2141	43.9453	82.7547	43.9453	80.1582	43.9453	82.5905	43.9453	80.1281	43.9453	82.3753	43.9453	80.125	43.9453	82.1296	43.9453	80.1498	43.9453	81.8711	43.9453	80.2032	43.9453	81.612	43.9453	80.2859	43.9453	81.3606	43.9453	80.398	43.9453	81.123	43.9453	80.5393	43.9453	80.9042	43.9453	80.7087
45.4102	82.0077	45.4102	81.8041	45.4102	82.2142	45.4102	81.607	45.4102	82.4192	45.4102	81.419	45.4102	82.6161	45.4102	81.2429	45.4102	82.7956	45.4102	81.0809	45.4102	82.9455	45.4102	80.9353	45.4102	83.0513	45.4102	80.8086	45.4102	83.0984	45.4102	80.7026	45.4102	83.0767	45.4102	80.6193	45.4102	82.984	45.4102	80.5602	45.4102	82.8284	45.4102	80.5269	45.4102	82.626	45.4102	80.5204	45.4102	82.3955	45.4102	80.5414	45.4102	82.1531	45.4102	80.5906	45.4102	81.9103	45.4102	80.668	45.4102	81.6749	45.4102	80.7734	45.4102	81.4525	45.4102	80.9061	45.4102	81.2479	45.4102	81.0648
46.875	82.2791	46.875	82.0827	46.875	82.477	46.875	81.8915	46.875	82.6719	46.875	81.7086	46.875	82.8574	46.875	81.5369	46.875	83.025	46.875	81.3794	46.875	83.163	46.875	81.239	46.875	83.2579	46.875	81.1181	46.875	83.2966	46.875	81.0191	46.875	83.2699	46.875	80.9437	46.875	83.1769	46.875	80.8931	46.875	83.0263	46.875	80.868	46.875	82.834	46.875	80.8685	46.875	82.6176	46.875	80.8946	46.875	82.3921	46.875	80.9457	46.875	82.1674	46.875	81.0213	46.875	81.9504	46.875	81.121	46.875	81.746	46.875	81.2443	46.875	81.5583	46.875	81.3904
48.3398	82.5878	48.3398	82.396	48.3398	82.7785	48.3398	82.2069	48.3398	82.9638	48.3398	82.024	48.3398	83.1378	48.3398	81.8508	48.3398	83.2926	48.3398	81.6907	48.3398	83.4179	48.3398	81.5471	48.3398	83.5016	48.3398	81.4231	48.3398	83.5318	48.3398	81.3214	48.3398	83.5006	48.3398	81.2443	48.3398	83.4077	48.3398	81.1932	48.3398	83.2616	48.3398	81.169	48.3398	83.0775	48.3398	81.1717	48.3398	82.8722	48.3398	81.201	48.3398	82.6592	48.3398	81.2558	48.3398	82.4473	48.3398	81.3349	48.3398	82.2421	48.3398	81.4369	48.3398	82.0477	48.3398	81.5606	48.3398	81.8677	48.3398	81.7046
51.2695	83.2272	51.2695	83.0479	51.2695	83.4011	51.2695	82.8669	51.2695	83.5652	51.2695	82.6883	51.2695	83.7147	51.2695	82.5162	51.2695	83.8434	51.2695	82.3546	51.2695	83.9439	51.2695	82.2076	51.2695	84.0074	51.2695	82.0789	51.2695	84.0254	51.2695	81.972	51.2695	83.9925	51.2695	81.8893	51.2695	83.9086	51.2695	81.8327	51.2695	83.7799	51.2695	81.8032	51.2695	83.617	51.2695	81.8011	51.2695	83.4317	51.2695	81.8258	51.2695	83.2343	51.2695	81.8766	51.2695	83.0333	51.2695	81.952	51.2695	82.8357	51.2695	82.0509	51.2695	82.647	51.2695	82.1715	51.2695	82.4715	51.2695	82.3123
52.7344	83.4724	52.7344	83.2994	52.7344	83.638	52.7344	83.1229	52.7344	83.7923	52.7344	82.947	52.7344	83.9306	52.7344	82.7759	52.7344	84.0478	52.7344	82.6141	52.7344	84.1371	52.7344	82.4658	52.7344	84.1913	52.7344	82.3352	52.7344	84.2033	52.7344	82.2259	52.7344	84.1686	52.7344	82.1408	52.7344	84.0874	52.7344	82.0821	52.7344	83.9651	52.7344	82.0509	52.7344	83.8111	52.7344	82.0474	52.7344	83.6356	52.7344	82.0713	52.7344	83.4479	52.7344	82.1214	52.7344	83.2557	52.7344	82.1964	52.7344	83.0655	52.7344	82.2949	52.7344	82.8825	52.7344	82.4148	52.7344	82.7111	52.7344	82.5544
54.1992	83.6861	54.1992	83.5182	54.1992	83.8451	54.1992	83.3456	54.1992	83.9914	54.1992	83.1724	54.1992	84.121	54.1992	83.0031	54.1992	84.2291	54.1992	82.8426	54.1992	84.3103	54.1992	82.6954	54.1992	84.3587	54.1992	82.566	54.1992	84.3688	54.1992	82.4581	54.1992	84.3369	54.1992	82.3749	54.1992	84.2634	54.1992	82.3185	54.1992	84.1529	54.1992	82.2899	54.1992	84.0128	54.1992	82.2893	54.1992	83.8512	54.1992	82.3161	54.1992	83.6758	54.1992	82.3692	54.1992	83.4936	54.1992	82.4469	54.1992	83.3107	54.1992	82.5475	54.1992	83.1329	54.1992	82.669	54.1992	82.9644	54.1992	82.8088
55.6641	83.9055	55.6641	83.7414	55.6641	84.059	55.6641	83.5709	55.6641	84.1979	55.6641	83.3985	55.6641	84.3185	55.6641	83.229	55.6641	84.4166	55.6641	83.0675	55.6641	84.4876	55.6641	82.9192	55.6641	84.5266	55.6641	82.7887	55.6641	84.5296	55.6641	82.6803	55.6641	84.4941	55.6641	82.5971	55.6641	84.4216	55.6641	82.5415	55.6641	84.3166	55.6641	82.5145	55.6641	84.1856	55.6641	82.516	55.6641	84.0352	55.6641	82.5452	55.6641	83.8712	55.6641	82.6004	55.6641	83.6992	55.6641	82.6797	55.6641	83.5249	55.6641	82.7808	55.6641	83.3539	55.6641	82.9014	55.6641	83.1908	55.6641	83.0389
58.5938	84.4349	58.5938	84.2773	58.5938	84.5787	58.5938	84.1104	58.5938	84.7047	58.5938	83.9391	58.5938	84.8094	58.5938	83.7688	58.5938	84.8892	58.5938	83.6051	58.5938	84.9408	58.5938	83.4533	58.5938	84.9611	58.5938	83.3188	58.5938	84.9477	58.5938	83.206	58.5938	84.9005	58.5938	83.1186	58.5938	84.8223	58.5938	83.059	58.5938	84.7184	58.5938	83.0285	58.5938	84.5947	58.5938	83.0271	58.5938	84.4562	58.5938	83.054	58.5938	84.3065	58.5938	83.1072	58.5938	84.1491	58.5938	83.1844	58.5938	83.9883	58.5938	83.2829	58.5938	83.829	58.5938	83.3995	58.5938	83.6756	58.5938	83.5314
60.0586	84.662	60.0586	84.5077	60.0586	84.801	60.0586	84.3429	60.0586	84.9208	60.0586	84.1727	60.0586	85.0179	60.0586	84.0028	60.0586	85.0893	60.0586	83.8391	60.0586	85.1326	60.0586	83.6873	60.0586	85.1456	60.0586	83.5528	60.0586	85.1273	60.0586	83.4402	60.0586	85.0785	60.0586	83.3533	60.0586	85.0023	60.0586	83.2945	60.0586	84.9038	60.0586	83.265	60.0586	84.788	60.0586	83.2647	60.0586	84.6589	60.0586	83.2926	60.0586	84.5189	60.0586	83.3468	60.0586	84.3705	60.0586	83.4248	60.0586	84.2173	60.0586	83.5238	60.0586	84.0637	60.0586	83.6405	60.0586	83.9139	60.0586	83.7717
62.9883	85.0775	62.9883	84.9315	62.9883	85.2056	62.9883	84.7724	62.9883	85.3117	62.9883	84.6057	62.9883	85.393	62.9883	84.4378	62.9883	85.4476	62.9883	84.2751	62.9883	85.4743	62.9883	84.1241	62.9883	85.4732	62.9883	83.9907	62.9883	85.4456	62.9883	83.8803	62.9883	85.3942	62.9883	83.7967	62.9883	85.3233	62.9883	83.7427	62.9883	85.2375	62.9883	83.7193	62.9883	85.1402	62.9883	83.7259	62.9883	85.0329	62.9883	83.761	62.9883	84.9158	62.9883	83.8217	62.9883	84.7897	62.9883	83.9049	62.9883	84.6566	62.9883	84.0065	62.9883	84.52	62.9883	84.1228	62.9883	84.3832	62.9883	84.2496
64.4531	85.2668	64.4531	85.1219	64.4531	85.392	64.4531	84.9623	64.4531	85.4934	64.4531	84.794	64.4531	85.5682	64.4531	84.6236	64.4531	85.6148	64.4531	84.4582	64.4531	85.6327	64.4531	84.3044	64.4531	85.6228	64.4531	84.1689	64.4531	85.5875	64.4531	84.0569	64.4531	85.5306	64.4531	83.9729	64.4531	85.4573	64.4531	83.9192	64.4531	85.3723	64.4531	83.897	64.4531	85.2788	64.4531	83.9055	64.4531	85.1774	64.4531	83.9426	64.4531	85.0674	64.4531	84.0053	64.4531	84.9487	64.4531	84.0898	64.4531	84.823	64.4531	84.1918	64.4531	84.6928	64.4531	84.3072	64.4531	84.5613	64.4531	84.4316
67.3828	85.5812	67.3828	85.442	67.3828	85.6969	67.3828	85.2845	67.3828	85.7852	67.3828	85.1151	67.3828	85.8436	67.3828	84.941	67.3828	85.8717	67.3828	84.7701	67.3828	85.8703	67.3828	84.6099	67.3828	85.8426	67.3828	84.468	67.3828	85.7934	67.3828	84.3507	67.3828	85.729	67.3828	84.2628	67.3828	85.6559	67.3828	84.2076	67.3828	85.5788	67.3828	84.1859	67.3828	85.4989	67.3828	84.197	67.3828	85.4142	67.3828	84.238	67.3828	85.3211	67.3828	84.3049	67.3828	85.2176	67.3828	84.3932	67.3828	85.1045	67.3828	84.4976	67.3828	84.9844	67.3828	84.6132	67.3828	84.8603	67.3828	84.7354
68.8477	85.7316	68.8477	85.5962	68.8477	85.8418	68.8477	85.4408	68.8477	85.9227	68.8477	85.2721	68.8477	85.9722	68.8477	85.0973	68.8477	85.9898	68.8477	84.9246	68.8477	85.9773	68.8477	84.7617	68.8477	85.9384	68.8477	84.6164	68.8477	85.8792	68.8477	84.4953	68.8477	85.8071	68.8477	84.4036	68.8477	85.7295	68.8477	84.3444	68.8477	85.6518	68.8477	84.319	68.8477	85.5748	68.8477	84.3267	68.8477	85.4955	68.8477	84.3646	68.8477	85.409	68.8477	84.4289	68.8477	85.3125	68.8477	84.5147	68.8477	85.2057	68.8477	84.6168	68.8477	85.0909	68.8477	84.7301	68.8477	84.971	68.8477	84.8495
71.7773	86.0213	71.7773	85.8909	71.7773	86.1238	71.7773	85.7384	71.7773	86.1943	71.7773	85.5708	71.7773	86.2305	71.7773	85.3957	71.7773	86.2323	71.7773	85.2216	71.7773	86.2024	71.7773	85.0567	71.7773	86.146	71.7773	84.9088	71.7773	86.0707	71.7773	84.7846	71.7773	85.9859	71.7773	84.6896	71.7773	85.9009	71.7773	84.6269	71.7773	85.8219	71.7773	84.598	71.7773	85.75	71.7773	84.6021	71.7773	85.6807	71.7773	84.6367	71.7773	85.6076	71.7773	84.6979	71.7773	85.5254	71.7773	84.7808	71.7773	85.4323	71.7773	84.8799	71.7773	85.3293	71.7773	84.9895	71.7773	85.2187	71.7773	85.1041
74.707	86.3355	74.707	86.2081	74.707	86.4327	74.707	86.0567	74.707	86.4954	74.707	85.8887	74.707	86.5216	74.707	85.7125	74.707	86.5118	74.707	85.5371	74.707	86.4692	74.707	85.3713	74.707	86.4006	74.707	85.2235	74.707	86.3151	74.707	85.1007	74.707	86.2238	74.707	85.0086	74.707	86.137	74.707	84.9503	74.707	86.0616	74.707	84.9269	74.707	85.9981	74.707	84.9372	74.707	85.9412	74.707	84.9777	74.707	85.883	74.707	85.0439	74.707	85.8168	74.707	85.13	74.707	85.7393	74.707	85.2298	74.707	85.6504	74.707	85.3371	74.707	85.5517	74.707	85.446
77.6367	86.4949	77.6367	86.369	77.6367	86.5881	77.6367	86.2169	77.6367	86.6444	77.6367	86.0466	77.6367	86.662	77.6367	85.867	77.6367	86.642	77.6367	85.6879	77.6367	86.5891	77.6367	85.5189	77.6367	86.5115	77.6367	85.3691	77.6367	86.4204	77.6367	85.2463	77.6367	86.3285	77.6367	85.1562	77.6367	86.2471	77.6367	85.1022	77.6367	86.1827	77.6367	85.0851	77.6367	86.134	77.6367	85.103	77.6367	86.0936	77.6367	85.1522	77.6367	86.0513	77.6367	85.2271	77.6367	85.9988	77.6367	85.3212	77.6367	85.932	77.6367	85.4277	77.6367	85.8504	77.6367	85.5396	77.6367	85.7557	77.6367	85.6507
79.1016	86.5278	79.1016	86.4011	79.1016	86.6207	79.1016	86.2471	79.1016	86.6753	79.1016	86.0741	79.1016	86.69	79.1016	85.8913	79.1016	86.6662	79.1016	85.7089	79.1016	86.6089	79.1016	85.5369	79.1016	86.527	79.1016	85.3847	79.1016	86.4325	79.1016	85.2605	79.1016	86.339	79.1016	85.1703	79.1016	86.258	79.1016	85.1176	79.1016	86.1959	79.1016	85.1031	79.1016	86.1512	79.1016	85.1247	79.1016	86.1157	79.1016	85.1781	79.1016	86.0783	79.1016	85.2575	79.1016	86.0306	79.1016	85.3557	79.1016	85.9678	79.1016	85.4654	79.1016	85.8892	79.1016	85.5796	79.1016	85.7962	79.1016	85.6917
82.0312	86.6876	82.0312	86.5637	82.0312	86.7741	82.0312	86.409	82.0312	86.8189	82.0312	86.2322	82.0312	86.8206	82.0312	86.0431	82.0312	86.7814	82.0312	85.8522	82.0312	86.7076	82.0312	85.6705	82.0312	86.6097	82.0312	85.508	82.0312	86.5016	82.0312	85.3738	82.0312	86.3983	82.0312	85.2746	82.0312	86.3125	82.0312	85.2146	82.0312	86.2502	82.0312	85.195	82.0312	86.2089	82.0312	85.2139	82.0312	86.1788	82.0312	85.2669	82.0312	86.1477	82.0312	85.3472	82.0312	86.106	82.0312	85.4471	82.0312	86.0489	82.0312	85.5582	82.0312	85.9752	82.0312	85.6728	82.0312	85.8859	82.0312	85.7839
84.9609	86.872	84.9609	86.7491	84.9609	86.9548	84.9609	86.5932	84.9609	86.9931	84.9609	86.4129	84.9609	86.9856	84.9609	86.2183	84.9609	86.9347	84.9609	86.0205	84.9609	86.8473	84.9609	85.8302	84.9609	86.7349	84.9609	85.6578	84.9609	86.6126	84.9609	85.5123	84.9609	86.4969	84.9609	85.4006	84.9609	86.4012	84.9609	85.3269	84.9609	86.332	84.9609	85.2927	84.9609	86.286	84.9609	85.2968	84.9609	86.2522	84.9609	85.3355	84.9609	86.2172	84.9609	85.4033	84.9609	86.1708	84.9609	85.4934	84.9609	86.1076	84.9609	85.5985	84.9609	86.027	84.9609	85.7111	84.9609	85.9311	84.9609	85.824
87.8906	86.8611	87.8906	86.7405	87.8906	86.9409	87.8906	86.5864	87.8906	86.9754	87.8906	86.4078	87.8906	86.9638	87.8906	86.2156	87.8906	86.9091	87.8906	86.021	87.8906	86.8193	87.8906	85.8357	87.8906	86.7073	87.8906	85.6704	87.8906	86.5894	87.8906	85.5341	87.8906	86.4826	87.8906	85.434	87.8906	86.3999	87.8906	85.3737	87.8906	86.3461	87.8906	85.3543	87.8906	86.3164	87.8906	85.3734	87.8906	86.2987	87.8906	85.4264	87.8906	86.2796	87.8906	85.5067	87.8906	86.2484	87.8906	85.6066	87.8906	86.1996	87.8906	85.718	87.8906	86.1316	87.8906	85.8331	87.8906	86.0454	87.8906	85.9443
90.8203	86.8761	90.8203	86.7618	90.8203	86.9463	90.8203	86.6106	90.8203	86.9684	90.8203	86.4319	90.8203	86.9422	90.8203	86.2367	90.8203	86.872	90.8203	86.0369	90.8203	86.7677	90.8203	85.8445	90.8203	86.6443	90.8203	85.6708	90.8203	86.5202	90.8203	85.5256	90.8203	86.4137	90.8203	85.4164	90.8203	86.3377	90.8203	85.3475	90.8203	86.2949	90.8203	85.3204	90.8203	86.2771	90.8203	85.3335	90.8203	86.2693	90.8203	85.3823	90.8203	86.256	90.8203	85.4607	90.8203	86.2265	90.8203	85.5608	90.8203	86.1762	90.8203	85.6743	90.8203	86.1047	90.8203	85.7929	90.8203	86.0142	90.8203	85.9084
95.2148	86.8841	95.2148	86.772	95.2148	86.9487	95.2148	86.6201	95.2148	86.9615	95.2148	86.4389	95.2148	86.9226	95.2148	86.2408	95.2148	86.8378	95.2148	86.0389	95.2148	86.719	95.2148	85.8467	95.2148	86.5843	95.2148	85.6764	95.2148	86.4556	95.2148	85.5386	95.2148	86.3542	95.2148	85.4404	95.2148	86.2941	95.2148	85.3858	95.2148	86.2765	95.2148	85.3748	95.2148	86.2892	95.2148	85.4042	95.2148	86.3126	95.2148	85.4681	95.2148	86.3274	95.2148	85.5593	95.2148	86.3204	95.2148	85.6694	95.2148	86.2859	95.2148	85.7903	95.2148	86.2237	95.2148	85.9137	95.2148	86.1373	95.2148	86.0318
98.1445	86.8562	98.1445	86.742	98.1445	86.9194	98.1445	86.585	98.1445	86.9274	98.1445	86.3957	98.1445	86.8805	98.1445	86.1869	98.1445	86.785	98.1445	85.9726	98.1445	86.6538	98.1445	85.7668	98.1445	86.5063	98.1445	85.5829	98.1445	86.3659	98.1445	85.4324	98.1445	86.2554	98.1445	85.3239	98.1445	86.1894	98.1445	85.2623	98.1445	86.1686	98.1445	85.2483	98.1445	86.1801	98.1445	85.2788	98.1445	86.2035	98.1445	85.3473	98.1445	86.2189	98.1445	85.4451	98.1445	86.2136	98.1445	85.5626	98.1445	86.1819	98.1445	85.6896	98.1445	86.1232	98.1445	85.8169	98.1445	86.0399	98.1445	85.936
101.074	86.762	101.074	86.6545	101.074	86.8148	101.074	86.5002	101.074	86.8092	101.074	86.3099	101.074	86.7464	101.074	86.0969	101.074	86.6343	101.074	85.8753	101.074	86.4878	101.074	85.66	101.074	86.3288	101.074	85.4649	101.074	86.1831	101.074	85.3021	101.074	86.0739	101.074	85.1809	101.074	86.0147	101.074	85.1069	101.074	86.0034	101.074	85.0818	101.074	86.0238	101.074	85.103	101.074	86.053	101.074	85.1648	101.074	86.0707	101.074	85.2591	101.074	86.0641	101.074	85.3761	101.074	86.0284	101.074	85.5057	101.074	85.964	101.074	85.6377	101.074	85.8739	101.074	85.763
105.469	86.7834	105.469	86.6799	105.469	86.8223	105.469	86.5211	105.469	86.7922	105.469	86.3193	105.469	86.694	105.469	86.089	105.469	86.5364	105.469	85.8464	105.469	86.3367	105.469	85.6076	105.469	86.1209	105.469	85.3881	105.469	85.9209	105.469	85.2013	105.469	85.767	105.469	85.0573	105.469	85.6776	105.469	84.9621	105.469	85.6517	105.469	84.9173	105.469	85.67	105.469	84.9202	105.469	85.7051	105.469	84.9648	105.469	85.7325	105.469	85.0424	105.469	85.7371	105.469	85.1432	105.469	85.7131	105.469	85.2571	105.469	85.6607	105.469	85.3741	105.469	85.5831	105.469	85.4854
108.398	87.1287	108.398	87.023	108.398	87.1663	108.398	86.8589	108.398	87.1303	108.398	86.6493	108.398	87.0212	108.398	86.4093	108.398	86.8469	108.398	86.1555	108.398	86.6245	108.398	85.9046	108.398	86.3806	108.398	85.6724	108.398	86.1489	108.398	85.4729	108.398	85.9628	108.398	85.3165	108.398	85.8448	108.398	85.2098	108.398	85.7971	108.398	85.1545	108.398	85.8019	108.398	85.1479	108.398	85.8312	108.398	85.1836	108.398	85.8589	108.398	85.2525	108.398	85.8682	108.398	85.3443	108.398	85.852	108.398	85.4485	108.398	85.8092	108.398	85.5551	108.398	85.7422	108.398	85.6556
112.793	87.18	112.793	87.0621	112.793	87.2292	112.793	86.8858	112.793	87.2039	112.793	86.6646	112.793	87.1044	112.793	86.4143	112.793	86.9387	112.793	86.152	112.793	86.7245	112.793	85.8948	112.793	86.4891	112.793	85.6589	112.793	86.267	112.793	85.4582	112.793	86.0924	112.793	85.3035	112.793	85.9878	112.793	85.2011	112.793	85.9555	112.793	85.153	112.793	85.9761	112.793	85.1567	112.793	86.0189	112.793	85.2058	112.793	86.0549	112.793	85.2913	112.793	86.0651	112.793	85.4028	112.793	86.0412	112.793	85.5292	112.793	85.9832	112.793	85.66	112.793	85.8957	112.793	85.7852
117.188	87.0518	117.188	86.9275	117.188	87.1058	117.188	86.743	117.188	87.0842	117.188	86.5126	117.188	86.9881	117.188	86.2525	117.188	86.8267	117.188	85.9807	117.188	86.6188	117.188	85.7152	117.188	86.3921	117.188	85.4727	117.188	86.1802	117.188	85.2675	117.188	86.0146	117.188	85.1105	117.188	85.9147	117.188	85.0081	117.188	85.8808	117.188	84.962	117.188	85.8944	117.188	84.9695	117.188	85.9282	117.188	85.0242	117.188	85.9559	117.188	85.1169	117.188	85.9596	117.188	85.2372	117.188	85.9301	117.188	85.3735	117.188	85.8659	117.188	85.5149	117.188	85.7705	117.188	85.6506
120.117	87.0066	120.117	86.8846	120.117	87.0531	120.117	86.6982	120.117	87.0183	120.117	86.4624	120.117	86.9035	120.117	86.195	120.117	86.7192	120.117	85.9148	120.117	86.4865	120.117	85.6407	120.117	86.2368	120.117	85.39	120.117	86.0077	120.117	85.1774	120.117	85.8333	120.117	85.0136	120.117	85.7328	120.117	84.9046	120.117	85.7025	120.117	84.8519	120.117	85.7195	120.117	84.8521	120.117	85.7533	120.117	84.8984	120.117	85.778	120.117	84.9817	120.117	85.7775	120.117	85.0916	120.117	85.7453	120.117	85.2173	120.117	85.6812	120.117	85.3486	120.117	85.5891	120.117	85.4755
124.512	87.1581	124.512	87.0211	124.512	87.2172	124.512	86.8185	124.512	87.191	124.512	86.5669	124.512	87.0796	124.512	86.2852	124.512	86.8926	124.512	85.9935	124.512	86.6507	124.512	85.7115	124.512	86.3863	124.512	85.4573	124.512	86.1397	124.512	85.2459	124.512	85.9493	124.512	85.0878	124.512	85.8392	124.512	84.9889	124.512	85.8085	124.512	84.9498	124.512	85.8339	124.512	84.9662	124.512	85.8821	124.512	85.0301	124.512	85.9232	124.512	85.131	124.512	85.9383	124.512	85.2569	124.512	85.9193	124.512	85.3955	124.512	85.865	124.512	85.5355	124.512	85.7787	124.512	85.6663
128.906	86.9487	128.906	86.7917	128.906	87.0245	128.906	86.5674	128.906	87.0117	128.906	86.2939	128.906	86.9108	128.906	85.992	128.906	86.7326	128.906	85.684	128.906	86.5006	128.906	85.3915	128.906	86.2503	128.906	85.1341	128.906	86.0249	128.906	84.9277	128.906	85.864	128.906	84.783	128.906	85.7897	128.906	84.7054	128.906	85.7969	128.906	84.6946	128.906	85.8573	128.906	84.7452	128.906	85.9337	128.906	84.8477	128.906	85.9939	128.906	84.99	128.906	86.0182	128.906	85.1585	128.906	85.9979	128.906	85.3392	128.906	85.9323	128.906	85.5186	128.906	85.8254	128.906	85.6844
133.301	86.8601	133.301	86.6814	133.301	86.9527	133.301	86.4316	133.301	86.9506	133.301	86.1303	133.301	86.8539	133.301	85.7999	133.301	86.6738	133.301	85.4644	133.301	86.435	133.301	85.1472	133.301	86.1763	133.301	84.8693	133.301	85.9459	133.301	84.6481	133.301	85.7895	133.301	84.4958	133.301	85.7329	133.301	84.4186	133.301	85.7705	133.301	84.4169	133.301	85.8684	133.301	84.4859	133.301	85.9811	133.301	84.6161	133.301	86.0692	133.301	84.7948	133.301	86.1073	133.301	85.0068	133.301	86.0848	133.301	85.2358	133.301	86.001	133.301	85.4654	133.301	85.8623	133.301	85.6792
139.16	86.7243	139.16	86.5085	139.16	86.8492	139.16	86.2181	139.16	86.8734	139.16	85.8739	139.16	86.7957	139.16	85.4999	139.16	86.6256	139.16	85.1213	139.16	86.386	139.16	84.7628	139.16	86.1143	139.16	84.4467	139.16	85.8587	139.16	84.1911	139.16	85.6674	139.16	84.0083	139.16	85.5728	139.16	83.9052	139.16	85.5762	139.16	83.8827	139.16	85.6482	139.16	83.9372	139.16	85.7426	139.16	84.0614	139.16	85.815	139.16	84.2443	139.16	85.8343	139.16	84.4723	139.16	85.7853	139.16	84.7293	139.16	85.666	139.16	84.9969	139.16	85.4845	139.16	85.2553
143.555	86.5649	143.555	86.315	143.555	86.7205	143.555	85.988	143.555	86.7717	143.555	85.6063	143.555	86.7173	143.555	85.1963	143.555	86.5672	143.555	84.7856	143.555	86.3445	143.555	84.4013	143.555	86.0855	143.555	84.0673	143.555	85.8359	143.555	83.8023	143.555	85.6405	143.555	83.6173	143.555	85.5285	143.555	83.5163	143.555	85.5011	143.555	83.4967	143.555	85.5323	143.555	83.5515	143.555	85.5808	143.555	83.6715	143.555	85.6068	143.555	83.847	143.555	85.5816	143.555	84.0674	143.555	85.491	143.555	84.321	143.555	85.3341	143.555	84.5933	143.555	85.1203	143.555	84.8665
147.949	86.206	147.949	85.9199	147.949	86.3952	147.949	85.5556	147.949	86.4766	147.949	85.1373	147.949	86.4494	147.949	84.6932	147.949	86.3247	147.949	84.253	147.949	86.1272	147.949	83.8457	147.949	85.8947	147.949	83.4972	147.949	85.6726	147.949	83.2277	147.949	85.5024	147.949	83.0501	147.949	85.4069	147.949	82.9688	147.949	85.3817	147.949	82.9802	147.949	85.3982	147.949	83.0739	147.949	85.4176	147.949	83.2353	147.949	85.4059	147.949	83.4484	147.949	85.3413	147.949	83.6979	147.949	85.2152	147.949	83.9704	147.949	85.0307	147.949	84.2534	147.949	84.7987	147.949	84.5343
153.809	85.9696	153.809	85.6414	153.809	86.1895	153.809	85.2257	153.809	86.2889	153.809	84.7498	153.809	86.2665	153.809	84.245	153.809	86.1349	153.809	83.7442	153.809	85.9223	153.809	83.2798	153.809	85.6725	153.809	82.8802	153.809	85.4386	153.809	82.568	153.809	85.2678	153.809	82.358	153.809	85.1838	153.809	82.2565	153.809	85.1764	153.809	82.2617	153.809	85.2088	153.809	82.3651	153.809	85.2359	153.809	82.5532	153.809	85.2207	153.809	82.8093	153.809	85.1407	153.809	83.1155	153.809	84.9873	153.809	83.4536	153.809	84.7632	153.809	83.806	153.809	84.48	153.809	84.1545
159.668	86.0778	159.668	85.6874	159.668	86.3565	159.668	85.2095	159.668	86.5077	159.668	84.6746	159.668	86.5264	159.668	84.1168	159.668	86.4215	159.668	83.5708	159.668	86.2185	159.668	83.0698	159.668	85.96	159.668	82.6415	159.668	85.7012	159.668	82.3065	159.668	85.4957	159.668	82.077	159.668	85.3756	159.668	81.9569	159.668	85.3365	159.668	81.944	159.668	85.3416	159.668	82.0311	159.668	85.3417	159.668	82.2085	159.668	85.2944	159.668	82.464	159.668	85.1738	159.668	82.7835	159.668	84.97	159.668	83.1508	159.668	84.6872	159.668	83.5474	159.668	84.3404	159.668	83.9521
165.527	85.9568	165.527	85.5052	165.527	86.2967	165.527	84.9697	165.527	86.5058	165.527	84.3845	165.527	86.5771	165.527	83.7871	165.527	86.518	165.527	83.2153	165.527	86.3529	165.527	82.7041	165.527	86.1239	165.527	82.2827	165.527	85.8852	165.527	81.972	165.527	85.6894	165.527	81.782	165.527	85.5673	165.527	81.7116	165.527	85.5146	165.527	81.7507	165.527	85.4968	165.527	81.8845	165.527	85.4686	165.527	82.0983	165.527	85.3924	165.527	82.3797	165.527	85.2454	165.527	82.7182	165.527	85.0188	165.527	83.1022	165.527	84.7154	165.527	83.5165	165.527	84.3487	165.527	83.9404
171.387	86.0113	171.387	85.5564	171.387	86.3661	171.387	85.0315	171.387	86.598	171.387	84.4702	171.387	86.6955	171.387	83.906	171.387	86.6616	171.387	83.3695	171.387	86.5167	171.387	82.8867	171.387	86.2998	171.387	82.4793	171.387	86.0632	171.387	82.1639	171.387	85.8593	171.387	81.9514	171.387	85.7196	171.387	81.8445	171.387	85.6398	171.387	81.8376	171.387	85.5828	171.387	81.9177	171.387	85.4996	171.387	82.0687	171.387	85.3516	171.387	82.2771	171.387	85.1203	171.387	82.5355	171.387	84.8075	171.387	82.8425	171.387	84.4298	171.387	83.1978	171.387	84.0148	171.387	83.5946
177.246	85.9873	177.246	85.5483	177.246	86.338	177.246	85.0534	177.246	86.5746	177.246	84.5359	177.246	86.6826	177.246	84.0263	177.246	86.6636	177.246	83.5498	177.246	86.5384	177.246	83.127	177.246	86.3471	177.246	82.7754	177.246	86.1426	177.246	82.5098	177.246	85.9738	177.246	82.3414	177.246	85.8642	177.246	82.2744	177.246	85.8009	177.246	82.3034	177.246	85.7429	177.246	82.4138	177.246	85.6443	177.246	82.5849	177.246	85.4746	177.246	82.7955	177.246	85.2261	177.246	83.0304	177.246	84.9123	177.246	83.2837	177.246	84.5605	177.246	83.5593	177.246	84.2028	177.246	83.865
183.105	85.8983	183.105	85.5249	183.105	86.2025	183.105	85.1107	183.105	86.4109	183.105	84.6807	183.105	86.505	183.105	84.2544	183.105	86.4807	183.105	83.8473	183.105	86.3533	183.105	83.4729	183.105	86.1592	183.105	83.1462	183.105	85.9504	183.105	82.884	183.105	85.7791	183.105	82.7028	183.105	85.6748	183.105	82.614	183.105	85.6293	183.105	82.6193	183.105	85.6026	183.105	82.7085	183.105	85.5463	183.105	82.8621	183.105	85.4259	183.105	83.0577	183.105	85.2301	183.105	83.2775	183.105	84.9687	183.105	83.5137	183.105	84.6657	183.105	83.7683	183.105	84.3504	183.105	84.0471
188.965	85.9435	188.965	85.6897	188.965	86.1216	188.965	85.3795	188.965	86.2073	188.965	85.0313	188.965	86.1915	188.965	84.6619	188.965	86.0783	188.965	84.2873	188.965	85.8899	188.965	83.924	188.965	85.6666	188.965	83.59	188.965	85.4599	188.965	83.3044	188.965	85.3146	188.965	83.0856	188.965	85.2488	188.965	82.9478	188.965	85.2435	188.965	82.8968	188.965	85.2534	188.965	82.9273	188.965	85.2294	188.965	83.0229	188.965	85.1374	188.965	83.1609	188.965	84.966	188.965	83.3212	188.965	84.7263	188.965	83.4944	188.965	84.4471	188.965	83.6854	188.965	84.1641	188.965	83.9065
196.289	86.5441	196.289	86.322	196.289	86.664	196.289	86.0208	196.289	86.662	196.289	85.6641	196.289	86.528	196.289	85.2737	196.289	86.2681	196.289	84.8704	196.289	85.9114	196.289	84.4756	196.289	85.5131	196.289	84.1115	196.289	85.1467	196.289	83.801	196.289	84.8794	196.289	83.5648	196.289	84.7391	196.289	83.4177	196.289	84.6988	196.289	83.3643	196.289	84.6971	196.289	83.3954	196.289	84.6752	196.289	83.4879	196.289	84.6011	196.289	83.6102	196.289	84.4749	196.289	83.7305	196.289	84.3201	196.289	83.828	196.289	84.1699	196.289	83.9009	196.289	84.0503	196.289	83.9663
203.613	86.6626	203.613	86.4479	203.613	86.7839	203.613	86.1604	203.613	86.7928	203.613	85.819	203.613	86.6774	203.613	85.4411	203.613	86.4387	203.613	85.0439	203.613	86.0981	203.613	84.6465	203.613	85.7001	203.613	84.2714	203.613	85.308	203.613	83.9434	203.613	84.9858	203.613	83.6867	203.613	84.771	203.613	83.5182	203.613	84.6549	203.613	83.4414	203.613	84.5922	203.613	83.4435	203.613	84.5298	203.613	83.4979	203.613	84.4337	203.613	83.5739	203.613	84.2993	203.613	83.6464	203.613	84.1451	203.613	83.704	203.613	83.999	203.613	83.7512	203.613	83.8834	203.613	83.8044
210.938	86.487	210.938	86.3152	210.938	86.5679	210.938	86.0715	210.938	86.5411	210.938	85.7744	210.938	86.3977	210.938	85.441	210.938	86.1441	210.938	85.0879	210.938	85.8079	210.938	84.7318	210.938	85.4412	210.938	84.3907	210.938	85.1117	210.938	84.0837	210.938	84.8816	210.938	83.8317	210.938	84.7793	210.938	83.6553	210.938	84.7855	210.938	83.5696	210.938	84.8461	210.938	83.5758	210.938	84.8991	210.938	83.6553	210.938	84.8975	210.938	83.7745	210.938	84.8214	210.938	83.898	210.938	84.6805	210.938	84.0056	210.938	84.5072	210.938	84.101	210.938	84.3406	210.938	84.2056
218.262	86.3324	218.262	86.2046	218.262	86.3474	218.262	85.9855	218.262	86.2329	218.262	85.6987	218.262	85.9826	218.262	85.369	218.262	85.609	218.262	85.0217	218.262	85.1517	218.262	84.6811	218.262	84.6808	218.262	84.3685	218.262	84.2843	218.262	84.1002	218.262	84.0347	218.262	83.8885	218.262	83.9511	218.262	83.7431	218.262	83.9919	218.262	83.6706	218.262	84.0843	218.262	83.6703	218.262	84.1593	218.262	83.7256	218.262	84.1721	218.262	83.8024	218.262	84.1096	218.262	83.8601	218.262	83.994	218.262	83.8715	218.262	83.8754	218.262	83.8402	218.262	83.8052	218.262	83.802
225.586	86.4273	225.586	86.2492	225.586	86.4749	225.586	85.9647	225.586	86.3739	225.586	85.6019	225.586	86.1171	225.586	85.1925	225.586	85.7152	225.586	84.7715	225.586	85.2063	225.586	84.3745	225.586	84.6606	225.586	84.0337	225.586	84.1711	225.586	83.7719	225.586	83.8216	225.586	83.6009	225.586	83.6466	225.586	83.5229	225.586	83.6192	225.586	83.5351	225.586	83.6816	225.586	83.6304	225.586	83.7836	225.586	83.7934	225.586	83.8975	225.586	83.9945	225.586	84.0136	225.586	84.1919	225.586	84.1307	225.586	84.3432	225.586	84.2467	225.586	84.4199	225.586	84.3498	225.586	84.4166
232.91	86.5055	232.91	86.3327	232.91	86.5347	232.91	86.0384	232.91	86.4025	232.91	85.6483	232.91	86.099	232.91	85.1943	232.91	85.632	232.91	84.7149	232.91	85.0389	232.91	84.2537	232.91	84.3993	232.91	83.852	232.91	83.8307	232.91	83.5407	232.91	83.4491	232.91	83.3337	232.91	83.3067	232.91	83.2294	232.91	83.3647	232.91	83.2163	232.91	83.5352	232.91	83.2783	232.91	83.7375	232.91	83.3943	232.91	83.919	232.91	83.5378	232.91	84.0482	232.91	83.6808	232.91	84.1099	232.91	83.804	232.91	84.1069	232.91	83.9035	232.91	84.0583	232.91	83.9869
241.699	86.4849	241.699	86.3062	241.699	86.52	241.699	85.9963	241.699	86.403	241.699	85.5747	241.699	86.1298	241.699	85.0702	241.699	85.7028	241.699	84.5236	241.699	85.1386	241.699	83.9875	241.699	84.479	241.699	83.5211	241.699	83.8013	241.699	83.178	241.699	83.2158	241.699	82.9909	241.699	82.8303	241.699	82.9627	241.699	82.6906	241.699	83.0683	241.699	82.7514	241.699	83.2642	241.699	82.9154	241.699	83.4975	241.699	83.0941	241.699	83.7113	241.699	83.2392	241.699	83.8538	241.699	83.3457	241.699	83.8924	241.699	83.4405	241.699	83.8281	241.699	83.5564	241.699	83.6978
250.488	86.3019	250.488	86.1105	250.488	86.311	250.488	85.7544	250.488	86.1342	250.488	85.2613	250.488	85.7843	250.488	84.6684	250.488	85.2933	250.488	84.0223	250.488	84.712	250.488	83.3804	250.488	84.105	250.488	82.8096	250.488	83.5404	250.488	82.3792	250.488	83.0765	250.488	82.1445	250.488	82.7486	250.488	82.1285	250.488	82.5605	250.488	82.3137	250.488	82.4875	250.488	82.649	250.488	82.4921	250.488	83.0622	250.488	82.5453	250.488	83.4682	250.488	82.6424	250.488	83.7808	250.488	82.8017	250.488	83.9306	250.488	83.0445	250.488	83.8862	250.488	83.3569	250.488	83.6699
259.277	86.1959	259.277	86.0182	259.277	86.1936	259.277	85.6923	259.277	85.9912	259.277	85.2542	259.277	85.5909	259.277	84.7377	259.277	85.0268	259.277	84.1715	259.277	84.3728	259.277	83.5806	259.277	83.7357	259.277	82.9905	259.277	83.2256	259.277	82.4344	259.277	82.9068	259.277	81.962	259.277	82.7696	259.277	81.641	259.277	82.7501	259.277	81.5404	259.277	82.7758	259.277	81.6941	259.277	82.8002	259.277	82.0663	259.277	82.816	259.277	82.5558	259.277	82.8522	259.277	83.0345	259.277	82.9527	259.277	83.3909	259.277	83.1351	259.277	83.5585	259.277	83.3578	259.277	83.53
268.066	86.6447	268.066	86.4535	268.066	86.6406	268.066	86.1	268.066	86.4177	268.066	85.6218	268.066	85.9707	268.066	85.0588	268.066	85.3231	268.066	84.453	268.066	84.5354	268.066	83.8467	268.066	83.7065	268.066	83.2765	268.066	82.9556	268.066	82.7687	268.066	82.3835	268.066	82.3405	268.066	82.0353	268.066	82.0134	268.066	81.8932	268.066	81.8288	268.066	81.9007	268.066	81.84	268.066	81.9964	268.066	82.0677	268.066	82.1401	268.066	82.452	268.066	82.3224	268.066	82.8664	268.066	82.5505	268.066	83.183	268.066	82.8183	268.066	83.3241	268.066	83.0843	268.066	83.2772
276.855	86.0636	276.855	85.7994	276.855	86.174	276.855	85.4122	276.855	86.1023	276.855	84.9311	276.855	85.8329	276.855	84.3859	276.855	85.376	276.855	83.8134	276.855	84.7758	276.855	83.2614	276.855	84.1079	276.855	82.7833	276.855	83.4568	276.855	82.4208	276.855	82.8846	276.855	82.1817	276.855	82.4205	276.855	82.0358	276.855	82.083	276.855	81.9405	276.855	81.9015	276.855	81.8819	276.855	81.8963	276.855	81.8988	276.855	82.0452	276.855	82.052	276.855	82.2925	276.855	82.3487	276.855	82.5809	276.855	82.7024	276.855	82.8557	276.855	82.9859	276.855	83.0535	276.855	83.1096
287.109	85.7561	287.109	85.7138	287.109	85.5833	287.109	85.478	287.109	85.1985	287.109	85.0858	287.109	84.6406	287.109	84.5835	287.109	83.9947	287.109	84.0214	287.109	83.3895	287.109	83.4504	287.109	82.9596	287.109	82.9188	287.109	82.7713	287.109	82.4673	287.109	82.7786	287.109	82.1244	287.109	82.8649	287.109	81.9027	287.109	82.9243	287.109	81.8026	287.109	82.9122	287.109	81.8191	287.109	82.8499	287.109	81.9447	287.109	82.7973	287.109	82.1635	287.109	82.8083	287.109	82.4405	287.109	82.8922	287.109	82.7212	287.109	83.0062	287.109	82.9464	287.109	83.0844	287.109	83.072
297.363	85.7113	297.363	85.6649	297.363	85.5383	297.363	85.4231	297.363	85.1253	297.363	85.0123	297.363	84.4694	297.363	84.4672	297.363	83.614	297.363	83.8368	297.363	82.6856	297.363	83.1857	297.363	81.8925	297.363	82.5879	297.363	81.4187	297.363	82.1112	297.363	81.2746	297.363	81.7975	297.363	81.3179	297.363	81.648	297.363	81.4146	297.363	81.6285	297.363	81.52	297.363	81.6934	297.363	81.6527	297.363	81.8126	297.363	81.8362	297.363	81.9788	297.363	82.0655	297.363	82.1881	297.363	82.3078	297.363	82.4122	297.363	82.5193	297.363	82.5959	297.363	82.6566	297.363	82.6856
307.617	85.569	307.617	85.4142	307.617	85.3798	307.617	84.9869	307.617	84.7927	307.617	84.3699	307.617	83.7873	307.617	83.6536	307.617	82.4241	307.617	82.9301	307.617	80.95	307.617	82.2838	307.617	79.8851	307.617	81.78	307.617	79.6884	307.617	81.4561	307.617	80.1861	307.617	81.3213	307.617	80.8947	307.617	81.36	307.617	81.5441	307.617	81.5365	307.617	82.0658	307.617	81.7966	307.617	82.4537	307.617	82.0732	307.617	82.7037	307.617	82.2998	307.617	82.8111	307.617	82.433	307.617	82.788	307.617	82.4721	307.617	82.678	307.617	82.4634	307.617	82.5523	307.617	82.4755
319.336	87.7861	319.336	87.3816	319.336	87.7863	319.336	86.6297	319.336	87.332	319.336	85.5971	319.336	86.3775	319.336	84.3682	319.336	84.8836	319.336	83.0605	319.336	82.8391	319.336	81.8441	319.336	80.3615	319.336	80.9373	319.336	78.0384	319.336	80.529	319.336	77.2067	319.336	80.6616	319.336	78.32	319.336	81.2145	319.336	80.2438	319.336	82.0048	319.336	82.1879	319.336	82.87	319.336	83.8653	319.336	83.6877	319.336	85.1453	319.336	84.3773	319.336	85.9739	319.336	84.9072	319.336	86.3681	319.336	85.3001	319.336	86.4082	319.336	85.62	319.336	86.2176	319.336	85.9266
329.59	88.672	329.59	88.1083	329.59	88.9102	329.59	87.2921	329.59	88.7463	329.59	86.2828	329.59	88.1112	329.59	85.124	329.59	86.9553	329.59	83.8563	329.59	85.2729	329.59	82.5447	329.59	83.1713	329.59	81.3051	329.59	81.0362	329.59	80.3042	329.59	79.6676	329.59	79.7095	329.59	79.6791	329.59	79.6242	329.59	80.6972	329.59	80.0739	329.59	82.0662	329.59	81.0041	329.59	83.4263	329.59	82.2373	329.59	84.5825	329.59	83.5072	329.59	85.4061	329.59	84.5797	329.59	85.8612	329.59	85.3316	329.59	86.0235	329.59	85.7594	329.59	86.0267	329.59	85.9525
341.309	88.0606	341.309	87.4058	341.309	88.4386	341.309	86.5645	341.309	88.4506	341.309	85.6052	341.309	88.0255	341.309	84.5648	341.309	87.1231	341.309	83.463	341.309	85.7485	341.309	82.3369	341.309	83.9885	341.309	81.2698	341.309	82.0953	341.309	80.3877	341.309	80.5964	341.309	79.7977	341.309	80.1148	341.309	79.5112	341.309	80.6836	341.309	79.4775	341.309	81.7387	341.309	79.7309	341.309	82.8106	341.309	80.4213	341.309	83.6934	341.309	81.5634	341.309	84.3285	341.309	82.8711	341.309	84.7408	341.309	83.9937	341.309	84.9981	341.309	84.7396	341.309	85.1345	341.309	85.0891
353.027	87.7111	353.027	87.2542	353.027	87.9741	353.027	86.6558	353.027	87.955	353.027	85.9272	353.027	87.5574	353.027	85.0601	353.027	86.7078	353.027	84.0596	353.027	85.3874	353.027	82.968	353.027	83.6813	353.027	81.8772	353.027	81.8682	353.027	80.9218	353.027	80.4796	353.027	80.2403	353.027	80.0064	353.027	79.9055	353.027	80.3813	353.027	79.8949	353.027	81.1908	353.027	80.1475	353.027	82.1354	353.027	80.6276	353.027	83.0415	353.027	81.3071	353.027	83.7792	353.027	82.1094	353.027	84.2662	353.027	82.9137	353.027	84.4768	353.027	83.6087	353.027	84.4217	353.027	84.1239
366.211	87.4582	366.211	87.0674	366.211	87.7267	366.211	86.5731	366.211	87.7864	366.211	85.9449	366.211	87.5117	366.211	85.1498	366.211	86.7887	366.211	84.1865	366.211	85.5552	366.211	83.1033	366.211	83.8366	366.211	82.0098	366.211	81.823	366.211	81.0779	366.211	80.0256	366.211	80.4865	366.211	79.199	366.211	80.2921	366.211	79.5077	366.211	80.3703	366.211	80.3486	366.211	80.5563	366.211	81.2397	366.211	80.8164	366.211	82.0092	366.211	81.2444	366.211	82.5877	366.211	81.8665	366.211	82.9498	366.211	82.5183	366.211	83.1389	366.211	82.9902	366.211	83.2246	366.211	83.2045
379.395	87.3917	379.395	87.0518	379.395	87.4628	379.395	86.4774	379.395	87.2208	379.395	85.6904	379.395	86.6306	379.395	84.7139	379.395	85.6896	379.395	83.594	379.395	84.4471	379.395	82.4165	379.395	83.0178	379.395	81.3088	379.395	81.5861	379.395	80.4177	379.395	80.3943	379.395	79.8584	379.395	79.6997	379.395	79.6628	379.395	79.6643	379.395	79.7836	379.395	80.1962	379.395	80.1525	379.395	80.969	379.395	80.7164	379.395	81.6682	379.395	81.4108	379.395	82.1567	379.395	82.1209	379.395	82.4659	379.395	82.6989	379.395	82.7046	379.395	83.0283	379.395	82.9311	379.395	83.0807
392.578	87.3161	392.578	86.8678	392.578	87.4686	392.578	86.1826	392.578	87.2619	392.578	85.3035	392.578	86.645	392.578	84.2559	392.578	85.5956	392.578	83.0583	392.578	84.1391	392.578	81.7443	392.578	82.3791	392.578	80.4012	392.578	80.5462	392.578	79.2257	392.578	79.044	392.578	78.5223	392.578	78.327	392.578	78.4691	392.578	78.5016	392.578	78.868	392.578	79.2214	392.578	79.3725	392.578	80.0992	392.578	79.8359	392.578	80.9269	392.578	80.3478	392.578	81.6205	392.578	81.021	392.578	82.1559	392.578	81.7725	392.578	82.5346	392.578	82.3859	392.578	82.7406	392.578	82.7129
405.762	86.688	405.762	86.2611	405.762	86.9653	405.762	85.7092	405.762	86.9549	405.762	84.9589	405.762	86.4912	405.762	83.9332	405.762	85.4709	405.762	82.6198	405.762	83.9125	405.762	81.0825	405.762	82.0262	405.762	79.4531	405.762	80.2747	405.762	77.9447	405.762	79.1659	405.762	76.897	405.762	78.7341	405.762	76.6839	405.762	78.6321	405.762	77.3105	405.762	78.7502	405.762	78.3414	405.762	79.2055	405.762	79.3974	405.762	79.8727	405.762	80.3789	405.762	80.5116	405.762	81.3081	405.762	81.1166	405.762	82.1193	405.762	81.7706	405.762	82.6379	405.762	82.3806	405.762	82.7236
420.41	87.0121	420.41	86.7923	420.41	86.9186	420.41	86.2119	420.41	86.5597	420.41	85.267	420.41	85.9296	420.41	84.01	420.41	84.9525	420.41	82.5419	420.41	83.533	420.41	80.9908	420.41	81.6439	420.41	79.486	420.41	79.4733	420.41	78.1486	420.41	77.6808	420.41	77.1264	420.41	77.1287	420.41	76.6451	420.41	77.6242	420.41	76.9068	420.41	78.4316	420.41	77.7892	420.41	79.3828	420.41	78.8556	420.41	80.5519	420.41	79.7338	420.41	81.7745	420.41	80.3385	420.41	82.7156	420.41	80.8625	420.41	83.1366	420.41	81.5519	420.41	82.9809	420.41	82.3614
435.059	86.9936	435.059	86.6598	435.059	87.1192	435.059	86.1275	435.059	86.9619	435.059	85.3584	435.059	86.4149	435.059	84.3173	435.059	85.3896	435.059	83.0146	435.059	83.8519	435.059	81.5271	435.059	81.8607	435.059	79.9963	435.059	79.663	435.059	78.6057	435.059	77.8504	435.059	77.5282	435.059	77.159	435.059	76.8531	435.059	77.5826	435.059	76.5793	435.059	78.4502	435.059	76.7272	435.059	79.3364	435.059	77.3786	435.059	80.136	435.059	78.4652	435.059	80.7558	435.059	79.6546	435.059	81.0831	435.059	80.5868	435.059	81.161	435.059	81.089	435.059	81.1802	435.059	81.2144
451.172	87.0745	451.172	86.6357	451.172	87.1823	451.172	85.8714	451.172	86.9278	451.172	84.7934	451.172	86.2487	451.172	83.4495	451.172	85.0802	451.172	81.9327	451.172	83.4048	451.172	80.3652	451.172	81.3248	451.172	78.8786	451.172	79.1661	451.172	77.6353	451.172	77.5061	451.172	76.8626	451.172	76.816	451.172	76.7318	451.172	76.997	451.172	77.1434	451.172	77.6509	451.172	77.8388	451.172	78.4763	451.172	78.6836	451.172	79.2614	451.172	79.6885	451.172	79.9022	451.172	80.7989	451.172	80.4828	451.172	81.7785	451.172	81.1593	451.172	82.349	451.172	81.8813	451.172	82.3634
465.82	86.5706	465.82	86.2322	465.82	86.6273	465.82	85.5673	465.82	86.4227	465.82	84.5659	465.82	85.8977	465.82	83.2687	465.82	84.926	465.82	81.7517	465.82	83.3947	465.82	80.1032	465.82	81.3085	465.82	78.4223	465.82	78.9429	465.82	76.8482	465.82	77.0725	465.82	75.5947	465.82	76.5729	465.82	74.9197	465.82	77.0437	465.82	75.0203	465.82	77.5434	465.82	75.9143	465.82	77.9393	465.82	77.3278	465.82	78.6206	465.82	78.8027	465.82	79.6635	465.82	79.9942	465.82	80.7018	465.82	80.8075	465.82	81.4165	465.82	81.3281	465.82	81.7105	465.82	81.6427
483.398	86.026	483.398	85.6456	483.398	86.0273	483.398	84.9387	483.398	85.5865	483.398	83.9449	483.398	84.656	483.398	82.7045	483.398	83.2339	483.398	81.2664	483.398	81.3814	483.398	79.6848	483.398	79.2151	483.398	78.0316	483.398	76.918	483.398	76.47	483.398	74.9239	483.398	75.3499	483.398	74.1808	483.398	75.0063	483.398	75.087	483.398	75.2879	483.398	76.5775	483.398	75.8087	483.398	77.8017	483.398	76.5682	483.398	78.6554	483.398	77.8072	483.398	79.3453	483.398	79.3064	483.398	79.9801	483.398	80.5058	483.398	80.508	483.398	81.1081	483.398	80.9113	483.398	81.168
499.512	85.7557	499.512	85.3159	499.512	85.9974	499.512	84.6125	499.512	85.9449	499.512	83.5354	499.512	85.3889	499.512	82.0559	499.512	84.1471	499.512	80.2563	499.512	82.1488	499.512	78.2834	499.512	79.4936	499.512	76.2723	499.512	76.5975	499.512	74.3497	499.512	74.3685	499.512	72.9042	499.512	73.708	499.512	72.8105	499.512	74.5064	499.512	74.1424	499.512	76.1176	499.512	75.6957	499.512	77.872	499.512	76.7378	499.512	79.1829	499.512	77.444	499.512	79.8868	499.512	78.4974	499.512	80.2765	499.512	79.977	499.512	80.7711	499.512	81.1734	499.512	81.3671	499.512	81.6259
517.09	85.667	517.09	85.3773	517.09	85.4081	517.09	84.4864	517.09	84.8203	517.09	83.1026	517.09	84.1227	517.09	81.434	517.09	83.2512	517.09	79.6904	517.09	81.911	517.09	77.9981	517.09	79.8962	517.09	76.4026	517.09	77.3032	517.09	74.9041	517.09	74.8976	517.09	73.4888	517.09	74.1346	517.09	72.3775	517.09	74.7629	517.09	72.4847	517.09	75.5517	517.09	74.3175	517.09	76.5173	517.09	76.6566	517.09	77.8719	517.09	78.4456	517.09	79.4209	517.09	79.4797	517.09	80.8921	517.09	80.1329	517.09	81.9388	517.09	80.9369	517.09	82.2647	517.09	81.8252
536.133	85.4973	536.133	84.7901	536.133	85.611	536.133	83.697	536.133	85.0214	536.133	82.3956	536.133	83.7875	536.133	80.9329	536.133	82.1135	536.133	79.2605	536.133	80.1743	536.133	77.3578	536.133	77.9458	536.133	75.3119	536.133	75.3689	536.133	73.327	536.133	72.8984	536.133	71.7003	536.133	72.0312	536.133	70.7445	536.133	73.1155	536.133	70.6864	536.133	74.6013	536.133	71.6649	536.133	76.1229	536.133	73.6171	536.133	77.8963	536.133	76.0781	536.133	79.5328	536.133	78.4144	536.133	80.6112	536.133	80.1867	536.133	81.1763	536.133	81.2218	536.133	81.4818	536.133	81.5746
555.176	84.8405	555.176	84.2434	555.176	85.1154	555.176	83.4233	555.176	84.8357	555.176	82.3205	555.176	83.7985	555.176	80.85	555.176	81.9475	555.176	79.0125	555.176	79.4179	555.176	76.9198	555.176	76.5735	555.176	74.7483	555.176	74.0128	555.176	72.6075	555.176	72.3494	555.176	70.4692	555.176	71.7492	555.176	68.6503	555.176	71.8484	555.176	68.755	555.176	72.3398	555.176	71.0332	555.176	73.3996	555.176	73.5415	555.176	75.0374	555.176	75.8421	555.176	76.7104	555.176	78.2207	555.176	78.1579	555.176	80.3361	555.176	79.5634	555.176	81.5868	555.176	80.9083	555.176	81.7309
574.219	85.1192	574.219	84.9969	574.219	84.7733	574.219	84.2705	574.219	84.1138	574.219	82.9438	574.219	83.1099	574.219	81.133	574.219	81.5554	574.219	78.9772	574.219	79.268	574.219	76.5531	574.219	76.1961	574.219	73.8549	574.219	72.4299	574.219	70.9164	574.219	68.352	574.219	68.2852	574.219	65.9529	574.219	67.5648	574.219	67.6116	574.219	69.2041	574.219	70.2621	574.219	71.5804	574.219	72.3742	574.219	73.6693	574.219	74.2794	574.219	75.3023	574.219	76.3991	574.219	76.9321	574.219	78.6483	574.219	78.9428	574.219	80.5732	574.219	80.8097	574.219	81.7255	574.219	81.826
594.727	85.3788	594.727	85.1771	594.727	84.9613	594.727	84.2353	594.727	84.224	594.727	82.6012	594.727	83.2975	594.727	80.3823	594.727	81.8371	594.727	77.7011	594.727	79.3986	594.727	74.7392	594.727	75.845	594.727	71.7135	594.727	71.4343	594.727	68.5888	594.727	66.9255	594.727	64.8877	594.727	64.5749	594.727	61.1604	594.727	67.6448	594.727	63.0866	594.727	71.9382	594.727	67.8891	594.727	74.8365	594.727	71.9731	594.727	76.5466	594.727	75.0636	594.727	77.477	594.727	77.2006	594.727	78.0815	594.727	78.7593	594.727	79.127	594.727	80.0117	594.727	80.2757	594.727	80.6387
615.234	85.2167	615.234	84.6078	615.234	85.0865	615.234	83.4364	615.234	84.0906	615.234	81.8183	615.234	82.3472	615.234	79.8015	615.234	80.2744	615.234	77.4067	615.234	78.0706	615.234	74.6589	615.234	75.3736	615.234	71.5933	615.234	71.8967	615.234	68.2691	615.234	68.0295	615.234	64.898	615.234	65.476	615.234	61.9864	615.234	65.0755	615.234	60.0407	615.234	66.1071	615.234	61.2445	615.234	68.4232	615.234	66.7233	615.234	71.195	615.234	71.6495	615.234	74.3572	615.234	74.8115	615.234	77.5445	615.234	76.7727	615.234	79.8054	615.234	78.4473	615.234	80.5911	615.234	79.9582
637.207	85.2347	637.207	84.5734	637.207	85.2036	637.207	83.2091	637.207	84.3468	637.207	81.1375	637.207	82.4139	637.207	78.3963	637.207	79.3897	637.207	74.9843	637.207	75.9988	637.207	70.8834	637.207	73.2532	637.207	66.328	637.207	70.5384	637.207	62.1746	637.207	66.5144	637.207	59.751	637.207	60.7253	637.207	57.9742	637.207	58.1141	637.207	49.6677	637.207	63.6088	637.207	57.671	637.207	67.5198	637.207	67.1087	637.207	70.501	637.207	72.3407	637.207	73.904	637.207	75.6178	637.207	77.5986	637.207	77.4766	637.207	80.2066	637.207	78.7936	637.207	81.0116	637.207	80.2246
659.18	86.053	659.18	85.3707	659.18	85.8806	659.18	83.9417	659.18	84.8387	659.18	81.861	659.18	83.0644	659.18	79.1953	659.18	80.5767	659.18	76.0138	659.18	76.9947	659.18	72.4875	659.18	72.2319	659.18	69.1959	659.18	68.6204	659.18	67.1983	659.18	67.3526	659.18	66.2352	659.18	65.8784	659.18	64.3335	659.18	64.0917	659.18	59.6882	659.18	66.8032	659.18	57.7212	659.18	71.2281	659.18	63.8958	659.18	74.2477	659.18	68.8975	659.18	76.7528	659.18	72.7811	659.18	78.8723	659.18	75.6338	659.18	80.0652	659.18	77.8404	659.18	80.2305	659.18	79.4498
682.617	86.7579	682.617	85.8328	682.617	86.8026	682.617	84.3358	682.617	85.6813	682.617	82.4297	682.617	83.3024	682.617	80.0743	682.617	79.9291	682.617	77.2049	682.617	75.9961	682.617	74.0251	682.617	70.9098	682.617	71.0004	682.617	61.4785	682.617	68.3069	682.617	52.2128	682.617	65.9316	682.617	53.6845	682.617	64.201	682.617	54.3023	682.617	63.2306	682.617	60.4391	682.617	63.5038	682.617	67.0601	682.617	67.2945	682.617	71.3765	682.617	72.2145	682.617	74.6039	682.617	75.7935	682.617	77.4579	682.617	77.7434	682.617	79.4987	682.617	78.636	682.617	80.1246	682.617	79.5002
707.52	86.5024	707.52	85.9173	707.52	86.5057	707.52	84.9812	707.52	85.4434	707.52	83.4398	707.52	82.9943	707.52	81.0016	707.52	78.9411	707.52	77.6842	707.52	73.0076	707.52	73.739	707.52	65.7722	707.52	69.2281	707.52	59.9088	707.52	64.223	707.52	58.2442	707.52	62.6428	707.52	58.2509	707.52	62.7742	707.52	54.9452	707.52	56.3315	707.52	58.9664	707.52	59.7321	707.52	65.5208	707.52	68.9992	707.52	69.6911	707.52	73.1169	707.52	73.3166	707.52	75.5378	707.52	76.6246	707.52	77.1573	707.52	79.0019	707.52	78.5167	707.52	80.0419	707.52	79.7022
732.422	86.5695	732.422	85.992	732.422	86.4999	732.422	84.5476	732.422	85.783	732.422	82.2755	732.422	83.9635	732.422	79.2839	732.422	80.4382	732.422	75.2913	732.422	74.3031	732.422	69.5658	732.422	62.8624	732.422	61.925	732.422	47.2024	732.422	60.75	732.422	50.9695	732.422	64.1623	732.422	59.3014	732.422	66.0936	732.422	59.0209	732.422	65.5385	732.422	61.2989	732.422	60.9686	732.422	67.6683	732.422	64.8679	732.422	72.7159	732.422	70.6721	732.422	75.8863	732.422	73.7184	732.422	77.1571	732.422	76.2	732.422	77.6978	732.422	78.1115	732.422	78.3204	732.422	78.7694
757.324	86.402	757.324	85.8519	757.324	86.271	757.324	84.473	757.324	85.4209	757.324	82.1538	757.324	83.4677	757.324	78.8928	757.324	79.8436	757.324	74.7981	757.324	73.7768	757.324	70.0251	757.324	63.475	757.324	65.5069	757.324	61.8456	757.324	65.1091	757.324	64.992	757.324	67.1896	757.324	64.1796	757.324	68.0804	757.324	60.5964	757.324	67.3752	757.324	39.1054	757.324	64.3215	757.324	64.565	757.324	60.3645	757.324	71.5918	757.324	69.5573	757.324	76.1518	757.324	73.9801	757.324	79.4151	757.324	76.2414	757.324	80.6022	757.324	77.6279	757.324	79.8071	757.324	78.5224
785.156	86.1494	785.156	85.8785	785.156	85.9321	785.156	84.4286	785.156	85.6301	785.156	81.8147	785.156	84.1401	785.156	78.0445	785.156	80.4519	785.156	72.6036	785.156	74.1489	785.156	65.9248	785.156	66.9337	785.156	66.2659	785.156	67.7577	785.156	69.5647	785.156	67.0096	785.156	70.7556	785.156	64.1569	785.156	69.931	785.156	62.2788	785.156	68.2076	785.156	58.0754	785.156	65.0956	785.156	61.2449	785.156	58.1801	785.156	71.1057	785.156	60.8682	785.156	76.2364	785.156	71.4572	785.156	77.7044	785.156	76.1339	785.156	77.501	785.156	78.1326	785.156	78.0139	785.156	78.7935
811.523	86.1398	811.523	85.5853	811.523	85.4892	811.523	83.5699	811.523	84.319	811.523	80.0708	811.523	82.6625	811.523	75.3126	811.523	79.2086	811.523	69.5408	811.523	72.1985	811.523	60.7221	811.523	63.032	811.523	53.5754	811.523	69.8525	811.523	64.4377	811.523	71.1334	811.523	68.7186	811.523	66.5585	811.523	70.1824	811.523	61.9311	811.523	69.5187	811.523	54.8674	811.523	66.9986	811.523	65.4991	811.523	58.549	811.523	71.0511	811.523	61.4554	811.523	72.8519	811.523	69.132	811.523	73.3792	811.523	73.9016	811.523	73.2747	811.523	76.6597	811.523	75.2731	811.523	76.9836
840.82	86.6676	840.82	86.0075	840.82	86.4381	840.82	84.2693	840.82	85.1982	840.82	81.3102	840.82	82.7761	840.82	76.9058	840.82	78.873	840.82	69.7409	840.82	71.7528	840.82	59.1805	840.82	67.8406	840.82	67.0908	840.82	69.8473	840.82	70.1913	840.82	69.8391	840.82	70.7591	840.82	71.7853	840.82	70.0127	840.82	71.5259	840.82	69.2411	840.82	69.221	840.82	66.5772	840.82	64.8615	840.82	57.6746	840.82	66.2067	840.82	29.9367	840.82	71.6702	840.82	67.7566	840.82	73.7042	840.82	75.8029	840.82	74.693	840.82	77.7139	840.82	75.6217	840.82	76.8034
870.117	87.2086	870.117	86.2027	870.117	86.6144	870.117	83.7664	870.117	85.056	870.117	80.1356	870.117	82.8813	870.117	74.9156	870.117	78.5996	870.117	66.4558	870.117	70.1717	870.117	56.2926	870.117	70.3745	870.117	67.5142	870.117	72.5181	870.117	70.9962	870.117	71.0267	870.117	72.7121	870.117	68.6899	870.117	73.5827	870.117	68.3015	870.117	73.0306	870.117	68.9312	870.117	70.98	870.117	67.2935	870.117	65.0875	870.117	52.1871	870.117	54.1707	870.117	71.4148	870.117	65.2778	870.117	76.4805	870.117	71.2657	870.117	78.5091	870.117	75.8202	870.117	79.0217	870.117	78.1436
900.879	86.7878	900.879	86.1278	900.879	86.3455	900.879	83.9819	900.879	84.7518	900.879	80.3223	900.879	81.5862	900.879	75.0085	900.879	76.1982	900.879	63.8501	900.879	66.1624	900.879	65.8083	900.879	72.4245	900.879	70.9018	900.879	74.4511	900.879	72.0037	900.879	73.1518	900.879	72.5167	900.879	74.0673	900.879	72.6212	900.879	74.1933	900.879	72.3869	900.879	72.0972	900.879	72.3662	900.879	68.93	900.879	70.5967	900.879	61.578	900.879	63.4031	900.879	50.9106	900.879	66.4464	900.879	64.5355	900.879	72.5582	900.879	74.9426	900.879	76.1776	900.879	77.8642	900.879	77.6585
933.105	87.3165	933.105	86.3488	933.105	86.0294	933.105	83.7182	933.105	83.6662	933.105	79.3704	933.105	81.657	933.105	70.8965	933.105	77.3995	933.105	55.7321	933.105	67.705	933.105	68.9467	933.105	72.9766	933.105	72.2612	933.105	77.2206	933.105	73.9933	933.105	76.4626	933.105	74.931	933.105	71.0823	933.105	74.9286	933.105	71.1531	933.105	73.1858	933.105	70.4784	933.105	70.0623	933.105	66.7314	933.105	66.9374	933.105	42.1285	933.105	61.0924	933.105	67.9333	933.105	56.7534	933.105	69.923	933.105	70.7046	933.105	73.0017	933.105	75.4942	933.105	76.4409	933.105	77.101
965.332	87.721	965.332	86.6094	965.332	86.7263	965.332	83.7581	965.332	84.0894	965.332	78.6806	965.332	81.3315	965.332	68.1511	965.332	76.6266	965.332	62.4977	965.332	67.0222	965.332	70.3959	965.332	73.9955	965.332	73.6862	965.332	75.9779	965.332	75.4582	965.332	75.1449	965.332	75.4348	965.332	72.1726	965.332	75.2497	965.332	66.3959	965.332	75.2564	965.332	66.469	965.332	73.0647	965.332	69.2366	965.332	68.8681	965.332	66.1998	965.332	62.6833	965.332	59.3043	965.332	54.7069	965.332	69.9046	965.332	68.3651	965.332	74.2525	965.332	73.9735	965.332	77.0981	965.332	76.9774
1,000.49	87.7345	1,000.49	86.4253	1,000.49	86.5619	1,000.49	83.0826	1,000.49	83.3568	1,000.49	78.0399	1,000.49	79.6771	1,000.49	67.4181	1,000.49	73.828	1,000.49	64.9763	1,000.49	65.2322	1,000.49	70.6331	1,000.49	76.267	1,000.49	71.2581	1,000.49	77.523	1,000.49	71.0499	1,000.49	76.6424	1,000.49	69.774	1,000.49	75.6827	1,000.49	68.2896	1,000.49	73.1157	1,000.49	71.9734	1,000.49	69.7963	1,000.49	74.0875	1,000.49	64.942	1,000.49	72.143	1,000.49	54.854	1,000.49	66.8289	1,000.49	58.907	1,000.49	54.0875	1,000.49	59.6769	1,000.49	68.85	1,000.49	69.7858	1,000.49	74.8798	1,000.49	77.3555	1,000.49	78.2144
1,035.64	87.1983	1,035.64	85.6249	1,035.64	86.4966	1,035.64	82.5801	1,035.64	82.8489	1,035.64	77.0497	1,035.64	77.9444	1,035.64	67.3225	1,035.64	72.8457	1,035.64	65.8	1,035.64	59.9396	1,035.64	73.6925	1,035.64	75.4511	1,035.64	76.8951	1,035.64	78.4991	1,035.64	77.3704	1,035.64	77.6412	1,035.64	78.1156	1,035.64	74.7252	1,035.64	78.5915	1,035.64	74.8997	1,035.64	76.1718	1,035.64	71.4537	1,035.64	71.3327	1,035.64	66.2217	1,035.64	72.0948	1,035.64	61.2208	1,035.64	65.5319	1,035.64	64.4696	1,035.64	61.6112	1,035.64	64.3972	1,035.64	69.0826	1,035.64	71.8832	1,035.64	73.8594	1,035.64	74.9922	1,035.64	74.8231
1,072.27	86.5266	1,072.27	84.3749	1,072.27	86.8671	1,072.27	81.9718	1,072.27	83.3864	1,072.27	76.1755	1,072.27	77.7744	1,072.27	66.0651	1,072.27	70.7945	1,072.27	64.3978	1,072.27	71.1004	1,072.27	73.3709	1,072.27	78.1877	1,072.27	77.7009	1,072.27	79.101	1,072.27	78.4638	1,072.27	77.3919	1,072.27	76.5461	1,072.27	74.3	1,072.27	72.81	1,072.27	72.7161	1,072.27	73.4335	1,072.27	70.0323	1,072.27	75.0724	1,072.27	65.4235	1,072.27	71.1479	1,072.27	66.2338	1,072.27	66.2704	1,072.27	54.0432	1,072.27	65.1813	1,072.27	69.1039	1,072.27	60.2012	1,072.27	73.4346	1,072.27	72.6326	1,072.27	75.2442	1,072.27	75.7904
1,108.89	86.0304	1,108.89	84.4464	1,108.89	86.4568	1,108.89	80.6959	1,108.89	83.5482	1,108.89	74.5329	1,108.89	75.7734	1,108.89	59.0613	1,108.89	59.4261	1,108.89	74.8353	1,108.89	73.9121	1,108.89	78.3661	1,108.89	79.4175	1,108.89	75.687	1,108.89	79.5062	1,108.89	74.2517	1,108.89	76.4115	1,108.89	75.3437	1,108.89	71.1318	1,108.89	74.9882	1,108.89	72.5507	1,108.89	75.1966	1,108.89	74.1399	1,108.89	75.4814	1,108.89	71.0867	1,108.89	75.0292	1,108.89	66.1847	1,108.89	70.5632	1,108.89	61.9741	1,108.89	51.0861	1,108.89	64.3934	1,108.89	68.0571	1,108.89	71.7843	1,108.89	71.8273	1,108.89	75.2114	1,108.89	73.9117
1,148.44	86.2248	1,148.44	85.5619	1,148.44	85.5267	1,148.44	82.0725	1,148.44	82.4086	1,148.44	72.9393	1,148.44	72.5904	1,148.44	68.1319	1,148.44	68.5041	1,148.44	72.1374	1,148.44	75.0837	1,148.44	75.5736	1,148.44	80.3468	1,148.44	78.6141	1,148.44	81.1031	1,148.44	77.2584	1,148.44	79.9313	1,148.44	75.7766	1,148.44	76.1311	1,148.44	77.4788	1,148.44	74.5881	1,148.44	76.8411	1,148.44	72.2482	1,148.44	73.487	1,148.44	63.3069	1,148.44	72.0287	1,148.44	66.5586	1,148.44	71.1466	1,148.44	55.5951	1,148.44	54.6848	1,148.44	66.1459	1,148.44	64.1962	1,148.44	70.2323	1,148.44	71.9732	1,148.44	72.1012	1,148.44	73.0428
1,189.45	85.6227	1,189.45	85.1397	1,189.45	85.7534	1,189.45	82.6001	1,189.45	82.5531	1,189.45	74.2321	1,189.45	67.6951	1,189.45	69.2247	1,189.45	72.4077	1,189.45	77.0029	1,189.45	76.6167	1,189.45	78.1741	1,189.45	80.8789	1,189.45	78.1297	1,189.45	81.8984	1,189.45	77.4669	1,189.45	79.3567	1,189.45	77.9381	1,189.45	73.169	1,189.45	76.795	1,189.45	76.4551	1,189.45	74.5368	1,189.45	77.0374	1,189.45	75.2358	1,189.45	63.5391	1,189.45	73.2691	1,189.45	62.0301	1,189.45	71.1602	1,189.45	64.0145	1,189.45	57.4602	1,189.45	65.7376	1,189.45	67.7072	1,189.45	70.6573	1,189.45	69.9315	1,189.45	73.3788	1,189.45	74.9357
1,230.47	86.9347	1,230.47	86.0614	1,230.47	86.5405	1,230.47	81.0738	1,230.47	82.3248	1,230.47	66.7144	1,230.47	64.1335	1,230.47	71.0239	1,230.47	72.1046	1,230.47	76.6937	1,230.47	78.3262	1,230.47	77.1745	1,230.47	81.8618	1,230.47	77.3472	1,230.47	81.1073	1,230.47	77.7764	1,230.47	79.7679	1,230.47	75.1442	1,230.47	76.6558	1,230.47	74.5209	1,230.47	61.2717	1,230.47	75.7525	1,230.47	75.6025	1,230.47	74.6057	1,230.47	73.9572	1,230.47	72.2023	1,230.47	68.7689	1,230.47	73.8267	1,230.47	67.5509	1,230.47	70.2693	1,230.47	61.6216	1,230.47	69.2353	1,230.47	67.8287	1,230.47	73.3484	1,230.47	75.3668	1,230.47	75.3275
1,274.41	86.7218	1,274.41	86.0616	1,274.41	85.585	1,274.41	80.5899	1,274.41	81.9588	1,274.41	65.8209	1,274.41	60.4928	1,274.41	75.0043	1,274.41	78.0678	1,274.41	79.6989	1,274.41	75.5774	1,274.41	77.2538	1,274.41	81.4395	1,274.41	75.701	1,274.41	81.6113	1,274.41	79.3935	1,274.41	80.9595	1,274.41	80.1071	1,274.41	81.0913	1,274.41	77.9301	1,274.41	77.4433	1,274.41	75.3891	1,274.41	75.5719	1,274.41	73.8962	1,274.41	72.055	1,274.41	73.8653	1,274.41	59.9925	1,274.41	61.5739	1,274.41	61.4031	1,274.41	73.0477	1,274.41	53.5497	1,274.41	67.3926	1,274.41	68.9169	1,274.41	72.4209	1,274.41	73.8074	1,274.41	74.0121
1,319.82	86.9912	1,319.82	85.4268	1,319.82	84.9812	1,319.82	79.0761	1,319.82	82.7314	1,319.82	72.4105	1,319.82	72.2138	1,319.82	72.1537	1,319.82	79.0168	1,319.82	72.3747	1,319.82	78.541	1,319.82	80.5911	1,319.82	79.6792	1,319.82	81.4352	1,319.82	81.3892	1,319.82	75.906	1,319.82	80.6717	1,319.82	74.5589	1,319.82	78.8627	1,319.82	76.684	1,319.82	72.1733	1,319.82	76.7951	1,319.82	75.1314	1,319.82	76.3201	1,319.82	73.5391	1,319.82	76.686	1,319.82	70.4734	1,319.82	74.6195	1,319.82	58.5593	1,319.82	68.2724	1,319.82	65.8164	1,319.82	70.3153	1,319.82	72.0022	1,319.82	76.2478	1,319.82	76.7561	1,319.82	73.7856
1,366.7	86.4887	1,366.7	84.0738	1,366.7	84.5069	1,366.7	78.3572	1,366.7	80.4954	1,366.7	60.7876	1,366.7	61.8449	1,366.7	75.9488	1,366.7	80.1099	1,366.7	80.7588	1,366.7	81.4909	1,366.7	80.7903	1,366.7	79.8442	1,366.7	78.1681	1,366.7	79.9931	1,366.7	80.079	1,366.7	75.5824	1,366.7	81.3572	1,366.7	76.8609	1,366.7	78.3439	1,366.7	76.5466	1,366.7	76.8046	1,366.7	76.3988	1,366.7	77.3293	1,366.7	75.4449	1,366.7	75.9474	1,366.7	67.066	1,366.7	69.5162	1,366.7	70.21	1,366.7	64.8229	1,366.7	67.3983	1,366.7	61.4903	1,366.7	65.6211	1,366.7	65.0867	1,366.7	67.7289	1,366.7	73.6501
1,413.57	85.7692	1,413.57	83.3952	1,413.57	84.3773	1,413.57	79.7244	1,413.57	78.3246	1,413.57	59.8681	1,413.57	62.9964	1,413.57	76.4313	1,413.57	80.0742	1,413.57	80.9413	1,413.57	83.2703	1,413.57	81.3977	1,413.57	81.2834	1,413.57	76.5229	1,413.57	79.509	1,413.57	74.845	1,413.57	75.2436	1,413.57	77.3463	1,413.57	74.499	1,413.57	75.4124	1,413.57	78.4974	1,413.57	65.0525	1,413.57	75.1635	1,413.57	75.1113	1,413.57	67.8689	1,413.57	73.7208	1,413.57	72.0676	1,413.57	71.0577	1,413.57	66.7722	1,413.57	65.5652	1,413.57	59.3514	1,413.57	61.2833	1,413.57	65.4235	1,413.57	63.4769	1,413.57	70.2258	1,413.57	72.7933
1,463.38	85.2994	1,463.38	84.0531	1,463.38	83.3659	1,463.38	79.103	1,463.38	78.1175	1,463.38	52.7238	1,463.38	59.7782	1,463.38	76.6813	1,463.38	79.4054	1,463.38	79.5996	1,463.38	80.6085	1,463.38	78.8604	1,463.38	82.2608	1,463.38	79.7078	1,463.38	78.7788	1,463.38	77.2356	1,463.38	75.6676	1,463.38	71.4588	1,463.38	73.8882	1,463.38	73.4705	1,463.38	61.9071	1,463.38	74.2137	1,463.38	76.2728	1,463.38	70.1018	1,463.38	74.5843	1,463.38	75.6869	1,463.38	68.0714	1,463.38	71.483	1,463.38	65.0794	1,463.38	70.0747	1,463.38	63.3361	1,463.38	63.0557	1,463.38	61.0108	1,463.38	72.5674	1,463.38	72.94	1,463.38	72.6462
1,516.11	85.7691	1,516.11	84.6653	1,516.11	83.6739	1,516.11	78.1842	1,516.11	75.398	1,516.11	64.851	1,516.11	63.5182	1,516.11	76.9777	1,516.11	77.1703	1,516.11	79.2092	1,516.11	83.1621	1,516.11	80.0499	1,516.11	81.2258	1,516.11	78.9697	1,516.11	79.5376	1,516.11	76.1315	1,516.11	75.6317	1,516.11	73.5527	1,516.11	68.5995	1,516.11	72.0805	1,516.11	71.8895	1,516.11	74.5835	1,516.11	73.7795	1,516.11	71.7062	1,516.11	74.4218	1,516.11	63.7633	1,516.11	68.7669	1,516.11	69.3586	1,516.11	65.9328	1,516.11	54.4498	1,516.11	58.9218	1,516.11	63.2395	1,516.11	60.5117	1,516.11	70.2583	1,516.11	65.8283	1,516.11	69.4568
1,568.85	85.2182	1,568.85	83.9757	1,568.85	82.6853	1,568.85	76.4763	1,568.85	75.4395	1,568.85	68.3198	1,568.85	68.3506	1,568.85	77.6195	1,568.85	78.1353	1,568.85	79.5366	1,568.85	77.9415	1,568.85	78.9799	1,568.85	78.7087	1,568.85	76.3286	1,568.85	77.4142	1,568.85	74.3841	1,568.85	71.2116	1,568.85	73.7238	1,568.85	71.6769	1,568.85	69.5813	1,568.85	61.9979	1,568.85	69.2004	1,568.85	70.0278	1,568.85	72.9675	1,568.85	69.4334	1,568.85	72.2236	1,568.85	66.2743	1,568.85	70.686	1,568.85	61.7427	1,568.85	66.07	1,568.85	59.3082	1,568.85	52.0538	1,568.85	53.2848	1,568.85	68.6239	1,568.85	70.0317	1,568.85	73.2288
1,624.51	84.2098	1,624.51	82.0918	1,624.51	82.3898	1,624.51	74.4499	1,624.51	75.859	1,624.51	70.1079	1,624.51	68.6059	1,624.51	77.411	1,624.51	77.3351	1,624.51	78.9247	1,624.51	78.4742	1,624.51	78.3877	1,624.51	77.8414	1,624.51	76.9942	1,624.51	75.5822	1,624.51	72.8995	1,624.51	73.9672	1,624.51	67.0069	1,624.51	71.1348	1,624.51	66.2759	1,624.51	68.9023	1,624.51	70.1789	1,624.51	66.7913	1,624.51	72.8238	1,624.51	68.6342	1,624.51	70.5572	1,624.51	66.9107	1,624.51	68.7605	1,624.51	65.4538	1,624.51	67.8599	1,624.51	58.2865	1,624.51	61.4325	1,624.51	52.7435	1,624.51	67.4857	1,624.51	66.3303	1,624.51	68.5398
1,681.64	82.9744	1,681.64	80.7997	1,681.64	80.1583	1,681.64	73.1974	1,681.64	71.8147	1,681.64	67.8875	1,681.64	63.4416	1,681.64	77.9743	1,681.64	74.6394	1,681.64	79.1823	1,681.64	78.0394	1,681.64	77.5453	1,681.64	77.4482	1,681.64	74.5525	1,681.64	72.3683	1,681.64	73.2373	1,681.64	59.5862	1,681.64	69.0661	1,681.64	63.9857	1,681.64	65.6636	1,681.64	67.7044	1,681.64	61.5395	1,681.64	66.4895	1,681.64	65.967	1,681.64	67.9363	1,681.64	70.4836	1,681.64	69.6551	1,681.64	64.0541	1,681.64	66.3323	1,681.64	58.3723	1,681.64	48.4985	1,681.64	54.0683	1,681.64	60.6637	1,681.64	66.1251	1,681.64	65.0721	1,681.64	69.6374
1,741.7	83.5227	1,741.7	81.441	1,741.7	80.9895	1,741.7	72.0019	1,741.7	71.8684	1,741.7	72.1102	1,741.7	68.9716	1,741.7	77.1473	1,741.7	76.7677	1,741.7	78.4026	1,741.7	76.4353	1,741.7	77.4645	1,741.7	75.6374	1,741.7	74.1185	1,741.7	73.5155	1,741.7	67.1489	1,741.7	70.5284	1,741.7	65.014	1,741.7	60.7555	1,741.7	58.7263	1,741.7	58.0726	1,741.7	63.2087	1,741.7	70.4203	1,741.7	67.387	1,741.7	67.7597	1,741.7	69.8003	1,741.7	59.4921	1,741.7	69.5048	1,741.7	62.0154	1,741.7	66.8233	1,741.7	52.4999	1,741.7	59.3238	1,741.7	55.0633	1,741.7	65.0704	1,741.7	65.455	1,741.7	67.4334
1,803.22	84.036	1,803.22	82.0613	1,803.22	81.5965	1,803.22	73.9266	1,803.22	72.1275	1,803.22	71.8709	1,803.22	71.1171	1,803.22	77.2929	1,803.22	74.6837	1,803.22	78.2008	1,803.22	75.5688	1,803.22	76.769	1,803.22	74.2567	1,803.22	73.5818	1,803.22	73.4081	1,803.22	69.9274	1,803.22	67.3965	1,803.22	63.0404	1,803.22	62.3972	1,803.22	58.6212	1,803.22	52.9952	1,803.22	59.0724	1,803.22	65.9656	1,803.22	60.9134	1,803.22	65.0932	1,803.22	67.3096	1,803.22	62.9572	1,803.22	67.221	1,803.22	53.2362	1,803.22	63.2159	1,803.22	61.6877	1,803.22	60.3284	1,803.22	57.1833	1,803.22	68.1183	1,803.22	64.1548	1,803.22	71.1966
1,866.21	83.3528	1,866.21	81.24	1,866.21	81.3078	1,866.21	72.3193	1,866.21	74.2298	1,866.21	72.9273	1,866.21	68.1553	1,866.21	77.2848	1,866.21	73.9187	1,866.21	77.4182	1,866.21	74.1007	1,866.21	75.2157	1,866.21	73.3092	1,866.21	71.1008	1,866.21	72.0963	1,866.21	65.2756	1,866.21	69.1893	1,866.21	61.6654	1,866.21	63.5849	1,866.21	59.4359	1,866.21	61.0141	1,866.21	53.1036	1,866.21	59.0434	1,866.21	61.6085	1,866.21	64.7019	1,866.21	63.0046	1,866.21	63.8302	1,866.21	62.5836	1,866.21	64.6199	1,866.21	59.5679	1,866.21	59.1525	1,866.21	56.3307	1,866.21	60.611	1,866.21	60.5192	1,866.21	67.2133	1,866.21	65.8755
1,932.13	82.2273	1,932.13	80.1977	1,932.13	81.2102	1,932.13	71.8677	1,932.13	75.0938	1,932.13	72.7916	1,932.13	65.7599	1,932.13	76.9666	1,932.13	74.6277	1,932.13	75.6662	1,932.13	74.3304	1,932.13	71.8637	1,932.13	72.0012	1,932.13	69.1345	1,932.13	71.2289	1,932.13	63.2507	1,932.13	69.0342	1,932.13	57.2069	1,932.13	64.0717	1,932.13	53.6059	1,932.13	59.5158	1,932.13	61.7238	1,932.13	59.5773	1,932.13	55.4759	1,932.13	65.1254	1,932.13	61.7875	1,932.13	62.9051	1,932.13	65.7288	1,932.13	62.374	1,932.13	60.9045	1,932.13	55.7495	1,932.13	57.2751	1,932.13	54.1853	1,932.13	66.2208	1,932.13	61.6412	1,932.13	67.737
1,999.51	82.5061	1,999.51	79.5613	1,999.51	80.7678	1,999.51	71.4925	1,999.51	74.1593	1,999.51	70.6601	1,999.51	56.8605	1,999.51	75.1602	1,999.51	72.4926	1,999.51	74.6134	1,999.51	73.7811	1,999.51	72.2024	1,999.51	71.3802	1,999.51	68.6303	1,999.51	71.1883	1,999.51	65.5694	1,999.51	66.4311	1,999.51	63.6643	1,999.51	66.3435	1,999.51	59.3908	1,999.51	59.4854	1,999.51	62.8343	1,999.51	49.8565	1,999.51	63.1268	1,999.51	58.9203	1,999.51	56.6092	1,999.51	55.9252	1,999.51	58.7554	1,999.51	46.0877	1,999.51	53.2056	1,999.51	52.281	1,999.51	55.2427	1,999.51	59.7636	1,999.51	60.4357	1,999.51	65.3124	1,999.51	67.1631
2,069.82	83.9611	2,069.82	80.7526	2,069.82	82.463	2,069.82	70.7572	2,069.82	73.9671	2,069.82	71.0156	2,069.82	62.8174	2,069.82	74.5032	2,069.82	71.2978	2,069.82	73.809	2,069.82	72.9346	2,069.82	71.4235	2,069.82	73.216	2,069.82	71.2774	2,069.82	73.0208	2,069.82	70.1768	2,069.82	71.323	2,069.82	68.3353	2,069.82	58.5478	2,069.82	68.4946	2,069.82	62.1486	2,069.82	64.229	2,069.82	61.1747	2,069.82	66.2443	2,069.82	57.9606	2,069.82	62.9985	2,069.82	56.4697	2,069.82	58.3422	2,069.82	52.5942	2,069.82	48.5605	2,069.82	42.4303	2,069.82	56.3498	2,069.82	57.5496	2,069.82	62.4057	2,069.82	68.0442	2,069.82	67.206
2,143.07	84.33	2,143.07	81.6077	2,143.07	83.2199	2,143.07	73.2291	2,143.07	77.1412	2,143.07	70.6842	2,143.07	64.6573	2,143.07	72.4628	2,143.07	73.2886	2,143.07	72.9419	2,143.07	72.0082	2,143.07	74.169	2,143.07	73.3719	2,143.07	72.7341	2,143.07	74.2159	2,143.07	70.406	2,143.07	73.7388	2,143.07	68.6645	2,143.07	73.901	2,143.07	66.4517	2,143.07	59.9799	2,143.07	69.0618	2,143.07	57.2108	2,143.07	67.6669	2,143.07	63.401	2,143.07	67.1055	2,143.07	62.2349	2,143.07	59.9755	2,143.07	54.3809	2,143.07	55.68	2,143.07	54.611	2,143.07	54.7707	2,143.07	61.8238	2,143.07	65.1884	2,143.07	67.2924	2,143.07	69.5475
2,219.24	84.4266	2,219.24	81.2422	2,219.24	83.2229	2,219.24	72.0809	2,219.24	77.3148	2,219.24	72.5555	2,219.24	63.277	2,219.24	73.0394	2,219.24	73.0556	2,219.24	74.15	2,219.24	74.3389	2,219.24	75.453	2,219.24	74.667	2,219.24	74.0103	2,219.24	77.2337	2,219.24	74.6191	2,219.24	72.6761	2,219.24	74.4478	2,219.24	70.7633	2,219.24	71.9094	2,219.24	66.4295	2,219.24	68.5391	2,219.24	64.8918	2,219.24	70.445	2,219.24	57.2364	2,219.24	68.853	2,219.24	59.816	2,219.24	66.8941	2,219.24	56.6213	2,219.24	62.9936	2,219.24	57.481	2,219.24	63.8835	2,219.24	58.0019	2,219.24	61.0484	2,219.24	69.7436	2,219.24	69.9441
2,296.88	84.9103	2,296.88	81.6695	2,296.88	82.9844	2,296.88	72.8266	2,296.88	77.2083	2,296.88	71.169	2,296.88	69.6627	2,296.88	73.3726	2,296.88	73.748	2,296.88	75.2009	2,296.88	74.6271	2,296.88	77.1834	2,296.88	77.0783	2,296.88	78.5214	2,296.88	75.1874	2,296.88	76.1378	2,296.88	76.1983	2,296.88	71.0714	2,296.88	73.84	2,296.88	73.0149	2,296.88	69.706	2,296.88	71.5557	2,296.88	66.6372	2,296.88	71.9919	2,296.88	63.1809	2,296.88	70.8527	2,296.88	64.5941	2,296.88	66.8118	2,296.88	61.6203	2,296.88	62.9409	2,296.88	61.426	2,296.88	59.4731	2,296.88	62.5123	2,296.88	61.318	2,296.88	69.3041	2,296.88	68.8787
2,378.91	86.5749	2,378.91	82.7091	2,378.91	84.696	2,378.91	74.2364	2,378.91	76.2174	2,378.91	70.6678	2,378.91	72.4721	2,378.91	73.3515	2,378.91	75.5272	2,378.91	77.1425	2,378.91	77.0252	2,378.91	80.4325	2,378.91	77.0329	2,378.91	78.7129	2,378.91	77.8398	2,378.91	77.0645	2,378.91	76.5018	2,378.91	77.4597	2,378.91	77.741	2,378.91	72.5394	2,378.91	66.0269	2,378.91	71.8368	2,378.91	62.8327	2,378.91	72.0716	2,378.91	58.7683	2,378.91	73.6268	2,378.91	60.6646	2,378.91	70.399	2,378.91	66.2303	2,378.91	65.3416	2,378.91	64.3762	2,378.91	58.1325	2,378.91	60.9916	2,378.91	66.811	2,378.91	69.0739	2,378.91	71.8972
2,462.4	85.5913	2,462.4	83.8511	2,462.4	84.2382	2,462.4	76.6208	2,462.4	78.8848	2,462.4	72.932	2,462.4	72.6619	2,462.4	74.5729	2,462.4	77.4991	2,462.4	79.6461	2,462.4	77.4604	2,462.4	80.476	2,462.4	78.2202	2,462.4	81.3189	2,462.4	80.0985	2,462.4	79.5505	2,462.4	78.402	2,462.4	74.2465	2,462.4	71.2224	2,462.4	76.2239	2,462.4	73.2422	2,462.4	73.54	2,462.4	67.8125	2,462.4	73.1523	2,462.4	40.2284	2,462.4	73.273	2,462.4	61.028	2,462.4	74.003	2,462.4	66.3375	2,462.4	68.8315	2,462.4	68.1331	2,462.4	66.2804	2,462.4	66.2277	2,462.4	62.4605	2,462.4	69.4171	2,462.4	71.9415
2,548.83	86.1036	2,548.83	83.0096	2,548.83	83.7621	2,548.83	76.2048	2,548.83	78.8063	2,548.83	73.7307	2,548.83	74.9229	2,548.83	76.4489	2,548.83	76.2782	2,548.83	80.7788	2,548.83	76.4965	2,548.83	82.7488	2,548.83	79.7877	2,548.83	80.936	2,548.83	80.9381	2,548.83	77.8593	2,548.83	78.8336	2,548.83	77.8085	2,548.83	75.3863	2,548.83	71.798	2,548.83	67.2943	2,548.83	72.7815	2,548.83	71.8572	2,548.83	74.0124	2,548.83	68.8501	2,548.83	74.5127	2,548.83	67.2174	2,548.83	72.1607	2,548.83	61.3511	2,548.83	68.3558	2,548.83	64.6445	2,548.83	54.3784	2,548.83	62.8724	2,548.83	65.5386	2,548.83	70.8355	2,548.83	71.8242
2,639.65	85.7603	2,639.65	84.1907	2,639.65	83.7698	2,639.65	78.087	2,639.65	79.5835	2,639.65	73.6808	2,639.65	76.6723	2,639.65	77.7354	2,639.65	76.9261	2,639.65	82.8766	2,639.65	79.3534	2,639.65	82.9695	2,639.65	81.5955	2,639.65	82.6064	2,639.65	82.7702	2,639.65	81.2893	2,639.65	79.2486	2,639.65	76.0376	2,639.65	77.1995	2,639.65	76.6698	2,639.65	70.905	2,639.65	73.8291	2,639.65	67.8241	2,639.65	74.1662	2,639.65	67.5793	2,639.65	75.4547	2,639.65	68.9612	2,639.65	75.0335	2,639.65	67.7436	2,639.65	71.8885	2,639.65	70.3336	2,639.65	66.3933	2,639.65	64.7956	2,639.65	68.0649	2,639.65	67.3197	2,639.65	70.2999
2,731.93	85.8993	2,731.93	83.5544	2,731.93	84.099	2,731.93	78.318	2,731.93	80.7328	2,731.93	75.0148	2,731.93	79.9524	2,731.93	80.4492	2,731.93	79.8486	2,731.93	82.8834	2,731.93	81.1918	2,731.93	84.2834	2,731.93	83.5914	2,731.93	82.2966	2,731.93	83.1457	2,731.93	78.569	2,731.93	81.0041	2,731.93	79.1755	2,731.93	75.9612	2,731.93	74.1434	2,731.93	71.1101	2,731.93	74.075	2,731.93	72.7848	2,731.93	74.2672	2,731.93	70.2252	2,731.93	76.2887	2,731.93	64.9264	2,731.93	74.8031	2,731.93	58.4533	2,731.93	71.6679	2,731.93	67.1722	2,731.93	64.0897	2,731.93	66.8846	2,731.93	66.6129	2,731.93	69.7321	2,731.93	71.7879
2,828.61	85.3045	2,828.61	84.1944	2,828.61	84.384	2,828.61	81.2603	2,828.61	81.485	2,828.61	76.4716	2,828.61	79.5838	2,828.61	79.9	2,828.61	80.7668	2,828.61	84.8755	2,828.61	82.2718	2,828.61	84.3815	2,828.61	83.6314	2,828.61	83.6769	2,828.61	83.5422	2,828.61	82.34	2,828.61	83.7354	2,828.61	75.9753	2,828.61	76.8772	2,828.61	76.494	2,828.61	69.0216	2,828.61	72.711	2,828.61	70.8455	2,828.61	75.1816	2,828.61	71.8955	2,828.61	76.2673	2,828.61	69.571	2,828.61	76.4993	2,828.61	66.3978	2,828.61	73.7431	2,828.61	69.1062	2,828.61	65.6735	2,828.61	65.6223	2,828.61	68.0727	2,828.61	65.1924	2,828.61	72.6745
2,928.22	85.2383	2,928.22	84.6142	2,928.22	83.3588	2,928.22	81.4132	2,928.22	81.7461	2,928.22	77.5057	2,928.22	79.7545	2,928.22	81.3695	2,928.22	81.5823	2,928.22	84.4353	2,928.22	83.4243	2,928.22	85.9376	2,928.22	83.7843	2,928.22	83.8554	2,928.22	83.3532	2,928.22	80.8201	2,928.22	83.2162	2,928.22	80.6336	2,928.22	79.3085	2,928.22	74.9354	2,928.22	69.4494	2,928.22	73.2428	2,928.22	64.8688	2,928.22	75.4173	2,928.22	68.3075	2,928.22	76.6538	2,928.22	63.9048	2,928.22	77.2251	2,928.22	67.4284	2,928.22	73.5601	2,928.22	70.6865	2,928.22	65.1832	2,928.22	68.8087	2,928.22	66.851	2,928.22	68.3883	2,928.22	73.2611
3,030.76	83.4129	3,030.76	83.9209	3,030.76	82.6024	3,030.76	82.4316	3,030.76	82.3626	3,030.76	77.3541	3,030.76	81.1888	3,030.76	80.3355	3,030.76	81.4376	3,030.76	85.341	3,030.76	84.5563	3,030.76	85.6315	3,030.76	83.9158	3,030.76	84.8879	3,030.76	83.3656	3,030.76	82.5286	3,030.76	81.6011	3,030.76	73.718	3,030.76	72.0664	3,030.76	77.5829	3,030.76	69.0451	3,030.76	75.0293	3,030.76	71.0809	3,030.76	75.2068	3,030.76	68.2025	3,030.76	77.1881	3,030.76	66.4165	3,030.76	77.373	3,030.76	69.5896	3,030.76	74.6411	3,030.76	67.4713	3,030.76	64.0045	3,030.76	69.906	3,030.76	69.1516	3,030.76	61.6851	3,030.76	71.2363
3,137.7	84.2871	3,137.7	84.3767	3,137.7	82.0832	3,137.7	81.7016	3,137.7	81.607	3,137.7	76.1769	3,137.7	80.5294	3,137.7	80.7793	3,137.7	81.9724	3,137.7	85.2156	3,137.7	82.8672	3,137.7	86.9229	3,137.7	82.3846	3,137.7	84.6437	3,137.7	82.6868	3,137.7	82.6026	3,137.7	79.5591	3,137.7	81.2966	3,137.7	74.815	3,137.7	75.6378	3,137.7	67.6128	3,137.7	71.4766	3,137.7	65.895	3,137.7	74.8118	3,137.7	71.1968	3,137.7	77.3835	3,137.7	66.9862	3,137.7	77.0667	3,137.7	71.4633	3,137.7	73.0103	3,137.7	64.9095	3,137.7	65.1112	3,137.7	69.1996	3,137.7	71.7858	3,137.7	64.9326	3,137.7	72.7648
3,249.02	84.0275	3,249.02	83.7415	3,249.02	82.1322	3,249.02	82.2462	3,249.02	81.1482	3,249.02	78.5388	3,249.02	80.9817	3,249.02	79.7809	3,249.02	82.4221	3,249.02	85.5045	3,249.02	82.2901	3,249.02	86.5329	3,249.02	81.6041	3,249.02	85.2707	3,249.02	83.4303	3,249.02	81.3391	3,249.02	81.9437	3,249.02	77.1593	3,249.02	74.0759	3,249.02	74.0619	3,249.02	67.7966	3,249.02	74.8203	3,249.02	67.9542	3,249.02	74.7549	3,249.02	69.9223	3,249.02	77.2788	3,249.02	69.7203	3,249.02	76.6823	3,249.02	71.6844	3,249.02	74.1297	3,249.02	67.973	3,249.02	62.9976	3,249.02	71.6266	3,249.02	70.7449	3,249.02	66.1799	3,249.02	71.0577
3,363.28	83.9417	3,363.28	84.0991	3,363.28	81.6704	3,363.28	81.3845	3,363.28	80.5487	3,363.28	77.7247	3,363.28	81.6283	3,363.28	79.4031	3,363.28	82.1314	3,363.28	84.9748	3,363.28	80.9756	3,363.28	86.5864	3,363.28	79.744	3,363.28	84.3289	3,363.28	83.8636	3,363.28	82.1892	3,363.28	82.5508	3,363.28	77.1747	3,363.28	76.7876	3,363.28	76.2389	3,363.28	70.8997	3,363.28	71.8588	3,363.28	64.6736	3,363.28	74.1246	3,363.28	70.2884	3,363.28	76.8305	3,363.28	68.5102	3,363.28	77.1177	3,363.28	70.7031	3,363.28	72.8722	3,363.28	68.2489	3,363.28	56.7265	3,363.28	71.4117	3,363.28	71.5121	3,363.28	64.7493	3,363.28	68.6508
3,481.93	84.8372	3,481.93	84.037	3,481.93	81.1333	3,481.93	80.8909	3,481.93	80.1285	3,481.93	77.8987	3,481.93	81.7312	3,481.93	80.0984	3,481.93	82.2106	3,481.93	84.5631	3,481.93	81.9547	3,481.93	85.8402	3,481.93	82.7796	3,481.93	83.3707	3,481.93	85.0578	3,481.93	80.1274	3,481.93	84.3736	3,481.93	78.9884	3,481.93	78.2904	3,481.93	73.4867	3,481.93	71.0735	3,481.93	71.5115	3,481.93	65.2116	3,481.93	72.8014	3,481.93	67.2998	3,481.93	76.8999	3,481.93	65.6464	3,481.93	75.6951	3,481.93	67.4056	3,481.93	71.7233	3,481.93	69.9974	3,481.93	55.3279	3,481.93	69.686	3,481.93	71.0946	3,481.93	63.1112	3,481.93	68.4301
3,604.98	84.8264	3,604.98	83.8484	3,604.98	80.3702	3,604.98	80.7066	3,604.98	81.0016	3,604.98	80.1478	3,604.98	81.7847	3,604.98	79.4029	3,604.98	81.1155	3,604.98	83.7683	3,604.98	81.1289	3,604.98	84.6984	3,604.98	82.9257	3,604.98	82.8314	3,604.98	85.3192	3,604.98	78.507	3,604.98	84.8012	3,604.98	74.7001	3,604.98	75.4032	3,604.98	72.0938	3,604.98	68.4963	3,604.98	70.789	3,604.98	62.6708	3,604.98	71.3327	3,604.98	68.6444	3,604.98	74.9819	3,604.98	68.1669	3,604.98	76.3516	3,604.98	66.8934	3,604.98	71.2407	3,604.98	67.8152	3,604.98	56.9765	3,604.98	69.6907	3,604.98	72.606	3,604.98	66.1811	3,604.98	69.7315
3,732.42	85.0346	3,732.42	83.9159	3,732.42	79.1961	3,732.42	80.2179	3,732.42	79.192	3,732.42	80.4413	3,732.42	81.9441	3,732.42	79.3606	3,732.42	78.9238	3,732.42	82.6842	3,732.42	79.3194	3,732.42	83.9049	3,732.42	83.7924	3,732.42	82.1821	3,732.42	85.9284	3,732.42	80.0954	3,732.42	83.1463	3,732.42	75.3874	3,732.42	71.0601	3,732.42	71.3616	3,732.42	59.0101	3,732.42	70.4353	3,732.42	66.4046	3,732.42	70.3577	3,732.42	68.336	3,732.42	74.6948	3,732.42	67.923	3,732.42	75.8795	3,732.42	66.2968	3,732.42	71.904	3,732.42	68.2437	3,732.42	61.5777	3,732.42	68.6402	3,732.42	71.5459	3,732.42	68.8163	3,732.42	67.4185
3,864.26	84.5218	3,864.26	83.7731	3,864.26	78.5846	3,864.26	80.7204	3,864.26	80.1434	3,864.26	81.6155	3,864.26	82.2451	3,864.26	79.2019	3,864.26	79.924	3,864.26	80.8564	3,864.26	77.6868	3,864.26	82.9289	3,864.26	81.9432	3,864.26	82.2179	3,864.26	85.3238	3,864.26	79.464	3,864.26	83.3089	3,864.26	79.1616	3,864.26	77.7382	3,864.26	73.763	3,864.26	66.6191	3,864.26	70.8003	3,864.26	67.5444	3,864.26	69.9318	3,864.26	68.1647	3,864.26	74.3902	3,864.26	66.2303	3,864.26	75.959	3,864.26	66.2631	3,864.26	69.997	3,864.26	69.1411	3,864.26	62.2077	3,864.26	66.8534	3,864.26	71.837	3,864.26	67.7287	3,864.26	68.5914
4,000.49	83.9382	4,000.49	83.2507	4,000.49	79.4195	4,000.49	82.2535	4,000.49	80.7188	4,000.49	82.8053	4,000.49	81.5518	4,000.49	78.3402	4,000.49	81.239	4,000.49	79.4581	4,000.49	81.2469	4,000.49	82.7731	4,000.49	81.6805	4,000.49	82.243	4,000.49	83.0667	4,000.49	79.7948	4,000.49	81.6308	4,000.49	76.4234	4,000.49	76.3252	4,000.49	71.8505	4,000.49	67.9993	4,000.49	71.6806	4,000.49	65.0079	4,000.49	71.5463	4,000.49	68.72	4,000.49	73.1324	4,000.49	66.3291	4,000.49	74.9988	4,000.49	62.7581	4,000.49	69.2129	4,000.49	67.436	4,000.49	61.5236	4,000.49	65.1702	4,000.49	71.4435	4,000.49	67.2207	4,000.49	68.0242
4,141.11	83.6688	4,141.11	83.3007	4,141.11	80.2597	4,141.11	81.9062	4,141.11	81.749	4,141.11	82.666	4,141.11	80.7871	4,141.11	78.9116	4,141.11	79.8483	4,141.11	78.8898	4,141.11	81.9619	4,141.11	82.8357	4,141.11	81.6696	4,141.11	82.8644	4,141.11	80.2833	4,141.11	79.6585	4,141.11	81.4308	4,141.11	75.6655	4,141.11	77.4854	4,141.11	71.4786	4,141.11	68.7733	4,141.11	70.5675	4,141.11	66.3101	4,141.11	70.8138	4,141.11	66.0687	4,141.11	73.6126	4,141.11	64.2785	4,141.11	74.5526	4,141.11	66.5024	4,141.11	68.8799	4,141.11	67.9022	4,141.11	62.4828	4,141.11	65.1016	4,141.11	71.0985	4,141.11	66.7346	4,141.11	67.0432
4,287.6	83.5328	4,287.6	83.3316	4,287.6	82.3618	4,287.6	82.0005	4,287.6	80.9595	4,287.6	82.9702	4,287.6	80.6896	4,287.6	80.1683	4,287.6	81.3967	4,287.6	78.2458	4,287.6	80.938	4,287.6	82.4834	4,287.6	81.0955	4,287.6	81.8365	4,287.6	80.5501	4,287.6	79.3422	4,287.6	82.3975	4,287.6	75.5037	4,287.6	81.1594	4,287.6	72.21	4,287.6	67.5049	4,287.6	70.646	4,287.6	65.5174	4,287.6	70.2834	4,287.6	65.599	4,287.6	74.2005	4,287.6	68.2377	4,287.6	73.5589	4,287.6	67.0758	4,287.6	66.3962	4,287.6	68.3386	4,287.6	65.8032	4,287.6	65.4977	4,287.6	70.6141	4,287.6	67.9426	4,287.6	67.5862
4,438.48	83.4952	4,438.48	82.4371	4,438.48	82.8862	4,438.48	81.7066	4,438.48	80.8994	4,438.48	83.4046	4,438.48	81.9833	4,438.48	81.9698	4,438.48	82.6328	4,438.48	77.4255	4,438.48	78.5898	4,438.48	81.8372	4,438.48	78.387	4,438.48	81.6864	4,438.48	82.6368	4,438.48	79.3939	4,438.48	83.7483	4,438.48	76.3151	4,438.48	79.9994	4,438.48	72.862	4,438.48	68.2451	4,438.48	68.0691	4,438.48	66.4924	4,438.48	70.0941	4,438.48	57.8831	4,438.48	74.5667	4,438.48	66.2367	4,438.48	73.6369	4,438.48	65.7009	4,438.48	68.1347	4,438.48	68.3713	4,438.48	62.2024	4,438.48	63.1767	4,438.48	68.2622	4,438.48	68.6727	4,438.48	64.5405
4,595.21	84.0156	4,595.21	82.1395	4,595.21	83.317	4,595.21	82.1345	4,595.21	79.6469	4,595.21	83.7771	4,595.21	82.8205	4,595.21	82.6617	4,595.21	83.0549	4,595.21	76.3995	4,595.21	78.7965	4,595.21	81.1473	4,595.21	79.4845	4,595.21	81.3457	4,595.21	84.6603	4,595.21	79.5349	4,595.21	84.0941	4,595.21	76.8028	4,595.21	75.023	4,595.21	72.1967	4,595.21	55.7747	4,595.21	69.1277	4,595.21	65.8302	4,595.21	69.7328	4,595.21	65.5857	4,595.21	73.6795	4,595.21	65.5032	4,595.21	72.8539	4,595.21	66.0508	4,595.21	66.4672	4,595.21	67.2251	4,595.21	62.6236	4,595.21	64.6273	4,595.21	68.6022	4,595.21	67.2793	4,595.21	65.3672
4,756.35	83.9391	4,756.35	81.0713	4,756.35	83.4067	4,756.35	81.3331	4,756.35	80.1216	4,756.35	84.3876	4,756.35	82.905	4,756.35	82.8745	4,756.35	82.355	4,756.35	74.791	4,756.35	80.1293	4,756.35	80.7558	4,756.35	79.829	4,756.35	82.0753	4,756.35	85.2331	4,756.35	79.4345	4,756.35	84.1308	4,756.35	76.366	4,756.35	75.9298	4,756.35	72.7139	4,756.35	64.524	4,756.35	68.7805	4,756.35	63.2722	4,756.35	70.7255	4,756.35	61.4502	4,756.35	73.9217	4,756.35	61.0688	4,756.35	72.504	4,756.35	67.25	4,756.35	61.6844	4,756.35	68.559	4,756.35	62.7183	4,756.35	60.9123	4,756.35	68.5043	4,756.35	66.76	4,756.35	63.746
4,924.8	85.345	4,924.8	81.3693	4,924.8	83.3588	4,924.8	81.156	4,924.8	80.7271	4,924.8	84.5808	4,924.8	83.1306	4,924.8	82.3107	4,924.8	81.1451	4,924.8	75.2358	4,924.8	78.8479	4,924.8	80.198	4,924.8	80.9132	4,924.8	81.5507	4,924.8	83.8487	4,924.8	78.6197	4,924.8	82.8968	4,924.8	75.4208	4,924.8	79.073	4,924.8	69.4253	4,924.8	70.1644	4,924.8	66.9723	4,924.8	67.2905	4,924.8	70.4061	4,924.8	67.844	4,924.8	71.7196	4,924.8	45.532	4,924.8	71.8101	4,924.8	62.629	4,924.8	64.6428	4,924.8	65.7396	4,924.8	64.6874	4,924.8	61.2368	4,924.8	67.9637	4,924.8	65.4565	4,924.8	62.7631
5,097.66	85.0012	5,097.66	80.7171	5,097.66	82.7393	5,097.66	80.4903	5,097.66	82.7301	5,097.66	84.9263	5,097.66	82.2966	5,097.66	82.1358	5,097.66	81.6552	5,097.66	75.9348	5,097.66	80.2934	5,097.66	79.625	5,097.66	78.9662	5,097.66	80.9299	5,097.66	82.0708	5,097.66	77.5018	5,097.66	77.9031	5,097.66	74.7414	5,097.66	77.4581	5,097.66	68.9614	5,097.66	71.6797	5,097.66	66.7706	5,097.66	59.4385	5,097.66	68.9731	5,097.66	68.5227	5,097.66	72.0024	5,097.66	57.5207	5,097.66	70.8247	5,097.66	66.2515	5,097.66	64.8485	5,097.66	67.2634	5,097.66	65.2467	5,097.66	60.8987	5,097.66	67.0554	5,097.66	65.6388	5,097.66	62.195
5,277.83	86.0353	5,277.83	81.1977	5,277.83	82.5179	5,277.83	80.5499	5,277.83	83.682	5,277.83	85.0742	5,277.83	81.6266	5,277.83	82.1686	5,277.83	82.5723	5,277.83	77.3154	5,277.83	80.3864	5,277.83	77.9767	5,277.83	76.5342	5,277.83	79.4631	5,277.83	78.7934	5,277.83	77.4871	5,277.83	78.8959	5,277.83	74.3201	5,277.83	78.8623	5,277.83	66.7738	5,277.83	72.8422	5,277.83	66.5812	5,277.83	51.688	5,277.83	66.6625	5,277.83	71.1404	5,277.83	70.8286	5,277.83	62.1823	5,277.83	70.2896	5,277.83	66.4166	5,277.83	63.8101	5,277.83	66.6712	5,277.83	64.7825	5,277.83	59.6252	5,277.83	65.1511	5,277.83	65.5326	5,277.83	55.7725
5,463.87	85.7535	5,463.87	79.7236	5,463.87	81.4915	5,463.87	80.3579	5,463.87	84.2392	5,463.87	85.1352	5,463.87	82.0974	5,463.87	82.7388	5,463.87	82.6555	5,463.87	77.0731	5,463.87	81.441	5,463.87	76.4266	5,463.87	75.1003	5,463.87	79.159	5,463.87	79.5919	5,463.87	78.325	5,463.87	80.7254	5,463.87	74.7012	5,463.87	77.9783	5,463.87	69.6527	5,463.87	73.1927	5,463.87	69.1461	5,463.87	63.5549	5,463.87	64.9638	5,463.87	67.3043	5,463.87	69.5392	5,463.87	59.5011	5,463.87	70.5237	5,463.87	66.7366	5,463.87	63.7518	5,463.87	65.8443	5,463.87	66.8675	5,463.87	56.4801	5,463.87	63.5258	5,463.87	65.6188	5,463.87	50.8915
5,657.23	85.6467	5,657.23	79.2684	5,657.23	81.5857	5,657.23	80.9205	5,657.23	83.5171	5,657.23	84.894	5,657.23	82.4874	5,657.23	82.924	5,657.23	83.3231	5,657.23	78.1478	5,657.23	81.4282	5,657.23	75.8367	5,657.23	73.9243	5,657.23	79.4783	5,657.23	79.3133	5,657.23	78.9844	5,657.23	79.1321	5,657.23	74.7164	5,657.23	75.2079	5,657.23	70.1284	5,657.23	72.0042	5,657.23	68.6719	5,657.23	66.827	5,657.23	64.539	5,657.23	59.9812	5,657.23	69.2575	5,657.23	56.9989	5,657.23	69.5787	5,657.23	66.9835	5,657.23	61.0866	5,657.23	62.1063	5,657.23	67.1092	5,657.23	59.2688	5,657.23	64.2263	5,657.23	66.0213	5,657.23	38.4217
5,856.45	85.785	5,856.45	78.3951	5,856.45	82.2325	5,856.45	81.7783	5,856.45	83.0568	5,856.45	84.394	5,856.45	83.2667	5,856.45	83.0721	5,856.45	82.2954	5,856.45	79.1281	5,856.45	82.3706	5,856.45	77.0984	5,856.45	76.5583	5,856.45	79.2316	5,856.45	80.8598	5,856.45	79.0136	5,856.45	80.1601	5,856.45	73.0013	5,856.45	75.6969	5,856.45	69.5656	5,856.45	73.9939	5,856.45	69.0138	5,856.45	67.1862	5,856.45	63.2228	5,856.45	65.5893	5,856.45	69.3518	5,856.45	66.0014	5,856.45	68.4882	5,856.45	69.7749	5,856.45	61.5729	5,856.45	62.8296	5,856.45	67.0368	5,856.45	60.6129	5,856.45	63.6346	5,856.45	66.5976	5,856.45	49.4406
6,062.99	86.0088	6,062.99	79.02	6,062.99	82.2492	6,062.99	81.9053	6,062.99	82.3274	6,062.99	83.6285	6,062.99	84.1972	6,062.99	83.537	6,062.99	81.7668	6,062.99	80.2867	6,062.99	82.9761	6,062.99	77.9738	6,062.99	76.2266	6,062.99	78.5338	6,062.99	80.7095	6,062.99	78.0464	6,062.99	81.7173	6,062.99	72.365	6,062.99	75.8366	6,062.99	69.9362	6,062.99	74.432	6,062.99	67.1471	6,062.99	63.8074	6,062.99	60.8106	6,062.99	66.6223	6,062.99	68.8222	6,062.99	62.3785	6,062.99	67.5646	6,062.99	68.094	6,062.99	57.8594	6,062.99	57.5854	6,062.99	67.3683	6,062.99	60.4919	6,062.99	63.4874	6,062.99	66.607	6,062.99	48.0076
6,276.86	85.3968	6,276.86	81.8371	6,276.86	81.9499	6,276.86	81.5511	6,276.86	82.2971	6,276.86	82.2186	6,276.86	84.3502	6,276.86	83.5611	6,276.86	80.5409	6,276.86	81.8512	6,276.86	82.6758	6,276.86	77.1546	6,276.86	75.3683	6,276.86	78.3574	6,276.86	79.3296	6,276.86	77.9117	6,276.86	79.8157	6,276.86	71.4324	6,276.86	73.4822	6,276.86	69.0048	6,276.86	72.8567	6,276.86	64.0709	6,276.86	59.4016	6,276.86	62.879	6,276.86	63.5214	6,276.86	70.0983	6,276.86	63.828	6,276.86	66.4536	6,276.86	66.4903	6,276.86	57.3372	6,276.86	58.2142	6,276.86	66.5507	6,276.86	61.5829	6,276.86	63.0172	6,276.86	66.5629	6,276.86	55.8247
6,498.05	85.0756	6,498.05	82.5091	6,498.05	82.1794	6,498.05	81.9924	6,498.05	82.5335	6,498.05	81.4444	6,498.05	83.8969	6,498.05	83.2634	6,498.05	81.3966	6,498.05	82.5701	6,498.05	81.5744	6,498.05	76.6812	6,498.05	77.1134	6,498.05	77.8603	6,498.05	75.6525	6,498.05	76.6937	6,498.05	74.684	6,498.05	73.4521	6,498.05	68.0766	6,498.05	67.0975	6,498.05	67.7962	6,498.05	64.3867	6,498.05	61.0504	6,498.05	60.0701	6,498.05	59.2509	6,498.05	67.5642	6,498.05	63.7265	6,498.05	61.6738	6,498.05	64.5664	6,498.05	55.3987	6,498.05	54.8259	6,498.05	66.0316	6,498.05	60.6931	6,498.05	62.2251	6,498.05	65.1511	6,498.05	55.6971
6,726.56	85.3595	6,726.56	83.4873	6,726.56	82.2579	6,726.56	82.8029	6,726.56	83.2153	6,726.56	80.7765	6,726.56	83.3507	6,726.56	82.9768	6,726.56	81.0304	6,726.56	82.2211	6,726.56	81.1018	6,726.56	76.6574	6,726.56	76.566	6,726.56	76.7307	6,726.56	70.4897	6,726.56	74.8505	6,726.56	68.7252	6,726.56	72.4331	6,726.56	71.5682	6,726.56	65.583	6,726.56	68.2611	6,726.56	61.6216	6,726.56	60.5049	6,726.56	60.8393	6,726.56	58.221	6,726.56	67.0022	6,726.56	62.7664	6,726.56	60.8822	6,726.56	62.7404	6,726.56	50.7158	6,726.56	49.6774	6,726.56	65.0557	6,726.56	61.2117	6,726.56	63.3308	6,726.56	62.6931	6,726.56	54.2875
6,963.87	85.3387	6,963.87	83.5264	6,963.87	82.2791	6,963.87	83.368	6,963.87	83.8426	6,963.87	80.7089	6,963.87	82.4904	6,963.87	82.8929	6,963.87	80.4709	6,963.87	81.9663	6,963.87	80.5584	6,963.87	76.1915	6,963.87	76.978	6,963.87	74.4723	6,963.87	70.5173	6,963.87	73.7514	6,963.87	75.1235	6,963.87	70.6009	6,963.87	75.3105	6,963.87	65.5305	6,963.87	67.0919	6,963.87	63.3181	6,963.87	63.0634	6,963.87	57.2721	6,963.87	61.3143	6,963.87	64.6576	6,963.87	59.5888	6,963.87	60.582	6,963.87	62.1874	6,963.87	47.9025	6,963.87	57.722	6,963.87	63.1433	6,963.87	58.1786	6,963.87	61.8377	6,963.87	62.2623	6,963.87	45.7284
7,209.96	85.0831	7,209.96	83.6987	7,209.96	82.381	7,209.96	83.18	7,209.96	84.4367	7,209.96	81.6033	7,209.96	81.5198	7,209.96	82.2062	7,209.96	80.0104	7,209.96	81.4246	7,209.96	79.7052	7,209.96	75.4405	7,209.96	77.413	7,209.96	74.5857	7,209.96	75.2703	7,209.96	73.5843	7,209.96	79.3744	7,209.96	69.7634	7,209.96	76.6159	7,209.96	67.3837	7,209.96	70.1094	7,209.96	64.6665	7,209.96	59.9859	7,209.96	52.4265	7,209.96	53.577	7,209.96	64.1931	7,209.96	55.1746	7,209.96	61.5154	7,209.96	65.1251	7,209.96	44.4911	7,209.96	59.1509	7,209.96	61.401	7,209.96	57.9588	7,209.96	60.6987	7,209.96	61.9697	7,209.96	43.242
7,464.84	84.7468	7,464.84	84.0426	7,464.84	83.4888	7,464.84	83.0379	7,464.84	84.1159	7,464.84	82.4039	7,464.84	80.6902	7,464.84	81.2806	7,464.84	80.6401	7,464.84	80.6424	7,464.84	79.3878	7,464.84	75.7958	7,464.84	75.0833	7,464.84	75.0289	7,464.84	78.0816	7,464.84	73.7097	7,464.84	79.0151	7,464.84	70.717	7,464.84	72.5796	7,464.84	67.1489	7,464.84	70.7762	7,464.84	62.4679	7,464.84	56.3937	7,464.84	48.0382	7,464.84	54.1902	7,464.84	62.3981	7,464.84	59.3759	7,464.84	61.2195	7,464.84	63.91	7,464.84	45.652	7,464.84	57.7231	7,464.84	59.7383	7,464.84	56.0293	7,464.84	58.1603	7,464.84	62.661	7,464.84	53.9037
7,727.05	84.8485	7,727.05	84.5452	7,727.05	84.1253	7,727.05	82.9483	7,727.05	83.0288	7,727.05	82.8485	7,727.05	81.3273	7,727.05	81.0202	7,727.05	80.4114	7,727.05	80.384	7,727.05	79.4859	7,727.05	76.081	7,727.05	74.7182	7,727.05	73.9986	7,727.05	76.3113	7,727.05	73.21	7,727.05	72.4625	7,727.05	67.8688	7,727.05	74.1704	7,727.05	66.8883	7,727.05	67.8558	7,727.05	62.2484	7,727.05	58.0063	7,727.05	41.0606	7,727.05	45.5709	7,727.05	60.4794	7,727.05	61.9966	7,727.05	62.4438	7,727.05	64.6675	7,727.05	48.9071	7,727.05	59.6481	7,727.05	57.4855	7,727.05	57.6623	7,727.05	57.0524	7,727.05	63.8254	7,727.05	55.725
7,999.51	84.994	7,999.51	84.738	7,999.51	84.4061	7,999.51	83.5196	7,999.51	82.3295	7,999.51	82.6182	7,999.51	82.2434	7,999.51	80.4011	7,999.51	79.974	7,999.51	80.1043	7,999.51	79.736	7,999.51	76.4039	7,999.51	76.5194	7,999.51	73.2432	7,999.51	72.1412	7,999.51	73.6077	7,999.51	60.1999	7,999.51	68.7893	7,999.51	75.5149	7,999.51	67.9046	7,999.51	60.8083	7,999.51	60.2706	7,999.51	62.7824	7,999.51	44.3203	7,999.51	52.2926	7,999.51	54.8508	7,999.51	64.346	7,999.51	61.6919	7,999.51	65.2807	7,999.51	48.867	7,999.51	58.6236	7,999.51	56.1461	7,999.51	57.5062	7,999.51	55.2668	7,999.51	63.2294	7,999.51	57.7627
8,282.23	85.0801	8,282.23	85.1742	8,282.23	84.5916	8,282.23	83.5606	8,282.23	82.7794	8,282.23	82.3801	8,282.23	82.4334	8,282.23	79.7692	8,282.23	79.657	8,282.23	80.2566	8,282.23	79.2141	8,282.23	76.9931	8,282.23	76.8341	8,282.23	72.851	8,282.23	71.8729	8,282.23	73.4203	8,282.23	72.7829	8,282.23	68.4911	8,282.23	75.0046	8,282.23	65.12	8,282.23	54.8837	8,282.23	59.6045	8,282.23	55.7209	8,282.23	51.6668	8,282.23	38.432	8,282.23	56.5355	8,282.23	61.9692	8,282.23	62.6243	8,282.23	63.3501	8,282.23	49.3046	8,282.23	58.3052	8,282.23	54.7049	8,282.23	57.406	8,282.23	55.1021	8,282.23	62.0087	8,282.23	54.7575
8,573.73	85.2955	8,573.73	85.4493	8,573.73	85.1172	8,573.73	83.9063	8,573.73	83.575	8,573.73	82.5872	8,573.73	81.7961	8,573.73	79.1591	8,573.73	79.886	8,573.73	80.4793	8,573.73	78.4512	8,573.73	76.6042	8,573.73	74.0281	8,573.73	71.8057	8,573.73	71.9101	8,573.73	72.1353	8,573.73	73.8965	8,573.73	68.4107	8,573.73	72.1964	8,573.73	62.904	8,573.73	62.2721	8,573.73	56.7756	8,573.73	44.16	8,573.73	48.9287	8,573.73	52.0874	8,573.73	54.8034	8,573.73	61.2538	8,573.73	61.4551	8,573.73	60.5844	8,573.73	51.5997	8,573.73	56.8017	8,573.73	55.4268	8,573.73	56.7842	8,573.73	56.2223	8,573.73	60.1824	8,573.73	54.818
8,876.95	85.7363	8,876.95	85.6299	8,876.95	85.5003	8,876.95	84.3206	8,876.95	83.8799	8,876.95	82.4152	8,876.95	81.6773	8,876.95	79.2985	8,876.95	80.2193	8,876.95	80.5291	8,876.95	77.6676	8,876.95	75.99	8,876.95	72.3486	8,876.95	70.8507	8,876.95	72.0428	8,876.95	71.3534	8,876.95	70.9894	8,876.95	67.7648	8,876.95	69.3215	8,876.95	61.4203	8,876.95	59.7728	8,876.95	56.1166	8,876.95	46.2459	8,876.95	50.1707	8,876.95	54.7158	8,876.95	54.7623	8,876.95	61.0484	8,876.95	61.6856	8,876.95	60.9768	8,876.95	52.8215	8,876.95	49.302	8,876.95	54.4444	8,876.95	53.0627	8,876.95	55.6553	8,876.95	56.8815	8,876.95	51.6056
9,188.96	86.0383	9,188.96	85.8717	9,188.96	85.5003	9,188.96	84.54	9,188.96	83.734	9,188.96	82.3325	9,188.96	82.3447	9,188.96	79.6476	9,188.96	80.1012	9,188.96	80.0437	9,188.96	76.9418	9,188.96	75.7878	9,188.96	74.2764	9,188.96	69.8575	9,188.96	72.0633	9,188.96	70.584	9,188.96	65.7112	9,188.96	66.7758	9,188.96	67.1662	9,188.96	61.3463	9,188.96	55.3397	9,188.96	56.3531	9,188.96	48.2965	9,188.96	50.3196	9,188.96	46.6598	9,188.96	52.1395	9,188.96	58.8198	9,188.96	60.146	9,188.96	57.966	9,188.96	56.537	9,188.96	46.2926	9,188.96	54.0591	9,188.96	50.0606	9,188.96	56.5337	9,188.96	56.5853	9,188.96	41.0202
9,514.16	85.87	9,514.16	86.0544	9,514.16	85.2357	9,514.16	84.2563	9,514.16	83.7989	9,514.16	82.4121	9,514.16	82.8468	9,514.16	79.807	9,514.16	78.9818	9,514.16	79.7759	9,514.16	77.1143	9,514.16	75.3763	9,514.16	73.8233	9,514.16	68.8742	9,514.16	67.558	9,514.16	69.6536	9,514.16	64.6162	9,514.16	66.7892	9,514.16	66.1842	9,514.16	59.998	9,514.16	51.585	9,514.16	52.8014	9,514.16	51.044	9,514.16	52.8976	9,514.16	45.9508	9,514.16	50.1508	9,514.16	58.4037	9,514.16	60.4181	9,514.16	59.437	9,514.16	56.9155	9,514.16	53.7907	9,514.16	51.5079	9,514.16	52.082	9,514.16	55.6317	9,514.16	57.4298	9,514.16	42.6151
9,849.61	85.6016	9,849.61	86.0002	9,849.61	85.1625	9,849.61	84.1699	9,849.61	83.9711	9,849.61	82.6424	9,849.61	82.5658	9,849.61	80.4421	9,849.61	79.0769	9,849.61	79.8996	9,849.61	75.8971	9,849.61	75.2006	9,849.61	71.9947	9,849.61	69.145	9,849.61	67.2128	9,849.61	69.1987	9,849.61	66.8767	9,849.61	67.6139	9,849.61	62.6407	9,849.61	59.362	9,849.61	44.7663	9,849.61	50.8065	9,849.61	49.7423	9,849.61	53.8267	9,849.61	40.8093	9,849.61	46.4277	9,849.61	58.2208	9,849.61	59.1867	9,849.61	58.1515	9,849.61	57.4007	9,849.61	54.0817	9,849.61	51.524	9,849.61	51.3807	9,849.61	54.7472	9,849.61	55.7912	9,849.61	45.5685
10,196.8	85.7203	10,196.8	85.8186	10,196.8	85.4281	10,196.8	84.2895	10,196.8	83.5919	10,196.8	82.5787	10,196.8	82.4367	10,196.8	80.5975	10,196.8	79.5702	10,196.8	79.36	10,196.8	74.4354	10,196.8	74.9181	10,196.8	73.4127	10,196.8	68.3424	10,196.8	67.8579	10,196.8	67.8264	10,196.8	68.9912	10,196.8	65.8317	10,196.8	63.2121	10,196.8	55.7252	10,196.8	54.7744	10,196.8	48.7207	10,196.8	51.2944	10,196.8	54.6059	10,196.8	43.2615	10,196.8	45.2336	10,196.8	57.7594	10,196.8	57.342	10,196.8	54.277	10,196.8	56.3105	10,196.8	47.3458	10,196.8	49.5478	10,196.8	51.1998	10,196.8	52.3446	10,196.8	54.2184	10,196.8	46.1914
10,555.7	85.9824	10,555.7	85.8129	10,555.7	85.5397	10,555.7	84.3499	10,555.7	83.7523	10,555.7	82.8893	10,555.7	82.5037	10,555.7	80.2114	10,555.7	78.5928	10,555.7	78.7878	10,555.7	74.6143	10,555.7	74.2835	10,555.7	72.1235	10,555.7	67.6984	10,555.7	67.9916	10,555.7	65.2474	10,555.7	67.1209	10,555.7	64.2083	10,555.7	64.0042	10,555.7	53.2624	10,555.7	58.274	10,555.7	43.8431	10,555.7	52.182	10,555.7	54.1544	10,555.7	42.4222	10,555.7	41.411	10,555.7	57.0274	10,555.7	56.1097	10,555.7	47.972	10,555.7	54.6889	10,555.7	38.2851	10,555.7	47.5062	10,555.7	50.9721	10,555.7	51.4002	10,555.7	52.5552	10,555.7	45.5488
10,927.7	86.0917	10,927.7	86.1725	10,927.7	85.4005	10,927.7	84.4789	10,927.7	84.3031	10,927.7	82.8716	10,927.7	82.0237	10,927.7	80.1503	10,927.7	78.0951	10,927.7	78.3904	10,927.7	74.6071	10,927.7	73.2519	10,927.7	70.9325	10,927.7	66.4221	10,927.7	68.5691	10,927.7	62.5316	10,927.7	62.6215	10,927.7	62.7937	10,927.7	61.8432	10,927.7	52.7165	10,927.7	56.0949	10,927.7	45.3619	10,927.7	41.3495	10,927.7	52.6042	10,927.7	44.7994	10,927.7	40.2318	10,927.7	55.2609	10,927.7	53.1732	10,927.7	45.4056	10,927.7	52.0149	10,927.7	33.6887	10,927.7	44.2991	10,927.7	46.1484	10,927.7	51.2461	10,927.7	51.2874	10,927.7	43.2282
11,313	86.2157	11,313	86.3586	11,313	85.553	11,313	84.5896	11,313	84.2698	11,313	82.5633	11,313	81.7116	11,313	79.8257	11,313	78.3278	11,313	77.6711	11,313	73.2441	11,313	72.2681	11,313	72.6553	11,313	64.6434	11,313	64.5901	11,313	60.2366	11,313	64.759	11,313	61.0442	11,313	59.9289	11,313	51.8335	11,313	51.4662	11,313	31.2481	11,313	48.8538	11,313	52.1829	11,313	42.2304	11,313	41.0952	11,313	51.3895	11,313	49.4153	11,313	42.2135	11,313	50.8965	11,313	33.301	11,313	30.6777	11,313	45.8015	11,313	50.395	11,313	49.5247	11,313	34.088
11,712.9	86.2809	11,712.9	86.3426	11,712.9	85.7782	11,712.9	84.75	11,712.9	83.9921	11,712.9	82.4272	11,712.9	81.6251	11,712.9	79.2059	11,712.9	77.7033	11,712.9	76.7431	11,712.9	73.552	11,712.9	71.1265	11,712.9	70.8886	11,712.9	63.4688	11,712.9	64.314	11,712.9	57.14	11,712.9	63.8276	11,712.9	60.3786	11,712.9	58.1727	11,712.9	50.6371	11,712.9	56.5865	11,712.9	39.599	11,712.9	46.7285	11,712.9	51.1176	11,712.9	37.6863	11,712.9	40.8391	11,712.9	48.2089	11,712.9	47.8379	11,712.9	43.2066	11,712.9	47.1887	11,712.9	42.8479	11,712.9	45.4245	11,712.9	47.3958	11,712.9	51.2331	11,712.9	49.4447	11,712.9	41.497
12,126	86.4601	12,126	86.3293	12,126	85.782	12,126	84.7751	12,126	84.1212	12,126	82.3004	12,126	81.3665	12,126	78.6651	12,126	76.842	12,126	75.6692	12,126	73.4815	12,126	70.3316	12,126	67.977	12,126	61.8312	12,126	63.3893	12,126	54.3357	12,126	59.7302	12,126	58.2137	12,126	51.0589	12,126	49.9061	12,126	55.9977	12,126	34.8468	12,126	41.1227	12,126	48.1748	12,126	41.7066	12,126	48.0277	12,126	43.9223	12,126	42.3245	12,126	32.9065	12,126	46.6971	12,126	40.6172	12,126	44.1633	12,126	45.4081	12,126	49.6893	12,126	47.6652	12,126	43.9887
12,553.7	86.6236	12,553.7	86.3679	12,553.7	85.8	12,553.7	84.714	12,553.7	84.2005	12,553.7	82.07	12,553.7	81.0065	12,553.7	78.2916	12,553.7	76.9792	12,553.7	74.7424	12,553.7	72.1027	12,553.7	69.8053	12,553.7	69.0944	12,553.7	60.3489	12,553.7	58.4343	12,553.7	43.9154	12,553.7	58.543	12,553.7	58.5636	12,553.7	45.1315	12,553.7	46.735	12,553.7	52.748	12,553.7	32.2555	12,553.7	45.2608	12,553.7	43.4428	12,553.7	45.2019	12,553.7	46.0037	12,553.7	42.8303	12,553.7	46.2924	12,553.7	34.3358	12,553.7	40.4678	12,553.7	34.36	12,553.7	47.3337	12,553.7	39.0696	12,553.7	50.6922	12,553.7	45.1228	12,553.7	44.6387
12,996.1	86.7363	12,996.1	86.4923	12,996.1	86.0753	12,996.1	84.8332	12,996.1	84.138	12,996.1	81.9338	12,996.1	80.8434	12,996.1	77.6339	12,996.1	76.8461	12,996.1	73.8226	12,996.1	72.5348	12,996.1	68.9556	12,996.1	68.1248	12,996.1	55.102	12,996.1	60.2318	12,996.1	45.1457	12,996.1	58.806	12,996.1	56.9658	12,996.1	50.1461	12,996.1	49.4632	12,996.1	53.5268	12,996.1	38.0576	12,996.1	46.7145	12,996.1	40.7497	12,996.1	46.8347	12,996.1	48.9351	12,996.1	31.4152	12,996.1	46.2775	12,996.1	36.0736	12,996.1	31.157	12,996.1	40.4049	12,996.1	48.6779	12,996.1	34.6193	12,996.1	50.3952	12,996.1	45.8332	12,996.1	38.834
13,454.6	86.9554	13,454.6	86.6649	13,454.6	86.2376	13,454.6	84.9534	13,454.6	83.9213	13,454.6	81.3007	13,454.6	80.4944	13,454.6	76.7973	13,454.6	76.6826	13,454.6	72.9874	13,454.6	72.2521	13,454.6	67.5932	13,454.6	65.8963	13,454.6	42.4692	13,454.6	59.6576	13,454.6	56.7032	13,454.6	57.9926	13,454.6	57.5742	13,454.6	53.3612	13,454.6	49.4323	13,454.6	53.8107	13,454.6	28.2409	13,454.6	47.6173	13,454.6	44.2425	13,454.6	44.0495	13,454.6	51.0999	13,454.6	39.8288	13,454.6	44.8294	13,454.6	38.1726	13,454.6	31.2034	13,454.6	45.3746	13,454.6	50.3369	13,454.6	36.0107	13,454.6	47.7922	13,454.6	45.9967	13,454.6	33.849
13,929.2	87.0143	13,929.2	86.7868	13,929.2	86.2332	13,929.2	84.9027	13,929.2	83.7597	13,929.2	81.0676	13,929.2	79.965	13,929.2	76.1265	13,929.2	76.7623	13,929.2	71.6959	13,929.2	70.609	13,929.2	66.991	13,929.2	65.3481	13,929.2	52.6031	13,929.2	64.4027	13,929.2	59.3872	13,929.2	60.8128	13,929.2	57.7563	13,929.2	56.5814	13,929.2	49.338	13,929.2	51.9474	13,929.2	32.8138	13,929.2	48.2	13,929.2	48.0352	13,929.2	46.2519	13,929.2	51.7192	13,929.2	14.7453	13,929.2	43.0763	13,929.2	42.314	13,929.2	36.999	13,929.2	45.571	13,929.2	50.8801	13,929.2	42.4714	13,929.2	45.7311	13,929.2	44.4704	13,929.2	44.4833
14,419.9	86.9787	14,419.9	86.8293	14,419.9	86.1536	14,419.9	84.7725	14,419.9	83.1372	14,419.9	80.9334	14,419.9	79.8411	14,419.9	75.9467	14,419.9	76.4145	14,419.9	70.9954	14,419.9	69.7654	14,419.9	67.8748	14,419.9	64.0565	14,419.9	57.1409	14,419.9	66.4661	14,419.9	61.2663	14,419.9	59.625	14,419.9	55.68	14,419.9	59.2935	14,419.9	48.7518	14,419.9	57.1281	14,419.9	39.1324	14,419.9	50.9879	14,419.9	48.539	14,419.9	49.2447	14,419.9	51.7591	14,419.9	45.0981	14,419.9	34.251	14,419.9	32.9056	14,419.9	37.3117	14,419.9	45.992	14,419.9	49.2664	14,419.9	46.2086	14,419.9	47.5705	14,419.9	45.5617	14,419.9	42.5273
14,928.2	86.6807	14,928.2	86.5599	14,928.2	85.8949	14,928.2	84.6962	14,928.2	82.57	14,928.2	81.092	14,928.2	79.7832	14,928.2	75.2773	14,928.2	75.5205	14,928.2	72.0261	14,928.2	67.837	14,928.2	68.2471	14,928.2	65.7278	14,928.2	63.9604	14,928.2	67.3315	14,928.2	62.6869	14,928.2	61.5642	14,928.2	52.9033	14,928.2	58.4543	14,928.2	49.4766	14,928.2	54.1985	14,928.2	39.5905	14,928.2	49.374	14,928.2	46.7221	14,928.2	34.459	14,928.2	50.8971	14,928.2	49.0106	14,928.2	37.3986	14,928.2	48.1698	14,928.2	38.1818	14,928.2	48.0692	14,928.2	47.5586	14,928.2	46.4144	14,928.2	45.5335	14,928.2	43.4945	14,928.2	36.2653
15,455.6	86.784	15,455.6	86.2685	15,455.6	85.6537	15,455.6	84.3612	15,455.6	82.654	15,455.6	81.0583	15,455.6	79.8122	15,455.6	75.2255	15,455.6	73.9819	15,455.6	73.7245	15,455.6	66.2454	15,455.6	66.0957	15,455.6	64.0847	15,455.6	67.4433	15,455.6	68.9565	15,455.6	64.4068	15,455.6	56.1704	15,455.6	50.3825	15,455.6	59.876	15,455.6	51.9409	15,455.6	56.4122	15,455.6	42.0065	15,455.6	49.026	15,455.6	46.6061	15,455.6	45.9232	15,455.6	50.5614	15,455.6	47.0869	15,455.6	45.4674	15,455.6	48.4226	15,455.6	45.1864	15,455.6	48.3705	15,455.6	35.5249	15,455.6	44.6478	15,455.6	33.6213	15,455.6	39.5993	15,455.6	42.2833
16,000.5	86.7053	16,000.5	86.2141	16,000.5	85.1378	16,000.5	84.0993	16,000.5	82.7508	16,000.5	80.3218	16,000.5	79.0747	16,000.5	75.1155	16,000.5	72.2034	16,000.5	73.866	16,000.5	66.8426	16,000.5	66.1699	16,000.5	66.9301	16,000.5	68.9971	16,000.5	64.8911	16,000.5	63.7355	16,000.5	53.981	16,000.5	48.3645	16,000.5	55.8152	16,000.5	49.5337	16,000.5	51.9126	16,000.5	36.6622	16,000.5	45.0272	16,000.5	40.862	16,000.5	36.4326	16,000.5	46.5969	16,000.5	44.6856	16,000.5	46.6746	16,000.5	45.6854	16,000.5	45.9163	16,000.5	51.4965	16,000.5	45.2348	16,000.5	44.6205	16,000.5	38.4085	16,000.5	42.6607	16,000.5	41.1046
16,564.5	86.3361	16,564.5	85.8352	16,564.5	84.4984	16,564.5	83.5715	16,564.5	82.6502	16,564.5	79.2948	16,564.5	78.1091	16,564.5	74.9008	16,564.5	70.7724	16,564.5	72.2582	16,564.5	67.1648	16,564.5	67.8349	16,564.5	64.9218	16,564.5	68.8385	16,564.5	62.9789	16,564.5	61.2987	16,564.5	54.4611	16,564.5	42.328	16,564.5	59.6397	16,564.5	47.1374	16,564.5	52.5072	16,564.5	35.7507	16,564.5	47.7809	16,564.5	25.878	16,564.5	39.1923	16,564.5	41.0401	16,564.5	45.8931	16,564.5	46.3326	16,564.5	44.7242	16,564.5	44.1132	16,564.5	49.0645	16,564.5	46.1075	16,564.5	39.5823	16,564.5	39.1133	16,564.5	39.0161	16,564.5	31.9693
17,148.9	85.7337	17,148.9	85.2187	17,148.9	83.9646	17,148.9	82.8732	17,148.9	82.1821	17,148.9	78.1638	17,148.9	76.7625	17,148.9	73.8219	17,148.9	69.4753	17,148.9	70.0508	17,148.9	66.7967	17,148.9	68.0397	17,148.9	61.0394	17,148.9	69.2133	17,148.9	63.5139	17,148.9	60.6847	17,148.9	53.0565	17,148.9	44.139	17,148.9	60.4227	17,148.9	44.3028	17,148.9	53.8593	17,148.9	40.8652	17,148.9	45.5806	17,148.9	33.0828	17,148.9	35.3919	17,148.9	46.0358	17,148.9	43.6248	17,148.9	44.6101	17,148.9	42.1937	17,148.9	40.6345	17,148.9	46.6357	17,148.9	43.4775	17,148.9	38.4505	17,148.9	35.1921	17,148.9	44.1709	17,148.9	35.9627
17,752.4	85.1737	17,752.4	84.6468	17,752.4	83.2656	17,752.4	82.1932	17,752.4	81.4373	17,752.4	77.5665	17,752.4	75.0311	17,752.4	71.3334	17,752.4	68.7568	17,752.4	67.93	17,752.4	62.8063	17,752.4	67.2955	17,752.4	60.0945	17,752.4	69.1611	17,752.4	63.8133	17,752.4	60.451	17,752.4	51.296	17,752.4	34.8569	17,752.4	60.14	17,752.4	47.8643	17,752.4	54.41	17,752.4	44.1122	17,752.4	48.2206	17,752.4	41.5255	17,752.4	31.6994	17,752.4	49.0572	17,752.4	39.565	17,752.4	39.1369	17,752.4	41.183	17,752.4	36.3931	17,752.4	42.3143	17,752.4	25.652	17,752.4	30.0765	17,752.4	39.3247	17,752.4	43.4998	17,752.4	41.3232
18,379.4	84.4041	18,379.4	84.2866	18,379.4	82.8693	18,379.4	81.7515	18,379.4	80.1534	18,379.4	76.974	18,379.4	73.0375	18,379.4	69.5155	18,379.4	67.125	18,379.4	66.5762	18,379.4	56.5873	18,379.4	67.5284	18,379.4	61.5255	18,379.4	66.4634	18,379.4	64.4506	18,379.4	59.4215	18,379.4	54.081	18,379.4	45.9358	18,379.4	58.2397	18,379.4	47.354	18,379.4	53.0732	18,379.4	45.2587	18,379.4	44.7285	18,379.4	43.5775	18,379.4	11.1882	18,379.4	48.8686	18,379.4	43.8261	18,379.4	16.7905	18,379.4	39.4198	18,379.4	33.8645	18,379.4	44.1095	18,379.4	42.9908	18,379.4	28.8867	18,379.4	40.9845	18,379.4	43.6023	18,379.4	39.3064
19,026.9	83.7901	19,026.9	83.7274	19,026.9	82.5488	19,026.9	81.306	19,026.9	78.8768	19,026.9	76.0211	19,026.9	71.7791	19,026.9	68.7991	19,026.9	64.7964	19,026.9	64.2417	19,026.9	58.03	19,026.9	67.4318	19,026.9	61.5325	19,026.9	64.1988	19,026.9	61.9597	19,026.9	58.887	19,026.9	49.9241	19,026.9	50.5785	19,026.9	56.0625	19,026.9	45.8659	19,026.9	53.1484	19,026.9	43.9206	19,026.9	45.5063	19,026.9	44.2957	19,026.9	31.5508	19,026.9	45.7141	19,026.9	46.4342	19,026.9	31.9194	19,026.9	40.4235	19,026.9	31.1657	19,026.9	44.6295	19,026.9	42.4751	19,026.9	39.9328	19,026.9	38.6829	19,026.9	42.159	19,026.9	41.4785
19,697.8	83.2962	19,697.8	82.9532	19,697.8	82.173	19,697.8	80.3016	19,697.8	77.7499	19,697.8	74.2683	19,697.8	71.2017	19,697.8	67.674	19,697.8	59.6994	19,697.8	62.3713	19,697.8	62.13	19,697.8	66.0137	19,697.8	61.3287	19,697.8	63.6108	19,697.8	59.7977	19,697.8	56.592	19,697.8	51.2128	19,697.8	50.4075	19,697.8	54.4365	19,697.8	40.4124	19,697.8	54.8146	19,697.8	40.7465	19,697.8	34.9319	19,697.8	41.0801	19,697.8	36.6669	19,697.8	40.3395	19,697.8	44.4028	19,697.8	40.2019	19,697.8	39.6577	19,697.8	39.8052	19,697.8	44.3017	19,697.8	37.4113	19,697.8	38.5985	19,697.8	31.565	19,697.8	41.4086	19,697.8	36.8792
19,999.5	83.1639	19,999.5	82.68	19,999.5	81.9171	19,999.5	79.8665	19,999.5	77.5423	19,999.5	73.378	19,999.5	69.984	19,999.5	67.4893	19,999.5	57.8784	19,999.5	60.4541	19,999.5	66.3514	19,999.5	65.2694	19,999.5	58.0625	19,999.5	63.563	19,999.5	60.7009	19,999.5	56.0867	19,999.5	48.5694	19,999.5	47.2717	19,999.5	53.6274	19,999.5	48.1073	19,999.5	54.2259	19,999.5	37.0289	19,999.5	34.695	19,999.5	46.6141	19,999.5	44.6351	19,999.5	52.0578	19,999.5	48.8952	19,999.5	51.2983	19,999.5	49.1226	19,999.5	32.2679	19,999.5	45.4249	19,999.5	41.3842	19,999.5	31.2099	19,999.5	43.8526	19,999.5	50.1846	19,999.5	40.0978
