"SPL Vertical"
"On-Axis"		"10°"		"-10°"		"20°"		"-20°"		"30°"		"-30°"		"40°"		"-40°"		"50°"		"-50°"		"60°"		"-60°"		"70°"		"-70°"		"80°"		"-80°"		"90°"		"-90°"		"100°"		"-100°"		"110°"		"-110°"		"120°"		"-120°"		"130°"		"-130°"		"140°"		"-140°"		"150°"		"-150°"		"160°"		"-160°"		"170°"		"-170°"		"180°"
"Frequency / Hz"	"Sound Pressure Level / dB (re 20 µPa/V)  [2.83  V @ 1. m]"	"Frequency / Hz"	"Sound Pressure Level / dB (re 20 µPa/V)  [2.83  V @ 1. m]"	"Frequency / Hz"	"Sound Pressure Level / dB (re 20 µPa/V)  [2.83  V @ 1. m]"	"Frequency / Hz"	"Sound Pressure Level / dB (re 20 µPa/V)  [2.83  V @ 1. m]"	"Frequency / Hz"	"Sound Pressure Level / dB (re 20 µPa/V)  [2.83  V @ 1. m]"	"Frequency / Hz"	"Sound Pressure Level / dB (re 20 µPa/V)  [2.83  V @ 1. m]"	"Frequency / Hz"	"Sound Pressure Level / dB (re 20 µPa/V)  [2.83  V @ 1. m]"	"Frequency / Hz"	"Sound Pressure Level / dB (re 20 µPa/V)  [2.83  V @ 1. m]"	"Frequency / Hz"	"Sound Pressure Level / dB (re 20 µPa/V)  [2.83  V @ 1. m]"	"Frequency / Hz"	"Sound Pressure Level / dB (re 20 µPa/V)  [2.83  V @ 1. m]"	"Frequency / Hz"	"Sound Pressure Level / dB (re 20 µPa/V)  [2.83  V @ 1. m]"	"Frequency / Hz"	"Sound Pressure Level / dB (re 20 µPa/V)  [2.83  V @ 1. m]"	"Frequency / Hz"	"Sound Pressure Level / dB (re 20 µPa/V)  [2.83  V @ 1. m]"	"Frequency / Hz"	"Sound Pressure Level / dB (re 20 µPa/V)  [2.83  V @ 1. m]"	"Frequency / Hz"	"Sound Pressure Level / dB (re 20 µPa/V)  [2.83  V @ 1. m]"	"Frequency / Hz"	"Sound Pressure Level / dB (re 20 µPa/V)  [2.83  V @ 1. m]"	"Frequency / Hz"	"Sound Pressure Level / dB (re 20 µPa/V)  [2.83  V @ 1. m]"	"Frequency / Hz"	"Sound Pressure Level / dB (re 20 µPa/V)  [2.83  V @ 1. m]"	"Frequency / Hz"	"Sound Pressure Level / dB (re 20 µPa/V)  [2.83  V @ 1. m]"	"Frequency / Hz"	"Sound Pressure Level / dB (re 20 µPa/V)  [2.83  V @ 1. m]"	"Frequency / Hz"	"Sound Pressure Level / dB (re 20 µPa/V)  [2.83  V @ 1. m]"	"Frequency / Hz"	"Sound Pressure Level / dB (re 20 µPa/V)  [2.83  V @ 1. m]"	"Frequency / Hz"	"Sound Pressure Level / dB (re 20 µPa/V)  [2.83  V @ 1. m]"	"Frequency / Hz"	"Sound Pressure Level / dB (re 20 µPa/V)  [2.83  V @ 1. m]"	"Frequency / Hz"	"Sound Pressure Level / dB (re 20 µPa/V)  [2.83  V @ 1. m]"	"Frequency / Hz"	"Sound Pressure Level / dB (re 20 µPa/V)  [2.83  V @ 1. m]"	"Frequency / Hz"	"Sound Pressure Level / dB (re 20 µPa/V)  [2.83  V @ 1. m]"	"Frequency / Hz"	"Sound Pressure Level / dB (re 20 µPa/V)  [2.83  V @ 1. m]"	"Frequency / Hz"	"Sound Pressure Level / dB (re 20 µPa/V)  [2.83  V @ 1. m]"	"Frequency / Hz"	"Sound Pressure Level / dB (re 20 µPa/V)  [2.83  V @ 1. m]"	"Frequency / Hz"	"Sound Pressure Level / dB (re 20 µPa/V)  [2.83  V @ 1. m]"	"Frequency / Hz"	"Sound Pressure Level / dB (re 20 µPa/V)  [2.83  V @ 1. m]"	"Frequency / Hz"	"Sound Pressure Level / dB (re 20 µPa/V)  [2.83  V @ 1. m]"	"Frequency / Hz"	"Sound Pressure Level / dB (re 20 µPa/V)  [2.83  V @ 1. m]"	"Frequency / Hz"	"Sound Pressure Level / dB (re 20 µPa/V)  [2.83  V @ 1. m]"	"Frequency / Hz"	"Sound Pressure Level / dB (re 20 µPa/V)  [2.83  V @ 1. m]"
20.5078	41.0578	20.5078	41.0468	20.5078	40.901	20.5078	40.868	20.5078	40.5792	20.5078	40.524	20.5078	40.0981	20.5078	40.0185	20.5078	39.4663	20.5078	39.3541	20.5078	38.6946	20.5078	38.5309	20.5078	37.7951	20.5078	37.5444	20.5078	36.7803	20.5078	36.3841	20.5078	35.6618	20.5078	35.0312	20.5078	34.4498	20.5078	33.4551	20.5078	33.1536	20.5078	31.6085	20.5078	31.7836	20.5078	29.4198	20.5078	30.3546	20.5078	26.7859	20.5078	28.8873	20.5078	23.5899	20.5078	27.4049	20.5078	19.9393	20.5078	25.9166	20.5078	17.4208	20.5078	24.3856	20.5078	18.3848	20.5078	22.6974	20.5078	20.6794
21.9727	38.1383	21.9727	38.5047	21.9727	37.6881	21.9727	38.7838	21.9727	37.1687	21.9727	38.9813	21.9727	36.6071	21.9727	39.1091	21.9727	36.043	21.9727	39.1836	21.9727	35.5257	21.9727	39.2225	21.9727	35.1078	21.9727	39.2426	21.9727	34.8349	21.9727	39.2573	21.9727	34.734	21.9727	39.2738	21.9727	34.806	21.9727	39.2927	21.9727	35.0276	21.9727	39.3083	21.9727	35.3617	21.9727	39.3095	21.9727	35.7687	21.9727	39.2825	21.9727	36.2154	21.9727	39.2135	21.9727	36.6766	21.9727	39.0904	21.9727	37.1341	21.9727	38.9055	21.9727	37.5733	21.9727	38.6564	21.9727	37.9813	21.9727	38.3458
23.4375	44.6298	23.4375	44.5459	23.4375	44.7594	23.4375	44.5184	23.4375	44.9233	23.4375	44.5544	23.4375	45.1109	23.4375	44.657	23.4375	45.3144	23.4375	44.8238	23.4375	45.5286	23.4375	45.0483	23.4375	45.7515	23.4375	45.3205	23.4375	45.9821	23.4375	45.6281	23.4375	46.2203	23.4375	45.9582	23.4375	46.4648	23.4375	46.2976	23.4375	46.713	23.4375	46.6336	23.4375	46.9604	23.4375	46.9543	23.4375	47.2008	23.4375	47.2485	23.4375	47.4263	23.4375	47.506	23.4375	47.6281	23.4375	47.7179	23.4375	47.7968	23.4375	47.8769	23.4375	47.923	23.4375	47.9778	23.4375	47.9989	23.4375	48.0183
24.9023	40.6697	24.9023	40.4961	24.9023	40.8557	24.9023	40.3564	24.9023	41.0399	24.9023	40.2755	24.9023	41.2171	24.9023	40.277	24.9023	41.39	24.9023	40.3766	24.9023	41.5673	24.9023	40.579	24.9023	41.7603	24.9023	40.8771	24.9023	41.9798	24.9023	41.2539	24.9023	42.2329	24.9023	41.6874	24.9023	42.5207	24.9023	42.1534	24.9023	42.8381	24.9023	42.6285	24.9023	43.1743	24.9023	43.091	24.9023	43.5144	24.9023	43.5215	24.9023	43.8412	24.9023	43.903	24.9023	44.1364	24.9023	44.2208	24.9023	44.3828	24.9023	44.4631	24.9023	44.5649	24.9023	44.6213	24.9023	44.6703	24.9023	44.6905
26.3672	38.2594	26.3672	38.3736	26.3672	38.2058	26.3672	38.5496	26.3672	38.2114	26.3672	38.7868	26.3672	38.2758	26.3672	39.0823	26.3672	38.4001	26.3672	39.4301	26.3672	38.5865	26.3672	39.8214	26.3672	38.8373	26.3672	40.2452	26.3672	39.1526	26.3672	40.689	26.3672	39.5289	26.3672	41.1398	26.3672	39.958	26.3672	41.5844	26.3672	40.4264	26.3672	42.0093	26.3672	40.9174	26.3672	42.4015	26.3672	41.4114	26.3672	42.748	26.3672	41.8881	26.3672	43.036	26.3672	42.3276	26.3672	43.2539	26.3672	42.7117	26.3672	43.3911	26.3672	43.0249	26.3672	43.4396	26.3672	43.2552	26.3672	43.3947
27.832	31.459	27.832	31.4287	27.832	31.4966	27.832	31.4272	27.832	31.5404	27.832	31.4946	27.832	31.6084	27.832	31.6819	27.832	31.7337	27.832	32.0347	27.832	31.9574	27.832	32.5741	27.832	32.3161	27.832	33.2845	27.832	32.8297	27.832	34.1193	27.832	33.4924	27.832	35.0185	27.832	34.2735	27.832	35.9247	27.832	35.1267	27.832	36.7918	27.832	36.0015	27.832	37.5854	27.832	36.8511	27.832	38.2808	27.832	37.637	27.832	38.8599	27.832	38.3288	27.832	39.309	27.832	38.9036	27.832	39.6178	27.832	39.345	27.832	39.7786	27.832	39.6417	27.832	39.787
29.2969	32.2604	29.2969	31.8983	29.2969	32.5987	29.2969	31.534	29.2969	32.8993	29.2969	31.2017	29.2969	33.1537	29.2969	30.9539	29.2969	33.3601	29.2969	30.8617	29.2969	33.5261	29.2969	30.9987	29.2969	33.6716	29.2969	31.4084	29.2969	33.8303	29.2969	32.0755	29.2969	34.0463	29.2969	32.9301	29.2969	34.3627	29.2969	33.8802	29.2969	34.8036	29.2969	34.8421	29.2969	35.3614	29.2969	35.7534	29.2969	35.996	29.2969	36.5715	29.2969	36.6499	29.2969	37.2682	29.2969	37.2643	29.2969	37.8243	29.2969	37.7904	29.2969	38.2269	29.2969	38.1924	29.2969	38.4672	29.2969	38.447	29.2969	38.5405
30.7617	39.4729	30.7617	39.1754	30.7617	39.6999	30.7617	38.808	30.7617	39.8509	30.7617	38.3669	30.7617	39.916	30.7617	37.8439	30.7617	39.8817	30.7617	37.2277	30.7617	39.7317	30.7617	36.5051	30.7617	39.4472	30.7617	35.6627	30.7617	39.0082	30.7617	34.69	30.7617	38.3933	30.7617	33.5857	30.7617	37.5811	30.7617	32.371	30.7617	36.5532	30.7617	31.1131	30.7617	35.3011	30.7617	29.9531	30.7617	33.8442	30.7617	29.095	30.7617	32.266	30.7617	28.6888	30.7617	30.7646	30.7617	28.6828	30.7617	29.6414	30.7617	28.86	30.7617	29.0931	30.7617	29.0105	30.7617	28.9931	30.7617	29.0377
32.2266	42.1825	32.2266	41.8372	32.2266	42.447	32.2266	41.4169	32.2266	42.6228	32.2266	40.9255	32.2266	42.7004	32.2266	40.3668	32.2266	42.6691	32.2266	39.7466	32.2266	42.5189	32.2266	39.0774	32.2266	42.2406	32.2266	38.3841	32.2266	41.8283	32.2266	37.7103	32.2266	41.2817	32.2266	37.1216	32.2266	40.6107	32.2266	36.6962	32.2266	39.8432	32.2266	36.4966	32.2266	39.0363	32.2266	36.5339	32.2266	38.2835	32.2266	36.7552	32.2266	37.7014	32.2266	37.0686	32.2266	37.3805	32.2266	37.3805	32.2266	37.3238	32.2266	37.6187	32.2266	37.4423	32.2266	37.74	32.2266	37.6121	32.2266	37.7312
33.6914	42.7373	33.6914	42.3999	33.6914	42.939	33.6914	41.9209	33.6914	43.0056	33.6914	41.2893	33.6914	42.9328	33.6914	40.4879	33.6914	42.711	33.6914	39.4934	33.6914	42.3252	33.6914	38.2756	33.6914	41.7538	33.6914	36.801	33.6914	40.9671	33.6914	35.0489	33.6914	39.925	33.6914	33.0767	33.6914	38.574	33.6914	31.2145	33.6914	36.8478	33.6914	30.2768	33.6914	34.6893	33.6914	30.8085	33.6914	32.1848	33.6914	32.1423	33.6914	30.0745	33.6914	33.4758	33.6914	29.9129	33.6914	34.4893	33.6914	31.4428	33.6914	35.1032	33.6914	33.1136	33.6914	35.298	33.6914	34.3383	33.6914	35.0545
35.1562	45.6521	35.1562	45.3436	35.1562	45.8462	35.1562	44.917	35.1562	45.9255	35.1562	44.3644	35.1562	45.8855	35.1562	43.6736	35.1562	45.7172	35.1562	42.827	35.1562	45.4074	35.1562	41.8003	35.1562	44.938	35.1562	40.5597	35.1562	44.2862	35.1562	39.0569	35.1562	43.4228	35.1562	37.2229	35.1562	42.3104	35.1562	34.9592	35.1562	40.9008	35.1562	32.1425	35.1562	39.1309	35.1562	28.7601	35.1562	36.9214	35.1562	25.7814	35.1562	34.1979	35.1562	25.7549	35.1562	31.0412	35.1562	27.5982	35.1562	28.3061	35.1562	29.0682	35.1562	27.7274	35.1562	29.7234	35.1562	28.7209	35.1562	29.5734
36.6211	48.441	36.6211	48.1312	36.6211	48.6408	36.6211	47.7081	36.6211	48.7289	36.6211	47.1633	36.6211	48.6986	36.6211	46.483	36.6211	48.5386	36.6211	45.6473	36.6211	48.2334	36.6211	44.6287	36.6211	47.7626	36.6211	43.389	36.6211	47.101	36.6211	41.8739	36.6211	46.2162	36.6211	40.0048	36.6211	45.0667	36.6211	37.6671	36.6211	43.5968	36.6211	34.7141	36.6211	41.7307	36.6211	31.1563	36.6211	39.3672	36.6211	28.423	36.6211	36.4034	36.6211	29.2595	36.6211	32.9708	36.6211	31.4322	36.6211	30.4801	36.6211	32.9504	36.6211	30.9068	36.6211	33.603	36.6211	32.4354	36.6211	33.4244
38.0859	49.714	38.0859	49.3464	38.0859	49.9381	38.0859	48.8303	38.0859	50.0174	38.0859	48.1534	38.0859	49.9451	38.0859	47.2945	38.0859	49.7084	38.0859	46.2201	38.0859	49.2883	38.0859	44.8781	38.0859	48.6582	38.0859	43.1846	38.0859	47.7805	38.0859	40.9964	38.0859	46.6014	38.0859	38.0443	38.0859	45.0397	38.0859	33.7668	38.0859	42.9658	38.0859	27.578	38.0859	40.1592	38.0859	28.525	38.0859	36.2578	38.0859	33.7221	38.0859	31.4658	38.0859	36.8976	38.0859	31.5419	38.0859	38.8208	38.0859	35.3284	38.0859	39.9275	38.0859	37.9701	38.0859	40.3956	38.0859	39.5162	38.0859	40.2735
39.5508	51.5477	39.5508	51.1944	39.5508	51.7658	39.5508	50.7041	39.5508	51.8475	39.5508	50.0723	39.5508	51.7886	39.5508	49.2939	39.5508	51.5816	39.5508	48.3668	39.5508	51.2164	39.5508	47.3007	39.5508	50.6812	39.5508	46.138	39.5508	49.9658	39.5508	44.9914	39.5508	49.0681	39.5508	44.0853	39.5508	48.0114	39.5508	43.7069	39.5508	46.8778	39.5508	43.9815	39.5508	45.8573	39.5508	44.7284	39.5508	45.2434	39.5508	45.6444	39.5508	45.2454	39.5508	46.5078	39.5508	45.7606	39.5508	47.2046	39.5508	46.4839	39.5508	47.6838	39.5508	47.1599	39.5508	47.9235	39.5508	47.6543	39.5508	47.9139
41.0156	52.435	41.0156	52.0503	41.0156	52.6343	41.0156	51.4606	41.0156	52.658	41.0156	50.6347	41.0156	52.5063	41.0156	49.525	41.0156	52.1688	41.0156	48.058	41.0156	51.623	41.0156	46.1184	41.0156	50.8298	41.0156	43.5293	41.0156	49.7256	41.0156	40.1503	41.0156	48.2042	41.0156	37.1734	41.0156	46.0718	41.0156	38.5854	41.0156	42.9119	41.0156	41.9387	41.0156	37.4921	41.0156	44.6092	41.0156	19.244	41.0156	46.5165	41.0156	35.0771	41.0156	47.8385	41.0156	41.4434	41.0156	48.6936	41.0156	44.764	41.0156	49.1438	41.0156	46.8201	41.0156	49.2117	41.0156	48.1235	41.0156	48.887
42.4805	52.2342	42.4805	51.6641	42.4805	52.6069	42.4805	50.8983	42.4805	52.7823	42.4805	49.9528	42.4805	52.7577	42.4805	48.8873	42.4805	52.5263	42.4805	47.865	42.4805	52.0781	42.4805	47.2113	42.4805	51.4056	42.4805	47.2933	42.4805	50.5191	42.4805	48.1509	42.4805	49.4893	42.4805	49.446	42.4805	48.5337	42.4805	50.8277	42.4805	48.0802	42.4805	52.1061	42.4805	48.5075	42.4805	53.207	42.4805	49.6733	42.4805	54.108	42.4805	51.1037	42.4805	54.8042	42.4805	52.4588	42.4805	55.2946	42.4805	53.5976	42.4805	55.5769	42.4805	54.4815	42.4805	55.6461	42.4805	55.1101	42.4805	55.4941
43.9453	55.9953	43.9453	55.5914	43.9453	56.2599	43.9453	55.0573	43.9453	56.3797	43.9453	54.4115	43.9453	56.3493	43.9453	53.6935	43.9453	56.1633	43.9453	52.9817	43.9453	55.8175	43.9453	52.4082	43.9453	55.3138	43.9453	52.1419	43.9453	54.6708	43.9453	52.3046	43.9453	53.9444	43.9453	52.8755	43.9453	53.2587	43.9453	53.707	43.9453	52.8197	43.9453	54.6282	43.9453	52.8381	43.9453	55.514	43.9453	53.3593	43.9453	56.2907	43.9453	54.2126	43.9453	56.9187	43.9453	55.1639	43.9453	57.3767	43.9453	56.0448	43.9453	57.6517	43.9453	56.7675	43.9453	57.7345	43.9453	57.2954	43.9453	57.6175
45.4102	58.3513	45.4102	58.0023	45.4102	58.583	45.4102	57.5518	45.4102	58.6871	45.4102	57.027	45.4102	58.656	45.4102	56.4745	45.4102	58.4845	45.4102	55.9695	45.4102	58.1712	45.4102	55.616	45.4102	57.7235	45.4102	55.5215	45.4102	57.1681	45.4102	55.7451	45.4102	56.5684	45.4102	56.2573	45.4102	56.0438	45.4102	56.9586	45.4102	55.7645	45.4102	57.733	45.4102	55.877	45.4102	58.4869	45.4102	56.3915	45.4102	59.1573	45.4102	57.1683	45.4102	59.705	45.4102	58.0253	45.4102	60.1055	45.4102	58.8249	45.4102	60.343	45.4102	59.4888	45.4102	60.4061	45.4102	59.9805	45.4102	60.2868
46.875	61.1109	46.875	60.8352	46.875	61.2727	46.875	60.4568	46.875	61.3124	46.875	59.9935	46.875	61.2236	46.875	59.4748	46.875	61.0014	46.875	58.9492	46.875	60.6447	46.875	58.4898	46.875	60.1604	46.875	58.1895	46.875	59.573	46.875	58.1347	46.875	58.9406	46.875	58.3617	46.875	58.3729	46.875	58.8324	46.875	58.0294	46.875	59.4553	46.875	58.055	46.875	60.1287	46.875	58.4747	46.875	60.7697	46.875	59.1668	46.875	61.3203	46.875	59.9555	46.875	61.7426	46.875	60.7003	46.875	62.0121	46.875	61.3177	46.875	62.1124	46.875	61.7669	46.875	62.0325
48.3398	62.2132	48.3398	61.8899	48.3398	62.4149	48.3398	61.4541	48.3398	62.4897	48.3398	60.9228	48.3398	62.4339	48.3398	60.3293	48.3398	62.2458	48.3398	59.7338	48.3398	61.9276	48.3398	59.2339	48.3398	61.491	48.3398	58.9549	48.3398	60.9667	48.3398	59.0031	48.3398	60.4196	48.3398	59.3986	48.3398	59.9624	48.3398	60.058	48.3398	59.7429	48.3398	60.8494	48.3398	59.8764	48.3398	61.654	48.3398	60.3601	48.3398	62.3896	48.3398	61.0709	48.3398	63.0061	48.3398	61.8503	48.3398	63.4743	48.3398	62.5746	48.3398	63.7766	48.3398	63.1696	48.3398	63.9018	48.3398	63.5977	48.3398	63.843
51.2695	64.9919	51.2695	64.7257	51.2695	65.1726	51.2695	64.3947	51.2695	65.2553	51.2695	64.0309	51.2695	65.2331	51.2695	63.6808	51.2695	65.1052	51.2695	63.4063	51.2695	64.879	51.2695	63.2757	51.2695	64.5742	51.2695	63.3436	51.2695	64.23	51.2695	63.6266	51.2695	63.9124	51.2695	64.0942	51.2695	63.7119	51.2695	64.6828	51.2695	63.7203	51.2695	65.3206	51.2695	63.9856	51.2695	65.9449	51.2695	64.4797	51.2695	66.5084	51.2695	65.1139	51.2695	66.9777	51.2695	65.7842	51.2695	67.3296	51.2695	66.4064	51.2695	67.5478	51.2695	66.9249	51.2695	67.6208	51.2695	67.3083	51.2695	67.5418
52.7344	67.1974	52.7344	66.9852	52.7344	67.3375	52.7344	66.719	52.7344	67.3945	52.7344	66.4253	52.7344	67.363	52.7344	66.1412	52.7344	67.2432	52.7344	65.9136	52.7344	67.0431	52.7344	65.7934	52.7344	66.7813	52.7344	65.8228	52.7344	66.4922	52.7344	66.0205	52.7344	66.2299	52.7344	66.3726	52.7344	66.0647	52.7344	66.8378	52.7344	66.0665	52.7344	67.362	52.7344	66.2741	52.7344	67.8916	52.7344	66.6721	52.7344	68.3818	52.7344	67.1968	52.7344	68.7981	52.7344	67.766	52.7344	69.1149	52.7344	68.3058	52.7344	69.3138	52.7344	68.7629	52.7344	69.3823	52.7344	69.1044	52.7344	69.313
54.1992	69.6317	54.1992	69.4273	54.1992	69.7653	54.1992	69.1657	54.1992	69.8193	54.1992	68.8668	54.1992	69.7891	54.1992	68.5585	54.1992	69.6743	54.1992	68.2776	54.1992	69.4799	54.1992	68.067	54.1992	69.219	54.1992	67.969	54.1992	68.9167	54.1992	68.0134	54.1992	68.6135	54.1992	68.2061	54.1992	68.3662	54.1992	68.5255	54.1992	68.2387	54.1992	68.9297	54.1992	68.2807	54.1992	69.3686	54.1992	68.5034	54.1992	69.7948	54.1992	68.8705	54.1992	70.1685	54.1992	69.3149	54.1992	70.4594	54.1992	69.7649	54.1992	70.6454	54.1992	70.1616	54.1992	70.712	54.1992	70.465	54.1992	70.6518
55.6641	71.2009	55.6641	70.9871	55.6641	71.3373	55.6641	70.7085	55.6641	71.3882	55.6641	70.3835	55.6641	71.3493	55.6641	70.0386	55.6641	71.2198	55.6641	69.7101	55.6641	71.0042	55.6641	69.4433	55.6641	70.7148	55.6641	69.2861	55.6641	70.3759	55.6641	69.277	55.6641	70.0288	55.6641	69.4305	55.6641	69.7333	55.6641	69.7297	55.6641	69.5602	55.6641	70.1315	55.6641	69.5676	55.6641	70.5811	55.6641	69.7725	55.6641	71.0251	55.6641	70.1378	55.6641	71.4191	55.6641	70.5908	55.6641	71.7291	55.6641	71.0525	55.6641	71.931	55.6641	71.4592	55.6641	72.0089	55.6641	71.7679	55.6641	71.9546
58.5938	74.4352	58.5938	74.2215	58.5938	74.5691	58.5938	73.936	58.5938	74.6178	58.5938	73.5916	58.5938	74.5785	58.5938	73.208	58.5938	74.4508	58.5938	72.8146	58.5938	74.2377	58.5938	72.4524	58.5938	73.9486	58.5938	72.1718	58.5938	73.6027	58.5938	72.0238	58.5938	73.2339	58.5938	72.0432	58.5938	72.8937	58.5938	72.2333	58.5938	72.6469	58.5938	72.5624	58.5938	72.5552	58.5938	72.9752	58.5938	72.6493	58.5938	73.4106	58.5938	72.9101	58.5938	73.8145	58.5938	73.2768	58.5938	74.1452	58.5938	73.6728	58.5938	74.373	58.5938	74.0303	58.5938	74.4792	58.5938	74.3006	58.5938	74.4547
60.0586	75.1661	60.0586	74.9281	60.0586	75.3225	60.0586	74.6179	60.0586	75.3914	60.0586	74.2505	60.0586	75.3696	60.0586	73.8497	60.0586	75.2566	60.0586	73.4509	60.0586	75.056	60.0586	73.1029	60.0586	74.7782	60.0586	72.8635	60.0586	74.4447	60.0586	72.7856	60.0586	74.0925	60.0586	72.897	60.0586	73.7769	60.0586	73.1859	60.0586	73.5664	60.0586	73.6047	60.0586	73.5221	60.0586	74.0883	60.0586	73.6695	60.0586	74.5733	60.0586	73.9821	60.0586	75.0082	60.0586	74.3927	60.0586	75.3553	60.0586	74.8229	60.0586	75.5889	60.0586	75.2056	60.0586	75.6932	60.0586	75.4943	60.0586	75.6611
62.9883	77.9247	62.9883	77.6841	62.9883	78.087	62.9883	77.3759	62.9883	78.1648	62.9883	77.0173	62.9883	78.1551	62.9883	76.634	62.9883	78.0585	62.9883	76.2626	62.9883	77.8797	62.9883	75.95	62.9883	77.6299	62.9883	75.7476	62.9883	77.3298	62.9883	75.6982	62.9883	77.0134	62.9883	75.8194	62.9883	76.7289	62.9883	76.0953	62.9883	76.5343	62.9883	76.4817	62.9883	76.4811	62.9883	76.9218	62.9883	76.5926	62.9883	77.3605	62.9883	76.8502	62.9883	77.7528	62.9883	77.2002	62.9883	78.0649	62.9883	77.5756	62.9883	78.2735	62.9883	77.9162	62.9883	78.3643	62.9883	78.1773	62.9883	78.3313
64.4531	79.0603	64.4531	78.8308	64.4531	79.2216	64.4531	78.5443	64.4531	79.3075	64.4531	78.2179	64.4531	79.3147	64.4531	77.8764	64.4531	79.243	64.4531	77.5527	64.4531	79.0964	64.4531	77.2871	64.4531	78.8846	64.4531	77.1216	64.4531	78.6258	64.4531	77.0895	64.4531	78.3494	64.4531	77.2039	64.4531	78.0966	64.4531	77.4513	64.4531	77.917	64.4531	77.7957	64.4531	77.856	64.4531	78.1895	64.4531	77.9369	64.4531	78.5848	64.4531	78.1487	64.4531	78.9406	64.4531	78.4489	64.4531	79.225	64.4531	78.7796	64.4531	79.4153	64.4531	79.0854	64.4531	79.4974	64.4531	79.3235	64.4531	79.4657
67.3828	81.5503	67.3828	81.3278	67.3828	81.708	67.3828	81.0495	67.3828	81.7943	67.3828	80.7287	67.3828	81.8052	67.3828	80.3836	67.3828	81.7385	67.3828	80.0395	67.3828	81.5955	67.3828	79.7284	67.3828	81.3816	67.3828	79.4872	67.3828	81.1093	67.3828	79.3506	67.3828	80.8006	67.3828	79.3419	67.3828	80.4899	67.3828	79.4634	67.3828	80.2222	67.3828	79.6941	67.3828	80.046	67.3828	79.9956	67.3828	79.9973	67.3828	80.3224	67.3828	80.0833	67.3828	80.631	67.3828	80.2772	67.3828	80.8856	67.3828	80.5283	67.3828	81.0595	67.3828	80.7802	67.3828	81.1365	67.3828	80.9852	67.3828	81.11
68.8477	82.6223	68.8477	82.3988	68.8477	82.7784	68.8477	82.1165	68.8477	82.8614	68.8477	81.7873	68.8477	82.8672	68.8477	81.4282	68.8477	82.7938	68.8477	81.0632	68.8477	82.6419	68.8477	80.7234	68.8477	82.4163	68.8477	80.446	68.8477	82.1285	68.8477	80.2679	68.8477	81.7991	68.8477	80.2166	68.8477	81.4613	68.8477	80.299	68.8477	81.1596	68.8477	80.4979	68.8477	80.9441	68.8477	80.7763	68.8477	80.8547	68.8477	81.0879	68.8477	80.9039	68.8477	81.3874	68.8477	81.0686	68.8477	81.6368	68.8477	81.2996	68.8477	81.8084	68.8477	81.5391	68.8477	81.8846	68.8477	81.7374	68.8477	81.859
71.7773	84.3854	71.7773	84.1649	71.7773	84.5412	71.7773	83.8879	71.7773	84.6269	71.7773	83.5658	71.7773	84.6386	71.7773	83.2149	71.7773	84.5744	71.7773	82.8577	71.7773	84.4348	71.7773	82.5235	71.7773	84.224	71.7773	82.2469	71.7773	83.9523	71.7773	82.0625	71.7773	83.6381	71.7773	81.9961	71.7773	83.3109	71.7773	82.0557	71.7773	83.011	71.7773	82.2267	71.7773	82.7842	71.7773	82.4759	71.7773	82.6692	71.7773	82.7606	71.7773	82.6814	71.7773	83.0379	71.7773	82.8047	71.7773	83.2712	71.7773	82.9964	71.7773	83.4332	71.7773	83.204	71.7773	83.5071	71.7773	83.3792	71.7773	83.487
74.707	85.7154	74.707	85.4983	74.707	85.8703	74.707	85.2268	74.707	85.9574	74.707	84.9114	74.707	85.9724	74.707	84.5669	74.707	85.9129	74.707	84.213	74.707	85.7784	74.707	83.8758	74.707	85.5718	74.707	83.5858	74.707	85.3016	74.707	83.3747	74.707	84.9836	74.707	83.2683	74.707	84.6441	74.707	83.2775	74.707	84.3203	74.707	83.3941	74.707	84.0559	74.707	83.5913	74.707	83.8913	74.707	83.8313	74.707	83.8476	74.707	84.0736	74.707	83.9162	74.707	84.2822	74.707	84.0614	74.707	84.4293	74.707	84.2338	74.707	84.4974	74.707	84.3855	74.707	84.4805
77.6367	86.8911	77.6367	86.6864	77.6367	87.0378	77.6367	86.4307	77.6367	87.121	77.6367	86.1332	77.6367	87.1371	77.6367	85.8068	77.6367	87.0835	77.6367	85.4683	77.6367	86.9596	77.6367	85.1394	77.6367	86.7678	77.6367	84.8459	77.6367	86.5147	77.6367	84.6155	77.6367	86.2136	77.6367	84.4717	77.6367	85.8864	77.6367	84.4282	77.6367	85.5642	77.6367	84.4828	77.6367	85.285	77.6367	84.6171	77.6367	85.0853	77.6367	84.8006	77.6367	84.9881	77.6367	84.9976	77.6367	84.9927	77.6367	85.1745	77.6367	85.0734	77.6367	85.3043	77.6367	85.1895	77.6367	85.3699	77.6367	85.2983	77.6367	85.3655
79.1016	87.4434	79.1016	87.2447	79.1016	87.5872	79.1016	86.9978	79.1016	87.6711	79.1016	86.7113	79.1016	87.6912	79.1016	86.3965	79.1016	87.6446	79.1016	86.0686	79.1016	87.5303	79.1016	85.747	79.1016	87.3498	79.1016	85.4549	79.1016	87.1084	79.1016	85.2172	79.1016	86.8176	79.1016	85.0567	79.1016	86.4969	79.1016	84.9877	79.1016	86.1744	79.1016	85.0109	79.1016	85.8852	79.1016	85.1121	79.1016	85.6646	79.1016	85.2646	79.1016	85.5369	79.1016	85.4359	79.1016	85.5057	79.1016	85.5939	79.1016	85.5509	79.1016	85.7126	79.1016	85.6366	79.1016	85.7751	79.1016	85.7227	79.1016	85.7759
82.0312	88.4442	82.0312	88.2495	82.0312	88.583	82.0312	88.0045	82.0312	88.6616	82.0312	87.7161	82.0312	88.6759	82.0312	87.3936	82.0312	88.6228	82.0312	87.0494	82.0312	88.5003	82.0312	86.7004	82.0312	88.3087	82.0312	86.3676	82.0312	88.0517	82.0312	86.076	82.0312	87.7387	82.0312	85.8502	82.0312	87.3865	82.0312	85.7097	82.0312	87.0215	82.0312	85.6621	82.0312	86.6778	82.0312	85.6997	82.0312	86.3931	82.0312	85.8005	82.0312	86.1972	82.0312	85.9333	82.0312	86.1011	82.0312	86.0657	82.0312	86.0916	82.0312	86.1697	82.0312	86.1362	82.0312	86.2275	82.0312	86.195	82.0312	86.233
84.9609	88.9943	84.9609	88.8041	84.9609	89.1353	84.9609	88.5699	84.9609	89.2224	84.9609	88.2981	84.9609	89.2512	84.9609	87.9974	84.9609	89.2181	84.9609	87.6791	84.9609	89.1205	84.9609	87.3588	84.9609	88.9579	84.9609	87.056	84.9609	88.7335	84.9609	86.7937	84.9609	88.4561	84.9609	86.5948	84.9609	88.142	84.9609	86.4774	84.9609	87.8161	84.9609	86.4487	84.9609	87.5105	84.9609	86.5016	84.9609	87.2596	84.9609	86.6155	84.9609	87.0896	84.9609	86.7608	84.9609	87.0092	84.9609	86.9061	84.9609	87.0047	84.9609	87.0243	84.9609	87.0452	84.9609	87.0971	84.9609	87.0937	84.9609	87.1179
87.8906	89.6492	87.8906	89.4798	87.8906	89.7676	87.8906	89.2633	87.8906	89.8319	87.8906	89.005	87.8906	89.8392	87.8906	88.712	87.8906	89.7875	87.8906	88.3944	87.8906	89.6757	87.8906	88.0659	87.8906	89.5045	87.8906	87.7444	87.8906	89.2773	87.8906	87.4507	87.8906	89.0018	87.8906	87.2066	87.8906	88.6911	87.8906	87.0306	87.8906	88.3647	87.8906	86.9326	87.8906	88.0481	87.8906	86.9108	87.8906	87.7688	87.8906	86.951	87.8906	87.5505	87.8906	87.0301	87.8906	87.4051	87.8906	87.1223	87.8906	87.3286	87.8906	87.2048	87.8906	87.3018	87.8906	87.2626	87.8906	87.2981	87.8906	87.2912
90.8203	90.313	90.8203	90.135	90.8203	90.4429	90.8203	89.9132	90.8203	90.5211	90.8203	89.6526	90.8203	90.5441	90.8203	89.36	90.8203	90.5085	90.8203	89.045	90.8203	90.4119	90.8203	88.7206	90.8203	90.2533	90.8203	88.4036	90.8203	90.0345	90.8203	88.1142	90.8203	89.7616	90.8203	87.8737	90.8203	89.4467	90.8203	87.7002	90.8203	89.1092	90.8203	87.6037	90.8203	88.7751	90.8203	87.5822	90.8203	88.4745	90.8203	87.6215	90.8203	88.2345	90.8203	87.6985	90.8203	88.0708	90.8203	87.7874	90.8203	87.9819	90.8203	87.8654	90.8203	87.9493	90.8203	87.918	90.8203	87.9452	90.8203	87.9416
95.2148	91.1583	95.2148	90.9967	95.2148	91.2786	95.2148	90.7988	95.2148	91.3539	95.2148	90.5701	95.2148	91.3809	95.2148	90.3183	95.2148	91.3568	95.2148	90.0527	95.2148	91.2804	95.2148	89.7854	95.2148	91.1519	95.2148	89.5307	95.2148	90.9744	95.2148	89.304	95.2148	90.7545	95.2148	89.1203	95.2148	90.5034	95.2148	88.9913	95.2148	90.2375	95.2148	88.9225	95.2148	89.9772	95.2148	88.9114	95.2148	89.7441	95.2148	88.9474	95.2148	89.5567	95.2148	89.0141	95.2148	89.4245	95.2148	89.0927	95.2148	89.3449	95.2148	89.1663	95.2148	89.3042	95.2148	89.2234	95.2148	89.2826	95.2148	89.2604
98.1445	91.6942	98.1445	91.5519	98.1445	91.8008	98.1445	91.3778	98.1445	91.8687	98.1445	91.1763	98.1445	91.895	98.1445	90.9531	98.1445	91.8777	98.1445	90.7151	98.1445	91.8156	98.1445	90.4713	98.1445	91.7085	98.1445	90.2324	98.1445	91.5583	98.1445	90.0107	98.1445	91.3697	98.1445	89.8186	98.1445	91.1505	98.1445	89.6676	98.1445	90.9124	98.1445	89.5653	98.1445	90.6705	98.1445	89.5136	98.1445	90.442	98.1445	89.508	98.1445	90.2424	98.1445	89.5382	98.1445	90.0821	98.1445	89.5904	98.1445	89.9633	98.1445	89.6511	98.1445	89.8793	98.1445	89.7105	98.1445	89.8176	98.1445	89.7647
101.074	92.146	101.074	92.0096	101.074	92.247	101.074	91.841	101.074	92.3103	101.074	91.6444	101.074	92.334	101.074	91.4254	101.074	92.3168	101.074	91.1914	101.074	92.2579	101.074	90.9516	101.074	92.1572	101.074	90.7171	101.074	92.0163	101.074	90.5001	101.074	91.8385	101.074	90.313	101.074	91.6305	101.074	90.1664	101.074	91.4021	101.074	90.0669	101.074	91.1669	101.074	90.0156	101.074	90.9406	101.074	90.0073	101.074	90.7386	101.074	90.0321	101.074	90.5723	101.074	90.0771	101.074	90.4456	101.074	90.1304	101.074	90.3545	101.074	90.1837	101.074	90.2884	101.074	90.2348
105.469	92.8742	105.469	92.7515	105.469	92.9709	105.469	92.6056	105.469	93.0386	105.469	92.4397	105.469	93.0748	105.469	92.2577	105.469	93.0767	105.469	92.0642	105.469	93.042	105.469	91.8649	105.469	92.9694	105.469	91.6667	105.469	92.8585	105.469	91.4779	105.469	92.7112	105.469	91.3073	105.469	92.5322	105.469	91.1639	105.469	92.3295	105.469	91.0546	105.469	92.1143	105.469	90.9834	105.469	91.9005	105.469	90.95	105.469	91.7017	105.469	90.9497	105.469	91.5292	105.469	90.9746	105.469	91.3886	105.469	91.0161	105.469	91.279	105.469	91.0674	105.469	91.1942	105.469	91.1259
108.398	93.2282	108.398	93.122	108.398	93.3098	108.398	92.9935	108.398	93.3647	108.398	92.8454	108.398	93.3909	108.398	92.6811	108.398	93.3865	108.398	92.5049	108.398	93.3502	108.398	92.3223	108.398	93.2809	108.398	92.14	108.398	93.1788	108.398	91.9658	108.398	93.0456	108.398	91.8083	108.398	92.8853	108.398	91.6755	108.398	92.7047	108.398	91.5737	108.398	92.5133	108.398	91.5063	108.398	92.3226	108.398	91.4728	108.398	92.1444	108.398	91.469	108.398	91.9885	108.398	91.488	108.398	91.8601	108.398	91.5223	108.398	91.7591	108.398	91.5665	108.398	91.6808	108.398	91.6185
112.793	93.8783	112.793	93.7911	112.793	93.9468	112.793	93.6862	112.793	93.9957	112.793	93.5645	112.793	94.0236	112.793	93.4273	112.793	94.0289	112.793	93.277	112.793	94.0093	112.793	93.1167	112.793	93.9626	112.793	92.9513	112.793	93.887	112.793	92.7866	112.793	93.7818	112.793	92.63	112.793	93.6481	112.793	92.489	112.793	93.4896	112.793	92.3707	112.793	93.313	112.793	92.2806	112.793	93.1275	112.793	92.2213	112.793	92.944	112.793	92.1923	112.793	92.7728	112.793	92.1907	112.793	92.6219	112.793	92.2124	112.793	92.4955	112.793	92.2539	112.793	92.3936	112.793	92.314
117.188	94.1579	117.188	94.0757	117.188	94.2254	117.188	93.9793	117.188	94.277	117.188	93.8697	117.188	94.3112	117.188	93.7482	117.188	94.3259	117.188	93.6169	117.188	94.3184	117.188	93.4789	117.188	94.286	117.188	93.3384	117.188	94.2264	117.188	93.2005	117.188	94.1384	117.188	93.0708	117.188	94.0228	117.188	92.955	117.188	93.8829	117.188	92.8581	117.188	93.7247	117.188	92.7837	117.188	93.5567	117.188	92.7335	117.188	93.3888	117.188	92.7072	117.188	93.2309	117.188	92.7031	117.188	93.0907	117.188	92.719	117.188	92.9729	117.188	92.7534	117.188	92.8785	117.188	92.8061
120.117	94.4916	120.117	94.426	120.117	94.5484	120.117	94.352	120.117	94.5952	120.117	94.2696	120.117	94.6302	120.117	94.1786	120.117	94.6507	120.117	94.0793	120.117	94.6535	120.117	93.9725	120.117	94.6353	120.117	93.86	120.117	94.5932	120.117	93.7446	120.117	94.5255	120.117	93.6301	120.117	94.4318	120.117	93.521	120.117	94.314	120.117	93.4223	120.117	94.1763	120.117	93.3386	120.117	94.0256	120.117	93.2739	120.117	93.8701	120.117	93.2309	120.117	93.7191	120.117	93.2108	120.117	93.5808	120.117	93.2141	120.117	93.4613	120.117	93.2406	120.117	93.3641	120.117	93.2906
124.512	94.7999	124.512	94.7367	124.512	94.8582	124.512	94.6685	124.512	94.9113	124.512	94.5942	124.512	94.9575	124.512	94.5127	124.512	94.9942	124.512	94.4234	124.512	95.0181	124.512	94.3262	124.512	95.0252	124.512	94.2221	124.512	95.0116	124.512	94.1135	124.512	94.9738	124.512	94.0042	124.512	94.9095	124.512	93.8987	124.512	94.8181	124.512	93.8027	124.512	94.7016	124.512	93.7217	124.512	94.5644	124.512	93.6609	124.512	94.4138	124.512	93.6243	124.512	94.2582	124.512	93.6142	124.512	94.1068	124.512	93.632	124.512	93.9678	124.512	93.6774	124.512	93.8473	124.512	93.7496
128.906	94.9168	128.906	94.8592	128.906	94.9733	128.906	94.7996	128.906	95.0287	128.906	94.7363	128.906	95.0815	128.906	94.6674	128.906	95.1291	128.906	94.5914	128.906	95.1675	128.906	94.5075	128.906	95.192	128.906	94.4158	128.906	95.1975	128.906	94.3179	128.906	95.179	128.906	94.2167	128.906	95.1328	128.906	94.1165	128.906	95.057	128.906	94.0225	128.906	94.952	128.906	93.9406	128.906	94.8214	128.906	93.8766	128.906	94.6718	128.906	93.8359	128.906	94.5121	128.906	93.8223	128.906	94.3524	128.906	93.8388	128.906	94.2027	128.906	93.8863	128.906	94.0713	128.906	93.9645
133.301	94.9369	133.301	94.8827	133.301	94.9916	133.301	94.8276	133.301	95.0473	133.301	94.7694	133.301	95.1033	133.301	94.706	133.301	95.1572	133.301	94.6355	133.301	95.2054	133.301	94.5569	133.301	95.243	133.301	94.4706	133.301	95.2645	133.301	94.3778	133.301	95.2641	133.301	94.2814	133.301	95.2366	133.301	94.1855	133.301	95.1786	133.301	94.0953	133.301	95.0889	133.301	94.0167	133.301	94.9698	133.301	93.9561	133.301	94.8265	133.301	93.9193	133.301	94.6675	133.301	93.9111	133.301	94.5032	133.301	93.9349	133.301	94.3444	133.301	93.9921	133.301	94.2013	133.301	94.082
139.16	94.6344	139.16	94.5851	139.16	94.6923	139.16	94.5425	139.16	94.7599	139.16	94.5039	139.16	94.8363	139.16	94.4665	139.16	94.9192	139.16	94.4275	139.16	95.0036	139.16	94.3843	139.16	95.0829	139.16	94.335	139.16	95.1487	139.16	94.2784	139.16	95.1924	139.16	94.2146	139.16	95.2059	139.16	94.1453	139.16	95.1832	139.16	94.0743	139.16	95.1213	139.16	94.0074	139.16	95.0208	139.16	93.952	139.16	94.8868	139.16	93.9162	139.16	94.7281	139.16	93.9079	139.16	94.5565	139.16	93.9334	139.16	94.3856	139.16	93.996	139.16	94.2282	139.16	94.0957
143.555	94.5219	143.555	94.4706	143.555	94.589	143.555	94.4325	143.555	94.6725	143.555	94.4034	143.555	94.7705	143.555	94.3781	143.555	94.8781	143.555	94.3512	143.555	94.9878	143.555	94.3177	143.555	95.0902	143.555	94.2735	143.555	95.1747	143.555	94.2161	143.555	95.2308	143.555	94.1452	143.555	95.2494	143.555	94.0634	143.555	95.2242	143.555	93.9758	143.555	95.1525	143.555	93.8906	143.555	95.0356	143.555	93.8175	143.555	94.8796	143.555	93.7675	143.555	94.6947	143.555	93.7505	143.555	94.4947	143.555	93.7746	143.555	94.2953	143.555	93.8439	143.555	94.1118	143.555	93.9581
147.949	94.5887	147.949	94.5266	147.949	94.6635	147.949	94.4746	147.949	94.7509	147.949	94.4279	147.949	94.8474	147.949	94.3806	147.949	94.947	147.949	94.3266	147.949	95.0413	147.949	94.261	147.949	95.1209	147.949	94.1804	147.949	95.1761	147.949	94.0837	147.949	95.1984	147.949	93.9728	147.949	95.1809	147.949	93.8522	147.949	95.119	147.949	93.7293	147.949	95.0115	147.949	93.6135	147.949	94.8608	147.949	93.5161	147.949	94.6733	147.949	93.4485	147.949	94.4596	147.949	93.4212	147.949	94.2333	147.949	93.442	147.949	94.0106	147.949	93.5148	147.949	93.8076	147.949	93.6387
153.809	94.063	153.809	94.0132	153.809	94.1209	153.809	93.969	153.809	94.1879	153.809	93.9271	153.809	94.2634	153.809	93.8838	153.809	94.3447	153.809	93.8355	153.809	94.4274	153.809	93.7795	153.809	94.505	153.809	93.7138	153.809	94.57	153.809	93.6379	153.809	94.614	153.809	93.553	153.809	94.6287	153.809	93.4622	153.809	94.6073	153.809	93.3707	153.809	94.545	153.809	93.2857	153.809	94.4408	153.809	93.2161	153.809	94.2979	153.809	93.1717	153.809	94.124	153.809	93.1615	153.809	93.9311	153.809	93.193	153.809	93.7341	153.809	93.2697	153.809	93.5491	153.809	93.3905
159.668	93.8798	159.668	93.8514	159.668	93.9188	159.668	93.8303	159.668	93.9698	159.668	93.8118	159.668	94.032	159.668	93.7908	159.668	94.1026	159.668	93.7622	159.668	94.1763	159.668	93.7215	159.668	94.246	159.668	93.6653	159.668	94.3035	159.668	93.5919	159.668	94.3398	159.668	93.5017	159.668	94.3465	159.668	93.3974	159.668	94.3163	159.668	93.2842	159.668	94.2447	159.668	93.1702	159.668	94.1308	159.668	93.0659	159.668	93.9783	159.668	92.9832	159.668	93.7961	159.668	92.9344	159.668	93.5976	159.668	92.93	159.668	93.3997	159.668	92.9766	159.668	93.2202	159.668	93.0752
165.527	93.5346	165.527	93.5052	165.527	93.578	165.527	93.4868	165.527	93.6364	165.527	93.4746	165.527	93.7084	165.527	93.4632	165.527	93.7901	165.527	93.4468	165.527	93.8758	165.527	93.4201	165.527	93.9578	165.527	93.3791	165.527	94.0271	165.527	93.321	165.527	94.0743	165.527	93.2448	165.527	94.0901	165.527	93.152	165.527	94.0665	165.527	93.0465	165.527	93.9985	165.527	92.9356	165.527	93.8847	165.527	92.8293	165.527	93.7292	165.527	92.7403	165.527	93.5413	165.527	92.6825	165.527	93.3359	165.527	92.6687	165.527	93.1316	165.527	92.7078	165.527	92.9479	165.527	92.8026
171.387	93.3025	171.387	93.2686	171.387	93.3476	171.387	93.243	171.387	93.4054	171.387	93.2216	171.387	93.4754	171.387	93.1994	171.387	93.5551	171.387	93.1712	171.387	93.6396	171.387	93.1317	171.387	93.7217	171.387	93.076	171.387	93.792	171.387	93.0008	171.387	93.8395	171.387	92.9043	171.387	93.8531	171.387	92.7876	171.387	93.8228	171.387	92.6551	171.387	93.7418	171.387	92.5154	171.387	93.6079	171.387	92.3809	171.387	93.4248	171.387	92.2676	171.387	93.2034	171.387	92.1925	171.387	92.9605	171.387	92.1715	171.387	92.718	171.387	92.2154	171.387	92.4997	171.387	92.327
177.246	92.9207	177.246	92.8865	177.246	92.9701	177.246	92.8638	177.246	93.0369	177.246	92.8475	177.246	93.1213	177.246	92.8318	177.246	93.2205	177.246	92.8107	177.246	93.3293	177.246	92.7785	177.246	93.4393	177.246	92.7301	177.246	93.5396	177.246	92.6621	177.246	93.618	177.246	92.5731	177.246	93.6616	177.246	92.4649	177.246	93.6592	177.246	92.3428	177.246	93.6026	177.246	92.2163	177.246	93.4884	177.246	92.0987	177.246	93.3192	177.246	92.0063	177.246	93.1045	177.246	91.9563	177.246	92.8604	177.246	91.9633	177.246	92.6083	177.246	92.0364	177.246	92.3725	177.246	92.1759
183.105	92.7078	183.105	92.6609	183.105	92.7697	183.105	92.6257	183.105	92.8481	183.105	92.5972	183.105	92.9423	183.105	92.5697	183.105	93.0485	183.105	92.5372	183.105	93.1605	183.105	92.4939	183.105	93.2691	183.105	92.4352	183.105	93.3632	183.105	92.3581	183.105	93.4305	183.105	92.2617	183.105	93.4592	183.105	92.148	183.105	93.4392	183.105	92.0227	183.105	93.364	183.105	91.8948	183.105	93.2317	183.105	91.7774	183.105	93.0463	183.105	91.6863	183.105	92.8183	183.105	91.638	183.105	92.564	183.105	91.6471	183.105	92.3048	183.105	91.7224	183.105	92.0642	183.105	91.8644
188.965	92.922	188.965	92.8745	188.965	92.9656	188.965	92.8208	188.965	93.0062	188.965	92.7576	188.965	93.0434	188.965	92.681	188.965	93.0749	188.965	92.5868	188.965	93.0972	188.965	92.4715	188.965	93.1054	188.965	92.3319	188.965	93.0932	188.965	92.166	188.965	93.0535	188.965	91.9736	188.965	92.9783	188.965	91.7573	188.965	92.8603	188.965	91.5235	188.965	92.6937	188.965	91.2837	188.965	92.4765	188.965	91.0546	188.965	92.2123	188.965	90.8576	188.965	91.9119	188.965	90.7161	188.965	91.5939	188.965	90.6519	188.965	91.2838	188.965	90.6794	188.965	91.0106	188.965	90.8022
196.289	92.4859	196.289	92.4746	196.289	92.5085	196.289	92.4691	196.289	92.5464	196.289	92.4631	196.289	92.6017	196.289	92.4503	196.289	92.6733	196.289	92.4239	196.289	92.7565	196.289	92.3774	196.289	92.8429	196.289	92.3047	196.289	92.9211	196.289	92.2012	196.289	92.9772	196.289	92.0642	196.289	92.9968	196.289	91.8952	196.289	92.9666	196.289	91.7005	196.289	92.8766	196.289	91.4922	196.289	92.7217	196.289	91.2887	196.289	92.5042	196.289	91.1131	196.289	92.2349	196.289	90.9906	196.289	91.9334	196.289	90.9441	196.289	91.6272	196.289	90.9888	196.289	91.3481	196.289	91.1273
203.613	92.2532	203.613	92.2428	203.613	92.2799	203.613	92.2436	203.613	92.3259	203.613	92.2475	203.613	92.3908	203.613	92.2453	203.613	92.4719	203.613	92.2278	203.613	92.5637	203.613	92.1869	203.613	92.6579	203.613	92.1168	203.613	92.7437	203.613	92.0153	203.613	92.8087	203.613	91.8835	203.613	92.8395	203.613	91.7261	203.613	92.8239	203.613	91.5519	203.613	92.7525	203.613	91.3734	203.613	92.6211	203.613	91.2068	203.613	92.4314	203.613	91.0715	203.613	92.1932	203.613	90.9874	203.613	91.9237	203.613	90.9719	203.613	91.6465	203.613	91.0355	203.613	91.3892	203.613	91.1784
210.938	92.0329	210.938	92.029	210.938	92.0509	210.938	92.035	210.938	92.0857	210.938	92.0455	210.938	92.1381	210.938	92.0542	210.938	92.2069	210.938	92.0543	210.938	92.2879	210.938	92.039	210.938	92.3743	210.938	92.0021	210.938	92.4562	210.938	91.9382	210.938	92.5217	210.938	91.8441	210.938	92.5574	210.938	91.72	210.938	92.5507	210.938	91.5705	210.938	92.492	210.938	91.4057	210.938	92.3763	210.938	91.2411	210.938	92.2058	210.938	91.097	210.938	91.9901	210.938	90.9951	210.938	91.7469	210.938	90.9547	210.938	91.4997	210.938	90.9883	210.938	91.2751	210.938	91.0982
218.262	91.4336	218.262	91.4451	218.262	91.4496	218.262	91.4787	218.262	91.4972	218.262	91.5275	218.262	91.5782	218.262	91.5835	218.262	91.6919	218.262	91.6379	218.262	91.8339	218.262	91.6814	218.262	91.995	218.262	91.7054	218.262	92.1611	218.262	91.702	218.262	92.3139	218.262	91.666	218.262	92.4337	218.262	91.5955	218.262	92.5018	218.262	91.4936	218.262	92.5037	218.262	91.3691	218.262	92.4323	218.262	91.2371	218.262	92.2894	218.262	91.1178	218.262	92.0868	218.262	91.034	218.262	91.8453	218.262	91.007	218.262	91.5923	218.262	91.0514	218.262	91.3584	218.262	91.1714
225.586	91.415	225.586	91.4027	225.586	91.4417	225.586	91.402	225.586	91.4845	225.586	91.4093	225.586	91.5452	225.586	91.4197	225.586	91.6248	225.586	91.4268	225.586	91.7227	225.586	91.4235	225.586	91.8346	225.586	91.4025	225.586	91.9518	225.586	91.3572	225.586	92.0603	225.586	91.2832	225.586	92.143	225.586	91.1792	225.586	92.1817	225.586	91.0486	225.586	92.1611	225.586	90.901	225.586	92.0718	225.586	90.7519	225.586	91.913	225.586	90.622	225.586	91.6944	225.586	90.5348	225.586	91.4352	225.586	90.5116	225.586	91.1629	225.586	90.5666	225.586	90.9088	225.586	90.7026
232.91	91.0209	232.91	91.0207	232.91	91.0329	232.91	91.0287	232.91	91.0605	232.91	91.0415	232.91	91.1083	232.91	91.0545	232.91	91.1804	232.91	91.0627	232.91	91.2785	232.91	91.0599	232.91	91.4002	232.91	91.04	232.91	91.5361	232.91	90.9973	232.91	91.6708	232.91	90.928	232.91	91.784	232.91	90.8316	232.91	91.8544	232.91	90.7119	232.91	91.8638	232.91	90.5785	232.91	91.8006	232.91	90.4465	232.91	91.6632	232.91	90.3358	232.91	91.4605	232.91	90.2681	232.91	91.2119	232.91	90.263	232.91	90.9448	232.91	90.333	232.91	90.6908	232.91	90.4793
241.699	90.4221	241.699	90.4365	241.699	90.4184	241.699	90.4566	241.699	90.4319	241.699	90.4778	241.699	90.4699	241.699	90.4952	241.699	90.5396	241.699	90.5031	241.699	90.6453	241.699	90.4952	241.699	90.785	241.699	90.4653	241.699	90.9479	241.699	90.4081	241.699	91.115	241.699	90.3208	241.699	91.2612	241.699	90.2044	241.699	91.3605	241.699	90.0651	241.699	91.3907	241.699	89.9149	241.699	91.338	241.699	89.7719	241.699	91.1993	241.699	89.6585	241.699	90.984	241.699	89.5979	241.699	90.7131	241.699	89.6099	241.699	90.4166	241.699	89.7053	241.699	90.1289	241.699	89.8831
250.488	90.8263	250.488	90.8136	250.488	90.8366	250.488	90.7963	250.488	90.8468	250.488	90.772	250.488	90.8601	250.488	90.7375	250.488	90.8806	250.488	90.6891	250.488	90.9127	250.488	90.6228	250.488	90.9588	250.488	90.534	250.488	91.0166	250.488	90.4193	250.488	91.0775	250.488	90.2766	250.488	91.1265	250.488	90.1072	250.488	91.145	250.488	89.9175	250.488	91.114	250.488	89.7201	250.488	91.0195	250.488	89.5342	250.488	90.8559	250.488	89.3837	250.488	90.6283	250.488	89.2935	250.488	90.3535	250.488	89.2838	250.488	90.0578	250.488	89.3649	250.488	89.7737	250.488	89.5337
259.277	90.7792	259.277	90.8056	259.277	90.7549	259.277	90.8307	259.277	90.7361	259.277	90.8499	259.277	90.7272	259.277	90.857	259.277	90.7339	259.277	90.8445	259.277	90.7616	259.277	90.8049	259.277	90.8125	259.277	90.7318	259.277	90.8824	259.277	90.621	259.277	90.9593	259.277	90.4714	259.277	91.0241	259.277	90.2863	259.277	91.0545	259.277	90.0736	259.277	91.0297	259.277	89.8476	259.277	90.9352	259.277	89.6285	259.277	90.7667	259.277	89.4413	259.277	90.5321	259.277	89.3125	259.277	90.2514	259.277	89.265	259.277	89.9548	259.277	89.3123	259.277	89.6778	259.277	89.4547
268.066	90.8093	268.066	90.8376	268.066	90.7745	268.066	90.8531	268.066	90.7408	268.066	90.8504	268.066	90.7179	268.066	90.8242	268.066	90.7171	268.066	90.7697	268.066	90.7483	268.066	90.6832	268.066	90.8163	268.066	90.5628	268.066	90.9168	268.066	90.4085	268.066	91.0343	268.066	90.2226	268.066	91.1447	268.066	90.0104	268.066	91.2192	268.066	89.7813	268.066	91.2304	268.066	89.5503	268.066	91.1582	268.066	89.3387	268.066	90.9934	268.066	89.1729	268.066	90.7412	268.066	89.0805	268.066	90.4211	268.066	89.0849	268.066	90.0659	268.066	89.198	268.066	89.7167	268.066	89.4157
276.855	90.3262	276.855	90.4148	276.855	90.2395	276.855	90.5059	276.855	90.1552	276.855	90.5985	276.855	90.0783	276.855	90.6882	276.855	90.0195	276.855	90.7672	276.855	89.9938	276.855	90.8259	276.855	90.0158	276.855	90.8547	276.855	90.0933	276.855	90.8456	276.855	90.2218	276.855	90.7935	276.855	90.3834	276.855	90.6976	276.855	90.5498	276.855	90.5628	276.855	90.6894	276.855	90.4007	276.855	90.7743	276.855	90.2301	276.855	90.7868	276.855	90.0757	276.855	90.7222	276.855	89.9644	276.855	90.5901	276.855	89.9193	276.855	90.4138	276.855	89.9527	276.855	90.2255	276.855	90.0613
287.109	89.2599	287.109	89.3205	287.109	89.2037	287.109	89.3859	287.109	89.1559	287.109	89.4585	287.109	89.1263	287.109	89.5394	287.109	89.1293	287.109	89.626	287.109	89.1806	287.109	89.711	287.109	89.2911	287.109	89.7832	287.109	89.4608	287.109	89.8309	287.109	89.6754	287.109	89.8456	287.109	89.908	287.109	89.8249	287.109	90.1259	287.109	89.7743	287.109	90.2989	287.109	89.7065	287.109	90.4053	287.109	89.6392	287.109	90.4352	287.109	89.5909	287.109	90.3905	287.109	89.578	287.109	90.2841	287.109	89.611	287.109	90.1366	287.109	89.6929	287.109	89.973	287.109	89.8182
297.363	90.0717	297.363	90.0772	297.363	90.025	297.363	90.0491	297.363	89.9317	297.363	89.9945	297.363	89.7931	297.363	89.9171	297.363	89.6203	297.363	89.8178	297.363	89.4356	297.363	89.696	297.363	89.2698	297.363	89.5516	297.363	89.1552	297.363	89.3875	297.363	89.1147	297.363	89.2109	297.363	89.1526	297.363	89.0336	297.363	89.2523	297.363	88.8712	297.363	89.3816	297.363	88.7417	297.363	89.504	297.363	88.662	297.363	89.5881	297.363	88.6447	297.363	89.6135	297.363	88.694	297.363	89.5725	297.363	88.8043	297.363	89.4694	297.363	88.9603	297.363	89.3181	297.363	89.14
307.617	90.1869	307.617	90.1451	307.617	90.2059	307.617	90.0903	307.617	90.1931	307.617	90.03	307.617	90.1442	307.617	89.9677	307.617	90.0616	307.617	89.9016	307.617	89.9557	307.617	89.8247	307.617	89.8422	307.617	89.7272	307.617	89.7374	307.617	89.5979	307.617	89.6513	307.617	89.4287	307.617	89.5831	307.617	89.2173	307.617	89.521	307.617	88.971	307.617	89.4471	307.617	88.7087	307.617	89.3449	307.617	88.4593	307.617	89.2058	307.617	88.2568	307.617	89.0314	307.617	88.1295	307.617	88.8326	307.617	88.0919	307.617	88.6255	307.617	88.1406	307.617	88.4282	307.617	88.2597
319.336	90.0959	319.336	90.0895	319.336	90.0571	319.336	90.045	319.336	89.969	319.336	89.9685	319.336	89.8336	319.336	89.8632	319.336	89.6619	319.336	89.7293	319.336	89.4726	319.336	89.5653	319.336	89.2885	319.336	89.3706	319.336	89.1301	319.336	89.1477	319.336	89.0103	319.336	88.9034	319.336	88.9303	319.336	88.6484	319.336	88.8808	319.336	88.3968	319.336	88.8443	319.336	88.1646	319.336	88.8002	319.336	87.9689	319.336	88.7305	319.336	87.8262	319.336	88.6238	319.336	87.7503	319.336	88.4788	319.336	87.7489	319.336	88.305	319.336	87.8198	319.336	88.1208	319.336	87.9508
329.59	89.3911	329.59	89.3631	329.59	89.3928	329.59	89.3193	329.59	89.3606	329.59	89.2681	329.59	89.2933	329.59	89.2122	329.59	89.1976	329.59	89.1471	329.59	89.0866	329.59	89.0621	329.59	88.975	329.59	88.9447	329.59	88.8734	329.59	88.784	329.59	88.7844	329.59	88.576	329.59	88.7019	329.59	88.3264	329.59	88.614	329.59	88.0523	329.59	88.5086	329.59	87.7806	329.59	88.3794	329.59	87.5431	329.59	88.2272	329.59	87.3683	329.59	88.0591	329.59	87.2727	329.59	87.8848	329.59	87.2576	329.59	87.7137	329.59	87.3111	329.59	87.5542	329.59	87.4156
341.309	89.0613	341.309	88.9884	341.309	89.0951	341.309	88.8881	341.309	89.0851	341.309	88.7746	341.309	89.0352	341.309	88.6587	341.309	88.9575	341.309	88.5433	341.309	88.868	341.309	88.4222	341.309	88.782	341.309	88.2822	341.309	88.7086	341.309	88.1085	341.309	88.6481	341.309	87.8906	341.309	88.5913	341.309	87.6273	341.309	88.5229	341.309	87.3305	341.309	88.426	341.309	87.0255	341.309	88.2874	341.309	86.7484	341.309	88.1004	341.309	86.539	341.309	87.8664	341.309	86.4293	341.309	87.595	341.309	86.4345	341.309	87.303	341.309	86.5491	341.309	87.0128	341.309	86.7516
353.027	88.4416	353.027	88.3789	353.027	88.4597	353.027	88.2894	353.027	88.4238	353.027	88.1928	353.027	88.3365	353.027	88.1038	353.027	88.2119	353.027	88.0257	353.027	88.0723	353.027	87.948	353.027	87.9416	353.027	87.8504	353.027	87.8364	353.027	87.7105	353.027	87.7607	353.027	87.5126	353.027	87.7035	353.027	87.2549	353.027	87.6436	353.027	86.9539	353.027	87.5591	353.027	86.643	353.027	87.4356	353.027	86.3667	353.027	87.2714	353.027	86.1667	353.027	87.0765	353.027	86.0675	353.027	86.8671	353.027	86.069	353.027	86.659	353.027	86.1518	353.027	86.4636	353.027	86.2903
366.211	88.6266	366.211	88.5731	366.211	88.6286	366.211	88.4755	366.211	88.5747	366.211	88.3426	366.211	88.4656	366.211	88.183	366.211	88.3095	366.211	88.0047	366.211	88.1237	366.211	87.8141	366.211	87.9332	366.211	87.6152	366.211	87.7653	366.211	87.4097	366.211	87.641	366.211	87.1975	366.211	87.5661	366.211	86.9787	366.211	87.5297	366.211	86.7567	366.211	87.5091	366.211	86.5413	366.211	87.479	366.211	86.352	366.211	87.4184	366.211	86.2155	366.211	87.3144	366.211	86.1589	366.211	87.163	366.211	86.1973	366.211	86.9687	366.211	86.326	366.211	86.7461	366.211	86.5206
379.395	89.2095	379.395	89.0785	379.395	89.2888	379.395	88.9162	379.395	89.3009	379.395	88.7428	379.395	89.239	379.395	88.573	379.395	89.1072	379.395	88.4124	379.395	88.9205	379.395	88.2572	379.395	88.7019	379.395	88.0975	379.395	88.4767	379.395	87.9235	379.395	88.2651	379.395	87.7321	379.395	88.0787	379.395	87.5322	379.395	87.9226	379.395	87.3455	379.395	87.8023	379.395	87.2024	379.395	87.7267	379.395	87.1316	379.395	87.7029	379.395	87.1478	379.395	87.7242	379.395	87.2438	379.395	87.7653	379.395	87.3917	379.395	87.7905	379.395	87.5521	379.395	87.7688	379.395	87.6867
392.578	90.284	392.578	90.1756	392.578	90.3128	392.578	90.0056	392.578	90.2505	392.578	89.7954	392.578	90.0971	392.578	89.5665	392.578	89.8702	392.578	89.338	392.578	89.6069	392.578	89.1225	392.578	89.3589	392.578	88.9232	392.578	89.1744	392.578	88.7339	392.578	89.0755	392.578	88.5445	392.578	89.0449	392.578	88.3492	392.578	89.0342	392.578	88.1551	392.578	88.9909	392.578	87.9844	392.578	88.8858	392.578	87.8685	392.578	88.728	392.578	87.8324	392.578	88.5573	392.578	87.8777	392.578	88.4175	392.578	87.9786	392.578	88.3252	392.578	88.0942	392.578	88.2612	392.578	88.1912
405.762	91.74	405.762	91.6594	405.762	91.7051	405.762	91.4782	405.762	91.5478	405.762	91.214	405.762	91.2781	405.762	90.885	405.762	90.9286	405.762	90.5122	405.762	90.5552	405.762	90.1207	405.762	90.225	405.762	89.7391	405.762	89.9969	405.762	89.3938	405.762	89.902	405.762	89.1015	405.762	89.9317	405.762	88.8654	405.762	90.0409	405.762	88.6802	405.762	90.1654	405.762	88.543	405.762	90.246	405.762	88.4623	405.762	90.245	405.762	88.4557	405.762	90.1512	405.762	88.5366	405.762	89.9754	405.762	88.7018	405.762	89.7409	405.762	88.9308	405.762	89.4735	405.762	89.1963
420.41	91.9365	420.41	91.8678	420.41	91.9144	420.41	91.7214	420.41	91.8	420.41	91.5166	420.41	91.6066	420.41	91.2728	420.41	91.3606	420.41	91.0069	420.41	91.0912	420.41	90.7303	420.41	90.8185	420.41	90.45	420.41	90.5475	420.41	90.1708	420.41	90.2736	420.41	89.8981	420.41	89.9958	420.41	89.6408	420.41	89.7281	420.41	89.4123	420.41	89.5037	420.41	89.2302	420.41	89.3643	420.41	89.1142	420.41	89.3344	420.41	89.08	420.41	89.3981	420.41	89.1304	420.41	89.5015	420.41	89.2478	420.41	89.581	420.41	89.3945	420.41	89.592	420.41	89.523
435.059	91.5274	435.059	91.4243	435.059	91.5416	435.059	91.2392	435.059	91.4684	435.059	90.9846	435.059	91.3196	435.059	90.6756	435.059	91.117	435.059	90.3289	435.059	90.8893	435.059	89.961	435.059	90.6659	435.059	89.5879	435.059	90.4669	435.059	89.2261	435.059	90.2915	435.059	88.8964	435.059	90.1134	435.059	88.6263	435.059	89.8965	435.059	88.4488	435.059	89.6235	435.059	88.3926	435.059	89.3243	435.059	88.4683	435.059	89.0791	435.059	88.6571	435.059	88.978	435.059	88.9112	435.059	89.0467	435.059	89.1655	435.059	89.2157	435.059	89.3545	435.059	89.3719	435.059	89.4289
451.172	91.6866	451.172	91.6085	451.172	91.6733	451.172	91.4494	451.172	91.557	451.172	91.2146	451.172	91.3324	451.172	90.9055	451.172	91.0065	451.172	90.5248	451.172	90.6019	451.172	90.0837	451.172	90.1562	451.172	89.6057	451.172	89.7177	451.172	89.1229	451.172	89.3362	451.172	88.6684	451.172	89.0477	451.172	88.2676	451.172	88.8562	451.172	87.9386	451.172	88.7302	451.172	87.6981	451.172	88.6204	451.172	87.5636	451.172	88.4897	451.172	87.5428	451.172	88.3339	451.172	87.6162	451.172	88.1801	451.172	87.7361	451.172	88.0622	451.172	87.8498	451.172	87.988	451.172	87.9297
465.82	91.4854	465.82	91.3878	465.82	91.486	465.82	91.2086	465.82	91.3777	465.82	90.9598	465.82	91.1607	465.82	90.6454	465.82	90.8536	465.82	90.2634	465.82	90.4949	465.82	89.8129	465.82	90.1366	465.82	89.3033	465.82	89.8289	465.82	88.7612	465.82	89.6002	465.82	88.2319	465.82	89.4449	465.82	87.7744	465.82	89.3283	465.82	87.4497	465.82	89.2084	465.82	87.3029	465.82	89.0623	465.82	87.3445	465.82	88.8998	465.82	87.5417	465.82	88.756	465.82	87.8269	465.82	88.6629	465.82	88.1218	465.82	88.6197	465.82	88.3621	465.82	88.5884	465.82	88.5156
483.398	91.7273	483.398	91.694	483.398	91.646	483.398	91.5613	483.398	91.4436	483.398	91.342	483.398	91.1338	483.398	91.0434	483.398	90.7551	483.398	90.67	483.398	90.3583	483.398	90.2297	483.398	89.9845	483.398	89.7379	483.398	89.6548	483.398	89.2179	483.398	89.3822	483.398	88.6989	483.398	89.1865	483.398	88.2135	483.398	89.09	483.398	87.7989	483.398	89.0971	483.398	87.5004	483.398	89.1795	483.398	87.3664	483.398	89.2826	483.398	87.4245	483.398	89.3468	483.398	87.6548	483.398	89.3288	483.398	87.9924	483.398	89.2112	483.398	88.3623	483.398	88.999	483.398	88.7088
499.512	91.7047	499.512	91.6674	499.512	91.6603	499.512	91.5675	499.512	91.5274	499.512	91.4222	499.512	91.3167	499.512	91.2345	499.512	91.0507	499.512	90.988	499.512	90.7482	499.512	90.6551	499.512	90.4131	499.512	90.2115	499.512	90.035	499.512	89.6533	499.512	89.5988	499.512	89.0116	499.512	89.0986	499.512	88.3611	499.512	88.5584	499.512	87.8139	499.512	88.06	499.512	87.4828	499.512	87.7474	499.512	87.4263	499.512	87.7495	499.512	87.6183	499.512	88.0485	499.512	87.9707	499.512	88.4723	499.512	88.3758	499.512	88.8285	499.512	88.7338	499.512	89.0023	499.512	88.9624
517.09	90.5219	517.09	90.4422	517.09	90.5039	517.09	90.2995	517.09	90.37	517.09	90.1354	517.09	90.1228	517.09	89.9839	517.09	89.7888	517.09	89.852	517.09	89.4157	517.09	89.7105	517.09	89.0587	517.09	89.5029	517.09	88.7531	517.09	89.1686	517.09	88.4877	517.09	88.6714	517.09	88.2022	517.09	88.0255	517.09	87.8231	517.09	87.3168	517.09	87.3186	517.09	86.7025	517.09	86.7495	517.09	86.354	517.09	86.2885	517.09	86.3429	517.09	86.1355	517.09	86.5811	517.09	86.3305	517.09	86.8953	517.09	86.7015	517.09	87.1292	517.09	87.0309	517.09	87.1859
536.133	89.3206	536.133	89.2608	536.133	89.2588	536.133	89.1081	536.133	89.058	536.133	88.8957	536.133	88.7184	536.133	88.6561	536.133	88.2603	536.133	88.4125	536.133	87.7228	536.133	88.1691	536.133	87.1687	536.133	87.9063	536.133	86.6989	536.133	87.5865	536.133	86.4366	536.133	87.1712	536.133	86.4292	536.133	86.6458	536.133	86.5625	536.133	86.0506	536.133	86.6321	536.133	85.4977	536.133	86.4858	536.133	85.1362	536.133	86.1044	536.133	85.0535	536.133	85.6264	536.133	85.1988	536.133	85.2928	536.133	85.4228	536.133	85.2533	536.133	85.5748	536.133	85.4149	536.133	85.5677
555.176	88.7857	555.176	88.6856	555.176	88.7811	555.176	88.4859	555.176	88.6778	555.176	88.2087	555.176	88.4868	555.176	87.8971	555.176	88.2181	555.176	87.6097	555.176	87.8783	555.176	87.396	555.176	87.4708	555.176	87.2594	555.176	86.9922	555.176	87.1402	555.176	86.4284	555.176	86.9397	555.176	85.77	555.176	86.5747	555.176	85.0743	555.176	86.0297	555.176	84.5446	555.176	85.3933	555.176	84.4585	555.176	84.8548	555.176	84.8518	555.176	84.6153	555.176	85.4298	555.176	84.7322	555.176	85.8871	555.176	85.0816	555.176	86.0952	555.176	85.4901	555.176	86.0603	555.176	85.8391
574.219	89.2771	574.219	89.0293	574.219	89.3974	574.219	88.6749	574.219	89.3742	574.219	88.2418	574.219	89.2051	574.219	87.778	574.219	88.9128	574.219	87.3575	574.219	88.5451	574.219	87.0565	574.219	88.1555	574.219	86.8986	574.219	87.7758	574.219	86.8149	574.219	87.4004	574.219	86.6724	574.219	86.9861	574.219	86.3538	574.219	86.4671	574.219	85.8309	574.219	85.793	574.219	85.2019	574.219	85.0053	574.219	84.6751	574.219	84.3242	574.219	84.454	574.219	84.0824	574.219	84.5726	574.219	84.36	574.219	84.8808	574.219	84.8491	574.219	85.1818	574.219	85.2169	574.219	85.3242
594.727	89.2263	594.727	89.0047	594.727	89.2799	594.727	88.6599	594.727	89.1406	594.727	88.2366	594.727	88.8211	594.727	87.7658	594.727	88.3715	594.727	87.2655	594.727	87.8623	594.727	86.7523	594.727	87.3792	594.727	86.25	594.727	87.0398	594.727	85.7877	594.727	86.942	594.727	85.3906	594.727	87.0232	594.727	85.0626	594.727	87.0507	594.727	84.7865	594.727	86.7824	594.727	84.5605	594.727	86.0901	594.727	84.4337	594.727	85.0516	594.727	84.4811	594.727	84.0962	594.727	84.7196	594.727	83.8552	594.727	85.0525	594.727	84.3462	594.727	85.3069	594.727	84.968	594.727	85.3122
615.234	89.7324	615.234	89.4584	615.234	89.875	615.234	89.0678	615.234	89.8894	615.234	88.5952	615.234	89.7776	615.234	88.0852	615.234	89.5127	615.234	87.5796	615.234	89.0403	615.234	87.1029	615.234	88.3279	615.234	86.6491	615.234	87.4219	615.234	86.1781	615.234	86.4656	615.234	85.6384	615.234	85.6853	615.234	85.0071	615.234	85.3381	615.234	84.333	615.234	85.5017	615.234	83.7685	615.234	85.8881	615.234	83.5368	615.234	86.1016	615.234	83.7648	615.234	85.9855	615.234	84.329	615.234	85.6908	615.234	84.9527	615.234	85.5081	615.234	85.4009	615.234	85.534	615.234	85.5728
637.207	89.5552	637.207	89.1899	637.207	89.7845	637.207	88.7116	637.207	89.8861	637.207	88.1834	637.207	89.8632	637.207	87.6826	637.207	89.6838	637.207	87.2521	637.207	89.2946	637.207	86.8686	637.207	88.6766	637.207	86.4605	637.207	87.8854	637.207	85.9693	637.207	87.0296	637.207	85.4051	637.207	86.1962	637.207	84.8486	637.207	85.4072	637.207	84.3905	637.207	84.6775	637.207	84.081	637.207	84.116	637.207	83.9673	637.207	83.8896	637.207	84.1269	637.207	84.0264	637.207	84.5614	637.207	84.3866	637.207	85.0897	637.207	84.8336	637.207	85.4569	637.207	85.2572	637.207	85.5091
659.18	89.5696	659.18	89.2443	659.18	89.6934	659.18	88.7309	659.18	89.6337	659.18	88.0986	659.18	89.4143	659.18	87.4717	659.18	89.0598	659.18	86.9832	659.18	88.6128	659.18	86.705	659.18	88.1487	659.18	86.6006	659.18	87.7437	659.18	86.5327	659.18	87.4093	659.18	86.3216	659.18	87.1028	659.18	85.8254	659.18	86.8047	659.18	85.0201	659.18	86.483	659.18	84.0723	659.18	86.0124	659.18	83.367	659.18	85.3148	659.18	83.3095	659.18	84.6367	659.18	83.8822	659.18	84.4888	659.18	84.6717	659.18	84.9271	659.18	85.3049	659.18	85.4253	659.18	85.5818
682.617	90.3673	682.617	90.0487	682.617	90.4	682.617	89.4607	682.617	90.1811	682.617	88.6809	682.617	89.8044	682.617	87.8693	682.617	89.4065	682.617	87.2334	682.617	89.0784	682.617	86.8885	682.617	88.7983	682.617	86.7395	682.617	88.5031	682.617	86.5577	682.617	88.1709	682.617	86.1718	682.617	87.8098	682.617	85.5689	682.617	87.4388	682.617	84.8525	682.617	87.078	682.617	84.1628	682.617	86.7067	682.617	83.6672	682.617	86.2629	682.617	83.5498	682.617	85.7496	682.617	83.864	682.617	85.3311	682.617	84.4227	682.617	85.191	682.617	84.941	682.617	85.2471	682.617	85.2233
707.52	89.9821	707.52	89.5046	707.52	90.2199	707.52	88.765	707.52	90.26	707.52	87.8353	707.52	90.1141	707.52	86.9387	707.52	89.739	707.52	86.3495	707.52	89.0661	707.52	86.1369	707.52	88.0875	707.52	86.1038	707.52	86.9403	707.52	86.0113	707.52	85.905	707.52	85.7303	707.52	85.2647	707.52	85.2143	707.52	85.0465	707.52	84.4648	707.52	84.8996	707.52	83.6218	707.52	84.407	707.52	83.059	707.52	83.4791	707.52	83.1101	707.52	82.5714	707.52	83.6512	707.52	82.4325	707.52	84.2773	707.52	83.1245	707.52	84.6503	707.52	84.0072	707.52	84.575
732.422	90.2653	732.422	89.8594	732.422	90.3672	732.422	89.2586	732.422	90.1306	732.422	88.5753	732.422	89.6291	732.422	87.878	732.422	89.0007	732.422	87.2078	732.422	88.3753	732.422	86.6411	732.422	87.8752	732.422	86.2925	732.422	87.5836	732.422	86.1457	732.422	87.3927	732.422	85.9702	732.422	87.06	732.422	85.5182	732.422	86.5748	732.422	84.7278	732.422	86.3171	732.422	83.7885	732.422	86.4137	732.422	83.0835	732.422	86.3411	732.422	82.9935	732.422	85.7102	732.422	83.5492	732.422	84.7753	732.422	84.3267	732.422	84.2813	732.422	84.8409	732.422	84.5032	732.422	84.8629
757.324	90.3194	757.324	89.9237	757.324	90.4974	757.324	89.3142	757.324	90.4935	757.324	88.5478	757.324	90.336	757.324	87.727	757.324	89.9986	757.324	86.9629	757.324	89.4413	757.324	86.294	757.324	88.7055	757.324	85.6364	757.324	87.9333	757.324	84.9298	757.324	87.3707	757.324	84.3587	757.324	87.225	757.324	84.0959	757.324	87.1494	757.324	83.8536	757.324	86.5717	757.324	83.367	757.324	85.64	757.324	82.8397	757.324	85.28	757.324	82.9142	757.324	85.6106	757.324	83.917	757.324	85.6894	757.324	85.0275	757.324	85.2899	757.324	85.5129	757.324	85.074	757.324	85.3503
785.156	91.0359	785.156	90.2805	785.156	91.205	785.156	89.1129	785.156	90.6982	785.156	87.7716	785.156	89.6135	785.156	86.7054	785.156	88.3588	785.156	86.5776	785.156	87.512	785.156	87.3677	785.156	87.1189	785.156	88.0586	785.156	86.4233	785.156	87.8363	785.156	84.6326	785.156	86.8901	785.156	81.8539	785.156	86.4018	785.156	80.9408	785.156	86.5936	785.156	82.557	785.156	86.2382	785.156	83.2382	785.156	84.8041	785.156	83.2381	785.156	83.38	785.156	84.5638	785.156	83.2628	785.156	86.0977	785.156	83.5423	785.156	86.4536	785.156	83.8744	785.156	85.7627	785.156	84.6755
811.523	90.6197	811.523	90.5144	811.523	90.4755	811.523	90.1219	811.523	90.2359	811.523	89.5058	811.523	90.0623	811.523	88.7645	811.523	89.9232	811.523	87.9852	811.523	89.653	811.523	87.4437	811.523	89.2144	811.523	87.3291	811.523	88.6616	811.523	86.9306	811.523	87.8047	811.523	85.7056	811.523	86.258	811.523	84.2465	811.523	84.6035	811.523	83.5878	811.523	84.3935	811.523	83.1673	811.523	84.7329	811.523	81.8382	811.523	84.5693	811.523	80.3141	811.523	84.3292	811.523	81.2416	811.523	84.3113	811.523	83.4384	811.523	84.2791	811.523	84.6437	811.523	84.3937	811.523	84.7337
840.82	90.9543	840.82	90.2661	840.82	90.9948	840.82	89.1009	840.82	90.4276	840.82	87.9081	840.82	89.4309	840.82	87.3194	840.82	88.3283	840.82	87.6357	840.82	87.7898	840.82	88.4863	840.82	88.4017	840.82	89.2689	840.82	89.4627	840.82	89.5854	840.82	89.8135	840.82	89.2962	840.82	89.0444	840.82	88.5798	840.82	87.3787	840.82	87.9037	840.82	84.915	840.82	87.1144	840.82	80.8501	840.82	85.4512	840.82	76.2329	840.82	82.987	840.82	80.717	840.82	81.2997	840.82	84.4126	840.82	81.5012	840.82	86.0008	840.82	83.2435	840.82	86.1797	840.82	85.1662
870.117	90.271	870.117	90.1128	870.117	90.3553	870.117	89.8525	870.117	90.3018	870.117	89.3635	870.117	90.1467	870.117	88.5173	870.117	90.0873	870.117	87.3339	870.117	90.1391	870.117	86.3286	870.117	89.9909	870.117	86.2095	870.117	89.362	870.117	86.4771	870.117	88.2725	870.117	86.2566	870.117	87.1959	870.117	85.3811	870.117	86.7428	870.117	84.1281	870.117	86.6933	870.117	82.9106	870.117	86.2002	870.117	82.1166	870.117	84.9097	870.117	81.9858	870.117	83.5319	870.117	82.4723	870.117	83.7725	870.117	83.3774	870.117	85.3008	870.117	84.6221	870.117	86.1756	870.117	85.8108
900.879	92.0841	900.879	91.5435	900.879	91.7873	900.879	90.2242	900.879	90.9155	900.879	88.6656	900.879	89.9512	900.879	87.8538	900.879	89.1888	900.879	88.0302	900.879	88.5683	900.879	88.3487	900.879	88.2402	900.879	88.2022	900.879	88.4161	900.879	87.5059	900.879	88.5028	900.879	86.4392	900.879	87.5097	900.879	85.3485	900.879	85.1778	900.879	84.3895	900.879	82.6625	900.879	83.3703	900.879	82.0425	900.879	82.5582	900.879	82.7675	900.879	83.0584	900.879	82.8067	900.879	85.0557	900.879	81.3107	900.879	86.7547	900.879	80.3297	900.879	87.1259	900.879	83.1502	900.879	85.9352
933.105	91.8761	933.105	91.7807	933.105	91.7489	933.105	91.2001	933.105	91.5315	933.105	90.0976	933.105	91.0171	933.105	88.7038	933.105	90.0567	933.105	87.5164	933.105	88.9895	933.105	87.0391	933.105	88.2993	933.105	86.8723	933.105	87.9052	933.105	86.3558	933.105	87.5197	933.105	85.5468	933.105	87.2241	933.105	85.1093	933.105	87.0989	933.105	85.3705	933.105	86.5361	933.105	85.2883	933.105	84.6691	933.105	84.0409	933.105	82.2326	933.105	82.8697	933.105	81.4255	933.105	83.2359	933.105	81.3912	933.105	83.8862	933.105	82.4098	933.105	84.5745	933.105	84.144	933.105	84.9328
965.332	90.7635	965.332	90.9401	965.332	90.5362	965.332	90.8024	965.332	90.6051	965.332	90.3148	965.332	90.8428	965.332	89.4848	965.332	90.7329	965.332	88.2906	965.332	90.0412	965.332	86.9422	965.332	88.9822	965.332	85.9304	965.332	87.7268	965.332	85.2778	965.332	85.9607	965.332	84.6317	965.332	83.5653	965.332	83.6571	965.332	82.2103	965.332	82.167	965.332	82.8008	965.332	80.4185	965.332	82.9362	965.332	79.4057	965.332	82.2559	965.332	79.0481	965.332	82.61	965.332	80.4653	965.332	83.1011	965.332	83.1482	965.332	82.0002	965.332	84.2947	965.332	81.4792	965.332	83.3631
1,000.49	91.6974	1,000.49	91.0297	1,000.49	91.6773	1,000.49	89.9106	1,000.49	91.0414	1,000.49	88.7601	1,000.49	90.3432	1,000.49	88.1158	1,000.49	90.0401	1,000.49	88.3083	1,000.49	89.7426	1,000.49	88.6506	1,000.49	89.2219	1,000.49	88.6963	1,000.49	88.8422	1,000.49	88.6428	1,000.49	88.7002	1,000.49	88.135	1,000.49	88.2767	1,000.49	86.8768	1,000.49	87.2215	1,000.49	85.6737	1,000.49	86.0224	1,000.49	85.2217	1,000.49	85.33	1,000.49	84.6053	1,000.49	84.1545	1,000.49	83.4119	1,000.49	82.4312	1,000.49	82.8023	1,000.49	83.6546	1,000.49	82.1062	1,000.49	85.4442	1,000.49	81.0291	1,000.49	85.1263	1,000.49	82.7915
1,035.64	91.212	1,035.64	91.2476	1,035.64	91.9541	1,035.64	91.8856	1,035.64	92.4503	1,035.64	92.1134	1,035.64	92.0144	1,035.64	91.2194	1,035.64	90.6933	1,035.64	88.8109	1,035.64	89.2464	1,035.64	85.5768	1,035.64	88.27	1,035.64	84.2832	1,035.64	87.2542	1,035.64	84.7516	1,035.64	85.693	1,035.64	84.0697	1,035.64	84.3838	1,035.64	81.7953	1,035.64	85.0371	1,035.64	82.7094	1,035.64	86.0467	1,035.64	84.455	1,035.64	84.9912	1,035.64	83.4536	1,035.64	81.9933	1,035.64	79.9704	1,035.64	80.6442	1,035.64	78.3752	1,035.64	80.1881	1,035.64	82.1657	1,035.64	79.9392	1,035.64	85.7625	1,035.64	84.1199	1,035.64	86.5717
1,072.27	92.2437	1,072.27	93.0017	1,072.27	91.6017	1,072.27	93.1173	1,072.27	91.8553	1,072.27	92.0706	1,072.27	92.6932	1,072.27	89.6531	1,072.27	92.9512	1,072.27	87.4563	1,072.27	91.8706	1,072.27	87.549	1,072.27	89.5721	1,072.27	88.2968	1,072.27	87.2498	1,072.27	88.6468	1,072.27	86.3885	1,072.27	88.1523	1,072.27	86.4085	1,072.27	86.822	1,072.27	85.7201	1,072.27	85.2998	1,072.27	85.4476	1,072.27	83.8519	1,072.27	86.7743	1,072.27	82.1003	1,072.27	86.6038	1,072.27	80.5473	1,072.27	83.5618	1,072.27	80.8162	1,072.27	80.7353	1,072.27	81.8304	1,072.27	83.8921	1,072.27	83.6777	1,072.27	85.7833	1,072.27	85.4688
1,108.89	92.999	1,108.89	92.7164	1,108.89	93.5324	1,108.89	93.2755	1,108.89	93.4507	1,108.89	93.5356	1,108.89	92.5684	1,108.89	92.4922	1,108.89	91.069	1,108.89	90.0946	1,108.89	90.0474	1,108.89	86.9398	1,108.89	89.4979	1,108.89	84.7559	1,108.89	87.5525	1,108.89	86.1647	1,108.89	83.7038	1,108.89	87.8346	1,108.89	79.1299	1,108.89	87.2711	1,108.89	79.5944	1,108.89	84.0443	1,108.89	83.0318	1,108.89	80.9863	1,108.89	83.9603	1,108.89	77.2674	1,108.89	84.4796	1,108.89	70.2528	1,108.89	86.4048	1,108.89	75.1913	1,108.89	86.3512	1,108.89	83.2645	1,108.89	83.1001	1,108.89	87.4702	1,108.89	84.1108	1,108.89	87.6893
1,148.44	94.9361	1,148.44	94.4349	1,148.44	94.9904	1,148.44	94.1398	1,148.44	94.1051	1,148.44	93.7056	1,148.44	92.7702	1,148.44	92.3908	1,148.44	91.6938	1,148.44	89.5758	1,148.44	90.611	1,148.44	85.3582	1,148.44	89.7	1,148.44	82.6332	1,148.44	89.201	1,148.44	83.2763	1,148.44	88.7308	1,148.44	84.2419	1,148.44	88.6192	1,148.44	83.8338	1,148.44	87.1402	1,148.44	82.4529	1,148.44	83.3316	1,148.44	82.0316	1,148.44	82.1174	1,148.44	82.23	1,148.44	82.7972	1,148.44	80.2004	1,148.44	84.2	1,148.44	75.5428	1,148.44	85.793	1,148.44	83.0016	1,148.44	85.7669	1,148.44	87.1083	1,148.44	85.9656	1,148.44	87.4861
1,189.45	95.1656	1,189.45	94.2308	1,189.45	95.3476	1,189.45	93.4827	1,189.45	94.2873	1,189.45	93.0976	1,189.45	92.4322	1,189.45	92.2498	1,189.45	90.802	1,189.45	90.4575	1,189.45	90.1526	1,189.45	88.7245	1,189.45	89.9866	1,189.45	88.1512	1,189.45	89.0389	1,189.45	88.2078	1,189.45	87.9128	1,189.45	88.537	1,189.45	87.3423	1,189.45	88.2559	1,189.45	85.8693	1,189.45	86.5395	1,189.45	84.4372	1,189.45	84.6038	1,189.45	85.4933	1,189.45	84.6642	1,189.45	84.1654	1,189.45	84.7953	1,189.45	81.9664	1,189.45	82.1468	1,189.45	86.642	1,189.45	83.3853	1,189.45	88.413	1,189.45	86.593	1,189.45	87.206	1,189.45	86.671
1,230.47	95.4838	1,230.47	94.132	1,230.47	95.9753	1,230.47	93.0235	1,230.47	95.3469	1,230.47	92.9825	1,230.47	93.57	1,230.47	92.9602	1,230.47	90.9171	1,230.47	91.7467	1,230.47	89.3382	1,230.47	89.8647	1,230.47	89.0158	1,230.47	88.9701	1,230.47	88.1286	1,230.47	88.3744	1,230.47	87.0804	1,230.47	86.9581	1,230.47	86.1252	1,230.47	87.4257	1,230.47	83.8876	1,230.47	88.9242	1,230.47	83.1387	1,230.47	88.2742	1,230.47	84.3533	1,230.47	85.8613	1,230.47	84.9666	1,230.47	83.5987	1,230.47	85.0391	1,230.47	81.4105	1,230.47	84.4437	1,230.47	81.779	1,230.47	83.9244	1,230.47	86.0488	1,230.47	86.8651	1,230.47	88.0728
1,274.41	94.8279	1,274.41	94.5017	1,274.41	95.0708	1,274.41	94.4427	1,274.41	94.7167	1,274.41	94.184	1,274.41	93.7421	1,274.41	92.9234	1,274.41	92.3945	1,274.41	90.5836	1,274.41	91.4999	1,274.41	88.6735	1,274.41	91.507	1,274.41	88.7369	1,274.41	90.9476	1,274.41	88.6005	1,274.41	88.9888	1,274.41	86.5021	1,274.41	87.1147	1,274.41	85.198	1,274.41	86.6475	1,274.41	85.6574	1,274.41	85.4196	1,274.41	84.6964	1,274.41	85.2677	1,274.41	83.1795	1,274.41	86.5148	1,274.41	83.2048	1,274.41	85.3733	1,274.41	82.6372	1,274.41	84.7169	1,274.41	81.3033	1,274.41	86.462	1,274.41	83.5972	1,274.41	86.3282	1,274.41	85.3941
1,319.82	94.9161	1,319.82	94.1943	1,319.82	94.9742	1,319.82	93.6965	1,319.82	94.2633	1,319.82	93.5018	1,319.82	93.5408	1,319.82	92.6051	1,319.82	92.9736	1,319.82	90.765	1,319.82	92.5646	1,319.82	89.5449	1,319.82	91.787	1,319.82	89.6607	1,319.82	90.3179	1,319.82	89.92	1,319.82	89.4423	1,319.82	89.567	1,319.82	88.1557	1,319.82	89.273	1,319.82	85.9754	1,319.82	88.981	1,319.82	82.8657	1,319.82	87.3543	1,319.82	82.6784	1,319.82	85.263	1,319.82	84.4739	1,319.82	85.2166	1,319.82	83.7147	1,319.82	84.2042	1,319.82	86.1123	1,319.82	83.114	1,319.82	86.8461	1,319.82	85.0382	1,319.82	84.8317	1,319.82	85.2243
1,366.7	94.6664	1,366.7	94.3969	1,366.7	94.9338	1,366.7	94.128	1,366.7	94.894	1,366.7	93.3105	1,366.7	94.1295	1,366.7	92.1061	1,366.7	92.2348	1,366.7	90.9481	1,366.7	90.6596	1,366.7	89.3892	1,366.7	90.9759	1,366.7	87.3139	1,366.7	90.8677	1,366.7	86.818	1,366.7	88.1888	1,366.7	84.9519	1,366.7	84.772	1,366.7	82.9968	1,366.7	84.1794	1,366.7	82.7985	1,366.7	83.2215	1,366.7	83.3982	1,366.7	82.7137	1,366.7	85.911	1,366.7	83.9484	1,366.7	87.3688	1,366.7	85.5657	1,366.7	85.7028	1,366.7	85.5549	1,366.7	82.0636	1,366.7	84.2604	1,366.7	82.4303	1,366.7	86.1923	1,366.7	85.736
1,413.57	95.107	1,413.57	94.4401	1,413.57	95.2321	1,413.57	93.572	1,413.57	95.3472	1,413.57	92.883	1,413.57	94.8444	1,413.57	91.9023	1,413.57	92.4235	1,413.57	90.6997	1,413.57	91.2588	1,413.57	88.7291	1,413.57	91.2676	1,413.57	87.6068	1,413.57	91.4114	1,413.57	88.1746	1,413.57	91.5176	1,413.57	86.4753	1,413.57	89.2704	1,413.57	84.5289	1,413.57	86.1547	1,413.57	85.2031	1,413.57	82.4198	1,413.57	85.8861	1,413.57	76.4502	1,413.57	87.1178	1,413.57	83.6043	1,413.57	87.4313	1,413.57	85.9314	1,413.57	86.0052	1,413.57	86.9919	1,413.57	84.1112	1,413.57	85.668	1,413.57	84.4717	1,413.57	85.3906	1,413.57	86.9644
1,463.38	94.8832	1,463.38	94.729	1,463.38	95.3926	1,463.38	94.6492	1,463.38	95.5298	1,463.38	93.633	1,463.38	94.4888	1,463.38	91.5466	1,463.38	92.9966	1,463.38	89.8865	1,463.38	92.671	1,463.38	88.897	1,463.38	91.9275	1,463.38	86.8632	1,463.38	91.0898	1,463.38	85.5517	1,463.38	90.0638	1,463.38	87.9653	1,463.38	87.4564	1,463.38	89.1297	1,463.38	86.0039	1,463.38	87.2426	1,463.38	87.2738	1,463.38	83.6872	1,463.38	85.1158	1,463.38	84.446	1,463.38	79.5442	1,463.38	85.3582	1,463.38	82.3805	1,463.38	85.4059	1,463.38	85.8229	1,463.38	84.2135	1,463.38	86.4383	1,463.38	84.1128	1,463.38	86.0932	1,463.38	86.0265
1,516.11	95.4656	1,516.11	95.2391	1,516.11	95.4007	1,516.11	94.2925	1,516.11	95.3714	1,516.11	92.4714	1,516.11	94.6376	1,516.11	90.4268	1,516.11	93.5875	1,516.11	89.4352	1,516.11	93.5269	1,516.11	87.6818	1,516.11	92.3891	1,516.11	83.7765	1,516.11	89.4615	1,516.11	84.59	1,516.11	86.7355	1,516.11	87.8659	1,516.11	86.4884	1,516.11	87.8241	1,516.11	86.6718	1,516.11	86.307	1,516.11	87.2956	1,516.11	81.8923	1,516.11	88.3301	1,516.11	70.8659	1,516.11	86.5319	1,516.11	76.195	1,516.11	83.349	1,516.11	84.1611	1,516.11	85.1652	1,516.11	85.6681	1,516.11	86.0344	1,516.11	83.6457	1,516.11	84.5858	1,516.11	82.935
1,568.85	94.837	1,568.85	95.1173	1,568.85	94.5229	1,568.85	93.9762	1,568.85	95.2078	1,568.85	91.9892	1,568.85	95.2545	1,568.85	91.1616	1,568.85	94.4329	1,568.85	90.1165	1,568.85	94.0125	1,568.85	88.1609	1,568.85	92.0954	1,568.85	87.6376	1,568.85	89.3447	1,568.85	87.6568	1,568.85	87.8238	1,568.85	88.6456	1,568.85	87.5528	1,568.85	88.9707	1,568.85	85.5961	1,568.85	87.5987	1,568.85	84.9317	1,568.85	85.2359	1,568.85	85.714	1,568.85	83.1264	1,568.85	85.8681	1,568.85	79.9488	1,568.85	87.3693	1,568.85	84.1641	1,568.85	85.3893	1,568.85	83.693	1,568.85	82.1708	1,568.85	81.8733	1,568.85	84.7107	1,568.85	83.7441
1,624.51	94.347	1,624.51	93.6733	1,624.51	94.9373	1,624.51	93.0783	1,624.51	95.1882	1,624.51	92.8645	1,624.51	94.6717	1,624.51	92.1605	1,624.51	94.4244	1,624.51	89.736	1,624.51	93.8292	1,624.51	87.1768	1,624.51	90.9218	1,624.51	87.4696	1,624.51	88.6842	1,624.51	87.131	1,624.51	88.0578	1,624.51	84.5937	1,624.51	87.7159	1,624.51	84.1894	1,624.51	87.0027	1,624.51	86.8616	1,624.51	85.2985	1,624.51	87.8718	1,624.51	83.3181	1,624.51	85.5978	1,624.51	82.9584	1,624.51	81.0578	1,624.51	86.7881	1,624.51	82.2324	1,624.51	84.8239	1,624.51	79.7816	1,624.51	76.1164	1,624.51	79.6387	1,624.51	82.6237	1,624.51	83.7599
1,681.64	93.7567	1,681.64	92.5287	1,681.64	94.3891	1,681.64	91.7004	1,681.64	94.4786	1,681.64	91.5256	1,681.64	94.1676	1,681.64	90.7981	1,681.64	93.6586	1,681.64	88.5042	1,681.64	93.204	1,681.64	86.9078	1,681.64	91.2609	1,681.64	87.3466	1,681.64	88.3103	1,681.64	87.0133	1,681.64	86.8274	1,681.64	86.7711	1,681.64	87.4929	1,681.64	87.9955	1,681.64	84.5212	1,681.64	87.3826	1,681.64	81.2329	1,681.64	86.8808	1,681.64	86.7655	1,681.64	85.2874	1,681.64	86.0278	1,681.64	84.4843	1,681.64	82.9851	1,681.64	84.7498	1,681.64	83.6028	1,681.64	81.3264	1,681.64	83.4081	1,681.64	75.8801	1,681.64	82.4358	1,681.64	79.7766
1,741.7	95.0315	1,741.7	93.6767	1,741.7	95.1193	1,741.7	92.3843	1,741.7	93.8918	1,741.7	91.0867	1,741.7	92.8718	1,741.7	89.4578	1,741.7	92.795	1,741.7	88.4801	1,741.7	92.6933	1,741.7	87.4722	1,741.7	90.5473	1,741.7	86.9543	1,741.7	86.7266	1,741.7	85.4222	1,741.7	85.1637	1,741.7	81.6453	1,741.7	84.9009	1,741.7	81.9131	1,741.7	83.6939	1,741.7	81.6858	1,741.7	82.4198	1,741.7	83.8156	1,741.7	85.5011	1,741.7	84.4511	1,741.7	85.5125	1,741.7	82.2179	1,741.7	84.1808	1,741.7	81.5501	1,741.7	82.8476	1,741.7	78.5835	1,741.7	84.7229	1,741.7	73.6342	1,741.7	86.7143	1,741.7	81.3396
1,803.22	94.2417	1,803.22	93.5472	1,803.22	94.9433	1,803.22	92.2785	1,803.22	94.9154	1,803.22	88.8893	1,803.22	93.7548	1,803.22	85.4479	1,803.22	91.7441	1,803.22	85.2052	1,803.22	90.563	1,803.22	82.163	1,803.22	88.3575	1,803.22	80.7052	1,803.22	85.2271	1,803.22	83.8712	1,803.22	84.8173	1,803.22	83.283	1,803.22	81.6689	1,803.22	81.6464	1,803.22	79.9165	1,803.22	79.1622	1,803.22	82.6266	1,803.22	80.5	1,803.22	82.7144	1,803.22	82.8224	1,803.22	84.0016	1,803.22	82.2183	1,803.22	84.5439	1,803.22	80.2439	1,803.22	84.7704	1,803.22	80.9123	1,803.22	83.515	1,803.22	81.1556	1,803.22	82.3466	1,803.22	81.4042
1,866.21	93.6733	1,866.21	93.5776	1,866.21	94.3296	1,866.21	92.2177	1,866.21	94.8432	1,866.21	88.1207	1,866.21	94.0517	1,866.21	84.4279	1,866.21	91.9426	1,866.21	83.5764	1,866.21	89.5325	1,866.21	81.4651	1,866.21	87.0775	1,866.21	80.7775	1,866.21	84.7495	1,866.21	82.0345	1,866.21	81.5104	1,866.21	78.2571	1,866.21	77.5589	1,866.21	75.7978	1,866.21	80.0617	1,866.21	76.952	1,866.21	82.126	1,866.21	77.6034	1,866.21	81.462	1,866.21	81.4957	1,866.21	81.0656	1,866.21	81.612	1,866.21	82.1701	1,866.21	79.7581	1,866.21	82.8009	1,866.21	80.1739	1,866.21	83.4279	1,866.21	80.054	1,866.21	82.4544	1,866.21	80.3859
1,932.13	93.6704	1,932.13	93.0006	1,932.13	93.8018	1,932.13	91.3214	1,932.13	93.8531	1,932.13	88.3763	1,932.13	93.1303	1,932.13	85.2463	1,932.13	90.8286	1,932.13	81.7288	1,932.13	88.622	1,932.13	80.5924	1,932.13	86.8142	1,932.13	80.6557	1,932.13	83.7091	1,932.13	77.1994	1,932.13	80.4742	1,932.13	72.7932	1,932.13	78.0602	1,932.13	76.0906	1,932.13	78.9894	1,932.13	75.1023	1,932.13	79.974	1,932.13	71.216	1,932.13	78.0372	1,932.13	79.2943	1,932.13	75.0799	1,932.13	80.7624	1,932.13	77.2071	1,932.13	79.0714	1,932.13	81.0013	1,932.13	77.8887	1,932.13	81.944	1,932.13	77.9946	1,932.13	81.7241	1,932.13	79.6165
1,999.51	94.9019	1,999.51	93.4408	1,999.51	94.6265	1,999.51	91.1102	1,999.51	93.712	1,999.51	89.5734	1,999.51	92.7024	1,999.51	87.8137	1,999.51	90.3048	1,999.51	82.9345	1,999.51	88.2875	1,999.51	80.192	1,999.51	84.7713	1,999.51	81.765	1,999.51	81.9458	1,999.51	79.5144	1,999.51	79.9091	1,999.51	73.1115	1,999.51	77.166	1,999.51	76.3029	1,999.51	76.9843	1,999.51	79.077	1,999.51	78.7151	1,999.51	75.0883	1,999.51	78.0365	1,999.51	76.4212	1,999.51	75.3413	1,999.51	79.6649	1,999.51	74.7065	1,999.51	78.6118	1,999.51	79.6396	1,999.51	77.0589	1,999.51	82.3981	1,999.51	77.879	1,999.51	82.11	1,999.51	80.1018
2,069.82	95.8734	2,069.82	94.6264	2,069.82	95.7535	2,069.82	92.2391	2,069.82	94.7662	2,069.82	90.1987	2,069.82	92.4552	2,069.82	87.7007	2,069.82	90.2315	2,069.82	83.04	2,069.82	88.6269	2,069.82	80.3772	2,069.82	85.4118	2,069.82	78.4794	2,069.82	82.557	2,069.82	74.5265	2,069.82	79.1841	2,069.82	76.5892	2,069.82	81.6866	2,069.82	73.4772	2,069.82	80.4698	2,069.82	77.9149	2,069.82	75.5187	2,069.82	78.8821	2,069.82	74.8387	2,069.82	74.4748	2,069.82	76.844	2,069.82	77.6558	2,069.82	77.6166	2,069.82	79.0534	2,069.82	80.2371	2,069.82	77.4643	2,069.82	82.48	2,069.82	77.7851	2,069.82	81.8622	2,069.82	79.8099
2,143.07	95.023	2,143.07	94.2236	2,143.07	95.4608	2,143.07	92.6853	2,143.07	94.7291	2,143.07	89.4175	2,143.07	92.533	2,143.07	84.9896	2,143.07	90.3952	2,143.07	81.3062	2,143.07	87.9521	2,143.07	76.9874	2,143.07	85.4526	2,143.07	78.4871	2,143.07	80.8206	2,143.07	79.7158	2,143.07	77.5081	2,143.07	74.4517	2,143.07	79.5573	2,143.07	70.902	2,143.07	80.3665	2,143.07	76.1704	2,143.07	78.0453	2,143.07	77.7434	2,143.07	75.3888	2,143.07	76.7298	2,143.07	76.4173	2,143.07	75.2812	2,143.07	76.9446	2,143.07	76.9551	2,143.07	80.8911	2,143.07	76.6823	2,143.07	82.1171	2,143.07	75.7407	2,143.07	82.0469	2,143.07	79.5454
2,219.24	94.2128	2,219.24	92.9121	2,219.24	94.7393	2,219.24	91.7008	2,219.24	93.875	2,219.24	89.4462	2,219.24	92.2286	2,219.24	84.5661	2,219.24	89.6755	2,219.24	78.6399	2,219.24	86.9479	2,219.24	74.0743	2,219.24	84.0495	2,219.24	72.2667	2,219.24	81.3275	2,219.24	73.6968	2,219.24	76.5491	2,219.24	75.4176	2,219.24	77.3321	2,219.24	70.4548	2,219.24	77.9425	2,219.24	77.2271	2,219.24	75.914	2,219.24	78.3225	2,219.24	74.7181	2,219.24	76.0253	2,219.24	73.6601	2,219.24	75.5704	2,219.24	74.4375	2,219.24	78.6611	2,219.24	78.6006	2,219.24	78.5068	2,219.24	80.9863	2,219.24	76.1872	2,219.24	81.0743	2,219.24	78.1904
2,296.88	94.3534	2,296.88	92.314	2,296.88	94.9275	2,296.88	89.8513	2,296.88	93.8061	2,296.88	86.8746	2,296.88	91.3383	2,296.88	81.9568	2,296.88	88.0237	2,296.88	79.7605	2,296.88	85.7626	2,296.88	75.117	2,296.88	81.5787	2,296.88	69.9565	2,296.88	76.9666	2,296.88	76.3714	2,296.88	76.6798	2,296.88	78.595	2,296.88	77.9584	2,296.88	71.4504	2,296.88	73.0001	2,296.88	65.8508	2,296.88	70.1648	2,296.88	77.2244	2,296.88	73.5413	2,296.88	77.2183	2,296.88	72.558	2,296.88	72.6479	2,296.88	72.8161	2,296.88	76.5391	2,296.88	79.3229	2,296.88	76.5454	2,296.88	81.0254	2,296.88	74.3752	2,296.88	80.0217	2,296.88	76.5559
2,378.91	93.7219	2,378.91	92.4486	2,378.91	94.5455	2,378.91	89.0941	2,378.91	93.8356	2,378.91	83.6839	2,378.91	90.6962	2,378.91	81.6207	2,378.91	87.3708	2,378.91	79.6927	2,378.91	84.7224	2,378.91	77.0913	2,378.91	79.8932	2,378.91	74.8645	2,378.91	76.1538	2,378.91	74.6725	2,378.91	76.8166	2,378.91	70.9977	2,378.91	77.7171	2,378.91	72.3274	2,378.91	75.5265	2,378.91	69.4122	2,378.91	73.0682	2,378.91	75.2819	2,378.91	75.6116	2,378.91	77.9148	2,378.91	74.6829	2,378.91	74.4866	2,378.91	71.5176	2,378.91	71.601	2,378.91	78.007	2,378.91	72.945	2,378.91	81.992	2,378.91	73.133	2,378.91	81.7037	2,378.91	76.9273
2,462.4	93.3277	2,462.4	91.8911	2,462.4	94.0239	2,462.4	89.2911	2,462.4	93.4594	2,462.4	85.8955	2,462.4	90.7383	2,462.4	81.9175	2,462.4	87.0431	2,462.4	78.9417	2,462.4	82.0658	2,462.4	74.6856	2,462.4	79.1786	2,462.4	69.1435	2,462.4	75.4274	2,462.4	72.6277	2,462.4	70.3875	2,462.4	76.534	2,462.4	67.3309	2,462.4	73.8115	2,462.4	68.6087	2,462.4	68.8195	2,462.4	72.4452	2,462.4	72.9727	2,462.4	73.3525	2,462.4	77.8299	2,462.4	73.8407	2,462.4	74.0789	2,462.4	66.2743	2,462.4	70.6432	2,462.4	75.7071	2,462.4	73.7125	2,462.4	81.1882	2,462.4	72.7627	2,462.4	81.1719	2,462.4	75.6632
2,548.83	93.9419	2,548.83	92.2799	2,548.83	93.9216	2,548.83	89.5072	2,548.83	92.7252	2,548.83	86.3125	2,548.83	89.8557	2,548.83	81.4871	2,548.83	86.158	2,548.83	76.0795	2,548.83	80.6367	2,548.83	71.873	2,548.83	79.4591	2,548.83	69.5149	2,548.83	77.2528	2,548.83	69.9912	2,548.83	79.1624	2,548.83	68.2579	2,548.83	73.7817	2,548.83	71.4144	2,548.83	70.76	2,548.83	72.6873	2,548.83	68.9061	2,548.83	70.8643	2,548.83	75.1833	2,548.83	75.4492	2,548.83	74.1195	2,548.83	73.4978	2,548.83	63.0477	2,548.83	68.9437	2,548.83	76.674	2,548.83	71.1962	2,548.83	81.4315	2,548.83	72.6386	2,548.83	81.4125	2,548.83	76.5994
2,639.65	93.4574	2,639.65	92.5319	2,639.65	93.6815	2,639.65	90.6661	2,639.65	92.3729	2,639.65	87.3467	2,639.65	89.2466	2,639.65	81.8797	2,639.65	84.3857	2,639.65	77.9348	2,639.65	79.1169	2,639.65	76.1213	2,639.65	75.7244	2,639.65	72.033	2,639.65	79.6119	2,639.65	73.6493	2,639.65	76.0718	2,639.65	76.9557	2,639.65	55.839	2,639.65	71.6661	2,639.65	73.9425	2,639.65	67.8657	2,639.65	74.2083	2,639.65	74.4395	2,639.65	73.4412	2,639.65	75.9166	2,639.65	76.3306	2,639.65	74.9148	2,639.65	67.6812	2,639.65	73.0432	2,639.65	74.0886	2,639.65	74.7299	2,639.65	81.4069	2,639.65	75.5386	2,639.65	80.8093	2,639.65	76.8037
2,731.93	93.5733	2,731.93	92.7293	2,731.93	93.6749	2,731.93	91.3416	2,731.93	91.9324	2,731.93	87.1642	2,731.93	88.659	2,731.93	83.0683	2,731.93	82.4253	2,731.93	80.9183	2,731.93	77.0246	2,731.93	78.4746	2,731.93	73.3989	2,731.93	77.7536	2,731.93	79.077	2,731.93	75.1471	2,731.93	76.0738	2,731.93	72.4794	2,731.93	72.6558	2,731.93	73.7734	2,731.93	75.5528	2,731.93	71.6565	2,731.93	71.4958	2,731.93	72.2477	2,731.93	72.8693	2,731.93	79.5675	2,731.93	75.0517	2,731.93	78.5363	2,731.93	68.0676	2,731.93	71.5994	2,731.93	72.1957	2,731.93	73.3311	2,731.93	80.06	2,731.93	74.4494	2,731.93	80.4805	2,731.93	76.5175
2,828.61	94.0744	2,828.61	93.0116	2,828.61	94.2302	2,828.61	90.6206	2,828.61	92.0695	2,828.61	86.7932	2,828.61	87.1489	2,828.61	82.8907	2,828.61	80.8836	2,828.61	79.0422	2,828.61	75.4272	2,828.61	78.5295	2,828.61	76.7366	2,828.61	78.47	2,828.61	80.2088	2,828.61	76.2885	2,828.61	79.8463	2,828.61	76.3621	2,828.61	72.0444	2,828.61	77.3262	2,828.61	79.1202	2,828.61	72.9675	2,828.61	76.8832	2,828.61	72.0583	2,828.61	63.8935	2,828.61	77.6414	2,828.61	73.3484	2,828.61	80.6919	2,828.61	74.4173	2,828.61	78.4608	2,828.61	72.5232	2,828.61	75.8631	2,828.61	81.4043	2,828.61	74.7828	2,828.61	81.2758	2,828.61	76.3722
2,928.22	93.1399	2,928.22	92.1689	2,928.22	93.5817	2,928.22	89.8824	2,928.22	92.3596	2,928.22	86.8401	2,928.22	87.7987	2,928.22	81.3782	2,928.22	79.4766	2,928.22	77.8671	2,928.22	69.2924	2,928.22	81.102	2,928.22	78.8319	2,928.22	79.122	2,928.22	79.0287	2,928.22	76.7955	2,928.22	77.144	2,928.22	77.383	2,928.22	77.8845	2,928.22	77.8292	2,928.22	80.0171	2,928.22	77.4012	2,928.22	80.7268	2,928.22	74.045	2,928.22	71.1201	2,928.22	75.8807	2,928.22	73.8294	2,928.22	78.0225	2,928.22	73.5821	2,928.22	78.2809	2,928.22	66.2738	2,928.22	76.7931	2,928.22	79.4656	2,928.22	74.961	2,928.22	79.8589	2,928.22	76.2704
3,030.76	93.7243	3,030.76	92.2853	3,030.76	93.6228	3,030.76	89.7873	3,030.76	91.8675	3,030.76	85.1364	3,030.76	87.4064	3,030.76	80.8239	3,030.76	74.8758	3,030.76	81.5546	3,030.76	71.3367	3,030.76	81.3063	3,030.76	74.1687	3,030.76	79.8445	3,030.76	79.4739	3,030.76	80.4448	3,030.76	79.1286	3,030.76	81.5699	3,030.76	80.3377	3,030.76	79.3448	3,030.76	77.5248	3,030.76	76.9335	3,030.76	79.2946	3,030.76	75.1315	3,030.76	73.4566	3,030.76	77.5857	3,030.76	71.465	3,030.76	78.6702	3,030.76	73.5476	3,030.76	77.01	3,030.76	61.5536	3,030.76	76.7998	3,030.76	78.179	3,030.76	72.9191	3,030.76	79.2809	3,030.76	75.2143
3,137.7	93.9364	3,137.7	92.6258	3,137.7	93.9137	3,137.7	89.2861	3,137.7	91.5754	3,137.7	83.0826	3,137.7	86.2389	3,137.7	80.9315	3,137.7	63.0161	3,137.7	82.9524	3,137.7	78.6878	3,137.7	82.5768	3,137.7	81.4863	3,137.7	83.178	3,137.7	83.2976	3,137.7	82.3936	3,137.7	84.1213	3,137.7	81.0274	3,137.7	81.0533	3,137.7	79.3713	3,137.7	74.5957	3,137.7	76.9931	3,137.7	81.5191	3,137.7	78.502	3,137.7	77.4006	3,137.7	76.5407	3,137.7	71.0175	3,137.7	79.2781	3,137.7	75.9797	3,137.7	77.4593	3,137.7	66.2802	3,137.7	77.5333	3,137.7	77.4867	3,137.7	72.9106	3,137.7	79.7485	3,137.7	74.9997
3,249.02	93.9897	3,249.02	91.9542	3,249.02	93.8386	3,249.02	86.8251	3,249.02	90.9068	3,249.02	80.5683	3,249.02	83.5056	3,249.02	80.6769	3,249.02	76.1037	3,249.02	82.8908	3,249.02	81.9006	3,249.02	84.2528	3,249.02	84.5222	3,249.02	85.051	3,249.02	86.4817	3,249.02	81.9932	3,249.02	86.9858	3,249.02	78.9466	3,249.02	80.7426	3,249.02	81.4726	3,249.02	76.3689	3,249.02	79.3896	3,249.02	81.6032	3,249.02	78.8792	3,249.02	81.5266	3,249.02	78.7892	3,249.02	69.3853	3,249.02	79.288	3,249.02	76.5337	3,249.02	76.8328	3,249.02	68.5915	3,249.02	76.5734	3,249.02	76.9313	3,249.02	68.6761	3,249.02	78.6802	3,249.02	67.9663
3,363.28	93.8985	3,363.28	91.8352	3,363.28	93.6369	3,363.28	86.5587	3,363.28	90.7862	3,363.28	80.1648	3,363.28	80.4357	3,363.28	81.0131	3,363.28	78.3631	3,363.28	84.1015	3,363.28	82.5272	3,363.28	85.768	3,363.28	86.2938	3,363.28	84.7283	3,363.28	87.4305	3,363.28	82.4023	3,363.28	86.6412	3,363.28	83.3372	3,363.28	73.3743	3,363.28	81.4135	3,363.28	78.4808	3,363.28	78.7899	3,363.28	81.2988	3,363.28	77.3768	3,363.28	81.4655	3,363.28	79.0485	3,363.28	68.5033	3,363.28	79.7152	3,363.28	76.8054	3,363.28	76.737	3,363.28	68.3347	3,363.28	75.8764	3,363.28	75.0609	3,363.28	70.7329	3,363.28	77.2278	3,363.28	70.3657
3,481.93	94.257	3,481.93	92.0742	3,481.93	93.7885	3,481.93	86.1292	3,481.93	90.1416	3,481.93	78.7453	3,481.93	76.9204	3,481.93	81.2819	3,481.93	82.8256	3,481.93	84.4997	3,481.93	83.8349	3,481.93	85.8787	3,481.93	87.2161	3,481.93	82.7728	3,481.93	87.9579	3,481.93	84.6501	3,481.93	85.5612	3,481.93	82.8969	3,481.93	76.3315	3,481.93	80.229	3,481.93	78.15	3,481.93	80.3879	3,481.93	81.1006	3,481.93	77.8942	3,481.93	80.0367	3,481.93	77.5286	3,481.93	70.6178	3,481.93	79.4555	3,481.93	76.8691	3,481.93	76.7647	3,481.93	67.9176	3,481.93	77.1593	3,481.93	75.7674	3,481.93	65.4566	3,481.93	77.0751	3,481.93	68.1857
3,604.98	94.0187	3,604.98	91.1659	3,604.98	93.5655	3,604.98	85.1303	3,604.98	89.4399	3,604.98	77.2147	3,604.98	76.3958	3,604.98	81.8107	3,604.98	83.4025	3,604.98	85.2255	3,604.98	86.4344	3,604.98	84.8573	3,604.98	88.1099	3,604.98	84.7171	3,604.98	86.9804	3,604.98	82.7449	3,604.98	81.7852	3,604.98	77.5069	3,604.98	82.7234	3,604.98	79.6333	3,604.98	76.4132	3,604.98	77.5423	3,604.98	76.4415	3,604.98	79.0515	3,604.98	79.4753	3,604.98	78.01	3,604.98	75.1888	3,604.98	78.8931	3,604.98	72.4196	3,604.98	75.0765	3,604.98	65.2068	3,604.98	73.5025	3,604.98	75.8483	3,604.98	63.8609	3,604.98	75.5739	3,604.98	66.8565
3,732.42	93.7318	3,732.42	89.9255	3,732.42	93.9585	3,732.42	82.6992	3,732.42	88.8812	3,732.42	73.2466	3,732.42	79.459	3,732.42	83.6158	3,732.42	83.3078	3,732.42	86.1641	3,732.42	88.4232	3,732.42	85.1781	3,732.42	87.9541	3,732.42	84.9867	3,732.42	86.6148	3,732.42	80.1999	3,732.42	82.1862	3,732.42	78.8885	3,732.42	84.1283	3,732.42	78.933	3,732.42	75.563	3,732.42	77.9013	3,732.42	69.0882	3,732.42	75.7395	3,732.42	80.2104	3,732.42	77.2309	3,732.42	75.8313	3,732.42	78.5557	3,732.42	68.8721	3,732.42	74.9894	3,732.42	70.636	3,732.42	69.9249	3,732.42	73.2946	3,732.42	62.8257	3,732.42	74.7894	3,732.42	71.8768
3,864.26	92.6487	3,864.26	89.6185	3,864.26	93.3557	3,864.26	84.5132	3,864.26	89.2613	3,864.26	71.5659	3,864.26	80.1615	3,864.26	83.9522	3,864.26	83.3902	3,864.26	85.027	3,864.26	88.5736	3,864.26	85.3616	3,864.26	86.551	3,864.26	81.9513	3,864.26	85.4009	3,864.26	80.8682	3,864.26	84.0684	3,864.26	80.9372	3,864.26	82.1272	3,864.26	76.6074	3,864.26	63.6171	3,864.26	76.5676	3,864.26	80.3486	3,864.26	75.2801	3,864.26	79.6958	3,864.26	75.2208	3,864.26	72.3568	3,864.26	74.8665	3,864.26	73.1373	3,864.26	74.5	3,864.26	69.8525	3,864.26	70.3065	3,864.26	73.6813	3,864.26	61.6335	3,864.26	73.2514	3,864.26	67.8501
4,000.49	92.3701	4,000.49	90.1108	4,000.49	92.8982	4,000.49	84.829	4,000.49	89.403	4,000.49	71.3133	4,000.49	79.7029	4,000.49	83.0114	4,000.49	83.7157	4,000.49	84.928	4,000.49	88.8857	4,000.49	83.7759	4,000.49	87.0507	4,000.49	81.6277	4,000.49	84.6572	4,000.49	82.388	4,000.49	84.1021	4,000.49	75.0116	4,000.49	83.9002	4,000.49	76.5345	4,000.49	74.7881	4,000.49	74.9578	4,000.49	81.9289	4,000.49	75.5681	4,000.49	74.637	4,000.49	75.5476	4,000.49	70.4056	4,000.49	74.9155	4,000.49	71.4813	4,000.49	73.1988	4,000.49	68.9874	4,000.49	64.5059	4,000.49	73.74	4,000.49	62.8274	4,000.49	70.9284	4,000.49	69.7608
4,141.11	92.2197	4,141.11	91.2152	4,141.11	93.0423	4,141.11	84.6518	4,141.11	88.6862	4,141.11	80.1867	4,141.11	74.1894	4,141.11	85.7357	4,141.11	85.2577	4,141.11	84.7769	4,141.11	89.5405	4,141.11	81.6633	4,141.11	86.658	4,141.11	80.9877	4,141.11	82.7191	4,141.11	76.9143	4,141.11	85.6127	4,141.11	78.957	4,141.11	81.5651	4,141.11	77.7237	4,141.11	82.685	4,141.11	74.9645	4,141.11	78.1894	4,141.11	75.4601	4,141.11	77.8385	4,141.11	76.493	4,141.11	75.3909	4,141.11	75.2789	4,141.11	66.8282	4,141.11	74.7029	4,141.11	67.7733	4,141.11	70.2166	4,141.11	71.8884	4,141.11	63.5894	4,141.11	69.0587	4,141.11	70.8373
4,287.6	91.7192	4,287.6	90.5981	4,287.6	92.6214	4,287.6	81.4728	4,287.6	88.7385	4,287.6	83.1351	4,287.6	67.3996	4,287.6	85.5023	4,287.6	84.8336	4,287.6	83.4531	4,287.6	88.9955	4,287.6	84.2748	4,287.6	84.2799	4,287.6	81.5991	4,287.6	82.1701	4,287.6	82.5126	4,287.6	85.5859	4,287.6	79.7886	4,287.6	76.0773	4,287.6	77.5297	4,287.6	82.331	4,287.6	78.5328	4,287.6	75.4882	4,287.6	74.7857	4,287.6	79.7075	4,287.6	77.5908	4,287.6	73.5033	4,287.6	76.3375	4,287.6	63.8855	4,287.6	74.9123	4,287.6	70.2228	4,287.6	73.7317	4,287.6	70.8686	4,287.6	64.783	4,287.6	70.1684	4,287.6	64.7253
4,438.48	92.1079	4,438.48	89.7704	4,438.48	91.84	4,438.48	73.1846	4,438.48	87.1178	4,438.48	81.0497	4,438.48	68.3543	4,438.48	83.2729	4,438.48	86.3754	4,438.48	85.3746	4,438.48	88.3681	4,438.48	83.4831	4,438.48	80.8577	4,438.48	82.8971	4,438.48	84.7369	4,438.48	80.8971	4,438.48	84.3508	4,438.48	77.7915	4,438.48	78.7746	4,438.48	76.9292	4,438.48	79.5731	4,438.48	74.6158	4,438.48	81.4137	4,438.48	73.1987	4,438.48	75.8125	4,438.48	76.4326	4,438.48	71.8441	4,438.48	76.7314	4,438.48	68.86	4,438.48	74.4953	4,438.48	69.0444	4,438.48	72.0526	4,438.48	66.014	4,438.48	65.679	4,438.48	67.1518	4,438.48	55.2444
4,595.21	92.6387	4,595.21	90.3344	4,595.21	91.1334	4,595.21	77.0281	4,595.21	86.6966	4,595.21	78.4296	4,595.21	72.5477	4,595.21	85.7165	4,595.21	87.9894	4,595.21	85.883	4,595.21	86.8385	4,595.21	84.7972	4,595.21	84.5326	4,595.21	83.8106	4,595.21	84.992	4,595.21	80.9796	4,595.21	81.5617	4,595.21	79.1971	4,595.21	80.4087	4,595.21	76.2414	4,595.21	78.4954	4,595.21	76.8287	4,595.21	82.6785	4,595.21	73.96	4,595.21	70.1149	4,595.21	75.3648	4,595.21	72.7216	4,595.21	76.0205	4,595.21	69.1657	4,595.21	74.0424	4,595.21	67.3399	4,595.21	71.9275	4,595.21	62.9808	4,595.21	67.9503	4,595.21	65.5245	4,595.21	67.2958
4,756.35	92.5123	4,756.35	90.6234	4,756.35	90.6595	4,756.35	77.1419	4,756.35	85.0742	4,756.35	83.5579	4,756.35	76.2854	4,756.35	85.6346	4,756.35	88.1502	4,756.35	85.9689	4,756.35	84.3839	4,756.35	85.8505	4,756.35	87.6711	4,756.35	82.8066	4,756.35	85.0332	4,756.35	80.4323	4,756.35	81.2928	4,756.35	76.0526	4,756.35	80.7738	4,756.35	75.3379	4,756.35	80.3886	4,756.35	72.7413	4,756.35	81.6132	4,756.35	73.095	4,756.35	76.3039	4,756.35	72.8035	4,756.35	71.1248	4,756.35	75.3574	4,756.35	67.4745	4,756.35	72.5921	4,756.35	69.2652	4,756.35	72.289	4,756.35	66.257	4,756.35	64.1432	4,756.35	63.2334	4,756.35	68.1481
4,924.8	91.5081	4,924.8	89.0178	4,924.8	90.6034	4,924.8	64.1435	4,924.8	85.0453	4,924.8	83.6266	4,924.8	77.8339	4,924.8	85.7429	4,924.8	87.7894	4,924.8	87.234	4,924.8	83.7062	4,924.8	84.2805	4,924.8	87.7236	4,924.8	83.0064	4,924.8	81.7733	4,924.8	79.2164	4,924.8	79.2597	4,924.8	77.1718	4,924.8	78.3375	4,924.8	72.3274	4,924.8	81.3054	4,924.8	74.6958	4,924.8	82.0973	4,924.8	72.2857	4,924.8	77.9937	4,924.8	71.0941	4,924.8	69.2277	4,924.8	72.3983	4,924.8	70.7025	4,924.8	71.5408	4,924.8	69.3165	4,924.8	70.2475	4,924.8	63.3219	4,924.8	56.8141	4,924.8	66.7402	4,924.8	65.8731
5,097.66	93.2075	5,097.66	87.9297	5,097.66	90.9174	5,097.66	69.0593	5,097.66	82.9329	5,097.66	83.4526	5,097.66	76.7438	5,097.66	87.5863	5,097.66	86.0332	5,097.66	86.926	5,097.66	86.7654	5,097.66	83.8918	5,097.66	86.4687	5,097.66	81.921	5,097.66	78.7954	5,097.66	77.8674	5,097.66	78.2694	5,097.66	76.1748	5,097.66	78.4664	5,097.66	72.7183	5,097.66	80.6594	5,097.66	70.7147	5,097.66	82.2916	5,097.66	68.0937	5,097.66	74.8565	5,097.66	70.2373	5,097.66	70.0093	5,097.66	70.5212	5,097.66	71.8314	5,097.66	69.3707	5,097.66	63.0246	5,097.66	71.1778	5,097.66	55.2162	5,097.66	67.7765	5,097.66	66.4885	5,097.66	65.4144
5,277.83	92.3957	5,277.83	88.0821	5,277.83	91.1341	5,277.83	60.4095	5,277.83	81.9731	5,277.83	85.335	5,277.83	78.5962	5,277.83	87.362	5,277.83	82.6278	5,277.83	86.1666	5,277.83	88.0446	5,277.83	82.9883	5,277.83	82.5389	5,277.83	81.0512	5,277.83	78.6068	5,277.83	77.2463	5,277.83	77.2978	5,277.83	74.3584	5,277.83	77.9487	5,277.83	72.2791	5,277.83	80.0998	5,277.83	67.9204	5,277.83	81.5599	5,277.83	70.7607	5,277.83	74.7112	5,277.83	62.7124	5,277.83	69.7638	5,277.83	67.9588	5,277.83	72.7766	5,277.83	66.5028	5,277.83	58.0371	5,277.83	66.8938	5,277.83	47.704	5,277.83	64.3909	5,277.83	65.4493	5,277.83	61.4598
5,463.87	92.0747	5,463.87	86.9668	5,463.87	91.2149	5,463.87	74.2868	5,463.87	83.2153	5,463.87	86.4719	5,463.87	80.8575	5,463.87	86.7549	5,463.87	81.708	5,463.87	86.4111	5,463.87	87.8071	5,463.87	81.4495	5,463.87	80.8195	5,463.87	79.5215	5,463.87	77.1034	5,463.87	75.3088	5,463.87	77.0505	5,463.87	72.0855	5,463.87	76.2366	5,463.87	70.6652	5,463.87	79.2348	5,463.87	65.557	5,463.87	81.4305	5,463.87	67.4011	5,463.87	73.1596	5,463.87	67.1373	5,463.87	70.8859	5,463.87	56.6029	5,463.87	72.555	5,463.87	65.3326	5,463.87	62.535	5,463.87	66.6292	5,463.87	63.1573	5,463.87	53.2419	5,463.87	69.4561	5,463.87	67.5758
5,657.23	91.3379	5,657.23	83.795	5,657.23	91.1409	5,657.23	80.3482	5,657.23	82.5646	5,657.23	86.5297	5,657.23	79.2862	5,657.23	86.4069	5,657.23	82.8256	5,657.23	84.9286	5,657.23	86.0092	5,657.23	80.5709	5,657.23	80.2681	5,657.23	77.3632	5,657.23	77.1169	5,657.23	73.4596	5,657.23	75.627	5,657.23	64.6507	5,657.23	75.0768	5,657.23	66.668	5,657.23	77.0792	5,657.23	62.2758	5,657.23	79.9349	5,657.23	60.8279	5,657.23	70.7835	5,657.23	66.5612	5,657.23	72.912	5,657.23	63.3768	5,657.23	58.6461	5,657.23	65.7252	5,657.23	67.0582	5,657.23	68.973	5,657.23	62.9506	5,657.23	53.4687	5,657.23	69.2785	5,657.23	69.5819
5,856.45	91.3958	5,856.45	85.2321	5,856.45	91.3634	5,856.45	82.1665	5,856.45	79.5844	5,856.45	87.7081	5,856.45	80.9567	5,856.45	85.8671	5,856.45	83.8365	5,856.45	83.257	5,856.45	82.7548	5,856.45	77.4831	5,856.45	80.211	5,856.45	68.1713	5,856.45	77.5449	5,856.45	63.4256	5,856.45	77.0718	5,856.45	62.7718	5,856.45	73.1152	5,856.45	60.2648	5,856.45	74.9563	5,856.45	63.8931	5,856.45	78.128	5,856.45	61.2178	5,856.45	70.7253	5,856.45	61.1173	5,856.45	70.2143	5,856.45	67.6401	5,856.45	64.1178	5,856.45	66.9647	5,856.45	63.2499	5,856.45	62.3068	5,856.45	55.7388	5,856.45	60.1814	5,856.45	69.5522	5,856.45	68.1726
6,062.99	91.1232	6,062.99	83.291	6,062.99	91.1637	6,062.99	84.7961	6,062.99	81.2472	6,062.99	88.2208	6,062.99	79.7805	6,062.99	86.0518	6,062.99	85.2728	6,062.99	81.1779	6,062.99	81.0756	6,062.99	74.0589	6,062.99	79.766	6,062.99	71.726	6,062.99	76.8982	6,062.99	66.9916	6,062.99	77.308	6,062.99	70.1041	6,062.99	70.7405	6,062.99	67.405	6,062.99	72.6493	6,062.99	65.8791	6,062.99	73.9163	6,062.99	63.8862	6,062.99	68.9663	6,062.99	60.3351	6,062.99	64.6373	6,062.99	65.3539	6,062.99	66.4029	6,062.99	64.6546	6,062.99	52.0153	6,062.99	53.621	6,062.99	63.4101	6,062.99	54.8691	6,062.99	66.2945	6,062.99	61.2912
6,276.86	90.8008	6,276.86	80.0735	6,276.86	91.1015	6,276.86	86.8448	6,276.86	82.7846	6,276.86	87.9749	6,276.86	81.6881	6,276.86	85.4661	6,276.86	84.5021	6,276.86	79.0032	6,276.86	80.3204	6,276.86	72.9399	6,276.86	79.6814	6,276.86	70.3982	6,276.86	78.3814	6,276.86	69.3151	6,276.86	76.171	6,276.86	68.8082	6,276.86	71.67	6,276.86	67.3862	6,276.86	69.3383	6,276.86	66.041	6,276.86	68.3642	6,276.86	66.0254	6,276.86	68.2724	6,276.86	63.0344	6,276.86	65.9215	6,276.86	64.2039	6,276.86	67.7858	6,276.86	63.9548	6,276.86	53.3994	6,276.86	52.76	6,276.86	65.5576	6,276.86	56.2828	6,276.86	65.4454	6,276.86	63.0168
6,498.05	91.1098	6,498.05	78.7173	6,498.05	91.2356	6,498.05	87.5027	6,498.05	83.7894	6,498.05	87.997	6,498.05	84.4589	6,498.05	84.4454	6,498.05	84.9209	6,498.05	78.1847	6,498.05	76.9624	6,498.05	72.163	6,498.05	79.7088	6,498.05	72.7846	6,498.05	77.174	6,498.05	69.5557	6,498.05	70.6164	6,498.05	69.4381	6,498.05	71.9807	6,498.05	67.7359	6,498.05	69.661	6,498.05	66.3729	6,498.05	60.9073	6,498.05	68.2747	6,498.05	66.7377	6,498.05	66.8049	6,498.05	58.9579	6,498.05	65.1012	6,498.05	66.7415	6,498.05	68.0225	6,498.05	51.478	6,498.05	50.5725	6,498.05	65.3435	6,498.05	59.7681	6,498.05	64.1586	6,498.05	64.2081
6,726.56	90.487	6,726.56	79.0018	6,726.56	90.9594	6,726.56	87.894	6,726.56	83.0488	6,726.56	87.1901	6,726.56	84.4947	6,726.56	83.4079	6,726.56	85.4171	6,726.56	77.4172	6,726.56	74.6819	6,726.56	73.2729	6,726.56	79.7437	6,726.56	74.8994	6,726.56	74.2523	6,726.56	71.3336	6,726.56	73.8983	6,726.56	71.385	6,726.56	71.6541	6,726.56	68.8643	6,726.56	66.193	6,726.56	66.9164	6,726.56	65.4205	6,726.56	66.8687	6,726.56	66.2947	6,726.56	68.9091	6,726.56	51.1485	6,726.56	64.9008	6,726.56	66.362	6,726.56	69.2662	6,726.56	36.9609	6,726.56	52.7334	6,726.56	63.9957	6,726.56	59.0323	6,726.56	65.3432	6,726.56	60.9777
6,963.87	90.0854	6,963.87	80.1073	6,963.87	90.2908	6,963.87	87.7913	6,963.87	80.6957	6,963.87	86.9524	6,963.87	85.9722	6,963.87	82.1538	6,963.87	85.4841	6,963.87	77.2539	6,963.87	73.189	6,963.87	74.6136	6,963.87	78.8086	6,963.87	74.5308	6,963.87	73.6786	6,963.87	72.3985	6,963.87	76.7307	6,963.87	70.0992	6,963.87	67.8593	6,963.87	67.8902	6,963.87	71.5401	6,963.87	66.0693	6,963.87	70.7531	6,963.87	65.5632	6,963.87	65.0045	6,963.87	67.9948	6,963.87	52.6083	6,963.87	62.8145	6,963.87	65.0399	6,963.87	68.6594	6,963.87	58.3802	6,963.87	59.6491	6,963.87	59.4061	6,963.87	62.366	6,963.87	65.1875	6,963.87	59.2829
7,209.96	90.4419	7,209.96	81.1859	7,209.96	90.1203	7,209.96	87.8543	7,209.96	78.1287	7,209.96	86.4666	7,209.96	86.8279	7,209.96	81.3723	7,209.96	83.8676	7,209.96	76.9628	7,209.96	73.6124	7,209.96	75.8505	7,209.96	76.6347	7,209.96	75.1804	7,209.96	79.2314	7,209.96	70.0552	7,209.96	76.2046	7,209.96	68.4174	7,209.96	72.2166	7,209.96	66.5624	7,209.96	74.0899	7,209.96	65.5421	7,209.96	70.228	7,209.96	64.4267	7,209.96	64.9641	7,209.96	65.4662	7,209.96	55.2159	7,209.96	63.1223	7,209.96	58.3158	7,209.96	67.226	7,209.96	62.3221	7,209.96	63.8569	7,209.96	55.5077	7,209.96	56.6401	7,209.96	61.3525	7,209.96	58.1458
7,464.84	90.6768	7,464.84	80.5535	7,464.84	90.0532	7,464.84	87.2963	7,464.84	76.9552	7,464.84	86.3632	7,464.84	87.7082	7,464.84	80.515	7,464.84	82.4486	7,464.84	76.4522	7,464.84	73.5403	7,464.84	76.8397	7,464.84	72.3499	7,464.84	73.7331	7,464.84	80.8132	7,464.84	70.5973	7,464.84	71.7784	7,464.84	66.8999	7,464.84	72.5614	7,464.84	66.1896	7,464.84	70.4861	7,464.84	62.6343	7,464.84	68.5575	7,464.84	62.7172	7,464.84	60.9402	7,464.84	64.9223	7,464.84	59.4556	7,464.84	61.4695	7,464.84	57.5146	7,464.84	66.2667	7,464.84	60.5888	7,464.84	65.1185	7,464.84	63.0022	7,464.84	61.545	7,464.84	62.095	7,464.84	60.3176
7,727.05	90.2554	7,727.05	79.4633	7,727.05	89.6998	7,727.05	88.3004	7,727.05	76.3392	7,727.05	86.1692	7,727.05	87.6242	7,727.05	79.1217	7,727.05	83.3214	7,727.05	76.9471	7,727.05	70.707	7,727.05	76.682	7,727.05	73.9436	7,727.05	73.0903	7,727.05	78.2358	7,727.05	70.4132	7,727.05	70.0299	7,727.05	68.9476	7,727.05	66.011	7,727.05	66.599	7,727.05	68.0891	7,727.05	65.1197	7,727.05	67.9596	7,727.05	63.8197	7,727.05	60.4074	7,727.05	65.0654	7,727.05	59.7831	7,727.05	62.5231	7,727.05	62.0844	7,727.05	65.5185	7,727.05	58.0591	7,727.05	66.6487	7,727.05	66.2618	7,727.05	62.9871	7,727.05	62.2546	7,727.05	62.7501
7,999.51	89.9857	7,999.51	77.6258	7,999.51	89.3889	7,999.51	88.9704	7,999.51	74.4336	7,999.51	85.8473	7,999.51	86.9478	7,999.51	78.2972	7,999.51	83.8032	7,999.51	77.2144	7,999.51	68.4275	7,999.51	76.2806	7,999.51	76.5782	7,999.51	73.9901	7,999.51	71.9783	7,999.51	69.9568	7,999.51	71.2907	7,999.51	68.5971	7,999.51	64.6402	7,999.51	66.086	7,999.51	65.6302	7,999.51	64.6161	7,999.51	62.2202	7,999.51	64.8891	7,999.51	53.8202	7,999.51	65.686	7,999.51	55.556	7,999.51	59.7574	7,999.51	56.2697	7,999.51	65.413	7,999.51	60.0848	7,999.51	66.7631	7,999.51	66.0374	7,999.51	65.4878	7,999.51	59.1586	7,999.51	62.1116
8,282.23	89.8753	8,282.23	77.4223	8,282.23	90.1985	8,282.23	89.5564	8,282.23	72.6893	8,282.23	84.4995	8,282.23	85.6979	8,282.23	76.8158	8,282.23	83.5349	8,282.23	77.4682	8,282.23	67.3629	8,282.23	75.7368	8,282.23	76.0371	8,282.23	72.3573	8,282.23	69.2237	8,282.23	67.2673	8,282.23	70.2667	8,282.23	65.6915	8,282.23	65.1065	8,282.23	63.5342	8,282.23	46.6411	8,282.23	62.2172	8,282.23	57.2172	8,282.23	62.2873	8,282.23	53.2496	8,282.23	62.1726	8,282.23	56.2899	8,282.23	56.9903	8,282.23	61.4175	8,282.23	66.4618	8,282.23	58.911	8,282.23	63.6946	8,282.23	65.2411	8,282.23	67.7363	8,282.23	62.3233	8,282.23	62.9537
8,573.73	89.3809	8,573.73	81.1987	8,573.73	90.7231	8,573.73	90.1055	8,573.73	68.1138	8,573.73	82.6248	8,573.73	84.3883	8,573.73	78.3527	8,573.73	82.8715	8,573.73	78.7084	8,573.73	71.2024	8,573.73	74.5574	8,573.73	72.2109	8,573.73	70.3327	8,573.73	72.1301	8,573.73	68.6018	8,573.73	68.0933	8,573.73	67.6751	8,573.73	60.82	8,573.73	66.3425	8,573.73	64.2614	8,573.73	63.367	8,573.73	64.261	8,573.73	63.4888	8,573.73	53.4904	8,573.73	61.3111	8,573.73	54.9467	8,573.73	59.3423	8,573.73	60.1675	8,573.73	66.1882	8,573.73	54.9313	8,573.73	65.6083	8,573.73	64.3039	8,573.73	65.2913	8,573.73	59.805	8,573.73	65.5441
8,876.95	88.0033	8,876.95	84.7993	8,876.95	90.6091	8,876.95	89.786	8,876.95	71.5784	8,876.95	79.0103	8,876.95	84.333	8,876.95	80.4836	8,876.95	82.4036	8,876.95	78.6908	8,876.95	72.9634	8,876.95	71.7136	8,876.95	68.0234	8,876.95	71.3255	8,876.95	71.2783	8,876.95	71.3041	8,876.95	62.2783	8,876.95	69.3389	8,876.95	55.9993	8,876.95	66.6404	8,876.95	69.1967	8,876.95	65.5627	8,876.95	68.5238	8,876.95	63.7906	8,876.95	56.0759	8,876.95	65.2655	8,876.95	58.5714	8,876.95	52.1296	8,876.95	51.9865	8,876.95	66.9194	8,876.95	62.2763	8,876.95	67.2427	8,876.95	56.1138	8,876.95	65.2781	8,876.95	49.4825	8,876.95	64.8307
9,188.96	85.1764	9,188.96	86.1204	9,188.96	89.6862	9,188.96	88.8182	9,188.96	76.9891	9,188.96	76.4015	9,188.96	84.7944	9,188.96	80.3499	9,188.96	81.7745	9,188.96	76.2159	9,188.96	71.8587	9,188.96	73.9459	9,188.96	70.8723	9,188.96	73.2449	9,188.96	63.9454	9,188.96	71.4103	9,188.96	66.4072	9,188.96	69.6677	9,188.96	62.7651	9,188.96	65.5419	9,188.96	69.6321	9,188.96	65.8286	9,188.96	69.4105	9,188.96	62.8463	9,188.96	58.2471	9,188.96	64.9297	9,188.96	57.6324	9,188.96	49.3543	9,188.96	58.7451	9,188.96	66.8601	9,188.96	58.1386	9,188.96	69.2488	9,188.96	56.5308	9,188.96	66.9772	9,188.96	39.4625	9,188.96	61.9171
9,514.16	83.371	9,514.16	86.7838	9,514.16	88.6348	9,514.16	86.7217	9,514.16	77.8359	9,514.16	76.9165	9,514.16	84.2186	9,514.16	78.3857	9,514.16	79.3466	9,514.16	71.7496	9,514.16	71.4362	9,514.16	74.647	9,514.16	72.1231	9,514.16	73.113	9,514.16	64.6422	9,514.16	68.1331	9,514.16	65.1154	9,514.16	66.914	9,514.16	63.8666	9,514.16	63.1539	9,514.16	68.6387	9,514.16	63.6907	9,514.16	68.7812	9,514.16	61.7011	9,514.16	57.6984	9,514.16	64.4808	9,514.16	48.2526	9,514.16	48.5202	9,514.16	55.745	9,514.16	60.0115	9,514.16	58.1734	9,514.16	67.7571	9,514.16	58.233	9,514.16	62.5727	9,514.16	51.1388	9,514.16	63.5802
9,849.61	82.0333	9,849.61	86.1588	9,849.61	87.3002	9,849.61	84.7033	9,849.61	78.5511	9,849.61	76.189	9,849.61	82.2431	9,849.61	76.9508	9,849.61	78.431	9,849.61	72.1968	9,849.61	73.5766	9,849.61	74.4186	9,849.61	71.8549	9,849.61	72.245	9,849.61	69.5332	9,849.61	64.5674	9,849.61	69.6718	9,849.61	63.8153	9,849.61	66.1469	9,849.61	61.5464	9,849.61	69.9653	9,849.61	60.0944	9,849.61	68.7258	9,849.61	60.7023	9,849.61	58.7062	9,849.61	62.6783	9,849.61	56.0274	9,849.61	44.7985	9,849.61	52.4681	9,849.61	51.7693	9,849.61	59.7668	9,849.61	66.7331	9,849.61	59.0046	9,849.61	61.5477	9,849.61	51.7083	9,849.61	60.9197
10,196.8	82.6775	10,196.8	86.0605	10,196.8	86.6066	10,196.8	82.9582	10,196.8	80.5811	10,196.8	77.5687	10,196.8	79.1637	10,196.8	78.7934	10,196.8	76.5174	10,196.8	73.772	10,196.8	77.8307	10,196.8	74.3035	10,196.8	71.2909	10,196.8	70.4583	10,196.8	71.3441	10,196.8	69.3961	10,196.8	73.338	10,196.8	67.1375	10,196.8	68.2957	10,196.8	65.3268	10,196.8	67.8762	10,196.8	64.1122	10,196.8	69.7708	10,196.8	63.9572	10,196.8	63.6996	10,196.8	65.9257	10,196.8	54.0473	10,196.8	56.6566	10,196.8	60.866	10,196.8	56.947	10,196.8	53.9475	10,196.8	63.5144	10,196.8	63.6761	10,196.8	61.3403	10,196.8	58.6976	10,196.8	62.2143
10,555.7	80.9657	10,555.7	86.5755	10,555.7	86.2999	10,555.7	80.7908	10,555.7	80.1645	10,555.7	80.9704	10,555.7	80.4776	10,555.7	79.6371	10,555.7	77.2875	10,555.7	77.2458	10,555.7	80.9897	10,555.7	75.8984	10,555.7	74.4833	10,555.7	75.3812	10,555.7	73.974	10,555.7	73.8346	10,555.7	72.1304	10,555.7	69.4562	10,555.7	68.9062	10,555.7	68.8851	10,555.7	68.3658	10,555.7	67.2894	10,555.7	70.626	10,555.7	65.6491	10,555.7	64.6518	10,555.7	67.4803	10,555.7	56.4338	10,555.7	63.3662	10,555.7	63.1252	10,555.7	62.307	10,555.7	45.2879	10,555.7	63.3821	10,555.7	64.6047	10,555.7	63.4504	10,555.7	59.0744	10,555.7	64.9369
10,927.7	80.5491	10,927.7	86.6386	10,927.7	85.7359	10,927.7	80.6714	10,927.7	78.3101	10,927.7	81.5795	10,927.7	83.626	10,927.7	80.8094	10,927.7	80.0835	10,927.7	80.1283	10,927.7	82.5718	10,927.7	78.4967	10,927.7	77.9644	10,927.7	77.9463	10,927.7	72.9813	10,927.7	75.3277	10,927.7	75.3065	10,927.7	70.282	10,927.7	65.5077	10,927.7	68.8237	10,927.7	70.075	10,927.7	67.7791	10,927.7	69.0764	10,927.7	64.9612	10,927.7	65.4438	10,927.7	67.2661	10,927.7	62.1676	10,927.7	61.8636	10,927.7	62.9412	10,927.7	64.6376	10,927.7	52.9558	10,927.7	66.4327	10,927.7	63.9284	10,927.7	56.8239	10,927.7	60.4177	10,927.7	63.8585
11,313	81.8357	11,313	87.5563	11,313	87.2558	11,313	81.8178	11,313	80.9232	11,313	80.8587	11,313	84.4672	11,313	83.3908	11,313	80.9288	11,313	80.2566	11,313	82.3208	11,313	79.4276	11,313	77.8932	11,313	77.044	11,313	70.8898	11,313	73.4574	11,313	77.3447	11,313	69.093	11,313	67.2289	11,313	67.7512	11,313	65.9303	11,313	67.4155	11,313	69.5362	11,313	64.61	11,313	59.5848	11,313	67.8221	11,313	61.8848	11,313	61.1911	11,313	64.2334	11,313	64.7047	11,313	50.2428	11,313	64.8682	11,313	62.1237	11,313	54.5082	11,313	59.8136	11,313	63.583
11,712.9	83.9125	11,712.9	88.9524	11,712.9	87.7718	11,712.9	82.2169	11,712.9	82.4781	11,712.9	82.7947	11,712.9	84.0411	11,712.9	83.9454	11,712.9	80.3084	11,712.9	79.1815	11,712.9	81.3509	11,712.9	78.7078	11,712.9	76.5469	11,712.9	75.6998	11,712.9	73.2754	11,712.9	73.0403	11,712.9	74.9863	11,712.9	68.3905	11,712.9	63.8799	11,712.9	65.7974	11,712.9	66.1779	11,712.9	66.2265	11,712.9	68.6137	11,712.9	64.2607	11,712.9	61.9624	11,712.9	66.4333	11,712.9	61.3119	11,712.9	59.9645	11,712.9	63.2705	11,712.9	65.6122	11,712.9	45.626	11,712.9	64.54	11,712.9	63.9412	11,712.9	50.2887	11,712.9	62.6038	11,712.9	61.5775
12,126	85.1032	12,126	88.8414	12,126	87.8736	12,126	82.0857	12,126	82.6291	12,126	83.863	12,126	84.4103	12,126	82.7645	12,126	81.49	12,126	79.5851	12,126	80.5564	12,126	78.1651	12,126	77.5986	12,126	75.3447	12,126	68.9931	12,126	72.1865	12,126	72.9248	12,126	67.4694	12,126	61.9908	12,126	64.005	12,126	65.1279	12,126	64.9701	12,126	69.3316	12,126	61.1655	12,126	61.9678	12,126	64.167	12,126	61.0592	12,126	60.6351	12,126	61.5066	12,126	65.6953	12,126	52.565	12,126	61.4919	12,126	61.986	12,126	48.1594	12,126	59.4462	12,126	64.6054
12,553.7	85.5434	12,553.7	88.0885	12,553.7	87.5052	12,553.7	83.9484	12,553.7	83.8765	12,553.7	82.5334	12,553.7	83.18	12,553.7	83.4364	12,553.7	81.8329	12,553.7	79.933	12,553.7	79.6868	12,553.7	77.8072	12,553.7	76.5061	12,553.7	74.4758	12,553.7	67.4471	12,553.7	71.0585	12,553.7	72.7585	12,553.7	68.3608	12,553.7	63.7537	12,553.7	61.5513	12,553.7	66.661	12,553.7	65.0573	12,553.7	71.0182	12,553.7	62.2757	12,553.7	59.8302	12,553.7	63.0914	12,553.7	56.5172	12,553.7	61.122	12,553.7	58.4158	12,553.7	64.7101	12,553.7	52.6554	12,553.7	60.2293	12,553.7	62.2442	12,553.7	56.1503	12,553.7	57.7581	12,553.7	64.0391
12,996.1	86.0656	12,996.1	87.558	12,996.1	87.0713	12,996.1	84.6052	12,996.1	83.9665	12,996.1	82.015	12,996.1	81.7076	12,996.1	83.5259	12,996.1	81.5508	12,996.1	79.7868	12,996.1	79.8585	12,996.1	77.0895	12,996.1	75.9744	12,996.1	73.4824	12,996.1	68.0777	12,996.1	71.412	12,996.1	72.4725	12,996.1	67.6462	12,996.1	64.3712	12,996.1	59.3557	12,996.1	69.4697	12,996.1	63.7662	12,996.1	71.4867	12,996.1	61.0677	12,996.1	57.402	12,996.1	63.2079	12,996.1	58.9889	12,996.1	59.6691	12,996.1	57.5144	12,996.1	63.9632	12,996.1	50.5576	12,996.1	60.0355	12,996.1	56.8934	12,996.1	57.0995	12,996.1	54.6814	12,996.1	62.5631
13,454.6	87.0638	13,454.6	87.2017	13,454.6	87.2007	13,454.6	84.9247	13,454.6	84.3288	13,454.6	82.6983	13,454.6	83.0342	13,454.6	82.3849	13,454.6	80.7324	13,454.6	79.5055	13,454.6	78.785	13,454.6	77.7087	13,454.6	76.0421	13,454.6	73.2116	13,454.6	64.2316	13,454.6	70.2198	13,454.6	70.7162	13,454.6	66.1337	13,454.6	64.3529	13,454.6	59.5805	13,454.6	69.1968	13,454.6	61.5033	13,454.6	71.5287	13,454.6	60.9748	13,454.6	62.0397	13,454.6	60.2705	13,454.6	54.9153	13,454.6	58.2369	13,454.6	44.6685	13,454.6	63.1375	13,454.6	55.7326	13,454.6	57.2061	13,454.6	57.2597	13,454.6	53.5675	13,454.6	57.8733	13,454.6	59.6941
13,929.2	87.2225	13,929.2	86.8876	13,929.2	86.7807	13,929.2	85.8908	13,929.2	84.4418	13,929.2	82.2783	13,929.2	83.3564	13,929.2	82.7879	13,929.2	80.5278	13,929.2	79.1962	13,929.2	78.2818	13,929.2	77.1616	13,929.2	74.1251	13,929.2	71.1378	13,929.2	67.3664	13,929.2	68.2188	13,929.2	67.2514	13,929.2	65.9126	13,929.2	64.3306	13,929.2	59.0826	13,929.2	70.2127	13,929.2	60.0139	13,929.2	71.5001	13,929.2	61.6911	13,929.2	60.7496	13,929.2	59.0238	13,929.2	50.6323	13,929.2	60.1466	13,929.2	49.6059	13,929.2	61.5963	13,929.2	52.5981	13,929.2	54.4615	13,929.2	56.0085	13,929.2	53.2791	13,929.2	54.3245	13,929.2	59.611
14,419.9	87.7575	14,419.9	86.8344	14,419.9	86.8662	14,419.9	86.3311	14,419.9	84.7599	14,419.9	82.1238	14,419.9	82.1147	14,419.9	82.296	14,419.9	80.7403	14,419.9	78.2616	14,419.9	78.4833	14,419.9	76.4704	14,419.9	73.9075	14,419.9	70.4013	14,419.9	66.5488	14,419.9	67.0531	14,419.9	67.0103	14,419.9	64.2831	14,419.9	63.2337	14,419.9	58.3513	14,419.9	70.2759	14,419.9	55.4257	14,419.9	71.944	14,419.9	61.1693	14,419.9	58.0963	14,419.9	58.3113	14,419.9	53.9883	14,419.9	61.041	14,419.9	36.7568	14,419.9	55.9302	14,419.9	51.5799	14,419.9	57.9033	14,419.9	54.9826	14,419.9	52.1545	14,419.9	46.4364	14,419.9	58.4424
14,928.2	88.0368	14,928.2	87.1918	14,928.2	87.1158	14,928.2	85.9931	14,928.2	84.4969	14,928.2	82.3222	14,928.2	81.6325	14,928.2	81.53	14,928.2	79.5054	14,928.2	76.8162	14,928.2	77.5478	14,928.2	75.7315	14,928.2	72.6365	14,928.2	67.8475	14,928.2	68.7949	14,928.2	64.3888	14,928.2	66.9879	14,928.2	61.4225	14,928.2	64.8911	14,928.2	57.4622	14,928.2	69.7382	14,928.2	52.8908	14,928.2	71.5597	14,928.2	60.4338	14,928.2	59.116	14,928.2	51.0162	14,928.2	39.6752	14,928.2	56.8328	14,928.2	45.4303	14,928.2	57.8574	14,928.2	50.2912	14,928.2	58.3701	14,928.2	50.2112	14,928.2	42.9171	14,928.2	48.7778	14,928.2	53.2567
15,455.6	87.9085	15,455.6	87.5565	15,455.6	87.1118	15,455.6	85.7809	15,455.6	84.8585	15,455.6	81.8473	15,455.6	82.2138	15,455.6	80.8821	15,455.6	80.3451	15,455.6	76.6936	15,455.6	77.8394	15,455.6	74.4424	15,455.6	72.696	15,455.6	68.3405	15,455.6	69.1839	15,455.6	63.6649	15,455.6	63.7106	15,455.6	60.8598	15,455.6	63.969	15,455.6	58.5818	15,455.6	71.0645	15,455.6	46.2142	15,455.6	72.5928	15,455.6	59.9069	15,455.6	58.5732	15,455.6	52.4191	15,455.6	44.7694	15,455.6	55.4019	15,455.6	46.4734	15,455.6	56.4525	15,455.6	42.2357	15,455.6	54.9497	15,455.6	48.9093	15,455.6	53.5272	15,455.6	54.4265	15,455.6	48.8584
16,000.5	87.3372	16,000.5	87.2873	16,000.5	87.0952	16,000.5	85.3774	16,000.5	83.989	16,000.5	81.8271	16,000.5	82.0667	16,000.5	81.1611	16,000.5	79.2229	16,000.5	76.3674	16,000.5	78.3314	16,000.5	74.7499	16,000.5	74.0124	16,000.5	67.5577	16,000.5	67.8506	16,000.5	61.6611	16,000.5	62.1981	16,000.5	60.0324	16,000.5	62.5554	16,000.5	60.062	16,000.5	71.0109	16,000.5	49.4491	16,000.5	72.2227	16,000.5	60.3765	16,000.5	59.7104	16,000.5	48.3855	16,000.5	45.4358	16,000.5	60.5171	16,000.5	44.3296	16,000.5	56.8426	16,000.5	35.3176	16,000.5	58.3501	16,000.5	48.0542	16,000.5	54.0027	16,000.5	53.3482	16,000.5	51.108
16,564.5	86.9693	16,564.5	86.9577	16,564.5	86.9597	16,564.5	84.9008	16,564.5	85.4744	16,564.5	82.2832	16,564.5	82.205	16,564.5	81.2663	16,564.5	81.1641	16,564.5	77.1954	16,564.5	77.5308	16,564.5	74.4133	16,564.5	73.8136	16,564.5	66.4499	16,564.5	67.7047	16,564.5	61.8555	16,564.5	58.4036	16,564.5	59.4732	16,564.5	62.9731	16,564.5	58.773	16,564.5	71.072	16,564.5	53.6453	16,564.5	72.4445	16,564.5	59.7632	16,564.5	61.9385	16,564.5	50.3188	16,564.5	45.6915	16,564.5	58.8265	16,564.5	47.8407	16,564.5	56.202	16,564.5	32.7051	16,564.5	57.1205	16,564.5	44.9924	16,564.5	51.7276	16,564.5	45.8685	16,564.5	48.074
17,148.9	86.91	17,148.9	86.7934	17,148.9	86.6559	17,148.9	85.5321	17,148.9	84.603	17,148.9	82.0909	17,148.9	81.5416	17,148.9	81.3749	17,148.9	80.213	17,148.9	76.317	17,148.9	77.381	17,148.9	73.6419	17,148.9	73.0168	17,148.9	66.0466	17,148.9	66.2698	17,148.9	61.4726	17,148.9	55.0586	17,148.9	59.1195	17,148.9	60.6592	17,148.9	58.0444	17,148.9	71.0042	17,148.9	52.8741	17,148.9	72.2828	17,148.9	58.1134	17,148.9	62.0604	17,148.9	48.7336	17,148.9	45.107	17,148.9	58.9274	17,148.9	37.8175	17,148.9	55.6451	17,148.9	37.6011	17,148.9	55.3952	17,148.9	42.6566	17,148.9	51.259	17,148.9	46.8494	17,148.9	50.1945
17,752.4	87.3203	17,752.4	87.2534	17,752.4	86.6962	17,752.4	85.9867	17,752.4	86.0633	17,752.4	82.543	17,752.4	82.6196	17,752.4	80.9259	17,752.4	80.8211	17,752.4	75.2203	17,752.4	77.0347	17,752.4	72.8769	17,752.4	72.9776	17,752.4	64.6125	17,752.4	65.3508	17,752.4	59.9658	17,752.4	53.6545	17,752.4	59.1152	17,752.4	60.3214	17,752.4	57.1151	17,752.4	69.9918	17,752.4	55.0351	17,752.4	71.5902	17,752.4	56.539	17,752.4	61.5255	17,752.4	50.8649	17,752.4	43.1234	17,752.4	57.0566	17,752.4	22.061	17,752.4	52.698	17,752.4	40.1802	17,752.4	52.1053	17,752.4	45.332	17,752.4	53.025	17,752.4	48.1586	17,752.4	47.584
18,379.4	87.6939	18,379.4	87.5615	18,379.4	86.7087	18,379.4	86.0314	18,379.4	85.4059	18,379.4	82.2633	18,379.4	82.6036	18,379.4	80.9613	18,379.4	79.3621	18,379.4	75.8723	18,379.4	74.8851	18,379.4	72.2247	18,379.4	70.9444	18,379.4	66.4618	18,379.4	63.3532	18,379.4	60.2689	18,379.4	46.0193	18,379.4	57.811	18,379.4	57.5218	18,379.4	54.673	18,379.4	69.0101	18,379.4	54.6558	18,379.4	70.6392	18,379.4	55.0682	18,379.4	60.8437	18,379.4	52.5762	18,379.4	39.6544	18,379.4	57.2617	18,379.4	36.0276	18,379.4	52.3164	18,379.4	41.711	18,379.4	50.8274	18,379.4	45.335	18,379.4	52.175	18,379.4	42.1535	18,379.4	36.4916
19,026.9	87.1887	19,026.9	87.2551	19,026.9	86.4623	19,026.9	85.5848	19,026.9	85.4555	19,026.9	81.5453	19,026.9	81.763	19,026.9	80.7191	19,026.9	79.5603	19,026.9	74.3598	19,026.9	73.9745	19,026.9	71.5905	19,026.9	69.4653	19,026.9	64.6756	19,026.9	60.4695	19,026.9	57.3558	19,026.9	41.4893	19,026.9	57.1276	19,026.9	55.9856	19,026.9	53.4638	19,026.9	67.9361	19,026.9	52.424	19,026.9	69.4813	19,026.9	52.7244	19,026.9	60.6588	19,026.9	53.0581	19,026.9	41.8251	19,026.9	56.1638	19,026.9	35.699	19,026.9	47.3755	19,026.9	43.9816	19,026.9	42.9427	19,026.9	38.2697	19,026.9	49.2521	19,026.9	42.8212	19,026.9	36.294
19,697.8	86.0497	19,697.8	86.3017	19,697.8	85.4682	19,697.8	84.6103	19,697.8	84.3462	19,697.8	80.9413	19,697.8	80.8521	19,697.8	79.9205	19,697.8	78.415	19,697.8	73.036	19,697.8	72.6893	19,697.8	70.6997	19,697.8	65.311	19,697.8	63.8833	19,697.8	57.3945	19,697.8	52.9366	19,697.8	53.2911	19,697.8	53.1418	19,697.8	53.065	19,697.8	44.9913	19,697.8	65.5872	19,697.8	52.2891	19,697.8	67.3346	19,697.8	44.3644	19,697.8	57.9509	19,697.8	55.137	19,697.8	43.3685	19,697.8	54.2142	19,697.8	34.2247	19,697.8	45.2616	19,697.8	49.218	19,697.8	46.7911	19,697.8	42.675	19,697.8	50.85	19,697.8	43.2467	19,697.8	22.5493
19,999.5	84.7469	19,999.5	85.0101	19,999.5	84.3406	19,999.5	83.5545	19,999.5	83.6948	19,999.5	80.6868	19,999.5	80.5752	19,999.5	79.8944	19,999.5	78.1804	19,999.5	72.9874	19,999.5	71.6875	19,999.5	68.7898	19,999.5	62.9722	19,999.5	64.1677	19,999.5	59.0241	19,999.5	54.1642	19,999.5	55.0233	19,999.5	54.1149	19,999.5	58.1329	19,999.5	48.9894	19,999.5	63.4908	19,999.5	51.0947	19,999.5	66.711	19,999.5	49.7409	19,999.5	53.6995	19,999.5	44.7769	19,999.5	46.9874	19,999.5	53.591	19,999.5	49.1909	19,999.5	57.4592	19,999.5	54.8316	19,999.5	57.4844	19,999.5	54.9685	19,999.5	52.0023	19,999.5	40.7023	19,999.5	53.4452
