"SPL Horizontal"
"On-Axis"		"10°"		"-10°"		"20°"		"-20°"		"30°"		"-30°"		"40°"		"-40°"		"50°"		"-50°"		"60°"		"-60°"		"70°"		"-70°"		"80°"		"-80°"		"90°"		"-90°"		"100°"		"-100°"		"110°"		"-110°"		"120°"		"-120°"		"130°"		"-130°"		"140°"		"-140°"		"150°"		"-150°"		"160°"		"-160°"		"170°"		"-170°"		"180°"
"Frequency / Hz"	"Sound Pressure Level / dB (re 20 µPa/V)  [2.83  V @ 1. m]"	"Frequency / Hz"	"Sound Pressure Level / dB (re 20 µPa/V)  [2.83  V @ 1. m]"	"Frequency / Hz"	"Sound Pressure Level / dB (re 20 µPa/V)  [2.83  V @ 1. m]"	"Frequency / Hz"	"Sound Pressure Level / dB (re 20 µPa/V)  [2.83  V @ 1. m]"	"Frequency / Hz"	"Sound Pressure Level / dB (re 20 µPa/V)  [2.83  V @ 1. m]"	"Frequency / Hz"	"Sound Pressure Level / dB (re 20 µPa/V)  [2.83  V @ 1. m]"	"Frequency / Hz"	"Sound Pressure Level / dB (re 20 µPa/V)  [2.83  V @ 1. m]"	"Frequency / Hz"	"Sound Pressure Level / dB (re 20 µPa/V)  [2.83  V @ 1. m]"	"Frequency / Hz"	"Sound Pressure Level / dB (re 20 µPa/V)  [2.83  V @ 1. m]"	"Frequency / Hz"	"Sound Pressure Level / dB (re 20 µPa/V)  [2.83  V @ 1. m]"	"Frequency / Hz"	"Sound Pressure Level / dB (re 20 µPa/V)  [2.83  V @ 1. m]"	"Frequency / Hz"	"Sound Pressure Level / dB (re 20 µPa/V)  [2.83  V @ 1. m]"	"Frequency / Hz"	"Sound Pressure Level / dB (re 20 µPa/V)  [2.83  V @ 1. m]"	"Frequency / Hz"	"Sound Pressure Level / dB (re 20 µPa/V)  [2.83  V @ 1. m]"	"Frequency / Hz"	"Sound Pressure Level / dB (re 20 µPa/V)  [2.83  V @ 1. m]"	"Frequency / Hz"	"Sound Pressure Level / dB (re 20 µPa/V)  [2.83  V @ 1. m]"	"Frequency / Hz"	"Sound Pressure Level / dB (re 20 µPa/V)  [2.83  V @ 1. m]"	"Frequency / Hz"	"Sound Pressure Level / dB (re 20 µPa/V)  [2.83  V @ 1. m]"	"Frequency / Hz"	"Sound Pressure Level / dB (re 20 µPa/V)  [2.83  V @ 1. m]"	"Frequency / Hz"	"Sound Pressure Level / dB (re 20 µPa/V)  [2.83  V @ 1. m]"	"Frequency / Hz"	"Sound Pressure Level / dB (re 20 µPa/V)  [2.83  V @ 1. m]"	"Frequency / Hz"	"Sound Pressure Level / dB (re 20 µPa/V)  [2.83  V @ 1. m]"	"Frequency / Hz"	"Sound Pressure Level / dB (re 20 µPa/V)  [2.83  V @ 1. m]"	"Frequency / Hz"	"Sound Pressure Level / dB (re 20 µPa/V)  [2.83  V @ 1. m]"	"Frequency / Hz"	"Sound Pressure Level / dB (re 20 µPa/V)  [2.83  V @ 1. m]"	"Frequency / Hz"	"Sound Pressure Level / dB (re 20 µPa/V)  [2.83  V @ 1. m]"	"Frequency / Hz"	"Sound Pressure Level / dB (re 20 µPa/V)  [2.83  V @ 1. m]"	"Frequency / Hz"	"Sound Pressure Level / dB (re 20 µPa/V)  [2.83  V @ 1. m]"	"Frequency / Hz"	"Sound Pressure Level / dB (re 20 µPa/V)  [2.83  V @ 1. m]"	"Frequency / Hz"	"Sound Pressure Level / dB (re 20 µPa/V)  [2.83  V @ 1. m]"	"Frequency / Hz"	"Sound Pressure Level / dB (re 20 µPa/V)  [2.83  V @ 1. m]"	"Frequency / Hz"	"Sound Pressure Level / dB (re 20 µPa/V)  [2.83  V @ 1. m]"	"Frequency / Hz"	"Sound Pressure Level / dB (re 20 µPa/V)  [2.83  V @ 1. m]"	"Frequency / Hz"	"Sound Pressure Level / dB (re 20 µPa/V)  [2.83  V @ 1. m]"	"Frequency / Hz"	"Sound Pressure Level / dB (re 20 µPa/V)  [2.83  V @ 1. m]"	"Frequency / Hz"	"Sound Pressure Level / dB (re 20 µPa/V)  [2.83  V @ 1. m]"
20.5078	41.0578	20.5078	40.3115	20.5078	41.6399	20.5078	39.4103	20.5078	42.0551	20.5078	38.3767	20.5078	42.3024	20.5078	37.2551	20.5078	42.3805	20.5078	36.1161	20.5078	42.286	20.5078	35.0462	20.5078	42.0137	20.5078	34.1121	20.5078	41.5562	20.5078	33.3147	20.5078	40.9047	20.5078	32.5734	20.5078	40.0475	20.5078	31.7539	20.5078	38.9691	20.5078	30.7018	20.5078	37.6494	20.5078	29.2473	20.5078	36.0665	20.5078	27.1711	20.5078	34.2043	20.5078	24.1003	20.5078	32.067	20.5078	19.1583	20.5078	29.692	20.5078	10.0491	20.5078	27.1271	20.5078	14.5904	20.5078	24.2939	20.5078	20.6794
21.9727	38.1383	21.9727	38.2997	21.9727	37.9922	21.9727	38.4843	21.9727	37.8435	21.9727	38.6927	21.9727	37.6628	21.9727	38.9213	21.9727	37.4128	21.9727	39.1628	21.9727	37.0551	21.9727	39.4069	21.9727	36.5605	21.9727	39.6415	21.9727	35.9221	21.9727	39.8546	21.9727	35.173	21.9727	40.0352	21.9727	34.4092	21.9727	40.173	21.9727	33.7984	21.9727	40.2575	21.9727	33.5335	21.9727	40.2772	21.9727	33.7148	21.9727	40.2193	21.9727	34.2789	21.9727	40.0698	21.9727	35.0702	21.9727	39.8156	21.9727	35.9466	21.9727	39.446	21.9727	36.8163	21.9727	38.9556	21.9727	37.6264	21.9727	38.3458
23.4375	44.6298	23.4375	44.842	23.4375	44.4424	23.4375	45.075	23.4375	44.2858	23.4375	45.3254	23.4375	44.169	23.4375	45.5899	23.4375	44.1031	23.4375	45.8646	23.4375	44.1	23.4375	46.1457	23.4375	44.1695	23.4375	46.4295	23.4375	44.3166	23.4375	46.7125	23.4375	44.5402	23.4375	46.9906	23.4375	44.8333	23.4375	47.2585	23.4375	45.1841	23.4375	47.5098	23.4375	45.5776	23.4375	47.7362	23.4375	45.9962	23.4375	47.928	23.4375	46.4212	23.4375	48.0748	23.4375	46.8332	23.4375	48.1656	23.4375	47.2137	23.4375	48.1907	23.4375	47.5464	23.4375	48.1428	23.4375	47.8177	23.4375	48.0183
24.9023	40.6697	24.9023	40.7906	24.9023	40.5712	24.9023	40.9457	24.9023	40.4846	24.9023	41.1438	24.9023	40.4052	24.9023	41.388	24.9023	40.3366	24.9023	41.6757	24.9023	40.2906	24.9023	42.0006	24.9023	40.2858	24.9023	42.3543	24.9023	40.3439	24.9023	42.7272	24.9023	40.486	24.9023	43.109	24.9023	40.7273	24.9023	43.4879	24.9023	41.0719	24.9023	43.851	24.9023	41.5096	24.9023	44.1835	24.9023	42.0164	24.9023	44.4701	24.9023	42.5596	24.9023	44.6945	24.9023	43.1034	24.9023	44.841	24.9023	43.614	24.9023	44.8954	24.9023	44.0624	24.9023	44.8471	24.9023	44.4263	24.9023	44.6905
26.3672	38.2594	26.3672	38.6175	26.3672	37.9417	26.3672	39.0009	26.3672	37.6803	26.3672	39.3961	26.3672	37.491	26.3672	39.7929	26.3672	37.3887	26.3672	40.1848	26.3672	37.3865	26.3672	40.5697	26.3672	37.4954	26.3672	40.9486	26.3672	37.7229	26.3672	41.324	26.3672	38.0715	26.3672	41.697	26.3672	38.5355	26.3672	42.0655	26.3672	39.0987	26.3672	42.4226	26.3672	39.7343	26.3672	42.7576	26.3672	40.4075	26.3672	43.0556	26.3672	41.0808	26.3672	43.2994	26.3672	41.718	26.3672	43.471	26.3672	42.2884	26.3672	43.553	26.3672	42.7678	26.3672	43.531	26.3672	43.1396	26.3672	43.3947
27.832	31.459	27.832	31.0324	27.832	31.9927	27.832	30.7496	27.832	32.5972	27.832	30.645	27.832	33.2366	27.832	30.7458	27.832	33.8781	27.832	31.0621	27.832	34.4963	27.832	31.5826	27.832	35.0773	27.832	32.2759	27.832	35.6213	27.832	33.0986	27.832	36.1393	27.832	34.0032	27.832	36.6475	27.832	34.9436	27.832	37.1582	27.832	35.8777	27.832	37.6728	27.832	36.7678	27.832	38.1803	27.832	37.5817	27.832	38.6596	27.832	38.2927	27.832	39.0852	27.832	38.8798	27.832	39.4314	27.832	39.3288	27.832	39.6753	27.832	39.6318	27.832	39.7985	27.832	39.787
29.2969	32.2604	29.2969	32.6907	29.2969	31.7332	29.2969	33.0451	29.2969	31.0887	29.2969	33.3453	29.2969	30.3101	29.2969	33.6161	29.2969	29.3934	29.2969	33.886	29.2969	28.3717	29.2969	34.1863	29.2969	27.366	29.2969	34.5465	29.2969	26.6606	29.2969	34.9869	29.2969	26.6663	29.2969	35.5107	29.2969	27.5722	29.2969	36.1011	29.2969	29.1052	29.2969	36.7236	29.2969	30.8537	29.2969	37.3339	29.2969	32.5569	29.2969	37.8859	29.2969	34.0982	29.2969	38.3374	29.2969	35.4331	29.2969	38.6531	29.2969	36.5461	29.2969	38.8054	29.2969	37.4334	29.2969	38.773	29.2969	38.0966	29.2969	38.5405
30.7617	39.4729	30.7617	39.5424	30.7617	39.3106	30.7617	39.5114	30.7617	39.0648	30.7617	39.3733	30.7617	38.7454	30.7617	39.1223	30.7617	38.3608	30.7617	38.7523	30.7617	37.9139	30.7617	38.2572	30.7617	37.3979	30.7617	37.632	30.7617	36.793	30.7617	36.8761	30.7617	36.064	30.7617	35.9992	30.7617	35.161	30.7617	35.031	30.7617	34.0206	30.7617	34.0311	30.7617	32.5675	30.7617	33.0908	30.7617	30.7269	30.7617	32.3048	30.7617	28.4895	30.7617	31.7101	30.7617	26.1966	30.7617	31.2404	30.7617	25.0693	30.7617	30.7477	30.7617	25.9444	30.7617	30.0622	30.7617	27.6	30.7617	29.0377
32.2266	42.1825	32.2266	42.2015	32.2266	42.078	32.2266	42.1319	32.2266	41.8888	32.2266	41.969	32.2266	41.6129	32.2266	41.7083	32.2266	41.246	32.2266	41.3471	32.2266	40.7831	32.2266	40.8871	32.2266	40.2202	32.2266	40.3379	32.2266	39.5575	32.2266	39.721	32.2266	38.8057	32.2266	39.0746	32.2266	37.9961	32.2266	38.4573	32.2266	37.1957	32.2266	37.9422	32.2266	36.5176	32.2266	37.5974	32.2266	36.1	32.2266	37.4535	32.2266	36.0325	32.2266	37.4825	32.2266	36.2805	32.2266	37.6085	32.2266	36.7052	32.2266	37.7404	32.2266	37.1521	32.2266	37.7992	32.2266	37.5122	32.2266	37.7312
33.6914	42.7373	33.6914	42.6366	33.6914	42.6854	33.6914	42.3828	33.6914	42.4771	33.6914	41.9708	33.6914	42.1034	33.6914	41.3912	33.6914	41.5502	33.6914	40.6308	33.6914	40.796	33.6914	39.6742	33.6914	39.8087	33.6914	38.5067	33.6914	38.5405	33.6914	37.124	33.6914	36.9176	33.6914	35.5597	33.6914	34.8238	33.6914	33.9555	33.6914	32.0779	33.6914	32.6688	33.6914	28.4987	33.6914	32.19	33.6914	25.0551	33.6914	32.6141	33.6914	25.9782	33.6914	33.4845	33.6914	29.1966	33.6914	34.3361	33.6914	31.7154	33.6914	34.9349	33.6914	33.4163	33.6914	35.189	33.6914	34.4873	33.6914	35.0545
35.1562	45.6521	35.1562	45.5855	35.1562	45.5884	35.1562	45.3892	35.1562	45.3906	35.1562	45.06	35.1562	45.0516	35.1562	44.5902	35.1562	44.5625	35.1562	43.9674	35.1562	43.9127	35.1562	43.174	35.1562	43.0896	35.1562	42.185	35.1562	42.0784	35.1562	40.9649	35.1562	40.8616	35.1562	39.4637	35.1562	39.4183	35.1562	37.6113	35.1562	37.7255	35.1562	35.3154	35.1562	35.7659	35.1562	32.4859	35.1562	33.5608	35.1562	29.2307	35.1562	31.2748	35.1562	26.6742	35.1562	29.4118	35.1562	26.6928	35.1562	28.6555	35.1562	28.0786	35.1562	28.9187	35.1562	29.1529	35.1562	29.4131	35.1562	29.5734
36.6211	48.441	36.6211	48.3913	36.6211	48.3748	36.6211	48.2223	36.6211	48.191	36.6211	47.9262	36.6211	47.8839	36.6211	47.4899	36.6211	47.4444	36.6211	46.8954	36.6211	46.8602	36.6211	46.1189	36.6211	46.1155	36.6211	45.1293	36.6211	45.1902	36.6211	43.8842	36.6211	44.0577	36.6211	42.3238	36.6211	42.6833	36.6211	40.3622	36.6211	41.0222	36.6211	37.8776	36.6211	39.0235	36.6211	34.736	36.6211	36.6605	36.6211	31.1143	36.6211	34.0659	36.6211	28.9734	36.6211	31.9162	36.6211	30.1749	36.6211	31.3523	36.6211	32.0117	36.6211	32.135	36.6211	33.1184	36.6211	33.0313	36.6211	33.4244
38.0859	49.714	38.0859	49.5281	38.0859	49.7525	38.0859	49.1909	38.0859	49.6413	38.0859	48.6914	38.0859	49.372	38.0859	48.0104	38.0859	48.9304	38.0859	47.1191	38.0859	48.2951	38.0859	45.9762	38.0859	47.4356	38.0859	44.5224	38.0859	46.307	38.0859	42.6706	38.0859	44.8411	38.0859	40.2948	38.0859	42.9268	38.0859	37.2634	38.0859	40.3647	38.0859	33.8896	38.0859	36.7468	38.0859	32.6814	38.0859	31.153	38.0859	34.8343	38.0859	25.8538	38.0859	37.2526	38.0859	31.6234	38.0859	38.9528	38.0859	35.7838	38.0859	39.9678	38.0859	38.1842	38.0859	40.3943	38.0859	39.5779	38.0859	40.2735
39.5508	51.5477	39.5508	51.4836	39.5508	51.4684	39.5508	51.2753	39.5508	51.2431	39.5508	50.9191	39.5508	50.8657	39.5508	50.4099	39.5508	50.3274	39.5508	49.7447	39.5508	49.6181	39.5508	48.9279	39.5508	48.7299	39.5508	47.984	39.5508	47.6661	39.5508	46.9774	39.5508	46.4625	39.5508	46.0414	39.5508	45.2316	39.5508	45.3813	39.5508	44.2183	39.5508	45.1861	39.5508	43.7592	39.5508	45.4711	39.5508	44.0125	39.5508	46.0573	39.5508	44.7694	39.5508	46.7202	39.5508	45.6889	39.5508	47.3013	39.5508	46.5395	39.5508	47.7158	39.5508	47.2151	39.5508	47.9252	39.5508	47.6769	39.5508	47.9139
41.0156	52.435	41.0156	52.4005	41.0156	52.275	41.0156	52.171	41.0156	51.9154	41.0156	51.7383	41.0156	51.3458	41.0156	51.0849	41.0156	50.5498	41.0156	50.1806	41.0156	49.5016	41.0156	48.9767	41.0156	48.1577	41.0156	47.3963	41.0156	46.4416	41.0156	45.3219	41.0156	44.2144	41.0156	42.6187	41.0156	41.2349	41.0156	39.512	41.0156	37.3027	41.0156	38.3194	41.0156	34.8013	41.0156	40.7071	41.0156	38.023	41.0156	43.5812	41.0156	41.7698	41.0156	45.7777	41.0156	44.4875	41.0156	47.3136	41.0156	46.4046	41.0156	48.3014	41.0156	47.7166	41.0156	48.8141	41.0156	48.5273	41.0156	48.887
42.4805	52.2342	42.4805	51.8935	42.4805	52.3883	42.4805	51.3603	42.4805	52.3603	42.4805	50.6309	42.4805	52.1518	42.4805	49.7158	42.4805	51.7631	42.4805	48.6704	42.4805	51.1964	42.4805	47.6627	42.4805	50.4658	42.4805	47.0504	42.4805	49.6214	42.4805	47.2473	42.4805	48.7934	42.4805	48.2774	42.4805	48.2386	42.4805	49.7339	42.4805	48.2691	42.4805	51.2274	42.4805	48.9852	42.4805	52.562	42.4805	50.1543	42.4805	53.6667	42.4805	51.4556	42.4805	54.5228	42.4805	52.6777	42.4805	55.1298	42.4805	53.721	42.4805	55.4917	42.4805	54.5458	42.4805	55.6123	42.4805	55.1382	42.4805	55.4941
43.9453	55.9953	43.9453	55.8087	43.9453	56.0453	43.9453	55.4886	43.9453	55.9571	43.9453	55.0426	43.9453	55.7294	43.9453	54.4895	43.9453	55.3618	43.9453	53.8719	43.9453	54.8579	43.9453	53.2736	43.9453	54.2328	43.9453	52.8319	43.9453	53.5276	43.9453	52.7087	43.9453	52.8337	43.9453	52.9988	43.9453	52.3125	43.9453	53.6493	43.9453	52.1646	43.9453	54.4999	43.9453	52.505	43.9453	55.3858	43.9453	53.2561	43.9453	56.1928	43.9453	54.2148	43.9453	56.8563	43.9453	55.1914	43.9453	57.3431	43.9453	56.0666	43.9453	57.6369	43.9453	56.7787	43.9453	57.7297	43.9453	57.2994	43.9453	57.6175
45.4102	58.3513	45.4102	58.1987	45.4102	58.3829	45.4102	57.9282	45.4102	58.2927	45.4102	57.5485	45.4102	58.0823	45.4102	57.0796	45.4102	57.7566	45.4102	56.5629	45.4102	57.3283	45.4102	56.0733	45.4102	56.825	45.4102	55.7244	45.4102	56.3011	45.4102	55.6429	45.4102	55.8485	45.4102	55.903	45.4102	55.5921	45.4102	56.4706	45.4102	55.6467	45.4102	57.2256	45.4102	56.0451	45.4102	58.0322	45.4102	56.7108	45.4102	58.7866	45.4102	57.5088	45.4102	59.4238	45.4102	58.3126	45.4102	59.9072	45.4102	59.0342	45.4102	60.2175	45.4102	59.6207	45.4102	60.3452	45.4102	60.0432	45.4102	60.2868
46.875	61.1109	46.875	60.9822	46.875	61.1222	46.875	60.7405	46.875	61.0135	46.875	60.3945	46.875	60.7839	46.875	59.9612	46.875	60.435	46.875	59.4732	46.875	59.9746	46.875	58.9876	46.875	59.4218	46.875	58.5911	46.875	58.8189	46.875	58.3886	46.875	58.244	46.875	58.4619	46.875	57.8185	46.875	58.8198	46.875	57.6793	46.875	59.3887	46.875	57.906	46.875	60.0546	46.875	58.4583	46.875	60.7123	46.875	59.2029	46.875	61.2855	46.875	59.9942	46.875	61.7265	46.875	60.7241	46.875	62.0069	46.875	61.3275	46.875	62.1114	46.875	61.7692	46.875	62.0325
48.3398	62.2132	48.3398	62.0724	48.3398	62.2316	48.3398	61.8133	48.3398	62.126	48.3398	61.4448	48.3398	61.8968	48.3398	60.9861	48.3398	61.5478	48.3398	60.4753	48.3398	61.0903	48.3398	59.9807	48.3398	60.5506	48.3398	59.6061	48.3398	59.9823	48.3398	59.472	48.3398	59.4793	48.3398	59.6593	48.3398	59.1739	48.3398	60.1529	48.3398	59.1926	48.3398	60.8487	48.3398	59.576	48.3398	61.6162	48.3398	60.2441	48.3398	62.3484	48.3398	61.052	48.3398	62.9751	48.3398	61.8655	48.3398	63.4554	48.3398	62.593	48.3398	63.7668	48.3398	63.1813	48.3398	63.8977	48.3398	63.6025	48.3398	63.843
51.2695	64.9919	51.2695	64.9002	51.2695	64.9912	51.2695	64.7237	51.2695	64.8971	51.2695	64.478	51.2695	64.7142	51.2695	64.1908	51.2695	64.455	51.2695	63.906	51.2695	64.1426	51.2695	63.6849	51.2695	63.8158	51.2695	63.5979	51.2695	63.5322	51.2695	63.7031	51.2695	63.3641	51.2695	64.0186	51.2695	63.3814	51.2695	64.5109	51.2695	63.6218	51.2695	65.1104	51.2695	64.0695	51.2695	65.7391	51.2695	64.6616	51.2695	66.3307	51.2695	65.3167	51.2695	66.8374	51.2695	65.9602	51.2695	67.2273	51.2695	66.5359	51.2695	67.4808	51.2695	67.0058	51.2695	67.5872	51.2695	67.3457	51.2695	67.5418
52.7344	67.1974	52.7344	67.1163	52.7344	67.1986	52.7344	66.9617	52.7344	67.1198	52.7344	66.747	52.7344	66.9666	52.7344	66.4958	52.7344	66.7512	52.7344	66.2442	52.7344	66.495	52.7344	66.0412	52.7344	66.2304	52.7344	65.9435	52.7344	66.0024	52.7344	65.9996	52.7344	65.8648	52.7344	66.2311	52.7344	65.869	52.7344	66.6201	52.7344	66.0457	52.7344	67.1162	52.7344	66.3899	52.7344	67.6556	52.7344	66.8615	52.7344	68.1782	52.7344	67.4	52.7344	68.6364	52.7344	67.9432	52.7344	68.9965	52.7344	68.4389	52.7344	69.2366	52.7344	68.8483	52.7344	69.3439	52.7344	69.1451	52.7344	69.313
54.1992	69.6317	54.1992	69.5136	54.1992	69.6732	54.1992	69.3228	54.1992	69.6387	54.1992	69.0688	54.1992	69.5323	54.1992	68.7699	54.1992	69.3625	54.1992	68.4554	54.1992	69.1431	54.1992	68.1681	54.1992	68.8951	54.1992	67.9619	54.1992	68.6484	54.1992	67.8904	54.1992	68.4416	54.1992	67.9887	54.1992	68.3183	54.1992	68.2553	54.1992	68.3165	54.1992	68.6515	54.1992	68.4554	54.1992	69.1163	54.1992	68.7254	54.1992	69.5864	54.1992	69.0904	54.1992	70.0091	54.1992	69.4992	54.1992	70.3462	54.1992	69.8991	54.1992	70.5731	54.1992	70.2453	54.1992	70.6763	54.1992	70.5038	54.1992	70.6518
55.6641	71.2009	55.6641	71.1126	55.6641	71.2079	55.6641	70.9482	55.6641	71.132	55.6641	70.7185	55.6641	70.9752	55.6641	70.4417	55.6641	70.7432	55.6641	70.1463	55.6641	70.4477	55.6641	69.8733	55.6641	70.1088	55.6641	69.6729	55.6641	69.7584	55.6641	69.5955	55.6641	69.4432	55.6641	69.6742	55.6641	69.2218	55.6641	69.9095	55.6641	69.1518	55.6641	70.267	55.6641	69.2684	55.6641	70.6902	55.6641	69.5653	55.6641	71.1187	55.6641	69.9954	55.6641	71.5003	55.6641	70.4894	55.6641	71.7959	55.6641	70.9791	55.6641	71.9791	55.6641	71.4095	55.6641	72.0342	55.6641	71.7425	55.6641	71.9546
58.5938	74.4352	58.5938	74.3116	58.5938	74.4758	58.5938	74.108	58.5938	74.4337	58.5938	73.8327	58.5938	74.3119	58.5938	73.5011	58.5938	74.116	58.5938	73.1392	58.5938	73.8557	58.5938	72.7857	58.5938	73.5462	58.5938	72.4919	58.5938	73.2118	58.5938	72.314	58.5938	72.8883	58.5938	72.2961	58.5938	72.6226	58.5938	72.4509	58.5938	72.466	58.5938	72.7512	58.5938	72.4587	58.5938	73.1407	58.5938	72.6114	58.5938	73.5541	58.5938	72.8982	58.5938	73.9333	58.5938	73.2664	58.5938	74.2351	58.5938	73.6543	58.5938	74.431	58.5938	74.0071	58.5938	74.5057	58.5938	74.2832	58.5938	74.4547
60.0586	75.1661	60.0586	75.0469	60.0586	75.2039	60.0586	74.8532	60.0586	75.1568	60.0586	74.5963	60.0586	75.0243	60.0586	74.2946	60.0586	74.8098	60.0586	73.9756	60.0586	74.5215	60.0586	73.6782	60.0586	74.1763	60.0586	73.4508	60.0586	73.8035	60.0586	73.3437	60.0586	73.4483	60.0586	73.3926	60.0586	73.1716	60.0586	73.6029	60.0586	73.0384	60.0586	73.944	60.0586	73.0947	60.0586	74.3607	60.0586	73.3436	60.0586	74.7907	60.0586	73.7415	60.0586	75.1787	60.0586	74.217	60.0586	75.4826	60.0586	74.6972	60.0586	75.6739	60.0586	75.1228	60.0586	75.7357	60.0586	75.4525	60.0586	75.6611
62.9883	77.9247	62.9883	77.8292	62.9883	77.9408	62.9883	77.6586	62.9883	77.8767	62.9883	77.4219	62.9883	77.7349	62.9883	77.1345	62.9883	77.5221	62.9883	76.8212	62.9883	77.2504	62.9883	76.5177	62.9883	76.9402	62.9883	76.2704	62.9883	76.6224	62.9883	76.1293	62.9883	76.3393	62.9883	76.1335	62.9883	76.141	62.9883	76.2947	62.9883	76.0741	62.9883	76.5901	62.9883	76.1646	62.9883	76.9703	62.9883	76.4055	62.9883	77.3764	62.9883	76.7576	62.9883	77.7542	62.9883	77.1639	62.9883	78.0618	62.9883	77.5662	62.9883	78.2703	62.9883	77.9161	62.9883	78.3625	62.9883	78.1786	62.9883	78.3313
64.4531	79.0603	64.4531	78.9565	64.4531	79.0928	64.4531	78.7853	64.4531	79.0537	64.4531	78.5553	64.4531	78.9459	64.4531	78.2815	64.4531	78.7763	64.4531	77.9875	64.4531	78.5562	64.4531	77.7072	64.4531	78.3034	64.4531	77.4832	64.4531	78.0438	64.4531	77.3603	64.4531	77.8111	64.4531	77.3727	64.4531	77.6445	64.4531	77.5299	64.4531	77.5807	64.4531	77.8105	64.4531	77.6426	64.4531	78.1693	64.4531	77.829	64.4531	78.5522	64.4531	78.1134	64.4531	78.909	64.4531	78.4519	64.4531	79.2003	64.4531	78.7957	64.4531	79.399	64.4531	79.1004	64.4531	79.4893	64.4531	79.3316	64.4531	79.4657
67.3828	81.5503	67.3828	81.4386	67.3828	81.5935	67.3828	81.262	67.3828	81.5666	67.3828	81.0282	67.3828	81.4709	67.3828	80.7494	67.3828	81.31	67.3828	80.445	67.3828	81.091	67.3828	80.1427	67.3828	80.8258	67.3828	79.8781	67.3828	80.5333	67.3828	79.6911	67.3828	80.2406	67.3828	79.6162	67.3828	79.9829	67.3828	79.6701	67.3828	79.7995	67.3828	79.8437	67.3828	79.7246	67.3828	80.1035	67.3828	79.7749	67.3828	80.4022	67.3828	79.9416	67.3828	80.6913	67.3828	80.1912	67.3828	80.9301	67.3828	80.4768	67.3828	81.0892	67.3828	80.7501	67.3828	81.1512	67.3828	80.9707	67.3828	81.11
68.8477	82.6223	68.8477	82.5091	68.8477	82.6649	68.8477	82.3288	68.8477	82.6359	68.8477	82.088	68.8477	82.5361	68.8477	81.7983	68.8477	82.3688	68.8477	81.4774	68.8477	82.1404	68.8477	81.1517	68.8477	81.862	68.8477	80.8562	68.8477	81.5512	68.8477	80.6314	68.8477	81.2338	68.8477	80.5146	68.8477	80.9446	68.8477	80.5272	68.8477	80.7237	68.8477	80.6649	68.8477	80.608	68.8477	80.897	68.8477	80.6187	68.8477	81.1764	68.8477	80.7514	68.8477	81.4533	68.8477	80.9752	68.8477	81.685	68.8477	81.2434	68.8477	81.8402	68.8477	81.5064	68.8477	81.9003	68.8477	81.7218	68.8477	81.859
71.7773	84.3854	71.7773	84.2715	71.7773	84.4325	71.7773	84.0951	71.7773	84.4108	71.7773	83.8635	71.7773	84.3204	71.7773	83.5883	71.7773	84.1634	71.7773	83.2868	71.7773	83.9449	71.7773	82.9838	71.7773	83.6746	71.7773	82.7108	71.7773	83.368	71.7773	82.5034	71.7773	83.0487	71.7773	82.3934	71.7773	82.749	71.7773	82.3983	71.7773	82.5075	71.7773	82.5136	71.7773	82.3616	71.7773	82.7123	71.7773	82.336	71.7773	82.953	71.7773	82.432	71.7773	83.1909	71.7773	82.6249	71.7773	83.3866	71.7773	82.8717	71.7773	83.5108	71.7773	83.1244	71.7773	83.5461	71.7773	83.34	71.7773	83.487
74.707	85.7154	74.707	85.6281	74.707	85.7392	74.707	85.4802	74.707	85.698	74.707	85.2773	74.707	85.592	74.707	85.0282	74.707	85.4231	74.707	84.7468	74.707	85.1956	74.707	84.4532	74.707	84.9178	74.707	84.1741	74.707	84.6031	74.707	83.9412	74.707	84.2729	74.707	83.7854	74.707	83.9565	74.707	83.7281	74.707	83.6905	74.707	83.7731	74.707	83.5121	74.707	83.9028	74.707	83.4486	74.707	84.0832	74.707	83.506	74.707	84.2726	74.707	83.665	74.707	84.432	74.707	83.8863	74.707	84.5304	74.707	84.123	74.707	84.5488	74.707	84.332	74.707	84.4805
77.6367	86.8911	77.6367	86.8103	77.6367	86.9111	77.6367	86.6719	77.6367	86.8687	77.6367	86.4812	77.6367	86.7635	77.6367	86.2469	77.6367	86.5973	77.6367	85.9812	77.6367	86.3737	77.6367	85.7016	77.6367	86.1001	77.6367	85.4309	77.6367	85.7886	77.6367	85.1955	77.6367	85.458	77.6367	85.0219	77.6367	85.1349	77.6367	84.9297	77.6367	84.8523	77.6367	84.9249	77.6367	84.6454	77.6367	84.9963	77.6367	84.5417	77.6367	85.1172	77.6367	84.5512	77.6367	85.2531	77.6367	84.6609	77.6367	85.369	77.6367	84.838	77.6367	85.4367	77.6367	85.0401	77.6367	85.4376	77.6367	85.2265	77.6367	85.3655
79.1016	87.4434	79.1016	87.3747	79.1016	87.4539	79.1016	87.2512	79.1016	87.4046	79.1016	87.0778	79.1016	87.295	79.1016	86.8622	79.1016	87.1265	79.1016	86.6152	79.1016	86.9026	79.1016	86.352	79.1016	86.63	79.1016	86.092	79.1016	86.3203	79.1016	85.8583	79.1016	85.9914	79.1016	85.6745	79.1016	85.6682	79.1016	85.5593	79.1016	85.382	79.1016	85.5209	79.1016	85.1659	79.1016	85.5523	79.1016	85.0469	79.1016	85.6325	79.1016	85.0362	79.1016	85.7316	79.1016	85.1235	79.1016	85.8179	79.1016	85.2794	79.1016	85.8642	79.1016	85.4646	79.1016	85.8525	79.1016	85.6404	79.1016	85.7759
82.0312	88.4442	82.0312	88.3858	82.0312	88.4438	82.0312	88.2712	82.0312	88.3834	82.0312	88.1039	82.0312	88.2624	82.0312	87.8896	82.0312	88.0816	82.0312	87.6364	82.0312	87.8436	82.0312	87.3564	82.0312	87.5541	82.0312	87.0662	82.0312	87.2232	82.0312	86.7866	82.0312	86.8668	82.0312	86.5411	82.0312	86.5083	82.0312	86.3516	82.0312	86.1779	82.0312	86.2327	82.0312	85.9094	82.0312	86.1861	82.0312	85.7328	82.0312	86.1987	82.0312	85.6641	82.0312	86.2456	82.0312	85.6982	82.0312	86.2964	82.0312	85.8097	82.0312	86.323	82.0312	85.9606	82.0312	86.3049	82.0312	86.1121	82.0312	86.233
84.9609	88.9943	84.9609	88.9373	84.9609	88.9978	84.9609	88.8285	84.9609	88.9468	84.9609	88.671	84.9609	88.8414	84.9609	88.4697	84.9609	88.6827	84.9609	88.2321	84.9609	88.4736	84.9609	87.9696	84.9609	88.2199	84.9609	87.6978	84.9609	87.9312	84.9609	87.4369	84.9609	87.6224	84.9609	87.2098	84.9609	87.315	84.9609	87.0384	84.9609	87.0358	84.9609	86.9378	84.9609	86.8138	84.9609	86.9105	84.9609	86.6738	84.9609	86.9443	84.9609	86.6273	84.9609	87.0148	84.9609	86.6676	84.9609	87.0918	84.9609	86.7706	84.9609	87.1468	84.9609	86.902	84.9609	87.1588	84.9609	87.0269	84.9609	87.1179
87.8906	89.6492	87.8906	89.6171	87.8906	89.6275	87.8906	89.5326	87.8906	89.5517	87.8906	89.3982	87.8906	89.4224	87.8906	89.2181	87.8906	89.2415	87.8906	88.9987	87.8906	89.0127	87.8906	88.7492	87.8906	88.7421	87.8906	88.4827	87.8906	88.4394	87.8906	88.2153	87.8906	88.1182	87.8906	87.9659	87.8906	87.7973	87.8906	87.7526	87.8906	87.5	87.8906	87.5897	87.8906	87.2511	87.8906	87.4828	87.8906	87.0724	87.8906	87.4266	87.8906	86.9763	87.8906	87.4061	87.8906	86.9612	87.8906	87.4005	87.8906	87.0111	87.8906	87.3886	87.8906	87.1006	87.8906	87.3546	87.8906	87.2017	87.8906	87.2912
90.8203	90.313	90.8203	90.2626	90.8203	90.313	90.8203	90.1629	90.8203	90.2625	90.8203	90.0155	90.8203	90.1616	90.8203	89.8236	90.8203	90.0115	90.8203	89.5923	90.8203	89.8145	90.8203	89.33	90.8203	89.575	90.8203	89.0487	90.8203	89.3004	90.8203	88.7645	90.8203	89.0023	90.8203	88.4967	90.8203	88.6968	90.8203	88.266	90.8203	88.4048	90.8203	88.0897	90.8203	88.1496	90.8203	87.9771	90.8203	87.9528	90.8203	87.9258	90.8203	87.8282	90.8203	87.9212	90.8203	87.7771	90.8203	87.9411	90.8203	87.7866	90.8203	87.9621	90.8203	87.8341	90.8203	87.9653	90.8203	87.8933	90.8203	87.9416
95.2148	91.1583	95.2148	91.1137	95.2148	91.1601	95.2148	91.0276	95.2148	91.119	95.2148	90.902	95.2148	91.0352	95.2148	90.7402	95.2148	90.91	95.2148	90.5478	95.2148	90.746	95.2148	90.3325	95.2148	90.5477	95.2148	90.1052	95.2148	90.3225	95.2148	89.8794	95.2148	90.081	95.2148	89.6709	95.2148	89.8371	95.2148	89.4952	95.2148	89.6078	95.2148	89.3644	95.2148	89.4107	95.2148	89.2839	95.2148	89.2608	95.2148	89.2498	95.2148	89.167	95.2148	89.2497	95.2148	89.129	95.2148	89.2662	95.2148	89.1369	95.2148	89.2812	95.2148	89.1741	95.2148	89.2814	95.2148	89.2209	95.2148	89.2604
98.1445	91.6942	98.1445	91.6538	98.1445	91.6968	98.1445	91.5765	98.1445	91.6616	98.1445	91.4637	98.1445	91.5892	98.1445	91.318	98.1445	91.4812	98.1445	91.1439	98.1445	91.34	98.1445	90.9473	98.1445	91.1698	98.1445	90.7369	98.1445	90.9762	98.1445	90.5238	98.1445	90.7673	98.1445	90.3207	98.1445	90.553	98.1445	90.1408	98.1445	90.3448	98.1445	89.9954	98.1445	90.1552	98.1445	89.8905	98.1445	89.9956	98.1445	89.8257	98.1445	89.8744	98.1445	89.7937	98.1445	89.7951	98.1445	89.7825	98.1445	89.7546	98.1445	89.7795	98.1445	89.7442	98.1445	89.7749	98.1445	89.7516	98.1445	89.7647
101.074	92.146	101.074	92.1028	101.074	92.154	101.074	92.0253	101.074	92.1269	101.074	91.9146	101.074	92.0653	101.074	91.7734	101.074	91.9702	101.074	91.6057	101.074	91.8434	101.074	91.4177	101.074	91.6877	101.074	91.2178	101.074	91.5074	101.074	91.0163	101.074	91.3084	101.074	90.8252	101.074	91.0988	101.074	90.6561	101.074	90.8889	101.074	90.5182	101.074	90.6907	101.074	90.4164	101.074	90.5169	101.074	90.3492	101.074	90.3784	101.074	90.3098	101.074	90.2821	101.074	90.2876	101.074	90.2282	101.074	90.2718	101.074	90.2101	101.074	90.2548	101.074	90.2166	101.074	90.2348
105.469	92.8742	105.469	92.849	105.469	92.8728	105.469	92.7978	105.469	92.8443	105.469	92.7217	105.469	92.7884	105.469	92.622	105.469	92.7052	105.469	92.5008	105.469	92.5953	105.469	92.3611	105.469	92.46	105.469	92.2071	105.469	92.302	105.469	92.0443	105.469	92.1258	105.469	91.8799	105.469	91.9382	105.469	91.7219	105.469	91.7481	105.469	91.5785	105.469	91.5665	105.469	91.4565	105.469	91.405	105.469	91.359	105.469	91.2741	105.469	91.2852	105.469	91.1802	105.469	91.2305	105.469	91.1246	105.469	91.1886	105.469	91.1028	105.469	91.1544	105.469	91.1064	105.469	91.1259
108.398	93.2282	108.398	93.2148	108.398	93.2171	108.398	93.1764	108.398	93.1817	108.398	93.1132	108.398	93.1227	108.398	93.0256	108.398	93.0406	108.398	92.915	108.398	92.9363	108.398	92.7843	108.398	92.8113	108.398	92.6377	108.398	92.6679	108.398	92.4813	108.398	92.5102	108.398	92.3228	108.398	92.3437	108.398	92.171	108.398	92.1759	108.398	92.0344	108.398	92.016	108.398	91.9194	108.398	91.8736	108.398	91.8287	108.398	91.7575	108.398	91.7609	108.398	91.6733	108.398	91.7112	108.398	91.6223	108.398	91.6736	108.398	91.6009	108.398	91.6432	108.398	91.6023	108.398	91.6185
112.793	93.8783	112.793	93.8495	112.793	93.888	112.793	93.8019	112.793	93.8783	112.793	93.7357	112.793	93.8487	112.793	93.6513	112.793	93.7984	112.793	93.5495	112.793	93.7271	112.793	93.4319	112.793	93.6345	112.793	93.3012	112.793	93.5212	112.793	93.1614	112.793	93.3889	112.793	93.0181	112.793	93.2408	112.793	92.8778	112.793	93.082	112.793	92.747	112.793	92.9199	112.793	92.6313	112.793	92.7631	112.793	92.5342	112.793	92.6211	112.793	92.4566	112.793	92.5023	112.793	92.3973	112.793	92.4121	112.793	92.3542	112.793	92.3524	112.793	92.3261	112.793	92.3212	112.793	92.314
117.188	94.1579	117.188	94.1472	117.188	94.1546	117.188	94.1221	117.188	94.1369	117.188	94.0824	117.188	94.104	117.188	94.0275	117.188	94.0549	117.188	93.9575	117.188	93.9881	117.188	93.8732	117.188	93.9029	117.188	93.7764	117.188	93.7988	117.188	93.6704	117.188	93.6769	117.188	93.559	117.188	93.5399	117.188	93.4469	117.188	93.3928	117.188	93.3381	117.188	93.2433	117.188	93.2357	117.188	93.1009	117.188	93.1417	117.188	92.9758	117.188	93.0563	117.188	92.8773	117.188	92.9792	117.188	92.8114	117.188	92.9104	117.188	92.7799	117.188	92.8515	117.188	92.78	117.188	92.8061
120.117	94.4916	120.117	94.4843	120.117	94.4886	120.117	94.4664	120.117	94.4747	120.117	94.4376	120.117	94.449	120.117	94.3972	120.117	94.41	120.117	94.3449	120.117	94.3559	120.117	94.2809	120.117	94.2853	120.117	94.2057	120.117	94.1973	120.117	94.1209	120.117	94.0922	120.117	94.0285	120.117	93.9724	120.117	93.9308	120.117	93.842	120.117	93.831	120.117	93.708	120.117	93.732	120.117	93.5787	120.117	93.6366	120.117	93.4634	120.117	93.547	120.117	93.3707	120.117	93.4652	120.117	93.3062	120.117	93.3932	120.117	93.2726	120.117	93.3337	120.117	93.2686	120.117	93.2906
124.512	94.7999	124.512	94.7997	124.512	94.7934	124.512	94.7922	124.512	94.7806	124.512	94.7759	124.512	94.7609	124.512	94.7493	124.512	94.7328	124.512	94.711	124.512	94.6946	124.512	94.66	124.512	94.6445	124.512	94.5958	124.512	94.5809	124.512	94.5191	124.512	94.5032	124.512	94.4314	124.512	94.4121	124.512	94.3355	124.512	94.3099	124.512	94.2353	124.512	94.2009	124.512	94.1351	124.512	94.0908	124.512	94.0394	124.512	93.9865	124.512	93.9521	124.512	93.8951	124.512	93.8768	124.512	93.8227	124.512	93.8161	124.512	93.7734	124.512	93.7728	124.512	93.7492	124.512	93.7496
128.906	94.9168	128.906	94.9219	128.906	94.9092	128.906	94.9231	128.906	94.8994	128.906	94.9185	128.906	94.8867	128.906	94.9056	128.906	94.8696	128.906	94.8819	128.906	94.8459	128.906	94.8453	128.906	94.8129	128.906	94.7943	128.906	94.7684	128.906	94.7285	128.906	94.7103	128.906	94.6488	128.906	94.638	128.906	94.5575	128.906	94.5521	128.906	94.4584	128.906	94.4551	128.906	94.3562	128.906	94.3516	128.906	94.2564	128.906	94.2479	128.906	94.1642	128.906	94.1516	128.906	94.0848	128.906	94.07	128.906	94.0227	128.906	94.0093	128.906	93.9815	128.906	93.9736	128.906	93.9645
133.301	94.9369	133.301	94.9434	133.301	94.9306	133.301	94.9486	133.301	94.9251	133.301	94.9499	133.301	94.9197	133.301	94.9443	133.301	94.9126	133.301	94.9289	133.301	94.9012	133.301	94.901	133.301	94.882	133.301	94.8588	133.301	94.8518	133.301	94.8014	133.301	94.8077	133.301	94.7293	133.301	94.7481	133.301	94.6446	133.301	94.6729	133.301	94.5508	133.301	94.5841	133.301	94.4528	133.301	94.486	133.301	94.3561	133.301	94.3847	133.301	94.2667	133.301	94.2879	133.301	94.1901	133.301	94.2033	133.301	94.1312	133.301	94.1379	133.301	94.0941	133.301	94.0966	133.301	94.082
139.16	94.6344	139.16	94.6323	139.16	94.6459	139.16	94.6383	139.16	94.6662	139.16	94.6502	139.16	94.6934	139.16	94.6644	139.16	94.724	139.16	94.6767	139.16	94.7535	139.16	94.6825	139.16	94.7763	139.16	94.6775	139.16	94.7869	139.16	94.6584	139.16	94.7802	139.16	94.6229	139.16	94.7527	139.16	94.5709	139.16	94.7028	139.16	94.504	139.16	94.6317	139.16	94.4262	139.16	94.5433	139.16	94.3431	139.16	94.4442	139.16	94.2618	139.16	94.3431	139.16	94.1896	139.16	94.2495	139.16	94.1339	139.16	94.1727	139.16	94.1011	139.16	94.1199	139.16	94.0957
143.555	94.5219	143.555	94.5244	143.555	94.5335	143.555	94.5391	143.555	94.5589	143.555	94.5626	143.555	94.5956	143.555	94.5897	143.555	94.6393	143.555	94.6144	143.555	94.6842	143.555	94.6306	143.555	94.7236	143.555	94.6322	143.555	94.7505	143.555	94.6147	143.555	94.7583	143.555	94.5753	143.555	94.7421	143.555	94.5136	143.555	94.6988	143.555	94.4322	143.555	94.6282	143.555	94.3364	143.555	94.5332	143.555	94.234	143.555	94.4202	143.555	94.1345	143.555	94.2987	143.555	94.0484	143.555	94.1802	143.555	93.9853	143.555	94.0771	143.555	93.9534	143.555	94.0005	143.555	93.9581
147.949	94.5887	147.949	94.5908	147.949	94.5948	147.949	94.5993	147.949	94.6094	147.949	94.6109	147.949	94.631	147.949	94.6213	147.949	94.6562	147.949	94.6257	147.949	94.6802	147.949	94.6187	147.949	94.6967	147.949	94.5952	147.949	94.6989	147.949	94.5508	147.949	94.6803	147.949	94.483	147.949	94.6357	147.949	94.3913	147.949	94.562	147.949	94.2785	147.949	94.4594	147.949	94.1506	147.949	94.3317	147.949	94.0163	147.949	94.1866	147.949	93.8866	147.949	94.0353	147.949	93.7735	147.949	93.8915	147.949	93.6885	147.949	93.7698	147.949	93.6413	147.949	93.6826	147.949	93.6387
153.809	94.063	153.809	94.0808	153.809	94.0562	153.809	94.1076	153.809	94.0611	153.809	94.1396	153.809	94.0765	153.809	94.1719	153.809	94.0995	153.809	94.1987	153.809	94.1258	153.809	94.2133	153.809	94.1496	153.809	94.2096	153.809	94.1646	153.809	94.1828	153.809	94.1646	153.809	94.13	153.809	94.1443	153.809	94.0518	153.809	94.1004	153.809	93.9518	153.809	94.0319	153.809	93.8369	153.809	93.9406	153.809	93.7167	153.809	93.8322	153.809	93.6018	153.809	93.7151	153.809	93.503	153.809	93.6008	153.809	93.4303	153.809	93.5015	153.809	93.3912	153.809	93.4286	153.809	93.3905
159.668	93.8798	159.668	93.8981	159.668	93.8739	159.668	93.9263	159.668	93.8806	159.668	93.9602	159.668	93.8983	159.668	93.9943	159.668	93.9234	159.668	94.0222	159.668	93.951	159.668	94.037	159.668	93.9749	159.668	94.0324	159.668	93.9886	159.668	94.0031	159.668	93.9858	159.668	93.9458	159.668	93.9607	159.668	93.8601	159.668	93.9096	159.668	93.7485	159.668	93.8307	159.668	93.6174	159.668	93.7256	159.668	93.4766	159.668	93.6	159.668	93.3386	159.668	93.4632	159.668	93.2174	159.668	93.3282	159.668	93.1265	159.668	93.2094	159.668	93.077	159.668	93.1214	159.668	93.0752
165.527	93.5346	165.527	93.5573	165.527	93.5261	165.527	93.5906	165.527	93.5329	165.527	93.6293	165.527	93.5538	165.527	93.6674	165.527	93.585	165.527	93.6985	165.527	93.6209	165.527	93.7168	165.527	93.6543	165.527	93.717	165.527	93.6776	165.527	93.6948	165.527	93.6833	165.527	93.6475	165.527	93.6649	165.527	93.5739	165.527	93.6182	165.527	93.4754	165.527	93.5415	165.527	93.3564	165.527	93.4369	165.527	93.2245	165.527	93.3107	165.527	93.0907	165.527	93.1734	165.527	92.9685	165.527	93.0389	165.527	92.8719	165.527	92.9231	165.527	92.8138	165.527	92.8406	165.527	92.8026
171.387	93.3025	171.387	93.3164	171.387	93.3003	171.387	93.3392	171.387	93.3112	171.387	93.3665	171.387	93.3341	171.387	93.3928	171.387	93.3658	171.387	93.4119	171.387	93.4012	171.387	93.4176	171.387	93.4333	171.387	93.4041	171.387	93.4541	171.387	93.3661	171.387	93.4551	171.387	93.3003	171.387	93.4288	171.387	93.2052	171.387	93.3693	171.387	93.0829	171.387	93.274	171.387	92.9387	171.387	93.1448	171.387	92.7824	171.387	92.9883	171.387	92.6271	171.387	92.8168	171.387	92.4887	171.387	92.6468	171.387	92.3839	171.387	92.4972	171.387	92.3268	171.387	92.386	171.387	92.327
177.246	92.9207	177.246	92.9519	177.246	92.9065	177.246	92.997	177.246	92.9106	177.246	93.0508	177.246	92.9317	177.246	93.1068	177.246	92.9667	177.246	93.1571	177.246	93.0098	177.246	93.1932	177.246	93.0537	177.246	93.207	177.246	93.0896	177.246	93.1919	177.246	93.1087	177.246	93.1432	177.246	93.1027	177.246	93.0598	177.246	93.0653	177.246	92.9443	177.246	92.9934	177.246	92.8033	177.246	92.888	177.246	92.6478	177.246	92.7551	177.246	92.4918	177.246	92.6058	177.246	92.3518	177.246	92.4557	177.246	92.2441	177.246	92.3228	177.246	92.1827	177.246	92.225	177.246	92.1759
183.105	92.7078	183.105	92.752	183.105	92.6781	183.105	92.8048	183.105	92.6669	183.105	92.8591	183.105	92.6754	183.105	92.9073	183.105	92.702	183.105	92.9423	183.105	92.7421	183.105	92.9575	183.105	92.7882	183.105	92.9475	183.105	92.8311	183.105	92.9082	183.105	92.8605	183.105	92.8376	183.105	92.8657	183.105	92.7359	183.105	92.838	183.105	92.6065	183.105	92.7716	183.105	92.4564	183.105	92.666	183.105	92.2965	183.105	92.5264	183.105	92.1407	183.105	92.3647	183.105	92.0051	183.105	92.1982	183.105	91.9058	183.105	92.047	183.105	91.8562	183.105	91.9306	183.105	91.8644
188.965	92.922	188.965	92.9724	188.965	92.87	188.965	93.0163	188.965	92.8201	188.965	93.048	188.965	92.7743	188.965	93.0612	188.965	92.7325	188.965	93.0495	188.965	92.6925	188.965	93.0072	188.965	92.6495	188.965	92.9294	188.965	92.5963	188.965	92.8124	188.965	92.5242	188.965	92.6542	188.965	92.4243	188.965	92.4557	188.965	92.2891	188.965	92.221	188.965	92.1153	188.965	91.9589	188.965	91.9048	188.965	91.6829	188.965	91.6669	188.965	91.4113	188.965	91.4182	188.965	91.1657	188.965	91.1819	188.965	90.9692	188.965	90.9846	188.965	90.843	188.965	90.8518	188.965	90.8022
196.289	92.4859	196.289	92.5534	196.289	92.4364	196.289	92.6335	196.289	92.4062	196.289	92.7178	196.289	92.3934	196.289	92.7954	196.289	92.3934	196.289	92.8546	196.289	92.3999	196.289	92.8839	196.289	92.4062	196.289	92.8731	196.289	92.4054	196.289	92.8148	196.289	92.3909	196.289	92.7052	196.289	92.3562	196.289	92.5452	196.289	92.295	196.289	92.3409	196.289	92.2017	196.289	92.1042	196.289	92.0733	196.289	91.8518	196.289	91.911	196.289	91.6051	196.289	91.7232	196.289	91.3879	196.289	91.526	196.289	91.2243	196.289	91.3433	196.289	91.1339	196.289	91.2023	196.289	91.1273
203.613	92.2532	203.613	92.305	203.613	92.2204	203.613	92.3684	203.613	92.2107	203.613	92.4344	203.613	92.2241	203.613	92.4938	203.613	92.2557	203.613	92.5386	203.613	92.2976	203.613	92.5617	203.613	92.3393	203.613	92.5574	203.613	92.3695	203.613	92.5207	203.613	92.3775	203.613	92.4479	203.613	92.3541	203.613	92.337	203.613	92.2928	203.613	92.189	203.613	92.1911	203.613	92.0095	203.613	92.0515	203.613	91.8099	203.613	91.8819	203.613	91.6072	203.613	91.6959	203.613	91.4226	203.613	91.5117	203.613	91.2786	203.613	91.3508	203.613	91.1935	203.613	91.234	203.613	91.1784
210.938	92.0329	210.938	92.0835	210.938	92.005	210.938	92.1504	210.938	92.0034	210.938	92.2253	210.938	92.0284	210.938	92.2977	210.938	92.0767	210.938	92.3555	210.938	92.1417	210.938	92.3864	210.938	92.2138	210.938	92.379	210.938	92.2819	210.938	92.3254	210.938	92.3342	210.938	92.2228	210.938	92.3591	210.938	92.0745	210.938	92.3459	210.938	91.8906	210.938	92.2862	210.938	91.6866	210.938	92.1759	210.938	91.4819	210.938	92.0174	210.938	91.2974	210.938	91.8211	210.938	91.1528	210.938	91.606	210.938	91.0648	210.938	91.3969	210.938	91.045	210.938	91.2202	210.938	91.0982
218.262	91.4336	218.262	91.4836	218.262	91.4171	218.262	91.5632	218.262	91.4347	218.262	91.6643	218.262	91.4837	218.262	91.7757	218.262	91.5594	218.262	91.8837	218.262	91.6543	218.262	91.9742	218.262	91.7591	218.262	92.0346	218.262	91.8623	218.262	92.0555	218.262	91.9516	218.262	92.0318	218.262	92.0147	218.262	91.9633	218.262	92.0414	218.262	91.8544	218.262	92.0248	218.262	91.7143	218.262	91.9624	218.262	91.557	218.262	91.8568	218.262	91.4006	218.262	91.7167	218.262	91.2663	218.262	91.557	218.262	91.1744	218.262	91.3978	218.262	91.1406	218.262	91.2621	218.262	91.1714
225.586	91.415	225.586	91.4835	225.586	91.3685	225.586	91.5718	225.586	91.3445	225.586	91.675	225.586	91.342	225.586	91.785	225.586	91.3591	225.586	91.8905	225.586	91.3919	225.586	91.978	225.586	91.435	225.586	92.0334	225.586	91.4806	225.586	92.0445	225.586	91.5196	225.586	92.0028	225.586	91.5421	225.586	91.9053	225.586	91.5387	225.586	91.7558	225.586	91.5018	225.586	91.5649	225.586	91.4271	225.586	91.3499	225.586	91.3158	225.586	91.1333	225.586	91.1756	225.586	90.9401	225.586	91.0218	225.586	90.7936	225.586	90.8759	225.586	90.7118	225.586	90.7622	225.586	90.7026
232.91	91.0209	232.91	91.0979	232.91	90.9682	232.91	91.1939	232.91	90.9434	232.91	91.3025	232.91	90.9479	232.91	91.4157	232.91	90.9799	232.91	91.524	232.91	91.0347	232.91	91.6159	232.91	91.1045	232.91	91.6786	232.91	91.1793	232.91	91.6997	232.91	91.2475	232.91	91.6695	232.91	91.297	232.91	91.5839	232.91	91.3165	232.91	91.4458	232.91	91.2967	232.91	91.2662	232.91	91.2325	232.91	91.0631	232.91	91.125	232.91	90.8597	232.91	90.9831	232.91	90.6805	232.91	90.8237	232.91	90.5478	232.91	90.6701	232.91	90.4782	232.91	90.5479	232.91	90.4793
241.699	90.4221	241.699	90.4842	241.699	90.377	241.699	90.5591	241.699	90.3536	241.699	90.6428	241.699	90.3557	241.699	90.7309	241.699	90.3848	241.699	90.8178	241.699	90.4389	241.699	90.8954	241.699	90.5109	241.699	90.9535	241.699	90.59	241.699	90.9807	241.699	90.6624	241.699	90.9663	241.699	90.7141	241.699	90.9024	241.699	90.7331	241.699	90.7872	241.699	90.7109	241.699	90.6269	241.699	90.6439	241.699	90.4366	241.699	90.5351	241.699	90.2399	241.699	90.394	241.699	90.0643	241.699	90.2366	241.699	89.9361	241.699	90.0837	241.699	89.8736	241.699	89.9585	241.699	89.8831
250.488	90.8263	250.488	90.8655	250.488	90.7804	250.488	90.8949	250.488	90.7315	250.488	90.9123	250.488	90.6845	250.488	90.9164	250.488	90.6447	250.488	90.9058	250.488	90.6168	250.488	90.8787	250.488	90.6036	250.488	90.8319	250.488	90.604	250.488	90.7613	250.488	90.6115	250.488	90.6624	250.488	90.6153	250.488	90.5319	250.488	90.6014	250.488	90.3702	250.488	90.5561	250.488	90.1839	250.488	90.4694	250.488	89.9863	250.488	90.3387	250.488	89.7972	250.488	90.1706	250.488	89.6396	250.488	89.9815	250.488	89.5346	250.488	89.7952	250.488	89.4974	250.488	89.6381	250.488	89.5337
259.277	90.7792	259.277	90.9126	259.277	90.6504	259.277	91.0448	259.277	90.5301	259.277	91.1667	259.277	90.4217	259.277	91.2673	259.277	90.3296	259.277	91.3359	259.277	90.2586	259.277	91.3656	259.277	90.2112	259.277	91.3532	259.277	90.1853	259.277	91.2984	259.277	90.1737	259.277	91.201	259.277	90.1645	259.277	91.0592	259.277	90.1446	259.277	90.871	259.277	90.1026	259.277	90.6386	259.277	90.0321	259.277	90.3731	259.277	89.9327	259.277	90.0971	259.277	89.8112	259.277	89.841	259.277	89.6814	259.277	89.636	259.277	89.5633	259.277	89.5045	259.277	89.4801	259.277	89.4547
268.066	90.8093	268.066	90.9449	268.066	90.6613	268.066	91.0732	268.066	90.5028	268.066	91.2008	268.066	90.3444	268.066	91.329	268.066	90.2007	268.066	91.4501	268.066	90.0852	268.066	91.5492	268.066	90.0051	268.066	91.6087	268.066	89.9602	268.066	91.6129	268.066	89.9429	268.066	91.5507	268.066	89.9394	268.066	91.4171	268.066	89.9322	268.066	91.214	268.066	89.9042	268.066	90.951	268.066	89.8442	268.066	90.6452	268.066	89.7512	268.066	90.3209	268.066	89.6357	268.066	90.0077	268.066	89.5183	268.066	89.7365	268.066	89.4252	268.066	89.5338	268.066	89.3836	268.066	89.4157
276.855	90.3262	276.855	90.5105	276.855	90.1801	276.855	90.7155	276.855	90.0761	276.855	90.9163	276.855	90.0056	276.855	91.0891	276.855	89.9538	276.855	91.2178	276.855	89.9069	276.855	91.2993	276.855	89.857	276.855	91.3425	276.855	89.8024	276.855	91.3635	276.855	89.7465	276.855	91.3755	276.855	89.6963	276.855	91.3798	276.855	89.6593	276.855	91.363	276.855	89.6404	276.855	91.3034	276.855	89.6389	276.855	91.1839	276.855	89.6508	276.855	91.0016	276.855	89.6743	276.855	90.771	276.855	89.7147	276.855	90.5183	276.855	89.7844	276.855	90.2734	276.855	89.8973	276.855	90.0613
287.109	89.2599	287.109	89.2235	287.109	89.3247	287.109	89.2325	287.109	89.4043	287.109	89.3006	287.109	89.4921	287.109	89.4291	287.109	89.587	287.109	89.6022	287.109	89.689	287.109	89.7898	287.109	89.7951	287.109	89.9579	287.109	89.8971	287.109	90.0802	287.109	89.9829	287.109	90.1457	287.109	90.0417	287.109	90.1591	287.109	90.0697	287.109	90.1338	287.109	90.0717	287.109	90.0836	287.109	90.0582	287.109	90.018	287.109	90.0375	287.109	89.9447	287.109	90.0105	287.109	89.8743	287.109	89.9726	287.109	89.8217	287.109	89.9213	287.109	89.8013	287.109	89.8642	287.109	89.8182
297.363	90.0717	297.363	90.0344	297.363	90.0656	297.363	89.9739	297.363	90.0048	297.363	89.912	297.363	89.8908	297.363	89.8641	297.363	89.7373	297.363	89.8326	297.363	89.5672	297.363	89.8073	297.363	89.4074	297.363	89.7703	297.363	89.2821	297.363	89.7047	297.363	89.206	297.363	89.6024	297.363	89.179	297.363	89.4693	297.363	89.1866	297.363	89.3251	297.363	89.2069	297.363	89.1977	297.363	89.2206	297.363	89.1111	297.363	89.2181	297.363	89.0737	297.363	89.202	297.363	89.0759	297.363	89.1813	297.363	89.0981	297.363	89.1641	297.363	89.1224	297.363	89.1519	297.363	89.14
307.617	90.1869	307.617	90.0811	307.617	90.2591	307.617	89.9541	307.617	90.2881	307.617	89.8203	307.617	90.2687	307.617	89.694	307.617	90.201	307.617	89.5858	307.617	90.0906	307.617	89.499	307.617	89.9477	307.617	89.428	307.617	89.7847	307.617	89.3601	307.617	89.6144	307.617	89.279	307.617	89.4494	307.617	89.1701	307.617	89.2995	307.617	89.0254	307.617	89.1681	307.617	88.8488	307.617	89.049	307.617	88.6576	307.617	88.9281	307.617	88.4786	307.617	88.7924	307.617	88.338	307.617	88.6399	307.617	88.2519	307.617	88.4844	307.617	88.2257	307.617	88.3502	307.617	88.2597
319.336	90.0959	319.336	90.0005	319.336	90.1433	319.336	89.8653	319.336	90.1418	319.336	89.7061	319.336	90.096	319.336	89.5422	319.336	90.0125	319.336	89.3902	319.336	89.897	319.336	89.2565	319.336	89.7521	319.336	89.1346	319.336	89.5778	319.336	89.0104	319.336	89.3753	319.336	88.8699	319.336	89.1524	319.336	88.7075	319.336	88.9268	319.336	88.5274	319.336	88.7228	319.336	88.3413	319.336	88.5606	319.336	88.1651	319.336	88.4435	319.336	88.0158	319.336	88.3553	319.336	87.9099	319.336	88.2705	319.336	87.8618	319.336	88.171	319.336	87.878	319.336	88.0578	319.336	87.9508
329.59	89.3911	329.59	89.301	329.59	89.4576	329.59	89.1923	329.59	89.496	329.59	89.0679	329.59	89.5054	329.59	88.9296	329.59	89.4889	329.59	88.7803	329.59	89.4507	329.59	88.625	329.59	89.3908	329.59	88.4699	329.59	89.3013	329.59	88.3197	329.59	89.1679	329.59	88.1751	329.59	88.9766	329.59	88.0323	329.59	88.7241	329.59	87.8848	329.59	88.4266	329.59	87.7295	329.59	88.1229	329.59	87.5736	329.59	87.8623	329.59	87.4381	329.59	87.6801	329.59	87.3495	329.59	87.5772	329.59	87.3243	329.59	87.5217	329.59	87.3556	329.59	87.4744	329.59	87.4156
341.309	89.0613	341.309	88.9425	341.309	89.1119	341.309	88.7646	341.309	89.0984	341.309	88.5501	341.309	89.0337	341.309	88.3295	341.309	88.9352	341.309	88.1273	341.309	88.819	341.309	87.947	341.309	88.6965	341.309	87.7686	341.309	88.5726	341.309	87.5622	341.309	88.4462	341.309	87.3109	341.309	88.3128	341.309	87.0253	341.309	88.1677	341.309	86.7419	341.309	88.0084	341.309	86.507	341.309	87.8373	341.309	86.3546	341.309	87.6615	341.309	86.2955	341.309	87.4874	341.309	86.3219	341.309	87.3145	341.309	86.4186	341.309	87.136	341.309	86.5684	341.309	86.9465	341.309	86.7516
353.027	88.4416	353.027	88.4021	353.027	88.4519	353.027	88.3225	353.027	88.4441	353.027	88.1954	353.027	88.429	353.027	88.022	353.027	88.4164	353.027	87.816	353.027	88.4124	353.027	87.6037	353.027	88.4142	353.027	87.4151	353.027	88.4047	353.027	87.2694	353.027	88.3538	353.027	87.1615	353.027	88.2288	353.027	87.0622	353.027	88.0091	353.027	86.9351	353.027	87.6986	353.027	86.7603	353.027	87.3315	353.027	86.5522	353.027	86.9669	353.027	86.3575	353.027	86.6704	353.027	86.2297	353.027	86.4815	353.027	86.1938	353.027	86.3886	353.027	86.2298	353.027	86.3407	353.027	86.2903
366.211	88.6266	366.211	88.4739	366.211	88.7355	366.211	88.2805	366.211	88.7952	366.211	88.0528	366.211	88.7977	366.211	87.8054	366.211	88.7394	366.211	87.5558	366.211	88.6296	366.211	87.3128	366.211	88.4919	366.211	87.069	366.211	88.3569	366.211	86.8105	366.211	88.2478	366.211	86.5387	366.211	88.1688	366.211	86.2838	366.211	88.1028	366.211	86.0927	366.211	88.0197	366.211	85.9942	366.211	87.8903	366.211	85.9797	366.211	87.7016	366.211	86.0195	366.211	87.4643	366.211	86.0937	366.211	87.2065	366.211	86.2002	366.211	86.9558	366.211	86.3431	366.211	86.7261	366.211	86.5206
379.395	89.2095	379.395	89.2191	379.395	89.1584	379.395	89.1729	379.395	89.0812	379.395	89.0595	379.395	88.993	379.395	88.8744	379.395	88.906	379.395	88.6247	379.395	88.8281	379.395	88.3302	379.395	88.7641	379.395	88.0167	379.395	88.718	379.395	87.7048	379.395	88.6922	379.395	87.4067	379.395	88.684	379.395	87.1357	379.395	88.6819	379.395	86.921	379.395	88.6649	379.395	86.8053	379.395	88.6096	379.395	86.8189	379.395	88.5009	379.395	86.9518	379.395	88.3425	379.395	87.1527	379.395	88.1583	379.395	87.3612	379.395	87.9797	379.395	87.5399	379.395	87.8248	379.395	87.6867
392.578	90.284	392.578	90.303	392.578	90.2157	392.578	90.2615	392.578	90.1016	392.578	90.1466	392.578	89.9401	392.578	89.9535	392.578	89.7324	392.578	89.692	392.578	89.4916	392.578	89.3843	392.578	89.2471	392.578	89.0559	392.578	89.0405	392.578	88.729	392.578	88.911	392.578	88.4219	392.578	88.8729	392.578	88.155	392.578	88.9013	392.578	87.9522	392.578	88.9404	392.578	87.8349	392.578	88.9304	392.578	87.8112	392.578	88.8375	392.578	87.868	392.578	88.6713	392.578	87.9707	392.578	88.4807	392.578	88.0753	392.578	88.3251	392.578	88.1492	392.578	88.2347	392.578	88.1912
405.762	91.74	405.762	91.7096	405.762	91.6823	405.762	91.5865	405.762	91.5427	405.762	91.3732	405.762	91.3264	405.762	91.0815	405.762	91.0389	405.762	90.7283	405.762	90.6906	405.762	90.3267	405.762	90.3024	405.762	89.8836	405.762	89.9133	405.762	89.4082	405.762	89.5841	405.762	88.9312	405.762	89.3835	405.762	88.5184	405.762	89.3477	405.762	88.2554	405.762	89.445	405.762	88.1955	405.762	89.5897	405.762	88.313	405.762	89.6949	405.762	88.5215	405.762	89.7123	405.762	88.7358	405.762	89.6389	405.762	88.9141	405.762	89.5034	405.762	89.0591	405.762	89.3459	405.762	89.1963
420.41	91.9365	420.41	91.9672	420.41	91.8238	420.41	91.9112	420.41	91.6444	420.41	91.772	420.41	91.4225	420.41	91.5593	420.41	91.1849	420.41	91.287	420.41	90.9506	420.41	90.9728	420.41	90.7187	420.41	90.6368	420.41	90.4643	420.41	90.2955	420.41	90.1522	420.41	89.9519	420.41	89.7711	420.41	89.5944	420.41	89.3702	420.41	89.2162	420.41	89.0628	420.41	88.8468	420.41	88.9598	420.41	88.5671	420.41	89.0765	420.41	88.4735	420.41	89.3186	420.41	88.6013	420.41	89.5584	420.41	88.8912	420.41	89.6988	420.41	89.2331	420.41	89.6894	420.41	89.523
435.059	91.5274	435.059	91.5763	435.059	91.4175	435.059	91.5585	435.059	91.2562	435.059	91.4671	435.059	91.0577	435.059	91.2907	435.059	90.8363	435.059	91.017	435.059	90.6002	435.059	90.6395	435.059	90.35	435.059	90.1647	435.059	90.0811	435.059	89.618	435.059	89.7901	435.059	89.0464	435.059	89.4788	435.059	88.5164	435.059	89.1585	435.059	88.107	435.059	88.8537	435.059	87.8952	435.059	88.6076	435.059	87.9268	435.059	88.4852	435.059	88.1828	435.059	88.5477	435.059	88.5751	435.059	88.7909	435.059	88.9824	435.059	89.11	435.059	89.2931	435.059	89.3577	435.059	89.4289
451.172	91.6866	451.172	91.6874	451.172	91.6227	451.172	91.6273	451.172	91.4747	451.172	91.493	451.172	91.2132	451.172	91.2678	451.172	90.8197	451.172	90.945	451.172	90.3051	451.172	90.5347	451.172	89.7205	451.172	90.062	451.172	89.1515	451.172	89.56	451.172	88.6918	451.172	89.0639	451.172	88.3994	451.172	88.6088	451.172	88.2653	451.172	88.2279	451.172	88.2263	451.172	87.9481	451.172	88.2089	451.172	87.7864	451.172	88.165	451.172	87.7431	451.172	88.0847	451.172	87.7905	451.172	87.9927	451.172	87.871	451.172	87.9291	451.172	87.9246	451.172	87.9152	451.172	87.9297
465.82	91.4854	465.82	91.5493	465.82	91.3624	465.82	91.5423	465.82	91.188	465.82	91.4465	465.82	90.9703	465.82	91.2443	465.82	90.7148	465.82	90.9299	465.82	90.4164	465.82	90.515	465.82	90.0581	465.82	90.0224	465.82	89.6249	465.82	89.4761	465.82	89.1286	465.82	88.904	465.82	88.6286	465.82	88.3566	465.82	88.2249	465.82	87.9143	465.82	88.0027	465.82	87.658	465.82	87.9652	465.82	87.6181	465.82	88.0411	465.82	87.7569	465.82	88.1573	465.82	87.995	465.82	88.2811	465.82	88.2447	465.82	88.4013	465.82	88.4324	465.82	88.4937	465.82	88.5156
483.398	91.7273	483.398	91.6718	483.398	91.6994	483.398	91.5739	483.398	91.5618	483.398	91.4711	483.398	91.3138	483.398	91.3741	483.398	90.9854	483.398	91.2494	483.398	90.6239	483.398	91.0314	483.398	90.2596	483.398	90.6615	483.398	89.8777	483.398	90.1266	483.398	89.4312	483.398	89.473	483.398	88.8977	483.398	88.7882	483.398	88.3387	483.398	88.1697	483.398	87.9052	483.398	87.7087	483.398	87.7461	483.398	87.4881	483.398	87.873	483.398	87.5493	483.398	88.1536	483.398	87.8366	483.398	88.4393	483.398	88.2088	483.398	88.6468	483.398	88.5255	483.398	88.7437	483.398	88.7088
499.512	91.7047	499.512	91.7803	499.512	91.5344	499.512	91.7448	499.512	91.2959	499.512	91.5978	499.512	91.0154	499.512	91.354	499.512	90.7067	499.512	91.0361	499.512	90.3708	499.512	90.6596	499.512	90.0034	499.512	90.22	499.512	89.6018	499.512	89.7037	499.512	89.1644	499.512	89.1212	499.512	88.6957	499.512	88.5407	499.512	88.2275	499.512	88.082	499.512	87.8432	499.512	87.846	499.512	87.6602	499.512	87.8452	499.512	87.7447	499.512	88.0203	499.512	88.0408	499.512	88.2946	499.512	88.4127	499.512	88.5927	499.512	88.7345	499.512	88.8376	499.512	88.9289	499.512	88.9624
517.09	90.5219	517.09	90.542	517.09	90.4642	517.09	90.5196	517.09	90.34	517.09	90.4253	517.09	90.1124	517.09	90.2398	517.09	89.7687	517.09	89.9704	517.09	89.3304	517.09	89.6271	517.09	88.8339	517.09	89.1915	517.09	88.3029	517.09	88.6247	517.09	87.7414	517.09	87.9183	517.09	87.1508	517.09	87.1447	517.09	86.5499	517.09	86.4654	517.09	85.9846	517.09	86.0658	517.09	85.5387	517.09	86.0224	517.09	85.3394	517.09	86.2444	517.09	85.4906	517.09	86.5801	517.09	85.9475	517.09	86.9124	517.09	86.5117	517.09	87.1462	517.09	86.9676	517.09	87.1859
536.133	89.3206	536.133	89.2455	536.133	89.3231	536.133	89.1221	536.133	89.231	536.133	88.965	536.133	89.0396	536.133	88.7757	536.133	88.7611	536.133	88.5417	536.133	88.4058	536.133	88.2388	536.133	87.9708	536.133	87.8447	536.133	87.4542	536.133	87.3574	536.133	86.8676	536.133	86.7949	536.133	86.2187	536.133	86.1795	536.133	85.5007	536.133	85.5504	536.133	84.7539	536.133	85.0135	536.133	84.1548	536.133	84.7349	536.133	83.9333	536.133	84.7986	536.133	84.114	536.133	85.0968	536.133	84.5093	536.133	85.422	536.133	84.9447	536.133	85.605	536.133	85.3239	536.133	85.5677
555.176	88.7857	555.176	88.8637	555.176	88.6829	555.176	88.8903	555.176	88.5824	555.176	88.8379	555.176	88.4781	555.176	88.6678	555.176	88.3184	555.176	88.3488	555.176	88.0555	555.176	87.874	555.176	87.6938	555.176	87.2436	555.176	87.2674	555.176	86.4454	555.176	86.7779	555.176	85.4944	555.176	86.1898	555.176	84.5253	555.176	85.5073	555.176	83.8348	555.176	84.8482	555.176	83.6826	555.176	84.4194	555.176	83.9873	555.176	84.3669	555.176	84.4656	555.176	84.6417	555.176	84.948	555.176	85.0628	555.176	85.3804	555.176	85.4666	555.176	85.7039	555.176	85.7493	555.176	85.8391
574.219	89.2771	574.219	89.2693	574.219	89.2038	574.219	89.1639	574.219	89.046	574.219	88.9338	574.219	88.8029	574.219	88.5816	574.219	88.489	574.219	88.1643	574.219	88.1084	574.219	87.7597	574.219	87.6281	574.219	87.384	574.219	87.0001	574.219	86.945	574.219	86.2348	574.219	86.2982	574.219	85.4572	574.219	85.3645	574.219	84.8304	574.219	84.2626	574.219	84.3783	574.219	83.3986	574.219	84.0023	574.219	83.2429	574.219	83.7266	574.219	83.7667	574.219	83.771	574.219	84.4858	574.219	84.2076	574.219	85.0249	574.219	84.7612	574.219	85.2894	574.219	85.1554	574.219	85.3242
594.727	89.2263	594.727	89.139	594.727	89.2655	594.727	89.0635	594.727	89.2082	594.727	88.9974	594.727	89.0498	594.727	88.8554	594.727	88.7984	594.727	88.5293	594.727	88.4478	594.727	87.9699	594.727	87.9937	594.727	87.2216	594.727	87.4503	594.727	86.366	594.727	86.816	594.727	85.4292	594.727	86.0507	594.727	84.4075	594.727	85.1313	594.727	83.4531	594.727	84.1416	594.727	82.9749	594.727	83.3055	594.727	83.2047	594.727	82.8806	594.727	83.7942	594.727	83.0041	594.727	84.3547	594.727	83.626	594.727	84.808	594.727	84.4527	594.727	85.1637	594.727	85.0874	594.727	85.3122
615.234	89.7324	615.234	89.7199	615.234	89.6442	615.234	89.6396	615.234	89.4887	615.234	89.5459	615.234	89.3092	615.234	89.4035	615.234	89.0937	615.234	89.0996	615.234	88.7982	615.234	88.5948	615.234	88.4207	615.234	87.9961	615.234	87.9916	615.234	87.4249	615.234	87.4648	615.234	86.8136	615.234	86.6816	615.234	85.9481	615.234	85.541	615.234	84.7318	615.234	84.3031	615.234	83.4474	615.234	83.6183	615.234	82.82	615.234	83.626	615.234	83.1556	615.234	83.7679	615.234	83.915	615.234	83.9265	615.234	84.7095	615.234	84.4369	615.234	85.3559	615.234	85.1793	615.234	85.5728
637.207	89.5552	637.207	89.4982	637.207	89.4749	637.207	89.3471	637.207	89.2582	637.207	89.1937	637.207	88.9468	637.207	89.1192	637.207	88.6052	637.207	89.0683	637.207	88.2564	637.207	88.85	637.207	87.8433	637.207	88.3113	637.207	87.3176	637.207	87.4598	637.207	86.7524	637.207	86.4201	637.207	86.2467	637.207	85.3023	637.207	85.6899	637.207	84.1599	637.207	84.854	637.207	83.1511	637.207	83.8701	637.207	82.6924	637.207	83.5069	637.207	83.1207	637.207	84.0513	637.207	84.1453	637.207	84.6753	637.207	85.1113	637.207	84.972	637.207	85.5766	637.207	85.2082	637.207	85.5091
659.18	89.5696	659.18	89.6037	659.18	89.4991	659.18	89.523	659.18	89.4188	659.18	89.2861	659.18	89.3059	659.18	88.9659	659.18	89.1167	659.18	88.6554	659.18	88.7979	659.18	88.3226	659.18	88.3395	659.18	87.8683	659.18	87.804	659.18	87.2352	659.18	87.2426	659.18	86.3702	659.18	86.5895	659.18	85.1901	659.18	85.6978	659.18	83.7802	659.18	84.518	659.18	82.7361	659.18	83.3722	659.18	82.7537	659.18	82.9814	659.18	83.5036	659.18	83.4299	659.18	84.3698	659.18	84.0301	659.18	85.1439	659.18	84.5436	659.18	85.6224	659.18	85.106	659.18	85.5818
682.617	90.3673	682.617	90.2849	682.617	90.3342	682.617	90.1486	682.617	90.1548	682.617	90.0158	682.617	89.8517	682.617	89.8948	682.617	89.526	682.617	89.7306	682.617	89.255	682.617	89.3945	682.617	88.9175	682.617	88.7577	682.617	88.2784	682.617	87.8527	682.617	87.2873	682.617	86.8741	682.617	86.2129	682.617	85.8944	682.617	85.3552	682.617	84.7167	682.617	84.5058	682.617	83.2111	682.617	83.234	682.617	81.9276	682.617	82.1952	682.617	81.9907	682.617	82.8911	682.617	83.2042	682.617	84.1623	682.617	84.5002	682.617	84.7293	682.617	85.2258	682.617	84.9263	682.617	85.2233
707.52	89.9821	707.52	90.0164	707.52	89.8738	707.52	89.9328	707.52	89.7312	707.52	89.6802	707.52	89.6305	707.52	89.3649	707.52	89.5749	707.52	89.2246	707.52	89.4416	707.52	89.2068	707.52	89.1256	707.52	88.9221	707.52	88.6195	707.52	88.1093	707.52	87.9382	707.52	86.8674	707.52	87.1068	707.52	85.4729	707.52	86.215	707.52	84.0009	707.52	85.2549	707.52	82.544	707.52	83.9326	707.52	81.8896	707.52	82.1857	707.52	82.5906	707.52	81.5984	707.52	83.7598	707.52	82.9183	707.52	84.6082	707.52	83.9368	707.52	84.851	707.52	84.2617	707.52	84.575
732.422	90.2653	732.422	90.3156	732.422	90.2248	732.422	90.2902	732.422	90.1357	732.422	90.0536	732.422	89.9005	732.422	89.6727	732.422	89.5002	732.422	89.4248	732.422	89.0302	732.422	89.3454	732.422	88.6135	732.422	89.0691	732.422	88.1423	732.422	88.3294	732.422	87.3184	732.422	87.243	732.422	86.1752	732.422	86.0546	732.422	85.148	732.422	84.7131	732.422	84.2959	732.422	82.9976	732.422	83.2903	732.422	81.5439	732.422	82.5077	732.422	82.1115	732.422	82.7397	732.422	83.7219	732.422	83.631	732.422	84.7066	732.422	84.3439	732.422	84.9588	732.422	84.6793	732.422	84.8629
757.324	90.3194	757.324	90.2906	757.324	90.3731	757.324	90.2719	757.324	90.3909	757.324	90.2136	757.324	90.3967	757.324	90.1047	757.324	90.453	757.324	89.9843	757.324	90.3794	757.324	89.8921	757.324	89.9602	757.324	89.6893	757.324	89.3593	757.324	89.1132	757.324	88.8504	757.324	88.1117	757.324	88.1567	757.324	86.8732	757.324	86.878	757.324	85.4253	757.324	85.2487	757.324	83.7234	757.324	83.4592	757.324	82.582	757.324	81.043	757.324	82.8244	757.324	80.0419	757.324	83.6346	757.324	82.553	757.324	84.5409	757.324	84.5353	757.324	85.1953	757.324	85.2318	757.324	85.3503
785.156	91.0359	785.156	90.662	785.156	91.2816	785.156	90.154	785.156	91.3512	785.156	89.5364	785.156	91.1095	785.156	89.0376	785.156	90.4786	785.156	88.8635	785.156	89.9019	785.156	88.8563	785.156	89.9224	785.156	88.6681	785.156	89.9875	785.156	88.1027	785.156	89.49	785.156	87.3397	785.156	88.5413	785.156	86.5176	785.156	87.3617	785.156	85.1844	785.156	86.0922	785.156	82.9393	785.156	84.7113	785.156	80.7303	785.156	82.869	785.156	80.9688	785.156	81.3264	785.156	83.2312	785.156	81.8111	785.156	84.9493	785.156	83.2256	785.156	85.1948	785.156	84.1481	785.156	84.6755
811.523	90.6197	811.523	90.3261	811.523	90.7547	811.523	90.2216	811.523	90.5385	811.523	90.2243	811.523	90.0879	811.523	89.9537	811.523	89.5726	811.523	89.3856	811.523	89.1618	811.523	88.998	811.523	89.0839	811.523	89.0105	811.523	89.1236	811.523	88.8971	811.523	88.7633	811.523	88.3144	811.523	87.886	811.523	87.4624	811.523	86.617	811.523	86.068	811.523	85.1527	811.523	83.4234	811.523	83.6121	811.523	80.6039	811.523	82.0873	811.523	81.9865	811.523	81.7807	811.523	84.7233	811.523	82.882	811.523	85.8455	811.523	83.932	811.523	85.4499	811.523	84.4171	811.523	84.7337
840.82	90.9543	840.82	90.4406	840.82	91.342	840.82	90.0368	840.82	91.4342	840.82	89.9046	840.82	91.0672	840.82	89.7712	840.82	90.3942	840.82	89.4065	840.82	90.0879	840.82	89.1675	840.82	90.3719	840.82	89.2537	840.82	90.5939	840.82	88.9996	840.82	90.5568	840.82	88.2517	840.82	90.2864	840.82	87.6173	840.82	89.2952	840.82	86.9145	840.82	87.4477	840.82	84.9735	840.82	85.5315	840.82	81.7577	840.82	83.7825	840.82	80.1636	840.82	82.6265	840.82	82.1076	840.82	83.1879	840.82	84.6123	840.82	83.9272	840.82	85.5975	840.82	84.3926	840.82	85.1662
870.117	90.271	870.117	90.1794	870.117	90.413	870.117	89.9327	870.117	90.3759	870.117	89.1008	870.117	89.9866	870.117	88.0354	870.117	89.1029	870.117	87.609	870.117	87.7721	870.117	87.0634	870.117	86.9544	870.117	86.048	870.117	87.0442	870.117	85.7869	870.117	87.1128	870.117	85.258	870.117	86.8394	870.117	83.9726	870.117	85.9956	870.117	83.1274	870.117	84.5499	870.117	81.678	870.117	83.1388	870.117	79.4609	870.117	81.8282	870.117	80.6149	870.117	81.2344	870.117	84.0027	870.117	82.936	870.117	86.1777	870.117	84.8617	870.117	86.3932	870.117	85.5785	870.117	85.8108
900.879	92.0841	900.879	91.8483	900.879	92.2701	900.879	91.904	900.879	92.0853	900.879	91.8271	900.879	91.5809	900.879	91.0271	900.879	90.9188	900.879	89.8911	900.879	90.2398	900.879	89.5052	900.879	89.7766	900.879	89.4094	900.879	89.677	900.879	88.7904	900.879	89.6101	900.879	88.1051	900.879	89.056	900.879	87.3679	900.879	87.7938	900.879	85.6723	900.879	85.9561	900.879	83.0053	900.879	82.7785	900.879	80.0374	900.879	77.3422	900.879	78.4314	900.879	77.9976	900.879	82.2464	900.879	80.9764	900.879	85.3428	900.879	82.7986	900.879	86.3824	900.879	84.5882	900.879	85.9352
933.105	91.8761	933.105	91.6174	933.105	91.6113	933.105	91.0679	933.105	91.1189	933.105	90.6277	933.105	90.6997	933.105	90.2756	933.105	90.0247	933.105	89.737	933.105	88.915	933.105	88.8452	933.105	88.4285	933.105	87.886	933.105	88.7498	933.105	87.3871	933.105	88.806	933.105	86.8599	933.105	88.7294	933.105	85.922	933.105	88.1766	933.105	85.2067	933.105	86.4011	933.105	83.6631	933.105	83.8425	933.105	79.1987	933.105	80.6288	933.105	73.7702	933.105	78.276	933.105	79.5508	933.105	80.4168	933.105	84.2466	933.105	82.8962	933.105	85.4048	933.105	84.3243	933.105	84.9328
965.332	90.7635	965.332	90.7526	965.332	90.7885	965.332	91.0959	965.332	90.5709	965.332	91.0911	965.332	90.36	965.332	90.1755	965.332	90.2248	965.332	89.2691	965.332	89.6607	965.332	88.9938	965.332	88.7297	965.332	88.615	965.332	88.3277	965.332	88.1581	965.332	88.4153	965.332	87.5402	965.332	88.0433	965.332	86.1895	965.332	86.6671	965.332	84.3461	965.332	84.7896	965.332	82.3777	965.332	82.8109	965.332	79.8999	965.332	79.2436	965.332	76.4331	965.332	74.4914	965.332	78.0684	965.332	78.4481	965.332	82.6097	965.332	80.8016	965.332	84.2318	965.332	81.7112	965.332	83.3631
1,000.49	91.6974	1,000.49	91.1409	1,000.49	91.6752	1,000.49	90.3057	1,000.49	91.3819	1,000.49	89.7039	1,000.49	91.0275	1,000.49	89.0984	1,000.49	90.4894	1,000.49	88.2075	1,000.49	89.4086	1,000.49	87.6627	1,000.49	88.1537	1,000.49	88.039	1,000.49	87.723	1,000.49	88.2438	1,000.49	87.8334	1,000.49	87.8208	1,000.49	87.9439	1,000.49	87.3181	1,000.49	87.3452	1,000.49	86.3714	1,000.49	85.7787	1,000.49	84.093	1,000.49	83.4834	1,000.49	80.6099	1,000.49	80.09	1,000.49	78.6746	1,000.49	76.6667	1,000.49	80.6401	1,000.49	75.0468	1,000.49	83.2262	1,000.49	80.4222	1,000.49	82.7667	1,000.49	83.4546	1,000.49	82.7915
1,035.64	91.212	1,035.64	91.1642	1,035.64	91.1628	1,035.64	91.0399	1,035.64	90.918	1,035.64	90.7614	1,035.64	90.685	1,035.64	90.056	1,035.64	90.6776	1,035.64	88.9409	1,035.64	89.9126	1,035.64	88.3093	1,035.64	88.4686	1,035.64	87.8669	1,035.64	88.5879	1,035.64	87.2539	1,035.64	89.1501	1,035.64	87.0476	1,035.64	89.14	1,035.64	86.1616	1,035.64	88.6904	1,035.64	85.3283	1,035.64	87.512	1,035.64	84.9852	1,035.64	85.5311	1,035.64	83.8181	1,035.64	82.1089	1,035.64	81.5122	1,035.64	78.0898	1,035.64	83.2063	1,035.64	79.8081	1,035.64	86.392	1,035.64	83.3528	1,035.64	87.086	1,035.64	85.532	1,035.64	86.5717
1,072.27	92.2437	1,072.27	91.6574	1,072.27	92.3698	1,072.27	91.0377	1,072.27	92.2531	1,072.27	90.6742	1,072.27	91.7002	1,072.27	89.8651	1,072.27	90.8883	1,072.27	88.6677	1,072.27	90.2158	1,072.27	87.4134	1,072.27	88.9698	1,072.27	86.7004	1,072.27	87.8383	1,072.27	86.3621	1,072.27	88.0973	1,072.27	86.0666	1,072.27	88.8972	1,072.27	85.455	1,072.27	88.9858	1,072.27	84.4382	1,072.27	88.2601	1,072.27	83.4994	1,072.27	87.7979	1,072.27	79.1461	1,072.27	86.2009	1,072.27	76.9943	1,072.27	83.3624	1,072.27	81.6675	1,072.27	81.2931	1,072.27	84.3415	1,072.27	82.1301	1,072.27	84.9255	1,072.27	85.3012	1,072.27	85.4688
1,108.89	92.999	1,108.89	93.0639	1,108.89	92.8022	1,108.89	92.2355	1,108.89	92.7029	1,108.89	91.2164	1,108.89	91.9217	1,108.89	90.222	1,108.89	90.9433	1,108.89	88.0978	1,108.89	90.229	1,108.89	86.3775	1,108.89	88.5714	1,108.89	86.4871	1,108.89	86.7324	1,108.89	86.8913	1,108.89	86.8199	1,108.89	87.9547	1,108.89	87.1908	1,108.89	87.1774	1,108.89	86.6789	1,108.89	85.881	1,108.89	85.7324	1,108.89	84.9799	1,108.89	84.2862	1,108.89	81.8809	1,108.89	82.4386	1,108.89	80.6112	1,108.89	81.3332	1,108.89	83.4495	1,108.89	81.2897	1,108.89	86.2584	1,108.89	85.2188	1,108.89	86.802	1,108.89	87.6584	1,108.89	87.6893
1,148.44	94.9361	1,148.44	94.7645	1,148.44	94.5288	1,148.44	94.0198	1,148.44	94.1595	1,148.44	93.4395	1,148.44	93.5535	1,148.44	92.7731	1,148.44	92.4029	1,148.44	91.6597	1,148.44	91.8639	1,148.44	90.122	1,148.44	91.2692	1,148.44	88.7884	1,148.44	89.6866	1,148.44	87.5582	1,148.44	88.8836	1,148.44	87.6479	1,148.44	87.7224	1,148.44	88.5854	1,148.44	86.7986	1,148.44	87.0468	1,148.44	84.8477	1,148.44	84.4723	1,148.44	82.7296	1,148.44	78.3495	1,148.44	80.9779	1,148.44	73.0327	1,148.44	79.0134	1,148.44	81.1115	1,148.44	81.3647	1,148.44	86.3174	1,148.44	85.0771	1,148.44	87.6685	1,148.44	87.9227	1,148.44	87.4861
1,189.45	95.1656	1,189.45	95.147	1,189.45	94.7643	1,189.45	94.6931	1,189.45	94.4317	1,189.45	94.1605	1,189.45	94.1876	1,189.45	93.102	1,189.45	93.7864	1,189.45	91.8075	1,189.45	92.6658	1,189.45	90.3785	1,189.45	91.6546	1,189.45	89.5977	1,189.45	90.7808	1,189.45	89.1851	1,189.45	89.3656	1,189.45	88.2434	1,189.45	89.0228	1,189.45	88.9015	1,189.45	88.823	1,189.45	88.1384	1,189.45	86.7216	1,189.45	85.5085	1,189.45	83.993	1,189.45	80.0488	1,189.45	81.3758	1,189.45	68.0773	1,189.45	76.037	1,189.45	81.8922	1,189.45	80.3379	1,189.45	84.8295	1,189.45	84.4013	1,189.45	85.6743	1,189.45	86.4743	1,189.45	86.671
1,230.47	95.4838	1,230.47	94.9889	1,230.47	95.7054	1,230.47	94.1726	1,230.47	95.5036	1,230.47	93.5296	1,230.47	95.4518	1,230.47	93.018	1,230.47	95.1068	1,230.47	92.104	1,230.47	94.1443	1,230.47	91.7408	1,230.47	93.0405	1,230.47	90.7015	1,230.47	91.3738	1,230.47	90.0692	1,230.47	90.0913	1,230.47	89.5277	1,230.47	88.4863	1,230.47	89.0767	1,230.47	87.5444	1,230.47	87.5029	1,230.47	86.7279	1,230.47	83.4791	1,230.47	84.2703	1,230.47	81.7124	1,230.47	79.2447	1,230.47	74.4832	1,230.47	70.3804	1,230.47	81.9212	1,230.47	80.1587	1,230.47	85.1356	1,230.47	84.8908	1,230.47	87.2119	1,230.47	87.3062	1,230.47	88.0728
1,274.41	94.8279	1,274.41	94.8865	1,274.41	94.3422	1,274.41	94.6029	1,274.41	94.1219	1,274.41	94.1664	1,274.41	93.9167	1,274.41	93.3009	1,274.41	92.946	1,274.41	92.4341	1,274.41	91.2179	1,274.41	90.6392	1,274.41	89.4808	1,274.41	88.7448	1,274.41	88.4965	1,274.41	88.4833	1,274.41	86.5116	1,274.41	88.5971	1,274.41	86.5774	1,274.41	89.291	1,274.41	88.6272	1,274.41	87.9862	1,274.41	88.1537	1,274.41	86.52	1,274.41	85.7712	1,274.41	82.3188	1,274.41	83.1602	1,274.41	66.3179	1,274.41	81.0248	1,274.41	79.3131	1,274.41	74.5653	1,274.41	83.3188	1,274.41	82.6714	1,274.41	83.3732	1,274.41	85.9709	1,274.41	85.3941
1,319.82	94.9161	1,319.82	94.4162	1,319.82	95.0876	1,319.82	94.0255	1,319.82	94.5557	1,319.82	93.6592	1,319.82	93.6977	1,319.82	93.413	1,319.82	92.9256	1,319.82	91.8251	1,319.82	91.665	1,319.82	90.7391	1,319.82	90.3871	1,319.82	89.8165	1,319.82	88.3608	1,319.82	89.3382	1,319.82	85.667	1,319.82	88.9594	1,319.82	84.916	1,319.82	87.1904	1,319.82	84.9505	1,319.82	86.3389	1,319.82	85.0915	1,319.82	83.4607	1,319.82	85.0405	1,319.82	80.5876	1,319.82	82.421	1,319.82	73.7519	1,319.82	75.3104	1,319.82	75.3916	1,319.82	75.0702	1,319.82	80.6784	1,319.82	82.7194	1,319.82	83.6665	1,319.82	84.6006	1,319.82	85.2243
1,366.7	94.6664	1,366.7	94.6378	1,366.7	94.5127	1,366.7	94.4108	1,366.7	94.3148	1,366.7	93.6969	1,366.7	94.3535	1,366.7	92.9556	1,366.7	93.7128	1,366.7	91.3533	1,366.7	92.4705	1,366.7	89.461	1,366.7	91.1999	1,366.7	88.5816	1,366.7	90.0049	1,366.7	87.3907	1,366.7	87.5451	1,366.7	86.5791	1,366.7	86.0143	1,366.7	86.791	1,366.7	86.6039	1,366.7	85.8201	1,366.7	86.9568	1,366.7	83.2181	1,366.7	86.4317	1,366.7	81.2051	1,366.7	83.687	1,366.7	77.5038	1,366.7	76.3753	1,366.7	73.8572	1,366.7	70.7213	1,366.7	82.4703	1,366.7	82.8075	1,366.7	86.5857	1,366.7	85.9733	1,366.7	85.736
1,413.57	95.107	1,413.57	94.8971	1,413.57	94.5485	1,413.57	94.3413	1,413.57	94.2173	1,413.57	93.5444	1,413.57	93.8928	1,413.57	92.7832	1,413.57	92.3986	1,413.57	91.6706	1,413.57	91.7376	1,413.57	89.7528	1,413.57	91.1116	1,413.57	87.8098	1,413.57	89.728	1,413.57	86.3372	1,413.57	87.6588	1,413.57	85.7733	1,413.57	86.0633	1,413.57	85.5786	1,413.57	87.19	1,413.57	85.5313	1,413.57	87.3545	1,413.57	86.2333	1,413.57	86.8558	1,413.57	83.7294	1,413.57	83.8555	1,413.57	79.0835	1,413.57	81.065	1,413.57	68.5081	1,413.57	73.7027	1,413.57	81.399	1,413.57	84.1098	1,413.57	85.4486	1,413.57	85.6293	1,413.57	86.9644
1,463.38	94.8832	1,463.38	95.1107	1,463.38	94.3849	1,463.38	94.8567	1,463.38	94.0678	1,463.38	94.135	1,463.38	93.9742	1,463.38	93.3747	1,463.38	93.1127	1,463.38	92.4395	1,463.38	92.1019	1,463.38	90.8255	1,463.38	90.7828	1,463.38	87.8142	1,463.38	89.5223	1,463.38	86.8781	1,463.38	88.7268	1,463.38	86.2263	1,463.38	87.1801	1,463.38	87.2633	1,463.38	85.9459	1,463.38	87.5938	1,463.38	87.1289	1,463.38	87.5865	1,463.38	87.0885	1,463.38	85.726	1,463.38	84.531	1,463.38	81.5653	1,463.38	80.57	1,463.38	70.5798	1,463.38	55.7988	1,463.38	80.5612	1,463.38	80.8276	1,463.38	86.2068	1,463.38	84.5927	1,463.38	86.0265
1,516.11	95.4656	1,516.11	95.2924	1,516.11	95.396	1,516.11	94.6952	1,516.11	95.0253	1,516.11	94.1922	1,516.11	94.3234	1,516.11	93.1339	1,516.11	93.0352	1,516.11	91.4843	1,516.11	91.9645	1,516.11	91.5217	1,516.11	90.6111	1,516.11	90.4065	1,516.11	88.685	1,516.11	87.9128	1,516.11	88.1526	1,516.11	86.7675	1,516.11	88.8561	1,516.11	86.4464	1,516.11	88.1338	1,516.11	86.0361	1,516.11	87.1168	1,516.11	87.1405	1,516.11	88.5486	1,516.11	86.6199	1,516.11	86.2867	1,516.11	81.4887	1,516.11	81.1392	1,516.11	71.0558	1,516.11	73.5539	1,516.11	74.8122	1,516.11	75.3719	1,516.11	80.9346	1,516.11	81.4305	1,516.11	82.935
1,568.85	94.837	1,568.85	94.8774	1,568.85	94.663	1,568.85	94.7625	1,568.85	95.204	1,568.85	93.939	1,568.85	94.2962	1,568.85	93.253	1,568.85	93.5694	1,568.85	92.117	1,568.85	92.7913	1,568.85	91.2682	1,568.85	91.4909	1,568.85	90.3229	1,568.85	89.904	1,568.85	87.9971	1,568.85	88.1944	1,568.85	86.5373	1,568.85	85.9785	1,568.85	87.0812	1,568.85	85.6782	1,568.85	87.0774	1,568.85	87.0059	1,568.85	86.4037	1,568.85	86.7195	1,568.85	85.686	1,568.85	83.3269	1,568.85	84.9937	1,568.85	78.8066	1,568.85	80.3888	1,568.85	73.5253	1,568.85	79.5506	1,568.85	75.0834	1,568.85	82.5539	1,568.85	79.6059	1,568.85	83.7441
1,624.51	94.347	1,624.51	93.7286	1,624.51	94.3465	1,624.51	93.562	1,624.51	93.4286	1,624.51	93.0427	1,624.51	92.7729	1,624.51	92.5965	1,624.51	92.0617	1,624.51	91.8515	1,624.51	90.9045	1,624.51	89.9756	1,624.51	89.5921	1,624.51	88.665	1,624.51	87.9324	1,624.51	86.1324	1,624.51	85.8285	1,624.51	82.6272	1,624.51	84.2514	1,624.51	83.1384	1,624.51	84.9532	1,624.51	85.568	1,624.51	85.8375	1,624.51	82.251	1,624.51	84.9198	1,624.51	81.047	1,624.51	81.753	1,624.51	80.7041	1,624.51	82.0213	1,624.51	71.7971	1,624.51	75.097	1,624.51	74.9645	1,624.51	66.9912	1,624.51	80.2019	1,624.51	79.1148	1,624.51	83.7599
1,681.64	93.7567	1,681.64	93.5874	1,681.64	94.276	1,681.64	93.615	1,681.64	93.4898	1,681.64	92.9516	1,681.64	93.1547	1,681.64	92.5079	1,681.64	92.811	1,681.64	91.4572	1,681.64	91.2889	1,681.64	89.9414	1,681.64	89.8412	1,681.64	88.5549	1,681.64	88.9852	1,681.64	86.294	1,681.64	88.0912	1,681.64	84.7637	1,681.64	86.1666	1,681.64	84.2416	1,681.64	84.5095	1,681.64	85.4502	1,681.64	85.126	1,681.64	84.7459	1,681.64	84.2634	1,681.64	83.5969	1,681.64	83.9585	1,681.64	82.4661	1,681.64	83.0958	1,681.64	75.4819	1,681.64	76.0356	1,681.64	72.4463	1,681.64	66.7555	1,681.64	80.2397	1,681.64	78.1438	1,681.64	79.7766
1,741.7	95.0315	1,741.7	94.237	1,741.7	94.4693	1,741.7	93.0605	1,741.7	93.7239	1,741.7	92.0947	1,741.7	92.7984	1,741.7	91.7406	1,741.7	92.1826	1,741.7	90.3608	1,741.7	91.2283	1,741.7	89.3347	1,741.7	90.3535	1,741.7	88.8163	1,741.7	88.1029	1,741.7	86.2707	1,741.7	87.6584	1,741.7	83.5749	1,741.7	83.8341	1,741.7	83.8375	1,741.7	83.9128	1,741.7	84.4477	1,741.7	84.7025	1,741.7	85.6673	1,741.7	84.1749	1,741.7	84.4698	1,741.7	83.3437	1,741.7	81.8408	1,741.7	82.5816	1,741.7	74.2663	1,741.7	78.684	1,741.7	74.5399	1,741.7	71.235	1,741.7	76.4939	1,741.7	77.5964	1,741.7	81.3396
1,803.22	94.2417	1,803.22	94.1265	1,803.22	93.9755	1,803.22	93.3551	1,803.22	93.4731	1,803.22	92.7152	1,803.22	92.7111	1,803.22	91.6894	1,803.22	91.9035	1,803.22	91.1174	1,803.22	91.3638	1,803.22	89.7656	1,803.22	90.4578	1,803.22	88.6597	1,803.22	89.66	1,803.22	87.4231	1,803.22	87.9691	1,803.22	85.7029	1,803.22	86.0964	1,803.22	83.6649	1,803.22	84.2378	1,803.22	83.8383	1,803.22	84.7852	1,803.22	84.3197	1,803.22	85.4966	1,803.22	84.0831	1,803.22	85.7241	1,803.22	82.8784	1,803.22	82.916	1,803.22	77.5398	1,803.22	77.0113	1,803.22	67.8927	1,803.22	73.5265	1,803.22	79.1138	1,803.22	78.5257	1,803.22	81.4042
1,866.21	93.6733	1,866.21	93.3496	1,866.21	93.4838	1,866.21	92.7787	1,866.21	92.832	1,866.21	91.8141	1,866.21	91.8024	1,866.21	91.0752	1,866.21	90.5835	1,866.21	89.7165	1,866.21	89.7074	1,866.21	88.7054	1,866.21	88.9465	1,866.21	87.7614	1,866.21	88.3641	1,866.21	86.7955	1,866.21	87.0196	1,866.21	84.5947	1,866.21	84.5612	1,866.21	83.4496	1,866.21	83.4193	1,866.21	82.3457	1,866.21	83.1143	1,866.21	83.1821	1,866.21	84.3277	1,866.21	83.8112	1,866.21	84.3061	1,866.21	81.9689	1,866.21	82.4506	1,866.21	77.4047	1,866.21	77.3991	1,866.21	73.8569	1,866.21	70.9524	1,866.21	77.6446	1,866.21	78.0264	1,866.21	80.3859
1,932.13	93.6704	1,932.13	93.385	1,932.13	93.6452	1,932.13	92.681	1,932.13	93.0327	1,932.13	91.4825	1,932.13	92.0206	1,932.13	90.1978	1,932.13	90.7315	1,932.13	88.7815	1,932.13	89.2873	1,932.13	87.5183	1,932.13	88.2514	1,932.13	86.1643	1,932.13	86.9935	1,932.13	85.8744	1,932.13	85.91	1,932.13	84.3519	1,932.13	84.6647	1,932.13	82.2713	1,932.13	83.5327	1,932.13	79.9661	1,932.13	81.6987	1,932.13	80.9003	1,932.13	83.0835	1,932.13	81.424	1,932.13	82.7234	1,932.13	80.5786	1,932.13	80.9661	1,932.13	76.2704	1,932.13	76.2943	1,932.13	70.7142	1,932.13	68.2635	1,932.13	77.3081	1,932.13	76.8364	1,932.13	79.6165
1,999.51	94.9019	1,999.51	94.816	1,999.51	94.8772	1,999.51	94.0507	1,999.51	94.4879	1,999.51	93.2104	1,999.51	93.4911	1,999.51	91.8028	1,999.51	92.6154	1,999.51	90.1061	1,999.51	91.1732	1,999.51	89.166	1,999.51	89.914	1,999.51	87.1293	1,999.51	88.0901	1,999.51	85.4373	1,999.51	87.2067	1,999.51	84.9452	1,999.51	85.5976	1,999.51	83.5961	1,999.51	84.4389	1,999.51	82.5758	1,999.51	83.8089	1,999.51	82.1973	1,999.51	84.0098	1,999.51	82.0305	1,999.51	84.0178	1,999.51	80.5351	1,999.51	81.993	1,999.51	75.7877	1,999.51	78.0885	1,999.51	71.3833	1,999.51	70.8445	1,999.51	77.9357	1,999.51	77.4445	1,999.51	80.1018
2,069.82	95.8734	2,069.82	95.6337	2,069.82	95.6956	2,069.82	95.1695	2,069.82	95.1605	2,069.82	94.2673	2,069.82	94.2028	2,069.82	93.2687	2,069.82	93.0852	2,069.82	91.8884	2,069.82	91.8705	2,069.82	90.2677	2,069.82	90.5291	2,069.82	89.043	2,069.82	89.0498	2,069.82	87.542	2,069.82	87.6152	2,069.82	86.1424	2,069.82	86.4096	2,069.82	84.6559	2,069.82	84.5449	2,069.82	83.5139	2,069.82	83.4691	2,069.82	83.2315	2,069.82	83.3928	2,069.82	83.3056	2,069.82	83.7662	2,069.82	81.711	2,069.82	82.8965	2,069.82	77.8067	2,069.82	77.4642	2,069.82	70.6527	2,069.82	70.1237	2,069.82	78.947	2,069.82	78.4154	2,069.82	79.8099
2,143.07	95.023	2,143.07	94.7798	2,143.07	94.8016	2,143.07	94.2892	2,143.07	94.2194	2,143.07	93.4917	2,143.07	93.228	2,143.07	92.2107	2,143.07	92.0615	2,143.07	90.8647	2,143.07	90.6493	2,143.07	89.2191	2,143.07	89.3343	2,143.07	87.8798	2,143.07	87.6625	2,143.07	86.407	2,143.07	86.4029	2,143.07	85.7738	2,143.07	84.8885	2,143.07	84.5052	2,143.07	83.3507	2,143.07	83.5747	2,143.07	83.0268	2,143.07	82.8908	2,143.07	83.058	2,143.07	83.4252	2,143.07	82.82	2,143.07	82.173	2,143.07	81.7063	2,143.07	77.6582	2,143.07	78.1344	2,143.07	74.6059	2,143.07	68.8208	2,143.07	76.7924	2,143.07	76.2121	2,143.07	79.5454
2,219.24	94.2128	2,219.24	94.0425	2,219.24	94.3119	2,219.24	93.4422	2,219.24	93.6905	2,219.24	92.4661	2,219.24	92.837	2,219.24	91.1832	2,219.24	91.7003	2,219.24	89.6831	2,219.24	90.5176	2,219.24	88.8035	2,219.24	89.2029	2,219.24	86.876	2,219.24	87.9322	2,219.24	86.1325	2,219.24	86.7723	2,219.24	83.4672	2,219.24	85.3238	2,219.24	82.518	2,219.24	83.0267	2,219.24	81.6039	2,219.24	82.3128	2,219.24	81.2073	2,219.24	82.7324	2,219.24	81.508	2,219.24	82.7734	2,219.24	81.1622	2,219.24	82.2266	2,219.24	77.2554	2,219.24	78.8787	2,219.24	68.1486	2,219.24	69.8966	2,219.24	76.6993	2,219.24	72.3181	2,219.24	78.1904
2,296.88	94.3534	2,296.88	94.1401	2,296.88	94.1847	2,296.88	93.5541	2,296.88	93.7772	2,296.88	92.7429	2,296.88	92.8028	2,296.88	91.4505	2,296.88	91.8532	2,296.88	90.0854	2,296.88	90.5597	2,296.88	88.4841	2,296.88	89.097	2,296.88	87.093	2,296.88	87.6832	2,296.88	85.1596	2,296.88	86.7604	2,296.88	84.2716	2,296.88	85.0109	2,296.88	82.8208	2,296.88	83.1608	2,296.88	81.6487	2,296.88	82.6486	2,296.88	80.0117	2,296.88	82.6634	2,296.88	80.8426	2,296.88	82.9468	2,296.88	81.4909	2,296.88	82.7143	2,296.88	78.5151	2,296.88	78.5845	2,296.88	72.2044	2,296.88	74.1227	2,296.88	73.9987	2,296.88	75.8234	2,296.88	76.5559
2,378.91	93.7219	2,378.91	93.5031	2,378.91	93.6443	2,378.91	93.0057	2,378.91	93.193	2,378.91	92.3829	2,378.91	92.4965	2,378.91	91.2772	2,378.91	91.2857	2,378.91	90.5831	2,378.91	89.9276	2,378.91	88.8346	2,378.91	88.4213	2,378.91	87.4404	2,378.91	87.4311	2,378.91	85.3927	2,378.91	86.4231	2,378.91	84.7189	2,378.91	84.3387	2,378.91	83.9746	2,378.91	81.9536	2,378.91	82.2222	2,378.91	80.7673	2,378.91	79.7514	2,378.91	81.2556	2,378.91	80.8645	2,378.91	82.003	2,378.91	81.3615	2,378.91	81.0039	2,378.91	79.0289	2,378.91	77.2711	2,378.91	73.8022	2,378.91	70.8741	2,378.91	75.2577	2,378.91	76.4043	2,378.91	76.9273
2,462.4	93.3277	2,462.4	92.8845	2,462.4	93.3565	2,462.4	92.3001	2,462.4	92.9603	2,462.4	91.4091	2,462.4	92.2759	2,462.4	90.0096	2,462.4	91.3036	2,462.4	89.1537	2,462.4	89.8764	2,462.4	87.4521	2,462.4	88.1873	2,462.4	86.053	2,462.4	87.0699	2,462.4	84.5784	2,462.4	86.0553	2,462.4	83.0935	2,462.4	84.7505	2,462.4	82.4995	2,462.4	82.4304	2,462.4	81.2815	2,462.4	79.4991	2,462.4	78.947	2,462.4	79.0156	2,462.4	79.2428	2,462.4	81.6799	2,462.4	80.2625	2,462.4	80.9185	2,462.4	77.8783	2,462.4	78.0716	2,462.4	71.2971	2,462.4	70.462	2,462.4	73.7835	2,462.4	72.6842	2,462.4	75.6632
2,548.83	93.9419	2,548.83	93.4414	2,548.83	93.803	2,548.83	93.0657	2,548.83	93.4894	2,548.83	92.0737	2,548.83	92.7685	2,548.83	90.9029	2,548.83	91.7067	2,548.83	89.5521	2,548.83	90.1155	2,548.83	88.1028	2,548.83	88.2839	2,548.83	86.4045	2,548.83	86.8897	2,548.83	84.1777	2,548.83	85.7099	2,548.83	82.7191	2,548.83	84.1015	2,548.83	81.3264	2,548.83	83.2523	2,548.83	80.8935	2,548.83	80.3932	2,548.83	78.5569	2,548.83	79.8729	2,548.83	78.84	2,548.83	80.9224	2,548.83	80.6514	2,548.83	80.4144	2,548.83	79.2511	2,548.83	77.5045	2,548.83	75.4481	2,548.83	73.9814	2,548.83	73.552	2,548.83	75.4335	2,548.83	76.5994
2,639.65	93.4574	2,639.65	93.4039	2,639.65	93.3596	2,639.65	92.9603	2,639.65	92.6356	2,639.65	92.0745	2,639.65	91.9348	2,639.65	91.0746	2,639.65	90.8611	2,639.65	89.8306	2,639.65	89.4565	2,639.65	88.1727	2,639.65	87.6404	2,639.65	87.1466	2,639.65	85.7292	2,639.65	85.0338	2,639.65	84.238	2,639.65	83.1107	2,639.65	82.7005	2,639.65	82.3529	2,639.65	81.1523	2,639.65	81.8121	2,639.65	78.9548	2,639.65	79.1062	2,639.65	77.4699	2,639.65	78.337	2,639.65	78.7231	2,639.65	80.0664	2,639.65	78.4276	2,639.65	79.514	2,639.65	76.7457	2,639.65	75.3429	2,639.65	70.3445	2,639.65	73.2397	2,639.65	74.0244	2,639.65	76.8037
2,731.93	93.5733	2,731.93	93.3839	2,731.93	93.3302	2,731.93	92.8629	2,731.93	92.8532	2,731.93	92.0197	2,731.93	92.1789	2,731.93	90.8878	2,731.93	91.3262	2,731.93	89.1109	2,731.93	89.9818	2,731.93	87.9816	2,731.93	88.1976	2,731.93	86.2752	2,731.93	86.2923	2,731.93	84.2061	2,731.93	85.0608	2,731.93	81.9337	2,731.93	83.0816	2,731.93	81.5173	2,731.93	81.0647	2,731.93	81.0268	2,731.93	79.5536	2,731.93	77.3997	2,731.93	80.4928	2,731.93	76.7872	2,731.93	77.8264	2,731.93	80.4644	2,731.93	76.9809	2,731.93	80.2124	2,731.93	76.9257	2,731.93	76.4047	2,731.93	73.5998	2,731.93	75.0204	2,731.93	74.4912	2,731.93	76.5175
2,828.61	94.0744	2,828.61	93.9305	2,828.61	93.9786	2,828.61	93.5109	2,828.61	93.2992	2,828.61	92.5538	2,828.61	92.5054	2,828.61	91.3823	2,828.61	91.673	2,828.61	89.7659	2,828.61	90.5153	2,828.61	88.2543	2,828.61	88.8313	2,828.61	86.8932	2,828.61	86.4907	2,828.61	85.6246	2,828.61	85.1646	2,828.61	82.2043	2,828.61	83.8316	2,828.61	81.2603	2,828.61	82.1149	2,828.61	81.625	2,828.61	79.3864	2,828.61	78.8325	2,828.61	80.4861	2,828.61	74.3846	2,828.61	80.599	2,828.61	78.0435	2,828.61	80.3809	2,828.61	79.4911	2,828.61	75.4144	2,828.61	76.3741	2,828.61	70.3286	2,828.61	73.1665	2,828.61	76.2118	2,828.61	76.3722
2,928.22	93.1399	2,928.22	92.9283	2,928.22	93.0197	2,928.22	92.2076	2,928.22	92.4372	2,928.22	91.4974	2,928.22	91.5592	2,928.22	90.2738	2,928.22	90.4949	2,928.22	88.8629	2,928.22	89.4466	2,928.22	87.0039	2,928.22	88.2568	2,928.22	86.2545	2,928.22	86.0058	2,928.22	84.624	2,928.22	83.9787	2,928.22	81.8415	2,928.22	81.8448	2,928.22	79.9337	2,928.22	81.5093	2,928.22	80.6263	2,928.22	79.765	2,928.22	79.3542	2,928.22	77.8661	2,928.22	75.1135	2,928.22	78.9131	2,928.22	76.1623	2,928.22	79.1739	2,928.22	76.6757	2,928.22	76.2456	2,928.22	72.8428	2,928.22	66.8087	2,928.22	76.5824	2,928.22	71.395	2,928.22	76.2704
3,030.76	93.7243	3,030.76	93.2445	3,030.76	93.8273	3,030.76	92.5662	3,030.76	93.1265	3,030.76	91.5506	3,030.76	92.3651	3,030.76	90.4125	3,030.76	91.1779	3,030.76	89.0814	3,030.76	89.9996	3,030.76	86.853	3,030.76	88.578	3,030.76	85.2082	3,030.76	87.0047	3,030.76	84.6992	3,030.76	84.8873	3,030.76	82.2288	3,030.76	83.4097	3,030.76	79.8389	3,030.76	81.3387	3,030.76	79.9922	3,030.76	79.6104	3,030.76	79.7961	3,030.76	77.9957	3,030.76	74.5082	3,030.76	79.5029	3,030.76	75.9095	3,030.76	79.9625	3,030.76	77.8214	3,030.76	78.8943	3,030.76	75.265	3,030.76	71.6745	3,030.76	72.6324	3,030.76	71.167	3,030.76	75.2143
3,137.7	93.9364	3,137.7	93.6226	3,137.7	93.9105	3,137.7	92.9221	3,137.7	93.6001	3,137.7	91.9456	3,137.7	92.6367	3,137.7	90.9726	3,137.7	91.4495	3,137.7	89.967	3,137.7	89.8511	3,137.7	88.1161	3,137.7	88.6416	3,137.7	86.0381	3,137.7	86.8763	3,137.7	85.1594	3,137.7	84.6415	3,137.7	83.4248	3,137.7	82.958	3,137.7	80.4414	3,137.7	81.3842	3,137.7	79.83	3,137.7	79.763	3,137.7	81.345	3,137.7	78.1814	3,137.7	77.2086	3,137.7	78.4882	3,137.7	75.4022	3,137.7	80.3519	3,137.7	78.3689	3,137.7	79.3959	3,137.7	74.7697	3,137.7	72.8272	3,137.7	72.0615	3,137.7	71.0332	3,137.7	74.9997
3,249.02	93.9897	3,249.02	93.7091	3,249.02	93.7708	3,249.02	93.0038	3,249.02	93.5096	3,249.02	91.7685	3,249.02	92.3178	3,249.02	90.6194	3,249.02	91.0433	3,249.02	88.9557	3,249.02	89.3423	3,249.02	87.9338	3,249.02	88.0861	3,249.02	85.7732	3,249.02	86.4753	3,249.02	83.7308	3,249.02	84.6564	3,249.02	82.536	3,249.02	82.6689	3,249.02	78.894	3,249.02	80.5867	3,249.02	77.7843	3,249.02	78.9176	3,249.02	80.0064	3,249.02	77.9695	3,249.02	76.9663	3,249.02	77.6231	3,249.02	75.1447	3,249.02	78.0975	3,249.02	77.3515	3,249.02	78.6381	3,249.02	73.2842	3,249.02	71.4109	3,249.02	54.8003	3,249.02	64.2635	3,249.02	67.9663
3,363.28	93.8985	3,363.28	93.8325	3,363.28	93.5365	3,363.28	93.1589	3,363.28	93.5019	3,363.28	92.1731	3,363.28	92.4818	3,363.28	91.0306	3,363.28	91.3882	3,363.28	88.9468	3,363.28	89.6939	3,363.28	87.2984	3,363.28	87.8792	3,363.28	84.9758	3,363.28	85.8688	3,363.28	82.911	3,363.28	84.5966	3,363.28	82.5067	3,363.28	82.677	3,363.28	79.9766	3,363.28	80.6158	3,363.28	76.5254	3,363.28	77.7258	3,363.28	79.0405	3,363.28	78.1722	3,363.28	78.8158	3,363.28	78.6615	3,363.28	74.949	3,363.28	76.0003	3,363.28	77.1504	3,363.28	78.574	3,363.28	74.0721	3,363.28	73.0201	3,363.28	68.1137	3,363.28	62.5263	3,363.28	70.3657
3,481.93	94.257	3,481.93	94.1745	3,481.93	93.8259	3,481.93	93.7026	3,481.93	93.1753	3,481.93	92.6176	3,481.93	92.3514	3,481.93	91.241	3,481.93	90.6936	3,481.93	88.3582	3,481.93	89.3722	3,481.93	87.1948	3,481.93	87.9193	3,481.93	84.7431	3,481.93	85.4648	3,481.93	82.6564	3,481.93	83.7529	3,481.93	81.7612	3,481.93	81.6656	3,481.93	80.1111	3,481.93	80.2719	3,481.93	76.412	3,481.93	76.6643	3,481.93	77.9314	3,481.93	77.3405	3,481.93	78.592	3,481.93	77.7408	3,481.93	75.3993	3,481.93	75.5857	3,481.93	76.6873	3,481.93	77.6057	3,481.93	75.4235	3,481.93	75.6485	3,481.93	69.8275	3,481.93	67.5902	3,481.93	68.1857
3,604.98	94.0187	3,604.98	93.5716	3,604.98	94.1158	3,604.98	93.1316	3,604.98	93.0341	3,604.98	91.8916	3,604.98	92.1568	3,604.98	89.8747	3,604.98	90.7201	3,604.98	87.8162	3,604.98	88.9069	3,604.98	85.3247	3,604.98	86.8656	3,604.98	82.9371	3,604.98	85.2568	3,604.98	81.3874	3,604.98	81.6891	3,604.98	80.1238	3,604.98	80.3074	3,604.98	78.8369	3,604.98	79.6561	3,604.98	77.1774	3,604.98	76.5946	3,604.98	76.2812	3,604.98	75.2067	3,604.98	77.2469	3,604.98	76.5383	3,604.98	74.3313	3,604.98	75.79	3,604.98	75.1117	3,604.98	72.4638	3,604.98	73.8879	3,604.98	75.6078	3,604.98	70.7921	3,604.98	72.9666	3,604.98	66.8565
3,732.42	93.7318	3,732.42	93.4323	3,732.42	93.9892	3,732.42	92.8535	3,732.42	93.1025	3,732.42	91.975	3,732.42	92.4757	3,732.42	90.5089	3,732.42	91.1948	3,732.42	88.941	3,732.42	89.5841	3,732.42	86.8555	3,732.42	87.6012	3,732.42	84.6567	3,732.42	85.0848	3,732.42	82.8591	3,732.42	82.7248	3,732.42	80.5032	3,732.42	80.4509	3,732.42	79.6396	3,732.42	79.4337	3,732.42	75.2415	3,732.42	77.0109	3,732.42	76.7126	3,732.42	73.417	3,732.42	76.3594	3,732.42	76.1652	3,732.42	73.771	3,732.42	75.6178	3,732.42	76.443	3,732.42	73.0395	3,732.42	76.2911	3,732.42	74.6528	3,732.42	72.3257	3,732.42	72.64	3,732.42	71.8768
3,864.26	92.6487	3,864.26	92.4401	3,864.26	92.9312	3,864.26	91.8235	3,864.26	92.2869	3,864.26	91.3456	3,864.26	91.6303	3,864.26	89.6198	3,864.26	90.6701	3,864.26	88.9596	3,864.26	89.3191	3,864.26	86.9031	3,864.26	87.0985	3,864.26	85.5465	3,864.26	85.2609	3,864.26	82.1451	3,864.26	83.1577	3,864.26	80.3052	3,864.26	79.8107	3,864.26	78.888	3,864.26	78.7686	3,864.26	76.7434	3,864.26	77.4266	3,864.26	75.9964	3,864.26	72.002	3,864.26	77.6965	3,864.26	76.1709	3,864.26	75.4784	3,864.26	73.1054	3,864.26	75.1685	3,864.26	71.7508	3,864.26	75.3431	3,864.26	72.0547	3,864.26	70.3811	3,864.26	69.0417	3,864.26	67.8501
4,000.49	92.3701	4,000.49	91.886	4,000.49	92.3987	4,000.49	92.0105	4,000.49	92.4558	4,000.49	91.1917	4,000.49	91.875	4,000.49	90.1644	4,000.49	90.806	4,000.49	89.1617	4,000.49	88.7058	4,000.49	87.2538	4,000.49	86.6113	4,000.49	85.4178	4,000.49	84.3684	4,000.49	81.3426	4,000.49	82.1297	4,000.49	79.5807	4,000.49	80.4713	4,000.49	77.1661	4,000.49	77.4607	4,000.49	76.8051	4,000.49	76.0145	4,000.49	74.1127	4,000.49	74.0094	4,000.49	76.1125	4,000.49	74.0009	4,000.49	74.0462	4,000.49	73.8879	4,000.49	73.4479	4,000.49	72.9983	4,000.49	73.0811	4,000.49	72.9479	4,000.49	72.7804	4,000.49	66.2336	4,000.49	69.7608
4,141.11	92.2197	4,141.11	92.1858	4,141.11	91.7787	4,141.11	91.8439	4,141.11	92.5113	4,141.11	90.6439	4,141.11	91.5462	4,141.11	90.2482	4,141.11	90.729	4,141.11	87.5802	4,141.11	88.6544	4,141.11	86.2513	4,141.11	86.2956	4,141.11	84.0728	4,141.11	83.6451	4,141.11	81.0973	4,141.11	82.0356	4,141.11	78.9871	4,141.11	79.3122	4,141.11	77.072	4,141.11	78.0981	4,141.11	76.1003	4,141.11	78.6036	4,141.11	72.7946	4,141.11	73.3816	4,141.11	75.2064	4,141.11	73.1265	4,141.11	70.6255	4,141.11	75.825	4,141.11	73.5512	4,141.11	73.1112	4,141.11	72.248	4,141.11	72.9675	4,141.11	70.4224	4,141.11	66.4078	4,141.11	70.8373
4,287.6	91.7192	4,287.6	92.4858	4,287.6	91.5677	4,287.6	91.5314	4,287.6	91.9717	4,287.6	91.0346	4,287.6	91.3935	4,287.6	90.7558	4,287.6	89.7455	4,287.6	87.8503	4,287.6	87.9278	4,287.6	85.2915	4,287.6	85.4468	4,287.6	82.9977	4,287.6	82.5635	4,287.6	81.1493	4,287.6	81.6842	4,287.6	78.2612	4,287.6	79.0438	4,287.6	76.5879	4,287.6	75.9423	4,287.6	72.8883	4,287.6	77.7117	4,287.6	72.8007	4,287.6	72.7878	4,287.6	73.5108	4,287.6	75.0039	4,287.6	73.6744	4,287.6	73.9651	4,287.6	73.9875	4,287.6	73.3803	4,287.6	69.8579	4,287.6	73.37	4,287.6	61.7446	4,287.6	63.151	4,287.6	64.7253
4,438.48	92.1079	4,438.48	91.6279	4,438.48	92.6098	4,438.48	91.8847	4,438.48	91.9061	4,438.48	90.8947	4,438.48	91.4122	4,438.48	88.9621	4,438.48	89.304	4,438.48	86.5117	4,438.48	86.8294	4,438.48	83.5609	4,438.48	86.3044	4,438.48	80.113	4,438.48	83.8388	4,438.48	79.7884	4,438.48	80.0125	4,438.48	75.5293	4,438.48	78.4507	4,438.48	73.3721	4,438.48	76.0462	4,438.48	72.3212	4,438.48	75.6105	4,438.48	72.1647	4,438.48	75.2127	4,438.48	73.2757	4,438.48	73.2481	4,438.48	74.1326	4,438.48	74.1756	4,438.48	72.2423	4,438.48	73.2243	4,438.48	71.8233	4,438.48	73.3579	4,438.48	63.8235	4,438.48	70.1572	4,438.48	55.2444
4,595.21	92.6387	4,595.21	91.8708	4,595.21	92.4859	4,595.21	92.624	4,595.21	91.463	4,595.21	90.9321	4,595.21	89.9772	4,595.21	87.5336	4,595.21	89.0416	4,595.21	85.5026	4,595.21	87.4475	4,595.21	84.2557	4,595.21	84.468	4,595.21	82.9514	4,595.21	81.9093	4,595.21	79.4142	4,595.21	81.2756	4,595.21	77.5508	4,595.21	77.7336	4,595.21	73.7153	4,595.21	74.1689	4,595.21	75.5815	4,595.21	74.6043	4,595.21	71.8342	4,595.21	73.5877	4,595.21	74.905	4,595.21	72.5616	4,595.21	76.1056	4,595.21	74.5294	4,595.21	73.6088	4,595.21	69.8642	4,595.21	70.4678	4,595.21	73.0137	4,595.21	67.4701	4,595.21	69.5989	4,595.21	67.2958
4,756.35	92.5123	4,756.35	92.6614	4,756.35	91.9486	4,756.35	91.0379	4,756.35	92.0773	4,756.35	89.7814	4,756.35	90.5067	4,756.35	87.7841	4,756.35	89.6914	4,756.35	85.3197	4,756.35	88.1166	4,756.35	83.2286	4,756.35	84.9848	4,756.35	80.08	4,756.35	81.5406	4,756.35	75.2514	4,756.35	79.2379	4,756.35	78.4581	4,756.35	77.8281	4,756.35	76.8165	4,756.35	74.9912	4,756.35	72.2694	4,756.35	75.1814	4,756.35	69.5966	4,756.35	72.9752	4,756.35	70.7928	4,756.35	73.7041	4,756.35	72.9696	4,756.35	76.7392	4,756.35	71.1381	4,756.35	72.4398	4,756.35	74.0413	4,756.35	72.5452	4,756.35	65.3774	4,756.35	69.0446	4,756.35	68.1481
4,924.8	91.5081	4,924.8	92.0976	4,924.8	92.191	4,924.8	90.7443	4,924.8	91.5568	4,924.8	90.1276	4,924.8	91.0925	4,924.8	88.8574	4,924.8	88.681	4,924.8	86.6829	4,924.8	85.8369	4,924.8	83.3216	4,924.8	83.1774	4,924.8	79.9899	4,924.8	81.1371	4,924.8	79.1239	4,924.8	78.285	4,924.8	77.9704	4,924.8	78.0293	4,924.8	79.3124	4,924.8	73.913	4,924.8	74.0483	4,924.8	71.8141	4,924.8	73.6053	4,924.8	72.3424	4,924.8	70.2728	4,924.8	72.2277	4,924.8	71.5505	4,924.8	73.3476	4,924.8	72.7968	4,924.8	73.2111	4,924.8	73.7107	4,924.8	72.375	4,924.8	64.9051	4,924.8	68.4718	4,924.8	65.8731
5,097.66	93.2075	5,097.66	92.4922	5,097.66	93.5022	5,097.66	93.0299	5,097.66	91.7776	5,097.66	91.1004	5,097.66	91.3451	5,097.66	89.659	5,097.66	88.4853	5,097.66	86.8585	5,097.66	85.3172	5,097.66	83.9608	5,097.66	83.0765	5,097.66	81.3014	5,097.66	82.0891	5,097.66	80.9041	5,097.66	80.5283	5,097.66	76.5222	5,097.66	75.9566	5,097.66	75.0131	5,097.66	75.9498	5,097.66	73.0601	5,097.66	72.6054	5,097.66	73.0387	5,097.66	74.5025	5,097.66	73.1062	5,097.66	69.6988	5,097.66	71.7349	5,097.66	74.6692	5,097.66	74.8125	5,097.66	69.9124	5,097.66	69.843	5,097.66	73.2793	5,097.66	68.4354	5,097.66	71.7094	5,097.66	65.4144
5,277.83	92.3957	5,277.83	91.9331	5,277.83	91.6269	5,277.83	91.9427	5,277.83	91.4051	5,277.83	90.0674	5,277.83	89.8808	5,277.83	87.4294	5,277.83	88.4738	5,277.83	84.5898	5,277.83	86.6136	5,277.83	82.7766	5,277.83	84.1717	5,277.83	81.839	5,277.83	81.4628	5,277.83	79.2519	5,277.83	81.3805	5,277.83	77.2222	5,277.83	76.7137	5,277.83	72.01	5,277.83	76.1592	5,277.83	73.0582	5,277.83	74.4738	5,277.83	73.8382	5,277.83	73.6179	5,277.83	73.4945	5,277.83	70.6294	5,277.83	74.0386	5,277.83	75.5229	5,277.83	72.8769	5,277.83	72.8595	5,277.83	72.0737	5,277.83	73.5141	5,277.83	66.2803	5,277.83	71.8504	5,277.83	61.4598
5,463.87	92.0747	5,463.87	92.3253	5,463.87	91.1348	5,463.87	91.2492	5,463.87	91.3984	5,463.87	90.1971	5,463.87	89.709	5,463.87	86.8681	5,463.87	88.7554	5,463.87	84.8075	5,463.87	87.1041	5,463.87	82.9237	5,463.87	85.281	5,463.87	82.7273	5,463.87	83.5574	5,463.87	78.5284	5,463.87	78.4662	5,463.87	78.7117	5,463.87	78.0551	5,463.87	75.6948	5,463.87	76.1075	5,463.87	72.6489	5,463.87	73.7907	5,463.87	71.4065	5,463.87	73.5743	5,463.87	70.781	5,463.87	70.2361	5,463.87	72.3448	5,463.87	73.0897	5,463.87	68.3799	5,463.87	73.5388	5,463.87	73.1074	5,463.87	70.9558	5,463.87	66.6759	5,463.87	67.481	5,463.87	67.5758
5,657.23	91.3379	5,657.23	91.5821	5,657.23	91.6314	5,657.23	90.4379	5,657.23	90.4862	5,657.23	89.3175	5,657.23	90.3532	5,657.23	87.4744	5,657.23	88.0346	5,657.23	85.156	5,657.23	85.8269	5,657.23	82.7034	5,657.23	84.7203	5,657.23	79.7455	5,657.23	82.6598	5,657.23	77.5154	5,657.23	78.4282	5,657.23	75.3944	5,657.23	78.705	5,657.23	77.0144	5,657.23	73.505	5,657.23	73.267	5,657.23	73.9652	5,657.23	72.114	5,657.23	70.3706	5,657.23	68.8387	5,657.23	72.3156	5,657.23	73.7552	5,657.23	73.3988	5,657.23	72.2956	5,657.23	71.7955	5,657.23	71.0788	5,657.23	70.4543	5,657.23	64.8237	5,657.23	63.5198	5,657.23	69.5819
5,856.45	91.3958	5,856.45	91.1864	5,856.45	91.7084	5,856.45	90.4183	5,856.45	91.2607	5,856.45	89.1175	5,856.45	89.9145	5,856.45	88.1566	5,856.45	88.2167	5,856.45	85.4616	5,856.45	86.2613	5,856.45	83.4775	5,856.45	83.6247	5,856.45	78.6363	5,856.45	80.4258	5,856.45	78.4041	5,856.45	80.5612	5,856.45	73.5809	5,856.45	76.9654	5,856.45	74.6855	5,856.45	74.4517	5,856.45	72.1122	5,856.45	71.3725	5,856.45	73.2935	5,856.45	70.3329	5,856.45	63.0537	5,856.45	69.3671	5,856.45	70.391	5,856.45	72.3212	5,856.45	71.7633	5,856.45	67.4006	5,856.45	66.5577	5,856.45	69.2556	5,856.45	59.5584	5,856.45	60.977	5,856.45	68.1726
6,062.99	91.1232	6,062.99	90.6546	6,062.99	91.0118	6,062.99	89.9433	6,062.99	90.9275	6,062.99	88.1396	6,062.99	88.6749	6,062.99	86.425	6,062.99	87.4571	6,062.99	84.5396	6,062.99	85.6999	6,062.99	82.6857	6,062.99	82.3769	6,062.99	81.3495	6,062.99	80.8291	6,062.99	77.9996	6,062.99	77.8002	6,062.99	76.5417	6,062.99	73.6977	6,062.99	71.2365	6,062.99	73.2393	6,062.99	72.6282	6,062.99	70.7042	6,062.99	70.2936	6,062.99	66.0863	6,062.99	68.4737	6,062.99	67.5878	6,062.99	65.4347	6,062.99	69.7735	6,062.99	68.9062	6,062.99	69.3951	6,062.99	66.723	6,062.99	68.5354	6,062.99	41.9573	6,062.99	64.4158	6,062.99	61.2912
6,276.86	90.8008	6,276.86	90.4028	6,276.86	90.9167	6,276.86	89.4227	6,276.86	90.0205	6,276.86	87.6122	6,276.86	89.1672	6,276.86	85.12	6,276.86	86.7565	6,276.86	84.1046	6,276.86	84.7235	6,276.86	81.5336	6,276.86	83.0523	6,276.86	80.5601	6,276.86	80.2128	6,276.86	76.1291	6,276.86	77.721	6,276.86	73.3709	6,276.86	74.4924	6,276.86	70.6116	6,276.86	72.944	6,276.86	69.9973	6,276.86	71.9208	6,276.86	67.1622	6,276.86	69.6938	6,276.86	66.4488	6,276.86	67.6622	6,276.86	69.4468	6,276.86	65.2624	6,276.86	67.4306	6,276.86	68.3063	6,276.86	59.1528	6,276.86	66.2717	6,276.86	44.2941	6,276.86	57.8381	6,276.86	63.0168
6,498.05	91.1098	6,498.05	90.4223	6,498.05	91.043	6,498.05	89.4942	6,498.05	89.5728	6,498.05	87.1037	6,498.05	88.7101	6,498.05	84.9001	6,498.05	87.0574	6,498.05	82.9249	6,498.05	84.8862	6,498.05	81.3615	6,498.05	82.8271	6,498.05	77.3768	6,498.05	79.2113	6,498.05	75.9151	6,498.05	77.6484	6,498.05	72.8831	6,498.05	74.1012	6,498.05	71.5051	6,498.05	72.2337	6,498.05	70.0988	6,498.05	70.8194	6,498.05	67.2016	6,498.05	70.4799	6,498.05	71.498	6,498.05	69.7719	6,498.05	64.4979	6,498.05	67.318	6,498.05	70.0226	6,498.05	65.1696	6,498.05	69.4576	6,498.05	69.581	6,498.05	58.7058	6,498.05	63.722	6,498.05	64.2081
6,726.56	90.487	6,726.56	89.8241	6,726.56	90.1693	6,726.56	88.1549	6,726.56	89.3687	6,726.56	85.7517	6,726.56	87.3474	6,726.56	84.0502	6,726.56	86.4072	6,726.56	82.0845	6,726.56	84.8744	6,726.56	80.3367	6,726.56	82.3707	6,726.56	77.5868	6,726.56	80.0816	6,726.56	74.9416	6,726.56	77.0398	6,726.56	73.7432	6,726.56	73.7671	6,726.56	69.7161	6,726.56	71.6795	6,726.56	68.5098	6,726.56	71.044	6,726.56	67.8269	6,726.56	68.733	6,726.56	72.9008	6,726.56	69.721	6,726.56	66.0673	6,726.56	65.9648	6,726.56	71.0364	6,726.56	69.5499	6,726.56	68.4848	6,726.56	67.6071	6,726.56	61.4411	6,726.56	67.1968	6,726.56	60.9777
6,963.87	90.0854	6,963.87	89.2173	6,963.87	90.0812	6,963.87	87.347	6,963.87	88.4419	6,963.87	85.4752	6,963.87	86.9363	6,963.87	84.0087	6,963.87	85.078	6,963.87	83.5285	6,963.87	83.3372	6,963.87	79.7097	6,963.87	81.81	6,963.87	78.5078	6,963.87	79.9467	6,963.87	76.709	6,963.87	76.7092	6,963.87	74.3284	6,963.87	73.8719	6,963.87	71.4683	6,963.87	70.9321	6,963.87	69.3156	6,963.87	69.4654	6,963.87	69.0091	6,963.87	69.06	6,963.87	70.6936	6,963.87	68.2355	6,963.87	64.8067	6,963.87	66.312	6,963.87	70.638	6,963.87	69.1038	6,963.87	67.8196	6,963.87	62.9595	6,963.87	63.8103	6,963.87	65.9908	6,963.87	59.2829
7,209.96	90.4419	7,209.96	89.3179	7,209.96	89.9219	7,209.96	87.4404	7,209.96	88.3146	7,209.96	85.3324	7,209.96	86.5652	7,209.96	84.1901	7,209.96	85.0947	7,209.96	82.6287	7,209.96	83.552	7,209.96	81.2859	7,209.96	81.6439	7,209.96	79.6994	7,209.96	79.7831	7,209.96	76.5307	7,209.96	76.7552	7,209.96	74.3019	7,209.96	75.0899	7,209.96	72.0858	7,209.96	70.695	7,209.96	68.9171	7,209.96	70.4142	7,209.96	69.696	7,209.96	68.0584	7,209.96	66.9971	7,209.96	70.2948	7,209.96	68.2664	7,209.96	66.4481	7,209.96	68.0422	7,209.96	69.8475	7,209.96	68.1418	7,209.96	63.7494	7,209.96	65.9263	7,209.96	66.7142	7,209.96	58.1458
7,464.84	90.6768	7,464.84	89.0374	7,464.84	90.0673	7,464.84	86.7132	7,464.84	88.2296	7,464.84	85.4289	7,464.84	86.1713	7,464.84	84.735	7,464.84	85.3711	7,464.84	82.976	7,464.84	84.3385	7,464.84	81.67	7,464.84	81.9525	7,464.84	79.5897	7,464.84	80.2339	7,464.84	76.1062	7,464.84	76.8106	7,464.84	73.239	7,464.84	74.9043	7,464.84	71.325	7,464.84	72.5886	7,464.84	68.8063	7,464.84	70.6359	7,464.84	68.5537	7,464.84	67.4781	7,464.84	67.2968	7,464.84	69.6147	7,464.84	68.1113	7,464.84	68.0361	7,464.84	68.7951	7,464.84	70.987	7,464.84	66.332	7,464.84	63.8954	7,464.84	64.8577	7,464.84	65.5918	7,464.84	60.3176
7,727.05	90.2554	7,727.05	88.8143	7,727.05	89.8815	7,727.05	86.2272	7,727.05	87.5266	7,727.05	85.2977	7,727.05	86.4417	7,727.05	84.5744	7,727.05	85.2457	7,727.05	83.6766	7,727.05	84.0526	7,727.05	80.8309	7,727.05	82.1755	7,727.05	78.6929	7,727.05	80.5686	7,727.05	76.1517	7,727.05	78.0462	7,727.05	74.5447	7,727.05	74.7678	7,727.05	71.9948	7,727.05	72.7814	7,727.05	68.4567	7,727.05	70.6027	7,727.05	65.6929	7,727.05	68.2102	7,727.05	65.765	7,727.05	69.3672	7,727.05	69.1414	7,727.05	70.3798	7,727.05	67.1665	7,727.05	70.0534	7,727.05	65.6279	7,727.05	68.4974	7,727.05	60.0062	7,727.05	66.618	7,727.05	62.7501
7,999.51	89.9857	7,999.51	88.5388	7,999.51	89.3613	7,999.51	86.2032	7,999.51	87.851	7,999.51	84.9758	7,999.51	86.6051	7,999.51	84.9645	7,999.51	85.7766	7,999.51	82.7127	7,999.51	84.2486	7,999.51	81.014	7,999.51	82.4185	7,999.51	79.6615	7,999.51	78.7534	7,999.51	75.6627	7,999.51	78.0224	7,999.51	74.5593	7,999.51	74.0399	7,999.51	71.1603	7,999.51	71.2729	7,999.51	68.4857	7,999.51	68.7916	7,999.51	69.4837	7,999.51	70.5342	7,999.51	67.7561	7,999.51	66.5932	7,999.51	68.3735	7,999.51	67.75	7,999.51	67.8487	7,999.51	70.0335	7,999.51	65.7051	7,999.51	66.446	7,999.51	64.1543	7,999.51	61.3945	7,999.51	62.1116
8,282.23	89.8753	8,282.23	88.4917	8,282.23	89.3287	8,282.23	86.1226	8,282.23	87.2598	8,282.23	85.4151	8,282.23	86.6298	8,282.23	84.2288	8,282.23	85.9072	8,282.23	82.8515	8,282.23	84.2246	8,282.23	81.1617	8,282.23	81.9081	8,282.23	79.3553	8,282.23	80.4333	8,282.23	76.72	8,282.23	76.7656	8,282.23	73.9213	8,282.23	74.8516	8,282.23	71.7673	8,282.23	71.1042	8,282.23	71.1276	8,282.23	70.0303	8,282.23	67.7198	8,282.23	64.892	8,282.23	68.8763	8,282.23	70.0412	8,282.23	68.1537	8,282.23	68.5062	8,282.23	69.7413	8,282.23	69.461	8,282.23	62.8867	8,282.23	68.3152	8,282.23	61.1523	8,282.23	61.6512	8,282.23	62.9537
8,573.73	89.3809	8,573.73	88.0108	8,573.73	89.0719	8,573.73	86.3144	8,573.73	87.2551	8,573.73	84.9055	8,573.73	86.1918	8,573.73	83.6895	8,573.73	84.6836	8,573.73	83.6642	8,573.73	82.8167	8,573.73	81.3062	8,573.73	80.6871	8,573.73	79.2038	8,573.73	78.9566	8,573.73	77.2342	8,573.73	77.5248	8,573.73	74.3961	8,573.73	73.944	8,573.73	72.7151	8,573.73	71.4525	8,573.73	70.121	8,573.73	68.9199	8,573.73	67.6645	8,573.73	67.8931	8,573.73	69.1188	8,573.73	69.8448	8,573.73	70.2708	8,573.73	67.0665	8,573.73	68.8748	8,573.73	69.0738	8,573.73	68.1846	8,573.73	67.2797	8,573.73	58.7758	8,573.73	64.1682	8,573.73	65.5441
8,876.95	88.0033	8,876.95	86.2492	8,876.95	87.3814	8,876.95	84.545	8,876.95	86.0515	8,876.95	84.7201	8,876.95	85.1844	8,876.95	83.9027	8,876.95	83.5877	8,876.95	83.3349	8,876.95	82.821	8,876.95	82.5007	8,876.95	81.8466	8,876.95	79.7179	8,876.95	81.0486	8,876.95	77.6277	8,876.95	76.8128	8,876.95	74.8195	8,876.95	74.7577	8,876.95	72.0525	8,876.95	72.2852	8,876.95	69.6685	8,876.95	70.5699	8,876.95	66.438	8,876.95	68.0709	8,876.95	68.1098	8,876.95	65.9297	8,876.95	71.1447	8,876.95	66.2521	8,876.95	68.8192	8,876.95	66.8053	8,876.95	67.8359	8,876.95	65.6868	8,876.95	61.1032	8,876.95	62.2665	8,876.95	64.8307
9,188.96	85.1764	9,188.96	84.7336	9,188.96	85.1858	9,188.96	83.7159	9,188.96	84.5014	9,188.96	83.5783	9,188.96	83.8191	9,188.96	83.8896	9,188.96	82.86	9,188.96	83.9086	9,188.96	82.769	9,188.96	82.7531	9,188.96	82.6537	9,188.96	81.882	9,188.96	81.0333	9,188.96	78.5959	9,188.96	79.359	9,188.96	75.7235	9,188.96	75.2297	9,188.96	72.9971	9,188.96	72.4934	9,188.96	69.1236	9,188.96	69.5077	9,188.96	68.8194	9,188.96	67.1572	9,188.96	63.8804	9,188.96	68.9431	9,188.96	71.0576	9,188.96	70.1885	9,188.96	70.3204	9,188.96	66.9048	9,188.96	68.1174	9,188.96	68.2244	9,188.96	56.4992	9,188.96	58.5618	9,188.96	61.9171
9,514.16	83.371	9,514.16	82.9216	9,514.16	83.5341	9,514.16	83.1845	9,514.16	83.2328	9,514.16	83.3717	9,514.16	83.4671	9,514.16	83.5953	9,514.16	83.8078	9,514.16	84.5061	9,514.16	83.5252	9,514.16	83.2074	9,514.16	83.0112	9,514.16	81.4698	9,514.16	81.478	9,514.16	78.0574	9,514.16	79.2026	9,514.16	75.6672	9,514.16	75.5433	9,514.16	73.6565	9,514.16	73.1155	9,514.16	70.5919	9,514.16	70.3359	9,514.16	66.5406	9,514.16	66.6857	9,514.16	67.76	9,514.16	64.685	9,514.16	69.3735	9,514.16	70.0977	9,514.16	68.3024	9,514.16	68.6915	9,514.16	67.4288	9,514.16	66.6597	9,514.16	50.8844	9,514.16	58.3712	9,514.16	63.5802
9,849.61	82.0333	9,849.61	82.9568	9,849.61	82.6869	9,849.61	83.7294	9,849.61	82.9048	9,849.61	83.9184	9,849.61	82.404	9,849.61	84.032	9,849.61	82.8457	9,849.61	84.6259	9,849.61	84.015	9,849.61	83.5513	9,849.61	82.6704	9,849.61	80.9602	9,849.61	80.0523	9,849.61	78.1297	9,849.61	78.2434	9,849.61	74.2922	9,849.61	74.5334	9,849.61	71.3049	9,849.61	71.4029	9,849.61	69.0461	9,849.61	69.0821	9,849.61	67.5205	9,849.61	65.6978	9,849.61	66.8193	9,849.61	66.8126	9,849.61	68.1525	9,849.61	68.5503	9,849.61	68.5264	9,849.61	67.4584	9,849.61	63.9212	9,849.61	66.3932	9,849.61	52.8667	9,849.61	56.1317	9,849.61	60.9197
10,196.8	82.6775	10,196.8	84.2146	10,196.8	83.1203	10,196.8	84.282	10,196.8	83.4267	10,196.8	84.1143	10,196.8	82.9025	10,196.8	84.2547	10,196.8	83.7406	10,196.8	84.7593	10,196.8	83.6491	10,196.8	82.7381	10,196.8	82.4408	10,196.8	80.3185	10,196.8	79.7271	10,196.8	76.669	10,196.8	77.6237	10,196.8	73.3649	10,196.8	73.4498	10,196.8	71.7821	10,196.8	69.7524	10,196.8	68.6312	10,196.8	67.8446	10,196.8	63.7923	10,196.8	63.0764	10,196.8	66.6148	10,196.8	68.6847	10,196.8	68.2986	10,196.8	69.3845	10,196.8	70.0597	10,196.8	66.8256	10,196.8	60.0425	10,196.8	65.3621	10,196.8	60.2617	10,196.8	59.6168	10,196.8	62.2143
10,555.7	80.9657	10,555.7	83.1424	10,555.7	82.6667	10,555.7	83.2261	10,555.7	82.6464	10,555.7	83.8937	10,555.7	82.4803	10,555.7	83.6646	10,555.7	82.8837	10,555.7	83.6254	10,555.7	83.2103	10,555.7	82.287	10,555.7	81.2843	10,555.7	79.2261	10,555.7	79.0987	10,555.7	77.0215	10,555.7	76.5084	10,555.7	73.4246	10,555.7	72.1999	10,555.7	69.6743	10,555.7	69.7993	10,555.7	65.2439	10,555.7	67.3759	10,555.7	66.0582	10,555.7	64.1191	10,555.7	65.0554	10,555.7	67.0822	10,555.7	67.9719	10,555.7	67.9422	10,555.7	67.6768	10,555.7	67.5536	10,555.7	57.9489	10,555.7	63.492	10,555.7	60.3573	10,555.7	63.1879	10,555.7	64.9369
10,927.7	80.5491	10,927.7	82.9	10,927.7	81.2839	10,927.7	82.7611	10,927.7	82.4638	10,927.7	83.844	10,927.7	83.6079	10,927.7	83.3681	10,927.7	83.3043	10,927.7	83.1006	10,927.7	82.5979	10,927.7	80.894	10,927.7	80.9815	10,927.7	78.0799	10,927.7	78.473	10,927.7	74.9861	10,927.7	75.4567	10,927.7	72.1132	10,927.7	71.8094	10,927.7	69.0864	10,927.7	68.1995	10,927.7	66.7692	10,927.7	65.8929	10,927.7	63.7145	10,927.7	61.3759	10,927.7	62.8037	10,927.7	65.0233	10,927.7	66.1688	10,927.7	67.995	10,927.7	65.5016	10,927.7	66.3607	10,927.7	60.0927	10,927.7	65.7959	10,927.7	62.3796	10,927.7	62.8972	10,927.7	63.8585
11,313	81.8357	11,313	82.4737	11,313	82.3007	11,313	83.8303	11,313	83.1978	11,313	84.3436	11,313	84.0984	11,313	83.7084	11,313	83.5214	11,313	82.6005	11,313	81.8215	11,313	80.1847	11,313	79.8088	11,313	76.9928	11,313	76.7183	11,313	73.9772	11,313	74.6581	11,313	69.507	11,313	70.24	11,313	68.0453	11,313	66.0363	11,313	63.1554	11,313	65.1701	11,313	60.6353	11,313	61.59	11,313	60.7603	11,313	62.5686	11,313	62.1507	11,313	65.3568	11,313	65.1757	11,313	66.686	11,313	61.1732	11,313	65.7241	11,313	60.9429	11,313	62.131	11,313	63.583
11,712.9	83.9125	11,712.9	84.8555	11,712.9	84.05	11,712.9	84.8848	11,712.9	84.7579	11,712.9	85.8803	11,712.9	85.0038	11,712.9	83.5192	11,712.9	83.3274	11,712.9	82.3176	11,712.9	81.8171	11,712.9	79.6817	11,712.9	78.8372	11,712.9	76.1718	11,712.9	74.3993	11,712.9	73.4474	11,712.9	73.6628	11,712.9	69.038	11,712.9	68.0844	11,712.9	67.1248	11,712.9	66.0042	11,712.9	60.3436	11,712.9	61.107	11,712.9	57.3136	11,712.9	60.6886	11,712.9	57.7818	11,712.9	61.0279	11,712.9	64.568	11,712.9	64.9793	11,712.9	61.9916	11,712.9	64.7015	11,712.9	58.2092	11,712.9	63.336	11,712.9	60.3421	11,712.9	59.1922	11,712.9	61.5775
12,126	85.1032	12,126	85.1349	12,126	85.0725	12,126	85.3371	12,126	85.0952	12,126	85.0325	12,126	84.8735	12,126	83.519	12,126	83.4766	12,126	82.2072	12,126	81.5651	12,126	79.4093	12,126	78.3592	12,126	74.8421	12,126	73.1506	12,126	71.1665	12,126	72.1726	12,126	67.8832	12,126	67.3434	12,126	63.2433	12,126	63.1462	12,126	62.0094	12,126	60.7782	12,126	59.0295	12,126	59.8542	12,126	61.8719	12,126	45.5618	12,126	61.2818	12,126	62.6749	12,126	62.5999	12,126	63.162	12,126	61.6637	12,126	63.7531	12,126	61.5577	12,126	60.1102	12,126	64.6054
12,553.7	85.5434	12,553.7	86.1477	12,553.7	85.7032	12,553.7	85.653	12,553.7	85.7011	12,553.7	85.3566	12,553.7	85.7879	12,553.7	82.9381	12,553.7	83.5388	12,553.7	81.6704	12,553.7	81.2903	12,553.7	78.5954	12,553.7	77.6897	12,553.7	76.5343	12,553.7	74.8309	12,553.7	72.0645	12,553.7	72.7023	12,553.7	70.322	12,553.7	69.522	12,553.7	67.3406	12,553.7	65.8542	12,553.7	63.1425	12,553.7	63.6532	12,553.7	62.5099	12,553.7	61.5023	12,553.7	64.7249	12,553.7	57.5697	12,553.7	61.9951	12,553.7	60.5495	12,553.7	63.597	12,553.7	63.8415	12,553.7	60.0067	12,553.7	64.0792	12,553.7	60.1627	12,553.7	58.193	12,553.7	64.0391
12,996.1	86.0656	12,996.1	86.1689	12,996.1	86.4496	12,996.1	86.3227	12,996.1	86.5877	12,996.1	86.1278	12,996.1	85.9599	12,996.1	83.2287	12,996.1	83.3971	12,996.1	81.786	12,996.1	81.0911	12,996.1	79.8844	12,996.1	78.7862	12,996.1	78.1934	12,996.1	77.0491	12,996.1	74.9107	12,996.1	74.7627	12,996.1	70.7607	12,996.1	71.441	12,996.1	68.1347	12,996.1	67.2542	12,996.1	61.7478	12,996.1	65.0484	12,996.1	61.2892	12,996.1	63.1523	12,996.1	64.4891	12,996.1	53.4681	12,996.1	63.9827	12,996.1	59.1241	12,996.1	63.7893	12,996.1	65.5929	12,996.1	59.5943	12,996.1	65.0054	12,996.1	58.2874	12,996.1	60.7235	12,996.1	62.5631
13,454.6	87.0638	13,454.6	87.0261	13,454.6	86.9442	13,454.6	86.9674	13,454.6	87.0524	13,454.6	86.1025	13,454.6	86.4993	13,454.6	83.8428	13,454.6	83.9285	13,454.6	82.5311	13,454.6	81.0724	13,454.6	80.7622	13,454.6	79.8989	13,454.6	78.569	13,454.6	77.1694	13,454.6	73.4122	13,454.6	74.1581	13,454.6	71.2227	13,454.6	71.0796	13,454.6	67.38	13,454.6	66.9535	13,454.6	61.9922	13,454.6	65.2828	13,454.6	62.3058	13,454.6	60.33	13,454.6	63.9917	13,454.6	57.0731	13,454.6	64.2573	13,454.6	61.1433	13,454.6	65.2291	13,454.6	65.0479	13,454.6	57.5222	13,454.6	64.9279	13,454.6	58.3511	13,454.6	59.131	13,454.6	59.6941
13,929.2	87.2225	13,929.2	87.5132	13,929.2	87.2179	13,929.2	86.9481	13,929.2	87.4413	13,929.2	86.4579	13,929.2	86.4673	13,929.2	84.0002	13,929.2	84.2466	13,929.2	82.1542	13,929.2	81.5756	13,929.2	79.9361	13,929.2	80.0763	13,929.2	77.5714	13,929.2	76.594	13,929.2	73.9263	13,929.2	73.958	13,929.2	69.4059	13,929.2	69.8678	13,929.2	68.0144	13,929.2	66.9984	13,929.2	63.5705	13,929.2	63.2895	13,929.2	61.6355	13,929.2	59.9349	13,929.2	61.3969	13,929.2	62.449	13,929.2	64.3084	13,929.2	60.0347	13,929.2	64.4744	13,929.2	62.8868	13,929.2	55.5281	13,929.2	63.7758	13,929.2	59.1928	13,929.2	56.4283	13,929.2	59.611
14,419.9	87.7575	14,419.9	87.7418	14,419.9	88.0871	14,419.9	87.2459	14,419.9	87.5928	14,419.9	86.077	14,419.9	86.3002	14,419.9	83.08	14,419.9	83.9556	14,419.9	81.7803	14,419.9	82.0932	14,419.9	79.7347	14,419.9	79.7271	14,419.9	76.0299	14,419.9	76.5136	14,419.9	73.2311	14,419.9	73.4847	14,419.9	69.6018	14,419.9	68.82	14,419.9	66.2218	14,419.9	65.9543	14,419.9	62.298	14,419.9	61.5193	14,419.9	62.2277	14,419.9	60.2356	14,419.9	61.2043	14,419.9	54.4127	14,419.9	63.1172	14,419.9	56.6312	14,419.9	64.106	14,419.9	61.0073	14,419.9	56.9908	14,419.9	62.9473	14,419.9	57.1116	14,419.9	57.6915	14,419.9	58.4424
14,928.2	88.0368	14,928.2	87.9246	14,928.2	88.0122	14,928.2	87.0618	14,928.2	87.5018	14,928.2	85.6279	14,928.2	86.28	14,928.2	83.1303	14,928.2	84.008	14,928.2	81.0436	14,928.2	81.8952	14,928.2	78.1877	14,928.2	78.7256	14,928.2	74.2625	14,928.2	74.0773	14,928.2	69.596	14,928.2	71.0918	14,928.2	67.6733	14,928.2	67.749	14,928.2	62.9378	14,928.2	62.2525	14,928.2	62.2163	14,928.2	62.204	14,928.2	57.3461	14,928.2	57.957	14,928.2	55.8059	14,928.2	56.7448	14,928.2	61.2094	14,928.2	55.9765	14,928.2	61.5816	14,928.2	59.7189	14,928.2	55.3696	14,928.2	60.7902	14,928.2	57.815	14,928.2	55.3465	14,928.2	53.2567
15,455.6	87.9085	15,455.6	87.9333	15,455.6	87.9046	15,455.6	87.2662	15,455.6	87.2576	15,455.6	86.0444	15,455.6	86.3934	15,455.6	83.1977	15,455.6	83.7933	15,455.6	80.6841	15,455.6	81.1333	15,455.6	77.8131	15,455.6	78.4631	15,455.6	75.0362	15,455.6	75.0529	15,455.6	70.7473	15,455.6	71.9913	15,455.6	67.306	15,455.6	68.6077	15,455.6	64.4198	15,455.6	63.2857	15,455.6	59.3274	15,455.6	63.6434	15,455.6	52.8468	15,455.6	58.0021	15,455.6	54.5881	15,455.6	60.8418	15,455.6	60.3517	15,455.6	58.5688	15,455.6	60.938	15,455.6	61.2315	15,455.6	57.5667	15,455.6	60.1493	15,455.6	55.6738	15,455.6	54.6819	15,455.6	48.8584
16,000.5	87.3372	16,000.5	87.6774	16,000.5	87.3801	16,000.5	87.1174	16,000.5	86.6162	16,000.5	85.7613	16,000.5	85.5406	16,000.5	82.7004	16,000.5	83.438	16,000.5	80.5115	16,000.5	80.0661	16,000.5	77.308	16,000.5	77.291	16,000.5	72.9402	16,000.5	73.471	16,000.5	70.7153	16,000.5	70.6557	16,000.5	67.2475	16,000.5	66.681	16,000.5	63.3221	16,000.5	63.0213	16,000.5	60.6429	16,000.5	61.3515	16,000.5	56.127	16,000.5	53.4732	16,000.5	55.6554	16,000.5	58.3249	16,000.5	57.4437	16,000.5	59.2633	16,000.5	59.349	16,000.5	56.568	16,000.5	54.9107	16,000.5	55.271	16,000.5	57.9937	16,000.5	55.44	16,000.5	51.108
16,564.5	86.9693	16,564.5	87.4311	16,564.5	87.0578	16,564.5	86.6424	16,564.5	85.9666	16,564.5	85.4298	16,564.5	84.8314	16,564.5	82.9279	16,564.5	82.9545	16,564.5	80.7045	16,564.5	79.9013	16,564.5	76.898	16,564.5	75.9674	16,564.5	72.4145	16,564.5	71.2365	16,564.5	68.1899	16,564.5	69.1226	16,564.5	66.3247	16,564.5	66.4884	16,564.5	62.9393	16,564.5	57.345	16,564.5	61.3359	16,564.5	58.5033	16,564.5	53.7811	16,564.5	52.5158	16,564.5	53.4899	16,564.5	56.5228	16,564.5	56.9701	16,564.5	56.5503	16,564.5	55.4977	16,564.5	56.2831	16,564.5	55.7947	16,564.5	52.967	16,564.5	56.7552	16,564.5	53.7324	16,564.5	48.074
17,148.9	86.91	17,148.9	86.8836	17,148.9	86.8594	17,148.9	86.1455	17,148.9	86.0436	17,148.9	85.1393	17,148.9	84.799	17,148.9	82.7317	17,148.9	82.8378	17,148.9	80.02	17,148.9	79.2322	17,148.9	76.5601	17,148.9	75.2961	17,148.9	72.7582	17,148.9	71.3002	17,148.9	69.2662	17,148.9	69.3514	17,148.9	65.7589	17,148.9	65.1344	17,148.9	62.8177	17,148.9	58.8767	17,148.9	57.5656	17,148.9	59.2697	17,148.9	58.2458	17,148.9	52.1328	17,148.9	55.6238	17,148.9	53.0088	17,148.9	57.6457	17,148.9	55.8056	17,148.9	55.7358	17,148.9	56.6932	17,148.9	53.4106	17,148.9	55.852	17,148.9	58.593	17,148.9	51.7811	17,148.9	50.1945
17,752.4	87.3203	17,752.4	87.4397	17,752.4	87.3847	17,752.4	86.7087	17,752.4	86.9593	17,752.4	85.7971	17,752.4	85.9854	17,752.4	83.1789	17,752.4	83.7865	17,752.4	80.2897	17,752.4	79.5451	17,752.4	76.693	17,752.4	75.6954	17,752.4	72.1837	17,752.4	71.7415	17,752.4	68.5739	17,752.4	68.3495	17,752.4	64.6644	17,752.4	64.8356	17,752.4	62.7297	17,752.4	61.6777	17,752.4	56.9239	17,752.4	59.2628	17,752.4	55.3121	17,752.4	54.9655	17,752.4	55.956	17,752.4	52.8821	17,752.4	55.0008	17,752.4	56.5293	17,752.4	54.3517	17,752.4	55.2683	17,752.4	54.7646	17,752.4	54.5874	17,752.4	58.3515	17,752.4	50.7326	17,752.4	47.584
18,379.4	87.6939	18,379.4	87.5399	18,379.4	87.6093	18,379.4	86.7051	18,379.4	87.1071	18,379.4	85.7943	18,379.4	85.8846	18,379.4	82.3038	18,379.4	83.0521	18,379.4	78.8364	18,379.4	78.0526	18,379.4	74.6851	18,379.4	73.5544	18,379.4	69.3104	18,379.4	68.0902	18,379.4	64.8548	18,379.4	63.5396	18,379.4	60.5234	18,379.4	61.378	18,379.4	59.447	18,379.4	55.93	18,379.4	53.7011	18,379.4	54.1775	18,379.4	54.958	18,379.4	46.3034	18,379.4	53.4423	18,379.4	52.5737	18,379.4	47.6791	18,379.4	55.7174	18,379.4	50.075	18,379.4	51.5045	18,379.4	50.5833	18,379.4	45.3498	18,379.4	55.5949	18,379.4	46.9128	18,379.4	36.4916
19,026.9	87.1887	19,026.9	87.2531	19,026.9	87.2816	19,026.9	86.7291	19,026.9	86.8824	19,026.9	85.319	19,026.9	85.516	19,026.9	81.0741	19,026.9	82.1274	19,026.9	77.0884	19,026.9	76.5812	19,026.9	71.569	19,026.9	70.2083	19,026.9	63.7423	19,026.9	61.6762	19,026.9	58.542	19,026.9	57.4319	19,026.9	54.5978	19,026.9	55.7868	19,026.9	55.0778	19,026.9	51.4597	19,026.9	51.7699	19,026.9	47.6075	19,026.9	53.3567	19,026.9	43.0384	19,026.9	45.7357	19,026.9	40.1972	19,026.9	43.6823	19,026.9	52.2306	19,026.9	51.2038	19,026.9	53.3711	19,026.9	50.2297	19,026.9	42.9085	19,026.9	52.1726	19,026.9	48.452	19,026.9	36.294
19,697.8	86.0497	19,697.8	86.2206	19,697.8	86.321	19,697.8	86.0769	19,697.8	86.0939	19,697.8	84.6928	19,697.8	84.8041	19,697.8	80.3507	19,697.8	80.7201	19,697.8	75.372	19,697.8	73.6643	19,697.8	69.661	19,697.8	64.4312	19,697.8	66.6729	19,697.8	62.4953	19,697.8	62.294	19,697.8	56.9157	19,697.8	58.237	19,697.8	57.4825	19,697.8	53.5784	19,697.8	56.5279	19,697.8	50.4086	19,697.8	52.7836	19,697.8	46.502	19,697.8	45.2539	19,697.8	38.8755	19,697.8	42.1779	19,697.8	48.4077	19,697.8	49.3359	19,697.8	50.3963	19,697.8	52.4281	19,697.8	51.8062	19,697.8	43.8999	19,697.8	51.6953	19,697.8	44.2551	19,697.8	22.5493
19,999.5	84.7469	19,999.5	84.9868	19,999.5	85.1322	19,999.5	85.0149	19,999.5	85.3608	19,999.5	83.92	19,999.5	84.2668	19,999.5	79.55	19,999.5	80.2882	19,999.5	75.5505	19,999.5	72.121	19,999.5	72.8143	19,999.5	67.7754	19,999.5	68.745	19,999.5	64.8654	19,999.5	62.7203	19,999.5	61.1608	19,999.5	57.6681	19,999.5	62.3477	19,999.5	62.8133	19,999.5	54.6855	19,999.5	58.8783	19,999.5	57.0418	19,999.5	48.6791	19,999.5	54.2274	19,999.5	54.5888	19,999.5	56.5089	19,999.5	59.3434	19,999.5	54.5743	19,999.5	55.4425	19,999.5	54.8794	19,999.5	45.7569	19,999.5	55.7262	19,999.5	57.6874	19,999.5	53.7815	19,999.5	53.4452
