"SPL Horizontal"
"On-Axis"		"10°"		"-10°"		"20°"		"-20°"		"30°"		"-30°"		"40°"		"-40°"		"50°"		"-50°"		"60°"		"-60°"		"70°"		"-70°"		"80°"		"-80°"		"90°"		"-90°"		"100°"		"-100°"		"110°"		"-110°"		"120°"		"-120°"		"130°"		"-130°"		"140°"		"-140°"		"150°"		"-150°"		"160°"		"-160°"		"170°"		"-170°"		"180°"
"Frequency [Hz]"	"Sound Pessure Level [dB]  / [2.83V 1m] "	"Frequency [Hz]"	"Sound Pessure Level [dB]  / [2.83V 1m] "	"Frequency [Hz]"	"Sound Pessure Level [dB]  / [2.83V 1m] "	"Frequency [Hz]"	"Sound Pessure Level [dB]  / [2.83V 1m] "	"Frequency [Hz]"	"Sound Pessure Level [dB]  / [2.83V 1m] "	"Frequency [Hz]"	"Sound Pessure Level [dB]  / [2.83V 1m] "	"Frequency [Hz]"	"Sound Pessure Level [dB]  / [2.83V 1m] "	"Frequency [Hz]"	"Sound Pessure Level [dB]  / [2.83V 1m] "	"Frequency [Hz]"	"Sound Pessure Level [dB]  / [2.83V 1m] "	"Frequency [Hz]"	"Sound Pessure Level [dB]  / [2.83V 1m] "	"Frequency [Hz]"	"Sound Pessure Level [dB]  / [2.83V 1m] "	"Frequency [Hz]"	"Sound Pessure Level [dB]  / [2.83V 1m] "	"Frequency [Hz]"	"Sound Pessure Level [dB]  / [2.83V 1m] "	"Frequency [Hz]"	"Sound Pessure Level [dB]  / [2.83V 1m] "	"Frequency [Hz]"	"Sound Pessure Level [dB]  / [2.83V 1m] "	"Frequency [Hz]"	"Sound Pessure Level [dB]  / [2.83V 1m] "	"Frequency [Hz]"	"Sound Pessure Level [dB]  / [2.83V 1m] "	"Frequency [Hz]"	"Sound Pessure Level [dB]  / [2.83V 1m] "	"Frequency [Hz]"	"Sound Pessure Level [dB]  / [2.83V 1m] "	"Frequency [Hz]"	"Sound Pessure Level [dB]  / [2.83V 1m] "	"Frequency [Hz]"	"Sound Pessure Level [dB]  / [2.83V 1m] "	"Frequency [Hz]"	"Sound Pessure Level [dB]  / [2.83V 1m] "	"Frequency [Hz]"	"Sound Pessure Level [dB]  / [2.83V 1m] "	"Frequency [Hz]"	"Sound Pessure Level [dB]  / [2.83V 1m] "	"Frequency [Hz]"	"Sound Pessure Level [dB]  / [2.83V 1m] "	"Frequency [Hz]"	"Sound Pessure Level [dB]  / [2.83V 1m] "	"Frequency [Hz]"	"Sound Pessure Level [dB]  / [2.83V 1m] "	"Frequency [Hz]"	"Sound Pessure Level [dB]  / [2.83V 1m] "	"Frequency [Hz]"	"Sound Pessure Level [dB]  / [2.83V 1m] "	"Frequency [Hz]"	"Sound Pessure Level [dB]  / [2.83V 1m] "	"Frequency [Hz]"	"Sound Pessure Level [dB]  / [2.83V 1m] "	"Frequency [Hz]"	"Sound Pessure Level [dB]  / [2.83V 1m] "	"Frequency [Hz]"	"Sound Pessure Level [dB]  / [2.83V 1m] "	"Frequency [Hz]"	"Sound Pessure Level [dB]  / [2.83V 1m] "	"Frequency [Hz]"	"Sound Pessure Level [dB]  / [2.83V 1m] "	"Frequency [Hz]"	"Sound Pessure Level [dB]  / [2.83V 1m] "
20.5078	44.6878	20.5078	44.4808	20.5078	44.9099	20.5078	44.2885	20.5078	45.1461	20.5078	44.1111	20.5078	45.3937	20.5078	43.9505	20.5078	45.6472	20.5078	43.8117	20.5078	45.8992	20.5078	43.7037	20.5078	46.1431	20.5078	43.6398	20.5078	46.3741	20.5078	43.6356	20.5078	46.5894	20.5078	43.7032	20.5078	46.7854	20.5078	43.8454	20.5078	46.9531	20.5078	44.0527	20.5078	47.0776	20.5078	44.3062	20.5078	47.1399	20.5078	44.5846	20.5078	47.1238	20.5078	44.8707	20.5078	47.0219	20.5078	45.1553	20.5078	46.8398	20.5078	45.4384	20.5078	46.5952	20.5078	45.7246	20.5078	46.3132	20.5078	46.0178
21.9727	43.6362	21.9727	43.7909	21.9727	43.5756	21.9727	44.0264	21.9727	43.6182	21.9727	44.3265	21.9727	43.766	21.9727	44.6743	21.9727	44.0135	21.9727	45.0532	21.9727	44.347	21.9727	45.4476	21.9727	44.7461	21.9727	45.8437	21.9727	45.1856	21.9727	46.2295	21.9727	45.6383	21.9727	46.5943	21.9727	46.0778	21.9727	46.9282	21.9727	46.481	21.9727	47.2219	21.9727	46.8309	21.9727	47.4671	21.9727	47.1183	21.9727	47.6582	21.9727	47.3429	21.9727	47.7929	21.9727	47.512	21.9727	47.8735	21.9727	47.638	21.9727	47.9062	21.9727	47.7336	21.9727	47.9	21.9727	47.8082	21.9727	47.8647
23.4375	44.9482	23.4375	45.0165	23.4375	44.9279	23.4375	45.1297	23.4375	44.9579	23.4375	45.2841	23.4375	45.0397	23.4375	45.4763	23.4375	45.1738	23.4375	45.703	23.4375	45.3598	23.4375	45.9615	23.4375	45.595	23.4375	46.248	23.4375	45.8738	23.4375	46.5566	23.4375	46.1874	23.4375	46.8777	23.4375	46.5232	23.4375	47.1987	23.4375	46.8667	23.4375	47.5049	23.4375	47.2024	23.4375	47.7826	23.4375	47.5163	23.4375	48.0209	23.4375	47.7969	23.4375	48.2136	23.4375	48.0358	23.4375	48.3584	23.4375	48.2282	23.4375	48.4555	23.4375	48.3714	23.4375	48.5058	23.4375	48.4649	23.4375	48.5093
24.9023	47.4679	24.9023	47.424	24.9023	47.5468	24.9023	47.4142	24.9023	47.6591	24.9023	47.4358	24.9023	47.8004	24.9023	47.4855	24.9023	47.9642	24.9023	47.5606	24.9023	48.1434	24.9023	47.6595	24.9023	48.3312	24.9023	47.781	24.9023	48.5215	24.9023	47.924	24.9023	48.7093	24.9023	48.0858	24.9023	48.8897	24.9023	48.262	24.9023	49.0574	24.9023	48.4458	24.9023	49.2059	24.9023	48.6284	24.9023	49.3279	24.9023	48.8012	24.9023	49.4175	24.9023	48.9572	24.9023	49.4713	24.9023	49.0925	24.9023	49.4898	24.9023	49.2067	24.9023	49.4768	24.9023	49.3015	24.9023	49.438	24.9023	49.3786
26.3672	46.9253	26.3672	47.142	26.3672	46.7289	26.3672	47.3761	26.3672	46.5555	26.3672	47.624	26.3672	46.4075	26.3672	47.8822	26.3672	46.2872	26.3672	48.1469	26.3672	46.1984	26.3672	48.4138	26.3672	46.1472	26.3672	48.6778	26.3672	46.1429	26.3672	48.9327	26.3672	46.1976	26.3672	49.1711	26.3672	46.3236	26.3672	49.3846	26.3672	46.5287	26.3672	49.5647	26.3672	46.8122	26.3672	49.7035	26.3672	47.1625	26.3672	49.7944	26.3672	47.5592	26.3672	49.8321	26.3672	47.9762	26.3672	49.8126	26.3672	48.387	26.3672	49.7321	26.3672	48.7684	26.3672	49.5876	26.3672	49.1024	26.3672	49.3774
27.832	51.6046	27.832	51.5527	27.832	51.6885	27.832	51.5321	27.832	51.8044	27.832	51.5417	27.832	51.9508	27.832	51.5799	27.832	52.1242	27.832	51.6449	27.832	52.3188	27.832	51.7339	27.832	52.5266	27.832	51.8433	27.832	52.738	27.832	51.9689	27.832	52.9424	27.832	52.1062	27.832	53.1293	27.832	52.2503	27.832	53.289	27.832	52.397	27.832	53.4136	27.832	52.5422	27.832	53.4985	27.832	52.6831	27.832	53.5423	27.832	52.8179	27.832	53.5473	27.832	52.9461	27.832	53.5182	27.832	53.0677	27.832	53.4612	27.832	53.1822	27.832	53.3826	27.832	53.2882
29.2969	51.8712	29.2969	51.8761	29.2969	51.9037	29.2969	51.9181	29.2969	51.9725	29.2969	51.9959	29.2969	52.0756	29.2969	52.1071	29.2969	52.2103	29.2969	52.2482	29.2969	52.3732	29.2969	52.4155	29.2969	52.5605	29.2969	52.6044	29.2969	52.7679	29.2969	52.8098	29.2969	52.9902	29.2969	53.0261	29.2969	53.221	29.2969	53.2467	29.2969	53.4516	29.2969	53.4639	29.2969	53.672	29.2969	53.6699	29.2969	53.8717	29.2969	53.8567	29.2969	54.0417	29.2969	54.0181	29.2969	54.1762	29.2969	54.1497	29.2969	54.2732	29.2969	54.2494	29.2969	54.3334	29.2969	54.3172	29.2969	54.3596	29.2969	54.3539
30.7617	52.357	30.7617	52.4023	30.7617	52.3395	30.7617	52.4733	30.7617	52.3513	30.7617	52.5682	30.7617	52.3942	30.7617	52.6849	30.7617	52.4692	30.7617	52.8213	30.7617	52.5772	30.7617	52.9755	30.7617	52.7178	30.7617	53.1457	30.7617	52.889	30.7617	53.3294	30.7617	53.0868	30.7617	53.5236	30.7617	53.3049	30.7617	53.7235	30.7617	53.5346	30.7617	53.923	30.7617	53.7653	30.7617	54.1144	30.7617	53.9864	30.7617	54.2894	30.7617	54.1877	30.7617	54.4403	30.7617	54.3615	30.7617	54.5609	30.7617	54.5025	30.7617	54.6467	30.7617	54.6077	30.7617	54.695	30.7617	54.6753	30.7617	54.7046
32.2266	54.2203	32.2266	54.221	32.2266	54.2563	32.2266	54.2592	32.2266	54.3274	32.2266	54.3342	32.2266	54.431	32.2266	54.4448	32.2266	54.5633	32.2266	54.5882	32.2266	54.7197	32.2266	54.7605	32.2266	54.8953	32.2266	54.9566	32.2266	55.0851	32.2266	55.1702	32.2266	55.2839	32.2266	55.3945	32.2266	55.4863	32.2266	55.6215	32.2266	55.6863	32.2266	55.8429	32.2266	55.8779	32.2266	56.0499	32.2266	56.0558	32.2266	56.2342	32.2266	56.2154	32.2266	56.3888	32.2266	56.3535	32.2266	56.5087	32.2266	56.4675	32.2266	56.5909	32.2266	56.5554	32.2266	56.635	32.2266	56.6145	32.2266	56.6421
33.6914	55.7628	33.6914	55.758	33.6914	55.7992	33.6914	55.7863	33.6914	55.8654	33.6914	55.8478	33.6914	55.9588	33.6914	55.9417	33.6914	56.0764	33.6914	56.0658	33.6914	56.2152	33.6914	56.2173	33.6914	56.3717	33.6914	56.3921	33.6914	56.5427	33.6914	56.5859	33.6914	56.725	33.6914	56.7936	33.6914	56.9149	33.6914	57.0093	33.6914	57.1081	33.6914	57.226	33.6914	57.2995	33.6914	57.4353	33.6914	57.4833	33.6914	57.6286	33.6914	57.6535	33.6914	57.7972	33.6914	57.8041	33.6914	57.934	33.6914	57.9296	33.6914	58.0333	33.6914	58.0252	33.6914	58.0921	33.6914	58.0863	33.6914	58.1095
35.1562	57.1953	35.1562	57.2124	35.1562	57.2122	35.1562	57.2637	35.1562	57.2621	35.1562	57.3486	35.1562	57.3438	35.1562	57.4652	35.1562	57.4557	35.1562	57.6105	35.1562	57.5959	35.1562	57.7809	35.1562	57.762	35.1562	57.9724	35.1562	57.9507	35.1562	58.1809	35.1562	58.1577	35.1562	58.4016	35.1562	58.3776	35.1562	58.6288	35.1562	58.6035	35.1562	58.8553	35.1562	58.8278	35.1562	59.0726	35.1562	59.0423	35.1562	59.2719	35.1562	59.2392	35.1562	59.4447	35.1562	59.4115	35.1562	59.5838	35.1562	59.5536	35.1562	59.684	35.1562	59.6608	35.1562	59.7422	35.1562	59.7295	35.1562	59.7573
36.6211	58.5831	36.6211	58.6063	36.6211	58.5941	36.6211	58.6628	36.6211	58.6395	36.6211	58.7513	36.6211	58.719	36.6211	58.8695	36.6211	58.8311	36.6211	59.0149	36.6211	58.9737	36.6211	59.1842	36.6211	59.1437	36.6211	59.3738	36.6211	59.3371	36.6211	59.5794	36.6211	59.5486	36.6211	59.7962	36.6211	59.7722	36.6211	60.0182	36.6211	60.0011	36.6211	60.2385	36.6211	60.2274	36.6211	60.4495	36.6211	60.4431	36.6211	60.6434	36.6211	60.6403	36.6211	60.8129	36.6211	60.8117	36.6211	60.9515	36.6211	60.9512	36.6211	61.0541	36.6211	61.0542	36.6211	61.1171	36.6211	61.1172	36.6211	61.1384
38.0859	60.301	38.0859	60.3048	38.0859	60.3303	38.0859	60.3416	38.0859	60.3917	38.0859	60.4106	38.0859	60.4838	38.0859	60.5106	38.0859	60.604	38.0859	60.6394	38.0859	60.749	38.0859	60.7945	38.0859	60.9152	38.0859	60.9728	38.0859	61.0986	38.0859	61.1704	38.0859	61.2952	38.0859	61.3827	38.0859	61.5007	38.0859	61.6039	38.0859	61.7106	38.0859	61.827	38.0859	61.9193	38.0859	62.044	38.0859	62.1208	38.0859	62.2464	38.0859	62.3078	38.0859	62.4257	38.0859	62.473	38.0859	62.5747	38.0859	62.6091	38.0859	62.6872	38.0859	62.7098	38.0859	62.7587	38.0859	62.77	38.0859	62.7866
39.5508	61.0643	39.5508	61.0898	39.5508	61.0721	39.5508	61.1475	39.5508	61.1133	39.5508	61.2354	39.5508	61.187	39.5508	61.3512	39.5508	61.2911	39.5508	61.4919	39.5508	61.4226	39.5508	61.6543	39.5508	61.578	39.5508	61.8349	39.5508	61.7533	39.5508	62.0302	39.5508	61.9447	39.5508	62.236	39.5508	62.1481	39.5508	62.4474	39.5508	62.3592	39.5508	62.6584	39.5508	62.5727	39.5508	62.8625	39.5508	62.7822	39.5508	63.052	39.5508	62.9802	39.5508	63.2192	39.5508	63.1588	39.5508	63.3566	39.5508	63.3098	39.5508	63.4577	39.5508	63.4259	39.5508	63.5173	39.5508	63.5013	39.5508	63.5322
41.0156	62.7232	41.0156	62.718	41.0156	62.7505	41.0156	62.7376	41.0156	62.7964	41.0156	62.7829	41.0156	62.8568	41.0156	62.8533	41.0156	62.9281	41.0156	62.9462	41.0156	63.0078	41.0156	63.058	41.0156	63.0945	41.0156	63.1844	41.0156	63.1881	41.0156	63.3197	41.0156	63.2877	41.0156	63.4569	41.0156	63.3911	41.0156	63.5868	41.0156	63.4938	41.0156	63.6993	41.0156	63.5899	41.0156	63.7857	41.0156	63.6734	41.0156	63.8407	41.0156	63.7395	41.0156	63.8652	41.0156	63.7858	41.0156	63.8659	41.0156	63.8129	41.0156	63.8538	41.0156	63.8246	41.0156	63.8399	41.0156	63.828	41.0156	63.8312
42.4805	62.5727	42.4805	62.6215	42.4805	62.5473	42.4805	62.6939	42.4805	62.5453	42.4805	62.7896	42.4805	62.5667	42.4805	62.9084	42.4805	62.6117	42.4805	63.0493	42.4805	62.6803	42.4805	63.2106	42.4805	62.7723	42.4805	63.3893	42.4805	62.8873	42.4805	63.5811	42.4805	63.0241	42.4805	63.7804	42.4805	63.1807	42.4805	63.9804	42.4805	63.3539	42.4805	64.1731	42.4805	63.5399	42.4805	64.3501	42.4805	63.7338	42.4805	64.5031	42.4805	63.9302	42.4805	64.6242	42.4805	64.1223	42.4805	64.7067	42.4805	64.3026	42.4805	64.7461	42.4805	64.4624	42.4805	64.7396	42.4805	64.5933	42.4805	64.6877
43.9453	64.0197	43.9453	64.0472	43.9453	64.0194	43.9453	64.102	43.9453	64.0459	43.9453	64.184	43.9453	64.0986	43.9453	64.2925	43.9453	64.1768	43.9453	64.4263	43.9453	64.2791	43.9453	64.5831	43.9453	64.4038	43.9453	64.7595	43.9453	64.549	43.9453	64.951	43.9453	64.7121	43.9453	65.1521	43.9453	64.8898	43.9453	65.3563	43.9453	65.078	43.9453	65.5565	43.9453	65.2716	43.9453	65.7452	43.9453	65.4647	43.9453	65.9144	43.9453	65.6509	43.9453	66.0567	43.9453	65.8233	43.9453	66.1654	43.9453	65.9755	43.9453	66.2353	43.9453	66.1009	43.9453	66.2635	43.9453	66.1938	43.9453	66.2491
45.4102	65.3261	45.4102	65.3683	45.4102	65.3105	45.4102	65.4367	45.4102	65.3217	45.4102	65.5306	45.4102	65.3596	45.4102	65.6488	45.4102	65.4239	45.4102	65.7898	45.4102	65.5143	45.4102	65.951	45.4102	65.6301	45.4102	66.1295	45.4102	65.7699	45.4102	66.3212	45.4102	65.9315	45.4102	66.5213	45.4102	66.1116	45.4102	66.7238	45.4102	66.3057	45.4102	66.9218	45.4102	66.5079	45.4102	67.1076	45.4102	66.7118	45.4102	67.273	45.4102	66.9101	45.4102	67.4103	45.4102	67.0955	45.4102	67.5128	45.4102	67.2608	45.4102	67.5752	45.4102	67.3989	45.4102	67.5946	45.4102	67.5038	45.4102	67.5702
46.875	66.6844	46.875	66.7273	46.875	66.6675	46.875	66.7956	46.875	66.6771	46.875	66.8885	46.875	66.7136	46.875	67.005	46.875	66.7768	46.875	67.1436	46.875	66.8665	46.875	67.3026	46.875	66.9818	46.875	67.4794	46.875	67.1214	46.875	67.6707	46.875	67.283	46.875	67.8717	46.875	67.4638	46.875	68.0768	46.875	67.6594	46.875	68.2787	46.875	67.8645	46.875	68.4694	46.875	68.0726	46.875	68.6403	46.875	68.2762	46.875	68.7831	46.875	68.4673	46.875	68.8904	46.875	68.6379	46.875	68.9568	46.875	68.7804	46.875	68.9787	46.875	68.8879	46.875	68.9552
48.3398	67.7018	48.3398	67.7473	48.3398	67.6846	48.3398	67.8205	48.3398	67.6958	48.3398	67.9208	48.3398	67.7355	48.3398	68.0473	48.3398	67.8035	48.3398	68.1984	48.3398	67.8995	48.3398	68.372	48.3398	68.0226	48.3398	68.5651	48.3398	68.1716	48.3398	68.7735	48.3398	68.3445	48.3398	68.9921	48.3398	68.538	48.3398	69.2142	48.3398	68.7478	48.3398	69.4318	48.3398	68.9681	48.3398	69.6364	48.3398	69.1918	48.3398	69.8188	48.3398	69.411	48.3398	69.9704	48.3398	69.6171	48.3398	70.0835	48.3398	69.8013	48.3398	70.1525	48.3398	69.9556	48.3398	70.1738	48.3398	70.0726	48.3398	70.1467
51.2695	69.9846	51.2695	70.0252	51.2695	69.9706	51.2695	70.0924	51.2695	69.9837	51.2695	70.1855	51.2695	70.0238	51.2695	70.3037	51.2695	70.091	51.2695	70.446	51.2695	70.1849	51.2695	70.6104	51.2695	70.3049	51.2695	70.7943	51.2695	70.4498	51.2695	70.9936	51.2695	70.6174	51.2695	71.2035	51.2695	70.8048	51.2695	71.4175	51.2695	71.0077	51.2695	71.628	51.2695	71.2208	51.2695	71.8269	51.2695	71.4371	51.2695	72.0055	51.2695	71.6489	51.2695	72.1554	51.2695	71.8477	51.2695	72.2694	51.2695	72.0246	51.2695	72.3415	51.2695	72.1713	51.2695	72.3681	51.2695	72.2808	51.2695	72.3475
52.7344	71.1526	52.7344	71.1925	52.7344	71.1384	52.7344	71.2578	52.7344	71.1501	52.7344	71.3483	52.7344	71.1877	52.7344	71.4631	52.7344	71.2515	52.7344	71.6014	52.7344	71.3413	52.7344	71.7615	52.7344	71.4568	52.7344	71.941	52.7344	71.5971	52.7344	72.1362	52.7344	71.7606	52.7344	72.3425	52.7344	71.9447	52.7344	72.5538	52.7344	72.1453	52.7344	72.7629	52.7344	72.3572	52.7344	72.9614	52.7344	72.5735	52.7344	73.1407	52.7344	72.786	52.7344	73.2921	52.7344	72.9861	52.7344	73.4079	52.7344	73.1644	52.7344	73.4818	52.7344	73.3124	52.7344	73.5096	52.7344	73.4228	52.7344	73.4896
54.1992	72.1862	54.1992	72.2307	54.1992	72.1666	54.1992	72.3	54.1992	72.172	54.1992	72.3937	54.1992	72.2026	54.1992	72.5114	54.1992	72.2591	54.1992	72.6522	54.1992	72.3417	54.1992	72.8144	54.1992	72.4507	54.1992	72.9956	54.1992	72.5856	54.1992	73.1921	54.1992	72.7452	54.1992	73.3992	54.1992	72.927	54.1992	73.6107	54.1992	73.1271	54.1992	73.819	54.1992	73.34	54.1992	74.0157	54.1992	73.5587	54.1992	74.1921	54.1992	73.775	54.1992	74.3394	54.1992	73.9798	54.1992	74.4499	54.1992	74.164	54.1992	74.5174	54.1992	74.3186	54.1992	74.5381	54.1992	74.4362	54.1992	74.5106
55.6641	73.1792	55.6641	73.2221	55.6641	73.1609	55.6641	73.2895	55.6641	73.1675	55.6641	73.3809	55.6641	73.1991	55.6641	73.496	55.6641	73.256	55.6641	73.6339	55.6641	73.3384	55.6641	73.7933	55.6641	73.4464	55.6641	73.972	55.6641	73.5796	55.6641	74.1668	55.6641	73.7371	55.6641	74.3731	55.6641	73.9165	55.6641	74.5847	55.6641	74.1144	55.6641	74.7943	55.6641	74.3255	55.6641	74.9931	55.6641	74.5431	55.6641	75.1721	55.6641	74.759	55.6641	75.3222	55.6641	74.9642	55.6641	75.4353	55.6641	75.1493	55.6641	75.5048	55.6641	75.3053	55.6641	75.5265	55.6641	75.424	55.6641	75.4992
58.5938	75.0317	58.5938	75.0663	58.5938	75.0223	58.5938	75.1262	58.5938	75.0382	58.5938	75.2115	58.5938	75.0794	58.5938	75.3222	58.5938	75.146	58.5938	75.458	58.5938	75.2381	58.5938	75.6181	58.5938	75.3554	58.5938	75.8004	58.5938	75.4974	58.5938	76.0019	58.5938	75.6626	58.5938	76.2175	58.5938	75.8489	58.5938	76.4405	58.5938	76.0525	58.5938	76.6626	58.5938	76.2682	58.5938	76.8745	58.5938	76.4892	58.5938	77.0662	58.5938	76.7075	58.5938	77.2281	58.5938	76.9138	58.5938	77.3518	58.5938	77.0987	58.5938	77.4305	58.5938	77.2529	58.5938	77.46	58.5938	77.3684	58.5938	77.4388
60.0586	75.8081	60.0586	75.8453	60.0586	75.7964	60.0586	75.9082	60.0586	75.8103	60.0586	75.9969	60.0586	75.85	60.0586	76.1112	60.0586	75.9156	60.0586	76.2508	60.0586	76.0074	60.0586	76.4145	60.0586	76.1252	60.0586	76.6001	60.0586	76.2684	60.0586	76.8041	60.0586	76.4359	60.0586	77.0215	60.0586	76.625	60.0586	77.2455	60.0586	76.832	60.0586	77.4681	60.0586	77.0516	60.0586	77.6801	60.0586	77.2768	60.0586	77.8719	60.0586	77.4993	60.0586	78.0341	60.0586	77.7098	60.0586	78.1581	60.0586	77.8984	60.0586	78.2372	60.0586	78.0557	60.0586	78.2667	60.0586	78.1734	60.0586	78.2451
62.9883	76.8943	62.9883	76.9329	62.9883	76.8812	62.9883	76.9971	62.9883	76.8938	62.9883	77.0873	62.9883	76.9324	62.9883	77.2036	62.9883	76.9976	62.9883	77.3458	62.9883	77.0898	62.9883	77.5131	62.9883	77.2095	62.9883	77.7035	62.9883	77.3563	62.9883	77.9138	62.9883	77.5292	62.9883	78.1389	62.9883	77.7258	62.9883	78.3721	62.9883	77.942	62.9883	78.6048	62.9883	78.1721	62.9883	78.8275	62.9883	78.4087	62.9883	79.0296	62.9883	78.6428	62.9883	79.2009	62.9883	78.8643	62.9883	79.3324	62.9883	79.0627	62.9883	79.4165	62.9883	79.2281	62.9883	79.4485	62.9883	79.3516	62.9883	79.4264
64.4531	77.2161	64.4531	77.255	64.4531	77.2049	64.4531	77.3216	64.4531	77.2214	64.4531	77.416	64.4531	77.2655	64.4531	77.5382	64.4531	77.3377	64.4531	77.6877	64.4531	77.438	64.4531	77.863	64.4531	77.5661	64.4531	78.0619	64.4531	77.7213	64.4531	78.2804	64.4531	77.902	64.4531	78.5132	64.4531	78.1052	64.4531	78.7533	64.4531	78.3269	64.4531	78.9919	64.4531	78.5614	64.4531	79.2194	64.4531	78.8014	64.4531	79.4255	64.4531	79.0383	64.4531	79.6	64.4531	79.262	64.4531	79.7338	64.4531	79.4624	64.4531	79.8194	64.4531	79.6295	64.4531	79.852	64.4531	79.7542	64.4531	79.8299
67.3828	77.6147	67.3828	77.6596	67.3828	77.5991	67.3828	77.7336	67.3828	77.6128	67.3828	77.8364	67.3828	77.6561	67.3828	77.9675	67.3828	77.7291	67.3828	78.1258	67.3828	77.8317	67.3828	78.3096	67.3828	77.9634	67.3828	78.5159	67.3828	78.1229	67.3828	78.7404	67.3828	78.3082	67.3828	78.9774	67.3828	78.5162	67.3828	79.2198	67.3828	78.7425	67.3828	79.4592	67.3828	78.9815	67.3828	79.6862	67.3828	79.2258	67.3828	79.8908	67.3828	79.4669	67.3828	80.0633	67.3828	79.695	67.3828	80.1946	67.3828	79.8998	67.3828	80.2772	67.3828	80.0712	67.3828	80.3064	67.3828	80.2005	67.3828	80.2803
68.8477	77.7635	68.8477	77.8021	68.8477	77.7529	68.8477	77.8688	68.8477	77.7702	68.8477	77.9633	68.8477	77.8151	68.8477	78.0851	68.8477	77.8875	68.8477	78.2331	68.8477	77.9869	68.8477	78.4054	68.8477	78.1127	68.8477	78.5993	68.8477	78.264	68.8477	78.811	68.8477	78.439	68.8477	79.0355	68.8477	78.6352	68.8477	79.2663	68.8477	78.8491	68.8477	79.4958	68.8477	79.0756	68.8477	79.7151	68.8477	79.308	68.8477	79.9146	68.8477	79.538	68.8477	80.0845	68.8477	79.7561	68.8477	80.2156	68.8477	79.9521	68.8477	80.3001	68.8477	80.1157	68.8477	80.3329	68.8477	80.238	68.8477	80.3119
71.7773	77.8619	71.7773	77.8933	71.7773	77.8546	71.7773	77.9493	71.7773	77.871	71.7773	78.03	71.7773	77.9108	71.7773	78.1356	71.7773	77.9738	71.7773	78.2656	71.7773	78.0597	71.7773	78.4193	71.7773	78.1684	71.7773	78.5949	71.7773	78.2998	71.7773	78.7897	71.7773	78.4533	71.7773	78.9992	71.7773	78.6278	71.7773	79.2176	71.7773	78.821	71.7773	79.437	71.7773	79.0288	71.7773	79.6482	71.7773	79.2453	71.7773	79.8411	71.7773	79.4626	71.7773	80.0053	71.7773	79.6715	71.7773	80.1313	71.7773	79.8612	71.7773	80.2115	71.7773	80.0215	71.7773	80.2409	71.7773	80.1427	71.7773	80.2174
74.707	77.7421	74.707	77.7747	74.707	77.7331	74.707	77.8315	74.707	77.747	74.707	77.9131	74.707	77.7832	74.707	78.0199	74.707	77.8415	74.707	78.1518	74.707	77.922	74.707	78.3082	74.707	78.025	74.707	78.4874	74.707	78.1509	74.707	78.6866	74.707	78.3	74.707	78.9011	74.707	78.4715	74.707	79.1246	74.707	78.6634	74.707	79.3487	74.707	78.872	74.707	79.5633	74.707	79.0913	74.707	79.7577	74.707	79.3133	74.707	79.921	74.707	79.5285	74.707	80.0438	74.707	79.726	74.707	80.1185	74.707	79.8948	74.707	80.1406	74.707	80.0251	74.707	80.1088
77.6367	77.5723	77.6367	77.6152	77.6367	77.5526	77.6367	77.6814	77.6367	77.5563	77.6367	77.7711	77.6367	77.5839	77.6367	77.8845	77.6367	77.6361	77.6367	78.0219	77.6367	77.7138	77.6367	78.1828	77.6367	77.8176	77.6367	78.366	77.6367	77.9478	77.6367	78.5689	77.6367	78.1043	77.6367	78.7872	77.6367	78.2856	77.6367	79.0145	77.6367	78.4891	77.6367	79.2425	77.6367	78.7104	77.6367	79.4611	77.6367	78.9428	77.6367	79.6593	77.6367	79.1778	77.6367	79.8262	77.6367	79.405	77.6367	79.9518	77.6367	79.6131	77.6367	80.0281	77.6367	79.7908	77.6367	80.0501	77.6367	79.9278	77.6367	80.016
79.1016	77.4517	79.1016	77.4939	79.1016	77.433	79.1016	77.5598	79.1016	77.4381	79.1016	77.6495	79.1016	77.4676	79.1016	77.7636	79.1016	77.5223	79.1016	77.9022	79.1016	77.603	79.1016	78.0652	79.1016	77.7103	79.1016	78.2514	79.1016	77.8447	79.1016	78.4584	79.1016	78.0056	79.1016	78.6816	79.1016	78.1917	79.1016	78.9146	79.1016	78.4003	79.1016	79.1488	79.1016	78.6267	79.1016	79.3739	79.1016	78.8644	79.1016	79.5786	79.1016	79.1044	79.1016	79.7515	79.1016	79.3362	79.1016	79.8824	79.1016	79.5481	79.1016	79.9629	79.1016	79.7285	79.1016	79.9878	79.1016	79.8669	79.1016	79.9552
82.0312	77.2963	82.0312	77.3306	82.0312	77.2874	82.0312	77.3909	82.0312	77.3036	82.0312	77.4778	82.0312	77.3446	82.0312	77.5919	82.0312	77.4106	82.0312	77.7332	82.0312	77.5016	82.0312	77.9012	82.0312	77.6179	82.0312	78.0942	82.0312	77.7595	82.0312	78.3091	82.0312	77.9259	82.0312	78.541	82.0312	78.1159	82.0312	78.7828	82.0312	78.3269	82.0312	79.0254	82.0312	78.5544	82.0312	79.2581	82.0312	78.792	82.0312	79.4696	82.0312	79.031	82.0312	79.6484	82.0312	79.261	82.0312	79.7844	82.0312	79.4706	82.0312	79.8694	82.0312	79.6485	82.0312	79.8982	82.0312	79.7841	82.0312	79.8692
84.9609	77.286	84.9609	77.3339	84.9609	77.2623	84.9609	77.4062	84.9609	77.2628	84.9609	77.5031	84.9609	77.2875	84.9609	77.6244	84.9609	77.3366	84.9609	77.7696	84.9609	77.4104	84.9609	77.9375	84.9609	77.5096	84.9609	78.1262	84.9609	77.6345	84.9609	78.3324	84.9609	77.7852	84.9609	78.5512	84.9609	77.9609	84.9609	78.776	84.9609	78.1597	84.9609	78.9987	84.9609	78.3775	84.9609	79.2096	84.9609	78.6083	84.9609	79.3985	84.9609	78.8435	84.9609	79.5551	84.9609	79.0728	84.9609	79.6702	84.9609	79.2846	84.9609	79.7364	84.9609	79.4674	84.9609	79.7489	84.9609	79.6108	84.9609	79.7064
87.8906	77.3165	87.8906	77.385	87.8906	77.2645	87.8906	77.4694	87.8906	77.23	87.8906	77.5691	87.8906	77.2145	87.8906	77.6838	87.8906	77.2198	87.8906	77.8131	87.8906	77.2482	87.8906	77.9567	87.8906	77.3025	87.8906	78.114	87.8906	77.3851	87.8906	78.2834	87.8906	77.498	87.8906	78.4624	87.8906	77.6416	87.8906	78.6465	87.8906	77.8146	87.8906	78.8291	87.8906	78.0132	87.8906	79.0021	87.8906	78.231	87.8906	79.1561	87.8906	78.4589	87.8906	79.2816	87.8906	78.6859	87.8906	79.3697	87.8906	78.8998	87.8906	79.4129	87.8906	79.0883	87.8906	79.4065	87.8906	79.2408	87.8906	79.3485
90.8203	77.3181	90.8203	77.3474	90.8203	77.3022	90.8203	77.3902	90.8203	77.3002	90.8203	77.4477	90.8203	77.314	90.8203	77.5219	90.8203	77.346	90.8203	77.6152	90.8203	77.3992	90.8203	77.7301	90.8203	77.4769	90.8203	77.8686	90.8203	77.5819	90.8203	78.0316	90.8203	77.7159	90.8203	78.2178	90.8203	77.8792	90.8203	78.4236	90.8203	78.07	90.8203	78.642	90.8203	78.2839	90.8203	78.8631	90.8203	78.5135	90.8203	79.0748	90.8203	78.7487	90.8203	79.2636	90.8203	78.9769	90.8203	79.416	90.8203	79.1843	90.8203	79.5205	90.8203	79.3575	90.8203	79.5688	90.8203	79.4845	90.8203	79.5566
95.2148	76.9687	95.2148	77.0224	95.2148	76.9434	95.2148	77.1044	95.2148	76.9465	95.2148	77.2139	95.2148	76.9777	95.2148	77.3498	95.2148	77.0367	95.2148	77.5102	95.2148	77.1232	95.2148	77.6926	95.2148	77.237	95.2148	77.8936	95.2148	77.3777	95.2148	78.109	95.2148	77.5447	95.2148	78.3337	95.2148	77.7365	95.2148	78.5618	95.2148	77.9501	95.2148	78.7859	95.2148	78.1807	95.2148	78.9978	95.2148	78.4211	95.2148	79.1882	95.2148	78.6624	95.2148	79.3474	95.2148	78.894	95.2148	79.4661	95.2148	79.1051	95.2148	79.5365	95.2148	79.285	95.2148	79.5535	95.2148	79.4243	95.2148	79.5155
98.1445	77.3067	98.1445	77.3582	98.1445	77.2718	98.1445	77.4256	98.1445	77.2543	98.1445	77.5086	98.1445	77.2553	98.1445	77.6068	98.1445	77.2763	98.1445	77.7205	98.1445	77.3192	98.1445	77.8502	98.1445	77.3861	98.1445	77.9965	98.1445	77.4795	98.1445	78.1599	98.1445	77.6015	98.1445	78.3397	98.1445	77.7532	98.1445	78.5333	98.1445	77.934	98.1445	78.735	98.1445	78.1405	98.1445	78.9362	98.1445	78.3663	98.1445	79.1254	98.1445	78.602	98.1445	79.2897	98.1445	78.8353	98.1445	79.4163	98.1445	79.0527	98.1445	79.4946	98.1445	79.2405	98.1445	79.517	98.1445	79.3863	98.1445	79.4804
101.074	77.3995	101.074	77.4452	101.074	77.3678	101.074	77.504	101.074	77.3522	101.074	77.5754	101.074	77.3549	101.074	77.6602	101.074	77.3784	101.074	77.7603	101.074	77.4252	101.074	77.8779	101.074	77.4979	101.074	78.0158	101.074	77.5986	101.074	78.1757	101.074	77.7287	101.074	78.3574	101.074	77.8886	101.074	78.5579	101.074	78.0765	101.074	78.7704	101.074	78.2883	101.074	78.9848	101.074	78.5167	101.074	79.1879	101.074	78.7521	101.074	79.3657	101.074	78.9825	101.074	79.505	101.074	79.195	101.074	79.5946	101.074	79.3763	101.074	79.6274	101.074	79.5145	101.074	79.6001
105.469	77.5313	105.469	77.5387	105.469	77.5315	105.469	77.5556	105.469	77.539	105.469	77.5856	105.469	77.5552	105.469	77.6336	105.469	77.5831	105.469	77.7054	105.469	77.6268	105.469	77.8065	105.469	77.6915	105.469	77.9415	105.469	77.7824	105.469	78.1121	105.469	77.904	105.469	78.3168	105.469	78.0588	105.469	78.5494	105.469	78.2466	105.469	78.7994	105.469	78.4636	105.469	79.0528	105.469	78.7021	105.469	79.2937	105.469	78.9507	105.469	79.5061	105.469	79.195	105.469	79.6753	105.469	79.419	105.469	79.7896	105.469	79.6073	105.469	79.841	105.469	79.7464	105.469	79.8262
108.398	77.5187	108.398	77.5393	108.398	77.5072	108.398	77.5701	108.398	77.5052	108.398	77.6139	108.398	77.5146	108.398	77.6744	108.398	77.5388	108.398	77.7564	108.398	77.5826	108.398	77.8648	108.398	77.6516	108.398	78.0038	108.398	77.7513	108.398	78.1755	108.398	77.886	108.398	78.3791	108.398	78.0576	108.398	78.6097	108.398	78.2648	108.398	78.8581	108.398	78.502	108.398	79.1117	108.398	78.7597	108.398	79.355	108.398	79.0246	108.398	79.5721	108.398	79.2811	108.398	79.7478	108.398	79.5129	108.398	79.8695	108.398	79.7044	108.398	79.9281	108.398	79.8429	108.398	79.9191
112.793	77.5814	112.793	77.5813	112.793	77.5891	112.793	77.5914	112.793	77.604	112.793	77.6163	112.793	77.6276	112.793	77.6619	112.793	77.6635	112.793	77.735	112.793	77.7162	112.793	77.8419	112.793	77.7914	112.793	77.9873	112.793	77.8947	112.793	78.1728	112.793	78.0307	112.793	78.3961	112.793	78.2017	112.793	78.6501	112.793	78.407	112.793	78.9234	112.793	78.6417	112.793	79.2008	112.793	78.8969	112.793	79.4651	112.793	79.1603	112.793	79.6988	112.793	79.4168	112.793	79.8862	112.793	79.6503	112.793	80.0146	112.793	79.845	112.793	80.0757	112.793	79.987	112.793	80.066
117.188	77.7922	117.188	77.8117	117.188	77.7824	117.188	77.8433	117.188	77.7818	117.188	77.891	117.188	77.792	117.188	77.9598	117.188	77.8165	117.188	78.055	117.188	77.8602	117.188	78.1815	117.188	77.9292	117.188	78.3427	117.188	78.0294	117.188	78.5396	117.188	78.1653	117.188	78.7697	117.188	78.3397	117.188	79.0265	117.188	78.5517	117.188	79.2993	117.188	78.797	117.188	79.5735	117.188	79.0667	117.188	79.8324	117.188	79.3481	117.188	80.0585	117.188	79.6257	117.188	80.2359	117.188	79.8823	117.188	80.3513	117.188	80.1009	117.188	80.3962	117.188	80.2664	117.188	80.3672
120.117	77.7917	120.117	77.8141	120.117	77.7816	120.117	77.8505	120.117	77.7841	120.117	77.9046	120.117	77.8016	120.117	77.9817	120.117	77.8386	120.117	78.0878	120.117	77.9003	120.117	78.2286	120.117	77.993	120.117	78.4084	120.117	78.1223	120.117	78.6285	120.117	78.2922	120.117	78.8863	120.117	78.5043	120.117	79.1746	120.117	78.7562	120.117	79.4809	120.117	79.0408	120.117	79.7892	120.117	79.3468	120.117	80.0809	120.117	79.6593	120.117	80.3371	120.117	79.961	120.117	80.5407	120.117	80.2339	120.117	80.6781	120.117	80.461	120.117	80.7401	120.117	80.6277	120.117	80.7228
124.512	77.6571	124.512	77.6632	124.512	77.6715	124.512	77.6926	124.512	77.7056	124.512	77.7499	124.512	77.7606	124.512	77.8403	124.512	77.8391	124.512	77.9693	124.512	77.9453	124.512	78.1412	124.512	78.0839	124.512	78.3577	124.512	78.2588	124.512	78.6166	124.512	78.4721	124.512	78.9117	124.512	78.7226	124.512	79.2322	124.512	79.0046	124.512	79.5641	124.512	79.3086	124.512	79.8909	124.512	79.6219	124.512	80.1954	124.512	79.9301	124.512	80.4611	124.512	80.2182	124.512	80.6735	124.512	80.4717	124.512	80.8213	124.512	80.6766	124.512	80.8967	124.512	80.8212	124.512	80.8963
128.906	77.9535	128.906	77.9662	128.906	77.9619	128.906	78.0027	128.906	77.9899	128.906	78.0664	128.906	78.0377	128.906	78.1606	128.906	78.1071	128.906	78.288	128.906	78.2008	128.906	78.4497	128.906	78.3222	128.906	78.6447	128.906	78.4733	128.906	78.87	128.906	78.6545	128.906	79.1201	128.906	78.8632	128.906	79.3873	128.906	79.0947	128.906	79.6618	128.906	79.3425	128.906	79.9313	128.906	79.5989	128.906	80.1825	128.906	79.8551	128.906	80.4013	128.906	80.1007	128.906	80.5746	128.906	80.3237	128.906	80.6913	128.906	80.5108	128.906	80.7439	128.906	80.6495	128.906	80.7294
133.301	78.4456	133.301	78.4691	133.301	78.4361	133.301	78.5084	133.301	78.4402	133.301	78.5661	133.301	78.459	133.301	78.6455	133.301	78.4947	133.301	78.7496	133.301	78.5502	133.301	78.8813	133.301	78.6292	133.301	79.0425	133.301	78.7345	133.301	79.2335	133.301	78.869	133.301	79.453	133.301	79.0341	133.301	79.6963	133.301	79.2303	133.301	79.9552	133.301	79.4558	133.301	80.2173	133.301	79.7056	133.301	80.4667	133.301	79.9707	133.301	80.6864	133.301	80.2375	133.301	80.8593	133.301	80.4891	133.301	80.9714	133.301	80.7075	133.301	81.0131	133.301	80.8758	133.301	80.9804
139.16	78.7812	139.16	78.8088	139.16	78.7621	139.16	78.8459	139.16	78.7519	139.16	78.8949	139.16	78.7527	139.16	78.9594	139.16	78.7675	139.16	79.0441	139.16	78.8007	139.16	79.154	139.16	78.857	139.16	79.294	139.16	78.9417	139.16	79.4674	139.16	79.0599	139.16	79.6749	139.16	79.2158	139.16	79.9129	139.16	79.4111	139.16	80.1727	139.16	79.6438	139.16	80.4406	139.16	79.9072	139.16	80.6991	139.16	80.189	139.16	80.9291	139.16	80.4727	139.16	81.112	139.16	80.739	139.16	81.2326	139.16	80.9683	139.16	81.2801	139.16	81.1431	139.16	81.2497
143.555	78.9435	143.555	78.9554	143.555	78.9349	143.555	78.9731	143.555	78.9292	143.555	79.0008	143.555	78.9281	143.555	79.0443	143.555	78.9354	143.555	79.1107	143.555	78.9569	143.555	79.207	143.555	78.9999	143.555	79.3399	143.555	79.0731	143.555	79.5137	143.555	79.1846	143.555	79.7288	143.555	79.3407	143.555	79.9805	143.555	79.5437	143.555	80.258	143.555	79.7897	143.555	80.5456	143.555	80.069	143.555	80.8239	143.555	80.3661	143.555	81.0724	143.555	80.662	143.555	81.2721	143.555	80.9363	143.555	81.407	143.555	81.169	143.555	81.4661	143.555	81.3427	143.555	81.4443
147.949	79.2112	147.949	79.2444	147.949	79.1813	147.949	79.2822	147.949	79.1555	147.949	79.3277	147.949	79.1366	147.949	79.3851	147.949	79.1296	147.949	79.4605	147.949	79.1417	147.949	79.5606	147.949	79.1812	147.949	79.6921	147.949	79.2563	147.949	79.8602	147.949	79.373	147.949	80.0663	147.949	79.5343	147.949	80.3066	147.949	79.7384	147.949	80.5714	147.949	79.9797	147.949	80.8454	147.949	80.2492	147.949	81.1095	147.949	80.5351	147.949	81.3432	147.949	80.8232	147.949	81.5269	147.949	81.0965	147.949	81.6444	147.949	81.3361	147.949	81.6846	147.949	81.5237	147.949	81.6432
153.809	79.4913	153.809	79.4977	153.809	79.4823	153.809	79.5027	153.809	79.4723	153.809	79.511	153.809	79.4652	153.809	79.5309	153.809	79.4663	153.809	79.5738	153.809	79.4821	153.809	79.6528	153.809	79.5197	153.809	79.7797	153.809	79.5867	153.809	79.9624	153.809	79.6906	153.809	80.202	153.809	79.838	153.809	80.4914	153.809	80.0336	153.809	80.8158	153.809	80.2785	153.809	81.1539	153.809	80.5679	153.809	81.4811	153.809	80.8897	153.809	81.7721	153.809	81.2242	153.809	82.0036	153.809	81.5461	153.809	82.1562	153.809	81.8281	153.809	82.2165	153.809	82.0455	153.809	82.1787
159.668	79.5324	159.668	79.5276	159.668	79.539	159.668	79.5294	159.668	79.5457	159.668	79.5454	159.668	79.5539	159.668	79.5851	159.668	79.5682	159.668	79.6586	159.668	79.5959	159.668	79.7756	159.668	79.6465	159.668	79.9424	159.668	79.7303	159.668	80.1612	159.668	79.8573	159.668	80.4287	159.668	80.0351	159.668	80.7359	159.668	80.2666	159.668	81.0688	159.668	80.5486	159.668	81.4088	159.668	80.8707	159.668	81.735	159.668	81.2153	159.668	82.0252	159.668	81.5598	159.668	82.2585	159.668	81.8794	159.668	82.4172	159.668	82.1498	159.668	82.4885	159.668	82.3504	159.668	82.466
165.527	79.9739	165.527	79.9794	165.527	79.9697	165.527	79.9897	165.527	79.9662	165.527	80.0107	165.527	79.9652	165.527	80.0495	165.527	79.9716	165.527	80.1142	165.527	79.9925	165.527	80.2124	165.527	80.037	165.527	80.3497	165.527	80.115	165.527	80.5294	165.527	80.2357	165.527	80.7508	165.527	80.4059	165.527	81.0094	165.527	80.6276	165.527	81.2961	165.527	80.8964	165.527	81.5968	165.527	81.2007	165.527	81.8936	165.527	81.5229	165.527	82.1658	165.527	81.8411	165.527	82.3927	165.527	82.132	165.527	82.5554	165.527	82.3733	165.527	82.6396	165.527	82.546	165.527	82.6369
171.387	80.2658	171.387	80.2603	171.387	80.2633	171.387	80.2493	171.387	80.2531	171.387	80.2389	171.387	80.2389	171.387	80.238	171.387	80.2276	171.387	80.2583	171.387	80.2284	171.387	80.3127	171.387	80.2526	171.387	80.4139	171.387	80.3118	171.387	80.5717	171.387	80.4163	171.387	80.7905	171.387	80.5727	171.387	81.0664	171.387	80.782	171.387	81.386	171.387	81.0394	171.387	81.7275	171.387	81.334	171.387	82.0634	171.387	81.6501	171.387	82.3654	171.387	81.9682	171.387	82.6082	171.387	82.2664	171.387	82.7726	171.387	82.522	171.387	82.8465	171.387	82.7141	171.387	82.8258
177.246	80.3345	177.246	80.3169	177.246	80.3457	177.246	80.299	177.246	80.3486	177.246	80.2907	177.246	80.3454	177.246	80.3041	177.246	80.3419	177.246	80.352	177.246	80.3471	177.246	80.4454	177.246	80.372	177.246	80.5921	177.246	80.429	177.246	80.7948	177.246	80.5293	177.246	81.0509	177.246	80.6813	177.246	81.3518	177.246	80.8883	177.246	81.6828	177.246	81.1472	177.246	82.0238	177.246	81.4492	177.246	82.3518	177.246	81.7794	177.246	82.6427	177.246	82.1173	177.246	82.8745	177.246	82.4388	177.246	83.0287	177.246	82.7179	177.246	83.0923	177.246	82.9307	177.246	83.059
183.105	80.5151	183.105	80.5327	183.105	80.4984	183.105	80.5536	183.105	80.4823	183.105	80.582	183.105	80.4688	183.105	80.6237	183.105	80.4624	183.105	80.6862	183.105	80.4699	183.105	80.7785	183.105	80.4998	183.105	80.9097	183.105	80.5611	183.105	81.0873	183.105	80.6623	183.105	81.3143	183.105	80.8103	183.105	81.5872	183.105	81.0095	183.105	81.8949	183.105	81.2607	183.105	82.22	183.105	81.5593	183.105	82.5399	183.105	81.8934	183.105	82.8295	183.105	82.2428	183.105	83.0638	183.105	82.5806	183.105	83.2209	183.105	82.8774	183.105	83.2841	183.105	83.1059	183.105	83.2453
188.965	80.9505	188.965	80.9734	188.965	80.9174	188.965	80.9865	188.965	80.8771	188.965	80.994	188.965	80.8348	188.965	81.0036	188.965	80.7974	188.965	81.0259	188.965	80.7724	188.965	81.0731	188.965	80.7676	188.965	81.1572	188.965	80.7918	188.965	81.2885	188.965	80.8553	188.965	81.4728	188.965	80.9692	188.965	81.7102	188.965	81.1435	188.965	81.9932	188.965	81.3823	188.965	82.306	188.965	81.6805	188.965	82.6252	188.965	82.0219	188.965	82.9226	188.965	82.3804	188.965	83.1688	188.965	82.7249	188.965	83.3384	188.965	83.0239	188.965	83.413	188.965	83.2499	188.965	83.3832
196.289	81.2574	196.289	81.2325	196.289	81.2517	196.289	81.1793	196.289	81.2165	196.289	81.1036	196.289	81.1548	196.289	81.0153	196.289	81.0718	196.289	80.9287	196.289	80.9755	196.289	80.8611	196.289	80.8778	196.289	80.8316	196.289	80.7955	196.289	80.858	196.289	80.7497	196.289	80.9533	196.289	80.7629	196.289	81.1214	196.289	80.8526	196.289	81.3546	196.289	81.0244	196.289	81.6336	196.289	81.2677	196.289	81.9307	196.289	81.5581	196.289	82.2139	196.289	81.8641	196.289	82.4523	196.289	82.1542	196.289	82.6203	196.289	82.4018	196.289	82.7012	196.289	82.5853	196.289	82.6886
203.613	80.1438	203.613	80.1288	203.613	80.1466	203.613	80.107	203.613	80.1357	203.613	80.0864	203.613	80.1149	203.613	80.0779	203.613	80.094	203.613	80.0951	203.613	80.0892	203.613	80.1553	203.613	80.1204	203.613	80.2769	203.613	80.2082	203.613	80.475	203.613	80.3665	203.613	80.7554	203.613	80.5974	203.613	81.1102	203.613	80.8899	203.613	81.5184	203.613	81.2254	203.613	81.9492	203.613	81.585	203.613	82.3677	203.613	81.9533	203.613	82.74	203.613	82.3161	203.613	83.0369	203.613	82.6558	203.613	83.2368	203.613	82.9497	203.613	83.3269	203.613	83.1729	203.613	83.3036
210.938	80.5628	210.938	80.5594	210.938	80.5505	210.938	80.5367	210.938	80.5316	210.938	80.4999	210.938	80.5168	210.938	80.4643	210.938	80.5151	210.938	80.4533	210.938	80.5325	210.938	80.4921	210.938	80.5719	210.938	80.6006	210.938	80.635	210.938	80.7888	210.938	80.7254	210.938	81.0557	210.938	80.8532	210.938	81.3912	210.938	81.0359	210.938	81.7776	210.938	81.2929	210.938	82.1905	210.938	81.6316	210.938	82.6	210.938	82.0356	210.938	82.9736	210.938	82.4655	210.938	83.2803	210.938	82.8721	210.938	83.4952	210.938	83.2125	210.938	83.601	210.938	83.4569	210.938	83.5886
218.262	80.7317	218.262	80.6825	218.262	80.759	218.262	80.6208	218.262	80.7616	218.262	80.5621	218.262	80.7425	218.262	80.5248	218.262	80.7083	218.262	80.5257	218.262	80.6685	218.262	80.578	218.262	80.6367	218.262	80.6915	218.262	80.6323	218.262	80.8731	218.262	80.6811	218.262	81.1253	218.262	80.8103	218.262	81.4426	218.262	81.0377	218.262	81.8098	218.262	81.3589	218.262	82.2023	218.262	81.7444	218.262	82.5891	218.262	82.1512	218.262	82.9377	218.262	82.5389	218.262	83.218	218.262	82.8797	218.262	83.4077	218.262	83.1572	218.262	83.4943	218.262	83.3599	218.262	83.476
225.586	80.931	225.586	80.9053	225.586	80.939	225.586	80.8725	225.586	80.9208	225.586	80.8426	225.586	80.8732	225.586	80.8244	225.586	80.8013	225.586	80.8272	225.586	80.7186	225.586	80.8631	225.586	80.6468	225.586	80.9467	225.586	80.6125	225.586	81.0925	225.586	80.6419	225.586	81.3097	225.586	80.7527	225.586	81.5983	225.586	80.9476	225.586	81.9474	225.586	81.2154	225.586	82.3342	225.586	81.538	225.586	82.7255	225.586	81.8982	225.586	83.0826	225.586	82.2804	225.586	83.3665	225.586	82.6648	225.586	83.5449	225.586	83.0227	225.586	83.5975	225.586	83.3187	225.586	83.5185
232.91	80.6865	232.91	80.6891	232.91	80.6704	232.91	80.6828	232.91	80.6374	232.91	80.6742	232.91	80.5879	232.91	80.6718	232.91	80.5275	232.91	80.687	232.91	80.4693	232.91	80.7332	232.91	80.4333	232.91	80.8236	232.91	80.443	232.91	80.9697	232.91	80.5183	232.91	81.1795	232.91	80.6713	232.91	81.4557	232.91	80.9052	232.91	81.7922	232.91	81.2155	232.91	82.1715	232.91	81.5905	232.91	82.5647	232.91	82.0082	232.91	82.9357	232.91	82.4367	232.91	83.2478	232.91	82.8389	232.91	83.4695	232.91	83.179	232.91	83.5789	232.91	83.4279	232.91	83.5649
241.699	80.8209	241.699	80.8304	241.699	80.7992	241.699	80.8244	241.699	80.7727	241.699	80.8052	241.699	80.7502	241.699	80.7821	241.699	80.7399	241.699	80.7694	241.699	80.7473	241.699	80.7835	241.699	80.7738	241.699	80.8398	241.699	80.8175	241.699	80.9487	241.699	80.878	241.699	81.113	241.699	80.9618	241.699	81.3278	241.699	81.0835	241.699	81.5812	241.699	81.2583	241.699	81.8571	241.699	81.4891	241.699	82.1367	241.699	81.7618	241.699	82.3991	241.699	82.051	241.699	82.622	241.699	82.3291	241.699	82.7832	241.699	82.5706	241.699	82.864	241.699	82.752	241.699	82.8536
250.488	82.975	250.488	82.9544	250.488	82.936	250.488	82.8781	250.488	82.8361	250.488	82.7494	250.488	82.6774	250.488	82.5686	250.488	82.4653	250.488	82.3322	250.488	82.2084	250.488	82.0363	250.488	81.9194	250.488	81.6811	250.488	81.6164	250.488	81.2766	250.488	81.3211	250.488	80.8479	250.488	81.0534	250.488	80.439	250.488	80.8243	250.488	80.1095	250.488	80.6337	250.488	79.9188	250.488	80.4785	250.488	79.8971	250.488	80.3661	250.488	80.0234	250.488	80.3174	250.488	80.2307	250.488	80.3481	250.488	80.436	250.488	80.4424	250.488	80.5723	250.488	80.5495	250.488	80.6074
259.277	82.5918	259.277	82.472	259.277	82.5809	259.277	82.2197	259.277	82.4457	259.277	81.839	259.277	82.1957	259.277	81.3432	259.277	81.8426	259.277	80.7593	259.277	81.3994	259.277	80.136	259.277	80.8808	259.277	79.5546	259.277	80.307	259.277	79.1342	259.277	79.7143	259.277	79.01	259.277	79.1728	259.277	79.2682	259.277	78.8012	259.277	79.8791	259.277	78.7444	259.277	80.7078	259.277	79.0893	259.277	81.5892	259.277	79.7861	259.277	82.3864	259.277	80.6756	259.277	83.0069	259.277	81.5857	259.277	83.3961	259.277	82.3889	259.277	83.5273	259.277	83.0068	259.277	83.3944
268.066	81.1768	268.066	81.0855	268.066	81.1489	268.066	80.8749	268.066	81.0059	268.066	80.5514	268.066	80.7556	268.066	80.1316	268.066	80.4104	268.066	79.6499	268.066	79.9881	268.066	79.1675	268.066	79.5162	268.066	78.7775	268.066	79.0393	268.066	78.5932	268.066	78.6297	268.066	78.7076	268.066	78.3903	268.066	79.1408	268.066	78.4284	268.066	79.8256	268.066	78.797	268.066	80.6454	268.066	79.4539	268.066	81.483	268.066	80.2859	268.066	82.2443	268.066	81.1655	268.066	82.8606	268.066	81.9868	268.066	83.2841	268.066	82.6727	268.066	83.4843	268.066	83.1703	268.066	83.4463
276.855	80.2608	276.855	80.067	276.855	80.3121	276.855	79.738	276.855	80.2305	276.855	79.3037	276.855	80.036	276.855	78.8198	276.855	79.7539	276.855	78.3665	276.855	79.4129	276.855	78.0372	276.855	79.0499	276.855	77.9197	276.855	78.7197	276.855	78.0717	276.855	78.5001	276.855	78.5014	276.855	78.4776	276.855	79.1624	276.855	78.713	276.855	79.9715	276.855	79.2124	276.855	80.8372	276.855	79.9279	276.855	81.6794	276.855	80.7759	276.855	82.436	276.855	81.6558	276.855	83.0597	276.855	82.4673	276.855	83.513	276.855	83.1268	276.855	83.7651	276.855	83.5775	276.855	83.7913
287.109	79.8975	287.109	79.8359	287.109	79.8682	287.109	79.684	287.109	79.7474	287.109	79.445	287.109	79.5363	287.109	79.1345	287.109	79.2438	287.109	78.7947	287.109	78.8922	287.109	78.5051	287.109	78.5237	287.109	78.3729	287.109	78.2033	287.109	78.4883	287.109	78.0177	287.109	78.87	287.109	78.062	287.109	79.4598	287.109	78.4054	287.109	80.1693	287.109	79.0435	287.109	80.9197	287.109	79.8837	287.109	81.6484	287.109	80.7898	287.109	82.3031	287.109	81.6414	287.109	82.8391	287.109	82.3609	287.109	83.2214	287.109	82.9098	287.109	83.4276	287.109	83.2732	287.109	83.4461
297.363	79.7017	297.363	79.5023	297.363	79.778	297.363	79.2046	297.363	79.7124	297.363	78.8418	297.363	79.4955	297.363	78.4601	297.363	79.1363	297.363	78.1181	297.363	78.673	297.363	77.8778	297.363	78.1791	297.363	77.7898	297.363	77.7634	297.363	77.8888	297.363	77.557	297.363	78.2037	297.363	77.6739	297.363	78.7558	297.363	78.146	297.363	79.5281	297.363	78.8937	297.363	80.4418	297.363	79.7771	297.363	81.3788	297.363	80.6734	297.363	82.2256	297.363	81.5092	297.363	82.8999	297.363	82.2458	297.363	83.3542	297.363	82.8534	297.363	83.5694	297.363	83.2981	297.363	83.5457
307.617	79.0724	307.617	78.9347	307.617	79.0971	307.617	78.698	307.617	79.0036	307.617	78.3879	307.617	78.7957	307.617	78.0421	307.617	78.4909	307.617	77.7124	307.617	78.1277	307.617	77.4699	307.617	77.773	307.617	77.4095	307.617	77.5159	307.617	77.6313	307.617	77.4445	307.617	78.1824	307.617	77.6136	307.617	79.0051	307.617	78.031	307.617	79.9656	307.617	78.6675	307.617	80.9294	307.617	79.468	307.617	81.8031	307.617	80.3583	307.617	82.5333	307.617	81.2552	307.617	83.0897	307.617	82.0786	307.617	83.4524	307.617	82.7617	307.617	83.6067	307.617	83.2583	307.617	83.5429
319.336	78.475	319.336	78.497	319.336	78.3065	319.336	78.348	319.336	78.032	319.336	78.0302	319.336	77.7017	319.336	77.5877	319.336	77.3677	319.336	77.1227	319.336	77.0762	319.336	76.7888	319.336	76.8615	319.336	76.7334	319.336	76.7515	319.336	77.0153	319.336	76.7852	319.336	77.5851	319.336	77.0198	319.336	78.3465	319.336	77.5028	319.336	79.2109	319.336	78.2234	319.336	80.1077	319.336	79.1011	319.336	80.9742	319.336	80.0265	319.336	81.7499	319.336	80.9058	319.336	82.3774	319.336	81.6758	319.336	82.8095	319.336	82.2979	319.336	83.0166	319.336	82.7445	319.336	82.9913
329.59	78.2093	329.59	78.1308	329.59	78.1469	329.59	77.9074	329.59	77.9654	329.59	77.5681	329.59	77.6917	329.59	77.1793	329.59	77.3531	329.59	76.8297	329.59	76.9818	329.59	76.6077	329.59	76.6254	329.59	76.595	329.59	76.3585	329.59	76.8606	329.59	76.2805	329.59	77.4208	329.59	76.4815	329.59	78.2045	329.59	76.9892	329.59	79.0894	329.59	77.7497	329.59	79.9668	329.59	78.6566	329.59	80.7681	329.59	79.596	329.59	81.4529	329.59	80.4758	329.59	81.9919	329.59	81.2357	329.59	82.359	329.59	81.8407	329.59	82.5331	329.59	82.2686	329.59	82.5029
341.309	77.9106	341.309	77.711	341.309	77.952	341.309	77.3756	341.309	77.8372	341.309	76.9541	341.309	77.5844	341.309	76.5205	341.309	77.2238	341.309	76.1707	341.309	76.7977	341.309	76.0191	341.309	76.3653	341.309	76.1643	341.309	76.0055	341.309	76.6215	341.309	75.8138	341.309	77.3085	341.309	75.8883	341.309	78.1159	341.309	76.2976	341.309	78.9667	341.309	77.0294	341.309	79.8139	341.309	77.9746	341.309	80.6163	341.309	78.9879	341.309	81.3267	341.309	79.9587	341.309	81.8963	341.309	80.824	341.309	82.2817	341.309	81.5417	341.309	82.4499	341.309	82.0721	341.309	82.3808
353.027	77.7479	353.027	77.5807	353.027	77.7556	353.027	77.2765	353.027	77.599	353.027	76.8773	353.027	77.2894	353.027	76.4484	353.027	76.8555	353.027	76.0834	353.027	76.348	353.027	75.8939	353.027	75.8432	353.027	75.9635	353.027	75.4469	353.027	76.3023	353.027	75.2931	353.027	76.8627	353.027	75.5116	353.027	77.5868	353.027	76.1404	353.027	78.4233	353.027	77.0704	353.027	79.316	353.027	78.1266	353.027	80.1947	353.027	79.1764	353.027	80.9834	353.027	80.1451	353.027	81.6185	353.027	80.9809	353.027	82.0603	353.027	81.6376	353.027	82.29	353.027	82.0817	353.027	82.2991
366.211	77.1577	366.211	77.0117	366.211	77.1782	366.211	76.7451	366.211	77.0671	366.211	76.3634	366.211	76.8243	366.211	75.8937	366.211	76.4593	366.211	75.4104	366.211	75.9937	366.211	75.0324	366.211	75.4775	366.211	74.8836	366.211	75.0237	366.211	75.0628	366.211	74.8241	366.211	75.6391	366.211	75.0641	366.211	76.6032	366.211	75.7637	366.211	77.8216	366.211	76.7704	366.211	79.1005	366.211	77.9086	366.211	80.2811	366.211	79.0561	366.211	81.2683	366.211	80.1301	366.211	82.0142	366.211	81.0676	366.211	82.4981	366.211	81.8227	366.211	82.7143	366.211	82.3632	366.211	82.6659
379.395	77.4903	379.395	77.2183	379.395	77.5279	379.395	76.7158	379.395	77.3429	379.395	76.0237	379.395	76.9543	379.395	75.2443	379.395	76.399	379.395	74.5506	379.395	75.7594	379.395	74.1557	379.395	75.1817	379.395	74.2378	379.395	74.8409	379.395	74.846	379.395	74.8488	379.395	75.8586	379.395	75.2108	379.395	77.0654	379.395	75.8751	379.395	78.2914	379.395	76.7693	379.395	79.4396	379.395	77.7961	379.395	80.4638	379.395	78.8513	379.395	81.3343	379.395	79.8609	379.395	82.018	379.395	80.7832	379.395	82.4753	379.395	81.5798	379.395	82.6674	379.395	82.1958	379.395	82.5718
392.578	76.2058	392.578	75.9639	392.578	76.2412	392.578	75.5374	392.578	76.0836	392.578	75.006	392.578	75.7576	392.578	74.502	392.578	75.2909	392.578	74.1706	392.578	74.7237	392.578	74.1336	392.578	74.1349	392.578	74.474	392.578	73.6728	392.578	75.1894	392.578	73.5494	392.578	76.1577	392.578	73.9362	392.578	77.212	392.578	74.8173	392.578	78.2396	392.578	76.0016	392.578	79.1982	392.578	77.2794	392.578	80.0762	392.578	78.5149	392.578	80.8531	392.578	79.6337	392.578	81.4878	392.578	80.5862	392.578	81.9323	392.578	81.3336	392.578	82.1501	392.578	81.8503	392.578	82.1239
405.762	76.1871	405.762	76.0811	405.762	76.0702	405.762	75.7822	405.762	75.7278	405.762	75.346	405.762	75.1837	405.762	74.8549	405.762	74.4942	405.762	74.4339	405.762	73.7621	405.762	74.2475	405.762	73.1386	405.762	74.4177	405.762	72.7926	405.762	74.921	405.762	72.851	405.762	75.6289	405.762	73.3448	405.762	76.4323	405.762	74.1986	405.762	77.2882	405.762	75.2816	405.762	78.1852	405.762	76.4678	405.762	79.0976	405.762	77.6584	405.762	79.9644	405.762	78.7755	405.762	80.7001	405.762	79.7562	405.762	81.223	405.762	80.5522	405.762	81.4775	405.762	81.1252	405.762	81.4423
420.41	75.8024	420.41	75.6069	420.41	75.8432	420.41	75.2723	420.41	75.7107	420.41	74.8079	420.41	75.3983	420.41	74.2367	420.41	74.9246	420.41	73.6342	420.41	74.3359	420.41	73.1611	420.41	73.7085	420.41	73.0426	420.41	73.1673	420.41	73.4457	420.41	72.9064	420.41	74.3521	420.41	73.1405	420.41	75.5898	420.41	73.9503	420.41	76.9557	420.41	75.1868	420.41	78.2799	420.41	76.5888	420.41	79.4423	420.41	77.9443	420.41	80.3766	420.41	79.1402	420.41	81.0633	420.41	80.1308	420.41	81.5087	420.41	80.8959	420.41	81.7202	420.41	81.4199	420.41	81.6938
435.059	76.3402	435.059	76.0012	435.059	76.3058	435.059	75.3135	435.059	75.9284	435.059	74.3698	435.059	75.2761	435.059	73.3447	435.059	74.4342	435.059	72.5063	435.059	73.4951	435.059	72.171	435.059	72.5757	435.059	72.5212	435.059	71.8612	435.059	73.438	435.059	71.6077	435.059	74.6229	435.059	72.0137	435.059	75.8328	435.059	73.0454	435.059	76.9574	435.059	74.4634	435.059	77.9778	435.059	76.0075	435.059	78.9066	435.059	77.4968	435.059	79.7449	435.059	78.8178	435.059	80.4638	435.059	79.8986	435.059	81.0136	435.059	80.6997	435.059	81.344	435.059	81.2054	435.059	81.4161
451.172	73.9908	451.172	73.8879	451.172	73.9542	451.172	73.6348	451.172	73.769	451.172	73.224	451.172	73.4115	451.172	72.6964	451.172	72.8661	451.172	72.1836	451.172	72.1528	451.172	71.895	451.172	71.3698	451.172	72.0035	451.172	70.7622	451.172	72.5512	451.172	70.7221	451.172	73.4983	451.172	71.4916	451.172	74.7584	451.172	72.852	451.172	76.1773	451.172	74.3954	451.172	77.5806	451.172	75.8774	451.172	78.8393	451.172	77.2314	451.172	79.8795	451.172	78.4565	451.172	80.6653	451.172	79.5341	451.172	81.1812	451.172	80.4123	451.172	81.4199	451.172	81.036	451.172	81.3738
465.82	74.2984	465.82	74.197	465.82	74.1647	465.82	73.8071	465.82	73.8477	465.82	73.1239	465.82	73.3633	465.82	72.256	465.82	72.6946	465.82	71.4869	465.82	71.8512	465.82	71.2032	465.82	70.9774	465.82	71.5984	465.82	70.434	465.82	72.5245	465.82	70.6255	465.82	73.7021	465.82	71.5626	465.82	74.9189	465.82	72.8832	465.82	76.086	465.82	74.2865	465.82	77.2045	465.82	75.6579	465.82	78.2801	465.82	76.9608	465.82	79.2645	465.82	78.1568	465.82	80.0731	465.82	79.195	465.82	80.6355	465.82	80.0247	465.82	80.9163	465.82	80.6039	465.82	80.9053
483.398	74.89	483.398	74.4399	483.398	74.9634	483.398	73.6873	483.398	74.6535	483.398	72.7897	483.398	73.9886	483.398	71.9619	483.398	73.0106	483.398	71.3885	483.398	71.8061	483.398	71.1585	483.398	70.613	483.398	71.3338	483.398	69.8592	483.398	71.9979	483.398	69.8622	483.398	73.1106	483.398	70.5576	483.398	74.453	483.398	71.7663	483.398	75.809	483.398	73.3241	483.398	77.0704	483.398	74.9858	483.398	78.199	483.398	76.5201	483.398	79.1729	483.398	77.8281	483.398	79.9631	483.398	78.9171	483.398	80.5292	483.398	79.8023	483.398	80.8228	483.398	80.4499	483.398	80.8009
499.512	74.8513	499.512	74.5064	499.512	74.7713	499.512	73.7926	499.512	74.2575	499.512	72.8046	499.512	73.3239	499.512	71.6241	499.512	71.9955	499.512	70.3378	499.512	70.3466	499.512	69.2372	499.512	68.6272	499.512	68.9449	499.512	67.437	499.512	69.8049	499.512	67.4808	499.512	71.3905	499.512	68.7924	499.512	73.1904	499.512	70.8084	499.512	74.9588	499.512	72.9747	499.512	76.5832	499.512	74.9442	499.512	77.9946	499.512	76.5894	499.512	79.1463	499.512	77.9363	499.512	80.0134	499.512	79.0472	499.512	80.5904	499.512	79.9317	499.512	80.8778	499.512	80.5506	499.512	80.8681
517.09	72.5119	517.09	72.014	517.09	72.5799	517.09	71.1485	517.09	72.1172	517.09	69.9156	517.09	71.0887	517.09	68.4573	517.09	69.6267	517.09	67.4728	517.09	68.111	517.09	67.8446	517.09	67.0942	517.09	69.2263	517.09	67.0081	517.09	70.8129	517.09	67.987	517.09	72.3235	517.09	69.7179	517.09	73.7547	517.09	71.6114	517.09	75.1239	517.09	73.3162	517.09	76.4024	517.09	74.7941	517.09	77.5482	517.09	76.1329	517.09	78.5376	517.09	77.3802	517.09	79.3466	517.09	78.4831	517.09	79.9296	517.09	79.3535	517.09	80.2356	517.09	79.9431	517.09	80.2396
536.133	71.7071	536.133	71.625	536.133	71.4065	536.133	71.1253	536.133	70.7677	536.133	70.2633	536.133	69.8413	536.133	69.2736	536.133	68.7395	536.133	68.5383	536.133	67.677	536.133	68.3593	536.133	66.9477	536.133	68.7856	536.133	66.8397	536.133	69.706	536.133	67.4717	536.133	70.9453	536.133	68.6927	536.133	72.308	536.133	70.2583	536.133	73.6736	536.133	71.9685	536.133	75.0038	536.133	73.6514	536.133	76.2473	536.133	75.1704	536.133	77.3098	536.133	76.4484	536.133	78.1206	536.133	77.4654	536.133	78.666	536.133	78.2284	536.133	78.9538	536.133	78.7375	536.133	78.9807
555.176	71.3951	555.176	70.946	555.176	71.315	555.176	69.9803	555.176	70.7921	555.176	68.6758	555.176	69.9516	555.176	67.4291	555.176	68.8636	555.176	66.7776	555.176	67.5057	555.176	67.0313	555.176	66.0625	555.176	68.0325	555.176	65.5006	555.176	69.4438	555.176	66.7219	555.176	70.9892	555.176	68.816	555.176	72.4986	555.176	70.7814	555.176	73.9215	555.176	72.4192	555.176	75.265	555.176	73.8597	555.176	76.5044	555.176	75.2228	555.176	77.5794	555.176	76.4962	555.176	78.4462	555.176	77.6054	555.176	79.0803	555.176	78.4996	555.176	79.4387	555.176	79.1384	555.176	79.4646
574.219	71.1166	574.219	70.4331	574.219	71.2196	574.219	69.2738	574.219	70.7409	574.219	67.8545	574.219	69.6764	574.219	66.3487	574.219	68.0115	574.219	65.061	574.219	65.9399	574.219	64.9669	574.219	64.3454	574.219	66.5288	574.219	64.4509	574.219	68.6418	574.219	65.929	574.219	70.5394	574.219	67.8184	574.219	72.1512	574.219	69.7792	574.219	73.5834	574.219	71.7116	574.219	74.918	574.219	73.4934	574.219	76.1943	574.219	75.0218	574.219	77.3645	574.219	76.2746	574.219	78.3031	574.219	77.2887	574.219	78.9062	574.219	78.0991	574.219	79.1496	574.219	78.7021	574.219	79.066
594.727	69.9129	594.727	69.5913	594.727	69.8915	594.727	68.8535	594.727	69.4449	594.727	67.6316	594.727	68.4286	594.727	66.1939	594.727	66.8468	594.727	65.3965	594.727	65.0862	594.727	65.8885	594.727	64.0531	594.727	67.0799	594.727	64.4195	594.727	68.3466	594.727	65.7753	594.727	69.6629	594.727	67.5579	594.727	71.1173	594.727	69.4434	594.727	72.6418	594.727	71.1876	594.727	74.0991	594.727	72.7286	594.727	75.3676	594.727	74.1301	594.727	76.3837	594.727	75.4039	594.727	77.1665	594.727	76.5096	594.727	77.7658	594.727	77.406	594.727	78.1675	594.727	78.023	594.727	78.28
615.234	68.6773	615.234	68.3002	615.234	68.5118	615.234	67.4236	615.234	67.8174	615.234	66.196	615.234	66.703	615.234	64.9581	615.234	65.4119	615.234	64.2486	615.234	64.2837	615.234	64.45	615.234	63.8204	615.234	65.4462	615.234	64.4296	615.234	66.9375	615.234	65.7115	615.234	68.6699	615.234	67.0987	615.234	70.4272	615.234	68.4804	615.234	72.0437	615.234	69.9852	615.234	73.4561	615.234	71.6534	615.234	74.7066	615.234	73.3366	615.234	75.8497	615.234	74.8611	615.234	76.8446	615.234	76.0888	615.234	77.5553	615.234	76.945	615.234	77.869	615.234	77.4872	615.234	77.8077
637.207	69.6301	637.207	69.0144	637.207	69.6418	637.207	67.8207	637.207	69.1043	637.207	66.1193	637.207	68.1113	637.207	64.1275	637.207	66.7324	637.207	62.8399	637.207	65.0985	637.207	63.7626	637.207	63.5877	637.207	65.9511	637.207	63.145	637.207	67.8498	637.207	64.6055	637.207	69.1684	637.207	66.7908	637.207	70.2334	637.207	68.6612	637.207	71.4204	637.207	70.2659	637.207	72.8263	637.207	71.8303	637.207	74.2951	637.207	73.3427	637.207	75.6145	637.207	74.6964	637.207	76.6457	637.207	75.8473	637.207	77.3508	637.207	76.7933	637.207	77.7418	637.207	77.4754	637.207	77.7985
659.18	67.4446	659.18	66.3867	659.18	67.7168	659.18	64.6172	659.18	67.1767	659.18	62.6302	659.18	65.7955	659.18	61.8322	659.18	63.5947	659.18	62.6973	659.18	60.84	659.18	63.9377	659.18	59.2691	659.18	65.115	659.18	61.1366	659.18	66.5242	659.18	63.8826	659.18	68.2072	659.18	66.1428	659.18	69.8717	659.18	68.1312	659.18	71.3943	659.18	69.9229	659.18	72.8352	659.18	71.4995	659.18	74.1659	659.18	72.9569	659.18	75.3	659.18	74.3072	659.18	76.223	659.18	75.4273	659.18	76.92	659.18	76.2738	659.18	77.2959	659.18	76.8964	659.18	77.2727
682.617	68.5381	682.617	68.5188	682.617	68.0047	682.617	67.9695	682.617	66.9256	682.617	66.9016	682.617	65.3098	682.617	65.3126	682.617	63.336	682.617	63.6009	682.617	62.041	682.617	63.2704	682.617	62.2964	682.617	64.5871	682.617	63.1958	682.617	66.1514	682.617	64.2521	682.617	67.7131	682.617	65.5663	682.617	69.3715	682.617	67.1612	682.617	70.98	682.617	68.8623	682.617	72.4867	682.617	70.5491	682.617	73.9629	682.617	72.2359	682.617	75.3306	682.617	73.8597	682.617	76.3801	682.617	75.2647	682.617	76.9964	682.617	76.316	682.617	77.2433	682.617	76.9559	682.617	77.2322
707.52	70.4093	707.52	69.415	707.52	70.5264	707.52	67.3352	707.52	69.9118	707.52	64.1839	707.52	68.7575	707.52	62.0922	707.52	67.2319	707.52	63.53	707.52	65.2911	707.52	65.4882	707.52	63.3182	707.52	67.1539	707.52	63.0637	707.52	68.6961	707.52	64.6397	707.52	69.9068	707.52	66.5019	707.52	70.9743	707.52	68.4186	707.52	72.298	707.52	70.4853	707.52	73.8592	707.52	72.5508	707.52	75.3603	707.52	74.399	707.52	76.6274	707.52	75.9533	707.52	77.6749	707.52	77.2355	707.52	78.5156	707.52	78.2319	707.52	79.054	707.52	78.8971	707.52	79.1859
732.422	68.8018	732.422	67.9175	732.422	69.043	732.422	66.6835	732.422	68.4123	732.422	65.314	732.422	66.5611	732.422	64.0481	732.422	63.3019	732.422	64.1922	732.422	59.2651	732.422	65.6945	732.422	58.4432	732.422	67.073	732.422	62.4667	732.422	68.326	732.422	66.1174	732.422	69.7951	732.422	68.628	732.422	71.2945	732.422	70.335	732.422	72.8004	732.422	71.6472	732.422	74.3957	732.422	73.0098	732.422	75.9612	732.422	74.5545	732.422	77.3698	732.422	76.0945	732.422	78.5068	732.422	77.449	732.422	79.2616	732.422	78.5259	732.422	79.614	732.422	79.2527	732.422	79.6073
757.324	71.2515	757.324	70.6117	757.324	71.0825	757.324	69.0217	757.324	70.1239	757.324	66.6592	757.324	68.4153	757.324	65.2111	757.324	65.9319	757.324	65.7188	757.324	63.1756	757.324	67.0982	757.324	63.3691	757.324	68.6688	757.324	65.5918	757.324	69.9339	757.324	67.4875	757.324	70.9513	757.324	69.0901	757.324	72.2096	757.324	70.5679	757.324	73.7753	757.324	72.2082	757.324	75.4132	757.324	73.966	757.324	77.0781	757.324	75.607	757.324	78.6232	757.324	77.1289	757.324	79.7902	757.324	78.5315	757.324	80.4872	757.324	79.6912	757.324	80.8062	757.324	80.473	757.324	80.8222
785.156	72.5404	785.156	71.9396	785.156	72.234	785.156	70.3443	785.156	71.1613	785.156	67.8007	785.156	69.2946	785.156	65.7302	785.156	66.7904	785.156	66.6625	785.156	64.7587	785.156	68.3655	785.156	64.3712	785.156	69.5493	785.156	65.8582	785.156	70.7534	785.156	67.8477	785.156	72.2605	785.156	69.7019	785.156	73.8476	785.156	71.5339	785.156	75.4989	785.156	73.272	785.156	77.2898	785.156	75.1572	785.156	79.0522	785.156	77.2868	785.156	80.5568	785.156	79.2307	785.156	81.7749	785.156	80.7007	785.156	82.6899	785.156	81.7514	785.156	83.1569	785.156	82.5418	785.156	83.0723
811.523	73.4826	811.523	72.4002	811.523	73.6643	811.523	70.5055	811.523	72.7793	811.523	68.5467	811.523	70.6603	811.523	68.3838	811.523	67.2505	811.523	69.6432	811.523	63.1406	811.523	71.1379	811.523	63.2495	811.523	72.7805	811.523	66.7757	811.523	73.81	811.523	69.7492	811.523	74.3301	811.523	72.0467	811.523	75.2977	811.523	73.897	811.523	76.8948	811.523	75.6544	811.523	78.6268	811.523	77.311	811.523	80.2721	811.523	78.8514	811.523	81.8855	811.523	80.3867	811.523	83.2281	811.523	81.8706	811.523	84.0115	811.523	83.1578	811.523	84.3406	811.523	84.0376	811.523	84.3875
840.82	74.4093	840.82	73.6158	840.82	73.9335	840.82	71.9038	840.82	72.4168	840.82	70.3099	840.82	70.0716	840.82	70.0556	840.82	66.6978	840.82	71.303	840.82	65.9508	840.82	72.4	840.82	69.6624	840.82	72.7635	840.82	72.0012	840.82	73.1298	840.82	73.0752	840.82	74.1733	840.82	74.07	840.82	75.7791	840.82	75.4068	840.82	77.7745	840.82	76.7813	840.82	79.7463	840.82	78.3367	840.82	81.4853	840.82	80.1384	840.82	83.0978	840.82	81.9141	840.82	84.4846	840.82	83.4072	840.82	85.4551	840.82	84.5079	840.82	85.8934	840.82	85.2966	840.82	85.7996
870.117	77.0013	870.117	77.046	870.117	76.3085	870.117	75.5579	870.117	75.5181	870.117	73.2594	870.117	73.933	870.117	72.4252	870.117	70.5923	870.117	71.7494	870.117	68.2092	870.117	71.6875	870.117	69.4357	870.117	73.3723	870.117	71.0169	870.117	75.3875	870.117	73.2554	870.117	76.5248	870.117	74.9743	870.117	77.2289	870.117	76.2191	870.117	78.5786	870.117	77.7643	870.117	80.9599	870.117	79.4504	870.117	83.6264	870.117	81.5602	870.117	85.5506	870.117	83.8141	870.117	86.7505	870.117	85.6129	870.117	87.6187	870.117	86.9167	870.117	88.1666	870.117	87.8023	870.117	88.238
900.879	77.5313	900.879	76.1586	900.879	77.8984	900.879	74.4894	900.879	75.8953	900.879	71.1136	900.879	71.3018	900.879	70.2169	900.879	65.14	900.879	73.983	900.879	65.7161	900.879	75.2843	900.879	70.8671	900.879	74.5791	900.879	74.3098	900.879	73.9869	900.879	75.4099	900.879	75.1188	900.879	76.5139	900.879	77.7329	900.879	77.9987	900.879	80.5025	900.879	79.3016	900.879	82.6201	900.879	81.5138	900.879	84.4589	900.879	83.5636	900.879	86.6235	900.879	85.2813	900.879	88.4856	900.879	86.9636	900.879	89.4332	900.879	88.3311	900.879	89.8142	900.879	89.3712	900.879	89.8809
933.105	79.3206	933.105	79.7068	933.105	77.222	933.105	77.202	933.105	75.0438	933.105	75.0528	933.105	71.6032	933.105	74.0932	933.105	70.7811	933.105	73.8135	933.105	73.3432	933.105	75.6572	933.105	75.1717	933.105	77.2751	933.105	75.9149	933.105	77.6589	933.105	76.9036	933.105	78.1397	933.105	77.9153	933.105	79.0314	933.105	78.8643	933.105	81.0864	933.105	80.8121	933.105	83.9371	933.105	82.7422	933.105	86.5498	933.105	85.0042	933.105	88.509	933.105	87.2026	933.105	89.8041	933.105	88.9015	933.105	90.8491	933.105	90.1156	933.105	91.5492	933.105	90.9376	933.105	91.5159
965.332	80.3711	965.332	78.6267	965.332	80.633	965.332	77.5172	965.332	79.3949	965.332	75.7622	965.332	78.4489	965.332	73.9067	965.332	76.7678	965.332	76.0372	965.332	74.285	965.332	75.8025	965.332	75.6446	965.332	75.3405	965.332	76.5963	965.332	76.2644	965.332	78.1256	965.332	77.6781	965.332	78.9434	965.332	79.7352	965.332	80.0673	965.332	82.2668	965.332	82.1767	965.332	85.1627	965.332	84.3147	965.332	87.8196	965.332	86.8661	965.332	89.8853	965.332	89.0124	965.332	91.5734	965.332	90.7218	965.332	92.7098	965.332	92.2607	965.332	93.2093	965.332	93.154	965.332	93.3522
1,000.49	79.7556	1,000.49	79.9302	1,000.49	78.9915	1,000.49	75.7601	1,000.49	78.4484	1,000.49	73.0573	1,000.49	74.1321	1,000.49	76.1794	1,000.49	66.254	1,000.49	76.513	1,000.49	72.5183	1,000.49	78.7092	1,000.49	74.9067	1,000.49	79.1034	1,000.49	77.9799	1,000.49	78.1448	1,000.49	79.2904	1,000.49	77.8244	1,000.49	79.9718	1,000.49	80.0064	1,000.49	81.5108	1,000.49	83.6491	1,000.49	82.8884	1,000.49	86.5649	1,000.49	85.5436	1,000.49	89.2733	1,000.49	87.629	1,000.49	91.4616	1,000.49	89.8029	1,000.49	93.0497	1,000.49	91.9499	1,000.49	94.1317	1,000.49	93.2319	1,000.49	94.6045	1,000.49	94.1484	1,000.49	94.6356
1,035.64	82.0621	1,035.64	80.2596	1,035.64	81.7258	1,035.64	78.7204	1,035.64	78.1962	1,035.64	75.4956	1,035.64	75.5743	1,035.64	76.1151	1,035.64	77.7579	1,035.64	76.2641	1,035.64	77.8288	1,035.64	73.9924	1,035.64	78.7776	1,035.64	74.2317	1,035.64	79.5584	1,035.64	75.647	1,035.64	78.0101	1,035.64	78.1432	1,035.64	79.6838	1,035.64	80.5627	1,035.64	80.1208	1,035.64	83.6155	1,035.64	82.0212	1,035.64	87.2029	1,035.64	84.6577	1,035.64	89.642	1,035.64	87.5566	1,035.64	91.6437	1,035.64	90.7245	1,035.64	93.5782	1,035.64	92.2093	1,035.64	94.8436	1,035.64	93.5424	1,035.64	95.2739	1,035.64	94.7195	1,035.64	95.1796
1,072.27	79.8023	1,072.27	77.2137	1,072.27	79.0678	1,072.27	73.1435	1,072.27	77.7612	1,072.27	73.0757	1,072.27	74.6617	1,072.27	74.8677	1,072.27	64.9367	1,072.27	78.2771	1,072.27	72.0707	1,072.27	76.78	1,072.27	74.8234	1,072.27	74.6448	1,072.27	77.7699	1,072.27	74.2867	1,072.27	78.7128	1,072.27	77.312	1,072.27	77.9115	1,072.27	80.0617	1,072.27	79.2706	1,072.27	82.6783	1,072.27	81.2237	1,072.27	86.0955	1,072.27	83.7054	1,072.27	89.3687	1,072.27	86.3265	1,072.27	92.0647	1,072.27	89.7657	1,072.27	93.6939	1,072.27	92.4244	1,072.27	94.7881	1,072.27	93.9028	1,072.27	95.5693	1,072.27	94.9497	1,072.27	95.6009
1,108.89	78.1275	1,108.89	77.9456	1,108.89	79.252	1,108.89	75.9379	1,108.89	78.1877	1,108.89	71.6869	1,108.89	73.5626	1,108.89	73.5575	1,108.89	75.3565	1,108.89	71.651	1,108.89	74.2473	1,108.89	74.4371	1,108.89	75.692	1,108.89	75.8446	1,108.89	77.0039	1,108.89	76.4737	1,108.89	77.1361	1,108.89	78.5481	1,108.89	77.2522	1,108.89	80.9573	1,108.89	77.5305	1,108.89	83.5617	1,108.89	80.9842	1,108.89	86.5847	1,108.89	84.6172	1,108.89	89.6111	1,108.89	87.2367	1,108.89	91.993	1,108.89	89.6423	1,108.89	93.6536	1,108.89	91.6064	1,108.89	94.8799	1,108.89	93.8339	1,108.89	95.5315	1,108.89	95.1538	1,108.89	95.5455
1,148.44	80.1954	1,148.44	76.3612	1,148.44	80.5755	1,148.44	73.9536	1,148.44	77.1418	1,148.44	73.0547	1,148.44	70.5725	1,148.44	74.685	1,148.44	70.2013	1,148.44	75.2467	1,148.44	76.9628	1,148.44	73.1674	1,148.44	77.5476	1,148.44	73.8487	1,148.44	75.8397	1,148.44	74.4912	1,148.44	74.5427	1,148.44	74.9185	1,148.44	74.4586	1,148.44	78.7899	1,148.44	77.1717	1,148.44	82.3866	1,148.44	78.644	1,148.44	85.8879	1,148.44	81.4956	1,148.44	89.2854	1,148.44	85.4388	1,148.44	91.9719	1,148.44	88.892	1,148.44	93.8438	1,148.44	91.5	1,148.44	95.0462	1,148.44	93.5584	1,148.44	95.5901	1,148.44	94.7401	1,148.44	95.3725
1,189.45	77.4529	1,189.45	75.3876	1,189.45	74.1776	1,189.45	69.4515	1,189.45	71.9133	1,189.45	71.0309	1,189.45	71.5209	1,189.45	74.7413	1,189.45	71.4349	1,189.45	73.3846	1,189.45	68.3247	1,189.45	72.4823	1,189.45	70.2806	1,189.45	69.532	1,189.45	72.8452	1,189.45	72.2101	1,189.45	72.5465	1,189.45	76.7608	1,189.45	74.8799	1,189.45	78.6531	1,189.45	76.992	1,189.45	81.5507	1,189.45	79.8202	1,189.45	84.929	1,189.45	82.1798	1,189.45	87.9141	1,189.45	84.8148	1,189.45	90.6827	1,189.45	88.1103	1,189.45	92.6937	1,189.45	90.8018	1,189.45	93.9414	1,189.45	92.8158	1,189.45	94.7542	1,189.45	94.0386	1,189.45	94.835
1,230.47	75.7955	1,230.47	73.563	1,230.47	78.0189	1,230.47	65.6109	1,230.47	73.578	1,230.47	69.2155	1,230.47	52.979	1,230.47	71.5631	1,230.47	69.4863	1,230.47	71.7225	1,230.47	71.8431	1,230.47	73.2024	1,230.47	70.4173	1,230.47	74.4962	1,230.47	72.4275	1,230.47	74.5239	1,230.47	75.2206	1,230.47	75.5732	1,230.47	75.9861	1,230.47	77.3912	1,230.47	75.9518	1,230.47	79.6612	1,230.47	76.016	1,230.47	82.8476	1,230.47	79.7815	1,230.47	86.7491	1,230.47	83.5535	1,230.47	89.4844	1,230.47	86.7724	1,230.47	92.0415	1,230.47	89.4902	1,230.47	93.6227	1,230.47	91.9247	1,230.47	94.2148	1,230.47	93.4437	1,230.47	94.3615
1,274.41	72.9724	1,274.41	69.4313	1,274.41	71.0056	1,274.41	59.4818	1,274.41	67.9383	1,274.41	64.8948	1,274.41	49.4697	1,274.41	71.5019	1,274.41	66.8949	1,274.41	71.7841	1,274.41	69.382	1,274.41	69.1149	1,274.41	71.2016	1,274.41	71.6395	1,274.41	69.5275	1,274.41	74.6487	1,274.41	72.4167	1,274.41	76.5813	1,274.41	74.303	1,274.41	76.3409	1,274.41	74.9548	1,274.41	77.1774	1,274.41	76.5589	1,274.41	80.7235	1,274.41	78.4143	1,274.41	84.6271	1,274.41	81.8273	1,274.41	88.3988	1,274.41	85.5417	1,274.41	90.8298	1,274.41	89.0202	1,274.41	92.2931	1,274.41	91.127	1,274.41	93.4511	1,274.41	92.5879	1,274.41	93.4937
1,319.82	73.8122	1,319.82	70.0591	1,319.82	74.4063	1,319.82	55.0914	1,319.82	69.8199	1,319.82	66.0983	1,319.82	53.7209	1,319.82	68.5382	1,319.82	65.3138	1,319.82	67.4394	1,319.82	64.0496	1,319.82	68.1525	1,319.82	66.989	1,319.82	71.9043	1,319.82	70.4579	1,319.82	75.9993	1,319.82	72.3847	1,319.82	75.2268	1,319.82	73.9125	1,319.82	73.2405	1,319.82	74.5163	1,319.82	74.3263	1,319.82	75.2381	1,319.82	77.8169	1,319.82	77.3159	1,319.82	82.44	1,319.82	80.7791	1,319.82	86.0666	1,319.82	84.181	1,319.82	89.1587	1,319.82	87.3638	1,319.82	91.4916	1,319.82	90.181	1,319.82	92.4661	1,319.82	92.031	1,319.82	92.5516
1,366.7	72.3653	1,366.7	69.6858	1,366.7	72.5542	1,366.7	62.4509	1,366.7	70.3302	1,366.7	65.7586	1,366.7	63.2092	1,366.7	68.6602	1,366.7	66.8517	1,366.7	67.6459	1,366.7	71.4479	1,366.7	72.1008	1,366.7	72.0421	1,366.7	74.4931	1,366.7	73.2033	1,366.7	73.9766	1,366.7	72.4848	1,366.7	74.5769	1,366.7	74.2301	1,366.7	73.304	1,366.7	74.6931	1,366.7	72.1283	1,366.7	72.5549	1,366.7	74.7262	1,366.7	72.648	1,366.7	79.6801	1,366.7	77.0412	1,366.7	84.5803	1,366.7	81.348	1,366.7	87.9395	1,366.7	85.9988	1,366.7	90.3805	1,366.7	88.771	1,366.7	91.4356	1,366.7	90.7066	1,366.7	91.4421
1,413.57	76.1237	1,413.57	72.8419	1,413.57	74.1549	1,413.57	66.9739	1,413.57	72.8026	1,413.57	64.0414	1,413.57	68.8003	1,413.57	64.5364	1,413.57	60.6999	1,413.57	68.0097	1,413.57	61.1412	1,413.57	70.7457	1,413.57	66.9502	1,413.57	75.2948	1,413.57	72.8887	1,413.57	76.5046	1,413.57	76.1574	1,413.57	75.1597	1,413.57	75.4676	1,413.57	72.4907	1,413.57	73.5703	1,413.57	70.9687	1,413.57	69.5865	1,413.57	72.4764	1,413.57	69.731	1,413.57	76.0619	1,413.57	75.8797	1,413.57	81.92	1,413.57	79.8199	1,413.57	86.3844	1,413.57	84.1293	1,413.57	89.0457	1,413.57	87.6473	1,413.57	90.444	1,413.57	89.6951	1,413.57	90.6138
1,463.38	75.3468	1,463.38	73.1658	1,463.38	76.0133	1,463.38	70.6174	1,463.38	70.9116	1,463.38	67.9974	1,463.38	67.1614	1,463.38	65.4652	1,463.38	64.8911	1,463.38	65.7575	1,463.38	67.4758	1,463.38	71.4578	1,463.38	68.9255	1,463.38	76.1295	1,463.38	72.4087	1,463.38	77.0778	1,463.38	75.3235	1,463.38	76.1189	1,463.38	76.8571	1,463.38	73.5677	1,463.38	75.5461	1,463.38	67.6777	1,463.38	71.478	1,463.38	65.094	1,463.38	69.9926	1,463.38	74.0079	1,463.38	68.8511	1,463.38	80.7952	1,463.38	75.307	1,463.38	84.7999	1,463.38	81.3747	1,463.38	87.5308	1,463.38	85.3402	1,463.38	89.1706	1,463.38	87.8991	1,463.38	89.139
1,516.11	76.7066	1,516.11	75.0742	1,516.11	77.3007	1,516.11	71.5226	1,516.11	75.4628	1,516.11	65.7763	1,516.11	70.1652	1,516.11	58.9945	1,516.11	66.7422	1,516.11	65.1818	1,516.11	61.371	1,516.11	73.8813	1,516.11	70.7161	1,516.11	77.6684	1,516.11	75.322	1,516.11	78.241	1,516.11	77.45	1,516.11	76.0937	1,516.11	76.8134	1,516.11	73.1985	1,516.11	74.5761	1,516.11	69.3402	1,516.11	71.7089	1,516.11	68.1541	1,516.11	64.024	1,516.11	71.2736	1,516.11	58.4702	1,516.11	79.201	1,516.11	69.8084	1,516.11	84.461	1,516.11	79.0233	1,516.11	86.2335	1,516.11	83.9639	1,516.11	87.5743	1,516.11	86.3723	1,516.11	87.6592
1,568.85	76.9814	1,568.85	74.9439	1,568.85	77.5097	1,568.85	71.0082	1,568.85	75.6494	1,568.85	64.8371	1,568.85	71.9192	1,568.85	63.6067	1,568.85	67.8443	1,568.85	71.0548	1,568.85	66.8203	1,568.85	76.1178	1,568.85	71.8809	1,568.85	77.6513	1,568.85	74.8056	1,568.85	78.6499	1,568.85	77.068	1,568.85	76.0253	1,568.85	77.6241	1,568.85	70.1803	1,568.85	76.5063	1,568.85	64.6031	1,568.85	71.1793	1,568.85	65.0328	1,568.85	62.4566	1,568.85	70.8469	1,568.85	48.065	1,568.85	78.454	1,568.85	68.6746	1,568.85	82.8112	1,568.85	77.6552	1,568.85	85.7582	1,568.85	81.5922	1,568.85	86.2231	1,568.85	84.9936	1,568.85	86.2922
1,624.51	79.5374	1,624.51	78.1303	1,624.51	79.0283	1,624.51	74.1534	1,624.51	76.9759	1,624.51	70.8052	1,624.51	73.378	1,624.51	69.3473	1,624.51	67.8983	1,624.51	73.0496	1,624.51	68.3642	1,624.51	76.5416	1,624.51	73.5417	1,624.51	79.6675	1,624.51	76.9063	1,624.51	79.6601	1,624.51	78.4734	1,624.51	77.8156	1,624.51	78.7771	1,624.51	72.4844	1,624.51	76.4711	1,624.51	64.4273	1,624.51	71.8177	1,624.51	58.447	1,624.51	57.3916	1,624.51	70.5635	1,624.51	65.0934	1,624.51	78.1176	1,624.51	69.7661	1,624.51	82.4126	1,624.51	77.8202	1,624.51	84.158	1,624.51	82.4705	1,624.51	85.6852	1,624.51	84.6297	1,624.51	85.5289
1,681.64	81.7807	1,681.64	79.8877	1,681.64	81.7911	1,681.64	76.0682	1,681.64	78.5927	1,681.64	69.4437	1,681.64	72.259	1,681.64	63.4075	1,681.64	65.367	1,681.64	72.9457	1,681.64	63.4494	1,681.64	78.2242	1,681.64	74.9377	1,681.64	81.0714	1,681.64	78.8529	1,681.64	81.087	1,681.64	78.57	1,681.64	79.1334	1,681.64	78.0919	1,681.64	73.1969	1,681.64	76.4352	1,681.64	65.4144	1,681.64	68.2222	1,681.64	69.5546	1,681.64	49.1828	1,681.64	67.2155	1,681.64	63.6007	1,681.64	76.1363	1,681.64	71.1048	1,681.64	81.1433	1,681.64	78.1357	1,681.64	84.6845	1,681.64	82.7334	1,681.64	84.7064	1,681.64	84.7715	1,681.64	84.725
1,741.7	83.0484	1,741.7	81.5465	1,741.7	81.9995	1,741.7	77.6719	1,741.7	79.8893	1,741.7	68.0428	1,741.7	76.9336	1,741.7	65.9002	1,741.7	64.7855	1,741.7	75.4832	1,741.7	73.5269	1,741.7	79.5161	1,741.7	78.7832	1,741.7	82.5801	1,741.7	80.3707	1,741.7	82.0371	1,741.7	81.1122	1,741.7	78.7016	1,741.7	80.1569	1,741.7	75.2754	1,741.7	75.3175	1,741.7	55.1034	1,741.7	72.0636	1,741.7	64.9992	1,741.7	65.6059	1,741.7	67.3652	1,741.7	68.6385	1,741.7	76.2916	1,741.7	71.4507	1,741.7	82.1423	1,741.7	77.598	1,741.7	83.2995	1,741.7	83.0742	1,741.7	84.6883	1,741.7	84.2546	1,741.7	85.0905
1,803.22	83.3347	1,803.22	81.8205	1,803.22	82.4139	1,803.22	74.8586	1,803.22	80.7879	1,803.22	64.0764	1,803.22	73.387	1,803.22	68.8375	1,803.22	63.6393	1,803.22	78.3538	1,803.22	74.3775	1,803.22	81.5026	1,803.22	78.3396	1,803.22	82.0138	1,803.22	81.0868	1,803.22	81.1143	1,803.22	80.9477	1,803.22	78.0279	1,803.22	80.9573	1,803.22	71.0656	1,803.22	77.5648	1,803.22	57.2934	1,803.22	71.8325	1,803.22	71.846	1,803.22	69.4868	1,803.22	70.0451	1,803.22	71.6801	1,803.22	75.1825	1,803.22	66.6815	1,803.22	81.5193	1,803.22	77.3032	1,803.22	82.8357	1,803.22	81.2293	1,803.22	82.4082	1,803.22	83.7386	1,803.22	82.3061
1,866.21	83.1135	1,866.21	80.017	1,866.21	83.3183	1,866.21	75.2141	1,866.21	80.9309	1,866.21	54.5374	1,866.21	70.9131	1,866.21	74.6871	1,866.21	65.449	1,866.21	80.2765	1,866.21	72.7947	1,866.21	82.4058	1,866.21	77.9573	1,866.21	82.871	1,866.21	80.349	1,866.21	82.0402	1,866.21	81.6768	1,866.21	76.3848	1,866.21	80.4486	1,866.21	68.5861	1,866.21	78.8331	1,866.21	69.6152	1,866.21	73.1568	1,866.21	72.7569	1,866.21	58.5735	1,866.21	71.4919	1,866.21	67.8356	1,866.21	73.6089	1,866.21	59.4487	1,866.21	77.8728	1,866.21	71.5821	1,866.21	80.6181	1,866.21	81.4302	1,866.21	81.1357	1,866.21	81.7604	1,866.21	79.3442
1,932.13	83.5884	1,932.13	80.2566	1,932.13	83.6198	1,932.13	69.9547	1,932.13	80.481	1,932.13	67.7922	1,932.13	72.55	1,932.13	75.5361	1,932.13	60.1051	1,932.13	81.1968	1,932.13	74.4135	1,932.13	83.4712	1,932.13	79.4307	1,932.13	83.659	1,932.13	82.0289	1,932.13	81.799	1,932.13	82.4635	1,932.13	77.2361	1,932.13	81.7479	1,932.13	70.1015	1,932.13	78.7135	1,932.13	69.5441	1,932.13	72.4594	1,932.13	73.9036	1,932.13	64.5272	1,932.13	68.7122	1,932.13	71.073	1,932.13	72.5117	1,932.13	67.8953	1,932.13	80.6574	1,932.13	71.4399	1,932.13	79.906	1,932.13	79.171	1,932.13	78.0978	1,932.13	81.0336	1,932.13	79.1768
1,999.51	85.5822	1,999.51	83.1586	1,999.51	85.3536	1,999.51	74.4431	1,999.51	81.4331	1,999.51	71.4596	1,999.51	71.1271	1,999.51	77.6121	1,999.51	72.8702	1,999.51	81.1909	1,999.51	79.5012	1,999.51	84.1652	1,999.51	82.0615	1,999.51	84.7683	1,999.51	83.5907	1,999.51	83.1815	1,999.51	83.9092	1,999.51	79.7857	1,999.51	81.7038	1,999.51	71.6824	1,999.51	78.558	1,999.51	72.4542	1,999.51	70.239	1,999.51	77.4224	1,999.51	69.095	1,999.51	74.8482	1,999.51	72.7375	1,999.51	69.4159	1,999.51	72.7709	1,999.51	79.3368	1,999.51	68.6286	1,999.51	80.8206	1,999.51	79.1443	1,999.51	82.0413	1,999.51	80.8785	1,999.51	81.6569
2,069.82	86.979	2,069.82	84.7094	2,069.82	86.2146	2,069.82	76.1021	2,069.82	82.2389	2,069.82	71.1809	2,069.82	63.249	2,069.82	79.9176	2,069.82	74.529	2,069.82	82.5753	2,069.82	81.5103	2,069.82	84.7405	2,069.82	83.858	2,069.82	85.3906	2,069.82	85.1469	2,069.82	83.8287	2,069.82	84.5764	2,069.82	81.1152	2,069.82	82.711	2,069.82	74.1918	2,069.82	78.9604	2,069.82	73.4599	2,069.82	72.8911	2,069.82	77.0309	2,069.82	71.8658	2,069.82	75.4586	2,069.82	76.7729	2,069.82	67.8561	2,069.82	76.0959	2,069.82	78.3604	2,069.82	67.1317	2,069.82	81.7894	2,069.82	77.0111	2,069.82	83.4255	2,069.82	79.9396	2,069.82	82.9615
2,143.07	87.3663	2,143.07	84.8848	2,143.07	86.5134	2,143.07	76.5753	2,143.07	81.0607	2,143.07	71.6662	2,143.07	62.5085	2,143.07	79.8025	2,143.07	77.1581	2,143.07	82.1305	2,143.07	81.5002	2,143.07	84.846	2,143.07	83.9691	2,143.07	84.5652	2,143.07	84.927	2,143.07	83.3464	2,143.07	84.6988	2,143.07	79.9979	2,143.07	83.2987	2,143.07	73.6814	2,143.07	79.9541	2,143.07	73.73	2,143.07	74.4048	2,143.07	77.2645	2,143.07	73.4819	2,143.07	78.1838	2,143.07	77.5808	2,143.07	69.0359	2,143.07	78.3605	2,143.07	75.471	2,143.07	66.4107	2,143.07	80.9067	2,143.07	76.8306	2,143.07	84.0885	2,143.07	81.9189	2,143.07	83.9662
2,219.24	86.623	2,219.24	83.7495	2,219.24	86.2794	2,219.24	68.5626	2,219.24	81.4248	2,219.24	74.2266	2,219.24	65.5421	2,219.24	80.2558	2,219.24	76.8862	2,219.24	81.1394	2,219.24	80.6132	2,219.24	82.8479	2,219.24	82.6673	2,219.24	82.7954	2,219.24	83.4802	2,219.24	79.8219	2,219.24	83.398	2,219.24	78.21	2,219.24	82.8028	2,219.24	74.2957	2,219.24	79.7251	2,219.24	74.6349	2,219.24	74.5775	2,219.24	76.0264	2,219.24	72.6239	2,219.24	78.4911	2,219.24	77.3284	2,219.24	71.0894	2,219.24	78.1488	2,219.24	73.2538	2,219.24	68.6167	2,219.24	79.4743	2,219.24	75.8971	2,219.24	82.4954	2,219.24	82.0409	2,219.24	83.2146
2,296.88	86.2982	2,296.88	82.0559	2,296.88	86.7211	2,296.88	64.883	2,296.88	81.5258	2,296.88	77.6752	2,296.88	65.1569	2,296.88	81.0309	2,296.88	78.8343	2,296.88	81.8794	2,296.88	81.1428	2,296.88	81.8019	2,296.88	81.9639	2,296.88	81.7616	2,296.88	82.2678	2,296.88	80.9102	2,296.88	81.8404	2,296.88	78.5463	2,296.88	80.8831	2,296.88	74.8873	2,296.88	79.6204	2,296.88	72.7418	2,296.88	76.0023	2,296.88	75.9909	2,296.88	70.9094	2,296.88	79.6199	2,296.88	77.9925	2,296.88	74.6452	2,296.88	79.3932	2,296.88	65.6022	2,296.88	74.0688	2,296.88	77.3915	2,296.88	72.1852	2,296.88	83.1798	2,296.88	78.2984	2,296.88	83.6757
2,378.91	87.5064	2,378.91	83.2836	2,378.91	86.8316	2,378.91	71.3378	2,378.91	81.625	2,378.91	79.2723	2,378.91	68.2969	2,378.91	83.3074	2,378.91	81.6483	2,378.91	83.9359	2,378.91	83.3746	2,378.91	83.4221	2,378.91	82.7671	2,378.91	82.3779	2,378.91	82.6704	2,378.91	81.2987	2,378.91	81.5328	2,378.91	80.2416	2,378.91	80.5815	2,378.91	76.8843	2,378.91	79.0348	2,378.91	71.2321	2,378.91	76.7793	2,378.91	77.1233	2,378.91	71.3956	2,378.91	81.3076	2,378.91	77.7488	2,378.91	77.8313	2,378.91	80.1006	2,378.91	55.5812	2,378.91	77.7602	2,378.91	77.5026	2,378.91	70.6411	2,378.91	81.9877	2,378.91	79.2263	2,378.91	82.8153
2,462.4	88.1743	2,462.4	84.7322	2,462.4	87.2771	2,462.4	68.6179	2,462.4	80.1057	2,462.4	81.1032	2,462.4	74.3693	2,462.4	84.936	2,462.4	84.6515	2,462.4	85.4923	2,462.4	85.1797	2,462.4	84.6028	2,462.4	84.3213	2,462.4	82.9583	2,462.4	82.4873	2,462.4	81.9535	2,462.4	82.5487	2,462.4	81.2416	2,462.4	81.9426	2,462.4	79.0084	2,462.4	81.9078	2,462.4	73.3668	2,462.4	79.1061	2,462.4	75.9911	2,462.4	70.954	2,462.4	82.4139	2,462.4	78.1689	2,462.4	81.1784	2,462.4	81.9152	2,462.4	73.6358	2,462.4	78.4056	2,462.4	73.2453	2,462.4	76.6662	2,462.4	83.7123	2,462.4	81.8022	2,462.4	85.0209
2,548.83	87.7498	2,548.83	83.8193	2,548.83	86.4711	2,548.83	62.8913	2,548.83	78.3535	2,548.83	82.2546	2,548.83	76.1154	2,548.83	85.098	2,548.83	84.7325	2,548.83	84.9152	2,548.83	85.777	2,548.83	82.9999	2,548.83	84.3151	2,548.83	81.2773	2,548.83	82.1779	2,548.83	82.0038	2,548.83	80.8507	2,548.83	81.0537	2,548.83	82.2128	2,548.83	79.2401	2,548.83	83.0064	2,548.83	70.9841	2,548.83	81.1683	2,548.83	75.3404	2,548.83	75.0825	2,548.83	82.5354	2,548.83	79.113	2,548.83	83.187	2,548.83	82.1988	2,548.83	78.5287	2,548.83	78.1145	2,548.83	75.0355	2,548.83	74.9104	2,548.83	83.5153	2,548.83	81.7861	2,548.83	85.4541
2,639.65	87.062	2,639.65	82.8135	2,639.65	85.2696	2,639.65	72.379	2,639.65	77.763	2,639.65	83.6501	2,639.65	77.6137	2,639.65	84.1247	2,639.65	83.1792	2,639.65	84.354	2,639.65	85.7746	2,639.65	80.9919	2,639.65	84.341	2,639.65	80.2261	2,639.65	81.6165	2,639.65	81.8748	2,639.65	77.6157	2,639.65	80.991	2,639.65	81.2099	2,639.65	76.5666	2,639.65	81.683	2,639.65	69.3609	2,639.65	81.4622	2,639.65	76.6257	2,639.65	77.722	2,639.65	81.2795	2,639.65	76.4326	2,639.65	83.4141	2,639.65	81.6207	2,639.65	79.9673	2,639.65	79.5118	2,639.65	77.0677	2,639.65	67.9086	2,639.65	81.6805	2,639.65	80.1434	2,639.65	82.8954
2,731.93	86.4547	2,731.93	80.5988	2,731.93	85.2662	2,731.93	72.0102	2,731.93	76.997	2,731.93	83.7453	2,731.93	78.0023	2,731.93	84.0671	2,731.93	83.5433	2,731.93	82.9171	2,731.93	84.577	2,731.93	80.3246	2,731.93	82.817	2,731.93	80.4879	2,731.93	80.3873	2,731.93	81.4755	2,731.93	79.2692	2,731.93	81.9771	2,731.93	79.8125	2,731.93	78.3562	2,731.93	80.9863	2,731.93	70.6797	2,731.93	80.9072	2,731.93	74.6697	2,731.93	77.1173	2,731.93	80.5905	2,731.93	68.2191	2,731.93	82.7995	2,731.93	81.2617	2,731.93	78.0324	2,731.93	80.4535	2,731.93	75.8784	2,731.93	53.5113	2,731.93	80.6377	2,731.93	72.4626	2,731.93	79.4681
2,828.61	86.2565	2,828.61	79.6732	2,828.61	86.1922	2,828.61	73.2184	2,828.61	76.2012	2,828.61	84.4402	2,828.61	78.3692	2,828.61	85.8503	2,828.61	84.6197	2,828.61	82.4343	2,828.61	83.7866	2,828.61	80.6618	2,828.61	81.7407	2,828.61	80.0124	2,828.61	78.9155	2,828.61	81.1315	2,828.61	81.6002	2,828.61	83.1766	2,828.61	80.7768	2,828.61	81.6626	2,828.61	81.5378	2,828.61	64.7855	2,828.61	81.4239	2,828.61	73.3504	2,828.61	76.119	2,828.61	81.1654	2,828.61	66.2588	2,828.61	81.9334	2,828.61	80.0437	2,828.61	75.5142	2,828.61	80.4081	2,828.61	74.8664	2,828.61	67.3502	2,828.61	81.3485	2,828.61	63.4349	2,828.61	79.5021
2,928.22	86.9768	2,928.22	79.9086	2,928.22	85.604	2,928.22	77.4406	2,928.22	74.8207	2,928.22	85.021	2,928.22	80.3244	2,928.22	86.2325	2,928.22	86.3023	2,928.22	82.2645	2,928.22	84.7261	2,928.22	76.4605	2,928.22	81.1202	2,928.22	77.5212	2,928.22	78.7253	2,928.22	83.5376	2,928.22	82.1988	2,928.22	85.1013	2,928.22	83.8526	2,928.22	83.0378	2,928.22	83.1103	2,928.22	72.7763	2,928.22	80.1973	2,928.22	74.9532	2,928.22	76.3604	2,928.22	82.4751	2,928.22	66.7938	2,928.22	82.327	2,928.22	79.4224	2,928.22	78.7612	2,928.22	80.8367	2,928.22	76.3435	2,928.22	72.759	2,928.22	83.2093	2,928.22	65.2363	2,928.22	80.8727
3,030.76	87.1366	3,030.76	80.5721	3,030.76	85.5605	3,030.76	75.3348	3,030.76	73.7832	3,030.76	85.0974	3,030.76	82.5223	3,030.76	86.0652	3,030.76	86.7521	3,030.76	82.6378	3,030.76	85.4199	3,030.76	75.3396	3,030.76	81.182	3,030.76	77.8878	3,030.76	80.023	3,030.76	83.8917	3,030.76	82.2971	3,030.76	85.5965	3,030.76	85.6519	3,030.76	83.3738	3,030.76	84.2274	3,030.76	77.1969	3,030.76	78.9112	3,030.76	71.6368	3,030.76	75.9813	3,030.76	81.5535	3,030.76	66.1348	3,030.76	82.6176	3,030.76	79.3354	3,030.76	79.6163	3,030.76	80.8252	3,030.76	78.4805	3,030.76	74.1508	3,030.76	83.4303	3,030.76	62.2201	3,030.76	81.5485
3,137.7	88.249	3,137.7	80.0976	3,137.7	87.1793	3,137.7	79.8601	3,137.7	75.188	3,137.7	86.1117	3,137.7	83.2048	3,137.7	86.5514	3,137.7	86.7783	3,137.7	81.4718	3,137.7	85.3739	3,137.7	76.649	3,137.7	80.3954	3,137.7	78.4882	3,137.7	77.5714	3,137.7	83.815	3,137.7	82.508	3,137.7	85.9091	3,137.7	85.7928	3,137.7	84.3945	3,137.7	85.0073	3,137.7	78.548	3,137.7	79.7851	3,137.7	65.2307	3,137.7	75.7287	3,137.7	80.0461	3,137.7	67.7802	3,137.7	82.5236	3,137.7	78.3531	3,137.7	79.8665	3,137.7	81.663	3,137.7	78.0157	3,137.7	76.6052	3,137.7	82.8102	3,137.7	72.3666	3,137.7	82.5541
3,249.02	88.2994	3,249.02	79.825	3,249.02	86.7586	3,249.02	82.6417	3,249.02	75.2123	3,249.02	86.6056	3,249.02	83.4249	3,249.02	84.8301	3,249.02	86.4636	3,249.02	80.6773	3,249.02	84.8893	3,249.02	78.3606	3,249.02	79.5724	3,249.02	79.5188	3,249.02	78.2831	3,249.02	83.1247	3,249.02	80.6817	3,249.02	84.7025	3,249.02	84.5112	3,249.02	82.6416	3,249.02	85.1451	3,249.02	77.427	3,249.02	80.5404	3,249.02	51.442	3,249.02	73.1621	3,249.02	78.6872	3,249.02	73.1954	3,249.02	80.3946	3,249.02	75.7888	3,249.02	76.3508	3,249.02	80.649	3,249.02	76.4416	3,249.02	77.3742	3,249.02	82.3783	3,249.02	75.885	3,249.02	81.7555
3,363.28	87.407	3,363.28	79.9075	3,363.28	86.0744	3,363.28	82.3715	3,363.28	74.9167	3,363.28	86.5984	3,363.28	84.3396	3,363.28	84.4247	3,363.28	86.579	3,363.28	79.5639	3,363.28	84.375	3,363.28	80.0097	3,363.28	80.2412	3,363.28	82.0838	3,363.28	81.1375	3,363.28	81.947	3,363.28	80.2818	3,363.28	83.59	3,363.28	83.9855	3,363.28	82.0805	3,363.28	84.4441	3,363.28	77.1066	3,363.28	80.1255	3,363.28	58.0684	3,363.28	72.7775	3,363.28	76.67	3,363.28	73.8985	3,363.28	78.6866	3,363.28	72.8111	3,363.28	75.9382	3,363.28	78.2723	3,363.28	75.8633	3,363.28	77.5636	3,363.28	81.516	3,363.28	76.3463	3,363.28	80.3862
3,481.93	87.2588	3,481.93	80.0762	3,481.93	86.8909	3,481.93	82.3442	3,481.93	77.1757	3,481.93	86.2721	3,481.93	84.9142	3,481.93	83.3347	3,481.93	86.511	3,481.93	78.7602	3,481.93	83.2884	3,481.93	82.0927	3,481.93	80.089	3,481.93	82.347	3,481.93	81.6504	3,481.93	81.7929	3,481.93	81.2189	3,481.93	83.9061	3,481.93	83.4169	3,481.93	81.8583	3,481.93	83.7238	3,481.93	77.4536	3,481.93	79.8086	3,481.93	70.0371	3,481.93	68.307	3,481.93	72.638	3,481.93	73.4112	3,481.93	78.06	3,481.93	75.6036	3,481.93	76.5651	3,481.93	76.9281	3,481.93	75.5257	3,481.93	76.2796	3,481.93	80.5847	3,481.93	75.0566	3,481.93	79.3621
3,604.98	87.1984	3,604.98	79.5534	3,604.98	87.2702	3,604.98	83.8297	3,604.98	72.401	3,604.98	87.3508	3,604.98	85.4689	3,604.98	84.7254	3,604.98	86.5805	3,604.98	80.2791	3,604.98	82.1221	3,604.98	83.9195	3,604.98	80.0425	3,604.98	82.9864	3,604.98	82.3628	3,604.98	80.8616	3,604.98	82.2043	3,604.98	83.0358	3,604.98	81.777	3,604.98	80.021	3,604.98	83.0049	3,604.98	72.7429	3,604.98	79.6103	3,604.98	72.9542	3,604.98	68.6188	3,604.98	65.6868	3,604.98	70.6061	3,604.98	78.2078	3,604.98	73.8957	3,604.98	77.6232	3,604.98	76.6759	3,604.98	74.6187	3,604.98	75.678	3,604.98	80.38	3,604.98	75.3338	3,604.98	79.2222
3,732.42	87.2315	3,732.42	79.6171	3,732.42	86.4212	3,732.42	83.5342	3,732.42	70.3613	3,732.42	88.346	3,732.42	87.0591	3,732.42	85.1842	3,732.42	87.595	3,732.42	80.8692	3,732.42	82.3343	3,732.42	84.8325	3,732.42	81.8244	3,732.42	84.2173	3,732.42	84.6602	3,732.42	79.4704	3,732.42	82.0825	3,732.42	81.5713	3,732.42	80.6069	3,732.42	80.4182	3,732.42	82.075	3,732.42	72.1788	3,732.42	79.0315	3,732.42	72.234	3,732.42	67.6542	3,732.42	60.7552	3,732.42	70.347	3,732.42	78.0245	3,732.42	71.0505	3,732.42	75.6449	3,732.42	77.2443	3,732.42	72.7107	3,732.42	75.1555	3,732.42	79.928	3,732.42	73.9267	3,732.42	78.9979
3,864.26	85.8332	3,864.26	74.1086	3,864.26	85.5467	3,864.26	84.5829	3,864.26	69.7699	3,864.26	88.0839	3,864.26	86.3542	3,864.26	82.9405	3,864.26	86.8052	3,864.26	79.5718	3,864.26	80.1674	3,864.26	84.5256	3,864.26	81.6301	3,864.26	83.1156	3,864.26	84.8074	3,864.26	76.5731	3,864.26	81.8721	3,864.26	78.5183	3,864.26	73.5183	3,864.26	79.756	3,864.26	79.1404	3,864.26	70.7248	3,864.26	79.2753	3,864.26	71.7062	3,864.26	69.7927	3,864.26	72.9003	3,864.26	68.723	3,864.26	78.1016	3,864.26	71.4037	3,864.26	76.2051	3,864.26	77.7791	3,864.26	69.6078	3,864.26	75.1502	3,864.26	78.7356	3,864.26	69.0988	3,864.26	79.0782
4,000.49	86.5152	4,000.49	69.9344	4,000.49	85.279	4,000.49	86.0248	4,000.49	71.3686	4,000.49	88.1161	4,000.49	86.3428	4,000.49	78.6928	4,000.49	85.6826	4,000.49	79.8091	4,000.49	74.2851	4,000.49	85.3047	4,000.49	80.4574	4,000.49	83.8747	4,000.49	84.4626	4,000.49	74.1318	4,000.49	82.7658	4,000.49	74.6451	4,000.49	69.7272	4,000.49	81.75	4,000.49	74.4807	4,000.49	77.2855	4,000.49	80.3396	4,000.49	69.8179	4,000.49	76.0348	4,000.49	75.4939	4,000.49	67.5398	4,000.49	78.1657	4,000.49	76.0496	4,000.49	77.6112	4,000.49	77.7789	4,000.49	72.6768	4,000.49	79.4416	4,000.49	80.0752	4,000.49	73.7865	4,000.49	82.3166
4,141.11	88.6953	4,141.11	65.9542	4,141.11	85.2727	4,141.11	85.054	4,141.11	80.5673	4,141.11	86.7516	4,141.11	86.8823	4,141.11	77.3318	4,141.11	85.1155	4,141.11	80.3401	4,141.11	79.4252	4,141.11	83.9996	4,141.11	81.65	4,141.11	85.8664	4,141.11	83.8581	4,141.11	83.4096	4,141.11	84.8145	4,141.11	77.8169	4,141.11	82.3418	4,141.11	78.5143	4,141.11	73.2185	4,141.11	81.6435	4,141.11	77.5967	4,141.11	75.1255	4,141.11	80.7217	4,141.11	76.7395	4,141.11	71.0383	4,141.11	74.7911	4,141.11	76.927	4,141.11	80.1452	4,141.11	77.3002	4,141.11	77.417	4,141.11	82.9212	4,141.11	82.7177	4,141.11	76.3801	4,141.11	85.265
4,287.6	87.8815	4,287.6	74.0165	4,287.6	85.4494	4,287.6	86.8915	4,287.6	78.0809	4,287.6	85.102	4,287.6	87.91	4,287.6	77.358	4,287.6	84.4967	4,287.6	83.8915	4,287.6	78.675	4,287.6	83.7993	4,287.6	84.3958	4,287.6	81.0286	4,287.6	83.4743	4,287.6	80.9588	4,287.6	80.6695	4,287.6	82.0964	4,287.6	80.7417	4,287.6	75.1855	4,287.6	81.1599	4,287.6	72.5502	4,287.6	76.2866	4,287.6	74.3952	4,287.6	69.6642	4,287.6	64.722	4,287.6	75.9031	4,287.6	68.5374	4,287.6	57.2762	4,287.6	73.7337	4,287.6	59.8812	4,287.6	73.8046	4,287.6	76.5391	4,287.6	74.616	4,287.6	69.8885	4,287.6	77.164
4,438.48	86.9978	4,438.48	69.3545	4,438.48	84.5523	4,438.48	86.7985	4,438.48	78.7283	4,438.48	84.7836	4,438.48	87.7304	4,438.48	79.0495	4,438.48	82.4791	4,438.48	84.8584	4,438.48	79.9135	4,438.48	83.9224	4,438.48	85.1212	4,438.48	80.2301	4,438.48	84.3633	4,438.48	80.5688	4,438.48	80.3193	4,438.48	81.8688	4,438.48	80.4299	4,438.48	78.1831	4,438.48	80.4339	4,438.48	76.2971	4,438.48	79.1043	4,438.48	72.321	4,438.48	76.1888	4,438.48	66.076	4,438.48	73.6295	4,438.48	72.8025	4,438.48	64.972	4,438.48	67.1244	4,438.48	69.9787	4,438.48	68.6055	4,438.48	68.4536	4,438.48	62.7996	4,438.48	69.0423	4,438.48	58.7895
4,595.21	86.7041	4,595.21	69.3599	4,595.21	84.5859	4,595.21	86.3228	4,595.21	79.0056	4,595.21	83.3517	4,595.21	86.925	4,595.21	80.392	4,595.21	80.2047	4,595.21	85.3119	4,595.21	81.4628	4,595.21	83.0521	4,595.21	84.5685	4,595.21	79.7845	4,595.21	82.8917	4,595.21	80.7615	4,595.21	80.2193	4,595.21	79.5335	4,595.21	81.6358	4,595.21	78.0668	4,595.21	80.8646	4,595.21	77.4473	4,595.21	79.5804	4,595.21	72.8627	4,595.21	77.4781	4,595.21	62.1989	4,595.21	70.6487	4,595.21	68.1362	4,595.21	68.7689	4,595.21	68.1014	4,595.21	71.0201	4,595.21	65.5606	4,595.21	66.504	4,595.21	64.1061	4,595.21	69.4915	4,595.21	60.7827
4,756.35	88.1291	4,756.35	74.3017	4,756.35	84.6513	4,756.35	86.5109	4,756.35	81.3438	4,756.35	84.8801	4,756.35	87.1274	4,756.35	83.8095	4,756.35	79.1553	4,756.35	86.2886	4,756.35	84.7396	4,756.35	82.528	4,756.35	84.8999	4,756.35	80.1553	4,756.35	81.4834	4,756.35	81.3928	4,756.35	80.3666	4,756.35	80.583	4,756.35	83.6571	4,756.35	76.7912	4,756.35	82.8928	4,756.35	78.2978	4,756.35	79.2111	4,756.35	74.4538	4,756.35	77.0058	4,756.35	68.8023	4,756.35	71.8467	4,756.35	64.232	4,756.35	72.1719	4,756.35	69.5169	4,756.35	69.5641	4,756.35	62.7321	4,756.35	68.8038	4,756.35	58.4988	4,756.35	67.7729	4,756.35	65.6692
4,924.8	88.2831	4,924.8	72.5824	4,924.8	84.9052	4,924.8	88.2095	4,924.8	82.7482	4,924.8	83.7854	4,924.8	87.1423	4,924.8	84.1628	4,924.8	80.8153	4,924.8	86.1817	4,924.8	85.9683	4,924.8	82.0681	4,924.8	85.6036	4,924.8	82.2775	4,924.8	81.4623	4,924.8	82.2953	4,924.8	81.054	4,924.8	82.8088	4,924.8	84.0051	4,924.8	79.4544	4,924.8	82.3095	4,924.8	77.264	4,924.8	77.8868	4,924.8	74.3076	4,924.8	77.274	4,924.8	69.9959	4,924.8	72.0311	4,924.8	57.7192	4,924.8	70.9011	4,924.8	65.5321	4,924.8	68.0445	4,924.8	63.5306	4,924.8	69.416	4,924.8	45.0807	4,924.8	69.9381	4,924.8	64.3607
5,097.66	86.5156	5,097.66	75.5791	5,097.66	84.2017	5,097.66	88.2421	5,097.66	84.2259	5,097.66	80.8556	5,097.66	87.5498	5,097.66	83.7451	5,097.66	78.4115	5,097.66	84.9493	5,097.66	85.389	5,097.66	82.306	5,097.66	84.4921	5,097.66	82.5412	5,097.66	81.1974	5,097.66	82.4601	5,097.66	82.9049	5,097.66	80.9834	5,097.66	83.2474	5,097.66	81.518	5,097.66	80.365	5,097.66	71.1666	5,097.66	78.2958	5,097.66	72.0424	5,097.66	75.7725	5,097.66	62.3288	5,097.66	69.405	5,097.66	59.2391	5,097.66	70.7361	5,097.66	63.6985	5,097.66	63.117	5,097.66	65.9377	5,097.66	66.3526	5,097.66	63.3426	5,097.66	69.7789	5,097.66	65.8232
5,277.83	87.1737	5,277.83	76.0547	5,277.83	84.2582	5,277.83	87.4329	5,277.83	85.9431	5,277.83	80.8754	5,277.83	87.8597	5,277.83	84.5158	5,277.83	78.6761	5,277.83	85.0285	5,277.83	86.0491	5,277.83	80.1379	5,277.83	83.1649	5,277.83	82.0518	5,277.83	80.5358	5,277.83	83.1425	5,277.83	84.3303	5,277.83	79.5911	5,277.83	82.0491	5,277.83	80.0674	5,277.83	79.1415	5,277.83	71.9492	5,277.83	75.9247	5,277.83	72.0463	5,277.83	73.9877	5,277.83	69.033	5,277.83	62.7831	5,277.83	63.4752	5,277.83	70.588	5,277.83	68.7074	5,277.83	56.5554	5,277.83	56.6464	5,277.83	62.6373	5,277.83	62.3052	5,277.83	64.5391	5,277.83	66.6687
5,463.87	87.7643	5,463.87	78.7272	5,463.87	84.2191	5,463.87	87.448	5,463.87	86.3301	5,463.87	79.6769	5,463.87	87.3837	5,463.87	86.6452	5,463.87	81.2422	5,463.87	84.5897	5,463.87	86.125	5,463.87	80.9695	5,463.87	81.671	5,463.87	83.3345	5,463.87	80.5926	5,463.87	82.7654	5,463.87	84.501	5,463.87	78.5044	5,463.87	82.5181	5,463.87	67.0803	5,463.87	78.526	5,463.87	75.2421	5,463.87	72.6099	5,463.87	65.3948	5,463.87	74.1281	5,463.87	74.0128	5,463.87	69.8914	5,463.87	71.017	5,463.87	71.4969	5,463.87	62.2172	5,463.87	65.9717	5,463.87	58.4711	5,463.87	62.4838	5,463.87	61.4983	5,463.87	66.172	5,463.87	63.7617
5,657.23	88.1775	5,657.23	79.6198	5,657.23	83.7005	5,657.23	88.3053	5,657.23	87.231	5,657.23	78.4848	5,657.23	86.1604	5,657.23	86.7092	5,657.23	83.7417	5,657.23	83.2505	5,657.23	86.9951	5,657.23	81.4912	5,657.23	82.1092	5,657.23	84.3384	5,657.23	82.7484	5,657.23	82.6053	5,657.23	83.0215	5,657.23	79.9305	5,657.23	82.6666	5,657.23	73.4794	5,657.23	77.5086	5,657.23	74.7833	5,657.23	72.6838	5,657.23	63.8928	5,657.23	73.3477	5,657.23	70.205	5,657.23	69.1125	5,657.23	72.3366	5,657.23	64.8517	5,657.23	60.9429	5,657.23	70.6537	5,657.23	60.9067	5,657.23	63.9138	5,657.23	67.9028	5,657.23	68.1585	5,657.23	69.5089
5,856.45	87.3361	5,856.45	81.7722	5,856.45	83.3366	5,856.45	87.9952	5,856.45	86.5537	5,856.45	78.6288	5,856.45	85.141	5,856.45	86.6606	5,856.45	82.4115	5,856.45	82.6804	5,856.45	85.7857	5,856.45	83.9173	5,856.45	81.9501	5,856.45	85.3355	5,856.45	82.9909	5,856.45	80.5879	5,856.45	83.3674	5,856.45	77.8001	5,856.45	80.1058	5,856.45	78.5875	5,856.45	78.3186	5,856.45	67.2553	5,856.45	74.9605	5,856.45	72.531	5,856.45	72.5411	5,856.45	63.279	5,856.45	72.3065	5,856.45	69.9381	5,856.45	64.2057	5,856.45	57.3254	5,856.45	71.2418	5,856.45	65.6771	5,856.45	53.9896	5,856.45	73.6437	5,856.45	70.0451	5,856.45	72.948
6,062.99	87.875	6,062.99	83.7383	6,062.99	82.5053	6,062.99	87.9242	6,062.99	87.2465	6,062.99	79.2713	6,062.99	85.2342	6,062.99	87.4802	6,062.99	84.5672	6,062.99	82.5619	6,062.99	85.327	6,062.99	85.4584	6,062.99	80.2261	6,062.99	84.8193	6,062.99	83.4842	6,062.99	80.3681	6,062.99	83.3618	6,062.99	79.4547	6,062.99	79.1462	6,062.99	79.08	6,062.99	81.0123	6,062.99	74.8968	6,062.99	78.8033	6,062.99	74.4545	6,062.99	72.8219	6,062.99	73.0397	6,062.99	74.497	6,062.99	70.2235	6,062.99	63.5851	6,062.99	68.3973	6,062.99	68.8055	6,062.99	66.7014	6,062.99	70.2187	6,062.99	65.5329	6,062.99	67.3023	6,062.99	73.0788
6,276.86	87.0826	6,276.86	84.0236	6,276.86	81.909	6,276.86	86.7244	6,276.86	87.5891	6,276.86	83.321	6,276.86	82.4019	6,276.86	87.1689	6,276.86	86.8023	6,276.86	79.9123	6,276.86	85.1336	6,276.86	84.1809	6,276.86	82.1035	6,276.86	80.525	6,276.86	85.4792	6,276.86	81.3691	6,276.86	81.0591	6,276.86	82.4734	6,276.86	81.6044	6,276.86	77.7638	6,276.86	81.8413	6,276.86	77.4365	6,276.86	78.1231	6,276.86	72.8739	6,276.86	73.8538	6,276.86	74.9446	6,276.86	71.1112	6,276.86	69.9059	6,276.86	70.4361	6,276.86	71.3624	6,276.86	65.147	6,276.86	66.4456	6,276.86	67.7235	6,276.86	67.5975	6,276.86	60.0296	6,276.86	75.782
6,498.05	87.1669	6,498.05	85.0004	6,498.05	82.2459	6,498.05	86.5039	6,498.05	88.2868	6,498.05	85.2642	6,498.05	78.6263	6,498.05	86.3653	6,498.05	87.3893	6,498.05	81.6977	6,498.05	84.466	6,498.05	85.0594	6,498.05	85.695	6,498.05	81.3462	6,498.05	85.0074	6,498.05	81.109	6,498.05	79.1357	6,498.05	81.4885	6,498.05	81.8913	6,498.05	79.9293	6,498.05	81.1524	6,498.05	76.1008	6,498.05	78.3039	6,498.05	63.4098	6,498.05	72.1581	6,498.05	75.7357	6,498.05	70.7474	6,498.05	69.8268	6,498.05	70.8618	6,498.05	67.2893	6,498.05	70.1465	6,498.05	64.1544	6,498.05	60.1504	6,498.05	66.8632	6,498.05	61.7714	6,498.05	72.3608
6,726.56	87.0956	6,726.56	86.0603	6,726.56	80.394	6,726.56	85.3953	6,726.56	88.5152	6,726.56	86.5908	6,726.56	75.3464	6,726.56	83.8703	6,726.56	87.2198	6,726.56	83.6771	6,726.56	81.0039	6,726.56	85.773	6,726.56	85.7375	6,726.56	82.3439	6,726.56	82.1797	6,726.56	83.1681	6,726.56	81.3586	6,726.56	80.7114	6,726.56	82.5868	6,726.56	80.5193	6,726.56	81.7435	6,726.56	74.8741	6,726.56	77.8493	6,726.56	67.6437	6,726.56	72.496	6,726.56	76.1729	6,726.56	71.5966	6,726.56	70.43	6,726.56	70.1421	6,726.56	64.5337	6,726.56	68.1016	6,726.56	64.7735	6,726.56	66.0394	6,726.56	70.9112	6,726.56	66.5218	6,726.56	70.891
6,963.87	86.6086	6,963.87	86.3765	6,963.87	80.2793	6,963.87	81.7895	6,963.87	88.3634	6,963.87	86.7747	6,963.87	75.5326	6,963.87	82.0457	6,963.87	87.0206	6,963.87	83.9317	6,963.87	81.0099	6,963.87	83.3327	6,963.87	84.5922	6,963.87	79.0333	6,963.87	80.4618	6,963.87	82.8466	6,963.87	82.3115	6,963.87	80.625	6,963.87	82.5166	6,963.87	78.5884	6,963.87	81.2252	6,963.87	73.0364	6,963.87	76.478	6,963.87	70.7885	6,963.87	73.7772	6,963.87	74.1449	6,963.87	67.7597	6,963.87	63.2306	6,963.87	66.0176	6,963.87	68.1947	6,963.87	64.0133	6,963.87	58.4557	6,963.87	65.122	6,963.87	69.6224	6,963.87	68.1704	6,963.87	68.6964
7,209.96	87.6382	7,209.96	87.4397	7,209.96	79.4959	7,209.96	80.4317	7,209.96	89.0321	7,209.96	87.6535	7,209.96	77.6325	7,209.96	82.2984	7,209.96	87.8716	7,209.96	85.5711	7,209.96	82.6066	7,209.96	83.1063	7,209.96	85.2888	7,209.96	83.1489	7,209.96	82.4733	7,209.96	82.9574	7,209.96	82.6981	7,209.96	79.6826	7,209.96	82.6392	7,209.96	75.8805	7,209.96	80.2471	7,209.96	71.6825	7,209.96	76.7037	7,209.96	72.7443	7,209.96	71.0022	7,209.96	71.4831	7,209.96	69.3062	7,209.96	62.4935	7,209.96	69.7684	7,209.96	64.4673	7,209.96	67.3359	7,209.96	63.0764	7,209.96	62.4967	7,209.96	71.218	7,209.96	64.8679	7,209.96	69.3911
7,464.84	86.9165	7,464.84	87.4648	7,464.84	73.8429	7,464.84	77.7201	7,464.84	88.1231	7,464.84	87.5272	7,464.84	79.8174	7,464.84	74.1247	7,464.84	86.5651	7,464.84	86.7442	7,464.84	83.9963	7,464.84	81.8563	7,464.84	85.5281	7,464.84	85.1387	7,464.84	83.3996	7,464.84	83.7706	7,464.84	83.4874	7,464.84	77.1526	7,464.84	81.972	7,464.84	78.5699	7,464.84	78.3283	7,464.84	72.0132	7,464.84	77.5014	7,464.84	73.7737	7,464.84	71.0722	7,464.84	70.4276	7,464.84	70.7432	7,464.84	60.4364	7,464.84	69.2391	7,464.84	56.8618	7,464.84	55.8236	7,464.84	61.0978	7,464.84	67.704	7,464.84	67.5531	7,464.84	61.5692	7,464.84	68.8525
7,727.05	86.1843	7,727.05	88.0766	7,727.05	71.4081	7,727.05	74.8262	7,727.05	87.4436	7,727.05	86.5478	7,727.05	82.1665	7,727.05	81.925	7,727.05	84.9737	7,727.05	86.3187	7,727.05	84.5989	7,727.05	79.6932	7,727.05	84.159	7,727.05	84.3327	7,727.05	82.7534	7,727.05	83.027	7,727.05	84.3964	7,727.05	76.9758	7,727.05	80.2836	7,727.05	78.6823	7,727.05	79.9505	7,727.05	75.1501	7,727.05	77.8284	7,727.05	74.2534	7,727.05	73.1594	7,727.05	69.3116	7,727.05	71.5817	7,727.05	57.3083	7,727.05	61.8469	7,727.05	45.5738	7,727.05	65.0119	7,727.05	63.9773	7,727.05	65.1552	7,727.05	65.1428	7,727.05	50.6695	7,727.05	64.1249
7,999.51	86.311	7,999.51	88.695	7,999.51	72.4223	7,999.51	77.5058	7,999.51	87.4391	7,999.51	85.3372	7,999.51	84.3084	7,999.51	84.6113	7,999.51	84.2045	7,999.51	82.9515	7,999.51	86.5109	7,999.51	83.5967	7,999.51	82.3769	7,999.51	84.1605	7,999.51	84.8105	7,999.51	80.8019	7,999.51	82.2372	7,999.51	79.2341	7,999.51	79.6447	7,999.51	77.3488	7,999.51	81.6444	7,999.51	78.2449	7,999.51	77.604	7,999.51	74.4955	7,999.51	72.7226	7,999.51	71.6978	7,999.51	70.1721	7,999.51	65.4067	7,999.51	62.4468	7,999.51	61.7257	7,999.51	67.3712	7,999.51	66.9822	7,999.51	56.5966	7,999.51	65.9971	7,999.51	60.173	7,999.51	60.0802
8,282.23	85.8782	8,282.23	88.8713	8,282.23	72.7777	8,282.23	79.9854	8,282.23	87.0966	8,282.23	83.0636	8,282.23	84.8989	8,282.23	83.4511	8,282.23	83.0421	8,282.23	81.911	8,282.23	87.0038	8,282.23	83.7099	8,282.23	82.6696	8,282.23	84.1189	8,282.23	85.8361	8,282.23	83.2652	8,282.23	81.4172	8,282.23	83.2158	8,282.23	80.8548	8,282.23	75.4184	8,282.23	80.6889	8,282.23	79.781	8,282.23	78.5091	8,282.23	71.9247	8,282.23	69.046	8,282.23	75.3544	8,282.23	69.183	8,282.23	68.0992	8,282.23	64.5627	8,282.23	63.9226	8,282.23	63.0819	8,282.23	66.3226	8,282.23	53.5294	8,282.23	66.678	8,282.23	63.0121	8,282.23	61.6145
8,573.73	84.8473	8,573.73	87.655	8,573.73	65.6993	8,573.73	82.0205	8,573.73	86.2755	8,573.73	81.3367	8,573.73	86.3756	8,573.73	84.9997	8,573.73	80.3541	8,573.73	81.3937	8,573.73	86.4047	8,573.73	83.6539	8,573.73	84.497	8,573.73	80.6378	8,573.73	84.8886	8,573.73	84.6667	8,573.73	81.5321	8,573.73	84.4235	8,573.73	81.2403	8,573.73	67.7874	8,573.73	79.9306	8,573.73	78.5416	8,573.73	77.2126	8,573.73	68.3702	8,573.73	73.5542	8,573.73	77.2637	8,573.73	67.7821	8,573.73	71.2804	8,573.73	64.1376	8,573.73	63.8741	8,573.73	59.4283	8,573.73	66.3117	8,573.73	53.4618	8,573.73	70.1267	8,573.73	63.0577	8,573.73	61.0475
8,876.95	81.858	8,876.95	87.421	8,876.95	71.5354	8,876.95	82.7422	8,876.95	85.622	8,876.95	76.0508	8,876.95	87.0266	8,876.95	84.6742	8,876.95	80.4887	8,876.95	77.5214	8,876.95	85.5517	8,876.95	84.0297	8,876.95	84.8463	8,876.95	79.7507	8,876.95	83.1465	8,876.95	84.0794	8,876.95	79.6227	8,876.95	83.487	8,876.95	81.1254	8,876.95	67.8565	8,876.95	77.1159	8,876.95	75.3298	8,876.95	76.1617	8,876.95	71.5902	8,876.95	76.3036	8,876.95	81.0382	8,876.95	68.7372	8,876.95	71.2384	8,876.95	67.6098	8,876.95	69.5408	8,876.95	55.9499	8,876.95	69.9742	8,876.95	57.0178	8,876.95	71.3697	8,876.95	64.4472	8,876.95	60.4663
9,188.96	81.5978	9,188.96	87.2848	9,188.96	73.8723	9,188.96	83.1252	9,188.96	85.7923	9,188.96	67.9865	9,188.96	87.4561	9,188.96	81.7593	9,188.96	82.813	9,188.96	76.9252	9,188.96	85.5292	9,188.96	81.836	9,188.96	85.904	9,188.96	79.114	9,188.96	80.8995	9,188.96	83.158	9,188.96	81.6328	9,188.96	85.4017	9,188.96	79.5117	9,188.96	76.8839	9,188.96	73.7796	9,188.96	71.5969	9,188.96	77.9862	9,188.96	76.522	9,188.96	77.2807	9,188.96	82.7013	9,188.96	68.0525	9,188.96	71.7093	9,188.96	68.3536	9,188.96	68.9999	9,188.96	59.7137	9,188.96	72.5321	9,188.96	65.7846	9,188.96	73.2067	9,188.96	66.0467	9,188.96	61.8401
9,514.16	80.0848	9,514.16	84.3815	9,514.16	71.9276	9,514.16	81.4231	9,514.16	84.3105	9,514.16	73.7532	9,514.16	87.9095	9,514.16	81.1352	9,514.16	84.0384	9,514.16	77.2537	9,514.16	82.9459	9,514.16	81.0198	9,514.16	86.1469	9,514.16	80.3612	9,514.16	81.1732	9,514.16	81.5013	9,514.16	81.5017	9,514.16	85.1751	9,514.16	78.8037	9,514.16	80.5328	9,514.16	72.0755	9,514.16	66.4607	9,514.16	75.6983	9,514.16	78.2588	9,514.16	78.1389	9,514.16	82.3101	9,514.16	73.322	9,514.16	71.2306	9,514.16	69.8259	9,514.16	69.7886	9,514.16	66.6773	9,514.16	72.4735	9,514.16	68.7728	9,514.16	72.83	9,514.16	65.0286	9,514.16	62.3789
9,849.61	80.1019	9,849.61	84.1433	9,849.61	72.3911	9,849.61	79.8573	9,849.61	84.2883	9,849.61	75.1551	9,849.61	88.0817	9,849.61	76.4243	9,849.61	86.2489	9,849.61	77.7038	9,849.61	81.8729	9,849.61	80.2861	9,849.61	85.7599	9,849.61	80.3515	9,849.61	80.2029	9,849.61	79.0802	9,849.61	81.2739	9,849.61	84.0354	9,849.61	78.4136	9,849.61	81.2193	9,849.61	75.4465	9,849.61	70.3886	9,849.61	71.7443	9,849.61	77.9778	9,849.61	77.1239	9,849.61	81.2936	9,849.61	77.0509	9,849.61	67.8507	9,849.61	71.2342	9,849.61	68.789	9,849.61	70.699	9,849.61	72.28	9,849.61	69.012	9,849.61	72.6115	9,849.61	60.2229	9,849.61	64.7165
10,196.8	81.7288	10,196.8	83.5802	10,196.8	78.0192	10,196.8	79.8212	10,196.8	83.0684	10,196.8	70.5835	10,196.8	86.9787	10,196.8	78.6985	10,196.8	86.5246	10,196.8	78.0357	10,196.8	80.8513	10,196.8	81.2183	10,196.8	84.7191	10,196.8	77.5731	10,196.8	82.575	10,196.8	73.1553	10,196.8	82.192	10,196.8	81.6926	10,196.8	81.595	10,196.8	79.2029	10,196.8	78.9875	10,196.8	72.6144	10,196.8	63.6851	10,196.8	77.5861	10,196.8	73.6148	10,196.8	78.4341	10,196.8	78.1119	10,196.8	64.1447	10,196.8	72.0847	10,196.8	64.4695	10,196.8	72.9972	10,196.8	71.2002	10,196.8	71.1857	10,196.8	73.1738	10,196.8	57.0723	10,196.8	64.3651
10,555.7	80.9474	10,555.7	81.5943	10,555.7	77.1193	10,555.7	74.9128	10,555.7	80.5541	10,555.7	66.1842	10,555.7	85.3206	10,555.7	81.5483	10,555.7	85.8197	10,555.7	77.0508	10,555.7	81.3797	10,555.7	82.465	10,555.7	82.6761	10,555.7	75.5555	10,555.7	81.5085	10,555.7	65.7323	10,555.7	79.892	10,555.7	79.133	10,555.7	81.8966	10,555.7	78.2366	10,555.7	80.6512	10,555.7	73.4648	10,555.7	71.746	10,555.7	75.3678	10,555.7	67.4917	10,555.7	72.4435	10,555.7	77.9139	10,555.7	63.0561	10,555.7	73.091	10,555.7	59.5112	10,555.7	75.8941	10,555.7	68.7557	10,555.7	73.7542	10,555.7	70.6258	10,555.7	64.3231	10,555.7	64.7614
10,927.7	80.5308	10,927.7	82.4154	10,927.7	79.3001	10,927.7	78.0894	10,927.7	79.3073	10,927.7	68.2754	10,927.7	81.4451	10,927.7	82.8194	10,927.7	84.2111	10,927.7	77.2472	10,927.7	81.8695	10,927.7	82.7376	10,927.7	80.0651	10,927.7	67.1436	10,927.7	80.3546	10,927.7	66.1607	10,927.7	79.7982	10,927.7	76.3049	10,927.7	82.1654	10,927.7	80.1242	10,927.7	81.7551	10,927.7	66.2874	10,927.7	76.3546	10,927.7	75.2797	10,927.7	49.3147	10,927.7	71.4725	10,927.7	79.6272	10,927.7	69.0324	10,927.7	74.1491	10,927.7	61.7893	10,927.7	77.8993	10,927.7	65.5397	10,927.7	74.6467	10,927.7	68.1656	10,927.7	71.1556	10,927.7	65.9794
11,313	81.6835	11,313	77.4185	11,313	79.4514	11,313	76.3784	11,313	76.1541	11,313	74.6057	11,313	77.0834	11,313	84.5313	11,313	80.3103	11,313	76.9955	11,313	80.6651	11,313	82.6407	11,313	79.5141	11,313	69.9411	11,313	77.8653	11,313	62.1075	11,313	80.0376	11,313	75.7216	11,313	81.1174	11,313	81.5714	11,313	81.5224	11,313	68.5149	11,313	77.4525	11,313	77.2188	11,313	65.1188	11,313	73.7846	11,313	79.9039	11,313	70.2148	11,313	73.5431	11,313	65.7592	11,313	78.2763	11,313	62.1965	11,313	74.9085	11,313	67.7361	11,313	72.4738	11,313	68.0662
11,712.9	82.2739	11,712.9	70.5661	11,712.9	81.0665	11,712.9	72.3613	11,712.9	77.5372	11,712.9	77.7707	11,712.9	71.6637	11,712.9	84.299	11,712.9	74.8732	11,712.9	76.4622	11,712.9	77.7871	11,712.9	81.7209	11,712.9	79.8196	11,712.9	73.5277	11,712.9	74.8102	11,712.9	69.4588	11,712.9	79.8051	11,712.9	77.2097	11,712.9	78.3124	11,712.9	81.7132	11,712.9	80.1184	11,712.9	72.9399	11,712.9	77.7277	11,712.9	77.4258	11,712.9	71.1533	11,712.9	74.8631	11,712.9	80.2597	11,712.9	70.0952	11,712.9	72.059	11,712.9	66.0886	11,712.9	78.6378	11,712.9	59.0566	11,712.9	73.6624	11,712.9	66.6639	11,712.9	73.3121	11,712.9	67.7479
12,126	83.7635	12,126	70.4673	12,126	81.7106	12,126	61.2333	12,126	78.6401	12,126	78.5761	12,126	76.9546	12,126	83.3508	12,126	57.8368	12,126	78.8895	12,126	72.2273	12,126	80.2343	12,126	80.1777	12,126	79.0175	12,126	70.0489	12,126	76.3074	12,126	77.3241	12,126	75.611	12,126	75.3089	12,126	80.383	12,126	76.9874	12,126	74.9944	12,126	76.5581	12,126	74.1823	12,126	75.8544	12,126	71.5572	12,126	79.3133	12,126	69.0319	12,126	70.4384	12,126	64.7566	12,126	78.3855	12,126	62.3377	12,126	72.3911	12,126	65.5759	12,126	71.3651	12,126	64.7054
12,553.7	84.2785	12,553.7	77.4294	12,553.7	81.5137	12,553.7	70.1443	12,553.7	80.1628	12,553.7	77.9179	12,553.7	80.6932	12,553.7	82.1636	12,553.7	71.9447	12,553.7	81.0763	12,553.7	71.8063	12,553.7	78.6491	12,553.7	80.8959	12,553.7	79.264	12,553.7	76.1433	12,553.7	75.609	12,553.7	73.1214	12,553.7	74.0585	12,553.7	71.0277	12,553.7	78.8798	12,553.7	72.6482	12,553.7	76.6329	12,553.7	77.265	12,553.7	71.8823	12,553.7	77.4924	12,553.7	57.5328	12,553.7	77.1419	12,553.7	64.6483	12,553.7	69.8436	12,553.7	64.1246	12,553.7	77.0783	12,553.7	67.6726	12,553.7	68.1006	12,553.7	64.7983	12,553.7	68.7965	12,553.7	56.9724
12,996.1	83.4165	12,996.1	80.3374	12,996.1	81.0761	12,996.1	76.7374	12,996.1	80.8265	12,996.1	77.1482	12,996.1	81.5549	12,996.1	79.127	12,996.1	77.2872	12,996.1	83.5911	12,996.1	68.0885	12,996.1	75.021	12,996.1	79.895	12,996.1	80.7834	12,996.1	75.945	12,996.1	75.1906	12,996.1	74.228	12,996.1	69.9736	12,996.1	61.1924	12,996.1	80.4924	12,996.1	73.9914	12,996.1	75.2428	12,996.1	77.8614	12,996.1	72.784	12,996.1	77.5924	12,996.1	70.8474	12,996.1	76.3271	12,996.1	50.3072	12,996.1	71.1012	12,996.1	65.2948	12,996.1	75.3456	12,996.1	68.2175	12,996.1	63.9375	12,996.1	66.6659	12,996.1	63.1898	12,996.1	56.5603
13,454.6	82.8213	13,454.6	80.4815	13,454.6	79.3792	13,454.6	79.7501	13,454.6	79.1281	13,454.6	74.6329	13,454.6	82.1298	13,454.6	76.7456	13,454.6	80.0177	13,454.6	83.8002	13,454.6	72.2268	13,454.6	76.1472	13,454.6	79.918	13,454.6	80.7385	13,454.6	79.1488	13,454.6	73.6141	13,454.6	74.5044	13,454.6	68.5602	13,454.6	67.1358	13,454.6	80.1348	13,454.6	75.6683	13,454.6	76.145	13,454.6	76.4688	13,454.6	74.4927	13,454.6	77.1734	13,454.6	74.4334	13,454.6	74.0454	13,454.6	59.7109	13,454.6	71.2087	13,454.6	64.8468	13,454.6	71.325	13,454.6	66.5446	13,454.6	61.5972	13,454.6	68.2195	13,454.6	60.3862	13,454.6	65.5682
13,929.2	81.1554	13,929.2	80.4724	13,929.2	79.4798	13,929.2	81.4974	13,929.2	78.7587	13,929.2	70.5944	13,929.2	80.0005	13,929.2	75.5376	13,929.2	80.1892	13,929.2	81.9607	13,929.2	77.4051	13,929.2	77.8604	13,929.2	77.6329	13,929.2	79.2137	13,929.2	79.5876	13,929.2	77.4597	13,929.2	73.8927	13,929.2	70.0363	13,929.2	71.0585	13,929.2	79.2447	13,929.2	73.3457	13,929.2	76.6787	13,929.2	73.76	13,929.2	71.318	13,929.2	74.489	13,929.2	74.3732	13,929.2	71.9881	13,929.2	57.9751	13,929.2	68.716	13,929.2	63.5178	13,929.2	66.5219	13,929.2	60.5713	13,929.2	67.633	13,929.2	66.9467	13,929.2	63.5848	13,929.2	66.7247
14,419.9	81.3151	14,419.9	80.9062	14,419.9	79.3017	14,419.9	82.2375	14,419.9	78.8057	14,419.9	70.1626	14,419.9	80.1975	14,419.9	79.5585	14,419.9	80.9219	14,419.9	79.44	14,419.9	81.3623	14,419.9	78.9165	14,419.9	78.8522	14,419.9	81.8859	14,419.9	83.6073	14,419.9	79.408	14,419.9	71.9621	14,419.9	61.1999	14,419.9	73.0966	14,419.9	76.7406	14,419.9	67.8597	14,419.9	76.0451	14,419.9	74.4735	14,419.9	62.1719	14,419.9	72.8918	14,419.9	70.6033	14,419.9	71.0225	14,419.9	44.6195	14,419.9	61.7261	14,419.9	61.7598	14,419.9	65.1435	14,419.9	53.9875	14,419.9	70.2318	14,419.9	65.6228	14,419.9	64.87	14,419.9	63.9134
14,928.2	80.6874	14,928.2	81.1596	14,928.2	77.8572	14,928.2	81.6678	14,928.2	78.4786	14,928.2	74.8167	14,928.2	76.7916	14,928.2	82.3614	14,928.2	78.9247	14,928.2	78.0779	14,928.2	82.6049	14,928.2	80.1081	14,928.2	79.5333	14,928.2	84.0318	14,928.2	83.0449	14,928.2	76.7346	14,928.2	70.5284	14,928.2	63.4082	14,928.2	69.7663	14,928.2	77.8688	14,928.2	71.6964	14,928.2	76.0823	14,928.2	75.4979	14,928.2	62.1935	14,928.2	76.4273	14,928.2	55.2386	14,928.2	72.3112	14,928.2	59.9635	14,928.2	59.4075	14,928.2	57.0501	14,928.2	70.1839	14,928.2	62.0016	14,928.2	71.2702	14,928.2	67.2578	14,928.2	64.7566	14,928.2	58.0946
15,455.6	78.878	15,455.6	80.5173	15,455.6	76.2933	15,455.6	78.8918	15,455.6	70.2272	15,455.6	74.2189	15,455.6	61.8342	15,455.6	83.5318	15,455.6	72.4453	15,455.6	81.0725	15,455.6	81.9635	15,455.6	81.4103	15,455.6	77.6753	15,455.6	84.4241	15,455.6	80.1574	15,455.6	71.6075	15,455.6	69.9704	15,455.6	57.011	15,455.6	70.3673	15,455.6	76.1238	15,455.6	71.4699	15,455.6	73.5626	15,455.6	73.4198	15,455.6	60.2539	15,455.6	76.8407	15,455.6	62.6062	15,455.6	73.2693	15,455.6	58.9994	15,455.6	67.1556	15,455.6	57.7674	15,455.6	72.6944	15,455.6	59.6321	15,455.6	70.1533	15,455.6	66.8713	15,455.6	63.3269	15,455.6	56.108
16,000.5	78.8196	16,000.5	81.3403	16,000.5	74.1952	16,000.5	72.202	16,000.5	71.8134	16,000.5	75.0713	16,000.5	75.037	16,000.5	81.3595	16,000.5	74.3496	16,000.5	82.7201	16,000.5	74.6535	16,000.5	81.9731	16,000.5	77.4488	16,000.5	83.0216	16,000.5	79.5873	16,000.5	74.7424	16,000.5	73.9841	16,000.5	51.5534	16,000.5	68.8106	16,000.5	77.2096	16,000.5	70.2388	16,000.5	72.8007	16,000.5	67.0302	16,000.5	60.5878	16,000.5	72.7979	16,000.5	61.524	16,000.5	70.8711	16,000.5	55.1031	16,000.5	67.5553	16,000.5	60.0527	16,000.5	71.8123	16,000.5	42.7207	16,000.5	68.9079	16,000.5	65.8544	16,000.5	63.7457	16,000.5	58.2365
16,564.5	77.9058	16,564.5	82.1721	16,564.5	75.8265	16,564.5	65.398	16,564.5	74.1744	16,564.5	75.6834	16,564.5	78.3255	16,564.5	74.0105	16,564.5	77.8838	16,564.5	82.8799	16,564.5	70.9197	16,564.5	79.9781	16,564.5	78.6356	16,564.5	80.9016	16,564.5	79.6998	16,564.5	73.5841	16,564.5	74.9254	16,564.5	69.6008	16,564.5	68.0867	16,564.5	75.063	16,564.5	69.4092	16,564.5	73.9811	16,564.5	69.0381	16,564.5	61.6861	16,564.5	68.9515	16,564.5	66.5598	16,564.5	58.727	16,564.5	49.41	16,564.5	60.6274	16,564.5	59.1346	16,564.5	64.4526	16,564.5	60.8436	16,564.5	66.2529	16,564.5	66.2104	16,564.5	60.8287	16,564.5	59.5407
17,148.9	78.5609	17,148.9	84.5559	17,148.9	76.0885	17,148.9	77.8654	17,148.9	77.1407	17,148.9	76.5997	17,148.9	80.0823	17,148.9	73.6193	17,148.9	78.8579	17,148.9	82.7871	17,148.9	78.6148	17,148.9	75.8632	17,148.9	79.4273	17,148.9	83.6079	17,148.9	79.9095	17,148.9	66.2797	17,148.9	72.1781	17,148.9	73.9771	17,148.9	54.5415	17,148.9	64.4833	17,148.9	61.3943	17,148.9	66.0879	17,148.9	70.491	17,148.9	56.6455	17,148.9	73.1688	17,148.9	63.2427	17,148.9	62.9207	17,148.9	50.0242	17,148.9	59.1973	17,148.9	55.5182	17,148.9	68.5058	17,148.9	63.0022	17,148.9	66.9824	17,148.9	65.5917	17,148.9	51.9735	17,148.9	60.1615
17,752.4	78.4875	17,752.4	85.3358	17,752.4	75.8264	17,752.4	81.2672	17,752.4	78.6005	17,752.4	78.3297	17,752.4	81.2343	17,752.4	81.6936	17,752.4	78.1936	17,752.4	82.8467	17,752.4	80.9001	17,752.4	79.0478	17,752.4	78.6894	17,752.4	84.9308	17,752.4	79.9867	17,752.4	61.3728	17,752.4	69.4808	17,752.4	70.8677	17,752.4	65.8859	17,752.4	70.02	17,752.4	68.217	17,752.4	69.8682	17,752.4	63.115	17,752.4	56.2024	17,752.4	69.4965	17,752.4	52.2748	17,752.4	69.4796	17,752.4	57.7803	17,752.4	65.9382	17,752.4	50.057	17,752.4	72.1649	17,752.4	61.6689	17,752.4	68.6032	17,752.4	65.5742	17,752.4	65.1047	17,752.4	64.0618
18,379.4	77.723	18,379.4	85.6295	18,379.4	75.3429	18,379.4	83.3783	18,379.4	79.115	18,379.4	77.3062	18,379.4	81.4105	18,379.4	84.1361	18,379.4	76.315	18,379.4	81.6177	18,379.4	80.1891	18,379.4	82.5969	18,379.4	77.7732	18,379.4	83.4838	18,379.4	81.2259	18,379.4	64.2443	18,379.4	75.0644	18,379.4	72.0979	18,379.4	70.2499	18,379.4	56.4931	18,379.4	69.4628	18,379.4	68.3635	18,379.4	63.0489	18,379.4	65.4364	18,379.4	53.4644	18,379.4	54.2267	18,379.4	68.5197	18,379.4	58.7811	18,379.4	64.0808	18,379.4	54.2898	18,379.4	70.5367	18,379.4	60.6528	18,379.4	66.2637	18,379.4	67.3915	18,379.4	67.98	18,379.4	65.7076
19,026.9	76.4486	19,026.9	85.6602	19,026.9	74.9095	19,026.9	84.9861	19,026.9	78.8338	19,026.9	73.8691	19,026.9	81.4438	19,026.9	84.6403	19,026.9	75.173	19,026.9	81.0645	19,026.9	76.4928	19,026.9	83.0041	19,026.9	78.9068	19,026.9	80.8544	19,026.9	81.319	19,026.9	68.238	19,026.9	76.994	19,026.9	74.7451	19,026.9	68.4048	19,026.9	71.2419	19,026.9	63.0236	19,026.9	63.9186	19,026.9	67.6955	19,026.9	65.7298	19,026.9	66.0225	19,026.9	55.2696	19,026.9	60.3732	19,026.9	57.7263	19,026.9	59.5424	19,026.9	57.5542	19,026.9	67.3743	19,026.9	59.4077	19,026.9	64.0301	19,026.9	68.0676	19,026.9	67.9934	19,026.9	65.9499
19,697.8	74.5059	19,697.8	85.3233	19,697.8	74.1331	19,697.8	85.8166	19,697.8	79.5623	19,697.8	68.5279	19,697.8	82.131	19,697.8	83.4972	19,697.8	76.3795	19,697.8	81.6322	19,697.8	75.6593	19,697.8	80.7037	19,697.8	80.4917	19,697.8	80.7873	19,697.8	79.7412	19,697.8	72.2402	19,697.8	76.4249	19,697.8	71.1605	19,697.8	65.3843	19,697.8	72.7614	19,697.8	69.8032	19,697.8	70.4926	19,697.8	63.6532	19,697.8	60.623	19,697.8	61.9365	19,697.8	56.5509	19,697.8	59.086	19,697.8	60.309	19,697.8	60.2597	19,697.8	62.342	19,697.8	66.6696	19,697.8	61.7321	19,697.8	65.9077	19,697.8	69.7157	19,697.8	66.4523	19,697.8	66.0543
19,999.5	72.8734	19,999.5	84.9854	19,999.5	74.8029	19,999.5	85.7628	19,999.5	79.7087	19,999.5	67.5867	19,999.5	82.9054	19,999.5	82.7026	19,999.5	76.8979	19,999.5	81.8015	19,999.5	76.7252	19,999.5	79.8827	19,999.5	80.6973	19,999.5	81.3456	19,999.5	79.0143	19,999.5	72.1752	19,999.5	75.564	19,999.5	67.8587	19,999.5	67.0175	19,999.5	70.8128	19,999.5	71.9046	19,999.5	69.9844	19,999.5	60.09	19,999.5	58.1848	19,999.5	58.6722	19,999.5	48.7508	19,999.5	53.7074	19,999.5	59.3029	19,999.5	59.6251	19,999.5	62.0983	19,999.5	66.0349	19,999.5	62.451	19,999.5	66.8805	19,999.5	67.6447	19,999.5	67.1805	19,999.5	66.0668
