"SPL Vertical"
"On-Axis"		"10°"		"-10°"		"20°"		"-20°"		"30°"		"-30°"		"40°"		"-40°"		"50°"		"-50°"		"60°"		"-60°"		"70°"		"-70°"		"80°"		"-80°"		"90°"		"-90°"		"100°"		"-100°"		"110°"		"-110°"		"120°"		"-120°"		"130°"		"-130°"		"140°"		"-140°"		"150°"		"-150°"		"160°"		"-160°"		"170°"		"-170°"		"180°"
"Frequency [Hz]"	"Sound Pessure Level [dB]  / [2.83V 1m] "	"Frequency [Hz]"	"Sound Pessure Level [dB]  / [2.83V 1m] "	"Frequency [Hz]"	"Sound Pessure Level [dB]  / [2.83V 1m] "	"Frequency [Hz]"	"Sound Pessure Level [dB]  / [2.83V 1m] "	"Frequency [Hz]"	"Sound Pessure Level [dB]  / [2.83V 1m] "	"Frequency [Hz]"	"Sound Pessure Level [dB]  / [2.83V 1m] "	"Frequency [Hz]"	"Sound Pessure Level [dB]  / [2.83V 1m] "	"Frequency [Hz]"	"Sound Pessure Level [dB]  / [2.83V 1m] "	"Frequency [Hz]"	"Sound Pessure Level [dB]  / [2.83V 1m] "	"Frequency [Hz]"	"Sound Pessure Level [dB]  / [2.83V 1m] "	"Frequency [Hz]"	"Sound Pessure Level [dB]  / [2.83V 1m] "	"Frequency [Hz]"	"Sound Pessure Level [dB]  / [2.83V 1m] "	"Frequency [Hz]"	"Sound Pessure Level [dB]  / [2.83V 1m] "	"Frequency [Hz]"	"Sound Pessure Level [dB]  / [2.83V 1m] "	"Frequency [Hz]"	"Sound Pessure Level [dB]  / [2.83V 1m] "	"Frequency [Hz]"	"Sound Pessure Level [dB]  / [2.83V 1m] "	"Frequency [Hz]"	"Sound Pessure Level [dB]  / [2.83V 1m] "	"Frequency [Hz]"	"Sound Pessure Level [dB]  / [2.83V 1m] "	"Frequency [Hz]"	"Sound Pessure Level [dB]  / [2.83V 1m] "	"Frequency [Hz]"	"Sound Pessure Level [dB]  / [2.83V 1m] "	"Frequency [Hz]"	"Sound Pessure Level [dB]  / [2.83V 1m] "	"Frequency [Hz]"	"Sound Pessure Level [dB]  / [2.83V 1m] "	"Frequency [Hz]"	"Sound Pessure Level [dB]  / [2.83V 1m] "	"Frequency [Hz]"	"Sound Pessure Level [dB]  / [2.83V 1m] "	"Frequency [Hz]"	"Sound Pessure Level [dB]  / [2.83V 1m] "	"Frequency [Hz]"	"Sound Pessure Level [dB]  / [2.83V 1m] "	"Frequency [Hz]"	"Sound Pessure Level [dB]  / [2.83V 1m] "	"Frequency [Hz]"	"Sound Pessure Level [dB]  / [2.83V 1m] "	"Frequency [Hz]"	"Sound Pessure Level [dB]  / [2.83V 1m] "	"Frequency [Hz]"	"Sound Pessure Level [dB]  / [2.83V 1m] "	"Frequency [Hz]"	"Sound Pessure Level [dB]  / [2.83V 1m] "	"Frequency [Hz]"	"Sound Pessure Level [dB]  / [2.83V 1m] "	"Frequency [Hz]"	"Sound Pessure Level [dB]  / [2.83V 1m] "	"Frequency [Hz]"	"Sound Pessure Level [dB]  / [2.83V 1m] "	"Frequency [Hz]"	"Sound Pessure Level [dB]  / [2.83V 1m] "	"Frequency [Hz]"	"Sound Pessure Level [dB]  / [2.83V 1m] "
20.5078	44.6878	20.5078	44.6523	20.5078	44.7335	20.5078	44.6318	20.5078	44.7843	20.5078	44.6308	20.5078	44.8363	20.5078	44.6523	20.5078	44.8874	20.5078	44.6985	20.5078	44.9373	20.5078	44.7711	20.5078	44.9873	20.5078	44.871	20.5078	45.0393	20.5078	44.9981	20.5078	45.0955	20.5078	45.1498	20.5078	45.1581	20.5078	45.3205	20.5078	45.2283	20.5078	45.5005	20.5078	45.3072	20.5078	45.6771	20.5078	45.3955	20.5078	45.8359	20.5078	45.4933	20.5078	45.9628	20.5078	45.6001	20.5078	46.0472	20.5078	45.713	20.5078	46.0834	20.5078	45.8267	20.5078	46.0716	20.5078	45.9321	20.5078	46.0178
21.9727	43.6362	21.9727	43.6802	21.9727	43.6788	21.9727	43.8067	21.9727	43.8047	21.9727	44.005	21.9727	44.0037	21.9727	44.2614	21.9727	44.2613	21.9727	44.5612	21.9727	44.5612	21.9727	44.891	21.9727	44.8886	21.9727	45.2395	21.9727	45.2308	21.9727	45.5968	21.9727	45.5779	21.9727	45.9543	21.9727	45.9219	21.9727	46.3036	21.9727	46.2563	21.9727	46.6365	21.9727	46.5753	21.9727	46.9445	21.9727	46.8731	21.9727	47.2194	21.9727	47.1434	21.9727	47.4533	21.9727	47.3799	21.9727	47.6394	21.9727	47.576	21.9727	47.7721	21.9727	47.7256	21.9727	47.8478	21.9727	47.8232	21.9727	47.8647
23.4375	44.9482	23.4375	44.9021	23.4375	45.0546	23.4375	44.9164	23.4375	45.2173	23.4375	44.9883	23.4375	45.4284	23.4375	45.1133	23.4375	45.6774	23.4375	45.2863	23.4375	45.9529	23.4375	45.502	23.4375	46.2438	23.4375	45.7548	23.4375	46.5409	23.4375	46.0385	23.4375	46.8366	23.4375	46.3456	23.4375	47.1248	23.4375	46.6669	23.4375	47.4002	23.4375	46.9924	23.4375	47.6579	23.4375	47.311	23.4375	47.893	23.4375	47.6113	23.4375	48.1	23.4375	47.8826	23.4375	48.2731	23.4375	48.1149	23.4375	48.4061	23.4375	48.3003	23.4375	48.4931	23.4375	48.4329	23.4375	48.5287	23.4375	48.5093
24.9023	47.4679	24.9023	47.4633	24.9023	47.4976	24.9023	47.4844	24.9023	47.5506	24.9023	47.5306	24.9023	47.6238	24.9023	47.6004	24.9023	47.7134	24.9023	47.6924	24.9023	47.8162	24.9023	47.8054	24.9023	47.9299	24.9023	47.938	24.9023	48.0531	24.9023	48.0883	24.9023	48.1853	24.9023	48.2534	24.9023	48.3258	24.9023	48.4292	24.9023	48.4735	24.9023	48.6099	24.9023	48.6259	24.9023	48.7882	24.9023	48.7795	24.9023	48.956	24.9023	48.9291	24.9023	49.1049	24.9023	49.0681	24.9023	49.2271	24.9023	49.1893	24.9023	49.3162	24.9023	49.2856	24.9023	49.3674	24.9023	49.3503	24.9023	49.3786
26.3672	46.9253	26.3672	46.8893	26.3672	46.9949	26.3672	46.8906	26.3672	47.0926	26.3672	46.9313	26.3672	47.213	26.3672	47.0113	26.3672	47.3507	26.3672	47.1293	26.3672	47.5018	26.3672	47.2823	26.3672	47.6636	26.3672	47.4663	26.3672	47.8343	26.3672	47.6759	26.3672	48.0124	26.3672	47.9046	26.3672	48.1961	26.3672	48.144	26.3672	48.3827	26.3672	48.385	26.3672	48.5687	26.3672	48.6177	26.3672	48.7493	26.3672	48.8324	26.3672	48.9187	26.3672	49.0199	26.3672	49.0707	26.3672	49.1727	26.3672	49.1986	26.3672	49.2851	26.3672	49.296	26.3672	49.3537	26.3672	49.3571	26.3672	49.3774
27.832	51.6046	27.832	51.5743	27.832	51.6559	27.832	51.5693	27.832	51.7236	27.832	51.5925	27.832	51.8032	27.832	51.6446	27.832	51.8914	27.832	51.7247	27.832	51.9865	27.832	51.8305	27.832	52.088	27.832	51.9584	27.832	52.1961	27.832	52.1044	27.832	52.311	27.832	52.2634	27.832	52.4325	27.832	52.43	27.832	52.5593	27.832	52.598	27.832	52.6889	27.832	52.7607	27.832	52.8174	27.832	52.9113	27.832	52.9402	27.832	53.0431	27.832	53.0521	27.832	53.1503	27.832	53.1476	27.832	53.2284	27.832	53.2217	27.832	53.2747	27.832	53.2697	27.832	53.2882
29.2969	51.8712	29.2969	51.867	29.2969	51.9074	29.2969	51.8962	29.2969	51.9733	29.2969	51.9591	29.2969	52.0662	29.2969	52.0552	29.2969	52.1832	29.2969	52.1828	29.2969	52.3215	29.2969	52.3396	29.2969	52.4788	29.2969	52.5221	29.2969	52.6526	29.2969	52.7261	29.2969	52.8405	29.2969	52.9459	29.2969	53.039	29.2969	53.1747	29.2969	53.2441	29.2969	53.4046	29.2969	53.4505	29.2969	53.6268	29.2969	53.6517	29.2969	53.8325	29.2969	53.8406	29.2969	54.0129	29.2969	54.0097	29.2969	54.1604	29.2969	54.1516	29.2969	54.2688	29.2969	54.2597	29.2969	54.334	29.2969	54.3284	29.2969	54.3539
30.7617	52.357	30.7617	52.3588	30.7617	52.3824	30.7617	52.3891	30.7617	52.4332	30.7617	52.4486	30.7617	52.5075	30.7617	52.5373	30.7617	52.6037	30.7617	52.6542	30.7617	52.7208	30.7617	52.7979	30.7617	52.8577	30.7617	52.966	30.7617	53.0134	30.7617	53.1551	30.7617	53.1864	30.7617	53.3606	30.7617	53.3738	30.7617	53.5765	30.7617	53.5716	30.7617	53.7955	30.7617	53.7741	30.7617	54.0091	30.7617	53.9743	30.7617	54.208	30.7617	54.1647	30.7617	54.3832	30.7617	54.3371	30.7617	54.5263	30.7617	54.4839	30.7617	54.6303	30.7617	54.5978	30.7617	54.6905	30.7617	54.6729	30.7617	54.7046
32.2266	54.2203	32.2266	54.2306	32.2266	54.2407	32.2266	54.2719	32.2266	54.2908	32.2266	54.3442	32.2266	54.3694	32.2266	54.4465	32.2266	54.4748	32.2266	54.5772	32.2266	54.605	32.2266	54.7339	32.2266	54.7577	32.2266	54.9137	32.2266	54.93	32.2266	55.1122	32.2266	55.1184	32.2266	55.3244	32.2266	55.3184	32.2266	55.5438	32.2266	55.525	32.2266	55.7631	32.2266	55.7322	32.2266	55.9739	32.2266	55.9333	32.2266	56.168	32.2266	56.1214	32.2266	56.3369	32.2266	56.2896	32.2266	56.4736	32.2266	56.4313	32.2266	56.5722	32.2266	56.5403	32.2266	56.6289	32.2266	56.6118	32.2266	56.6421
33.6914	55.7628	33.6914	55.7641	33.6914	55.789	33.6914	55.7938	33.6914	55.8415	33.6914	55.8525	33.6914	55.919	33.6914	55.94	33.6914	56.0201	33.6914	56.0556	33.6914	56.1433	33.6914	56.1977	33.6914	56.2868	33.6914	56.364	33.6914	56.4486	33.6914	56.5511	33.6914	56.6263	33.6914	56.7542	33.6914	56.8166	33.6914	56.9675	33.6914	57.015	33.6914	57.1839	33.6914	57.2163	33.6914	57.3953	33.6914	57.4139	33.6914	57.5931	33.6914	57.6005	33.6914	57.7687	33.6914	57.7683	33.6914	57.914	33.6914	57.9095	33.6914	58.0223	33.6914	58.0171	33.6914	58.0884	33.6914	58.0851	33.6914	58.1095
35.1562	57.1953	35.1562	57.2169	35.1562	57.2056	35.1562	57.2701	35.1562	57.2475	35.1562	57.3539	35.1562	57.3203	35.1562	57.467	35.1562	57.4228	35.1562	57.6075	35.1562	57.5535	35.1562	57.7727	35.1562	57.7104	35.1562	57.9597	35.1562	57.8906	35.1562	58.1645	35.1562	58.0907	35.1562	58.3823	35.1562	58.3059	35.1562	58.6072	35.1562	58.5305	35.1562	58.8322	35.1562	58.7574	35.1562	59.0496	35.1562	58.979	35.1562	59.251	35.1562	59.1869	35.1562	59.4281	35.1562	59.3729	35.1562	59.573	35.1562	59.529	35.1562	59.6791	35.1562	59.6484	35.1562	59.7415	35.1562	59.7257	35.1562	59.7573
36.6211	58.5831	36.6211	58.6057	36.6211	58.591	36.6211	58.6585	36.6211	58.6295	36.6211	58.7407	36.6211	58.6985	36.6211	58.8515	36.6211	58.7973	36.6211	58.9893	36.6211	58.9246	36.6211	59.1521	36.6211	59.0786	36.6211	59.3371	36.6211	59.2567	36.6211	59.5402	36.6211	59.4552	36.6211	59.7569	36.6211	59.6696	36.6211	59.981	36.6211	59.8942	36.6211	60.2058	36.6211	60.122	36.6211	60.4234	36.6211	60.3455	36.6211	60.6256	36.6211	60.5562	36.6211	60.804	36.6211	60.7454	36.6211	60.9506	36.6211	60.9048	36.6211	61.0584	36.6211	61.027	36.6211	61.1221	36.6211	61.1062	36.6211	61.1384
38.0859	60.301	38.0859	60.3274	38.0859	60.3035	38.0859	60.3817	38.0859	60.3353	38.0859	60.4631	38.0859	60.3964	38.0859	60.5703	38.0859	60.4865	38.0859	60.7018	38.0859	60.6045	38.0859	60.8557	38.0859	60.7491	38.0859	61.03	38.0859	60.9181	38.0859	61.2216	38.0859	61.1085	38.0859	61.4268	38.0859	61.3161	38.0859	61.6407	38.0859	61.5357	38.0859	61.8573	38.0859	61.7608	38.0859	62.0693	38.0859	61.9834	38.0859	62.2686	38.0859	62.195	38.0859	62.4465	38.0859	62.3864	38.0859	62.5942	38.0859	62.5485	38.0859	62.704	38.0859	62.6733	38.0859	62.7695	38.0859	62.754	38.0859	62.7866
39.5508	61.0643	39.5508	61.0985	39.5508	61.0595	39.5508	61.1607	39.5508	61.0849	39.5508	61.2494	39.5508	61.1409	39.5508	61.3627	39.5508	61.227	39.5508	61.4988	39.5508	61.3421	39.5508	61.6557	39.5508	61.4844	39.5508	61.8312	39.5508	61.6517	39.5508	62.0224	39.5508	61.8406	39.5508	62.2257	39.5508	62.0469	39.5508	62.4365	39.5508	62.2654	39.5508	62.6488	39.5508	62.4895	39.5508	62.8556	39.5508	62.7117	39.5508	63.0489	39.5508	62.9235	39.5508	63.2201	39.5508	63.116	39.5508	63.3607	39.5508	63.2803	39.5508	63.4633	39.5508	63.4085	39.5508	63.5217	39.5508	63.4939	39.5508	63.5322
41.0156	62.7232	41.0156	62.6293	41.0156	62.8256	41.0156	62.5474	41.0156	62.9332	41.0156	62.4813	41.0156	63.0439	41.0156	62.4347	41.0156	63.1566	41.0156	62.4105	41.0156	63.2707	41.0156	62.4111	41.0156	63.3865	41.0156	62.4379	41.0156	63.5035	41.0156	62.491	41.0156	63.6205	41.0156	62.5696	41.0156	63.7348	41.0156	62.6714	41.0156	63.8423	41.0156	62.7931	41.0156	63.9374	41.0156	62.9308	41.0156	64.0138	41.0156	63.0801	41.0156	64.065	41.0156	63.2364	41.0156	64.0857	41.0156	63.3951	41.0156	64.0722	41.0156	63.5512	41.0156	64.0235	41.0156	63.6987	41.0156	63.9416	41.0156	63.8312
42.4805	62.5727	42.4805	62.5792	42.4805	62.591	42.4805	62.611	42.4805	62.6333	42.4805	62.6685	42.4805	62.6989	42.4805	62.7516	42.4805	62.7867	42.4805	62.8596	42.4805	62.8956	42.4805	62.9913	42.4805	63.024	42.4805	63.1447	42.4805	63.17	42.4805	63.3166	42.4805	63.331	42.4805	63.5026	42.4805	63.5034	42.4805	63.6972	42.4805	63.683	42.4805	63.8934	42.4805	63.8647	42.4805	64.0836	42.4805	64.0426	42.4805	64.2596	42.4805	64.2104	42.4805	64.4134	42.4805	64.3619	42.4805	64.5378	42.4805	64.4906	42.4805	64.6271	42.4805	64.591	42.4805	64.6776	42.4805	64.658	42.4805	64.6877
43.9453	64.0197	43.9453	64.0316	43.9453	64.0352	43.9453	64.0712	43.9453	64.0771	43.9453	64.1386	43.9453	64.1443	43.9453	64.2331	43.9453	64.2354	43.9453	64.3538	43.9453	64.3488	43.9453	64.4986	43.9453	64.4825	43.9453	64.6649	43.9453	64.6344	43.9453	64.8491	43.9453	64.8017	43.9453	65.0463	43.9453	64.9812	43.9453	65.2505	43.9453	65.1685	43.9453	65.4548	43.9453	65.3587	43.9453	65.6512	43.9453	65.546	43.9453	65.8314	43.9453	65.724	43.9453	65.9873	43.9453	65.886	43.9453	66.1116	43.9453	66.0253	43.9453	66.1988	43.9453	66.1357	43.9453	66.2451	43.9453	66.2117	43.9453	66.2491
45.4102	65.3261	45.4102	65.3452	45.4102	65.3319	45.4102	65.3895	45.4102	65.3624	45.4102	65.4592	45.4102	65.4172	45.4102	65.5542	45.4102	65.4961	45.4102	65.6739	45.4102	65.5987	45.4102	65.8171	45.4102	65.7244	45.4102	65.9815	45.4102	65.8717	45.4102	66.1639	45.4102	66.0384	45.4102	66.3597	45.4102	66.2214	45.4102	66.5632	45.4102	66.416	45.4102	66.7674	45.4102	66.6165	45.4102	66.9645	45.4102	66.8159	45.4102	67.1461	45.4102	67.0067	45.4102	67.3039	45.4102	67.1807	45.4102	67.4304	45.4102	67.3305	45.4102	67.5194	45.4102	67.4489	45.4102	67.5667	45.4102	67.5302	45.4102	67.5702
46.875	66.6844	46.875	66.707	46.875	66.687	46.875	66.7547	46.875	66.7152	46.875	66.8271	46.875	66.7691	46.875	66.9236	46.875	66.8486	46.875	67.0434	46.875	66.9534	46.875	67.1854	46.875	67.0827	46.875	67.3476	46.875	67.2348	46.875	67.527	46.875	67.4071	46.875	67.7198	46.875	67.5959	46.875	67.9208	46.875	67.7963	46.875	68.1235	46.875	68.0021	46.875	68.3206	46.875	68.206	46.875	68.5039	46.875	68.4001	46.875	68.6652	46.875	68.576	46.875	68.7967	46.875	68.7259	46.875	68.8918	46.875	68.8426	46.875	68.9456	46.875	68.9203	46.875	68.9552
48.3398	67.7018	48.3398	67.7208	48.3398	67.7102	48.3398	67.7669	48.3398	67.7461	48.3398	67.84	48.3398	67.8095	48.3398	67.9397	48.3398	67.9004	48.3398	68.0653	48.3398	68.0182	48.3398	68.2156	48.3398	68.162	48.3398	68.3882	48.3398	68.3296	48.3398	68.5802	48.3398	68.5181	48.3398	68.7871	48.3398	68.7233	48.3398	69.0034	48.3398	68.9395	48.3398	69.2221	48.3398	69.16	48.3398	69.4353	48.3398	69.377	48.3398	69.6347	48.3398	69.5821	48.3398	69.8113	48.3398	69.7663	48.3398	69.9571	48.3398	69.9215	48.3398	70.0649	48.3398	70.0402	48.3398	70.1291	48.3398	70.1165	48.3398	70.1467
51.2695	69.9846	51.2695	70.0038	51.2695	69.9926	51.2695	70.0503	51.2695	70.0278	51.2695	70.1235	51.2695	70.0899	51.2695	70.2226	51.2695	70.1785	51.2695	70.3466	51.2695	70.2927	51.2695	70.4937	51.2695	70.4313	51.2695	70.6616	51.2695	70.5925	51.2695	70.8473	51.2695	70.7735	51.2695	71.0466	51.2695	70.9703	51.2695	71.2543	51.2695	71.1781	51.2695	71.464	51.2695	71.3903	51.2695	71.6684	51.2695	71.5996	51.2695	71.8593	51.2695	71.7977	51.2695	72.0285	51.2695	71.9762	51.2695	72.1679	51.2695	72.1269	51.2695	72.2708	51.2695	72.2425	51.2695	72.3317	51.2695	72.3173	51.2695	72.3475
52.7344	71.1526	52.7344	71.1756	52.7344	71.1553	52.7344	71.2238	52.7344	71.1841	52.7344	71.2968	52.7344	71.2392	52.7344	71.3938	52.7344	71.3208	52.7344	71.5142	52.7344	71.4286	52.7344	71.6568	52.7344	71.5616	52.7344	71.8201	52.7344	71.7184	52.7344	72.0014	52.7344	71.8962	52.7344	72.197	52.7344	72.0912	52.7344	72.402	52.7344	72.2985	52.7344	72.6102	52.7344	72.5115	52.7344	72.8138	52.7344	72.7226	52.7344	73.0046	52.7344	72.9235	52.7344	73.174	52.7344	73.1054	52.7344	73.3134	52.7344	73.2596	52.7344	73.4159	52.7344	73.3788	52.7344	73.4757	52.7344	73.4568	52.7344	73.4896
54.1992	72.1862	54.1992	72.2105	54.1992	72.1867	54.1992	72.259	54.1992	72.2125	54.1992	72.3312	54.1992	72.2641	54.1992	72.4268	54.1992	72.342	54.1992	72.5454	54.1992	72.4461	54.1992	72.6861	54.1992	72.5758	54.1992	72.8474	54.1992	72.7296	54.1992	73.0271	54.1992	72.9052	54.1992	73.2215	54.1992	73.0988	54.1992	73.4258	54.1992	73.3053	54.1992	73.6336	54.1992	73.5185	54.1992	73.8373	54.1992	73.7306	54.1992	74.0284	54.1992	73.9331	54.1992	74.1978	54.1992	74.1171	54.1992	74.3373	54.1992	74.2738	54.1992	74.4392	54.1992	74.3955	54.1992	74.4981	54.1992	74.4758	54.1992	74.5106
55.6641	73.1792	55.6641	73.2005	55.6641	73.1822	55.6641	73.2455	55.6641	73.21	55.6641	73.3139	55.6641	73.2632	55.6641	73.4055	55.6641	73.342	55.6641	73.5202	55.6641	73.4466	55.6641	73.6573	55.6641	73.5763	55.6641	73.8159	55.6641	73.7298	55.6641	73.9938	55.6641	73.9046	55.6641	74.1877	55.6641	74.0974	55.6641	74.3926	55.6641	74.3031	55.6641	74.602	55.6641	74.5154	55.6641	74.8081	55.6641	74.7267	55.6641	75.002	55.6641	74.9284	55.6641	75.1748	55.6641	75.1115	55.6641	75.3175	55.6641	75.2672	55.6641	75.4226	55.6641	75.3876	55.6641	75.4843	55.6641	75.4663	55.6641	75.4992
58.5938	75.0317	58.5938	75.0518	58.5938	75.0363	58.5938	75.0967	58.5938	75.0657	58.5938	75.1667	58.5938	75.1202	58.5938	75.2621	58.5938	75.2002	58.5938	75.3826	58.5938	75.306	58.5938	75.5277	58.5938	75.4374	58.5938	75.6957	58.5938	75.5937	58.5938	75.8841	58.5938	75.7727	58.5938	76.0887	58.5938	75.9711	58.5938	76.3039	58.5938	76.1839	58.5938	76.5227	58.5938	76.4045	58.5938	76.7367	58.5938	76.6247	58.5938	76.937	58.5938	76.8355	58.5938	77.1143	58.5938	77.0272	58.5938	77.2596	58.5938	77.1908	58.5938	77.3655	58.5938	77.3179	58.5938	77.4264	58.5938	77.402	58.5938	77.4388
60.0586	75.8081	60.0586	75.8307	60.0586	75.8107	60.0586	75.8783	60.0586	75.8388	60.0586	75.9511	60.0586	75.8929	60.0586	76.0488	60.0586	75.9734	60.0586	76.1714	60.0586	76.0806	60.0586	76.3182	60.0586	76.2142	60.0586	76.4876	60.0586	76.373	60.0586	76.6771	60.0586	76.555	60.0586	76.8827	60.0586	76.7566	60.0586	77.0991	60.0586	76.9725	60.0586	77.3192	60.0586	77.1962	60.0586	77.5349	60.0586	77.4194	60.0586	77.737	60.0586	77.6331	60.0586	77.916	60.0586	77.8276	60.0586	78.0632	60.0586	77.9935	60.0586	78.1706	60.0586	78.1225	60.0586	78.2324	60.0586	78.2078	60.0586	78.2451
62.9883	76.8943	62.9883	76.9141	62.9883	76.8998	62.9883	76.9597	62.9883	76.9309	62.9883	77.0315	62.9883	76.9877	62.9883	77.1299	62.9883	77.0708	62.9883	77.2551	62.9883	77.1809	62.9883	77.4063	62.9883	77.3179	62.9883	77.5819	62.9883	77.4813	62.9883	77.7793	62.9883	77.6691	62.9883	77.994	62.9883	77.8778	62.9883	78.2203	62.9883	78.1022	62.9883	78.4508	62.9883	78.3351	62.9883	78.6767	62.9883	78.5679	62.9883	78.8887	62.9883	78.7909	62.9883	79.0768	62.9883	78.9939	62.9883	79.2318	62.9883	79.1667	62.9883	79.3455	62.9883	79.3007	62.9883	79.4116	62.9883	79.3888	62.9883	79.4264
64.4531	77.2161	64.4531	77.2395	64.4531	77.2205	64.4531	77.2905	64.4531	77.2526	64.4531	77.3692	64.4531	77.3128	64.4531	77.4753	64.4531	77.4013	64.4531	77.6085	64.4531	77.5182	64.4531	77.7675	64.4531	77.6632	64.4531	77.9504	64.4531	77.8349	64.4531	78.1542	64.4531	78.0311	64.4531	78.3745	64.4531	78.2477	64.4531	78.6054	64.4531	78.4794	64.4531	78.8398	64.4531	78.7188	64.4531	79.0691	64.4531	78.9572	64.4531	79.284	64.4531	79.1848	64.4531	79.4747	64.4531	79.3915	64.4531	79.6318	64.4531	79.5671	64.4531	79.7472	64.4531	79.703	64.4531	79.8145	64.4531	79.7921	64.4531	79.8299
67.3828	77.6147	67.3828	77.6352	67.3828	77.624	67.3828	77.6853	67.3828	77.6628	67.3828	77.7648	67.3828	77.731	67.3828	77.873	67.3828	77.828	67.3828	78.009	67.3828	77.9534	67.3828	78.1713	67.3828	78.1062	67.3828	78.3575	67.3828	78.2847	67.3828	78.5646	67.3828	78.4863	67.3828	78.7881	67.3828	78.707	67.3828	79.0224	67.3828	78.9413	67.3828	79.2603	67.3828	79.1822	67.3828	79.4934	67.3828	79.4209	67.3828	79.7123	67.3828	79.648	67.3828	79.9074	67.3828	79.8533	67.3828	80.0691	67.3828	80.027	67.3828	80.1891	67.3828	80.1603	67.3828	80.2609	67.3828	80.2463	67.3828	80.2803
68.8477	77.7635	68.8477	77.7836	68.8477	77.7711	68.8477	77.8312	68.8477	77.8062	68.8477	77.9062	68.8477	77.8689	68.8477	78.0079	68.8477	77.9588	68.8477	78.1357	68.8477	78.0756	68.8477	78.2885	68.8477	78.2185	68.8477	78.4643	68.8477	78.3862	68.8477	78.6605	68.8477	78.5764	68.8477	78.8733	68.8477	78.7857	68.8477	79.0972	68.8477	79.009	68.8477	79.3255	68.8477	79.2397	68.8477	79.5502	68.8477	79.4699	68.8477	79.762	68.8477	79.69	68.8477	79.9511	68.8477	79.8901	68.8477	80.1081	68.8477	80.0604	68.8477	80.2246	68.8477	80.1918	68.8477	80.2939	68.8477	80.2772	68.8477	80.3119
71.7773	77.8619	71.7773	77.877	71.7773	77.869	71.7773	77.9147	71.7773	77.8981	71.7773	77.9756	71.7773	77.9497	71.7773	78.0605	71.7773	78.0243	71.7773	78.1697	71.7773	78.1228	71.7773	78.3033	71.7773	78.2456	71.7773	78.4604	71.7773	78.3929	71.7773	78.6391	71.7773	78.5634	71.7773	78.8361	71.7773	78.7546	71.7773	79.0465	71.7773	78.9622	71.7773	79.2635	71.7773	79.1798	71.7773	79.4789	71.7773	79.3993	71.7773	79.6833	71.7773	79.6112	71.7773	79.8667	71.7773	79.8051	71.7773	80.0195	71.7773	79.971	71.7773	80.1329	71.7773	80.0994	71.7773	80.2003	71.7773	80.1832	71.7773	80.2174
74.707	77.7421	74.707	77.7598	74.707	77.7459	74.707	77.7993	74.707	77.7712	74.707	77.8612	74.707	77.8187	74.707	77.9463	74.707	77.8894	74.707	78.0553	74.707	77.9844	74.707	78.1886	74.707	78.1045	74.707	78.3456	74.707	78.25	74.707	78.5246	74.707	78.4199	74.707	78.7225	74.707	78.6119	74.707	78.9343	74.707	78.8213	74.707	79.1533	74.707	79.0419	74.707	79.3708	74.707	79.2653	74.707	79.5771	74.707	79.4815	74.707	79.7619	74.707	79.6801	74.707	79.9152	74.707	79.8506	74.707	80.0282	74.707	79.9835	74.707	80.0941	74.707	80.0712	74.707	80.1088
77.6367	77.5723	77.6367	77.5877	77.6367	77.5788	77.6367	77.6254	77.6367	77.6071	77.6367	77.6862	77.6367	77.658	77.6367	77.7711	77.6367	77.7322	77.6367	77.8811	77.6367	77.8309	77.6367	78.0167	77.6367	77.9551	77.6367	78.1775	77.6367	78.1052	77.6367	78.362	77.6367	78.2803	77.6367	78.5669	77.6367	78.4779	77.6367	78.7869	77.6367	78.6937	77.6367	79.0147	77.6367	78.921	77.6367	79.2414	77.6367	79.1511	77.6367	79.4567	77.6367	79.3738	77.6367	79.6497	77.6367	79.5782	77.6367	79.8102	77.6367	79.7534	77.6367	79.929	77.6367	79.8896	77.6367	79.999	77.6367	79.9788	77.6367	80.016
79.1016	77.4517	79.1016	77.4681	79.1016	77.4579	79.1016	77.5074	79.1016	77.4866	79.1016	77.5705	79.1016	77.5383	79.1016	77.6586	79.1016	77.6141	79.1016	77.7724	79.1016	77.7151	79.1016	77.9125	79.1016	77.8421	79.1016	78.0785	79.1016	77.9956	79.1016	78.2685	79.1016	78.1748	79.1016	78.4791	79.1016	78.3771	79.1016	78.7046	79.1016	78.598	79.1016	78.9377	79.1016	78.8306	79.1016	79.1692	79.1016	79.0663	79.1016	79.3886	79.1016	79.2946	79.1016	79.5851	79.1016	79.5041	79.1016	79.7481	79.1016	79.6839	79.1016	79.8684	79.1016	79.8239	79.1016	79.9389	79.1016	79.9161	79.1016	79.9552
82.0312	77.2963	82.0312	77.314	82.0312	77.303	82.0312	77.3567	82.0312	77.3339	82.0312	77.425	82.0312	77.3893	82.0312	77.5195	82.0312	77.4696	82.0312	77.6407	82.0312	77.5756	82.0312	77.7883	82.0312	77.7083	82.0312	77.9614	82.0312	77.8677	82.0312	78.1577	82.0312	78.0529	82.0312	78.3735	82.0312	78.2614	82.0312	78.6032	82.0312	78.4884	82.0312	78.8396	82.0312	78.7269	82.0312	79.0735	82.0312	78.9678	82.0312	79.295	82.0312	79.2006	82.0312	79.4933	82.0312	79.4138	82.0312	79.658	82.0312	79.5962	82.0312	79.7799	82.0312	79.7378	82.0312	79.8518	82.0312	79.8305	82.0312	79.8692
84.9609	77.286	84.9609	77.3068	84.9609	77.2868	84.9609	77.3496	84.9609	77.3096	84.9609	77.4147	84.9609	77.3552	84.9609	77.503	84.9609	77.4251	84.9609	77.6148	84.9609	77.5207	84.9609	77.7504	84.9609	77.6432	84.9609	77.909	84.9609	77.7928	84.9609	78.0893	84.9609	77.9684	84.9609	78.2881	84.9609	78.1669	84.9609	78.5009	84.9609	78.3835	84.9609	78.7214	84.9609	78.6114	84.9609	78.9414	84.9609	78.8417	84.9609	79.1515	84.9609	79.0646	84.9609	79.3411	84.9609	79.2691	84.9609	79.4999	84.9609	79.4444	84.9609	79.6183	84.9609	79.5806	84.9609	79.6888	84.9609	79.6697	84.9609	79.7064
87.8906	77.3165	87.8906	77.3275	87.8906	77.3204	87.8906	77.3531	87.8906	77.3405	87.8906	77.3938	87.8906	77.3783	87.8906	77.4509	87.8906	77.4355	87.8906	77.5262	87.8906	77.5133	87.8906	77.6219	87.8906	77.6125	87.8906	77.7396	87.8906	77.7333	87.8906	77.88	87.8906	77.8751	87.8906	78.0423	87.8906	78.0363	87.8906	78.2232	87.8906	78.2141	87.8906	78.4173	87.8906	78.4039	87.8906	78.6165	87.8906	78.5991	87.8906	78.811	87.8906	78.7908	87.8906	78.9896	87.8906	78.9689	87.8906	79.1414	87.8906	79.1229	87.8906	79.2565	87.8906	79.2425	87.8906	79.3271	87.8906	79.3196	87.8906	79.3485
90.8203	77.3181	90.8203	77.3268	90.8203	77.3227	90.8203	77.3493	90.8203	77.3412	90.8203	77.3873	90.8203	77.3749	90.8203	77.4433	90.8203	77.4259	90.8203	77.5209	90.8203	77.4967	90.8203	77.6235	90.8203	77.59	90.8203	77.7537	90.8203	77.7082	90.8203	77.9127	90.8203	77.8531	90.8203	78.0989	90.8203	78.0244	90.8203	78.3077	90.8203	78.2198	90.8203	78.5315	90.8203	78.4336	90.8203	78.7598	90.8203	78.6575	90.8203	78.9804	90.8203	78.8803	90.8203	79.1804	90.8203	79.0896	90.8203	79.3473	90.8203	79.2725	90.8203	79.4705	90.8203	79.4172	90.8203	79.5418	90.8203	79.5141	90.8203	79.5566
95.2148	76.9687	95.2148	76.9738	95.2148	76.991	95.2148	77.0088	95.2148	77.0383	95.2148	77.0752	95.2148	77.1085	95.2148	77.1732	95.2148	77.1999	95.2148	77.3018	95.2148	77.3117	95.2148	77.4583	95.2148	77.4438	95.2148	77.6391	95.2148	77.5963	95.2148	77.8397	95.2148	77.7693	95.2148	78.0556	95.2148	77.9621	95.2148	78.2815	95.2148	78.1722	95.2148	78.5115	95.2148	78.3952	95.2148	78.7383	95.2148	78.6237	95.2148	78.9533	95.2148	78.8481	95.2148	79.1469	95.2148	79.057	95.2148	79.3086	95.2148	79.2383	95.2148	79.4288	95.2148	79.3807	95.2148	79.4995	95.2148	79.4752	95.2148	79.5155
98.1445	77.3067	98.1445	77.3154	98.1445	77.313	98.1445	77.3401	98.1445	77.3338	98.1445	77.3819	98.1445	77.3693	98.1445	77.4425	98.1445	77.4203	98.1445	77.5235	98.1445	77.4885	98.1445	77.6267	98.1445	77.5766	98.1445	77.7535	98.1445	77.6873	98.1445	77.9044	98.1445	77.8234	98.1445	78.0784	98.1445	77.9861	98.1445	78.2726	98.1445	78.1738	98.1445	78.4813	98.1445	78.3819	98.1445	78.6959	98.1445	78.6017	98.1445	78.9059	98.1445	78.8218	98.1445	79.0991	98.1445	79.0287	98.1445	79.2631	98.1445	79.2089	98.1445	79.3868	98.1445	79.3501	98.1445	79.4611	98.1445	79.4426	98.1445	79.4804
101.074	77.3995	101.074	77.4168	101.074	77.3974	101.074	77.4502	101.074	77.4101	101.074	77.5009	101.074	77.4379	101.074	77.57	101.074	77.482	101.074	77.6583	101.074	77.5452	101.074	77.7668	101.074	77.6306	101.074	77.8964	101.074	77.742	101.074	78.0473	101.074	77.8823	101.074	78.219	101.074	78.0522	101.074	78.4091	101.074	78.2495	101.074	78.613	101.074	78.468	101.074	78.823	101.074	78.6979	101.074	79.0293	101.074	78.9267	101.074	79.2199	101.074	79.1403	101.074	79.3826	101.074	79.3251	101.074	79.5059	101.074	79.4688	101.074	79.5805	101.074	79.5624	101.074	79.6001
105.469	77.5313	105.469	77.5525	105.469	77.5201	105.469	77.5827	105.469	77.5206	105.469	77.6224	105.469	77.5361	105.469	77.6737	105.469	77.5704	105.469	77.7399	105.469	77.6278	105.469	77.8255	105.469	77.7127	105.469	77.9355	105.469	77.8291	105.469	78.0744	105.469	77.9792	105.469	78.2443	105.469	78.1629	105.469	78.4439	105.469	78.3766	105.469	78.6674	105.469	78.6131	105.469	78.9049	105.469	78.8617	105.469	79.1427	105.469	79.1088	105.469	79.3655	105.469	79.3394	105.469	79.5575	105.469	79.5385	105.469	79.705	105.469	79.6925	105.469	79.7969	105.469	79.7907	105.469	79.8262
108.398	77.5187	108.398	77.5291	108.398	77.5176	108.398	77.5487	108.398	77.5271	108.398	77.5789	108.398	77.5492	108.398	77.6227	108.398	77.5874	108.398	77.6847	108.398	77.6456	108.398	77.7707	108.398	77.7288	108.398	77.8867	108.398	77.8418	108.398	78.0374	108.398	77.9885	108.398	78.2243	108.398	78.1702	108.398	78.4446	108.398	78.3849	108.398	78.6907	108.398	78.6261	108.398	78.9501	108.398	78.883	108.398	79.2074	108.398	79.1414	108.398	79.4457	108.398	79.3853	108.398	79.6486	108.398	79.5984	108.398	79.8017	108.398	79.7657	108.398	79.894	108.398	79.8753	108.398	79.9191
112.793	77.5814	112.793	77.5832	112.793	77.5831	112.793	77.5902	112.793	77.5897	112.793	77.6063	112.793	77.6045	112.793	77.6376	112.793	77.6333	112.793	77.6918	112.793	77.6833	112.793	77.777	112.793	77.7621	112.793	77.8997	112.793	77.8764	112.793	78.0639	112.793	78.0305	112.793	78.2688	112.793	78.2249	112.793	78.5091	112.793	78.4553	112.793	78.7746	112.793	78.7132	112.793	79.0513	112.793	78.986	112.793	79.323	112.793	79.2582	112.793	79.5728	112.793	79.5133	112.793	79.7843	112.793	79.7348	112.793	79.9435	112.793	79.908	112.793	80.0395	112.793	80.0211	112.793	80.066
117.188	77.7922	117.188	77.7981	117.188	77.7907	117.188	77.8099	117.188	77.7948	117.188	77.8316	117.188	77.8081	117.188	77.8698	117.188	77.8363	117.188	77.9321	117.188	77.8862	117.188	78.0267	117.188	77.9651	117.188	78.16	117.188	78.0793	117.188	78.3356	117.188	78.233	117.188	78.5523	117.188	78.4275	117.188	78.804	117.188	78.6595	117.188	79.0797	117.188	78.9215	117.188	79.3648	117.188	79.2018	117.188	79.6426	117.188	79.4851	117.188	79.8954	117.188	79.7543	117.188	80.1068	117.188	79.9916	117.188	80.2623	117.188	80.181	117.188	80.3512	117.188	80.3092	117.188	80.3672
120.117	77.7917	120.117	77.8003	120.117	77.7904	120.117	77.8173	120.117	77.7982	120.117	77.8472	120.117	77.82	120.117	77.8976	120.117	77.8622	120.117	77.9778	120.117	77.9321	120.117	78.0969	120.117	78.037	120.117	78.2617	120.117	78.1824	120.117	78.4742	120.117	78.3713	120.117	78.7308	120.117	78.6029	120.117	79.022	120.117	78.872	120.117	79.3341	120.117	79.169	120.117	79.6503	120.117	79.4802	120.117	79.9528	120.117	79.7894	120.117	80.2241	120.117	80.0785	120.117	80.4484	120.117	80.3304	120.117	80.6122	120.117	80.5293	120.117	80.7056	120.117	80.6628	120.117	80.7228
124.512	77.6571	124.512	77.6571	124.512	77.6728	124.512	77.6762	124.512	77.7045	124.512	77.7209	124.512	77.7556	124.512	77.7995	124.512	77.8311	124.512	77.9201	124.512	77.9372	124.512	78.0875	124.512	78.0795	124.512	78.3023	124.512	78.2615	124.512	78.5598	124.512	78.4844	124.512	78.8512	124.512	78.7453	124.512	79.1651	124.512	79.0379	124.512	79.4886	124.512	79.3518	124.512	79.8082	124.512	79.6735	124.512	80.1101	124.512	79.9874	124.512	80.3802	124.512	80.2768	124.512	80.6051	124.512	80.5252	124.512	80.7722	124.512	80.7183	124.512	80.8715	124.512	80.8444	124.512	80.8963
128.906	77.9535	128.906	77.9677	128.906	77.9608	128.906	78.0061	128.906	77.988	128.906	78.0721	128.906	78.0354	128.906	78.1683	128.906	78.1043	128.906	78.2958	128.906	78.1972	128.906	78.4532	128.906	78.3166	128.906	78.6375	128.906	78.4652	128.906	78.8446	128.906	78.6447	128.906	79.0703	128.906	78.8549	128.906	79.3103	128.906	79.0934	128.906	79.5595	128.906	79.3544	128.906	79.8112	128.906	79.6282	128.906	80.0559	128.906	79.9018	128.906	80.2816	128.906	80.1595	128.906	80.4746	128.906	80.3849	128.906	80.6209	128.906	80.5624	128.906	80.7086	128.906	80.6799	128.906	80.7294
133.301	78.4456	133.301	78.4646	133.301	78.4415	133.301	78.4998	133.301	78.4518	133.301	78.553	133.301	78.4773	133.301	78.6258	133.301	78.5201	133.301	78.7194	133.301	78.5838	133.301	78.8351	133.301	78.6728	133.301	78.9741	133.301	78.7919	133.301	79.1374	133.301	78.9453	133.301	79.3261	133.301	79.1348	133.301	79.5392	133.301	79.3587	133.301	79.7731	133.301	79.6112	133.301	80.0201	133.301	79.8815	133.301	80.268	133.301	80.1547	133.301	80.5015	133.301	80.4135	133.301	80.704	133.301	80.64	133.301	80.8594	133.301	80.8179	133.301	80.9544	133.301	80.9341	133.301	80.9804
139.16	78.7812	139.16	78.7891	139.16	78.7812	139.16	78.8061	139.16	78.7891	139.16	78.8345	139.16	78.8063	139.16	78.877	139.16	78.8364	139.16	78.9369	139.16	78.8845	139.16	79.0184	139.16	78.9571	139.16	79.1261	139.16	79.0609	139.16	79.265	139.16	79.2018	139.16	79.4392	139.16	79.3829	139.16	79.6495	139.16	79.6034	139.16	79.8921	139.16	79.8569	139.16	80.1573	139.16	80.132	139.16	80.4297	139.16	80.4124	139.16	80.6905	139.16	80.679	139.16	80.9195	139.16	80.9123	139.16	81.0982	139.16	81.0939	139.16	81.2114	139.16	81.2095	139.16	81.2497
143.555	78.9435	143.555	78.9501	143.555	78.9394	143.555	78.9598	143.555	78.9389	143.555	78.9749	143.555	78.9452	143.555	78.9989	143.555	78.9634	143.555	79.0367	143.555	79.0008	143.555	79.0951	143.555	79.0656	143.555	79.1824	143.555	79.1659	143.555	79.307	143.555	79.3082	143.555	79.4757	143.555	79.4955	143.555	79.6908	143.555	79.7262	143.555	79.9474	143.555	79.9929	143.555	80.2336	143.555	80.2827	143.555	80.5309	143.555	80.5778	143.555	80.8172	143.555	80.858	143.555	81.0698	143.555	81.1019	143.555	81.2683	143.555	81.2903	143.555	81.3966	143.555	81.4077	143.555	81.4443
147.949	79.2112	147.949	79.2153	147.949	79.2097	147.949	79.2211	147.949	79.2134	147.949	79.23	147.949	79.2256	147.949	79.2454	147.949	79.2507	147.949	79.2741	147.949	79.2936	147.949	79.325	147.949	79.3597	147.949	79.4088	147.949	79.4551	147.949	79.535	147.949	79.5859	147.949	79.7099	147.949	79.7568	147.949	79.9333	147.949	79.9686	147.949	80.1973	147.949	80.217	147.949	80.487	147.949	80.4913	147.949	80.7826	147.949	80.7749	147.949	81.0621	147.949	81.0477	147.949	81.3042	147.949	81.2883	147.949	81.4902	147.949	81.4773	147.949	81.6061	147.949	81.599	147.949	81.6432
153.809	79.4913	153.809	79.4732	153.809	79.5049	153.809	79.4524	153.809	79.514	153.809	79.434	153.809	79.5213	153.809	79.4257	153.809	79.5317	153.809	79.4384	153.809	79.5532	153.809	79.4849	153.809	79.5972	153.809	79.5777	153.809	79.677	153.809	79.7268	153.809	79.8055	153.809	79.9361	153.809	79.991	153.809	80.2018	153.809	80.2346	153.809	80.5122	153.809	80.5274	153.809	80.8487	153.809	80.8524	153.809	81.1888	153.809	81.1866	153.809	81.5087	153.809	81.5046	153.809	81.7853	153.809	81.7816	153.809	81.9986	153.809	81.9962	153.809	82.1331	153.809	82.1319	153.809	82.1787
159.668	79.5324	159.668	79.501	159.668	79.5624	159.668	79.4727	159.668	79.5895	159.668	79.4546	159.668	79.6155	159.668	79.4561	159.668	79.646	159.668	79.4882	159.668	79.6901	159.668	79.5618	159.668	79.76	159.668	79.6862	159.668	79.8689	159.668	79.8675	159.668	80.0279	159.668	80.106	159.668	80.2426	159.668	80.3962	159.668	80.5106	159.668	80.7258	159.668	80.8212	159.668	81.0774	159.668	81.1567	159.668	81.4299	159.668	81.4951	159.668	81.7605	159.668	81.8128	159.668	82.0471	159.668	82.0866	159.668	82.2697	159.668	82.2963	159.668	82.4127	159.668	82.4261	159.668	82.466
165.527	79.9739	165.527	79.966	165.527	79.9791	165.527	79.9581	165.527	79.9814	165.527	79.9547	165.527	79.9837	165.527	79.9629	165.527	79.9919	165.527	79.9913	165.527	80.0155	165.527	80.0504	165.527	80.0662	165.527	80.1505	165.527	80.1561	165.527	80.2997	165.527	80.2949	165.527	80.502	165.527	80.4873	165.527	80.7548	165.527	80.7313	165.527	81.0487	165.527	81.0181	165.527	81.3679	165.527	81.3327	165.527	81.6921	165.527	81.6557	165.527	81.9985	165.527	81.9644	165.527	82.2643	165.527	82.2359	165.527	82.4691	165.527	82.4489	165.527	82.5967	165.527	82.5863	165.527	82.6369
171.387	80.2658	171.387	80.2589	171.387	80.2588	171.387	80.2409	171.387	80.2384	171.387	80.218	171.387	80.209	171.387	80.2004	171.387	80.1794	171.387	80.2009	171.387	80.1625	171.387	80.2345	171.387	80.1746	171.387	80.315	171.387	80.2327	171.387	80.4525	171.387	80.3509	171.387	80.6504	171.387	80.5362	171.387	80.9044	171.387	80.7868	171.387	81.2029	171.387	81.091	171.387	81.5286	171.387	81.4296	171.387	81.8598	171.387	81.7782	171.387	82.1731	171.387	82.1104	171.387	82.4451	171.387	82.4007	171.387	82.6548	171.387	82.6268	171.387	82.7854	171.387	82.772	171.387	82.8258
177.246	80.3345	177.246	80.3358	177.246	80.3204	177.246	80.3256	177.246	80.2973	177.246	80.3103	177.246	80.2742	177.246	80.3003	177.246	80.2636	177.246	80.3085	177.246	80.2798	177.246	80.3485	177.246	80.3363	177.246	80.4325	177.246	80.4432	177.246	80.5699	177.246	80.6061	177.246	80.7652	177.246	80.8247	177.246	81.0174	177.246	81.0936	177.246	81.3183	177.246	81.4021	177.246	81.6527	177.246	81.7349	177.246	81.999	177.246	82.0722	177.246	82.3318	177.246	82.3915	177.246	82.6249	177.246	82.6693	177.246	82.855	177.246	82.884	177.246	83.0035	177.246	83.0177	177.246	83.059
183.105	80.5151	183.105	80.5034	183.105	80.5161	183.105	80.4827	183.105	80.5085	183.105	80.4584	183.105	80.4978	183.105	80.4402	183.105	80.4933	183.105	80.4416	183.105	80.5073	183.105	80.4785	183.105	80.5534	183.105	80.5664	183.105	80.6439	183.105	80.7166	183.105	80.7867	183.105	80.9334	183.105	80.9843	183.105	81.2118	183.105	81.2333	183.105	81.5383	183.105	81.5251	183.105	81.8922	183.105	81.8465	183.105	82.2488	183.105	82.18	183.105	82.582	183.105	82.5037	183.105	82.867	183.105	82.7936	183.105	83.0824	183.105	83.0262	183.105	83.2117	183.105	83.1814	183.105	83.2453
188.965	80.9505	188.965	80.9207	188.965	80.9652	188.965	80.8794	188.965	80.9658	188.965	80.8354	188.965	80.957	188.965	80.8016	188.965	80.9455	188.965	80.7935	188.965	80.9392	188.965	80.8263	188.965	80.946	188.965	80.9119	188.965	80.9748	188.965	81.0572	188.965	81.0356	188.965	81.2633	188.965	81.1406	188.965	81.5253	188.965	81.3014	188.965	81.8321	188.965	81.525	188.965	82.1661	188.965	81.8082	188.965	82.5045	188.965	82.135	188.965	82.8206	188.965	82.478	188.965	83.0876	188.965	82.8039	188.965	83.2813	188.965	83.08	188.965	83.3834	188.965	83.2793	188.965	83.3832
196.289	81.2574	196.289	81.2656	196.289	81.2198	196.289	81.2453	196.289	81.1543	196.289	81.1997	196.289	81.0652	196.289	81.1339	196.289	80.96	196.289	81.0562	196.289	80.851	196.289	80.9784	196.289	80.755	196.289	80.916	196.289	80.6929	196.289	80.8872	196.289	80.6871	196.289	80.9104	196.289	80.7563	196.289	80.9992	196.289	80.9099	196.289	81.1588	196.289	81.1427	196.289	81.3825	196.289	81.4349	196.289	81.6519	196.289	81.7557	196.289	81.9402	196.289	82.0698	196.289	82.216	196.289	82.3435	196.289	82.4488	196.289	82.5492	196.289	82.6125	196.289	82.6675	196.289	82.6886
203.613	80.1438	203.613	80.0794	203.613	80.1857	203.613	79.9919	203.613	80.2105	203.613	79.8863	203.613	80.2275	203.613	79.7748	203.613	80.248	203.613	79.6789	203.613	80.2841	203.613	79.6297	203.613	80.3461	203.613	79.6627	203.613	80.4435	203.613	79.8078	203.613	80.5854	203.613	80.0765	203.613	80.7809	203.613	80.4564	203.613	81.0369	203.613	80.9157	203.613	81.3525	203.613	81.4136	203.613	81.7158	203.613	81.9094	203.613	82.1029	203.613	82.3666	203.613	82.482	203.613	82.755	203.613	82.819	203.613	83.0507	203.613	83.0832	203.613	83.2367	203.613	83.25	203.613	83.3036
210.938	80.5628	210.938	80.4865	210.938	80.6198	210.938	80.397	210.938	80.6553	210.938	80.3064	210.938	80.669	210.938	80.2344	210.938	80.6639	210.938	80.2061	210.938	80.648	210.938	80.2459	210.938	80.6372	210.938	80.3693	210.938	80.6547	210.938	80.5781	210.938	80.7281	210.938	80.8627	210.938	80.8809	210.938	81.2073	210.938	81.1247	210.938	81.595	210.938	81.4532	210.938	82.0066	210.938	81.8437	210.938	82.4197	210.938	82.2622	210.938	82.8076	210.938	82.6709	210.938	83.1416	210.938	83.0341	210.938	83.3955	210.938	83.3217	210.938	83.5488	210.938	83.5112	210.938	83.5886
218.262	80.7317	218.262	80.689	218.262	80.7502	218.262	80.6296	218.262	80.7428	218.262	80.5659	218.262	80.7138	218.262	80.5142	218.262	80.6733	218.262	80.4921	218.262	80.6353	218.262	80.5153	218.262	80.6171	218.262	80.5958	218.262	80.6373	218.262	80.7411	218.262	80.7148	218.262	80.955	218.262	80.8659	218.262	81.2364	218.262	81.0995	218.262	81.5765	218.262	81.4121	218.262	81.9566	218.262	81.7854	218.262	82.3494	218.262	82.1885	218.262	82.7226	218.262	82.5847	218.262	83.0448	218.262	82.9379	218.262	83.2897	218.262	83.2175	218.262	83.4374	218.262	83.4013	218.262	83.476
225.586	80.931	225.586	80.8928	225.586	80.9466	225.586	80.8382	225.586	80.9347	225.586	80.7758	225.586	80.8926	225.586	80.7169	225.586	80.8206	225.586	80.675	225.586	80.7265	225.586	80.6657	225.586	80.629	225.586	80.7059	225.586	80.5599	225.586	80.8118	225.586	80.5594	225.586	80.9963	225.586	80.664	225.586	81.2628	225.586	80.8912	225.586	81.6008	225.586	81.2307	225.586	81.986	225.586	81.6493	225.586	82.3853	225.586	82.1015	225.586	82.7639	225.586	82.5415	225.586	83.0897	225.586	82.9296	225.586	83.3364	225.586	83.2344	225.586	83.4838	225.586	83.4346	225.586	83.5185
232.91	80.6865	232.91	80.663	232.91	80.6745	232.91	80.6116	232.91	80.626	232.91	80.5458	232.91	80.5482	232.91	80.4836	232.91	80.4576	232.91	80.4462	232.91	80.3788	232.91	80.4558	232.91	80.3417	232.91	80.5329	232.91	80.3747	232.91	80.6911	232.91	80.4975	232.91	80.9328	232.91	80.7164	232.91	81.2477	232.91	81.0236	232.91	81.6155	232.91	81.4008	232.91	82.011	232.91	81.8217	232.91	82.4081	232.91	82.2559	232.91	82.7814	232.91	82.6703	232.91	83.1059	232.91	83.033	232.91	83.3578	232.91	83.3158	232.91	83.5159	232.91	83.4973	232.91	83.5649
241.699	80.8209	241.699	80.8203	241.699	80.8044	241.699	80.8052	241.699	80.7728	241.699	80.7824	241.699	80.7317	241.699	80.7624	241.699	80.6904	241.699	80.756	241.699	80.6618	241.699	80.7717	241.699	80.6607	241.699	80.8128	241.699	80.7017	241.699	80.8791	241.699	80.7951	241.699	80.9711	241.699	80.9446	241.699	81.0931	241.699	81.1475	241.699	81.254	241.699	81.3966	241.699	81.4616	241.699	81.6809	241.699	81.7154	241.699	81.984	241.699	82.0016	241.699	82.2821	241.699	82.2927	241.699	82.5458	241.699	82.5536	241.699	82.7441	241.699	82.7496	241.699	82.8516	241.699	82.8536
250.488	82.975	250.488	82.8886	250.488	83.0049	250.488	82.7397	250.488	82.9843	250.488	82.522	250.488	82.9183	250.488	82.2278	250.488	82.8091	250.488	81.8467	250.488	82.6563	250.488	81.3683	250.488	82.4578	250.488	80.7876	250.488	82.2133	250.488	80.1158	250.488	81.927	250.488	79.3958	250.488	81.6115	250.488	78.7167	250.488	81.2897	250.488	78.2151	250.488	80.996	250.488	78.0303	250.488	80.7705	250.488	78.215	250.488	80.646	250.488	78.6868	250.488	80.6275	250.488	79.2849	250.488	80.6813	250.488	79.8596	250.488	80.7427	250.488	80.3147	250.488	80.7384	250.488	80.6074
259.277	82.5918	259.277	82.4056	259.277	82.6508	259.277	82.0879	259.277	82.5844	259.277	81.634	259.277	82.3912	259.277	81.0434	259.277	82.0664	259.277	80.329	259.277	81.6059	259.277	79.5369	259.277	81.0123	259.277	78.7745	259.277	80.3091	259.277	78.2261	259.277	79.5627	259.277	78.0964	259.277	78.9106	259.277	78.4689	259.277	78.561	259.277	79.2312	259.277	78.6942	259.277	80.1779	259.277	79.3056	259.277	81.133	259.277	80.2022	259.277	81.9837	259.277	81.1584	259.277	82.6645	259.277	82.0188	259.277	83.1383	259.277	82.7005	259.277	83.3849	259.277	83.1645	259.277	83.3944
268.066	81.1768	268.066	81.0565	268.066	81.1591	268.066	80.7959	268.066	81.0086	268.066	80.3981	268.066	80.7343	268.066	79.8777	268.066	80.3517	268.066	79.271	268.066	79.8878	268.066	78.651	268.066	79.3877	268.066	78.1372	268.066	78.9203	268.066	77.8787	268.066	78.5798	268.066	77.9901	268.066	78.4715	268.066	78.4783	268.066	78.6744	268.066	79.2413	268.066	79.1935	268.066	80.1373	268.066	79.9472	268.066	81.0423	268.066	80.807	268.066	81.8674	268.066	81.6493	268.066	82.5531	268.066	82.3818	268.066	83.0599	268.066	82.9453	268.066	83.3625	268.066	83.3057	268.066	83.4463
276.855	80.2608	276.855	80.0648	276.855	80.3125	276.855	79.7221	276.855	80.2282	276.855	79.2432	276.855	80.0202	276.855	78.6622	276.855	79.7038	276.855	78.0516	276.855	79.3019	276.855	77.5325	276.855	78.8551	276.855	77.2545	276.855	78.4373	276.855	77.3308	276.855	78.1654	276.855	77.7726	276.855	78.1788	276.855	78.4975	276.855	78.5646	276.855	79.3906	276.855	79.2867	276.855	80.3466	276.855	80.2071	276.855	81.2804	276.855	81.1699	276.855	82.1247	276.855	82.0573	276.855	82.8286	276.855	82.7956	276.855	83.3558	276.855	83.3432	276.855	83.6816	276.855	83.6783	276.855	83.7913
287.109	79.8975	287.109	79.7069	287.109	79.9526	287.109	79.3904	287.109	79.8679	287.109	78.9673	287.109	79.644	287.109	78.4746	287.109	79.2913	287.109	77.9769	287.109	78.84	287.109	77.5715	287.109	78.3532	287.109	77.3763	287.109	77.9353	287.109	77.4901	287.109	77.7207	287.109	77.9393	287.109	77.8256	287.109	78.661	287.109	78.2819	287.109	79.5403	287.109	79.0171	287.109	80.4615	287.109	79.9031	287.109	81.3347	287.109	80.8158	287.109	82.0984	287.109	81.6618	287.109	82.7126	287.109	82.3789	287.109	83.1518	287.109	82.9285	287.109	83.3995	287.109	83.288	287.109	83.4461
297.363	79.7017	297.363	79.4757	297.363	79.779	297.363	79.1084	297.363	79.7098	297.363	78.6237	297.363	79.5046	297.363	78.0751	297.363	79.1842	297.363	77.559	297.363	78.7833	297.363	77.2087	297.363	78.3575	297.363	77.1472	297.363	77.9928	297.363	77.4172	297.363	77.8086	297.363	77.965	297.363	77.9287	297.363	78.6947	297.363	78.4088	297.363	79.5201	297.363	79.1867	297.363	80.3765	297.363	80.1199	297.363	81.2105	297.363	81.0652	297.363	81.9737	297.363	81.9198	297.363	82.622	297.363	82.6221	297.363	83.1177	297.363	83.1376	297.363	83.4322	297.363	83.448	297.363	83.5457
307.617	79.0724	307.617	78.855	307.617	79.1307	307.617	78.4937	307.617	79.0273	307.617	78.0229	307.617	78.7694	307.617	77.5045	307.617	78.3761	307.617	77.0312	307.617	77.8878	307.617	76.7135	307.617	77.3826	307.617	76.6475	307.617	76.9948	307.617	76.8801	307.617	76.9007	307.617	77.3979	307.617	77.2319	307.617	78.141	307.617	77.97	307.617	79.0268	307.617	78.9627	307.617	79.9694	307.617	80.035	307.617	80.8932	307.617	81.0586	307.617	81.7376	307.617	81.9545	307.617	82.4563	307.617	82.6746	307.617	83.0139	307.617	83.1886	307.617	83.383	307.617	83.4798	307.617	83.5429
319.336	78.475	319.336	78.2724	319.336	78.5166	319.336	77.9361	319.336	78.3857	319.336	77.5121	319.336	78.086	319.336	77.0649	319.336	77.6423	319.336	76.6703	319.336	77.1144	319.336	76.4049	319.336	76.6157	319.336	76.3387	319.336	76.3101	319.336	76.5252	319.336	76.3539	319.336	76.984	319.336	76.801	319.336	77.6833	319.336	77.5758	319.336	78.5458	319.336	78.5413	319.336	79.4779	319.336	79.568	319.336	80.3944	319.336	80.5554	319.336	81.2297	319.336	81.4286	319.336	81.9365	319.336	82.1347	319.336	82.4809	319.336	82.6399	319.336	82.8385	319.336	82.9269	319.336	82.9913
329.59	78.2093	329.59	78.0732	329.59	78.1844	329.59	77.7961	329.59	77.9898	329.59	77.4094	329.59	77.6322	329.59	76.9578	329.59	77.1408	329.59	76.5066	329.59	76.5772	329.59	76.148	329.59	76.0444	329.59	75.9936	329.59	75.6849	329.59	76.1352	329.59	75.6508	329.59	76.5926	329.59	76.0346	329.59	77.3047	329.59	76.8051	329.59	78.1716	329.59	77.822	329.59	79.0969	329.59	78.9175	329.59	80.0025	329.59	79.9592	329.59	80.8262	329.59	80.8645	329.59	81.5192	329.59	81.588	329.59	82.0447	329.59	82.1076	329.59	82.3776	329.59	82.4135	329.59	82.5029
341.309	77.9106	341.309	77.8071	341.309	77.8247	341.309	77.531	341.309	77.5465	341.309	77.1093	341.309	77.0942	341.309	76.5824	341.309	76.5198	341.309	76.0141	341.309	75.9227	341.309	75.5111	341.309	75.4508	341.309	75.2287	341.309	75.2636	341.309	75.3164	341.309	75.4596	341.309	75.8159	341.309	76.0268	341.309	76.6336	341.309	76.8675	341.309	77.6248	341.309	77.8573	341.309	78.6683	341.309	78.8848	341.309	79.6761	341.309	79.8635	341.309	80.5821	341.309	80.7308	341.309	81.3355	341.309	81.4422	341.309	81.8997	341.309	81.9669	341.309	82.252	341.309	82.284	341.309	82.3808
353.027	77.7479	353.027	77.6017	353.027	77.7033	353.027	77.2525	353.027	77.4927	353.027	76.7065	353.027	77.1514	353.027	76.0046	353.027	76.7227	353.027	75.2548	353.027	76.2564	353.027	74.6591	353.027	75.816	353.027	74.4564	353.027	75.4974	353.027	74.7496	353.027	75.4363	353.027	75.4321	353.027	75.7548	353.027	76.3352	353.027	76.4618	353.027	77.3496	353.027	77.4342	353.027	78.41	353.027	78.5072	353.027	79.4519	353.027	79.5516	353.027	80.4039	353.027	80.4854	353.027	81.202	353.027	81.2571	353.027	81.8001	353.027	81.8314	353.027	82.1703	353.027	82.1839	353.027	82.2991
366.211	77.1577	366.211	76.8853	366.211	77.2341	366.211	76.4215	366.211	77.1236	366.211	75.7948	366.211	76.8384	366.211	75.074	366.211	76.3894	366.211	74.3844	366.211	75.7984	366.211	73.9023	366.211	75.1385	366.211	73.7911	366.211	74.5887	366.211	74.12	366.211	74.4271	366.211	74.8625	366.211	74.858	366.211	75.9382	366.211	75.8184	366.211	77.2172	366.211	77.0641	366.211	78.5383	366.211	78.3714	366.211	79.7615	366.211	79.5996	366.211	80.8011	366.211	80.6674	366.211	81.6193	366.211	81.5276	366.211	82.2046	366.211	82.1536	366.211	82.5546	366.211	82.5336	366.211	82.6659
379.395	77.4903	379.395	77.1867	379.395	77.5653	379.395	76.6771	379.395	77.3954	379.395	76.0018	379.395	76.971	379.395	75.2361	379.395	76.3067	379.395	74.4954	379.395	75.4817	379.395	73.9221	379.395	74.6887	379.395	73.6697	379.395	74.2269	379.395	73.8884	379.395	74.3402	379.395	74.6421	379.395	75.0275	379.395	75.8061	379.395	76.0993	379.395	77.1369	379.395	77.3489	379.395	78.4342	379.395	78.6176	379.395	79.5965	379.395	79.7944	379.395	80.5874	379.395	80.8061	379.395	81.3941	379.395	81.6085	379.395	82.0047	379.395	82.1765	379.395	82.4029	379.395	82.4983	379.395	82.5718
392.578	76.2058	392.578	75.9717	392.578	76.1871	392.578	75.502	392.578	75.9124	392.578	74.8387	392.578	75.3914	392.578	74.0642	392.578	74.6591	392.578	73.3156	392.578	73.8056	392.578	72.7918	392.578	73.0229	392.578	72.725	392.578	72.6216	392.578	73.2542	392.578	72.8897	392.578	74.285	392.578	73.8282	392.578	75.5661	392.578	75.1623	392.578	76.8806	392.578	76.6063	392.578	78.116	392.578	77.9879	392.578	79.2282	392.578	79.2218	392.578	80.1948	392.578	80.2641	392.578	80.9925	392.578	81.0886	392.578	81.5947	392.578	81.6788	392.578	81.9775	392.578	82.0251	392.578	82.1239
405.762	76.1871	405.762	75.9406	405.762	76.1487	405.762	75.437	405.762	75.8169	405.762	74.7246	405.762	75.2065	405.762	73.8762	405.762	74.3712	405.762	73.0121	405.762	73.4367	405.762	72.3542	405.762	72.6385	405.762	72.2169	405.762	72.2927	405.762	72.7551	405.762	72.6035	405.762	73.7633	405.762	73.4845	405.762	74.9333	405.762	74.6805	405.762	76.1079	405.762	75.9772	405.762	77.2516	405.762	77.2518	405.762	78.3476	405.762	78.4348	405.762	79.353	405.762	79.4751	405.762	80.2095	405.762	80.3281	405.762	80.8651	405.762	80.9562	405.762	81.2834	405.762	81.3324	405.762	81.4423
420.41	75.8024	420.41	75.5971	420.41	75.7352	420.41	75.128	420.41	75.4056	420.41	74.4251	420.41	74.8433	420.41	73.5593	420.41	74.0996	420.41	72.6906	420.41	73.2664	420.41	72.0998	420.41	72.5302	420.41	72.0651	420.41	72.1957	420.41	72.6204	420.41	72.5102	420.41	73.5823	420.41	73.4122	420.41	74.7746	420.41	74.642	420.41	76.0817	420.41	75.9889	420.41	77.3986	420.41	77.3306	420.41	78.6253	420.41	78.5812	420.41	79.6883	420.41	79.6714	420.41	80.545	420.41	80.5508	420.41	81.1729	420.41	81.1889	420.41	81.5589	420.41	81.5712	420.41	81.6938
435.059	76.3402	435.059	76.0384	435.059	76.3419	435.059	75.452	435.059	76.0325	435.059	74.6232	435.059	75.4022	435.059	73.6557	435.059	74.4599	435.059	72.7314	435.059	73.2877	435.059	72.0566	435.059	72.1398	435.059	71.7753	435.059	71.4881	435.059	71.9882	435.059	71.7176	435.059	72.7656	435.059	72.7139	435.059	74.0126	435.059	74.09	435.059	75.4701	435.059	75.5583	435.059	76.905	435.059	76.9685	435.059	78.1962	435.059	78.2446	435.059	79.2974	435.059	79.3438	435.059	80.1885	435.059	80.2354	435.059	80.8517	435.059	80.8919	435.059	81.2667	435.059	81.2903	435.059	81.4161
451.172	73.9908	451.172	73.7105	451.172	73.918	451.172	73.1286	451.172	73.4736	451.172	72.3235	451.172	72.6813	451.172	71.3707	451.172	71.6411	451.172	70.308	451.172	70.5854	451.172	69.2246	451.172	69.8848	451.172	68.5681	451.172	69.8748	451.172	69.1005	451.172	70.6236	451.172	70.7649	451.172	71.9506	451.172	72.7582	451.172	73.588	451.172	74.6259	451.172	75.2905	451.172	76.2745	451.172	76.8904	451.172	77.7072	451.172	78.2958	451.172	78.9245	451.172	79.4604	451.172	79.9145	451.172	80.36	451.172	80.6616	451.172	80.9812	451.172	81.1518	451.172	81.3188	451.172	81.3738
465.82	74.2984	465.82	74.1011	465.82	74.1647	465.82	73.5718	465.82	73.6945	465.82	72.6924	465.82	72.8989	465.82	71.4416	465.82	71.8395	465.82	69.8879	465.82	70.6713	465.82	68.4741	465.82	69.6866	465.82	68.2009	465.82	69.3086	465.82	69.4147	465.82	69.8625	465.82	71.2426	465.82	71.2111	465.82	73.0682	465.82	72.9025	465.82	74.7506	465.82	74.5965	465.82	76.2707	465.82	76.1541	465.82	77.6088	465.82	77.5346	465.82	78.7428	465.82	78.715	465.82	79.6558	465.82	79.6662	465.82	80.332	465.82	80.3593	465.82	80.754	465.82	80.7748	465.82	80.9053
483.398	74.89	483.398	74.6191	483.398	74.7082	483.398	73.883	483.398	74.1021	483.398	72.6831	483.398	73.1431	483.398	71.0697	483.398	71.9702	483.398	69.2425	483.398	70.7536	483.398	67.7566	483.398	69.6284	483.398	67.4924	483.398	68.8293	483.398	68.6389	483.398	68.9273	483.398	70.4415	483.398	70.2356	483.398	72.3188	483.398	72.1817	483.398	74.0834	483.398	74.1476	483.398	75.697	483.398	75.9032	483.398	77.1409	483.398	77.4025	483.398	78.3867	483.398	78.6371	483.398	79.4006	483.398	79.6002	483.398	80.1526	483.398	80.2853	483.398	80.6225	483.398	80.6872	483.398	80.8009
499.512	74.8513	499.512	74.4179	499.512	74.8195	499.512	73.469	499.512	74.352	499.512	71.914	499.512	73.4568	499.512	69.5794	499.512	72.1043	499.512	66.1972	499.512	70.2325	499.512	62.4377	499.512	67.9413	499.512	63.544	499.512	66.3512	499.512	67.4131	499.512	67.3946	499.512	70.4205	499.512	69.9189	499.512	72.691	499.512	72.3275	499.512	74.5596	499.512	74.3621	499.512	76.1786	499.512	76.0914	499.512	77.5758	499.512	77.5627	499.512	78.7373	499.512	78.7772	499.512	79.6503	499.512	79.7191	499.512	80.3102	499.512	80.379	499.512	80.7166	499.512	80.7588	499.512	80.8681
517.09	72.5119	517.09	71.7977	517.09	72.4954	517.09	70.2442	517.09	71.7987	517.09	67.6882	517.09	70.4522	517.09	64.3834	517.09	68.5093	517.09	63.4024	517.09	66.214	517.09	66.1243	517.09	64.805	517.09	68.825	517.09	66.2053	517.09	70.8208	517.09	69.0297	517.09	72.4158	517.09	71.58	517.09	73.8467	517.09	73.6031	517.09	75.187	517.09	75.2314	517.09	76.4182	517.09	76.5942	517.09	77.5067	517.09	77.7459	517.09	78.4313	517.09	78.6866	517.09	79.1789	517.09	79.4045	517.09	79.7368	517.09	79.8984	517.09	80.0929	517.09	80.1751	517.09	80.2396
536.133	71.7071	536.133	70.9903	536.133	71.7807	536.133	69.7058	536.133	71.1787	536.133	68.1085	536.133	69.882	536.133	66.819	536.133	68.0171	536.133	66.542	536.133	66.4087	536.133	67.2555	536.133	66.6358	536.133	68.4586	536.133	68.2906	536.133	69.7898	536.133	69.9363	536.133	71.0689	536.133	71.2322	536.133	72.258	536.133	72.3545	536.133	73.4035	536.133	73.4867	536.133	74.5409	536.133	74.6638	536.133	75.6526	536.133	75.8207	536.133	76.6893	536.133	76.8793	536.133	77.595	536.133	77.7762	536.133	78.313	536.133	78.4551	536.133	78.789	536.133	78.8673	536.133	78.9807
555.176	71.3951	555.176	70.9895	555.176	71.233	555.176	70.0783	555.176	70.4837	555.176	68.7453	555.176	69.2785	555.176	67.1566	555.176	68.0813	555.176	65.76	555.176	67.5072	555.176	65.3871	555.176	67.5227	555.176	66.3394	555.176	67.6738	555.176	67.893	555.176	68.0106	555.176	69.4764	555.176	68.9655	555.176	70.988	555.176	70.5564	555.176	72.4711	555.176	72.3717	555.176	73.9343	555.176	74.119	555.176	75.3389	555.176	75.696	555.176	76.6282	555.176	77.056	555.176	77.7413	555.176	78.1505	555.176	78.6177	555.176	78.934	555.176	79.2048	555.176	79.376	555.176	79.4646
574.219	71.1166	574.219	70.5697	574.219	71.0718	574.219	69.3182	574.219	70.59	574.219	67.3303	574.219	69.844	574.219	64.9366	574.219	68.8988	574.219	63.487	574.219	67.6145	574.219	64.1846	574.219	65.9664	574.219	65.9075	574.219	65.0231	574.219	67.6297	574.219	66.3046	574.219	69.1579	574.219	68.5962	574.219	70.5836	574.219	70.6734	574.219	72.028	574.219	72.4633	574.219	73.507	574.219	74.1065	574.219	74.9402	574.219	75.6221	574.219	76.237	574.219	76.9342	574.219	77.3351	574.219	77.964	574.219	78.1933	574.219	78.6679	574.219	78.7791	574.219	79.0336	574.219	79.066
594.727	69.9129	594.727	68.9699	594.727	70.1551	594.727	67.3376	594.727	69.6876	594.727	65.2038	594.727	68.4481	594.727	63.3431	594.727	66.3454	594.727	62.9149	594.727	63.6878	594.727	63.7584	594.727	62.7152	594.727	65.0626	594.727	64.6862	594.727	66.5734	594.727	66.9905	594.727	68.1853	594.727	68.8472	594.727	69.7644	594.727	70.4941	594.727	71.2476	594.727	72.0869	594.727	72.6495	594.727	73.6039	594.727	73.9969	594.727	74.9859	594.727	75.2743	594.727	76.1876	594.727	76.4165	594.727	77.1625	594.727	77.3396	594.727	77.8603	594.727	77.9745	594.727	78.2405	594.727	78.28
615.234	68.6773	615.234	67.8589	615.234	68.7483	615.234	66.3749	615.234	68.0689	615.234	64.573	615.234	66.7074	615.234	63.249	615.234	65.0055	615.234	63.002	615.234	63.8797	615.234	63.576	615.234	64.0565	615.234	64.652	615.234	65.0053	615.234	66.0422	615.234	66.2051	615.234	67.5375	615.234	67.6112	615.234	69.0496	615.234	69.1582	615.234	70.5782	615.234	70.731	615.234	72.0919	615.234	72.2928	615.234	73.5294	615.234	73.8204	615.234	74.8388	615.234	75.2293	615.234	75.9754	615.234	76.4037	615.234	76.8874	615.234	77.2518	615.234	77.5162	615.234	77.7243	615.234	77.8077
637.207	69.6301	637.207	68.8842	637.207	69.5996	637.207	67.3763	637.207	68.8259	637.207	65.1494	637.207	67.4435	637.207	62.4397	637.207	65.756	637.207	60.5972	637.207	64.2291	637.207	61.5453	637.207	63.3318	637.207	63.7136	637.207	63.4389	637.207	65.6292	637.207	64.7364	637.207	67.3009	637.207	66.8461	637.207	68.9646	637.207	69.1047	637.207	70.6166	637.207	71.1473	637.207	72.1308	637.207	72.9119	637.207	73.4682	637.207	74.4326	637.207	74.6736	637.207	75.7208	637.207	75.7705	637.207	76.7457	637.207	76.713	637.207	77.4583	637.207	77.4152	637.207	77.8162	637.207	77.7985
659.18	67.4446	659.18	66.4558	659.18	67.6782	659.18	64.7242	659.18	67.1488	659.18	62.4806	659.18	65.7894	659.18	60.6876	659.18	63.5035	659.18	60.5521	659.18	60.6941	659.18	61.6381	659.18	60.0206	659.18	63.282	659.18	62.3907	659.18	65.2304	659.18	64.9337	659.18	67.1103	659.18	67.0247	659.18	68.7471	659.18	68.8979	659.18	70.2284	659.18	70.6828	659.18	71.6644	659.18	72.3454	659.18	73.0587	659.18	73.8175	659.18	74.3508	659.18	75.0607	659.18	75.4767	659.18	76.056	659.18	76.3773	659.18	76.78	659.18	76.9924	659.18	77.1973	659.18	77.2727
682.617	68.5381	682.617	67.6033	682.617	68.4834	682.617	65.7349	682.617	67.4392	682.617	63.4242	682.617	65.5972	682.617	62.2999	682.617	63.8292	682.617	62.9447	682.617	63.2632	682.617	63.9427	682.617	63.7188	682.617	64.9748	682.617	65.0685	682.617	66.2524	682.617	67.0704	682.617	67.6748	682.617	68.8632	682.617	69.0905	682.617	70.1719	682.617	70.4573	682.617	71.283	682.617	71.7838	682.617	72.4595	682.617	73.0939	682.617	73.6803	682.617	74.3652	682.617	74.8231	682.617	75.5074	682.617	75.8111	682.617	76.4142	682.617	76.5875	682.617	77.0051	682.617	77.0828	682.617	77.2322
707.52	70.4093	707.52	69.3035	707.52	70.6854	707.52	67.4735	707.52	70.1094	707.52	65.3581	707.52	68.7968	707.52	63.8071	707.52	67.0929	707.52	62.8279	707.52	65.1767	707.52	62.1453	707.52	63.149	707.52	63.4418	707.52	63.255	707.52	66.1963	707.52	65.824	707.52	68.4241	707.52	68.2687	707.52	70.0246	707.52	70.3005	707.52	71.5139	707.52	72.136	707.52	73.0781	707.52	73.8033	707.52	74.5657	707.52	75.3288	707.52	75.8879	707.52	76.7189	707.52	77.0581	707.52	77.8885	707.52	78.056	707.52	78.7276	707.52	78.7963	707.52	79.1679	707.52	79.1859
732.422	68.8018	732.422	67.9283	732.422	68.8238	732.422	66.2933	732.422	67.9707	732.422	64.1416	732.422	66.0917	732.422	61.9648	732.422	62.6862	732.422	60.9982	732.422	59.2011	732.422	62.7235	732.422	62.1232	732.422	65.4761	732.422	65.0483	732.422	67.6893	732.422	66.5544	732.422	69.4395	732.422	68.2557	732.422	71.136	732.422	70.5327	732.422	72.8076	732.422	72.6149	732.422	74.3177	732.422	74.3314	732.422	75.6827	732.422	75.8923	732.422	76.9328	732.422	77.3133	732.422	78.0021	732.422	78.4443	732.422	78.8172	732.422	79.1939	732.422	79.3529	732.422	79.5668	732.422	79.6073
757.324	71.2515	757.324	70.3506	757.324	71.0754	757.324	68.352	757.324	69.8908	757.324	65.5793	757.324	68.0157	757.324	63.7973	757.324	66.4984	757.324	64.5275	757.324	66.2756	757.324	66.052	757.324	66.6469	757.324	67.3383	757.324	67.3905	757.324	68.3612	757.324	68.9563	757.324	69.503	757.324	70.7564	757.324	71.111	757.324	72.243	757.324	73.0224	757.324	73.6472	757.324	74.8877	757.324	75.2731	757.324	76.541	757.324	76.9647	757.324	77.9467	757.324	78.4184	757.324	79.0951	757.324	79.5194	757.324	79.9751	757.324	80.2846	757.324	80.5632	757.324	80.7262	757.324	80.8222
785.156	72.5404	785.156	70.476	785.156	73.0854	785.156	67.2434	785.156	72.3423	785.156	66.0717	785.156	70.6985	785.156	67.2562	785.156	68.5873	785.156	67.0215	785.156	65.733	785.156	65.5906	785.156	62.4089	785.156	66.4464	785.156	64.7925	785.156	68.9783	785.156	68.7038	785.156	71.0429	785.156	71.3279	785.156	72.9881	785.156	73.6022	785.156	75.0462	785.156	75.8223	785.156	76.9562	785.156	77.7345	785.156	78.5986	785.156	79.2647	785.156	80.0013	785.156	80.5298	785.156	81.1749	785.156	81.6112	785.156	82.1057	785.156	82.4634	785.156	82.7602	785.156	82.9756	785.156	83.0723
811.523	73.4826	811.523	72.823	811.523	73.7348	811.523	72.1987	811.523	73.0286	811.523	71.1233	811.523	70.739	811.523	68.1635	811.523	65.8124	811.523	62.844	811.523	62.7505	811.523	65.4376	811.523	67.8144	811.523	68.896	811.523	70.7132	811.523	70.5411	811.523	72.3347	811.523	72.2905	811.523	73.6062	811.523	74.4199	811.523	74.9895	811.523	76.4802	811.523	76.6474	811.523	78.3749	811.523	78.4117	811.523	80.0608	811.523	80.115	811.523	81.4464	811.523	81.6905	811.523	82.5275	811.523	83.0249	811.523	83.369	811.523	83.9609	811.523	84.0048	811.523	84.4075	811.523	84.3875
840.82	74.4093	840.82	73.2464	840.82	74.3651	840.82	70.861	840.82	73.3012	840.82	67.7487	840.82	71.8311	840.82	66.2251	840.82	70.8977	840.82	67.7247	840.82	70.1929	840.82	69.7636	840.82	69.1359	840.82	71.2389	840.82	69.6858	840.82	72.4186	840.82	72.1538	840.82	73.78	840.82	74.466	840.82	75.3366	840.82	76.4259	840.82	76.9407	840.82	78.267	840.82	78.6156	840.82	80.0463	840.82	80.3462	840.82	81.7672	840.82	81.9716	840.82	83.3402	840.82	83.3609	840.82	84.6132	840.82	84.4828	840.82	85.4718	840.82	85.3155	840.82	85.8663	840.82	85.7996
870.117	77.0013	870.117	75.9347	870.117	77.2711	870.117	74.518	870.117	76.2745	870.117	72.4113	870.117	73.5496	870.117	68.3574	870.117	68.7119	870.117	64.8083	870.117	65.5475	870.117	67.8643	870.117	69.571	870.117	69.6827	870.117	73.2966	870.117	71.262	870.117	75.4828	870.117	73.8105	870.117	76.7499	870.117	76.1768	870.117	77.9812	870.117	78.1704	870.117	79.3295	870.117	80.2392	870.117	80.6906	870.117	82.4173	870.117	82.3454	870.117	84.4152	870.117	84.2304	870.117	86.043	870.117	85.9252	870.117	87.2437	870.117	87.1929	870.117	87.9879	870.117	87.9712	870.117	88.238
900.879	77.5313	900.879	76.6456	900.879	77.0299	900.879	74.3334	900.879	75.0157	900.879	70.5979	900.879	72.002	900.879	68.869	900.879	70.9389	900.879	70.8609	900.879	72.1781	900.879	71.8732	900.879	73.6606	900.879	72.2452	900.879	74.5547	900.879	72.9602	900.879	74.6596	900.879	73.9904	900.879	75.7011	900.879	75.3783	900.879	77.6916	900.879	77.2561	900.879	79.4262	900.879	79.5786	900.879	81.3691	900.879	82.074	900.879	83.6928	900.879	84.4287	900.879	85.8181	900.879	86.4948	900.879	87.5359	900.879	88.1825	900.879	88.8644	900.879	89.3562	900.879	89.6973	900.879	89.8809
933.105	79.3206	933.105	77.6082	933.105	79.503	933.105	74.2242	933.105	78.254	933.105	69.4289	933.105	75.8103	933.105	66.7154	933.105	72.5548	933.105	68.9684	933.105	67.9765	933.105	71.4768	933.105	69.0522	933.105	73.1304	933.105	73.6164	933.105	74.1818	933.105	75.7052	933.105	74.9385	933.105	77.3382	933.105	76.2458	933.105	79.203	933.105	78.6414	933.105	80.7369	933.105	81.5436	933.105	82.3518	933.105	84.3056	933.105	84.5191	933.105	86.6753	933.105	86.8442	933.105	88.5793	933.105	88.9103	933.105	90.0304	933.105	90.4715	933.105	91.0341	933.105	91.3545	933.105	91.5159
965.332	80.3711	965.332	78.4683	965.332	80.7991	965.332	76.0894	965.332	79.2649	965.332	74.178	965.332	76.0661	965.332	73.6264	965.332	75.0355	965.332	73.6897	965.332	76.4501	965.332	73.0279	965.332	76.7563	965.332	74.3416	965.332	76.9393	965.332	76.3876	965.332	77.7221	965.332	77.434	965.332	78.5109	965.332	78.5804	965.332	79.3345	965.332	80.5577	965.332	81.0348	965.332	83.1795	965.332	83.8843	965.332	85.9392	965.332	86.7446	965.332	88.3539	965.332	89.0379	965.332	90.2992	965.332	90.8593	965.332	91.8252	965.332	92.269	965.332	92.8843	965.332	93.142	965.332	93.3522
1,000.49	79.7556	1,000.49	79.8925	1,000.49	78.6801	1,000.49	78.9694	1,000.49	76.2967	1,000.49	76.2364	1,000.49	72.65	1,000.49	71.7609	1,000.49	67.3453	1,000.49	73.1595	1,000.49	64.3645	1,000.49	76.5015	1,000.49	73.0467	1,000.49	77.9268	1,000.49	75.4182	1,000.49	77.8225	1,000.49	75.5354	1,000.49	76.7891	1,000.49	77.8084	1,000.49	76.669	1,000.49	80.3105	1,000.49	78.6542	1,000.49	82.2076	1,000.49	82.1299	1,000.49	84.9098	1,000.49	85.7931	1,000.49	87.7584	1,000.49	89.0893	1,000.49	90.2217	1,000.49	91.6459	1,000.49	92.3115	1,000.49	93.3176	1,000.49	93.7946	1,000.49	94.2455	1,000.49	94.5319	1,000.49	94.6356
1,035.64	82.0621	1,035.64	79.2699	1,035.64	82.3343	1,035.64	71.9135	1,035.64	80.3669	1,035.64	61.577	1,035.64	77.1594	1,035.64	71.1035	1,035.64	76.2891	1,035.64	71.6805	1,035.64	77.9776	1,035.64	73.1158	1,035.64	79.1503	1,035.64	74.3847	1,035.64	78.6755	1,035.64	72.9838	1,035.64	78.6465	1,035.64	74.6334	1,035.64	78.2867	1,035.64	76.4574	1,035.64	77.1892	1,035.64	77.5208	1,035.64	80.4304	1,035.64	80.8844	1,035.64	84.8319	1,035.64	85.5364	1,035.64	88.0524	1,035.64	89.5483	1,035.64	90.8116	1,035.64	92.4642	1,035.64	93.0482	1,035.64	94.2435	1,035.64	94.3876	1,035.64	95.0334	1,035.64	94.9834	1,035.64	95.1796
1,072.27	79.8023	1,072.27	79.5351	1,072.27	79.16	1,072.27	77.9979	1,072.27	77.683	1,072.27	74.8235	1,072.27	75.8945	1,072.27	73.1918	1,072.27	73.6644	1,072.27	74.9344	1,072.27	70.5337	1,072.27	75.5506	1,072.27	75.3394	1,072.27	76.2116	1,072.27	76.8232	1,072.27	76.8819	1,072.27	75.8024	1,072.27	76.9422	1,072.27	76.5943	1,072.27	78.2529	1,072.27	77.5083	1,072.27	80.696	1,072.27	79.8305	1,072.27	83.307	1,072.27	84.0836	1,072.27	86.272	1,072.27	87.8173	1,072.27	89.4812	1,072.27	90.8358	1,072.27	92.3288	1,072.27	93.0782	1,072.27	94.3366	1,072.27	94.4812	1,072.27	95.3787	1,072.27	95.2623	1,072.27	95.6009
1,108.89	78.1275	1,108.89	74.8058	1,108.89	78.8739	1,108.89	65.8343	1,108.89	76.9755	1,108.89	68.0667	1,108.89	71.9513	1,108.89	73.4164	1,108.89	71.3896	1,108.89	74.8145	1,108.89	75.6672	1,108.89	77.2325	1,108.89	77.0955	1,108.89	78.4422	1,108.89	76.1532	1,108.89	77.8629	1,108.89	75.7896	1,108.89	78.2474	1,108.89	75.7796	1,108.89	79.1704	1,108.89	77.4575	1,108.89	80.8795	1,108.89	81.0857	1,108.89	83.4676	1,108.89	84.5851	1,108.89	86.498	1,108.89	87.9486	1,108.89	89.5678	1,108.89	90.9441	1,108.89	92.1602	1,108.89	93.1332	1,108.89	94.0227	1,108.89	94.5187	1,108.89	95.1416	1,108.89	95.3052	1,108.89	95.5455
1,148.44	80.1954	1,148.44	77.8031	1,148.44	79.248	1,148.44	70.7436	1,148.44	75.1032	1,148.44	73.5832	1,148.44	70.8451	1,148.44	76.7922	1,148.44	70.8118	1,148.44	76.2064	1,148.44	74.6765	1,148.44	76.62	1,148.44	77.6169	1,148.44	76.7838	1,148.44	77.5842	1,148.44	75.7577	1,148.44	76.0449	1,148.44	75.6472	1,148.44	73.6485	1,148.44	77.4342	1,148.44	73.7451	1,148.44	80.1288	1,148.44	77.6298	1,148.44	82.6642	1,148.44	82.5401	1,148.44	85.63	1,148.44	87.154	1,148.44	88.896	1,148.44	90.4906	1,148.44	91.6691	1,148.44	92.5707	1,148.44	93.6927	1,148.44	93.9395	1,148.44	94.962	1,148.44	94.9357	1,148.44	95.3725
1,189.45	77.4529	1,189.45	75.5691	1,189.45	76.2781	1,189.45	67.8542	1,189.45	71.417	1,189.45	71.2878	1,189.45	61.831	1,189.45	75.892	1,189.45	71.3887	1,189.45	78.9028	1,189.45	74.2158	1,189.45	79.3229	1,189.45	74.9327	1,189.45	75.3832	1,189.45	72.645	1,189.45	69.609	1,189.45	70.3202	1,189.45	69.2984	1,189.45	70.7938	1,189.45	72.3647	1,189.45	73.9767	1,189.45	76.491	1,189.45	77.9184	1,189.45	79.7731	1,189.45	81.8182	1,189.45	83.0171	1,189.45	85.9872	1,189.45	86.6035	1,189.45	89.2985	1,189.45	89.8617	1,189.45	91.5863	1,189.45	92.3518	1,189.45	93.3869	1,189.45	94.0334	1,189.45	94.6007	1,189.45	94.835
1,230.47	75.7955	1,230.47	70.1232	1,230.47	74.614	1,230.47	65.1787	1,230.47	65.122	1,230.47	74.8171	1,230.47	69.2071	1,230.47	76.4225	1,230.47	75.7464	1,230.47	77.9367	1,230.47	78.0087	1,230.47	77.8796	1,230.47	77.7839	1,230.47	73.2309	1,230.47	76.39	1,230.47	70.1266	1,230.47	72.883	1,230.47	69.3703	1,230.47	67.5625	1,230.47	69.5102	1,230.47	68.4652	1,230.47	72.9297	1,230.47	73.8546	1,230.47	77.9883	1,230.47	79.772	1,230.47	82.397	1,230.47	84.6693	1,230.47	85.9614	1,230.47	88.1492	1,230.47	88.8973	1,230.47	90.6787	1,230.47	91.4186	1,230.47	92.7485	1,230.47	93.3675	1,230.47	94.1276	1,230.47	94.3615
1,274.41	72.9724	1,274.41	62.5451	1,274.41	74.1213	1,274.41	68.9269	1,274.41	69.0486	1,274.41	74.6168	1,274.41	58.9852	1,274.41	77.4984	1,274.41	72.313	1,274.41	79.1047	1,274.41	75.791	1,274.41	77.5123	1,274.41	76.3633	1,274.41	72.7114	1,274.41	73.9525	1,274.41	72.4018	1,274.41	68.5323	1,274.41	72.1777	1,274.41	64.4279	1,274.41	68.7607	1,274.41	68.7929	1,274.41	67.8561	1,274.41	72.7887	1,274.41	73.0802	1,274.41	77.4462	1,274.41	79.0065	1,274.41	81.9027	1,274.41	83.3855	1,274.41	85.2759	1,274.41	87.0232	1,274.41	88.159	1,274.41	90.1088	1,274.41	91.0128	1,274.41	92.4151	1,274.41	93.015	1,274.41	93.4937
1,319.82	73.8122	1,319.82	71.7828	1,319.82	71.9322	1,319.82	69.5381	1,319.82	62.9494	1,319.82	72.7061	1,319.82	66.9207	1,319.82	75.4605	1,319.82	75.0229	1,319.82	78.0053	1,319.82	77.0729	1,319.82	75.8895	1,319.82	76.4225	1,319.82	72.3693	1,319.82	73.9506	1,319.82	73.1053	1,319.82	68.9016	1,319.82	71.7583	1,319.82	65.493	1,319.82	70.155	1,319.82	68.0679	1,319.82	68.6827	1,319.82	71.3373	1,319.82	66.705	1,319.82	74.8005	1,319.82	75.3288	1,319.82	79.0491	1,319.82	81.9978	1,319.82	83.3761	1,319.82	86.3583	1,319.82	87.3165	1,319.82	89.412	1,319.82	90.497	1,319.82	91.4931	1,319.82	92.2993	1,319.82	92.5516
1,366.7	72.3653	1,366.7	67.4255	1,366.7	72.4329	1,366.7	68.7235	1,366.7	67.9032	1,366.7	74.8731	1,366.7	71.0599	1,366.7	78.7292	1,366.7	76.6616	1,366.7	78.7223	1,366.7	78.7195	1,366.7	74.7758	1,366.7	77.0699	1,366.7	74.6534	1,366.7	73.6973	1,366.7	72.8197	1,366.7	64.4926	1,366.7	67.8616	1,366.7	64.7605	1,366.7	68.2337	1,366.7	67.9385	1,366.7	71.3169	1,366.7	70.5866	1,366.7	70.4455	1,366.7	71.4557	1,366.7	69.8375	1,366.7	76.7558	1,366.7	78.6701	1,366.7	82.351	1,366.7	84.7689	1,366.7	86.6837	1,366.7	88.4081	1,366.7	89.6366	1,366.7	90.5388	1,366.7	91.178	1,366.7	91.4421
1,413.57	76.1237	1,413.57	74.8989	1,413.57	74.8096	1,413.57	74.9875	1,413.57	73.189	1,413.57	75.8866	1,413.57	74.3742	1,413.57	77.4758	1,413.57	75.5729	1,413.57	77.6189	1,413.57	76.7452	1,413.57	76.9434	1,413.57	75.6145	1,413.57	77.6916	1,413.57	72.1883	1,413.57	72.9494	1,413.57	65.2914	1,413.57	70.6036	1,413.57	60.6665	1,413.57	73.0346	1,413.57	69.2067	1,413.57	74.6803	1,413.57	73.0703	1,413.57	73.129	1,413.57	73.8381	1,413.57	70.7217	1,413.57	75.3851	1,413.57	76.9603	1,413.57	80.7394	1,413.57	83.4473	1,413.57	85.5793	1,413.57	87.5069	1,413.57	88.9472	1,413.57	89.6949	1,413.57	90.4938	1,413.57	90.6138
1,463.38	75.3468	1,463.38	74.4113	1,463.38	72.1884	1,463.38	73.3927	1,463.38	68.6368	1,463.38	76.0732	1,463.38	73.1874	1,463.38	79.6745	1,463.38	77.0943	1,463.38	79.1084	1,463.38	78.0238	1,463.38	77.9821	1,463.38	77.5848	1,463.38	77.7803	1,463.38	74.2653	1,463.38	72.1483	1,463.38	63.9654	1,463.38	67.0001	1,463.38	68.5065	1,463.38	75.4353	1,463.38	72.7932	1,463.38	77.3505	1,463.38	70.8646	1,463.38	75.4301	1,463.38	69.5826	1,463.38	71.8564	1,463.38	73.4711	1,463.38	73.6318	1,463.38	79.4847	1,463.38	81.2467	1,463.38	84.5534	1,463.38	86.0944	1,463.38	87.5638	1,463.38	88.4668	1,463.38	88.8497	1,463.38	89.139
1,516.11	76.7066	1,516.11	74.3094	1,516.11	76.7746	1,516.11	74.021	1,516.11	73.7434	1,516.11	76.2339	1,516.11	74.6795	1,516.11	78.3761	1,516.11	77.7566	1,516.11	77.7235	1,516.11	78.5397	1,516.11	78.0303	1,516.11	77.6668	1,516.11	76.6664	1,516.11	74.4639	1,516.11	69.4387	1,516.11	66.4877	1,516.11	67.2409	1,516.11	63.0394	1,516.11	74.4275	1,516.11	72.1722	1,516.11	76.6329	1,516.11	74.0028	1,516.11	76.1125	1,516.11	73.0089	1,516.11	73.0642	1,516.11	71.2507	1,516.11	72.612	1,516.11	76.7339	1,516.11	79.0882	1,516.11	83.3936	1,516.11	84.04	1,516.11	86.6299	1,516.11	86.6515	1,516.11	87.7302	1,516.11	87.6592
1,568.85	76.9814	1,568.85	74.3612	1,568.85	77.0494	1,568.85	73.0927	1,568.85	75.3403	1,568.85	78.0937	1,568.85	75.4951	1,568.85	79.8792	1,568.85	77.9621	1,568.85	77.8511	1,568.85	79.0375	1,568.85	78.8443	1,568.85	78.0638	1,568.85	75.7785	1,568.85	74.2044	1,568.85	70.1183	1,568.85	64.6155	1,568.85	61.0173	1,568.85	67.237	1,568.85	67.8739	1,568.85	71.6169	1,568.85	74.5489	1,568.85	75.0861	1,568.85	75.5379	1,568.85	74.6327	1,568.85	74.4567	1,568.85	73.8405	1,568.85	74.2047	1,568.85	77.6281	1,568.85	77.3127	1,568.85	81.7687	1,568.85	81.972	1,568.85	84.4853	1,568.85	84.9898	1,568.85	86.0285	1,568.85	86.2922
1,624.51	79.5374	1,624.51	77.5681	1,624.51	79.1871	1,624.51	75.0193	1,624.51	76.8727	1,624.51	76.7413	1,624.51	75.8162	1,624.51	78.6838	1,624.51	77.8187	1,624.51	79.8277	1,624.51	78.3744	1,624.51	81.2874	1,624.51	77.3012	1,624.51	75.9642	1,624.51	72.8845	1,624.51	64.8771	1,624.51	65.8648	1,624.51	61.4766	1,624.51	67.6679	1,624.51	69.0745	1,624.51	72.7952	1,624.51	74.9145	1,624.51	75.2096	1,624.51	75.8289	1,624.51	74.9833	1,624.51	73.6476	1,624.51	74.8087	1,624.51	74.602	1,624.51	77.7979	1,624.51	77.655	1,624.51	80.4382	1,624.51	80.0871	1,624.51	82.8183	1,624.51	83.308	1,624.51	85.1541	1,624.51	85.5289
1,681.64	81.7807	1,681.64	79.9809	1,681.64	80.846	1,681.64	77.3702	1,681.64	78.6739	1,681.64	78.6922	1,681.64	77.6945	1,681.64	78.7473	1,681.64	78.1685	1,681.64	80.7129	1,681.64	78.9425	1,681.64	80.5199	1,681.64	78.5411	1,681.64	74.4075	1,681.64	76.4165	1,681.64	72.8118	1,681.64	72.8429	1,681.64	63.4123	1,681.64	67.0996	1,681.64	71.1716	1,681.64	73.31	1,681.64	76.575	1,681.64	76.8531	1,681.64	78.0988	1,681.64	77.536	1,681.64	74.4001	1,681.64	76.2157	1,681.64	71.6063	1,681.64	76.8582	1,681.64	75.9029	1,681.64	80.2856	1,681.64	79.1864	1,681.64	83.6846	1,681.64	82.9221	1,681.64	84.8191	1,681.64	84.725
1,741.7	83.0484	1,741.7	80.8666	1,741.7	82.5925	1,741.7	79.4071	1,741.7	79.8631	1,741.7	79.0672	1,741.7	78.3071	1,741.7	78.5265	1,741.7	79.5609	1,741.7	81.0845	1,741.7	79.6503	1,741.7	77.9659	1,741.7	77.5285	1,741.7	78.2422	1,741.7	76.5255	1,741.7	75.654	1,741.7	70.2722	1,741.7	71.223	1,741.7	67.9442	1,741.7	76.3156	1,741.7	76.8955	1,741.7	76.3487	1,741.7	77.9539	1,741.7	77.3561	1,741.7	78.004	1,741.7	74.0085	1,741.7	76.6108	1,741.7	69.2051	1,741.7	74.7612	1,741.7	72.7844	1,741.7	77.7761	1,741.7	76.0883	1,741.7	81.2648	1,741.7	82.0487	1,741.7	84.115	1,741.7	85.0905
1,803.22	83.3347	1,803.22	81.8176	1,803.22	83.8941	1,803.22	81.6366	1,803.22	82.6283	1,803.22	80.6389	1,803.22	79.9288	1,803.22	81.6824	1,803.22	79.0843	1,803.22	84.1701	1,803.22	80.5689	1,803.22	81.4659	1,803.22	80.7494	1,803.22	79.4809	1,803.22	77.9371	1,803.22	71.3651	1,803.22	67.9699	1,803.22	74.7438	1,803.22	75.0288	1,803.22	79.8491	1,803.22	77.4974	1,803.22	78.8235	1,803.22	77.1835	1,803.22	76.8679	1,803.22	79.4305	1,803.22	72.8927	1,803.22	76.4708	1,803.22	66.9159	1,803.22	70.8961	1,803.22	73.5243	1,803.22	75.9891	1,803.22	78.5336	1,803.22	81.0377	1,803.22	79.7076	1,803.22	83.4169	1,803.22	82.3061
1,866.21	83.1135	1,866.21	82.337	1,866.21	82.9846	1,866.21	83.3013	1,866.21	82.06	1,866.21	83.0956	1,866.21	80.1886	1,866.21	82.6267	1,866.21	79.6783	1,866.21	83.5693	1,866.21	82.4482	1,866.21	80.4669	1,866.21	82.286	1,866.21	79.7795	1,866.21	80.885	1,866.21	77.7899	1,866.21	74.2486	1,866.21	75.414	1,866.21	77.3152	1,866.21	79.003	1,866.21	77.7986	1,866.21	78.5048	1,866.21	75.3756	1,866.21	78.0171	1,866.21	76.6925	1,866.21	74.3159	1,866.21	78.9498	1,866.21	67.8065	1,866.21	78.0098	1,866.21	70.1382	1,866.21	77.0464	1,866.21	78.5095	1,866.21	79.6809	1,866.21	79.3799	1,866.21	80.8677	1,866.21	79.3442
1,932.13	83.5884	1,932.13	84.2688	1,932.13	84.6635	1,932.13	84.2122	1,932.13	84.1166	1,932.13	82.6596	1,932.13	82.497	1,932.13	83.5136	1,932.13	81.4362	1,932.13	82.7434	1,932.13	81.2176	1,932.13	83.7995	1,932.13	82.3096	1,932.13	78.5414	1,932.13	79.5235	1,932.13	79.7266	1,932.13	76.9727	1,932.13	77.0714	1,932.13	77.6679	1,932.13	76.5888	1,932.13	80.086	1,932.13	77.4194	1,932.13	79.3354	1,932.13	75.6131	1,932.13	76.1685	1,932.13	71.8001	1,932.13	74.729	1,932.13	65.6954	1,932.13	73.0842	1,932.13	55.6726	1,932.13	75.5587	1,932.13	72.5517	1,932.13	78.8066	1,932.13	78.0003	1,932.13	80.3551	1,932.13	79.1768
1,999.51	85.5822	1,999.51	85.7992	1,999.51	85.3587	1,999.51	83.6928	1,999.51	84.2554	1,999.51	84.3924	1,999.51	83.1887	1,999.51	84.8562	1,999.51	81.8417	1,999.51	85.3952	1,999.51	82.1581	1,999.51	83.3303	1,999.51	82.061	1,999.51	80.3366	1,999.51	79.4189	1,999.51	76.3317	1,999.51	76.4075	1,999.51	78.5972	1,999.51	74.4899	1,999.51	81.1687	1,999.51	78.7369	1,999.51	79.173	1,999.51	78.5767	1,999.51	73.7743	1,999.51	76.6082	1,999.51	68.2404	1,999.51	73.7796	1,999.51	65.2031	1,999.51	72.5133	1,999.51	61.8921	1,999.51	73.3107	1,999.51	69.8655	1,999.51	77.7673	1,999.51	79.1162	1,999.51	81.2971	1,999.51	81.6569
2,069.82	86.979	2,069.82	86.7352	2,069.82	86.9663	2,069.82	83.9361	2,069.82	85.7034	2,069.82	84.505	2,069.82	84.2796	2,069.82	85.413	2,069.82	83.1429	2,069.82	85.8649	2,069.82	83.1973	2,069.82	82.9519	2,069.82	82.267	2,069.82	80.8011	2,069.82	81.1084	2,069.82	78.2429	2,069.82	76.1842	2,069.82	75.7996	2,069.82	77.132	2,069.82	79.0183	2,069.82	80.6507	2,069.82	80.8526	2,069.82	81.2564	2,069.82	78.0119	2,069.82	78.291	2,069.82	62.3873	2,069.82	73.2099	2,069.82	60.4911	2,069.82	70.6229	2,069.82	64.5102	2,069.82	67.0634	2,069.82	68.7286	2,069.82	77.9012	2,069.82	79.3899	2,069.82	81.1774	2,069.82	82.9615
2,143.07	87.3663	2,143.07	87.0545	2,143.07	87.9541	2,143.07	85.2748	2,143.07	87.2113	2,143.07	85.6665	2,143.07	85.6575	2,143.07	85.5344	2,143.07	83.6697	2,143.07	85.6279	2,143.07	83.7393	2,143.07	83.2123	2,143.07	84.2908	2,143.07	81.004	2,143.07	82.0609	2,143.07	78.1128	2,143.07	78.9347	2,143.07	78.9825	2,143.07	77.8285	2,143.07	79.2217	2,143.07	81.9934	2,143.07	77.9577	2,143.07	82.8893	2,143.07	76.8428	2,143.07	78.3815	2,143.07	69.9425	2,143.07	65.9196	2,143.07	71.8038	2,143.07	65.164	2,143.07	54.391	2,143.07	62.5847	2,143.07	74.8596	2,143.07	76.6429	2,143.07	80.2092	2,143.07	81.4184	2,143.07	83.9662
2,219.24	86.623	2,219.24	86.8583	2,219.24	87.0843	2,219.24	86.6191	2,219.24	87.7291	2,219.24	87.0317	2,219.24	86.6199	2,219.24	85.2867	2,219.24	84.447	2,219.24	85.9005	2,219.24	85.2845	2,219.24	83.8746	2,219.24	84.4632	2,219.24	83.2384	2,219.24	83.2121	2,219.24	77.8409	2,219.24	79.3479	2,219.24	75.5893	2,219.24	80.2165	2,219.24	78.3404	2,219.24	81.0602	2,219.24	79.5305	2,219.24	80.5907	2,219.24	75.9186	2,219.24	77.352	2,219.24	70.4596	2,219.24	70.237	2,219.24	74.3968	2,219.24	62.3995	2,219.24	73.1478	2,219.24	54.737	2,219.24	76.359	2,219.24	75.0375	2,219.24	81.488	2,219.24	81.7405	2,219.24	83.2146
2,296.88	86.2982	2,296.88	85.7549	2,296.88	86.1071	2,296.88	87.3532	2,296.88	87.3591	2,296.88	86.9624	2,296.88	87.3333	2,296.88	86.2706	2,296.88	85.2482	2,296.88	85.9041	2,296.88	85.1497	2,296.88	84.7527	2,296.88	84.6844	2,296.88	81.0517	2,296.88	82.8591	2,296.88	78.9238	2,296.88	82.5803	2,296.88	79.9348	2,296.88	81.3001	2,296.88	79.7211	2,296.88	81.5654	2,296.88	76.4745	2,296.88	80.5373	2,296.88	73.9177	2,296.88	77.3789	2,296.88	66.9142	2,296.88	70.4186	2,296.88	70.8995	2,296.88	68.6891	2,296.88	74.8105	2,296.88	58.8722	2,296.88	73.3464	2,296.88	72.9769	2,296.88	81.2114	2,296.88	81.8186	2,296.88	83.6757
2,378.91	87.5064	2,378.91	86.8648	2,378.91	86.8362	2,378.91	87.7312	2,378.91	85.6737	2,378.91	86.485	2,378.91	87.2617	2,378.91	87.2532	2,378.91	86.5955	2,378.91	85.3809	2,378.91	86.1666	2,378.91	84.0803	2,378.91	85.2144	2,378.91	80.7913	2,378.91	82.6792	2,378.91	80.7619	2,378.91	83.6524	2,378.91	80.6339	2,378.91	84.4922	2,378.91	82.3614	2,378.91	84.3969	2,378.91	78.9949	2,378.91	82.0585	2,378.91	64.433	2,378.91	77.0689	2,378.91	60.7038	2,378.91	66.9682	2,378.91	69.1111	2,378.91	74.2928	2,378.91	76.8265	2,378.91	70.0558	2,378.91	75.5266	2,378.91	72.7367	2,378.91	80.9848	2,378.91	80.9	2,378.91	82.8153
2,462.4	88.1743	2,462.4	88.8425	2,462.4	88.4786	2,462.4	87.8982	2,462.4	86.6273	2,462.4	87.4918	2,462.4	86.6391	2,462.4	87.5491	2,462.4	87.1626	2,462.4	85.5009	2,462.4	87.1315	2,462.4	84.7499	2,462.4	84.5787	2,462.4	81.5003	2,462.4	82.8548	2,462.4	78.4612	2,462.4	81.5859	2,462.4	79.8341	2,462.4	83.156	2,462.4	79.0586	2,462.4	83.2144	2,462.4	77.1374	2,462.4	81.1298	2,462.4	70.1216	2,462.4	76.3406	2,462.4	69.2585	2,462.4	67.407	2,462.4	70.8325	2,462.4	76.2658	2,462.4	75.7791	2,462.4	74.657	2,462.4	78.9092	2,462.4	75.5069	2,462.4	82.4912	2,462.4	81.8452	2,462.4	85.0209
2,548.83	87.7498	2,548.83	89.0544	2,548.83	88.8691	2,548.83	89.2323	2,548.83	88.2404	2,548.83	87.9794	2,548.83	86.3017	2,548.83	86.1977	2,548.83	86.3532	2,548.83	84.9915	2,548.83	87.4282	2,548.83	85.0291	2,548.83	83.903	2,548.83	82.9054	2,548.83	80.5189	2,548.83	80.2817	2,548.83	82.0133	2,548.83	75.3738	2,548.83	84.3213	2,548.83	78.9779	2,548.83	81.8859	2,548.83	76.6488	2,548.83	78.5299	2,548.83	63.6701	2,548.83	71.4059	2,548.83	69.5709	2,548.83	73.3061	2,548.83	73.4313	2,548.83	77.1373	2,548.83	71.2334	2,548.83	76.8514	2,548.83	80.407	2,548.83	78.3859	2,548.83	82.4862	2,548.83	82.5547	2,548.83	85.4541
2,639.65	87.062	2,639.65	88.4229	2,639.65	87.8701	2,639.65	89.6328	2,639.65	89.7255	2,639.65	88.9591	2,639.65	87.5895	2,639.65	86.533	2,639.65	85.5248	2,639.65	86.6946	2,639.65	86.9629	2,639.65	84.2825	2,639.65	83.5586	2,639.65	83.8336	2,639.65	82.2641	2,639.65	80.0885	2,639.65	84.6887	2,639.65	82.106	2,639.65	84.6743	2,639.65	79.897	2,639.65	82.9812	2,639.65	75.2316	2,639.65	79.1315	2,639.65	62.6504	2,639.65	69.5145	2,639.65	74.2567	2,639.65	75.499	2,639.65	74.809	2,639.65	74.2678	2,639.65	69.7517	2,639.65	77.743	2,639.65	78.5169	2,639.65	78.7849	2,639.65	80.8298	2,639.65	82.2723	2,639.65	82.8954
2,731.93	86.4547	2,731.93	87.2683	2,731.93	86.6617	2,731.93	88.6424	2,731.93	88.9202	2,731.93	88.3443	2,731.93	87.9119	2,731.93	86.6824	2,731.93	86.4992	2,731.93	86.248	2,731.93	86.6934	2,731.93	84.2177	2,731.93	82.6411	2,731.93	83.1231	2,731.93	83.2014	2,731.93	81.9792	2,731.93	84.5197	2,731.93	80.5904	2,731.93	83.586	2,731.93	81.2343	2,731.93	83.0762	2,731.93	77.9063	2,731.93	80.2786	2,731.93	64.2877	2,731.93	72.2341	2,731.93	75.9663	2,731.93	75.309	2,731.93	78.4766	2,731.93	75.3288	2,731.93	73.5168	2,731.93	77.5664	2,731.93	74.6299	2,731.93	78.2558	2,731.93	78.3501	2,731.93	80.4158	2,731.93	79.4681
2,828.61	86.2565	2,828.61	87.7228	2,828.61	86.62	2,828.61	88.0895	2,828.61	88.2005	2,828.61	87.1621	2,828.61	88.0653	2,828.61	87.05	2,828.61	87.2247	2,828.61	86.308	2,828.61	86.1753	2,828.61	85.1946	2,828.61	82.614	2,828.61	82.4896	2,828.61	83.4406	2,828.61	81.6314	2,828.61	83.0871	2,828.61	79.3618	2,828.61	80.9571	2,828.61	79.0765	2,828.61	81.8259	2,828.61	76.0792	2,828.61	77.9678	2,828.61	65.1077	2,828.61	72.0935	2,828.61	77.5756	2,828.61	73.0861	2,828.61	80.5562	2,828.61	76.6965	2,828.61	77.331	2,828.61	76.682	2,828.61	75.4693	2,828.61	78.1279	2,828.61	79.0208	2,828.61	80.7814	2,828.61	79.5021
2,928.22	86.9768	2,928.22	88.7192	2,928.22	87.057	2,928.22	89.3917	2,928.22	88.9557	2,928.22	87.8447	2,928.22	88.7124	2,928.22	86.6534	2,928.22	87.2133	2,928.22	86.425	2,928.22	85.7765	2,928.22	86.173	2,928.22	84.0143	2,928.22	83.2574	2,928.22	83.5889	2,928.22	78.7163	2,928.22	80.0989	2,928.22	79.7294	2,928.22	74.9571	2,928.22	77.3146	2,928.22	79.7894	2,928.22	76.4339	2,928.22	75.1768	2,928.22	69.5577	2,928.22	71.2736	2,928.22	79.0548	2,928.22	73.2176	2,928.22	80.7864	2,928.22	77.5683	2,928.22	79.1186	2,928.22	76.6252	2,928.22	77.9902	2,928.22	79.4585	2,928.22	82.2427	2,928.22	81.6821	2,928.22	80.8727
3,030.76	87.1366	3,030.76	88.8837	3,030.76	86.5892	3,030.76	89.6899	3,030.76	88.8118	3,030.76	87.924	3,030.76	88.6349	3,030.76	86.7808	3,030.76	87.2369	3,030.76	86.3076	3,030.76	85.5804	3,030.76	85.4275	3,030.76	84.7807	3,030.76	81.7269	3,030.76	83.9948	3,030.76	80.6967	3,030.76	76.9597	3,030.76	81.7595	3,030.76	65.4973	3,030.76	79.925	3,030.76	74.813	3,030.76	72.5503	3,030.76	67.2998	3,030.76	61.7878	3,030.76	69.4258	3,030.76	78.6056	3,030.76	75.067	3,030.76	81.9093	3,030.76	77.7977	3,030.76	78.5515	3,030.76	77.9953	3,030.76	78.3211	3,030.76	79.292	3,030.76	83.0461	3,030.76	82.5707	3,030.76	81.5485
3,137.7	88.249	3,137.7	88.001	3,137.7	87.292	3,137.7	88.6519	3,137.7	88.5851	3,137.7	88.3841	3,137.7	88.6277	3,137.7	86.9859	3,137.7	87.1973	3,137.7	86.5352	3,137.7	84.1442	3,137.7	84.8241	3,137.7	84.5313	3,137.7	83.0784	3,137.7	83.9699	3,137.7	82.7995	3,137.7	75.595	3,137.7	81.0327	3,137.7	74.5019	3,137.7	78.9481	3,137.7	62.7472	3,137.7	71.0405	3,137.7	66.6271	3,137.7	62.1877	3,137.7	59.2747	3,137.7	77.101	3,137.7	75.4716	3,137.7	82.0517	3,137.7	78.3641	3,137.7	78.9018	3,137.7	77.732	3,137.7	77.2542	3,137.7	79.0213	3,137.7	82.1402	3,137.7	82.0939	3,137.7	82.5541
3,249.02	88.2994	3,249.02	87.5711	3,249.02	87.6483	3,249.02	87.8803	3,249.02	88.2316	3,249.02	88.269	3,249.02	88.4312	3,249.02	86.7927	3,249.02	87.5608	3,249.02	86.6305	3,249.02	84.2667	3,249.02	85.2387	3,249.02	85.1648	3,249.02	84.1287	3,249.02	84.8508	3,249.02	79.146	3,249.02	72.7104	3,249.02	78.489	3,249.02	79.0256	3,249.02	76.9243	3,249.02	74.1076	3,249.02	73.4292	3,249.02	69.4031	3,249.02	65.1512	3,249.02	67.5672	3,249.02	77.6245	3,249.02	75.9399	3,249.02	81.4477	3,249.02	80.0908	3,249.02	80.1901	3,249.02	77.9786	3,249.02	74.9809	3,249.02	79.5462	3,249.02	81.1805	3,249.02	81.4841	3,249.02	81.7555
3,363.28	87.407	3,363.28	86.8583	3,363.28	87.3185	3,363.28	86.9644	3,363.28	87.6752	3,363.28	87.5404	3,363.28	88.0075	3,363.28	86.9324	3,363.28	87.9509	3,363.28	85.8916	3,363.28	84.6847	3,363.28	84.5862	3,363.28	85.3921	3,363.28	82.081	3,363.28	84.8083	3,363.28	78.5485	3,363.28	79.2739	3,363.28	81.2128	3,363.28	82.0717	3,363.28	79.0148	3,363.28	78.2648	3,363.28	67.4888	3,363.28	68.9306	3,363.28	56.3585	3,363.28	71.0621	3,363.28	76.5341	3,363.28	74.0313	3,363.28	80.5059	3,363.28	80.8347	3,363.28	78.726	3,363.28	78.0432	3,363.28	71.9341	3,363.28	77.7885	3,363.28	80.2859	3,363.28	80.7212	3,363.28	80.3862
3,481.93	87.2588	3,481.93	86.3253	3,481.93	86.7305	3,481.93	87.6188	3,481.93	86.7661	3,481.93	87.7792	3,481.93	88.5912	3,481.93	86.9518	3,481.93	87.6661	3,481.93	84.7025	3,481.93	84.646	3,481.93	84.8032	3,481.93	85.6348	3,481.93	81.5891	3,481.93	82.8008	3,481.93	81.2325	3,481.93	81.1532	3,481.93	80.489	3,481.93	81.0288	3,481.93	78.8308	3,481.93	80.157	3,481.93	64.7989	3,481.93	72.1792	3,481.93	66.8536	3,481.93	74.1619	3,481.93	74.1769	3,481.93	73.2739	3,481.93	80.6486	3,481.93	79.9716	3,481.93	79.2709	3,481.93	78.1155	3,481.93	71.1534	3,481.93	78.1431	3,481.93	79.4585	3,481.93	79.0301	3,481.93	79.3621
3,604.98	87.1984	3,604.98	86.2129	3,604.98	87.0656	3,604.98	87.0195	3,604.98	85.4386	3,604.98	88.3988	3,604.98	88.1406	3,604.98	86.5216	3,604.98	87.9188	3,604.98	85.337	3,604.98	84.5467	3,604.98	84.4168	3,604.98	86.235	3,604.98	82.8049	3,604.98	79.0235	3,604.98	77.7063	3,604.98	81.7639	3,604.98	77.3728	3,604.98	78.8355	3,604.98	76.0946	3,604.98	78.6908	3,604.98	65.5247	3,604.98	69.0586	3,604.98	62.9973	3,604.98	72.2718	3,604.98	71.116	3,604.98	73.6285	3,604.98	78.9822	3,604.98	80.2558	3,604.98	78.5	3,604.98	78.3956	3,604.98	72.5192	3,604.98	77.0802	3,604.98	77.9968	3,604.98	76.5061	3,604.98	79.2222
3,732.42	87.2315	3,732.42	87.2565	3,732.42	88.2656	3,732.42	86.1644	3,732.42	85.6597	3,732.42	87.5355	3,732.42	86.3195	3,732.42	86.7605	3,732.42	87.0719	3,732.42	85.233	3,732.42	85.1462	3,732.42	83.669	3,732.42	85.906	3,732.42	82.1021	3,732.42	78.16	3,732.42	75.2598	3,732.42	80.2006	3,732.42	75.8659	3,732.42	72.4032	3,732.42	76.0299	3,732.42	76.7571	3,732.42	67.575	3,732.42	64.3501	3,732.42	67.8325	3,732.42	64.6985	3,732.42	69.5764	3,732.42	76.6698	3,732.42	77.2097	3,732.42	79.0966	3,732.42	77.8639	3,732.42	76.2744	3,732.42	73.2034	3,732.42	76.5066	3,732.42	78.0218	3,732.42	76.1222	3,732.42	78.9979
3,864.26	85.8332	3,864.26	86.4222	3,864.26	87.4894	3,864.26	86.3561	3,864.26	87.1493	3,864.26	86.731	3,864.26	85.9554	3,864.26	87.1135	3,864.26	86.4577	3,864.26	85.4398	3,864.26	86.3688	3,864.26	83.5746	3,864.26	84.196	3,864.26	81.0253	3,864.26	79.423	3,864.26	76.547	3,864.26	75.6228	3,864.26	76.2168	3,864.26	70.4805	3,864.26	76.4658	3,864.26	63.8588	3,864.26	66.3877	3,864.26	67.1586	3,864.26	69.1703	3,864.26	63.7424	3,864.26	68.288	3,864.26	74.2669	3,864.26	75.2411	3,864.26	75.7964	3,864.26	76.385	3,864.26	74.9103	3,864.26	72.0835	3,864.26	77.1114	3,864.26	77.9599	3,864.26	77.103	3,864.26	79.0782
4,000.49	86.5152	4,000.49	85.8148	4,000.49	85.4434	4,000.49	84.9733	4,000.49	85.7386	4,000.49	86.3584	4,000.49	85.3494	4,000.49	87.0805	4,000.49	85.3092	4,000.49	84.9625	4,000.49	86.6854	4,000.49	82.7679	4,000.49	81.1062	4,000.49	81.5244	4,000.49	76.7115	4,000.49	76.5477	4,000.49	77.3181	4,000.49	75.8232	4,000.49	73.7994	4,000.49	78.4284	4,000.49	63.4434	4,000.49	74.2827	4,000.49	75.9549	4,000.49	74.9326	4,000.49	55.9442	4,000.49	70.6781	4,000.49	65.794	4,000.49	73.6383	4,000.49	76.29	4,000.49	75.3538	4,000.49	74.7973	4,000.49	72.0286	4,000.49	78.3199	4,000.49	79.4967	4,000.49	76.2493	4,000.49	82.3166
4,141.11	88.6953	4,141.11	86.9056	4,141.11	86.9452	4,141.11	86.7243	4,141.11	85.1783	4,141.11	84.7929	4,141.11	85.5667	4,141.11	86.2935	4,141.11	84.8566	4,141.11	86.1031	4,141.11	87.6187	4,141.11	80.6321	4,141.11	77.9872	4,141.11	81.5437	4,141.11	77.3877	4,141.11	79.0274	4,141.11	78.3347	4,141.11	59.5021	4,141.11	70.9116	4,141.11	79.6138	4,141.11	77.6089	4,141.11	80.1705	4,141.11	81.5808	4,141.11	77.4121	4,141.11	72.0031	4,141.11	74.5839	4,141.11	70.6111	4,141.11	73.666	4,141.11	75.9348	4,141.11	77.062	4,141.11	77.9893	4,141.11	73.774	4,141.11	79.4989	4,141.11	81.8619	4,141.11	78.7355	4,141.11	85.265
4,287.6	87.8815	4,287.6	86.6059	4,287.6	86.4907	4,287.6	86.7657	4,287.6	84.1699	4,287.6	85.8875	4,287.6	86.4835	4,287.6	84.7812	4,287.6	85.8746	4,287.6	84.9786	4,287.6	85.3083	4,287.6	82.5995	4,287.6	77.86	4,287.6	80.0171	4,287.6	79.0713	4,287.6	81.7466	4,287.6	78.4522	4,287.6	78.3028	4,287.6	74.8952	4,287.6	70.7752	4,287.6	75.0793	4,287.6	75.7621	4,287.6	78.2184	4,287.6	71.6008	4,287.6	73.1771	4,287.6	65.962	4,287.6	69.0016	4,287.6	53.9162	4,287.6	69.1311	4,287.6	71.3458	4,287.6	66.6007	4,287.6	67.8691	4,287.6	70.7928	4,287.6	75.8077	4,287.6	72.4103	4,287.6	77.164
4,438.48	86.9978	4,438.48	86.6354	4,438.48	87.406	4,438.48	85.8807	4,438.48	85.7688	4,438.48	86.6514	4,438.48	84.8907	4,438.48	86.2536	4,438.48	85.6482	4,438.48	84.0949	4,438.48	84.0831	4,438.48	84.2346	4,438.48	79.939	4,438.48	82.1137	4,438.48	81.0478	4,438.48	80.7279	4,438.48	77.4551	4,438.48	76.8414	4,438.48	76.5246	4,438.48	71.1613	4,438.48	74.1693	4,438.48	66.3223	4,438.48	73.5797	4,438.48	65.4666	4,438.48	73.9626	4,438.48	52.3399	4,438.48	68.9056	4,438.48	55.4047	4,438.48	57.2782	4,438.48	64.1705	4,438.48	65.7662	4,438.48	59.9298	4,438.48	65.0985	4,438.48	63.0551	4,438.48	65.5586	4,438.48	58.7895
4,595.21	86.7041	4,595.21	86.4073	4,595.21	86.9912	4,595.21	86.0927	4,595.21	86.7057	4,595.21	86.9978	4,595.21	86.46	4,595.21	85.3326	4,595.21	85.4564	4,595.21	83.9513	4,595.21	81.6835	4,595.21	82.7471	4,595.21	83.1368	4,595.21	82.4247	4,595.21	81.3556	4,595.21	78.0202	4,595.21	75.7382	4,595.21	76.7671	4,595.21	76.7845	4,595.21	72.8822	4,595.21	74.647	4,595.21	69.2229	4,595.21	75.2724	4,595.21	63.9616	4,595.21	74.9109	4,595.21	42.325	4,595.21	69.1033	4,595.21	62.2843	4,595.21	64.8976	4,595.21	57.7264	4,595.21	69.029	4,595.21	47.1012	4,595.21	62.3763	4,595.21	56.1225	4,595.21	59.847	4,595.21	60.7827
4,756.35	88.1291	4,756.35	87.8388	4,756.35	87.0645	4,756.35	87.7354	4,756.35	87.6159	4,756.35	86.2223	4,756.35	87.7626	4,756.35	84.5406	4,756.35	85.5192	4,756.35	84.4388	4,756.35	82.336	4,756.35	84.6223	4,756.35	84.0276	4,756.35	81.052	4,756.35	82.1975	4,756.35	80.362	4,756.35	77.2555	4,756.35	76.4808	4,756.35	75.3221	4,756.35	72.038	4,756.35	76.9163	4,756.35	63.3995	4,756.35	73.8928	4,756.35	56.7721	4,756.35	74.0026	4,756.35	54.1072	4,756.35	65.2201	4,756.35	58.457	4,756.35	66.3337	4,756.35	49.3163	4,756.35	70.0079	4,756.35	47.612	4,756.35	63.3777	4,756.35	57.6067	4,756.35	45.4702	4,756.35	65.6692
4,924.8	88.2831	4,924.8	88.3844	4,924.8	87.4783	4,924.8	87.1222	4,924.8	87.8466	4,924.8	86.3073	4,924.8	87.558	4,924.8	85.3457	4,924.8	84.2955	4,924.8	84.0107	4,924.8	82.9828	4,924.8	84.0494	4,924.8	82.4174	4,924.8	81.4858	4,924.8	79.2265	4,924.8	77.5172	4,924.8	77.7488	4,924.8	73.5409	4,924.8	74.7492	4,924.8	70.4007	4,924.8	74.5693	4,924.8	58.5554	4,924.8	69.1574	4,924.8	66.1007	4,924.8	70.6645	4,924.8	50.6838	4,924.8	61.6859	4,924.8	57.6231	4,924.8	58.3992	4,924.8	51.5352	4,924.8	67.707	4,924.8	62.4093	4,924.8	62.8967	4,924.8	60.3308	4,924.8	54.803	4,924.8	64.3607
5,097.66	86.5156	5,097.66	86.8743	5,097.66	87.222	5,097.66	87.2637	5,097.66	88.2435	5,097.66	86.8121	5,097.66	86.6606	5,097.66	85.3704	5,097.66	84.0479	5,097.66	85.3611	5,097.66	84.4736	5,097.66	82.679	5,097.66	81.4201	5,097.66	79.7568	5,097.66	79.5325	5,097.66	75.8352	5,097.66	75.2226	5,097.66	74.6705	5,097.66	72.2581	5,097.66	69.7893	5,097.66	75.2691	5,097.66	57.8937	5,097.66	69.8244	5,097.66	61.7206	5,097.66	72.3778	5,097.66	58.7773	5,097.66	67.1368	5,097.66	59.0423	5,097.66	59.2838	5,097.66	51.4385	5,097.66	66.8484	5,097.66	63.9259	5,097.66	57.8214	5,097.66	58.9964	5,097.66	56.8187	5,097.66	65.8232
5,277.83	87.1737	5,277.83	87.1323	5,277.83	86.5564	5,277.83	87.239	5,277.83	87.718	5,277.83	85.8816	5,277.83	85.793	5,277.83	85.4801	5,277.83	84.4138	5,277.83	84.6576	5,277.83	84.5833	5,277.83	82.3818	5,277.83	80.1726	5,277.83	77.9201	5,277.83	79.3495	5,277.83	77.1542	5,277.83	76.9272	5,277.83	72.9074	5,277.83	75.3253	5,277.83	70.4206	5,277.83	76.2842	5,277.83	60.1573	5,277.83	69.8167	5,277.83	52.2536	5,277.83	72.1344	5,277.83	60.5715	5,277.83	61.0416	5,277.83	50.1213	5,277.83	27.7291	5,277.83	59.9021	5,277.83	69.9309	5,277.83	54.697	5,277.83	55.6013	5,277.83	60.4264	5,277.83	60.6784	5,277.83	66.6687
5,463.87	87.7643	5,463.87	88.0189	5,463.87	86.7355	5,463.87	87.0667	5,463.87	85.9258	5,463.87	84.9901	5,463.87	85.8843	5,463.87	86.0312	5,463.87	85.7102	5,463.87	84.2102	5,463.87	84.7286	5,463.87	80.1183	5,463.87	80.7328	5,463.87	79.5307	5,463.87	79.2043	5,463.87	76.9315	5,463.87	78.749	5,463.87	75.2572	5,463.87	74.8218	5,463.87	70.4596	5,463.87	74.2847	5,463.87	58.5918	5,463.87	72.4509	5,463.87	56.6496	5,463.87	71.9236	5,463.87	62.6178	5,463.87	63.3737	5,463.87	59.1007	5,463.87	66.0253	5,463.87	60.629	5,463.87	66.8149	5,463.87	64.2297	5,463.87	46.7761	5,463.87	60.2115	5,463.87	67.108	5,463.87	63.7617
5,657.23	88.1775	5,657.23	88.1597	5,657.23	87.8687	5,657.23	86.2895	5,657.23	84.7239	5,657.23	86.3356	5,657.23	85.0185	5,657.23	85.4405	5,657.23	85.5237	5,657.23	84.2071	5,657.23	82.9476	5,657.23	82.0436	5,657.23	81.0672	5,657.23	80.266	5,657.23	80.7871	5,657.23	79.9173	5,657.23	78.308	5,657.23	75.1798	5,657.23	75.2706	5,657.23	71.3875	5,657.23	69.7975	5,657.23	55.2873	5,657.23	74.6526	5,657.23	44.1063	5,657.23	72.4441	5,657.23	62.7433	5,657.23	66.708	5,657.23	64.0295	5,657.23	64.0052	5,657.23	58.8866	5,657.23	65.2742	5,657.23	61.3862	5,657.23	60.1595	5,657.23	53.6387	5,657.23	64.8131	5,657.23	69.5089
5,856.45	87.3361	5,856.45	87.8383	5,856.45	87.4582	5,856.45	86.1442	5,856.45	85.2519	5,856.45	84.3264	5,856.45	83.9988	5,856.45	84.6373	5,856.45	85.1761	5,856.45	83.5044	5,856.45	81.7054	5,856.45	82.3608	5,856.45	82.0234	5,856.45	81.1621	5,856.45	79.2831	5,856.45	77.1249	5,856.45	76.2024	5,856.45	74.611	5,856.45	75.1307	5,856.45	71.974	5,856.45	68.5683	5,856.45	59.7661	5,856.45	73.8282	5,856.45	57.8218	5,856.45	69.6875	5,856.45	66.8793	5,856.45	61.8115	5,856.45	65.4916	5,856.45	60.1539	5,856.45	43.7147	5,856.45	54.6605	5,856.45	64.4322	5,856.45	58.8883	5,856.45	66.0702	5,856.45	65.1028	5,856.45	72.948
6,062.99	87.875	6,062.99	88.1605	6,062.99	87.3893	6,062.99	86.6517	6,062.99	86.273	6,062.99	85.0885	6,062.99	84.0447	6,062.99	83.7706	6,062.99	85.1214	6,062.99	83.4781	6,062.99	82.8673	6,062.99	82.5144	6,062.99	82.0631	6,062.99	79.5836	6,062.99	76.5938	6,062.99	78.0304	6,062.99	74.3237	6,062.99	72.9803	6,062.99	69.8851	6,062.99	70.8754	6,062.99	65.6844	6,062.99	67.8911	6,062.99	74.1987	6,062.99	63.6392	6,062.99	63.3394	6,062.99	66.8131	6,062.99	69.607	6,062.99	69.7568	6,062.99	67.1177	6,062.99	58.3053	6,062.99	62.3005	6,062.99	67.1965	6,062.99	61.3685	6,062.99	64.5812	6,062.99	65.1856	6,062.99	73.0788
6,276.86	87.0826	6,276.86	87.7749	6,276.86	87.8448	6,276.86	86.8767	6,276.86	87.3588	6,276.86	86.4442	6,276.86	84.8374	6,276.86	84.0862	6,276.86	83.9644	6,276.86	84.1014	6,276.86	83.6318	6,276.86	83.3837	6,276.86	81.8242	6,276.86	79.8478	6,276.86	75.0976	6,276.86	73.8456	6,276.86	76.6876	6,276.86	72.4946	6,276.86	65.8552	6,276.86	57.4492	6,276.86	67.0987	6,276.86	66.6882	6,276.86	72.5815	6,276.86	65.2102	6,276.86	60.5585	6,276.86	68.3373	6,276.86	68.4261	6,276.86	68.7658	6,276.86	65.629	6,276.86	59.8827	6,276.86	59.9484	6,276.86	61.0455	6,276.86	62.3264	6,276.86	57.0065	6,276.86	59.6869	6,276.86	75.782
6,498.05	87.1669	6,498.05	87.4579	6,498.05	87.0826	6,498.05	87.0907	6,498.05	86.5577	6,498.05	85.5508	6,498.05	85.7137	6,498.05	84.4327	6,498.05	83.3461	6,498.05	84.2032	6,498.05	83.7326	6,498.05	82.5802	6,498.05	81.4805	6,498.05	78.554	6,498.05	76.5493	6,498.05	76.1931	6,498.05	71.8837	6,498.05	73.2464	6,498.05	62.5366	6,498.05	67.4731	6,498.05	70.744	6,498.05	60.5534	6,498.05	68.7818	6,498.05	66.7202	6,498.05	57.2437	6,498.05	69.184	6,498.05	63.5507	6,498.05	67.0479	6,498.05	67.5483	6,498.05	58.7585	6,498.05	48.7827	6,498.05	58.4433	6,498.05	57.895	6,498.05	54.988	6,498.05	57.5593	6,498.05	72.3608
6,726.56	87.0956	6,726.56	87.6234	6,726.56	86.4633	6,726.56	87.6194	6,726.56	85.4936	6,726.56	85.8238	6,726.56	86.0583	6,726.56	84.6711	6,726.56	82.2804	6,726.56	84.1717	6,726.56	82.9665	6,726.56	80.2487	6,726.56	79.8765	6,726.56	78.8125	6,726.56	76.826	6,726.56	77.0819	6,726.56	68.1475	6,726.56	76.0288	6,726.56	64.2734	6,726.56	69.248	6,726.56	70.16	6,726.56	45.1015	6,726.56	65.9374	6,726.56	66.2881	6,726.56	66.5413	6,726.56	67.6883	6,726.56	49.6691	6,726.56	62.3632	6,726.56	46.7613	6,726.56	62.3325	6,726.56	52.282	6,726.56	48.7944	6,726.56	62.4366	6,726.56	57.8163	6,726.56	57.4167	6,726.56	70.891
6,963.87	86.6086	6,963.87	87.1341	6,963.87	86.3297	6,963.87	86.7365	6,963.87	85.8577	6,963.87	85.323	6,963.87	86.0682	6,963.87	83.9211	6,963.87	82.9977	6,963.87	83.896	6,963.87	82.3851	6,963.87	80.324	6,963.87	80.0201	6,963.87	79.5394	6,963.87	78.1934	6,963.87	78.9649	6,963.87	70.9838	6,963.87	76.2858	6,963.87	66.772	6,963.87	66.6165	6,963.87	71.2148	6,963.87	54.9238	6,963.87	70.1505	6,963.87	68.7136	6,963.87	65.1316	6,963.87	62.5207	6,963.87	45.1513	6,963.87	60.8808	6,963.87	66.1114	6,963.87	61.1369	6,963.87	57.4282	6,963.87	56.6821	6,963.87	62.9276	6,963.87	57.1412	6,963.87	60.5675	6,963.87	68.6964
7,209.96	87.6382	7,209.96	87.6855	7,209.96	86.8707	7,209.96	86.9653	7,209.96	85.9404	7,209.96	84.8428	7,209.96	84.7278	7,209.96	84.2691	7,209.96	83.0346	7,209.96	82.5475	7,209.96	82.3044	7,209.96	81.1321	7,209.96	80.6945	7,209.96	80.9056	7,209.96	76.7276	7,209.96	77.8993	7,209.96	70.2676	7,209.96	74.9222	7,209.96	66.3067	7,209.96	69.5192	7,209.96	68.7385	7,209.96	47.5063	7,209.96	68.226	7,209.96	64.4497	7,209.96	67.2289	7,209.96	57.573	7,209.96	54.134	7,209.96	66.0108	7,209.96	71.1056	7,209.96	59.2256	7,209.96	51.9493	7,209.96	56.7318	7,209.96	64.4737	7,209.96	54.5867	7,209.96	46.248	7,209.96	69.3911
7,464.84	86.9165	7,464.84	86.7672	7,464.84	87.5763	7,464.84	86.5717	7,464.84	86.0967	7,464.84	84.9878	7,464.84	82.0864	7,464.84	83.4624	7,464.84	83.4204	7,464.84	81.9709	7,464.84	81.844	7,464.84	82.1241	7,464.84	79.366	7,464.84	79.8516	7,464.84	74.8714	7,464.84	76.3755	7,464.84	71.838	7,464.84	70.5758	7,464.84	64.8516	7,464.84	64.51	7,464.84	60.1519	7,464.84	56.0579	7,464.84	68.5922	7,464.84	58.0214	7,464.84	67.9588	7,464.84	58.1051	7,464.84	50.4933	7,464.84	64.4774	7,464.84	71.7392	7,464.84	56.8314	7,464.84	62.2182	7,464.84	59.2217	7,464.84	64.6435	7,464.84	57.8465	7,464.84	63.859	7,464.84	68.8525
7,727.05	86.1843	7,727.05	86.7174	7,727.05	86.1268	7,727.05	86.8032	7,727.05	85.9499	7,727.05	84.1809	7,727.05	83.3496	7,727.05	82.8215	7,727.05	83.3776	7,727.05	82.4755	7,727.05	79.8969	7,727.05	81.8488	7,727.05	78.4955	7,727.05	78.046	7,727.05	75.4342	7,727.05	74.8044	7,727.05	74.3635	7,727.05	71.5791	7,727.05	67.7276	7,727.05	61.4474	7,727.05	68.4324	7,727.05	53.9538	7,727.05	69.2449	7,727.05	60.9881	7,727.05	67.3421	7,727.05	61.2605	7,727.05	59.2559	7,727.05	58.9947	7,727.05	65.9651	7,727.05	58.9622	7,727.05	61.793	7,727.05	62.661	7,727.05	63.7659	7,727.05	60.1943	7,727.05	65.7342	7,727.05	64.1249
7,999.51	86.311	7,999.51	86.0319	7,999.51	85.4375	7,999.51	85.9981	7,999.51	85.6558	7,999.51	83.8529	7,999.51	83.9413	7,999.51	82.1527	7,999.51	82.8335	7,999.51	82.134	7,999.51	79.6238	7,999.51	80.7633	7,999.51	77.257	7,999.51	77.2683	7,999.51	74.5828	7,999.51	76.2439	7,999.51	73.2827	7,999.51	72.8096	7,999.51	63.6062	7,999.51	60.568	7,999.51	65.7995	7,999.51	58.0644	7,999.51	70.1366	7,999.51	60.676	7,999.51	65.5046	7,999.51	58.3743	7,999.51	61.2437	7,999.51	46.916	7,999.51	58.5024	7,999.51	63.2867	7,999.51	58.3027	7,999.51	66.1698	7,999.51	65.3511	7,999.51	62.3467	7,999.51	65.7143	7,999.51	60.0802
8,282.23	85.8782	8,282.23	85.7671	8,282.23	85.9146	8,282.23	85.9622	8,282.23	85.4423	8,282.23	82.8147	8,282.23	84.608	8,282.23	81.5873	8,282.23	81.3932	8,282.23	81.9442	8,282.23	78.9353	8,282.23	78.7066	8,282.23	76.9663	8,282.23	77.3566	8,282.23	72.499	8,282.23	77.2123	8,282.23	73.3926	8,282.23	73.087	8,282.23	52.2135	8,282.23	63.963	8,282.23	68.0595	8,282.23	58.8167	8,282.23	71.3477	8,282.23	59.2135	8,282.23	68.163	8,282.23	54.577	8,282.23	66.3403	8,282.23	51.4674	8,282.23	57.3601	8,282.23	62.5081	8,282.23	50.0548	8,282.23	65.9004	8,282.23	63.3696	8,282.23	63.581	8,282.23	64.166	8,282.23	61.6145
8,573.73	84.8473	8,573.73	84.4075	8,573.73	84.8801	8,573.73	84.2092	8,573.73	84.1181	8,573.73	81.8191	8,573.73	83.5412	8,573.73	80.6908	8,573.73	78.0888	8,573.73	80.3404	8,573.73	79.5649	8,573.73	78.145	8,573.73	76.0661	8,573.73	78.0006	8,573.73	76.2664	8,573.73	77.4043	8,573.73	67.4124	8,573.73	71.6382	8,573.73	59.1677	8,573.73	59.6556	8,573.73	56.763	8,573.73	62.5268	8,573.73	68.1323	8,573.73	54.2005	8,573.73	65.9807	8,573.73	54.5823	8,573.73	63.4802	8,573.73	55.1779	8,573.73	56.5829	8,573.73	63.6993	8,573.73	55.6931	8,573.73	64.0024	8,573.73	63.6876	8,573.73	67.9509	8,573.73	64.7021	8,573.73	61.0475
8,876.95	81.858	8,876.95	83.0954	8,876.95	81.2793	8,876.95	82.9815	8,876.95	82.2823	8,876.95	79.2155	8,876.95	81.2859	8,876.95	81.1442	8,876.95	76.2222	8,876.95	79.3624	8,876.95	78.0349	8,876.95	78.4887	8,876.95	77.3297	8,876.95	75.8997	8,876.95	74.1105	8,876.95	74.5942	8,876.95	66.0585	8,876.95	69.6234	8,876.95	65.0867	8,876.95	62.2193	8,876.95	59.1898	8,876.95	64.7213	8,876.95	64.4645	8,876.95	53.8268	8,876.95	63.4358	8,876.95	58.3191	8,876.95	62.0087	8,876.95	51.302	8,876.95	58.5702	8,876.95	62.647	8,876.95	53.4597	8,876.95	63.2817	8,876.95	67.3436	8,876.95	67.6721	8,876.95	66.9525	8,876.95	60.4663
9,188.96	81.5978	9,188.96	79.7644	9,188.96	81.2754	9,188.96	79.8877	9,188.96	80.3605	9,188.96	77.4109	9,188.96	77.1185	9,188.96	80.6088	9,188.96	75.334	9,188.96	78.351	9,188.96	77.6149	9,188.96	78.1837	9,188.96	76.5753	9,188.96	70.8058	9,188.96	72.3248	9,188.96	73.0604	9,188.96	64.5214	9,188.96	66.8767	9,188.96	65.7586	9,188.96	66.0888	9,188.96	66.3823	9,188.96	66.2089	9,188.96	69.0928	9,188.96	50.2623	9,188.96	57.4692	9,188.96	53.4926	9,188.96	60.5444	9,188.96	51.3406	9,188.96	62.7432	9,188.96	65.0986	9,188.96	58.7718	9,188.96	64.4935	9,188.96	66.5024	9,188.96	69.9015	9,188.96	66.0589	9,188.96	61.8401
9,514.16	80.0848	9,514.16	78.5547	9,514.16	80.1345	9,514.16	79.0191	9,514.16	77.0176	9,514.16	75.7947	9,514.16	74.677	9,514.16	80.122	9,514.16	75.5947	9,514.16	77.1638	9,514.16	77.0352	9,514.16	75.7228	9,514.16	75.4717	9,514.16	69.98	9,514.16	68.8269	9,514.16	73.7248	9,514.16	63.1861	9,514.16	69.2409	9,514.16	56.6355	9,514.16	67.0462	9,514.16	65.4507	9,514.16	68.5848	9,514.16	65.5923	9,514.16	60.6106	9,514.16	56.735	9,514.16	44.9994	9,514.16	60.532	9,514.16	57.6104	9,514.16	62.8376	9,514.16	66.0636	9,514.16	63.8516	9,514.16	67.2262	9,514.16	68.3324	9,514.16	70.0304	9,514.16	67.0377	9,514.16	62.3789
9,849.61	80.1019	9,849.61	78.2641	9,849.61	77.1788	9,849.61	78.6342	9,849.61	74.3764	9,849.61	77.8234	9,849.61	77.437	9,849.61	79.3737	9,849.61	77.755	9,849.61	76.0797	9,849.61	76.0038	9,849.61	72.0689	9,849.61	74.1758	9,849.61	72.1552	9,849.61	66.0164	9,849.61	73.2377	9,849.61	61.4911	9,849.61	64.6996	9,849.61	65.3833	9,849.61	68.8845	9,849.61	71.7016	9,849.61	65.9983	9,849.61	61.5901	9,849.61	42.6332	9,849.61	52.9704	9,849.61	51.508	9,849.61	56.7931	9,849.61	59.543	9,849.61	62.071	9,849.61	64.3707	9,849.61	65.2648	9,849.61	68.4348	9,849.61	65.898	9,849.61	68.981	9,849.61	66.7238	9,849.61	64.7165
10,196.8	81.7288	10,196.8	80.2398	10,196.8	77.7204	10,196.8	80.4508	10,196.8	75.4193	10,196.8	79.79	10,196.8	78.1027	10,196.8	79.0623	10,196.8	80.0103	10,196.8	73.2545	10,196.8	78.0042	10,196.8	70.094	10,196.8	74.3139	10,196.8	69.8033	10,196.8	63.3093	10,196.8	71.2334	10,196.8	59.3785	10,196.8	52.3132	10,196.8	64.7727	10,196.8	67.6137	10,196.8	72.1754	10,196.8	69.4732	10,196.8	56.1945	10,196.8	56.7801	10,196.8	48.9824	10,196.8	48.4459	10,196.8	57.9318	10,196.8	58.4207	10,196.8	58.396	10,196.8	65.9069	10,196.8	60.9755	10,196.8	65.2154	10,196.8	65.7242	10,196.8	69.4096	10,196.8	67.1034	10,196.8	64.3651
10,555.7	80.9474	10,555.7	81.1117	10,555.7	79.0152	10,555.7	81.6034	10,555.7	76.9797	10,555.7	81.2795	10,555.7	79.6858	10,555.7	79.4062	10,555.7	80.1775	10,555.7	69.4626	10,555.7	78.5226	10,555.7	71.646	10,555.7	72.1981	10,555.7	58.5636	10,555.7	63.5774	10,555.7	64.021	10,555.7	63.0509	10,555.7	59.0495	10,555.7	62.0684	10,555.7	67.9521	10,555.7	72.9092	10,555.7	68.0972	10,555.7	65.5192	10,555.7	52.9717	10,555.7	50.8641	10,555.7	54.9896	10,555.7	58.0753	10,555.7	54.1235	10,555.7	52.7635	10,555.7	64.1254	10,555.7	57.8671	10,555.7	63.9885	10,555.7	63.9988	10,555.7	67.6093	10,555.7	68.0954	10,555.7	64.7614
10,927.7	80.5308	10,927.7	81.4286	10,927.7	77.6768	10,927.7	81.9175	10,927.7	75.322	10,927.7	81.7682	10,927.7	80.1858	10,927.7	79.8287	10,927.7	79.0596	10,927.7	70.6472	10,927.7	79.1934	10,927.7	71.639	10,927.7	59.3863	10,927.7	70.6709	10,927.7	70.6966	10,927.7	59.8962	10,927.7	64.8157	10,927.7	58.3329	10,927.7	61.8116	10,927.7	69.8608	10,927.7	71.8206	10,927.7	68.8085	10,927.7	69.074	10,927.7	50.9614	10,927.7	60.6173	10,927.7	62.0009	10,927.7	59.0694	10,927.7	51.7946	10,927.7	59.09	10,927.7	64.5205	10,927.7	59.7664	10,927.7	63.6928	10,927.7	61.7896	10,927.7	68.4391	10,927.7	68.5779	10,927.7	65.9794
11,313	81.6835	11,313	81.9919	11,313	78.4114	11,313	82.0384	11,313	78.4841	11,313	80.985	11,313	79.5239	11,313	79.7046	11,313	77.5085	11,313	73.8366	11,313	80.1484	11,313	67.8608	11,313	68.7299	11,313	73.0906	11,313	71.2607	11,313	65.7657	11,313	67.6966	11,313	53.9809	11,313	66.9529	11,313	67.4349	11,313	70.6223	11,313	65.4042	11,313	68.7763	11,313	48.6752	11,313	62.8038	11,313	61.8942	11,313	62.5043	11,313	42.7505	11,313	61.7518	11,313	67.0195	11,313	55.7349	11,313	60.1735	11,313	54.2272	11,313	68.6247	11,313	68.5229	11,313	68.0662
11,712.9	82.2739	11,712.9	81.9051	11,712.9	82.1086	11,712.9	81.1486	11,712.9	80.9471	11,712.9	80.6038	11,712.9	80.3764	11,712.9	78.8466	11,712.9	75.1437	11,712.9	75.2332	11,712.9	80.2062	11,712.9	62.2663	11,712.9	72.6836	11,712.9	68.3241	11,712.9	68.514	11,712.9	66.03	11,712.9	66.0105	11,712.9	58.4321	11,712.9	68.994	11,712.9	65.3097	11,712.9	66.9756	11,712.9	65.9958	11,712.9	65.3303	11,712.9	46.8989	11,712.9	58.5675	11,712.9	61.6815	11,712.9	62.0063	11,712.9	50.6325	11,712.9	60.2484	11,712.9	67.2765	11,712.9	57.8074	11,712.9	60.9858	11,712.9	56.8423	11,712.9	68.9798	11,712.9	68.162	11,712.9	67.7479
12,126	83.7635	12,126	83.6226	12,126	82.1749	12,126	80.5566	12,126	80.7898	12,126	80.2217	12,126	81.3494	12,126	77.1459	12,126	74.8503	12,126	74.6299	12,126	78.0371	12,126	62.8322	12,126	72.1816	12,126	68.1382	12,126	60.5535	12,126	61.2602	12,126	63.2792	12,126	59.084	12,126	65.6388	12,126	65.4646	12,126	64.6098	12,126	66.4459	12,126	66.5227	12,126	49.1853	12,126	56.4624	12,126	61.3267	12,126	62.136	12,126	57.5273	12,126	57.9369	12,126	67.2366	12,126	57.7289	12,126	63.0317	12,126	60.3606	12,126	69.6746	12,126	66.826	12,126	64.7054
12,553.7	84.2785	12,553.7	83.678	12,553.7	82.992	12,553.7	80.082	12,553.7	79.5048	12,553.7	79.9908	12,553.7	80.729	12,553.7	74.8679	12,553.7	74.4972	12,553.7	74.7676	12,553.7	74.4258	12,553.7	64.8907	12,553.7	69.8671	12,553.7	72.6665	12,553.7	51.7837	12,553.7	61.8228	12,553.7	54.1788	12,553.7	65.4489	12,553.7	67.5551	12,553.7	64.0928	12,553.7	62.6511	12,553.7	60.9226	12,553.7	67.3282	12,553.7	57.9553	12,553.7	56.897	12,553.7	59.1983	12,553.7	55.7959	12,553.7	61.0075	12,553.7	48.982	12,553.7	67.9591	12,553.7	55.8095	12,553.7	61.8171	12,553.7	66.4308	12,553.7	70.6145	12,553.7	62.3495	12,553.7	56.9724
12,996.1	83.4165	12,996.1	82.4196	12,996.1	82.1345	12,996.1	79.9596	12,996.1	79.5078	12,996.1	79.1047	12,996.1	78.4387	12,996.1	72.81	12,996.1	75.6417	12,996.1	75.2893	12,996.1	74.3235	12,996.1	68.1904	12,996.1	62.2206	12,996.1	71.6532	12,996.1	63.479	12,996.1	49.1102	12,996.1	60.3486	12,996.1	69.2036	12,996.1	70.1621	12,996.1	64.2933	12,996.1	51.6076	12,996.1	56.7908	12,996.1	62.2259	12,996.1	62.8807	12,996.1	56.0685	12,996.1	60.2536	12,996.1	57.2104	12,996.1	64.6075	12,996.1	48.6283	12,996.1	68.7149	12,996.1	58.7776	12,996.1	59.0014	12,996.1	69.2464	12,996.1	71.1838	12,996.1	54.3833	12,996.1	56.5603
13,454.6	82.8213	13,454.6	82.1767	13,454.6	81.8189	13,454.6	79.8634	13,454.6	80.2409	13,454.6	78.2344	13,454.6	70.1901	13,454.6	70.8564	13,454.6	74.2441	13,454.6	75.1043	13,454.6	74.5098	13,454.6	66.8007	13,454.6	64.9148	13,454.6	66.5204	13,454.6	67.0269	13,454.6	65.9473	13,454.6	61.3795	13,454.6	68.1001	13,454.6	68.8715	13,454.6	64.0841	13,454.6	63.2664	13,454.6	58.9753	13,454.6	57.693	13,454.6	63.1186	13,454.6	57.5427	13,454.6	61.5748	13,454.6	58.1881	13,454.6	64.3648	13,454.6	53.478	13,454.6	66.7357	13,454.6	59.7658	13,454.6	56.1963	13,454.6	68.4604	13,454.6	70.3197	13,454.6	54.3444	13,454.6	65.5682
13,929.2	81.1554	13,929.2	80.9054	13,929.2	81.4386	13,929.2	79.5106	13,929.2	79.2904	13,929.2	76.5375	13,929.2	72.3379	13,929.2	68.9822	13,929.2	71.9677	13,929.2	74.4982	13,929.2	71.695	13,929.2	69.8355	13,929.2	62.7846	13,929.2	68.9701	13,929.2	67.6229	13,929.2	64.8769	13,929.2	51.6993	13,929.2	67.2432	13,929.2	69.9675	13,929.2	62.3095	13,929.2	63.94	13,929.2	47.4827	13,929.2	62.9946	13,929.2	63.6917	13,929.2	60.7775	13,929.2	60.6554	13,929.2	56.5387	13,929.2	62.1696	13,929.2	56.8571	13,929.2	60.9816	13,929.2	60.0211	13,929.2	43.6632	13,929.2	65.4535	13,929.2	67.0379	13,929.2	61.2003	13,929.2	66.7247
14,419.9	81.3151	14,419.9	79.8969	14,419.9	81.9418	14,419.9	77.9093	14,419.9	79.9825	14,419.9	74.5534	14,419.9	76.8231	14,419.9	66.3936	14,419.9	67.9594	14,419.9	74.7027	14,419.9	70.2153	14,419.9	67.9904	14,419.9	65.1883	14,419.9	72.7855	14,419.9	66.7082	14,419.9	50.6799	14,419.9	62.0979	14,419.9	66.6819	14,419.9	69.6922	14,419.9	58.7255	14,419.9	67.1077	14,419.9	47.6562	14,419.9	64.6324	14,419.9	64.1638	14,419.9	59.4606	14,419.9	61.23	14,419.9	51.0384	14,419.9	55.8127	14,419.9	61.6919	14,419.9	54.1888	14,419.9	57.5277	14,419.9	57.7962	14,419.9	60.3652	14,419.9	65.3551	14,419.9	64.308	14,419.9	63.9134
14,928.2	80.6874	14,928.2	79.0909	14,928.2	82.2671	14,928.2	77.3419	14,928.2	81.5523	14,928.2	73.471	14,928.2	74.9587	14,928.2	65.993	14,928.2	65.0167	14,928.2	73.7932	14,928.2	71.1186	14,928.2	65.9293	14,928.2	64.7544	14,928.2	69.6426	14,928.2	64.7493	14,928.2	60.8421	14,928.2	62.7253	14,928.2	64.1025	14,928.2	68.614	14,928.2	58.7866	14,928.2	63.8562	14,928.2	53.8597	14,928.2	61.5452	14,928.2	61.8185	14,928.2	51.6285	14,928.2	60.8467	14,928.2	43.2919	14,928.2	42.6705	14,928.2	59.7282	14,928.2	60.2729	14,928.2	55.0132	14,928.2	64.476	14,928.2	63.0758	14,928.2	66.7181	14,928.2	65.2482	14,928.2	58.0946
15,455.6	78.878	15,455.6	76.8309	15,455.6	82.2246	15,455.6	75.0848	15,455.6	81.6594	15,455.6	73.9645	15,455.6	71.3608	15,455.6	63.2366	15,455.6	64.306	15,455.6	71.5289	15,455.6	70.8777	15,455.6	70.4503	15,455.6	55.3813	15,455.6	68.0115	15,455.6	67.3955	15,455.6	63.1689	15,455.6	61.1004	15,455.6	62.699	15,455.6	67.7936	15,455.6	54.5908	15,455.6	60.9354	15,455.6	51.7263	15,455.6	59.9063	15,455.6	57.221	15,455.6	47.9661	15,455.6	61.9537	15,455.6	51.2063	15,455.6	37.6096	15,455.6	53.1078	15,455.6	63.4213	15,455.6	54.3943	15,455.6	62.722	15,455.6	62.3493	15,455.6	67.0767	15,455.6	64.4599	15,455.6	56.108
16,000.5	78.8196	16,000.5	77.211	16,000.5	80.7102	16,000.5	72.4693	16,000.5	78.7498	16,000.5	76.0047	16,000.5	71.0288	16,000.5	64.0509	16,000.5	69.4374	16,000.5	71.5542	16,000.5	67.4588	16,000.5	73.7653	16,000.5	59.3947	16,000.5	67.9477	16,000.5	66.4715	16,000.5	62.5154	16,000.5	60.841	16,000.5	63.0711	16,000.5	64.7594	16,000.5	47.8246	16,000.5	63.027	16,000.5	45.1467	16,000.5	63.8795	16,000.5	53.0982	16,000.5	52.4887	16,000.5	60.6322	16,000.5	47.7371	16,000.5	49.5739	16,000.5	43.8113	16,000.5	62.1438	16,000.5	52.2297	16,000.5	55.2122	16,000.5	60.2018	16,000.5	66.3112	16,000.5	65.9352	16,000.5	58.2365
16,564.5	77.9058	16,564.5	77.7891	16,564.5	80.1136	16,564.5	70.8625	16,564.5	76.1077	16,564.5	76.5845	16,564.5	70.5525	16,564.5	68.1276	16,564.5	71.3851	16,564.5	71.0453	16,564.5	63.3922	16,564.5	71.919	16,564.5	65.1816	16,564.5	61.4305	16,564.5	66.1157	16,564.5	65.6258	16,564.5	61.7756	16,564.5	58.8027	16,564.5	58.6788	16,564.5	31.7432	16,564.5	57.7983	16,564.5	50.5632	16,564.5	61.3473	16,564.5	52.1537	16,564.5	50.8563	16,564.5	51.4208	16,564.5	53.1068	16,564.5	50.2747	16,564.5	50.3279	16,564.5	54.5242	16,564.5	49.9058	16,564.5	51.9987	16,564.5	56.3024	16,564.5	64.3561	16,564.5	67.038	16,564.5	59.5407
17,148.9	78.5609	17,148.9	79.339	17,148.9	78.9463	17,148.9	71.0812	17,148.9	75.8191	17,148.9	77.3473	17,148.9	68.0256	17,148.9	70.4421	17,148.9	72.0341	17,148.9	69.7786	17,148.9	60.9437	17,148.9	72.2705	17,148.9	66.5954	17,148.9	64.6866	17,148.9	67.3702	17,148.9	63.9207	17,148.9	63.2207	17,148.9	56.1412	17,148.9	52.6118	17,148.9	43.6157	17,148.9	56.6257	17,148.9	53.5796	17,148.9	59.749	17,148.9	38.1828	17,148.9	46.115	17,148.9	47.1724	17,148.9	53.9956	17,148.9	47.7555	17,148.9	50.8162	17,148.9	49.0997	17,148.9	47.4638	17,148.9	57.5545	17,148.9	56.5136	17,148.9	62.8508	17,148.9	65.7181	17,148.9	60.1615
17,752.4	78.4875	17,752.4	79.2236	17,752.4	78.5287	17,752.4	71.5847	17,752.4	74.1573	17,752.4	76.4843	17,752.4	64.1078	17,752.4	72.0182	17,752.4	71.1221	17,752.4	70.3372	17,752.4	60.7531	17,752.4	72.4012	17,752.4	64.2243	17,752.4	65.2865	17,752.4	69.6022	17,752.4	61.6506	17,752.4	61.2533	17,752.4	53.6482	17,752.4	49.2988	17,752.4	51.1771	17,752.4	61.0562	17,752.4	54.0573	17,752.4	56.6319	17,752.4	47.9903	17,752.4	53.7073	17,752.4	55.177	17,752.4	51.9811	17,752.4	43.8076	17,752.4	53.208	17,752.4	45.9944	17,752.4	54.3579	17,752.4	44.5987	17,752.4	54.9371	17,752.4	63.4015	17,752.4	63.0097	17,752.4	64.0618
18,379.4	77.723	18,379.4	78.3604	18,379.4	77.1882	18,379.4	73.1668	18,379.4	73.3489	18,379.4	75.4715	18,379.4	65.0227	18,379.4	71.8768	18,379.4	69.493	18,379.4	69.2955	18,379.4	56.7941	18,379.4	69.2927	18,379.4	58.8693	18,379.4	62.4734	18,379.4	64.2818	18,379.4	57.6184	18,379.4	61.952	18,379.4	54.9288	18,379.4	45.8689	18,379.4	50.9148	18,379.4	58.6784	18,379.4	51.5699	18,379.4	46.7025	18,379.4	52.5076	18,379.4	54.6744	18,379.4	53.5494	18,379.4	54.833	18,379.4	53.6687	18,379.4	51.6211	18,379.4	45.709	18,379.4	59.419	18,379.4	56.8054	18,379.4	52.4396	18,379.4	63.539	18,379.4	59.2772	18,379.4	65.7076
19,026.9	76.4486	19,026.9	77.2441	19,026.9	76.9404	19,026.9	74.2691	19,026.9	74.3154	19,026.9	74.7292	19,026.9	67.9928	19,026.9	70.6412	19,026.9	66.966	19,026.9	66.8806	19,026.9	50.1799	19,026.9	66.4757	19,026.9	64.6391	19,026.9	58.9566	19,026.9	62.0485	19,026.9	53.81	19,026.9	62.2167	19,026.9	54.0203	19,026.9	55.6459	19,026.9	39.365	19,026.9	48.5962	19,026.9	46.0974	19,026.9	51.3134	19,026.9	56.1413	19,026.9	45.6545	19,026.9	52.4238	19,026.9	58.1826	19,026.9	56.6525	19,026.9	58.8287	19,026.9	51.0277	19,026.9	59.8784	19,026.9	59.4261	19,026.9	47.0893	19,026.9	62.1027	19,026.9	43.629	19,026.9	65.9499
19,697.8	74.5059	19,697.8	76.2043	19,697.8	75.5808	19,697.8	73.9155	19,697.8	70.9921	19,697.8	73.0115	19,697.8	65.8592	19,697.8	70.9305	19,697.8	64.5857	19,697.8	65.6675	19,697.8	53.7396	19,697.8	64.0285	19,697.8	66.0514	19,697.8	57.9999	19,697.8	63.9283	19,697.8	57.742	19,697.8	56.6878	19,697.8	49.739	19,697.8	56.9632	19,697.8	32.3903	19,697.8	50.0176	19,697.8	46.2562	19,697.8	59.1557	19,697.8	57.1754	19,697.8	55.346	19,697.8	47.5092	19,697.8	57.7973	19,697.8	52.7127	19,697.8	60.5866	19,697.8	54.1422	19,697.8	51.8488	19,697.8	59.0466	19,697.8	56.6022	19,697.8	60.9288	19,697.8	58.7478	19,697.8	66.0543
19,999.5	72.8734	19,999.5	75.7745	19,999.5	74.7559	19,999.5	73.6906	19,999.5	69.4772	19,999.5	71.5976	19,999.5	60.7771	19,999.5	71.223	19,999.5	62.9357	19,999.5	65.9212	19,999.5	54.8451	19,999.5	61.3792	19,999.5	66.5277	19,999.5	59.4826	19,999.5	65.5583	19,999.5	54.2996	19,999.5	51.8668	19,999.5	49.2456	19,999.5	58.8215	19,999.5	40.1223	19,999.5	49.7255	19,999.5	54.483	19,999.5	61.2994	19,999.5	58.3414	19,999.5	59.4455	19,999.5	52.7067	19,999.5	54.877	19,999.5	48.6055	19,999.5	58.7232	19,999.5	56.3945	19,999.5	53.6502	19,999.5	53.8126	19,999.5	35.6236	19,999.5	60.7821	19,999.5	59.824	19,999.5	66.0668
