"SPL Vertical"
"On-Axis"		"10°"		"-10°"		"20°"		"-20°"		"30°"		"-30°"		"40°"		"-40°"		"50°"		"-50°"		"60°"		"-60°"		"70°"		"-70°"		"80°"		"-80°"		"90°"		"-90°"		"100°"		"-100°"		"110°"		"-110°"		"120°"		"-120°"		"130°"		"-130°"		"140°"		"-140°"		"150°"		"-150°"		"160°"		"-160°"		"170°"		"-170°"		"180°"
"Frequency [Hz]"	"Sound Pessure Level [dB]   [2.83  V @ 1. m]"	"Frequency [Hz]"	"Sound Pessure Level [dB]   [2.83  V @ 1. m]"	"Frequency [Hz]"	"Sound Pessure Level [dB]   [2.83  V @ 1. m]"	"Frequency [Hz]"	"Sound Pessure Level [dB]   [2.83  V @ 1. m]"	"Frequency [Hz]"	"Sound Pessure Level [dB]   [2.83  V @ 1. m]"	"Frequency [Hz]"	"Sound Pessure Level [dB]   [2.83  V @ 1. m]"	"Frequency [Hz]"	"Sound Pessure Level [dB]   [2.83  V @ 1. m]"	"Frequency [Hz]"	"Sound Pessure Level [dB]   [2.83  V @ 1. m]"	"Frequency [Hz]"	"Sound Pessure Level [dB]   [2.83  V @ 1. m]"	"Frequency [Hz]"	"Sound Pessure Level [dB]   [2.83  V @ 1. m]"	"Frequency [Hz]"	"Sound Pessure Level [dB]   [2.83  V @ 1. m]"	"Frequency [Hz]"	"Sound Pessure Level [dB]   [2.83  V @ 1. m]"	"Frequency [Hz]"	"Sound Pessure Level [dB]   [2.83  V @ 1. m]"	"Frequency [Hz]"	"Sound Pessure Level [dB]   [2.83  V @ 1. m]"	"Frequency [Hz]"	"Sound Pessure Level [dB]   [2.83  V @ 1. m]"	"Frequency [Hz]"	"Sound Pessure Level [dB]   [2.83  V @ 1. m]"	"Frequency [Hz]"	"Sound Pessure Level [dB]   [2.83  V @ 1. m]"	"Frequency [Hz]"	"Sound Pessure Level [dB]   [2.83  V @ 1. m]"	"Frequency [Hz]"	"Sound Pessure Level [dB]   [2.83  V @ 1. m]"	"Frequency [Hz]"	"Sound Pessure Level [dB]   [2.83  V @ 1. m]"	"Frequency [Hz]"	"Sound Pessure Level [dB]   [2.83  V @ 1. m]"	"Frequency [Hz]"	"Sound Pessure Level [dB]   [2.83  V @ 1. m]"	"Frequency [Hz]"	"Sound Pessure Level [dB]   [2.83  V @ 1. m]"	"Frequency [Hz]"	"Sound Pessure Level [dB]   [2.83  V @ 1. m]"	"Frequency [Hz]"	"Sound Pessure Level [dB]   [2.83  V @ 1. m]"	"Frequency [Hz]"	"Sound Pessure Level [dB]   [2.83  V @ 1. m]"	"Frequency [Hz]"	"Sound Pessure Level [dB]   [2.83  V @ 1. m]"	"Frequency [Hz]"	"Sound Pessure Level [dB]   [2.83  V @ 1. m]"	"Frequency [Hz]"	"Sound Pessure Level [dB]   [2.83  V @ 1. m]"	"Frequency [Hz]"	"Sound Pessure Level [dB]   [2.83  V @ 1. m]"	"Frequency [Hz]"	"Sound Pessure Level [dB]   [2.83  V @ 1. m]"	"Frequency [Hz]"	"Sound Pessure Level [dB]   [2.83  V @ 1. m]"	"Frequency [Hz]"	"Sound Pessure Level [dB]   [2.83  V @ 1. m]"	"Frequency [Hz]"	"Sound Pessure Level [dB]   [2.83  V @ 1. m]"	"Frequency [Hz]"	"Sound Pessure Level [dB]   [2.83  V @ 1. m]"	"Frequency [Hz]"	"Sound Pessure Level [dB]   [2.83  V @ 1. m]"
20.5078	30.2535	20.5078	29.4967	20.5078	30.3623	20.5078	28.7734	20.5078	29.5828	20.5078	29.6494	20.5078	27.5622	20.5078	32.3709	20.5078	23.2698	20.5078	35.4379	20.5078	16.5012	20.5078	38.1378	20.5078	25.1303	20.5078	40.3908	20.5078	31.2543	20.5078	42.2569	20.5078	35.2382	20.5078	43.8037	20.5078	38.1743	20.5078	45.0845	20.5078	40.4774	20.5078	46.1373	20.5078	42.3435	20.5078	46.9886	20.5078	43.8794	20.5078	47.656	20.5078	45.1489	20.5078	48.1506	20.5078	46.1918	20.5078	48.4794	20.5078	47.0341	20.5078	48.646	20.5078	47.6925	20.5078	48.6517	20.5078	48.1777	20.5078	48.4962
21.9727	37.79	21.9727	38.137	21.9727	37.3173	21.9727	38.496	21.9727	36.6423	21.9727	39.033	21.9727	35.7913	21.9727	39.8702	21.9727	35.0152	21.9727	41.0123	21.9727	34.9267	21.9727	42.3554	21.9727	36.0584	21.9727	43.7659	21.9727	38.0718	21.9727	45.1406	21.9727	40.2904	21.9727	46.4175	21.9727	42.3616	21.9727	47.5645	21.9727	44.1874	21.9727	48.5661	21.9727	45.763	21.9727	49.4156	21.9727	47.1075	21.9727	50.1098	21.9727	48.2416	21.9727	50.6474	21.9727	49.1826	21.9727	51.0272	21.9727	49.943	21.9727	51.2485	21.9727	50.5315	21.9727	51.3106	21.9727	50.9536	21.9727	51.2127
23.4375	34.9825	23.4375	33.6896	23.4375	35.7073	23.4375	32.1096	23.4375	35.88	23.4375	31.6678	23.4375	35.5563	23.4375	33.8087	23.4375	34.8546	23.4375	36.9842	23.4375	34.153	23.4375	39.8961	23.4375	34.3159	23.4375	42.3377	23.4375	35.9339	23.4375	44.3652	23.4375	38.3565	23.4375	46.0525	23.4375	40.7993	23.4375	47.4557	23.4375	42.9729	23.4375	48.6131	23.4375	44.8347	23.4375	49.5507	23.4375	46.408	23.4375	50.2859	23.4375	47.7256	23.4375	50.8307	23.4375	48.8151	23.4375	51.1931	23.4375	49.6978	23.4375	51.3786	23.4375	50.3885	23.4375	51.3905	23.4375	50.8972	23.4375	51.2302
24.9023	43.7453	24.9023	43.7909	24.9023	43.7691	24.9023	43.9947	24.9023	43.812	24.9023	44.4495	24.9023	43.8725	24.9023	45.197	24.9023	43.9953	24.9023	46.1971	24.9023	44.2585	24.9023	47.352	24.9023	44.7419	24.9023	48.5571	24.9023	45.4821	24.9023	49.7322	24.9023	46.447	24.9023	50.826	24.9023	47.5538	24.9023	51.8089	24.9023	48.71	24.9023	52.6646	24.9023	49.8414	24.9023	53.3842	24.9023	50.8986	24.9023	53.9627	24.9023	51.8521	24.9023	54.3973	24.9023	52.6855	24.9023	54.6865	24.9023	53.3896	24.9023	54.8298	24.9023	53.959	24.9023	54.8274	24.9023	54.3901	24.9023	54.6803
26.3672	46.1448	26.3672	45.9897	26.3672	46.2595	26.3672	45.8828	26.3672	46.291	26.3672	45.9531	26.3672	46.2371	26.3672	46.3251	26.3672	46.1339	26.3672	47.0447	26.3672	46.0582	26.3672	48.0448	26.3672	46.123	26.3672	49.1953	26.3672	46.4448	26.3672	50.3732	26.3672	47.0823	26.3672	51.494	26.3672	47.9964	26.3672	52.509	26.3672	49.0783	26.3672	53.3924	26.3672	50.2114	26.3672	54.1317	26.3672	51.3085	26.3672	54.7207	26.3672	52.3162	26.3672	55.1569	26.3672	53.2054	26.3672	55.4393	26.3672	53.9612	26.3672	55.5684	26.3672	54.5765	26.3672	55.545	26.3672	55.0471	26.3672	55.3706
27.832	49.697	27.832	49.6136	27.832	49.753	27.832	49.5585	27.832	49.7549	27.832	49.6128	27.832	49.7037	27.832	49.8621	27.832	49.6272	27.832	50.3587	27.832	49.5804	27.832	51.0907	27.832	49.6405	27.832	51.989	27.832	49.8879	27.832	52.9634	27.832	50.3722	27.832	53.9343	27.832	51.0836	27.832	54.8448	27.832	51.9589	27.832	55.6585	27.832	52.9127	27.832	56.3534	27.832	53.8685	27.832	56.9166	27.832	54.7701	27.832	57.3406	27.832	55.5813	27.832	57.6211	27.832	56.2799	27.832	57.7562	27.832	56.8524	27.832	57.7454	27.832	57.2907	27.832	57.5895
29.2969	51.6758	29.2969	51.6178	29.2969	51.664	29.2969	51.5287	29.2969	51.567	29.2969	51.4733	29.2969	51.3908	29.2969	51.5372	29.2969	51.1647	29.2969	51.8036	29.2969	50.9461	29.2969	52.3138	29.2969	50.8238	29.2969	53.0433	29.2969	50.9026	29.2969	53.9155	29.2969	51.2628	29.2969	54.8395	29.2969	51.9118	29.2969	55.7396	29.2969	52.7788	29.2969	56.5626	29.2969	53.7572	29.2969	57.2756	29.2969	54.75	29.2969	57.859	29.2969	55.6887	29.2969	58.3019	29.2969	56.531	29.2969	58.5984	29.2969	57.2529	29.2969	58.7455	29.2969	57.8411	29.2969	58.7424	29.2969	58.2881	29.2969	58.5894
30.7617	53.6722	30.7617	53.6003	30.7617	53.6931	30.7617	53.5161	30.7617	53.6481	30.7617	53.4823	30.7617	53.5447	30.7617	53.5776	30.7617	53.413	30.7617	53.8715	30.7617	53.3072	30.7617	54.392	30.7617	53.301	30.7617	55.1088	30.7617	53.4717	30.7617	55.9501	30.7617	53.8688	30.7617	56.8343	30.7617	54.4881	30.7617	57.6936	30.7617	55.2736	30.7617	58.4801	30.7617	56.1454	30.7617	59.1634	30.7617	57.029	30.7617	59.7251	30.7617	57.868	30.7617	60.1548	30.7617	58.625	30.7617	60.4467	30.7617	59.2764	30.7617	60.5981	30.7617	59.8078	30.7617	60.6084	30.7617	60.2104	30.7617	60.4784
32.2266	56.0027	32.2266	55.9733	32.2266	56.0169	32.2266	55.9565	32.2266	56.0052	32.2266	55.9953	32.2266	55.9731	32.2266	56.1404	32.2266	55.942	32.2266	56.4352	32.2266	55.9473	32.2266	56.897	32.2266	56.0339	32.2266	57.5076	32.2266	56.2456	32.2266	58.2204	32.2266	56.6101	32.2266	58.9773	32.2266	57.1266	32.2266	59.7246	32.2266	57.7654	32.2266	60.4198	32.2266	58.4785	32.2266	61.0324	32.2266	59.2144	32.2266	61.5421	32.2266	59.9282	32.2266	61.9357	32.2266	60.5849	32.2266	62.2053	32.2266	61.1595	32.2266	62.3465	32.2266	61.6345	32.2266	62.358	32.2266	61.9976	32.2266	62.2406
33.6914	58.68	33.6914	58.6357	33.6914	58.7058	33.6914	58.5965	33.6914	58.7027	33.6914	58.597	33.6914	58.673	33.6914	58.6786	33.6914	58.6309	33.6914	58.8787	33.6914	58.6022	33.6914	59.2173	33.6914	58.6214	33.6914	59.6883	33.6914	58.7262	33.6914	60.2609	33.6914	58.9476	33.6914	60.8896	33.6914	59.2994	33.6914	61.527	33.6914	59.7718	33.6914	62.1318	33.6914	60.3344	33.6914	62.6722	33.6914	60.9457	33.6914	63.125	33.6914	61.563	33.6914	63.4746	33.6914	62.1493	33.6914	63.7111	33.6914	62.6754	33.6914	63.8289	33.6914	63.1194	33.6914	63.8261	33.6914	63.4657	33.6914	63.7037
35.1562	60.3054	35.1562	60.2965	35.1562	60.3069	35.1562	60.3001	35.1562	60.2923	35.1562	60.3457	35.1562	60.2638	35.1562	60.4668	35.1562	60.2349	35.1562	60.6931	35.1562	60.2286	35.1562	61.0393	35.1562	60.2753	35.1562	61.4992	35.1562	60.407	35.1562	62.0462	35.1562	60.6483	35.1562	62.6415	35.1562	61.0088	35.1562	63.2439	35.1562	61.4776	35.1562	63.8162	35.1562	62.0267	35.1562	64.3287	35.1562	62.6189	35.1562	64.7591	35.1562	63.2155	35.1562	65.0916	35.1562	63.7826	35.1562	65.3159	35.1562	64.2926	35.1562	65.4259	35.1562	64.7245	35.1562	65.4193	35.1562	65.063	35.1562	65.297
36.6211	62.284	36.6211	62.2763	36.6211	62.2859	36.6211	62.28	36.6211	62.2738	36.6211	62.3197	36.6211	62.249	36.6211	62.4236	36.6211	62.222	36.6211	62.6163	36.6211	62.2113	36.6211	62.9114	36.6211	62.2421	36.6211	63.306	36.6211	62.3415	36.6211	63.7801	36.6211	62.5324	36.6211	64.3024	36.6211	62.8265	36.6211	64.8371	36.6211	63.2194	36.6211	65.3505	36.6211	63.6912	36.6211	65.8139	36.6211	64.2113	36.6211	66.2051	36.6211	64.7455	36.6211	66.5078	36.6211	65.2616	36.6211	66.7109	36.6211	65.7319	36.6211	66.8079	36.6211	66.1347	36.6211	66.7962	36.6211	66.4535	36.6211	66.6766
38.0859	63.7003	38.0859	63.7103	38.0859	63.6937	38.0859	63.7382	38.0859	63.6833	38.0859	63.8044	38.0859	63.6702	38.0859	63.9312	38.0859	63.6631	38.0859	64.1374	38.0859	63.6777	38.0859	64.4329	38.0859	63.7349	38.0859	64.8138	38.0859	63.8567	38.0859	65.2631	38.0859	64.0609	38.0859	65.7539	38.0859	64.3559	38.0859	66.2553	38.0859	64.7368	38.0859	66.7371	38.0859	65.1858	38.0859	67.1732	38.0859	65.6764	38.0859	67.5425	38.0859	66.1785	38.0859	67.8292	38.0859	66.6632	38.0859	68.0224	38.0859	67.1052	38.0859	68.1156	38.0859	67.4841	38.0859	68.1058	38.0859	67.7842	38.0859	67.994
39.5508	65.642	39.5508	65.661	39.5508	65.6259	39.5508	65.6946	39.5508	65.6071	39.5508	65.7593	39.5508	65.5866	39.5508	65.8738	39.5508	65.572	39.5508	66.0541	39.5508	65.5767	39.5508	66.3098	39.5508	65.6183	39.5508	66.6396	39.5508	65.7157	39.5508	67.031	39.5508	65.885	39.5508	67.4622	39.5508	66.1348	39.5508	67.9067	39.5508	66.463	39.5508	68.3375	39.5508	66.8565	39.5508	68.7298	39.5508	67.2934	39.5508	69.0632	39.5508	67.7472	39.5508	69.3216	39.5508	68.1913	39.5508	69.494	39.5508	68.6014	39.5508	69.5733	39.5508	68.9571	39.5508	69.5566	39.5508	69.2422	39.5508	69.4447
41.0156	67.5583	41.0156	67.5755	41.0156	67.5407	41.0156	67.6015	41.0156	67.5183	41.0156	67.6497	41.0156	67.4922	41.0156	67.7354	41.0156	67.4684	41.0156	67.8732	41.0156	67.4578	41.0156	68.0734	41.0156	67.4751	41.0156	68.3383	41.0156	67.5366	41.0156	68.6608	41.0156	67.6575	41.0156	69.0252	41.0156	67.8478	41.0156	69.4093	41.0156	68.1095	41.0156	69.7886	41.0156	68.4347	41.0156	70.1393	41.0156	68.8072	41.0156	70.4404	41.0156	69.2045	41.0156	70.675	41.0156	69.6022	41.0156	70.8307	41.0156	69.9765	41.0156	70.8997	41.0156	70.3066	41.0156	70.8788	41.0156	70.5752	41.0156	70.769
42.4805	68.3011	42.4805	68.3402	42.4805	68.272	42.4805	68.3992	42.4805	68.2482	42.4805	68.492	42.4805	68.2308	42.4805	68.6332	42.4805	68.2268	42.4805	68.8349	42.4805	68.2481	42.4805	69.1028	42.4805	68.3095	42.4805	69.4337	42.4805	68.4263	42.4805	69.8152	42.4805	68.6106	42.4805	70.2278	42.4805	68.8676	42.4805	70.6479	42.4805	69.1936	42.4805	71.0516	42.4805	69.5757	42.4805	71.4168	42.4805	69.9942	42.4805	71.7249	42.4805	70.426	42.4805	71.9616	42.4805	70.8475	42.4805	72.1165	42.4805	71.2372	42.4805	72.1835	42.4805	71.5764	42.4805	72.1602	42.4805	71.8504	42.4805	72.0476
43.9453	70.2861	43.9453	70.3313	43.9453	70.2547	43.9453	70.3969	43.9453	70.234	43.9453	70.4915	43.9453	70.2247	43.9453	70.6245	43.9453	70.231	43.9453	70.8033	43.9453	70.2609	43.9453	71.0318	43.9453	70.3243	43.9453	71.3083	43.9453	70.4316	43.9453	71.6246	43.9453	70.5915	43.9453	71.9671	43.9453	70.8081	43.9453	72.3183	43.9453	71.0796	43.9453	72.6589	43.9453	71.3977	43.9453	72.9703	43.9453	71.748	43.9453	73.2356	43.9453	72.1128	43.9453	73.4411	43.9453	72.4725	43.9453	73.5765	43.9453	72.8082	43.9453	73.6353	43.9453	73.103	43.9453	73.6148	43.9453	73.3425	43.9453	73.5157
45.4102	71.7546	45.4102	71.7977	45.4102	71.7258	45.4102	71.8605	45.4102	71.7091	45.4102	71.9501	45.4102	71.7052	45.4102	72.0744	45.4102	71.718	45.4102	72.2404	45.4102	71.7539	45.4102	72.4517	45.4102	71.8212	45.4102	72.7073	45.4102	71.9284	45.4102	73.0006	45.4102	72.0824	45.4102	73.3195	45.4102	72.2865	45.4102	73.6483	45.4102	72.5393	45.4102	73.969	45.4102	72.8336	45.4102	74.2638	45.4102	73.1573	45.4102	74.5166	45.4102	73.4945	45.4102	74.7137	45.4102	73.8277	45.4102	74.8451	45.4102	74.1395	45.4102	74.9041	45.4102	74.4137	45.4102	74.8879	45.4102	74.6366	45.4102	74.7973
46.875	73.2325	46.875	73.268	46.875	73.2089	46.875	73.3203	46.875	73.1949	46.875	73.396	46.875	73.1912	46.875	73.5027	46.875	73.2011	46.875	73.6469	46.875	73.2304	46.875	73.8324	46.875	73.2864	46.875	74.059	46.875	73.3769	46.875	74.3212	46.875	73.5087	46.875	74.6085	46.875	73.6855	46.875	74.9068	46.875	73.9071	46.875	75.1998	46.875	74.1679	46.875	75.4707	46.875	74.4579	46.875	75.7043	46.875	74.763	46.875	75.8873	46.875	75.0672	46.875	76.0097	46.875	75.3541	46.875	76.0648	46.875	75.6079	46.875	76.0497	46.875	75.8152	46.875	75.965
48.3398	74.4128	48.3398	74.4539	48.3398	74.3874	48.3398	74.5151	48.3398	74.3754	48.3398	74.6022	48.3398	74.3768	48.3398	74.721	48.3398	74.3941	48.3398	74.8758	48.3398	74.4319	48.3398	75.0686	48.3398	74.4962	48.3398	75.2972	48.3398	74.5933	48.3398	75.5555	48.3398	74.7286	48.3398	75.8332	48.3398	74.9047	48.3398	76.1175	48.3398	75.121	48.3398	76.3937	48.3398	75.3722	48.3398	76.647	48.3398	75.6491	48.3398	76.8635	48.3398	75.9392	48.3398	77.0316	48.3398	76.228	48.3398	77.1421	48.3398	76.5005	48.3398	77.1891	48.3398	76.7423	48.3398	77.1701	48.3398	76.9409	48.3398	77.0859
51.2695	76.6677	51.2695	76.7219	51.2695	76.6321	51.2695	76.7969	51.2695	76.6138	51.2695	76.8955	51.2695	76.613	51.2695	77.0202	51.2695	76.6312	51.2695	77.1727	51.2695	76.6712	51.2695	77.353	51.2695	76.7363	51.2695	77.5586	51.2695	76.8302	51.2695	77.7843	51.2695	76.9558	51.2695	78.0223	51.2695	77.1144	51.2695	78.2626	51.2695	77.3048	51.2695	78.4937	51.2695	77.5231	51.2695	78.7037	51.2695	77.7621	51.2695	78.8814	51.2695	78.0125	51.2695	79.0168	51.2695	78.2627	51.2695	79.1023	51.2695	78.5005	51.2695	79.133	51.2695	78.7138	51.2695	79.1068	51.2695	78.8918	51.2695	79.0251
52.7344	77.6911	52.7344	77.748	52.7344	77.6511	52.7344	77.8232	52.7344	77.6276	52.7344	77.9185	52.7344	77.6209	52.7344	78.0357	52.7344	77.6327	52.7344	78.1762	52.7344	77.6653	52.7344	78.3397	52.7344	77.7216	52.7344	78.5244	52.7344	77.8047	52.7344	78.7263	52.7344	77.9171	52.7344	78.9387	52.7344	78.0598	52.7344	79.1531	52.7344	78.2319	52.7344	79.3596	52.7344	78.4299	52.7344	79.5473	52.7344	78.6479	52.7344	79.7059	52.7344	78.8772	52.7344	79.8263	52.7344	79.1075	52.7344	79.9012	52.7344	79.3276	52.7344	79.9257	52.7344	79.5263	52.7344	79.898	52.7344	79.6931	52.7344	79.8192
54.1992	78.5949	54.1992	78.6516	54.1992	78.5545	54.1992	78.7255	54.1992	78.53	54.1992	78.8179	54.1992	78.5218	54.1992	78.93	54.1992	78.5312	54.1992	79.0627	54.1992	78.5601	54.1992	79.2156	54.1992	78.611	54.1992	79.3868	54.1992	78.6862	54.1992	79.5727	54.1992	78.788	54.1992	79.7675	54.1992	78.9173	54.1992	79.9634	54.1992	79.0734	54.1992	80.1514	54.1992	79.2536	54.1992	80.3217	54.1992	79.4527	54.1992	80.4648	54.1992	79.6632	54.1992	80.5721	54.1992	79.8759	54.1992	80.6369	54.1992	80.0806	54.1992	80.6548	54.1992	80.2669	54.1992	80.6241	54.1992	80.4249	54.1992	80.5461
55.6641	79.2709	55.6641	79.3226	55.6641	79.2354	55.6641	79.3915	55.6641	79.2158	55.6641	79.4788	55.6641	79.212	55.6641	79.5855	55.6641	79.225	55.6641	79.712	55.6641	79.2563	55.6641	79.8576	55.6641	79.3079	55.6641	80.0205	55.6641	79.3818	55.6641	80.1969	55.6641	79.4798	55.6641	80.3812	55.6641	79.6028	55.6641	80.5663	55.6641	79.75	55.6641	80.7438	55.6641	79.9189	55.6641	80.9047	55.6641	80.1047	55.6641	81.04	55.6641	80.3009	55.6641	81.1418	55.6641	80.499	55.6641	81.2038	55.6641	80.6895	55.6641	81.2217	55.6641	80.8628	55.6641	81.1941	55.6641	81.0097	55.6641	81.1222
58.5938	80.2381	58.5938	80.2929	58.5938	80.2002	58.5938	80.3651	58.5938	80.1792	58.5938	80.4546	58.5938	80.175	58.5938	80.5614	58.5938	80.1883	58.5938	80.6847	58.5938	80.2197	58.5938	80.8227	58.5938	80.2704	58.5938	80.9729	58.5938	80.3412	58.5938	81.1317	58.5938	80.4329	58.5938	81.2939	58.5938	80.5454	58.5938	81.4539	58.5938	80.6778	58.5938	81.6047	58.5938	80.8277	58.5938	81.7392	58.5938	80.9911	58.5938	81.8503	58.5938	81.1628	58.5938	81.9316	58.5938	81.336	58.5938	81.9783	58.5938	81.503	58.5938	81.987	58.5938	81.6559	58.5938	81.9568	58.5938	81.7868	58.5938	81.8889
60.0586	80.6098	60.0586	80.6667	60.0586	80.5691	60.0586	80.7396	60.0586	80.5451	60.0586	80.8279	60.0586	80.538	60.0586	80.9311	60.0586	80.5485	60.0586	81.0481	60.0586	80.5772	60.0586	81.1773	60.0586	80.6247	60.0586	81.3164	60.0586	80.6916	60.0586	81.4622	60.0586	80.7782	60.0586	81.6104	60.0586	80.884	60.0586	81.7559	60.0586	81.008	60.0586	81.8927	60.0586	81.1479	60.0586	82.0144	60.0586	81.3001	60.0586	82.1144	60.0586	81.4597	60.0586	82.187	60.0586	81.6207	60.0586	82.2275	60.0586	81.7762	60.0586	82.2331	60.0586	81.9188	60.0586	82.2028	60.0586	82.0415	60.0586	82.1378
62.9883	81.0631	62.9883	81.1207	62.9883	81.022	62.9883	81.1938	62.9883	80.9979	62.9883	81.2816	62.9883	80.9913	62.9883	81.3826	62.9883	81.0022	62.9883	81.4949	62.9883	81.0309	62.9883	81.6165	62.9883	81.0773	62.9883	81.7445	62.9883	81.1411	62.9883	81.8758	62.9883	81.222	62.9883	82.0066	62.9883	81.3189	62.9883	82.1325	62.9883	81.4306	62.9883	82.2488	62.9883	81.5548	62.9883	82.3503	62.9883	81.6887	62.9883	82.432	62.9883	81.8283	62.9883	82.4893	62.9883	81.9688	62.9883	82.5187	62.9883	82.1047	62.9883	82.518	62.9883	82.2301	62.9883	82.4867	62.9883	82.339	62.9883	82.426
64.4531	81.2964	64.4531	81.3542	64.4531	81.2544	64.4531	81.4268	64.4531	81.2291	64.4531	81.5129	64.4531	81.2209	64.4531	81.6107	64.4531	81.2299	64.4531	81.7183	64.4531	81.2562	64.4531	81.8333	64.4531	81.2996	64.4531	81.953	64.4531	81.3595	64.4531	82.0744	64.4531	81.4352	64.4531	82.194	64.4531	81.5256	64.4531	82.308	64.4531	81.6293	64.4531	82.4121	64.4531	81.7442	64.4531	82.502	64.4531	81.8677	64.4531	82.5732	64.4531	81.9962	64.4531	82.6219	64.4531	82.1256	64.4531	82.645	64.4531	82.2509	64.4531	82.6407	64.4531	82.367	64.4531	82.6087	64.4531	82.4685	64.4531	82.5504
67.3828	81.5988	67.3828	81.6549	67.3828	81.5579	67.3828	81.725	67.3828	81.5334	67.3828	81.807	67.3828	81.5259	67.3828	81.8988	67.3828	81.5355	67.3828	81.9982	67.3828	81.5618	67.3828	82.1024	67.3828	81.604	67.3828	82.2089	67.3828	81.6612	67.3828	82.3148	67.3828	81.7319	67.3828	82.4174	67.3828	81.8146	67.3828	82.5135	67.3828	81.9075	67.3828	82.5997	67.3828	82.0086	67.3828	82.6729	67.3828	82.1155	67.3828	82.7297	67.3828	82.2255	67.3828	82.7673	67.3828	82.3354	67.3828	82.7833	67.3828	82.4414	67.3828	82.7767	67.3828	82.5396	67.3828	82.7472	67.3828	82.6258	67.3828	82.6961
68.8477	81.7192	68.8477	81.7706	68.8477	81.6831	68.8477	81.8357	68.8477	81.6632	68.8477	81.9125	68.8477	81.66	68.8477	81.9989	68.8477	81.6735	68.8477	82.0924	68.8477	81.703	68.8477	82.1905	68.8477	81.7476	68.8477	82.2904	68.8477	81.8057	68.8477	82.3895	68.8477	81.8757	68.8477	82.4852	68.8477	81.9559	68.8477	82.5745	68.8477	82.0443	68.8477	82.6546	68.8477	82.1389	68.8477	82.7227	68.8477	82.2375	68.8477	82.7757	68.8477	82.3376	68.8477	82.8114	68.8477	82.4365	68.8477	82.8277	68.8477	82.5312	68.8477	82.8236	68.8477	82.6181	68.8477	82.7991	68.8477	82.6939	68.8477	82.7551
71.7773	81.9566	71.7773	82.0013	71.7773	81.9266	71.7773	82.0592	71.7773	81.9123	71.7773	82.1283	71.7773	81.914	71.7773	82.2058	71.7773	81.9313	71.7773	82.2893	71.7773	81.963	71.7773	82.3759	71.7773	82.0078	71.7773	82.4628	71.7773	82.0637	71.7773	82.5476	71.7773	82.1285	71.7773	82.6278	71.7773	82.2004	71.7773	82.7013	71.7773	82.2772	71.7773	82.766	71.7773	82.357	71.7773	82.8198	71.7773	82.438	71.7773	82.8611	71.7773	82.5185	71.7773	82.8883	71.7773	82.5967	71.7773	82.9003	71.7773	82.6705	71.7773	82.8966	71.7773	82.7377	71.7773	82.8773	71.7773	82.7961	71.7773	82.8432
74.707	82.1533	74.707	82.1925	74.707	82.1279	74.707	82.2442	74.707	82.1175	74.707	82.3062	74.707	82.1219	74.707	82.3761	74.707	82.1408	74.707	82.4509	74.707	82.1728	74.707	82.528	74.707	82.2162	74.707	82.6046	74.707	82.269	74.707	82.6781	74.707	82.3287	74.707	82.7465	74.707	82.3932	74.707	82.8078	74.707	82.4604	74.707	82.8606	74.707	82.5285	74.707	82.9035	74.707	82.596	74.707	82.9356	74.707	82.6615	74.707	82.956	74.707	82.724	74.707	82.9642	74.707	82.7821	74.707	82.9602	74.707	82.8346	74.707	82.9442	74.707	82.8802	74.707	82.9172
77.6367	82.3562	77.6367	82.3981	77.6367	82.3271	77.6367	82.4511	77.6367	82.3121	77.6367	82.5127	77.6367	82.3115	77.6367	82.58	77.6367	82.3249	77.6367	82.6501	77.6367	82.351	77.6367	82.7198	77.6367	82.3879	77.6367	82.7866	77.6367	82.4335	77.6367	82.848	77.6367	82.4853	77.6367	82.9022	77.6367	82.5409	77.6367	82.9478	77.6367	82.598	77.6367	82.9841	77.6367	82.655	77.6367	83.0106	77.6367	82.7105	77.6367	83.0272	77.6367	82.7636	77.6367	83.034	77.6367	82.8137	77.6367	83.0315	77.6367	82.8604	77.6367	83.0202	77.6367	82.9031	77.6367	83.0007	77.6367	82.9413	77.6367	82.9741
79.1016	82.4272	79.1016	82.4674	79.1016	82.3995	79.1016	82.5184	79.1016	82.3856	79.1016	82.5776	79.1016	82.3857	79.1016	82.6421	79.1016	82.3996	79.1016	82.7089	79.1016	82.4257	79.1016	82.775	79.1016	82.4623	79.1016	82.8378	79.1016	82.5069	79.1016	82.895	79.1016	82.5571	79.1016	82.9448	79.1016	82.6104	79.1016	82.986	79.1016	82.6646	79.1016	83.0181	79.1016	82.7178	79.1016	83.0409	79.1016	82.7688	79.1016	83.0545	79.1016	82.817	79.1016	83.0592	79.1016	82.8617	79.1016	83.0557	79.1016	82.9029	79.1016	83.0446	79.1016	82.9404	79.1016	83.0268	79.1016	82.9739	79.1016	83.0029
82.0312	82.4996	82.0312	82.5391	82.0312	82.472	82.0312	82.5888	82.0312	82.4576	82.0312	82.6458	82.0312	82.4567	82.0312	82.7071	82.0312	82.4688	82.0312	82.7696	82.0312	82.4924	82.0312	82.8301	82.0312	82.5256	82.0312	82.8859	82.0312	82.5661	82.0312	82.9348	82.0312	82.6111	82.0312	82.9752	82.0312	82.6582	82.0312	83.0063	82.0312	82.7051	82.0312	83.028	82.0312	82.7501	82.0312	83.0406	82.0312	82.7922	82.0312	83.0449	82.0312	82.8308	82.0312	83.0419	82.0312	82.8659	82.0312	83.0326	82.0312	82.8978	82.0312	83.0183	82.0312	82.927	82.0312	82.9998	82.0312	82.9538	82.0312	82.9781
84.9609	82.5837	84.9609	82.6237	84.9609	82.5555	84.9609	82.6734	84.9609	82.5406	84.9609	82.73	84.9609	82.5395	84.9609	82.7904	84.9609	82.5518	84.9609	82.8513	84.9609	82.5764	84.9609	82.9095	84.9609	82.6111	84.9609	82.9623	84.9609	82.6535	84.9609	83.0074	84.9609	82.7005	84.9609	83.0434	84.9609	82.7493	84.9609	83.0696	84.9609	82.797	84.9609	83.086	84.9609	82.8417	84.9609	83.0934	84.9609	82.8817	84.9609	83.0931	84.9609	82.9165	84.9609	83.0867	84.9609	82.9461	84.9609	83.0759	84.9609	82.9712	84.9609	83.0622	84.9609	82.9929	84.9609	83.0466	84.9609	83.0122	84.9609	83.0299
87.8906	82.6709	87.8906	82.7122	87.8906	82.6418	87.8906	82.7631	87.8906	82.6266	87.8906	82.8207	87.8906	82.6261	87.8906	82.8817	87.8906	82.64	87.8906	82.9425	87.8906	82.6671	87.8906	83	87.8906	82.7051	87.8906	83.0513	87.8906	82.7513	87.8906	83.0943	87.8906	82.8021	87.8906	83.1276	87.8906	82.8543	87.8906	83.1507	87.8906	82.9047	87.8906	83.1642	87.8906	82.9508	87.8906	83.1691	87.8906	82.991	87.8906	83.1672	87.8906	83.0245	87.8906	83.1604	87.8906	83.0515	87.8906	83.1507	87.8906	83.0727	87.8906	83.1395	87.8906	83.0896	87.8906	83.1279	87.8906	83.1036	87.8906	83.116
90.8203	83.0925	90.8203	83.1326	90.8203	83.0578	90.8203	83.175	90.8203	83.0307	90.8203	83.2164	90.8203	83.0126	90.8203	83.2531	90.8203	83.0035	90.8203	83.2817	90.8203	83.0025	90.8203	83.2996	90.8203	83.0079	90.8203	83.3049	90.8203	83.017	90.8203	83.2967	90.8203	83.0271	90.8203	83.2752	90.8203	83.0354	90.8203	83.2418	90.8203	83.0395	90.8203	83.1991	90.8203	83.0378	90.8203	83.1506	90.8203	83.0299	90.8203	83.1001	90.8203	83.0162	90.8203	83.0522	90.8203	82.9986	90.8203	83.0106	90.8203	82.9798	90.8203	82.9785	90.8203	82.963	90.8203	82.958	90.8203	82.9519	90.8203	82.9495
95.2148	82.9655	95.2148	82.9913	95.2148	82.9485	95.2148	83.0239	95.2148	82.9415	95.2148	83.0611	95.2148	82.9456	95.2148	83.101	95.2148	82.9605	95.2148	83.1411	95.2148	82.9853	95.2148	83.1792	95.2148	83.0178	95.2148	83.2131	95.2148	83.0551	95.2148	83.2405	95.2148	83.0936	95.2148	83.2599	95.2148	83.1299	95.2148	83.2701	95.2148	83.1608	95.2148	83.271	95.2148	83.184	95.2148	83.2635	95.2148	83.1983	95.2148	83.2495	95.2148	83.2039	95.2148	83.2318	95.2148	83.2023	95.2148	83.2135	95.2148	83.1962	95.2148	83.1976	95.2148	83.1887	95.2148	83.1866	95.2148	83.183	95.2148	83.1818
98.1445	83.1221	98.1445	83.1479	98.1445	83.1071	98.1445	83.1827	98.1445	83.1039	98.1445	83.224	98.1445	83.1125	98.1445	83.2687	98.1445	83.1319	98.1445	83.3133	98.1445	83.1602	98.1445	83.3544	98.1445	83.1948	98.1445	83.3887	98.1445	83.2324	98.1445	83.4138	98.1445	83.2694	98.1445	83.4281	98.1445	83.3024	98.1445	83.4312	98.1445	83.3286	98.1445	83.4239	98.1445	83.346	98.1445	83.408	98.1445	83.3539	98.1445	83.3864	98.1445	83.3529	98.1445	83.3625	98.1445	83.345	98.1445	83.3399	98.1445	83.333	98.1445	83.3218	98.1445	83.3204	98.1445	83.3104	98.1445	83.3108	98.1445	83.3068
101.074	83.1374	101.074	83.1628	101.074	83.1215	101.074	83.1956	101.074	83.1169	101.074	83.2328	101.074	83.124	101.074	83.2713	101.074	83.1424	101.074	83.308	101.074	83.1705	101.074	83.34	101.074	83.2055	101.074	83.3648	101.074	83.2443	101.074	83.381	101.074	83.283	101.074	83.3875	101.074	83.3179	101.074	83.3847	101.074	83.346	101.074	83.3738	101.074	83.3647	101.074	83.3569	101.074	83.373	101.074	83.3369	101.074	83.3711	101.074	83.3172	101.074	83.3605	101.074	83.301	101.074	83.344	101.074	83.291	101.074	83.3252	101.074	83.2887	101.074	83.3076	101.074	83.2946
105.469	83.3856	105.469	83.4025	105.469	83.3777	105.469	83.4267	105.469	83.3796	105.469	83.4558	105.469	83.3912	105.469	83.4868	105.469	83.4115	105.469	83.5165	105.469	83.4387	105.469	83.5415	105.469	83.4699	105.469	83.5588	105.469	83.5019	105.469	83.5663	105.469	83.5311	105.469	83.5627	105.469	83.554	105.469	83.5481	105.469	83.5677	105.469	83.524	105.469	83.5703	105.469	83.4931	105.469	83.561	105.469	83.4595	105.469	83.5406	105.469	83.4277	105.469	83.5117	105.469	83.402	105.469	83.4778	105.469	83.3863	105.469	83.4435	105.469	83.3829	105.469	83.4136	105.469	83.3924
108.398	83.6581	108.398	83.6677	108.398	83.6543	108.398	83.6817	108.398	83.6567	108.398	83.6977	108.398	83.6651	108.398	83.713	108.398	83.6784	108.398	83.7244	108.398	83.695	108.398	83.7289	108.398	83.7126	108.398	83.7241	108.398	83.7285	108.398	83.7086	108.398	83.74	108.398	83.6822	108.398	83.7443	108.398	83.6461	108.398	83.7392	108.398	83.6029	108.398	83.7232	108.398	83.5563	108.398	83.696	108.398	83.5109	108.398	83.6587	108.398	83.4715	108.398	83.6139	108.398	83.4425	108.398	83.5653	108.398	83.4274	108.398	83.5178	108.398	83.4283	108.398	83.4762	108.398	83.4452
112.793	83.8863	112.793	83.9009	112.793	83.871	112.793	83.9125	112.793	83.8565	112.793	83.9188	112.793	83.8439	112.793	83.9172	112.793	83.8337	112.793	83.9052	112.793	83.8259	112.793	83.8811	112.793	83.8195	112.793	83.8441	112.793	83.813	112.793	83.7946	112.793	83.8043	112.793	83.7343	112.793	83.791	112.793	83.6662	112.793	83.7707	112.793	83.5947	112.793	83.7417	112.793	83.5248	112.793	83.7031	112.793	83.4621	112.793	83.6555	112.793	83.4115	112.793	83.6007	112.793	83.3776	112.793	83.5422	112.793	83.3629	112.793	83.4846	112.793	83.3684	112.793	83.433	112.793	83.3928
117.188	84.127	117.188	84.1383	117.188	84.11	117.188	84.1416	117.188	84.0893	117.188	84.1349	117.188	84.0664	117.188	84.1161	117.188	84.0424	117.188	84.0832	117.188	84.0174	117.188	84.0352	117.188	83.9908	117.188	83.9715	117.188	83.9611	117.188	83.8926	117.188	83.926	117.188	83.8006	117.188	83.8831	117.188	83.6985	117.188	83.8303	117.188	83.5913	117.188	83.7663	117.188	83.485	117.188	83.6912	117.188	83.3868	117.188	83.6069	117.188	83.3037	117.188	83.517	117.188	83.2424	117.188	83.4272	117.188	83.2078	117.188	83.3439	117.188	83.2023	117.188	83.2745	117.188	83.2255
120.117	84.1416	120.117	84.1609	120.117	84.1197	120.117	84.1747	120.117	84.0978	120.117	84.1801	120.117	84.0783	120.117	84.1746	120.117	84.0624	120.117	84.1558	120.117	84.0502	120.117	84.1224	120.117	84.0407	120.117	84.0734	120.117	84.0315	120.117	84.0091	120.117	84.0191	120.117	83.931	120.117	83.9995	120.117	83.8416	120.117	83.9691	120.117	83.7454	120.117	83.9249	120.117	83.6482	120.117	83.866	120.117	83.5569	120.117	83.7933	120.117	83.479	120.117	83.7105	120.117	83.4217	120.117	83.6235	120.117	83.3905	120.117	83.5398	120.117	83.3884	120.117	83.4678	120.117	83.4153
124.512	84.0257	124.512	84.0443	124.512	84.0084	124.512	84.0619	124.512	83.9948	124.512	84.0766	124.512	83.9875	124.512	84.0873	124.512	83.9882	124.512	84.0926	124.512	83.9978	124.512	84.0916	124.512	84.0153	124.512	84.0829	124.512	84.0384	124.512	84.0654	124.512	84.0631	124.512	84.0383	124.512	84.0846	124.512	84.0018	124.512	84.0981	124.512	83.9576	124.512	84.0991	124.512	83.9087	124.512	84.085	124.512	83.86	124.512	84.0551	124.512	83.8174	124.512	84.0111	124.512	83.7867	124.512	83.9575	124.512	83.773	124.512	83.9004	124.512	83.779	124.512	83.8471	124.512	83.8048
128.906	84.1534	128.906	84.1705	128.906	84.1374	128.906	84.1863	128.906	84.1248	128.906	84.1982	128.906	84.1176	128.906	84.2041	128.906	84.1168	128.906	84.2018	128.906	84.1224	128.906	84.1898	128.906	84.133	128.906	84.1668	128.906	84.146	128.906	84.1321	128.906	84.1578	128.906	84.0862	128.906	84.164	128.906	84.0304	128.906	84.1607	128.906	83.9681	128.906	84.1445	128.906	83.9037	128.906	84.1134	128.906	83.8427	128.906	84.0678	128.906	83.7913	128.906	84.0102	128.906	83.7553	128.906	83.9451	128.906	83.7391	128.906	83.8791	128.906	83.7451	128.906	83.8194	128.906	83.7729
133.301	84.2555	133.301	84.2713	133.301	84.2399	133.301	84.2851	133.301	84.2261	133.301	84.2948	133.301	84.2158	133.301	84.2983	133.301	84.21	133.301	84.2933	133.301	84.2091	133.301	84.2779	133.301	84.2127	133.301	84.2507	133.301	84.219	133.301	84.2109	133.301	84.2253	133.301	84.1589	133.301	84.2283	133.301	84.0968	133.301	84.224	133.301	84.0282	133.301	84.2089	133.301	83.9582	133.301	84.1806	133.301	83.8933	133.301	84.1383	133.301	83.8402	133.301	84.0833	133.301	83.8052	133.301	84.0193	133.301	83.7925	133.301	83.9522	133.301	83.8037	133.301	83.8891	133.301	83.8374
139.16	84.3733	139.16	84.3844	139.16	84.3625	139.16	84.3944	139.16	84.3533	139.16	84.4019	139.16	84.3469	139.16	84.4052	139.16	84.3442	139.16	84.4025	139.16	84.3455	139.16	84.3915	139.16	84.3501	139.16	84.3703	139.16	84.3562	139.16	84.3372	139.16	84.3608	139.16	84.2917	139.16	84.3605	139.16	84.2349	139.16	84.3516	139.16	84.1698	139.16	84.331	139.16	84.1013	139.16	84.2971	139.16	84.0357	139.16	84.25	139.16	83.98	139.16	84.1918	139.16	83.9406	139.16	84.1268	139.16	83.9223	139.16	84.0611	139.16	83.9274	139.16	84.0015	139.16	83.955
143.555	84.4528	143.555	84.4662	143.555	84.4371	143.555	84.4754	143.555	84.421	143.555	84.4793	143.555	84.4065	143.555	84.4763	143.555	84.3957	143.555	84.4654	143.555	84.3897	143.555	84.4452	143.555	84.3887	143.555	84.4149	143.555	84.3913	143.555	84.3737	143.555	84.3948	143.555	84.3222	143.555	84.3955	143.555	84.262	143.555	84.3891	143.555	84.1962	143.555	84.372	143.555	84.1293	143.555	84.3417	143.555	84.0671	143.555	84.2977	143.555	84.0157	143.555	84.2419	143.555	83.9807	143.555	84.1783	143.555	83.9664	143.555	84.1129	143.555	83.9747	143.555	84.0526	143.555	84.0046
147.949	84.5226	147.949	84.5329	147.949	84.5065	147.949	84.5351	147.949	84.4874	147.949	84.5273	147.949	84.468	147.949	84.508	147.949	84.4508	147.949	84.4763	147.949	84.4374	147.949	84.4318	147.949	84.4283	147.949	84.3747	147.949	84.4223	147.949	84.3063	147.949	84.4169	147.949	84.2291	147.949	84.4084	147.949	84.1467	147.949	84.3927	147.949	84.064	147.949	84.3662	147.949	83.9867	147.949	84.3264	147.949	83.9211	147.949	84.2726	147.949	83.8728	147.949	84.2063	147.949	83.8466	147.949	84.1311	147.949	83.8451	147.949	84.0527	147.949	83.8685	147.949	83.978	147.949	83.9144
153.809	84.6554	153.809	84.6619	153.809	84.6431	153.809	84.6608	153.809	84.6274	153.809	84.6502	153.809	84.6108	153.809	84.6288	153.809	84.5955	153.809	84.5953	153.809	84.5828	153.809	84.5485	153.809	84.5731	153.809	84.488	153.809	84.5649	153.809	84.4138	153.809	84.5555	153.809	84.3277	153.809	84.5411	153.809	84.2332	153.809	84.5173	153.809	84.1354	153.809	84.4805	153.809	84.0416	153.809	84.4283	153.809	83.9597	153.809	84.3603	153.809	83.8975	153.809	84.2785	153.809	83.8614	153.809	84.1874	153.809	83.8553	153.809	84.0938	153.809	83.8797	153.809	84.0058	153.809	83.9318
159.668	84.6669	159.668	84.6801	159.668	84.6494	159.668	84.6872	159.668	84.6297	159.668	84.6868	159.668	84.6101	159.668	84.6773	159.668	84.5929	159.668	84.6571	159.668	84.5795	159.668	84.6243	159.668	84.57	159.668	84.5769	159.668	84.5632	159.668	84.5141	159.668	84.5564	159.668	84.4364	159.668	84.5457	159.668	84.3469	159.668	84.5273	159.668	84.2512	159.668	84.4977	159.668	84.157	159.668	84.4546	159.668	84.0735	159.668	84.3976	159.668	84.0091	159.668	84.3282	159.668	83.9705	159.668	84.2502	159.668	83.9612	159.668	84.169	159.668	83.9812	159.668	84.092	159.668	84.0268
165.527	84.9066	165.527	84.9216	165.527	84.8899	165.527	84.9338	165.527	84.8729	165.527	84.9417	165.527	84.8572	165.527	84.9438	165.527	84.8442	165.527	84.9379	165.527	84.835	165.527	84.9212	165.527	84.8296	165.527	84.8908	165.527	84.8266	165.527	84.8446	165.527	84.8233	165.527	84.7821	165.527	84.8159	165.527	84.7049	165.527	84.8004	165.527	84.6175	165.527	84.7731	165.527	84.5268	165.527	84.732	165.527	84.4414	165.527	84.6769	165.527	84.37	165.527	84.6099	165.527	84.3204	165.527	84.5354	165.527	84.2978	165.527	84.4599	165.527	84.3038	165.527	84.3909	165.527	84.3365
171.387	84.9763	171.387	84.9929	171.387	84.9506	171.387	84.9993	171.387	84.9178	171.387	84.9943	171.387	84.8803	171.387	84.9771	171.387	84.8413	171.387	84.9465	171.387	84.8038	171.387	84.9014	171.387	84.77	171.387	84.8414	171.387	84.7405	171.387	84.7666	171.387	84.7143	171.387	84.6789	171.387	84.6886	171.387	84.5821	171.387	84.6599	171.387	84.4818	171.387	84.6247	171.387	84.3852	171.387	84.5807	171.387	84.2998	171.387	84.5269	171.387	84.2328	171.387	84.4645	171.387	84.1895	171.387	84.3966	171.387	84.1725	171.387	84.3282	171.387	84.1818	171.387	84.2652	171.387	84.2143
177.246	85.0239	177.246	85.0421	177.246	84.9908	177.246	85.0439	177.246	84.9458	177.246	85.0292	177.246	84.8938	177.246	84.9987	177.246	84.84	177.246	84.9534	177.246	84.7895	177.246	84.8938	177.246	84.7455	177.246	84.8203	177.246	84.7085	177.246	84.7336	177.246	84.6765	177.246	84.6353	177.246	84.6454	177.246	84.5286	177.246	84.6101	177.246	84.4186	177.246	84.5663	177.246	84.312	177.246	84.5113	177.246	84.2164	177.246	84.4451	177.246	84.1394	177.246	84.37	177.246	84.0866	177.246	84.2909	177.246	84.0616	177.246	84.214	177.246	84.065	177.246	84.1463	177.246	84.0947
183.105	84.923	183.105	84.9524	183.105	84.8826	183.105	84.9672	183.105	84.8361	183.105	84.9651	183.105	84.7892	183.105	84.945	183.105	84.7478	183.105	84.9062	183.105	84.7164	183.105	84.8488	183.105	84.6972	183.105	84.7731	183.105	84.6892	183.105	84.6806	183.105	84.6882	183.105	84.5743	183.105	84.6875	183.105	84.4596	183.105	84.6796	183.105	84.3435	183.105	84.6575	183.105	84.2348	183.105	84.6165	183.105	84.1425	183.105	84.5551	183.105	84.0746	183.105	84.4754	183.105	84.0367	183.105	84.3828	183.105	84.0315	183.105	84.2855	183.105	84.0587	183.105	84.193	183.105	84.1145
188.965	84.922	188.965	84.9488	188.965	84.8835	188.965	84.9613	188.965	84.8368	188.965	84.9578	188.965	84.7862	188.965	84.9371	188.965	84.7365	188.965	84.8984	188.965	84.6925	188.965	84.841	188.965	84.6575	188.965	84.7652	188.965	84.633	188.965	84.6722	188.965	84.6176	188.965	84.5654	188.965	84.6077	188.965	84.4503	188.965	84.5979	188.965	84.335	188.965	84.5822	188.965	84.2291	188.965	84.5553	188.965	84.1422	188.965	84.5137	188.965	84.0823	188.965	84.4565	188.965	84.0541	188.965	84.3857	188.965	84.0586	188.965	84.3061	188.965	84.0929	188.965	84.225	188.965	84.151
196.289	85.0005	196.289	85.0273	196.289	84.9575	196.289	85.036	196.289	84.9021	196.289	85.0257	196.289	84.8398	196.289	84.9964	196.289	84.777	196.289	84.9479	196.289	84.7199	196.289	84.8803	196.289	84.6725	196.289	84.7936	196.289	84.6358	196.289	84.6888	196.289	84.6074	196.289	84.5687	196.289	84.5821	196.289	84.4383	196.289	84.5537	196.289	84.3053	196.289	84.5163	196.289	84.1793	196.289	84.4659	196.289	84.0704	196.289	84.4011	196.289	83.9879	196.289	84.3234	196.289	83.9382	196.289	84.2368	196.289	83.9238	196.289	84.1473	196.289	83.9433	196.289	84.0629	196.289	83.9921
203.613	84.9219	203.613	84.9483	203.613	84.876	203.613	84.9533	203.613	84.815	203.613	84.9373	203.613	84.746	203.613	84.9021	203.613	84.6773	203.613	84.8499	203.613	84.6169	203.613	84.7825	203.613	84.5707	203.613	84.7012	203.613	84.5411	203.613	84.6072	203.613	84.5269	203.613	84.5026	203.613	84.5229	203.613	84.3917	203.613	84.5222	203.613	84.2806	203.613	84.5169	203.613	84.1778	203.613	84.5002	203.613	84.0927	203.613	84.4675	203.613	84.0336	203.613	84.4169	203.613	84.0062	203.613	84.3498	203.613	84.0122	203.613	84.2711	203.613	84.0493	203.613	84.1883	203.613	84.111
210.938	85.0214	210.938	85.0538	210.938	84.9733	210.938	85.0678	210.938	84.9144	210.938	85.063	210.938	84.8518	210.938	85.0401	210.938	84.7937	210.938	85.0001	210.938	84.7471	210.938	84.9436	210.938	84.7161	210.938	84.8702	210.938	84.7005	210.938	84.7794	210.938	84.6953	210.938	84.6716	210.938	84.6926	210.938	84.5491	210.938	84.6832	210.938	84.4182	210.938	84.659	210.938	84.2887	210.938	84.6151	210.938	84.173	210.938	84.5501	210.938	84.0831	210.938	84.4667	210.938	84.0284	210.938	84.3706	210.938	84.0133	210.938	84.2698	210.938	84.0366	210.938	84.1739	210.938	84.0929
218.262	84.8274	218.262	84.8404	218.262	84.8119	218.262	84.8498	218.262	84.7973	218.262	84.8556	218.262	84.7876	218.262	84.8589	218.262	84.7866	218.262	84.8605	218.262	84.7968	218.262	84.8604	218.262	84.8178	218.262	84.8567	218.262	84.8463	218.262	84.8471	218.262	84.8768	218.262	84.8289	218.262	84.9028	218.262	84.8009	218.262	84.9188	218.262	84.7638	218.262	84.9211	218.262	84.7208	218.262	84.9085	218.262	84.6771	218.262	84.8815	218.262	84.6393	218.262	84.8424	218.262	84.6139	218.262	84.7945	218.262	84.6061	218.262	84.7422	218.262	84.6178	218.262	84.6911	218.262	84.6476
225.586	84.2124	225.586	84.3069	225.586	84.135	225.586	84.4121	225.586	84.0825	225.586	84.5222	225.586	84.064	225.586	84.6305	225.586	84.0874	225.586	84.7288	225.586	84.1567	225.586	84.8076	225.586	84.2693	225.586	84.8587	225.586	84.4152	225.586	84.8777	225.586	84.5788	225.586	84.8667	225.586	84.7428	225.586	84.8345	225.586	84.8907	225.586	84.7949	225.586	85.0101	225.586	84.7624	225.586	85.0934	225.586	84.7482	225.586	85.1384	225.586	84.7575	225.586	85.1477	225.586	84.789	225.586	85.127	225.586	84.8379	225.586	85.0841	225.586	84.8979	225.586	85.027	225.586	84.9628
232.91	82.7923	232.91	82.9263	232.91	82.6296	232.91	83.0385	232.91	82.4449	232.91	83.1441	232.91	82.2611	232.91	83.2596	232.91	82.115	232.91	83.3946	232.91	82.05	232.91	83.548	232.91	82.1024	232.91	83.7085	232.91	82.2867	232.91	83.8604	232.91	82.5885	232.91	83.991	232.91	82.9705	232.91	84.0959	232.91	83.3866	232.91	84.1812	232.91	83.7951	232.91	84.2608	232.91	84.165	232.91	84.3503	232.91	84.4759	232.91	84.4598	232.91	84.7167	232.91	84.5887	232.91	84.8822	232.91	84.7256	232.91	84.9722	232.91	84.8514	232.91	84.9906	232.91	84.9458
241.699	84.2638	241.699	84.2263	241.699	84.2314	241.699	84.1248	241.699	84.1297	241.699	83.9712	241.699	83.9657	241.699	83.7828	241.699	83.7545	241.699	83.5815	241.699	83.5193	241.699	83.3913	241.699	83.2899	241.699	83.2344	241.699	83.0988	241.699	83.1272	241.699	82.9736	241.699	83.0773	241.699	82.9293	241.699	83.0826	241.699	82.9648	241.699	83.134	241.699	83.0645	241.699	83.2191	241.699	83.2046	241.699	83.3251	241.699	83.3598	241.699	83.4404	241.699	83.5081	241.699	83.5536	241.699	83.6323	241.699	83.6533	241.699	83.7208	241.699	83.7281	241.699	83.7667	241.699	83.7682
250.488	84.5315	250.488	84.5203	250.488	84.4793	250.488	84.4516	250.488	84.3643	250.488	84.3357	250.488	84.1937	250.488	84.1863	250.488	83.9818	250.488	84.0178	250.488	83.7487	250.488	83.8434	250.488	83.5185	250.488	83.6732	250.488	83.3152	250.488	83.5141	250.488	83.1585	250.488	83.371	250.488	83.0595	250.488	83.2493	250.488	83.0192	250.488	83.1562	250.488	83.0298	250.488	83.0995	250.488	83.0777	250.488	83.0842	250.488	83.1469	250.488	83.1086	250.488	83.2215	250.488	83.1625	250.488	83.2872	250.488	83.2298	250.488	83.3326	250.488	83.2925	250.488	83.3498	250.488	83.3356
259.277	84.8935	259.277	84.9014	259.277	84.8267	259.277	84.8537	259.277	84.704	259.277	84.7591	259.277	84.5351	259.277	84.6301	259.277	84.3358	259.277	84.4799	259.277	84.1257	259.277	84.3201	259.277	83.9259	259.277	84.1584	259.277	83.7545	259.277	83.9987	259.277	83.6228	259.277	83.8429	259.277	83.5325	259.277	83.6936	259.277	83.4775	259.277	83.5562	259.277	83.4472	259.277	83.4399	259.277	83.4309	259.277	83.354	259.277	83.4211	259.277	83.3047	259.277	83.4135	259.277	83.2906	259.277	83.4057	259.277	83.3031	259.277	83.3953	259.277	83.3293	259.277	83.3798	259.277	83.3572
268.066	84.7963	268.066	84.7993	268.066	84.7378	268.066	84.7484	268.066	84.6255	268.066	84.6486	268.066	84.4658	268.066	84.5075	268.066	84.2706	268.066	84.3354	268.066	84.0572	268.066	84.145	268.066	83.8483	268.066	83.9497	268.066	83.6673	268.066	83.7625	268.066	83.5335	268.066	83.5943	268.066	83.4563	268.066	83.4532	268.066	83.4322	268.066	83.3443	268.066	83.4469	268.066	83.2705	268.066	83.4803	268.066	83.2319	268.066	83.513	268.066	83.2261	268.066	83.5305	268.066	83.2477	268.066	83.526	268.066	83.2894	268.066	83.4992	268.066	83.3429	268.066	83.4552	268.066	83.4006
276.855	84.7942	276.855	84.8099	276.855	84.7229	276.855	84.7745	276.855	84.5955	276.855	84.6941	276.855	84.4173	276.855	84.5741	276.855	84.2001	276.855	84.4188	276.855	83.962	276.855	84.2306	276.855	83.7254	276.855	84.0125	276.855	83.5135	276.855	83.7707	276.855	83.346	276.855	83.5173	276.855	83.2356	276.855	83.2715	276.855	83.1854	276.855	83.0572	276.855	83.1883	276.855	82.8972	276.855	83.2283	276.855	82.8066	276.855	83.2835	276.855	82.7885	276.855	83.3304	276.855	82.8341	276.855	83.3487	276.855	82.9261	276.855	83.3263	276.855	83.0427	276.855	83.2611	276.855	83.1613
287.109	84.799	287.109	84.8374	287.109	84.7029	287.109	84.8192	287.109	84.5535	287.109	84.7509	287.109	84.3612	287.109	84.6418	287.109	84.1425	287.109	84.5021	287.109	83.9182	287.109	84.3393	287.109	83.7106	287.109	84.1566	287.109	83.5383	287.109	83.9532	287.109	83.4115	287.109	83.7301	287.109	83.3298	287.109	83.4961	287.109	83.2849	287.109	83.2717	287.109	83.266	287.109	83.0854	287.109	83.2648	287.109	82.9639	287.109	83.2755	287.109	82.9201	287.109	83.2919	287.109	82.9473	287.109	83.3044	287.109	83.023	287.109	83.3006	287.109	83.1182	287.109	83.2692	287.109	83.2062
297.363	84.7562	297.363	84.7521	297.363	84.6879	297.363	84.6805	297.363	84.5486	297.363	84.5532	297.363	84.346	297.363	84.3879	297.363	84.0943	297.363	84.2057	297.363	83.8149	297.363	84.0252	297.363	83.5363	297.363	83.8568	297.363	83.2919	297.363	83.6988	297.363	83.1118	297.363	83.5406	297.363	83.0142	297.363	83.3719	297.363	82.9974	297.363	83.1938	297.363	83.0416	297.363	83.0247	297.363	83.1172	297.363	82.8954	297.363	83.1954	297.363	82.8343	297.363	83.2551	297.363	82.851	297.363	83.2839	297.363	82.9297	297.363	83.276	297.363	83.0391	297.363	83.2293	297.363	83.1466
307.617	84.8843	307.617	84.885	307.617	84.811	307.617	84.818	307.617	84.6665	307.617	84.6935	307.617	84.4602	307.617	84.5257	307.617	84.2092	307.617	84.3318	307.617	83.9362	307.617	84.1295	307.617	83.6663	307.617	83.9342	307.617	83.4221	307.617	83.7537	307.617	83.2191	307.617	83.5869	307.617	83.0644	307.617	83.4268	307.617	82.9577	307.617	83.2685	307.617	82.8949	307.617	83.1169	307.617	82.8704	307.617	82.9877	307.617	82.877	307.617	82.9006	307.617	82.9048	307.617	82.8667	307.617	82.9404	307.617	82.88	307.617	82.9687	307.617	82.9191	307.617	82.9764	307.617	82.9577
319.336	84.6479	319.336	84.6247	319.336	84.5923	319.336	84.531	319.336	84.4575	319.336	84.3815	319.336	84.2513	319.336	84.1945	319.336	83.9899	319.336	83.9892	319.336	83.6975	319.336	83.7821	319.336	83.4043	319.336	83.5853	319.336	83.1429	319.336	83.405	319.336	82.9416	319.336	83.2415	319.336	82.8175	319.336	83.0917	319.336	82.7718	319.336	82.9535	319.336	82.79	319.336	82.8301	319.336	82.8474	319.336	82.7329	319.336	82.9167	319.336	82.6773	319.336	82.9742	319.336	82.6735	319.336	83.0036	319.336	82.7189	319.336	82.9972	319.336	82.7966	319.336	82.9545	319.336	82.8826
329.59	84.4222	329.59	84.4433	329.59	84.3132	329.59	84.377	329.59	84.1215	329.59	84.2298	329.59	83.858	329.59	84.015	329.59	83.5404	329.59	83.7521	329.59	83.1936	329.59	83.466	329.59	82.8495	329.59	83.1842	329.59	82.5429	329.59	82.9316	329.59	82.3043	329.59	82.7265	329.59	82.1521	329.59	82.5766	329.59	82.0883	329.59	82.4803	329.59	82.0999	329.59	82.4297	329.59	82.1651	329.59	82.4162	329.59	82.2594	329.59	82.4325	329.59	82.361	329.59	82.4703	329.59	82.4534	329.59	82.5176	329.59	82.525	329.59	82.5587	329.59	82.5681	329.59	82.5787
341.309	84.3745	341.309	84.3604	341.309	84.3038	341.309	84.2638	341.309	84.1509	341.309	84.0915	341.309	83.9233	341.309	83.8559	341.309	83.6349	341.309	83.5756	341.309	83.3069	341.309	83.2736	341.309	82.9677	341.309	82.9731	341.309	82.6505	341.309	82.693	341.309	82.3875	341.309	82.4449	341.309	82.2016	341.309	82.2363	341.309	82.1011	341.309	82.075	341.309	82.0782	341.309	81.9706	341.309	82.1129	341.309	81.9308	341.309	82.1798	341.309	81.9546	341.309	82.2538	341.309	82.028	341.309	82.3146	341.309	82.1273	341.309	82.3476	341.309	82.226	341.309	82.3446	341.309	82.3027
353.027	84.4372	353.027	84.4155	353.027	84.3605	353.027	84.3018	353.027	84.1829	353.027	84.1068	353.027	83.9075	353.027	83.8446	353.027	83.5455	353.027	83.5334	353.027	83.1195	353.027	83.1944	353.027	82.6662	353.027	82.8512	353.027	82.2353	353.027	82.5272	353.027	81.8803	353.027	82.2414	353.027	81.6435	353.027	82.0044	353.027	81.5401	353.027	81.8185	353.027	81.5525	353.027	81.6836	353.027	81.6395	353.027	81.6031	353.027	81.7539	353.027	81.583	353.027	81.8578	353.027	81.6225	353.027	81.929	353.027	81.7058	353.027	81.9586	353.027	81.8048	353.027	81.9452	353.027	81.8911
366.211	84.1818	366.211	84.1822	366.211	84.0944	366.211	84.0989	366.211	83.9218	366.211	83.941	366.211	83.6702	366.211	83.7233	366.211	83.3519	366.211	83.4648	366.211	82.9865	366.211	83.1833	366.211	82.6021	366.211	82.8903	366.211	82.233	366.211	82.5885	366.211	81.9126	366.211	82.2757	366.211	81.6664	366.211	81.9537	366.211	81.5076	366.211	81.6376	366.211	81.4364	366.211	81.3575	366.211	81.44	366.211	81.15	366.211	81.4924	366.211	81.0435	366.211	81.5581	366.211	81.0436	366.211	81.601	366.211	81.1307	366.211	81.5946	366.211	81.2674	366.211	81.5291	366.211	81.4122
379.395	84.4195	379.395	84.4043	379.395	84.3391	379.395	84.303	379.395	84.1586	379.395	84.1276	379.395	83.8791	379.395	83.8926	379.395	83.5081	379.395	83.6147	379.395	83.0598	379.395	83.3143	379.395	82.5571	379.395	83.0131	379.395	82.0369	379.395	82.7286	379.395	81.5544	379.395	82.4673	379.395	81.18	379.395	82.2261	379.395	80.9779	379.395	82.0003	379.395	80.9712	379.395	81.7958	379.395	81.1216	379.395	81.6317	379.395	81.3489	379.395	81.533	379.395	81.5713	379.395	81.5139	379.395	81.7338	379.395	81.5657	379.395	81.8141	379.395	81.6585	379.395	81.8147	379.395	81.7534
392.578	84.2803	392.578	84.256	392.578	84.2134	392.578	84.147	392.578	84.0531	392.578	83.9617	392.578	83.803	392.578	83.7083	392.578	83.4739	392.578	83.3944	392.578	83.0849	392.578	83.0309	392.578	82.6642	392.578	82.6385	392.578	82.2442	392.578	82.2518	392.578	81.8552	392.578	81.9131	392.578	81.5203	392.578	81.6562	392.578	81.2585	392.578	81.4927	392.578	81.0916	392.578	81.4133	392.578	81.0426	392.578	81.4031	392.578	81.1204	392.578	81.4523	392.578	81.3013	392.578	81.5519	392.578	81.5276	392.578	81.6814	392.578	81.7294	392.578	81.8036	392.578	81.8519	392.578	81.8728
405.762	84.3398	405.762	84.2857	405.762	84.2933	405.762	84.1429	405.762	84.1366	405.762	83.9244	405.762	83.8658	405.762	83.6426	405.762	83.4863	405.762	83.308	405.762	83.0179	405.762	82.9307	405.762	82.4965	405.762	82.5261	405.762	81.9725	405.762	82.1211	405.762	81.503	405.762	81.7537	405.762	81.1403	405.762	81.458	405.762	80.9167	405.762	81.2471	405.762	80.8334	405.762	81.113	405.762	80.8605	405.762	81.0432	405.762	80.9521	405.762	81.0333	405.762	81.0662	405.762	81.0798	405.762	81.1757	405.762	81.1649	405.762	81.2633	405.762	81.254	405.762	81.3129	405.762	81.3102
420.41	84.5714	420.41	84.5527	420.41	84.4796	420.41	84.4306	420.41	84.2724	420.41	84.2124	420.41	83.9498	420.41	83.9052	420.41	83.5186	420.41	83.5171	420.41	82.9938	420.41	83.0593	420.41	82.4019	420.41	82.5479	420.41	81.7857	420.41	82.0084	420.41	81.2096	420.41	81.4825	420.41	80.7562	420.41	81.0292	420.41	80.5017	420.41	80.7107	420.41	80.4726	420.41	80.5645	420.41	80.6211	420.41	80.5838	420.41	80.8526	420.41	80.7258	420.41	81.0805	420.41	80.932	420.41	81.2578	420.41	81.1438	420.41	81.3729	420.41	81.3123	420.41	81.4253	420.41	81.408
435.059	84.3072	435.059	84.315	435.059	84.2045	435.059	84.2269	435.059	84.0061	435.059	84.0407	435.059	83.7113	435.059	83.7578	435.059	83.3255	435.059	83.3872	435.059	82.8659	435.059	82.9484	435.059	82.363	435.059	82.4696	435.059	81.8522	435.059	81.984	435.059	81.364	435.059	81.5282	435.059	80.9229	435.059	81.1408	435.059	80.5644	435.059	80.8556	435.059	80.3478	435.059	80.6909	435.059	80.332	435.059	80.6444	435.059	80.5151	435.059	80.6988	435.059	80.8078	435.059	80.828	435.059	81.0882	435.059	80.9967	435.059	81.2717	435.059	81.1632	435.059	81.333	435.059	81.2869
451.172	84.787	451.172	84.8226	451.172	84.6486	451.172	84.7605	451.172	84.3973	451.172	84.5945	451.172	84.026	451.172	84.3043	451.172	83.5389	451.172	83.8623	451.172	82.9589	451.172	83.2498	451.172	82.3292	451.172	82.4792	451.172	81.7081	451.172	81.6144	451.172	81.1562	451.172	80.7789	451.172	80.7215	451.172	80.1314	451.172	80.4322	451.172	79.7898	451.172	80.3013	451.172	79.7546	451.172	80.3321	451.172	79.9285	451.172	80.5134	451.172	80.2073	451.172	80.8017	451.172	80.5305	451.172	81.1155	451.172	80.8647	451.172	81.3583	451.172	81.1688	451.172	81.4564	451.172	81.3848
465.82	85.0232	465.82	84.9524	465.82	84.9657	465.82	84.7707	465.82	84.7629	465.82	84.4955	465.82	84.4026	465.82	84.1439	465.82	83.8874	465.82	83.7289	465.82	83.2433	465.82	83.2529	465.82	82.5216	465.82	82.7094	465.82	81.792	465.82	82.0988	465.82	81.1284	465.82	81.4545	465.82	80.5921	465.82	80.858	465.82	80.223	465.82	80.4172	465.82	80.0345	465.82	80.2025	465.82	80.0053	465.82	80.1984	465.82	80.0805	465.82	80.3235	465.82	80.197	465.82	80.4853	465.82	80.3164	465.82	80.6125	465.82	80.4322	465.82	80.6641	465.82	80.5444	465.82	80.6334
483.398	85.2632	483.398	85.2114	483.398	85.1812	483.398	85.0391	483.398	84.9566	483.398	84.758	483.398	84.5937	483.398	84.3789	483.398	84.1143	483.398	83.9131	483.398	83.5503	483.398	83.3667	483.398	82.9307	483.398	82.7343	483.398	82.2746	483.398	82.0059	483.398	81.6011	483.398	81.1968	483.398	80.9566	483.398	80.3881	483.398	80.4393	483.398	79.7382	483.398	80.1781	483.398	79.4137	483.398	80.2385	483.398	79.4672	483.398	80.5463	483.398	79.8067	483.398	80.9394	483.398	80.2833	483.398	81.2768	483.398	80.7668	483.398	81.4839	483.398	81.1661	483.398	81.5363	483.398	81.4292
499.512	84.8651	499.512	84.841	499.512	84.7856	499.512	84.7146	499.512	84.5976	499.512	84.4875	499.512	84.295	499.512	84.1675	499.512	83.8765	499.512	83.7695	499.512	83.3527	499.512	83.3037	499.512	82.7484	499.512	82.7617	499.512	82.0979	499.512	82.1189	499.512	81.4378	499.512	81.3671	499.512	80.8094	499.512	80.5617	499.512	80.2782	499.512	79.8461	499.512	79.9466	499.512	79.3981	499.512	79.9129	499.512	79.3112	499.512	80.1804	499.512	79.5421	499.512	80.6225	499.512	79.9752	499.512	81.0615	499.512	80.4863	499.512	81.359	499.512	80.9606	499.512	81.4441	499.512	81.3018
517.09	85.3513	517.09	85.2963	517.09	85.2922	517.09	85.1481	517.09	85.0949	517.09	84.9121	517.09	84.7458	517.09	84.5757	517.09	84.2501	517.09	84.1216	517.09	83.6368	517.09	83.5502	517.09	82.9548	517.09	82.8936	517.09	82.2628	517.09	82.2062	517.09	81.6087	517.09	81.5363	517.09	81.0187	517.09	80.9091	517.09	80.5165	517.09	80.3489	517.09	80.1674	517.09	79.9269	517.09	80.0818	517.09	79.7678	517.09	80.3196	517.09	79.9593	517.09	80.7924	517.09	80.4459	517.09	81.3162	517.09	81.0474	517.09	81.7299	517.09	81.5704	517.09	81.9357	517.09	81.8845
536.133	84.9735	536.133	84.7938	536.133	84.9591	536.133	84.4568	536.133	84.7329	536.133	84.0245	536.133	84.2977	536.133	83.5828	536.133	83.6841	536.133	83.2066	536.133	82.9546	536.133	82.899	536.133	82.1971	536.133	82.5726	536.133	81.5084	536.133	82.1103	536.133	80.964	536.133	81.4607	536.133	80.586	536.133	80.7015	536.133	80.34	536.133	80.0155	536.133	80.1856	536.133	79.5649	536.133	80.1393	536.133	79.3896	536.133	80.2591	536.133	79.4572	536.133	80.5446	536.133	79.7405	536.133	80.8861	536.133	80.1851	536.133	81.1376	536.133	80.6645	536.133	81.199	536.133	81.0334
555.176	85.6875	555.176	85.561	555.176	85.612	555.176	85.2534	555.176	85.3166	555.176	84.786	555.176	84.8003	555.176	84.1906	555.176	84.0951	555.176	83.5176	555.176	83.2731	555.176	82.8221	555.176	82.432	555.176	82.1221	555.176	81.6667	555.176	81.3688	555.176	81.0333	555.176	80.4965	555.176	80.5157	555.176	79.542	555.176	80.036	555.176	78.7365	555.176	79.5456	555.176	78.4013	555.176	79.1327	555.176	78.5984	555.176	79.0032	555.176	79.0574	555.176	79.2484	555.176	79.5167	555.176	79.6919	555.176	79.8835	555.176	80.0813	555.176	80.148	555.176	80.2855	555.176	80.2947
574.219	85.4871	574.219	85.3257	574.219	85.5118	574.219	85.0471	574.219	85.3903	574.219	84.6773	574.219	85.1179	574.219	84.2489	574.219	84.6806	574.219	83.8008	574.219	84.0508	574.219	83.3643	574.219	83.2157	574.219	82.9271	574.219	82.234	574.219	82.3987	574.219	81.2739	574.219	81.6299	574.219	80.5466	574.219	80.5017	574.219	80.1155	574.219	79.0711	574.219	79.8305	574.219	77.7888	574.219	79.5525	574.219	77.4429	574.219	79.3733	574.219	78.1381	574.219	79.5196	574.219	79.1471	574.219	79.9879	574.219	79.9822	574.219	80.4949	574.219	80.5338	574.219	80.7945	574.219	80.8059
594.727	85.0949	594.727	84.9736	594.727	85.0672	594.727	84.7144	594.727	84.8979	594.727	84.3356	594.727	84.6164	594.727	83.8581	594.727	84.2569	594.727	83.3194	594.727	83.8281	594.727	82.7919	594.727	83.2971	594.727	82.368	594.727	82.615	594.727	82.0797	594.727	81.7788	594.727	81.8155	594.727	80.8994	594.727	81.3527	594.727	80.1961	594.727	80.5049	594.727	79.8167	594.727	79.2977	594.727	79.6685	594.727	78.1558	594.727	79.6013	594.727	77.816	594.727	79.6714	594.727	78.4578	594.727	80.0126	594.727	79.4702	594.727	80.5036	594.727	80.3222	594.727	80.8367	594.727	80.7962
615.234	85.3221	615.234	85.1624	615.234	85.2964	615.234	84.8264	615.234	85.076	615.234	84.3271	615.234	84.6577	615.234	83.7026	615.234	84.0622	615.234	83.0493	615.234	83.3486	615.234	82.5143	615.234	82.5992	615.234	82.1969	615.234	81.8701	615.234	82.0342	615.234	81.1692	615.234	81.8113	615.234	80.5047	615.234	81.3021	615.234	79.9451	615.234	80.4242	615.234	79.5794	615.234	79.3182	615.234	79.3903	615.234	78.3451	615.234	79.2302	615.234	77.9191	615.234	78.9833	615.234	78.1299	615.234	78.7415	615.234	78.6511	615.234	78.74	615.234	79.0818	615.234	78.9907	615.234	79.1913
637.207	84.9203	637.207	84.7532	637.207	84.9624	637.207	84.4919	637.207	84.8525	637.207	84.1631	637.207	84.5799	637.207	83.7804	637.207	84.1544	637.207	83.3393	637.207	83.58	637.207	82.8316	637.207	82.8349	637.207	82.2705	637.207	81.9355	637.207	81.6833	637.207	81.0247	637.207	81.0216	637.207	80.2975	637.207	80.1326	637.207	79.7861	637.207	78.914	637.207	79.3546	637.207	77.4842	637.207	78.9456	637.207	76.3706	637.207	78.7254	637.207	76.3659	637.207	78.8581	637.207	77.3638	637.207	79.2068	637.207	78.4993	637.207	79.5246	637.207	79.2864	637.207	79.6951	637.207	79.6529
659.18	83.8028	659.18	83.4042	659.18	84.0337	659.18	82.9196	659.18	84.0463	659.18	82.4412	659.18	83.8411	659.18	82.0588	659.18	83.4557	659.18	81.8251	659.18	82.9238	659.18	81.6878	659.18	82.2621	659.18	81.4823	659.18	81.5106	659.18	81.0673	659.18	80.7675	659.18	80.4854	659.18	80.1437	659.18	79.9026	659.18	79.6578	659.18	79.2842	659.18	79.2142	659.18	78.2794	659.18	78.7243	659.18	76.64	659.18	78.2399	659.18	75.0577	659.18	77.9593	659.18	75.2303	659.18	78.052	659.18	76.7084	659.18	78.4208	659.18	77.9875	659.18	78.7279	659.18	78.6471
682.617	83.4287	682.617	83.3148	682.617	83.3054	682.617	82.9743	682.617	83.011	682.617	82.5165	682.617	82.6484	682.617	82.1297	682.617	82.2906	682.617	81.9599	682.617	81.9283	682.617	81.9753	682.617	81.5168	682.617	82.0096	682.617	81.0863	682.617	81.899	682.617	80.7321	682.617	81.5275	682.617	80.4696	682.617	80.8307	682.617	80.2112	682.617	79.8135	682.617	79.864	682.617	78.4949	682.617	79.3389	682.617	76.7934	682.617	78.5445	682.617	74.794	682.617	77.564	682.617	73.8572	682.617	76.8884	682.617	75.1566	682.617	76.9732	682.617	76.7633	682.617	77.4251	682.617	77.509
707.52	83.588	707.52	83.0608	707.52	83.9036	707.52	82.3668	707.52	83.9717	707.52	81.5454	707.52	83.7626	707.52	80.6642	707.52	83.2248	707.52	79.9046	707.52	82.2951	707.52	79.5871	707.52	80.9827	707.52	79.9174	707.52	79.503	707.52	80.59	707.52	78.3584	707.52	80.9909	707.52	78.0765	707.52	80.7302	707.52	78.6255	707.52	79.8134	707.52	79.4017	707.52	78.4352	707.52	79.781	707.52	76.5827	707.52	79.4102	707.52	73.8801	707.52	78.2406	707.52	70.4182	707.52	76.6043	707.52	69.6972	707.52	75.2535	707.52	72.0841	707.52	74.5548	707.52	73.7822
732.422	83.6811	732.422	83.142	732.422	83.9404	732.422	82.2192	732.422	83.9752	732.422	80.8849	732.422	83.7622	732.422	79.4171	732.422	83.2077	732.422	78.5265	732.422	82.1811	732.422	78.8572	732.422	80.6107	732.422	80.1825	732.422	78.7606	732.422	81.6536	732.422	77.6634	732.422	82.5846	732.422	78.1995	732.422	82.7517	732.422	79.5232	732.422	82.2842	732.422	80.6069	732.422	81.3404	732.422	81.0572	732.422	79.9509	732.422	80.7505	732.422	78.1309	732.422	79.6105	732.422	75.8985	732.422	77.6089	732.422	73.3812	732.422	74.9233	732.422	71.2474	732.422	72.2156	732.422	70.6997
757.324	83.5023	757.324	83.2767	757.324	83.6869	757.324	82.8478	757.324	83.8363	757.324	82.0528	757.324	83.7595	757.324	80.7813	757.324	83.2197	757.324	78.9348	757.324	82.0437	757.324	77.0546	757.324	80.0173	757.324	77.0035	757.324	76.7695	757.324	78.2917	757.324	72.8135	757.324	79.5987	757.324	74.1236	757.324	80.8199	757.324	78.1217	757.324	81.6792	757.324	80.7684	757.324	81.7977	757.324	82.268	757.324	81.1277	757.324	83.0601	757.324	79.9977	757.324	83.3265	757.324	78.8158	757.324	82.9152	757.324	77.801	757.324	81.6424	757.324	77.2644	757.324	79.6826	757.324	77.8709
785.156	85.3338	785.156	85.3717	785.156	84.694	785.156	84.755	785.156	83.7599	785.156	83.6773	785.156	83.1005	785.156	82.531	785.156	83.0036	785.156	81.3415	785.156	83.0285	785.156	79.3875	785.156	82.58	785.156	76.5091	785.156	81.1923	785.156	76.2055	785.156	78.3013	785.156	78.1415	785.156	72.3708	785.156	79.4261	785.156	63.2217	785.156	80.5126	785.156	74.0258	785.156	81.5506	785.156	78.5676	785.156	81.777	785.156	81.0395	785.156	80.7159	785.156	82.6541	785.156	79.3037	785.156	83.6609	785.156	79.6122	785.156	83.989	785.156	81.1451	785.156	83.5988	785.156	82.5916
811.523	85.0844	811.523	85.2746	811.523	84.2398	811.523	85.1084	811.523	82.7627	811.523	84.8346	811.523	81.4394	811.523	84.3552	811.523	81.5121	811.523	83.1545	811.523	82.7698	811.523	80.4292	811.523	83.7533	811.523	75.0183	811.523	83.694	811.523	68.1892	811.523	82.7214	811.523	72.9702	811.523	81.0794	811.523	77.2675	811.523	77.7911	811.523	80.5959	811.523	67.2573	811.523	83.1601	811.523	75.2927	811.523	84.6181	811.523	81.8999	811.523	84.8647	811.523	84.6176	811.523	84.105	811.523	85.6523	811.523	82.9502	811.523	85.505	811.523	82.4035	811.523	84.4391	811.523	83.0772
840.82	81.0709	840.82	80.6587	840.82	81.6604	840.82	80.8244	840.82	82.0704	840.82	81.5947	840.82	82.0008	840.82	82.5201	840.82	81.2061	840.82	83.1448	840.82	79.8082	840.82	83.2325	840.82	78.6743	840.82	82.5203	840.82	78.9819	840.82	80.4535	840.82	80.281	840.82	76.2788	840.82	80.9764	840.82	69.1033	840.82	79.9141	840.82	69.7579	840.82	75.8539	840.82	75.1416	840.82	66.2448	840.82	78.3708	840.82	73.6409	840.82	80.3618	840.82	78.6321	840.82	81.0711	840.82	80.6888	840.82	80.6491	840.82	81.0924	840.82	79.7104	840.82	80.354	840.82	79.4656
870.117	82.9473	870.117	82.6236	870.117	83.2697	870.117	82.5361	870.117	83.4137	870.117	82.8194	870.117	83.3055	870.117	83.2564	870.117	82.9326	870.117	83.3134	870.117	82.2558	870.117	82.7134	870.117	81.1936	870.117	81.7246	870.117	79.7399	870.117	80.6234	870.117	78.3243	870.117	79.1711	870.117	78.0806	870.117	77.2976	870.117	78.8973	870.117	76.2372	870.117	78.8565	870.117	76.1781	870.117	76.7967	870.117	75.6881	870.117	72.9287	870.117	75.2654	870.117	71.383	870.117	76.1797	870.117	74.5302	870.117	77.5112	870.117	77.1901	870.117	78.339	870.117	78.4125	870.117	78.6558
900.879	84.6765	900.879	84.4061	900.879	84.6596	900.879	83.9463	900.879	84.3232	900.879	83.3517	900.879	83.7118	900.879	82.6863	900.879	82.7817	900.879	82.0782	900.879	81.3802	900.879	81.3767	900.879	79.7127	900.879	80.0687	900.879	78.7212	900.879	78.0592	900.879	78.866	900.879	76.1887	900.879	79.1661	900.879	74.7123	900.879	78.8927	900.879	73.069	900.879	78.3537	900.879	74.0493	900.879	77.9572	900.879	76.6497	900.879	77.3368	900.879	77.8896	900.879	76.2663	900.879	78.4086	900.879	75.7207	900.879	78.703	900.879	76.2789	900.879	78.5421	900.879	77.1669	900.879	77.9656
933.105	84.1603	933.105	84.3653	933.105	83.8581	933.105	84.3238	933.105	83.617	933.105	84.0054	933.105	83.4372	933.105	83.4595	933.105	83.1152	933.105	82.5579	933.105	82.4924	933.105	81.0146	933.105	81.6061	933.105	79.0248	933.105	80.4923	933.105	77.6376	933.105	79.2999	933.105	77.1775	933.105	78.7789	933.105	76.2341	933.105	79.1086	933.105	74.3297	933.105	78.9458	933.105	74.1179	933.105	77.5131	933.105	75.6723	933.105	76.0877	933.105	76.7753	933.105	76.4794	933.105	76.8898	933.105	77.5142	933.105	76.5888	933.105	78.393	933.105	77.1323	933.105	78.7608	933.105	78.2397
965.332	85.0022	965.332	85.3158	965.332	84.4093	965.332	85.0988	965.332	83.8432	965.332	84.3104	965.332	83.4928	965.332	83.1117	965.332	83.3027	965.332	81.5468	965.332	82.987	965.332	79.6272	965.332	82.2146	965.332	77.7679	965.332	80.9322	965.332	76.508	965.332	79.3954	965.332	76.0271	965.332	77.6675	965.332	76.3458	965.332	75.866	965.332	76.842	965.332	74.953	965.332	76.639	965.332	74.2422	965.332	75.7543	965.332	73.0209	965.332	74.8601	965.332	73.0108	965.332	75.2958	965.332	74.8483	965.332	77.5615	965.332	77.2857	965.332	79.4619	965.332	79.2004	965.332	80.0053
1,000.49	85.3751	1,000.49	85.023	1,000.49	85.2015	1,000.49	84.1214	1,000.49	84.5102	1,000.49	82.7547	1,000.49	83.3287	1,000.49	81.1641	1,000.49	81.7554	1,000.49	79.7164	1,000.49	80.08	1,000.49	78.9412	1,000.49	78.9458	1,000.49	78.6847	1,000.49	78.7037	1,000.49	77.7248	1,000.49	78.957	1,000.49	75.6046	1,000.49	78.7794	1,000.49	73.36	1,000.49	78.1268	1,000.49	72.3089	1,000.49	77.5117	1,000.49	70.643	1,000.49	76.5328	1,000.49	72.0216	1,000.49	75.557	1,000.49	75.8268	1,000.49	76.1418	1,000.49	77.0826	1,000.49	77.6012	1,000.49	76.1051	1,000.49	78.8159	1,000.49	75.7899	1,000.49	79.068	1,000.49	77.7512
1,035.64	84.8297	1,035.64	85.5064	1,035.64	84.0667	1,035.64	85.551	1,035.64	83.6384	1,035.64	84.4643	1,035.64	83.654	1,035.64	82.162	1,035.64	83.6799	1,035.64	79.4169	1,035.64	83.2415	1,035.64	77.3994	1,035.64	82.3219	1,035.64	76.0464	1,035.64	80.6025	1,035.64	75.679	1,035.64	77.3008	1,035.64	77.0282	1,035.64	73.8766	1,035.64	78.0045	1,035.64	73.5316	1,035.64	77.4735	1,035.64	73.3363	1,035.64	76.4397	1,035.64	72.7783	1,035.64	74.6534	1,035.64	72.7311	1,035.64	71.2819	1,035.64	72.0228	1,035.64	73.3683	1,035.64	72.3065	1,035.64	76.4332	1,035.64	74.3683	1,035.64	77.2362	1,035.64	76.0296	1,035.64	76.9169
1,072.27	83.738	1,072.27	84.004	1,072.27	83.5353	1,072.27	83.9563	1,072.27	83.4788	1,072.27	83.2263	1,072.27	83.2268	1,072.27	81.6566	1,072.27	82.4004	1,072.27	79.6407	1,072.27	80.8854	1,072.27	78.3916	1,072.27	79.0771	1,072.27	78.4045	1,072.27	78.3869	1,072.27	78.7636	1,072.27	79.2172	1,072.27	79.18	1,072.27	79.3848	1,072.27	78.2281	1,072.27	78.0567	1,072.27	74.1567	1,072.27	77.3099	1,072.27	70.1297	1,072.27	77.5805	1,072.27	73.6405	1,072.27	76.8721	1,072.27	74.9712	1,072.27	76.6729	1,072.27	74.9426	1,072.27	77.2921	1,072.27	73.3153	1,072.27	77.1487	1,072.27	70.8482	1,072.27	75.7369	1,072.27	72.7061
1,108.89	84.0534	1,108.89	83.913	1,108.89	83.3874	1,108.89	83.0301	1,108.89	82.1635	1,108.89	81.5483	1,108.89	80.9467	1,108.89	80.2191	1,108.89	80.2422	1,108.89	79.7294	1,108.89	80.3954	1,108.89	79.0033	1,108.89	81.0117	1,108.89	77.3633	1,108.89	80.5413	1,108.89	75.1643	1,108.89	77.0886	1,108.89	74.1186	1,108.89	70.3748	1,108.89	76.9847	1,108.89	66.4802	1,108.89	78.8845	1,108.89	65.739	1,108.89	79.0451	1,108.89	65.401	1,108.89	78.5473	1,108.89	64.4409	1,108.89	76.4747	1,108.89	65.2618	1,108.89	69.2101	1,108.89	68.7979	1,108.89	69.4168	1,108.89	72.3135	1,108.89	75.9733	1,108.89	75.7504	1,108.89	77.3664
1,148.44	82.652	1,148.44	83.1111	1,148.44	82.557	1,148.44	83.5365	1,148.44	82.6299	1,148.44	83.3347	1,148.44	82.2365	1,148.44	82.4031	1,148.44	80.9245	1,148.44	81.3733	1,148.44	78.757	1,148.44	80.6628	1,148.44	76.7858	1,148.44	79.9748	1,148.44	77.131	1,148.44	78.6877	1,148.44	77.49	1,148.44	75.9969	1,148.44	76.3483	1,148.44	73.4223	1,148.44	75.2768	1,148.44	73.6826	1,148.44	75.0367	1,148.44	74.1378	1,148.44	74.7734	1,148.44	74.7253	1,148.44	74.562	1,148.44	76.1081	1,148.44	74.7597	1,148.44	75.2978	1,148.44	75.797	1,148.44	71.5937	1,148.44	76.4189	1,148.44	71.0974	1,148.44	76.3033	1,148.44	74.7487
1,189.45	84.2772	1,189.45	83.2875	1,189.45	84.0585	1,189.45	81.3496	1,189.45	82.6397	1,189.45	79.8799	1,189.45	80.027	1,189.45	80.7079	1,189.45	78.3122	1,189.45	82.0129	1,189.45	79.7585	1,189.45	82.207	1,189.45	81.1782	1,189.45	81.4529	1,189.45	81.1023	1,189.45	79.9639	1,189.45	80.1927	1,189.45	77.4264	1,189.45	78.8301	1,189.45	74.6512	1,189.45	76.381	1,189.45	74.8929	1,189.45	74.1041	1,189.45	75.5972	1,189.45	73.8095	1,189.45	74.2619	1,189.45	73.3132	1,189.45	74.1329	1,189.45	72.3368	1,189.45	74.3475	1,189.45	72.8857	1,189.45	72.6163	1,189.45	74.6121	1,189.45	70.6878	1,189.45	74.7568	1,189.45	72.6378
1,230.47	83.4304	1,230.47	83.2481	1,230.47	82.9197	1,230.47	82.3305	1,230.47	81.9062	1,230.47	81.2483	1,230.47	80.7615	1,230.47	80.9656	1,230.47	80.168	1,230.47	81.1605	1,230.47	79.8868	1,230.47	80.6915	1,230.47	78.5945	1,230.47	78.7434	1,230.47	76.1169	1,230.47	76.2046	1,230.47	74.0468	1,230.47	75.1193	1,230.47	73.2986	1,230.47	74.3448	1,230.47	73.1818	1,230.47	75.1788	1,230.47	72.9231	1,230.47	76.5757	1,230.47	73.3475	1,230.47	75.1564	1,230.47	73.6927	1,230.47	72.4617	1,230.47	72.4647	1,230.47	73.0893	1,230.47	73.2236	1,230.47	73.9327	1,230.47	73.9839	1,230.47	73.5361	1,230.47	73.3691	1,230.47	73.1185
1,274.41	82.0383	1,274.41	81.5299	1,274.41	82.872	1,274.41	81.8599	1,274.41	82.9947	1,274.41	82.5251	1,274.41	81.7785	1,274.41	82.859	1,274.41	79.1677	1,274.41	82.2553	1,274.41	75.5124	1,274.41	80.1664	1,274.41	74.7889	1,274.41	77.4501	1,274.41	76.0879	1,274.41	75.9302	1,274.41	76.0331	1,274.41	75.2398	1,274.41	75.4344	1,274.41	73.907	1,274.41	73.4476	1,274.41	70.406	1,274.41	70	1,274.41	70.1615	1,274.41	71.0904	1,274.41	72.9756	1,274.41	72.0164	1,274.41	71.5766	1,274.41	71.0654	1,274.41	70.1018	1,274.41	70.1984	1,274.41	72.092	1,274.41	70.4133	1,274.41	72.7317	1,274.41	71.7562	1,274.41	72.37
1,319.82	82.6484	1,319.82	82.2464	1,319.82	82.7116	1,319.82	82.1017	1,319.82	82.2555	1,319.82	82.0921	1,319.82	81.2239	1,319.82	81.2162	1,319.82	79.3158	1,319.82	79.2136	1,319.82	76.5744	1,319.82	76.7853	1,319.82	73.767	1,319.82	73.1088	1,319.82	72.6867	1,319.82	67.3709	1,319.82	71.6832	1,319.82	66.3677	1,319.82	66.5368	1,319.82	68.1327	1,319.82	62.946	1,319.82	65.8026	1,319.82	68.5591	1,319.82	68.6231	1,319.82	69.6791	1,319.82	72.1547	1,319.82	71.2504	1,319.82	71.3403	1,319.82	72.0497	1,319.82	68.9672	1,319.82	69.6557	1,319.82	68.9826	1,319.82	69.9386	1,319.82	71.8371	1,319.82	72.785	1,319.82	73.6165
1,366.7	82.1623	1,366.7	82.5824	1,366.7	82.0641	1,366.7	82.6744	1,366.7	82.3641	1,366.7	81.948	1,366.7	82.2474	1,366.7	80.4627	1,366.7	80.5548	1,366.7	78.1357	1,366.7	76.2263	1,366.7	74.2678	1,366.7	69.2057	1,366.7	67.4402	1,366.7	70.4973	1,366.7	66.6759	1,366.7	73.7682	1,366.7	72.0155	1,366.7	75.1193	1,366.7	73.6538	1,366.7	73.4906	1,366.7	72.8156	1,366.7	70.5547	1,366.7	69.291	1,366.7	72.2862	1,366.7	70.5335	1,366.7	73.7538	1,366.7	73.1115	1,366.7	72.8323	1,366.7	71.9497	1,366.7	70.7955	1,366.7	67.6886	1,366.7	70.73	1,366.7	67.0009	1,366.7	69.9073	1,366.7	69.3283
1,413.57	82.5537	1,413.57	83.1184	1,413.57	82.0989	1,413.57	82.5955	1,413.57	81.9249	1,413.57	80.2049	1,413.57	81.787	1,413.57	77.9987	1,413.57	81.1879	1,413.57	78.0419	1,413.57	79.3286	1,413.57	77.1588	1,413.57	75.8774	1,413.57	76.0971	1,413.57	71.1251	1,413.57	75.977	1,413.57	68.7708	1,413.57	75.1495	1,413.57	69.539	1,413.57	75.1844	1,413.57	68.3986	1,413.57	74.8251	1,413.57	64.7999	1,413.57	69.2227	1,413.57	61.7602	1,413.57	64.0877	1,413.57	66.692	1,413.57	71.6988	1,413.57	73.2611	1,413.57	72.5811	1,413.57	74.802	1,413.57	69.2006	1,413.57	72.2495	1,413.57	64.2566	1,413.57	70.7239	1,413.57	67.8501
1,463.38	83.6198	1,463.38	83.8442	1,463.38	82.9788	1,463.38	82.6225	1,463.38	82.26	1,463.38	80.3537	1,463.38	81.7867	1,463.38	80.1112	1,463.38	81.8593	1,463.38	80.2533	1,463.38	81.1934	1,463.38	79.4594	1,463.38	78.7261	1,463.38	78.8145	1,463.38	76.1997	1,463.38	76.0777	1,463.38	74.295	1,463.38	69.691	1,463.38	74.3043	1,463.38	69.9795	1,463.38	73.6723	1,463.38	73.0647	1,463.38	66.6077	1,463.38	71.4906	1,463.38	59.046	1,463.38	69.1016	1,463.38	65.8542	1,463.38	72.8084	1,463.38	72.8218	1,463.38	73.916	1,463.38	74.5852	1,463.38	71.5678	1,463.38	74.0545	1,463.38	65.0495	1,463.38	72.5006	1,463.38	65.5006
1,516.11	84.0469	1,516.11	83.0725	1,516.11	83.9744	1,516.11	81.5675	1,516.11	83.0777	1,516.11	81.7193	1,516.11	82.0501	1,516.11	82.2521	1,516.11	81.9457	1,516.11	81.3033	1,516.11	82.3336	1,516.11	79.7769	1,516.11	81.4917	1,516.11	78.4959	1,516.11	78.7028	1,516.11	76.0152	1,516.11	75.4587	1,516.11	70.5195	1,516.11	74.6293	1,516.11	67.1155	1,516.11	74.7468	1,516.11	71.7627	1,516.11	74.7023	1,516.11	73.7204	1,516.11	71.8604	1,516.11	75.2489	1,516.11	70.5005	1,516.11	75.1566	1,516.11	72.8535	1,516.11	72.9437	1,516.11	73.4212	1,516.11	70.2629	1,516.11	72.2021	1,516.11	71.2963	1,516.11	71.9956	1,516.11	72.6616
1,568.85	83.193	1,568.85	82.1359	1,568.85	83.1218	1,568.85	81.641	1,568.85	82.3227	1,568.85	82.7241	1,568.85	81.764	1,568.85	82.3198	1,568.85	81.7804	1,568.85	79.8299	1,568.85	81.6073	1,568.85	77.836	1,568.85	80.7096	1,568.85	75.9935	1,568.85	78.8066	1,568.85	74.1161	1,568.85	76.5757	1,568.85	72.9485	1,568.85	74.7647	1,568.85	57.9406	1,568.85	75.6374	1,568.85	73.5257	1,568.85	77.2729	1,568.85	77.9726	1,568.85	76.0182	1,568.85	77.1113	1,568.85	76.1575	1,568.85	71.2538	1,568.85	74.5019	1,568.85	67.7935	1,568.85	75.2393	1,568.85	74.225	1,568.85	73.5977	1,568.85	74.3426	1,568.85	70.9511	1,568.85	71.1488
1,624.51	82.9899	1,624.51	82.6691	1,624.51	82.6657	1,624.51	82.4118	1,624.51	81.8982	1,624.51	82.8314	1,624.51	81.1648	1,624.51	82.574	1,624.51	80.7286	1,624.51	80.2186	1,624.51	80.9372	1,624.51	77.4963	1,624.51	79.976	1,624.51	76.5582	1,624.51	77.188	1,624.51	76.6327	1,624.51	75.9944	1,624.51	76.7545	1,624.51	75.1628	1,624.51	72.1619	1,624.51	72.9029	1,624.51	56.1456	1,624.51	69.3303	1,624.51	73.6331	1,624.51	70.6412	1,624.51	75.7006	1,624.51	71.1242	1,624.51	73.2943	1,624.51	72.0949	1,624.51	71.0958	1,624.51	74.0078	1,624.51	71.0715	1,624.51	70.8493	1,624.51	71.205	1,624.51	69.9214	1,624.51	70.4617
1,681.64	83.7051	1,681.64	83.3261	1,681.64	84.0974	1,681.64	83.6933	1,681.64	83.4851	1,681.64	83.7727	1,681.64	81.4068	1,681.64	81.818	1,681.64	78.7924	1,681.64	79.2012	1,681.64	78.9956	1,681.64	79.1438	1,681.64	80.3406	1,681.64	77.4187	1,681.64	79.0592	1,681.64	77.8623	1,681.64	74.5802	1,681.64	77.9014	1,681.64	74.503	1,681.64	75.893	1,681.64	76.4698	1,681.64	71.4625	1,681.64	77.1971	1,681.64	60.6721	1,681.64	75.3628	1,681.64	74.5507	1,681.64	69.257	1,681.64	75.9762	1,681.64	71.3205	1,681.64	73.3209	1,681.64	74.2311	1,681.64	72.4641	1,681.64	73.7412	1,681.64	72.6651	1,681.64	72.4849	1,681.64	72.7423
1,741.7	83.9862	1,741.7	85.0329	1,741.7	83.7624	1,741.7	85.0767	1,741.7	83.9445	1,741.7	82.7019	1,741.7	83.2026	1,741.7	79.9933	1,741.7	80.7776	1,741.7	79.5597	1,741.7	78.5164	1,741.7	78.6379	1,741.7	79.5736	1,741.7	75.6558	1,741.7	80.283	1,741.7	74.4327	1,741.7	74.7857	1,741.7	77.5949	1,741.7	73.1758	1,741.7	77.1745	1,741.7	74.4867	1,741.7	72.1051	1,741.7	73.7598	1,741.7	58.3975	1,741.7	74.3027	1,741.7	72.3013	1,741.7	72.1753	1,741.7	77.0069	1,741.7	72.7429	1,741.7	75.5692	1,741.7	67.0834	1,741.7	73.6069	1,741.7	70.0431	1,741.7	73.3654	1,741.7	72.6695	1,741.7	73.5419
1,803.22	84.265	1,803.22	84.9924	1,803.22	84.0246	1,803.22	84.5476	1,803.22	83.9521	1,803.22	82.1779	1,803.22	83.1548	1,803.22	80.9258	1,803.22	81.5569	1,803.22	80.1507	1,803.22	80.0039	1,803.22	78.9581	1,803.22	78.7115	1,803.22	78.6309	1,803.22	78.4038	1,803.22	76.106	1,803.22	76.6871	1,803.22	70.639	1,803.22	69.3798	1,803.22	72.7463	1,803.22	68.1192	1,803.22	74.6405	1,803.22	72.2359	1,803.22	65.1136	1,803.22	74.7989	1,803.22	70.2017	1,803.22	74.3508	1,803.22	73.8819	1,803.22	71.348	1,803.22	72.8115	1,803.22	70.6417	1,803.22	74.449	1,803.22	73.6627	1,803.22	74.3182	1,803.22	74.0218	1,803.22	72.8254
1,866.21	84.0477	1,866.21	85.0127	1,866.21	83.3423	1,866.21	84.0221	1,866.21	83.4992	1,866.21	82.0984	1,866.21	83.0351	1,866.21	80.9932	1,866.21	82.1996	1,866.21	79.823	1,866.21	80.4984	1,866.21	78.7186	1,866.21	77.9899	1,866.21	76.9667	1,866.21	74.7013	1,866.21	71.9601	1,866.21	72.9896	1,866.21	69.1264	1,866.21	72.4746	1,866.21	67.1862	1,866.21	66.552	1,866.21	70.0875	1,866.21	64.2006	1,866.21	72.5395	1,866.21	71.9259	1,866.21	63.5397	1,866.21	73.5531	1,866.21	72.9952	1,866.21	72.9921	1,866.21	70.4573	1,866.21	69.6379	1,866.21	72.1609	1,866.21	72.6081	1,866.21	72.3155	1,866.21	73.5028	1,866.21	71.5634
1,932.13	83.7238	1,932.13	84.1557	1,932.13	82.3774	1,932.13	82.9893	1,932.13	82.5729	1,932.13	82.6126	1,932.13	82.7706	1,932.13	81.8104	1,932.13	82.3624	1,932.13	79.3221	1,932.13	80.6457	1,932.13	78.8525	1,932.13	79.4167	1,932.13	76.692	1,932.13	77.4304	1,932.13	73.1538	1,932.13	73.1054	1,932.13	71.6104	1,932.13	71.825	1,932.13	73.972	1,932.13	72.5783	1,932.13	68.0908	1,932.13	71.6862	1,932.13	71.6518	1,932.13	71.9772	1,932.13	67.4029	1,932.13	71.6163	1,932.13	70.5722	1,932.13	71.9269	1,932.13	73.1066	1,932.13	70.3701	1,932.13	70.2017	1,932.13	68.9852	1,932.13	71.6148	1,932.13	69.4448	1,932.13	69.2763
1,999.51	83.736	1,999.51	83.3154	1,999.51	82.488	1,999.51	82.19	1,999.51	81.0628	1,999.51	83.493	1,999.51	81.6715	1,999.51	82.0884	1,999.51	81.914	1,999.51	79.6459	1,999.51	80.5532	1,999.51	79.6002	1,999.51	79.5219	1,999.51	75.8018	1,999.51	78.2286	1,999.51	73.3722	1,999.51	75.6841	1,999.51	70.4881	1,999.51	68.8583	1,999.51	54.2632	1,999.51	67.6519	1,999.51	71.951	1,999.51	71.9064	1,999.51	71.0636	1,999.51	70.2991	1,999.51	70.9307	1,999.51	71.3202	1,999.51	68.069	1,999.51	71.5135	1,999.51	72.2185	1,999.51	71.5643	1,999.51	70.9538	1,999.51	70.6008	1,999.51	70.377	1,999.51	71.6995	1,999.51	69.6808
2,069.82	84.4987	2,069.82	82.8554	2,069.82	83.6963	2,069.82	82.3951	2,069.82	81.8477	2,069.82	83.2428	2,069.82	81.559	2,069.82	81.9185	2,069.82	81.4528	2,069.82	80.1355	2,069.82	80.6284	2,069.82	76.3074	2,069.82	78.8438	2,069.82	75.2202	2,069.82	77.636	2,069.82	76.633	2,069.82	74.0483	2,069.82	75.8446	2,069.82	70.2333	2,069.82	73.1148	2,069.82	70.948	2,069.82	61.3449	2,069.82	70.9105	2,069.82	70.8562	2,069.82	70.1064	2,069.82	71.5243	2,069.82	69.9284	2,069.82	67.2289	2,069.82	72.4942	2,069.82	72.1055	2,069.82	71.9691	2,069.82	70.6119	2,069.82	70.7635	2,069.82	69.8091	2,069.82	70.2898	2,069.82	69.7549
2,143.07	84.5728	2,143.07	83.7695	2,143.07	84.9265	2,143.07	83.4376	2,143.07	83.2313	2,143.07	82.0392	2,143.07	81.6181	2,143.07	80.8879	2,143.07	81.5654	2,143.07	80.2247	2,143.07	80.9529	2,143.07	78.2643	2,143.07	79.2795	2,143.07	76.3361	2,143.07	78.4117	2,143.07	72.5606	2,143.07	78.1836	2,143.07	70.8267	2,143.07	75.4114	2,143.07	69.6353	2,143.07	74.148	2,143.07	68.8754	2,143.07	68.6001	2,143.07	63.5907	2,143.07	68.9359	2,143.07	72.979	2,143.07	68.246	2,143.07	68.8191	2,143.07	70.8223	2,143.07	70.7664	2,143.07	72.2333	2,143.07	70.3497	2,143.07	68.3648	2,143.07	68.7179	2,143.07	70.4055	2,143.07	70.6724
2,219.24	84.2329	2,219.24	84.6085	2,219.24	84.5784	2,219.24	84.4059	2,219.24	84.3453	2,219.24	81.5634	2,219.24	83.1298	2,219.24	79.905	2,219.24	81.7556	2,219.24	80.8674	2,219.24	80.5917	2,219.24	79.2554	2,219.24	78.1329	2,219.24	76.6043	2,219.24	77.2878	2,219.24	75.2112	2,219.24	77.2912	2,219.24	72.1173	2,219.24	73.5188	2,219.24	70.6776	2,219.24	72.0737	2,219.24	70.5465	2,219.24	71.2426	2,219.24	68.2561	2,219.24	63.7386	2,219.24	70.5553	2,219.24	68.1703	2,219.24	70.0152	2,219.24	70.1419	2,219.24	68.5622	2,219.24	69.5351	2,219.24	72.3664	2,219.24	68.4383	2,219.24	69.8303	2,219.24	69.1328	2,219.24	68.075
2,296.88	82.6812	2,296.88	83.11	2,296.88	83.6481	2,296.88	84.0323	2,296.88	84.2583	2,296.88	82.3576	2,296.88	84.0663	2,296.88	81.5821	2,296.88	82.6719	2,296.88	81.8224	2,296.88	81.6484	2,296.88	79.6444	2,296.88	79.3481	2,296.88	77.9637	2,296.88	75.0184	2,296.88	74.6199	2,296.88	74.2463	2,296.88	67.263	2,296.88	75.5963	2,296.88	72.8214	2,296.88	72.4725	2,296.88	72.096	2,296.88	70.5203	2,296.88	68.8102	2,296.88	66.1786	2,296.88	67.6727	2,296.88	66.5476	2,296.88	72.3982	2,296.88	69.247	2,296.88	66.3375	2,296.88	69.9255	2,296.88	71.2604	2,296.88	63.4698	2,296.88	69.9835	2,296.88	65.8796	2,296.88	65.9375
2,378.91	82.8702	2,378.91	83.4258	2,378.91	83.3094	2,378.91	83.2991	2,378.91	83.9388	2,378.91	83.1637	2,378.91	84.6569	2,378.91	82.8563	2,378.91	84.0114	2,378.91	80.7278	2,378.91	82.4973	2,378.91	79.3573	2,378.91	80.107	2,378.91	75.2954	2,378.91	77.9785	2,378.91	75.3262	2,378.91	76.1073	2,378.91	75.7952	2,378.91	76.0838	2,378.91	68.6971	2,378.91	73.8047	2,378.91	70.6008	2,378.91	64.4099	2,378.91	71.8937	2,378.91	69.6759	2,378.91	67.8433	2,378.91	68.5926	2,378.91	71.9567	2,378.91	69.1717	2,378.91	68.2478	2,378.91	70.0879	2,378.91	69.9371	2,378.91	68.1932	2,378.91	69.5006	2,378.91	65.3832	2,378.91	64.33
2,462.4	84.5813	2,462.4	84.2514	2,462.4	84.0528	2,462.4	83.4202	2,462.4	83.0767	2,462.4	84.2448	2,462.4	83.2055	2,462.4	83.5516	2,462.4	83.3852	2,462.4	80.0643	2,462.4	81.9243	2,462.4	78.2029	2,462.4	79.8029	2,462.4	78.2829	2,462.4	78.5704	2,462.4	74.9203	2,462.4	74.6304	2,462.4	70.2703	2,462.4	72.4428	2,462.4	69.1416	2,462.4	68.8761	2,462.4	67.4223	2,462.4	66.9137	2,462.4	69.2162	2,462.4	62.3486	2,462.4	69.2561	2,462.4	69.4994	2,462.4	70.994	2,462.4	69.8213	2,462.4	70.9601	2,462.4	70.3508	2,462.4	69.2026	2,462.4	68.5475	2,462.4	70.9702	2,462.4	65.1419	2,462.4	65.6736
2,548.83	85.5142	2,548.83	85.1935	2,548.83	85.2038	2,548.83	84.6877	2,548.83	84.3113	2,548.83	83.595	2,548.83	83.0145	2,548.83	81.9629	2,548.83	82.6641	2,548.83	79.7444	2,548.83	81.5648	2,548.83	79.1809	2,548.83	79.4035	2,548.83	76.2432	2,548.83	75.4917	2,548.83	75.6473	2,548.83	74.5976	2,548.83	73.0635	2,548.83	72.7728	2,548.83	69.062	2,548.83	54.6877	2,548.83	65.9515	2,548.83	62.7598	2,548.83	69.1078	2,548.83	69.3901	2,548.83	70.4066	2,548.83	65.8043	2,548.83	69.1506	2,548.83	69.1031	2,548.83	71.4518	2,548.83	71.3749	2,548.83	70.7623	2,548.83	68.6296	2,548.83	72.3781	2,548.83	65.1279	2,548.83	67.407
2,639.65	84.9653	2,639.65	85.3998	2,639.65	85.2553	2,639.65	85.4128	2,639.65	85.7272	2,639.65	83.3218	2,639.65	84.5728	2,639.65	81.7999	2,639.65	82.4904	2,639.65	82.9198	2,639.65	81.0816	2,639.65	79.5023	2,639.65	77.3871	2,639.65	77.3778	2,639.65	75.7058	2,639.65	74.6859	2,639.65	77.2357	2,639.65	66.0604	2,639.65	71.3398	2,639.65	72.1273	2,639.65	64.4025	2,639.65	71.7225	2,639.65	63.3036	2,639.65	66.5425	2,639.65	69.0858	2,639.65	70.4694	2,639.65	66.2479	2,639.65	70.7696	2,639.65	69.8711	2,639.65	72.0151	2,639.65	71.7233	2,639.65	72.0737	2,639.65	68.9819	2,639.65	72.0836	2,639.65	66.7269	2,639.65	67.8354
2,731.93	83.7948	2,731.93	83.9008	2,731.93	84.2832	2,731.93	84.0074	2,731.93	85.2674	2,731.93	83.2486	2,731.93	84.709	2,731.93	83.4421	2,731.93	83.6352	2,731.93	82.7659	2,731.93	81.4966	2,731.93	79.7549	2,731.93	78.0838	2,731.93	76.1003	2,731.93	76.1417	2,731.93	75.786	2,731.93	73.003	2,731.93	75.0049	2,731.93	64.0369	2,731.93	70.7751	2,731.93	66.2323	2,731.93	69.4388	2,731.93	68.1778	2,731.93	70.3261	2,731.93	66.1361	2,731.93	66.9482	2,731.93	67.8293	2,731.93	70.6483	2,731.93	70.0943	2,731.93	69.9125	2,731.93	71.9388	2,731.93	70.3245	2,731.93	67.8203	2,731.93	70.7915	2,731.93	62.5429	2,731.93	65.6238
2,828.61	83.6325	2,828.61	83.1349	2,828.61	83.9333	2,828.61	82.7008	2,828.61	84.2622	2,828.61	83.7405	2,828.61	83.7944	2,828.61	83.195	2,828.61	83.4475	2,828.61	82.6107	2,828.61	81.4359	2,828.61	79.3762	2,828.61	78.0979	2,828.61	77.6231	2,828.61	76.6957	2,828.61	75.2869	2,828.61	74.2188	2,828.61	73.8744	2,828.61	62.6776	2,828.61	69.6097	2,828.61	72.9033	2,828.61	68.6783	2,828.61	70.167	2,828.61	66.5947	2,828.61	66.5204	2,828.61	68.1671	2,828.61	66.8707	2,828.61	70.2227	2,828.61	67.8749	2,828.61	70.1239	2,828.61	70.192	2,828.61	68.3412	2,828.61	67.0584	2,828.61	70.4089	2,828.61	62.4561	2,828.61	66.1705
2,928.22	84.7061	2,928.22	84.3917	2,928.22	84.2348	2,928.22	84.2179	2,928.22	83.9906	2,928.22	83.8389	2,928.22	83.4523	2,928.22	83.1507	2,928.22	82.979	2,928.22	82.0382	2,928.22	81.3805	2,928.22	80.4929	2,928.22	78.6707	2,928.22	78.7291	2,928.22	76.4556	2,928.22	75.4078	2,928.22	71.4704	2,928.22	70.5925	2,928.22	73.4454	2,928.22	68.9832	2,928.22	73.5375	2,928.22	63.158	2,928.22	72.5113	2,928.22	71.0951	2,928.22	61.2108	2,928.22	68.301	2,928.22	64.2014	2,928.22	69.441	2,928.22	67.6255	2,928.22	68.3386	2,928.22	69.5317	2,928.22	69.8689	2,928.22	67.5231	2,928.22	70.6729	2,928.22	61.529	2,928.22	63.7489
3,030.76	85.0862	3,030.76	85.1219	3,030.76	84.2833	3,030.76	84.9607	3,030.76	83.6047	3,030.76	83.4607	3,030.76	83.8411	3,030.76	83.5658	3,030.76	82.5509	3,030.76	81.483	3,030.76	80.2435	3,030.76	79.9766	3,030.76	78.3056	3,030.76	77.7795	3,030.76	74.7776	3,030.76	70.7951	3,030.76	70.1403	3,030.76	70.8292	3,030.76	75.3062	3,030.76	68.4697	3,030.76	71.2334	3,030.76	67.2026	3,030.76	68.6718	3,030.76	68.8776	3,030.76	63.3715	3,030.76	69.689	3,030.76	68.5431	3,030.76	70.4814	3,030.76	66.4094	3,030.76	68.3794	3,030.76	70.3321	3,030.76	69.2855	3,030.76	68.5327	3,030.76	70.4937	3,030.76	57.2123	3,030.76	65.3337
3,137.7	84.7506	3,137.7	84.3901	3,137.7	84.9797	3,137.7	84.5994	3,137.7	83.6091	3,137.7	84.485	3,137.7	83.2685	3,137.7	83.3298	3,137.7	82.1475	3,137.7	81.771	3,137.7	79.5922	3,137.7	78.9401	3,137.7	77.7275	3,137.7	74.1941	3,137.7	73.4602	3,137.7	73.2367	3,137.7	71.3538	3,137.7	71.3357	3,137.7	75.7544	3,137.7	68.7562	3,137.7	63.7929	3,137.7	67.4078	3,137.7	49.3177	3,137.7	61.37	3,137.7	60.1419	3,137.7	68.7146	3,137.7	69.5875	3,137.7	69.8564	3,137.7	64.6557	3,137.7	70.8157	3,137.7	68.5396	3,137.7	68.5666	3,137.7	66.949	3,137.7	68.316	3,137.7	54.4011	3,137.7	64.6177
3,249.02	84.299	3,249.02	83.3087	3,249.02	84.8055	3,249.02	84.1992	3,249.02	83.928	3,249.02	84.6841	3,249.02	83.1297	3,249.02	82.6163	3,249.02	81.8751	3,249.02	81.2317	3,249.02	79.6402	3,249.02	77.3125	3,249.02	77.3668	3,249.02	75.0568	3,249.02	75.2802	3,249.02	74.2537	3,249.02	76.6983	3,249.02	69.1036	3,249.02	76.0017	3,249.02	64.8452	3,249.02	66.2781	3,249.02	66.1687	3,249.02	62.5829	3,249.02	66.8346	3,249.02	50.5526	3,249.02	66.8131	3,249.02	66.9165	3,249.02	66.9384	3,249.02	65.131	3,249.02	71.1666	3,249.02	66.8965	3,249.02	68.8962	3,249.02	66.5267	3,249.02	69.0471	3,249.02	57.5006	3,249.02	65.4749
3,363.28	83.6539	3,363.28	83.5065	3,363.28	84.0332	3,363.28	83.5971	3,363.28	83.9399	3,363.28	83.8023	3,363.28	82.8074	3,363.28	82.8629	3,363.28	81.5643	3,363.28	80.8503	3,363.28	78.846	3,363.28	77.4085	3,363.28	78.7832	3,363.28	76.8599	3,363.28	77.0922	3,363.28	70.0492	3,363.28	77.2099	3,363.28	66.6217	3,363.28	74.333	3,363.28	68.3017	3,363.28	68.6098	3,363.28	64.6064	3,363.28	63.0356	3,363.28	66.8078	3,363.28	58.881	3,363.28	64.3667	3,363.28	63.514	3,363.28	67.871	3,363.28	63.8358	3,363.28	67.7935	3,363.28	67.2755	3,363.28	67.5461	3,363.28	62.9792	3,363.28	68.6161	3,363.28	56.0174	3,363.28	64.0955
3,481.93	83.9893	3,481.93	84.5222	3,481.93	84.2142	3,481.93	84.305	3,481.93	83.9055	3,481.93	82.8675	3,481.93	82.7401	3,481.93	82.1823	3,481.93	80.7659	3,481.93	80.0614	3,481.93	77.774	3,481.93	78.4286	3,481.93	77.8633	3,481.93	75.7513	3,481.93	76.7243	3,481.93	73.1061	3,481.93	75.4501	3,481.93	71.5071	3,481.93	70.8819	3,481.93	67.5352	3,481.93	68.2255	3,481.93	63.753	3,481.93	63.6145	3,481.93	63.2585	3,481.93	55.5385	3,481.93	68.7532	3,481.93	55.8801	3,481.93	68.5509	3,481.93	63.3067	3,481.93	67.3736	3,481.93	67.4519	3,481.93	68.4916	3,481.93	64.7075	3,481.93	69.0905	3,481.93	52.5417	3,481.93	63.4891
3,604.98	84.4958	3,604.98	84.2755	3,604.98	84.1357	3,604.98	85.0588	3,604.98	83.5958	3,604.98	83.472	3,604.98	83.0642	3,604.98	81.926	3,604.98	80.9391	3,604.98	80.5835	3,604.98	79.5261	3,604.98	78.6518	3,604.98	77.8868	3,604.98	75.9764	3,604.98	76.6246	3,604.98	75.4506	3,604.98	71.7606	3,604.98	70.7428	3,604.98	65.8193	3,604.98	68.1229	3,604.98	64.7107	3,604.98	66.332	3,604.98	63.5398	3,604.98	64.8239	3,604.98	59.2884	3,604.98	69.0569	3,604.98	55.2654	3,604.98	66.4894	3,604.98	65.5105	3,604.98	69.2009	3,604.98	65.4835	3,604.98	69.3841	3,604.98	65.2984	3,604.98	68.3896	3,604.98	55.7077	3,604.98	64.645
3,732.42	84.8875	3,732.42	84.9656	3,732.42	84.7072	3,732.42	84.1702	3,732.42	82.6701	3,732.42	83.1795	3,732.42	81.5834	3,732.42	81.0806	3,732.42	80.4004	3,732.42	81.1783	3,732.42	79.4883	3,732.42	78.2514	3,732.42	78.7051	3,732.42	77.3714	3,732.42	73.8794	3,732.42	72.9715	3,732.42	61.6089	3,732.42	70.4485	3,732.42	61.3067	3,732.42	67.8775	3,732.42	52.5038	3,732.42	66.2301	3,732.42	60.3588	3,732.42	65.2526	3,732.42	59.2082	3,732.42	67.0233	3,732.42	57.2101	3,732.42	67.4192	3,732.42	64.8599	3,732.42	68.631	3,732.42	64.1992	3,732.42	67.9876	3,732.42	64.6508	3,732.42	67.4175	3,732.42	55.377	3,732.42	66.1366
3,864.26	84.9939	3,864.26	84.8848	3,864.26	85.1356	3,864.26	84.2408	3,864.26	83.7947	3,864.26	82.2003	3,864.26	81.5375	3,864.26	81.9175	3,864.26	79.5943	3,864.26	80.9587	3,864.26	78.8901	3,864.26	79.4388	3,864.26	78.2229	3,864.26	77.6809	3,864.26	73.9398	3,864.26	71.8852	3,864.26	66.6546	3,864.26	70.1517	3,864.26	66.117	3,864.26	66.4855	3,864.26	64.0129	3,864.26	66.6643	3,864.26	55.7307	3,864.26	64.0514	3,864.26	62.88	3,864.26	65.7207	3,864.26	60.9648	3,864.26	67.8097	3,864.26	65.7456	3,864.26	69.0484	3,864.26	62.5759	3,864.26	67.855	3,864.26	64.8503	3,864.26	66.5245	3,864.26	55.7658	3,864.26	63.5611
4,000.49	84.0498	4,000.49	84.5141	4,000.49	83.5112	4,000.49	84.1834	4,000.49	83.4041	4,000.49	81.6273	4,000.49	82.5745	4,000.49	82.1134	4,000.49	79.7147	4,000.49	80.9191	4,000.49	79.823	4,000.49	79.8956	4,000.49	76.4832	4,000.49	75.3674	4,000.49	73.2793	4,000.49	74.4268	4,000.49	67.4398	4,000.49	71.2037	4,000.49	69.2739	4,000.49	68.0481	4,000.49	67.4669	4,000.49	65.5316	4,000.49	60.657	4,000.49	64.2835	4,000.49	61.5319	4,000.49	66.4915	4,000.49	61.0792	4,000.49	67.6182	4,000.49	65.4328	4,000.49	67.4122	4,000.49	63.0176	4,000.49	67.8333	4,000.49	65.2626	4,000.49	65.0749	4,000.49	56.684	4,000.49	59.5259
4,141.11	85.008	4,141.11	85.7069	4,141.11	83.582	4,141.11	83.0824	4,141.11	82.5026	4,141.11	82.4422	4,141.11	81.7448	4,141.11	81.1578	4,141.11	79.8919	4,141.11	81.3582	4,141.11	80.361	4,141.11	78.1765	4,141.11	75.9473	4,141.11	75.8919	4,141.11	69.9262	4,141.11	74.5366	4,141.11	71.0271	4,141.11	66.0788	4,141.11	72.3048	4,141.11	66.545	4,141.11	68.5692	4,141.11	64.1759	4,141.11	61.913	4,141.11	65.4014	4,141.11	60.7609	4,141.11	65.7459	4,141.11	53.7801	4,141.11	66.4227	4,141.11	61.1729	4,141.11	67.4733	4,141.11	64.07	4,141.11	68.3331	4,141.11	62.9328	4,141.11	63.1267	4,141.11	60.0835	4,141.11	59.4853
4,287.6	85.0465	4,287.6	85.4725	4,287.6	83.804	4,287.6	82.4432	4,287.6	82.6591	4,287.6	80.8361	4,287.6	81.4485	4,287.6	81.6708	4,287.6	80.8485	4,287.6	80.7761	4,287.6	80.536	4,287.6	77.1511	4,287.6	74.5298	4,287.6	75.6332	4,287.6	70.9559	4,287.6	65.175	4,287.6	73.3658	4,287.6	68.9704	4,287.6	69.2389	4,287.6	62.3806	4,287.6	56.4547	4,287.6	65.1596	4,287.6	59.7167	4,287.6	64.3934	4,287.6	55.7168	4,287.6	62.9754	4,287.6	64.5395	4,287.6	67.8219	4,287.6	64.7901	4,287.6	67.2941	4,287.6	63.7197	4,287.6	68.5537	4,287.6	62.9093	4,287.6	64.1967	4,287.6	61.416	4,287.6	56.3086
4,438.48	85.4285	4,438.48	84.1432	4,438.48	83.8837	4,438.48	82.7098	4,438.48	82.9579	4,438.48	82.0952	4,438.48	81.2261	4,438.48	82.3534	4,438.48	81.496	4,438.48	79.3096	4,438.48	79.8452	4,438.48	78.1705	4,438.48	72.3918	4,438.48	73.7737	4,438.48	74.6826	4,438.48	74.016	4,438.48	73.5056	4,438.48	69.1838	4,438.48	63.2466	4,438.48	64.4668	4,438.48	63.3654	4,438.48	67.3605	4,438.48	58.1803	4,438.48	59.7552	4,438.48	57.5363	4,438.48	62.22	4,438.48	64.8292	4,438.48	68.3265	4,438.48	63.107	4,438.48	67.2099	4,438.48	63.7418	4,438.48	68.0471	4,438.48	64.947	4,438.48	64.8134	4,438.48	61.8626	4,438.48	59.7783
4,595.21	85.2222	4,595.21	83.3657	4,595.21	83.6516	4,595.21	81.5845	4,595.21	82.0434	4,595.21	83.1422	4,595.21	81.2808	4,595.21	80.9731	4,595.21	81.1673	4,595.21	80.1903	4,595.21	77.3611	4,595.21	74.946	4,595.21	75.3579	4,595.21	74.9523	4,595.21	76.9031	4,595.21	72.6106	4,595.21	72.5597	4,595.21	68.0216	4,595.21	64.2081	4,595.21	66.9739	4,595.21	68.3639	4,595.21	60.879	4,595.21	45.9139	4,595.21	63.0265	4,595.21	62.1742	4,595.21	64.623	4,595.21	61.3132	4,595.21	67.5484	4,595.21	62.8214	4,595.21	66.0717	4,595.21	64.8118	4,595.21	66.967	4,595.21	64.3841	4,595.21	62.8311	4,595.21	62.1794	4,595.21	58.4805
4,756.35	85.0603	4,756.35	84.4327	4,756.35	83.0811	4,756.35	83.7694	4,756.35	82.0667	4,756.35	80.9337	4,756.35	81.0354	4,756.35	79.8671	4,756.35	80.5137	4,756.35	77.8191	4,756.35	74.01	4,756.35	76.9711	4,756.35	77.0555	4,756.35	75.1232	4,756.35	77.3954	4,756.35	70.3684	4,756.35	70.3309	4,756.35	69.8266	4,756.35	69.0461	4,756.35	63.3948	4,756.35	63.5362	4,756.35	65.5954	4,756.35	56.2101	4,756.35	64.8649	4,756.35	59.5802	4,756.35	64.5191	4,756.35	58.4921	4,756.35	65.3564	4,756.35	64.1881	4,756.35	66.7733	4,756.35	65.1187	4,756.35	68.2647	4,756.35	61.8821	4,756.35	63.3531	4,756.35	61.784	4,756.35	56.4382
4,924.8	84.2014	4,924.8	83.3674	4,924.8	83.3474	4,924.8	82.5562	4,924.8	80.0792	4,924.8	80.1162	4,924.8	80.184	4,924.8	79.1431	4,924.8	79.8303	4,924.8	77.4656	4,924.8	73.9544	4,924.8	76.4204	4,924.8	78.4031	4,924.8	73.6771	4,924.8	73.3712	4,924.8	72.6437	4,924.8	70.7866	4,924.8	66.9085	4,924.8	65.2999	4,924.8	66.3478	4,924.8	62.9441	4,924.8	61.942	4,924.8	52.2246	4,924.8	59.7254	4,924.8	53.9486	4,924.8	61.4925	4,924.8	59.3425	4,924.8	65.6974	4,924.8	59.2392	4,924.8	65.8833	4,924.8	62.0729	4,924.8	66.0601	4,924.8	59.9039	4,924.8	57.5432	4,924.8	59.3141	4,924.8	56.9212
5,097.66	81.7934	5,097.66	81.4821	5,097.66	81.7555	5,097.66	80.9391	5,097.66	79.9043	5,097.66	79.9918	5,097.66	78.4698	5,097.66	77.3577	5,097.66	78.0357	5,097.66	76.2141	5,097.66	72.2449	5,097.66	73.8177	5,097.66	77.0708	5,097.66	73.5548	5,097.66	69.7309	5,097.66	70.4577	5,097.66	68.819	5,097.66	66.472	5,097.66	64.1417	5,097.66	64.1259	5,097.66	65.2193	5,097.66	61.4286	5,097.66	55.9161	5,097.66	61.1298	5,097.66	55.4582	5,097.66	63.2078	5,097.66	56.1076	5,097.66	62.7385	5,097.66	61.8594	5,097.66	64.0793	5,097.66	62.873	5,097.66	64.3914	5,097.66	59.5776	5,097.66	60.3863	5,097.66	61.8214	5,097.66	52.114
5,277.83	81.1117	5,277.83	79.8673	5,277.83	79.9212	5,277.83	80.3986	5,277.83	78.3957	5,277.83	76.9981	5,277.83	77.3984	5,277.83	75.661	5,277.83	74.9254	5,277.83	75.0734	5,277.83	76.6532	5,277.83	74.6185	5,277.83	74.1197	5,277.83	71.8498	5,277.83	69.3868	5,277.83	67.7258	5,277.83	66.6837	5,277.83	67.192	5,277.83	62.1019	5,277.83	61.2597	5,277.83	62.1936	5,277.83	57.5812	5,277.83	51.5275	5,277.83	62.0211	5,277.83	51.9301	5,277.83	60.2733	5,277.83	49.8911	5,277.83	61.7797	5,277.83	61.461	5,277.83	64.1201	5,277.83	62.8543	5,277.83	64.2107	5,277.83	56.5254	5,277.83	61.6877	5,277.83	59.8823	5,277.83	47.7672
5,463.87	81.4098	5,463.87	82.3596	5,463.87	81.8783	5,463.87	81.4976	5,463.87	77.9835	5,463.87	77.538	5,463.87	77.6895	5,463.87	77.5724	5,463.87	74.9701	5,463.87	76.4552	5,463.87	78.1662	5,463.87	75.2014	5,463.87	71.8908	5,463.87	73.7802	5,463.87	72.0695	5,463.87	72.2731	5,463.87	66.9694	5,463.87	67.025	5,463.87	63.559	5,463.87	64.1986	5,463.87	58.7896	5,463.87	63.6744	5,463.87	53.3315	5,463.87	63.5849	5,463.87	51.7959	5,463.87	61.7288	5,463.87	53.7989	5,463.87	62.6974	5,463.87	56.3462	5,463.87	67.0956	5,463.87	62.1788	5,463.87	64.7308	5,463.87	54.438	5,463.87	63.1333	5,463.87	59.3493	5,463.87	55.68
5,657.23	82.8816	5,657.23	83.7646	5,657.23	84.1428	5,657.23	82.5166	5,657.23	79.2658	5,657.23	81.0775	5,657.23	78.6322	5,657.23	79.5753	5,657.23	78.6917	5,657.23	78.7787	5,657.23	76.8678	5,657.23	77.1646	5,657.23	74.0842	5,657.23	75.6502	5,657.23	74.0774	5,657.23	70.1592	5,657.23	69.2657	5,657.23	69.3716	5,657.23	66.8179	5,657.23	61.9646	5,657.23	58.1848	5,657.23	63.4656	5,657.23	56.8225	5,657.23	63.0062	5,657.23	49.9081	5,657.23	59.9526	5,657.23	58.7964	5,657.23	64.8494	5,657.23	61.6405	5,657.23	69.2539	5,657.23	62.8538	5,657.23	66.3775	5,657.23	54.5063	5,657.23	65.3881	5,657.23	61.4811	5,657.23	57.6465
5,856.45	82.6874	5,856.45	84.0704	5,856.45	84.0635	5,856.45	82.5443	5,856.45	83.1062	5,856.45	80.7264	5,856.45	80.2595	5,856.45	79.345	5,856.45	80.5232	5,856.45	79.5507	5,856.45	78.5793	5,856.45	77.8684	5,856.45	75.1175	5,856.45	75.4006	5,856.45	74.7265	5,856.45	74.8188	5,856.45	75.1816	5,856.45	69.3871	5,856.45	69.2702	5,856.45	66.7489	5,856.45	65.0576	5,856.45	64.4895	5,856.45	60.5937	5,856.45	60.1907	5,856.45	59.3544	5,856.45	59.6446	5,856.45	64.7676	5,856.45	64.5875	5,856.45	60.16	5,856.45	67.5448	5,856.45	64.2984	5,856.45	64.6745	5,856.45	57.4877	5,856.45	61.4629	5,856.45	60.5661	5,856.45	44.7341
6,062.99	83.8672	6,062.99	84.5632	6,062.99	82.7225	6,062.99	84.0696	6,062.99	84.9335	6,062.99	81.3112	6,062.99	80.3706	6,062.99	80.6416	6,062.99	80.6564	6,062.99	79.0068	6,062.99	79.0034	6,062.99	76.7595	6,062.99	77.9153	6,062.99	75.8415	6,062.99	76.0543	6,062.99	70.9043	6,062.99	76.7019	6,062.99	66.6807	6,062.99	69.4325	6,062.99	66.4063	6,062.99	64.6695	6,062.99	62.5211	6,062.99	56.3748	6,062.99	63.7889	6,062.99	62.3621	6,062.99	62.4157	6,062.99	65.3674	6,062.99	64.9088	6,062.99	63.6806	6,062.99	68.3849	6,062.99	65.1574	6,062.99	65.5008	6,062.99	60.1727	6,062.99	55.6835	6,062.99	60.9512	6,062.99	54.4246
6,276.86	84.4635	6,276.86	84.7306	6,276.86	83.6631	6,276.86	83.3178	6,276.86	85.8218	6,276.86	81.2545	6,276.86	78.5918	6,276.86	80.5604	6,276.86	80.6775	6,276.86	77.6275	6,276.86	79.8389	6,276.86	77.4087	6,276.86	78.7034	6,276.86	73.8663	6,276.86	78.4458	6,276.86	73.3168	6,276.86	75.1757	6,276.86	69.1593	6,276.86	68.1853	6,276.86	64.5959	6,276.86	62.0752	6,276.86	60.8641	6,276.86	60.0996	6,276.86	62.2889	6,276.86	56.0974	6,276.86	62.3465	6,276.86	56.6028	6,276.86	65.7822	6,276.86	65.2958	6,276.86	69.0663	6,276.86	67.2128	6,276.86	64.8292	6,276.86	56.4292	6,276.86	56.9675	6,276.86	61.0831	6,276.86	54.7161
6,498.05	84.995	6,498.05	84.0953	6,498.05	84.3177	6,498.05	82.6986	6,498.05	84.1408	6,498.05	81.0905	6,498.05	79.6185	6,498.05	78.7871	6,498.05	80.7896	6,498.05	77.1719	6,498.05	80.6309	6,498.05	76.4281	6,498.05	77.5156	6,498.05	76.2784	6,498.05	78.6625	6,498.05	71.3163	6,498.05	72.1056	6,498.05	68.7759	6,498.05	67.3564	6,498.05	62.4211	6,498.05	66.8394	6,498.05	61.7923	6,498.05	59.4395	6,498.05	63.3226	6,498.05	56.8876	6,498.05	62.8661	6,498.05	55.1254	6,498.05	63.3266	6,498.05	63.0179	6,498.05	67.0934	6,498.05	66.2242	6,498.05	64.0162	6,498.05	44.0493	6,498.05	57.3584	6,498.05	62.2362	6,498.05	55.5605
6,726.56	84.7057	6,726.56	83.8644	6,726.56	83.4002	6,726.56	82.7996	6,726.56	79.5901	6,726.56	81.5803	6,726.56	81.359	6,726.56	78.7034	6,726.56	80.7224	6,726.56	78.1551	6,726.56	79.1379	6,726.56	76.5496	6,726.56	77.8712	6,726.56	73.8438	6,726.56	75.0725	6,726.56	72.1866	6,726.56	67.3439	6,726.56	68.2955	6,726.56	66.7452	6,726.56	62.6253	6,726.56	63.5015	6,726.56	63.1175	6,726.56	52.3258	6,726.56	63.095	6,726.56	42.9181	6,726.56	57.9769	6,726.56	56.6643	6,726.56	61.9322	6,726.56	64.3615	6,726.56	65.264	6,726.56	61.2508	6,726.56	65.2347	6,726.56	56.3533	6,726.56	58.2072	6,726.56	58.7451	6,726.56	59.6424
6,963.87	84.3736	6,963.87	83.2499	6,963.87	82.3841	6,963.87	82.4698	6,963.87	80.2162	6,963.87	80.1076	6,963.87	81.1797	6,963.87	78.4451	6,963.87	80.8062	6,963.87	77.6933	6,963.87	77.4155	6,963.87	76.333	6,963.87	77.8823	6,963.87	74.5263	6,963.87	66.961	6,963.87	68.7975	6,963.87	71.3267	6,963.87	64.5698	6,963.87	60.6563	6,963.87	60.0014	6,963.87	59.5305	6,963.87	62.4382	6,963.87	48.1588	6,963.87	60.7208	6,963.87	50.1097	6,963.87	57.7081	6,963.87	57.7661	6,963.87	61.139	6,963.87	60.7974	6,963.87	63.313	6,963.87	50.3173	6,963.87	65.3376	6,963.87	59.1627	6,963.87	59.6957	6,963.87	51.1972	6,963.87	58.2545
7,209.96	85.558	7,209.96	83.908	7,209.96	83.534	7,209.96	82.2987	7,209.96	82.7814	7,209.96	79.7899	7,209.96	81.8418	7,209.96	79.6409	7,209.96	78.4811	7,209.96	77.6498	7,209.96	79.1147	7,209.96	75.6658	7,209.96	76.0022	7,209.96	72.9664	7,209.96	71.8195	7,209.96	69.8637	7,209.96	72.8259	7,209.96	65.0777	7,209.96	66.104	7,209.96	62.7344	7,209.96	62.907	7,209.96	60.3734	7,209.96	53.3486	7,209.96	59.5633	7,209.96	58.4451	7,209.96	58.3164	7,209.96	53.2955	7,209.96	60.0759	7,209.96	61.0385	7,209.96	59.7427	7,209.96	60.4071	7,209.96	62.255	7,209.96	58.3992	7,209.96	56.2253	7,209.96	51.4657	7,209.96	53.3005
7,464.84	85.5872	7,464.84	83.7635	7,464.84	85.2937	7,464.84	82.0372	7,464.84	83.6721	7,464.84	79.2156	7,464.84	82.2084	7,464.84	78.8283	7,464.84	77.2714	7,464.84	77.0982	7,464.84	79.6598	7,464.84	74.9756	7,464.84	73.5179	7,464.84	72.8014	7,464.84	76.4163	7,464.84	67.3409	7,464.84	72.0217	7,464.84	64.9023	7,464.84	69.7727	7,464.84	59.0274	7,464.84	59.1338	7,464.84	56.5818	7,464.84	57.2543	7,464.84	56.9995	7,464.84	58.041	7,464.84	54.6003	7,464.84	56.3319	7,464.84	56.3161	7,464.84	54.1005	7,464.84	61.0511	7,464.84	58.0658	7,464.84	61.9957	7,464.84	58.9724	7,464.84	54.296	7,464.84	52.9999	7,464.84	56.222
7,727.05	85.2484	7,727.05	84.259	7,727.05	84.6698	7,727.05	81.1903	7,727.05	83.347	7,727.05	79.5038	7,727.05	80.9396	7,727.05	79.1719	7,727.05	77.7421	7,727.05	77.0659	7,727.05	78.5134	7,727.05	73.8693	7,727.05	72.1464	7,727.05	70.007	7,727.05	74.9829	7,727.05	66.0481	7,727.05	66.146	7,727.05	62.8991	7,727.05	65.5575	7,727.05	58.4798	7,727.05	59.0437	7,727.05	56.8456	7,727.05	54.9873	7,727.05	56.0104	7,727.05	53.3419	7,727.05	53.0651	7,727.05	50.3837	7,727.05	54.4876	7,727.05	57.5063	7,727.05	61.6256	7,727.05	57.3991	7,727.05	59.75	7,727.05	56.7271	7,727.05	53.1254	7,727.05	52.3461	7,727.05	54.1314
7,999.51	86.0956	7,999.51	85.4443	7,999.51	84.3288	7,999.51	81.1179	7,999.51	81.2518	7,999.51	80.2774	7,999.51	80.7949	7,999.51	79.0928	7,999.51	77.8648	7,999.51	75.6602	7,999.51	75.9379	7,999.51	71.3848	7,999.51	72.6182	7,999.51	66.7588	7,999.51	70.0073	7,999.51	67.5997	7,999.51	62.2075	7,999.51	63.3218	7,999.51	64.5696	7,999.51	55.7149	7,999.51	63.8078	7,999.51	56.6096	7,999.51	60.1829	7,999.51	53.5721	7,999.51	56.0764	7,999.51	55.7762	7,999.51	36.3199	7,999.51	54.0633	7,999.51	57.5389	7,999.51	62.4596	7,999.51	60.2079	7,999.51	57.8596	7,999.51	51.9642	7,999.51	50.9157	7,999.51	46.7731	7,999.51	54.7253
8,282.23	85.1309	8,282.23	83.4092	8,282.23	83.1638	8,282.23	80.9695	8,282.23	80.9975	8,282.23	81.6562	8,282.23	81.1914	8,282.23	79.5881	8,282.23	77.6611	8,282.23	74.3147	8,282.23	70.0956	8,282.23	69.8023	8,282.23	73.6434	8,282.23	67.3419	8,282.23	59.4198	8,282.23	65.8358	8,282.23	70.5608	8,282.23	60.6453	8,282.23	67.9594	8,282.23	58.4963	8,282.23	65.004	8,282.23	59.5683	8,282.23	59.4012	8,282.23	58.4818	8,282.23	58.925	8,282.23	57.4974	8,282.23	48.0603	8,282.23	56.058	8,282.23	58.7541	8,282.23	63.622	8,282.23	53.8567	8,282.23	60.3062	8,282.23	46.3142	8,282.23	48.8933	8,282.23	46.5102	8,282.23	56.6159
8,573.73	80.8947	8,573.73	79.4812	8,573.73	82.0862	8,573.73	81.6345	8,573.73	81.6142	8,573.73	81.7951	8,573.73	81.2954	8,573.73	78.6693	8,573.73	79.032	8,573.73	72.7086	8,573.73	74.7188	8,573.73	70.7613	8,573.73	74.4715	8,573.73	70.4615	8,573.73	71.1474	8,573.73	67.5244	8,573.73	72.0754	8,573.73	61.6793	8,573.73	64.7936	8,573.73	59.9318	8,573.73	63.175	8,573.73	58.3089	8,573.73	56.2131	8,573.73	56.9424	8,573.73	54.401	8,573.73	53.9919	8,573.73	42.8249	8,573.73	55.1999	8,573.73	52.0947	8,573.73	62.3964	8,573.73	47.4212	8,573.73	59.29	8,573.73	46.3427	8,573.73	50.9562	8,573.73	40.7491	8,573.73	57.6982
8,876.95	80.4185	8,876.95	80.4383	8,876.95	83.1771	8,876.95	82.961	8,876.95	83.5592	8,876.95	81.8031	8,876.95	82.4576	8,876.95	78.8618	8,876.95	80.8048	8,876.95	73.1248	8,876.95	76.5225	8,876.95	72.3828	8,876.95	71.9617	8,876.95	70.2923	8,876.95	71.8782	8,876.95	66.2229	8,876.95	66.5673	8,876.95	60.059	8,876.95	63.5929	8,876.95	56.2428	8,876.95	61.4959	8,876.95	50.4959	8,876.95	58.136	8,876.95	54.8109	8,876.95	53.4792	8,876.95	51.8488	8,876.95	34.5141	8,876.95	48.0242	8,876.95	52.4562	8,876.95	58.1915	8,876.95	51.3357	8,876.95	56.4907	8,876.95	45.3964	8,876.95	53.4376	8,876.95	45.2491	8,876.95	55.1339
9,188.96	80.3333	9,188.96	82.0283	9,188.96	82.7251	9,188.96	84.0568	9,188.96	85.2857	9,188.96	82.2443	9,188.96	83.8299	9,188.96	79.2994	9,188.96	80.9767	9,188.96	75.4251	9,188.96	76.8268	9,188.96	73.6691	9,188.96	72.8448	9,188.96	70.9272	9,188.96	72.3615	9,188.96	65.1391	9,188.96	65.0827	9,188.96	62.9024	9,188.96	65.4865	9,188.96	57.3158	9,188.96	61.5324	9,188.96	53.122	9,188.96	62.0428	9,188.96	55.5018	9,188.96	33.9896	9,188.96	50.715	9,188.96	44.8048	9,188.96	49.1685	9,188.96	45.896	9,188.96	57.7133	9,188.96	49.9878	9,188.96	56.5638	9,188.96	54.3947	9,188.96	46.0463	9,188.96	48.3521	9,188.96	53.5748
9,514.16	80.462	9,514.16	82.3961	9,514.16	83.0307	9,514.16	84.2047	9,514.16	86.2078	9,514.16	82.09	9,514.16	83.2277	9,514.16	79.5933	9,514.16	80.3998	9,514.16	76.0524	9,514.16	75.7654	9,514.16	74.6486	9,514.16	76.0208	9,514.16	70.6694	9,514.16	68.6948	9,514.16	65.81	9,514.16	66.7734	9,514.16	61.1716	9,514.16	61.8161	9,514.16	51.6369	9,514.16	61.9605	9,514.16	54.2179	9,514.16	59.8696	9,514.16	54.8791	9,514.16	41.1773	9,514.16	47.8959	9,514.16	51.006	9,514.16	52.7639	9,514.16	48.3275	9,514.16	56.3898	9,514.16	56.636	9,514.16	57.4192	9,514.16	49.3383	9,514.16	49.888	9,514.16	46.7554	9,514.16	50.9635
9,849.61	81.2315	9,849.61	82.558	9,849.61	83.1807	9,849.61	83.8493	9,849.61	84.9942	9,849.61	81.2123	9,849.61	82.4368	9,849.61	79.4254	9,849.61	79.8897	9,849.61	76.805	9,849.61	77.7447	9,849.61	74.135	9,849.61	75.7614	9,849.61	70.2775	9,849.61	71.4395	9,849.61	64.8737	9,849.61	66.4001	9,849.61	59.7384	9,849.61	59.4449	9,849.61	55.3887	9,849.61	59.173	9,849.61	54.0479	9,849.61	52.7344	9,849.61	52.5235	9,849.61	47.9182	9,849.61	50.0623	9,849.61	50.7805	9,849.61	51.1853	9,849.61	51.3086	9,849.61	55.6117	9,849.61	54.2619	9,849.61	56.5726	9,849.61	50.3607	9,849.61	51.9641	9,849.61	47.9474	9,849.61	47.9454
10,196.8	81.0277	10,196.8	82.8781	10,196.8	82.0494	10,196.8	83.1491	10,196.8	82.7199	10,196.8	80.7021	10,196.8	81.9075	10,196.8	79.2716	10,196.8	79.4884	10,196.8	76.9501	10,196.8	77.4372	10,196.8	72.9993	10,196.8	74.8605	10,196.8	68.8099	10,196.8	68.719	10,196.8	63.9783	10,196.8	64.4588	10,196.8	57.2674	10,196.8	57.5942	10,196.8	57.2926	10,196.8	50.5646	10,196.8	55.7139	10,196.8	56.1384	10,196.8	52.1985	10,196.8	41.6347	10,196.8	45.8827	10,196.8	50.3724	10,196.8	45.8195	10,196.8	52.662	10,196.8	53.8754	10,196.8	49.0403	10,196.8	51.4541	10,196.8	49.9784	10,196.8	50.84	10,196.8	45.3513	10,196.8	48.598
10,555.7	81.7791	10,555.7	82.6435	10,555.7	81.8731	10,555.7	82.8506	10,555.7	80.8906	10,555.7	80.6148	10,555.7	80.388	10,555.7	79.2381	10,555.7	78.4797	10,555.7	76.2494	10,555.7	76.1889	10,555.7	72.0935	10,555.7	69.8424	10,555.7	67.8739	10,555.7	68.9578	10,555.7	64.202	10,555.7	63.5293	10,555.7	58.3323	10,555.7	59.5056	10,555.7	51.9098	10,555.7	55.7347	10,555.7	49.1583	10,555.7	58.916	10,555.7	51.5172	10,555.7	44.4039	10,555.7	45.7751	10,555.7	49.0341	10,555.7	41.9727	10,555.7	41.4936	10,555.7	56.7219	10,555.7	48.6567	10,555.7	40.9503	10,555.7	44.011	10,555.7	47.7165	10,555.7	44.8607	10,555.7	48.3765
10,927.7	81.5645	10,927.7	82.2509	10,927.7	82.4051	10,927.7	82.6813	10,927.7	82.1902	10,927.7	80.7905	10,927.7	79.0328	10,927.7	79.6291	10,927.7	78.302	10,927.7	75.9525	10,927.7	74.2592	10,927.7	72.8474	10,927.7	70.2362	10,927.7	68.387	10,927.7	63.9878	10,927.7	64.7611	10,927.7	54.5249	10,927.7	60.7776	10,927.7	49.3891	10,927.7	58.4662	10,927.7	55.0193	10,927.7	53.0652	10,927.7	59.5708	10,927.7	51.7246	10,927.7	47.7107	10,927.7	45.1278	10,927.7	42.2262	10,927.7	43.8258	10,927.7	37.7419	10,927.7	53.9317	10,927.7	47.1297	10,927.7	53.3203	10,927.7	51.0022	10,927.7	54.0301	10,927.7	43.2349	10,927.7	45.4251
11,313	81.0338	11,313	81.6915	11,313	82.1226	11,313	82.2633	11,313	81.866	11,313	80.8909	11,313	78.2917	11,313	79.9959	11,313	77.2214	11,313	76.0979	11,313	73.5491	11,313	73.4019	11,313	68.3463	11,313	69.3368	11,313	61.5148	11,313	66.7466	11,313	59.2514	11,313	60.1618	11,313	55.3858	11,313	55.032	11,313	55.3163	11,313	48.1514	11,313	58.8293	11,313	50.8339	11,313	45.7739	11,313	43.2083	11,313	38.0115	11,313	41.4169	11,313	39.903	11,313	55.1246	11,313	47.6011	11,313	52.3028	11,313	50.9041	11,313	54.4278	11,313	49.6491	11,313	44.9194
11,712.9	80.7865	11,712.9	81.1486	11,712.9	80.7562	11,712.9	81.7869	11,712.9	79.5036	11,712.9	80.6331	11,712.9	78.6078	11,712.9	79.8837	11,712.9	76.4263	11,712.9	76.1511	11,712.9	71.8266	11,712.9	72.5832	11,712.9	65.577	11,712.9	69.5181	11,712.9	64.3802	11,712.9	65.8479	11,712.9	60.4312	11,712.9	60.3478	11,712.9	50.7119	11,712.9	55.2833	11,712.9	55.182	11,712.9	49.9258	11,712.9	58.3148	11,712.9	49.8963	11,712.9	51.597	11,712.9	51.2851	11,712.9	43.0041	11,712.9	46.7499	11,712.9	30.4816	11,712.9	53.154	11,712.9	22.9354	11,712.9	52.4542	11,712.9	52.3748	11,712.9	56.4675	11,712.9	52.2677	11,712.9	40.2178
12,126	80.8348	12,126	80.8771	12,126	80.723	12,126	81.1131	12,126	79.2172	12,126	80.1986	12,126	78.708	12,126	79.1819	12,126	75.7656	12,126	75.2459	12,126	71.2697	12,126	71.7639	12,126	64.5233	12,126	68.3999	12,126	65.6581	12,126	64.0746	12,126	55.3169	12,126	60.0572	12,126	53.6184	12,126	53.4515	12,126	56.0667	12,126	50.3634	12,126	57.6772	12,126	49.8893	12,126	51.111	12,126	52.9347	12,126	45.7315	12,126	47.0362	12,126	40.9741	12,126	49.4107	12,126	44.7479	12,126	55.3262	12,126	52.9532	12,126	57.4692	12,126	54.199	12,126	32.9087
12,553.7	81.0184	12,553.7	81.2984	12,553.7	80.865	12,553.7	80.6849	12,553.7	79.7412	12,553.7	79.0649	12,553.7	77.6959	12,553.7	78.1039	12,553.7	75.2684	12,553.7	73.2787	12,553.7	70.8939	12,553.7	69.9655	12,553.7	66.1621	12,553.7	66.0461	12,553.7	64.5604	12,553.7	62.1623	12,553.7	56.3847	12,553.7	56.2928	12,553.7	52.7448	12,553.7	51.8574	12,553.7	57.426	12,553.7	48.5429	12,553.7	58.4216	12,553.7	48.7168	12,553.7	46.0292	12,553.7	50.4819	12,553.7	40.3099	12,553.7	46.2945	12,553.7	46.0044	12,553.7	44.2104	12,553.7	35.7723	12,553.7	53.5409	12,553.7	50.4781	12,553.7	55.0506	12,553.7	53.4675	12,553.7	37.6533
12,996.1	81.59	12,996.1	81.2975	12,996.1	80.6126	12,996.1	80.0158	12,996.1	79.3015	12,996.1	77.7492	12,996.1	77.6736	12,996.1	76.3645	12,996.1	74.5428	12,996.1	70.5144	12,996.1	69.0446	12,996.1	67.2823	12,996.1	66.5786	12,996.1	63.2371	12,996.1	63.6032	12,996.1	58.8521	12,996.1	52.5838	12,996.1	52.0218	12,996.1	51.4243	12,996.1	47.3824	12,996.1	59.1476	12,996.1	47.4572	12,996.1	60.4789	12,996.1	42.8041	12,996.1	52.6116	12,996.1	48.2681	12,996.1	36.1818	12,996.1	44.822	12,996.1	45.5806	12,996.1	33.0014	12,996.1	38.4526	12,996.1	53.1767	12,996.1	48.4471	12,996.1	54.9144	12,996.1	49.3236	12,996.1	42.5126
13,454.6	81.4356	13,454.6	81.142	13,454.6	80.7444	13,454.6	79.1121	13,454.6	79.5192	13,454.6	76.986	13,454.6	77.4961	13,454.6	75.2403	13,454.6	75.4839	13,454.6	68.7009	13,454.6	71.5293	13,454.6	66.3615	13,454.6	67.7272	13,454.6	62.913	13,454.6	65.4048	13,454.6	56.5422	13,454.6	59.8051	13,454.6	53.5316	13,454.6	46.6734	13,454.6	44.6615	13,454.6	59.9967	13,454.6	44.7724	13,454.6	62.4432	13,454.6	37.6472	13,454.6	54.6797	13,454.6	44.6008	13,454.6	47.3035	13,454.6	45.3456	13,454.6	46.2991	13,454.6	42.4912	13,454.6	40.7081	13,454.6	48.6126	13,454.6	44.0792	13,454.6	50.3063	13,454.6	47.6546	13,454.6	41.4774
13,929.2	81.333	13,929.2	80.7094	13,929.2	80.3388	13,929.2	78.7401	13,929.2	79.4758	13,929.2	77.7225	13,929.2	79.192	13,929.2	75.8072	13,929.2	76.6278	13,929.2	70.0777	13,929.2	72.5897	13,929.2	68.2267	13,929.2	69.3947	13,929.2	64.4728	13,929.2	66.4842	13,929.2	58.0315	13,929.2	59.6359	13,929.2	54.0379	13,929.2	44.3035	13,929.2	42.4452	13,929.2	59.9473	13,929.2	43.4998	13,929.2	63.4338	13,929.2	42.9455	13,929.2	53.9912	13,929.2	46.8392	13,929.2	48.7656	13,929.2	48.0948	13,929.2	41.6365	13,929.2	44.6916	13,929.2	45.2849	13,929.2	46.0796	13,929.2	45.5065	13,929.2	47.685	13,929.2	47.4281	13,929.2	45.3218
14,419.9	80.5927	14,419.9	80.0586	14,419.9	79.2446	14,419.9	78.6313	14,419.9	79.2128	14,419.9	78.4641	14,419.9	79.7439	14,419.9	76.2609	14,419.9	76.3356	14,419.9	71.2417	14,419.9	73.7295	14,419.9	68.4823	14,419.9	69.7698	14,419.9	64.7464	14,419.9	65.1247	14,419.9	58.3754	14,419.9	63.2154	14,419.9	53.5282	14,419.9	47.3007	14,419.9	47.375	14,419.9	60.6618	14,419.9	45.7871	14,419.9	64.1495	14,419.9	42.4813	14,419.9	56.005	14,419.9	46.1654	14,419.9	43.3514	14,419.9	42.9036	14,419.9	44.382	14,419.9	38.3927	14,419.9	36.8095	14,419.9	44.6472	14,419.9	41.8641	14,419.9	42.1519	14,419.9	47.1528	14,419.9	47.6008
14,928.2	80.9997	14,928.2	79.3089	14,928.2	79.4914	14,928.2	78.6582	14,928.2	79.6109	14,928.2	78.7893	14,928.2	79.741	14,928.2	76.346	14,928.2	76.5001	14,928.2	72.0284	14,928.2	74.5197	14,928.2	68.2763	14,928.2	69.6505	14,928.2	64.6475	14,928.2	65.3517	14,928.2	58.591	14,928.2	63.5736	14,928.2	52.3975	14,928.2	51.2984	14,928.2	40.0618	14,928.2	59.696	14,928.2	51.9578	14,928.2	63.5956	14,928.2	37.6281	14,928.2	55.6276	14,928.2	40.9871	14,928.2	50.1784	14,928.2	46.7244	14,928.2	37.8022	14,928.2	35.1795	14,928.2	43.7408	14,928.2	43.7256	14,928.2	46.3086	14,928.2	36.208	14,928.2	46.0684	14,928.2	49.4928
15,455.6	80.8831	15,455.6	78.6961	15,455.6	78.1424	15,455.6	78.5239	15,455.6	78.8235	15,455.6	78.7734	15,455.6	79.8491	15,455.6	76.7042	15,455.6	77.3262	15,455.6	72.4227	15,455.6	74.2928	15,455.6	68.4519	15,455.6	68.3044	15,455.6	65.0416	15,455.6	63.5624	15,455.6	60.3662	15,455.6	61.7294	15,455.6	54.7441	15,455.6	54.344	15,455.6	42.4007	15,455.6	59.0051	15,455.6	51.3385	15,455.6	64.3551	15,455.6	40.5396	15,455.6	55.3856	15,455.6	44.2617	15,455.6	51.3296	15,455.6	50.4717	15,455.6	45.687	15,455.6	32.2945	15,455.6	43.293	15,455.6	45.7671	15,455.6	46.5618	15,455.6	45.5748	15,455.6	41.5891	15,455.6	45.3462
16,000.5	80.8977	16,000.5	79.1058	16,000.5	79.3181	16,000.5	78.9166	16,000.5	79.4163	16,000.5	78.7599	16,000.5	78.2844	16,000.5	76.4615	16,000.5	76.2279	16,000.5	72.4303	16,000.5	73.6163	16,000.5	67.812	16,000.5	66.7837	16,000.5	65.6991	16,000.5	66.4661	16,000.5	61.1189	16,000.5	62.6811	16,000.5	53.8923	16,000.5	55.0198	16,000.5	44.8676	16,000.5	60.2869	16,000.5	54.5553	16,000.5	64.6344	16,000.5	41.5129	16,000.5	56.1865	16,000.5	44.7275	16,000.5	50.2366	16,000.5	50.195	16,000.5	43.4962	16,000.5	36.0712	16,000.5	35.3481	16,000.5	50.2181	16,000.5	34.2939	16,000.5	45.7935	16,000.5	42.4648	16,000.5	47.9672
16,564.5	81.0571	16,564.5	79.3567	16,564.5	79.2819	16,564.5	79.5991	16,564.5	80.3324	16,564.5	78.1634	16,564.5	78.7148	16,564.5	76.8088	16,564.5	77.7972	16,564.5	72.0443	16,564.5	73.3318	16,564.5	68.7117	16,564.5	66.893	16,564.5	66.3258	16,564.5	66.9147	16,564.5	61.6644	16,564.5	60.6648	16,564.5	54.9101	16,564.5	55.9099	16,564.5	47.4749	16,564.5	61.0745	16,564.5	54.0035	16,564.5	65.2422	16,564.5	46.2181	16,564.5	57.0132	16,564.5	48.0843	16,564.5	48.383	16,564.5	46.4531	16,564.5	38.8112	16,564.5	43.3683	16,564.5	29.2477	16,564.5	52.8719	16,564.5	41.0047	16,564.5	44.2717	16,564.5	42.4288	16,564.5	43.1013
17,148.9	80.4203	17,148.9	79.0436	17,148.9	79.3599	17,148.9	79.9185	17,148.9	80.1166	17,148.9	78.0342	17,148.9	78.0622	17,148.9	77.7776	17,148.9	74.8856	17,148.9	73.1973	17,148.9	72.3624	17,148.9	70.7146	17,148.9	68.9291	17,148.9	67.9758	17,148.9	66.7073	17,148.9	61.9981	17,148.9	59.841	17,148.9	55.6779	17,148.9	56.7026	17,148.9	47.5296	17,148.9	61.6385	17,148.9	54.1512	17,148.9	64.6962	17,148.9	45.2326	17,148.9	55.5238	17,148.9	46.8142	17,148.9	46.7282	17,148.9	38.6438	17,148.9	35.3629	17,148.9	46.6157	17,148.9	35.848	17,148.9	54.3375	17,148.9	44.0454	17,148.9	35.4423	17,148.9	43.7182	17,148.9	33.6734
17,752.4	79.3662	17,752.4	78.6695	17,752.4	78.4547	17,752.4	79.6219	17,752.4	78.2594	17,752.4	78.2482	17,752.4	78.9879	17,752.4	78.4861	17,752.4	78.6921	17,752.4	73.7308	17,752.4	74.5006	17,752.4	71.8197	17,752.4	70.5608	17,752.4	67.7305	17,752.4	66.7763	17,752.4	61.5412	17,752.4	62.5967	17,752.4	55.6977	17,752.4	57.292	17,752.4	49.2551	17,752.4	62.8395	17,752.4	55.9358	17,752.4	64.2897	17,752.4	45.0162	17,752.4	57.1714	17,752.4	41.7784	17,752.4	38.7636	17,752.4	42.0715	17,752.4	36.1049	17,752.4	42.1444	17,752.4	37.9776	17,752.4	54.9473	17,752.4	44.3513	17,752.4	34.3178	17,752.4	44.0493	17,752.4	38.5444
18,379.4	78.8496	18,379.4	78.7569	18,379.4	79.8002	18,379.4	79.2813	18,379.4	80.2462	18,379.4	78.0872	18,379.4	77.9505	18,379.4	78.4073	18,379.4	77.8577	18,379.4	73.5273	18,379.4	74.0059	18,379.4	71.4385	18,379.4	69.3279	18,379.4	66.8306	18,379.4	66.2711	18,379.4	60.7222	18,379.4	61.9133	18,379.4	56.1499	18,379.4	58.8995	18,379.4	46.5844	18,379.4	61.3295	18,379.4	53.7256	18,379.4	63.9512	18,379.4	45.7751	18,379.4	54.999	18,379.4	44.7941	18,379.4	38.2161	18,379.4	44.1169	18,379.4	37.147	18,379.4	39.5245	18,379.4	34.0722	18,379.4	47.81	18,379.4	37.1988	18,379.4	46.1099	18,379.4	41.1459	18,379.4	38.8959
19,026.9	79.3624	19,026.9	79.6883	19,026.9	79.8989	19,026.9	79.0676	19,026.9	78.2519	19,026.9	77.7207	19,026.9	78.8168	19,026.9	77.4042	19,026.9	76.3136	19,026.9	73.7387	19,026.9	74.8146	19,026.9	70.1344	19,026.9	69.042	19,026.9	65.2382	19,026.9	65.0171	19,026.9	61.0204	19,026.9	62.9004	19,026.9	54.7558	19,026.9	57.5862	19,026.9	42.6722	19,026.9	61.2177	19,026.9	52.3044	19,026.9	64.0021	19,026.9	45.3338	19,026.9	56.8899	19,026.9	37.3089	19,026.9	47.3667	19,026.9	48.6105	19,026.9	37.9646	19,026.9	45.1802	19,026.9	29.8123	19,026.9	45.3007	19,026.9	43.0992	19,026.9	46.4718	19,026.9	37.9379	19,026.9	31.2814
19,697.8	78.8035	19,697.8	80.0243	19,697.8	80.2631	19,697.8	78.3608	19,697.8	77.9887	19,697.8	77.4271	19,697.8	78.0095	19,697.8	76.498	19,697.8	76.1093	19,697.8	73.5022	19,697.8	73.5048	19,697.8	68.6898	19,697.8	68.2059	19,697.8	65.3773	19,697.8	65.0956	19,697.8	61.0433	19,697.8	61.6653	19,697.8	54.4355	19,697.8	57.5168	19,697.8	43.0823	19,697.8	59.9773	19,697.8	51.5371	19,697.8	64.1673	19,697.8	44.3408	19,697.8	55.6409	19,697.8	36.0056	19,697.8	41.5766	19,697.8	47.8162	19,697.8	39.5409	19,697.8	39.7316	19,697.8	16.2394	19,697.8	47.31	19,697.8	34.9376	19,697.8	43.7051	19,697.8	38.0507	19,697.8	35.9303
19,999.5	78.4099	19,999.5	79.4069	19,999.5	79.8723	19,999.5	78.7129	19,999.5	78.5736	19,999.5	77.4113	19,999.5	77.6703	19,999.5	75.8291	19,999.5	75.9338	19,999.5	73.7097	19,999.5	73.4452	19,999.5	67.3286	19,999.5	68.0891	19,999.5	65.557	19,999.5	65.098	19,999.5	58.1537	19,999.5	62.2005	19,999.5	53.8761	19,999.5	55.9891	19,999.5	44.1355	19,999.5	60.9951	19,999.5	53.2554	19,999.5	64.5017	19,999.5	50.9635	19,999.5	53.3534	19,999.5	47.5737	19,999.5	43.9099	19,999.5	49.1654	19,999.5	43.5569	19,999.5	39.5096	19,999.5	48.2096	19,999.5	45.1784	19,999.5	25.2196	19,999.5	49.6129	19,999.5	37.5296	19,999.5	37.1924
