"SPL Horizontal"
"On-Axis"		"10°"		"-10°"		"20°"		"-20°"		"30°"		"-30°"		"40°"		"-40°"		"50°"		"-50°"		"60°"		"-60°"		"70°"		"-70°"		"80°"		"-80°"		"90°"		"-90°"		"100°"		"-100°"		"110°"		"-110°"		"120°"		"-120°"		"130°"		"-130°"		"140°"		"-140°"		"150°"		"-150°"		"160°"		"-160°"		"170°"		"-170°"		"180°"
"Frequency [Hz]"	"Sound Pessure Level [dB]   [2.83  V @ 1. m]"	"Frequency [Hz]"	"Sound Pessure Level [dB]   [2.83  V @ 1. m]"	"Frequency [Hz]"	"Sound Pessure Level [dB]   [2.83  V @ 1. m]"	"Frequency [Hz]"	"Sound Pessure Level [dB]   [2.83  V @ 1. m]"	"Frequency [Hz]"	"Sound Pessure Level [dB]   [2.83  V @ 1. m]"	"Frequency [Hz]"	"Sound Pessure Level [dB]   [2.83  V @ 1. m]"	"Frequency [Hz]"	"Sound Pessure Level [dB]   [2.83  V @ 1. m]"	"Frequency [Hz]"	"Sound Pessure Level [dB]   [2.83  V @ 1. m]"	"Frequency [Hz]"	"Sound Pessure Level [dB]   [2.83  V @ 1. m]"	"Frequency [Hz]"	"Sound Pessure Level [dB]   [2.83  V @ 1. m]"	"Frequency [Hz]"	"Sound Pessure Level [dB]   [2.83  V @ 1. m]"	"Frequency [Hz]"	"Sound Pessure Level [dB]   [2.83  V @ 1. m]"	"Frequency [Hz]"	"Sound Pessure Level [dB]   [2.83  V @ 1. m]"	"Frequency [Hz]"	"Sound Pessure Level [dB]   [2.83  V @ 1. m]"	"Frequency [Hz]"	"Sound Pessure Level [dB]   [2.83  V @ 1. m]"	"Frequency [Hz]"	"Sound Pessure Level [dB]   [2.83  V @ 1. m]"	"Frequency [Hz]"	"Sound Pessure Level [dB]   [2.83  V @ 1. m]"	"Frequency [Hz]"	"Sound Pessure Level [dB]   [2.83  V @ 1. m]"	"Frequency [Hz]"	"Sound Pessure Level [dB]   [2.83  V @ 1. m]"	"Frequency [Hz]"	"Sound Pessure Level [dB]   [2.83  V @ 1. m]"	"Frequency [Hz]"	"Sound Pessure Level [dB]   [2.83  V @ 1. m]"	"Frequency [Hz]"	"Sound Pessure Level [dB]   [2.83  V @ 1. m]"	"Frequency [Hz]"	"Sound Pessure Level [dB]   [2.83  V @ 1. m]"	"Frequency [Hz]"	"Sound Pessure Level [dB]   [2.83  V @ 1. m]"	"Frequency [Hz]"	"Sound Pessure Level [dB]   [2.83  V @ 1. m]"	"Frequency [Hz]"	"Sound Pessure Level [dB]   [2.83  V @ 1. m]"	"Frequency [Hz]"	"Sound Pessure Level [dB]   [2.83  V @ 1. m]"	"Frequency [Hz]"	"Sound Pessure Level [dB]   [2.83  V @ 1. m]"	"Frequency [Hz]"	"Sound Pessure Level [dB]   [2.83  V @ 1. m]"	"Frequency [Hz]"	"Sound Pessure Level [dB]   [2.83  V @ 1. m]"	"Frequency [Hz]"	"Sound Pessure Level [dB]   [2.83  V @ 1. m]"	"Frequency [Hz]"	"Sound Pessure Level [dB]   [2.83  V @ 1. m]"	"Frequency [Hz]"	"Sound Pessure Level [dB]   [2.83  V @ 1. m]"	"Frequency [Hz]"	"Sound Pessure Level [dB]   [2.83  V @ 1. m]"	"Frequency [Hz]"	"Sound Pessure Level [dB]   [2.83  V @ 1. m]"	"Frequency [Hz]"	"Sound Pessure Level [dB]   [2.83  V @ 1. m]"
20.5078	30.2535	20.5078	29.7758	20.5078	29.9343	20.5078	29.1958	20.5078	28.4632	20.5078	30.0515	20.5078	25.0859	20.5078	32.7111	20.5078	16.0865	20.5078	35.7464	20.5078	18.7326	20.5078	38.4222	20.5078	27.9598	20.5078	40.6502	20.5078	32.694	20.5078	42.4914	20.5078	35.9374	20.5078	44.0158	20.5078	38.4289	20.5078	45.2769	20.5078	40.465	20.5078	46.3124	20.5078	42.1863	20.5078	47.1475	20.5078	43.6626	20.5078	47.7982	20.5078	44.9281	20.5078	48.274	20.5078	46.0002	20.5078	48.5802	20.5078	46.888	20.5078	48.7191	20.5078	47.5973	20.5078	48.6913	20.5078	48.1323	20.5078	48.4962
21.9727	37.79	21.9727	37.6597	21.9727	37.7646	21.9727	37.5683	21.9727	37.5143	21.9727	37.8338	21.9727	37.0709	21.9727	38.7144	21.9727	36.5918	21.9727	40.1498	21.9727	36.4133	21.9727	41.8468	21.9727	36.944	21.9727	43.55	21.9727	38.2724	21.9727	45.1279	21.9727	40.066	21.9727	46.5317	21.9727	41.9553	21.9727	47.7494	21.9727	43.7393	21.9727	48.7822	21.9727	45.3416	21.9727	49.6353	21.9727	46.7427	21.9727	50.314	21.9727	47.9436	21.9727	50.8228	21.9727	48.952	21.9727	51.1654	21.9727	49.7764	21.9727	51.3439	21.9727	50.4244	21.9727	51.3597	21.9727	50.9018	21.9727	51.2127
23.4375	34.9825	23.4375	33.5538	23.4375	35.8797	23.4375	32.0233	23.4375	36.2401	23.4375	32.047	23.4375	36.121	23.4375	34.4985	23.4375	35.6113	23.4375	37.6079	23.4375	34.9352	23.4375	40.383	23.4375	34.6581	23.4375	42.7108	23.4375	35.5314	23.4375	44.6565	23.4375	37.5204	23.4375	46.2888	23.4375	39.8881	23.4375	47.6568	23.4375	42.145	23.4375	48.7919	23.4375	44.1376	23.4375	49.7142	23.4375	45.8476	23.4375	50.4358	23.4375	47.2934	23.4375	50.9647	23.4375	48.4979	23.4375	51.3061	23.4375	49.4809	23.4375	51.4633	23.4375	50.2574	23.4375	51.438	23.4375	50.8382	23.4375	51.2302
24.9023	43.7453	24.9023	43.8922	24.9023	43.6332	24.9023	44.1245	24.9023	43.549	24.9023	44.5169	24.9023	43.5338	24.9023	45.1306	24.9023	43.6665	24.9023	45.9755	24.9023	44.0332	24.9023	47.0014	24.9023	44.6806	24.9023	48.1254	24.9023	45.5855	24.9023	49.2657	24.9023	46.6684	24.9023	50.3599	24.9023	47.8347	24.9023	51.3666	24.9023	49.0048	24.9023	52.2611	24.9023	50.1229	24.9023	53.0289	24.9023	51.1534	24.9023	53.6621	24.9023	52.0741	24.9023	54.1556	24.9023	52.8713	24.9023	54.5061	24.9023	53.5357	24.9023	54.7113	24.9023	54.0612	24.9023	54.7696	24.9023	54.4437	24.9023	54.6803
26.3672	46.1448	26.3672	45.9415	26.3672	46.3062	26.3672	45.7704	26.3672	46.3993	26.3672	45.7533	26.3672	46.4359	26.3672	46.0241	26.3672	46.4586	26.3672	46.6524	26.3672	46.5356	26.3672	47.5914	26.3672	46.7489	26.3672	48.7149	26.3672	47.1681	26.3672	49.8925	26.3672	47.8196	26.3672	51.0309	26.3672	48.6717	26.3672	52.0751	26.3672	49.652	26.3672	52.9962	26.3672	50.6784	26.3672	53.7799	26.3672	51.6817	26.3672	54.4193	26.3672	52.6118	26.3672	54.9109	26.3672	53.436	26.3672	55.2528	26.3672	54.1339	26.3672	55.4439	26.3672	54.6931	26.3672	55.4832	26.3672	55.1067	26.3672	55.3706
27.832	49.697	27.832	49.6839	27.832	49.6698	27.832	49.6613	27.832	49.6002	27.832	49.688	27.832	49.5133	27.832	49.8409	27.832	49.4588	27.832	50.1894	27.832	49.5049	27.832	50.7621	27.832	49.7209	27.832	51.5305	27.832	50.152	27.832	52.4244	27.832	50.7973	27.832	53.3641	27.832	51.6099	27.832	54.2823	27.832	52.5192	27.832	55.131	27.832	53.4543	27.832	55.8793	27.832	54.3584	27.832	56.5081	27.832	55.1905	27.832	57.0058	27.832	55.9233	27.832	57.3658	27.832	56.5389	27.832	57.5839	27.832	57.0262	27.832	57.6586	27.832	57.3778	27.832	57.5895
29.2969	51.6758	29.2969	51.4875	29.2969	51.7913	29.2969	51.2679	29.2969	51.8184	29.2969	51.0904	29.2969	51.7624	29.2969	51.056	29.2969	51.6483	29.2969	51.2645	29.2969	51.5237	29.2969	51.7646	29.2969	51.46	29.2969	52.5225	29.2969	51.5442	29.2969	53.4446	29.2969	51.8505	29.2969	54.4258	29.2969	52.4039	29.2969	55.3826	29.2969	53.1641	29.2969	56.2596	29.2969	54.0486	29.2969	57.0233	29.2969	54.9689	29.2969	57.6548	29.2969	55.8543	29.2969	58.1435	29.2969	56.6566	29.2969	58.4835	29.2969	57.3458	29.2969	58.6718	29.2969	57.9039	29.2969	58.707	29.2969	58.3205	29.2969	58.5894
30.7617	53.6722	30.7617	53.609	30.7617	53.6849	30.7617	53.5325	30.7617	53.6327	30.7617	53.5027	30.7617	53.5237	30.7617	53.5941	30.7617	53.3891	30.7617	53.8732	30.7617	53.284	30.7617	54.3687	30.7617	53.2832	30.7617	55.056	30.7617	53.4635	30.7617	55.8701	30.7617	53.8731	30.7617	56.7344	30.7617	54.5054	30.7617	57.5826	30.7617	55.3026	30.7617	58.3667	30.7617	56.1836	30.7617	59.0551	30.7617	57.0734	30.7617	59.6282	30.7617	57.915	30.7617	60.0739	30.7617	58.6707	30.7617	60.3851	30.7617	59.3167	30.7617	60.5574	30.7617	59.8385	30.7617	60.5887	30.7617	60.2275	30.7617	60.4784
32.2266	56.0027	32.2266	55.9842	32.2266	56.0035	32.2266	55.9737	32.2266	55.9777	32.2266	56.0119	32.2266	55.9329	32.2266	56.1477	32.2266	55.8929	32.2266	56.4242	32.2266	55.8961	32.2266	56.8609	32.2266	55.9902	32.2266	57.4445	32.2266	56.2196	32.2266	58.1329	32.2266	56.6094	32.2266	58.8717	32.2266	57.1535	32.2266	59.6084	32.2266	57.8162	32.2266	60.3007	32.2266	58.546	32.2266	60.9176	32.2266	59.2901	32.2266	61.4377	32.2266	60.0043	32.2266	61.8468	32.2266	60.6548	32.2266	62.1359	32.2266	61.2177	32.2266	62.2994	32.2266	61.6764	32.2266	62.3344	32.2266	62.0198	32.2266	62.2406
33.6914	58.68	33.6914	58.6468	33.6914	58.695	33.6914	58.6175	33.6914	58.6826	33.6914	58.6247	33.6914	58.6468	33.6914	58.7068	33.6914	58.6046	33.6914	58.8985	33.6914	58.5849	33.6914	59.2193	33.6914	58.6251	33.6914	59.6653	33.6914	58.7625	33.6914	60.21	33.6914	59.0234	33.6914	60.8128	33.6914	59.4133	33.6914	61.43	33.6914	59.914	33.6914	62.0225	33.6914	60.4905	33.6914	62.5589	33.6914	61.1008	33.6914	63.016	33.6914	61.7049	33.6914	63.3772	33.6914	62.2693	33.6914	63.6316	33.6914	62.7681	33.6914	63.7724	33.6914	63.1818	33.6914	63.7965	33.6914	63.4968	33.6914	63.7037
35.1562	60.3054	35.1562	60.2921	35.1562	60.3106	35.1562	60.288	35.1562	60.3013	35.1562	60.3197	35.1562	60.2825	35.1562	60.4188	35.1562	60.2695	35.1562	60.6146	35.1562	60.287	35.1562	60.9248	35.1562	60.3653	35.1562	61.3486	35.1562	60.5331	35.1562	61.8651	35.1562	60.8096	35.1562	62.4402	35.1562	61.1973	35.1562	63.0341	35.1562	61.6805	35.1562	63.6097	35.1562	62.2299	35.1562	64.1354	35.1562	62.8099	35.1562	64.5872	35.1562	63.385	35.1562	64.9475	35.1562	63.9242	35.1562	65.2043	35.1562	64.4022	35.1562	65.35	35.1562	64.7993	35.1562	65.381	35.1562	65.1009	35.1562	65.297
36.6211	62.284	36.6211	62.2598	36.6211	62.3012	36.6211	62.2438	36.6211	62.3056	36.6211	62.2593	36.6211	62.3008	36.6211	62.334	36.6211	62.2989	36.6211	62.4942	36.6211	62.3191	36.6211	62.7568	36.6211	62.3852	36.6211	63.1228	36.6211	62.5207	36.6211	63.576	36.6211	62.7434	36.6211	64.0873	36.6211	63.0591	36.6211	64.6213	36.6211	63.4598	36.6211	65.1434	36.6211	63.9246	36.6211	65.6235	36.6211	64.4253	36.6211	66.0378	36.6211	64.9309	36.6211	66.3685	36.6211	65.4127	36.6211	66.6033	36.6211	65.846	36.6211	66.7347	36.6211	66.2107	36.6211	66.759	36.6211	66.4914	36.6211	66.6766
38.0859	63.7003	38.0859	63.702	38.0859	63.7004	38.0859	63.7189	38.0859	63.6968	38.0859	63.7705	38.0859	63.6918	38.0859	63.8789	38.0859	63.6953	38.0859	64.0642	38.0859	63.7237	38.0859	64.3377	38.0859	63.7973	38.0859	64.6983	38.0859	63.9367	38.0859	65.1314	38.0859	64.1574	38.0859	65.6119	38.0859	64.4651	38.0859	66.1097	38.0859	64.8528	38.0859	66.5949	38.0859	65.3022	38.0859	67.0406	38.0859	65.787	38.0859	67.4251	38.0859	66.2783	38.0859	67.7313	38.0859	66.7482	38.0859	67.9472	38.0859	67.1723	38.0859	68.0649	38.0859	67.5308	38.0859	68.0806	38.0859	67.8083	38.0859	67.994
39.5508	65.642	39.5508	65.6439	39.5508	65.6412	39.5508	65.6581	39.5508	65.6367	39.5508	65.7009	39.5508	65.6306	39.5508	65.7913	39.5508	65.6313	39.5508	65.9469	39.5508	65.6529	39.5508	66.1791	39.5508	65.7129	39.5508	66.489	39.5508	65.8289	39.5508	66.8662	39.5508	66.0148	39.5508	67.2903	39.5508	66.2766	39.5508	67.7353	39.5508	66.61	39.5508	68.1735	39.5508	67.001	39.5508	68.5796	39.5508	67.4281	39.5508	68.9317	39.5508	67.8665	39.5508	69.213	39.5508	68.291	39.5508	69.4109	39.5508	68.6786	39.5508	69.5175	39.5508	69.0099	39.5508	69.5288	39.5508	69.2692	39.5508	69.4447
41.0156	67.5583	41.0156	67.5599	41.0156	67.558	41.0156	67.5726	41.0156	67.5543	41.0156	67.6102	41.0156	67.5477	41.0156	67.6884	41.0156	67.5438	41.0156	67.8216	41.0156	67.5526	41.0156	68.0192	41.0156	67.5869	41.0156	68.2828	41.0156	67.661	41.0156	68.6047	41.0156	67.7878	41.0156	68.969	41.0156	67.976	41.0156	69.3541	41.0156	68.2279	41.0156	69.7359	41.0156	68.5377	41.0156	70.0906	41.0156	68.8917	41.0156	70.3974	41.0156	69.2703	41.0156	70.6391	41.0156	69.6509	41.0156	70.803	41.0156	70.0104	41.0156	70.8809	41.0156	70.3278	41.0156	70.8692	41.0156	70.5853	41.0156	70.769
42.4805	68.3011	42.4805	68.338	42.4805	68.2748	42.4805	68.3947	42.4805	68.2548	42.4805	68.4833	42.4805	68.2416	42.4805	68.6172	42.4805	68.2413	42.4805	68.8078	42.4805	68.2651	42.4805	69.061	42.4805	68.3275	42.4805	69.3754	42.4805	68.4445	42.4805	69.7409	42.4805	68.6293	42.4805	70.1405	42.4805	68.8882	42.4805	70.5523	42.4805	69.2179	42.4805	70.9532	42.4805	69.605	42.4805	71.3215	42.4805	70.0287	42.4805	71.6381	42.4805	70.4641	42.4805	71.8879	42.4805	70.8863	42.4805	72.0596	42.4805	71.2727	42.4805	72.1455	42.4805	71.6043	42.4805	72.1417	42.4805	71.8662	42.4805	72.0476
43.9453	70.2861	43.9453	70.3172	43.9453	70.2674	43.9453	70.3669	43.9453	70.2584	43.9453	70.4438	43.9453	70.2602	43.9453	70.5574	43.9453	70.2777	43.9453	70.7161	43.9453	70.3188	43.9453	70.9248	43.9453	70.3936	43.9453	71.1833	43.9453	70.5125	43.9453	71.485	43.9453	70.6834	43.9453	71.8177	43.9453	70.9097	43.9453	72.165	43.9453	71.1881	43.9453	72.5081	43.9453	71.5091	43.9453	72.8285	43.9453	71.8575	43.9453	73.1088	43.9453	72.2149	43.9453	73.3344	43.9453	72.5621	43.9453	73.4939	43.9453	72.8806	43.9453	73.5794	43.9453	73.1542	43.9453	73.5869	43.9453	73.3693	43.9453	73.5157
45.4102	71.7546	45.4102	71.7823	45.4102	71.7396	45.4102	71.8278	45.4102	71.7353	45.4102	71.8985	45.4102	71.7429	45.4102	72.0027	45.4102	71.7666	45.4102	72.1479	45.4102	71.8135	45.4102	72.339	45.4102	71.8921	45.4102	72.5763	45.4102	72.0108	45.4102	72.8546	45.4102	72.176	45.4102	73.1634	45.4102	72.3902	45.4102	73.488	45.4102	72.6507	45.4102	73.8113	45.4102	72.9487	45.4102	74.1155	45.4102	73.2712	45.4102	74.3838	45.4102	73.6016	45.4102	74.6019	45.4102	73.9222	45.4102	74.7584	45.4102	74.2162	45.4102	74.8453	45.4102	74.468	45.4102	74.8584	45.4102	74.6649	45.4102	74.7973
46.875	73.2325	46.875	73.2583	46.875	73.2177	46.875	73.2994	46.875	73.2123	46.875	73.362	46.875	73.2173	46.875	73.4537	46.875	73.2367	46.875	73.5811	46.875	73.2764	46.875	73.7492	46.875	73.3438	46.875	73.9589	46.875	73.4464	46.875	74.2066	46.875	73.59	46.875	74.4834	46.875	73.7774	46.875	74.7766	46.875	74.0067	46.875	75.0706	46.875	74.2711	46.875	75.3486	46.875	74.5597	46.875	75.5947	46.875	74.8579	46.875	75.7949	46.875	75.1502	46.875	75.9379	46.875	75.4205	46.875	76.016	46.875	75.6544	46.875	76.0251	46.875	75.8392	46.875	75.965
48.3398	74.4128	48.3398	74.4429	48.3398	74.3975	48.3398	74.4918	48.3398	74.3952	48.3398	74.5647	48.3398	74.4064	48.3398	74.6674	48.3398	74.4339	48.3398	74.8051	48.3398	74.4823	48.3398	74.9806	48.3398	74.5576	48.3398	75.1934	48.3398	74.6656	48.3398	75.4389	48.3398	74.8109	48.3398	75.7085	48.3398	74.9952	48.3398	75.9898	48.3398	75.2169	48.3398	76.2687	48.3398	75.4697	48.3398	76.5301	48.3398	75.7439	48.3398	76.7596	48.3398	76.0267	48.3398	76.9446	48.3398	76.304	48.3398	77.0749	48.3398	76.5612	48.3398	77.1437	48.3398	76.7848	48.3398	77.1473	48.3398	76.9628	48.3398	77.0859
51.2695	76.6677	51.2695	76.7023	51.2695	76.6502	51.2695	76.7564	51.2695	76.6484	51.2695	76.8332	51.2695	76.6627	51.2695	76.9361	51.2695	76.6945	51.2695	77.0677	51.2695	76.7468	51.2695	77.2292	51.2695	76.823	51.2695	77.4194	51.2695	76.9265	51.2695	77.6342	51.2695	77.06	51.2695	77.8665	51.2695	77.2243	51.2695	78.1068	51.2695	77.4175	51.2695	78.3438	51.2695	77.6351	51.2695	78.5654	51.2695	77.8695	51.2695	78.7596	51.2695	78.1108	51.2695	78.9156	51.2695	78.3478	51.2695	79.0248	51.2695	78.5685	51.2695	79.0809	51.2695	78.7616	51.2695	79.0809	51.2695	78.9166	51.2695	79.0251
52.7344	77.6911	52.7344	77.726	52.7344	77.6717	52.7344	77.7784	52.7344	77.667	52.7344	77.8509	52.7344	77.6771	52.7344	77.9462	52.7344	77.7035	52.7344	78.0666	52.7344	77.7485	52.7344	78.213	52.7344	77.815	52.7344	78.3845	52.7344	77.9061	52.7344	78.5778	52.7344	78.0241	52.7344	78.787	52.7344	78.1699	52.7344	79.0037	52.7344	78.3423	52.7344	79.2178	52.7344	78.5375	52.7344	79.4182	52.7344	78.7492	52.7344	79.5937	52.7344	78.9686	52.7344	79.7342	52.7344	79.1856	52.7344	79.8312	52.7344	79.3894	52.7344	79.879	52.7344	79.5692	52.7344	79.8749	52.7344	79.7152	52.7344	79.8192
54.1992	78.5949	54.1992	78.6294	54.1992	78.5753	54.1992	78.6806	54.1992	78.5699	54.1992	78.7505	54.1992	78.5788	54.1992	78.8412	54.1992	78.6029	54.1992	78.9545	54.1992	78.6441	54.1992	79.0909	54.1992	78.7049	54.1992	79.2493	54.1992	78.7878	54.1992	79.4269	54.1992	78.8948	54.1992	79.6183	54.1992	79.0267	54.1992	79.8162	54.1992	79.1828	54.1992	80.0114	54.1992	79.3599	54.1992	80.1938	54.1992	79.5526	54.1992	80.3533	54.1992	79.7534	54.1992	80.4803	54.1992	79.9531	54.1992	80.567	54.1992	80.1418	54.1992	80.6081	54.1992	80.3095	54.1992	80.601	54.1992	80.447	54.1992	80.5461
55.6641	79.2709	55.6641	79.3048	55.6641	79.2523	55.6641	79.3552	55.6641	79.2484	55.6641	79.4237	55.6641	79.2592	55.6641	79.5117	55.6641	79.2856	55.6641	79.6206	55.6641	79.329	55.6641	79.7504	55.6641	79.3912	55.6641	79.9002	55.6641	79.4741	55.6641	80.0671	55.6641	79.579	55.6641	80.2462	55.6641	79.7065	55.6641	80.4311	55.6641	79.8555	55.6641	80.6133	55.6641	80.0229	55.6641	80.7838	55.6641	80.2038	55.6641	80.9332	55.6641	80.3912	55.6641	81.0527	55.6641	80.5767	55.6641	81.1352	55.6641	80.7514	55.6641	81.1755	55.6641	80.906	55.6641	81.171	55.6641	81.0321	55.6641	81.1222
58.5938	80.2381	58.5938	80.2756	58.5938	80.2168	58.5938	80.3299	58.5938	80.2115	58.5938	80.4014	58.5938	80.2223	58.5938	80.4903	58.5938	80.2495	58.5938	80.5967	58.5938	80.2937	58.5938	80.7197	58.5938	80.3555	58.5938	80.8576	58.5938	80.4356	58.5938	81.0074	58.5938	80.5341	58.5938	81.1648	58.5938	80.6507	58.5938	81.3245	58.5938	80.7838	58.5938	81.4798	58.5938	80.9311	58.5938	81.6234	58.5938	81.0884	58.5938	81.748	58.5938	81.2505	58.5938	81.8464	58.5938	81.4109	58.5938	81.9127	58.5938	81.5622	58.5938	81.9428	58.5938	81.697	58.5938	81.9348	58.5938	81.808	58.5938	81.8889
60.0586	80.6098	60.0586	80.6476	60.0586	80.5879	60.0586	80.7014	60.0586	80.5816	60.0586	80.7713	60.0586	80.5911	60.0586	80.8573	60.0586	80.6164	60.0586	80.9587	60.0586	80.6578	60.0586	81.0747	60.0586	80.7157	60.0586	81.2033	60.0586	80.7903	60.0586	81.3419	60.0586	80.8817	60.0586	81.4868	60.0586	80.9895	60.0586	81.633	60.0586	81.1124	60.0586	81.7746	60.0586	81.2483	60.0586	81.9052	60.0586	81.3935	60.0586	82.018	60.0586	81.5433	60.0586	82.1066	60.0586	81.6918	60.0586	82.1657	60.0586	81.8322	60.0586	82.1914	60.0586	81.9577	60.0586	82.182	60.0586	82.0616	60.0586	82.1378
62.9883	81.0631	62.9883	81.1004	62.9883	81.0416	62.9883	81.1532	62.9883	81.0361	62.9883	81.2211	62.9883	81.0465	62.9883	81.3032	62.9883	81.0727	62.9883	81.3986	62.9883	81.1145	62.9883	81.5057	62.9883	81.1716	62.9883	81.6225	62.9883	81.2435	62.9883	81.7464	62.9883	81.3295	62.9883	81.8742	62.9883	81.4287	62.9883	82.0017	62.9883	81.5395	62.9883	82.124	62.9883	81.6599	62.9883	82.2358	62.9883	81.7867	62.9883	82.3315	62.9883	81.9161	62.9883	82.406	62.9883	82.0434	62.9883	82.4548	62.9883	82.1635	62.9883	82.475	62.9883	82.2708	62.9883	82.4652	62.9883	82.3599	62.9883	82.426
64.4531	81.2964	64.4531	81.3315	64.4531	81.2765	64.4531	81.3814	64.4531	81.2719	64.4531	81.4454	64.4531	81.2825	64.4531	81.5228	64.4531	81.3081	64.4531	81.6121	64.4531	81.3483	64.4531	81.712	64.4531	81.4026	64.4531	81.8204	64.4531	81.4704	64.4531	81.9349	64.4531	81.5507	64.4531	82.0523	64.4531	81.6426	64.4531	82.1689	64.4531	81.7446	64.4531	82.2804	64.4531	81.8546	64.4531	82.3819	64.4531	81.97	64.4531	82.4685	64.4531	82.0874	64.4531	82.5355	64.4531	82.2028	64.4531	82.579	64.4531	82.3115	64.4531	82.5964	64.4531	82.4088	64.4531	82.5867	64.4531	82.4899	64.4531	82.5504
67.3828	81.5988	67.3828	81.6351	67.3828	81.5774	67.3828	81.6857	67.3828	81.5713	67.3828	81.7495	67.3828	81.5804	67.3828	81.8249	67.3828	81.6043	67.3828	81.9102	67.3828	81.6422	67.3828	82.0034	67.3828	81.693	67.3828	82.1023	67.3828	81.7556	67.3828	82.2043	67.3828	81.8286	67.3828	82.3068	67.3828	81.9107	67.3828	82.4064	67.3828	82.0003	67.3828	82.4997	67.3828	82.0957	67.3828	82.5828	67.3828	82.1948	67.3828	82.6521	67.3828	82.295	67.3828	82.7039	67.3828	82.3932	67.3828	82.7354	67.3828	82.4862	67.3828	82.7447	67.3828	82.5701	67.3828	82.7313	67.3828	82.6413	67.3828	82.6961
68.8477	81.7192	68.8477	81.7547	68.8477	81.6985	68.8477	81.8041	68.8477	81.6931	68.8477	81.8661	68.8477	81.7029	68.8477	81.9391	68.8477	81.7274	68.8477	82.021	68.8477	81.7658	68.8477	82.1098	68.8477	81.8169	68.8477	82.2033	68.8477	81.8793	68.8477	82.2989	68.8477	81.9514	68.8477	82.3942	68.8477	82.0316	68.8477	82.4861	68.8477	82.1182	68.8477	82.5718	68.8477	82.2092	68.8477	82.6478	68.8477	82.3023	68.8477	82.711	68.8477	82.3952	68.8477	82.7583	68.8477	82.4851	68.8477	82.7873	68.8477	82.5691	68.8477	82.7966	68.8477	82.6441	68.8477	82.7856	68.8477	82.7071	68.8477	82.7551
71.7773	81.9566	71.7773	81.9856	71.7773	81.9417	71.7773	82.0279	71.7773	81.9414	71.7773	82.082	71.7773	81.9556	71.7773	82.1459	71.7773	81.9833	71.7773	82.2176	71.7773	82.0234	71.7773	82.2948	71.7773	82.0742	71.7773	82.3752	71.7773	82.1339	71.7773	82.4564	71.7773	82.2006	71.7773	82.5362	71.7773	82.2724	71.7773	82.6123	71.7773	82.3475	71.7773	82.6824	71.7773	82.4241	71.7773	82.7442	71.7773	82.5003	71.7773	82.7956	71.7773	82.5742	71.7773	82.8345	71.7773	82.6439	71.7773	82.8594	71.7773	82.7077	71.7773	82.8692	71.7773	82.7635	71.7773	82.8636	71.7773	82.8093	71.7773	82.8432
74.707	82.1533	74.707	82.1786	74.707	82.1418	74.707	82.2166	74.707	82.1445	74.707	82.2658	74.707	82.1612	74.707	82.3239	74.707	82.1907	74.707	82.3887	74.707	82.2315	74.707	82.4577	74.707	82.2814	74.707	82.5285	74.707	82.3383	74.707	82.599	74.707	82.3998	74.707	82.6671	74.707	82.4638	74.707	82.731	74.707	82.5284	74.707	82.7889	74.707	82.5921	74.707	82.8391	74.707	82.6536	74.707	82.8802	74.707	82.7118	74.707	82.9109	74.707	82.7657	74.707	82.9301	74.707	82.8143	74.707	82.9374	74.707	82.8565	74.707	82.9329	74.707	82.8913	74.707	82.9172
77.6367	82.3562	77.6367	82.3822	77.6367	82.3429	77.6367	82.4198	77.6367	82.3429	77.6367	82.4671	77.6367	82.356	77.6367	82.5217	77.6367	82.3812	77.6367	82.5813	77.6367	82.4167	77.6367	82.6431	77.6367	82.4606	77.6367	82.7048	77.6367	82.5104	77.6367	82.7642	77.6367	82.5636	77.6367	82.8195	77.6367	82.618	77.6367	82.869	77.6367	82.6716	77.6367	82.9117	77.6367	82.7231	77.6367	82.9466	77.6367	82.7714	77.6367	82.9729	77.6367	82.8159	77.6367	82.9904	77.6367	82.8564	77.6367	82.9988	77.6367	82.8927	77.6367	82.9984	77.6367	82.9247	77.6367	82.9899	77.6367	82.9521	77.6367	82.9741
79.1016	82.4272	79.1016	82.4537	79.1016	82.4135	79.1016	82.4918	79.1016	82.4132	79.1016	82.5395	79.1016	82.4259	79.1016	82.5943	79.1016	82.4505	79.1016	82.6535	79.1016	82.4853	79.1016	82.7142	79.1016	82.528	79.1016	82.7739	79.1016	82.576	79.1016	82.8302	79.1016	82.6269	79.1016	82.8814	79.1016	82.6783	79.1016	82.9261	79.1016	82.7283	79.1016	82.9633	79.1016	82.7756	79.1016	82.9927	79.1016	82.8195	79.1016	83.0138	79.1016	82.8595	79.1016	83.0266	79.1016	82.8957	79.1016	83.0313	79.1016	82.9282	79.1016	83.0285	79.1016	82.9571	79.1016	83.0187	79.1016	82.9821	79.1016	83.0029
82.0312	82.4996	82.0312	82.5269	82.0312	82.4847	82.0312	82.5652	82.0312	82.4829	82.0312	82.6121	82.0312	82.4939	82.0312	82.6649	82.0312	82.5166	82.0312	82.7206	82.0312	82.5491	82.0312	82.7762	82.0312	82.589	82.0312	82.8289	82.0312	82.6335	82.0312	82.8764	82.0312	82.6799	82.0312	82.9173	82.0312	82.7258	82.0312	82.9506	82.0312	82.7693	82.0312	82.976	82.0312	82.8091	82.0312	82.9936	82.0312	82.8445	82.0312	83.0041	82.0312	82.8755	82.0312	83.0082	82.0312	82.9022	82.0312	83.0068	82.0312	82.9253	82.0312	83.0007	82.0312	82.9454	82.0312	82.9909	82.0312	82.9629	82.0312	82.9781
84.9609	82.5837	84.9609	82.6131	84.9609	82.5664	84.9609	82.653	84.9609	82.5621	84.9609	82.7008	84.9609	82.5707	84.9609	82.7537	84.9609	82.5914	84.9609	82.8087	84.9609	82.6223	84.9609	82.8627	84.9609	82.661	84.9609	82.9131	84.9609	82.705	84.9609	82.9576	84.9609	82.7513	84.9609	82.9949	84.9609	82.7973	84.9609	83.024	84.9609	82.8409	84.9609	83.0449	84.9609	82.8804	84.9609	83.0579	84.9609	82.9146	84.9609	83.0639	84.9609	82.9435	84.9609	83.0641	84.9609	82.9672	84.9609	83.0597	84.9609	82.9866	84.9609	83.0518	84.9609	83.0029	84.9609	83.0416	84.9609	83.0171	84.9609	83.0299
87.8906	82.6709	87.8906	82.7081	87.8906	82.6461	87.8906	82.7556	87.8906	82.6348	87.8906	82.8108	87.8906	82.6375	87.8906	82.8705	87.8906	82.6535	87.8906	82.9316	87.8906	82.6811	87.8906	82.9908	87.8906	82.7181	87.8906	83.0453	87.8906	82.7615	87.8906	83.0927	87.8906	82.8083	87.8906	83.1314	87.8906	82.8556	87.8906	83.1602	87.8906	82.9007	87.8906	83.179	87.8906	82.9418	87.8906	83.188	87.8906	82.9779	87.8906	83.1885	87.8906	83.0088	87.8906	83.1816	87.8906	83.0349	87.8906	83.1693	87.8906	83.0575	87.8906	83.1531	87.8906	83.0777	87.8906	83.135	87.8906	83.097	87.8906	83.116
90.8203	83.0925	90.8203	83.1236	90.8203	83.066	90.8203	83.1578	90.8203	83.0452	90.8203	83.1928	90.8203	83.0304	90.8203	83.2263	90.8203	83.0214	90.8203	83.2555	90.8203	83.0171	90.8203	83.2778	90.8203	83.0163	90.8203	83.2909	90.8203	83.017	90.8203	83.2931	90.8203	83.0173	90.8203	83.2833	90.8203	83.0154	90.8203	83.2617	90.8203	83.0099	90.8203	83.2293	90.8203	83.0005	90.8203	83.1883	90.8203	82.9872	90.8203	83.1417	90.8203	82.9717	90.8203	83.0931	90.8203	82.9561	90.8203	83.0464	90.8203	82.9432	90.8203	83.0052	90.8203	82.9362	90.8203	82.9722	90.8203	82.9377	90.8203	82.9495
95.2148	82.9655	95.2148	82.988	95.2148	82.9535	95.2148	83.0192	95.2148	82.9524	95.2148	83.057	95.2148	82.9622	95.2148	83.0985	95.2148	82.9815	95.2148	83.1408	95.2148	83.0084	95.2148	83.1808	95.2148	83.0401	95.2148	83.2158	95.2148	83.0737	95.2148	83.2436	95.2148	83.1062	95.2148	83.2629	95.2148	83.1352	95.2148	83.273	95.2148	83.1584	95.2148	83.2741	95.2148	83.1749	95.2148	83.2674	95.2148	83.1845	95.2148	83.2546	95.2148	83.1878	95.2148	83.238	95.2148	83.1865	95.2148	83.2201	95.2148	83.1828	95.2148	83.2035	95.2148	83.1793	95.2148	83.1903	95.2148	83.1784	95.2148	83.1818
98.1445	83.1221	98.1445	83.1541	98.1445	83.1012	98.1445	83.1952	98.1445	83.0928	98.1445	83.2424	98.1445	83.0968	98.1445	83.2923	98.1445	83.1123	98.1445	83.3413	98.1445	83.1372	98.1445	83.3857	98.1445	83.1687	98.1445	83.4227	98.1445	83.2035	98.1445	83.4496	98.1445	83.2381	98.1445	83.465	98.1445	83.2692	98.1445	83.4685	98.1445	83.2944	98.1445	83.4607	98.1445	83.3119	98.1445	83.4432	98.1445	83.3213	98.1445	83.4188	98.1445	83.3231	98.1445	83.3907	98.1445	83.3192	98.1445	83.3624	98.1445	83.3123	98.1445	83.3374	98.1445	83.3058	98.1445	83.3183	98.1445	83.3031	98.1445	83.3068
101.074	83.1374	101.074	83.168	101.074	83.1188	101.074	83.2085	101.074	83.1136	101.074	83.2554	101.074	83.1219	101.074	83.305	101.074	83.1424	101.074	83.3531	101.074	83.1728	101.074	83.3958	101.074	83.2098	101.074	83.4295	101.074	83.2498	101.074	83.4518	101.074	83.2887	101.074	83.4611	101.074	83.3228	101.074	83.4574	101.074	83.3491	101.074	83.442	101.074	83.3655	101.074	83.4176	101.074	83.3712	101.074	83.3879	101.074	83.3667	101.074	83.3569	101.074	83.354	101.074	83.3291	101.074	83.3363	101.074	83.308	101.074	83.3178	101.074	83.2962	101.074	83.3026	101.074	83.2946
105.469	83.3856	105.469	83.4124	105.469	83.3669	105.469	83.4448	105.469	83.3578	105.469	83.4803	105.469	83.3593	105.469	83.5158	105.469	83.3716	105.469	83.5481	105.469	83.3935	105.469	83.5744	105.469	83.423	105.469	83.5919	105.469	83.4567	105.469	83.5987	105.469	83.4907	105.469	83.5937	105.469	83.5207	105.469	83.577	105.469	83.5426	105.469	83.5501	105.469	83.5533	105.469	83.5158	105.469	83.551	105.469	83.478	105.469	83.5358	105.469	83.4416	105.469	83.5099	105.469	83.4112	105.469	83.4772	105.469	83.3913	105.469	83.443	105.469	83.3847	105.469	83.413	105.469	83.3924
108.398	83.6581	108.398	83.6774	108.398	83.6423	108.398	83.6988	108.398	83.6308	108.398	83.7209	108.398	83.6239	108.398	83.7416	108.398	83.6215	108.398	83.7586	108.398	83.6231	108.398	83.7698	108.398	83.6276	108.398	83.773	108.398	83.6331	108.398	83.7666	108.398	83.6376	108.398	83.7497	108.398	83.6387	108.398	83.7223	108.398	83.6342	108.398	83.6854	108.398	83.6222	108.398	83.6413	108.398	83.6022	108.398	83.5933	108.398	83.5748	108.398	83.5456	108.398	83.5423	108.398	83.503	108.398	83.5083	108.398	83.4699	108.398	83.4776	108.398	83.45	108.398	83.4552	108.398	83.4452
112.793	83.8863	112.793	83.9071	112.793	83.8668	112.793	83.9275	112.793	83.8496	112.793	83.9455	112.793	83.8352	112.793	83.9585	112.793	83.8233	112.793	83.9639	112.793	83.8133	112.793	83.959	112.793	83.8039	112.793	83.9417	112.793	83.7936	112.793	83.9105	112.793	83.7803	112.793	83.8654	112.793	83.762	112.793	83.8074	112.793	83.7366	112.793	83.7393	112.793	83.7028	112.793	83.6651	112.793	83.6601	112.793	83.5899	112.793	83.6097	112.793	83.5196	112.793	83.5545	112.793	83.4602	112.793	83.4993	112.793	83.417	112.793	83.4499	112.793	83.394	112.793	83.4126	112.793	83.3928
117.188	84.127	117.188	84.1522	117.188	84.1001	117.188	84.174	117.188	84.0728	117.188	84.1898	117.188	84.0454	117.188	84.1967	117.188	84.0174	117.188	84.1917	117.188	83.9876	117.188	84.1716	117.188	83.9544	117.188	84.1339	117.188	83.9158	117.188	84.0769	117.188	83.8696	117.188	84.0005	117.188	83.8143	117.188	83.9063	117.188	83.7491	117.188	83.798	117.188	83.6744	117.188	83.6815	117.188	83.5921	117.188	83.564	117.188	83.5058	117.188	83.4537	117.188	83.4209	117.188	83.3586	117.188	83.3437	117.188	83.2859	117.188	83.2812	117.188	83.2407	117.188	83.2401	117.188	83.2255
120.117	84.1416	120.117	84.1588	120.117	84.1241	120.117	84.1741	120.117	84.1074	120.117	84.1852	120.117	84.0919	120.117	84.1896	120.117	84.0773	120.117	84.1845	120.117	84.0623	120.117	84.1671	120.117	84.0451	120.117	84.1352	120.117	84.0232	120.117	84.0872	120.117	83.994	120.117	84.023	120.117	83.9552	120.117	83.944	120.117	83.9055	120.117	83.8535	120.117	83.8448	120.117	83.7569	120.117	83.7748	120.117	83.6606	120.117	83.6985	120.117	83.572	120.117	83.6207	120.117	83.4982	120.117	83.5472	120.117	83.4453	120.117	83.4845	120.117	83.4171	120.117	83.4388	120.117	83.4153
124.512	84.0257	124.512	84.0405	124.512	84.0167	124.512	84.0598	124.512	84.0142	124.512	84.0816	124.512	84.0181	124.512	84.1033	124.512	84.0278	124.512	84.1221	124.512	84.0418	124.512	84.1347	124.512	84.058	124.512	84.1381	124.512	84.0736	124.512	84.13	124.512	84.0854	124.512	84.1089	124.512	84.0902	124.512	84.075	124.512	84.0855	124.512	84.0303	124.512	84.0696	124.512	83.9784	124.512	84.0421	124.512	83.9244	124.512	84.0046	124.512	83.874	124.512	83.9597	124.512	83.8331	124.512	83.912	124.512	83.8063	124.512	83.8667	124.512	83.7966	124.512	83.8293	124.512	83.8048
128.906	84.1534	128.906	84.1711	128.906	84.1384	128.906	84.19	128.906	84.127	128.906	84.2081	128.906	84.1198	128.906	84.2229	128.906	84.1166	128.906	84.2314	128.906	84.1169	128.906	84.2306	128.906	84.1193	128.906	84.2181	128.906	84.122	128.906	84.1919	128.906	84.1223	128.906	84.1517	128.906	84.1176	128.906	84.0987	128.906	84.1051	128.906	84.036	128.906	84.0828	128.906	83.9682	128.906	84.0498	128.906	83.9013	128.906	84.0067	128.906	83.8418	128.906	83.9559	128.906	83.7957	128.906	83.9015	128.906	83.7675	128.906	83.8489	128.906	83.7599	128.906	83.804	128.906	83.7729
133.301	84.2555	133.301	84.2799	133.301	84.2337	133.301	84.3051	133.301	84.2159	133.301	84.3288	133.301	84.2029	133.301	84.3485	133.301	84.1952	133.301	84.3611	133.301	84.1925	133.301	84.3636	133.301	84.1936	133.301	84.3532	133.301	84.1966	133.301	84.328	133.301	84.1984	133.301	84.2871	133.301	84.1959	133.301	84.2313	133.301	84.1854	133.301	84.1633	133.301	84.1643	133.301	84.0877	133.301	84.1309	133.301	84.0108	133.301	84.0857	133.301	83.9399	133.301	84.0312	133.301	83.8821	133.301	83.9722	133.301	83.8436	133.301	83.9154	133.301	83.8284	133.301	83.8681	133.301	83.8374
139.16	84.3733	139.16	84.399	139.16	84.3495	139.16	84.4247	139.16	84.3293	139.16	84.4479	139.16	84.3139	139.16	84.466	139.16	84.3035	139.16	84.476	139.16	84.2979	139.16	84.4754	139.16	84.2959	139.16	84.4617	139.16	84.2954	139.16	84.4334	139.16	84.2939	139.16	84.3902	139.16	84.2882	139.16	84.3334	139.16	84.2755	139.16	84.2659	139.16	84.2533	139.16	84.1925	139.16	84.2206	139.16	84.1191	139.16	84.1779	139.16	84.0523	139.16	84.1276	139.16	83.9984	139.16	84.0741	139.16	83.9625	139.16	84.0233	139.16	83.9479	139.16	83.9816	139.16	83.955
143.555	84.4528	143.555	84.4669	143.555	84.4379	143.555	84.4787	143.555	84.4233	143.555	84.4869	143.555	84.4105	143.555	84.4899	143.555	84.4004	143.555	84.4859	143.555	84.3934	143.555	84.4732	143.555	84.3889	143.555	84.45	143.555	84.3855	143.555	84.4152	143.555	84.3808	143.555	84.3687	143.555	84.3722	143.555	84.3117	143.555	84.3567	143.555	84.2472	143.555	84.3322	143.555	84.1795	143.555	84.2975	143.555	84.1143	143.555	84.2528	143.555	84.0576	143.555	84.2002	143.555	84.0151	143.555	84.1435	143.555	83.9909	143.555	84.0879	143.555	83.9875	143.555	84.0397	143.555	84.0046
147.949	84.5226	147.949	84.5418	147.949	84.5028	147.949	84.5589	147.949	84.4834	147.949	84.5718	147.949	84.4649	147.949	84.5778	147.949	84.4478	147.949	84.5739	147.949	84.4321	147.949	84.5571	147.949	84.4177	147.949	84.5252	147.949	84.4036	147.949	84.477	147.949	84.3885	147.949	84.4127	147.949	84.37	147.949	84.3347	147.949	84.3455	147.949	84.2474	147.949	84.3124	147.949	84.1565	147.949	84.2689	147.949	84.0694	147.949	84.2145	147.949	83.9936	147.949	84.151	147.949	83.9362	147.949	84.0823	147.949	83.9024	147.949	84.0149	147.949	83.8953	147.949	83.9564	147.949	83.9144
153.809	84.6554	153.809	84.6724	153.809	84.6353	153.809	84.6851	153.809	84.6135	153.809	84.692	153.809	84.5911	153.809	84.6911	153.809	84.5692	153.809	84.6803	153.809	84.5482	153.809	84.6571	153.809	84.528	153.809	84.6191	153.809	84.5076	153.809	84.5647	153.809	84.4849	153.809	84.4939	153.809	84.4576	153.809	84.4086	153.809	84.4229	153.809	84.3131	153.809	84.3786	153.809	84.2136	153.809	84.3232	153.809	84.1176	153.809	84.2573	153.809	84.0334	153.809	84.1834	153.809	83.9683	153.809	84.1066	153.809	83.928	153.809	84.0338	153.809	83.9158	153.809	83.9731	153.809	83.9318
159.668	84.6669	159.668	84.6777	159.668	84.6523	159.668	84.6844	159.668	84.6346	159.668	84.6867	159.668	84.6145	159.668	84.6839	159.668	84.5935	159.668	84.6745	159.668	84.5724	159.668	84.6561	159.668	84.5519	159.668	84.6262	159.668	84.5316	159.668	84.5823	159.668	84.5103	159.668	84.5231	159.668	84.4861	159.668	84.4497	159.668	84.4566	159.668	84.3652	159.668	84.4198	159.668	84.2753	159.668	84.3741	159.668	84.1876	159.668	84.3191	159.668	84.1106	159.668	84.2563	159.668	84.0517	159.668	84.1893	159.668	84.0169	159.668	84.1239	159.668	84.0088	159.668	84.0672	159.668	84.0268
165.527	84.9066	165.527	84.9124	165.527	84.8955	165.527	84.912	165.527	84.8801	165.527	84.9052	165.527	84.8623	165.527	84.8916	165.527	84.8436	165.527	84.8708	165.527	84.8256	165.527	84.8421	165.527	84.8089	165.527	84.8043	165.527	84.7931	165.527	84.7567	165.527	84.7767	165.527	84.6993	165.527	84.7575	165.527	84.6334	165.527	84.733	165.527	84.5622	165.527	84.701	165.527	84.4904	165.527	84.6604	165.527	84.4235	165.527	84.6111	165.527	84.3676	165.527	84.5544	165.527	84.3282	165.527	84.4934	165.527	84.3092	165.527	84.4328	165.527	84.3122	165.527	84.3785	165.527	84.3365
171.387	84.9763	171.387	84.9852	171.387	84.9592	171.387	84.9851	171.387	84.9355	171.387	84.9752	171.387	84.9069	171.387	84.9552	171.387	84.8756	171.387	84.9246	171.387	84.8435	171.387	84.8827	171.387	84.8118	171.387	84.8287	171.387	84.7808	171.387	84.7623	171.387	84.7497	171.387	84.6839	171.387	84.7164	171.387	84.5959	171.387	84.6787	171.387	84.5025	171.387	84.6343	171.387	84.4101	171.387	84.582	171.387	84.3261	171.387	84.5216	171.387	84.2574	171.387	84.455	171.387	84.2098	171.387	84.3857	171.387	84.1867	171.387	84.3185	171.387	84.1888	171.387	84.2594	171.387	84.2143
177.246	85.0239	177.246	85.0431	177.246	84.9943	177.246	85.0499	177.246	84.9567	177.246	85.0431	177.246	84.9141	177.246	85.0219	177.246	84.8695	177.246	84.9855	177.246	84.8255	177.246	84.9335	177.246	84.783	177.246	84.8657	177.246	84.7416	177.246	84.783	177.246	84.6993	177.246	84.6877	177.246	84.6533	177.246	84.5835	177.246	84.6009	177.246	84.4757	177.246	84.5401	177.246	84.3704	177.246	84.4711	177.246	84.2745	177.246	84.3957	177.246	84.194	177.246	84.3181	177.246	84.1338	177.246	84.2437	177.246	84.0967	177.246	84.1783	177.246	84.0839	177.246	84.1272	177.246	84.0947
183.105	84.923	183.105	84.9543	183.105	84.8831	183.105	84.9763	183.105	84.8364	183.105	84.988	183.105	84.7853	183.105	84.9886	183.105	84.7332	183.105	84.9763	183.105	84.6832	183.105	84.9491	183.105	84.6379	183.105	84.9046	183.105	84.5979	183.105	84.8418	183.105	84.5619	183.105	84.7609	183.105	84.5274	183.105	84.6649	183.105	84.4907	183.105	84.5588	183.105	84.4491	183.105	84.4498	183.105	84.4008	183.105	84.3459	183.105	84.3464	183.105	84.2549	183.105	84.2881	183.105	84.1834	183.105	84.2303	183.105	84.1354	183.105	84.1783	183.105	84.1128	183.105	84.1379	183.105	84.1145
188.965	84.922	188.965	84.9456	188.965	84.8888	188.965	84.9601	188.965	84.8462	188.965	84.9659	188.965	84.7957	188.965	84.9628	188.965	84.74	188.965	84.9496	188.965	84.6827	188.965	84.9242	188.965	84.6274	188.965	84.8842	188.965	84.5769	188.965	84.8281	188.965	84.5321	188.965	84.7561	188.965	84.4922	188.965	84.6701	188.965	84.4551	188.965	84.5746	188.965	84.4179	188.965	84.4754	188.965	84.3785	188.965	84.3794	188.965	84.3358	188.965	84.2939	188.965	84.2903	188.965	84.2249	188.965	84.2445	188.965	84.1771	188.965	84.2023	188.965	84.1526	188.965	84.1692	188.965	84.151
196.289	85.0005	196.289	85.0145	196.289	84.9742	196.289	85.0171	196.289	84.9358	196.289	85.0097	196.289	84.8873	196.289	84.9933	196.289	84.8316	196.289	84.9676	196.289	84.7722	196.289	84.9308	196.289	84.7119	196.289	84.8801	196.289	84.6525	196.289	84.8129	196.289	84.5942	196.289	84.7284	196.289	84.5357	196.289	84.6286	196.289	84.4749	196.289	84.5182	196.289	84.4097	196.289	84.4037	196.289	84.3389	196.289	84.2922	196.289	84.2632	196.289	84.1907	196.289	84.1861	196.289	84.1051	196.289	84.1132	196.289	84.041	196.289	84.0519	196.289	84.0025	196.289	84.0096	196.289	83.9921
203.613	84.9219	203.613	84.9192	203.613	84.9129	203.613	84.9079	203.613	84.89	203.613	84.8914	203.613	84.853	203.613	84.8721	203.613	84.8031	203.613	84.8503	203.613	84.7439	203.613	84.8239	203.613	84.6802	203.613	84.788	203.613	84.6173	203.613	84.7371	203.613	84.5598	203.613	84.6675	203.613	84.51	203.613	84.5792	203.613	84.4678	203.613	84.4774	203.613	84.43	203.613	84.3716	203.613	84.392	203.613	84.2732	203.613	84.3495	203.613	84.1921	203.613	84.3005	203.613	84.1345	203.613	84.2464	203.613	84.1027	203.613	84.1922	203.613	84.0957	203.613	84.1449	203.613	84.111
210.938	85.0214	210.938	85.0083	210.938	85.0225	210.938	84.9823	210.938	85.0141	210.938	84.9444	210.938	84.9998	210.938	84.8972	210.938	84.9831	210.938	84.8442	210.938	84.9663	210.938	84.788	210.938	84.9498	210.938	84.7292	210.938	84.9312	210.938	84.6665	210.938	84.906	210.938	84.5969	210.938	84.869	210.938	84.5181	210.938	84.8159	210.938	84.43	210.938	84.7447	210.938	84.3362	210.938	84.6563	210.938	84.2439	210.938	84.5547	210.938	84.1623	210.938	84.4457	210.938	84.1006	210.938	84.3367	210.938	84.0661	210.938	84.2362	210.938	84.0633	210.938	84.1524	210.938	84.0929
218.262	84.8274	218.262	84.8523	218.262	84.8012	218.262	84.875	218.262	84.7769	218.262	84.8962	218.262	84.7597	218.262	84.9163	218.262	84.7554	218.262	84.9343	218.262	84.7678	218.262	84.9473	218.262	84.797	218.262	84.9508	218.262	84.8385	218.262	84.9403	218.262	84.8845	218.262	84.9131	218.262	84.9259	218.262	84.8689	218.262	84.9552	218.262	84.8112	218.262	84.9678	218.262	84.7464	218.262	84.9616	218.262	84.6832	218.262	84.9365	218.262	84.6312	218.262	84.8938	218.262	84.5982	218.262	84.8369	218.262	84.5897	218.262	84.7713	218.262	84.607	218.262	84.7052	218.262	84.6476
225.586	84.2124	225.586	84.2754	225.586	84.1602	225.586	84.3521	225.586	84.1174	225.586	84.4451	225.586	84.0856	225.586	84.5547	225.586	84.0705	225.586	84.6779	225.586	84.0815	225.586	84.807	225.586	84.1291	225.586	84.9313	225.586	84.22	225.586	85.038	225.586	84.352	225.586	85.1156	225.586	84.5132	225.586	85.1564	225.586	84.6841	225.586	85.1585	225.586	84.8433	225.586	85.1274	225.586	84.9719	225.586	85.0748	225.586	85.0574	225.586	85.0162	225.586	85.0955	225.586	84.9669	225.586	85.0906	225.586	84.9387	225.586	85.0553	225.586	84.9376	225.586	85.0068	225.586	84.9628
232.91	82.7923	232.91	82.7685	232.91	82.7892	232.91	82.7288	232.91	82.7573	232.91	82.6946	232.91	82.7039	232.91	82.6945	232.91	82.6441	232.91	82.7575	232.91	82.6003	232.91	82.9012	232.91	82.5988	232.91	83.1226	232.91	82.6636	232.91	83.3977	232.91	82.8092	232.91	83.6914	232.91	83.0346	232.91	83.9703	232.91	83.3231	232.91	84.2124	232.91	83.6466	232.91	84.41	232.91	83.973	232.91	84.5668	232.91	84.2731	232.91	84.6922	232.91	84.5252	232.91	84.7937	232.91	84.7181	232.91	84.8731	232.91	84.8494	232.91	84.9263	232.91	84.9229	232.91	84.9458
241.699	84.2638	241.699	84.2031	241.699	84.2569	241.699	84.0781	241.699	84.1832	241.699	83.8965	241.699	84.0476	241.699	83.6718	241.699	83.8596	241.699	83.4242	241.699	83.6341	241.699	83.1818	241.699	83.3923	241.699	82.9784	241.699	83.1614	241.699	82.8466	241.699	82.9714	241.699	82.8073	241.699	82.8491	241.699	82.8595	241.699	82.8111	241.699	82.9809	241.699	82.8588	241.699	83.1383	241.699	82.9784	241.699	83.3018	241.699	83.1457	241.699	83.4527	241.699	83.3311	241.699	83.5816	241.699	83.5056	241.699	83.6826	241.699	83.6454	241.699	83.748	241.699	83.7349	241.699	83.7682
250.488	84.5315	250.488	84.4903	250.488	84.5135	250.488	84.3929	250.488	84.4369	250.488	84.2453	250.488	84.306	250.488	84.057	250.488	84.129	250.488	83.8418	250.488	83.919	250.488	83.6173	250.488	83.6934	250.488	83.4041	250.488	83.4733	250.488	83.2221	250.488	83.2805	250.488	83.086	250.488	83.134	250.488	83.0016	250.488	83.0452	250.488	82.967	250.488	83.0159	250.488	82.9749	250.488	83.0378	250.488	83.0165	250.488	83.0957	250.488	83.0821	250.488	83.1712	250.488	83.1605	250.488	83.2463	250.488	83.238	250.488	83.3054	250.488	83.3003	250.488	83.3373	250.488	83.3356
259.277	84.8935	259.277	84.8579	259.277	84.8776	259.277	84.7697	259.277	84.8114	259.277	84.6297	259.277	84.6972	259.277	84.4411	259.277	84.5382	259.277	84.2122	259.277	84.3405	259.277	83.9573	259.277	84.1143	259.277	83.6978	259.277	83.8755	259.277	83.4603	259.277	83.6445	259.277	83.271	259.277	83.4436	259.277	83.1475	259.277	83.2914	259.277	83.0913	259.277	83.1979	259.277	83.0891	259.277	83.1629	259.277	83.1213	259.277	83.1762	259.277	83.1713	259.277	83.2209	259.277	83.2283	259.277	83.2775	259.277	83.2844	259.277	83.3273	259.277	83.3308	259.277	83.3563	259.277	83.3572
268.066	84.7963	268.066	84.7707	268.066	84.7676	268.066	84.6938	268.066	84.6847	268.066	84.5716	268.066	84.5513	268.066	84.4117	268.066	84.3746	268.066	84.2234	268.066	84.1648	268.066	84.0174	268.066	83.9349	268.066	83.8056	268.066	83.702	268.066	83.6026	268.066	83.4862	268.066	83.4259	268.066	83.3071	268.066	83.2954	268.066	83.1776	268.066	83.2264	268.066	83.1005	268.066	83.2209	268.066	83.0702	268.066	83.2638	268.066	83.079	268.066	83.3287	268.066	83.1204	268.066	83.3887	268.066	83.1868	268.066	83.4253	268.066	83.2662	268.066	83.4298	268.066	83.3426	268.066	83.4006
276.855	84.7942	276.855	84.7249	276.855	84.8043	276.855	84.602	276.855	84.7548	276.855	84.4327	276.855	84.6516	276.855	84.2248	276.855	84.5056	276.855	83.9878	276.855	84.3282	276.855	83.7362	276.855	84.1266	276.855	83.4904	276.855	83.9046	276.855	83.2734	276.855	83.6693	276.855	83.1055	276.855	83.4397	276.855	82.999	276.855	83.2463	276.855	82.957	276.855	83.1171	276.855	82.9723	276.855	83.0593	276.855	83.0271	276.855	83.055	276.855	83.0951	276.855	83.0754	276.855	83.1505	276.855	83.0991	276.855	83.1782	276.855	83.1196	276.855	83.1782	276.855	83.1398	276.855	83.1613
287.109	84.799	287.109	84.7865	287.109	84.7571	287.109	84.7198	287.109	84.6606	287.109	84.6015	287.109	84.5108	287.109	84.4371	287.109	84.3152	287.109	84.2352	287.109	84.0908	287.109	84.0062	287.109	83.8626	287.109	83.7633	287.109	83.6538	287.109	83.5224	287.109	83.4746	287.109	83.3012	287.109	83.3233	287.109	83.1162	287.109	83.197	287.109	82.9816	287.109	83.1025	287.109	82.9088	287.109	83.0522	287.109	82.9025	287.109	83.0508	287.109	82.9531	287.109	83.0863	287.109	83.035	287.109	83.1361	287.109	83.1173	287.109	83.1801	287.109	83.1772	287.109	83.2056	287.109	83.2062
297.363	84.7562	297.363	84.7135	297.363	84.7262	297.363	84.6052	297.363	84.6256	297.363	84.4457	297.363	84.4641	297.363	84.2519	297.363	84.2547	297.363	84.0401	297.363	84.0107	297.363	83.8235	297.363	83.7469	297.363	83.6131	297.363	83.4823	297.363	83.4186	297.363	83.2399	297.363	83.2485	297.363	83.0397	297.363	83.1085	297.363	82.8923	297.363	83.0001	297.363	82.8002	297.363	82.9231	297.363	82.7644	297.363	82.882	297.363	82.786	297.363	82.8849	297.363	82.86	297.363	82.9341	297.363	82.9662	297.363	83.0155	297.363	83.0707	297.363	83.098	297.363	83.138	297.363	83.1466
307.617	84.8843	307.617	84.798	307.617	84.9034	307.617	84.6536	307.617	84.8462	307.617	84.4602	307.617	84.7057	307.617	84.2255	307.617	84.4821	307.617	83.957	307.617	84.1879	307.617	83.6667	307.617	83.8514	307.617	83.3779	307.617	83.5122	307.617	83.1276	307.617	83.2107	307.617	82.9537	307.617	82.9758	307.617	82.8706	307.617	82.8191	307.617	82.8553	307.617	82.7379	307.617	82.864	307.617	82.7213	307.617	82.8639	307.617	82.7535	307.617	82.8521	307.617	82.816	307.617	82.8486	307.617	82.8877	307.617	82.871	307.617	82.9459	307.617	82.9155	307.617	82.9716	307.617	82.9577
319.336	84.6479	319.336	84.6085	319.336	84.6136	319.336	84.489	319.336	84.5158	319.336	84.2903	319.336	84.3628	319.336	84.0224	319.336	84.1584	319.336	83.7009	319.336	83.9036	319.336	83.3445	319.336	83.6031	319.336	82.976	319.336	83.2742	319.336	82.6295	319.336	82.951	319.336	82.3557	319.336	82.6788	319.336	82.2077	319.336	82.4985	319.336	82.2058	319.336	82.4271	319.336	82.316	319.336	82.4515	319.336	82.4716	319.336	82.5376	319.336	82.6166	319.336	82.6477	319.336	82.7276	319.336	82.7519	319.336	82.8058	319.336	82.8311	319.336	82.8575	319.336	82.8753	319.336	82.8826
329.59	84.4222	329.59	84.3843	329.59	84.4018	329.59	84.2902	329.59	84.3205	329.59	84.1395	329.59	84.1797	329.59	83.9319	329.59	83.9854	329.59	83.6707	329.59	83.7445	329.59	83.3627	329.59	83.4605	329.59	83.0156	329.59	83.1369	329.59	82.6385	329.59	82.7874	329.59	82.2552	329.59	82.4446	329.59	81.9199	329.59	82.1553	329.59	81.712	329.59	81.9627	329.59	81.6904	329.59	81.8859	329.59	81.843	329.59	81.9154	329.59	82.09	329.59	82.024	329.59	82.3356	329.59	82.1781	329.59	82.5126	329.59	82.3434	329.59	82.5931	329.59	82.487	329.59	82.5787
341.309	84.3745	341.309	84.3185	341.309	84.3549	341.309	84.1889	341.309	84.2592	341.309	83.9893	341.309	84.0908	341.309	83.7279	341.309	83.8608	341.309	83.4189	341.309	83.5876	341.309	83.0827	341.309	83.2922	341.309	82.7424	341.309	82.9912	341.309	82.4199	341.309	82.6973	341.309	82.1315	341.309	82.4268	341.309	81.89	341.309	82.2055	341.309	81.7129	341.309	82.0634	341.309	81.6266	341.309	82.016	341.309	81.6522	341.309	82.0497	341.309	81.7789	341.309	82.1277	341.309	81.9576	341.309	82.211	341.309	82.1269	341.309	82.2748	341.309	82.2454	341.309	82.3082	341.309	82.3027
353.027	84.4372	353.027	84.3783	353.027	84.4186	353.027	84.2519	353.027	84.3097	353.027	84.0602	353.027	84.1031	353.027	83.8005	353.027	83.8025	353.027	83.4727	353.027	83.4239	353.027	83.0879	353.027	82.9898	353.027	82.6732	353.027	82.5242	353.027	82.2704	353.027	82.0517	353.027	81.9275	353.027	81.6048	353.027	81.682	353.027	81.2316	353.027	81.5428	353.027	80.9895	353.027	81.4897	353.027	80.9192	353.027	81.4958	353.027	81.016	353.027	81.5465	353.027	81.2271	353.027	81.6366	353.027	81.4775	353.027	81.7497	353.027	81.6986	353.027	81.8493	353.027	81.8432	353.027	81.8911
366.211	84.1818	366.211	84.1154	366.211	84.1747	366.211	83.9705	366.211	84.0976	366.211	83.7472	366.211	83.9461	366.211	83.4517	366.211	83.7113	366.211	83.094	366.211	83.3936	366.211	82.6896	366.211	83.0163	366.211	82.2651	366.211	82.6207	366.211	81.8615	366.211	82.244	366.211	81.5256	366.211	81.8995	366.211	81.2926	366.211	81.5865	366.211	81.178	366.211	81.318	366.211	81.1791	366.211	81.1283	366.211	81.27	366.211	81.0452	366.211	81.3976	366.211	81.0598	366.211	81.4983	366.211	81.1316	366.211	81.5307	366.211	81.2228	366.211	81.493	366.211	81.3176	366.211	81.4122
379.395	84.4195	379.395	84.3277	379.395	84.4218	379.395	84.1497	379.395	84.3396	379.395	83.896	379.395	84.1814	379.395	83.5788	379.395	83.9526	379.395	83.2064	379.395	83.6527	379.395	82.7839	379.395	83.2807	379.395	82.3221	379.395	82.8483	379.395	81.8534	379.395	82.3915	379.395	81.4375	379.395	81.9672	379.395	81.1386	379.395	81.628	379.395	80.9822	379.395	81.3972	379.395	80.9402	379.395	81.2713	379.395	80.9703	379.395	81.2462	379.395	81.0588	379.395	81.322	379.395	81.2133	379.395	81.4769	379.395	81.4204	379.395	81.6493	379.395	81.6246	379.395	81.7601	379.395	81.7534
392.578	84.2803	392.578	84.262	392.578	84.2395	392.578	84.18	392.578	84.1317	392.578	84.0188	392.578	83.9447	392.578	83.7603	392.578	83.6749	392.578	83.3941	392.578	83.3352	392.578	82.924	392.578	82.9498	392.578	82.3755	392.578	82.5381	392.578	81.8024	392.578	82.107	392.578	81.2895	392.578	81.6679	392.578	80.9343	392.578	81.2671	392.578	80.8009	392.578	80.9899	392.578	80.8784	392.578	80.9074	392.578	81.0894	392.578	81.0144	392.578	81.3413	392.578	81.2347	392.578	81.5677	392.578	81.4799	392.578	81.7377	392.578	81.6873	392.578	81.8415	392.578	81.8224	392.578	81.8728
405.762	84.3398	405.762	84.2751	405.762	84.3291	405.762	84.1301	405.762	84.2501	405.762	83.9087	405.762	84.1006	405.762	83.621	405.762	83.8644	405.762	83.2754	405.762	83.5221	405.762	82.8706	405.762	83.0743	405.762	82.3999	405.762	82.5588	405.762	81.8733	405.762	82.0443	405.762	81.3457	405.762	81.5995	405.762	80.9141	405.762	81.26	405.762	80.6597	405.762	81.0301	405.762	80.5847	405.762	80.9105	405.762	80.6299	405.762	80.9061	405.762	80.7402	405.762	81.001	405.762	80.8889	405.762	81.1443	405.762	81.0557	405.762	81.2712	405.762	81.2086	405.762	81.3332	405.762	81.3102
420.41	84.5714	420.41	84.4851	420.41	84.5353	420.41	84.2813	420.41	84.3822	420.41	83.9752	420.41	84.1276	420.41	83.5895	420.41	83.7934	420.41	83.1479	420.41	83.3996	420.41	82.6692	420.41	82.952	420.41	82.1647	420.41	82.441	420.41	81.6444	420.41	81.8609	420.41	81.1363	420.41	81.2431	420.41	80.7144	420.41	80.6735	420.41	80.4887	420.41	80.2623	420.41	80.5262	420.41	80.0729	420.41	80.7758	420.41	80.0859	420.41	81.1047	420.41	80.2421	420.41	81.3891	420.41	80.4946	420.41	81.5522	420.41	80.8089	420.41	81.5586	420.41	81.1363	420.41	81.408
435.059	84.3072	435.059	84.2396	435.059	84.2989	435.059	84.1015	435.059	84.2054	435.059	83.8886	435.059	84.0238	435.059	83.5903	435.059	83.7624	435.059	83.1976	435.059	83.4393	435.059	82.7082	435.059	83.0741	435.059	82.1309	435.059	82.6747	435.059	81.4926	435.059	82.2275	435.059	80.8465	435.059	81.7112	435.059	80.267	435.059	81.1439	435.059	79.8327	435.059	80.6282	435.059	79.6117	435.059	80.3172	435.059	79.6495	435.059	80.2883	435.059	79.9352	435.059	80.4769	435.059	80.375	435.059	80.7581	435.059	80.824	435.059	81.0331	435.059	81.1513	435.059	81.2311	435.059	81.2869
451.172	84.787	451.172	84.7228	451.172	84.7743	451.172	84.5836	451.172	84.6725	451.172	84.3606	451.172	84.4658	451.172	84.0419	451.172	84.1411	451.172	83.6168	451.172	83.6949	451.172	83.0748	451.172	83.1428	451.172	82.4053	451.172	82.5275	451.172	81.6178	451.172	81.9103	451.172	80.7946	451.172	81.3412	451.172	80.13	451.172	80.8361	451.172	79.8315	451.172	80.3992	451.172	79.9076	451.172	80.0831	451.172	80.1714	451.172	80.0048	451.172	80.4596	451.172	80.24	451.172	80.7284	451.172	80.6874	451.172	80.9894	451.172	81.1213	451.172	81.2293	451.172	81.3678	451.172	81.3848
465.82	85.0232	465.82	84.9044	465.82	85.0103	465.82	84.6582	465.82	84.8741	465.82	84.3072	465.82	84.631	465.82	83.8921	465.82	84.3039	465.82	83.4598	465.82	83.916	465.82	83.0402	465.82	83.4797	465.82	82.6206	465.82	82.9924	465.82	82.1369	465.82	82.4497	465.82	81.5166	465.82	81.8672	465.82	80.7705	465.82	81.2932	465.82	80.0663	465.82	80.8036	465.82	79.6637	465.82	80.4737	465.82	79.6742	465.82	80.3291	465.82	79.9541	465.82	80.323	465.82	80.2867	465.82	80.381	465.82	80.5337	465.82	80.4615	465.82	80.6446	465.82	80.554	465.82	80.6334
483.398	85.2632	483.398	85.2578	483.398	85.1988	483.398	85.1621	483.398	85.0775	483.398	84.9672	483.398	84.885	483.398	84.6763	483.398	84.5838	483.398	84.2843	483.398	84.1416	483.398	83.7601	483.398	83.5648	483.398	83.0638	483.398	82.9031	483.398	82.1987	483.398	82.2147	483.398	81.2674	483.398	81.5349	483.398	80.478	483.398	80.9006	483.398	80.0377	483.398	80.4032	483.398	79.9954	483.398	80.1604	483.398	80.2343	483.398	80.2007	483.398	80.6011	483.398	80.4298	483.398	80.9763	483.398	80.7308	483.398	81.2729	483.398	81.0308	483.398	81.4318	483.398	81.2807	483.398	81.4292
499.512	84.8651	499.512	84.8046	499.512	84.8762	499.512	84.694	499.512	84.8249	499.512	84.5081	499.512	84.7027	499.512	84.2138	499.512	84.5052	499.512	83.8048	499.512	84.2157	499.512	83.313	499.512	83.7989	499.512	82.7756	499.512	83.2261	499.512	82.1927	499.512	82.5157	499.512	81.5469	499.512	81.752	499.512	80.8792	499.512	81.0422	499.512	80.3366	499.512	80.4468	499.512	80.0918	499.512	79.9951	499.512	80.1765	499.512	79.7715	499.512	80.4623	499.512	79.8744	499.512	80.8014	499.512	80.2581	499.512	81.0979	499.512	80.7325	499.512	81.2845	499.512	81.1129	499.512	81.3018
517.09	85.3513	517.09	85.1755	517.09	85.4168	517.09	84.9317	517.09	85.3407	517.09	84.6393	517.09	85.1332	517.09	84.2845	517.09	84.8434	517.09	83.8279	517.09	84.5238	517.09	83.2214	517.09	84.1969	517.09	82.4358	517.09	83.8431	517.09	81.5001	517.09	83.3997	517.09	80.5247	517.09	82.7893	517.09	79.6726	517.09	81.9932	517.09	79.1108	517.09	81.1281	517.09	78.9977	517.09	80.427	517.09	79.3845	517.09	80.0955	517.09	80.0828	517.09	80.1964	517.09	80.8088	517.09	80.6467	517.09	81.3912	517.09	81.2329	517.09	81.7659	517.09	81.6989	517.09	81.8845
536.133	84.9735	536.133	85.0061	536.133	84.8312	536.133	84.9248	536.133	84.5981	536.133	84.7423	536.133	84.2898	536.133	84.4684	536.133	83.9144	536.133	84.1001	536.133	83.4834	536.133	83.6338	536.133	83.0135	536.133	83.0505	536.133	82.5188	536.133	82.272	536.133	82.0106	536.133	81.1873	536.133	81.5068	536.133	79.8197	536.133	81.0366	536.133	78.554	536.133	80.6413	536.133	78.0133	536.133	80.3814	536.133	78.3049	536.133	80.3248	536.133	78.9814	536.133	80.4807	536.133	79.7051	536.133	80.7511	536.133	80.3288	536.133	80.9907	536.133	80.7793	536.133	81.0984	536.133	81.0334
555.176	85.6875	555.176	85.6481	555.176	85.622	555.176	85.5099	555.176	85.4727	555.176	85.3161	555.176	85.2437	555.176	85.0912	555.176	84.9043	555.176	84.7858	555.176	84.4131	555.176	84.3161	555.176	83.7576	555.176	83.6592	555.176	82.9715	555.176	82.8732	555.176	82.1091	555.176	81.9958	555.176	81.2046	555.176	80.9685	555.176	80.2754	555.176	79.7567	555.176	79.3745	555.176	78.5934	555.176	78.6288	555.176	77.9956	555.176	78.2263	555.176	78.2012	555.176	78.3192	555.176	78.8808	555.176	78.8483	555.176	79.6136	555.176	79.5315	555.176	80.131	555.176	80.0732	555.176	80.2947
574.219	85.4871	574.219	85.5712	574.219	85.3427	574.219	85.5413	574.219	85.157	574.219	85.3664	574.219	84.9146	574.219	85.0842	574.219	84.606	574.219	84.7617	574.219	84.2348	574.219	84.3899	574.219	83.787	574.219	83.8619	574.219	83.2352	574.219	83.096	574.219	82.585	574.219	82.1487	574.219	81.8797	574.219	81.1632	574.219	81.1427	574.219	80.235	574.219	80.3888	574.219	79.4874	574.219	79.7291	574.219	79.222	574.219	79.3642	574.219	79.5758	574.219	79.3988	574.219	80.1904	574.219	79.7375	574.219	80.6597	574.219	80.184	574.219	80.853	574.219	80.5696	574.219	80.8059
594.727	85.0949	594.727	84.9072	594.727	85.1632	594.727	84.6911	594.727	85.0308	594.727	84.4784	594.727	84.6975	594.727	84.2415	594.727	84.2409	594.727	83.9557	594.727	83.7346	594.727	83.6373	594.727	83.1837	594.727	83.2917	594.727	82.5427	594.727	82.8449	594.727	81.7675	594.727	82.169	594.727	80.8515	594.727	81.1968	594.727	79.8428	594.727	80.0586	594.727	78.8453	594.727	79.1224	594.727	78.0583	594.727	78.7511	594.727	77.8203	594.727	79.0265	594.727	78.3131	594.727	79.7313	594.727	79.1926	594.727	80.4372	594.727	79.9817	594.727	80.8078	594.727	80.5085	594.727	80.7962
615.234	85.3221	615.234	85.2899	615.234	85.277	615.234	85.1504	615.234	85.1838	615.234	84.9144	615.234	85.0221	615.234	84.609	615.234	84.7457	615.234	84.2362	615.234	84.3416	615.234	83.7684	615.234	83.8265	615.234	83.144	615.234	83.1815	615.234	82.2674	615.234	82.3546	615.234	81.1061	615.234	81.3497	615.234	79.8409	615.234	80.2295	615.234	78.7819	615.234	79.0319	615.234	78.0112	615.234	77.8733	615.234	77.5553	615.234	77.0716	615.234	77.6937	615.234	76.8412	615.234	78.2789	615.234	77.1772	615.234	78.818	615.234	77.9776	615.234	79.1418	615.234	78.7964	615.234	79.1913
637.207	84.9203	637.207	84.7127	637.207	85.0025	637.207	84.4397	637.207	84.932	637.207	84.1672	637.207	84.7303	637.207	83.9454	637.207	84.4334	637.207	83.7588	637.207	84.0675	637.207	83.5204	637.207	83.6799	637.207	83.1593	637.207	83.304	637.207	82.6338	637.207	82.8646	637.207	81.8442	637.207	82.2231	637.207	80.6661	637.207	81.2962	637.207	79.1844	637.207	80.0639	637.207	77.9327	637.207	78.586	637.207	77.6162	637.207	77.2708	637.207	78.2378	637.207	76.8559	637.207	79.1973	637.207	77.3553	637.207	79.9094	637.207	78.1501	637.207	80.0531	637.207	78.9492	637.207	79.6529
659.18	83.8028	659.18	83.6748	659.18	83.8686	659.18	83.5178	659.18	83.8621	659.18	83.3881	659.18	83.7807	659.18	83.2908	659.18	83.625	659.18	83.1533	659.18	83.3787	659.18	82.8945	659.18	83.0426	659.18	82.4872	659.18	82.6933	659.18	81.9508	659.18	82.3677	659.18	81.2264	659.18	81.9085	659.18	80.124	659.18	81.1326	659.18	78.6041	659.18	79.9923	659.18	77.1225	659.18	78.5142	659.18	76.3757	659.18	76.9633	659.18	76.5478	659.18	76.1511	659.18	77.268	659.18	76.5958	659.18	78.0316	659.18	77.586	659.18	78.5253	659.18	78.3455	659.18	78.6471
682.617	83.4287	682.617	83.26	682.617	83.4385	682.617	83.0037	682.617	83.2571	682.617	82.7037	682.617	82.9172	682.617	82.4128	682.617	82.4906	682.617	82.2396	682.617	82.0829	682.617	82.2251	682.617	81.7296	682.617	82.2207	682.617	81.3516	682.617	81.9936	682.617	80.9385	682.617	81.3513	682.617	80.5416	682.617	80.1802	682.617	80.0702	682.617	78.5135	682.617	79.3344	682.617	76.5895	682.617	78.2356	682.617	74.7838	682.617	76.8536	682.617	73.9214	682.617	75.4154	682.617	74.9159	682.617	74.484	682.617	76.5813	682.617	75.0143	682.617	77.5599	682.617	76.4796	682.617	77.509
707.52	83.588	707.52	83.2495	707.52	83.8269	707.52	82.8004	707.52	83.8232	707.52	82.196	707.52	83.4886	707.52	81.6115	707.52	82.9198	707.52	81.3329	707.52	82.2275	707.52	81.4196	707.52	81.449	707.52	81.7217	707.52	80.8063	707.52	82.0295	707.52	80.6035	707.52	81.9901	707.52	80.6184	707.52	81.1858	707.52	80.4182	707.52	79.4261	707.52	79.8817	707.52	76.9213	707.52	78.915	707.52	74.3016	707.52	77.2993	707.52	72.1754	707.52	75.213	707.52	71.4638	707.52	73.5184	707.52	72.551	707.52	72.9158	707.52	73.629	707.52	73.2607	707.52	73.7822
732.422	83.6811	732.422	83.2069	732.422	83.8077	732.422	82.4251	732.422	83.7599	732.422	81.5273	732.422	83.63	732.422	80.5219	732.422	83.2919	732.422	79.3494	732.422	82.5953	732.422	78.4915	732.422	81.5923	732.422	78.5885	732.422	80.5012	732.422	79.1887	732.422	79.5958	732.422	79.6992	732.422	79.2973	732.422	79.8711	732.422	79.6237	732.422	79.378	732.422	79.9221	732.422	78.1659	732.422	79.7997	732.422	76.6199	732.422	79.1789	732.422	74.891	732.422	77.8926	732.422	72.9132	732.422	75.8208	732.422	71.2226	732.422	73.3754	732.422	70.5269	732.422	71.5328	732.422	70.6997
757.324	83.5023	757.324	83.0447	757.324	83.8644	757.324	82.4691	757.324	84.005	757.324	81.6383	757.324	83.8269	757.324	80.6103	757.324	83.3524	757.324	79.6978	757.324	82.6423	757.324	79.0737	757.324	81.6639	757.324	78.7852	757.324	80.3795	757.324	78.965	757.324	79.0783	757.324	79.5246	757.324	78.4519	757.324	80.1874	757.324	78.9815	757.324	80.4169	757.324	80.1611	757.324	79.7914	757.324	81.0547	757.324	78.8821	757.324	81.262	757.324	78.5354	757.324	80.9699	757.324	78.2067	757.324	80.4848	757.324	77.5572	757.324	79.8167	757.324	77.2966	757.324	78.882	757.324	77.8709
785.156	85.3338	785.156	85.0797	785.156	85.1722	785.156	84.3824	785.156	84.8028	785.156	83.3495	785.156	84.3725	785.156	81.8979	785.156	83.7836	785.156	79.9798	785.156	82.8132	785.156	78.3301	785.156	81.4287	785.156	77.8347	785.156	79.7018	785.156	78.4807	785.156	77.2535	785.156	80.016	785.156	73.6091	785.156	81.7459	785.156	70.8017	785.156	83.0753	785.156	74.1339	785.156	83.634	785.156	78.3813	785.156	83.4918	785.156	80.7923	785.156	83.3026	785.156	81.9244	785.156	83.3358	785.156	82.632	785.156	83.2152	785.156	82.9764	785.156	82.831	785.156	82.7944	785.156	82.5916
811.523	85.0844	811.523	84.8636	811.523	85.2161	811.523	84.4505	811.523	85.4161	811.523	83.7983	811.523	85.8672	811.523	83.118	811.523	86.4427	811.523	82.3924	811.523	86.7513	811.523	80.9169	811.523	86.6098	811.523	77.7892	811.523	86.0912	811.523	71.7882	811.523	85.0612	811.523	64.82	811.523	82.888	811.523	73.4531	811.523	78.704	811.523	78.2534	811.523	70.2076	811.523	80.5054	811.523	70.5707	811.523	81.5919	811.523	78.3035	811.523	82.7487	811.523	80.8663	811.523	83.7683	811.523	81.433	811.523	83.9137	811.523	81.7391	811.523	83.5307	811.523	82.4299	811.523	83.0772
840.82	81.0709	840.82	81.6058	840.82	80.6255	840.82	82.3159	840.82	80.0314	840.82	82.9793	840.82	79.1946	840.82	83.3976	840.82	78.4959	840.82	83.7051	840.82	78.7324	840.82	83.9118	840.82	79.879	840.82	83.6049	840.82	81.0059	840.82	82.5235	840.82	81.7891	840.82	80.7558	840.82	82.2507	840.82	78.2669	840.82	81.8431	840.82	73.7868	840.82	79.9477	840.82	62.3903	840.82	76.4136	840.82	67.7542	840.82	69.6546	840.82	72.6531	840.82	64.1122	840.82	75.4373	840.82	74.4968	840.82	78.0003	840.82	77.6477	840.82	79.4241	840.82	78.8032	840.82	79.4656
870.117	82.9473	870.117	82.6433	870.117	83.0632	870.117	81.9321	870.117	83.0268	870.117	81.0204	870.117	82.6322	870.117	80.3937	870.117	81.8807	870.117	80.037	870.117	81.1781	870.117	79.9295	870.117	81.0377	870.117	80.1434	870.117	81.3357	870.117	80.2733	870.117	81.6477	870.117	79.7297	870.117	81.7547	870.117	78.2736	870.117	81.366	870.117	76.162	870.117	80.0504	870.117	73.6948	870.117	77.459	870.117	73.0296	870.117	73.3622	870.117	75.1774	870.117	68.6345	870.117	77.1834	870.117	69.8491	870.117	78.2508	870.117	74.442	870.117	78.6646	870.117	77.5103	870.117	78.6558
900.879	84.6765	900.879	84.4582	900.879	84.6846	900.879	84.1223	900.879	84.3868	900.879	83.6933	900.879	83.7633	900.879	83.3045	900.879	82.9711	900.879	83.1491	900.879	82.1747	900.879	82.9792	900.879	81.3506	900.879	82.6095	900.879	80.6662	900.879	82.0606	900.879	80.5065	900.879	81.2989	900.879	80.5345	900.879	80.0948	900.879	80.0133	900.879	78.097	900.879	78.6026	900.879	75.6978	900.879	76.2503	900.879	72.8761	900.879	73.7636	900.879	71.0948	900.879	73.3266	900.879	73.7088	900.879	75.1402	900.879	76.3689	900.879	76.6087	900.879	77.8205	900.879	77.3585	900.879	77.9656
933.105	84.1603	933.105	83.689	933.105	84.4557	933.105	83.0121	933.105	84.511	933.105	82.3312	933.105	84.2381	933.105	81.7827	933.105	83.6773	933.105	81.3266	933.105	82.999	933.105	81.3016	933.105	82.5832	933.105	81.6215	933.105	82.418	933.105	81.7041	933.105	82.086	933.105	81.171	933.105	81.6583	933.105	80.0577	933.105	80.969	933.105	78.4813	933.105	79.371	933.105	75.6845	933.105	76.883	933.105	72.5035	933.105	73.704	933.105	73.7252	933.105	69.9445	933.105	75.8631	933.105	70.5335	933.105	77.2336	933.105	74.3868	933.105	78.0721	933.105	77.0981	933.105	78.2397
965.332	85.0022	965.332	84.9775	965.332	84.6491	965.332	84.6341	965.332	84.0611	965.332	83.775	965.332	83.3238	965.332	82.4878	965.332	82.2338	965.332	81.4867	965.332	80.9466	965.332	80.7391	965.332	79.896	965.332	80.0785	965.332	79.5548	965.332	79.8896	965.332	79.7558	965.332	79.9883	965.332	79.8065	965.332	79.6848	965.332	79.644	965.332	78.3778	965.332	78.9397	965.332	76.2035	965.332	77.3753	965.332	74.3048	965.332	75.0999	965.332	74.1363	965.332	73.2107	965.332	76.3693	965.332	75.3336	965.332	78.8007	965.332	78.0654	965.332	79.9825	965.332	79.3876	965.332	80.0053
1,000.49	85.3751	1,000.49	84.9887	1,000.49	85.4566	1,000.49	84.4322	1,000.49	85.1882	1,000.49	83.9389	1,000.49	84.6157	1,000.49	83.3436	1,000.49	83.7297	1,000.49	82.3256	1,000.49	82.3961	1,000.49	81.448	1,000.49	81.0128	1,000.49	81.2139	1,000.49	79.8513	1,000.49	81.309	1,000.49	79.2847	1,000.49	81.1752	1,000.49	80.1947	1,000.49	80.592	1,000.49	80.5199	1,000.49	79.2923	1,000.49	79.6267	1,000.49	77.1887	1,000.49	78.0484	1,000.49	73.3999	1,000.49	76.0056	1,000.49	69.4238	1,000.49	72.9921	1,000.49	72.7498	1,000.49	70.839	1,000.49	75.7458	1,000.49	74.6158	1,000.49	77.2905	1,000.49	77.0542	1,000.49	77.7512
1,035.64	84.8297	1,035.64	84.9402	1,035.64	84.5835	1,035.64	84.609	1,035.64	84.1799	1,035.64	83.7134	1,035.64	83.4494	1,035.64	82.4625	1,035.64	82.4862	1,035.64	81.2829	1,035.64	81.4475	1,035.64	79.9896	1,035.64	80.1692	1,035.64	78.0982	1,035.64	78.5686	1,035.64	76.1757	1,035.64	77.3607	1,035.64	75.7009	1,035.64	77.0714	1,035.64	76.0667	1,035.64	77.948	1,035.64	75.3657	1,035.64	78.4583	1,035.64	74.1897	1,035.64	77.1283	1,035.64	73.8531	1,035.64	74.1202	1,035.64	73.0243	1,035.64	70.5047	1,035.64	73.1607	1,035.64	69.1969	1,035.64	75.1984	1,035.64	71.785	1,035.64	76.8259	1,035.64	75.0291	1,035.64	76.9169
1,072.27	83.738	1,072.27	83.6724	1,072.27	84.1134	1,072.27	83.8717	1,072.27	84.4088	1,072.27	83.7368	1,072.27	84.4973	1,072.27	83.1401	1,072.27	84.2763	1,072.27	82.2857	1,072.27	83.4353	1,072.27	81.0608	1,072.27	81.9612	1,072.27	79.5347	1,072.27	80.5399	1,072.27	78.157	1,072.27	78.7786	1,072.27	77.4675	1,072.27	75.435	1,072.27	77.5349	1,072.27	73.5375	1,072.27	77.0138	1,072.27	73.8897	1,072.27	75.7825	1,072.27	74.8537	1,072.27	73.1758	1,072.27	75.4346	1,072.27	70.7853	1,072.27	72.8674	1,072.27	70.9515	1,072.27	69.2864	1,072.27	72.4648	1,072.27	67.8293	1,072.27	73.2281	1,072.27	69.8618	1,072.27	72.7061
1,108.89	84.0534	1,108.89	84.1251	1,108.89	83.5874	1,108.89	83.7569	1,108.89	83.114	1,108.89	83.1264	1,108.89	82.5609	1,108.89	82.1209	1,108.89	81.7151	1,108.89	80.9278	1,108.89	80.8585	1,108.89	79.8839	1,108.89	79.7967	1,108.89	78.4264	1,108.89	78.1092	1,108.89	77.3615	1,108.89	75.9339	1,108.89	76.6566	1,108.89	75.1114	1,108.89	76.2926	1,108.89	74.7016	1,108.89	76.7283	1,108.89	73.76	1,108.89	75.4893	1,108.89	72.8187	1,108.89	73.6927	1,108.89	70.7418	1,108.89	73.0994	1,108.89	70.2856	1,108.89	74.0365	1,108.89	69.985	1,108.89	75.8435	1,108.89	73.452	1,108.89	77.3056	1,108.89	76.0385	1,108.89	77.3664
1,148.44	82.652	1,148.44	82.4459	1,148.44	82.8871	1,148.44	82.4023	1,148.44	82.7159	1,148.44	81.9994	1,148.44	82.2666	1,148.44	81.207	1,148.44	81.7922	1,148.44	80.7794	1,148.44	80.8523	1,148.44	80.0917	1,148.44	79.7739	1,148.44	78.1985	1,148.44	78.5474	1,148.44	76.966	1,148.44	77.0805	1,148.44	76.009	1,148.44	75.9942	1,148.44	74.7163	1,148.44	75.3166	1,148.44	73.3361	1,148.44	75.2053	1,148.44	71.7918	1,148.44	74.0843	1,148.44	69.6619	1,148.44	73.4894	1,148.44	69.7244	1,148.44	72.0835	1,148.44	70.8711	1,148.44	69.4511	1,148.44	71.5347	1,148.44	70.1458	1,148.44	73.3063	1,148.44	73.4058	1,148.44	74.7487
1,189.45	84.2772	1,189.45	84.2074	1,189.45	83.8819	1,189.45	83.4797	1,189.45	83.1544	1,189.45	82.2775	1,189.45	82.0609	1,189.45	80.9035	1,189.45	80.72	1,189.45	78.8548	1,189.45	79.8622	1,189.45	76.8636	1,189.45	78.7736	1,189.45	76.8208	1,189.45	77.422	1,189.45	76.0621	1,189.45	77.7571	1,189.45	76.0648	1,189.45	77.591	1,189.45	75.3879	1,189.45	76.5027	1,189.45	72.9276	1,189.45	74.7001	1,189.45	69.5249	1,189.45	73.564	1,189.45	61.3364	1,189.45	70.6724	1,189.45	59.4895	1,189.45	67.3894	1,189.45	66.7517	1,189.45	68.7104	1,189.45	71.0685	1,189.45	71.3421	1,189.45	72.6201	1,189.45	72.5326	1,189.45	72.6378
1,230.47	83.4304	1,230.47	82.9455	1,230.47	83.4755	1,230.47	82.1571	1,230.47	83.3874	1,230.47	81.0851	1,230.47	82.9113	1,230.47	79.5111	1,230.47	82.0249	1,230.47	77.724	1,230.47	80.8847	1,230.47	76.1553	1,230.47	79.5843	1,230.47	75.4388	1,230.47	77.9132	1,230.47	75.8356	1,230.47	76.4599	1,230.47	76.3672	1,230.47	76.1727	1,230.47	76.1857	1,230.47	75.75	1,230.47	75.7479	1,230.47	76.0369	1,230.47	74.1314	1,230.47	74.8223	1,230.47	70.9876	1,230.47	72.2416	1,230.47	67.8895	1,230.47	69.4407	1,230.47	68.0893	1,230.47	65.8625	1,230.47	71.5743	1,230.47	68.748	1,230.47	73.5065	1,230.47	71.7424	1,230.47	73.1185
1,274.41	82.0383	1,274.41	82.2199	1,274.41	82.136	1,274.41	81.736	1,274.41	82.0739	1,274.41	80.6552	1,274.41	81.6549	1,274.41	79.914	1,274.41	81.1159	1,274.41	78.8508	1,274.41	80.1908	1,274.41	76.8625	1,274.41	79.2189	1,274.41	76.128	1,274.41	78.1713	1,274.41	75.8361	1,274.41	76.4427	1,274.41	75.3418	1,274.41	75.302	1,274.41	75.705	1,274.41	74.4836	1,274.41	76.1263	1,274.41	73.8067	1,274.41	75.1657	1,274.41	73.4785	1,274.41	71.5836	1,274.41	72.2327	1,274.41	65.5579	1,274.41	67.9926	1,274.41	63.1904	1,274.41	57.4271	1,274.41	70.6184	1,274.41	65.4562	1,274.41	72.2638	1,274.41	70.6495	1,274.41	72.37
1,319.82	82.6484	1,319.82	82.1996	1,319.82	82.717	1,319.82	81.5866	1,319.82	82.455	1,319.82	80.8814	1,319.82	82.062	1,319.82	80.2114	1,319.82	81.5288	1,319.82	79.3456	1,319.82	80.6254	1,319.82	78.4588	1,319.82	79.1115	1,319.82	76.0821	1,319.82	77.1829	1,319.82	73.4856	1,319.82	75.0899	1,319.82	74.057	1,319.82	74.2257	1,319.82	75.9042	1,319.82	73.512	1,319.82	76.9602	1,319.82	74.8145	1,319.82	75.7949	1,319.82	75.7981	1,319.82	72.8136	1,319.82	74.5675	1,319.82	67.2333	1,319.82	71.1298	1,319.82	67.7495	1,319.82	62.7565	1,319.82	71.304	1,319.82	65.0087	1,319.82	73.4396	1,319.82	71.33	1,319.82	73.6165
1,366.7	82.1623	1,366.7	81.8887	1,366.7	81.6664	1,366.7	81.366	1,366.7	81.2432	1,366.7	80.7057	1,366.7	80.5121	1,366.7	79.957	1,366.7	79.325	1,366.7	79.3419	1,366.7	78.8823	1,366.7	79.1314	1,366.7	78.6589	1,366.7	77.0682	1,366.7	78.6892	1,366.7	74.8713	1,366.7	76.5757	1,366.7	74.6468	1,366.7	74.8192	1,366.7	75.0189	1,366.7	75.1617	1,366.7	75.7881	1,366.7	75.2149	1,366.7	75.4781	1,366.7	76.049	1,366.7	73.0123	1,366.7	75.8215	1,366.7	66.6925	1,366.7	73.8507	1,366.7	56.8162	1,366.7	69.8493	1,366.7	66.3837	1,366.7	63.762	1,366.7	68.8942	1,366.7	68.0412	1,366.7	69.3283
1,413.57	82.5537	1,413.57	81.9402	1,413.57	82.694	1,413.57	81.6307	1,413.57	82.1203	1,413.57	81.2808	1,413.57	81.9015	1,413.57	80.951	1,413.57	80.9073	1,413.57	80.6462	1,413.57	79.5475	1,413.57	80.0298	1,413.57	78.1245	1,413.57	77.9703	1,413.57	77.1228	1,413.57	75.0034	1,413.57	76.203	1,413.57	72.3879	1,413.57	75.1767	1,413.57	72.4852	1,413.57	73.0991	1,413.57	73.9419	1,413.57	71.8596	1,413.57	74.3891	1,413.57	72.7235	1,413.57	73.0176	1,413.57	72.3544	1,413.57	70.3897	1,413.57	69.9199	1,413.57	66.1325	1,413.57	66.5586	1,413.57	66.7198	1,413.57	60.6872	1,413.57	67.3981	1,413.57	64.9645	1,413.57	67.8501
1,463.38	83.6198	1,463.38	83.3062	1,463.38	83.7571	1,463.38	83.1556	1,463.38	83.3076	1,463.38	82.1792	1,463.38	82.5499	1,463.38	81.1983	1,463.38	81.4576	1,463.38	80.5649	1,463.38	79.8979	1,463.38	78.3912	1,463.38	78.5532	1,463.38	75.9336	1,463.38	76.9807	1,463.38	73.4114	1,463.38	76.516	1,463.38	72.18	1,463.38	75.0962	1,463.38	72.7263	1,463.38	73.3809	1,463.38	73.6099	1,463.38	72.0506	1,463.38	74.5733	1,463.38	72.7749	1,463.38	74.457	1,463.38	72.4474	1,463.38	71.7869	1,463.38	71.4004	1,463.38	68.8035	1,463.38	69.8715	1,463.38	67.9537	1,463.38	63.5032	1,463.38	68.0849	1,463.38	65.0135	1,463.38	65.5006
1,516.11	84.0469	1,516.11	84.0659	1,516.11	83.5441	1,516.11	83.6203	1,516.11	83.0707	1,516.11	82.9036	1,516.11	82.1088	1,516.11	81.0505	1,516.11	81.2633	1,516.11	79.525	1,516.11	79.6379	1,516.11	78.3527	1,516.11	77.9313	1,516.11	75.9957	1,516.11	75.3661	1,516.11	72.9567	1,516.11	75.3178	1,516.11	70.3502	1,516.11	74.1062	1,516.11	71.4159	1,516.11	73.3667	1,516.11	72.3612	1,516.11	73.0218	1,516.11	73.3939	1,516.11	70.4058	1,516.11	72.8305	1,516.11	71.8636	1,516.11	71.5747	1,516.11	71.1739	1,516.11	70.4283	1,516.11	71.2056	1,516.11	72.1567	1,516.11	71.1102	1,516.11	73.8002	1,516.11	70.3734	1,516.11	72.6616
1,568.85	83.193	1,568.85	83.0105	1,568.85	83.2438	1,568.85	82.18	1,568.85	82.673	1,568.85	81.6584	1,568.85	81.7236	1,568.85	80.2737	1,568.85	81.2551	1,568.85	79.3082	1,568.85	80.4573	1,568.85	77.5479	1,568.85	79.7162	1,568.85	76.3244	1,568.85	78.7275	1,568.85	75.6556	1,568.85	76.2884	1,568.85	72.6826	1,568.85	74.0765	1,568.85	71.2265	1,568.85	73.1747	1,568.85	72.2287	1,568.85	70.9588	1,568.85	71.4229	1,568.85	69.6279	1,568.85	68.5157	1,568.85	68.511	1,568.85	67.627	1,568.85	69.1551	1,568.85	67.4695	1,568.85	69.0233	1,568.85	68.7474	1,568.85	66.7627	1,568.85	70.0873	1,568.85	68.1768	1,568.85	71.1488
1,624.51	82.9899	1,624.51	82.6805	1,624.51	83.5652	1,624.51	81.3328	1,624.51	83.4029	1,624.51	80.2672	1,624.51	82.9627	1,624.51	78.8022	1,624.51	82.255	1,624.51	77.7641	1,624.51	81.0571	1,624.51	76.4395	1,624.51	79.618	1,624.51	77.7131	1,624.51	77.6813	1,624.51	75.4685	1,624.51	75.8024	1,624.51	73.0733	1,624.51	74.432	1,624.51	69.3776	1,624.51	72.983	1,624.51	69.1901	1,624.51	72.391	1,624.51	72.0128	1,624.51	70.5015	1,624.51	70.005	1,624.51	70.0093	1,624.51	68.0294	1,624.51	69.4159	1,624.51	64.5816	1,624.51	66.2039	1,624.51	66.7721	1,624.51	68.2499	1,624.51	69.4646	1,624.51	67.7106	1,624.51	70.4617
1,681.64	83.7051	1,681.64	83.6919	1,681.64	83.84	1,681.64	82.5467	1,681.64	83.5981	1,681.64	81.9989	1,681.64	83.1404	1,681.64	80.1817	1,681.64	83.2542	1,681.64	77.4979	1,681.64	82.1813	1,681.64	76.732	1,681.64	80.3877	1,681.64	77.959	1,681.64	78.6624	1,681.64	77.757	1,681.64	76.8427	1,681.64	75.0004	1,681.64	74.9117	1,681.64	71.6463	1,681.64	73.1989	1,681.64	68.8353	1,681.64	73.0105	1,681.64	69.5493	1,681.64	74.2176	1,681.64	68.9242	1,681.64	72.976	1,681.64	70.8651	1,681.64	69.8033	1,681.64	70.0713	1,681.64	67.8999	1,681.64	72.0979	1,681.64	69.5493	1,681.64	74.0988	1,681.64	73.2659	1,681.64	72.7423
1,741.7	83.9862	1,741.7	83.9403	1,741.7	84.5602	1,741.7	83.5486	1,741.7	84.0009	1,741.7	82.8165	1,741.7	83.2844	1,741.7	81.5702	1,741.7	82.5572	1,741.7	79.707	1,741.7	81.1896	1,741.7	77.3511	1,741.7	80.7004	1,741.7	76.3464	1,741.7	79.0215	1,741.7	75.7285	1,741.7	77.0083	1,741.7	74.8451	1,741.7	74.609	1,741.7	74.2772	1,741.7	66.4779	1,741.7	73.4706	1,741.7	72.7249	1,741.7	70.5428	1,741.7	73.5112	1,741.7	72.675	1,741.7	71.2323	1,741.7	71.7861	1,741.7	70.7423	1,741.7	73.0541	1,741.7	68.3742	1,741.7	72.7802	1,741.7	61.7602	1,741.7	73.329	1,741.7	70.7983	1,741.7	73.5419
1,803.22	84.265	1,803.22	84.2107	1,803.22	84.429	1,803.22	83.4411	1,803.22	83.6544	1,803.22	82.9824	1,803.22	82.8727	1,803.22	81.7108	1,803.22	81.3026	1,803.22	80.3432	1,803.22	80.3481	1,803.22	78.3166	1,803.22	79.1776	1,803.22	76.1775	1,803.22	77.9021	1,803.22	75.3959	1,803.22	76.6654	1,803.22	74.1965	1,803.22	74.5003	1,803.22	72.7619	1,803.22	71.7782	1,803.22	70.9338	1,803.22	71.646	1,803.22	69.4927	1,803.22	72.3659	1,803.22	69.435	1,803.22	72.8597	1,803.22	67.2054	1,803.22	69.1592	1,803.22	64.2821	1,803.22	61.1842	1,803.22	68.2136	1,803.22	62.4242	1,803.22	71.8456	1,803.22	71.4258	1,803.22	72.8254
1,866.21	84.0477	1,866.21	83.5	1,866.21	83.7977	1,866.21	82.7813	1,866.21	83.1106	1,866.21	81.8513	1,866.21	82.141	1,866.21	80.3857	1,866.21	80.4229	1,866.21	79.5483	1,866.21	79.4192	1,866.21	78.1091	1,866.21	77.9451	1,866.21	76.3736	1,866.21	77.1162	1,866.21	74.6813	1,866.21	76.0601	1,866.21	73.0951	1,866.21	74.0077	1,866.21	71.794	1,866.21	70.6001	1,866.21	70.8608	1,866.21	68.9961	1,866.21	70.1601	1,866.21	71.4523	1,866.21	70.5978	1,866.21	72.717	1,866.21	67.3603	1,866.21	70.3617	1,866.21	63.8926	1,866.21	64.0395	1,866.21	68.644	1,866.21	53.4155	1,866.21	71.849	1,866.21	66.6098	1,866.21	71.5634
1,932.13	83.7238	1,932.13	83.0969	1,932.13	83.67	1,932.13	81.9694	1,932.13	83.1138	1,932.13	81.1698	1,932.13	82.3111	1,932.13	79.5175	1,932.13	80.7212	1,932.13	77.903	1,932.13	79.2238	1,932.13	76.4533	1,932.13	77.5326	1,932.13	74.8334	1,932.13	76.1948	1,932.13	73.8641	1,932.13	75.7139	1,932.13	72.4208	1,932.13	73.669	1,932.13	70.0598	1,932.13	72.7899	1,932.13	68.3822	1,932.13	69.7231	1,932.13	68.761	1,932.13	69.7369	1,932.13	68.0624	1,932.13	71.2789	1,932.13	65.2497	1,932.13	71.1111	1,932.13	62.6025	1,932.13	66.8946	1,932.13	67.4889	1,932.13	52.4266	1,932.13	70.8951	1,932.13	67.7141	1,932.13	69.2763
1,999.51	83.736	1,999.51	83.605	1,999.51	84.3035	1,999.51	82.6977	1,999.51	83.7907	1,999.51	81.0122	1,999.51	83.1301	1,999.51	79.8448	1,999.51	81.9082	1,999.51	77.4767	1,999.51	80.3113	1,999.51	76.2267	1,999.51	78.4219	1,999.51	74.2231	1,999.51	76.6127	1,999.51	74.8267	1,999.51	75.4585	1,999.51	73.2124	1,999.51	74.7502	1,999.51	70.3368	1,999.51	73.6816	1,999.51	67.7311	1,999.51	70.2509	1,999.51	66.7236	1,999.51	69.1152	1,999.51	69.4445	1,999.51	70.0767	1,999.51	66.2029	1,999.51	69.9401	1,999.51	60.9263	1,999.51	67.3451	1,999.51	65.1046	1,999.51	58.5341	1,999.51	69.4583	1,999.51	64.2609	1,999.51	69.6808
2,069.82	84.4987	2,069.82	84.283	2,069.82	84.2488	2,069.82	83.147	2,069.82	84.2872	2,069.82	81.9883	2,069.82	83.4245	2,069.82	80.1663	2,069.82	82.7812	2,069.82	78.6264	2,069.82	80.9484	2,069.82	75.8331	2,069.82	79.3549	2,069.82	74.2647	2,069.82	76.8383	2,069.82	71.488	2,069.82	75.6105	2,069.82	70.0641	2,069.82	74.6818	2,069.82	71.8135	2,069.82	73.879	2,069.82	69.1353	2,069.82	71.893	2,069.82	68.1983	2,069.82	69.5568	2,069.82	67.6338	2,069.82	70.0864	2,069.82	66.1463	2,069.82	69.6978	2,069.82	52.3688	2,069.82	68.4217	2,069.82	63.8868	2,069.82	61.4977	2,069.82	68.4165	2,069.82	65.4756	2,069.82	69.7549
2,143.07	84.5728	2,143.07	84.0566	2,143.07	84.502	2,143.07	83.3007	2,143.07	84.2236	2,143.07	81.8316	2,143.07	83.3738	2,143.07	80.594	2,143.07	82.1926	2,143.07	79.0422	2,143.07	80.7302	2,143.07	77.5877	2,143.07	79.2075	2,143.07	75.1305	2,143.07	77.5497	2,143.07	72.9374	2,143.07	75.076	2,143.07	72.1043	2,143.07	73.6402	2,143.07	71.2599	2,143.07	73.1805	2,143.07	70.1041	2,143.07	71.8412	2,143.07	68.2646	2,143.07	70.7046	2,143.07	67.0353	2,143.07	69.6631	2,143.07	66.7667	2,143.07	70.3786	2,143.07	62.6925	2,143.07	64.6487	2,143.07	61.7074	2,143.07	59.9553	2,143.07	69.0565	2,143.07	66.3121	2,143.07	70.6724
2,219.24	84.2329	2,219.24	84.0046	2,219.24	83.6187	2,219.24	82.9532	2,219.24	83.5444	2,219.24	81.8073	2,219.24	82.1742	2,219.24	80.4286	2,219.24	81.5625	2,219.24	78.5879	2,219.24	79.6988	2,219.24	77.0352	2,219.24	78.276	2,219.24	75.7946	2,219.24	76.157	2,219.24	73.7244	2,219.24	73.896	2,219.24	70.8858	2,219.24	72.6521	2,219.24	70.2535	2,219.24	71.6855	2,219.24	69.8225	2,219.24	68.8083	2,219.24	70.727	2,219.24	67.3096	2,219.24	68.6012	2,219.24	68.3926	2,219.24	65.96	2,219.24	69.2039	2,219.24	58.0698	2,219.24	65.8727	2,219.24	62.6895	2,219.24	52.0046	2,219.24	68.2965	2,219.24	63.6541	2,219.24	68.075
2,296.88	82.6812	2,296.88	82.4646	2,296.88	82.6367	2,296.88	81.8614	2,296.88	81.9809	2,296.88	80.1272	2,296.88	81.3511	2,296.88	79.3223	2,296.88	79.9382	2,296.88	78.1448	2,296.88	78.8722	2,296.88	77.5359	2,296.88	77.3049	2,296.88	75.7666	2,296.88	75.9472	2,296.88	76.3839	2,296.88	73.8713	2,296.88	72.4684	2,296.88	73.2757	2,296.88	70.5794	2,296.88	69.9003	2,296.88	70.7912	2,296.88	68.909	2,296.88	68.1935	2,296.88	66.8357	2,296.88	67.0569	2,296.88	66.0029	2,296.88	67.5458	2,296.88	69.1138	2,296.88	63.0338	2,296.88	66.8088	2,296.88	57.0784	2,296.88	64.1769	2,296.88	63.8471	2,296.88	57.0267	2,296.88	65.9375
2,378.91	82.8702	2,378.91	82.4317	2,378.91	83.1201	2,378.91	81.456	2,378.91	82.575	2,378.91	80.5302	2,378.91	81.985	2,378.91	78.6068	2,378.91	80.4168	2,378.91	76.31	2,378.91	79.5786	2,378.91	74.8156	2,378.91	77.698	2,378.91	73.6355	2,378.91	76.484	2,378.91	71.4031	2,378.91	76.0168	2,378.91	72.4355	2,378.91	73.6535	2,378.91	70.951	2,378.91	70.9187	2,378.91	67.0982	2,378.91	68.9495	2,378.91	65.7687	2,378.91	69.4949	2,378.91	66.5589	2,378.91	67.5487	2,378.91	66.8959	2,378.91	70.0945	2,378.91	61.0125	2,378.91	68.2247	2,378.91	61.4591	2,378.91	63.5621	2,378.91	65.7943	2,378.91	62.6444	2,378.91	64.33
2,462.4	84.5813	2,462.4	84.1171	2,462.4	84.8135	2,462.4	83.6495	2,462.4	84.4392	2,462.4	82.1119	2,462.4	83.4609	2,462.4	80.25	2,462.4	82.2996	2,462.4	78.7814	2,462.4	80.7981	2,462.4	77.1911	2,462.4	79.0339	2,462.4	75.1894	2,462.4	77.6311	2,462.4	73.4789	2,462.4	76.1787	2,462.4	70.8961	2,462.4	75.5174	2,462.4	70.0887	2,462.4	73.0483	2,462.4	68.157	2,462.4	70.0619	2,462.4	66.9031	2,462.4	67.4483	2,462.4	69.3208	2,462.4	69.9683	2,462.4	67.713	2,462.4	71.0521	2,462.4	61.9728	2,462.4	70.6977	2,462.4	61.3672	2,462.4	58.1123	2,462.4	66.5473	2,462.4	62.0947	2,462.4	65.6736
2,548.83	85.5142	2,548.83	85.1736	2,548.83	85.6372	2,548.83	83.9653	2,548.83	84.993	2,548.83	83.1832	2,548.83	84.0106	2,548.83	81.1713	2,548.83	82.6993	2,548.83	80.3993	2,548.83	81.1133	2,548.83	78.1155	2,548.83	79.1658	2,548.83	77.0826	2,548.83	77.5093	2,548.83	73.849	2,548.83	75.4041	2,548.83	71.9528	2,548.83	75.4619	2,548.83	70.9673	2,548.83	73.9955	2,548.83	70.4408	2,548.83	72.5369	2,548.83	66.6326	2,548.83	68.0385	2,548.83	69.127	2,548.83	68.3047	2,548.83	70.5891	2,548.83	70.7203	2,548.83	66.3764	2,548.83	70.2527	2,548.83	50.7728	2,548.83	61.2838	2,548.83	67.1513	2,548.83	58.8797	2,548.83	67.407
2,639.65	84.9653	2,639.65	84.4865	2,639.65	84.3859	2,639.65	83.4212	2,639.65	84.0787	2,639.65	83.0631	2,639.65	82.7433	2,639.65	81.6833	2,639.65	81.6148	2,639.65	79.0525	2,639.65	80.2222	2,639.65	77.6026	2,639.65	79.3221	2,639.65	76.2209	2,639.65	76.4463	2,639.65	72.7462	2,639.65	74.3665	2,639.65	71.8287	2,639.65	72.2653	2,639.65	70.7973	2,639.65	73.0445	2,639.65	70.6395	2,639.65	72.4252	2,639.65	70.2796	2,639.65	69.4239	2,639.65	69.7719	2,639.65	67.1956	2,639.65	70.3462	2,639.65	66.1843	2,639.65	65.4674	2,639.65	68.6688	2,639.65	60.742	2,639.65	62.4979	2,639.65	68.0381	2,639.65	53.6313	2,639.65	67.8354
2,731.93	83.7948	2,731.93	82.9636	2,731.93	84.0672	2,731.93	82.4419	2,731.93	82.7917	2,731.93	81.4508	2,731.93	82.1737	2,731.93	80.4021	2,731.93	80.791	2,731.93	78.8974	2,731.93	79.9574	2,731.93	77.464	2,731.93	78.1824	2,731.93	75.0748	2,731.93	76.561	2,731.93	74.1485	2,731.93	74.4602	2,731.93	71.0802	2,731.93	73.0268	2,731.93	69.6024	2,731.93	71.1982	2,731.93	70.3045	2,731.93	71.5979	2,731.93	68.118	2,731.93	70.1509	2,731.93	67.7337	2,731.93	67.5788	2,731.93	67.7029	2,731.93	66.8088	2,731.93	59.8992	2,731.93	68.765	2,731.93	57.378	2,731.93	66.1423	2,731.93	62.1762	2,731.93	39.9252	2,731.93	65.6238
2,828.61	83.6325	2,828.61	83.0789	2,828.61	84.6872	2,828.61	82.7156	2,828.61	82.9984	2,828.61	80.9409	2,828.61	82.7611	2,828.61	80.1538	2,828.61	81.3755	2,828.61	78.7828	2,828.61	80.2893	2,828.61	77.7028	2,828.61	78.0315	2,828.61	74.0781	2,828.61	77.3952	2,828.61	75.9677	2,828.61	75.073	2,828.61	71.9184	2,828.61	74.2162	2,828.61	70.877	2,828.61	71.4728	2,828.61	70.4666	2,828.61	69.8763	2,828.61	68.6555	2,828.61	71.0072	2,828.61	65.029	2,828.61	68.0047	2,828.61	67.574	2,828.61	67.4692	2,828.61	65.7044	2,828.61	67.3811	2,828.61	60.2936	2,828.61	65.8089	2,828.61	65.6362	2,828.61	61.3618	2,828.61	66.1705
2,928.22	84.7061	2,928.22	84.6394	2,928.22	84.7718	2,928.22	83.57	2,928.22	84.3265	2,928.22	82.5831	2,928.22	83.6386	2,928.22	80.9652	2,928.22	82.4816	2,928.22	80.6177	2,928.22	81.1834	2,928.22	78.1626	2,928.22	78.5156	2,928.22	76.313	2,928.22	77.1375	2,928.22	76	2,928.22	75.6357	2,928.22	73.1182	2,928.22	74.6695	2,928.22	70.2825	2,928.22	72.17	2,928.22	70.7971	2,928.22	70.8104	2,928.22	70.4166	2,928.22	70.6654	2,928.22	67.3901	2,928.22	68.1446	2,928.22	68.057	2,928.22	68.5762	2,928.22	65.478	2,928.22	69.1963	2,928.22	58.312	2,928.22	65.52	2,928.22	65.019	2,928.22	59.3002	2,928.22	63.7489
3,030.76	85.0862	3,030.76	84.5748	3,030.76	84.5496	3,030.76	83.9492	3,030.76	84.8373	3,030.76	83.0528	3,030.76	83.8319	3,030.76	81.9832	3,030.76	82.6536	3,030.76	80.6525	3,030.76	81.1251	3,030.76	77.9686	3,030.76	79.6759	3,030.76	77.0066	3,030.76	77.5568	3,030.76	74.7717	3,030.76	75.9334	3,030.76	73.9076	3,030.76	73.2447	3,030.76	70.8048	3,030.76	73.2352	3,030.76	68.7204	3,030.76	70.8877	3,030.76	68.3814	3,030.76	71.3325	3,030.76	67.8652	3,030.76	69.4816	3,030.76	69.6476	3,030.76	67.4556	3,030.76	68.1677	3,030.76	69.177	3,030.76	49.7561	3,030.76	67.1505	3,030.76	67.6913	3,030.76	55.6451	3,030.76	65.3337
3,137.7	84.7506	3,137.7	84.5464	3,137.7	85.1834	3,137.7	83.8698	3,137.7	84.73	3,137.7	82.5636	3,137.7	83.67	3,137.7	81.2431	3,137.7	82.5914	3,137.7	80.0039	3,137.7	80.8927	3,137.7	77.6892	3,137.7	79.6756	3,137.7	75.7944	3,137.7	77.5515	3,137.7	74.5877	3,137.7	76.3104	3,137.7	73.7746	3,137.7	73.2258	3,137.7	69.8329	3,137.7	73.2738	3,137.7	69.4227	3,137.7	69.8751	3,137.7	67.8951	3,137.7	68.1732	3,137.7	68.669	3,137.7	69.5439	3,137.7	68.0545	3,137.7	68.3628	3,137.7	68.9844	3,137.7	67.3637	3,137.7	59.7295	3,137.7	67.2851	3,137.7	64.8156	3,137.7	60.8851	3,137.7	64.6177
3,249.02	84.299	3,249.02	84.3704	3,249.02	83.8844	3,249.02	83.4617	3,249.02	84.2306	3,249.02	82.6741	3,249.02	83.1666	3,249.02	80.7923	3,249.02	82.5732	3,249.02	79.3367	3,249.02	80.7644	3,249.02	77.8394	3,249.02	79.4488	3,249.02	76.3289	3,249.02	77.0124	3,249.02	72.935	3,249.02	74.9291	3,249.02	73.0687	3,249.02	72.4801	3,249.02	70.3394	3,249.02	70.9833	3,249.02	66.079	3,249.02	69.5041	3,249.02	68.9674	3,249.02	66.8474	3,249.02	68.5334	3,249.02	66.8774	3,249.02	66.902	3,249.02	67.8404	3,249.02	63.9918	3,249.02	66.9806	3,249.02	59.987	3,249.02	64.6946	3,249.02	67.0203	3,249.02	58.8506	3,249.02	65.4749
3,363.28	83.6539	3,363.28	83.3424	3,363.28	83.2379	3,363.28	82.477	3,363.28	83.5616	3,363.28	81.933	3,363.28	82.7961	3,363.28	80.2369	3,363.28	82.1764	3,363.28	77.7902	3,363.28	80.5401	3,363.28	76.0428	3,363.28	78.8591	3,363.28	74.6398	3,363.28	76.0797	3,363.28	70.8792	3,363.28	74.6494	3,363.28	71.4046	3,363.28	72.1668	3,363.28	70.0062	3,363.28	70.2761	3,363.28	65.7941	3,363.28	68.5584	3,363.28	66.0996	3,363.28	66.6354	3,363.28	63.7588	3,363.28	67.2933	3,363.28	65.8297	3,363.28	62.9149	3,363.28	63.3989	3,363.28	65.8328	3,363.28	54.2062	3,363.28	63.5006	3,363.28	63.2523	3,363.28	47.9524	3,363.28	64.0955
3,481.93	83.9893	3,481.93	83.8688	3,481.93	83.9411	3,481.93	83.0589	3,481.93	83.7983	3,481.93	81.9404	3,481.93	83.1918	3,481.93	80.9832	3,481.93	81.8762	3,481.93	77.7974	3,481.93	80.1617	3,481.93	76.0623	3,481.93	78.5012	3,481.93	74.3871	3,481.93	75.8206	3,481.93	70.4064	3,481.93	73.8819	3,481.93	70.298	3,481.93	71.2205	3,481.93	70.1236	3,481.93	70.2941	3,481.93	67.679	3,481.93	66.9689	3,481.93	65.1906	3,481.93	65.9841	3,481.93	62.6568	3,481.93	67.3936	3,481.93	65.2623	3,481.93	62.0455	3,481.93	64.2849	3,481.93	65.3872	3,481.93	39.9741	3,481.93	62.4892	3,481.93	61.0292	3,481.93	48.1102	3,481.93	63.4891
3,604.98	84.4958	3,604.98	83.989	3,604.98	85.0144	3,604.98	83.437	3,604.98	83.6083	3,604.98	82.3907	3,604.98	83.3377	3,604.98	80.8445	3,604.98	81.7261	3,604.98	77.8287	3,604.98	80.3342	3,604.98	75.9271	3,604.98	78.5538	3,604.98	73.7107	3,604.98	76.6351	3,604.98	71.2085	3,604.98	74.1393	3,604.98	69.9156	3,604.98	72.2916	3,604.98	68.8582	3,604.98	70.0715	3,604.98	68.8563	3,604.98	68.09	3,604.98	65.9422	3,604.98	66.1139	3,604.98	64.7305	3,604.98	64.9938	3,604.98	65.8257	3,604.98	65.6349	3,604.98	64.6033	3,604.98	65.151	3,604.98	53.3093	3,604.98	63.4725	3,604.98	61.5591	3,604.98	53.5795	3,604.98	64.645
3,732.42	84.8875	3,732.42	84.4708	3,732.42	85.253	3,732.42	83.4729	3,732.42	84.1602	3,732.42	82.2303	3,732.42	83.3281	3,732.42	80.1368	3,732.42	82.4258	3,732.42	78.1216	3,732.42	81.0788	3,732.42	76.4854	3,732.42	79.2349	3,732.42	72.4018	3,732.42	76.5767	3,732.42	72.3262	3,732.42	74.5753	3,732.42	68.4188	3,732.42	72.2987	3,732.42	68.0804	3,732.42	69.733	3,732.42	68.4624	3,732.42	69.4807	3,732.42	66.5277	3,732.42	64.755	3,732.42	65.2262	3,732.42	63.5399	3,732.42	65.043	3,732.42	67.6345	3,732.42	67.1095	3,732.42	65.4697	3,732.42	59.4218	3,732.42	64.642	3,732.42	60.2911	3,732.42	56.1593	3,732.42	66.1366
3,864.26	84.9939	3,864.26	84.4596	3,864.26	85.4527	3,864.26	83.795	3,864.26	84.2889	3,864.26	82.4836	3,864.26	83.0923	3,864.26	80.1256	3,864.26	81.5727	3,864.26	78.3378	3,864.26	79.6492	3,864.26	76.1261	3,864.26	77.926	3,864.26	73.6432	3,864.26	76.1236	3,864.26	72.5946	3,864.26	72.4654	3,864.26	69.4448	3,864.26	70.027	3,864.26	69.6306	3,864.26	68.1416	3,864.26	65.1701	3,864.26	67.9662	3,864.26	66.8633	3,864.26	64.2473	3,864.26	65.8155	3,864.26	63.9867	3,864.26	62.6133	3,864.26	65.2268	3,864.26	67.8449	3,864.26	63.2474	3,864.26	61.4979	3,864.26	64.6938	3,864.26	58.613	3,864.26	52.2628	3,864.26	63.5611
4,000.49	84.0498	4,000.49	83.422	4,000.49	84.1354	4,000.49	82.3873	4,000.49	83.6292	4,000.49	80.6144	4,000.49	82.6149	4,000.49	78.8472	4,000.49	81.4223	4,000.49	77.4944	4,000.49	79.2647	4,000.49	75.0676	4,000.49	76.034	4,000.49	73.6699	4,000.49	74.247	4,000.49	71.4185	4,000.49	72.8111	4,000.49	67.863	4,000.49	70.9546	4,000.49	67.4457	4,000.49	68.5297	4,000.49	65.2709	4,000.49	66.8556	4,000.49	65.7883	4,000.49	65.7137	4,000.49	65.6087	4,000.49	64.9008	4,000.49	62.2306	4,000.49	61.9569	4,000.49	65.8768	4,000.49	61.0867	4,000.49	59.7826	4,000.49	66.2591	4,000.49	61.8142	4,000.49	50.9358	4,000.49	59.5259
4,141.11	85.008	4,141.11	84.3827	4,141.11	84.8632	4,141.11	83.8799	4,141.11	84.65	4,141.11	81.9345	4,141.11	83.4927	4,141.11	79.8913	4,141.11	81.803	4,141.11	78.3813	4,141.11	79.809	4,141.11	75.0305	4,141.11	76.8214	4,141.11	73.7935	4,141.11	74.9228	4,141.11	71.0557	4,141.11	71.3621	4,141.11	69.8384	4,141.11	70.0205	4,141.11	66.012	4,141.11	68.3939	4,141.11	65.6691	4,141.11	66.5633	4,141.11	64.8425	4,141.11	66.9217	4,141.11	64.6699	4,141.11	62.2456	4,141.11	62.0587	4,141.11	62.8894	4,141.11	64.7485	4,141.11	63.8463	4,141.11	60.5623	4,141.11	64.0847	4,141.11	58.2144	4,141.11	38.6436	4,141.11	59.4853
4,287.6	85.0465	4,287.6	85.1588	4,287.6	84.6058	4,287.6	83.8241	4,287.6	84.6791	4,287.6	81.9983	4,287.6	83.4685	4,287.6	80.6332	4,287.6	82.0571	4,287.6	78.0432	4,287.6	79.8907	4,287.6	74.9467	4,287.6	76.0111	4,287.6	73.9135	4,287.6	75.1223	4,287.6	70.7535	4,287.6	71.2287	4,287.6	71.772	4,287.6	72.1613	4,287.6	67.2959	4,287.6	68.2996	4,287.6	66.2183	4,287.6	67.1683	4,287.6	63.5804	4,287.6	66.8735	4,287.6	65.8162	4,287.6	60.744	4,287.6	61.3738	4,287.6	64.9005	4,287.6	64.7024	4,287.6	63.4888	4,287.6	61.3325	4,287.6	64.7327	4,287.6	59.9223	4,287.6	58.823	4,287.6	56.3086
4,438.48	85.4285	4,438.48	85.2908	4,438.48	85.2201	4,438.48	84.0658	4,438.48	84.8719	4,438.48	82.916	4,438.48	83.7958	4,438.48	81.4897	4,438.48	81.5912	4,438.48	78.6294	4,438.48	79.4859	4,438.48	74.93	4,438.48	77.0227	4,438.48	71.6639	4,438.48	73.7597	4,438.48	69.59	4,438.48	72.9147	4,438.48	69.1009	4,438.48	71.8441	4,438.48	66.1541	4,438.48	69.3854	4,438.48	65.8411	4,438.48	68.3802	4,438.48	64.2421	4,438.48	67.03	4,438.48	61.8316	4,438.48	63.8318	4,438.48	61.3224	4,438.48	65.4695	4,438.48	64.3914	4,438.48	63.6433	4,438.48	59.1849	4,438.48	64.8976	4,438.48	55.9106	4,438.48	61.2036	4,438.48	59.7783
4,595.21	85.2222	4,595.21	84.6312	4,595.21	85.4041	4,595.21	84.1723	4,595.21	83.9287	4,595.21	82.5372	4,595.21	82.9113	4,595.21	80.1335	4,595.21	80.8433	4,595.21	77.6876	4,595.21	78.1504	4,595.21	75.2344	4,595.21	77.6169	4,595.21	73.3785	4,595.21	75.7005	4,595.21	72.4347	4,595.21	72.1934	4,595.21	68.1735	4,595.21	69.6811	4,595.21	67.3685	4,595.21	67.3479	4,595.21	67.2388	4,595.21	66.8156	4,595.21	60.6792	4,595.21	67.6618	4,595.21	66.3509	4,595.21	63.9989	4,595.21	63.1034	4,595.21	65.0134	4,595.21	63.7808	4,595.21	59.3627	4,595.21	62	4,595.21	63.6719	4,595.21	52.3597	4,595.21	59.1103	4,595.21	58.4805
4,756.35	85.0603	4,756.35	84.3789	4,756.35	85.0295	4,756.35	84.0916	4,756.35	84.2818	4,756.35	81.8293	4,756.35	82.5314	4,756.35	78.0642	4,756.35	81.499	4,756.35	75.0604	4,756.35	79.5281	4,756.35	73.92	4,756.35	77.3235	4,756.35	73.6526	4,756.35	74.0414	4,756.35	71.4144	4,756.35	72.9095	4,756.35	69.1673	4,756.35	70.6284	4,756.35	65.4938	4,756.35	68.599	4,756.35	66.9112	4,756.35	67.4838	4,756.35	63.5938	4,756.35	65.6727	4,756.35	67.2695	4,756.35	65.4607	4,756.35	64.3774	4,756.35	63.9252	4,756.35	63.9981	4,756.35	62.0229	4,756.35	62.0884	4,756.35	62.7064	4,756.35	53.5855	4,756.35	61.6376	4,756.35	56.4382
4,924.8	84.2014	4,924.8	84.4218	4,924.8	84.21	4,924.8	82.4397	4,924.8	83.9031	4,924.8	81.4592	4,924.8	82.0156	4,924.8	79.0134	4,924.8	81.2983	4,924.8	76.1051	4,924.8	79.793	4,924.8	74.2684	4,924.8	76.9609	4,924.8	72.6474	4,924.8	73.5709	4,924.8	68.6336	4,924.8	71.266	4,924.8	67.604	4,924.8	69.4947	4,924.8	64.4184	4,924.8	68.5208	4,924.8	63.9574	4,924.8	68.6764	4,924.8	62.6368	4,924.8	63.7871	4,924.8	61.3349	4,924.8	65.2152	4,924.8	63.2073	4,924.8	61.8565	4,924.8	58.4388	4,924.8	62.1504	4,924.8	63.8621	4,924.8	61.7022	4,924.8	52.4051	4,924.8	60.0273	4,924.8	56.9212
5,097.66	81.7934	5,097.66	81.6771	5,097.66	82.4181	5,097.66	79.4291	5,097.66	82.3764	5,097.66	78.7088	5,097.66	81.2502	5,097.66	77.3941	5,097.66	79.637	5,097.66	75.9279	5,097.66	77.6498	5,097.66	73.6412	5,097.66	75.1698	5,097.66	71.2593	5,097.66	72.6298	5,097.66	68.401	5,097.66	70.918	5,097.66	67.2152	5,097.66	68.6672	5,097.66	69.0228	5,097.66	67.501	5,097.66	65.3877	5,097.66	64.9868	5,097.66	62.7538	5,097.66	64.3432	5,097.66	58.0354	5,097.66	66.0354	5,097.66	64.2805	5,097.66	61.3048	5,097.66	56.6142	5,097.66	61.6519	5,097.66	61.7632	5,097.66	61.5166	5,097.66	53.7233	5,097.66	57.7029	5,097.66	52.114
5,277.83	81.1117	5,277.83	80.6079	5,277.83	81.8881	5,277.83	80.4532	5,277.83	80.803	5,277.83	78.1662	5,277.83	80.9021	5,277.83	77.5294	5,277.83	78.1661	5,277.83	76.3427	5,277.83	74.751	5,277.83	71.6264	5,277.83	73.8302	5,277.83	67.5642	5,277.83	73.0003	5,277.83	68.1331	5,277.83	69.9281	5,277.83	65.8709	5,277.83	66.8834	5,277.83	66.2281	5,277.83	66.8199	5,277.83	62.413	5,277.83	62.7129	5,277.83	59.3352	5,277.83	64.892	5,277.83	57.1242	5,277.83	60.4559	5,277.83	59.8703	5,277.83	54.0798	5,277.83	58.8439	5,277.83	61.6712	5,277.83	58.9893	5,277.83	58.9663	5,277.83	45.7399	5,277.83	58.4419	5,277.83	47.7672
5,463.87	81.4098	5,463.87	80.7452	5,463.87	81.7022	5,463.87	81.5212	5,463.87	81.0556	5,463.87	80.2424	5,463.87	80.3253	5,463.87	79.3909	5,463.87	78.7906	5,463.87	77.2223	5,463.87	77.246	5,463.87	75.6365	5,463.87	75.0784	5,463.87	73.0015	5,463.87	73.4378	5,463.87	72.1774	5,463.87	72.3867	5,463.87	69.5547	5,463.87	70.2852	5,463.87	65.7554	5,463.87	66.976	5,463.87	66.6488	5,463.87	66.3084	5,463.87	65.7182	5,463.87	64.105	5,463.87	63.6119	5,463.87	64.8616	5,463.87	65.418	5,463.87	63.425	5,463.87	63.6965	5,463.87	62.2778	5,463.87	62.2606	5,463.87	58.6304	5,463.87	53.9177	5,463.87	62.7396	5,463.87	55.68
5,657.23	82.8816	5,657.23	82.3618	5,657.23	81.3619	5,657.23	82.7177	5,657.23	83.3332	5,657.23	81.3575	5,657.23	80.3723	5,657.23	79.9334	5,657.23	80.4555	5,657.23	77.3108	5,657.23	80.3699	5,657.23	77.3151	5,657.23	78.1548	5,657.23	75.1039	5,657.23	76.7351	5,657.23	72.7124	5,657.23	71.9177	5,657.23	71.7648	5,657.23	71.2639	5,657.23	65.9285	5,657.23	66.9006	5,657.23	65.8313	5,657.23	65.6317	5,657.23	67.5377	5,657.23	66.883	5,657.23	62.715	5,657.23	62.8388	5,657.23	67.2073	5,657.23	65.3838	5,657.23	61.8805	5,657.23	64.8669	5,657.23	62.6049	5,657.23	62.3783	5,657.23	49.1677	5,657.23	64.1901	5,657.23	57.6465
5,856.45	82.6874	5,856.45	83.0945	5,856.45	82.2722	5,856.45	81.9158	5,856.45	82.4295	5,856.45	80.7124	5,856.45	82.224	5,856.45	79.3081	5,856.45	81.1068	5,856.45	78.9168	5,856.45	79.6802	5,856.45	77.0637	5,856.45	79.0499	5,856.45	76.8515	5,856.45	77.8243	5,856.45	74.2001	5,856.45	72.7916	5,856.45	73.0102	5,856.45	71.9356	5,856.45	68.9599	5,856.45	70.1784	5,856.45	67.2369	5,856.45	67.1351	5,856.45	67.4527	5,856.45	65.9009	5,856.45	63.0876	5,856.45	62.7342	5,856.45	64.8319	5,856.45	63.6295	5,856.45	58.7881	5,856.45	66.8596	5,856.45	66.0832	5,856.45	65.2618	5,856.45	52.806	5,856.45	63.4447	5,856.45	44.7341
6,062.99	83.8672	6,062.99	84.2248	6,062.99	85.2166	6,062.99	82.6364	6,062.99	82.7788	6,062.99	81.7046	6,062.99	83.9484	6,062.99	81.2943	6,062.99	82.1909	6,062.99	80.1309	6,062.99	79.939	6,062.99	76.4753	6,062.99	79.4736	6,062.99	75.5317	6,062.99	77.4269	6,062.99	71.173	6,062.99	75.2776	6,062.99	69.0339	6,062.99	72.4299	6,062.99	68.6738	6,062.99	71.2127	6,062.99	66.6821	6,062.99	67.963	6,062.99	67.5638	6,062.99	63.3863	6,062.99	59.9216	6,062.99	66.2996	6,062.99	60.0291	6,062.99	62.1686	6,062.99	62.832	6,062.99	64.0654	6,062.99	67.0693	6,062.99	62.5738	6,062.99	48.9254	6,062.99	63.1658	6,062.99	54.4246
6,276.86	84.4635	6,276.86	83.989	6,276.86	84.8005	6,276.86	83.0391	6,276.86	83.3517	6,276.86	82.0994	6,276.86	82.0772	6,276.86	82.3204	6,276.86	82.7064	6,276.86	80.3232	6,276.86	81.9639	6,276.86	78.0676	6,276.86	79.8124	6,276.86	74.2176	6,276.86	75.4175	6,276.86	72.4861	6,276.86	75.7551	6,276.86	68.9037	6,276.86	72.4888	6,276.86	65.159	6,276.86	69.9676	6,276.86	68.4639	6,276.86	67.9147	6,276.86	63.0929	6,276.86	66.6333	6,276.86	62.4449	6,276.86	67.4249	6,276.86	64.7858	6,276.86	64.1096	6,276.86	62.934	6,276.86	62.2325	6,276.86	66.3533	6,276.86	62.6443	6,276.86	55.857	6,276.86	63.0238	6,276.86	54.7161
6,498.05	84.995	6,498.05	83.5386	6,498.05	83.7994	6,498.05	82.762	6,498.05	84.5163	6,498.05	80.4531	6,498.05	81.3569	6,498.05	80.6658	6,498.05	81.738	6,498.05	78.1238	6,498.05	81.071	6,498.05	78.3055	6,498.05	79.7627	6,498.05	72.8085	6,498.05	77.8628	6,498.05	72.4055	6,498.05	75.9095	6,498.05	69.8654	6,498.05	71.8837	6,498.05	64.3785	6,498.05	68.774	6,498.05	64.3938	6,498.05	67.6207	6,498.05	58.3526	6,498.05	66.9131	6,498.05	65.1252	6,498.05	59.9706	6,498.05	63.1906	6,498.05	62.2077	6,498.05	59.8307	6,498.05	63.5133	6,498.05	61.2861	6,498.05	62.4869	6,498.05	56.8221	6,498.05	63.5306	6,498.05	55.5605
6,726.56	84.7057	6,726.56	83.428	6,726.56	85.3796	6,726.56	81.4617	6,726.56	84.0303	6,726.56	81.3373	6,726.56	83.176	6,726.56	79.5435	6,726.56	80.5543	6,726.56	79.7253	6,726.56	80.6858	6,726.56	77.3723	6,726.56	78.9823	6,726.56	75.8333	6,726.56	78.6021	6,726.56	73.1043	6,726.56	71.8801	6,726.56	69.7014	6,726.56	72.3138	6,726.56	67.5793	6,726.56	68.2102	6,726.56	60.5013	6,726.56	67.5781	6,726.56	63.4882	6,726.56	66.8077	6,726.56	64.2703	6,726.56	64.8238	6,726.56	63.3819	6,726.56	64.1441	6,726.56	64.0304	6,726.56	65.283	6,726.56	63.3789	6,726.56	65.3487	6,726.56	58.685	6,726.56	64.8573	6,726.56	59.6424
6,963.87	84.3736	6,963.87	82.8295	6,963.87	84.9748	6,963.87	81.6025	6,963.87	82.5914	6,963.87	81.1992	6,963.87	82.1762	6,963.87	80.0959	6,963.87	80.7877	6,963.87	78.9275	6,963.87	79.9186	6,963.87	73.6295	6,963.87	77.6449	6,963.87	74.6729	6,963.87	74.4408	6,963.87	71.1109	6,963.87	72.9226	6,963.87	69.1062	6,963.87	70.4648	6,963.87	66.4397	6,963.87	67.3243	6,963.87	63.8915	6,963.87	65.5131	6,963.87	64.522	6,963.87	64.8699	6,963.87	63.9244	6,963.87	63.0458	6,963.87	63.2686	6,963.87	56.5778	6,963.87	64.5455	6,963.87	61.0149	6,963.87	63.8751	6,963.87	62.2697	6,963.87	58.5138	6,963.87	64.4462	6,963.87	58.2545
7,209.96	85.558	7,209.96	83.5887	7,209.96	84.4206	7,209.96	82.3889	7,209.96	83.7987	7,209.96	80.3923	7,209.96	80.938	7,209.96	80.9541	7,209.96	81.2055	7,209.96	77.4434	7,209.96	80.5772	7,209.96	75.9921	7,209.96	78.0522	7,209.96	73.6923	7,209.96	73.7737	7,209.96	69.1698	7,209.96	72.6978	7,209.96	69.4485	7,209.96	69.5799	7,209.96	64.3041	7,209.96	65.5305	7,209.96	66.6815	7,209.96	66.4259	7,209.96	64.5913	7,209.96	61.5257	7,209.96	62.1349	7,209.96	57.5868	7,209.96	51.9167	7,209.96	56.486	7,209.96	62.7811	7,209.96	60.4017	7,209.96	63.1051	7,209.96	62.6061	7,209.96	55.4842	7,209.96	60.2884	7,209.96	53.3005
7,464.84	85.5872	7,464.84	83.9793	7,464.84	85.2359	7,464.84	81.3021	7,464.84	83.6302	7,464.84	80.5391	7,464.84	80.3676	7,464.84	79.8456	7,464.84	80.4761	7,464.84	77.7032	7,464.84	79.202	7,464.84	75.9585	7,464.84	77.7388	7,464.84	70.0342	7,464.84	75.1864	7,464.84	69.5294	7,464.84	71.1675	7,464.84	65.7503	7,464.84	68.7303	7,464.84	62.8271	7,464.84	66.593	7,464.84	64.6173	7,464.84	65.7506	7,464.84	61.3628	7,464.84	61.2073	7,464.84	61.1585	7,464.84	60.4257	7,464.84	57.7366	7,464.84	59.9748	7,464.84	63.7067	7,464.84	63.6973	7,464.84	60.9688	7,464.84	60.9184	7,464.84	54.6524	7,464.84	60.5558	7,464.84	56.222
7,727.05	85.2484	7,727.05	83.0965	7,727.05	86.0512	7,727.05	80.4623	7,727.05	82.6151	7,727.05	79.3514	7,727.05	80.9094	7,727.05	79.1141	7,727.05	80.2808	7,727.05	77.6957	7,727.05	77.8684	7,727.05	73.5002	7,727.05	76.0792	7,727.05	68.3965	7,727.05	73.6703	7,727.05	69.2599	7,727.05	68.9996	7,727.05	66.1898	7,727.05	66.6764	7,727.05	65.6004	7,727.05	66.1536	7,727.05	63.2525	7,727.05	61.3696	7,727.05	58.9437	7,727.05	60.4932	7,727.05	59.1592	7,727.05	62.3368	7,727.05	58.3038	7,727.05	60.0736	7,727.05	62.1936	7,727.05	59.1487	7,727.05	60.1753	7,727.05	59.3145	7,727.05	57.6171	7,727.05	61.298	7,727.05	54.1314
7,999.51	86.0956	7,999.51	83.469	7,999.51	85.8789	7,999.51	82.2021	7,999.51	83.1424	7,999.51	80.2133	7,999.51	81.6403	7,999.51	79.495	7,999.51	81.0482	7,999.51	76.4238	7,999.51	78.2725	7,999.51	71.3083	7,999.51	74.4066	7,999.51	70.5555	7,999.51	70.738	7,999.51	67.9957	7,999.51	67.9233	7,999.51	66.4966	7,999.51	67.2259	7,999.51	64.2016	7,999.51	64.597	7,999.51	62.7549	7,999.51	61.0337	7,999.51	58.2315	7,999.51	63.7555	7,999.51	52.4846	7,999.51	60.3214	7,999.51	56.5318	7,999.51	56.9469	7,999.51	57.0752	7,999.51	53.1714	7,999.51	59.4666	7,999.51	56.0177	7,999.51	55.869	7,999.51	60.1059	7,999.51	54.7253
8,282.23	85.1309	8,282.23	82.8732	8,282.23	84.5184	8,282.23	81.9478	8,282.23	81.6919	8,282.23	81.8086	8,282.23	82.0034	8,282.23	78.1231	8,282.23	81.0379	8,282.23	72.0368	8,282.23	78.0412	8,282.23	72.1911	8,282.23	72.0737	8,282.23	71.2822	8,282.23	70.3497	8,282.23	68.7798	8,282.23	70.3369	8,282.23	66.8429	8,282.23	68.212	8,282.23	62.7295	8,282.23	66.3453	8,282.23	63.1816	8,282.23	64.5376	8,282.23	58.8792	8,282.23	61.3939	8,282.23	55.1478	8,282.23	53.9331	8,282.23	59.3257	8,282.23	59.0189	8,282.23	58.193	8,282.23	53.856	8,282.23	57.9003	8,282.23	58.4175	8,282.23	51.1089	8,282.23	55.3372	8,282.23	56.6159
8,573.73	80.8947	8,573.73	81.531	8,573.73	80.4628	8,573.73	83.1909	8,573.73	81.4408	8,573.73	81.7483	8,573.73	82.597	8,573.73	78.1578	8,573.73	80.2744	8,573.73	75.5756	8,573.73	76.3297	8,573.73	74.8155	8,573.73	74.3485	8,573.73	71.3748	8,573.73	72.771	8,573.73	70.2732	8,573.73	71.7	8,573.73	66.9514	8,573.73	69.3754	8,573.73	62.8378	8,573.73	64.1288	8,573.73	60.1178	8,573.73	61.0649	8,573.73	57.1497	8,573.73	61.4529	8,573.73	58.8613	8,573.73	57.5119	8,573.73	57.9144	8,573.73	56.855	8,573.73	58.2862	8,573.73	48.0009	8,573.73	56.1591	8,573.73	54.2284	8,573.73	53.7505	8,573.73	56.9775	8,573.73	57.6982
8,876.95	80.4185	8,876.95	81.4238	8,876.95	79.3728	8,876.95	83.2826	8,876.95	82.4046	8,876.95	80.8506	8,876.95	82.4777	8,876.95	78.4609	8,876.95	80.271	8,876.95	75.9029	8,876.95	76.6056	8,876.95	72.8561	8,876.95	74.6462	8,876.95	69.7453	8,876.95	71.2064	8,876.95	66.5348	8,876.95	67.8203	8,876.95	63.8466	8,876.95	64.1684	8,876.95	60.0061	8,876.95	59.7361	8,876.95	56.8657	8,876.95	59.9259	8,876.95	56.6826	8,876.95	56.3429	8,876.95	59.1249	8,876.95	46.8488	8,876.95	53.2477	8,876.95	45.1033	8,876.95	53.1618	8,876.95	48.9673	8,876.95	47.4188	8,876.95	50.4967	8,876.95	51.653	8,876.95	54.8215	8,876.95	55.1339
9,188.96	80.3333	9,188.96	83.004	9,188.96	81.5454	9,188.96	83.712	9,188.96	82.7334	9,188.96	83.0219	9,188.96	82.9625	9,188.96	79.7066	9,188.96	80.5327	9,188.96	77.8825	9,188.96	78.1294	9,188.96	74.5759	9,188.96	75.6974	9,188.96	71.3497	9,188.96	73.8991	9,188.96	67.1632	9,188.96	67.468	9,188.96	62.8108	9,188.96	64.5593	9,188.96	58.7407	9,188.96	61.6443	9,188.96	60.6575	9,188.96	60.5641	9,188.96	58.0333	9,188.96	57.2213	9,188.96	60.1413	9,188.96	57.4363	9,188.96	50.4547	9,188.96	54.46	9,188.96	56.5711	9,188.96	54.2928	9,188.96	55.8892	9,188.96	38.165	9,188.96	51.8703	9,188.96	46.2545	9,188.96	53.5748
9,514.16	80.462	9,514.16	83.1801	9,514.16	80.778	9,514.16	84.6272	9,514.16	84.2105	9,514.16	81.7824	9,514.16	82.8822	9,514.16	80.4178	9,514.16	79.3055	9,514.16	77.7795	9,514.16	76.6945	9,514.16	75.0907	9,514.16	75.3917	9,514.16	71.0986	9,514.16	71.7837	9,514.16	69.1172	9,514.16	68.7681	9,514.16	63.7639	9,514.16	65.0433	9,514.16	60.9812	9,514.16	61.8111	9,514.16	60.5263	9,514.16	58.1558	9,514.16	57.9612	9,514.16	58.7131	9,514.16	60.2115	9,514.16	58.421	9,514.16	55.694	9,514.16	52.1515	9,514.16	52.0306	9,514.16	57.0563	9,514.16	56.807	9,514.16	53.3728	9,514.16	53.0687	9,514.16	50.8651	9,514.16	50.9635
9,849.61	81.2315	9,849.61	82.9035	9,849.61	82.4918	9,849.61	83.3611	9,849.61	83.0118	9,849.61	81.336	9,849.61	82.1484	9,849.61	79.5922	9,849.61	80.8315	9,849.61	77.3921	9,849.61	78.2133	9,849.61	73.8435	9,849.61	76.2027	9,849.61	71.6672	9,849.61	71.9057	9,849.61	67.3492	9,849.61	66.9456	9,849.61	64.8526	9,849.61	63.6275	9,849.61	61.2896	9,849.61	60.7027	9,849.61	61.2408	9,849.61	58.676	9,849.61	57.3761	9,849.61	56.6269	9,849.61	53.2469	9,849.61	56.6535	9,849.61	52.7823	9,849.61	57.4375	9,849.61	49.8279	9,849.61	55.9349	9,849.61	58.2817	9,849.61	52.6176	9,849.61	54.6548	9,849.61	52.069	9,849.61	47.9454
10,196.8	81.0277	10,196.8	82.7453	10,196.8	82.0544	10,196.8	82.6075	10,196.8	83.4249	10,196.8	80.1738	10,196.8	81.6815	10,196.8	78.6501	10,196.8	79.6808	10,196.8	75.9286	10,196.8	78.8883	10,196.8	73.3124	10,196.8	74.5019	10,196.8	69.0522	10,196.8	69.167	10,196.8	65.5848	10,196.8	67.5971	10,196.8	63.5098	10,196.8	64.8878	10,196.8	58.2467	10,196.8	61.1918	10,196.8	56.5651	10,196.8	59.0305	10,196.8	57.0047	10,196.8	57.763	10,196.8	52.3886	10,196.8	54.355	10,196.8	50.4689	10,196.8	56.3456	10,196.8	48.2983	10,196.8	51.8816	10,196.8	56.5931	10,196.8	50.3041	10,196.8	54.9349	10,196.8	49.7281	10,196.8	48.598
10,555.7	81.7791	10,555.7	82.5395	10,555.7	82.2894	10,555.7	81.8315	10,555.7	83.6654	10,555.7	77.9914	10,555.7	82.4243	10,555.7	76.8615	10,555.7	80.6404	10,555.7	74.0977	10,555.7	78.3116	10,555.7	70.4803	10,555.7	75.4694	10,555.7	64.0473	10,555.7	71.9466	10,555.7	62.1129	10,555.7	68.5449	10,555.7	57.7785	10,555.7	64.7656	10,555.7	52.044	10,555.7	63.4126	10,555.7	52.4641	10,555.7	59.6698	10,555.7	49.159	10,555.7	57.465	10,555.7	51.0518	10,555.7	52.3317	10,555.7	51.9164	10,555.7	54.9315	10,555.7	39.6504	10,555.7	49.0239	10,555.7	54.3332	10,555.7	46.946	10,555.7	46.9309	10,555.7	50.191	10,555.7	48.3765
10,927.7	81.5645	10,927.7	82.0395	10,927.7	82.2284	10,927.7	80.1323	10,927.7	83.2338	10,927.7	76.6168	10,927.7	82.4278	10,927.7	74.574	10,927.7	80.6904	10,927.7	70.6026	10,927.7	78.924	10,927.7	62.9522	10,927.7	75.9026	10,927.7	59.4459	10,927.7	72.4773	10,927.7	57.9121	10,927.7	68.1749	10,927.7	51.9238	10,927.7	65.7007	10,927.7	51.1957	10,927.7	62.2038	10,927.7	49.5255	10,927.7	60.5302	10,927.7	52.7771	10,927.7	59.4345	10,927.7	49.3304	10,927.7	55.0649	10,927.7	49.2132	10,927.7	56.6495	10,927.7	44.1061	10,927.7	53.388	10,927.7	42.7743	10,927.7	54.4673	10,927.7	45.0461	10,927.7	55.6453	10,927.7	45.4251
11,313	81.0338	11,313	81.4162	11,313	81.565	11,313	79.2916	11,313	83.5336	11,313	76.0095	11,313	82.485	11,313	74.5506	11,313	81.5988	11,313	69.3068	11,313	79.3129	11,313	65.3741	11,313	76.3292	11,313	63.3668	11,313	72.4699	11,313	59.8382	11,313	69.7879	11,313	58.7511	11,313	66.9077	11,313	56.2798	11,313	63.9616	11,313	54.9173	11,313	61.2896	11,313	51.4646	11,313	59.8711	11,313	44.2494	11,313	57.7577	11,313	45.5527	11,313	56.1076	11,313	39.9888	11,313	54.0536	11,313	46.9269	11,313	53.9754	11,313	38.3095	11,313	54.0959	11,313	44.9194
11,712.9	80.7865	11,712.9	81.4754	11,712.9	81.2143	11,712.9	78.9396	11,712.9	83.1371	11,712.9	78.0052	11,712.9	82.2855	11,712.9	76.3015	11,712.9	81.3626	11,712.9	71.9846	11,712.9	79.8652	11,712.9	69.8599	11,712.9	76.2237	11,712.9	67.4637	11,712.9	72.2522	11,712.9	65.2868	11,712.9	69.5448	11,712.9	62.0731	11,712.9	66.7466	11,712.9	56.8764	11,712.9	63.7897	11,712.9	57.0258	11,712.9	61.2495	11,712.9	55.2783	11,712.9	60.095	11,712.9	49.646	11,712.9	58.4962	11,712.9	46.9556	11,712.9	55.9272	11,712.9	49.235	11,712.9	54.2184	11,712.9	49.1226	11,712.9	57.4466	11,712.9	47.5126	11,712.9	51.766	11,712.9	40.2178
12,126	80.8348	12,126	80.8893	12,126	81.1167	12,126	79.7506	12,126	82.0789	12,126	79.2032	12,126	80.8868	12,126	77.5514	12,126	80.4584	12,126	74.828	12,126	78.2698	12,126	72.0307	12,126	74.4288	12,126	69.9941	12,126	70.8997	12,126	66.9292	12,126	68.9474	12,126	63.3657	12,126	66.0479	12,126	59.7389	12,126	62.0057	12,126	57.7384	12,126	60.3005	12,126	55.6186	12,126	58.9425	12,126	49.747	12,126	57.8899	12,126	48.9017	12,126	56.0114	12,126	50.2393	12,126	54.7075	12,126	50.6796	12,126	55.8725	12,126	49.5068	12,126	50.9902	12,126	32.9087
12,553.7	81.0184	12,553.7	81.0308	12,553.7	81.3036	12,553.7	80.8448	12,553.7	81.3938	12,553.7	80.9123	12,553.7	80.0204	12,553.7	79.1461	12,553.7	79.7351	12,553.7	75.9532	12,553.7	76.929	12,553.7	74.2446	12,553.7	73.7839	12,553.7	71.1024	12,553.7	71.4106	12,553.7	68.3292	12,553.7	68.4054	12,553.7	64.4789	12,553.7	65.373	12,553.7	59.5956	12,553.7	62.5547	12,553.7	59.3605	12,553.7	59.833	12,553.7	57.6269	12,553.7	58.4504	12,553.7	53.7243	12,553.7	58.1552	12,553.7	54.0711	12,553.7	54.9193	12,553.7	49.6913	12,553.7	51.6485	12,553.7	51.744	12,553.7	55.6598	12,553.7	51.0842	12,553.7	46.7234	12,553.7	37.6533
12,996.1	81.59	12,996.1	81.1805	12,996.1	81.7778	12,996.1	81.9243	12,996.1	80.7831	12,996.1	80.813	12,996.1	79.8607	12,996.1	79.6462	12,996.1	79.3641	12,996.1	76.964	12,996.1	76.3678	12,996.1	73.9822	12,996.1	73.991	12,996.1	70.507	12,996.1	72.1284	12,996.1	67.645	12,996.1	68.2469	12,996.1	62.7916	12,996.1	65.2596	12,996.1	59.1256	12,996.1	61.452	12,996.1	58.9376	12,996.1	58.7219	12,996.1	55.7893	12,996.1	57.7961	12,996.1	54.8618	12,996.1	55.371	12,996.1	53.5242	12,996.1	52.6516	12,996.1	47.0268	12,996.1	47.6182	12,996.1	49.3467	12,996.1	51.3553	12,996.1	48.6526	12,996.1	48.7366	12,996.1	42.5126
13,454.6	81.4356	13,454.6	80.4614	13,454.6	81.5047	13,454.6	80.843	13,454.6	80.5348	13,454.6	80.8639	13,454.6	79.621	13,454.6	78.4308	13,454.6	79.11	13,454.6	75.3342	13,454.6	76.4674	13,454.6	73.343	13,454.6	74.219	13,454.6	69.7999	13,454.6	71.878	13,454.6	66.8255	13,454.6	67.6386	13,454.6	61.6563	13,454.6	64.8449	13,454.6	59.2863	13,454.6	60.4907	13,454.6	59.5755	13,454.6	57.6199	13,454.6	54.2791	13,454.6	57.5514	13,454.6	53.283	13,454.6	51.7631	13,454.6	49.2598	13,454.6	51.5119	13,454.6	46.8554	13,454.6	45.719	13,454.6	44.6422	13,454.6	48.8437	13,454.6	45.2506	13,454.6	45.5799	13,454.6	41.4774
13,929.2	81.333	13,929.2	79.7348	13,929.2	80.7411	13,929.2	80.3544	13,929.2	79.5603	13,929.2	78.463	13,929.2	79.8172	13,929.2	76.9748	13,929.2	78.867	13,929.2	74.1486	13,929.2	76.2525	13,929.2	70.4603	13,929.2	74.1719	13,929.2	65.4251	13,929.2	70.7749	13,929.2	62.7894	13,929.2	67.4602	13,929.2	59.1581	13,929.2	64.1037	13,929.2	53.5094	13,929.2	59.1328	13,929.2	54.8168	13,929.2	58.3033	13,929.2	54.0108	13,929.2	56.8353	13,929.2	47.8943	13,929.2	52.816	13,929.2	52.1041	13,929.2	51.361	13,929.2	45.6728	13,929.2	47.0081	13,929.2	36.2783	13,929.2	46.6916	13,929.2	46.4118	13,929.2	46.7233	13,929.2	45.3218
14,419.9	80.5927	14,419.9	80.1614	14,419.9	80.7735	14,419.9	80.1433	14,419.9	79.1586	14,419.9	79.076	14,419.9	80.0187	14,419.9	77.0673	14,419.9	79.0112	14,419.9	74.1458	14,419.9	76.7311	14,419.9	70.671	14,419.9	74.5634	14,419.9	66.8745	14,419.9	71.3755	14,419.9	64.2635	14,419.9	66.2151	14,419.9	59.829	14,419.9	63.3876	14,419.9	57.8647	14,419.9	58.522	14,419.9	56.611	14,419.9	57.4193	14,419.9	52.4122	14,419.9	56.0304	14,419.9	52.3151	14,419.9	53.2684	14,419.9	44.9255	14,419.9	50.8371	14,419.9	46.5003	14,419.9	44.3929	14,419.9	26.2562	14,419.9	46.1349	14,419.9	50.4748	14,419.9	48.1521	14,419.9	47.6008
14,928.2	80.9997	14,928.2	78.6594	14,928.2	80.3756	14,928.2	80.23	14,928.2	79.141	14,928.2	78.9485	14,928.2	80.3087	14,928.2	77.2748	14,928.2	79.1071	14,928.2	74.485	14,928.2	76.5047	14,928.2	70.7738	14,928.2	74.5718	14,928.2	67.8402	14,928.2	69.9753	14,928.2	65.23	14,928.2	66.2427	14,928.2	62.7758	14,928.2	64.3507	14,928.2	58.4154	14,928.2	60.486	14,928.2	59.0067	14,928.2	57.0048	14,928.2	54.1891	14,928.2	56.346	14,928.2	52.2188	14,928.2	52.5171	14,928.2	45.4783	14,928.2	50.3032	14,928.2	44.1341	14,928.2	49.2719	14,928.2	39.3057	14,928.2	48.2702	14,928.2	50.1731	14,928.2	45.0985	14,928.2	49.4928
15,455.6	80.8831	15,455.6	78.6046	15,455.6	79.8599	15,455.6	80.3757	15,455.6	78.3772	15,455.6	79.153	15,455.6	80.2663	15,455.6	78.6943	15,455.6	78.915	15,455.6	75.4472	15,455.6	77.7002	15,455.6	71.8609	15,455.6	74.3458	15,455.6	68.9407	15,455.6	68.8205	15,455.6	66.5079	15,455.6	67.7233	15,455.6	62.7599	15,455.6	63.8417	15,455.6	57.7637	15,455.6	59.5102	15,455.6	57.7979	15,455.6	59.339	15,455.6	53.8969	15,455.6	57.3821	15,455.6	54.1437	15,455.6	55.7334	15,455.6	40.0728	15,455.6	50.7731	15,455.6	51.4364	15,455.6	45.0869	15,455.6	27.5349	15,455.6	42.6735	15,455.6	52.8482	15,455.6	46.8154	15,455.6	45.3462
16,000.5	80.8977	16,000.5	78.8202	16,000.5	80.2141	16,000.5	80.5399	16,000.5	79.014	16,000.5	78.8718	16,000.5	80.0329	16,000.5	78.065	16,000.5	78.3961	16,000.5	75.036	16,000.5	76.7808	16,000.5	71.5363	16,000.5	72.5541	16,000.5	69.8012	16,000.5	69.5472	16,000.5	66.8072	16,000.5	68.3018	16,000.5	61.7463	16,000.5	64.1403	16,000.5	57.0369	16,000.5	61.0972	16,000.5	57.5821	16,000.5	57.7542	16,000.5	52.9885	16,000.5	53.8774	16,000.5	54.1835	16,000.5	44.9041	16,000.5	42.0014	16,000.5	48.0311	16,000.5	48.9695	16,000.5	47.1013	16,000.5	36.5714	16,000.5	49.9534	16,000.5	50.4601	16,000.5	47.4614	16,000.5	47.9672
16,564.5	81.0571	16,564.5	79.144	16,564.5	80.7009	16,564.5	80.4004	16,564.5	79.805	16,564.5	78.293	16,564.5	80.1369	16,564.5	77.574	16,564.5	77.8008	16,564.5	73.7855	16,564.5	76.4144	16,564.5	71.9795	16,564.5	72.3669	16,564.5	69.5537	16,564.5	70.9939	16,564.5	65.1378	16,564.5	67.2147	16,564.5	62.4253	16,564.5	63.7491	16,564.5	58.2977	16,564.5	59.1281	16,564.5	57.6009	16,564.5	55.4481	16,564.5	50.8707	16,564.5	50.1628	16,564.5	55.6744	16,564.5	50.4697	16,564.5	41.5731	16,564.5	47.2984	16,564.5	49.4317	16,564.5	45.2536	16,564.5	45.3293	16,564.5	48.4046	16,564.5	47.2403	16,564.5	46.4363	16,564.5	43.1013
17,148.9	80.4203	17,148.9	79.2301	17,148.9	79.831	17,148.9	80.5284	17,148.9	79.6746	17,148.9	78.766	17,148.9	79.603	17,148.9	78.6048	17,148.9	78.3801	17,148.9	75.1435	17,148.9	76.919	17,148.9	73.7661	17,148.9	74.0619	17,148.9	69.4695	17,148.9	71.7871	17,148.9	66.3911	17,148.9	67.383	17,148.9	63.6246	17,148.9	62.9649	17,148.9	57.691	17,148.9	60.3293	17,148.9	56.2853	17,148.9	57.7464	17,148.9	49.4274	17,148.9	52.3462	17,148.9	52.7733	17,148.9	53.2655	17,148.9	37.5053	17,148.9	45.049	17,148.9	52.0949	17,148.9	47.4367	17,148.9	46.5594	17,148.9	47.1193	17,148.9	47.9708	17,148.9	49.0212	17,148.9	33.6734
17,752.4	79.3662	17,752.4	78.6103	17,752.4	79.0577	17,752.4	80.1695	17,752.4	79.6159	17,752.4	79.4879	17,752.4	79.2138	17,752.4	78.6586	17,752.4	79.5526	17,752.4	76.5444	17,752.4	76.8332	17,752.4	73.8798	17,752.4	75.5009	17,752.4	69.794	17,752.4	71.8641	17,752.4	66.3789	17,752.4	67.9648	17,752.4	62.1911	17,752.4	63.9245	17,752.4	55.2011	17,752.4	60.3886	17,752.4	57.026	17,752.4	57.5159	17,752.4	50.4883	17,752.4	51.6918	17,752.4	53.2929	17,752.4	53.5093	17,752.4	42.031	17,752.4	46.2711	17,752.4	51.096	17,752.4	48.3944	17,752.4	46.9049	17,752.4	44.2925	17,752.4	46.5398	17,752.4	39.4313	17,752.4	38.5444
18,379.4	78.8496	18,379.4	79.3473	18,379.4	78.6842	18,379.4	79.902	18,379.4	79.8819	18,379.4	79.5443	18,379.4	79.3531	18,379.4	78.9974	18,379.4	79.6326	18,379.4	76.8217	18,379.4	77.3147	18,379.4	73.2488	18,379.4	76.0128	18,379.4	69.0731	18,379.4	71.3973	18,379.4	66.6293	18,379.4	67.7158	18,379.4	62.3795	18,379.4	64.1968	18,379.4	56.6971	18,379.4	61.3545	18,379.4	56.5801	18,379.4	58.083	18,379.4	48.6837	18,379.4	51.6492	18,379.4	54.7951	18,379.4	51.94	18,379.4	34.5979	18,379.4	44.2418	18,379.4	47.6712	18,379.4	46.9363	18,379.4	48.896	18,379.4	48.5897	18,379.4	39.9948	18,379.4	38.2443	18,379.4	38.8959
19,026.9	79.3624	19,026.9	80.0462	19,026.9	79.9218	19,026.9	79.2221	19,026.9	80.2609	19,026.9	79.2263	19,026.9	78.8148	19,026.9	78.174	19,026.9	79.0354	19,026.9	76.5452	19,026.9	77.2819	19,026.9	72.2566	19,026.9	75.3091	19,026.9	69.2466	19,026.9	70.4885	19,026.9	66.1479	19,026.9	67.7351	19,026.9	62.569	19,026.9	64.7211	19,026.9	56.9878	19,026.9	61.2874	19,026.9	57.8173	19,026.9	57.7481	19,026.9	50.3756	19,026.9	51.892	19,026.9	52.296	19,026.9	54.3494	19,026.9	43.4308	19,026.9	42.7359	19,026.9	47.3531	19,026.9	44.3204	19,026.9	47.8658	19,026.9	47.4296	19,026.9	47.6734	19,026.9	48.0014	19,026.9	31.2814
19,697.8	78.8035	19,697.8	79.7127	19,697.8	79.7097	19,697.8	78.6298	19,697.8	80.0443	19,697.8	78.1121	19,697.8	78.4065	19,697.8	77.8666	19,697.8	78.0227	19,697.8	75.261	19,697.8	77.0022	19,697.8	71.7369	19,697.8	74.1362	19,697.8	69.1613	19,697.8	70.4066	19,697.8	66.955	19,697.8	67.5976	19,697.8	62.5672	19,697.8	64.3231	19,697.8	56.5384	19,697.8	60.9716	19,697.8	56.6111	19,697.8	57.8163	19,697.8	50.3371	19,697.8	49.1078	19,697.8	54.1244	19,697.8	49.0539	19,697.8	44.1843	19,697.8	45.5457	19,697.8	42.5668	19,697.8	48.1661	19,697.8	47.1552	19,697.8	48.8933	19,697.8	48.5471	19,697.8	49.7242	19,697.8	35.9303
19,999.5	78.4099	19,999.5	80.0758	19,999.5	79.2946	19,999.5	78.3078	19,999.5	79.9836	19,999.5	77.791	19,999.5	78.2117	19,999.5	77.8986	19,999.5	77.9928	19,999.5	75.6091	19,999.5	76.434	19,999.5	72.342	19,999.5	73.8713	19,999.5	70.08	19,999.5	71.0608	19,999.5	64.6957	19,999.5	67.6194	19,999.5	58.4566	19,999.5	63.8808	19,999.5	49.1504	19,999.5	58.6992	19,999.5	58.5413	19,999.5	47.4346	19,999.5	45.2222	19,999.5	55.5458	19,999.5	41.3474	19,999.5	51.6781	19,999.5	44.9915	19,999.5	21.0022	19,999.5	52.3868	19,999.5	56.7303	19,999.5	53.537	19,999.5	49.5464	19,999.5	51.6465	19,999.5	33.8928	19,999.5	37.1924
