"SPL Vertical"
"On-Axis"		"10°"		"-10°"		"20°"		"-20°"		"30°"		"-30°"		"40°"		"-40°"		"50°"		"-50°"		"60°"		"-60°"		"70°"		"-70°"		"80°"		"-80°"		"90°"		"-90°"		"100°"		"-100°"		"110°"		"-110°"		"120°"		"-120°"		"130°"		"-130°"		"140°"		"-140°"		"150°"		"-150°"		"160°"		"-160°"		"170°"		"-170°"		"180°"
"Frequency / Hz"	"Sound Pressure Level / dB (re 20 µPa/V)  [2.83  V @ 1. m]"	"Frequency / Hz"	"Sound Pressure Level / dB (re 20 µPa/V)  [2.83  V @ 1. m]"	"Frequency / Hz"	"Sound Pressure Level / dB (re 20 µPa/V)  [2.83  V @ 1. m]"	"Frequency / Hz"	"Sound Pressure Level / dB (re 20 µPa/V)  [2.83  V @ 1. m]"	"Frequency / Hz"	"Sound Pressure Level / dB (re 20 µPa/V)  [2.83  V @ 1. m]"	"Frequency / Hz"	"Sound Pressure Level / dB (re 20 µPa/V)  [2.83  V @ 1. m]"	"Frequency / Hz"	"Sound Pressure Level / dB (re 20 µPa/V)  [2.83  V @ 1. m]"	"Frequency / Hz"	"Sound Pressure Level / dB (re 20 µPa/V)  [2.83  V @ 1. m]"	"Frequency / Hz"	"Sound Pressure Level / dB (re 20 µPa/V)  [2.83  V @ 1. m]"	"Frequency / Hz"	"Sound Pressure Level / dB (re 20 µPa/V)  [2.83  V @ 1. m]"	"Frequency / Hz"	"Sound Pressure Level / dB (re 20 µPa/V)  [2.83  V @ 1. m]"	"Frequency / Hz"	"Sound Pressure Level / dB (re 20 µPa/V)  [2.83  V @ 1. m]"	"Frequency / Hz"	"Sound Pressure Level / dB (re 20 µPa/V)  [2.83  V @ 1. m]"	"Frequency / Hz"	"Sound Pressure Level / dB (re 20 µPa/V)  [2.83  V @ 1. m]"	"Frequency / Hz"	"Sound Pressure Level / dB (re 20 µPa/V)  [2.83  V @ 1. m]"	"Frequency / Hz"	"Sound Pressure Level / dB (re 20 µPa/V)  [2.83  V @ 1. m]"	"Frequency / Hz"	"Sound Pressure Level / dB (re 20 µPa/V)  [2.83  V @ 1. m]"	"Frequency / Hz"	"Sound Pressure Level / dB (re 20 µPa/V)  [2.83  V @ 1. m]"	"Frequency / Hz"	"Sound Pressure Level / dB (re 20 µPa/V)  [2.83  V @ 1. m]"	"Frequency / Hz"	"Sound Pressure Level / dB (re 20 µPa/V)  [2.83  V @ 1. m]"	"Frequency / Hz"	"Sound Pressure Level / dB (re 20 µPa/V)  [2.83  V @ 1. m]"	"Frequency / Hz"	"Sound Pressure Level / dB (re 20 µPa/V)  [2.83  V @ 1. m]"	"Frequency / Hz"	"Sound Pressure Level / dB (re 20 µPa/V)  [2.83  V @ 1. m]"	"Frequency / Hz"	"Sound Pressure Level / dB (re 20 µPa/V)  [2.83  V @ 1. m]"	"Frequency / Hz"	"Sound Pressure Level / dB (re 20 µPa/V)  [2.83  V @ 1. m]"	"Frequency / Hz"	"Sound Pressure Level / dB (re 20 µPa/V)  [2.83  V @ 1. m]"	"Frequency / Hz"	"Sound Pressure Level / dB (re 20 µPa/V)  [2.83  V @ 1. m]"	"Frequency / Hz"	"Sound Pressure Level / dB (re 20 µPa/V)  [2.83  V @ 1. m]"	"Frequency / Hz"	"Sound Pressure Level / dB (re 20 µPa/V)  [2.83  V @ 1. m]"	"Frequency / Hz"	"Sound Pressure Level / dB (re 20 µPa/V)  [2.83  V @ 1. m]"	"Frequency / Hz"	"Sound Pressure Level / dB (re 20 µPa/V)  [2.83  V @ 1. m]"	"Frequency / Hz"	"Sound Pressure Level / dB (re 20 µPa/V)  [2.83  V @ 1. m]"	"Frequency / Hz"	"Sound Pressure Level / dB (re 20 µPa/V)  [2.83  V @ 1. m]"	"Frequency / Hz"	"Sound Pressure Level / dB (re 20 µPa/V)  [2.83  V @ 1. m]"	"Frequency / Hz"	"Sound Pressure Level / dB (re 20 µPa/V)  [2.83  V @ 1. m]"	"Frequency / Hz"	"Sound Pressure Level / dB (re 20 µPa/V)  [2.83  V @ 1. m]"
20.5078	57.8343	20.5078	57.8079	20.5078	57.8886	20.5078	57.8133	20.5078	57.9688	20.5078	57.8557	20.5078	58.0743	20.5078	57.9406	20.5078	58.2049	20.5078	58.0726	20.5078	58.3602	20.5078	58.2544	20.5078	58.5387	20.5078	58.4855	20.5078	58.7375	20.5078	58.7617	20.5078	58.953	20.5078	59.075	20.5078	59.1811	20.5078	59.4131	20.5078	59.4182	20.5078	59.7604	20.5078	59.6603	20.5078	60.0984	20.5078	59.9038	20.5078	60.4076	20.5078	60.1443	20.5078	60.6692	20.5078	60.3757	20.5078	60.8676	20.5078	60.5899	20.5078	60.9926	20.5078	60.7762	20.5078	61.0405	20.5078	60.9221	20.5078	61.0142
21.9727	56.2715	21.9727	56.2121	21.9727	56.3569	21.9727	56.1782	21.9727	56.4685	21.9727	56.1698	21.9727	56.6051	21.9727	56.1876	21.9727	56.7638	21.9727	56.2328	21.9727	56.9393	21.9727	56.3072	21.9727	57.1241	21.9727	56.4124	21.9727	57.3096	21.9727	56.5491	21.9727	57.4879	21.9727	56.7165	21.9727	57.6521	21.9727	56.9113	21.9727	57.7982	21.9727	57.1268	21.9727	57.9246	21.9727	57.3535	21.9727	58.0316	21.9727	57.579	21.9727	58.121	21.9727	57.7895	21.9727	58.194	21.9727	57.9721	21.9727	58.2502	21.9727	58.1171	21.9727	58.2869	21.9727	58.2191	21.9727	58.2985	21.9727	58.2782
23.4375	59.2638	23.4375	59.0445	23.4375	59.5013	23.4375	58.85	23.4375	59.7498	23.4375	58.6864	23.4375	60.0015	23.4375	58.5591	23.4375	60.2481	23.4375	58.4728	23.4375	60.4809	23.4375	58.4313	23.4375	60.6917	23.4375	58.4372	23.4375	60.8728	23.4375	58.4916	23.4375	61.0181	23.4375	58.5936	23.4375	61.1234	23.4375	58.7404	23.4375	61.187	23.4375	58.9261	23.4375	61.2096	23.4375	59.1428	23.4375	61.1939	23.4375	59.38	23.4375	61.1442	23.4375	59.6264	23.4375	61.0651	23.4375	59.8708	23.4375	60.9604	23.4375	60.1037	23.4375	60.833	23.4375	60.3188	23.4375	60.6837	23.4375	60.5124
24.9023	61.6204	24.9023	61.3926	24.9023	61.8571	24.9023	61.1798	24.9023	62.0962	24.9023	60.9872	24.9023	62.3304	24.9023	60.8191	24.9023	62.5517	24.9023	60.6795	24.9023	62.7521	24.9023	60.5719	24.9023	62.9238	24.9023	60.4994	24.9023	63.0595	24.9023	60.4645	24.9023	63.1532	24.9023	60.4692	24.9023	63.2009	24.9023	60.5146	24.9023	63.2009	24.9023	60.6002	24.9023	63.1542	24.9023	60.724	24.9023	63.0641	24.9023	60.8818	24.9023	62.9359	24.9023	61.0678	24.9023	62.7763	24.9023	61.2747	24.9023	62.592	24.9023	61.4952	24.9023	62.3894	24.9023	61.7223	24.9023	62.1739	24.9023	61.9501
26.3672	64.4052	26.3672	64.1862	26.3672	64.6305	26.3672	63.9787	26.3672	64.8562	26.3672	63.787	26.3672	65.0757	26.3672	63.6146	26.3672	65.2816	26.3672	63.4646	26.3672	65.4662	26.3672	63.3399	26.3672	65.6217	26.3672	63.2433	26.3672	65.7412	26.3672	63.1775	26.3672	65.8186	26.3672	63.1452	26.3672	65.8498	26.3672	63.149	26.3672	65.8329	26.3672	63.1907	26.3672	65.7683	26.3672	63.2712	26.3672	65.6591	26.3672	63.39	26.3672	65.5102	26.3672	63.5444	26.3672	65.3278	26.3672	63.7302	26.3672	65.1193	26.3672	63.9412	26.3672	64.8919	26.3672	64.1703	26.3672	64.6531	26.3672	64.4101
27.832	67.3145	27.832	67.1114	27.832	67.5204	27.832	66.9159	27.832	67.7238	27.832	66.7319	27.832	67.9186	27.832	66.5631	27.832	68.0982	27.832	66.4126	27.832	68.2556	27.832	66.283	27.832	68.3837	27.832	66.1772	27.832	68.4764	27.832	66.0976	27.832	68.5282	27.832	66.0466	27.832	68.5356	27.832	66.0267	27.832	68.4972	27.832	66.0399	27.832	68.414	27.832	66.0878	27.832	68.2893	27.832	66.1711	27.832	68.1285	27.832	66.2893	27.832	67.9384	27.832	66.44	27.832	67.7267	27.832	66.6194	27.832	67.5014	27.832	66.822	27.832	67.2704	27.832	67.0414
29.2969	69.5755	29.2969	69.3711	29.2969	69.784	29.2969	69.1759	29.2969	69.9905	29.2969	68.9941	29.2969	70.1885	29.2969	68.8295	29.2969	70.3708	29.2969	68.685	29.2969	70.5301	29.2969	68.563	29.2969	70.659	29.2969	68.4659	29.2969	70.7511	29.2969	68.3954	29.2969	70.8011	29.2969	68.3532	29.2969	70.8056	29.2969	68.341	29.2969	70.7636	29.2969	68.3597	29.2969	70.6763	29.2969	68.4103	29.2969	70.5476	29.2969	68.4926	29.2969	70.3836	29.2969	68.606	29.2969	70.1918	29.2969	68.7485	29.2969	69.9808	29.2969	68.917	29.2969	69.7591	29.2969	69.1077	29.2969	69.5349	29.2969	69.3155
30.7617	72.5371	30.7617	72.3483	30.7617	72.7306	30.7617	72.1688	30.7617	72.923	30.7617	72.0027	30.7617	73.1081	30.7617	71.8531	30.7617	73.279	30.7617	71.7225	30.7617	73.4285	30.7617	71.6129	30.7617	73.5497	30.7617	71.5262	30.7617	73.6367	30.7617	71.4637	30.7617	73.6843	30.7617	71.4268	30.7617	73.6897	30.7617	71.4166	30.7617	73.6517	30.7617	71.4342	30.7617	73.5717	30.7617	71.4803	30.7617	73.4534	30.7617	71.5554	30.7617	73.3024	30.7617	71.6589	30.7617	73.1255	30.7617	71.7896	30.7617	72.9306	30.7617	71.9449	30.7617	72.7254	30.7617	72.1213	30.7617	72.5175	30.7617	72.314
32.2266	75.0339	32.2266	74.8539	32.2266	75.2181	32.2266	74.6829	32.2266	75.401	32.2266	74.5249	32.2266	75.5763	32.2266	74.383	32.2266	75.7374	32.2266	74.2598	32.2266	75.8775	32.2266	74.1572	32.2266	75.9903	32.2266	74.0767	32.2266	76.07	32.2266	74.0195	32.2266	76.1123	32.2266	73.9867	32.2266	76.1143	32.2266	73.9789	32.2266	76.0756	32.2266	73.9968	32.2266	75.9976	32.2266	74.0409	32.2266	75.884	32.2266	74.1112	32.2266	75.7402	32.2266	74.2073	32.2266	75.5729	32.2266	74.3281	32.2266	75.3893	32.2266	74.4716	32.2266	75.1969	32.2266	74.6347	32.2266	75.0028	32.2266	74.8134
33.6914	77.0456	33.6914	76.8676	33.6914	77.2262	33.6914	76.6968	33.6914	77.4038	33.6914	76.5376	33.6914	77.5724	33.6914	76.3931	33.6914	77.7255	33.6914	76.2662	33.6914	77.8568	33.6914	76.1589	33.6914	77.9599	33.6914	76.0729	33.6914	78.0297	33.6914	76.0096	33.6914	78.062	33.6914	75.9698	33.6914	78.0544	33.6914	75.9544	33.6914	78.0065	33.6914	75.9639	33.6914	77.9201	33.6914	75.9989	33.6914	77.7991	33.6914	76.0596	33.6914	77.6492	33.6914	76.1459	33.6914	77.4772	33.6914	76.257	33.6914	77.2909	33.6914	76.3914	33.6914	77.0978	33.6914	76.5468	33.6914	76.9051	33.6914	76.7196
35.1562	79.1362	35.1562	78.9621	35.1562	79.3112	35.1562	78.7934	35.1562	79.4819	35.1562	78.6342	35.1562	79.6425	35.1562	78.4877	35.1562	79.7872	35.1562	78.3567	35.1562	79.9097	35.1562	78.2435	35.1562	80.0042	35.1562	78.15	35.1562	80.0659	35.1562	78.0778	35.1562	80.0907	35.1562	78.0282	35.1562	80.0764	35.1562	78.0024	35.1562	80.0227	35.1562	78.0014	35.1562	79.9312	35.1562	78.026	35.1562	79.8057	35.1562	78.0769	35.1562	79.6517	35.1562	78.1544	35.1562	79.4761	35.1562	78.2581	35.1562	79.2864	35.1562	78.3871	35.1562	79.0906	35.1562	78.5391	35.1562	78.8963	35.1562	78.7104
36.6211	80.974	36.6211	80.806	36.6211	81.143	36.6211	80.6437	36.6211	81.308	36.6211	80.4911	36.6211	81.4633	36.6211	80.3516	36.6211	81.6029	36.6211	80.2279	36.6211	81.7212	36.6211	80.122	36.6211	81.8124	36.6211	80.0355	36.6211	81.8718	36.6211	79.9697	36.6211	81.8958	36.6211	79.9253	36.6211	81.8821	36.6211	79.903	36.6211	81.8305	36.6211	79.9035	36.6211	81.7425	36.6211	79.9272	36.6211	81.6218	36.6211	79.9749	36.6211	81.4735	36.6211	80.0469	36.6211	81.3044	36.6211	80.1435	36.6211	81.1217	36.6211	80.2642	36.6211	80.9334	36.6211	80.4072	36.6211	80.7471	36.6211	80.5697
38.0859	82.6782	38.0859	82.5367	38.0859	82.8202	38.0859	82.3997	38.0859	82.9585	38.0859	82.2707	38.0859	83.0882	38.0859	82.1528	38.0859	83.2046	38.0859	82.0484	38.0859	83.3028	38.0859	81.9598	38.0859	83.3782	38.0859	81.8885	38.0859	83.427	38.0859	81.8358	38.0859	83.4463	38.0859	81.8026	38.0859	83.4347	38.0859	81.7893	38.0859	83.3922	38.0859	81.7962	38.0859	83.3206	38.0859	81.8234	38.0859	83.2231	38.0859	81.8708	38.0859	83.1043	38.0859	81.9378	38.0859	82.9693	38.0859	82.0239	38.0859	82.8239	38.0859	82.1278	38.0859	82.6739	38.0859	82.2478	38.0859	82.5247	38.0859	82.3812
39.5508	83.288	39.5508	83.1445	39.5508	83.4309	39.5508	83.0043	39.5508	83.5688	39.5508	82.8713	39.5508	83.6968	39.5508	82.7484	39.5508	83.8103	39.5508	82.6386	39.5508	83.9042	39.5508	82.544	39.5508	83.9743	39.5508	82.4666	39.5508	84.0166	39.5508	82.4079	39.5508	84.0285	39.5508	82.3689	39.5508	84.0087	39.5508	82.3503	39.5508	83.9576	39.5508	82.3523	39.5508	83.8774	39.5508	82.375	39.5508	83.7717	39.5508	82.4181	39.5508	83.6455	39.5508	82.4811	39.5508	83.5046	39.5508	82.5632	39.5508	83.3551	39.5508	82.6633	39.5508	83.2027	39.5508	82.78	39.5508	83.0531	39.5508	82.9109
41.0156	84.0008	41.0156	83.8499	41.0156	84.1505	41.0156	83.7019	41.0156	84.2942	41.0156	83.5607	41.0156	84.4271	41.0156	83.4296	41.0156	84.5439	41.0156	83.3116	41.0156	84.6398	41.0156	83.2089	41.0156	84.7101	41.0156	83.1235	41.0156	84.751	41.0156	83.057	41.0156	84.7597	41.0156	83.0104	41.0156	84.7351	41.0156	82.9846	41.0156	84.6777	41.0156	82.9802	41.0156	84.5896	41.0156	82.9974	41.0156	84.4747	41.0156	83.0365	41.0156	84.3381	41.0156	83.0975	41.0156	84.1859	41.0156	83.1801	41.0156	84.0243	41.0156	83.2836	41.0156	83.8599	41.0156	83.4063	41.0156	83.6986	41.0156	83.5459
42.4805	84.9071	42.4805	84.7635	42.4805	85.0497	42.4805	84.6231	42.4805	85.1867	42.4805	84.4898	42.4805	85.3133	42.4805	84.3669	42.4805	85.4247	42.4805	84.2574	42.4805	85.5161	42.4805	84.1635	42.4805	85.5833	42.4805	84.0872	42.4805	85.6229	42.4805	84.0296	42.4805	85.6324	42.4805	83.9918	42.4805	85.611	42.4805	83.9741	42.4805	85.5593	42.4805	83.9768	42.4805	85.4794	42.4805	83.9998	42.4805	85.3752	42.4805	84.0427	42.4805	85.2513	42.4805	84.1053	42.4805	85.1132	42.4805	84.1866	42.4805	84.9667	42.4805	84.2858	42.4805	84.8174	42.4805	84.4011	42.4805	84.6704	42.4805	84.5303
43.9453	85.5949	43.9453	85.4593	43.9453	85.7282	43.9453	85.3257	43.9453	85.8552	43.9453	85.1976	43.9453	85.9712	43.9453	85.0785	43.9453	86.0719	43.9453	84.9712	43.9453	86.1529	43.9453	84.8782	43.9453	86.2104	43.9453	84.8016	43.9453	86.2414	43.9453	84.7428	43.9453	86.2438	43.9453	84.7031	43.9453	86.2171	43.9453	84.683	43.9453	86.1623	43.9453	84.6827	43.9453	86.0816	43.9453	84.702	43.9453	85.9791	43.9453	84.7405	43.9453	85.8594	43.9453	84.7974	43.9453	85.7279	43.9453	84.8718	43.9453	85.5899	43.9453	84.9625	43.9453	85.4508	43.9453	85.068	43.9453	85.3149	43.9453	85.1863
45.4102	85.8801	45.4102	85.7502	45.4102	86.0067	45.4102	85.6211	45.4102	86.1261	45.4102	85.4963	45.4102	86.234	45.4102	85.3792	45.4102	86.3264	45.4102	85.2727	45.4102	86.3994	45.4102	85.1796	45.4102	86.4494	45.4102	85.1019	45.4102	86.4738	45.4102	85.0416	45.4102	86.471	45.4102	85	45.4102	86.4407	45.4102	84.9778	45.4102	86.3842	45.4102	84.9753	45.4102	86.3039	45.4102	84.9925	45.4102	86.2038	45.4102	85.0286	45.4102	86.0884	45.4102	85.0827	45.4102	85.963	45.4102	85.1537	45.4102	85.8323	45.4102	85.2401	45.4102	85.701	45.4102	85.3401	45.4102	85.5731	45.4102	85.4519
46.875	86.0095	46.875	85.8765	46.875	86.1376	46.875	85.7428	46.875	86.2567	46.875	85.612	46.875	86.3626	46.875	85.4878	46.875	86.4511	46.875	85.3731	46.875	86.5182	46.875	85.2708	46.875	86.5608	46.875	85.1833	46.875	86.5761	46.875	85.1124	46.875	86.5627	46.875	85.0597	46.875	86.5206	46.875	85.0261	46.875	86.4511	46.875	85.0121	46.875	86.3572	46.875	85.0179	46.875	86.2431	46.875	85.0431	46.875	86.1142	46.875	85.0874	46.875	85.976	46.875	85.1499	46.875	85.8342	46.875	85.2297	46.875	85.6943	46.875	85.3259	46.875	85.5606	46.875	85.4368
48.3398	86.1875	48.3398	86.049	48.3398	86.3195	48.3398	85.9082	48.3398	86.4408	48.3398	85.7691	48.3398	86.5472	48.3398	85.6354	48.3398	86.6346	48.3398	85.5103	48.3398	86.6994	48.3398	85.3968	48.3398	86.7383	48.3398	85.2972	48.3398	86.7489	48.3398	85.2134	48.3398	86.7298	48.3398	85.1472	48.3398	86.6808	48.3398	85.0997	48.3398	86.6033	48.3398	85.0721	48.3398	86.5	48.3398	85.0652	48.3398	86.3749	48.3398	85.0798	48.3398	86.2331	48.3398	85.1166	48.3398	86.0805	48.3398	85.1757	48.3398	85.9231	48.3398	85.2569	48.3398	85.767	48.3398	85.3592	48.3398	85.6178	48.3398	85.4805
51.2695	86.1109	51.2695	85.9864	51.2695	86.2321	51.2695	85.8629	51.2695	86.3459	51.2695	85.7443	51.2695	86.4479	51.2695	85.634	51.2695	86.5341	51.2695	85.5351	51.2695	86.6011	51.2695	85.4499	51.2695	86.6458	51.2695	85.3803	51.2695	86.6661	51.2695	85.3275	51.2695	86.661	51.2695	85.2924	51.2695	86.6308	51.2695	85.2751	51.2695	86.5766	51.2695	85.2756	51.2695	86.5012	51.2695	85.2934	51.2695	86.408	51.2695	85.3278	51.2695	86.3013	51.2695	85.3779	51.2695	86.1854	51.2695	85.4428	51.2695	86.0649	51.2695	85.5215	51.2695	85.9439	51.2695	85.6128	51.2695	85.8262	51.2695	85.715
52.7344	85.9893	52.7344	85.8676	52.7344	86.1069	52.7344	85.7457	52.7344	86.2163	52.7344	85.6274	52.7344	86.3136	52.7344	85.5165	52.7344	86.3952	52.7344	85.4162	52.7344	86.4577	52.7344	85.3296	52.7344	86.4987	52.7344	85.2592	52.7344	86.5164	52.7344	85.2068	52.7344	86.5102	52.7344	85.1739	52.7344	86.4807	52.7344	85.1608	52.7344	86.4296	52.7344	85.1674	52.7344	86.3596	52.7344	85.1928	52.7344	86.2743	52.7344	85.2356	52.7344	86.1773	52.7344	85.2939	52.7344	86.0727	52.7344	85.3655	52.7344	85.9639	52.7344	85.4485	52.7344	85.8539	52.7344	85.5407	52.7344	85.7453	52.7344	85.6403
54.1992	85.9413	54.1992	85.818	54.1992	86.0587	54.1992	85.6929	54.1992	86.1662	54.1992	85.57	54.1992	86.2598	54.1992	85.4533	54.1992	86.3361	54.1992	85.3466	54.1992	86.392	54.1992	85.2535	54.1992	86.4254	54.1992	85.1771	54.1992	86.4352	54.1992	85.12	54.1992	86.4216	54.1992	85.0841	54.1992	86.3856	54.1992	85.0701	54.1992	86.3298	54.1992	85.0779	54.1992	86.2575	54.1992	85.1064	54.1992	86.1724	54.1992	85.1534	54.1992	86.0782	54.1992	85.2163	54.1992	85.9785	54.1992	85.2921	54.1992	85.8759	54.1992	85.3779	54.1992	85.7725	54.1992	85.4708	54.1992	85.6696	54.1992	85.5686
55.6641	85.9944	55.6641	85.8755	55.6641	86.1027	55.6641	85.7495	55.6641	86.1969	55.6641	85.6205	55.6641	86.2737	55.6641	85.4925	55.6641	86.3305	55.6641	85.37	55.6641	86.3649	55.6641	85.2572	55.6641	86.3755	55.6641	85.1581	55.6641	86.3617	55.6641	85.0762	55.6641	86.324	55.6641	85.0145	55.6641	86.2641	55.6641	84.9746	55.6641	86.185	55.6641	84.9573	55.6641	86.0906	55.6641	84.9621	55.6641	85.9853	55.6641	84.9877	55.6641	85.8736	55.6641	85.0316	55.6641	85.7599	55.6641	85.091	55.6641	85.6473	55.6641	85.1632	55.6641	85.5383	55.6641	85.2457	55.6641	85.4343	55.6641	85.3365
58.5938	85.9075	58.5938	85.7853	58.5938	86.0192	58.5938	85.6564	58.5938	86.1168	58.5938	85.5247	58.5938	86.1969	58.5938	85.3941	58.5938	86.2566	58.5938	85.2685	58.5938	86.2934	58.5938	85.1514	58.5938	86.3052	58.5938	85.0458	58.5938	86.2909	58.5938	84.9543	58.5938	86.2501	58.5938	84.8785	58.5938	86.1836	58.5938	84.8199	58.5938	86.0935	58.5938	84.7791	58.5938	85.9828	58.5938	84.7569	58.5938	85.8558	58.5938	84.7536	58.5938	85.7173	58.5938	84.7699	58.5938	85.5726	58.5938	84.8065	58.5938	85.4272	58.5938	84.8639	58.5938	85.2868	58.5938	84.9422	58.5938	85.1564	58.5938	85.0404
60.0586	85.8884	60.0586	85.7693	60.0586	85.998	60.0586	85.6449	60.0586	86.0942	60.0586	85.5194	60.0586	86.1734	60.0586	85.3969	60.0586	86.2323	60.0586	85.2812	60.0586	86.2686	60.0586	85.1755	60.0586	86.2805	60.0586	85.0826	60.0586	86.2673	60.0586	85.0046	60.0586	86.2292	60.0586	84.943	60.0586	86.1677	60.0586	84.8986	60.0586	86.0852	60.0586	84.8718	60.0586	85.9851	60.0586	84.8624	60.0586	85.8714	60.0586	84.87	60.0586	85.7487	60.0586	84.8944	60.0586	85.6215	60.0586	84.9353	60.0586	85.4946	60.0586	84.9927	60.0586	85.3721	60.0586	85.0662	60.0586	85.2579	60.0586	85.1551
62.9883	85.8362	62.9883	85.7321	62.9883	85.9281	62.9883	85.6191	62.9883	86.0047	62.9883	85.501	62.9883	86.0632	62.9883	85.3814	62.9883	86.1015	62.9883	85.2641	62.9883	86.118	62.9883	85.1528	62.9883	86.1115	62.9883	85.0508	62.9883	86.082	62.9883	84.9609	62.9883	86.03	62.9883	84.8857	62.9883	85.9574	62.9883	84.8269	62.9883	85.8667	62.9883	84.7857	62.9883	85.7617	62.9883	84.7628	62.9883	85.6468	62.9883	84.758	62.9883	85.5265	62.9883	84.7711	62.9883	85.4054	62.9883	84.8013	62.9883	85.2876	62.9883	84.8477	62.9883	85.1767	62.9883	84.9095	62.9883	85.0754	62.9883	84.9858
64.4531	85.701	64.4531	85.5967	64.4531	85.7935	64.4531	85.4835	64.4531	85.8713	64.4531	85.3649	64.4531	85.9319	64.4531	85.2444	64.4531	85.9731	64.4531	85.1257	64.4531	85.9931	64.4531	85.0122	64.4531	85.9905	64.4531	84.9076	64.4531	85.9649	64.4531	84.8149	64.4531	85.9164	64.4531	84.7365	64.4531	85.8464	64.4531	84.6746	64.4531	85.7572	64.4531	84.6305	64.4531	85.6521	64.4531	84.605	64.4531	85.5352	64.4531	84.5983	64.4531	85.4111	64.4531	84.6103	64.4531	85.2844	64.4531	84.6407	64.4531	85.1597	64.4531	84.689	64.4531	85.0411	64.4531	84.7544	64.4531	84.9323	64.4531	84.836
67.3828	85.5524	67.3828	85.4431	67.3828	85.6522	67.3828	85.3279	67.3828	85.7394	67.3828	85.2101	67.3828	85.8111	67.3828	85.0935	67.3828	85.8646	67.3828	84.9818	67.3828	85.8979	67.3828	84.8787	67.3828	85.9094	67.3828	84.7875	67.3828	85.8985	67.3828	84.711	67.3828	85.8656	67.3828	84.6515	67.3828	85.812	67.3828	84.6103	67.3828	85.7401	67.3828	84.5882	67.3828	85.6531	67.3828	84.5852	67.3828	85.5544	67.3828	84.6008	67.3828	85.4479	67.3828	84.6338	67.3828	85.3371	67.3828	84.6831	67.3828	85.2254	67.3828	84.7472	67.3828	85.1157	67.3828	84.8244	67.3828	85.0107	67.3828	84.9129
68.8477	85.539	68.8477	85.425	68.8477	85.6439	68.8477	85.3058	68.8477	85.736	68.8477	85.1853	68.8477	85.812	68.8477	85.0674	68.8477	85.869	68.8477	84.9562	68.8477	85.9048	68.8477	84.8551	68.8477	85.9179	68.8477	84.7676	68.8477	85.9078	68.8477	84.6963	68.8477	85.8753	68.8477	84.6432	68.8477	85.8222	68.8477	84.6095	68.8477	85.7512	68.8477	84.5956	68.8477	85.6658	68.8477	84.6011	68.8477	85.5699	68.8477	84.6248	68.8477	85.4673	68.8477	84.6652	68.8477	85.3614	68.8477	84.7205	68.8477	85.2552	68.8477	84.7885	68.8477	85.1508	68.8477	84.8674	68.8477	85.0503	68.8477	84.9553
71.7773	85.6407	71.7773	85.5333	71.7773	85.7379	71.7773	85.4197	71.7773	85.8214	71.7773	85.304	71.7773	85.888	71.7773	85.1905	71.7773	85.9354	71.7773	85.0832	71.7773	85.9619	71.7773	84.9858	71.7773	85.9668	71.7773	84.9016	71.7773	85.9501	71.7773	84.8332	71.7773	85.9131	71.7773	84.7821	71.7773	85.8579	71.7773	84.7493	71.7773	85.7874	71.7773	84.7347	71.7773	85.7048	71.7773	84.7376	71.7773	85.6135	71.7773	84.7568	71.7773	85.5168	71.7773	84.7908	71.7773	85.4176	71.7773	84.8379	71.7773	85.3186	71.7773	84.8967	71.7773	85.222	71.7773	84.9658	71.7773	85.1299	71.7773	85.044
74.707	85.6291	74.707	85.5271	74.707	85.7209	74.707	85.4188	74.707	85.7987	74.707	85.3087	74.707	85.8596	74.707	85.2009	74.707	85.9012	74.707	85.0997	74.707	85.9221	74.707	85.0088	74.707	85.9218	74.707	84.9314	74.707	85.901	74.707	84.8698	74.707	85.8613	74.707	84.8253	74.707	85.8054	74.707	84.7983	74.707	85.7364	74.707	84.7885	74.707	85.6581	74.707	84.7946	74.707	85.5738	74.707	84.8151	74.707	85.4867	74.707	84.8482	74.707	85.3992	74.707	84.8922	74.707	85.3131	74.707	84.9457	74.707	85.2298	74.707	85.0073	74.707	85.1504	74.707	85.0758
77.6367	85.5886	77.6367	85.4877	77.6367	85.6785	77.6367	85.3798	77.6367	85.7538	77.6367	85.2695	77.6367	85.8117	77.6367	85.1613	77.6367	85.8499	77.6367	85.0599	77.6367	85.8675	77.6367	84.9695	77.6367	85.8645	77.6367	84.8937	77.6367	85.8419	77.6367	84.8354	77.6367	85.8019	77.6367	84.796	77.6367	85.7477	77.6367	84.7762	77.6367	85.6829	77.6367	84.7751	77.6367	85.6113	77.6367	84.7911	77.6367	85.5363	77.6367	84.8217	77.6367	85.4604	77.6367	84.8642	77.6367	85.3854	77.6367	84.9157	77.6367	85.312	77.6367	84.9739	77.6367	85.2403	77.6367	85.0366	77.6367	85.1705	77.6367	85.1024
79.1016	85.5888	79.1016	85.4863	79.1016	85.6803	79.1016	85.3767	79.1016	85.757	79.1016	85.2646	79.1016	85.816	79.1016	85.1547	79.1016	85.8551	79.1016	85.0514	79.1016	85.8731	79.1016	84.9591	79.1016	85.8699	79.1016	84.8815	79.1016	85.8465	79.1016	84.8215	79.1016	85.8054	79.1016	84.7809	79.1016	85.7497	79.1016	84.7604	79.1016	85.6834	79.1016	84.7594	79.1016	85.6106	79.1016	84.7764	79.1016	85.5348	79.1016	84.8088	79.1016	85.4587	79.1016	84.8538	79.1016	85.384	79.1016	84.9082	79.1016	85.3112	79.1016	84.9691	79.1016	85.2401	79.1016	85.0342	79.1016	85.1703	79.1016	85.1016
82.0312	85.743	82.0312	85.6417	82.0312	85.831	82.0312	85.5312	82.0312	85.9018	82.0312	85.4163	82.0312	85.9524	82.0312	85.3018	82.0312	85.9806	82.0312	85.1924	82.0312	85.9853	82.0312	85.0925	82.0312	85.9666	82.0312	85.0057	82.0312	85.9259	82.0312	84.9349	82.0312	85.8658	82.0312	84.8819	82.0312	85.7902	82.0312	84.8473	82.0312	85.7038	82.0312	84.8307	82.0312	85.6116	82.0312	84.8308	82.0312	85.5182	82.0312	84.8456	82.0312	85.4274	82.0312	84.8727	82.0312	85.3418	82.0312	84.9098	82.0312	85.2625	82.0312	84.9546	82.0312	85.1898	82.0312	85.0056	82.0312	85.1231	82.0312	85.0619
84.9609	85.6349	84.9609	85.5336	84.9609	85.7251	84.9609	85.4254	84.9609	85.8003	84.9609	85.3152	84.9609	85.8577	84.9609	85.2077	84.9609	85.895	84.9609	85.1077	84.9609	85.9113	84.9609	85.0193	84.9609	85.9065	84.9609	84.9459	84.9609	85.882	84.9609	84.8898	84.9609	85.84	84.9609	84.8521	84.9609	85.7833	84.9609	84.8326	84.9609	85.7156	84.9609	84.83	84.9609	85.6403	84.9609	84.842	84.9609	85.5605	84.9609	84.8663	84.9609	85.479	84.9609	84.9004	84.9609	85.3979	84.9609	84.9424	84.9609	85.3188	84.9609	84.9909	84.9609	85.2431	84.9609	85.0455	84.9609	85.1719	84.9609	85.1059
87.8906	85.7148	87.8906	85.6092	87.8906	85.8045	87.8906	85.4924	87.8906	85.8741	87.8906	85.37	87.8906	85.9208	87.8906	85.2477	87.8906	85.943	87.8906	85.1317	87.8906	85.9406	87.8906	85.0273	87.8906	85.9151	87.8906	84.9395	87.8906	85.8695	87.8906	84.8723	87.8906	85.8082	87.8906	84.8279	87.8906	85.7365	87.8906	84.8072	87.8906	85.66	87.8906	84.8091	87.8906	85.5838	87.8906	84.8312	87.8906	85.5117	87.8906	84.8699	87.8906	85.4455	87.8906	84.9207	87.8906	85.3854	87.8906	84.9793	87.8906	85.3296	87.8906	85.0414	87.8906	85.2757	87.8906	85.1037	87.8906	85.221	87.8906	85.1639
90.8203	85.7379	90.8203	85.6355	90.8203	85.8235	90.8203	85.5208	90.8203	85.8885	90.8203	85.3994	90.8203	85.9303	90.8203	85.2772	90.8203	85.9475	90.8203	85.1603	90.8203	85.94	90.8203	85.0546	90.8203	85.9091	90.8203	84.9654	90.8203	85.8578	90.8203	84.897	90.8203	85.7904	90.8203	84.8518	90.8203	85.7125	90.8203	84.8308	90.8203	85.6299	90.8203	84.8327	90.8203	85.5484	90.8203	84.8546	90.8203	85.4726	90.8203	84.8923	90.8203	85.4051	90.8203	84.9408	90.8203	85.3465	90.8203	84.9952	90.8203	85.2952	90.8203	85.051	90.8203	85.2484	90.8203	85.105	90.8203	85.2028	90.8203	85.1555
95.2148	85.8647	95.2148	85.7478	95.2148	85.9618	95.2148	85.6165	95.2148	86.0346	95.2148	85.4771	95.2148	86.08	95.2148	85.336	95.2148	86.0964	95.2148	85.1998	95.2148	86.0836	95.2148	85.0748	95.2148	86.043	95.2148	84.966	95.2148	85.9778	95.2148	84.8778	95.2148	85.8926	95.2148	84.8128	95.2148	85.7931	95.2148	84.7722	95.2148	85.6859	95.2148	84.7553	95.2148	85.5773	95.2148	84.76	95.2148	85.4731	95.2148	84.7829	95.2148	85.3773	95.2148	84.82	95.2148	85.2918	95.2148	84.8667	95.2148	85.2165	95.2148	84.9191	95.2148	85.1497	95.2148	84.9743	95.2148	85.0886	95.2148	85.0307
98.1445	86.0974	98.1445	86.0022	98.1445	86.1702	98.1445	85.8886	98.1445	86.2173	98.1445	85.7616	98.1445	86.2368	98.1445	85.627	98.1445	86.2281	98.1445	85.4906	98.1445	86.1919	98.1445	85.3586	98.1445	86.1303	98.1445	85.2365	98.1445	86.0466	98.1445	85.1293	98.1445	85.9457	98.1445	85.0408	98.1445	85.8333	98.1445	84.9737	98.1445	85.7156	98.1445	84.9289	98.1445	85.5989	98.1445	84.9059	98.1445	85.4884	98.1445	84.9023	98.1445	85.3883	98.1445	84.9151	98.1445	85.3006	98.1445	84.9402	98.1445	85.2255	98.1445	84.974	98.1445	85.1616	98.1445	85.0137	98.1445	85.1065	98.1445	85.0578
101.074	86.0607	101.074	85.9848	101.074	86.1154	101.074	85.8913	101.074	86.1462	101.074	85.7846	101.074	86.1514	101.074	85.6693	101.074	86.1308	101.074	85.5506	101.074	86.0852	101.074	85.4335	101.074	86.0171	101.074	85.3226	101.074	85.9303	101.074	85.2222	101.074	85.8299	101.074	85.1358	101.074	85.7217	101.074	85.066	101.074	85.6119	101.074	85.0144	101.074	85.5062	101.074	84.9813	101.074	85.409	101.074	84.9656	101.074	85.3233	101.074	84.9652	101.074	85.2502	101.074	84.9771	101.074	85.189	101.074	84.9982	101.074	85.1382	101.074	85.0257	101.074	85.0952	101.074	85.0581
105.469	85.9074	105.469	85.8155	105.469	85.9798	105.469	85.7095	105.469	86.0282	105.469	85.5959	105.469	86.05	105.469	85.4816	105.469	86.0442	105.469	85.3733	105.469	86.0116	105.469	85.277	105.469	85.9548	105.469	85.1971	105.469	85.8784	105.469	85.136	105.469	85.7883	105.469	85.0941	105.469	85.6917	105.469	85.0701	105.469	85.5955	105.469	85.0613	105.469	85.5061	105.469	85.0642	105.469	85.4277	105.469	85.0756	105.469	85.3625	105.469	85.0924	105.469	85.3103	105.469	85.1126	105.469	85.2688	105.469	85.1346	105.469	85.2354	105.469	85.1577	105.469	85.2071	105.469	85.1816
108.398	85.9965	108.398	85.8937	108.398	86.076	108.398	85.7733	108.398	86.128	108.398	85.642	108.398	86.1499	108.398	85.5075	108.398	86.1408	108.398	85.3777	108.398	86.1017	108.398	85.2598	108.398	86.0356	108.398	85.1602	108.398	85.9474	108.398	85.0833	108.398	85.8438	108.398	85.031	108.398	85.7327	108.398	85.0031	108.398	85.6223	108.398	84.9969	108.398	85.5202	108.398	85.0083	108.398	85.4323	108.398	85.0321	108.398	85.3614	108.398	85.0633	108.398	85.3075	108.398	85.0973	108.398	85.2678	108.398	85.1306	108.398	85.2378	108.398	85.161	108.398	85.2126	108.398	85.188
112.793	85.9688	112.793	85.8731	112.793	86.0427	112.793	85.7608	112.793	86.0911	112.793	85.6387	112.793	86.1122	112.793	85.5141	112.793	86.1061	112.793	85.395	112.793	86.0743	112.793	85.2886	112.793	86.0204	112.793	85.2008	112.793	85.949	112.793	85.1355	112.793	85.866	112.793	85.0941	112.793	85.7778	112.793	85.0755	112.793	85.6906	112.793	85.0767	112.793	85.6098	112.793	85.0935	112.793	85.539	112.793	85.1211	112.793	85.4796	112.793	85.1551	112.793	85.4313	112.793	85.1917	112.793	85.3917	112.793	85.2283	112.793	85.358	112.793	85.2632	112.793	85.3269	112.793	85.2958
117.188	85.8247	117.188	85.7125	117.188	85.9108	117.188	85.5805	117.188	85.9664	117.188	85.4367	117.188	85.9889	117.188	85.2907	117.188	85.978	117.188	85.153	117.188	85.9352	117.188	85.034	117.188	85.8647	117.188	84.9431	117.188	85.7731	117.188	84.8867	117.188	85.6696	117.188	84.8676	117.188	85.5652	117.188	84.8841	117.188	85.4712	117.188	84.9307	117.188	85.3976	117.188	84.999	117.188	85.3501	117.188	85.0792	117.188	85.3296	117.188	85.1615	117.188	85.3311	117.188	85.2371	117.188	85.3457	117.188	85.2994	117.188	85.3629	117.188	85.3435	117.188	85.3727	117.188	85.3677
120.117	86.0222	120.117	85.9005	120.117	86.1172	120.117	85.7586	120.117	86.1805	120.117	85.6044	120.117	86.2086	120.117	85.4468	120.117	86.1996	120.117	85.2955	120.117	86.1541	120.117	85.1605	120.117	86.0747	120.117	85.0506	120.117	85.9668	120.117	84.9726	120.117	85.8388	120.117	84.9301	120.117	85.7014	120.117	84.923	120.117	85.5669	120.117	84.947	120.117	85.4478	120.117	84.9946	120.117	85.3543	120.117	85.0563	120.117	85.2918	120.117	85.1221	120.117	85.2603	120.117	85.1826	120.117	85.2533	120.117	85.2304	120.117	85.2608	120.117	85.261	120.117	85.271	120.117	85.2735
124.512	86.0317	124.512	85.9063	124.512	86.1268	124.512	85.7572	124.512	86.1867	124.512	85.5925	124.512	86.208	124.512	85.4212	124.512	86.1892	124.512	85.2533	124.512	86.1315	124.512	85.0992	124.512	86.0383	124.512	84.9687	124.512	85.9159	124.512	84.8699	124.512	85.7734	124.512	84.8078	124.512	85.6221	124.512	84.7836	124.512	85.4748	124.512	84.794	124.512	85.3438	124.512	84.832	124.512	85.2394	124.512	84.8881	124.512	85.1671	124.512	84.9516	124.512	85.1267	124.512	85.0124	124.512	85.1118	124.512	85.0626	124.512	85.1124	124.512	85.0968	124.512	85.1166	124.512	85.1138
128.906	86.1742	128.906	86.0497	128.906	86.2636	128.906	85.8964	128.906	86.3131	128.906	85.7222	128.906	86.3199	128.906	85.536	128.906	86.2833	128.906	85.3475	128.906	86.2047	128.906	85.1667	128.906	86.0876	128.906	85.0032	128.906	85.9378	128.906	84.8659	128.906	85.7636	128.906	84.7614	128.906	85.5757	128.906	84.6934	128.906	85.3866	128.906	84.6616	128.906	85.2104	128.906	84.6617	128.906	85.0603	128.906	84.6861	128.906	84.9463	128.906	84.7245	128.906	84.8726	128.906	84.766	128.906	84.8356	128.906	84.8012	128.906	84.8256	128.906	84.8234	128.906	84.8286	128.906	84.8311
133.301	86.0608	133.301	85.934	133.301	86.1546	133.301	85.7804	133.301	86.2113	133.301	85.6083	133.301	86.2287	133.301	85.4269	133.301	86.2069	133.301	85.2466	133.301	86.1478	133.301	85.0773	133.301	86.0551	133.301	84.9279	133.301	85.9338	133.301	84.8054	133.301	85.7903	133.301	84.7141	133.301	85.6322	133.301	84.655	133.301	85.4676	133.301	84.6264	133.301	85.3055	133.301	84.6233	133.301	85.1551	133.301	84.639	133.301	85.0251	133.301	84.6655	133.301	84.9218	133.301	84.695	133.301	84.8478	133.301	84.7212	133.301	84.8008	133.301	84.7414	133.301	84.7737	133.301	84.7569
139.16	85.7747	139.16	85.652	139.16	85.8614	139.16	85.4992	139.16	85.9096	139.16	85.3252	139.16	85.9192	139.16	85.1419	139.16	85.8926	139.16	84.9632	139.16	85.834	139.16	84.8032	139.16	85.7495	139.16	84.6741	139.16	85.6464	139.16	84.584	139.16	85.5333	139.16	84.5357	139.16	85.4188	139.16	84.5262	139.16	85.3108	139.16	84.548	139.16	85.2148	139.16	84.5914	139.16	85.1338	139.16	84.6463	139.16	85.0681	139.16	84.7039	139.16	85.0159	139.16	84.7581	139.16	84.9743	139.16	84.8056	139.16	84.94	139.16	84.8455	139.16	84.9096	139.16	84.8793
143.555	85.6682	143.555	85.5165	143.555	85.7864	143.555	85.3387	143.555	85.8657	143.555	85.1443	143.555	85.9027	143.555	84.945	143.555	85.896	143.555	84.7552	143.555	85.8473	143.555	84.5902	143.555	85.7611	143.555	84.4653	143.555	85.6459	143.555	84.392	143.555	85.5136	143.555	84.3757	143.555	85.3791	143.555	84.4137	143.555	85.2577	143.555	84.4953	143.555	85.1627	143.555	84.605	143.555	85.1014	143.555	84.7258	143.555	85.0742	143.555	84.8426	143.555	85.074	143.555	84.9443	143.555	85.0891	143.555	85.024	143.555	85.107	143.555	85.0788	143.555	85.1162	143.555	85.1086
147.949	86.1168	147.949	85.9627	147.949	86.2314	147.949	85.7747	147.949	86.3017	147.949	85.5595	147.949	86.3236	147.949	85.3254	147.949	86.2947	147.949	85.083	147.949	86.2143	147.949	84.8453	147.949	86.0849	147.949	84.6281	147.949	85.9123	147.949	84.4477	147.949	85.7069	147.949	84.3186	147.949	85.4836	147.949	84.2499	147.949	85.2612	147.949	84.2423	147.949	85.0603	147.949	84.2874	147.949	84.8995	147.949	84.3698	147.949	84.7905	147.949	84.4702	147.949	84.734	147.949	84.5699	147.949	84.7195	147.949	84.6534	147.949	84.7287	147.949	84.7109	147.949	84.741	147.949	84.7388
153.809	86.0179	153.809	85.873	153.809	86.1175	153.809	85.6896	153.809	86.1676	153.809	85.4774	153.809	86.1673	153.809	85.2478	153.809	86.1189	153.809	85.014	153.809	86.0272	153.809	84.7899	153.809	85.8996	153.809	84.5888	153.809	85.7449	153.809	84.4224	153.809	85.5728	153.809	84.2988	153.809	85.3934	153.809	84.2218	153.809	85.2167	153.809	84.1902	153.809	85.0524	153.809	84.1982	153.809	84.9086	153.809	84.2365	153.809	84.7913	153.809	84.2942	153.809	84.7025	153.809	84.3598	153.809	84.6396	153.809	84.4236	153.809	84.5954	153.809	84.479	153.809	84.56	153.809	84.5236
159.668	86.1065	159.668	85.9558	159.668	86.2092	159.668	85.7622	159.668	86.2615	159.668	85.5337	159.668	86.2638	159.668	85.2812	159.668	86.2185	159.668	85.0187	159.668	86.1301	159.668	84.7624	159.668	86.0054	159.668	84.5298	159.668	85.8526	159.668	84.3375	159.668	85.6817	159.668	84.199	159.668	85.5038	159.668	84.1217	159.668	85.3306	159.668	84.1055	159.668	85.1735	159.668	84.143	159.668	85.0419	159.668	84.2214	159.668	84.9413	159.668	84.3248	159.668	84.8713	159.668	84.4372	159.668	84.8252	159.668	84.5443	159.668	84.7911	159.668	84.6357	159.668	84.7552	159.668	84.7057
165.527	86.089	165.527	85.9553	165.527	86.1765	165.527	85.7816	165.527	86.2141	165.527	85.5767	165.527	86.2007	165.527	85.3516	165.527	86.1385	165.527	85.1193	165.527	86.0322	165.527	84.8939	165.527	85.8898	165.527	84.69	165.527	85.7215	165.527	84.5211	165.527	85.5397	165.527	84.3977	165.527	85.3575	165.527	84.3258	165.527	85.1875	165.527	84.3055	165.527	85.0411	165.527	84.3309	165.527	84.926	165.527	84.3913	165.527	84.846	165.527	84.4726	165.527	84.7993	165.527	84.5599	165.527	84.7782	165.527	84.6399	165.527	84.7708	165.527	84.7025	165.527	84.7632	165.527	84.7431
171.387	85.9193	171.387	85.7597	171.387	86.0287	171.387	85.5577	171.387	86.0839	171.387	85.3248	171.387	86.0845	171.387	85.0759	171.387	86.0332	171.387	84.8281	171.387	85.9357	171.387	84.5995	171.387	85.8	171.387	84.4068	171.387	85.6364	171.387	84.263	171.387	85.4567	171.387	84.1757	171.387	85.2741	171.387	84.1459	171.387	85.1021	171.387	84.1685	171.387	84.9535	171.387	84.2333	171.387	84.8387	171.387	84.3269	171.387	84.7637	171.387	84.434	171.387	84.7275	171.387	84.5395	171.387	84.7218	171.387	84.63	171.387	84.7317	171.387	84.6954	171.387	84.74	171.387	84.7312
177.246	85.9067	177.246	85.75	177.246	86.0077	177.246	85.5427	177.246	86.0511	177.246	85.294	177.246	86.0382	177.246	85.018	177.246	85.9732	177.246	84.7336	177.246	85.863	177.246	84.4641	177.246	85.7168	177.246	84.2349	177.246	85.5462	177.246	84.0691	177.246	85.364	177.246	83.9818	177.246	85.1837	177.246	83.9763	177.246	85.0182	177.246	84.0428	177.246	84.8791	177.246	84.1617	177.246	84.7753	177.246	84.3083	177.246	84.712	177.246	84.4582	177.246	84.6888	177.246	84.5906	177.246	84.6985	177.246	84.6906	177.246	84.7274	177.246	84.7503	177.246	84.7574	177.246	84.7699
183.105	85.9586	183.105	85.8136	183.105	86.0479	183.105	85.6173	183.105	86.0798	183.105	85.3767	183.105	86.0552	183.105	85.1022	183.105	85.9779	183.105	84.8075	183.105	85.8543	183.105	84.511	183.105	85.6937	183.105	84.2348	183.105	85.5079	183.105	84.0036	183.105	85.3105	183.105	83.8404	183.105	85.1157	183.105	83.761	183.105	84.9371	183.105	83.7682	183.105	84.7861	183.105	83.8502	183.105	84.6708	183.105	83.9835	183.105	84.5949	183.105	84.1394	183.105	84.5567	183.105	84.2905	183.105	84.5483	183.105	84.4155	183.105	84.5561	183.105	84.5025	183.105	84.5623	183.105	84.5492
188.965	86.0199	188.965	85.8734	188.965	86.109	188.965	85.6759	188.965	86.1368	188.965	85.4361	188.965	86.1023	188.965	85.1648	188.965	86.008	188.965	84.8756	188.965	85.8603	188.965	84.584	188.965	85.6705	188.965	84.3073	188.965	85.4538	188.965	84.0637	188.965	85.2281	188.965	83.8703	188.965	85.0121	188.965	83.7411	188.965	84.822	188.965	83.6838	188.965	84.6694	188.965	83.6977	188.965	84.5592	188.965	83.7724	188.965	84.4897	188.965	83.8894	188.965	84.4532	188.965	84.026	188.965	84.4369	188.965	84.1595	188.965	84.4251	188.965	84.2718	188.965	84.4016	188.965	84.3529
196.289	86.2468	196.289	86.0947	196.289	86.3382	196.289	85.89	196.289	86.3642	196.289	85.644	196.289	86.3235	196.289	85.3712	196.289	86.2181	196.289	85.0886	196.289	86.0542	196.289	84.8145	196.289	85.8423	196.289	84.5671	196.289	85.5973	196.289	84.3622	196.289	85.3386	196.289	84.2112	196.289	85.0884	196.289	84.1194	196.289	84.869	196.289	84.0856	196.289	84.6984	196.289	84.1026	196.289	84.5863	196.289	84.1592	196.289	84.5311	196.289	84.2412	196.289	84.5208	196.289	84.3338	196.289	84.536	196.289	84.4227	196.289	84.5555	196.289	84.4952	196.289	84.5614	196.289	84.5425
203.613	86.1187	203.613	85.9917	203.613	86.1811	203.613	85.8069	203.613	86.1758	203.613	85.5744	203.613	86.1038	203.613	85.3078	203.613	85.9702	203.613	85.0228	203.613	85.7845	203.613	84.7377	203.613	85.5595	203.613	84.4715	203.613	85.3113	203.613	84.2422	203.613	85.0575	203.613	84.0652	203.613	84.8159	203.613	83.9505	203.613	84.6029	203.613	83.9009	203.613	84.4318	203.613	83.9115	203.613	84.3111	203.613	83.9698	203.613	84.244	203.613	84.0578	203.613	84.2262	203.613	84.155	203.613	84.2455	203.613	84.2413	203.613	84.2825	203.613	84.3009	203.613	84.3154	203.613	84.3252
210.938	86.0837	210.938	85.9364	210.938	86.1672	210.938	85.7333	210.938	86.1823	210.938	85.486	210.938	86.1283	210.938	85.2097	210.938	86.0082	210.938	84.9218	210.938	85.829	210.938	84.6409	210.938	85.6019	210.938	84.3847	210.938	85.3427	210.938	84.1675	210.938	85.0713	210.938	83.9997	210.938	84.8099	210.938	83.8866	210.938	84.5807	210.938	83.8296	210.938	84.4025	210.938	83.8265	210.938	84.2864	210.938	83.8714	210.938	84.2336	210.938	83.9536	210.938	84.2333	210.938	84.0571	210.938	84.2648	210.938	84.1627	210.938	84.3022	210.938	84.2507	210.938	84.3213	210.938	84.3057
218.262	85.995	218.262	85.8228	218.262	86.0938	218.262	85.5869	218.262	86.1139	218.262	85.3023	218.262	86.0549	218.262	84.9898	218.262	85.9211	218.262	84.6751	218.262	85.7225	218.262	84.3874	218.262	85.4752	218.262	84.1547	218.262	85.2013	218.262	83.9973	218.262	84.9276	218.262	83.9232	218.262	84.6815	218.262	83.9261	218.262	84.4871	218.262	83.9896	218.262	84.3597	218.262	84.0926	218.262	84.3035	218.262	84.2152	218.262	84.3114	218.262	84.3406	218.262	84.3673	218.262	84.4549	218.262	84.4487	218.262	84.546	218.262	84.5314	218.262	84.6033	218.262	84.5935	218.262	84.6197
225.586	86.2714	225.586	86.0929	225.586	86.3649	225.586	85.8395	225.586	86.3671	225.586	85.526	225.586	86.2755	225.586	85.1729	225.586	86.0923	225.586	84.8066	225.586	85.8252	225.586	84.4591	225.586	85.4898	225.586	84.1646	225.586	85.1112	225.586	83.9529	225.586	84.7255	225.586	83.8429	225.586	84.3772	225.586	83.8374	225.586	84.1128	225.586	83.9226	225.586	83.9683	225.586	84.0739	225.586	83.9567	225.586	84.2619	225.586	84.0621	225.586	84.4581	225.586	84.2455	225.586	84.6367	225.586	84.4575	225.586	84.7753	225.586	84.6518	225.586	84.8554	225.586	84.7937	225.586	84.8634
232.91	86.3389	232.91	86.1416	232.91	86.4493	232.91	85.8668	232.91	86.4663	232.91	85.5282	232.91	86.3863	232.91	85.1456	232.91	86.2083	232.91	84.7461	232.91	85.9348	232.91	84.3638	232.91	85.5733	232.91	84.0358	232.91	85.1389	232.91	83.7947	232.91	84.6571	232.91	83.659	232.91	84.1676	232.91	83.6285	232.91	83.7254	232.91	83.6862	232.91	83.3935	232.91	83.8056	232.91	83.225	232.91	83.9578	232.91	83.2384	232.91	84.1155	232.91	83.4049	232.91	84.2527	232.91	83.6603	232.91	84.345	232.91	83.9317	232.91	84.3697	232.91	84.1599	232.91	84.3099
241.699	86.1047	241.699	85.8729	241.699	86.2487	241.699	85.5622	241.699	86.3005	241.699	85.1877	241.699	86.2593	241.699	84.7715	241.699	86.1276	241.699	84.3439	241.699	85.9103	241.699	83.9424	241.699	85.6149	241.699	83.6069	241.699	85.2515	241.699	83.3708	241.699	84.8349	241.699	83.2509	241.699	84.3859	241.699	83.2419	241.699	83.935	241.699	83.3207	241.699	83.5244	241.699	83.4549	241.699	83.2061	241.699	83.6114	241.699	83.0292	241.699	83.7599	241.699	83.0172	241.699	83.873	241.699	83.1498	241.699	83.9265	241.699	83.3684	241.699	83.9017	241.699	83.6013	241.699	83.7902
250.488	86.6044	250.488	86.3365	250.488	86.7669	250.488	85.9634	250.488	86.8258	250.488	85.4893	250.488	86.7839	250.488	84.9251	250.488	86.645	250.488	84.2947	250.488	86.4147	250.488	83.64	250.488	86.1016	250.488	83.0259	250.488	85.7184	250.488	82.5341	250.488	85.2837	250.488	82.2389	250.488	84.824	250.488	82.1727	250.488	84.3742	250.488	82.3081	250.488	83.9757	250.488	82.5758	250.488	83.6701	250.488	82.8986	250.488	83.4876	250.488	83.2144	250.488	83.4343	250.488	83.4804	250.488	83.4865	250.488	83.6701	250.488	83.5968	250.488	83.7697	250.488	83.7101	250.488	83.7783
259.277	86.5087	259.277	86.2992	259.277	86.6259	259.277	85.9982	259.277	86.6518	259.277	85.609	259.277	86.5885	259.277	85.1405	259.277	86.4401	259.277	84.6114	259.277	86.2117	259.277	84.0556	259.277	85.9103	259.277	83.5247	259.277	85.5445	259.277	83.0833	259.277	85.1267	259.277	82.7915	259.277	84.6765	259.277	82.6809	259.277	84.2262	259.277	82.7412	259.277	83.823	259.277	82.9282	259.277	83.5241	259.277	83.1853	259.277	83.3762	259.277	83.4592	259.277	83.3891	259.277	83.7059	259.277	83.5246	259.277	83.8906	259.277	83.7134	259.277	83.9879	259.277	83.884	259.277	83.9843
268.066	86.355	268.066	86.1449	268.066	86.4662	268.066	85.8352	268.066	86.4813	268.066	85.4272	268.066	86.4059	268.066	84.9257	268.066	86.2483	268.066	84.343	268.066	86.019	268.066	83.7065	268.066	85.73	268.066	83.0675	268.066	85.393	268.066	82.5052	268.066	85.0195	268.066	82.1115	268.066	84.621	268.066	81.9514	268.066	84.2113	268.066	82.0243	268.066	83.8119	268.066	82.2667	268.066	83.4571	268.066	82.59	268.066	83.1925	268.066	82.9166	268.066	83.0585	268.066	83.1907	268.066	83.0644	268.066	83.3769	268.066	83.1738	268.066	83.4566	268.066	83.3188	268.066	83.4296
276.855	86.247	276.855	86.0291	276.855	86.3588	276.855	85.7044	276.855	86.3685	276.855	85.2767	276.855	86.2833	276.855	84.7539	276.855	86.1122	276.855	84.1497	276.855	85.8657	276.855	83.4879	276.855	85.5563	276.855	82.809	276.855	85.1993	276.855	82.1776	276.855	84.8155	276.855	81.6807	276.855	84.4321	276.855	81.4029	276.855	84.0825	276.855	81.3827	276.855	83.8013	276.855	81.5861	276.855	83.6137	276.855	81.9289	276.855	83.5239	276.855	82.3206	276.855	83.5099	276.855	82.6942	276.855	83.5309	276.855	83.0112	276.855	83.5435	276.855	83.2547	276.855	83.5137	276.855	83.421
287.109	86.2255	287.109	86.0795	287.109	86.2736	287.109	85.8349	287.109	86.2262	287.109	85.4921	287.109	86.088	287.109	85.0539	287.109	85.8673	287.109	84.529	287.109	85.5772	287.109	83.9375	287.109	85.2352	287.109	83.3195	287.109	84.8613	287.109	82.741	287.109	84.4759	287.109	82.288	287.109	84.0982	287.109	82.0403	287.109	83.7501	287.109	82.0321	287.109	83.4637	287.109	82.233	287.109	83.2825	287.109	82.5694	287.109	83.2455	287.109	82.9603	287.109	83.3551	287.109	83.3387	287.109	83.5604	287.109	83.6546	287.109	83.7778	287.109	83.8718	287.109	83.9293	287.109	83.966
297.363	86.6843	297.363	86.5621	297.363	86.703	297.363	86.3439	297.363	86.6116	297.363	86.0356	297.363	86.4062	297.363	85.6379	297.363	86.0866	297.363	85.146	297.363	85.6578	297.363	84.5538	297.363	85.1332	297.363	83.8656	297.363	84.5392	297.363	83.1157	297.363	83.9205	297.363	82.3912	297.363	83.3407	297.363	81.8371	297.363	82.8744	297.363	81.604	297.363	82.5897	297.363	81.7421	297.363	82.5248	297.363	82.1567	297.363	82.6705	297.363	82.6854	297.363	82.9673	297.363	83.1916	297.363	83.3245	297.363	83.593	297.363	83.6488	297.363	83.8483	297.363	83.8683	297.363	83.9405
307.617	86.58	307.617	86.3566	307.617	86.696	307.617	86.0294	307.617	86.7028	307.617	85.6057	307.617	86.6001	307.617	85.0995	307.617	86.3889	307.617	84.5331	307.617	86.0728	307.617	83.9375	307.617	85.6574	307.617	83.3509	307.617	85.1504	307.617	82.8132	307.617	84.5616	307.617	82.3621	307.617	83.9079	307.617	82.032	307.617	83.2259	307.617	81.8544	307.617	82.592	307.617	81.8535	307.617	82.1322	307.617	82.03	307.617	81.9777	307.617	82.3456	307.617	82.1601	307.617	82.7259	307.617	82.5591	307.617	83.0818	307.617	82.9872	307.617	83.3317	307.617	83.2962	307.617	83.4142
319.336	86.5889	319.336	86.4191	319.336	86.6583	319.336	86.1538	319.336	86.6222	319.336	85.7941	319.336	86.4782	319.336	85.3374	319.336	86.2287	319.336	84.7803	319.336	85.8809	319.336	84.1271	319.336	85.4462	319.336	83.4033	319.336	84.9375	319.336	82.6711	319.336	84.3684	319.336	82.0361	319.336	83.7525	319.336	81.6227	319.336	83.1081	319.336	81.5075	319.336	82.4714	319.336	81.6663	319.336	81.9203	319.336	81.996	319.336	81.5792	319.336	82.3805	319.336	81.5579	319.336	82.7285	319.336	81.8442	319.336	82.975	319.336	82.2877	319.336	83.0713	319.336	82.7077	319.336	82.9841
329.59	86.0385	329.59	85.8278	329.59	86.1523	329.59	85.5367	329.59	86.1584	329.59	85.1823	329.59	86.0533	329.59	84.7758	329.59	85.8409	329.59	84.3172	329.59	85.53	329.59	83.7982	329.59	85.1335	329.59	83.2138	329.59	84.6688	329.59	82.5845	329.59	84.1599	329.59	81.9795	329.59	83.6362	329.59	81.5216	329.59	83.1305	329.59	81.3407	329.59	82.6768	329.59	81.4817	329.59	82.3165	329.59	81.8617	329.59	82.1034	329.59	82.3319	329.59	82.087	329.59	82.7592	329.59	82.2693	329.59	83.057	329.59	82.578	329.59	83.1807	329.59	82.8967	329.59	83.1194
341.309	86.258	341.309	86.0068	341.309	86.3921	341.309	85.6514	341.309	86.4021	341.309	85.2111	341.309	86.2859	341.309	84.7085	341.309	86.0438	341.309	84.1638	341.309	85.6775	341.309	83.5898	341.309	85.1912	341.309	82.9909	341.309	84.5947	341.309	82.3734	341.309	83.9097	341.309	81.7654	341.309	83.1802	341.309	81.2404	341.309	82.4816	341.309	80.9183	341.309	81.9191	341.309	80.9107	341.309	81.5974	341.309	81.2286	341.309	81.5685	341.309	81.7556	341.309	81.7999	341.309	82.3224	341.309	82.19	341.309	82.7875	341.309	82.6119	341.309	83.064	341.309	82.9491	341.309	83.1156
353.027	86.5817	353.027	86.2861	353.027	86.7455	353.027	85.8648	353.027	86.7789	353.027	85.3351	353.027	86.6884	353.027	84.7268	353.027	86.4833	353.027	84.0787	353.027	86.1728	353.027	83.4278	353.027	85.7624	353.027	82.7954	353.027	85.2504	353.027	82.184	353.027	84.6275	353.027	81.5935	353.027	83.8836	353.027	81.0522	353.027	83.0299	353.027	80.6423	353.027	82.141	353.027	80.4836	353.027	81.4006	353.027	80.6532	353.027	81.0573	353.027	81.0997	353.027	81.2113	353.027	81.6642	353.027	81.6812	353.027	82.1789	353.027	82.1857	353.027	82.5289	353.027	82.5361	353.027	82.6551
366.211	87.2969	366.211	87.1353	366.211	87.3284	366.211	86.8383	366.211	87.2316	366.211	86.3951	366.211	87.0092	366.211	85.7927	366.211	86.6691	366.211	85.0231	366.211	86.2271	366.211	84.0981	366.211	85.7056	366.211	83.0699	366.211	85.1285	366.211	82.0491	366.211	84.5144	366.211	81.195	366.211	83.8724	366.211	80.6469	366.211	83.2067	366.211	80.4391	366.211	82.5378	366.211	80.5071	366.211	81.9361	366.211	80.7695	366.211	81.5353	366.211	81.1665	366.211	81.4638	366.211	81.6352	366.211	81.7094	366.211	82.0857	366.211	82.0966	366.211	82.4139	366.211	82.4166	366.211	82.5357
379.395	86.6755	379.395	86.4356	379.395	86.8092	379.395	86.1074	379.395	86.8228	379.395	85.7096	379.395	86.7095	379.395	85.2554	379.395	86.4699	379.395	84.7481	379.395	86.1107	379.395	84.1812	379.395	85.6423	379.395	83.5469	379.395	85.0758	379.395	82.8535	379.395	84.4203	379.395	82.1462	379.395	83.6816	379.395	81.5205	379.395	82.8679	379.395	81.1081	379.395	82.02	379.395	81.0144	379.395	81.2715	379.395	81.2443	379.395	80.8758	379.395	81.6943	379.395	81.0324	379.395	82.2168	379.395	81.621	379.395	82.6784	379.395	82.3023	379.395	82.9768	379.395	82.8104	379.395	83.0366
392.578	86.3749	392.578	86.156	392.578	86.4523	392.578	85.8039	392.578	86.3878	392.578	85.3329	392.578	86.1885	392.578	84.7632	392.578	85.869	392.578	84.1198	392.578	85.4473	392.578	83.4307	392.578	84.9407	392.578	82.7284	392.578	84.3647	392.578	82.0556	392.578	83.7322	392.578	81.4748	392.578	83.0536	392.578	81.0665	392.578	82.3373	392.578	80.908	392.578	81.603	392.578	81.0335	392.578	80.9276	392.578	81.4056	392.578	80.5007	392.578	81.9239	392.578	80.5603	392.578	82.4592	392.578	81.1278	392.578	82.8857	392.578	81.9187	392.578	83.0971	392.578	82.608	392.578	83.0158
405.762	86.6978	405.762	86.5433	405.762	86.6998	405.762	86.2385	405.762	86.5582	405.762	85.7899	405.762	86.2948	405.762	85.2029	405.762	85.9393	405.762	84.4799	405.762	85.5188	405.762	83.626	405.762	85.047	405.762	82.6619	405.762	84.5208	405.762	81.6432	405.762	83.9222	405.762	80.6796	405.762	83.2266	405.762	79.936	405.762	82.4154	405.762	79.5853	405.762	81.5073	405.762	79.7139	405.762	80.619	405.762	80.2537	405.762	80.0252	405.762	81.0178	405.762	80.0414	405.762	81.7932	405.762	80.6653	405.762	82.4037	405.762	81.531	405.762	82.7262	405.762	82.2701	405.762	82.6881
420.41	86.8175	420.41	86.6579	420.41	86.8412	420.41	86.3698	420.41	86.7404	420.41	85.9734	420.41	86.5424	420.41	85.489	420.41	86.2797	420.41	84.9247	420.41	85.9755	420.41	84.2735	420.41	85.6344	420.41	83.5259	420.41	85.2384	420.41	82.6951	420.41	84.7491	420.41	81.8426	420.41	84.1136	420.41	81.0882	420.41	83.2781	420.41	80.5828	420.41	82.2197	420.41	80.4419	420.41	81.0154	420.41	80.6737	420.41	79.9557	420.41	81.1642	420.41	79.5284	420.41	81.7274	420.41	79.9412	420.41	82.1739	420.41	80.8093	420.41	82.3564	420.41	81.6443	420.41	82.1865
435.059	86.3125	435.059	86.1901	435.059	86.2957	435.059	85.9192	435.059	86.1648	435.059	85.5116	435.059	85.9507	435.059	84.9984	435.059	85.6809	435.059	84.4174	435.059	85.3766	435.059	83.7958	435.059	85.0542	435.059	83.1406	435.059	84.7231	435.059	82.4536	435.059	84.3703	435.059	81.7655	435.059	83.9458	435.059	81.1636	435.059	83.3713	435.059	80.782	435.059	82.5853	435.059	80.7335	435.059	81.6355	435.059	81.0255	435.059	80.806	435.059	81.5441	435.059	80.5652	435.059	82.1174	435.059	81.0395	435.059	82.587	435.059	81.8099	435.059	82.8397	435.059	82.4561	435.059	82.8071
451.172	86.9575	451.172	86.7485	451.172	86.9998	451.172	86.3732	451.172	86.8823	451.172	85.8383	451.172	86.6171	451.172	85.1524	451.172	86.215	451.172	84.325	451.172	85.6837	451.172	83.3678	451.172	85.0373	451.172	82.2999	451.172	84.3108	451.172	81.1587	451.172	83.5612	451.172	80.0225	451.172	82.8356	451.172	79.0452	451.172	82.1173	451.172	78.4645	451.172	81.3003	451.172	78.4884	451.172	80.2421	451.172	79.0822	451.172	78.9163	451.172	79.9567	451.172	77.7289	451.172	80.7851	451.172	77.6192	451.172	81.3339	451.172	78.7387	451.172	81.4557	451.172	80.1005	451.172	81.0559
465.82	86.9821	465.82	86.7768	465.82	87.028	465.82	86.4133	465.82	86.9232	465.82	85.9026	465.82	86.6786	465.82	85.2581	465.82	86.3017	465.82	84.4847	465.82	85.8024	465.82	83.5772	465.82	85.2065	465.82	82.536	465.82	84.5648	465.82	81.3999	465.82	83.9406	465.82	80.2879	465.82	83.3722	465.82	79.4113	465.82	82.8299	465.82	78.9903	465.82	82.2101	465.82	79.0904	465.82	81.3909	465.82	79.5763	465.82	80.3497	465.82	80.2267	465.82	79.3407	465.82	80.8337	465.82	78.9333	465.82	81.2304	465.82	79.3965	465.82	81.2954	465.82	80.2537	465.82	80.9619
483.398	86.1196	483.398	85.9976	483.398	86.0714	483.398	85.7123	483.398	85.8708	483.398	85.2964	483.398	85.5515	483.398	84.7973	483.398	85.1527	483.398	84.252	483.398	84.7142	483.398	83.6612	483.398	84.2731	483.398	82.9813	483.398	83.8624	483.398	82.1434	483.398	83.507	483.398	81.0961	483.398	83.2166	483.398	79.8756	483.398	82.9736	483.398	78.7224	483.398	82.7305	483.398	78.136	483.398	82.4328	483.398	78.4638	483.398	82.0638	483.398	79.3924	483.398	81.681	483.398	80.3694	483.398	81.4037	483.398	81.082	483.398	81.325	483.398	81.447	483.398	81.4121	483.398	81.5128
499.512	86.4804	499.512	86.2531	499.512	86.535	499.512	85.865	499.512	86.4276	499.512	85.35	499.512	86.1822	499.512	84.7512	499.512	85.8216	499.512	84.0961	499.512	85.3571	499.512	83.3774	499.512	84.79	499.512	82.5526	499.512	84.1252	499.512	81.5724	499.512	83.3886	499.512	80.4286	499.512	82.6302	499.512	79.2225	499.512	81.9087	499.512	78.2485	499.512	81.2744	499.512	77.9574	499.512	80.791	499.512	78.5504	499.512	80.5851	499.512	79.6905	499.512	80.795	499.512	80.897	499.512	81.3756	499.512	81.8775	499.512	82.0604	499.512	82.5056	499.512	82.568	499.512	82.7359
517.09	85.5365	517.09	85.3011	517.09	85.6087	517.09	84.9203	517.09	85.5272	517.09	84.4523	517.09	85.3176	517.09	83.9912	517.09	85.016	517.09	83.6208	517.09	84.6703	517.09	83.3433	517.09	84.334	517.09	83.0534	517.09	84.0438	517.09	82.5988	517.09	83.786	517.09	81.8538	517.09	83.4796	517.09	80.7581	517.09	82.9947	517.09	79.379	517.09	82.199	517.09	78.1495	517.09	81.0472	517.09	78.0142	517.09	79.7979	517.09	79.2295	517.09	79.2722	517.09	80.8293	517.09	80.0396	517.09	82.0912	517.09	81.3614	517.09	82.7972	517.09	82.4122	517.09	82.9061
536.133	86.3593	536.133	86.0368	536.133	86.397	536.133	85.4197	536.133	86.176	536.133	84.5289	536.133	85.7283	536.133	83.4443	536.133	85.0858	536.133	82.3427	536.133	84.2877	536.133	81.488	536.133	83.4135	536.133	81.0641	536.133	82.6228	536.133	80.9717	536.133	82.1312	536.133	80.9153	536.133	82.0513	536.133	80.6405	536.133	82.2334	536.133	80.0641	536.133	82.3445	536.133	79.3974	536.133	82.0709	536.133	79.2456	536.133	81.2597	536.133	80.0442	536.133	80.1341	536.133	81.3305	536.133	79.634	536.133	82.4118	536.133	80.4935	536.133	82.9279	536.133	81.8394	536.133	82.7409
555.176	86.1964	555.176	85.8745	555.176	86.3079	555.176	85.3101	555.176	86.2483	555.176	84.4955	555.176	86.0422	555.176	83.4607	555.176	85.6837	555.176	82.2832	555.176	85.1407	555.176	81.0865	555.176	84.3864	555.176	80.0197	555.176	83.4345	555.176	79.197	555.176	82.3664	555.176	78.6051	555.176	81.3596	555.176	78.0939	555.176	80.6859	555.176	77.5446	555.176	80.5258	555.176	77.1393	555.176	80.7163	555.176	77.4197	555.176	80.9138	555.176	78.5838	555.176	80.9513	555.176	80.0403	555.176	80.9444	555.176	81.1825	555.176	81.1208	555.176	81.7709	555.176	81.4994	555.176	81.8172
574.219	86.2769	574.219	85.8721	574.219	86.4501	574.219	85.2534	574.219	86.3939	574.219	84.4558	574.219	86.1186	574.219	83.5108	574.219	85.6383	574.219	82.4277	574.219	84.9875	574.219	81.2191	574.219	84.2404	574.219	79.9947	574.219	83.4927	574.219	79.0203	574.219	82.7996	574.219	78.4971	574.219	82.1354	574.219	78.2214	574.219	81.4384	574.219	77.7263	574.219	80.7099	574.219	76.731	574.219	80.0566	574.219	75.6848	574.219	79.6037	574.219	76.0034	574.219	79.4319	574.219	77.7556	574.219	79.6425	574.219	79.5116	574.219	80.2157	574.219	80.6288	574.219	80.8151	574.219	81.0327
594.727	85.7901	594.727	85.4832	594.727	85.82	594.727	84.894	594.727	85.6139	594.727	84.0793	594.727	85.2244	594.727	83.1741	594.727	84.7016	594.727	82.3474	594.727	84.0956	594.727	81.6584	594.727	83.4694	594.727	80.9577	594.727	82.9033	594.727	80.0154	594.727	82.4741	594.727	78.7441	594.727	82.1779	594.727	77.3376	594.727	81.8468	594.727	76.2285	594.727	81.2055	594.727	75.756	594.727	80.0794	594.727	76.0188	594.727	78.7542	594.727	77.1122	594.727	78.3188	594.727	78.8065	594.727	79.3395	594.727	80.4691	594.727	80.7683	594.727	81.6199	594.727	81.7622	594.727	82.0642
615.234	85.6916	615.234	85.4118	615.234	85.6764	615.234	84.8292	615.234	85.4156	615.234	83.9984	615.234	84.9656	615.234	83.027	615.234	84.3606	615.234	82.0304	615.234	83.6161	615.234	81.0821	615.234	82.7601	615.234	80.207	615.234	81.8527	615.234	79.4122	615.234	80.9887	615.234	78.6939	615.234	80.3188	615.234	78.0205	615.234	80.0532	615.234	77.3728	615.234	80.257	615.234	76.8678	615.234	80.5973	615.234	76.833	615.234	80.5767	615.234	77.5535	615.234	80.0016	615.234	78.8173	615.234	79.3435	615.234	80.0648	615.234	79.5054	615.234	80.847	615.234	80.3448	615.234	80.9387
637.207	86.5196	637.207	86.2203	637.207	86.4981	637.207	85.5807	637.207	86.2175	637.207	84.6354	637.207	85.7435	637.207	83.4613	637.207	85.1152	637.207	82.1719	637.207	84.3456	637.207	80.9477	637.207	83.435	637.207	80.0332	637.207	82.3808	637.207	79.5654	637.207	81.2114	637.207	79.3709	637.207	80.0667	637.207	79.054	637.207	79.1948	637.207	78.22	637.207	78.6717	637.207	76.6639	637.207	78.2163	637.207	75.0336	637.207	77.5603	637.207	75.6229	637.207	76.9657	637.207	78.0669	637.207	77.3196	637.207	80.1012	637.207	78.7789	637.207	81.1377	637.207	80.3111	637.207	81.179
659.18	86.071	659.18	86.0626	659.18	85.7727	659.18	85.7311	659.18	85.2395	659.18	85.1154	659.18	84.5632	659.18	84.2922	659.18	83.7946	659.18	83.3515	659.18	82.9304	659.18	82.375	659.18	81.9896	659.18	81.4245	659.18	81.0806	659.18	80.5475	659.18	80.338	659.18	79.784	659.18	79.775	659.18	79.1227	659.18	79.2487	659.18	78.444	659.18	78.5691	659.18	77.5891	659.18	77.5669	659.18	76.6417	659.18	76.2836	659.18	76.2987	659.18	75.6991	659.18	77.2746	659.18	77.0267	659.18	78.9222	659.18	79.0302	659.18	80.2402	659.18	80.3821	659.18	80.7772
682.617	86.9285	682.617	86.9903	682.617	86.5219	682.617	86.6518	682.617	85.8645	682.617	85.9286	682.617	85.0283	682.617	84.8995	682.617	84.0335	682.617	83.6624	682.617	82.9027	682.617	82.2805	682.617	81.7331	682.617	80.8163	682.617	80.7087	682.617	79.5196	682.617	80.0487	682.617	78.8214	682.617	79.8193	682.617	78.6799	682.617	79.8105	682.617	78.42	682.617	79.8179	682.617	77.5076	682.617	79.776	682.617	76.217	682.617	79.4401	682.617	76.1533	682.617	78.3518	682.617	77.8907	682.617	76.739	682.617	79.7325	682.617	76.9822	682.617	80.7242	682.617	79.1243	682.617	80.5676
707.52	87.0103	707.52	87.0352	707.52	86.6574	707.52	86.6858	707.52	86.1059	707.52	86.0187	707.52	85.4231	707.52	85.0894	707.52	84.522	707.52	83.8681	707.52	83.2751	707.52	82.3705	707.52	81.6811	707.52	80.9231	707.52	79.9073	707.52	79.9542	707.52	78.2812	707.52	79.3483	707.52	77.2359	707.52	78.6535	707.52	76.7317	707.52	77.699	707.52	76.2591	707.52	76.6184	707.52	75.8313	707.52	75.5382	707.52	75.6183	707.52	75.2658	707.52	75.168	707.52	76.9111	707.52	74.8817	707.52	79.1535	707.52	76.6405	707.52	80.5227	707.52	79.159	707.52	80.562
732.422	86.3088	732.422	86.6815	732.422	85.6722	732.422	86.6661	732.422	84.8967	732.422	86.2004	732.422	84.0076	732.422	85.2703	732.422	82.9999	732.422	83.9324	732.422	81.9947	732.422	82.3963	732.422	81.1269	732.422	81.0339	732.422	80.2582	732.422	80.1755	732.422	79.0107	732.422	79.818	732.422	77.1492	732.422	79.5936	732.422	75.3207	732.422	79.068	732.422	75.2813	732.422	77.9864	732.422	76.2368	732.422	76.3531	732.422	76.029	732.422	74.8833	732.422	73.8652	732.422	75.4988	732.422	71.3909	732.422	77.7459	732.422	74.4176	732.422	79.3768	732.422	77.9548	732.422	79.5466
757.324	86.268	757.324	86.6109	757.324	85.7882	757.324	86.6568	757.324	85.3135	757.324	86.3338	757.324	84.8186	757.324	85.6331	757.324	84.1462	757.324	84.5481	757.324	83.1928	757.324	83.0839	757.324	82.0312	757.324	81.3406	757.324	80.8686	757.324	79.5759	757.324	79.8717	757.324	78.2792	757.324	78.9187	757.324	78.0247	757.324	77.5239	757.324	78.3891	757.324	75.8559	757.324	78.1439	757.324	75.9932	757.324	76.6397	757.324	77.3486	757.324	74.9396	757.324	77.6104	757.324	75.9901	757.324	76.6161	757.324	78.0332	757.324	75.772	757.324	78.8632	757.324	76.6785	757.324	78.2383
785.156	85.8373	785.156	86.115	785.156	85.4037	785.156	86.0913	785.156	84.9199	785.156	85.6972	785.156	84.2283	785.156	84.9479	785.156	83.068	785.156	83.907	785.156	81.5522	785.156	82.5408	785.156	80.1972	785.156	80.6935	785.156	79.2256	785.156	78.5336	785.156	78.1803	785.156	76.8307	785.156	76.5172	785.156	75.6732	785.156	74.5484	785.156	74.5267	785.156	73.1855	785.156	73.9106	785.156	71.7952	785.156	74.2276	785.156	71.6942	785.156	74.3742	785.156	74.1126	785.156	74.5479	785.156	74.5292	785.156	76.257	785.156	72.5708	785.156	77.5292	785.156	73.875	785.156	76.7767
811.523	86.1443	811.523	86.3718	811.523	85.6499	811.523	86.3267	811.523	84.8854	811.523	86.0787	811.523	83.827	811.523	85.5966	811.523	82.8328	811.523	84.7037	811.523	82.46	811.523	83.3805	811.523	82.3171	811.523	81.9021	811.523	81.6737	811.523	80.4412	811.523	80.3793	811.523	78.9571	811.523	78.5612	811.523	77.6311	811.523	76.7624	811.523	77.0717	811.523	76.3595	811.523	77.2474	811.523	76.2908	811.523	77.1605	811.523	74.5185	811.523	76.4863	811.523	71.8868	811.523	76.8494	811.523	71.5506	811.523	78.4768	811.523	72.664	811.523	79.0807	811.523	75.2923	811.523	77.9185
840.82	85.3586	840.82	85.7554	840.82	84.6511	840.82	85.8498	840.82	83.9317	840.82	85.7019	840.82	83.4027	840.82	85.1237	840.82	82.7612	840.82	83.8706	840.82	81.7104	840.82	82.0274	840.82	80.5654	840.82	80.1236	840.82	80.0769	840.82	78.8095	840.82	80.2549	840.82	78.432	840.82	79.9125	840.82	78.3603	840.82	77.6866	840.82	77.3557	840.82	72.2318	840.82	75.3353	840.82	66.4295	840.82	74.1709	840.82	72.2664	840.82	74.9262	840.82	75.5624	840.82	75.9484	840.82	75.5237	840.82	77.0592	840.82	70.7688	840.82	78.1689	840.82	72.0105	840.82	77.2264
870.117	85.4105	870.117	86.4948	870.117	84.5831	870.117	86.8449	870.117	84.1018	870.117	86.2086	870.117	83.0829	870.117	84.9457	870.117	81.7324	870.117	83.4814	870.117	81.1297	870.117	81.7457	870.117	81.0763	870.117	79.6181	870.117	80.3446	870.117	77.8141	870.117	78.9219	870.117	77.0783	870.117	78.0065	870.117	77.2209	870.117	78.0336	870.117	77.9348	870.117	78.5092	870.117	78.1715	870.117	78.9979	870.117	76.3029	870.117	78.4343	870.117	73.2329	870.117	75.1624	870.117	74.9703	870.117	68.8464	870.117	76.3188	870.117	73.1962	870.117	76.1503	870.117	76.0556	870.117	76.2487
900.879	85.795	900.879	85.7356	900.879	85.9079	900.879	86.1328	900.879	85.1915	900.879	86.3495	900.879	83.4033	900.879	85.715	900.879	81.2978	900.879	83.9565	900.879	80.0902	900.879	81.2728	900.879	79.8194	900.879	78.1894	900.879	79.878	900.879	75.1312	900.879	79.8461	900.879	73.5128	900.879	79.2594	900.879	73.8978	900.879	77.5207	900.879	74.839	900.879	73.9171	900.879	76.2593	900.879	71.9015	900.879	77.21	900.879	76.0865	900.879	76.4708	900.879	78.0551	900.879	74.4232	900.879	76.6543	900.879	74.5282	900.879	72.2667	900.879	76.6426	900.879	73.7663	900.879	76.798
933.105	85.9864	933.105	86.2685	933.105	85.3326	933.105	86.1448	933.105	84.1855	933.105	85.6657	933.105	82.7356	933.105	85.0338	933.105	81.7786	933.105	84.0266	933.105	81.3714	933.105	81.9934	933.105	80.8064	933.105	78.8916	933.105	80.1243	933.105	75.6322	933.105	79.7386	933.105	72.207	933.105	79.4794	933.105	70.3025	933.105	78.944	933.105	73.0055	933.105	78.1411	933.105	74.916	933.105	77.0712	933.105	74.7264	933.105	74.9859	933.105	72.8651	933.105	72.2964	933.105	74.31	933.105	75.012	933.105	76.736	933.105	76.7388	933.105	76.5898	933.105	74.7101	933.105	73.9478
965.332	86.6671	965.332	86.4077	965.332	85.848	965.332	85.6079	965.332	84.4974	965.332	85.1674	965.332	83.6806	965.332	84.991	965.332	83.1731	965.332	84.2121	965.332	82.3761	965.332	82.3686	965.332	81.2888	965.332	79.7003	965.332	79.816	965.332	77.404	965.332	77.7063	965.332	76.9008	965.332	75.6761	965.332	76.555	965.332	75.3997	965.332	74.6731	965.332	75.6144	965.332	74.6724	965.332	75.5691	965.332	76.7613	965.332	77.0747	965.332	76.6752	965.332	77.2245	965.332	74.5122	965.332	74.9339	965.332	73.8805	965.332	75.5851	965.332	74.7132	965.332	76.593	965.332	75.6032
1,000.49	85.317	1,000.49	86.3122	1,000.49	85.1658	1,000.49	86.9787	1,000.49	84.8588	1,000.49	86.4532	1,000.49	83.2942	1,000.49	84.5882	1,000.49	81.466	1,000.49	81.8906	1,000.49	80.5887	1,000.49	79.8306	1,000.49	79.7977	1,000.49	78.9158	1,000.49	79.3482	1,000.49	78.4997	1,000.49	79.8566	1,000.49	77.9459	1,000.49	80.1233	1,000.49	77.1737	1,000.49	78.7439	1,000.49	76.3852	1,000.49	75.9601	1,000.49	75.6198	1,000.49	74.3503	1,000.49	74.9562	1,000.49	73.4196	1,000.49	74.5008	1,000.49	73.2398	1,000.49	73.8099	1,000.49	73.1034	1,000.49	73.2572	1,000.49	70.8657	1,000.49	74.202	1,000.49	72.8732	1,000.49	74.8368
1,035.64	85.5593	1,035.64	85.9324	1,035.64	85.371	1,035.64	86.4516	1,035.64	84.3762	1,035.64	86.328	1,035.64	82.8973	1,035.64	85.2346	1,035.64	82.1944	1,035.64	83.2386	1,035.64	81.7012	1,035.64	80.6065	1,035.64	80.8069	1,035.64	77.8643	1,035.64	79.5354	1,035.64	74.6613	1,035.64	78.0174	1,035.64	69.7178	1,035.64	77.4726	1,035.64	69.808	1,035.64	77.5577	1,035.64	72.3111	1,035.64	76.2931	1,035.64	73.3357	1,035.64	72.0964	1,035.64	73.6225	1,035.64	69.8917	1,035.64	72.9493	1,035.64	74.0244	1,035.64	73.1642	1,035.64	74.394	1,035.64	74.5819	1,035.64	72.9361	1,035.64	75.1608	1,035.64	72.295	1,035.64	73.8138
1,072.27	85.6884	1,072.27	85.1823	1,072.27	85.1729	1,072.27	84.9976	1,072.27	83.6732	1,072.27	85.3958	1,072.27	83.2457	1,072.27	84.9689	1,072.27	83.5725	1,072.27	82.9692	1,072.27	82.7485	1,072.27	80.1898	1,072.27	80.7775	1,072.27	77.802	1,072.27	78.3276	1,072.27	74.7954	1,072.27	75.687	1,072.27	68.9365	1,072.27	73.5936	1,072.27	59.6093	1,072.27	73.2972	1,072.27	59.8088	1,072.27	73.9148	1,072.27	68.2846	1,072.27	75.3007	1,072.27	72.8562	1,072.27	75.714	1,072.27	73.743	1,072.27	72.4795	1,072.27	73.5196	1,072.27	69.0808	1,072.27	74.4184	1,072.27	72.1599	1,072.27	75.0221	1,072.27	72.5379	1,072.27	73.7262
1,108.89	85.7774	1,108.89	86.0339	1,108.89	84.9944	1,108.89	85.6161	1,108.89	84.5626	1,108.89	85.0518	1,108.89	84.0502	1,108.89	84.3069	1,108.89	82.2902	1,108.89	82.7704	1,108.89	79.9704	1,108.89	80.8438	1,108.89	79.3242	1,108.89	79.6513	1,108.89	79.4389	1,108.89	79.1964	1,108.89	78.7255	1,108.89	78.292	1,108.89	77.4409	1,108.89	75.8962	1,108.89	76.3315	1,108.89	73.052	1,108.89	74.5616	1,108.89	72.3624	1,108.89	69.2935	1,108.89	70.1682	1,108.89	69.0538	1,108.89	67.6644	1,108.89	73.5883	1,108.89	70.5012	1,108.89	73.0327	1,108.89	73.0423	1,108.89	69.9333	1,108.89	74.0566	1,108.89	71.9584	1,108.89	73.9438
1,148.44	85.506	1,148.44	85.399	1,148.44	85.4037	1,148.44	85.5261	1,148.44	84.3628	1,148.44	84.7399	1,148.44	83.2011	1,148.44	82.2006	1,148.44	82.8	1,148.44	79.0877	1,148.44	82.2289	1,148.44	78.0027	1,148.44	80.804	1,148.44	77.3031	1,148.44	78.3651	1,148.44	74.4954	1,148.44	75.1934	1,148.44	72.2806	1,148.44	72.4442	1,148.44	71.9714	1,148.44	71.4102	1,148.44	70.3979	1,148.44	72.5676	1,148.44	68.9058	1,148.44	73.486	1,148.44	72.2986	1,148.44	73.5633	1,148.44	72.2418	1,148.44	73.2599	1,148.44	70.742	1,148.44	72.4756	1,148.44	73.1927	1,148.44	74.5244	1,148.44	74.9615	1,148.44	74.7545	1,148.44	74.1828
1,189.45	85.7546	1,189.45	86.0602	1,189.45	85.1703	1,189.45	85.2556	1,189.45	84.8328	1,189.45	83.5304	1,189.45	83.7739	1,189.45	82.209	1,189.45	81.581	1,189.45	81.1919	1,189.45	79.6252	1,189.45	79.1908	1,189.45	78.8311	1,189.45	76.7212	1,189.45	78.5225	1,189.45	76.1616	1,189.45	78.1313	1,189.45	75.0274	1,189.45	76.4229	1,189.45	75.1318	1,189.45	73.3408	1,189.45	75.9954	1,189.45	73.3085	1,189.45	73.9317	1,189.45	73.1414	1,189.45	70.6935	1,189.45	66.5133	1,189.45	66.937	1,189.45	68.5604	1,189.45	64.9737	1,189.45	71.634	1,189.45	70.791	1,189.45	71.7603	1,189.45	74.0802	1,189.45	72.21	1,189.45	73.7255
1,230.47	86.2032	1,230.47	85.6462	1,230.47	85.9516	1,230.47	85.1253	1,230.47	84.619	1,230.47	84.1882	1,230.47	83.3808	1,230.47	81.918	1,230.47	82.1451	1,230.47	79.1842	1,230.47	80.0559	1,230.47	77.6612	1,230.47	78.4621	1,230.47	75.8379	1,230.47	77.7058	1,230.47	72.4448	1,230.47	76.5624	1,230.47	66.2547	1,230.47	75.1025	1,230.47	64.0694	1,230.47	73.7454	1,230.47	68.826	1,230.47	72.5392	1,230.47	69.4024	1,230.47	69.0597	1,230.47	68.9733	1,230.47	70.0889	1,230.47	70.6599	1,230.47	73.0974	1,230.47	69.7431	1,230.47	72.4813	1,230.47	71.7816	1,230.47	73.893	1,230.47	74.851	1,230.47	74.0576	1,230.47	74.0156
1,274.41	85.6451	1,274.41	85.7709	1,274.41	85.4839	1,274.41	85.2136	1,274.41	85.1046	1,274.41	83.5274	1,274.41	83.4245	1,274.41	81.8976	1,274.41	80.5221	1,274.41	81.3226	1,274.41	78.8683	1,274.41	79.0232	1,274.41	77.9052	1,274.41	73.4865	1,274.41	76.8512	1,274.41	72.1293	1,274.41	76.4009	1,274.41	72.4565	1,274.41	75.3564	1,274.41	69.1455	1,274.41	72.0132	1,274.41	69.6628	1,274.41	67.1361	1,274.41	72.9414	1,274.41	71.7055	1,274.41	71.9996	1,274.41	72.4419	1,274.41	68.0706	1,274.41	62.1408	1,274.41	67.0937	1,274.41	68.1661	1,274.41	70.1774	1,274.41	73.9215	1,274.41	70.8941	1,274.41	74.012	1,274.41	70.5116
1,319.82	85.859	1,319.82	85.8417	1,319.82	85.5783	1,319.82	85.0877	1,319.82	84.6989	1,319.82	83.0772	1,319.82	83.066	1,319.82	79.8869	1,319.82	81.1086	1,319.82	77.1252	1,319.82	78.6068	1,319.82	76.21	1,319.82	76.6358	1,319.82	73.7428	1,319.82	75.5114	1,319.82	67.5623	1,319.82	74.1354	1,319.82	69.9747	1,319.82	72.1329	1,319.82	71.7292	1,319.82	71.6437	1,319.82	69.7133	1,319.82	71.6717	1,319.82	67.5267	1,319.82	66.5646	1,319.82	69.7919	1,319.82	61.6182	1,319.82	72.2459	1,319.82	70.1804	1,319.82	70.0977	1,319.82	71.5692	1,319.82	65.7849	1,319.82	70.7576	1,319.82	67.3308	1,319.82	73.846	1,319.82	72.2665
1,366.7	85.7014	1,366.7	85.2795	1,366.7	85.6242	1,366.7	84.2948	1,366.7	84.6441	1,366.7	82.3233	1,366.7	82.3673	1,366.7	79.5128	1,366.7	79.4229	1,366.7	77.3979	1,366.7	76.7341	1,366.7	76.7565	1,366.7	73.5708	1,366.7	74.7229	1,366.7	70.728	1,366.7	70.5688	1,366.7	68.6907	1,366.7	65.8783	1,366.7	65.71	1,366.7	63.3334	1,366.7	62.8794	1,366.7	67.3871	1,366.7	52.435	1,366.7	71.542	1,366.7	67.6545	1,366.7	73.2467	1,366.7	70.4345	1,366.7	70.0162	1,366.7	63.4466	1,366.7	60.3503	1,366.7	66.77	1,366.7	62.237	1,366.7	73.4726	1,366.7	68.558	1,366.7	72.0833	1,366.7	69.2132
1,413.57	86.2205	1,413.57	85.4213	1,413.57	85.497	1,413.57	83.3591	1,413.57	84.1468	1,413.57	81.7447	1,413.57	81.8047	1,413.57	80.0077	1,413.57	76.8667	1,413.57	75.665	1,413.57	71.943	1,413.57	72.7015	1,413.57	71.7563	1,413.57	71.6694	1,413.57	70.8198	1,413.57	68.9917	1,413.57	69.8975	1,413.57	68.2191	1,413.57	69.1842	1,413.57	67.9627	1,413.57	66.7481	1,413.57	67.0405	1,413.57	59.8252	1,413.57	65.2785	1,413.57	61.9964	1,413.57	67.6451	1,413.57	63.1668	1,413.57	69.5173	1,413.57	48.3384	1,413.57	68.8275	1,413.57	65.8163	1,413.57	67.5959	1,413.57	67.2351	1,413.57	64.4337	1,413.57	69.5543	1,413.57	67.2841
1,463.38	86.1597	1,463.38	85.3488	1,463.38	86.0319	1,463.38	83.3073	1,463.38	84.2555	1,463.38	79.8951	1,463.38	80.0875	1,463.38	77.3321	1,463.38	74.5624	1,463.38	74.4136	1,463.38	70.5856	1,463.38	66.6759	1,463.38	67.0398	1,463.38	68.2763	1,463.38	67.299	1,463.38	68.3941	1,463.38	69.2832	1,463.38	66.8714	1,463.38	69.4509	1,463.38	67.9359	1,463.38	67.0039	1,463.38	67.8849	1,463.38	65.1072	1,463.38	67.2794	1,463.38	61.7947	1,463.38	66.9668	1,463.38	45.569	1,463.38	68.3693	1,463.38	49.6316	1,463.38	65.0091	1,463.38	61.3497	1,463.38	61.2307	1,463.38	69.9776	1,463.38	65.371	1,463.38	72.1805	1,463.38	70.6052
1,516.11	86.4121	1,516.11	85.3023	1,516.11	85.9338	1,516.11	82.9848	1,516.11	83.2511	1,516.11	78.7945	1,516.11	78.5304	1,516.11	72.8498	1,516.11	72.5507	1,516.11	71.13	1,516.11	59.5761	1,516.11	70.5974	1,516.11	64.852	1,516.11	68.1164	1,516.11	69.6789	1,516.11	66.8967	1,516.11	71.8553	1,516.11	67.4999	1,516.11	73.8481	1,516.11	64.7191	1,516.11	72.9993	1,516.11	66.929	1,516.11	70.8459	1,516.11	67.8253	1,516.11	70.2204	1,516.11	67.7267	1,516.11	64.6309	1,516.11	68.5767	1,516.11	54.1456	1,516.11	65.4438	1,516.11	54.1394	1,516.11	58.1032	1,516.11	61.3344	1,516.11	60.6439	1,516.11	70.0765	1,516.11	69.9428
1,568.85	85.8565	1,568.85	84.8496	1,568.85	85.2997	1,568.85	82.7956	1,568.85	82.875	1,568.85	78.7592	1,568.85	78.2772	1,568.85	71.0192	1,568.85	67.1317	1,568.85	68.9449	1,568.85	65.7228	1,568.85	69.5487	1,568.85	68.907	1,568.85	70.1694	1,568.85	68.813	1,568.85	70.6217	1,568.85	71.5012	1,568.85	68.1582	1,568.85	71.4877	1,568.85	67.6311	1,568.85	70.8454	1,568.85	69.7232	1,568.85	71.1093	1,568.85	69.3465	1,568.85	71.4131	1,568.85	67.1145	1,568.85	69.708	1,568.85	70.8656	1,568.85	59.885	1,568.85	65.2463	1,568.85	60.3981	1,568.85	55.6762	1,568.85	69.5976	1,568.85	63.193	1,568.85	73.4616	1,568.85	68.9788
1,624.51	85.6414	1,624.51	85.447	1,624.51	84.7492	1,624.51	83.0711	1,624.51	82.1668	1,624.51	77.2257	1,624.51	75.6372	1,624.51	67.7584	1,624.51	51.7835	1,624.51	62.8267	1,624.51	69.4687	1,624.51	71.5015	1,624.51	72.2078	1,624.51	73.6823	1,624.51	71.4616	1,624.51	72.675	1,624.51	70.5715	1,624.51	72.8587	1,624.51	71.81	1,624.51	68.7286	1,624.51	72.8732	1,624.51	69.3691	1,624.51	72.1712	1,624.51	71.7239	1,624.51	71.8526	1,624.51	64.765	1,624.51	66.2159	1,624.51	67.8453	1,624.51	67.2108	1,624.51	65.5681	1,624.51	62.7868	1,624.51	54.8377	1,624.51	64.4493	1,624.51	58.4659	1,624.51	68.8876	1,624.51	69.0004
1,681.64	85.6507	1,681.64	84.0934	1,681.64	84.8695	1,681.64	80.6391	1,681.64	82.1671	1,681.64	76.6626	1,681.64	75.0873	1,681.64	63.206	1,681.64	59.4962	1,681.64	70.1839	1,681.64	70.6898	1,681.64	68.9307	1,681.64	72.2052	1,681.64	69.2842	1,681.64	73.6556	1,681.64	76.5222	1,681.64	76.507	1,681.64	76.602	1,681.64	76.5761	1,681.64	75.1225	1,681.64	76.0218	1,681.64	67.852	1,681.64	72.2292	1,681.64	67.3789	1,681.64	70.5665	1,681.64	72.4166	1,681.64	71.1712	1,681.64	70.4115	1,681.64	63.8245	1,681.64	61.8802	1,681.64	70.8316	1,681.64	53.911	1,681.64	64.2888	1,681.64	62.6994	1,681.64	69.822	1,681.64	59.1368
1,741.7	86.6556	1,741.7	85.5127	1,741.7	85.8734	1,741.7	81.7393	1,741.7	82.1472	1,741.7	73.3093	1,741.7	74.8848	1,741.7	59.7533	1,741.7	67.4337	1,741.7	66.1715	1,741.7	74.4295	1,741.7	74.0257	1,741.7	76.091	1,741.7	77.5862	1,741.7	75.3019	1,741.7	72.9413	1,741.7	72.7654	1,741.7	68.1837	1,741.7	72.4761	1,741.7	66.8886	1,741.7	71.2263	1,741.7	68.9598	1,741.7	70.0063	1,741.7	73.9549	1,741.7	72.415	1,741.7	72.2513	1,741.7	70.9809	1,741.7	68.9105	1,741.7	68.7029	1,741.7	60.6694	1,741.7	63.6558	1,741.7	56.8251	1,741.7	58.7649	1,741.7	59.4339	1,741.7	72.5925	1,741.7	69.4478
1,803.22	86.6603	1,803.22	85.5118	1,803.22	85.5478	1,803.22	81.5194	1,803.22	81.9418	1,803.22	74.2205	1,803.22	73.9979	1,803.22	59.6067	1,803.22	72.4438	1,803.22	72.3659	1,803.22	76.3599	1,803.22	76.1589	1,803.22	76.0965	1,803.22	76.3972	1,803.22	75.569	1,803.22	75.6261	1,803.22	74.354	1,803.22	73.5114	1,803.22	73.5099	1,803.22	73.4195	1,803.22	74.411	1,803.22	73.8008	1,803.22	71.1676	1,803.22	69.6138	1,803.22	71.5217	1,803.22	71.5453	1,803.22	71.3239	1,803.22	69.793	1,803.22	67.0747	1,803.22	67.6243	1,803.22	66.6597	1,803.22	62.4837	1,803.22	62.5903	1,803.22	57.0416	1,803.22	72.4519	1,803.22	67.7253
1,866.21	86.0513	1,866.21	84.8293	1,866.21	84.9782	1,866.21	81.1396	1,866.21	81.1655	1,866.21	74.7083	1,866.21	73.5872	1,866.21	70.4291	1,866.21	74.6163	1,866.21	77.1342	1,866.21	77.587	1,866.21	77.9067	1,866.21	77.5742	1,866.21	76.7453	1,866.21	75.0098	1,866.21	76.1211	1,866.21	73.5333	1,866.21	73.0513	1,866.21	73.2118	1,866.21	70.83	1,866.21	72.0176	1,866.21	71.5934	1,866.21	70.4243	1,866.21	68.8438	1,866.21	70.3103	1,866.21	70.2805	1,866.21	69.208	1,866.21	68.8549	1,866.21	66.3014	1,866.21	67.0129	1,866.21	66.4285	1,866.21	64.1741	1,866.21	61.0003	1,866.21	59.7761	1,866.21	70.8765	1,866.21	67.1503
1,932.13	85.5743	1,932.13	83.7525	1,932.13	84.2167	1,932.13	80.7176	1,932.13	79.7792	1,932.13	74.8575	1,932.13	72.9545	1,932.13	75.3445	1,932.13	74.806	1,932.13	78.6152	1,932.13	78.7725	1,932.13	77.7355	1,932.13	78.8809	1,932.13	77.5033	1,932.13	77.2431	1,932.13	75.3351	1,932.13	73.1652	1,932.13	75.8287	1,932.13	70.6081	1,932.13	71.1586	1,932.13	71.879	1,932.13	70.336	1,932.13	71.7956	1,932.13	69.7524	1,932.13	70.4059	1,932.13	68.6186	1,932.13	70.9879	1,932.13	69.9004	1,932.13	66.3614	1,932.13	64.8484	1,932.13	64.629	1,932.13	63.4487	1,932.13	58.1254	1,932.13	55.8664	1,932.13	69.9466	1,932.13	67.0533
1,999.51	86.3638	1,999.51	84.4765	1,999.51	85.2863	1,999.51	80.8589	1,999.51	79.3383	1,999.51	73.8006	1,999.51	73.861	1,999.51	78.0628	1,999.51	77.4881	1,999.51	78.1498	1,999.51	79.5262	1,999.51	77.8941	1,999.51	79.0787	1,999.51	75.2361	1,999.51	76.988	1,999.51	72.0787	1,999.51	75.4042	1,999.51	67.1292	1,999.51	66.8488	1,999.51	69.7702	1,999.51	67.2523	1,999.51	67.6062	1,999.51	70.8976	1,999.51	70.9354	1,999.51	69.8983	1,999.51	67.5271	1,999.51	70.3271	1,999.51	69.3522	1,999.51	65.8863	1,999.51	63.0701	1,999.51	64.0081	1,999.51	62.1075	1,999.51	58.7963	1,999.51	58.7126	1,999.51	69.6296	1,999.51	66.5987
2,069.82	86.8669	2,069.82	85.3229	2,069.82	86.4718	2,069.82	81.0909	2,069.82	81.2868	2,069.82	77.5273	2,069.82	72.5287	2,069.82	78.3728	2,069.82	79.0766	2,069.82	78.4466	2,069.82	80.4841	2,069.82	76.5597	2,069.82	79.6802	2,069.82	76.494	2,069.82	76.6303	2,069.82	75.1227	2,069.82	76.1234	2,069.82	73.8956	2,069.82	73.0474	2,069.82	74.0208	2,069.82	68.1067	2,069.82	69.1721	2,069.82	69.2636	2,069.82	67.1688	2,069.82	68.8118	2,069.82	68.337	2,069.82	69.1761	2,069.82	66.7944	2,069.82	65.4426	2,069.82	67.7368	2,069.82	62.2969	2,069.82	56.4849	2,069.82	55.319	2,069.82	64.1798	2,069.82	71.3889	2,069.82	66.4128
2,143.07	85.9939	2,143.07	85.2667	2,143.07	85.9984	2,143.07	82.1678	2,143.07	82.626	2,143.07	80.5323	2,143.07	72.0542	2,143.07	77.9865	2,143.07	79.0619	2,143.07	77.3673	2,143.07	80.6642	2,143.07	78.3705	2,143.07	79.9303	2,143.07	75.951	2,143.07	77.6109	2,143.07	72.7729	2,143.07	74.8168	2,143.07	73.797	2,143.07	75.0965	2,143.07	69.6262	2,143.07	70.4316	2,143.07	70.941	2,143.07	71.1641	2,143.07	67.0613	2,143.07	70.6939	2,143.07	69.467	2,143.07	71.2075	2,143.07	66.5827	2,143.07	65.9152	2,143.07	66.232	2,143.07	59.5855	2,143.07	40.5945	2,143.07	61.5748	2,143.07	63.4031	2,143.07	71.7525	2,143.07	63.681
2,219.24	85.7941	2,219.24	84.4539	2,219.24	85.3008	2,219.24	82.5435	2,219.24	83.0336	2,219.24	80.902	2,219.24	75.7678	2,219.24	79.1628	2,219.24	78.7886	2,219.24	78.8531	2,219.24	80.9958	2,219.24	76.8045	2,219.24	80.2548	2,219.24	75.263	2,219.24	77.966	2,219.24	74.0302	2,219.24	70.5949	2,219.24	69.2056	2,219.24	72.8848	2,219.24	68.8657	2,219.24	72.7569	2,219.24	68.0422	2,219.24	73.3386	2,219.24	68.3648	2,219.24	71.0795	2,219.24	69.7381	2,219.24	72.2139	2,219.24	66.7653	2,219.24	67.9068	2,219.24	67.9632	2,219.24	62.9	2,219.24	59.4184	2,219.24	63.9422	2,219.24	64.7891	2,219.24	71.2157	2,219.24	59.5431
2,296.88	86.8508	2,296.88	85.7146	2,296.88	85.8311	2,296.88	83.1567	2,296.88	82.9464	2,296.88	79.596	2,296.88	79.2404	2,296.88	80.0137	2,296.88	78.9356	2,296.88	77.4834	2,296.88	80.7576	2,296.88	76.6664	2,296.88	79.7447	2,296.88	73.1556	2,296.88	78.1502	2,296.88	74.3488	2,296.88	74.0903	2,296.88	72.546	2,296.88	68.8609	2,296.88	72.6372	2,296.88	67.6382	2,296.88	70.1541	2,296.88	73.0638	2,296.88	69.3757	2,296.88	70.221	2,296.88	68.5146	2,296.88	71.5792	2,296.88	69.83	2,296.88	68.0124	2,296.88	65.8445	2,296.88	62.3022	2,296.88	60.9645	2,296.88	63.0694	2,296.88	63.7349	2,296.88	69.039	2,296.88	65.2061
2,378.91	86.5891	2,378.91	86.0695	2,378.91	86.2593	2,378.91	83.4094	2,378.91	83.2782	2,378.91	80.879	2,378.91	79.6256	2,378.91	79.434	2,378.91	79.8746	2,378.91	78.7341	2,378.91	80.1796	2,378.91	77.1189	2,378.91	79.1014	2,378.91	77.8093	2,378.91	77.5398	2,378.91	75.8666	2,378.91	76.1901	2,378.91	73.9485	2,378.91	73.5358	2,378.91	73.3032	2,378.91	70.8727	2,378.91	70.8835	2,378.91	67.4901	2,378.91	69.8779	2,378.91	69.6208	2,378.91	69.4362	2,378.91	70.0825	2,378.91	70.3633	2,378.91	68.2273	2,378.91	67.441	2,378.91	59.3336	2,378.91	64.426	2,378.91	63.2246	2,378.91	62.5358	2,378.91	69.2413	2,378.91	65.6015
2,462.4	86.3663	2,462.4	85.7628	2,462.4	85.6069	2,462.4	83.4379	2,462.4	83.8114	2,462.4	82.1546	2,462.4	81.0136	2,462.4	79.3458	2,462.4	79.923	2,462.4	79.5702	2,462.4	80.2306	2,462.4	78.9414	2,462.4	79.7936	2,462.4	77.6106	2,462.4	76.2916	2,462.4	74.1058	2,462.4	72.222	2,462.4	74.5197	2,462.4	70.7118	2,462.4	71.416	2,462.4	71.4754	2,462.4	70.9211	2,462.4	68.5814	2,462.4	68.5319	2,462.4	68.642	2,462.4	69.5411	2,462.4	69.1787	2,462.4	69.0946	2,462.4	69.3462	2,462.4	68.0596	2,462.4	61.742	2,462.4	62.619	2,462.4	65.408	2,462.4	60.0129	2,462.4	68.4074	2,462.4	63.1371
2,548.83	86.9397	2,548.83	85.9073	2,548.83	86.0146	2,548.83	83.9868	2,548.83	83.8268	2,548.83	81.9424	2,548.83	81.6194	2,548.83	81.257	2,548.83	80.3642	2,548.83	79.5452	2,548.83	80.3025	2,548.83	79.1221	2,548.83	79.4572	2,548.83	76.4585	2,548.83	74.6319	2,548.83	76.0283	2,548.83	72.7343	2,548.83	70.2262	2,548.83	72.8907	2,548.83	72.0397	2,548.83	71.9807	2,548.83	70.8985	2,548.83	68.2373	2,548.83	68.0676	2,548.83	68.8071	2,548.83	68.3773	2,548.83	69.6274	2,548.83	69.1997	2,548.83	68.4412	2,548.83	68.7463	2,548.83	61.8198	2,548.83	64.8483	2,548.83	64.598	2,548.83	60.2872	2,548.83	67.5748	2,548.83	65.6422
2,639.65	86.3514	2,639.65	85.8066	2,639.65	85.6266	2,639.65	84.1713	2,639.65	84.2726	2,639.65	81.4547	2,639.65	81.5689	2,639.65	82.1353	2,639.65	80.515	2,639.65	80.4662	2,639.65	80.92	2,639.65	79.7578	2,639.65	79.7765	2,639.65	77.1994	2,639.65	75.6417	2,639.65	77.2341	2,639.65	72.0861	2,639.65	73.8203	2,639.65	70.5036	2,639.65	72.8558	2,639.65	69.541	2,639.65	68.0927	2,639.65	65.1641	2,639.65	68.5958	2,639.65	68.7123	2,639.65	65.2573	2,639.65	68.1841	2,639.65	68.583	2,639.65	65.3803	2,639.65	65.0455	2,639.65	59.7146	2,639.65	64.0505	2,639.65	59.3401	2,639.65	61.6897	2,639.65	68.5138	2,639.65	63.5445
2,731.93	86.0364	2,731.93	85.4391	2,731.93	84.7988	2,731.93	83.5673	2,731.93	83.3696	2,731.93	82.6632	2,731.93	81.3622	2,731.93	81.2421	2,731.93	81.1511	2,731.93	81.5839	2,731.93	80.8759	2,731.93	79.2208	2,731.93	78.1464	2,731.93	78.2919	2,731.93	76.1299	2,731.93	73.8548	2,731.93	73.8322	2,731.93	74.3881	2,731.93	68.7616	2,731.93	68.4472	2,731.93	64.9296	2,731.93	68.7955	2,731.93	63.2211	2,731.93	65.928	2,731.93	67.9369	2,731.93	66.1615	2,731.93	67.988	2,731.93	66.7414	2,731.93	66.5167	2,731.93	66.1811	2,731.93	58.6812	2,731.93	63.9041	2,731.93	61.6651	2,731.93	58.679	2,731.93	66.4847	2,731.93	66.7111
2,828.61	86.7073	2,828.61	86.1398	2,828.61	85.6805	2,828.61	84.2529	2,828.61	83.8455	2,828.61	83.2054	2,828.61	82.4394	2,828.61	81.7777	2,828.61	80.9886	2,828.61	80.4073	2,828.61	80.1775	2,828.61	78.9805	2,828.61	78.1763	2,828.61	75.5227	2,828.61	76.8636	2,828.61	72.5356	2,828.61	75.6459	2,828.61	68.6987	2,828.61	66.3293	2,828.61	68.4801	2,828.61	46.842	2,828.61	67.8031	2,828.61	62.4107	2,828.61	66.2356	2,828.61	67.9011	2,828.61	66.2485	2,828.61	64.8429	2,828.61	65.063	2,828.61	65.3856	2,828.61	63.926	2,828.61	59.9738	2,828.61	61.8121	2,828.61	62.352	2,828.61	52.0845	2,828.61	67.5502	2,828.61	64.9578
2,928.22	85.9908	2,928.22	85.4203	2,928.22	85.3438	2,928.22	84.4095	2,928.22	84.5223	2,928.22	83.2489	2,928.22	82.929	2,928.22	82.2156	2,928.22	80.1051	2,928.22	80.4056	2,928.22	79.485	2,928.22	77.9886	2,928.22	78.2675	2,928.22	73.1944	2,928.22	76.4778	2,928.22	72.6566	2,928.22	73.3419	2,928.22	72.0444	2,928.22	62.0855	2,928.22	69.6038	2,928.22	64.1539	2,928.22	68.2786	2,928.22	69.9452	2,928.22	66.6011	2,928.22	66.0803	2,928.22	65.6137	2,928.22	69.3007	2,928.22	64.4221	2,928.22	61.4	2,928.22	64.0405	2,928.22	55.3296	2,928.22	62.2903	2,928.22	63.9608	2,928.22	51.7721	2,928.22	67.1558	2,928.22	63.9967
3,030.76	86.4098	3,030.76	85.8172	3,030.76	84.4385	3,030.76	85.0109	3,030.76	84.2621	3,030.76	82.8719	3,030.76	83.4615	3,030.76	81.8432	3,030.76	79.5678	3,030.76	79.4858	3,030.76	78.5338	3,030.76	75.4738	3,030.76	78.3631	3,030.76	75.2879	3,030.76	77.1245	3,030.76	72.7485	3,030.76	72.0474	3,030.76	70.3773	3,030.76	69.66	3,030.76	68.0008	3,030.76	66.2022	3,030.76	67.9003	3,030.76	70.7133	3,030.76	67.7	3,030.76	69.1114	3,030.76	65.8195	3,030.76	67.8813	3,030.76	66.6364	3,030.76	60.9072	3,030.76	64.1483	3,030.76	52.39	3,030.76	58.9573	3,030.76	63.8014	3,030.76	51.1351	3,030.76	66.6241	3,030.76	63.4797
3,137.7	86.5148	3,137.7	86.3054	3,137.7	85.0928	3,137.7	85.0018	3,137.7	83.4491	3,137.7	82.8811	3,137.7	82.8524	3,137.7	80.9935	3,137.7	80.1133	3,137.7	79.0002	3,137.7	77.1869	3,137.7	76.3479	3,137.7	77.6163	3,137.7	76.0627	3,137.7	76.5734	3,137.7	72.5622	3,137.7	73.9628	3,137.7	72.6161	3,137.7	72.9473	3,137.7	70.3294	3,137.7	65.9872	3,137.7	69.6257	3,137.7	67.4115	3,137.7	66.7023	3,137.7	68.6822	3,137.7	67.8062	3,137.7	66.9942	3,137.7	66.9148	3,137.7	61.4342	3,137.7	65.4621	3,137.7	56.7397	3,137.7	57.1886	3,137.7	62.8572	3,137.7	58.2411	3,137.7	66.4498	3,137.7	62.9762
3,249.02	85.966	3,249.02	85.7551	3,249.02	84.9245	3,249.02	83.8629	3,249.02	83.3868	3,249.02	83.1149	3,249.02	82.5517	3,249.02	81.1359	3,249.02	80.0777	3,249.02	78.2628	3,249.02	76.5741	3,249.02	77.3066	3,249.02	76.8533	3,249.02	75.2421	3,249.02	77.0711	3,249.02	75.0253	3,249.02	74.6024	3,249.02	72.0863	3,249.02	73.958	3,249.02	68.9784	3,249.02	64.7026	3,249.02	66.8368	3,249.02	62.3742	3,249.02	66.4986	3,249.02	68.4951	3,249.02	64.2574	3,249.02	63.7955	3,249.02	65.1726	3,249.02	63.306	3,249.02	65.6172	3,249.02	56.6459	3,249.02	60.3098	3,249.02	63.4232	3,249.02	56.3276	3,249.02	65.6685	3,249.02	63.6742
3,363.28	86.1455	3,363.28	85.9684	3,363.28	84.5103	3,363.28	84.02	3,363.28	83.5098	3,363.28	83.2264	3,363.28	83.1847	3,363.28	80.5808	3,363.28	79.7151	3,363.28	78.4922	3,363.28	75.552	3,363.28	77.5971	3,363.28	77.0406	3,363.28	75.2739	3,363.28	76.6013	3,363.28	73.2434	3,363.28	73.5862	3,363.28	68.582	3,363.28	73.8783	3,363.28	67.5995	3,363.28	61.1337	3,363.28	65.8127	3,363.28	60.7318	3,363.28	65.3384	3,363.28	67.4778	3,363.28	62.8997	3,363.28	63.2589	3,363.28	64.742	3,363.28	63.6524	3,363.28	63.0826	3,363.28	55.3694	3,363.28	58.8278	3,363.28	63.9641	3,363.28	45.802	3,363.28	64.7942	3,363.28	63.0826
3,481.93	86.6836	3,481.93	85.7236	3,481.93	85.085	3,481.93	84.2611	3,481.93	83.5103	3,481.93	83.1763	3,481.93	82.7171	3,481.93	80.2776	3,481.93	79.0234	3,481.93	78.4245	3,481.93	75.2735	3,481.93	76.6975	3,481.93	77.7699	3,481.93	74.0963	3,481.93	74.7186	3,481.93	69.6413	3,481.93	74.4419	3,481.93	70.5081	3,481.93	70.3136	3,481.93	65.7647	3,481.93	57.7253	3,481.93	65.2682	3,481.93	64.417	3,481.93	63.7435	3,481.93	67.9573	3,481.93	62.1201	3,481.93	60.59	3,481.93	63.6198	3,481.93	63.3471	3,481.93	61.8013	3,481.93	58.2659	3,481.93	56.8007	3,481.93	64.1078	3,481.93	46.7048	3,481.93	64.5685	3,481.93	62.0522
3,604.98	86.3703	3,604.98	85.2535	3,604.98	84.7955	3,604.98	84.7787	3,604.98	83.6709	3,604.98	83.0511	3,604.98	82.3534	3,604.98	79.8491	3,604.98	78.8938	3,604.98	78.6257	3,604.98	75.1859	3,604.98	75.7533	3,604.98	76.756	3,604.98	72.0092	3,604.98	74.1435	3,604.98	70.9395	3,604.98	71.5784	3,604.98	67.0038	3,604.98	64.9681	3,604.98	67.222	3,604.98	60.2094	3,604.98	64.9756	3,604.98	57.9012	3,604.98	65.5296	3,604.98	65.6359	3,604.98	62.5001	3,604.98	62.4437	3,604.98	63.988	3,604.98	59.0797	3,604.98	62.9701	3,604.98	58.7243	3,604.98	60.9772	3,604.98	63.0842	3,604.98	46.3457	3,604.98	63.9712	3,604.98	60.7457
3,732.42	86.6987	3,732.42	85.4354	3,732.42	84.787	3,732.42	84.8613	3,732.42	83.2097	3,732.42	82.7477	3,732.42	82.5334	3,732.42	79.9363	3,732.42	78.4699	3,732.42	77.7627	3,732.42	75.6411	3,732.42	74.3392	3,732.42	75.7847	3,732.42	73.3374	3,732.42	73.0686	3,732.42	69.9575	3,732.42	70.9751	3,732.42	69.4211	3,732.42	63.4682	3,732.42	66.9472	3,732.42	63.7198	3,732.42	65.8177	3,732.42	61.8992	3,732.42	64.5737	3,732.42	63.4452	3,732.42	63.7672	3,732.42	63.6245	3,732.42	62.6208	3,732.42	59.4839	3,732.42	62.9115	3,732.42	59.3933	3,732.42	58.0746	3,732.42	62.6524	3,732.42	41.3802	3,732.42	62.828	3,732.42	61.9804
3,864.26	86.5252	3,864.26	85.7775	3,864.26	85.5219	3,864.26	85.3684	3,864.26	82.9201	3,864.26	82.4806	3,864.26	82.039	3,864.26	79.6948	3,864.26	79.4937	3,864.26	78.0064	3,864.26	74.8281	3,864.26	74.9518	3,864.26	74.1621	3,864.26	72.6963	3,864.26	72.2466	3,864.26	71.2754	3,864.26	67.9371	3,864.26	69.3694	3,864.26	67.3827	3,864.26	66.5961	3,864.26	64.9244	3,864.26	64.1799	3,864.26	59.0706	3,864.26	65.3234	3,864.26	62.4607	3,864.26	62.5315	3,864.26	61.3095	3,864.26	64.1084	3,864.26	59.6061	3,864.26	62.6565	3,864.26	57.923	3,864.26	58.5797	3,864.26	62.2539	3,864.26	35.1419	3,864.26	64.8177	3,864.26	60.6092
4,000.49	86.3282	4,000.49	85.9294	4,000.49	85.5884	4,000.49	84.3009	4,000.49	83.6866	4,000.49	82.0366	4,000.49	82.0492	4,000.49	79.6332	4,000.49	79.7434	4,000.49	77.1458	4,000.49	75.7057	4,000.49	74.6584	4,000.49	72.7786	4,000.49	72.5014	4,000.49	70.6284	4,000.49	68.5458	4,000.49	66.347	4,000.49	66.6821	4,000.49	67.5048	4,000.49	62.66	4,000.49	66.5369	4,000.49	64.8126	4,000.49	58.1613	4,000.49	60.3189	4,000.49	65.3258	4,000.49	63.4397	4,000.49	60.9299	4,000.49	62.3516	4,000.49	59.8354	4,000.49	60.5973	4,000.49	59.481	4,000.49	59.603	4,000.49	61.3928	4,000.49	49.3359	4,000.49	62.494	4,000.49	59.591
4,141.11	86.4152	4,141.11	85.953	4,141.11	85.7183	4,141.11	84.4441	4,141.11	83.6088	4,141.11	81.9157	4,141.11	81.6521	4,141.11	80.1705	4,141.11	78.8779	4,141.11	76.554	4,141.11	74.4465	4,141.11	73.996	4,141.11	70.6956	4,141.11	71.0681	4,141.11	67.8594	4,141.11	67.8894	4,141.11	66.588	4,141.11	67.3751	4,141.11	67.8737	4,141.11	63.9711	4,141.11	68.3115	4,141.11	60.6387	4,141.11	55.2415	4,141.11	64.399	4,141.11	60.8133	4,141.11	60.4928	4,141.11	57.1534	4,141.11	61.5642	4,141.11	58.8298	4,141.11	61.4826	4,141.11	61.1717	4,141.11	59.2222	4,141.11	60.5925	4,141.11	48.6657	4,141.11	61.8677	4,141.11	57.724
4,287.6	86.4979	4,287.6	85.7573	4,287.6	85.6599	4,287.6	83.8479	4,287.6	83.5777	4,287.6	83.2068	4,287.6	81.3328	4,287.6	79.09	4,287.6	77.8683	4,287.6	76.2169	4,287.6	73.0142	4,287.6	72.4772	4,287.6	67.2419	4,287.6	70.3185	4,287.6	67.6251	4,287.6	66.5987	4,287.6	69.7111	4,287.6	65.4927	4,287.6	68.1054	4,287.6	65.666	4,287.6	67.1805	4,287.6	64.5894	4,287.6	30.5018	4,287.6	61.0864	4,287.6	59.6437	4,287.6	62.8059	4,287.6	61.2625	4,287.6	62.074	4,287.6	56.9012	4,287.6	62.5511	4,287.6	58.9099	4,287.6	61.375	4,287.6	58.5764	4,287.6	52.7001	4,287.6	60.4467	4,287.6	54.9461
4,438.48	86.3534	4,438.48	85.8615	4,438.48	85.2886	4,438.48	84.4153	4,438.48	83.2688	4,438.48	82.5395	4,438.48	81.0715	4,438.48	78.6306	4,438.48	76.8482	4,438.48	76.1856	4,438.48	71.4801	4,438.48	72.4774	4,438.48	65.8527	4,438.48	70.3643	4,438.48	71.2148	4,438.48	69.9729	4,438.48	70.2903	4,438.48	67.8061	4,438.48	67.6563	4,438.48	65.1806	4,438.48	59.0245	4,438.48	63.0684	4,438.48	57.8211	4,438.48	64.972	4,438.48	57.2767	4,438.48	63.6841	4,438.48	62.3324	4,438.48	63.2627	4,438.48	56.5351	4,438.48	63.7801	4,438.48	60.4984	4,438.48	61.5073	4,438.48	59.357	4,438.48	55.9294	4,438.48	58.8914	4,438.48	53.0011
4,595.21	86.3248	4,595.21	85.9031	4,595.21	86.2411	4,595.21	84.1362	4,595.21	83.2579	4,595.21	83.0643	4,595.21	81.0844	4,595.21	77.6637	4,595.21	77.3524	4,595.21	76.2956	4,595.21	68.4746	4,595.21	73.066	4,595.21	69.1324	4,595.21	72.4355	4,595.21	71.3667	4,595.21	68.8503	4,595.21	69.5904	4,595.21	66.7213	4,595.21	62.3969	4,595.21	65.2576	4,595.21	63.6413	4,595.21	63.5189	4,595.21	60.5741	4,595.21	59.9162	4,595.21	56.1446	4,595.21	62.4021	4,595.21	58.2313	4,595.21	62.863	4,595.21	55.6868	4,595.21	63.9312	4,595.21	56.9116	4,595.21	63.5304	4,595.21	58.5162	4,595.21	57.8008	4,595.21	59.1188	4,595.21	54.5125
4,756.35	86.7951	4,756.35	85.7958	4,756.35	85.3527	4,756.35	84.9653	4,756.35	83.6118	4,756.35	81.6428	4,756.35	80.3803	4,756.35	78.0817	4,756.35	76.9159	4,756.35	77.084	4,756.35	69.4477	4,756.35	73.1985	4,756.35	69.0501	4,756.35	70.1539	4,756.35	71.6737	4,756.35	68.1868	4,756.35	68.8928	4,756.35	64.7007	4,756.35	65.4801	4,756.35	63.4555	4,756.35	63.2819	4,756.35	62.142	4,756.35	54.7634	4,756.35	64.0368	4,756.35	55.6133	4,756.35	61.1038	4,756.35	46.6777	4,756.35	62.8719	4,756.35	53.4045	4,756.35	63.4171	4,756.35	57.6744	4,756.35	61.9016	4,756.35	58.8557	4,756.35	57.8243	4,756.35	56.4668	4,756.35	54.2095
4,924.8	86.6564	4,924.8	86.0981	4,924.8	85.8059	4,924.8	85.1865	4,924.8	83.9891	4,924.8	81.837	4,924.8	78.7822	4,924.8	79.4882	4,924.8	76.6854	4,924.8	76.0894	4,924.8	68.636	4,924.8	72.4493	4,924.8	70.2377	4,924.8	70.26	4,924.8	68.4288	4,924.8	68.4219	4,924.8	63.7257	4,924.8	66.8572	4,924.8	63.6371	4,924.8	64.5938	4,924.8	62.9965	4,924.8	65.0299	4,924.8	63.6914	4,924.8	61.5921	4,924.8	55.7456	4,924.8	63.0017	4,924.8	55.4276	4,924.8	61.0422	4,924.8	49.9934	4,924.8	64.7451	4,924.8	56.3334	4,924.8	63.9224	4,924.8	58.4762	4,924.8	59.0348	4,924.8	57.6057	4,924.8	50.5467
5,097.66	87.3659	5,097.66	85.9239	5,097.66	85.1407	5,097.66	84.7375	5,097.66	83.829	5,097.66	82.5063	5,097.66	79.3757	5,097.66	78.2392	5,097.66	74.1474	5,097.66	75.8383	5,097.66	72.4006	5,097.66	73.355	5,097.66	67.7738	5,097.66	71.1692	5,097.66	68.0373	5,097.66	70.2964	5,097.66	61.8281	5,097.66	68.0389	5,097.66	65.6499	5,097.66	64.765	5,097.66	57.428	5,097.66	63.6933	5,097.66	61.9499	5,097.66	63.0062	5,097.66	57.1244	5,097.66	62.9272	5,097.66	56.8343	5,097.66	63.1014	5,097.66	48.205	5,097.66	63.2718	5,097.66	57.2492	5,097.66	64.4719	5,097.66	57.2094	5,097.66	60.0345	5,097.66	56.6714	5,097.66	52.422
5,277.83	86.5221	5,277.83	85.5674	5,277.83	85.8376	5,277.83	84.9923	5,277.83	84.1138	5,277.83	82.7123	5,277.83	80.0875	5,277.83	77.6681	5,277.83	72.7858	5,277.83	76.113	5,277.83	73.0294	5,277.83	74.0891	5,277.83	66.2765	5,277.83	71.9966	5,277.83	65.9208	5,277.83	68.894	5,277.83	64.3611	5,277.83	67.4632	5,277.83	65.9953	5,277.83	61.8659	5,277.83	59.6371	5,277.83	63.9328	5,277.83	59.2855	5,277.83	60.8275	5,277.83	45.5782	5,277.83	60.1021	5,277.83	57.6172	5,277.83	62.0505	5,277.83	51.3167	5,277.83	62.2745	5,277.83	56.9133	5,277.83	64.1454	5,277.83	52.4252	5,277.83	58.8859	5,277.83	55.5629	5,277.83	50.7928
5,463.87	86.8181	5,463.87	86.3261	5,463.87	85.6322	5,463.87	84.7454	5,463.87	83.6783	5,463.87	82.5571	5,463.87	79.9722	5,463.87	76.8759	5,463.87	74.7529	5,463.87	76.2049	5,463.87	75.1316	5,463.87	73.7881	5,463.87	64.3503	5,463.87	70.6809	5,463.87	65.1045	5,463.87	67.4032	5,463.87	63.5025	5,463.87	65.2877	5,463.87	64.4132	5,463.87	61.8607	5,463.87	60.4264	5,463.87	60.5498	5,463.87	61.6109	5,463.87	62.5408	5,463.87	30.3905	5,463.87	59.2409	5,463.87	49.8899	5,463.87	60.9346	5,463.87	40.0101	5,463.87	59.5042	5,463.87	57.3527	5,463.87	63.247	5,463.87	50.8313	5,463.87	58.6714	5,463.87	53.7615	5,463.87	53.5677
5,657.23	86.5256	5,657.23	85.7613	5,657.23	85.3193	5,657.23	84.6118	5,657.23	83.3298	5,657.23	82.0007	5,657.23	79.5005	5,657.23	78.1124	5,657.23	76.1914	5,657.23	74.8687	5,657.23	75.677	5,657.23	73.3128	5,657.23	66.4595	5,657.23	70.5222	5,657.23	65.2031	5,657.23	66.8689	5,657.23	65.2499	5,657.23	66.6506	5,657.23	59.9858	5,657.23	63.9811	5,657.23	59.4588	5,657.23	61.7035	5,657.23	61.053	5,657.23	59.3219	5,657.23	35.6321	5,657.23	62.1903	5,657.23	50.9617	5,657.23	60.3835	5,657.23	52.1475	5,657.23	60.4869	5,657.23	57.4347	5,657.23	63.1963	5,657.23	49.2853	5,657.23	59.8902	5,657.23	56.4512	5,657.23	48.9203
5,856.45	86.4918	5,856.45	86.017	5,856.45	85.2953	5,856.45	84.6287	5,856.45	82.6481	5,856.45	81.9701	5,856.45	80.3867	5,856.45	77.5209	5,856.45	77.9165	5,856.45	75.0521	5,856.45	72.7424	5,856.45	73.9133	5,856.45	67.4649	5,856.45	71.4221	5,856.45	60.7826	5,856.45	68.4756	5,856.45	67.5509	5,856.45	63.9348	5,856.45	56.9988	5,856.45	60.7305	5,856.45	58.9307	5,856.45	61.3127	5,856.45	58.7868	5,856.45	59.1729	5,856.45	49.9902	5,856.45	59.6599	5,856.45	50.1489	5,856.45	59.7694	5,856.45	44.6738	5,856.45	60.3937	5,856.45	54.332	5,856.45	61.4704	5,856.45	52.8971	5,856.45	59.8115	5,856.45	55.6034	5,856.45	53.2426
6,062.99	86.1164	6,062.99	86.0534	6,062.99	85.0379	6,062.99	84.4433	6,062.99	83.2604	6,062.99	82.0404	6,062.99	80.7074	6,062.99	77.1025	6,062.99	78.1979	6,062.99	76.3152	6,062.99	71.5534	6,062.99	72.7317	6,062.99	67.5776	6,062.99	69.4622	6,062.99	65.506	6,062.99	66.4949	6,062.99	65.5072	6,062.99	60.8927	6,062.99	56.2189	6,062.99	61.8599	6,062.99	58.039	6,062.99	58.7783	6,062.99	57.9506	6,062.99	59.5865	6,062.99	52.0085	6,062.99	58.8172	6,062.99	37.4619	6,062.99	58.2273	6,062.99	53.3992	6,062.99	59.2734	6,062.99	49.8069	6,062.99	61.2886	6,062.99	49.0551	6,062.99	60.9504	6,062.99	54.5951	6,062.99	48.7776
6,276.86	86.6158	6,276.86	85.9649	6,276.86	85.4217	6,276.86	85.0386	6,276.86	83.0457	6,276.86	81.9747	6,276.86	80.1056	6,276.86	77.6697	6,276.86	76.9009	6,276.86	76.2166	6,276.86	71.599	6,276.86	72.7936	6,276.86	68.7231	6,276.86	68.6044	6,276.86	62.1665	6,276.86	66.5934	6,276.86	65.8985	6,276.86	63.8826	6,276.86	57.6128	6,276.86	63.1103	6,276.86	60.8554	6,276.86	60.203	6,276.86	57.3665	6,276.86	59.1666	6,276.86	52.4144	6,276.86	60.7361	6,276.86	51.5563	6,276.86	58.6107	6,276.86	54.977	6,276.86	58.8959	6,276.86	50.3123	6,276.86	62.4617	6,276.86	52.1157	6,276.86	60.5265	6,276.86	52.1369	6,276.86	50.8687
6,498.05	86.7907	6,498.05	86.538	6,498.05	85.2622	6,498.05	85.0179	6,498.05	82.2819	6,498.05	81.7576	6,498.05	79.6128	6,498.05	78.3502	6,498.05	75.8937	6,498.05	75.1947	6,498.05	72.9132	6,498.05	73.6745	6,498.05	70.0239	6,498.05	69.5296	6,498.05	61.0232	6,498.05	67.8658	6,498.05	59.9508	6,498.05	63.2245	6,498.05	47.1963	6,498.05	61.0748	6,498.05	58.0823	6,498.05	60.5395	6,498.05	54.3	6,498.05	58.9255	6,498.05	52.5469	6,498.05	60.6587	6,498.05	48.8679	6,498.05	58.535	6,498.05	53.1435	6,498.05	58.3841	6,498.05	54.7987	6,498.05	62.1887	6,498.05	51.1391	6,498.05	61.3196	6,498.05	49.6381	6,498.05	51.3155
6,726.56	86.5754	6,726.56	86.3628	6,726.56	85.2109	6,726.56	84.9961	6,726.56	83.0492	6,726.56	81.9327	6,726.56	79.4053	6,726.56	77.4225	6,726.56	75.7971	6,726.56	76.0435	6,726.56	74.328	6,726.56	72.7139	6,726.56	68.9514	6,726.56	68.2202	6,726.56	62.6639	6,726.56	65.9277	6,726.56	54.8039	6,726.56	63.5736	6,726.56	58.7521	6,726.56	62.6022	6,726.56	50.4715	6,726.56	58.4293	6,726.56	53.6553	6,726.56	60.3335	6,726.56	47.6536	6,726.56	59.062	6,726.56	40.5632	6,726.56	59.1802	6,726.56	55.3713	6,726.56	58.3486	6,726.56	54.9268	6,726.56	60.2253	6,726.56	47.4679	6,726.56	60.0203	6,726.56	48.2308	6,726.56	54.2966
6,963.87	86.4345	6,963.87	86.4877	6,963.87	85.7403	6,963.87	84.8082	6,963.87	83.1561	6,963.87	82.1554	6,963.87	80.5179	6,963.87	77.6878	6,963.87	76.7275	6,963.87	75.6165	6,963.87	75.0676	6,963.87	72.5361	6,963.87	70.7654	6,963.87	69.0723	6,963.87	59.0657	6,963.87	66.9442	6,963.87	61.6488	6,963.87	64.313	6,963.87	58.2417	6,963.87	62.9862	6,963.87	53.0933	6,963.87	58.4237	6,963.87	60.0296	6,963.87	60.495	6,963.87	53.5965	6,963.87	59.6939	6,963.87	39.1294	6,963.87	59.0436	6,963.87	54.6752	6,963.87	58.0401	6,963.87	54.069	6,963.87	60.4337	6,963.87	48.1632	6,963.87	59.5371	6,963.87	50.3163	6,963.87	54.2953
7,209.96	86.7353	7,209.96	86.6215	7,209.96	85.1636	7,209.96	84.7364	7,209.96	82.4608	7,209.96	82.083	7,209.96	80.9385	7,209.96	78.4617	7,209.96	78.628	7,209.96	74.5505	7,209.96	75.1405	7,209.96	72.9102	7,209.96	69.4228	7,209.96	69.9963	7,209.96	64.8522	7,209.96	66.7745	7,209.96	61.4596	7,209.96	62.5498	7,209.96	57.4702	7,209.96	61.396	7,209.96	56.6133	7,209.96	59.0851	7,209.96	59.8827	7,209.96	58.5054	7,209.96	54.0529	7,209.96	59.502	7,209.96	31.3886	7,209.96	57.9393	7,209.96	56.2483	7,209.96	57.0519	7,209.96	54.7766	7,209.96	60.5061	7,209.96	44.7692	7,209.96	59.4197	7,209.96	51.0561	7,209.96	53.9504
7,464.84	86.7888	7,464.84	86.5662	7,464.84	85.1649	7,464.84	84.5284	7,464.84	82.8251	7,464.84	82.1849	7,464.84	81.0706	7,464.84	78.0408	7,464.84	79.6418	7,464.84	75.4679	7,464.84	75.9035	7,464.84	72.4798	7,464.84	64.213	7,464.84	69.7847	7,464.84	68.357	7,464.84	67.5389	7,464.84	49.1696	7,464.84	63.7412	7,464.84	54.7985	7,464.84	62.2427	7,464.84	55.8444	7,464.84	59.0395	7,464.84	61.9594	7,464.84	59.4986	7,464.84	55.7928	7,464.84	59.3962	7,464.84	33.9211	7,464.84	57.822	7,464.84	54.109	7,464.84	56.2924	7,464.84	50.3527	7,464.84	59.4505	7,464.84	46.8068	7,464.84	58.984	7,464.84	51.4891	7,464.84	51.1704
7,727.05	86.4313	7,727.05	86.3355	7,727.05	85.0026	7,727.05	84.473	7,727.05	83.0487	7,727.05	82.0404	7,727.05	81.5676	7,727.05	77.7644	7,727.05	78.5046	7,727.05	74.9839	7,727.05	75.6715	7,727.05	72.9136	7,727.05	68.9667	7,727.05	69.0749	7,727.05	67.8932	7,727.05	67.3526	7,727.05	47.9992	7,727.05	64.5254	7,727.05	49.5451	7,727.05	61.4697	7,727.05	60.8092	7,727.05	57.5322	7,727.05	64.9101	7,727.05	58.6735	7,727.05	56.812	7,727.05	57.7704	7,727.05	38.7488	7,727.05	58.4626	7,727.05	53.7338	7,727.05	55.4915	7,727.05	46.3899	7,727.05	57.5869	7,727.05	49.083	7,727.05	57.8224	7,727.05	50.4357	7,727.05	51.1625
7,999.51	86.4894	7,999.51	86.0912	7,999.51	84.7227	7,999.51	84.6424	7,999.51	82.8124	7,999.51	81.6896	7,999.51	81.5758	7,999.51	77.6321	7,999.51	77.4026	7,999.51	74.5554	7,999.51	73.7145	7,999.51	72.9077	7,999.51	73.2492	7,999.51	68.5863	7,999.51	63.3055	7,999.51	66.157	7,999.51	57.0819	7,999.51	63.2943	7,999.51	55.2439	7,999.51	59.7859	7,999.51	58.9892	7,999.51	58.0423	7,999.51	63.554	7,999.51	58.4052	7,999.51	52.6308	7,999.51	57.7198	7,999.51	44.6592	7,999.51	57.3569	7,999.51	53.0192	7,999.51	53.3722	7,999.51	45.3661	7,999.51	56.5483	7,999.51	49.7846	7,999.51	56.96	7,999.51	49.4756	7,999.51	50.5657
8,282.23	86.3477	8,282.23	86.1481	8,282.23	85.0644	8,282.23	84.4118	8,282.23	82.7269	8,282.23	81.6244	8,282.23	81.0253	8,282.23	77.1958	8,282.23	78.4065	8,282.23	74.181	8,282.23	73.1721	8,282.23	72.1313	8,282.23	73.4956	8,282.23	68.7366	8,282.23	63.5448	8,282.23	64.8203	8,282.23	58.2773	8,282.23	62.2436	8,282.23	51.87	8,282.23	57.817	8,282.23	60.5343	8,282.23	56.8118	8,282.23	66.3989	8,282.23	57.9455	8,282.23	55.8438	8,282.23	57.6796	8,282.23	46.643	8,282.23	56.1257	8,282.23	53.8847	8,282.23	52.7823	8,282.23	48.9792	8,282.23	54.5114	8,282.23	45.0114	8,282.23	55.8147	8,282.23	48.4972	8,282.23	50.7734
8,573.73	86.4409	8,573.73	86.1844	8,573.73	85.143	8,573.73	84.1388	8,573.73	82.7536	8,573.73	81.506	8,573.73	80.25	8,573.73	76.9142	8,573.73	77.8172	8,573.73	73.7389	8,573.73	74.9585	8,573.73	72.1851	8,573.73	69.5594	8,573.73	67.6761	8,573.73	68.4342	8,573.73	64.8616	8,573.73	61.2802	8,573.73	61.4034	8,573.73	43.3335	8,573.73	57.9272	8,573.73	62.6972	8,573.73	55.6402	8,573.73	68.0153	8,573.73	56.845	8,573.73	58.723	8,573.73	56.9721	8,573.73	42.2516	8,573.73	55.255	8,573.73	51.9988	8,573.73	53.7947	8,573.73	48.4369	8,573.73	53.0118	8,573.73	45.9196	8,573.73	54.1062	8,573.73	49.6579	8,573.73	50.9509
8,876.95	86.5715	8,876.95	86.3661	8,876.95	85.3116	8,876.95	84.3218	8,876.95	83.1081	8,876.95	81.3462	8,876.95	81.4988	8,876.95	76.8391	8,876.95	77.506	8,876.95	73.6483	8,876.95	75.7434	8,876.95	71.7257	8,876.95	67.8043	8,876.95	67.9406	8,876.95	68.6706	8,876.95	62.1614	8,876.95	59.802	8,876.95	60.0797	8,876.95	50.2206	8,876.95	57.921	8,876.95	62.2814	8,876.95	53.2205	8,876.95	68.4436	8,876.95	56.2397	8,876.95	61.6887	8,876.95	54.0283	8,876.95	39.4759	8,876.95	56.6842	8,876.95	52.4634	8,876.95	53.6017	8,876.95	43.593	8,876.95	52.0203	8,876.95	42.4624	8,876.95	53.761	8,876.95	47.7895	8,876.95	48.9224
9,188.96	86.5298	9,188.96	86.3438	9,188.96	85.1577	9,188.96	84.4864	9,188.96	83.381	9,188.96	81.307	9,188.96	81.1043	9,188.96	76.6933	9,188.96	75.8325	9,188.96	73.573	9,188.96	74.8604	9,188.96	71.5702	9,188.96	72.0535	9,188.96	66.1649	9,188.96	65.3963	9,188.96	63.4186	9,188.96	62.5691	9,188.96	61.5351	9,188.96	54.2868	9,188.96	56.7956	9,188.96	61.584	9,188.96	55.1613	9,188.96	69.1001	9,188.96	55.4277	9,188.96	59.8848	9,188.96	55.9875	9,188.96	31.8695	9,188.96	56.0492	9,188.96	53.2552	9,188.96	53.996	9,188.96	39.8624	9,188.96	49.4035	9,188.96	39.8578	9,188.96	50.2207	9,188.96	49.1718	9,188.96	50.1876
9,514.16	86.3964	9,514.16	86.3708	9,514.16	85.0197	9,514.16	84.4559	9,514.16	83.0829	9,514.16	81.24	9,514.16	80.6462	9,514.16	76.9203	9,514.16	77.7611	9,514.16	73.7313	9,514.16	73.3619	9,514.16	70.466	9,514.16	71.7441	9,514.16	66.7634	9,514.16	64.7039	9,514.16	60.6873	9,514.16	63.4737	9,514.16	60.7769	9,514.16	46.9199	9,514.16	56.7797	9,514.16	62.1573	9,514.16	53.565	9,514.16	69.8813	9,514.16	55.4909	9,514.16	59.3325	9,514.16	56.2521	9,514.16	37.7999	9,514.16	56.4247	9,514.16	52.4825	9,514.16	51.1669	9,514.16	29.4307	9,514.16	49.2352	9,514.16	44.9923	9,514.16	49.2797	9,514.16	47.9327	9,514.16	49.2527
9,849.61	86.394	9,849.61	86.3006	9,849.61	85.089	9,849.61	84.2828	9,849.61	83.3751	9,849.61	80.9379	9,849.61	81.0854	9,849.61	76.8168	9,849.61	77.8538	9,849.61	73.5961	9,849.61	72.0155	9,849.61	70.6136	9,849.61	71.0271	9,849.61	65.6222	9,849.61	64.5428	9,849.61	63.0584	9,849.61	61.0881	9,849.61	61.5704	9,849.61	56.7394	9,849.61	57.8604	9,849.61	62.4977	9,849.61	52.1041	9,849.61	70.8001	9,849.61	55.1035	9,849.61	60.701	9,849.61	55.7347	9,849.61	28.0528	9,849.61	55.4833	9,849.61	49.0105	9,849.61	53.0176	9,849.61	40.7924	9,849.61	48.8208	9,849.61	42.0366	9,849.61	50.6116	9,849.61	47.3822	9,849.61	48.531
10,196.8	86.6134	10,196.8	86.345	10,196.8	85.1321	10,196.8	83.994	10,196.8	83.2696	10,196.8	80.7373	10,196.8	80.56	10,196.8	76.3816	10,196.8	74.7729	10,196.8	73.2925	10,196.8	73.0256	10,196.8	68.5375	10,196.8	69.3918	10,196.8	66.1793	10,196.8	65.8072	10,196.8	61.4377	10,196.8	61.5867	10,196.8	60.2527	10,196.8	58.2348	10,196.8	56.1302	10,196.8	61.5856	10,196.8	50.7447	10,196.8	70.4064	10,196.8	53.5394	10,196.8	61.228	10,196.8	54.8768	10,196.8	17.1288	10,196.8	54.9812	10,196.8	49.7369	10,196.8	51.3557	10,196.8	45.2225	10,196.8	47.7367	10,196.8	33.3313	10,196.8	47.8071	10,196.8	45.2939	10,196.8	47.9774
10,555.7	86.6756	10,555.7	86.5026	10,555.7	85.2971	10,555.7	83.9828	10,555.7	83.0816	10,555.7	80.1636	10,555.7	79.4585	10,555.7	76.519	10,555.7	73.7484	10,555.7	72.1993	10,555.7	74.226	10,555.7	68.4067	10,555.7	67.191	10,555.7	65.7838	10,555.7	65.4715	10,555.7	61.6312	10,555.7	62.2166	10,555.7	58.6166	10,555.7	55.6508	10,555.7	55.6017	10,555.7	61.1136	10,555.7	49.4067	10,555.7	71.0298	10,555.7	51.9978	10,555.7	60.6391	10,555.7	55.1612	10,555.7	37.8835	10,555.7	54.1867	10,555.7	50.8326	10,555.7	50.3208	10,555.7	41.7114	10,555.7	49.7423	10,555.7	39.734	10,555.7	49.893	10,555.7	44.1216	10,555.7	47.2549
10,927.7	86.4691	10,927.7	86.3491	10,927.7	84.9809	10,927.7	83.7174	10,927.7	83.0131	10,927.7	79.6142	10,927.7	79.3878	10,927.7	75.9796	10,927.7	75.3134	10,927.7	71.7332	10,927.7	72.5079	10,927.7	67.9724	10,927.7	68.4374	10,927.7	65.6534	10,927.7	62.6953	10,927.7	58.8136	10,927.7	60.8611	10,927.7	57.7095	10,927.7	59.0021	10,927.7	55.2375	10,927.7	61.9172	10,927.7	48.2545	10,927.7	71.2308	10,927.7	50.4701	10,927.7	60.9653	10,927.7	54.3587	10,927.7	23.0193	10,927.7	53.1223	10,927.7	41.2094	10,927.7	49.6736	10,927.7	40.2435	10,927.7	49.5648	10,927.7	34.6752	10,927.7	49.6436	10,927.7	43.0881	10,927.7	46.7954
11,313	86.4393	11,313	86.0402	11,313	84.6456	11,313	83.5523	11,313	82.8227	11,313	79.3639	11,313	79.602	11,313	76.0419	11,313	76.1134	11,313	70.987	11,313	70.3874	11,313	68.5505	11,313	65.6929	11,313	64.7719	11,313	63.4275	11,313	58.1133	11,313	60.7574	11,313	57.2361	11,313	60.0897	11,313	54.5121	11,313	62.2002	11,313	48.7214	11,313	71.4641	11,313	49.7772	11,313	60.0831	11,313	55.2931	11,313	37.4865	11,313	52.0095	11,313	49.3445	11,313	49.0359	11,313	41.2007	11,313	49.7318	11,313	34.491	11,313	49.0395	11,313	44.0804	11,313	44.6949
11,712.9	86.5604	11,712.9	85.983	11,712.9	84.4871	11,712.9	83.5748	11,712.9	82.3109	11,712.9	78.9797	11,712.9	79.0475	11,712.9	75.6846	11,712.9	73.2263	11,712.9	71.4755	11,712.9	70.0605	11,712.9	68.2401	11,712.9	66.6208	11,712.9	63.9683	11,712.9	64.1563	11,712.9	58.6801	11,712.9	60.749	11,712.9	56.1122	11,712.9	58.1924	11,712.9	55.0225	11,712.9	63.2556	11,712.9	48.3677	11,712.9	72.1344	11,712.9	50.6028	11,712.9	60.9092	11,712.9	55.0342	11,712.9	42.1191	11,712.9	50.8846	11,712.9	47.4936	11,712.9	49.1998	11,712.9	34.3097	11,712.9	51.4995	11,712.9	40.4396	11,712.9	51.0799	11,712.9	38.1748	11,712.9	47.1857
12,126	86.4176	12,126	85.8725	12,126	84.4917	12,126	83.3063	12,126	82.2506	12,126	78.9689	12,126	78.9713	12,126	75.4958	12,126	73.8358	12,126	71.5675	12,126	70.7384	12,126	68.0419	12,126	64.6177	12,126	63.2219	12,126	64.1683	12,126	58.2731	12,126	58.7989	12,126	55.9079	12,126	59.2867	12,126	54.57	12,126	63.3076	12,126	50.9851	12,126	72.2074	12,126	49.4109	12,126	61.522	12,126	54.863	12,126	37.2489	12,126	50.5615	12,126	46.1109	12,126	51.9535	12,126	40.1742	12,126	53.1498	12,126	35.912	12,126	52.503	12,126	43.871	12,126	50.5239
12,553.7	86.2918	12,553.7	85.7751	12,553.7	84.4393	12,553.7	83.0724	12,553.7	82.1026	12,553.7	78.8144	12,553.7	78.4077	12,553.7	75.6011	12,553.7	74.338	12,553.7	72.3119	12,553.7	71.5128	12,553.7	67.5567	12,553.7	65.8642	12,553.7	63.7206	12,553.7	59.9444	12,553.7	59.6646	12,553.7	57.3364	12,553.7	55.7429	12,553.7	60.5532	12,553.7	53.0225	12,553.7	63.1732	12,553.7	50.9791	12,553.7	72.1852	12,553.7	48.7432	12,553.7	60.8631	12,553.7	55.4794	12,553.7	42.4145	12,553.7	48.9191	12,553.7	49.0298	12,553.7	52.4913	12,553.7	37.5436	12,553.7	52.2218	12,553.7	39.285	12,553.7	52.2684	12,553.7	46.2925	12,553.7	49.0498
12,996.1	86.2903	12,996.1	85.7493	12,996.1	84.2357	12,996.1	83.0387	12,996.1	81.8387	12,996.1	79.194	12,996.1	78.9764	12,996.1	75.8174	12,996.1	73.8966	12,996.1	73.0519	12,996.1	71.1958	12,996.1	68.2975	12,996.1	69.8796	12,996.1	64.0828	12,996.1	60.9088	12,996.1	60.1419	12,996.1	59.3053	12,996.1	55.8959	12,996.1	59.6381	12,996.1	52.5861	12,996.1	63.193	12,996.1	50.0672	12,996.1	72.2618	12,996.1	49.8582	12,996.1	61.2109	12,996.1	55.3548	12,996.1	46.4727	12,996.1	49.9392	12,996.1	47.5085	12,996.1	53.1285	12,996.1	40.3756	12,996.1	53.6867	12,996.1	44.7373	12,996.1	52.4397	12,996.1	47.1369	12,996.1	50.063
13,454.6	86.4222	13,454.6	85.7102	13,454.6	84.2965	13,454.6	83.1659	13,454.6	82.005	13,454.6	79.7041	13,454.6	78.9445	13,454.6	76.5478	13,454.6	75.2014	13,454.6	73.5966	13,454.6	71.916	13,454.6	68.9739	13,454.6	68.7466	13,454.6	64.9982	13,454.6	58.9715	13,454.6	60.0133	13,454.6	59.2284	13,454.6	56.3511	13,454.6	59.0103	13,454.6	49.9656	13,454.6	62.9352	13,454.6	50.3597	13,454.6	72.1232	13,454.6	50.3055	13,454.6	60.054	13,454.6	53.9435	13,454.6	46.3582	13,454.6	52.2948	13,454.6	50.6317	13,454.6	55.6002	13,454.6	37.6745	13,454.6	54.4501	13,454.6	46.1878	13,454.6	53.0955	13,454.6	46.124	13,454.6	50.721
13,929.2	86.3074	13,929.2	85.7176	13,929.2	84.5449	13,929.2	83.3041	13,929.2	82.146	13,929.2	79.7777	13,929.2	79.4214	13,929.2	76.8565	13,929.2	74.2845	13,929.2	73.8713	13,929.2	70.9984	13,929.2	69.6184	13,929.2	68.4053	13,929.2	64.2122	13,929.2	62.1964	13,929.2	59.2098	13,929.2	49.5411	13,929.2	57.0494	13,929.2	59.3117	13,929.2	47.1305	13,929.2	61.9591	13,929.2	47.9734	13,929.2	71.1845	13,929.2	50.2586	13,929.2	58.507	13,929.2	50.804	13,929.2	45.8092	13,929.2	52.9533	13,929.2	48.032	13,929.2	55.0496	13,929.2	39.0519	13,929.2	53.6074	13,929.2	47.8818	13,929.2	52.7706	13,929.2	44.5092	13,929.2	50.4458
14,419.9	86.22	14,419.9	85.7822	14,419.9	84.6308	14,419.9	83.557	14,419.9	82.3375	14,419.9	80.2457	14,419.9	79.7087	14,419.9	77.7786	14,419.9	74.9533	14,419.9	74.3162	14,419.9	73.1015	14,419.9	70.9889	14,419.9	69.5002	14,419.9	64.2583	14,419.9	59.9335	14,419.9	60.5857	14,419.9	55.5631	14,419.9	57.561	14,419.9	56.4005	14,419.9	50.2821	14,419.9	60.7577	14,419.9	45.9612	14,419.9	70.6988	14,419.9	53.4876	14,419.9	57.659	14,419.9	49.1645	14,419.9	46.8655	14,419.9	55.3	14,419.9	45.7467	14,419.9	56.5572	14,419.9	41.9016	14,419.9	54.9857	14,419.9	47.1303	14,419.9	53.6679	14,419.9	46.6656	14,419.9	51.9875
14,928.2	86.2869	14,928.2	85.7038	14,928.2	84.9694	14,928.2	84.229	14,928.2	82.8956	14,928.2	80.7395	14,928.2	80.4695	14,928.2	78.3976	14,928.2	75.1858	14,928.2	74.8141	14,928.2	72.4702	14,928.2	71.3643	14,928.2	70.306	14,928.2	64.2801	14,928.2	65.3065	14,928.2	61.3619	14,928.2	32.8661	14,928.2	58.6367	14,928.2	54.8053	14,928.2	53.6734	14,928.2	59.4226	14,928.2	40.8246	14,928.2	70.3428	14,928.2	53.3639	14,928.2	56.0821	14,928.2	47.2059	14,928.2	49.7219	14,928.2	57.8346	14,928.2	48.5095	14,928.2	57.2846	14,928.2	43.8099	14,928.2	55.5347	14,928.2	48.1833	14,928.2	55.0682	14,928.2	48.6098	14,928.2	52.4826
15,455.6	86.4274	15,455.6	85.7512	15,455.6	85.2522	15,455.6	84.2923	15,455.6	83.0374	15,455.6	80.4749	15,455.6	80.0111	15,455.6	78.2275	15,455.6	74.6471	15,455.6	74.6634	15,455.6	72.2085	15,455.6	70.7969	15,455.6	68.4416	15,455.6	64.4872	15,455.6	61.8587	15,455.6	60.2776	15,455.6	52.1225	15,455.6	58.4282	15,455.6	54.1039	15,455.6	55.0672	15,455.6	56.8493	15,455.6	40.909	15,455.6	69.2165	15,455.6	52.0793	15,455.6	54.4494	15,455.6	49.8069	15,455.6	49.8433	15,455.6	57.9761	15,455.6	47.7333	15,455.6	56.7772	15,455.6	47.1478	15,455.6	54.9411	15,455.6	48.2899	15,455.6	55.8987	15,455.6	49.1424	15,455.6	52.1454
16,000.5	85.8435	16,000.5	85.4268	16,000.5	84.772	16,000.5	84.0909	16,000.5	82.4689	16,000.5	79.7829	16,000.5	79.4112	16,000.5	77.4329	16,000.5	73.0042	16,000.5	73.8409	16,000.5	71.4926	16,000.5	69.5901	16,000.5	69.1063	16,000.5	63.6093	16,000.5	64.0484	16,000.5	58.2615	16,000.5	52.2307	16,000.5	56.7319	16,000.5	51.6435	16,000.5	55.8818	16,000.5	54.9685	16,000.5	48.6475	16,000.5	68.7795	16,000.5	49.886	16,000.5	54.114	16,000.5	50.8648	16,000.5	47.3013	16,000.5	57.1862	16,000.5	44.3814	16,000.5	55.8136	16,000.5	48.5687	16,000.5	55.731	16,000.5	45.0517	16,000.5	56.0065	16,000.5	49.7571	16,000.5	53.1956
16,564.5	85.1632	16,564.5	84.606	16,564.5	84.199	16,564.5	83.5976	16,564.5	82.0203	16,564.5	79.3049	16,564.5	78.6589	16,564.5	76.7277	16,564.5	71.4113	16,564.5	73.164	16,564.5	70.5647	16,564.5	68.7755	16,564.5	67.8024	16,564.5	62.246	16,564.5	64.1215	16,564.5	55.8932	16,564.5	57.2255	16,564.5	54.5818	16,564.5	48.0849	16,564.5	57.0853	16,564.5	55.4949	16,564.5	51.8007	16,564.5	68.7486	16,564.5	48.8223	16,564.5	54.5775	16,564.5	52.3104	16,564.5	45.5937	16,564.5	56.4596	16,564.5	41.1484	16,564.5	54.9366	16,564.5	47.2882	16,564.5	55.6479	16,564.5	48.0075	16,564.5	57.2938	16,564.5	51.8316	16,564.5	54.0232
17,148.9	84.7768	17,148.9	84.1245	17,148.9	83.6961	17,148.9	83.4154	17,148.9	81.5012	17,148.9	78.9076	17,148.9	77.7442	17,148.9	75.7684	17,148.9	70.6037	17,148.9	71.8459	17,148.9	68.205	17,148.9	67.8619	17,148.9	66.6915	17,148.9	60.5507	17,148.9	62.1432	17,148.9	53.611	17,148.9	57.4117	17,148.9	51.6557	17,148.9	44.5297	17,148.9	56.1541	17,148.9	57.387	17,148.9	54.4632	17,148.9	69.0115	17,148.9	45.1669	17,148.9	56.4289	17,148.9	53.359	17,148.9	47.2423	17,148.9	55.0591	17,148.9	44.4097	17,148.9	54.0163	17,148.9	48.1807	17,148.9	56.3108	17,148.9	47.8874	17,148.9	58.5686	17,148.9	52.0045	17,148.9	54.8699
17,752.4	84.3794	17,752.4	84.2998	17,752.4	82.8005	17,752.4	83.6427	17,752.4	81.296	17,752.4	78.2537	17,752.4	77.5874	17,752.4	74.1597	17,752.4	68.9057	17,752.4	69.1752	17,752.4	67.687	17,752.4	66.0971	17,752.4	65.3754	17,752.4	59.2752	17,752.4	63.0362	17,752.4	53.2748	17,752.4	58.7914	17,752.4	47.5377	17,752.4	49.042	17,752.4	56.0338	17,752.4	58.7849	17,752.4	56.1634	17,752.4	69.5362	17,752.4	44.4979	17,752.4	56.4855	17,752.4	50.5392	17,752.4	43.1219	17,752.4	50.737	17,752.4	40.2365	17,752.4	52.5991	17,752.4	48.9484	17,752.4	57.1009	17,752.4	51.804	17,752.4	59.3976	17,752.4	53.8812	17,752.4	56.4524
18,379.4	83.8965	18,379.4	84.7775	18,379.4	82.5056	18,379.4	83.6483	18,379.4	82.5171	18,379.4	76.7075	18,379.4	77.9011	18,379.4	72.1035	18,379.4	69.002	18,379.4	66.5054	18,379.4	66.5987	18,379.4	64.6719	18,379.4	65.154	18,379.4	60.3731	18,379.4	61.648	18,379.4	53.7293	18,379.4	58.0695	18,379.4	48.3507	18,379.4	49.3245	18,379.4	54.868	18,379.4	60.32	18,379.4	57.0473	18,379.4	70.0222	18,379.4	39.4602	18,379.4	57.1779	18,379.4	49.9324	18,379.4	45.2935	18,379.4	47.8745	18,379.4	38.6907	18,379.4	53.5774	18,379.4	50.3723	18,379.4	57.9655	18,379.4	53.0502	18,379.4	59.4903	18,379.4	52.7238	18,379.4	58.0716
19,026.9	83.672	19,026.9	84.5218	19,026.9	83.8692	19,026.9	82.4062	19,026.9	83.8422	19,026.9	73.2251	19,026.9	78.0294	19,026.9	69.9512	19,026.9	66.9159	19,026.9	64.6215	19,026.9	64.1973	19,026.9	63.7712	19,026.9	62.9641	19,026.9	62.2947	19,026.9	60.3002	19,026.9	56.7334	19,026.9	59.1618	19,026.9	53.7603	19,026.9	51.6942	19,026.9	53.3839	19,026.9	61.2444	19,026.9	57.8864	19,026.9	69.863	19,026.9	36.4251	19,026.9	56.4797	19,026.9	47.5837	19,026.9	40.455	19,026.9	43.9963	19,026.9	44.8603	19,026.9	54.643	19,026.9	48.2307	19,026.9	58.9475	19,026.9	56.6301	19,026.9	59.9199	19,026.9	54.0753	19,026.9	59.3655
19,697.8	83.4333	19,697.8	82.6319	19,697.8	84.9141	19,697.8	80.3681	19,697.8	84.0636	19,697.8	71.0791	19,697.8	76.6765	19,697.8	69.9407	19,697.8	65.6183	19,697.8	65.8901	19,697.8	60.5967	19,697.8	64.8079	19,697.8	61.6939	19,697.8	63.5047	19,697.8	61.7582	19,697.8	59.5738	19,697.8	59.1364	19,697.8	57.406	19,697.8	57.612	19,697.8	53.2475	19,697.8	61.0178	19,697.8	59.7586	19,697.8	68.5307	19,697.8	42.1382	19,697.8	58.3638	19,697.8	33.0493	19,697.8	41.7165	19,697.8	48.016	19,697.8	49.8004	19,697.8	56.1301	19,697.8	50.5619	19,697.8	60.4704	19,697.8	59.7089	19,697.8	59.7696	19,697.8	57.1637	19,697.8	60.5857
19,999.5	83.2965	19,999.5	81.4613	19,999.5	84.852	19,999.5	80.137	19,999.5	83.8714	19,999.5	70.976	19,999.5	76.045	19,999.5	70.0501	19,999.5	62.0226	19,999.5	65.9703	19,999.5	59.3902	19,999.5	64.8809	19,999.5	65.9752	19,999.5	63.6095	19,999.5	58.9175	19,999.5	60.8896	19,999.5	58.9991	19,999.5	59.648	19,999.5	63.2572	19,999.5	50.8004	19,999.5	59.5293	19,999.5	59.5048	19,999.5	67.659	19,999.5	47.5112	19,999.5	60.5391	19,999.5	49.0946	19,999.5	49.0037	19,999.5	50.1233	19,999.5	53.8736	19,999.5	57.502	19,999.5	57.2835	19,999.5	59.4347	19,999.5	61.5305	19,999.5	59.9574	19,999.5	57.2894	19,999.5	60.4848
