"SPL Horizontal"
"On-Axis"		"10°"		"-10°"		"20°"		"-20°"		"30°"		"-30°"		"40°"		"-40°"		"50°"		"-50°"		"60°"		"-60°"		"70°"		"-70°"		"80°"		"-80°"		"90°"		"-90°"		"100°"		"-100°"		"110°"		"-110°"		"120°"		"-120°"		"130°"		"-130°"		"140°"		"-140°"		"150°"		"-150°"		"160°"		"-160°"		"170°"		"-170°"		"180°"
"Frequency / Hz"	"Sound Pressure Level / dB (re 20 µPa/V)  [2.83  V @ 1. m]"	"Frequency / Hz"	"Sound Pressure Level / dB (re 20 µPa/V)  [2.83  V @ 1. m]"	"Frequency / Hz"	"Sound Pressure Level / dB (re 20 µPa/V)  [2.83  V @ 1. m]"	"Frequency / Hz"	"Sound Pressure Level / dB (re 20 µPa/V)  [2.83  V @ 1. m]"	"Frequency / Hz"	"Sound Pressure Level / dB (re 20 µPa/V)  [2.83  V @ 1. m]"	"Frequency / Hz"	"Sound Pressure Level / dB (re 20 µPa/V)  [2.83  V @ 1. m]"	"Frequency / Hz"	"Sound Pressure Level / dB (re 20 µPa/V)  [2.83  V @ 1. m]"	"Frequency / Hz"	"Sound Pressure Level / dB (re 20 µPa/V)  [2.83  V @ 1. m]"	"Frequency / Hz"	"Sound Pressure Level / dB (re 20 µPa/V)  [2.83  V @ 1. m]"	"Frequency / Hz"	"Sound Pressure Level / dB (re 20 µPa/V)  [2.83  V @ 1. m]"	"Frequency / Hz"	"Sound Pressure Level / dB (re 20 µPa/V)  [2.83  V @ 1. m]"	"Frequency / Hz"	"Sound Pressure Level / dB (re 20 µPa/V)  [2.83  V @ 1. m]"	"Frequency / Hz"	"Sound Pressure Level / dB (re 20 µPa/V)  [2.83  V @ 1. m]"	"Frequency / Hz"	"Sound Pressure Level / dB (re 20 µPa/V)  [2.83  V @ 1. m]"	"Frequency / Hz"	"Sound Pressure Level / dB (re 20 µPa/V)  [2.83  V @ 1. m]"	"Frequency / Hz"	"Sound Pressure Level / dB (re 20 µPa/V)  [2.83  V @ 1. m]"	"Frequency / Hz"	"Sound Pressure Level / dB (re 20 µPa/V)  [2.83  V @ 1. m]"	"Frequency / Hz"	"Sound Pressure Level / dB (re 20 µPa/V)  [2.83  V @ 1. m]"	"Frequency / Hz"	"Sound Pressure Level / dB (re 20 µPa/V)  [2.83  V @ 1. m]"	"Frequency / Hz"	"Sound Pressure Level / dB (re 20 µPa/V)  [2.83  V @ 1. m]"	"Frequency / Hz"	"Sound Pressure Level / dB (re 20 µPa/V)  [2.83  V @ 1. m]"	"Frequency / Hz"	"Sound Pressure Level / dB (re 20 µPa/V)  [2.83  V @ 1. m]"	"Frequency / Hz"	"Sound Pressure Level / dB (re 20 µPa/V)  [2.83  V @ 1. m]"	"Frequency / Hz"	"Sound Pressure Level / dB (re 20 µPa/V)  [2.83  V @ 1. m]"	"Frequency / Hz"	"Sound Pressure Level / dB (re 20 µPa/V)  [2.83  V @ 1. m]"	"Frequency / Hz"	"Sound Pressure Level / dB (re 20 µPa/V)  [2.83  V @ 1. m]"	"Frequency / Hz"	"Sound Pressure Level / dB (re 20 µPa/V)  [2.83  V @ 1. m]"	"Frequency / Hz"	"Sound Pressure Level / dB (re 20 µPa/V)  [2.83  V @ 1. m]"	"Frequency / Hz"	"Sound Pressure Level / dB (re 20 µPa/V)  [2.83  V @ 1. m]"	"Frequency / Hz"	"Sound Pressure Level / dB (re 20 µPa/V)  [2.83  V @ 1. m]"	"Frequency / Hz"	"Sound Pressure Level / dB (re 20 µPa/V)  [2.83  V @ 1. m]"	"Frequency / Hz"	"Sound Pressure Level / dB (re 20 µPa/V)  [2.83  V @ 1. m]"	"Frequency / Hz"	"Sound Pressure Level / dB (re 20 µPa/V)  [2.83  V @ 1. m]"	"Frequency / Hz"	"Sound Pressure Level / dB (re 20 µPa/V)  [2.83  V @ 1. m]"	"Frequency / Hz"	"Sound Pressure Level / dB (re 20 µPa/V)  [2.83  V @ 1. m]"	"Frequency / Hz"	"Sound Pressure Level / dB (re 20 µPa/V)  [2.83  V @ 1. m]"
20.5078	57.8343	20.5078	57.6387	20.5078	58.0583	20.5078	57.4752	20.5078	58.3081	20.5078	57.348	20.5078	58.5809	20.5078	57.2629	20.5078	58.8741	20.5078	57.227	20.5078	59.1848	20.5078	57.2485	20.5078	59.5093	20.5078	57.3359	20.5078	59.8431	20.5078	57.4963	20.5078	60.1794	20.5078	57.7324	20.5078	60.5081	20.5078	58.0393	20.5078	60.816	20.5078	58.4031	20.5078	61.0872	20.5078	58.8028	20.5078	61.3054	20.5078	59.2163	20.5078	61.4557	20.5078	59.6256	20.5078	61.5277	20.5078	60.0186	20.5078	61.5162	20.5078	60.3868	20.5078	61.4222	20.5078	60.722	20.5078	61.2516	20.5078	61.0142
21.9727	56.2715	21.9727	56.1304	21.9727	56.4299	21.9727	56.0087	21.9727	56.6036	21.9727	55.9094	21.9727	56.7911	21.9727	55.8358	21.9727	56.9906	21.9727	55.7923	21.9727	57.2004	21.9727	55.784	21.9727	57.4187	21.9727	55.8163	21.9727	57.6427	21.9727	55.8946	21.9727	57.8684	21.9727	56.0225	21.9727	58.0897	21.9727	56.1993	21.9727	58.2972	21.9727	56.4188	21.9727	58.4792	21.9727	56.6703	21.9727	58.623	21.9727	56.9417	21.9727	58.7165	21.9727	57.2223	21.9727	58.7507	21.9727	57.5042	21.9727	58.7212	21.9727	57.7801	21.9727	58.6284	21.9727	58.0416	21.9727	58.4776	21.9727	58.2782
23.4375	59.2638	23.4375	59.2189	23.4375	59.3243	23.4375	59.19	23.4375	59.3999	23.4375	59.1769	23.4375	59.4898	23.4375	59.1794	23.4375	59.5927	23.4375	59.197	23.4375	59.7073	23.4375	59.2293	23.4375	59.8321	23.4375	59.2764	23.4375	59.9652	23.4375	59.3386	23.4375	60.1036	23.4375	59.4162	23.4375	60.2431	23.4375	59.5094	23.4375	60.3777	23.4375	59.6171	23.4375	60.5	23.4375	59.737	23.4375	60.6015	23.4375	59.8658	23.4375	60.6743	23.4375	60	23.4375	60.7124	23.4375	60.136	23.4375	60.713	23.4375	60.2701	23.4375	60.6768	23.4375	60.3975	23.4375	60.6079	23.4375	60.5124
24.9023	61.6204	24.9023	61.5723	24.9023	61.6733	24.9023	61.5298	24.9023	61.7301	24.9023	61.4932	24.9023	61.7895	24.9023	61.4628	24.9023	61.85	24.9023	61.4389	24.9023	61.9099	24.9023	61.4216	24.9023	61.9676	24.9023	61.4114	24.9023	62.0215	24.9023	61.4087	24.9023	62.0705	24.9023	61.4149	24.9023	62.1133	24.9023	61.4316	24.9023	62.1486	24.9023	61.4609	24.9023	62.1744	24.9023	61.5039	24.9023	62.1883	24.9023	61.5607	24.9023	62.1877	24.9023	61.6295	24.9023	62.1705	24.9023	61.7067	24.9023	62.1363	24.9023	61.7885	24.9023	62.0862	24.9023	61.8708	24.9023	62.023	24.9023	61.9501
26.3672	64.4052	26.3672	64.3876	26.3672	64.4235	26.3672	64.3706	26.3672	64.4426	26.3672	64.3538	26.3672	64.4622	26.3672	64.3366	26.3672	64.4819	26.3672	64.3186	26.3672	64.5012	26.3672	64.2993	26.3672	64.5195	26.3672	64.2788	26.3672	64.5364	26.3672	64.2579	26.3672	64.5514	26.3672	64.238	26.3672	64.5639	26.3672	64.2219	26.3672	64.573	26.3672	64.2128	26.3672	64.5777	26.3672	64.2138	26.3672	64.5761	26.3672	64.2267	26.3672	64.567	26.3672	64.2512	26.3672	64.5492	26.3672	64.285	26.3672	64.5231	26.3672	64.3247	26.3672	64.4899	26.3672	64.3672	26.3672	64.4516	26.3672	64.4101
27.832	67.3145	27.832	67.3168	27.832	67.3092	27.832	67.3155	27.832	67.3017	27.832	67.31	27.832	67.2924	27.832	67.2995	27.832	67.2817	27.832	67.2835	27.832	67.2702	27.832	67.2619	27.832	67.2578	27.832	67.2345	27.832	67.2449	27.832	67.2018	27.832	67.2316	27.832	67.1651	27.832	67.2177	27.832	67.1265	27.832	67.2032	27.832	67.0894	27.832	67.1877	27.832	67.0574	27.832	67.1707	27.832	67.0333	27.832	67.1517	27.832	67.0188	27.832	67.1302	27.832	67.0137	27.832	67.107	27.832	67.0167	27.832	67.0832	27.832	67.0264	27.832	67.0608	27.832	67.0414
29.2969	69.5755	29.2969	69.5514	29.2969	69.5974	29.2969	69.525	29.2969	69.6168	29.2969	69.4963	29.2969	69.6335	29.2969	69.4653	29.2969	69.6472	29.2969	69.4319	29.2969	69.6575	29.2969	69.3961	29.2969	69.6637	29.2969	69.3582	29.2969	69.6657	29.2969	69.3189	29.2969	69.6631	29.2969	69.2795	29.2969	69.6555	29.2969	69.2421	29.2969	69.6427	29.2969	69.2097	29.2969	69.6241	29.2969	69.1861	29.2969	69.5989	29.2969	69.1744	29.2969	69.5662	29.2969	69.177	29.2969	69.5257	29.2969	69.1942	29.2969	69.478	29.2969	69.2247	29.2969	69.425	29.2969	69.2661	29.2969	69.3696	29.2969	69.3155
30.7617	72.5371	30.7617	72.5325	30.7617	72.5397	30.7617	72.5259	30.7617	72.5403	30.7617	72.5172	30.7617	72.5388	30.7617	72.5061	30.7617	72.5349	30.7617	72.4923	30.7617	72.5285	30.7617	72.4756	30.7617	72.5197	30.7617	72.4556	30.7617	72.5086	30.7617	72.4324	30.7617	72.4956	30.7617	72.4065	30.7617	72.4812	30.7617	72.379	30.7617	72.4658	30.7617	72.3517	30.7617	72.4496	30.7617	72.327	30.7617	72.4327	30.7617	72.3072	30.7617	72.4146	30.7617	72.2942	30.7617	72.3952	30.7617	72.2888	30.7617	72.3744	30.7617	72.2909	30.7617	72.353	30.7617	72.2997	30.7617	72.3323	30.7617	72.314
32.2266	75.0339	32.2266	75.0359	32.2266	75.0299	32.2266	75.0357	32.2266	75.0239	32.2266	75.033	32.2266	75.0162	32.2266	75.0275	32.2266	75.0067	32.2266	75.0187	32.2266	74.9953	32.2266	75.0064	32.2266	74.9821	32.2266	74.9904	32.2266	74.9674	32.2266	74.9708	32.2266	74.9514	32.2266	74.948	32.2266	74.9348	32.2266	74.923	32.2266	74.9179	32.2266	74.8972	32.2266	74.9014	32.2266	74.8724	32.2266	74.8855	32.2266	74.8504	32.2266	74.8702	32.2266	74.8327	32.2266	74.8557	32.2266	74.8201	32.2266	74.8421	32.2266	74.8128	32.2266	74.83	32.2266	74.8108	32.2266	74.8201	32.2266	74.8134
33.6914	77.0456	33.6914	77.046	33.6914	77.0419	33.6914	77.0429	33.6914	77.035	33.6914	77.0361	33.6914	77.025	33.6914	77.0256	33.6914	77.0119	33.6914	77.0112	33.6914	76.9959	33.6914	76.9928	33.6914	76.977	33.6914	76.9705	33.6914	76.9556	33.6914	76.9446	33.6914	76.9318	33.6914	76.9156	33.6914	76.9062	33.6914	76.8845	33.6914	76.8792	33.6914	76.8523	33.6914	76.8515	33.6914	76.8208	33.6914	76.8241	33.6914	76.7913	33.6914	76.7977	33.6914	76.7655	33.6914	76.7734	33.6914	76.7447	33.6914	76.7524	33.6914	76.7297	33.6914	76.7358	33.6914	76.7213	33.6914	76.7246	33.6914	76.7196
35.1562	79.1362	35.1562	79.1379	35.1562	79.1299	35.1562	79.1348	35.1562	79.119	35.1562	79.1268	35.1562	79.1039	35.1562	79.1138	35.1562	79.0846	35.1562	79.0958	35.1562	79.0614	35.1562	79.0729	35.1562	79.0346	35.1562	79.0453	35.1562	79.0043	35.1562	79.0135	35.1562	78.9711	35.1562	78.9781	35.1562	78.9354	35.1562	78.9399	35.1562	78.898	35.1562	78.9003	35.1562	78.8602	35.1562	78.8607	35.1562	78.8234	35.1562	78.8227	35.1562	78.7893	35.1562	78.7879	35.1562	78.7597	35.1562	78.7581	35.1562	78.7359	35.1562	78.7346	35.1562	78.7194	35.1562	78.7185	35.1562	78.7107	35.1562	78.7104
36.6211	80.974	36.6211	80.9725	36.6211	80.9712	36.6211	80.9667	36.6211	80.9642	36.6211	80.9565	36.6211	80.9532	36.6211	80.9419	36.6211	80.9382	36.6211	80.9231	36.6211	80.9193	36.6211	80.9003	36.6211	80.8968	36.6211	80.8737	36.6211	80.8706	36.6211	80.8439	36.6211	80.841	36.6211	80.8114	36.6211	80.8082	36.6211	80.777	36.6211	80.7726	36.6211	80.7415	36.6211	80.7353	36.6211	80.7061	36.6211	80.6976	36.6211	80.6719	36.6211	80.6614	36.6211	80.6403	36.6211	80.6289	36.6211	80.6128	36.6211	80.6021	36.6211	80.5911	36.6211	80.5827	36.6211	80.5763	36.6211	80.5718	36.6211	80.5697
38.0859	82.6782	38.0859	82.6771	38.0859	82.676	38.0859	82.6728	38.0859	82.6705	38.0859	82.6651	38.0859	82.6619	38.0859	82.6541	38.0859	82.6502	38.0859	82.6399	38.0859	82.6357	38.0859	82.6228	38.0859	82.6183	38.0859	82.6028	38.0859	82.5985	38.0859	82.5805	38.0859	82.5765	38.0859	82.5562	38.0859	82.5528	38.0859	82.5305	38.0859	82.5277	38.0859	82.5042	38.0859	82.5018	38.0859	82.4779	38.0859	82.476	38.0859	82.4528	38.0859	82.451	38.0859	82.4297	38.0859	82.428	38.0859	82.4099	38.0859	82.4085	38.0859	82.3946	38.0859	82.3935	38.0859	82.3848	38.0859	82.3842	38.0859	82.3812
39.5508	83.288	39.5508	83.2864	39.5508	83.2847	39.5508	83.2797	39.5508	83.2766	39.5508	83.268	39.5508	83.264	39.5508	83.2515	39.5508	83.2471	39.5508	83.2303	39.5508	83.2265	39.5508	83.205	39.5508	83.2024	39.5508	83.1762	39.5508	83.1756	39.5508	83.1447	39.5508	83.1465	39.5508	83.1112	39.5508	83.1158	39.5508	83.077	39.5508	83.0842	39.5508	83.043	39.5508	83.0526	39.5508	83.0105	39.5508	83.0219	39.5508	82.9808	39.5508	82.9931	39.5508	82.955	39.5508	82.9672	39.5508	82.9344	39.5508	82.9453	39.5508	82.9199	39.5508	82.9281	39.5508	82.912	39.5508	82.9164	39.5508	82.9109
41.0156	84.0008	41.0156	83.9934	41.0156	84.0018	41.0156	83.9796	41.0156	83.9963	41.0156	83.9597	41.0156	83.9847	41.0156	83.934	41.0156	83.9673	41.0156	83.9033	41.0156	83.9445	41.0156	83.8685	41.0156	83.9167	41.0156	83.8308	41.0156	83.8846	41.0156	83.7913	41.0156	83.8488	41.0156	83.7514	41.0156	83.81	41.0156	83.7124	41.0156	83.7692	41.0156	83.6753	41.0156	83.7279	41.0156	83.6411	41.0156	83.6876	41.0156	83.6109	41.0156	83.65	41.0156	83.5854	41.0156	83.6167	41.0156	83.5656	41.0156	83.589	41.0156	83.5521	41.0156	83.5677	41.0156	83.5455	41.0156	83.5533	41.0156	83.5459
42.4805	84.9071	42.4805	84.9053	42.4805	84.9035	42.4805	84.8981	42.4805	84.8945	42.4805	84.8856	42.4805	84.8805	42.4805	84.8681	42.4805	84.8617	42.4805	84.8461	42.4805	84.8387	42.4805	84.8201	42.4805	84.8118	42.4805	84.7909	42.4805	84.7819	42.4805	84.7594	42.4805	84.7496	42.4805	84.7267	42.4805	84.7159	42.4805	84.6938	42.4805	84.682	42.4805	84.6617	42.4805	84.6489	42.4805	84.6313	42.4805	84.6181	42.4805	84.6037	42.4805	84.5907	42.4805	84.5795	42.4805	84.5678	42.4805	84.5597	42.4805	84.5501	42.4805	84.5446	42.4805	84.5379	42.4805	84.5348	42.4805	84.5314	42.4805	84.5303
43.9453	85.5949	43.9453	85.6002	43.9453	85.5833	43.9453	85.5991	43.9453	85.5659	43.9453	85.5918	43.9453	85.543	43.9453	85.5782	43.9453	85.5151	43.9453	85.5588	43.9453	85.4831	43.9453	85.5341	43.9453	85.4477	43.9453	85.5048	43.9453	85.41	43.9453	85.472	43.9453	85.3712	43.9453	85.4366	43.9453	85.3328	43.9453	85.3999	43.9453	85.2961	43.9453	85.3631	43.9453	85.2626	43.9453	85.3275	43.9453	85.2336	43.9453	85.2942	43.9453	85.2102	43.9453	85.264	43.9453	85.193	43.9453	85.2376	43.9453	85.1822	43.9453	85.2157	43.9453	85.1777	43.9453	85.1985	43.9453	85.1792	43.9453	85.1863
45.4102	85.8801	45.4102	85.8816	45.4102	85.8718	45.4102	85.8763	45.4102	85.8571	45.4102	85.8645	45.4102	85.8363	45.4102	85.8466	45.4102	85.8098	45.4102	85.823	45.4102	85.7786	45.4102	85.7945	45.4102	85.7434	45.4102	85.7621	45.4102	85.7055	45.4102	85.7268	45.4102	85.666	45.4102	85.6898	45.4102	85.6265	45.4102	85.6524	45.4102	85.5882	45.4102	85.6157	45.4102	85.5527	45.4102	85.5808	45.4102	85.521	45.4102	85.5487	45.4102	85.4943	45.4102	85.5202	45.4102	85.4733	45.4102	85.4958	45.4102	85.4586	45.4102	85.4761	45.4102	85.4502	45.4102	85.4613	45.4102	85.4481	45.4102	85.4519
46.875	86.0095	46.875	86.0071	46.875	86.0032	46.875	85.9962	46.875	85.9884	46.875	85.9769	46.875	85.9655	46.875	85.9498	46.875	85.935	46.875	85.9157	46.875	85.8979	46.875	85.8754	46.875	85.8549	46.875	85.8302	46.875	85.8076	46.875	85.7815	46.875	85.7572	46.875	85.731	46.875	85.7055	46.875	85.6804	46.875	85.6543	46.875	85.6314	46.875	85.6053	46.875	85.5856	46.875	85.5604	46.875	85.5444	46.875	85.521	46.875	85.509	46.875	85.4885	46.875	85.4801	46.875	85.4635	46.875	85.4583	46.875	85.4465	46.875	85.4437	46.875	85.4377	46.875	85.4368
48.3398	86.1875	48.3398	86.1846	48.3398	86.1807	48.3398	86.1721	48.3398	86.1644	48.3398	86.1503	48.3398	86.1388	48.3398	86.1197	48.3398	86.1045	48.3398	86.081	48.3398	86.0621	48.3398	86.0351	48.3398	86.0128	48.3398	85.9833	48.3398	85.9576	48.3398	85.9267	48.3398	85.8981	48.3398	85.8671	48.3398	85.836	48.3398	85.8059	48.3398	85.7732	48.3398	85.7451	48.3398	85.7118	48.3398	85.6866	48.3398	85.6539	48.3398	85.6321	48.3398	85.6017	48.3398	85.5836	48.3398	85.557	48.3398	85.5429	48.3398	85.5214	48.3398	85.5113	48.3398	85.4963	48.3398	85.4902	48.3398	85.4825	48.3398	85.4805
51.2695	86.1109	51.2695	86.1133	51.2695	86.102	51.2695	86.1093	51.2695	86.087	51.2695	86.0989	51.2695	86.0663	51.2695	86.0825	51.2695	86.0409	51.2695	86.0607	51.2695	86.0116	51.2695	86.0341	51.2695	85.9796	51.2695	86.0033	51.2695	85.9461	51.2695	85.9692	51.2695	85.9123	51.2695	85.9328	51.2695	85.8792	51.2695	85.8951	51.2695	85.8479	51.2695	85.8575	51.2695	85.8191	51.2695	85.8217	51.2695	85.7934	51.2695	85.7892	51.2695	85.7711	51.2695	85.7617	51.2695	85.7524	51.2695	85.7402	51.2695	85.7373	51.2695	85.7253	51.2695	85.7258	51.2695	85.7171	51.2695	85.7181	51.2695	85.715
52.7344	85.9893	52.7344	85.995	52.7344	85.9763	52.7344	85.9933	52.7344	85.9561	52.7344	85.9849	52.7344	85.9293	52.7344	85.9703	52.7344	85.8968	52.7344	85.9505	52.7344	85.8599	52.7344	85.9266	52.7344	85.8202	52.7344	85.8996	52.7344	85.7793	52.7344	85.8708	52.7344	85.7392	52.7344	85.8413	52.7344	85.7019	52.7344	85.8124	52.7344	85.669	52.7344	85.7849	52.7344	85.6421	52.7344	85.7594	52.7344	85.6221	52.7344	85.7361	52.7344	85.6096	52.7344	85.7147	52.7344	85.6045	52.7344	85.6947	52.7344	85.6061	52.7344	85.6756	52.7344	85.6134	52.7344	85.6573	52.7344	85.6253	52.7344	85.6403
54.1992	85.9413	54.1992	85.9498	54.1992	85.924	54.1992	85.9496	54.1992	85.8983	54.1992	85.9409	54.1992	85.8649	54.1992	85.9245	54.1992	85.8249	54.1992	85.9015	54.1992	85.78	54.1992	85.8732	54.1992	85.7319	54.1992	85.8412	54.1992	85.6829	54.1992	85.8074	54.1992	85.6356	54.1992	85.7737	54.1992	85.5925	54.1992	85.7417	54.1992	85.5563	54.1992	85.7127	54.1992	85.5289	54.1992	85.6874	54.1992	85.5115	54.1992	85.6654	54.1992	85.5042	54.1992	85.6458	54.1992	85.5059	54.1992	85.6273	54.1992	85.5152	54.1992	85.6086	54.1992	85.53	54.1992	85.589	54.1992	85.5485	54.1992	85.5686
55.6641	85.9944	55.6641	86.0035	55.6641	85.9724	55.6641	85.9994	55.6641	85.938	55.6641	85.9822	55.6641	85.8923	55.6641	85.9529	55.6641	85.8369	55.6641	85.9127	55.6641	85.7737	55.6641	85.8635	55.6641	85.7051	55.6641	85.8079	55.6641	85.6337	55.6641	85.7488	55.6641	85.5625	55.6641	85.6891	55.6641	85.4947	55.6641	85.6316	55.6641	85.4336	55.6641	85.5786	55.6641	85.3819	55.6641	85.531	55.6641	85.3419	55.6641	85.489	55.6641	85.3144	55.6641	85.4519	55.6641	85.2994	55.6641	85.4187	55.6641	85.2959	55.6641	85.3885	55.6641	85.3021	55.6641	85.3609	55.6641	85.3163	55.6641	85.3365
58.5938	85.9075	58.5938	85.8808	58.5938	85.9221	58.5938	85.8425	58.5938	85.924	58.5938	85.7937	58.5938	85.9133	58.5938	85.7356	58.5938	85.8902	58.5938	85.6697	58.5938	85.8552	58.5938	85.5978	58.5938	85.8092	58.5938	85.5218	58.5938	85.7533	58.5938	85.4439	58.5938	85.6891	58.5938	85.366	58.5938	85.6182	58.5938	85.2905	58.5938	85.5426	58.5938	85.2198	58.5938	85.4646	58.5938	85.1562	58.5938	85.3865	58.5938	85.1022	58.5938	85.3106	58.5938	85.0602	58.5938	85.2392	58.5938	85.0321	58.5938	85.1743	58.5938	85.0193	58.5938	85.1183	58.5938	85.0221	58.5938	85.073	58.5938	85.0404
60.0586	85.8884	60.0586	85.8749	60.0586	85.8908	60.0586	85.8503	60.0586	85.8822	60.0586	85.8151	60.0586	85.8631	60.0586	85.7699	60.0586	85.8342	60.0586	85.7159	60.0586	85.7966	60.0586	85.6543	60.0586	85.7514	60.0586	85.5867	60.0586	85.7002	60.0586	85.5154	60.0586	85.6447	60.0586	85.4426	60.0586	85.5866	60.0586	85.3712	60.0586	85.5275	60.0586	85.3044	60.0586	85.4689	60.0586	85.2451	60.0586	85.4121	60.0586	85.1964	60.0586	85.358	60.0586	85.1604	60.0586	85.3073	60.0586	85.1385	60.0586	85.2606	60.0586	85.131	60.0586	85.2188	60.0586	85.1371	60.0586	85.1831	60.0586	85.1551
62.9883	85.8362	62.9883	85.8291	62.9883	85.8296	62.9883	85.8086	62.9883	85.8094	62.9883	85.7755	62.9883	85.776	62.9883	85.731	62.9883	85.7304	62.9883	85.6765	62.9883	85.674	62.9883	85.6139	62.9883	85.6086	62.9883	85.5452	62.9883	85.5364	62.9883	85.4728	62.9883	85.4599	62.9883	85.399	62.9883	85.3818	62.9883	85.3262	62.9883	85.305	62.9883	85.2566	62.9883	85.2322	62.9883	85.1923	62.9883	85.1659	62.9883	85.135	62.9883	85.1082	62.9883	85.0859	62.9883	85.0608	62.9883	85.0459	62.9883	85.0246	62.9883	85.0155	62.9883	85.0001	62.9883	84.9954	62.9883	84.9872	62.9883	84.9858
64.4531	85.701	64.4531	85.697	64.4531	85.6918	64.4531	85.6799	64.4531	85.6694	64.4531	85.6504	64.4531	85.6344	64.4531	85.6093	64.4531	85.5875	64.4531	85.5581	64.4531	85.5301	64.4531	85.4982	64.4531	85.4638	64.4531	85.4317	64.4531	85.3905	64.4531	85.3604	64.4531	85.3125	64.4531	85.2868	64.4531	85.2325	64.4531	85.2131	64.4531	85.1534	64.4531	85.1415	64.4531	85.0779	64.4531	85.0742	64.4531	85.0091	64.4531	85.0129	64.4531	84.9493	64.4531	84.959	64.4531	84.9007	64.4531	84.9136	64.4531	84.8647	64.4531	84.8774	64.4531	84.842	64.4531	84.8512	64.4531	84.8326	64.4531	84.836
67.3828	85.5524	67.3828	85.5467	67.3828	85.5462	67.3828	85.5295	67.3828	85.5285	67.3828	85.5013	67.3828	85.5	67.3828	85.4633	67.3828	85.4618	67.3828	85.417	67.3828	85.4154	67.3828	85.3645	67.3828	85.3625	67.3828	85.3081	67.3828	85.3052	67.3828	85.2502	67.3828	85.2455	67.3828	85.1932	67.3828	85.1858	67.3828	85.1393	67.3828	85.128	67.3828	85.0903	67.3828	85.0741	67.3828	85.0472	67.3828	85.0261	67.3828	85.0105	67.3828	84.9853	67.3828	84.98	67.3828	84.9531	67.3828	84.9553	67.3828	84.9299	67.3828	84.9359	67.3828	84.916	67.3828	84.9216	67.3828	84.9107	67.3828	84.9129
68.8477	85.539	68.8477	85.5269	68.8477	85.539	68.8477	85.5031	68.8477	85.527	68.8477	85.4685	68.8477	85.5035	68.8477	85.4248	68.8477	85.4698	68.8477	85.3737	68.8477	85.4273	68.8477	85.3177	68.8477	85.378	68.8477	85.2593	68.8477	85.3243	68.8477	85.2013	68.8477	85.2686	68.8477	85.1463	68.8477	85.2133	68.8477	85.0967	68.8477	85.1607	68.8477	85.0541	68.8477	85.1126	68.8477	85.0195	68.8477	85.0705	68.8477	84.9931	68.8477	85.0353	68.8477	84.9744	68.8477	85.0072	68.8477	84.9624	68.8477	84.9859	68.8477	84.9557	68.8477	84.9707	68.8477	84.9536	68.8477	84.9608	68.8477	84.9553
71.7773	85.6407	71.7773	85.625	71.7773	85.6442	71.7773	85.5976	71.7773	85.6356	71.7773	85.5592	71.7773	85.6158	71.7773	85.5114	71.7773	85.5857	71.7773	85.456	71.7773	85.547	71.7773	85.3953	71.7773	85.5016	71.7773	85.3321	71.7773	85.4516	71.7773	85.2693	71.7773	85.3993	71.7773	85.2097	71.7773	85.3469	71.7773	85.1559	71.7773	85.2964	71.7773	85.1101	71.7773	85.2494	71.7773	85.0736	71.7773	85.2068	71.7773	85.0471	71.7773	85.169	71.7773	85.0305	71.7773	85.1359	71.7773	85.0231	71.7773	85.1072	71.7773	85.0238	71.7773	85.0823	71.7773	85.0312	71.7773	85.0612	71.7773	85.044
74.707	85.6291	74.707	85.6194	74.707	85.6265	74.707	85.5977	74.707	85.612	74.707	85.5649	74.707	85.5865	74.707	85.5225	74.707	85.5515	74.707	85.4725	74.707	85.5087	74.707	85.4174	74.707	85.4604	74.707	85.36	74.707	85.4089	74.707	85.3032	74.707	85.3567	74.707	85.2496	74.707	85.306	74.707	85.2015	74.707	85.2588	74.707	85.1606	74.707	85.2166	74.707	85.1276	74.707	85.1803	74.707	85.1029	74.707	85.1504	74.707	85.0858	74.707	85.1265	74.707	85.0756	74.707	85.108	74.707	85.0713	74.707	85.0938	74.707	85.0717	74.707	85.0832	74.707	85.0758
77.6367	85.5886	77.6367	85.5764	77.6367	85.5876	77.6367	85.5516	77.6367	85.5737	77.6367	85.5153	77.6367	85.5479	77.6367	85.4695	77.6367	85.5116	77.6367	85.4166	77.6367	85.4672	77.6367	85.3598	77.6367	85.4172	77.6367	85.3022	77.6367	85.3644	77.6367	85.2473	77.6367	85.3121	77.6367	85.198	77.6367	85.263	77.6367	85.1569	77.6367	85.2196	77.6367	85.1254	77.6367	85.1836	77.6367	85.1039	77.6367	85.1559	77.6367	85.0917	77.6367	85.1362	77.6367	85.0871	77.6367	85.1233	77.6367	85.0881	77.6367	85.1155	77.6367	85.0922	77.6367	85.1105	77.6367	85.0974	77.6367	85.1066	77.6367	85.1024
79.1016	85.5888	79.1016	85.5753	79.1016	85.5888	79.1016	85.5488	79.1016	85.5754	79.1016	85.5105	79.1016	85.5497	79.1016	85.4623	79.1016	85.5131	79.1016	85.4069	79.1016	85.4678	79.1016	85.3474	79.1016	85.4165	79.1016	85.2874	79.1016	85.3622	79.1016	85.2306	79.1016	85.308	79.1016	85.1802	79.1016	85.2571	79.1016	85.1391	79.1016	85.2121	79.1016	85.1089	79.1016	85.1753	79.1016	85.0897	79.1016	85.1475	79.1016	85.0805	79.1016	85.1285	79.1016	85.0793	79.1016	85.1171	79.1016	85.0832	79.1016	85.111	79.1016	85.0896	79.1016	85.1078	79.1016	85.0962	79.1016	85.1052	79.1016	85.1016
82.0312	85.743	82.0312	85.7335	82.0312	85.7371	82.0312	85.7086	82.0312	85.7162	82.0312	85.6695	82.0312	85.6815	82.0312	85.6177	82.0312	85.6347	82.0312	85.5556	82.0312	85.5782	82.0312	85.4862	82.0312	85.5148	82.0312	85.413	82.0312	85.4477	82.0312	85.3399	82.0312	85.3802	82.0312	85.2708	82.0312	85.3154	82.0312	85.2092	82.0312	85.2563	82.0312	85.1576	82.0312	85.205	82.0312	85.1174	82.0312	85.163	82.0312	85.0887	82.0312	85.1304	82.0312	85.0703	82.0312	85.1064	82.0312	85.0604	82.0312	85.0892	82.0312	85.0569	82.0312	85.0771	82.0312	85.0578	82.0312	85.0683	82.0312	85.0619
84.9609	85.6349	84.9609	85.6303	84.9609	85.6265	84.9609	85.613	84.9609	85.6054	84.9609	85.584	84.9609	85.5729	84.9609	85.545	84.9609	85.5307	84.9609	85.4983	84.9609	85.4812	84.9609	85.4466	84.9609	85.4272	84.9609	85.3928	84.9609	85.3715	84.9609	85.3397	84.9609	85.3171	84.9609	85.2899	84.9609	85.2666	84.9609	85.2454	84.9609	85.222	84.9609	85.2074	84.9609	85.185	84.9609	85.1763	84.9609	85.156	84.9609	85.1521	84.9609	85.1349	84.9609	85.134	84.9609	85.1209	84.9609	85.1213	84.9609	85.1123	84.9609	85.113	84.9609	85.1077	84.9609	85.1081	84.9609	85.1058	84.9609	85.1059
87.8906	85.7148	87.8906	85.7046	87.8906	85.7065	87.8906	85.6764	87.8906	85.68	87.8906	85.6322	87.8906	85.6371	87.8906	85.5749	87.8906	85.5806	87.8906	85.5083	87.8906	85.5142	87.8906	85.437	87.8906	85.4423	87.8906	85.366	87.8906	85.3698	87.8906	85.3002	87.8906	85.3015	87.8906	85.2436	87.8906	85.2417	87.8906	85.1992	87.8906	85.1938	87.8906	85.1684	87.8906	85.1598	87.8906	85.1507	87.8906	85.14	87.8906	85.1441	87.8906	85.1327	87.8906	85.1455	87.8906	85.135	87.8906	85.1514	87.8906	85.143	87.8906	85.1582	87.8906	85.1525	87.8906	85.163	87.8906	85.1601	87.8906	85.1639
90.8203	85.7379	90.8203	85.7295	90.8203	85.7276	90.8203	85.7024	90.8203	85.6997	90.8203	85.6577	90.8203	85.6561	90.8203	85.5976	90.8203	85.5999	90.8203	85.5256	90.8203	85.5347	90.8203	85.446	90.8203	85.4647	90.8203	85.364	90.8203	85.3943	90.8203	85.2856	90.8203	85.3279	90.8203	85.2162	90.8203	85.2691	90.8203	85.1607	90.8203	85.2212	90.8203	85.122	90.8203	85.1859	90.8203	85.1008	90.8203	85.1636	90.8203	85.0952	90.8203	85.153	90.8203	85.1017	90.8203	85.1512	90.8203	85.1154	90.8203	85.1544	90.8203	85.1315	90.8203	85.1584	90.8203	85.1458	90.8203	85.1595	90.8203	85.1555
95.2148	85.8647	95.2148	85.892	95.2148	85.8154	95.2148	85.8973	95.2148	85.7453	95.2148	85.8817	95.2148	85.6571	95.2148	85.8472	95.2148	85.5547	95.2148	85.7965	95.2148	85.4434	95.2148	85.733	95.2148	85.3295	95.2148	85.6603	95.2148	85.2194	95.2148	85.5823	95.2148	85.1192	95.2148	85.5026	95.2148	85.0342	95.2148	85.4248	95.2148	84.9678	95.2148	85.3522	95.2148	84.9219	95.2148	85.2872	95.2148	84.8966	95.2148	85.2308	95.2148	84.8905	95.2148	85.1828	95.2148	84.9011	95.2148	85.1415	95.2148	84.9246	95.2148	85.104	95.2148	84.9567	95.2148	85.0676	95.2148	84.9932	95.2148	85.0307
98.1445	86.0974	98.1445	86.1012	98.1445	86.0661	98.1445	86.0799	98.1445	86.0061	98.1445	86.0371	98.1445	85.9179	98.1445	85.9775	98.1445	85.8035	98.1445	85.906	98.1445	85.6673	98.1445	85.828	98.1445	85.5154	98.1445	85.7485	98.1445	85.3563	98.1445	85.6716	98.1445	85.1996	98.1445	85.6003	98.1445	85.0558	98.1445	85.5359	98.1445	84.9348	98.1445	85.4783	98.1445	84.8443	98.1445	85.4258	98.1445	84.7892	98.1445	85.3759	98.1445	84.7708	98.1445	85.3251	98.1445	84.7868	98.1445	85.27	98.1445	84.8316	98.1445	85.2075	98.1445	84.8976	98.1445	85.1364	98.1445	84.9759	98.1445	85.0578
101.074	86.0607	101.074	86.0227	101.074	86.0755	101.074	85.963	101.074	86.0663	101.074	85.884	101.074	86.0333	101.074	85.7891	101.074	85.9778	101.074	85.6825	101.074	85.9021	101.074	85.569	101.074	85.8098	101.074	85.4544	101.074	85.7059	101.074	85.3442	101.074	85.5965	101.074	85.2439	101.074	85.4887	101.074	85.1582	101.074	85.3889	101.074	85.0904	101.074	85.3025	101.074	85.0423	101.074	85.2325	101.074	85.0141	101.074	85.1792	101.074	85.0038	101.074	85.1407	101.074	85.0079	101.074	85.1135	101.074	85.0215	101.074	85.0932	101.074	85.0395	101.074	85.0757	101.074	85.0581
105.469	85.9074	105.469	85.8837	105.469	85.9098	105.469	85.8388	105.469	85.8922	105.469	85.7741	105.469	85.8568	105.469	85.6924	105.469	85.8068	105.469	85.5981	105.469	85.7461	105.469	85.4968	105.469	85.6788	105.469	85.3949	105.469	85.6094	105.469	85.2991	105.469	85.5419	105.469	85.2154	105.469	85.48	105.469	85.1487	105.469	85.4263	105.469	85.1016	105.469	85.3818	105.469	85.0744	105.469	85.3461	105.469	85.0657	105.469	85.3172	105.469	85.0724	105.469	85.2921	105.469	85.091	105.469	85.2678	105.469	85.1177	105.469	85.2418	105.469	85.149	105.469	85.2131	105.469	85.1816
108.398	85.9965	108.398	85.9938	108.398	85.974	108.398	85.9666	108.398	85.9272	108.398	85.9171	108.398	85.8584	108.398	85.8488	108.398	85.7713	108.398	85.7662	108.398	85.6711	108.398	85.6751	108.398	85.5641	108.398	85.5816	108.398	85.4571	108.398	85.492	108.398	85.3571	108.398	85.4117	108.398	85.2703	108.398	85.3449	108.398	85.2012	108.398	85.2938	108.398	85.1524	108.398	85.2582	108.398	85.1241	108.398	85.2358	108.398	85.1142	108.398	85.2231	108.398	85.1187	108.398	85.2155	108.398	85.1329	108.398	85.2091	108.398	85.1518	108.398	85.2005	108.398	85.1712	108.398	85.188
112.793	85.9688	112.793	85.9377	112.793	85.9762	112.793	85.8841	112.793	85.9605	112.793	85.8104	112.793	85.9233	112.793	85.7208	112.793	85.8677	112.793	85.6208	112.793	85.7977	112.793	85.5173	112.793	85.7182	112.793	85.4174	112.793	85.6346	112.793	85.3282	112.793	85.5529	112.793	85.2556	112.793	85.4786	112.793	85.2036	112.793	85.4162	112.793	85.1736	112.793	85.3689	112.793	85.1645	112.793	85.3373	112.793	85.1729	112.793	85.3199	112.793	85.1938	112.793	85.3132	112.793	85.2216	112.793	85.3122	112.793	85.2508	112.793	85.3117	112.793	85.2766	112.793	85.3072	112.793	85.2958
117.188	85.8247	117.188	85.818	117.188	85.8019	117.188	85.7819	117.188	85.7516	117.188	85.7185	117.188	85.678	117.188	85.6324	117.188	85.5869	117.188	85.5306	117.188	85.4857	117.188	85.4222	117.188	85.3827	117.188	85.3174	117.188	85.2866	117.188	85.2272	117.188	85.2054	117.188	85.1607	117.188	85.146	117.188	85.1243	117.188	85.1126	117.188	85.1194	117.188	85.1066	117.188	85.1426	117.188	85.1257	117.188	85.1861	117.188	85.1646	117.188	85.2397	117.188	85.2156	117.188	85.2927	117.188	85.2695	117.188	85.3358	117.188	85.3174	117.188	85.3621	117.188	85.3519	117.188	85.3677
120.117	86.0222	120.117	86.0164	120.117	85.9959	120.117	85.9791	120.117	85.9388	120.117	85.9125	120.117	85.8539	120.117	85.8203	120.117	85.746	120.117	85.7083	120.117	85.6219	120.117	85.584	120.117	85.4902	120.117	85.4567	120.117	85.3605	120.117	85.3369	120.117	85.243	120.117	85.2352	120.117	85.147	120.117	85.1602	120.117	85.0798	120.117	85.1175	120.117	85.0453	120.117	85.1073	120.117	85.0432	120.117	85.125	120.117	85.0688	120.117	85.1614	120.117	85.1137	120.117	85.2049	120.117	85.1671	120.117	85.2441	120.117	85.2177	120.117	85.2691	120.117	85.2554	120.117	85.2735
124.512	86.0317	124.512	86.0279	124.512	86.0014	124.512	85.9907	124.512	85.9381	124.512	85.9225	124.512	85.8446	124.512	85.8272	124.512	85.7257	124.512	85.7108	124.512	85.5882	124.512	85.5808	124.512	85.4409	124.512	85.4463	124.512	85.2942	124.512	85.3173	124.512	85.1591	124.512	85.2038	124.512	85.046	124.512	85.1142	124.512	84.9632	124.512	85.0538	124.512	84.9153	124.512	85.024	124.512	84.9023	124.512	85.0215	124.512	84.9197	124.512	85.0392	124.512	84.9588	124.512	85.0674	124.512	85.0085	124.512	85.0953	124.512	85.0571	124.512	85.1131	124.512	85.0944	124.512	85.1138
128.906	86.1742	128.906	86.1738	128.906	86.1371	128.906	86.1365	128.906	86.0632	128.906	86.0643	128.906	85.955	128.906	85.9608	128.906	85.8163	128.906	85.8313	128.906	85.6536	128.906	85.683	128.906	85.475	128.906	85.5251	128.906	85.2909	128.906	85.368	128.906	85.1132	128.906	85.2225	128.906	84.9537	128.906	85.0981	128.906	84.8232	128.906	85.0013	128.906	84.729	128.906	84.9343	128.906	84.6744	128.906	84.8947	128.906	84.6576	128.906	84.8759	128.906	84.6718	128.906	84.869	128.906	84.7072	128.906	84.8643	128.906	84.7522	128.906	84.8535	128.906	84.7962	128.906	84.8311
133.301	86.0608	133.301	86.0474	133.301	86.0404	133.301	86.0019	133.301	85.9858	133.301	85.9273	133.301	85.898	133.301	85.8276	133.301	85.7796	133.301	85.7083	133.301	85.6354	133.301	85.5762	133.301	85.4719	133.301	85.4391	133.301	85.2982	133.301	85.3056	133.301	85.1245	133.301	85.1836	133.301	84.9622	133.301	85.0797	133.301	84.8218	133.301	84.9978	133.301	84.712	133.301	84.9382	133.301	84.6382	133.301	84.8976	133.301	84.6012	133.301	84.8702	133.301	84.598	133.301	84.8486	133.301	84.6216	133.301	84.8256	133.301	84.6625	133.301	84.7958	133.301	84.7105	133.301	84.7569
139.16	85.7747	139.16	85.7505	139.16	85.7646	139.16	85.6936	139.16	85.7209	139.16	85.6075	139.16	85.6458	139.16	85.4978	139.16	85.5437	139.16	85.372	139.16	85.421	139.16	85.2394	139.16	85.2855	139.16	85.1108	139.16	85.1465	139.16	84.9968	139.16	85.0139	139.16	84.907	139.16	84.8972	139.16	84.8472	139.16	84.8041	139.16	84.8186	139.16	84.74	139.16	84.8171	139.16	84.7066	139.16	84.8345	139.16	84.7022	139.16	84.8604	139.16	84.7219	139.16	84.8847	139.16	84.7585	139.16	84.8989	139.16	84.8029	139.16	84.8976	139.16	84.8458	139.16	84.8793
143.555	85.6682	143.555	85.6397	143.555	85.6611	143.555	85.5773	143.555	85.6185	143.555	85.4847	143.555	85.5424	143.555	85.3674	143.555	85.4372	143.555	85.2333	143.555	85.3096	143.555	85.0921	143.555	85.1687	143.555	84.9559	143.555	85.0261	143.555	84.838	143.555	84.8951	143.555	84.751	143.555	84.789	143.555	84.705	143.555	84.719	143.555	84.7042	143.555	84.6916	143.555	84.7454	143.555	84.7075	143.555	84.8181	143.555	84.7606	143.555	84.9068	143.555	84.8393	143.555	84.9941	143.555	84.9286	143.555	85.064	143.555	85.0125	143.555	85.1044	143.555	85.0761	143.555	85.1086
147.949	86.1168	147.949	86.0894	147.949	86.0982	147.949	86.0165	147.949	86.0348	147.949	85.9006	147.949	85.9291	147.949	85.7467	147.949	85.7857	147.949	85.5622	147.949	85.6105	147.949	85.3577	147.949	85.4122	147.949	85.1468	147.949	85.2018	147.949	84.9455	147.949	84.993	147.949	84.771	147.949	84.8015	147.949	84.6386	147.949	84.6435	147.949	84.5582	147.949	84.532	147.949	84.5315	147.949	84.4745	147.949	84.5507	147.949	84.47	147.949	84.6001	147.949	84.5084	147.949	84.6601	147.949	84.5732	147.949	84.712	147.949	84.6447	147.949	84.7411	147.949	84.7045	147.949	84.7388
153.809	86.0179	153.809	85.9915	153.809	86.0023	153.809	85.9241	153.809	85.9452	153.809	85.8188	153.809	85.849	153.809	85.6805	153.809	85.7179	153.809	85.516	153.809	85.5583	153.809	85.3344	153.809	85.3784	153.809	85.1464	153.809	85.1883	153.809	84.9642	153.809	84.9993	153.809	84.8	153.809	84.8234	153.809	84.6651	153.809	84.6718	153.809	84.5672	153.809	84.5535	153.809	84.5089	153.809	84.4734	153.809	84.4863	153.809	84.432	153.809	84.49	153.809	84.4243	153.809	84.5069	153.809	84.4411	153.809	84.524	153.809	84.4709	153.809	84.5312	153.809	84.5016	153.809	84.5236
159.668	86.1065	159.668	86.0778	159.668	86.0895	159.668	86.0038	159.668	86.0285	159.668	85.887	159.668	85.9267	159.668	85.7322	159.668	85.7892	159.668	85.5471	159.668	85.6229	159.668	85.3426	159.668	85.4365	159.668	85.1327	159.668	85.2409	159.668	84.9335	159.668	85.0483	159.668	84.7617	159.668	84.8715	159.668	84.6319	159.668	84.7229	159.668	84.5528	159.668	84.6123	159.668	84.5252	159.668	84.5451	159.668	84.5411	159.668	84.5216	159.668	84.5852	159.668	84.5358	159.668	84.639	159.668	84.5764	159.668	84.6847	159.668	84.6285	159.668	84.709	159.668	84.6761	159.668	84.7057
165.527	86.089	165.527	86.0651	165.527	86.0682	165.527	85.9971	165.527	86.004	165.527	85.8871	165.527	85.8997	165.527	85.7399	165.527	85.7603	165.527	85.5625	165.527	85.593	165.527	85.3653	165.527	85.4072	165.527	85.1612	165.527	85.2142	165.527	84.9657	165.527	85.027	165.527	84.7945	165.527	84.8588	165.527	84.6617	165.527	84.7217	165.527	84.5768	165.527	84.6245	165.527	84.5421	165.527	84.5715	165.527	84.552	165.527	84.5606	165.527	84.5937	165.527	84.584	165.527	84.6498	165.527	84.629	165.527	84.7022	165.527	84.6802	165.527	84.7361	165.527	84.7223	165.527	84.7431
171.387	85.9193	171.387	85.8853	171.387	85.9069	171.387	85.8058	171.387	85.8488	171.387	85.684	171.387	85.7484	171.387	85.5246	171.387	85.6115	171.387	85.3347	171.387	85.4464	171.387	85.124	171.387	85.264	171.387	84.9057	171.387	85.0771	171.387	84.6965	171.387	84.9	171.387	84.5154	171.387	84.7468	171.387	84.3809	171.387	84.63	171.387	84.3062	171.387	84.5576	171.387	84.2951	171.387	84.5317	171.387	84.34	171.387	84.547	171.387	84.4238	171.387	84.5916	171.387	84.5244	171.387	84.6492	171.387	84.6199	171.387	84.7015	171.387	84.6925	171.387	84.7327	171.387	84.7312
177.246	85.9067	177.246	85.8921	177.246	85.8713	177.246	85.8294	177.246	85.7859	177.246	85.7229	177.246	85.6532	177.246	85.5785	177.246	85.4787	177.246	85.4041	177.246	85.2715	177.246	85.2094	177.246	85.0445	177.246	85.0064	177.246	84.8142	177.246	84.8094	177.246	84.6004	177.246	84.6346	177.246	84.4233	177.246	84.4992	177.246	84.3008	177.246	84.4173	177.246	84.2438	177.246	84.3961	177.246	84.2534	177.246	84.4319	177.246	84.32	177.246	84.5097	177.246	84.4251	177.246	84.606	177.246	84.545	177.246	84.6953	177.246	84.6553	177.246	84.7549	177.246	84.7351	177.246	84.7699
183.105	85.9586	183.105	85.9315	183.105	85.9303	183.105	85.8511	183.105	85.847	183.105	85.7225	183.105	85.7116	183.105	85.5534	183.105	85.5295	183.105	85.3543	183.105	85.3087	183.105	85.1378	183.105	85.0604	183.105	84.9184	183.105	84.7991	183.105	84.7115	183.105	84.5436	183.105	84.5328	183.105	84.3151	183.105	84.397	183.105	84.1358	183.105	84.3152	183.105	84.0236	183.105	84.2919	183.105	83.9873	183.105	84.3215	183.105	84.0234	183.105	84.3881	183.105	84.1163	183.105	84.4679	183.105	84.2418	183.105	84.5348	183.105	84.3721	183.105	84.5664	183.105	84.4811	183.105	84.5492
188.965	86.0199	188.965	85.984	188.965	86	188.965	85.894	188.965	85.9254	188.965	85.7543	188.965	85.799	188.965	85.5726	188.965	85.6263	188.965	85.3599	188.965	85.4147	188.965	85.1301	188.965	85.1736	188.965	84.8992	188.965	84.9148	188.965	84.6832	188.965	84.6524	188.965	84.4972	188.965	84.4035	188.965	84.3537	188.965	84.1875	188.965	84.2614	188.965	84.0245	188.965	84.2234	188.965	83.9301	188.965	84.2343	188.965	83.9104	188.965	84.2792	188.965	83.9579	188.965	84.3355	188.965	84.0528	188.965	84.3784	188.965	84.1678	188.965	84.3877	188.965	84.2752	188.965	84.3529
196.289	86.2468	196.289	86.1922	196.289	86.2366	196.289	86.0742	196.289	86.1633	196.289	85.8972	196.289	86.0313	196.289	85.6696	196.289	85.8478	196.289	85.4044	196.289	85.6229	196.289	85.1191	196.289	85.3701	196.289	84.8351	196.289	85.1053	196.289	84.5756	196.289	84.8466	196.289	84.3635	196.289	84.6126	196.289	84.2165	196.289	84.4212	196.289	84.144	196.289	84.2864	196.289	84.1442	196.289	84.2162	196.289	84.2033	196.289	84.2094	196.289	84.2985	196.289	84.2554	196.289	84.4026	196.289	84.335	196.289	84.4894	196.289	84.4247	196.289	84.5393	196.289	84.5004	196.289	84.5425
203.613	86.1187	203.613	86.0767	203.613	86.0971	203.613	85.9711	203.613	86.0142	203.613	85.8049	203.613	85.8745	203.613	85.5851	203.613	85.6857	203.613	85.3236	203.613	85.4584	203.613	85.0382	203.613	85.2065	203.613	84.7512	203.613	84.9464	203.613	84.487	203.613	84.6952	203.613	84.2676	203.613	84.4693	203.613	84.1084	203.613	84.2838	203.613	84.0159	203.613	84.1508	203.613	83.9879	203.613	84.0778	203.613	84.0149	203.613	84.0647	203.613	84.0813	203.613	84.1016	203.613	84.1667	203.613	84.1695	203.613	84.2486	203.613	84.2442	203.613	84.3062	203.613	84.302	203.613	84.3252
210.938	86.0837	210.938	86.0374	210.938	86.0694	210.938	85.9303	210.938	85.9955	210.938	85.7639	210.938	85.8644	210.938	85.5425	210.938	85.6815	210.938	85.275	210.938	85.4559	210.938	84.977	210.938	85.2009	210.938	84.6712	210.938	84.9336	210.938	84.3857	210.938	84.6733	210.938	84.1484	210.938	84.44	210.938	83.9813	210.938	84.2527	210.938	83.8936	210.938	84.1271	210.938	83.8805	210.938	84.0714	210.938	83.9253	210.938	84.081	210.938	84.0059	210.938	84.1372	210.938	84.1007	210.938	84.2117	210.938	84.1913	210.938	84.2762	210.938	84.2635	210.938	84.3104	210.938	84.3057
218.262	85.995	218.262	85.9722	218.262	85.9488	218.262	85.8804	218.262	85.836	218.262	85.722	218.262	85.6621	218.262	85.5022	218.262	85.4374	218.262	85.2308	218.262	85.1781	218.262	84.9245	218.262	84.9069	218.262	84.6078	218.262	84.6505	218.262	84.3131	218.262	84.4344	218.262	84.076	218.262	84.2764	218.262	83.9261	218.262	84.1843	218.262	83.8775	218.262	84.1569	218.262	83.923	218.262	84.1877	218.262	84.0377	218.262	84.2652	218.262	84.1881	218.262	84.3708	218.262	84.342	218.262	84.4804	218.262	84.4747	218.262	84.5693	218.262	84.5703	218.262	84.6189	218.262	84.6197
225.586	86.2714	225.586	86.2685	225.586	86.1892	225.586	86.1815	225.586	86.0221	225.586	86.0138	225.586	85.773	225.586	85.7719	225.586	85.4492	225.586	85.4671	225.586	85.0656	225.586	85.1181	225.586	84.649	225.586	84.7527	225.586	84.2396	225.586	84.4078	225.586	83.8873	225.586	84.1257	225.586	83.6401	225.586	83.9451	225.586	83.5286	225.586	83.8893	225.586	83.5563	225.586	83.9559	225.586	83.7024	225.586	84.117	225.586	83.9301	225.586	84.328	225.586	84.1954	225.586	84.5419	225.586	84.4536	225.586	84.7189	225.586	84.6666	225.586	84.8315	225.586	84.8077	225.586	84.8634
232.91	86.3389	232.91	86.3039	232.91	86.297	232.91	86.1952	232.91	86.174	232.91	86.0158	232.91	85.9654	232.91	85.7692	232.91	85.6673	232.91	85.4612	232.91	85.2796	232.91	85.1036	232.91	84.8104	232.91	84.7174	232.91	84.283	232.91	84.3349	232.91	83.7416	232.91	83.9979	232.91	83.2521	232.91	83.7498	232.91	82.8896	232.91	83.6226	232.91	82.7132	232.91	83.625	232.91	82.7403	232.91	83.7372	232.91	82.9409	232.91	83.9162	232.91	83.252	232.91	84.1086	232.91	83.6008	232.91	84.263	232.91	83.9223	232.91	84.3386	232.91	84.1681	232.91	84.3099
241.699	86.1047	241.699	86.0277	241.699	86.1035	241.699	85.8771	241.699	86.0226	241.699	85.6602	241.699	85.8628	241.699	85.3873	241.699	85.6274	241.699	85.0707	241.699	85.3216	241.699	84.7257	241.699	84.9538	241.699	84.3704	241.699	84.5378	241.699	84.0277	241.699	84.0963	241.699	83.7247	241.699	83.6628	241.699	83.4901	241.699	83.2815	241.699	83.3471	241.699	82.9993	241.699	83.306	241.699	82.8535	241.699	83.3584	241.699	82.8582	241.699	83.4774	241.699	82.9952	241.699	83.6229	241.699	83.2173	241.699	83.7495	241.699	83.4614	241.699	83.815	241.699	83.6666	241.699	83.7902
250.488	86.6044	250.488	86.5175	250.488	86.5982	250.488	86.3365	250.488	86.5005	250.488	86.0628	250.488	86.3135	250.488	85.7015	250.488	86.0395	250.488	85.2656	250.488	85.6827	250.488	84.7783	250.488	85.2523	250.488	84.2752	250.488	84.7667	250.488	83.8022	250.488	84.2586	250.488	83.4073	250.488	83.7758	250.488	83.1292	250.488	83.3743	250.488	82.9871	250.488	83.1018	250.488	82.978	250.488	82.981	250.488	83.0792	250.488	83.0041	250.488	83.2541	250.488	83.1383	250.488	83.4567	250.488	83.3355	250.488	83.6382	250.488	83.5405	250.488	83.755	250.488	83.7011	250.488	83.7783
259.277	86.5087	259.277	86.4513	259.277	86.4819	259.277	86.3095	259.277	86.3713	259.277	86.083	259.277	86.1779	259.277	85.7729	259.277	85.9037	259.277	85.3845	259.277	85.5523	259.277	84.9328	259.277	85.1296	259.277	84.448	259.277	84.6477	259.277	83.9774	259.277	84.133	259.277	83.5801	259.277	83.6346	259.277	83.3089	259.277	83.2232	259.277	83.1887	259.277	82.9699	259.277	83.207	259.277	82.9087	259.277	83.3259	259.277	83.0166	259.277	83.5013	259.277	83.232	259.277	83.6922	259.277	83.487	259.277	83.8598	259.277	83.7244	259.277	83.967	259.277	83.9001	259.277	83.9843
268.066	86.355	268.066	86.2215	268.066	86.4054	268.066	86.0073	268.066	86.3698	268.066	85.7141	268.066	86.2466	268.066	85.3423	268.066	86.0351	268.066	84.8943	268.066	85.7364	268.066	84.3805	268.066	85.3536	268.066	83.8274	268.066	84.893	268.066	83.2847	268.066	84.368	268.066	82.8246	268.066	83.8065	268.066	82.5229	268.066	83.2594	268.066	82.4247	268.066	82.8024	268.066	82.5172	268.066	82.516	268.066	82.7361	268.066	82.4432	268.066	82.9995	268.066	82.561	268.066	83.2373	268.066	82.7948	268.066	83.4028	268.066	83.0591	268.066	83.4702	268.066	83.2853	268.066	83.4296
276.855	86.247	276.855	86.1687	276.855	86.2533	276.855	86.0063	276.855	86.1963	276.855	85.7488	276.855	86.0796	276.855	85.3902	276.855	85.8998	276.855	84.9338	276.855	85.6465	276.855	84.3956	276.855	85.3056	276.855	83.8076	276.855	84.8675	276.855	83.2213	276.855	84.3396	276.855	82.7062	276.855	83.7616	276.855	82.3388	276.855	83.2128	276.855	82.1766	276.855	82.7944	276.855	82.2309	276.855	82.5823	276.855	82.457	276.855	82.5799	276.855	82.7708	276.855	82.7243	276.855	83.0797	276.855	82.9338	276.855	83.3105	276.855	83.1454	276.855	83.4251	276.855	83.3181	276.855	83.421
287.109	86.2255	287.109	86.2321	287.109	86.1438	287.109	86.159	287.109	85.9909	287.109	85.9999	287.109	85.7723	287.109	85.7466	287.109	85.4984	287.109	85.3907	287.109	85.1857	287.109	84.927	287.109	84.8522	287.109	84.3623	287.109	84.5091	287.109	83.7309	287.109	84.1555	287.109	83.1139	287.109	83.7883	287.109	82.6363	287.109	83.4246	287.109	82.4121	287.109	83.1218	287.109	82.4618	287.109	82.9646	287.109	82.702	287.109	83.0085	287.109	83.0231	287.109	83.2266	287.109	83.3493	287.109	83.5216	287.109	83.6377	287.109	83.7859	287.109	83.8548	287.109	83.9445	287.109	83.966
297.363	86.6843	297.363	86.6456	297.363	86.628	297.363	86.5149	297.363	86.4676	297.363	86.2901	297.363	86.1898	297.363	85.9695	297.363	85.7838	297.363	85.557	297.363	85.25	297.363	85.0628	297.363	84.6106	297.363	84.4993	297.363	83.9153	297.363	83.8789	297.363	83.2361	297.363	83.2273	297.363	82.6476	297.363	82.6152	297.363	82.2096	297.363	82.1792	297.363	81.9671	297.363	82.0652	297.363	81.9567	297.363	82.2991	297.363	82.1855	297.363	82.748	297.363	82.5973	297.363	83.2332	297.363	83.0801	297.363	83.6298	297.363	83.5153	297.363	83.875	297.363	83.8168	297.363	83.9405
307.617	86.58	307.617	86.4937	307.617	86.5714	307.617	86.3072	307.617	86.4731	307.617	86.0169	307.617	86.2894	307.617	85.6228	307.617	86.0217	307.617	85.1339	307.617	85.6666	307.617	84.5743	307.617	85.2181	307.617	83.9872	307.617	84.673	307.617	83.4278	307.617	84.0439	307.617	82.9447	307.617	83.3745	307.617	82.5648	307.617	82.7505	307.617	82.3033	307.617	82.288	307.617	82.1848	307.617	82.0872	307.617	82.2365	307.617	82.1705	307.617	82.4491	307.617	82.4633	307.617	82.7568	307.617	82.8362	307.617	83.0677	307.617	83.1654	307.617	83.3041	307.617	83.3692	307.617	83.4142
319.336	86.5889	319.336	86.5124	319.336	86.5837	319.336	86.3617	319.336	86.4839	319.336	86.1341	319.336	86.2768	319.336	85.8158	319.336	85.9546	319.336	85.3871	319.336	85.5177	319.336	84.8312	319.336	84.9766	319.336	84.1449	319.336	84.3511	319.336	83.351	319.336	83.6667	319.336	82.5153	319.336	82.9541	319.336	81.7648	319.336	82.2604	319.336	81.2733	319.336	81.6713	319.336	81.1696	319.336	81.3133	319.336	81.4253	319.336	81.2895	319.336	81.8762	319.336	81.5813	319.336	82.3469	319.336	82.0423	319.336	82.7225	319.336	82.4993	319.336	82.9442	319.336	82.8317	319.336	82.9841
329.59	86.0385	329.59	85.9202	329.59	86.0906	329.59	85.7436	329.59	86.065	329.59	85.5117	329.59	85.9474	329.59	85.2214	329.59	85.7222	329.59	84.862	329.59	85.3775	329.59	84.4189	329.59	84.9136	329.59	83.8836	329.59	84.3486	329.59	83.2708	329.59	83.7166	329.59	82.6381	329.59	83.0552	329.59	82.0959	329.59	82.4016	329.59	81.7776	329.59	81.814	329.59	81.7623	329.59	81.4032	329.59	82.0134	329.59	81.2991	329.59	82.4049	329.59	81.5318	329.59	82.796	329.59	81.9782	329.59	83.0792	329.59	82.4643	329.59	83.1936	329.59	82.866	329.59	83.1194
341.309	86.258	341.309	86.185	341.309	86.2304	341.309	85.9965	341.309	86.1181	341.309	85.6871	341.309	85.9269	341.309	85.2629	341.309	85.644	341.309	84.7385	341.309	85.2386	341.309	84.1287	341.309	84.678	341.309	83.4426	341.309	83.9583	341.309	82.6866	341.309	83.1399	341.309	81.885	341.309	82.3577	341.309	81.1211	341.309	81.7601	341.309	80.5742	341.309	81.4013	341.309	80.4629	341.309	81.2416	341.309	80.8473	341.309	81.2662	341.309	81.532	341.309	81.5139	341.309	82.2399	341.309	81.9638	341.309	82.7834	341.309	82.4796	341.309	83.0815	341.309	82.899	341.309	83.1156
353.027	86.5817	353.027	86.5411	353.027	86.5459	353.027	86.4148	353.027	86.4359	353.027	86.1849	353.027	86.2536	353.027	85.8306	353.027	86.0024	353.027	85.3388	353.027	85.6798	353.027	84.7107	353.027	85.2645	353.027	83.963	353.027	84.7147	353.027	83.1233	353.027	83.99	353.027	82.232	353.027	83.0935	353.027	81.3583	353.027	82.1252	353.027	80.6265	353.027	81.3012	353.027	80.2182	353.027	80.851	353.027	80.2842	353.027	80.8274	353.027	80.795	353.027	81.1017	353.027	81.5196	353.027	81.5302	353.027	82.1801	353.027	82.0096	353.027	82.5832	353.027	82.4284	353.027	82.6551
366.211	87.2969	366.211	87.2015	366.211	87.2979	366.211	87.0128	366.211	87.1993	366.211	86.7281	366.211	86.9928	366.211	86.3374	366.211	86.6741	366.211	85.8179	366.211	86.2499	366.211	85.1363	366.211	85.7322	366.211	84.2674	366.211	85.1214	366.211	83.2276	366.211	84.3925	366.211	82.1181	366.211	83.5099	366.211	81.1441	366.211	82.4796	366.211	80.5411	366.211	81.4256	366.211	80.4093	366.211	80.6298	366.211	80.6539	366.211	80.3895	366.211	81.1035	366.211	80.7212	366.211	81.6144	366.211	81.3479	366.211	82.0811	366.211	81.9663	366.211	82.4148	366.211	82.3878	366.211	82.5357
379.395	86.6755	379.395	86.6746	379.395	86.6456	379.395	86.6268	379.395	86.5884	379.395	86.5111	379.395	86.4896	379.395	86.3085	379.395	86.3202	379.395	86.0017	379.395	86.0507	379.395	85.5673	379.395	85.6698	379.395	84.968	379.395	85.1908	379.395	84.1595	379.395	84.634	379.395	83.1211	379.395	84.0038	379.395	81.9157	379.395	83.2938	379.395	80.7787	379.395	82.5457	379.395	80.1267	379.395	81.9139	379.395	80.2393	379.395	81.6242	379.395	80.9121	379.395	81.7679	379.395	81.7282	379.395	82.1879	379.395	82.4144	379.395	82.6394	379.395	82.8602	379.395	82.9508	379.395	83.0366
392.578	86.3749	392.578	86.3129	392.578	86.3396	392.578	86.1655	392.578	86.2039	392.578	85.9481	392.578	85.9743	392.578	85.6736	392.578	85.6608	392.578	85.3479	392.578	85.2677	392.578	84.963	392.578	84.7927	392.578	84.4916	392.578	84.2338	392.578	83.8926	392.578	83.5979	392.578	83.1402	392.578	82.9003	392.578	82.2753	392.578	82.1716	392.578	81.4624	392.578	81.4969	392.578	80.9744	392.578	81.0638	392.578	81.0011	392.578	81.0769	392.578	81.4464	392.578	81.5161	392.578	82.0382	392.578	82.1163	392.578	82.5544	392.578	82.6243	392.578	82.8895	392.578	82.9294	392.578	83.0158
405.762	86.6978	405.762	86.6152	405.762	86.6932	405.762	86.4446	405.762	86.6007	405.762	86.1786	405.762	86.4163	405.762	85.7991	405.762	86.1276	405.762	85.2853	405.762	85.711	405.762	84.6307	405.762	85.1416	405.762	83.8553	405.762	84.41	405.762	82.9972	405.762	83.5352	405.762	82.0916	405.762	82.5595	405.762	81.18	405.762	81.5309	405.762	80.3872	405.762	80.5253	405.762	79.981	405.762	79.7543	405.762	80.1782	405.762	79.5899	405.762	80.8375	405.762	80.1642	405.762	81.6025	405.762	81.0956	405.762	82.2212	405.762	81.9354	405.762	82.5939	405.762	82.4771	405.762	82.6881
420.41	86.8175	420.41	86.7862	420.41	86.7504	420.41	86.6622	420.41	86.594	420.41	86.4564	420.41	86.3735	420.41	86.1697	420.41	86.1198	420.41	85.7796	420.41	85.8495	420.41	85.2414	420.41	85.5433	420.41	84.5015	420.41	85.1424	420.41	83.5193	420.41	84.5739	420.41	82.2929	420.41	83.7913	420.41	80.9028	420.41	82.81	420.41	79.6026	420.41	81.7239	420.41	78.8792	420.41	80.694	420.41	79.1198	420.41	79.9294	420.41	80.0734	420.41	79.6605	420.41	81.154	420.41	80.0042	420.41	81.9612	420.41	80.7808	420.41	82.3201	420.41	81.6149	420.41	82.1865
435.059	86.3125	435.059	86.2705	435.059	86.2508	435.059	86.1466	435.059	86.0695	435.059	85.9593	435.059	85.7707	435.059	85.7169	435.059	85.3804	435.059	85.408	435.059	84.9367	435.059	84.9932	435.059	84.4604	435.059	84.4096	435.059	83.9324	435.059	83.5878	435.059	83.3058	435.059	82.4754	435.059	82.552	435.059	81.0784	435.059	81.7127	435.059	79.5763	435.059	80.9464	435.059	78.5057	435.059	80.5251	435.059	78.5233	435.059	80.6614	435.059	79.4968	435.059	81.2558	435.059	80.7197	435.059	81.9768	435.059	81.7495	435.059	82.5461	435.059	82.4498	435.059	82.835	435.059	82.8071
451.172	86.9575	451.172	86.9059	451.172	86.9279	451.172	86.7554	451.172	86.8189	451.172	86.4903	451.172	86.6066	451.172	86.111	451.172	86.2513	451.172	85.6372	451.172	85.7268	451.172	85.1009	451.172	85.0464	451.172	84.5249	451.172	84.2589	451.172	83.8909	451.172	83.4026	451.172	83.1227	451.172	82.4593	451.172	82.1091	451.172	81.3803	451.172	80.7688	451.172	80.2011	451.172	79.1836	451.172	79.1668	451.172	77.8774	451.172	78.6787	451.172	77.7501	451.172	78.9081	451.172	78.7588	451.172	79.5916	451.172	79.9469	451.172	80.3431	451.172	80.754	451.172	80.8865	451.172	81.0559
465.82	86.9821	465.82	86.9453	465.82	86.9689	465.82	86.8466	465.82	86.9079	465.82	86.6623	465.82	86.7889	465.82	86.3612	465.82	86.5811	465.82	85.9151	465.82	86.2323	465.82	85.3071	465.82	85.6905	465.82	84.5301	465.82	84.9314	465.82	83.5788	465.82	83.9695	465.82	82.4552	465.82	82.8364	465.82	81.208	465.82	81.5379	465.82	80.0023	465.82	80.0789	465.82	79.1416	465.82	78.6903	465.82	78.8895	465.82	78.0646	465.82	79.2007	465.82	78.5871	465.82	79.7846	465.82	79.5838	465.82	80.3668	465.82	80.3974	465.82	80.7856	465.82	80.849	465.82	80.9619
483.398	86.1196	483.398	86.0055	483.398	86.1521	483.398	85.8688	483.398	86.0763	483.398	85.7572	483.398	85.9179	483.398	85.667	483.398	85.7356	483.398	85.5354	483.398	85.5625	483.398	85.2707	483.398	85.3555	483.398	84.7912	483.398	85.0055	483.398	84.0465	483.398	84.3997	483.398	83.0162	483.398	83.4859	483.398	81.6989	483.398	82.3068	483.398	80.1388	483.398	80.9982	483.398	78.5846	483.398	79.7621	483.398	77.7256	483.398	78.8867	483.398	78.1562	483.398	78.7427	483.398	79.3648	483.398	79.3988	483.398	80.5384	483.398	80.3843	483.398	81.2946	483.398	81.1796	483.398	81.5128
499.512	86.4804	499.512	86.3186	499.512	86.4794	499.512	86.0252	499.512	86.3241	499.512	85.6759	499.512	86.0458	499.512	85.3531	499.512	85.6896	499.512	85.081	499.512	85.3075	499.512	84.8007	499.512	84.934	499.512	84.4197	499.512	84.5488	499.512	83.8717	499.512	84.0556	499.512	83.1349	499.512	83.3082	499.512	82.2291	499.512	82.1859	499.512	81.2383	499.512	80.7373	499.512	80.3802	499.512	79.4241	499.512	80.0131	499.512	79.0498	499.512	80.3554	499.512	79.7336	499.512	81.1775	499.512	80.798	499.512	82.032	499.512	81.7595	499.512	82.5974	499.512	82.4365	499.512	82.7359
517.09	85.5365	517.09	85.5098	517.09	85.4882	517.09	85.3754	517.09	85.4016	517.09	85.1334	517.09	85.2831	517.09	84.8171	517.09	85.1026	517.09	84.4617	517.09	84.8295	517.09	84.0664	517.09	84.473	517.09	83.5838	517.09	84.0711	517.09	82.9337	517.09	83.62	517.09	82.0197	517.09	83.0227	517.09	80.7689	517.09	82.1369	517.09	79.2851	517.09	80.9062	517.09	78.2025	517.09	79.5597	517.09	78.4563	517.09	78.7716	517.09	79.7371	517.09	79.1405	517.09	81.0808	517.09	80.3283	517.09	82.1044	517.09	81.609	517.09	82.7367	517.09	82.5289	517.09	82.9061
536.133	86.3593	536.133	86.2526	536.133	86.333	536.133	86.0165	536.133	86.1561	536.133	85.6471	536.133	85.8241	536.133	85.17	536.133	85.3763	536.133	84.6641	536.133	84.8882	536.133	84.2081	536.133	84.4051	536.133	83.7658	536.133	83.8738	536.133	83.1639	536.133	83.1762	536.133	82.2109	536.133	82.2284	536.133	80.7917	536.133	80.9984	536.133	78.8667	536.133	79.437	536.133	76.6627	536.133	77.6593	536.133	75.7938	536.133	76.8428	536.133	77.7665	536.133	78.2415	536.133	80.2556	536.133	80.2629	536.133	81.8808	536.133	81.675	536.133	82.6218	536.133	82.4352	536.133	82.7409
555.176	86.1964	555.176	86.2023	555.176	86.1258	555.176	86.1331	555.176	86.0097	555.176	85.9688	555.176	85.8687	555.176	85.688	555.176	85.6941	555.176	85.3052	555.176	85.4557	555.176	84.8682	555.176	85.1525	555.176	84.3802	555.176	84.8082	555.176	83.7226	555.176	84.3684	555.176	82.6787	555.176	83.6342	555.176	81.0291	555.176	82.338	555.176	78.7099	555.176	80.2952	555.176	76.2533	555.176	77.7093	555.176	75.3443	555.176	75.945	555.176	76.7323	555.176	76.553	555.176	78.9007	555.176	78.2958	555.176	80.7044	555.176	79.9332	555.176	81.7048	555.176	81.1615	555.176	81.8172
574.219	86.2769	574.219	86.0898	574.219	86.244	574.219	85.7521	574.219	86.015	574.219	85.3843	574.219	85.6823	574.219	85.0655	574.219	85.3624	574.219	84.8095	574.219	85.1271	574.219	84.6243	574.219	84.9211	574.219	84.5034	574.219	84.5914	574.219	84.3244	574.219	84.0318	574.219	83.8366	574.219	83.2656	574.219	82.7612	574.219	82.3355	574.219	80.849	574.219	81.0878	574.219	77.872	574.219	79.1742	574.219	74.0792	574.219	76.5188	574.219	73.1278	574.219	75.027	574.219	76.1246	574.219	76.9477	574.219	78.767	574.219	79.3385	574.219	80.377	574.219	80.7175	574.219	81.0327
594.727	85.7901	594.727	85.5561	594.727	85.8403	594.727	85.1565	594.727	85.6851	594.727	84.6405	594.727	85.3291	594.727	84.135	594.727	84.8495	594.727	83.7827	594.727	84.3969	594.727	83.587	594.727	84.1301	594.727	83.4185	594.727	84.103	594.727	83.187	594.727	84.1621	594.727	82.8556	594.727	83.9841	594.727	82.2808	594.727	83.2391	594.727	81.1993	594.727	81.703	594.727	79.4918	594.727	79.2992	594.727	77.8109	594.727	76.4056	594.727	77.8637	594.727	75.1778	594.727	79.4815	594.727	77.1595	594.727	81.0341	594.727	79.6559	594.727	81.9324	594.727	81.3346	594.727	82.0642
615.234	85.6916	615.234	85.6699	615.234	85.5184	615.234	85.4185	615.234	85.2189	615.234	84.9591	615.234	84.8523	615.234	84.3746	615.234	84.4536	615.234	83.8071	615.234	84.0777	615.234	83.3981	615.234	83.8081	615.234	83.1344	615.234	83.6334	615.234	82.8019	615.234	83.4081	615.234	82.1532	615.234	83.0054	615.234	81.0274	615.234	82.3488	615.234	79.2968	615.234	81.2805	615.234	76.8317	615.234	79.5956	615.234	74.2985	615.234	77.5629	615.234	74.8061	615.234	76.8107	615.234	77.5109	615.234	78.0584	615.234	79.5733	615.234	79.5789	615.234	80.6541	615.234	80.5656	615.234	80.9387
637.207	86.5196	637.207	86.4259	637.207	86.3488	637.207	86.0759	637.207	85.9569	637.207	85.5345	637.207	85.399	637.207	84.8747	637.207	84.7267	637.207	84.1383	637.207	84.0275	637.207	83.4194	637.207	83.4258	637.207	82.9403	637.207	82.969	637.207	82.7968	637.207	82.6085	637.207	82.7032	637.207	82.3038	637.207	82.1978	637.207	81.8925	637.207	80.844	637.207	80.9567	637.207	78.2318	637.207	79.0144	637.207	74.1068	637.207	75.9363	637.207	71.927	637.207	74.3176	637.207	75.8687	637.207	77.0453	637.207	79.0851	637.207	79.6511	637.207	80.6756	637.207	80.906	637.207	81.179
659.18	86.071	659.18	86.0203	659.18	85.9701	659.18	85.7926	659.18	85.7083	659.18	85.3251	659.18	85.2904	659.18	84.6165	659.18	84.7534	659.18	83.8707	659.18	84.1388	659.18	83.4279	659.18	83.5362	659.18	83.3254	659.18	83.1733	659.18	83.1738	659.18	83.1541	659.18	82.6597	659.18	83.1205	659.18	81.7999	659.18	82.5984	659.18	80.5826	659.18	81.3237	659.18	78.5584	659.18	79.1104	659.18	75.3686	659.18	75.8657	659.18	73.471	659.18	73.3235	659.18	75.8521	659.18	74.9956	659.18	78.6005	659.18	77.8862	659.18	80.316	659.18	79.927	659.18	80.7772
682.617	86.9285	682.617	86.7228	682.617	86.8797	682.617	86.3233	682.617	86.54	682.617	85.7935	682.617	85.903	682.617	85.1461	682.617	85.0284	682.617	84.3572	682.617	84.0997	682.617	83.5134	682.617	83.3519	682.617	82.905	682.617	82.8373	682.617	82.7371	682.617	82.4723	682.617	82.6963	682.617	82.267	682.617	82.2427	682.617	82.1193	682.617	81.1276	682.617	81.5958	682.617	79.2438	682.617	80.1638	682.617	76.2833	682.617	77.4756	682.617	73.9459	682.617	74.4633	682.617	76.1117	682.617	75.2376	682.617	78.6286	682.617	78.0529	682.617	80.0828	682.617	79.928	682.617	80.5676
707.52	87.0103	707.52	86.9268	707.52	86.8354	707.52	86.5603	707.52	86.4514	707.52	85.9146	707.52	85.8733	707.52	84.999	707.52	85.0514	707.52	83.8421	707.52	83.9517	707.52	82.5831	707.52	82.7081	707.52	81.5237	707.52	81.7265	707.52	80.9348	707.52	81.375	707.52	80.8501	707.52	81.4325	707.52	80.9172	707.52	81.3565	707.52	80.4913	707.52	80.6985	707.52	79.1236	707.52	79.0306	707.52	76.7792	707.52	75.9732	707.52	74.1694	707.52	72.3846	707.52	74.6479	707.52	73.7351	707.52	77.8325	707.52	77.4724	707.52	79.9532	707.52	79.7855	707.52	80.562
732.422	86.3088	732.422	86.2439	732.422	86.1118	732.422	85.859	732.422	85.7529	732.422	85.2172	732.422	85.2621	732.422	84.4479	732.422	84.5946	732.422	83.6502	732.422	83.7038	732.422	82.9064	732.422	82.6277	732.422	82.4193	732.422	81.6512	732.422	82.3284	732.422	81.2487	732.422	82.2984	732.422	81.3128	732.422	81.8357	732.422	81.236	732.422	80.6264	732.422	80.7494	732.422	78.4139	732.422	79.6763	732.422	74.9315	732.422	77.3817	732.422	70.8198	732.422	72.8173	732.422	72.4175	732.422	70.1593	732.422	76.6927	732.422	75.2952	732.422	79.0455	732.422	78.4049	732.422	79.5466
757.324	86.268	757.324	86.0965	757.324	86.2865	757.324	85.8595	757.324	86.0059	757.324	85.4143	757.324	85.4206	757.324	84.536	757.324	84.6152	757.324	83.2038	757.324	83.6183	757.324	81.7775	757.324	82.4584	757.324	80.7434	757.324	81.3126	757.324	80.1782	757.324	80.4922	757.324	80.1104	757.324	80.2499	757.324	80.3246	757.324	80.2748	757.324	80.0187	757.324	79.8377	757.324	78.5246	757.324	78.55	757.324	75.5218	757.324	76.1904	757.324	72.123	757.324	72.6183	757.324	73.212	757.324	71.5896	757.324	76.2325	757.324	74.8305	757.324	77.9733	757.324	77.2148	757.324	78.2383
785.156	85.8373	785.156	85.7141	785.156	85.6806	785.156	85.2604	785.156	85.3611	785.156	84.6034	785.156	84.8297	785.156	83.8872	785.156	83.9584	785.156	83.1939	785.156	82.9055	785.156	82.5432	785.156	82.034	785.156	81.7949	785.156	81.1652	785.156	81.0268	785.156	80.1146	785.156	80.6915	785.156	79.6538	785.156	80.4564	785.156	79.5485	785.156	79.5116	785.156	78.8805	785.156	77.5922	785.156	77.8917	785.156	73.8488	785.156	76.4354	785.156	63.9175	785.156	72.2675	785.156	67.8908	785.156	68.2182	785.156	73.3717	785.156	74.0287	785.156	75.5541	785.156	76.6184	785.156	76.7767
811.523	86.1443	811.523	86.0814	811.523	85.8823	811.523	85.6956	811.523	85.512	811.523	85.1839	811.523	85.1327	811.523	84.562	811.523	84.5867	811.523	83.5489	811.523	83.7089	811.523	81.9306	811.523	82.5058	811.523	80.1263	811.523	81.1274	811.523	79.3496	811.523	79.8174	811.523	79.374	811.523	79.2043	811.523	79.2875	811.523	79.703	811.523	79.2643	811.523	79.8791	811.523	78.6678	811.523	78.5915	811.523	76.1334	811.523	76.105	811.523	70.8447	811.523	72.7572	811.523	68.9331	811.523	66.9105	811.523	74.1081	811.523	71.4467	811.523	77.0103	811.523	76.6417	811.523	77.9185
840.82	85.3586	840.82	85.368	840.82	85.2872	840.82	85.167	840.82	85.0613	840.82	84.5503	840.82	84.5509	840.82	83.4949	840.82	83.7443	840.82	82.2332	840.82	82.6535	840.82	81.1028	840.82	81.2769	840.82	79.7837	840.82	79.7356	840.82	78.0164	840.82	78.6158	840.82	77.8691	840.82	78.2943	840.82	78.7735	840.82	78.137	840.82	78.388	840.82	77.8002	840.82	76.9151	840.82	77.5465	840.82	74.44	840.82	76.7774	840.82	69.9749	840.82	73.6702	840.82	69.7657	840.82	68.7808	840.82	74.4319	840.82	72.82	840.82	76.8305	840.82	75.9994	840.82	77.2264
870.117	85.4105	870.117	85.1756	870.117	85.3883	870.117	84.8674	870.117	85.0207	870.117	84.3842	870.117	84.4583	870.117	83.4972	870.117	83.9284	870.117	82.2209	870.117	83.4119	870.117	80.63	870.117	82.5785	870.117	79.0562	870.117	81.4329	870.117	77.876	870.117	80.3826	870.117	77.0682	870.117	79.7018	870.117	77.9488	870.117	79.9749	870.117	79.1111	870.117	80.2129	870.117	78.5924	870.117	79.1277	870.117	76.6025	870.117	77.3383	870.117	73.6288	870.117	75.5084	870.117	70.0784	870.117	72.4951	870.117	71.51	870.117	71.407	870.117	75.1874	870.117	74.5675	870.117	76.2487
900.879	85.795	900.879	85.6333	900.879	85.8468	900.879	85.1821	900.879	85.7412	900.879	84.5069	900.879	85.1846	900.879	83.7776	900.879	84.14	900.879	82.969	900.879	82.9718	900.879	82.0278	900.879	81.9582	900.879	80.6156	900.879	80.6436	900.879	78.5606	900.879	78.6385	900.879	77.1447	900.879	77.0197	900.879	76.7435	900.879	76.1051	900.879	77.3949	900.879	75.8871	900.879	78.1546	900.879	76.7069	900.879	76.8402	900.879	76.2251	900.879	73.1084	900.879	73.3983	900.879	70.0419	900.879	71.7882	900.879	72.6622	900.879	73.5582	900.879	75.6573	900.879	75.6604	900.879	76.798
933.105	85.9864	933.105	86.0156	933.105	85.6797	933.105	85.738	933.105	85.2282	933.105	85.118	933.105	84.803	933.105	84.2555	933.105	84.278	933.105	83.2512	933.105	83.3423	933.105	82.0672	933.105	81.9873	933.105	80.9437	933.105	80.7283	933.105	79.7726	933.105	79.91	933.105	78.2291	933.105	79.4762	933.105	77.508	933.105	79.4538	933.105	77.4978	933.105	79.3894	933.105	77.0247	933.105	78.3684	933.105	75.7623	933.105	76.5797	933.105	71.8361	933.105	74.313	933.105	63.358	933.105	67.7846	933.105	70.3778	933.105	70.4295	933.105	73.5362	933.105	73.847	933.105	73.9478
965.332	86.6671	965.332	86.4366	965.332	86.4644	965.332	85.7999	965.332	86.0382	965.332	85.1841	965.332	85.3188	965.332	84.6827	965.332	84.2659	965.332	83.9398	965.332	83.344	965.332	82.8768	965.332	82.4609	965.332	81.7561	965.332	80.8415	965.332	80.6669	965.332	78.9934	965.332	79.2499	965.332	78.8738	965.332	77.8195	965.332	79.5236	965.332	77.693	965.332	79.2936	965.332	77.2221	965.332	78.5246	965.332	75.0825	965.332	77.2372	965.332	72.4864	965.332	73.9236	965.332	69.5017	965.332	69.7154	965.332	71.1697	965.332	71.0065	965.332	75.0148	965.332	73.7211	965.332	75.6032
1,000.49	85.317	1,000.49	85.1451	1,000.49	85.258	1,000.49	84.8493	1,000.49	84.8073	1,000.49	84.1678	1,000.49	84.1542	1,000.49	83.0958	1,000.49	83.3316	1,000.49	81.9785	1,000.49	82.3326	1,000.49	80.703	1,000.49	81.2516	1,000.49	78.8897	1,000.49	79.797	1,000.49	76.7249	1,000.49	77.8325	1,000.49	75.5938	1,000.49	75.8398	1,000.49	76.8369	1,000.49	75.6888	1,000.49	77.977	1,000.49	76.5952	1,000.49	77.8989	1,000.49	77.0568	1,000.49	76.9236	1,000.49	76.5349	1,000.49	73.9943	1,000.49	73.6286	1,000.49	68.6124	1,000.49	67.0114	1,000.49	68.0258	1,000.49	67.8186	1,000.49	73.505	1,000.49	72.8437	1,000.49	74.8368
1,035.64	85.5593	1,035.64	85.4272	1,035.64	85.3307	1,035.64	84.9999	1,035.64	84.8283	1,035.64	84.4391	1,035.64	84.2674	1,035.64	83.6448	1,035.64	83.6858	1,035.64	82.3698	1,035.64	82.7761	1,035.64	80.9091	1,035.64	81.5845	1,035.64	79.8677	1,035.64	80.2409	1,035.64	78.5354	1,035.64	78.02	1,035.64	76.639	1,035.64	75.2342	1,035.64	75.5391	1,035.64	74.3841	1,035.64	74.9334	1,035.64	73.8641	1,035.64	75.9632	1,035.64	73.9722	1,035.64	75.9004	1,035.64	74.6654	1,035.64	72.7187	1,035.64	73.8605	1,035.64	68.6082	1,035.64	70.1353	1,035.64	69.955	1,035.64	69.7717	1,035.64	72.5475	1,035.64	73.114	1,035.64	73.8138
1,072.27	85.6884	1,072.27	85.5501	1,072.27	85.7871	1,072.27	85.0777	1,072.27	85.5746	1,072.27	84.092	1,072.27	84.938	1,072.27	83.2697	1,072.27	84.1075	1,072.27	82.5403	1,072.27	83.0716	1,072.27	80.8357	1,072.27	81.7492	1,072.27	79.0051	1,072.27	80.1728	1,072.27	78.2806	1,072.27	78.2221	1,072.27	76.3516	1,072.27	76.3585	1,072.27	75.173	1,072.27	75.6298	1,072.27	76.4794	1,072.27	75.8286	1,072.27	76.9315	1,072.27	76.8674	1,072.27	76.1834	1,072.27	76.7637	1,072.27	73.8187	1,072.27	74.9407	1,072.27	71.3439	1,072.27	71.6706	1,072.27	68.7442	1,072.27	69.5233	1,072.27	72.1224	1,072.27	72.007	1,072.27	73.7262
1,108.89	85.7774	1,108.89	85.1801	1,108.89	85.6003	1,108.89	84.4041	1,108.89	84.9118	1,108.89	83.9935	1,108.89	84.1521	1,108.89	82.9291	1,108.89	83.1892	1,108.89	81.4045	1,108.89	81.8513	1,108.89	80.501	1,108.89	80.7337	1,108.89	78.4681	1,108.89	79.3537	1,108.89	75.6616	1,108.89	77.2934	1,108.89	74.3096	1,108.89	75.4033	1,108.89	71.7189	1,108.89	74.0682	1,108.89	72.12	1,108.89	73.0691	1,108.89	72.786	1,108.89	72.4566	1,108.89	71.4038	1,108.89	74.0865	1,108.89	68.7726	1,108.89	72.4351	1,108.89	66.5312	1,108.89	64.2986	1,108.89	70.5482	1,108.89	67.1413	1,108.89	73.5051	1,108.89	72.4862	1,108.89	73.9438
1,148.44	85.506	1,148.44	85.4938	1,148.44	85.3921	1,148.44	84.9396	1,148.44	85.123	1,148.44	83.7772	1,148.44	84.408	1,148.44	82.6472	1,148.44	83.4117	1,148.44	81.4159	1,148.44	82.4039	1,148.44	79.8545	1,148.44	80.9621	1,148.44	78.6568	1,148.44	79.5592	1,148.44	77.6551	1,148.44	78.4471	1,148.44	76.2825	1,148.44	76.5458	1,148.44	74.9979	1,148.44	74.8548	1,148.44	74.6761	1,148.44	74.3501	1,148.44	74.0805	1,148.44	75.3301	1,148.44	74.0597	1,148.44	74.4457	1,148.44	71.2911	1,148.44	72.3968	1,148.44	66.5919	1,148.44	71.3957	1,148.44	69.3922	1,148.44	71.2598	1,148.44	73.0005	1,148.44	72.9584	1,148.44	74.1828
1,189.45	85.7546	1,189.45	85.4052	1,189.45	86.0427	1,189.45	85.1221	1,189.45	85.5059	1,189.45	84.4392	1,189.45	84.5175	1,189.45	83.1459	1,189.45	83.5156	1,189.45	81.7297	1,189.45	82.3128	1,189.45	80.5454	1,189.45	81.1657	1,189.45	78.6237	1,189.45	79.3218	1,189.45	76.9817	1,189.45	77.7134	1,189.45	75.1028	1,189.45	76.5989	1,189.45	73.1725	1,189.45	75.3385	1,189.45	72.8915	1,189.45	74.521	1,189.45	72.4319	1,189.45	74.2526	1,189.45	72.3239	1,189.45	74.7308	1,189.45	69.8759	1,189.45	72.0708	1,189.45	62.1543	1,189.45	63.0438	1,189.45	69.9264	1,189.45	65.7241	1,189.45	73.1207	1,189.45	72.8602	1,189.45	73.7255
1,230.47	86.2032	1,230.47	86.1141	1,230.47	85.8456	1,230.47	85.6366	1,230.47	85.3264	1,230.47	84.7246	1,230.47	84.4701	1,230.47	83.5171	1,230.47	83.2929	1,230.47	82.3772	1,230.47	81.9189	1,230.47	81.2823	1,230.47	80.4166	1,230.47	80.0401	1,230.47	79.2556	1,230.47	78.2292	1,230.47	77.4414	1,230.47	76.5321	1,230.47	75.0101	1,230.47	74.3101	1,230.47	73.1312	1,230.47	74.9	1,230.47	73.8372	1,230.47	75.2366	1,230.47	74.9471	1,230.47	75.9406	1,230.47	75.1781	1,230.47	74.4223	1,230.47	73.0303	1,230.47	68.9051	1,230.47	65.9203	1,230.47	64.5206	1,230.47	63.8346	1,230.47	71.9211	1,230.47	69.3518	1,230.47	74.0156
1,274.41	85.6451	1,274.41	85.7691	1,274.41	85.6746	1,274.41	85.6158	1,274.41	85.2144	1,274.41	84.823	1,274.41	84.1982	1,274.41	83.7405	1,274.41	83.0116	1,274.41	82.3756	1,274.41	81.6783	1,274.41	80.9682	1,274.41	80.1623	1,274.41	79.5064	1,274.41	78.3587	1,274.41	78.1486	1,274.41	76.3744	1,274.41	77.754	1,274.41	75.9925	1,274.41	76.0408	1,274.41	75.2826	1,274.41	72.6763	1,274.41	72.1484	1,274.41	72.3638	1,274.41	72.2161	1,274.41	72.9548	1,274.41	73.0243	1,274.41	71.814	1,274.41	71.8262	1,274.41	67.932	1,274.41	68.8	1,274.41	66.6556	1,274.41	52.8654	1,274.41	72.3645	1,274.41	67.4196	1,274.41	70.5116
1,319.82	85.859	1,319.82	85.7022	1,319.82	85.5524	1,319.82	85.1994	1,319.82	85.3679	1,319.82	84.3659	1,319.82	84.561	1,319.82	83.2227	1,319.82	83.0232	1,319.82	82.0181	1,319.82	81.7113	1,319.82	80.2358	1,319.82	80.3799	1,319.82	79.0825	1,319.82	78.7483	1,319.82	77.92	1,319.82	76.6821	1,319.82	76.548	1,319.82	74.9505	1,319.82	74.9912	1,319.82	71.5273	1,319.82	72.1538	1,319.82	69.8117	1,319.82	73.501	1,319.82	71.5341	1,319.82	74.4673	1,319.82	72.6888	1,319.82	72.2412	1,319.82	72.3582	1,319.82	67.6594	1,319.82	68.9664	1,319.82	66.1754	1,319.82	59.4923	1,319.82	72.3363	1,319.82	68.7984	1,319.82	72.2665
1,366.7	85.7014	1,366.7	85.4858	1,366.7	85.5773	1,366.7	84.9368	1,366.7	85.1682	1,366.7	83.7696	1,366.7	84.6375	1,366.7	82.9695	1,366.7	83.4007	1,366.7	81.7705	1,366.7	82.1031	1,366.7	80.0687	1,366.7	80.5334	1,366.7	78.0384	1,366.7	78.9067	1,366.7	76.047	1,366.7	77.7253	1,366.7	75.0709	1,366.7	76.0936	1,366.7	72.6197	1,366.7	74.502	1,366.7	69.6088	1,366.7	71.175	1,366.7	71.8964	1,366.7	68.9654	1,366.7	73.6718	1,366.7	72.3541	1,366.7	73.4296	1,366.7	73.0396	1,366.7	67.8803	1,366.7	70.6633	1,366.7	49.1472	1,366.7	62.9213	1,366.7	66.2714	1,366.7	64.4189	1,366.7	69.2132
1,413.57	86.2205	1,413.57	85.769	1,413.57	86.0995	1,413.57	84.7602	1,413.57	85.6157	1,413.57	83.797	1,413.57	84.6038	1,413.57	82.1433	1,413.57	83.4023	1,413.57	80.4463	1,413.57	82.1147	1,413.57	79.15	1,413.57	80.5776	1,413.57	76.9369	1,413.57	79.0429	1,413.57	74.9198	1,413.57	77.6794	1,413.57	72.211	1,413.57	75.6403	1,413.57	72.015	1,413.57	74.835	1,413.57	70.4687	1,413.57	72.7066	1,413.57	69.9992	1,413.57	72.4665	1,413.57	71.0267	1,413.57	73.4718	1,413.57	70.7149	1,413.57	73.2763	1,413.57	68.4028	1,413.57	71.6832	1,413.57	60.7106	1,413.57	66.995	1,413.57	66.2005	1,413.57	66.9702	1,413.57	67.2841
1,463.38	86.1597	1,463.38	85.8432	1,463.38	85.9351	1,463.38	84.9429	1,463.38	85.4377	1,463.38	83.9853	1,463.38	84.577	1,463.38	82.5255	1,463.38	83.3608	1,463.38	81.4207	1,463.38	81.7226	1,463.38	79.9944	1,463.38	80.415	1,463.38	78.1056	1,463.38	78.6164	1,463.38	76.0911	1,463.38	76.9075	1,463.38	73.3782	1,463.38	75.2529	1,463.38	72.2538	1,463.38	74.3507	1,463.38	70.7448	1,463.38	73.3769	1,463.38	68.0333	1,463.38	71.3778	1,463.38	68.3477	1,463.38	72.0821	1,463.38	71.9377	1,463.38	73.8	1,463.38	69.5742	1,463.38	72.1255	1,463.38	62.8013	1,463.38	65.4113	1,463.38	67.7507	1,463.38	65.72	1,463.38	70.6052
1,516.11	86.4121	1,516.11	85.7537	1,516.11	86.52	1,516.11	85.0935	1,516.11	86.0177	1,516.11	84.2294	1,516.11	84.9542	1,516.11	82.7759	1,516.11	83.4154	1,516.11	80.9955	1,516.11	81.786	1,516.11	79.3424	1,516.11	79.3799	1,516.11	78.3656	1,516.11	77.672	1,516.11	76.5734	1,516.11	75.7407	1,516.11	74.4084	1,516.11	72.0542	1,516.11	73.0764	1,516.11	72.7911	1,516.11	72.9333	1,516.11	71.6412	1,516.11	72.6283	1,516.11	69.4226	1,516.11	72.4383	1,516.11	71.7676	1,516.11	72.9227	1,516.11	73.3151	1,516.11	71.7462	1,516.11	72.1333	1,516.11	67.3988	1,516.11	67.8427	1,516.11	65.459	1,516.11	71.066	1,516.11	69.9428
1,568.85	85.8565	1,568.85	85.7522	1,568.85	85.5904	1,568.85	84.914	1,568.85	85.1432	1,568.85	83.8508	1,568.85	84.1413	1,568.85	82.5705	1,568.85	82.1796	1,568.85	81.2367	1,568.85	80.5022	1,568.85	79.3216	1,568.85	79.7642	1,568.85	78.101	1,568.85	78.1708	1,568.85	77.0549	1,568.85	75.7488	1,568.85	74.1775	1,568.85	74.674	1,568.85	71.4635	1,568.85	71.351	1,568.85	72.0486	1,568.85	71.7541	1,568.85	70.4718	1,568.85	71.3847	1,568.85	71.6963	1,568.85	69.4138	1,568.85	71.804	1,568.85	69.9162	1,568.85	68.9304	1,568.85	69.1851	1,568.85	67.3323	1,568.85	60.3161	1,568.85	66.3718	1,568.85	64.4262	1,568.85	68.9788
1,624.51	85.6414	1,624.51	85.1725	1,624.51	85.3563	1,624.51	84.3571	1,624.51	84.4472	1,624.51	83.5263	1,624.51	83.3012	1,624.51	82.2236	1,624.51	82.3093	1,624.51	80.1477	1,624.51	80.4286	1,624.51	78.4069	1,624.51	78.2283	1,624.51	75.6662	1,624.51	76.7205	1,624.51	74.7269	1,624.51	75.5133	1,624.51	73.1951	1,624.51	73.5318	1,624.51	70.7403	1,624.51	70.6961	1,624.51	70.4163	1,624.51	71.1153	1,624.51	71.167	1,624.51	68.9769	1,624.51	72.0816	1,624.51	67.1982	1,624.51	71.9561	1,624.51	69.7066	1,624.51	69.2802	1,624.51	67.801	1,624.51	68.0114	1,624.51	66.6119	1,624.51	65.1705	1,624.51	65.7734	1,624.51	69.0004
1,681.64	85.6507	1,681.64	85.718	1,681.64	85.7604	1,681.64	84.9288	1,681.64	85.5328	1,681.64	83.5741	1,681.64	84.7887	1,681.64	82.2222	1,681.64	82.5874	1,681.64	81.4846	1,681.64	81.4886	1,681.64	79.0405	1,681.64	80.4807	1,681.64	76.5375	1,681.64	78.56	1,681.64	75.5138	1,681.64	76.9246	1,681.64	72.859	1,681.64	75.1452	1,681.64	69.7983	1,681.64	74.3514	1,681.64	71.2278	1,681.64	72.9701	1,681.64	68.6653	1,681.64	72.0144	1,681.64	70.3566	1,681.64	71.2641	1,681.64	72.8869	1,681.64	69.808	1,681.64	70.1955	1,681.64	72.33	1,681.64	58.7987	1,681.64	58.7223	1,681.64	66.3446	1,681.64	65.2689	1,681.64	59.1368
1,741.7	86.6556	1,741.7	86.725	1,741.7	86.4104	1,741.7	86.0364	1,741.7	86.0748	1,741.7	84.7136	1,741.7	85.3304	1,741.7	83.9189	1,741.7	83.9302	1,741.7	81.3335	1,741.7	82.6197	1,741.7	80.0462	1,741.7	80.1273	1,741.7	79.1951	1,741.7	78.9185	1,741.7	77.9073	1,741.7	77.7897	1,741.7	76.3224	1,741.7	75.1931	1,741.7	74.8509	1,741.7	72.9161	1,741.7	72.3424	1,741.7	70.1317	1,741.7	66.2564	1,741.7	67.9085	1,741.7	69.0743	1,741.7	70.1971	1,741.7	70.7969	1,741.7	71.9095	1,741.7	71.9067	1,741.7	70.1989	1,741.7	66.6873	1,741.7	69.264	1,741.7	70.1803	1,741.7	66.3775	1,741.7	69.4478
1,803.22	86.6603	1,803.22	86.5632	1,803.22	86.5176	1,803.22	85.8744	1,803.22	85.8635	1,803.22	84.7619	1,803.22	84.7906	1,803.22	83.5962	1,803.22	83.4058	1,803.22	81.7404	1,803.22	81.7145	1,803.22	79.7047	1,803.22	79.7763	1,803.22	78.0154	1,803.22	77.8749	1,803.22	76.2636	1,803.22	76.2681	1,803.22	74.6243	1,803.22	75.7655	1,803.22	72.8592	1,803.22	74.4506	1,803.22	71.0718	1,803.22	72.2403	1,803.22	69.5704	1,803.22	72.303	1,803.22	68.9266	1,803.22	70.8352	1,803.22	72.2056	1,803.22	71.4848	1,803.22	72.088	1,803.22	71.6052	1,803.22	66.4294	1,803.22	66.9513	1,803.22	65.6032	1,803.22	66.8432	1,803.22	67.7253
1,866.21	86.0513	1,866.21	85.7703	1,866.21	85.6315	1,866.21	85.0194	1,866.21	85.1228	1,866.21	84.0159	1,866.21	84.1075	1,866.21	82.3731	1,866.21	82.6512	1,866.21	80.9828	1,866.21	80.8298	1,866.21	79.2295	1,866.21	78.7007	1,866.21	76.6639	1,866.21	76.6799	1,866.21	74.6391	1,866.21	74.9114	1,866.21	73.5332	1,866.21	72.952	1,866.21	72.326	1,866.21	70.6805	1,866.21	69.989	1,866.21	68.9453	1,866.21	70.1014	1,866.21	68.7102	1,866.21	68.6746	1,866.21	67.8754	1,866.21	68.5144	1,866.21	69.0726	1,866.21	69.3165	1,866.21	70.4236	1,866.21	66.2768	1,866.21	67.9678	1,866.21	66.4875	1,866.21	65.1964	1,866.21	67.1503
1,932.13	85.5743	1,932.13	84.9244	1,932.13	85.5335	1,932.13	84.1624	1,932.13	84.8536	1,932.13	82.8791	1,932.13	83.8905	1,932.13	81.684	1,932.13	82.7286	1,932.13	79.6347	1,932.13	80.5685	1,932.13	77.373	1,932.13	78.7438	1,932.13	75.6509	1,932.13	76.3101	1,932.13	72.9924	1,932.13	74.4968	1,932.13	71.7556	1,932.13	73.3345	1,932.13	70.4093	1,932.13	71.7582	1,932.13	69.4355	1,932.13	68.2099	1,932.13	67.1238	1,932.13	68.1158	1,932.13	67.1854	1,932.13	66.7109	1,932.13	68.7846	1,932.13	68.982	1,932.13	69.5796	1,932.13	68.4262	1,932.13	64.6794	1,932.13	65.2465	1,932.13	66.7378	1,932.13	62.5374	1,932.13	67.0533
1,999.51	86.3638	1,999.51	86.1258	1,999.51	86.2704	1,999.51	85.1495	1,999.51	85.8206	1,999.51	83.7638	1,999.51	84.8101	1,999.51	81.9702	1,999.51	83.3383	1,999.51	80.1678	1,999.51	81.4903	1,999.51	78.2246	1,999.51	79.3501	1,999.51	75.5115	1,999.51	77.1942	1,999.51	73.6808	1,999.51	74.3083	1,999.51	71.3196	1,999.51	73.3614	1,999.51	69.4001	1,999.51	71.0055	1,999.51	67.8329	1,999.51	70.1989	1,999.51	65.8991	1,999.51	65.4071	1,999.51	66.702	1,999.51	68.2492	1,999.51	67.315	1,999.51	66.4161	1,999.51	65.8741	1,999.51	69.9749	1,999.51	64.2086	1,999.51	65.5718	1,999.51	65.1598	1,999.51	62.3149	1,999.51	66.5987
2,069.82	86.8669	2,069.82	86.4935	2,069.82	86.4824	2,069.82	85.6299	2,069.82	85.8883	2,069.82	84.4179	2,069.82	84.8341	2,069.82	82.9103	2,069.82	83.2334	2,069.82	81.4499	2,069.82	81.5475	2,069.82	79.1855	2,069.82	79.4646	2,069.82	77.4544	2,069.82	77.5634	2,069.82	74.5917	2,069.82	74.7344	2,069.82	72.6023	2,069.82	71.2249	2,069.82	71.6155	2,069.82	71.3293	2,069.82	70.4834	2,069.82	69.331	2,069.82	69.1434	2,069.82	68.5837	2,069.82	65.1942	2,069.82	67.8112	2,069.82	68.2107	2,069.82	68.6159	2,069.82	69.321	2,069.82	69.3028	2,069.82	63.9431	2,069.82	66.5806	2,069.82	58.743	2,069.82	61.2301	2,069.82	66.4128
2,143.07	85.9939	2,143.07	85.6526	2,143.07	85.8121	2,143.07	84.9733	2,143.07	85.0234	2,143.07	83.9079	2,143.07	83.8899	2,143.07	82.5941	2,143.07	82.4848	2,143.07	80.5574	2,143.07	80.575	2,143.07	78.7478	2,143.07	78.3902	2,143.07	76.8928	2,143.07	76.532	2,143.07	74.6829	2,143.07	73.9915	2,143.07	73.4013	2,143.07	73.085	2,143.07	70.5187	2,143.07	71.6397	2,143.07	69.4609	2,143.07	68.4698	2,143.07	69.0571	2,143.07	66.7766	2,143.07	67.9113	2,143.07	65.4908	2,143.07	68.4538	2,143.07	65.7624	2,143.07	71.0983	2,143.07	69.8409	2,143.07	66.1448	2,143.07	65.2781	2,143.07	63.3497	2,143.07	53.6029	2,143.07	63.681
2,219.24	85.7941	2,219.24	85.5997	2,219.24	85.7347	2,219.24	84.8877	2,219.24	85.0388	2,219.24	83.5612	2,219.24	83.9572	2,219.24	81.8017	2,219.24	82.4886	2,219.24	80.126	2,219.24	80.6544	2,219.24	77.6992	2,219.24	78.7272	2,219.24	76.4258	2,219.24	76.4085	2,219.24	74.7381	2,219.24	74.8516	2,219.24	72.5945	2,219.24	72.4566	2,219.24	71.2918	2,219.24	70.6514	2,219.24	68.5147	2,219.24	70.8674	2,219.24	69.182	2,219.24	68.9649	2,219.24	66.807	2,219.24	68.199	2,219.24	66.2884	2,219.24	66.7787	2,219.24	67.3954	2,219.24	68.603	2,219.24	65.7706	2,219.24	69.5898	2,219.24	58.6285	2,219.24	60.9403	2,219.24	59.5431
2,296.88	86.8508	2,296.88	86.6477	2,296.88	86.6258	2,296.88	85.8554	2,296.88	86.1879	2,296.88	84.6737	2,296.88	84.9761	2,296.88	82.7825	2,296.88	83.3866	2,296.88	80.437	2,296.88	81.2838	2,296.88	78.3077	2,296.88	79.247	2,296.88	75.8231	2,296.88	77.1398	2,296.88	73.6643	2,296.88	74.8845	2,296.88	72.367	2,296.88	71.1659	2,296.88	70.5052	2,296.88	71.137	2,296.88	68.8476	2,296.88	69.3832	2,296.88	68.2062	2,296.88	67.1782	2,296.88	67.9535	2,296.88	67.561	2,296.88	63.8085	2,296.88	64.927	2,296.88	68.1642	2,296.88	67.9825	2,296.88	67.5708	2,296.88	68.7441	2,296.88	61.7021	2,296.88	64.9466	2,296.88	65.2061
2,378.91	86.5891	2,378.91	86.5146	2,378.91	86.6151	2,378.91	85.8401	2,378.91	85.7967	2,378.91	84.4553	2,378.91	84.6245	2,378.91	82.706	2,378.91	82.7528	2,378.91	81.0271	2,378.91	80.6675	2,378.91	79.1065	2,378.91	78.1133	2,378.91	76.0065	2,378.91	76.1155	2,378.91	74.7865	2,378.91	74.0003	2,378.91	72.0499	2,378.91	72.0262	2,378.91	71.4454	2,378.91	68.5118	2,378.91	68.792	2,378.91	69.0028	2,378.91	68.1062	2,378.91	67.3302	2,378.91	69.2406	2,378.91	67.0009	2,378.91	66.4555	2,378.91	62.5498	2,378.91	70.0214	2,378.91	66.1466	2,378.91	68.5208	2,378.91	68.1875	2,378.91	65.9765	2,378.91	63.0416	2,378.91	65.6015
2,462.4	86.3663	2,462.4	86.2345	2,462.4	86.3354	2,462.4	85.1874	2,462.4	85.6226	2,462.4	84.0304	2,462.4	84.3445	2,462.4	81.9395	2,462.4	82.7478	2,462.4	80.1069	2,462.4	80.521	2,462.4	78.3582	2,462.4	78.3951	2,462.4	76.2568	2,462.4	75.9603	2,462.4	73.5591	2,462.4	73.4223	2,462.4	71.4352	2,462.4	72.0484	2,462.4	69.6428	2,462.4	69.4186	2,462.4	68.4194	2,462.4	68.8006	2,462.4	66.2307	2,462.4	66.969	2,462.4	69.006	2,462.4	67.3115	2,462.4	64.1632	2,462.4	67.0462	2,462.4	66.926	2,462.4	66.5858	2,462.4	66.8788	2,462.4	66.9754	2,462.4	63.9645	2,462.4	62.4904	2,462.4	63.1371
2,548.83	86.9397	2,548.83	86.6953	2,548.83	86.5658	2,548.83	85.7105	2,548.83	85.987	2,548.83	84.3735	2,548.83	84.6578	2,548.83	82.5699	2,548.83	82.9886	2,548.83	79.6139	2,548.83	80.892	2,548.83	77.4282	2,548.83	78.9642	2,548.83	75.2325	2,548.83	76.2184	2,548.83	73.256	2,548.83	74.0708	2,548.83	71.432	2,548.83	72.6637	2,548.83	68.7365	2,548.83	71.084	2,548.83	68.6215	2,548.83	69.894	2,548.83	67.1704	2,548.83	68.1595	2,548.83	68.6745	2,548.83	68.1332	2,548.83	68.4415	2,548.83	68.5817	2,548.83	65.6236	2,548.83	64.9504	2,548.83	65.9775	2,548.83	66.6419	2,548.83	61.4098	2,548.83	63.8015	2,548.83	65.6422
2,639.65	86.3514	2,639.65	85.8653	2,639.65	86.2087	2,639.65	85.2958	2,639.65	85.2448	2,639.65	83.9713	2,639.65	84.3358	2,639.65	82.6502	2,639.65	82.4423	2,639.65	80.5817	2,639.65	80.6037	2,639.65	77.3297	2,639.65	78.1379	2,639.65	75.6217	2,639.65	75.732	2,639.65	74.3252	2,639.65	73.3472	2,639.65	71.089	2,639.65	72.4975	2,639.65	70.3321	2,639.65	70.7047	2,639.65	70.4612	2,639.65	68.2375	2,639.65	66.798	2,639.65	67.1657	2,639.65	69.3856	2,639.65	66.6444	2,639.65	67.9659	2,639.65	67.8513	2,639.65	67.2115	2,639.65	65.7398	2,639.65	66.5007	2,639.65	67.7204	2,639.65	61.1791	2,639.65	62.0387	2,639.65	63.5445
2,731.93	86.0364	2,731.93	85.5172	2,731.93	86.1163	2,731.93	84.8333	2,731.93	85.2222	2,731.93	83.7047	2,731.93	84.3425	2,731.93	82.5321	2,731.93	82.6612	2,731.93	80.943	2,731.93	80.5834	2,731.93	78.0264	2,731.93	78.0102	2,731.93	76.8667	2,731.93	75.9358	2,731.93	74.6215	2,731.93	74.7538	2,731.93	70.8162	2,731.93	71.8479	2,731.93	71.1534	2,731.93	69.8238	2,731.93	69.8422	2,731.93	68.7475	2,731.93	67.0543	2,731.93	68.3772	2,731.93	69.5289	2,731.93	67.3889	2,731.93	70.1944	2,731.93	68.7582	2,731.93	67.9645	2,731.93	67.1559	2,731.93	67.5566	2,731.93	69.2278	2,731.93	64.814	2,731.93	64.3508	2,731.93	66.7111
2,828.61	86.7073	2,828.61	86.4979	2,828.61	86.3929	2,828.61	85.757	2,828.61	85.9068	2,828.61	84.7654	2,828.61	84.5989	2,828.61	82.8076	2,828.61	83.341	2,828.61	80.7508	2,828.61	81.2815	2,828.61	79.2585	2,828.61	79.2689	2,828.61	76.556	2,828.61	77.1604	2,828.61	74.1806	2,828.61	75.0878	2,828.61	72.8312	2,828.61	71.6008	2,828.61	70.3055	2,828.61	71.2365	2,828.61	68.6045	2,828.61	69.4563	2,828.61	68.0115	2,828.61	68.7322	2,828.61	67.0727	2,828.61	67.4854	2,828.61	69.0464	2,828.61	69.4002	2,828.61	69.0957	2,828.61	67.8581	2,828.61	67.9679	2,828.61	68.9632	2,828.61	64.6582	2,828.61	64.5084	2,828.61	64.9578
2,928.22	85.9908	2,928.22	85.9461	2,928.22	85.698	2,928.22	85.2161	2,928.22	85.3939	2,928.22	84.2789	2,928.22	84.0943	2,928.22	82.5646	2,928.22	83.0791	2,928.22	80.5545	2,928.22	80.9369	2,928.22	79.0268	2,928.22	78.7443	2,928.22	76.4842	2,928.22	76.3093	2,928.22	74.0601	2,928.22	75.0165	2,928.22	73.0767	2,928.22	72.726	2,928.22	70.4714	2,928.22	70.7193	2,928.22	68.5991	2,928.22	69.367	2,928.22	68.3542	2,928.22	68.057	2,928.22	66.9193	2,928.22	66.5723	2,928.22	69.2692	2,928.22	68.7127	2,928.22	69.5733	2,928.22	66.4529	2,928.22	69.2586	2,928.22	68.8602	2,928.22	65.4076	2,928.22	63.1884	2,928.22	63.9967
3,030.76	86.4098	3,030.76	86.2127	3,030.76	86.0838	3,030.76	85.8479	3,030.76	85.709	3,030.76	84.854	3,030.76	84.8849	3,030.76	83.0434	3,030.76	83.2336	3,030.76	80.6114	3,030.76	81.6832	3,030.76	78.4509	3,030.76	79.3893	3,030.76	75.3717	3,030.76	77.1272	3,030.76	73.49	3,030.76	74.4395	3,030.76	71.1348	3,030.76	71.2971	3,030.76	69.8095	3,030.76	70.337	3,030.76	67.7122	3,030.76	68.8234	3,030.76	66.5581	3,030.76	67.4121	3,030.76	65.6986	3,030.76	65.7352	3,030.76	68.2912	3,030.76	67.7215	3,030.76	68.0285	3,030.76	67.0092	3,030.76	68.8045	3,030.76	68.6145	3,030.76	59.9774	3,030.76	65.3813	3,030.76	63.4797
3,137.7	86.5148	3,137.7	86.3805	3,137.7	86.3519	3,137.7	86.0161	3,137.7	85.8291	3,137.7	84.8586	3,137.7	85.0915	3,137.7	83.2383	3,137.7	83.438	3,137.7	81.3142	3,137.7	81.3577	3,137.7	78.3967	3,137.7	79.0782	3,137.7	75.7544	3,137.7	76.7825	3,137.7	73.5826	3,137.7	74.2322	3,137.7	71.597	3,137.7	71.4887	3,137.7	69.0972	3,137.7	69.2698	3,137.7	67.5836	3,137.7	67.3867	3,137.7	65.829	3,137.7	66.3691	3,137.7	66.0659	3,137.7	64.526	3,137.7	68.582	3,137.7	67.8267	3,137.7	67.4093	3,137.7	67.2789	3,137.7	68.0458	3,137.7	68.6168	3,137.7	62.4808	3,137.7	64.6067	3,137.7	62.9762
3,249.02	85.966	3,249.02	85.7958	3,249.02	86.091	3,249.02	85.4134	3,249.02	85.4306	3,249.02	84.2395	3,249.02	84.4929	3,249.02	82.1924	3,249.02	82.7157	3,249.02	80.6014	3,249.02	80.3237	3,249.02	77.3836	3,249.02	77.9216	3,249.02	74.6611	3,249.02	75.552	3,249.02	73.1042	3,249.02	73.3487	3,249.02	70.8519	3,249.02	71.2172	3,249.02	68.0941	3,249.02	67.6483	3,249.02	67.1539	3,249.02	66.8531	3,249.02	65.6048	3,249.02	64.306	3,249.02	63.9554	3,249.02	63.8916	3,249.02	67.2771	3,249.02	65.3995	3,249.02	64.9469	3,249.02	65.4504	3,249.02	66.8513	3,249.02	66.592	3,249.02	64.2956	3,249.02	63.0125	3,249.02	63.6742
3,363.28	86.1455	3,363.28	86.2177	3,363.28	85.9023	3,363.28	85.1908	3,363.28	85.6135	3,363.28	83.922	3,363.28	84.4106	3,363.28	82.4248	3,363.28	82.6865	3,363.28	79.677	3,363.28	79.9234	3,363.28	77.1281	3,363.28	77.4213	3,363.28	74.7222	3,363.28	74.8512	3,363.28	72.4684	3,363.28	72.3607	3,363.28	70.2493	3,363.28	71.0035	3,363.28	67.532	3,363.28	67.8917	3,363.28	66.4201	3,363.28	66.2089	3,363.28	64.9668	3,363.28	63.9449	3,363.28	64.4483	3,363.28	63.0185	3,363.28	65.7601	3,363.28	64.8268	3,363.28	65.2281	3,363.28	65.3032	3,363.28	66.8192	3,363.28	64.9903	3,363.28	61.6744	3,363.28	62.1772	3,363.28	63.0826
3,481.93	86.6836	3,481.93	86.4542	3,481.93	86.3721	3,481.93	85.5637	3,481.93	85.6889	3,481.93	84.0922	3,481.93	84.3078	3,481.93	81.8527	3,481.93	82.2209	3,481.93	78.6285	3,481.93	79.7976	3,481.93	76.5808	3,481.93	77.4505	3,481.93	74.4068	3,481.93	74.0705	3,481.93	71.9944	3,481.93	72.6544	3,481.93	69.7345	3,481.93	69.723	3,481.93	66.4781	3,481.93	67.887	3,481.93	64.9743	3,481.93	65.576	3,481.93	63.2864	3,481.93	64.1199	3,481.93	62.9276	3,481.93	62.4908	3,481.93	65.2316	3,481.93	63.8166	3,481.93	64.7984	3,481.93	65.424	3,481.93	65.5309	3,481.93	65.7918	3,481.93	57.5639	3,481.93	61.7169	3,481.93	62.0522
3,604.98	86.3703	3,604.98	86.1491	3,604.98	86.0905	3,604.98	85.1494	3,604.98	85.4628	3,604.98	83.5392	3,604.98	83.9007	3,604.98	81.4085	3,604.98	81.5916	3,604.98	78.1787	3,604.98	78.9385	3,604.98	75.6341	3,604.98	76.3789	3,604.98	73.5439	3,604.98	73.6452	3,604.98	71.2089	3,604.98	71.4482	3,604.98	69.0677	3,604.98	69.3745	3,604.98	67.4261	3,604.98	67.4743	3,604.98	65.3027	3,604.98	65.2253	3,604.98	62.982	3,604.98	63.383	3,604.98	63.0221	3,604.98	62.2267	3,604.98	65.2222	3,604.98	63.4724	3,604.98	64.8282	3,604.98	64.8795	3,604.98	65.7258	3,604.98	65.4701	3,604.98	57.8207	3,604.98	61.6239	3,604.98	60.7457
3,732.42	86.6987	3,732.42	86.2586	3,732.42	86.3644	3,732.42	85.2869	3,732.42	85.3805	3,732.42	83.711	3,732.42	83.9073	3,732.42	80.8767	3,732.42	81.6359	3,732.42	78.7451	3,732.42	79.5718	3,732.42	76.7118	3,732.42	77.2263	3,732.42	75.3861	3,732.42	74.7004	3,732.42	72.406	3,732.42	73.0204	3,732.42	70.2964	3,732.42	70.068	3,732.42	68.3744	3,732.42	68.6471	3,732.42	66.3365	3,732.42	66.3643	3,732.42	65.4313	3,732.42	66.014	3,732.42	62.2799	3,732.42	65.3819	3,732.42	64.8432	3,732.42	63.5189	3,732.42	64.7374	3,732.42	65.5286	3,732.42	65.7128	3,732.42	65.5991	3,732.42	58.2325	3,732.42	63.5308	3,732.42	61.9804
3,864.26	86.5252	3,864.26	85.9097	3,864.26	86.3043	3,864.26	84.9408	3,864.26	85.2006	3,864.26	83.137	3,864.26	83.5858	3,864.26	80.7386	3,864.26	81.4114	3,864.26	79.2098	3,864.26	79.8102	3,864.26	77.2814	3,864.26	77.4309	3,864.26	74.6623	3,864.26	75.9987	3,864.26	72.1702	3,864.26	73.2514	3,864.26	70.1634	3,864.26	70.7147	3,864.26	68.5958	3,864.26	69.4351	3,864.26	66.566	3,864.26	66.4022	3,864.26	65.0169	3,864.26	64.6511	3,864.26	65.2961	3,864.26	61.869	3,864.26	63.8102	3,864.26	62.4832	3,864.26	66.4475	3,864.26	65.6169	3,864.26	65.9106	3,864.26	64.3627	3,864.26	60.0071	3,864.26	63.3204	3,864.26	60.6092
4,000.49	86.3282	4,000.49	86.2072	4,000.49	85.918	4,000.49	84.8244	4,000.49	85.0895	4,000.49	83.0045	4,000.49	83.4034	4,000.49	81.6887	4,000.49	81.4967	4,000.49	79.6664	4,000.49	79.3971	4,000.49	77.474	4,000.49	77.6091	4,000.49	75.0164	4,000.49	76.0309	4,000.49	72.9491	4,000.49	73.1223	4,000.49	70.6952	4,000.49	71.0486	4,000.49	68.4934	4,000.49	68.751	4,000.49	65.6274	4,000.49	66.7225	4,000.49	63.678	4,000.49	64.0209	4,000.49	62.8223	4,000.49	63.6642	4,000.49	64.5015	4,000.49	64.1262	4,000.49	65.0327	4,000.49	64.8543	4,000.49	64.8595	4,000.49	63.8204	4,000.49	57.4726	4,000.49	61.737	4,000.49	59.591
4,141.11	86.4152	4,141.11	86.0456	4,141.11	86.0579	4,141.11	84.6223	4,141.11	85.0182	4,141.11	82.9083	4,141.11	83.2424	4,141.11	81.1203	4,141.11	81.269	4,141.11	79.4229	4,141.11	79.382	4,141.11	77.5916	4,141.11	78.0122	4,141.11	75.0936	4,141.11	76.3044	4,141.11	73.4095	4,141.11	73.1885	4,141.11	70.3991	4,141.11	70.8612	4,141.11	68.5247	4,141.11	68.6366	4,141.11	65.054	4,141.11	65.3875	4,141.11	64.1189	4,141.11	64.3634	4,141.11	62.4581	4,141.11	62.628	4,141.11	62.5043	4,141.11	61.9585	4,141.11	65.2435	4,141.11	65.3213	4,141.11	64.955	4,141.11	64.7351	4,141.11	56.5544	4,141.11	62.4131	4,141.11	57.724
4,287.6	86.4979	4,287.6	85.8924	4,287.6	86.0949	4,287.6	84.7499	4,287.6	84.5613	4,287.6	82.9307	4,287.6	82.8535	4,287.6	81.3585	4,287.6	80.9517	4,287.6	79.8766	4,287.6	79.7654	4,287.6	78.1905	4,287.6	78.1421	4,287.6	75.6862	4,287.6	75.6958	4,287.6	72.9257	4,287.6	72.6943	4,287.6	69.0175	4,287.6	70.2285	4,287.6	65.3818	4,287.6	68.1935	4,287.6	65.0672	4,287.6	65.5803	4,287.6	64.5092	4,287.6	64.108	4,287.6	62.9958	4,287.6	60.0268	4,287.6	62.8107	4,287.6	61.0196	4,287.6	65.2731	4,287.6	64.7572	4,287.6	62.9631	4,287.6	62.71	4,287.6	59.3613	4,287.6	61.8649	4,287.6	54.9461
4,438.48	86.3534	4,438.48	85.5775	4,438.48	85.9378	4,438.48	83.8542	4,438.48	84.527	4,438.48	82.102	4,438.48	82.7244	4,438.48	80.8425	4,438.48	81.9337	4,438.48	79.215	4,438.48	80.7816	4,438.48	76.6838	4,438.48	78.0634	4,438.48	73.7974	4,438.48	74.4665	4,438.48	69.7695	4,438.48	72.361	4,438.48	68.6967	4,438.48	68.86	4,438.48	65.5653	4,438.48	67.0007	4,438.48	64.8835	4,438.48	65.1108	4,438.48	63.3104	4,438.48	63.3998	4,438.48	63.8125	4,438.48	62.1139	4,438.48	61.6036	4,438.48	61.2487	4,438.48	64.7877	4,438.48	64.0922	4,438.48	63.7195	4,438.48	62.93	4,438.48	56.3846	4,438.48	63.6306	4,438.48	53.0011
4,595.21	86.3248	4,595.21	85.7235	4,595.21	85.7969	4,595.21	84.3644	4,595.21	84.5878	4,595.21	83.1774	4,595.21	83.1908	4,595.21	82.3536	4,595.21	81.8051	4,595.21	80.5874	4,595.21	79.8642	4,595.21	77.1562	4,595.21	77.5168	4,595.21	73.9226	4,595.21	74.2671	4,595.21	70.4623	4,595.21	70.9178	4,595.21	67.7874	4,595.21	68.6193	4,595.21	67.2562	4,595.21	65.5359	4,595.21	62.7382	4,595.21	63.7557	4,595.21	60.679	4,595.21	61.8173	4,595.21	59.867	4,595.21	60.4975	4,595.21	61.504	4,595.21	60.3884	4,595.21	62.7497	4,595.21	62.6421	4,595.21	60.8016	4,595.21	62.6187	4,595.21	60.2146	4,595.21	62.1459	4,595.21	54.5125
4,756.35	86.7951	4,756.35	86.1849	4,756.35	86.2546	4,756.35	84.946	4,756.35	85.1563	4,756.35	83.4308	4,756.35	83.9514	4,756.35	81.682	4,756.35	82.1094	4,756.35	78.9488	4,756.35	79.9031	4,756.35	75.5174	4,756.35	76.6422	4,756.35	71.9069	4,756.35	73.7733	4,756.35	69.337	4,756.35	70.9101	4,756.35	65.4954	4,756.35	67.2156	4,756.35	64.4639	4,756.35	64.8762	4,756.35	63.9821	4,756.35	63.8773	4,756.35	62.6719	4,756.35	60.5236	4,756.35	60.4719	4,756.35	62.2337	4,756.35	61.4134	4,756.35	59.8299	4,756.35	63.8466	4,756.35	62.5183	4,756.35	61.8949	4,756.35	63.5668	4,756.35	58.9745	4,756.35	62.0393	4,756.35	54.2095
4,924.8	86.6564	4,924.8	86.014	4,924.8	86.0093	4,924.8	84.5261	4,924.8	84.832	4,924.8	83.1472	4,924.8	82.9866	4,924.8	80.9411	4,924.8	81.3374	4,924.8	78.6143	4,924.8	79.171	4,924.8	76.0039	4,924.8	76.0306	4,924.8	73.0232	4,924.8	72.6217	4,924.8	70.4846	4,924.8	69.6862	4,924.8	69.0807	4,924.8	67.707	4,924.8	64.4829	4,924.8	64.9243	4,924.8	62.9607	4,924.8	63.1234	4,924.8	60.6721	4,924.8	59.2286	4,924.8	60.0569	4,924.8	60.499	4,924.8	57.8667	4,924.8	59.5354	4,924.8	62.6276	4,924.8	60.812	4,924.8	62.3428	4,924.8	60.5792	4,924.8	58.204	4,924.8	61.7584	4,924.8	50.5467
5,097.66	87.3659	5,097.66	86.6553	5,097.66	86.919	5,097.66	84.9884	5,097.66	85.2803	5,097.66	83.2071	5,097.66	83.6721	5,097.66	81.4768	5,097.66	81.5232	5,097.66	78.4631	5,097.66	78.6785	5,097.66	74.3914	5,097.66	75.609	5,097.66	70.8619	5,097.66	72.3576	5,097.66	68.6815	5,097.66	69.2539	5,097.66	66.0177	5,097.66	66.9674	5,097.66	66.7249	5,097.66	64.3264	5,097.66	61.8105	5,097.66	63.4567	5,097.66	59.8615	5,097.66	61.3331	5,097.66	59.8066	5,097.66	61.1813	5,097.66	61.4754	5,097.66	60.5019	5,097.66	62.6326	5,097.66	61.1558	5,097.66	60.6435	5,097.66	61.9406	5,097.66	57.412	5,097.66	62.7378	5,097.66	52.422
5,277.83	86.5221	5,277.83	85.4715	5,277.83	86.027	5,277.83	84.1239	5,277.83	84.4174	5,277.83	82.4974	5,277.83	82.9034	5,277.83	80.4303	5,277.83	81.1145	5,277.83	77.7498	5,277.83	78.8739	5,277.83	74.4426	5,277.83	75.1281	5,277.83	72.2803	5,277.83	72.5165	5,277.83	71.1397	5,277.83	71.1076	5,277.83	68.5037	5,277.83	67.3912	5,277.83	64.508	5,277.83	65.8355	5,277.83	61.0898	5,277.83	61.8914	5,277.83	61.7891	5,277.83	61.544	5,277.83	56.7499	5,277.83	61.3857	5,277.83	60.4499	5,277.83	59.3335	5,277.83	60.7645	5,277.83	61.5193	5,277.83	61.955	5,277.83	63.3167	5,277.83	57.846	5,277.83	62.5717	5,277.83	50.7928
5,463.87	86.8181	5,463.87	86.0864	5,463.87	86.0448	5,463.87	84.5312	5,463.87	84.498	5,463.87	83.3561	5,463.87	83.0326	5,463.87	81.2145	5,463.87	81.1909	5,463.87	78.396	5,463.87	78.6691	5,463.87	75.4585	5,463.87	75.9018	5,463.87	73.7297	5,463.87	73.3999	5,463.87	69.9833	5,463.87	69.9837	5,463.87	67.3574	5,463.87	68.6269	5,463.87	63.2834	5,463.87	65.4892	5,463.87	63.4117	5,463.87	63.9932	5,463.87	58.6981	5,463.87	61.4764	5,463.87	61.1634	5,463.87	57.5512	5,463.87	59.1784	5,463.87	59.319	5,463.87	62.3256	5,463.87	60.5049	5,463.87	62.0728	5,463.87	61.6077	5,463.87	57.0312	5,463.87	60.3354	5,463.87	53.5677
5,657.23	86.5256	5,657.23	85.9109	5,657.23	86.07	5,657.23	84.209	5,657.23	84.5267	5,657.23	82.6003	5,657.23	83.2858	5,657.23	80.7355	5,657.23	80.927	5,657.23	77.5665	5,657.23	78.4413	5,657.23	74.2223	5,657.23	75.3929	5,657.23	70.7809	5,657.23	71.8386	5,657.23	68.9622	5,657.23	71.1455	5,657.23	66.1235	5,657.23	67.6749	5,657.23	65.3304	5,657.23	65.2617	5,657.23	63.9629	5,657.23	64.1419	5,657.23	61.4788	5,657.23	61.1386	5,657.23	53.4538	5,657.23	61.8755	5,657.23	60.1505	5,657.23	60.307	5,657.23	63.5013	5,657.23	62.02	5,657.23	61.5862	5,657.23	62.9058	5,657.23	55.1788	5,657.23	61.8329	5,657.23	48.9203
5,856.45	86.4918	5,856.45	85.5964	5,856.45	85.868	5,856.45	84.1333	5,856.45	84.9228	5,856.45	82.7812	5,856.45	83.228	5,856.45	80.1964	5,856.45	81.2111	5,856.45	77.8635	5,856.45	78.8857	5,856.45	75.1139	5,856.45	75.5946	5,856.45	73.6942	5,856.45	73.8587	5,856.45	69.5939	5,856.45	71.8154	5,856.45	67.4636	5,856.45	67.7227	5,856.45	64.3313	5,856.45	64.8886	5,856.45	63.6615	5,856.45	64.2469	5,856.45	59.8589	5,856.45	60.0133	5,856.45	60.3518	5,856.45	58.7807	5,856.45	56.4291	5,856.45	59.8424	5,856.45	60.5452	5,856.45	59.7901	5,856.45	61.5197	5,856.45	62.4972	5,856.45	57.0574	5,856.45	61.0483	5,856.45	53.2426
6,062.99	86.1164	6,062.99	85.3029	6,062.99	85.6799	6,062.99	84.3838	6,062.99	84.3772	6,062.99	82.7553	6,062.99	83.2149	6,062.99	80.4222	6,062.99	80.7791	6,062.99	77.8063	6,062.99	77.6182	6,062.99	76.0052	6,062.99	75.5806	6,062.99	72.9556	6,062.99	73.0552	6,062.99	69.2809	6,062.99	69.9555	6,062.99	66.6903	6,062.99	67.258	6,062.99	65.139	6,062.99	64.6833	6,062.99	61.4812	6,062.99	63.1713	6,062.99	58.5205	6,062.99	59.9387	6,062.99	60.0774	6,062.99	57.7437	6,062.99	58.1188	6,062.99	56.9381	6,062.99	60.8032	6,062.99	59.59	6,062.99	61.9331	6,062.99	60.8368	6,062.99	56.7232	6,062.99	59.6457	6,062.99	48.7776
6,276.86	86.6158	6,276.86	86.1232	6,276.86	86.0589	6,276.86	84.9446	6,276.86	84.976	6,276.86	83.2753	6,276.86	83.5838	6,276.86	80.8948	6,276.86	81.3036	6,276.86	78.2479	6,276.86	78.7756	6,276.86	75.0637	6,276.86	75.2373	6,276.86	71.8082	6,276.86	72.617	6,276.86	69.6868	6,276.86	70.6981	6,276.86	66.1787	6,276.86	67.1516	6,276.86	64.94	6,276.86	65.5683	6,276.86	60.8368	6,276.86	63.0853	6,276.86	59.0596	6,276.86	61.2688	6,276.86	57.9004	6,276.86	58.2889	6,276.86	54.8408	6,276.86	55.5905	6,276.86	60.8645	6,276.86	58.8048	6,276.86	61.435	6,276.86	61.6496	6,276.86	53.8816	6,276.86	60.5053	6,276.86	50.8687
6,498.05	86.7907	6,498.05	86.2869	6,498.05	86.4701	6,498.05	85.2539	6,498.05	85.5986	6,498.05	83.4839	6,498.05	84.0442	6,498.05	80.8399	6,498.05	81.3322	6,498.05	78.5821	6,498.05	79.0878	6,498.05	74.6551	6,498.05	76.6227	6,498.05	71.7647	6,498.05	73.898	6,498.05	68.9692	6,498.05	70.5515	6,498.05	66.166	6,498.05	67.5428	6,498.05	63.8475	6,498.05	65.4319	6,498.05	61.5854	6,498.05	61.7305	6,498.05	59.6861	6,498.05	61.2494	6,498.05	59.7599	6,498.05	56.928	6,498.05	54.2881	6,498.05	55.514	6,498.05	58.0646	6,498.05	58.1949	6,498.05	61.2175	6,498.05	61.1051	6,498.05	52.2995	6,498.05	58.8201	6,498.05	51.3155
6,726.56	86.5754	6,726.56	86.0774	6,726.56	86.3619	6,726.56	85.1698	6,726.56	85.4984	6,726.56	83.2561	6,726.56	84.0946	6,726.56	80.7109	6,726.56	81.5296	6,726.56	77.4389	6,726.56	78.9037	6,726.56	74.8041	6,726.56	76.1199	6,726.56	72.0913	6,726.56	72.7447	6,726.56	68.2684	6,726.56	70.1019	6,726.56	67.244	6,726.56	67.5136	6,726.56	63.5463	6,726.56	64.4486	6,726.56	61.801	6,726.56	62.483	6,726.56	59.9808	6,726.56	62.2953	6,726.56	58.4053	6,726.56	59.0598	6,726.56	55.8617	6,726.56	56.2447	6,726.56	59.9435	6,726.56	59.5678	6,726.56	61.1368	6,726.56	60.7569	6,726.56	53.3953	6,726.56	59.2356	6,726.56	54.2966
6,963.87	86.4345	6,963.87	86.2129	6,963.87	86.3488	6,963.87	85.4742	6,963.87	85.7623	6,963.87	83.372	6,963.87	83.9156	6,963.87	80.8252	6,963.87	81.5407	6,963.87	78.8882	6,963.87	79.129	6,963.87	74.9744	6,963.87	76.1641	6,963.87	73.2478	6,963.87	72.8866	6,963.87	69.7008	6,963.87	70.7318	6,963.87	67.0793	6,963.87	67.83	6,963.87	64.6613	6,963.87	64.6731	6,963.87	61.4398	6,963.87	64.9146	6,963.87	60.5457	6,963.87	60.4817	6,963.87	59.3342	6,963.87	60.2638	6,963.87	57.7565	6,963.87	57.9514	6,963.87	60.3681	6,963.87	58.9081	6,963.87	61.1992	6,963.87	61.4048	6,963.87	52.4135	6,963.87	58.6094	6,963.87	54.2953
7,209.96	86.7353	7,209.96	86.5305	7,209.96	86.74	7,209.96	85.7212	7,209.96	85.9702	7,209.96	83.7967	7,209.96	84.5028	7,209.96	81.4956	7,209.96	82.0161	7,209.96	78.339	7,209.96	79.1562	7,209.96	75.3033	7,209.96	76.2512	7,209.96	72.878	7,209.96	72.6156	7,209.96	69.5822	7,209.96	70.7611	7,209.96	65.7038	7,209.96	67.1029	7,209.96	64.3401	7,209.96	64.8591	7,209.96	61.3017	7,209.96	62.8988	7,209.96	58.7457	7,209.96	60.5918	7,209.96	54.0747	7,209.96	58.0551	7,209.96	55.3114	7,209.96	55.6273	7,209.96	59.7855	7,209.96	58.3888	7,209.96	61.7951	7,209.96	62.2026	7,209.96	54.9266	7,209.96	56.427	7,209.96	53.9504
7,464.84	86.7888	7,464.84	86.6314	7,464.84	86.6685	7,464.84	85.7507	7,464.84	86.3045	7,464.84	83.629	7,464.84	84.3552	7,464.84	81.2443	7,464.84	82.0232	7,464.84	78.6722	7,464.84	79.7541	7,464.84	74.5505	7,464.84	75.8894	7,464.84	71.0625	7,464.84	73.2963	7,464.84	69.4534	7,464.84	70.1042	7,464.84	65.1731	7,464.84	67.755	7,464.84	63.9846	7,464.84	63.8887	7,464.84	61.7851	7,464.84	62.7328	7,464.84	59.1832	7,464.84	61.1299	7,464.84	53.2402	7,464.84	55.6357	7,464.84	55.2232	7,464.84	56.4474	7,464.84	58.9865	7,464.84	56.8682	7,464.84	60.2332	7,464.84	60.9974	7,464.84	55.1074	7,464.84	55.8477	7,464.84	51.1704
7,727.05	86.4313	7,727.05	86.5188	7,727.05	86.5976	7,727.05	85.7487	7,727.05	86.1587	7,727.05	83.6553	7,727.05	84.4695	7,727.05	81.232	7,727.05	82.0931	7,727.05	78.1345	7,727.05	79.3669	7,727.05	74.8074	7,727.05	76.5995	7,727.05	71.5733	7,727.05	74.2635	7,727.05	69.1717	7,727.05	70.8537	7,727.05	66.825	7,727.05	68.2711	7,727.05	63.5793	7,727.05	65.2628	7,727.05	61.4074	7,727.05	62.2077	7,727.05	58.5363	7,727.05	60.8659	7,727.05	52.2431	7,727.05	57.5918	7,727.05	53.0183	7,727.05	55.9238	7,727.05	57.8708	7,727.05	55.902	7,727.05	59.6314	7,727.05	60.4881	7,727.05	54.6234	7,727.05	55.6493	7,727.05	51.1625
7,999.51	86.4894	7,999.51	86.5269	7,999.51	86.603	7,999.51	85.7325	7,999.51	86.2913	7,999.51	83.596	7,999.51	84.4994	7,999.51	81.079	7,999.51	81.9327	7,999.51	77.9725	7,999.51	79.1841	7,999.51	74.7696	7,999.51	76.4004	7,999.51	71.8727	7,999.51	73.0629	7,999.51	67.9053	7,999.51	70.3226	7,999.51	65.5164	7,999.51	66.348	7,999.51	62.8978	7,999.51	64.2437	7,999.51	60.5271	7,999.51	63.1539	7,999.51	58.067	7,999.51	60.3265	7,999.51	52.2278	7,999.51	54.9279	7,999.51	53.2109	7,999.51	55.2698	7,999.51	57.2935	7,999.51	56.7444	7,999.51	58.0587	7,999.51	60.2823	7,999.51	52.8989	7,999.51	54.0118	7,999.51	50.5657
8,282.23	86.3477	8,282.23	86.5284	8,282.23	86.6983	8,282.23	85.9112	8,282.23	86.3786	8,282.23	83.7623	8,282.23	84.5488	8,282.23	80.9351	8,282.23	82.0343	8,282.23	77.994	8,282.23	79.1155	8,282.23	74.3916	8,282.23	76.0856	8,282.23	71.9056	8,282.23	71.9402	8,282.23	68.9213	8,282.23	69.6077	8,282.23	64.3341	8,282.23	67.2597	8,282.23	64.0877	8,282.23	64.2921	8,282.23	60.2529	8,282.23	60.9191	8,282.23	57.5815	8,282.23	59.2026	8,282.23	54.8678	8,282.23	57.1863	8,282.23	51.4146	8,282.23	56.0674	8,282.23	55.9697	8,282.23	56.6972	8,282.23	57.4354	8,282.23	59.7801	8,282.23	49.6781	8,282.23	52.4486	8,282.23	50.7734
8,573.73	86.4409	8,573.73	86.7167	8,573.73	86.8785	8,573.73	85.9013	8,573.73	86.5414	8,573.73	83.7171	8,573.73	84.7504	8,573.73	80.9469	8,573.73	82.2299	8,573.73	77.8141	8,573.73	79.192	8,573.73	73.7909	8,573.73	75.5899	8,573.73	70.7946	8,573.73	71.7346	8,573.73	68.2598	8,573.73	69.2112	8,573.73	64.5895	8,573.73	66.7685	8,573.73	62.3191	8,573.73	62.6463	8,573.73	60.9987	8,573.73	60.8828	8,573.73	55.8089	8,573.73	58.4455	8,573.73	53.9932	8,573.73	52.2474	8,573.73	52.4428	8,573.73	51.6931	8,573.73	54.2386	8,573.73	55.0795	8,573.73	56.6493	8,573.73	60.0276	8,573.73	50.9552	8,573.73	50.3897	8,573.73	50.9509
8,876.95	86.5715	8,876.95	86.8432	8,876.95	86.9142	8,876.95	85.9633	8,876.95	86.5999	8,876.95	83.8051	8,876.95	84.8919	8,876.95	80.7509	8,876.95	82.1005	8,876.95	77.6145	8,876.95	79.2572	8,876.95	73.7089	8,876.95	75.618	8,876.95	69.7054	8,876.95	72.9419	8,876.95	66.8365	8,876.95	68.9836	8,876.95	64.3969	8,876.95	66.2366	8,876.95	60.7712	8,876.95	62.7968	8,876.95	59.6134	8,876.95	61.6168	8,876.95	56.1353	8,876.95	57.9603	8,876.95	51.863	8,876.95	55.2214	8,876.95	49.2822	8,876.95	53.0718	8,876.95	53.2401	8,876.95	55.727	8,876.95	54.5864	8,876.95	57.6869	8,876.95	49.579	8,876.95	50.585	8,876.95	48.9224
9,188.96	86.5298	9,188.96	86.7178	9,188.96	86.8381	9,188.96	85.82	9,188.96	86.4475	9,188.96	83.5542	9,188.96	84.5206	9,188.96	80.6277	9,188.96	81.8347	9,188.96	77.2644	9,188.96	78.4775	9,188.96	73.3459	9,188.96	75.0717	9,188.96	70.2014	9,188.96	71.696	9,188.96	67.3897	9,188.96	68.2787	9,188.96	62.3654	9,188.96	65.1477	9,188.96	60.5439	9,188.96	62.6604	9,188.96	56.2108	9,188.96	59.6013	9,188.96	54.882	9,188.96	57.421	9,188.96	54.3493	9,188.96	53.0336	9,188.96	49.3459	9,188.96	50.7337	9,188.96	53.6325	9,188.96	52.2294	9,188.96	53.7173	9,188.96	57.3313	9,188.96	46.9406	9,188.96	47.1913	9,188.96	50.1876
9,514.16	86.3964	9,514.16	86.4136	9,514.16	86.5793	9,514.16	85.5322	9,514.16	86.1731	9,514.16	83.296	9,514.16	84.3403	9,514.16	80.2018	9,514.16	81.4239	9,514.16	76.4542	9,514.16	77.7725	9,514.16	72.5726	9,514.16	74.1397	9,514.16	69.0476	9,514.16	70.2201	9,514.16	64.8569	9,514.16	66.9899	9,514.16	62.0896	9,514.16	63.6619	9,514.16	59.853	9,514.16	61.8043	9,514.16	57.6791	9,514.16	57.8483	9,514.16	54.6005	9,514.16	56.2824	9,514.16	55.6828	9,514.16	51.3028	9,514.16	50.9286	9,514.16	51.3724	9,514.16	50.4077	9,514.16	53.1655	9,514.16	53.4168	9,514.16	56.7908	9,514.16	44.2483	9,514.16	43.5652	9,514.16	49.2527
9,849.61	86.394	9,849.61	86.3811	9,849.61	86.5776	9,849.61	85.4362	9,849.61	86.0693	9,849.61	82.9336	9,849.61	84.1363	9,849.61	79.37	9,849.61	80.9168	9,849.61	75.5424	9,849.61	77.2701	9,849.61	71.2284	9,849.61	73.5274	9,849.61	67.6293	9,849.61	70.0407	9,849.61	63.4381	9,849.61	65.9669	9,849.61	60.0849	9,849.61	62.5709	9,849.61	58.3598	9,849.61	59.5265	9,849.61	56.5964	9,849.61	57.3189	9,849.61	51.2975	9,849.61	54.9135	9,849.61	51.999	9,849.61	50.5713	9,849.61	51.2382	9,849.61	46.9459	9,849.61	49.0954	9,849.61	51.8503	9,849.61	50.7342	9,849.61	55.7742	9,849.61	34.4878	9,849.61	35.3096	9,849.61	48.531
10,196.8	86.6134	10,196.8	86.3615	10,196.8	86.7367	10,196.8	85.3915	10,196.8	85.9941	10,196.8	82.5487	10,196.8	83.8843	10,196.8	79.0388	10,196.8	80.5934	10,196.8	74.6322	10,196.8	76.6946	10,196.8	70.4051	10,196.8	72.8493	10,196.8	66.538	10,196.8	69.3643	10,196.8	63.738	10,196.8	64.1878	10,196.8	59.5683	10,196.8	61.8853	10,196.8	55.7965	10,196.8	58.8792	10,196.8	53.7092	10,196.8	57.0491	10,196.8	50.8096	10,196.8	52.0705	10,196.8	49.2212	10,196.8	53.4875	10,196.8	46.5806	10,196.8	50.1666	10,196.8	49.4716	10,196.8	49.6097	10,196.8	49.8104	10,196.8	55.0849	10,196.8	39.1071	10,196.8	38.5187	10,196.8	47.9774
10,555.7	86.6756	10,555.7	86.3656	10,555.7	86.5835	10,555.7	85.1455	10,555.7	85.921	10,555.7	82.2108	10,555.7	83.5565	10,555.7	78.1521	10,555.7	80.0686	10,555.7	73.9573	10,555.7	75.8534	10,555.7	69.6124	10,555.7	72.1241	10,555.7	65.0464	10,555.7	67.0101	10,555.7	61.2834	10,555.7	64.1631	10,555.7	58.2116	10,555.7	60.3517	10,555.7	56.0972	10,555.7	58.3071	10,555.7	54.8399	10,555.7	53.9717	10,555.7	51.992	10,555.7	52.1657	10,555.7	50.97	10,555.7	52.3355	10,555.7	47.427	10,555.7	44.8754	10,555.7	46.3575	10,555.7	46.7339	10,555.7	46.5793	10,555.7	54.2503	10,555.7	36.3995	10,555.7	30.9146	10,555.7	47.2549
10,927.7	86.4691	10,927.7	86.1364	10,927.7	86.3148	10,927.7	84.7792	10,927.7	85.6184	10,927.7	81.8627	10,927.7	83.0722	10,927.7	77.3281	10,927.7	79.3395	10,927.7	73.31	10,927.7	75.1427	10,927.7	68.772	10,927.7	71.0413	10,927.7	64.3199	10,927.7	67.5384	10,927.7	60.8937	10,927.7	64.2163	10,927.7	57.772	10,927.7	59.3669	10,927.7	55.1732	10,927.7	57.6895	10,927.7	54.2685	10,927.7	55.461	10,927.7	51.4019	10,927.7	52.2101	10,927.7	48.024	10,927.7	50.1679	10,927.7	49.014	10,927.7	48.1285	10,927.7	44.4697	10,927.7	48.0251	10,927.7	48.609	10,927.7	53.7585	10,927.7	37.4789	10,927.7	30.3094	10,927.7	46.7954
11,313	86.4393	11,313	85.9341	11,313	86.3688	11,313	84.3641	11,313	85.3051	11,313	81.1761	11,313	82.7637	11,313	76.8472	11,313	78.9609	11,313	72.0519	11,313	74.6172	11,313	67.6017	11,313	70.5376	11,313	64.3798	11,313	66.909	11,313	60.707	11,313	62.5045	11,313	57.7214	11,313	59.0633	11,313	54.3173	11,313	57.5449	11,313	52.4902	11,313	55.6814	11,313	49.9943	11,313	50.7033	11,313	50.9836	11,313	52.6185	11,313	42.3093	11,313	50.0806	11,313	45.2596	11,313	46.435	11,313	44.8498	11,313	52.3113	11,313	36.0141	11,313	32.0602	11,313	44.6949
11,712.9	86.5604	11,712.9	85.9798	11,712.9	86.3565	11,712.9	84.2536	11,712.9	85.2388	11,712.9	80.7685	11,712.9	82.5975	11,712.9	76.4436	11,712.9	78.4853	11,712.9	71.5824	11,712.9	73.917	11,712.9	67.7305	11,712.9	70.2127	11,712.9	63.9517	11,712.9	66.3263	11,712.9	59.7244	11,712.9	63.2894	11,712.9	57.9931	11,712.9	59.1399	11,712.9	54.8517	11,712.9	56.066	11,712.9	51.8991	11,712.9	54.8411	11,712.9	50.6445	11,712.9	51.6223	11,712.9	49.906	11,712.9	52.6517	11,712.9	45.2202	11,712.9	49.2707	11,712.9	42.7649	11,712.9	44.1509	11,712.9	44.9154	11,712.9	50.9926	11,712.9	30.288	11,712.9	31.4986	11,712.9	47.1857
12,126	86.4176	12,126	85.8841	12,126	86.1264	12,126	84.0791	12,126	85.1764	12,126	80.7396	12,126	82.5435	12,126	75.8446	12,126	78.4335	12,126	71.9086	12,126	74.0913	12,126	68.1205	12,126	70.1852	12,126	64.6188	12,126	66.724	12,126	60.9683	12,126	63.8197	12,126	58.6903	12,126	60.402	12,126	56.3537	12,126	56.8873	12,126	53.4676	12,126	55.8199	12,126	53.8758	12,126	52.5122	12,126	52.3942	12,126	53.5055	12,126	47.1521	12,126	51.2519	12,126	42.0714	12,126	42.1388	12,126	45.2972	12,126	52.4663	12,126	30.9637	12,126	31.68	12,126	50.5239
12,553.7	86.2918	12,553.7	85.6691	12,553.7	86.1146	12,553.7	84.0383	12,553.7	85.0585	12,553.7	80.4678	12,553.7	82.3307	12,553.7	76.0021	12,553.7	78.5862	12,553.7	72.2121	12,553.7	74.3814	12,553.7	68.4704	12,553.7	70.8608	12,553.7	66.3474	12,553.7	67.8956	12,553.7	62.0942	12,553.7	64.7699	12,553.7	60.144	12,553.7	61.0811	12,553.7	56.8993	12,553.7	58.7091	12,553.7	54.3834	12,553.7	56.5595	12,553.7	53.6732	12,553.7	53.1651	12,553.7	51.8445	12,553.7	51.9989	12,553.7	47.3509	12,553.7	52.7854	12,553.7	45.6289	12,553.7	42.6621	12,553.7	46.1493	12,553.7	54.4267	12,553.7	44.9344	12,553.7	27.5124	12,553.7	49.0498
12,996.1	86.2903	12,996.1	85.6772	12,996.1	86.0679	12,996.1	84.178	12,996.1	85.0327	12,996.1	80.8767	12,996.1	82.5497	12,996.1	76.9143	12,996.1	79.0253	12,996.1	73.2912	12,996.1	75.0726	12,996.1	69.9691	12,996.1	71.5463	12,996.1	66.7322	12,996.1	68.2497	12,996.1	62.7502	12,996.1	65.4517	12,996.1	60.4191	12,996.1	61.4559	12,996.1	57.1538	12,996.1	59.0919	12,996.1	55.2654	12,996.1	56.397	12,996.1	52.6801	12,996.1	53.8129	12,996.1	50.9043	12,996.1	51.5479	12,996.1	46.9872	12,996.1	52.012	12,996.1	46.5631	12,996.1	42.3352	12,996.1	43.6966	12,996.1	53.0414	12,996.1	46.4521	12,996.1	38.3864	12,996.1	50.063
13,454.6	86.4222	13,454.6	85.802	13,454.6	86.0915	13,454.6	84.2149	13,454.6	85.2536	13,454.6	81.2262	13,454.6	83.0834	13,454.6	77.3288	13,454.6	79.7501	13,454.6	74.1456	13,454.6	75.8393	13,454.6	70.8116	13,454.6	72.6438	13,454.6	67.8784	13,454.6	68.9571	13,454.6	62.834	13,454.6	65.5742	13,454.6	61.0915	13,454.6	62.1276	13,454.6	57.803	13,454.6	59.7629	13,454.6	54.4479	13,454.6	56.9603	13,454.6	52.5338	13,454.6	54.373	13,454.6	44.6668	13,454.6	53.1843	13,454.6	45.3834	13,454.6	53.8806	13,454.6	45.6633	13,454.6	42.0068	13,454.6	45.6998	13,454.6	52.8334	13,454.6	48.2226	13,454.6	36.8729	13,454.6	50.721
13,929.2	86.3074	13,929.2	85.5598	13,929.2	85.9102	13,929.2	84.4253	13,929.2	85.2237	13,929.2	81.3194	13,929.2	83.0404	13,929.2	77.4184	13,929.2	79.7369	13,929.2	74.1411	13,929.2	75.9901	13,929.2	71.0716	13,929.2	72.6387	13,929.2	67.1516	13,929.2	68.6937	13,929.2	62.3905	13,929.2	64.7115	13,929.2	60.5198	13,929.2	61.9802	13,929.2	57.5362	13,929.2	59.4868	13,929.2	54.625	13,929.2	56.2616	13,929.2	52.2503	13,929.2	53.65	13,929.2	41.2632	13,929.2	54.9029	13,929.2	42.7257	13,929.2	53.8371	13,929.2	46.1151	13,929.2	34.045	13,929.2	45.2344	13,929.2	52.6324	13,929.2	49.876	13,929.2	34.0669	13,929.2	50.4458
14,419.9	86.22	14,419.9	85.3663	14,419.9	85.8458	14,419.9	84.6191	14,419.9	85.3086	14,419.9	81.8468	14,419.9	83.495	14,419.9	78.0929	14,419.9	80.557	14,419.9	75.423	14,419.9	76.9278	14,419.9	72.002	14,419.9	73.6344	14,419.9	68.1296	14,419.9	69.2545	14,419.9	62.6709	14,419.9	65.4451	14,419.9	60.5545	14,419.9	61.7545	14,419.9	58.5212	14,419.9	60.0979	14,419.9	56.0923	14,419.9	56.7062	14,419.9	49.9273	14,419.9	50.1935	14,419.9	50.8284	14,419.9	58.3772	14,419.9	43.213	14,419.9	56.2914	14,419.9	46.9493	14,419.9	41.7838	14,419.9	46.4742	14,419.9	52.0883	14,419.9	53.3851	14,419.9	42.6402	14,419.9	51.9875
14,928.2	86.2869	14,928.2	85.6337	14,928.2	85.8508	14,928.2	84.7431	14,928.2	85.5343	14,928.2	82.0549	14,928.2	83.8665	14,928.2	78.4184	14,928.2	81.0076	14,928.2	75.4395	14,928.2	77.3185	14,928.2	71.6995	14,928.2	73.6528	14,928.2	68.1841	14,928.2	70.186	14,928.2	63.8335	14,928.2	65.6651	14,928.2	56.0552	14,928.2	60.9716	14,928.2	59.138	14,928.2	59.5617	14,928.2	54.2077	14,928.2	55.1086	14,928.2	40.3485	14,928.2	49.3441	14,928.2	54.5404	14,928.2	61.0756	14,928.2	48.2107	14,928.2	56.6245	14,928.2	49.1522	14,928.2	48.7831	14,928.2	48.1158	14,928.2	51.1151	14,928.2	53.6487	14,928.2	46.2412	14,928.2	52.4826
15,455.6	86.4274	15,455.6	85.7642	15,455.6	85.9803	15,455.6	85.1558	15,455.6	85.7294	15,455.6	82.1034	15,455.6	84.1405	15,455.6	77.9854	15,455.6	81.0314	15,455.6	75.0314	15,455.6	77.2801	15,455.6	71.7066	15,455.6	73.6125	15,455.6	69.1661	15,455.6	70.2494	15,455.6	64.7386	15,455.6	66.4781	15,455.6	51.4677	15,455.6	59.2573	15,455.6	60.3992	15,455.6	59.9464	15,455.6	52.3714	15,455.6	54.8638	15,455.6	42.054	15,455.6	48.9778	15,455.6	58.8274	15,455.6	62.6635	15,455.6	52.2554	15,455.6	57.708	15,455.6	51.3212	15,455.6	52.3748	15,455.6	50.9544	15,455.6	52.8995	15,455.6	54.4188	15,455.6	48.2488	15,455.6	52.1454
16,000.5	85.8435	16,000.5	85.3923	16,000.5	85.3593	16,000.5	84.7063	16,000.5	85.2823	16,000.5	81.3676	16,000.5	83.8566	16,000.5	76.8738	16,000.5	80.4706	16,000.5	74.411	16,000.5	76.8154	16,000.5	70.9446	16,000.5	73.2222	16,000.5	68.7261	16,000.5	70.5354	16,000.5	66.0466	16,000.5	67.2428	16,000.5	39.775	16,000.5	59.1701	16,000.5	61.5484	16,000.5	57.5363	16,000.5	46.1062	16,000.5	54.4778	16,000.5	51.4387	16,000.5	52.5093	16,000.5	60.6318	16,000.5	63.7929	16,000.5	53.6571	16,000.5	58.3585	16,000.5	51.3167	16,000.5	54.3149	16,000.5	50.9436	16,000.5	51.1834	16,000.5	55.7705	16,000.5	52.2664	16,000.5	53.1956
16,564.5	85.1632	16,564.5	85.1634	16,564.5	84.8015	16,564.5	84.2893	16,564.5	84.818	16,564.5	80.4635	16,564.5	83.2338	16,564.5	75.8954	16,564.5	80.1145	16,564.5	73.5226	16,564.5	76.2217	16,564.5	70.5732	16,564.5	72.7974	16,564.5	69.0042	16,564.5	70.543	16,564.5	67.3083	16,564.5	67.6866	16,564.5	56.9806	16,564.5	59.4743	16,564.5	61.7456	16,564.5	56.0436	16,564.5	37.4459	16,564.5	53.1697	16,564.5	56.0354	16,564.5	55.5966	16,564.5	62.0971	16,564.5	64.9081	16,564.5	55.9877	16,564.5	59.0877	16,564.5	54.0382	16,564.5	56.6753	16,564.5	51.4485	16,564.5	50.8362	16,564.5	55.1794	16,564.5	54.5754	16,564.5	54.0232
17,148.9	84.7768	17,148.9	85.185	17,148.9	84.3999	17,148.9	83.9958	17,148.9	84.6901	17,148.9	79.5656	17,148.9	83.4086	17,148.9	74.9734	17,148.9	80.0871	17,148.9	73.4731	17,148.9	76.1067	17,148.9	70.4976	17,148.9	72.9024	17,148.9	69.1549	17,148.9	71.1991	17,148.9	68.5582	17,148.9	69.1445	17,148.9	62.2569	17,148.9	62.2016	17,148.9	62.1058	17,148.9	50.834	17,148.9	52.6125	17,148.9	53.4823	17,148.9	59.7041	17,148.9	58.0466	17,148.9	64.009	17,148.9	66.3701	17,148.9	58.0915	17,148.9	60.0593	17,148.9	56.6635	17,148.9	59.135	17,148.9	53.8601	17,148.9	53.3748	17,148.9	56.4111	17,148.9	56.3844	17,148.9	54.8699
17,752.4	84.3794	17,752.4	85.2321	17,752.4	84.3936	17,752.4	83.6246	17,752.4	85.2425	17,752.4	78.8844	17,752.4	83.9308	17,752.4	74.7051	17,752.4	80.3459	17,752.4	74.0597	17,752.4	76.0499	17,752.4	71.098	17,752.4	73.103	17,752.4	69.6878	17,752.4	71.4064	17,752.4	69.824	17,752.4	70.1095	17,752.4	65.6177	17,752.4	64.1954	17,752.4	62.0315	17,752.4	40.2774	17,752.4	58.1064	17,752.4	53.9422	17,752.4	62.2024	17,752.4	60.1094	17,752.4	65.161	17,752.4	67.399	17,752.4	58.9865	17,752.4	61.0717	17,752.4	58.1225	17,752.4	60.9221	17,752.4	55.763	17,752.4	55.0566	17,752.4	57.5118	17,752.4	58.8959	17,752.4	56.4524
18,379.4	83.8965	18,379.4	84.9959	18,379.4	84.6578	18,379.4	83.4572	18,379.4	85.9152	18,379.4	79.2755	18,379.4	83.9709	18,379.4	74.9082	18,379.4	79.9112	18,379.4	74.6612	18,379.4	74.9572	18,379.4	70.9623	18,379.4	71.9678	18,379.4	69.0476	18,379.4	70.407	18,379.4	70.2676	18,379.4	69.8549	18,379.4	68.0479	18,379.4	65.1967	18,379.4	60.9886	18,379.4	51.5452	18,379.4	60.6016	18,379.4	52.7811	18,379.4	63.5239	18,379.4	60.7443	18,379.4	65.7759	18,379.4	67.5204	18,379.4	58.9044	18,379.4	60.9604	18,379.4	58.9005	18,379.4	61.5517	18,379.4	56.2706	18,379.4	54.5627	18,379.4	57.2262	18,379.4	61.2234	18,379.4	58.0716
19,026.9	83.672	19,026.9	84.952	19,026.9	84.7536	19,026.9	83.4112	19,026.9	85.9893	19,026.9	79.1347	19,026.9	83.0754	19,026.9	74.0746	19,026.9	78.2054	19,026.9	73.7666	19,026.9	72.4475	19,026.9	69.2096	19,026.9	69.4109	19,026.9	67.0482	19,026.9	68.3789	19,026.9	68.861	19,026.9	68.3311	19,026.9	68.5075	19,026.9	64.9805	19,026.9	58.4678	19,026.9	56.9807	19,026.9	61.1018	19,026.9	46.6291	19,026.9	63.0963	19,026.9	60.6316	19,026.9	64.9992	19,026.9	66.7599	19,026.9	57.4686	19,026.9	60.1331	19,026.9	58.6939	19,026.9	60.7952	19,026.9	54.3422	19,026.9	51.4732	19,026.9	51.0405	19,026.9	61.6674	19,026.9	59.3655
19,697.8	83.4333	19,697.8	84.727	19,697.8	84.3776	19,697.8	82.5539	19,697.8	85.0711	19,697.8	77.5591	19,697.8	81.0925	19,697.8	71.6294	19,697.8	75.3523	19,697.8	72.2758	19,697.8	68.9815	19,697.8	65.8829	19,697.8	66.2149	19,697.8	63.6599	19,697.8	66.0217	19,697.8	65.8232	19,697.8	66.2169	19,697.8	67.3521	19,697.8	63.7572	19,697.8	56.3207	19,697.8	57.544	19,697.8	60.3757	19,697.8	39.6693	19,697.8	61.0665	19,697.8	59.5094	19,697.8	64.0239	19,697.8	65.3659	19,697.8	55.3935	19,697.8	59.0391	19,697.8	57.936	19,697.8	59.6844	19,697.8	51.731	19,697.8	44.3312	19,697.8	52.9255	19,697.8	61.2663	19,697.8	60.5857
19,999.5	83.2965	19,999.5	84.6411	19,999.5	83.9986	19,999.5	81.8169	19,999.5	84.4206	19,999.5	76.25	19,999.5	80.2053	19,999.5	69.602	19,999.5	74.1868	19,999.5	71.2333	19,999.5	66.7047	19,999.5	63.4344	19,999.5	65.3927	19,999.5	62.5624	19,999.5	65.0658	19,999.5	63.6637	19,999.5	65.5505	19,999.5	68.0149	19,999.5	63.4984	19,999.5	57.3952	19,999.5	59.9317	19,999.5	60.9717	19,999.5	51.577	19,999.5	60.0627	19,999.5	55.6424	19,999.5	62.5283	19,999.5	65.1686	19,999.5	53.8735	19,999.5	58.0459	19,999.5	58.5738	19,999.5	56.924	19,999.5	51.5671	19,999.5	36.2142	19,999.5	55.2586	19,999.5	60.4764	19,999.5	60.4848
