"SPL Horizontal"
"On-Axis"		"10°"		"-10°"		"20°"		"-20°"		"30°"		"-30°"		"40°"		"-40°"		"50°"		"-50°"		"60°"		"-60°"		"70°"		"-70°"		"80°"		"-80°"		"90°"		"-90°"		"100°"		"-100°"		"110°"		"-110°"		"120°"		"-120°"		"130°"		"-130°"		"140°"		"-140°"		"150°"		"-150°"		"160°"		"-160°"		"170°"		"-170°"		"180°"
"Frequency / Hz"	"Sound Pressure Level / dB (re 20 µPa/V)  [2.83  V @ 1. m]"	"Frequency / Hz"	"Sound Pressure Level / dB (re 20 µPa/V)  [2.83  V @ 1. m]"	"Frequency / Hz"	"Sound Pressure Level / dB (re 20 µPa/V)  [2.83  V @ 1. m]"	"Frequency / Hz"	"Sound Pressure Level / dB (re 20 µPa/V)  [2.83  V @ 1. m]"	"Frequency / Hz"	"Sound Pressure Level / dB (re 20 µPa/V)  [2.83  V @ 1. m]"	"Frequency / Hz"	"Sound Pressure Level / dB (re 20 µPa/V)  [2.83  V @ 1. m]"	"Frequency / Hz"	"Sound Pressure Level / dB (re 20 µPa/V)  [2.83  V @ 1. m]"	"Frequency / Hz"	"Sound Pressure Level / dB (re 20 µPa/V)  [2.83  V @ 1. m]"	"Frequency / Hz"	"Sound Pressure Level / dB (re 20 µPa/V)  [2.83  V @ 1. m]"	"Frequency / Hz"	"Sound Pressure Level / dB (re 20 µPa/V)  [2.83  V @ 1. m]"	"Frequency / Hz"	"Sound Pressure Level / dB (re 20 µPa/V)  [2.83  V @ 1. m]"	"Frequency / Hz"	"Sound Pressure Level / dB (re 20 µPa/V)  [2.83  V @ 1. m]"	"Frequency / Hz"	"Sound Pressure Level / dB (re 20 µPa/V)  [2.83  V @ 1. m]"	"Frequency / Hz"	"Sound Pressure Level / dB (re 20 µPa/V)  [2.83  V @ 1. m]"	"Frequency / Hz"	"Sound Pressure Level / dB (re 20 µPa/V)  [2.83  V @ 1. m]"	"Frequency / Hz"	"Sound Pressure Level / dB (re 20 µPa/V)  [2.83  V @ 1. m]"	"Frequency / Hz"	"Sound Pressure Level / dB (re 20 µPa/V)  [2.83  V @ 1. m]"	"Frequency / Hz"	"Sound Pressure Level / dB (re 20 µPa/V)  [2.83  V @ 1. m]"	"Frequency / Hz"	"Sound Pressure Level / dB (re 20 µPa/V)  [2.83  V @ 1. m]"	"Frequency / Hz"	"Sound Pressure Level / dB (re 20 µPa/V)  [2.83  V @ 1. m]"	"Frequency / Hz"	"Sound Pressure Level / dB (re 20 µPa/V)  [2.83  V @ 1. m]"	"Frequency / Hz"	"Sound Pressure Level / dB (re 20 µPa/V)  [2.83  V @ 1. m]"	"Frequency / Hz"	"Sound Pressure Level / dB (re 20 µPa/V)  [2.83  V @ 1. m]"	"Frequency / Hz"	"Sound Pressure Level / dB (re 20 µPa/V)  [2.83  V @ 1. m]"	"Frequency / Hz"	"Sound Pressure Level / dB (re 20 µPa/V)  [2.83  V @ 1. m]"	"Frequency / Hz"	"Sound Pressure Level / dB (re 20 µPa/V)  [2.83  V @ 1. m]"	"Frequency / Hz"	"Sound Pressure Level / dB (re 20 µPa/V)  [2.83  V @ 1. m]"	"Frequency / Hz"	"Sound Pressure Level / dB (re 20 µPa/V)  [2.83  V @ 1. m]"	"Frequency / Hz"	"Sound Pressure Level / dB (re 20 µPa/V)  [2.83  V @ 1. m]"	"Frequency / Hz"	"Sound Pressure Level / dB (re 20 µPa/V)  [2.83  V @ 1. m]"	"Frequency / Hz"	"Sound Pressure Level / dB (re 20 µPa/V)  [2.83  V @ 1. m]"	"Frequency / Hz"	"Sound Pressure Level / dB (re 20 µPa/V)  [2.83  V @ 1. m]"	"Frequency / Hz"	"Sound Pressure Level / dB (re 20 µPa/V)  [2.83  V @ 1. m]"	"Frequency / Hz"	"Sound Pressure Level / dB (re 20 µPa/V)  [2.83  V @ 1. m]"	"Frequency / Hz"	"Sound Pressure Level / dB (re 20 µPa/V)  [2.83  V @ 1. m]"	"Frequency / Hz"	"Sound Pressure Level / dB (re 20 µPa/V)  [2.83  V @ 1. m]"
20.5078	58.8852	20.5078	58.953	20.5078	58.6804	20.5078	58.8853	20.5078	58.333	20.5078	58.6791	20.5078	57.8324	20.5078	58.327	20.5078	57.1618	20.5078	57.8163	20.5078	56.2971	20.5078	57.1289	20.5078	55.2068	20.5078	56.2411	20.5078	53.8557	20.5078	55.1268	20.5078	52.2249	20.5078	53.769	20.5078	50.3867	20.5078	52.1992	20.5078	48.7182	20.5078	50.6092	20.5078	48.072	20.5078	49.5212	20.5078	48.8798	20.5078	49.5511	20.5078	50.3884	20.5078	50.5563	20.5078	51.8475	20.5078	51.8386	20.5078	52.9831	20.5078	52.9428	20.5078	53.7376	20.5078	53.7088	20.5078	54.1083	20.5078	54.0986
21.9727	56.8359	21.9727	56.8101	21.9727	56.6794	21.9727	56.602	21.9727	56.3314	21.9727	56.2022	21.9727	55.7728	21.9727	55.5899	21.9727	54.9708	21.9727	54.7286	21.9727	53.8717	21.9727	53.5591	21.9727	52.3861	21.9727	51.9858	21.9727	50.3575	21.9727	49.8558	21.9727	47.495	21.9727	46.9615	21.9727	43.3111	21.9727	43.5062	21.9727	39.2505	21.9727	42.7675	21.9727	42.8108	21.9727	46.0771	21.9727	47.2298	21.9727	49.3031	21.9727	50.2482	21.9727	51.6678	21.9727	52.3349	21.9727	53.3376	21.9727	53.7819	21.9727	54.4633	21.9727	54.7336	21.9727	55.1328	21.9727	55.2604	21.9727	55.3922
23.4375	54.4872	23.4375	54.51	23.4375	54.1733	23.4375	54.2417	23.4375	53.5398	23.4375	53.6543	23.4375	52.5194	23.4375	52.682	23.4375	50.978	23.4375	51.1937	23.4375	48.636	23.4375	48.9158	23.4375	44.8122	23.4375	45.1754	23.4375	37.5393	23.4375	37.806	23.4375	38.7201	23.4375	38.0292	23.4375	46.2602	23.4375	46.1859	23.4375	50.5716	23.4375	50.6589	23.4375	53.4813	23.4375	53.6379	23.4375	55.6115	23.4375	55.7986	23.4375	57.2209	23.4375	57.4121	23.4375	58.4346	23.4375	58.6086	23.4375	59.3181	23.4375	59.4567	23.4375	59.905	23.4375	59.9942	23.4375	60.2114	23.4375	60.2421
24.9023	55.8136	24.9023	55.8195	24.9023	55.5616	24.9023	55.5759	24.9023	55.0559	24.9023	55.0667	24.9023	54.2828	24.9023	54.2628	24.9023	53.236	24.9023	53.1265	24.9023	51.9676	24.9023	51.6443	24.9023	50.7331	24.9023	49.9758	24.9023	50.1952	24.9023	48.8812	24.9023	51.0005	24.9023	49.5866	24.9023	52.7935	24.9023	51.7592	24.9023	54.8014	24.9023	54.1559	24.9023	56.635	24.9023	56.2588	24.9023	58.1912	24.9023	57.9887	24.9023	59.4632	24.9023	59.3697	24.9023	60.4652	24.9023	60.4355	24.9023	61.2107	24.9023	61.2123	24.9023	61.7079	24.9023	61.718	24.9023	61.9596	24.9023	61.9645
26.3672	58.9855	26.3672	58.8107	26.3672	58.9993	26.3672	58.4698	26.3672	58.8554	26.3672	57.9554	26.3672	58.5559	26.3672	57.2617	26.3672	58.1049	26.3672	56.3925	26.3672	57.5151	26.3672	55.3853	26.3672	56.8219	26.3672	54.365	26.3672	56.109	26.3672	53.6196	26.3672	55.5387	26.3672	53.5526	26.3672	55.3395	26.3672	54.3209	26.3672	55.6774	26.3672	55.6276	26.3672	56.4992	26.3672	57.0702	26.3672	57.5793	26.3672	58.4077	26.3672	58.693	26.3672	59.5394	26.3672	59.697	26.3672	60.4307	26.3672	60.5169	26.3672	61.0714	26.3672	61.1166	26.3672	61.4591	26.3672	61.4786	26.3672	61.5942
27.832	61.1056	27.832	61.011	27.832	61.0296	27.832	60.7428	27.832	60.7811	27.832	60.2935	27.832	60.3536	27.832	59.652	27.832	59.7366	27.832	58.8084	27.832	58.919	27.832	57.7667	27.832	57.9	27.832	56.5815	27.832	56.7214	27.832	55.4432	27.832	55.5454	27.832	54.7719	27.832	54.7651	27.832	55.0201	27.832	54.8762	27.832	56.1264	27.832	55.9121	27.832	57.5928	27.832	57.3844	27.832	59.0246	27.832	58.8547	27.832	60.2485	27.832	60.1225	27.832	61.2086	27.832	61.122	27.832	61.8916	27.832	61.8382	27.832	62.2962	27.832	62.2709	27.832	62.4229
29.2969	61.3411	29.2969	61.2715	29.2969	61.2228	29.2969	61.012	29.2969	60.9099	29.2969	60.5523	29.2969	60.3859	29.2969	59.8738	29.2969	59.6218	29.2969	58.9491	29.2969	58.5713	29.2969	57.7465	29.2969	57.1642	29.2969	56.2504	29.2969	55.3009	29.2969	54.5437	29.2969	52.8936	29.2969	53.0519	29.2969	50.2347	29.2969	52.7158	29.2969	49.2917	29.2969	53.9111	29.2969	51.4566	29.2969	55.7625	29.2969	54.2913	29.2969	57.5282	29.2969	56.6233	29.2969	58.9727	29.2969	58.3919	29.2969	60.0625	29.2969	59.6877	29.2969	60.8107	29.2969	60.5838	29.2969	61.2331	29.2969	61.1256	29.2969	61.3382
30.7617	61.123	30.7617	61.0858	30.7617	60.9472	30.7617	60.8346	30.7617	60.5476	30.7617	60.3574	30.7617	59.8995	30.7617	59.6302	30.7617	58.9588	30.7617	58.6161	30.7617	57.6534	30.7617	57.2685	30.7617	55.87	30.7617	55.5603	30.7617	53.4617	30.7617	53.6273	30.7617	50.5129	30.7617	52.2269	30.7617	48.9675	30.7617	52.6986	30.7617	51.3237	30.7617	54.7357	30.7617	54.6042	30.7617	56.9924	30.7617	57.2566	30.7617	58.9235	30.7617	59.2658	30.7617	60.4529	30.7617	60.7667	30.7617	61.6073	30.7617	61.8553	30.7617	62.4208	30.7617	62.5896	30.7617	62.9171	30.7617	63.0022	30.7617	63.1096
32.2266	61.1103	32.2266	61.0878	32.2266	60.9076	32.2266	60.8406	32.2266	60.4674	32.2266	60.3582	32.2266	59.7636	32.2266	59.6196	32.2266	58.7537	32.2266	58.5958	32.2266	57.3782	32.2266	57.2624	32.2266	55.5828	32.2266	55.66	32.2266	53.466	32.2266	54.0998	32.2266	51.8708	32.2266	53.4811	32.2266	52.5016	32.2266	54.5375	32.2266	54.8778	32.2266	56.5435	32.2266	57.3596	32.2266	58.583	32.2266	59.4298	32.2266	60.3297	32.2266	61.0649	32.2266	61.7328	32.2266	62.3198	32.2266	62.8084	32.2266	63.2425	32.2266	63.5795	32.2266	63.8647	32.2266	64.0633	32.2266	64.2044	32.2266	64.2702
33.6914	62.062	33.6914	62.0422	33.6914	61.8647	33.6914	61.8054	33.6914	61.4406	33.6914	61.3421	33.6914	60.7697	33.6914	60.6343	33.6914	59.8238	33.6914	59.6588	33.6914	58.5749	33.6914	58.4037	33.6914	57.038	33.6914	56.9294	33.6914	55.4278	33.6914	55.5495	33.6914	54.4869	33.6914	55.0425	33.6914	55.1393	33.6914	55.9938	33.6914	56.996	33.6914	57.8235	33.6914	59.0577	33.6914	59.7394	33.6914	60.8764	33.6914	61.4142	33.6914	62.3612	33.6914	62.7772	33.6914	63.5208	33.6914	63.8326	33.6914	64.3791	33.6914	64.597	33.6914	64.9556	33.6914	65.0849	33.6914	65.2625	33.6914	65.3054
35.1562	63.1746	35.1562	63.139	35.1562	63.0086	35.1562	62.9002	35.1562	62.6351	35.1562	62.4481	35.1562	62.0404	35.1562	61.7656	35.1562	61.2056	35.1562	60.8305	35.1562	60.1149	35.1562	59.6301	35.1562	58.7867	35.1562	58.209	35.1562	57.3718	35.1562	56.8137	35.1562	56.3523	35.1562	56.1016	35.1562	56.4674	35.1562	56.7323	35.1562	57.7809	35.1562	58.3593	35.1562	59.5674	35.1562	60.1979	35.1562	61.2823	35.1562	61.8491	35.1562	62.7363	35.1562	63.2052	35.1562	63.8928	35.1562	64.2569	35.1562	64.7579	35.1562	65.0171	35.1562	65.3439	35.1562	65.4991	35.1562	65.6604	35.1562	65.7121
36.6211	63.3149	36.6211	63.2602	36.6211	63.1634	36.6211	62.9956	36.6211	62.8012	36.6211	62.5088	36.6211	62.2163	36.6211	61.7788	36.6211	61.3914	36.6211	60.7776	36.6211	60.3133	36.6211	59.4835	36.6211	59.0048	36.6211	57.9336	36.6211	57.6234	36.6211	56.4028	36.6211	56.6532	36.6211	55.6884	36.6211	56.8078	36.6211	56.5387	36.6211	58.126	36.6211	58.4002	36.6211	59.9005	36.6211	60.3757	36.6211	61.6045	36.6211	62.0958	36.6211	63.0524	36.6211	63.4871	36.6211	64.207	36.6211	64.5577	36.6211	65.0727	36.6211	65.3282	36.6211	65.6605	36.6211	65.8155	36.6211	65.9786	36.6211	66.0305
38.0859	63.5213	38.0859	63.4315	38.0859	63.3994	38.0859	63.1247	38.0859	63.0634	38.0859	62.5871	38.0859	62.5045	38.0859	61.7968	38.0859	61.7122	38.0859	60.7295	38.0859	60.6876	38.0859	59.3821	38.0859	59.4857	38.0859	57.8621	38.0859	58.3198	38.0859	56.6242	38.0859	57.6917	38.0859	56.5592	38.0859	58.1317	38.0859	57.9288	38.0859	59.4975	38.0859	59.8991	38.0859	61.1849	38.0859	61.8003	38.0859	62.789	38.0859	63.4169	38.0859	64.1611	38.0859	64.7179	38.0859	65.2663	38.0859	65.7174	38.0859	66.1042	38.0859	66.434	38.0859	66.6812	38.0859	66.8818	38.0859	67.0024	38.0859	67.0697
39.5508	64.1233	39.5508	64.0052	39.5508	64.0412	39.5508	63.6812	39.5508	63.7601	39.5508	63.1413	39.5508	63.2788	39.5508	62.3748	39.5508	62.5996	39.5508	61.3836	39.5508	61.7447	39.5508	60.2217	39.5508	60.7924	39.5508	59.0942	39.5508	59.9464	39.5508	58.478	39.5508	59.5719	39.5508	58.8892	39.5508	59.9866	39.5508	60.2203	39.5508	61.0994	39.5508	61.8965	39.5508	62.5227	39.5508	63.5109	39.5508	63.9406	39.5508	64.907	39.5508	65.1998	39.5508	66.0451	39.5508	66.2437	39.5508	66.9236	39.5508	67.055	39.5508	67.5494	39.5508	67.6297	39.5508	67.9293	39.5508	67.9675	39.5508	68.0678
41.0156	65.3197	41.0156	65.1839	41.0156	65.2748	41.0156	64.8641	41.0156	65.0499	41.0156	64.3559	41.0156	64.6437	41.0156	63.659	41.0156	64.057	41.0156	62.7924	41.0156	63.3031	41.0156	61.8305	41.0156	62.4322	41.0156	60.9684	41.0156	61.5801	41.0156	60.5607	41.0156	61.019	41.0156	60.9269	41.0156	61.0809	41.0156	61.9942	41.0156	61.8605	41.0156	63.3857	41.0156	63.0978	41.0156	64.7827	41.0156	64.4563	41.0156	66.027	41.0156	65.7248	41.0156	67.0585	41.0156	66.8082	41.0156	67.8585	41.0156	67.67	41.0156	68.4222	41.0156	68.2975	41.0156	68.7486	41.0156	68.6868	41.0156	68.837
42.4805	65.9311	42.4805	65.8744	42.4805	65.814	42.4805	65.6454	42.4805	65.5193	42.4805	65.2455	42.4805	65.042	42.4805	64.6807	42.4805	64.3796	42.4805	63.9736	42.4805	63.5436	42.4805	63.1875	42.4805	62.5881	42.4805	62.4653	42.4805	61.6666	42.4805	62.0514	42.4805	61.0903	42.4805	62.1948	42.4805	61.2191	42.4805	62.9304	42.4805	62.1049	42.4805	64.037	42.4805	63.4209	42.4805	65.2449	42.4805	64.8124	42.4805	66.376	42.4805	66.0808	42.4805	67.3426	42.4805	67.1455	42.4805	68.1071	42.4805	67.9802	42.4805	68.6544	42.4805	68.5792	42.4805	68.9784	42.4805	68.9435	42.4805	69.0756
43.9453	67.2717	43.9453	67.2307	43.9453	67.1536	43.9453	67.032	43.9453	66.8748	43.9453	66.6769	43.9453	66.4334	43.9453	66.1711	43.9453	65.832	43.9453	65.5328	43.9453	65.0872	43.9453	64.8099	43.9453	64.2522	43.9453	64.1077	43.9453	63.4556	43.9453	63.612	43.9453	62.9339	43.9453	63.5452	43.9453	62.9589	43.9453	64.0138	43.9453	63.6103	43.9453	64.9021	43.9453	64.6838	43.9453	65.9783	43.9453	65.8923	43.9453	67.0472	43.9453	67.0374	43.9453	67.9939	43.9453	68.0201	43.9453	68.7616	43.9453	68.798	43.9453	69.3239	43.9453	69.3553	43.9453	69.6689	43.9453	69.6866	43.9453	69.7907
45.4102	68.0692	45.4102	68.0237	45.4102	67.9515	45.4102	67.8148	45.4102	67.6691	45.4102	67.4408	45.4102	67.2192	45.4102	66.9015	45.4102	66.6017	45.4102	66.2051	45.4102	65.8288	45.4102	65.3838	45.4102	64.945	45.4102	64.5246	45.4102	64.0674	45.4102	63.8109	45.4102	63.4286	45.4102	63.5168	45.4102	63.3261	45.4102	63.8421	45.4102	63.8875	45.4102	64.7092	45.4102	64.9242	45.4102	65.8416	45.4102	66.1277	45.4102	66.9902	45.4102	67.2775	45.4102	68.0125	45.4102	68.2636	45.4102	68.8433	45.4102	69.0401	45.4102	69.4557	45.4102	69.5899	45.4102	69.8393	45.4102	69.9072	45.4102	69.9903
46.875	68.2531	46.875	68.1895	46.875	68.1513	46.875	67.9598	46.875	67.8826	46.875	67.5614	46.875	67.4445	46.875	66.9934	46.875	66.8367	46.875	66.2639	46.875	66.0703	46.875	65.407	46.875	65.1888	46.875	64.5189	46.875	64.3076	46.875	63.8054	46.875	63.6597	46.875	63.5667	46.875	63.5482	46.875	63.9958	46.875	64.1096	46.875	64.9669	46.875	65.1567	46.875	66.1704	46.875	66.3762	46.875	67.3562	46.875	67.5438	46.875	68.3929	46.875	68.5476	46.875	69.2244	46.875	69.3414	46.875	69.8298	46.875	69.9079	46.875	70.2021	46.875	70.2411	46.875	70.3393
48.3398	68.3816	48.3398	68.3249	48.3398	68.265	48.3398	68.0939	48.3398	67.9733	48.3398	67.6859	48.3398	67.5031	48.3398	67.0991	48.3398	66.8533	48.3398	66.3415	48.3398	66.0359	48.3398	65.4507	48.3398	65.1004	48.3398	64.5357	48.3398	64.1832	48.3398	63.8318	48.3398	63.5589	48.3398	63.6704	48.3398	63.5621	48.3398	64.2245	48.3398	64.2852	48.3398	65.3053	48.3398	65.4632	48.3398	66.5723	48.3398	66.7572	48.3398	67.7838	48.3398	67.9572	48.3398	68.8244	48.3398	68.9701	48.3398	69.6504	48.3398	69.7621	48.3398	70.2481	48.3398	70.3234	48.3398	70.6144	48.3398	70.6523	48.3398	70.7491
51.2695	69.4207	51.2695	69.3741	51.2695	69.3033	51.2695	69.164	51.2695	69.02	51.2695	68.7914	51.2695	68.5697	51.2695	68.2613	51.2695	67.9568	51.2695	67.5918	51.2695	67.2033	51.2695	66.8341	51.2695	66.3741	51.2695	66.1042	51.2695	65.6188	51.2695	65.6093	51.2695	65.1927	51.2695	65.5914	51.2695	65.349	51.2695	66.145	51.2695	66.1084	51.2695	67.1173	51.2695	67.231	51.2695	68.2535	51.2695	68.4411	51.2695	69.3586	51.2695	69.5638	51.2695	70.3263	51.2695	70.5154	51.2695	71.1079	51.2695	71.2615	51.2695	71.6824	51.2695	71.7897	51.2695	72.041	51.2695	72.0959	51.2695	72.1795
52.7344	70.0375	52.7344	70.0073	52.7344	69.9146	52.7344	69.8247	52.7344	69.6382	52.7344	69.4914	52.7344	69.2096	52.7344	69.0137	52.7344	68.6366	52.7344	68.4101	52.7344	67.9446	52.7344	67.7264	52.7344	67.1973	52.7344	67.0601	52.7344	66.5276	52.7344	66.5791	52.7344	66.1474	52.7344	66.4861	52.7344	66.2632	52.7344	66.8894	52.7344	66.9057	52.7344	67.7017	52.7344	67.8945	52.7344	68.7164	52.7344	68.9947	52.7344	69.7456	52.7344	70.0386	52.7344	70.6718	52.7344	70.9362	52.7344	71.4337	52.7344	71.6457	52.7344	72.0018	52.7344	72.1485	52.7344	72.3622	52.7344	72.4369	52.7344	72.5081
54.1992	71.0089	54.1992	70.9511	54.1992	70.9066	54.1992	70.7338	54.1992	70.6427	54.1992	70.3575	54.1992	70.216	54.1992	69.8265	54.1992	69.6291	54.1992	69.1569	54.1992	68.8995	54.1992	68.3945	54.1992	68.0803	54.1992	67.6442	54.1992	67.2974	54.1992	67.0977	54.1992	66.7793	54.1992	66.9936	54.1992	66.7857	54.1992	67.4515	54.1992	67.3958	54.1992	68.3502	54.1992	68.4183	54.1992	69.4425	54.1992	69.5773	54.1992	70.5241	54.1992	70.6783	54.1992	71.4786	54.1992	71.6225	54.1992	72.2507	54.1992	72.3679	54.1992	72.817	54.1992	72.8986	54.1992	73.1677	54.1992	73.2094	54.1992	73.299
55.6641	70.6047	55.6641	70.552	55.6641	70.5002	55.6641	70.3426	55.6641	70.2397	55.6641	69.979	55.6641	69.8281	55.6641	69.4699	55.6641	69.2814	55.6641	68.8409	55.6641	68.641	55.6641	68.1539	55.6641	67.9974	55.6641	67.5359	55.6641	67.514	55.6641	67.1894	55.6641	67.4005	55.6641	67.3163	55.6641	67.7886	55.6641	67.9591	55.6641	68.6109	55.6641	68.9552	55.6641	69.662	55.6641	70.078	55.6641	70.7454	55.6641	71.1596	55.6641	71.7373	55.6641	72.1074	55.6641	72.574	55.6641	72.8772	55.6641	73.2264	55.6641	73.45	55.6641	73.6815	55.6641	73.8183	55.6641	73.9334	55.6641	73.9794
58.5938	72.1274	58.5938	72.0968	58.5938	72.0312	58.5938	71.94	58.5938	71.8108	58.5938	71.6611	58.5938	71.473	58.5938	71.2711	58.5938	71.0335	58.5938	70.7946	58.5938	70.5251	58.5938	70.2801	58.5938	70.0097	58.5938	69.8131	58.5938	69.589	58.5938	69.5169	58.5938	69.3952	58.5938	69.5182	58.5938	69.5378	58.5938	69.8748	58.5938	70.0311	58.5938	70.5304	58.5938	70.7792	58.5938	71.3528	58.5938	71.6396	58.5938	72.2073	58.5938	72.4887	58.5938	72.9957	58.5938	73.2431	58.5938	73.6574	58.5938	73.8538	58.5938	74.1581	58.5938	74.2935	58.5938	74.4788	58.5938	74.5478	58.5938	74.6099
60.0586	72.5281	60.0586	72.4928	60.0586	72.4366	60.0586	72.3307	60.0586	72.2203	60.0586	72.0455	60.0586	71.886	60.0586	71.6468	60.0586	71.449	60.0586	71.1568	60.0586	70.9415	60.0586	70.6211	60.0586	70.425	60.0586	70.1228	60.0586	70.0001	60.0586	69.7871	60.0586	69.7979	60.0586	69.7503	60.0586	69.9281	60.0586	70.0833	60.0586	70.4066	60.0586	70.7357	60.0586	71.14	60.0586	71.5703	60.0586	71.9874	60.0586	72.4438	60.0586	72.8257	60.0586	73.2516	60.0586	73.5713	60.0586	73.93	60.0586	74.1748	60.0586	74.4438	60.0586	74.6083	60.0586	74.7744	60.0586	74.8569	60.0586	74.913
62.9883	73.4958	62.9883	73.4458	62.9883	73.4271	62.9883	73.2785	62.9883	73.2422	62.9883	72.9992	62.9883	72.9481	62.9883	72.6213	62.9883	72.5605	62.9883	72.1724	62.9883	72.1108	62.9883	71.7042	62.9883	71.6558	62.9883	71.3014	62.9883	71.2861	62.9883	71.0783	62.9883	71.1171	62.9883	71.1415	62.9883	71.2459	62.9883	71.5295	62.9883	71.6916	62.9883	72.1819	62.9883	72.378	62.9883	72.978	62.9883	73.1812	62.9883	73.7968	62.9883	73.9859	62.9883	74.549	62.9883	74.7103	62.9883	75.178	62.9883	75.3036	62.9883	75.6509	62.9883	75.7365	62.9883	75.9495	62.9883	75.9928	62.9883	76.0645
64.4531	74.0929	64.4531	74.0571	64.4531	74.0181	64.4531	73.9115	64.4531	73.8354	64.4531	73.6618	64.4531	73.5529	64.4531	73.3204	64.4531	73.1874	64.4531	72.9126	64.4531	72.7712	64.4531	72.4845	64.4531	72.3598	64.4531	72.1099	64.4531	72.0369	64.4531	71.8884	64.4531	71.904	64.4531	71.9169	64.4531	72.0417	64.4531	72.2395	64.4531	72.4625	64.4531	72.8159	64.4531	73.0994	64.4531	73.5441	64.4531	73.8438	64.4531	74.3118	64.4531	74.5925	64.4531	75.0297	64.4531	75.2691	64.4531	75.6384	64.4531	75.8242	64.4531	76.1018	64.4531	76.2279	64.4531	76.3996	64.4531	76.4631	64.4531	76.5211
67.3828	74.9569	67.3828	74.9192	67.3828	74.8947	67.3828	74.7832	67.3828	74.7351	67.3828	74.5558	67.3828	74.4861	67.3828	74.2513	67.3828	74.1646	67.3828	73.8961	67.3828	73.8013	67.3828	73.5353	67.3828	73.4471	67.3828	73.2368	67.3828	73.1758	67.3828	73.0856	67.3828	73.0738	67.3828	73.1581	67.3828	73.2094	67.3828	73.4838	67.3828	73.5949	67.3828	74.0248	67.3828	74.1766	67.3828	74.6948	67.3828	74.8624	67.3828	75.3981	67.3828	75.5598	67.3828	76.0562	67.3828	76.1968	67.3828	76.6144	67.3828	76.7248	67.3828	77.0381	67.3828	77.1135	67.3828	77.307	67.3828	77.3451	67.3828	77.4105
68.8477	75.4943	68.8477	75.4683	68.8477	75.4287	68.8477	75.3521	68.8477	75.2747	68.8477	75.1517	68.8477	75.0412	68.8477	74.8804	68.8477	74.7452	68.8477	74.5626	68.8477	74.4167	68.8477	74.2389	68.8477	74.1029	68.8477	73.9691	68.8477	73.8694	68.8477	73.8276	68.8477	73.7898	68.8477	73.8825	68.8477	73.9205	68.8477	74.1639	68.8477	74.2716	68.8477	74.6448	68.8477	74.7988	68.8477	75.2527	68.8477	75.424	68.8477	75.9015	68.8477	76.0656	68.8477	76.5162	68.8477	76.6571	68.8477	77.0423	68.8477	77.1513	68.8477	77.4439	68.8477	77.5174	68.8477	77.6996	68.8477	77.7365	68.8477	77.7983
71.7773	76.7783	71.7773	76.742	71.7773	76.7319	71.7773	76.6243	71.7773	76.6052	71.7773	76.4314	71.7773	76.4058	71.7773	76.1758	71.7773	76.148	71.7773	75.88	71.7773	75.8562	71.7773	75.5794	71.7773	75.5685	71.7773	75.3255	71.7773	75.3373	71.7773	75.1805	71.7773	75.2234	71.7773	75.2021	71.7773	75.2786	71.7773	75.419	71.7773	75.5235	71.7773	75.8145	71.7773	75.935	71.7773	76.3324	71.7773	76.4552	71.7773	76.8995	71.7773	77.0131	71.7773	77.4475	71.7773	77.5444	71.7773	77.9233	71.7773	77.9987	71.7773	78.2899	71.7773	78.3413	71.7773	78.5237	71.7773	78.5497	71.7773	78.6117
74.707	77.8523	74.707	77.8244	74.707	77.8031	74.707	77.7215	74.707	77.679	74.707	77.5496	74.707	77.4866	74.707	77.3208	74.707	77.239	74.707	77.0554	74.707	76.9587	74.707	76.7854	74.707	76.6809	74.707	76.5555	74.707	76.4541	74.707	76.42	74.707	76.3349	74.707	76.43	74.707	76.3736	74.707	76.6141	74.707	76.5928	74.707	76.9628	74.707	76.9752	74.707	77.4306	74.707	77.4683	74.707	77.9532	74.707	78.0049	74.707	78.4663	74.707	78.5209	74.707	78.917	74.707	78.9655	74.707	79.267	74.707	79.3028	74.707	79.4906	74.707	79.5095	74.707	79.5732
77.6367	78.8177	77.6367	78.8046	77.6367	78.7612	77.6367	78.7231	77.6367	78.6373	77.6367	78.5789	77.6367	78.453	77.6367	78.383	77.6367	78.221	77.6367	78.1539	77.6367	77.9629	77.6367	77.92	77.6367	77.7112	77.6367	77.7205	77.6367	77.5097	77.6367	77.6023	77.6367	77.4087	77.6367	77.6099	77.6367	77.4521	77.6367	77.7694	77.6367	77.6599	77.6367	78.0761	77.6367	78.0172	77.6367	78.4935	77.6367	78.4779	77.6367	78.9664	77.6367	78.9811	77.6367	79.4367	77.6367	79.4674	77.6367	79.8542	77.6367	79.8884	77.6367	80.1809	77.6367	80.2089	77.6367	80.3905	77.6367	80.406	77.6367	80.4675
79.1016	79.2804	79.1016	79.2719	79.1016	79.2232	79.1016	79.199	79.1016	79.1028	79.1016	79.0667	79.1016	78.9263	79.1016	78.8856	79.1016	78.7063	79.1016	78.6734	79.1016	78.4639	79.1016	78.4567	79.1016	78.2304	79.1016	78.2725	79.1016	78.0473	79.1016	78.1646	79.1016	77.9618	79.1016	78.1747	79.1016	78.014	79.1016	78.3277	79.1016	78.2215	79.1016	78.6201	79.1016	78.5697	79.1016	79.0192	79.1016	79.0151	79.1016	79.4733	79.1016	79.5004	79.1016	79.927	79.1016	79.9693	79.1016	80.3316	79.1016	80.3752	79.1016	80.6494	79.1016	80.684	79.1016	80.8544	79.1016	80.8733	79.1016	80.9311
82.0312	80.3112	82.0312	80.2932	82.0312	80.2726	82.0312	80.22	82.0312	80.1796	82.0312	80.097	82.0312	80.0384	82.0312	79.9344	82.0312	79.8607	82.0312	79.749	82.0312	79.6651	82.0312	79.5653	82.0312	79.4788	82.0312	79.4159	82.0312	79.3369	82.0312	79.3383	82.0312	79.2782	82.0312	79.367	82.0312	79.3357	82.0312	79.522	82.0312	79.5243	82.0312	79.7995	82.0312	79.8334	82.0312	80.1711	82.0312	80.2284	82.0312	80.5919	82.0312	80.6612	82.0312	81.0129	82.0312	81.0826	82.0312	81.3896	82.0312	81.4499	82.0312	81.6866	82.0312	81.7305	82.0312	81.8794	82.0312	81.9024	82.0312	81.9531
84.9609	81.3158	84.9609	81.3184	84.9609	81.2669	84.9609	81.2766	84.9609	81.1731	84.9609	81.1956	84.9609	81.0397	84.9609	81.0844	84.9609	80.8772	84.9609	80.957	84.9609	80.7021	84.9609	80.8322	84.9609	80.5383	84.9609	80.7343	84.9609	80.4163	84.9609	80.6904	84.9609	80.3689	84.9609	80.7251	84.9609	80.4241	84.9609	80.8539	84.9609	80.5948	84.9609	81.0762	84.9609	80.8729	84.9609	81.374	84.9609	81.2298	84.9609	81.7155	84.9609	81.6241	84.9609	82.0623	84.9609	82.0119	84.9609	82.3767	84.9609	82.3536	84.9609	82.6262	84.9609	82.6183	84.9609	82.7864	84.9609	82.7848	84.9609	82.8416
87.8906	82.6344	87.8906	82.6389	87.8906	82.584	87.8906	82.5968	87.8906	82.4908	87.8906	82.5107	87.8906	82.3613	87.8906	82.3868	87.8906	82.2064	87.8906	82.2356	87.8906	82.0416	87.8906	82.0738	87.8906	81.8884	87.8906	81.9242	87.8906	81.773	87.8906	81.8157	87.8906	81.7231	87.8906	81.7782	87.8906	81.7622	87.8906	81.8357	87.8906	81.9017	87.8906	81.9974	87.8906	82.1353	87.8906	82.2523	87.8906	82.4394	87.8906	82.5706	87.8906	82.7784	87.8906	82.9121	87.8906	83.1123	87.8906	83.2348	87.8906	83.4042	87.8906	83.5025	87.8906	83.6242	87.8906	83.6876	87.8906	83.751	87.8906	83.7729
90.8203	83.1867	90.8203	83.178	90.8203	83.1629	90.8203	83.1371	90.8203	83.109	90.8203	83.0675	90.8203	83.031	90.8203	82.9764	90.8203	82.938	90.8203	82.8753	90.8203	82.8433	90.8203	82.7805	90.8203	82.7645	90.8203	82.7127	90.8203	82.7218	90.8203	82.6943	90.8203	82.7359	90.8203	82.7455	90.8203	82.8229	90.8203	82.8782	90.8203	82.9894	90.8203	83.0911	90.8203	83.2285	90.8203	83.3684	90.8203	83.5204	90.8203	83.683	90.8203	83.8362	90.8203	84.0024	90.8203	84.1433	90.8203	84.2944	90.8203	84.4112	90.8203	84.531	90.8203	84.6144	90.8203	84.691	90.8203	84.7344	90.8203	84.7607
95.2148	84.9725	95.2148	84.9622	95.2148	84.9592	95.2148	84.9287	95.2148	84.9241	95.2148	84.8743	95.2148	84.8709	95.2148	84.8035	95.2148	84.8055	95.2148	84.7238	95.2148	84.7365	95.2148	84.6458	95.2148	84.6753	95.2148	84.5829	95.2148	84.6351	95.2148	84.5506	95.2148	84.6298	95.2148	84.5643	95.2148	84.6715	95.2148	84.6354	95.2148	84.7674	95.2148	84.7677	95.2148	84.9172	95.2148	84.9552	95.2148	85.1114	95.2148	85.1813	95.2148	85.3325	95.2148	85.4224	95.2148	85.5573	95.2148	85.6515	95.2148	85.7607	95.2148	85.8426	95.2148	85.9192	95.2148	85.9747	95.2148	86.0141	95.2148	86.0337
98.1445	85.9721	98.1445	85.9659	98.1445	85.9614	98.1445	85.9429	98.1445	85.9352	98.1445	85.9047	98.1445	85.8959	98.1445	85.8548	98.1445	85.848	98.1445	85.7988	98.1445	85.7974	98.1445	85.7447	98.1445	85.752	98.1445	85.7029	98.1445	85.7217	98.1445	85.6853	98.1445	85.7172	98.1445	85.7037	98.1445	85.7487	98.1445	85.7672	98.1445	85.8235	98.1445	85.8792	98.1445	85.9438	98.1445	86.0355	98.1445	86.1043	98.1445	86.2237	98.1445	86.2919	98.1445	86.4247	98.1445	86.4875	98.1445	86.6161	98.1445	86.6685	98.1445	86.7754	98.1445	86.813	98.1445	86.8836	98.1445	86.9033	98.1445	86.928
101.074	87.0051	101.074	87.003	101.074	86.9942	101.074	86.9882	101.074	86.971	101.074	86.9618	101.074	86.9368	101.074	86.926	101.074	86.8943	101.074	86.8847	101.074	86.8473	101.074	86.8431	101.074	86.8016	101.074	86.8084	101.074	86.7644	101.074	86.7891	101.074	86.7447	101.074	86.7939	101.074	86.7517	101.074	86.8304	101.074	86.7932	101.074	86.9028	101.074	86.8733	101.074	87.0101	101.074	86.99	101.074	87.1446	101.074	87.1344	101.074	87.2931	101.074	87.2912	101.074	87.4376	101.074	87.4412	101.074	87.5593	101.074	87.5646	101.074	87.6412	101.074	87.6449	101.074	87.6714
105.469	88.2905	105.469	88.2846	105.469	88.2878	105.469	88.2701	105.469	88.2766	105.469	88.2474	105.469	88.2574	105.469	88.2174	105.469	88.2314	105.469	88.1819	105.469	88.2007	105.469	88.1439	105.469	88.1684	105.469	88.1077	105.469	88.1393	105.469	88.0793	105.469	88.1196	105.469	88.0659	105.469	88.1161	105.469	88.0747	105.469	88.1354	105.469	88.1111	105.469	88.182	105.469	88.1771	105.469	88.2562	105.469	88.2697	105.469	88.3528	105.469	88.3799	105.469	88.4609	105.469	88.4941	105.469	88.5653	105.469	88.5965	105.469	88.6498	105.469	88.6717	105.469	88.7003	105.469	88.7082
108.398	89.141	108.398	89.1354	108.398	89.1433	108.398	89.1268	108.398	89.1422	108.398	89.1151	108.398	89.1373	108.398	89.1003	108.398	89.1282	108.398	89.0829	108.398	89.1154	108.398	89.064	108.398	89.0998	108.398	89.0458	108.398	89.0841	108.398	89.0319	108.398	89.072	108.398	89.0268	108.398	89.0688	108.398	89.0358	108.398	89.08	108.398	89.0635	108.398	89.1102	108.398	89.1124	108.398	89.1616	108.398	89.1816	108.398	89.2318	108.398	89.2652	108.398	89.3135	108.398	89.353	108.398	89.3953	108.398	89.4322	108.398	89.4638	108.398	89.4898	108.398	89.5068	108.398	89.5162
112.793	90.303	112.793	90.308	112.793	90.3023	112.793	90.3167	112.793	90.3052	112.793	90.328	112.793	90.3105	112.793	90.3399	112.793	90.3163	112.793	90.3502	112.793	90.3207	112.793	90.3572	112.793	90.3223	112.793	90.3599	112.793	90.3208	112.793	90.359	112.793	90.3177	112.793	90.3567	112.793	90.3158	112.793	90.3571	112.793	90.3194	112.793	90.3648	112.793	90.333	112.793	90.384	112.793	90.3601	112.793	90.4166	112.793	90.4016	112.793	90.4608	112.793	90.4539	112.793	90.5107	112.793	90.5098	112.793	90.5575	112.793	90.5595	112.793	90.5914	112.793	90.5933	112.793	90.6046
117.188	91.0633	117.188	91.0674	117.188	91.0689	117.188	91.0805	117.188	91.0831	117.188	91.1007	117.188	91.1036	117.188	91.1247	117.188	91.1269	117.188	91.1488	117.188	91.1493	117.188	91.1689	117.188	91.167	117.188	91.1819	117.188	91.1772	117.188	91.1857	117.188	91.1791	117.188	91.1803	117.188	91.1733	117.188	91.1679	117.188	91.163	117.188	91.1527	117.188	91.1525	117.188	91.1399	117.188	91.1464	117.188	91.1344	117.188	91.1481	117.188	91.1389	117.188	91.1581	117.188	91.1525	117.188	91.1737	117.188	91.1712	117.188	91.1894	117.188	91.1888	117.188	91.1993	117.188	91.1993
120.117	91.2684	120.117	91.2702	120.117	91.2809	120.117	91.2852	120.117	91.3061	120.117	91.3108	120.117	91.341	120.117	91.3425	120.117	91.3806	120.117	91.3746	120.117	91.4196	120.117	91.4017	120.117	91.4527	120.117	91.4189	120.117	91.4754	120.117	91.423	120.117	91.4851	120.117	91.4133	120.117	91.4814	120.117	91.3919	120.117	91.4662	120.117	91.3633	120.117	91.4434	120.117	91.3339	120.117	91.4179	120.117	91.3099	120.117	91.3946	120.117	91.2961	120.117	91.3762	120.117	91.2939	120.117	91.3631	120.117	91.3018	120.117	91.3529	120.117	91.3153	120.117	91.3426	120.117	91.33
124.512	91.1749	124.512	91.1704	124.512	91.2	124.512	91.1859	124.512	91.2435	124.512	91.2182	124.512	91.3009	124.512	91.262	124.512	91.3657	124.512	91.3103	124.512	91.4305	124.512	91.3559	124.512	91.4878	124.512	91.392	124.512	91.5309	124.512	91.4132	124.512	91.5548	124.512	91.4167	124.512	91.557	124.512	91.4022	124.512	91.5378	124.512	91.3727	124.512	91.5004	124.512	91.3334	124.512	91.4504	124.512	91.2911	124.512	91.3947	124.512	91.2524	124.512	91.3401	124.512	91.2228	124.512	91.2919	124.512	91.2052	124.512	91.2531	124.512	91.2001	124.512	91.2247	124.512	91.2069
128.906	90.735	128.906	90.7408	128.906	90.7558	128.906	90.772	128.906	90.8008	128.906	90.8244	128.906	90.8647	128.906	90.8912	128.906	90.9397	128.906	90.9639	128.906	91.0166	128.906	91.033	128.906	91.0858	128.906	91.0898	128.906	91.1385	128.906	91.1268	128.906	91.1678	128.906	91.139	128.906	91.1694	128.906	91.1243	128.906	91.1426	128.906	91.0842	128.906	91.0902	128.906	91.0233	128.906	91.0186	128.906	90.9494	128.906	90.9368	128.906	90.8715	128.906	90.855	128.906	90.7991	128.906	90.7828	128.906	90.7404	128.906	90.7276	128.906	90.7013	128.906	90.6944	128.906	90.6855
133.301	90.1005	133.301	90.1191	133.301	90.1132	133.301	90.1671	133.301	90.1549	133.301	90.239	133.301	90.22	133.301	90.3265	133.301	90.2998	133.301	90.4194	133.301	90.384	133.301	90.5064	133.301	90.4612	133.301	90.577	133.301	90.5211	133.301	90.6221	133.301	90.5548	133.301	90.6351	133.301	90.5564	133.301	90.6128	133.301	90.5237	133.301	90.556	133.301	90.4588	133.301	90.4695	133.301	90.3679	133.301	90.3621	133.301	90.2615	133.301	90.2454	133.301	90.1526	133.301	90.1326	133.301	90.0548	133.301	90.0366	133.301	89.9805	133.301	89.968	133.301	89.9386	133.301	89.9342
139.16	89.0597	139.16	89.0871	139.16	89.0683	139.16	89.1482	139.16	89.1108	139.16	89.2367	139.16	89.1811	139.16	89.3431	139.16	89.2699	139.16	89.4556	139.16	89.3654	139.16	89.5615	139.16	89.4551	139.16	89.6484	139.16	89.5266	139.16	89.7055	139.16	89.5695	139.16	89.7243	139.16	89.5757	139.16	89.7002	139.16	89.5415	139.16	89.6327	139.16	89.4678	139.16	89.5262	139.16	89.3608	139.16	89.3905	139.16	89.232	139.16	89.2396	139.16	89.097	139.16	89.0909	139.16	88.9733	139.16	88.9618	139.16	88.8779	139.16	88.868	139.16	88.8243	139.16	88.8205
143.555	88.3423	143.555	88.3602	143.555	88.3643	143.555	88.4162	143.555	88.4236	143.555	88.5038	143.555	88.5129	143.555	88.6128	143.555	88.6215	143.555	88.7304	143.555	88.7362	143.555	88.8426	143.555	88.8429	143.555	88.9356	143.555	88.9278	143.555	88.9968	143.555	88.9791	143.555	89.0167	143.555	88.988	143.555	88.9896	143.555	88.9499	143.555	88.9147	143.555	88.8655	143.555	88.7968	143.555	88.7411	143.555	88.6467	143.555	88.5888	143.555	88.4807	143.555	88.4256	143.555	88.3184	143.555	88.2715	143.555	88.1807	143.555	88.1466	143.555	88.0859	143.555	88.0679	143.555	88.0466
147.949	87.7277	147.949	87.7361	147.949	87.76	147.949	87.7839	147.949	87.8295	147.949	87.865	147.949	87.9283	147.949	87.9696	147.949	88.045	147.949	88.0847	147.949	88.1655	147.949	88.1956	147.949	88.2745	147.949	88.2875	147.949	88.3572	147.949	88.3467	147.949	88.4009	147.949	88.3623	147.949	88.3962	147.949	88.3275	147.949	88.3383	147.949	88.2407	147.949	88.2283	147.949	88.1064	147.949	88.0734	147.949	87.9356	147.949	87.8873	147.949	87.7454	147.949	87.6897	147.949	87.5577	147.949	87.5039	147.949	87.3964	147.949	87.3539	147.949	87.2836	147.949	87.2601	147.949	87.2356
153.809	87.0047	153.809	87.0174	153.809	87.0324	153.809	87.0687	153.809	87.0974	153.809	87.1524	153.809	87.192	153.809	87.258	153.809	87.3047	153.809	87.3725	153.809	87.4212	153.809	87.481	153.809	87.5258	153.809	87.5687	153.809	87.6033	153.809	87.6218	153.809	87.6404	153.809	87.6293	153.809	87.6274	153.809	87.5842	153.809	87.5593	153.809	87.4846	153.809	87.4368	153.809	87.3346	153.809	87.2671	153.809	87.145	153.809	87.0643	153.809	86.9335	153.809	86.8489	153.809	86.7233	153.809	86.6458	153.809	86.5409	153.809	86.4815	153.809	86.4116	153.809	86.3794	153.809	86.3549
159.668	86.4532	159.668	86.4697	159.668	86.4807	159.668	86.529	159.668	86.5483	159.668	86.6248	159.668	86.6475	159.668	86.746	159.668	86.7661	159.668	86.8781	159.668	86.8893	159.668	87.0042	159.668	87.0012	159.668	87.1074	159.668	87.0861	159.668	87.172	159.668	87.1304	159.668	87.1856	159.668	87.1234	159.668	87.1399	159.668	87.0589	159.668	87.0326	159.668	86.9364	159.668	86.8679	159.668	86.762	159.668	86.6576	159.668	86.5491	159.668	86.4212	159.668	86.3186	159.668	86.1851	159.668	86.0972	159.668	85.9796	159.668	85.9152	159.668	85.8342	159.668	85.8001	159.668	85.7712
165.527	86.024	165.527	86.0235	165.527	86.0692	165.527	86.0679	165.527	86.1543	165.527	86.1525	165.527	86.2706	165.527	86.2679	165.527	86.4055	165.527	86.4005	165.527	86.5439	165.527	86.5336	165.527	86.6695	165.527	86.6491	165.527	86.7656	165.527	86.7295	165.527	86.8175	165.527	86.7598	165.527	86.8134	165.527	86.7296	165.527	86.7464	165.527	86.634	165.527	86.6157	165.527	86.4758	165.527	86.4275	165.527	86.266	165.527	86.1965	165.527	86.0245	165.527	85.9453	165.527	85.7793	165.527	85.7036	165.527	85.5634	165.527	85.5041	165.527	85.4098	165.527	85.3773	165.527	85.3439
171.387	85.6063	171.387	85.5793	171.387	85.6738	171.387	85.593	171.387	85.7774	171.387	85.6431	171.387	85.9087	171.387	85.7216	171.387	86.0555	171.387	85.8164	171.387	86.2024	171.387	85.9124	171.387	86.3322	171.387	85.9929	171.387	86.4276	171.387	86.0409	171.387	86.4727	171.387	86.0416	171.387	86.4546	171.387	85.9838	171.387	86.3654	171.387	85.8627	171.387	86.2033	171.387	85.6807	171.387	85.9745	171.387	85.4499	171.387	85.6939	171.387	85.192	171.387	85.3857	171.387	84.9382	171.387	85.0824	171.387	84.7253	171.387	84.8209	171.387	84.5892	171.387	84.6369	171.387	84.5564
177.246	85.1894	177.246	85.2089	177.246	85.2067	177.246	85.2626	177.246	85.2598	177.246	85.3446	177.246	85.3435	177.246	85.445	177.246	85.4483	177.246	85.551	177.246	85.5609	177.246	85.6474	177.246	85.6648	177.246	85.7178	177.246	85.7419	177.246	85.7463	177.246	85.7749	177.246	85.7196	177.246	85.7491	177.246	85.6284	177.246	85.6543	177.246	85.4691	177.246	85.4876	177.246	85.2457	177.246	85.2541	177.246	84.9712	177.246	84.9692	177.246	84.6683	177.246	84.6582	177.246	84.3696	177.246	84.3555	177.246	84.1135	177.246	84.1004	177.246	83.9384	177.246	83.9307	177.246	83.8736
183.105	84.637	183.105	84.6801	183.105	84.6354	183.105	84.7623	183.105	84.674	183.105	84.8774	183.105	84.7476	183.105	85.0153	183.105	84.8466	183.105	85.1616	183.105	84.9571	183.105	85.299	183.105	85.0612	183.105	85.4085	183.105	85.1394	183.105	85.4717	183.105	85.1722	183.105	85.4729	183.105	85.1434	183.105	85.4013	183.105	85.0424	183.105	85.2519	183.105	84.8663	183.105	85.0275	183.105	84.6225	183.105	84.7395	183.105	84.3298	183.105	84.4095	183.105	84.0185	183.105	84.069	183.105	83.7283	183.105	83.7575	183.105	83.5029	183.105	83.5174	183.105	83.3806	183.105	83.3849
188.965	84.4276	188.965	84.4559	188.965	84.4308	188.965	84.5156	188.965	84.4631	188.965	84.6038	188.965	84.5199	188.965	84.7141	188.965	84.5934	188.965	84.8353	188.965	84.6728	188.965	84.9522	188.965	84.7443	188.965	85.0463	188.965	84.792	188.965	85.0987	188.965	84.7998	188.965	85.0921	188.965	84.7532	188.965	85.014	188.965	84.6417	188.965	84.8581	188.965	84.4612	188.965	84.6263	188.965	84.2162	188.965	84.3303	188.965	83.9225	188.965	83.9921	188.965	83.608	188.965	83.6439	188.965	83.3118	188.965	83.3263	188.965	83.0786	188.965	83.0827	188.965	82.9496	188.965	82.9501
196.289	84.1788	196.289	84.1928	196.289	84.1897	196.289	84.2321	196.289	84.2237	196.289	84.2952	196.289	84.2774	196.289	84.3774	196.289	84.3437	196.289	84.4699	196.289	84.4121	196.289	84.5585	196.289	84.468	196.289	84.6252	196.289	84.4945	196.289	84.6503	196.289	84.4745	196.289	84.616	196.289	84.3933	196.289	84.5087	196.289	84.241	196.289	84.3225	196.289	84.0155	196.289	84.0601	196.289	83.7243	196.289	83.735	196.289	83.3868	196.289	83.3716	196.289	83.0345	196.289	83.0046	196.289	82.7084	196.289	82.6761	196.289	82.4536	196.289	82.4296	196.289	82.3097	196.289	82.3008
203.613	83.9127	203.613	83.8945	203.613	83.9464	203.613	83.8914	203.613	83.9958	203.613	83.9032	203.613	84.0599	203.613	83.9291	203.613	84.1342	203.613	83.965	203.613	84.2096	203.613	84.0018	203.613	84.2716	203.613	84.0248	203.613	84.3021	203.613	84.0152	203.613	84.2818	203.613	83.9536	203.613	84.1928	203.613	83.8246	203.613	84.0223	203.613	83.6201	203.613	83.7654	203.613	83.342	203.613	83.4285	203.613	83.0043	203.613	83.0313	203.613	82.633	203.613	82.6087	203.613	82.2649	203.613	82.2078	203.613	81.9444	203.613	81.8814	203.613	81.7169	203.613	81.6762	203.613	81.6204
210.938	83.6861	210.938	83.668	210.938	83.726	210.938	83.6701	210.938	83.7867	210.938	83.6887	210.938	83.8644	210.938	83.7181	210.938	83.9514	210.938	83.7497	210.938	84.0366	210.938	83.7718	210.938	84.1048	210.938	83.7696	210.938	84.1384	210.938	83.7264	210.938	84.1195	210.938	83.6263	210.938	84.0317	210.938	83.4576	210.938	83.8634	210.938	83.217	210.938	83.6102	210.938	82.9108	210.938	83.2775	210.938	82.5572	210.938	82.8824	210.938	82.185	210.938	82.455	210.938	81.8326	210.938	82.0375	210.938	81.5437	210.938	81.6793	210.938	81.3614	210.938	81.4283	210.938	81.3184
218.262	83.2249	218.262	83.2401	218.262	83.2282	218.262	83.2713	218.262	83.2512	218.262	83.3151	218.262	83.293	218.262	83.3662	218.262	83.3491	218.262	83.4176	218.262	83.4112	218.262	83.4593	218.262	83.4671	218.262	83.4784	218.262	83.5022	218.262	83.4604	218.262	83.5012	218.262	83.3912	218.262	83.4501	218.262	83.2597	218.262	83.3382	218.262	83.062	218.262	83.1605	218.262	82.8038	218.262	82.9196	218.262	82.5025	218.262	82.6283	218.262	82.1861	218.262	82.3103	218.262	81.8902	218.262	81.9987	218.262	81.6519	218.262	81.7319	218.262	81.5034	218.262	81.5456	218.262	81.4659
225.586	83.271	225.586	83.3233	225.586	83.2246	225.586	83.3819	225.586	83.1837	225.586	83.4464	225.586	83.1482	225.586	83.5135	225.586	83.1175	225.586	83.5762	225.586	83.0882	225.586	83.6232	225.586	83.0536	225.586	83.6394	225.586	83.003	225.586	83.6078	225.586	82.9236	225.586	83.5117	225.586	82.8032	225.586	83.3389	225.586	82.6333	225.586	83.0854	225.586	82.412	225.586	82.759	225.586	82.1468	225.586	82.3811	225.586	81.8552	225.586	81.985	225.586	81.5632	225.586	81.6113	225.586	81.3016	225.586	81.3003	225.586	81.1008	225.586	81.0833	225.586	80.9866	225.586	80.9778
232.91	83.2455	232.91	83.2373	232.91	83.2491	232.91	83.2309	232.91	83.2423	232.91	83.232	232.91	83.2208	232.91	83.2427	232.91	83.1806	232.91	83.2587	232.91	83.1159	232.91	83.2693	232.91	83.0191	232.91	83.2582	232.91	82.8807	232.91	83.2059	232.91	82.6915	232.91	83.0928	232.91	82.445	232.91	82.9033	232.91	82.1408	232.91	82.6293	232.91	81.7876	232.91	82.2751	232.91	81.4051	232.91	81.8605	232.91	81.0243	232.91	81.4206	232.91	80.6821	232.91	80.9996	232.91	80.4125	232.91	80.6408	232.91	80.2391	232.91	80.3754	232.91	80.1732	232.91	80.2183
241.699	82.8303	241.699	82.8129	241.699	82.8487	241.699	82.798	241.699	82.8686	241.699	82.7886	241.699	82.891	241.699	82.7859	241.699	82.9141	241.699	82.7864	241.699	82.9303	241.699	82.7796	241.699	82.9246	241.699	82.7479	241.699	82.8765	241.699	82.6694	241.699	82.7635	241.699	82.5221	241.699	82.5661	241.699	82.2885	241.699	82.2725	241.699	81.961	241.699	81.8834	241.699	81.547	241.699	81.4158	241.699	81.0722	241.699	80.9061	241.699	80.5812	241.699	80.407	241.699	80.1294	241.699	79.9761	241.699	79.7688	241.699	79.6586	241.699	79.5332	241.699	79.4769	241.699	79.4352
250.488	83.049	250.488	83.039	250.488	83.0322	250.488	83.0024	250.488	82.9923	250.488	82.9427	250.488	82.9358	250.488	82.8645	250.488	82.8694	250.488	82.7713	250.488	82.7969	250.488	82.6633	250.488	82.7158	250.488	82.5355	250.488	82.6155	250.488	82.3782	250.488	82.4791	250.488	82.1772	250.488	82.2861	250.488	81.9174	250.488	82.0184	250.488	81.5866	250.488	81.6661	250.488	81.1831	250.488	81.2336	250.488	80.7215	250.488	80.7439	250.488	80.2372	250.488	80.2394	250.488	79.782	250.488	79.7753	250.488	79.4126	250.488	79.406	250.488	79.1743	250.488	79.1711	250.488	79.0917
259.277	82.9388	259.277	82.9467	259.277	82.901	259.277	82.9264	259.277	82.8353	259.277	82.882	259.277	82.7462	259.277	82.8173	259.277	82.639	259.277	82.733	259.277	82.5167	259.277	82.6241	259.277	82.3778	259.277	82.4811	259.277	82.2161	259.277	82.2927	259.277	82.021	259.277	82.0498	259.277	81.7801	259.277	81.7497	259.277	81.4832	259.277	81.3972	259.277	81.1273	259.277	81.006	259.277	80.7236	259.277	80.598	259.277	80.3012	259.277	80.2014	259.277	79.9044	259.277	79.8464	259.277	79.5798	259.277	79.5597	259.277	79.3593	259.277	79.3595	259.277	79.2526	259.277	79.2552
268.066	82.8692	268.066	82.813	268.066	82.8881	268.066	82.723	268.066	82.8689	268.066	82.6046	268.066	82.8123	268.066	82.464	268.066	82.7195	268.066	82.3049	268.066	82.5902	268.066	82.1261	268.066	82.4213	268.066	81.9201	268.066	82.2072	268.066	81.6753	268.066	81.9415	268.066	81.3819	268.066	81.6196	268.066	81.0392	268.066	81.2416	268.066	80.6612	268.066	80.8144	268.066	80.2757	268.066	80.3535	268.066	79.9145	268.066	79.8861	268.066	79.5999	268.066	79.4534	268.066	79.3371	268.066	79.1049	268.066	79.1205	268.066	78.8819	268.066	78.9475	268.066	78.7967	268.066	78.8301
276.855	82.8959	276.855	82.8994	276.855	82.8576	276.855	82.8599	276.855	82.7988	276.855	82.7776	276.855	82.7339	276.855	82.6597	276.855	82.67	276.855	82.5149	276.855	82.601	276.855	82.3457	276.855	82.5037	276.855	82.1442	276.855	82.3422	276.855	81.8924	276.855	82.078	276.855	81.5676	276.855	81.6856	276.855	81.15	276.855	81.1671	276.855	80.6347	276.855	80.561	276.855	80.0463	276.855	79.939	276.855	79.4508	276.855	79.3854	276.855	78.9434	276.855	78.9614	276.855	78.6001	276.855	78.681	276.855	78.4285	276.855	78.5174	276.855	78.3764	276.855	78.4297	276.855	78.3856
287.109	82.3822	287.109	82.4078	287.109	82.341	287.109	82.4142	287.109	82.285	287.109	82.3946	287.109	82.2137	287.109	82.3408	287.109	82.1266	287.109	82.2458	287.109	82.0242	287.109	82.1057	287.109	81.9067	287.109	81.9188	287.109	81.7705	287.109	81.6828	287.109	81.6034	287.109	81.3927	287.109	81.3848	287.109	81.0431	287.109	81.0934	287.109	80.6339	287.109	80.7209	287.109	80.1786	287.109	80.2879	287.109	79.7139	287.109	79.8494	287.109	79.3006	287.109	79.4786	287.109	79.0061	287.109	79.225	287.109	78.8659	287.109	79.0802	287.109	78.857	287.109	78.9921	287.109	78.9166
297.363	83.0123	297.363	83.0546	297.363	82.9183	297.363	83.0602	297.363	82.7586	297.363	83.0381	297.363	82.5251	297.363	82.9871	297.363	82.2188	297.363	82.8954	297.363	81.8501	297.363	82.7447	297.363	81.4386	297.363	82.5163	297.363	81.0106	297.363	82.1964	297.363	80.5907	297.363	81.7816	297.363	80.1893	297.363	81.2836	297.363	79.7974	297.363	80.7335	297.363	79.3979	297.363	80.1828	297.363	78.9885	297.363	79.6946	297.363	78.6005	297.363	79.3196	297.363	78.2967	297.363	79.0668	297.363	78.1427	297.363	78.8924	297.363	78.1642	297.363	78.7288	297.363	78.3216	297.363	78.5332
307.617	82.8424	307.617	82.748	307.617	82.8827	307.617	82.6004	307.617	82.8745	307.617	82.4107	307.617	82.8228	307.617	82.1968	307.617	82.7257	307.617	81.9744	307.617	82.5714	307.617	81.7461	307.617	82.3399	307.617	81.4981	307.617	82.0092	307.617	81.2049	307.617	81.563	307.617	80.8415	307.617	80.9988	307.617	80.393	307.617	80.3351	307.617	79.8613	307.617	79.6184	307.617	79.2699	307.617	78.9279	307.617	78.6721	307.617	78.3665	307.617	78.153	307.617	78.0178	307.617	77.8053	307.617	77.8833	307.617	77.6727	307.617	77.8716	307.617	77.7083	307.617	77.8663	307.617	77.8042
319.336	82.7416	319.336	82.7008	319.336	82.7006	319.336	82.5812	319.336	82.579	319.336	82.3868	319.336	82.3843	319.336	82.1207	319.336	82.1296	319.336	81.7857	319.336	81.8304	319.336	81.386	319.336	81.4992	319.336	80.9276	319.336	81.1421	319.336	80.4164	319.336	80.7576	319.336	79.8571	319.336	80.3396	319.336	79.2645	319.336	79.8837	319.336	78.6825	319.336	79.3984	319.336	78.1915	319.336	78.9171	319.336	77.8754	319.336	78.4993	319.336	77.7605	319.336	78.2059	319.336	77.7928	319.336	78.0564	319.336	77.8834	319.336	78.0134	319.336	77.9641	319.336	78.014	319.336	78.0067
329.59	82.5331	329.59	82.5196	329.59	82.5183	329.59	82.4799	329.59	82.4676	329.59	82.4089	329.59	82.3692	329.59	82.2946	329.59	82.2081	329.59	82.1196	329.59	81.9679	329.59	81.8628	329.59	81.6332	329.59	81.503	329.59	81.1927	329.59	81.0215	329.59	80.6426	329.59	80.4086	329.59	79.9895	329.59	79.6721	329.59	79.2562	329.59	78.858	329.59	78.4943	329.59	78.0781	329.59	77.7966	329.59	77.5106	329.59	77.2926	329.59	77.3034	329.59	77.0923	329.59	77.4286	329.59	77.1978	329.59	77.6939	329.59	77.4818	329.59	77.8987	329.59	77.7707	329.59	77.9303
341.309	82.5509	341.309	82.563	341.309	82.4615	341.309	82.5017	341.309	82.2981	341.309	82.3756	341.309	82.0694	341.309	82.1932	341.309	81.7813	341.309	81.9573	341.309	81.4261	341.309	81.659	341.309	80.9782	341.309	81.2746	341.309	80.4057	341.309	80.7693	341.309	79.6956	341.309	80.1074	341.309	78.8833	341.309	79.271	341.309	78.0703	341.309	78.2851	341.309	77.4075	341.309	77.2573	341.309	77.0261	341.309	76.4153	341.309	76.9546	341.309	76.038	341.309	77.1075	341.309	76.2064	341.309	77.3504	341.309	76.6917	341.309	77.5586	341.309	77.1903	341.309	77.6374	341.309	77.5225
353.027	82.6432	353.027	82.6517	353.027	82.5983	353.027	82.6203	353.027	82.5155	353.027	82.5406	353.027	82.3891	353.027	82.3993	353.027	82.211	353.027	82.1795	353.027	81.9676	353.027	81.8637	353.027	81.631	353.027	81.4348	353.027	81.1494	353.027	80.8737	353.027	80.4476	353.027	80.1573	353.027	79.444	353.027	79.267	353.027	78.0889	353.027	78.2192	353.027	76.4497	353.027	77.1203	353.027	74.8889	353.027	76.2166	353.027	74.1274	353.027	75.811	353.027	74.5034	353.027	75.9757	353.027	75.4439	353.027	76.4466	353.027	76.327	353.027	76.8842	353.027	76.8891	353.027	77.0665
366.211	83.3038	366.211	83.2048	366.211	83.344	366.211	83.0482	366.211	83.3296	366.211	82.8426	366.211	83.2615	366.211	82.5946	366.211	83.1296	366.211	82.2952	366.211	82.9146	366.211	81.9122	366.211	82.5921	366.211	81.3971	366.211	82.1341	366.211	80.7009	366.211	81.5008	366.211	79.79	366.211	80.633	366.211	78.6641	366.211	79.4504	366.211	77.3865	366.211	77.8728	366.211	76.1335	366.211	75.9078	366.211	75.2137	366.211	73.943	366.211	74.9078	366.211	73.0683	366.211	75.1802	366.211	73.7749	366.211	75.7011	366.211	74.98	366.211	76.1271	366.211	75.8598	366.211	76.2261
379.395	83.5996	379.395	83.6317	379.395	83.5606	379.395	83.6331	379.395	83.534	379.395	83.5838	379.395	83.525	379.395	83.4696	379.395	83.5172	379.395	83.2764	379.395	83.4725	379.395	82.9785	379.395	83.3392	379.395	82.5324	379.395	83.0606	379.395	81.8806	379.395	82.5769	379.395	80.9578	379.395	81.8266	379.395	79.6941	379.395	80.7521	379.395	78.0279	379.395	79.3141	379.395	75.9833	379.395	77.5328	379.395	73.9389	379.395	75.615	379.395	72.9263	379.395	74.1844	379.395	73.4634	379.395	73.9676	379.395	74.5624	379.395	74.6593	379.395	75.3824	379.395	75.3818	379.395	75.6651
392.578	83.2018	392.578	83.2316	392.578	83.1797	392.578	83.2803	392.578	83.1477	392.578	83.343	392.578	83.0959	392.578	83.4001	392.578	83.0222	392.578	83.4251	392.578	82.9198	392.578	83.3831	392.578	82.768	392.578	83.2231	392.578	82.5343	392.578	82.875	392.578	82.1773	392.578	82.257	392.578	81.6385	392.578	81.285	392.578	80.8389	392.578	79.8772	392.578	79.6982	392.578	77.9732	392.578	78.1932	392.578	75.6595	392.578	76.4913	392.578	73.6182	392.578	75.1345	392.578	73.1967	392.578	74.7555	392.578	74.1874	392.578	75.1656	392.578	75.2153	392.578	75.6382	392.578	75.7124
405.762	83.1954	405.762	83.148	405.762	83.1739	405.762	83.0527	405.762	83.0855	405.762	82.9471	405.762	82.9479	405.762	82.8713	405.762	82.7756	405.762	82.8501	405.762	82.5603	405.762	82.8719	405.762	82.2637	405.762	82.8719	405.762	81.8321	405.762	82.743	405.762	81.224	405.762	82.3716	405.762	80.4269	405.762	81.6704	405.762	79.4472	405.762	80.5883	405.762	78.2876	405.762	79.1088	405.762	76.9696	405.762	77.2788	405.762	75.6521	405.762	75.3437	405.762	74.7347	405.762	73.9654	405.762	74.5486	405.762	73.7846	405.762	74.8448	405.762	74.3832	405.762	75.0849	405.762	74.9395
420.41	82.9867	420.41	82.9498	420.41	82.9808	420.41	82.8875	420.41	82.9446	420.41	82.8257	420.41	82.9177	420.41	82.7694	420.41	82.9356	420.41	82.6942	420.41	82.9893	420.41	82.5611	420.41	83.0075	420.41	82.334	420.41	82.8762	420.41	81.9703	420.41	82.4784	420.41	81.3934	420.41	81.7233	420.41	80.4862	420.41	80.5556	420.41	79.1351	420.41	78.9501	420.41	77.3481	420.41	76.9213	420.41	75.505	420.41	74.65	420.41	74.5014	420.41	72.9075	420.41	74.7401	420.41	72.8644	420.41	75.4503	420.41	74.0608	420.41	75.9173	420.41	75.2296	420.41	75.8697
435.059	82.6196	435.059	82.6839	435.059	82.5098	435.059	82.6881	435.059	82.386	435.059	82.6417	435.059	82.2795	435.059	82.5643	435.059	82.2106	435.059	82.4605	435.059	82.1871	435.059	82.3095	435.059	82.1923	435.059	82.0764	435.059	82.161	435.059	81.7219	435.059	81.9733	435.059	81.1944	435.059	81.487	435.059	80.416	435.059	80.5854	435.059	79.2848	435.059	79.2293	435.059	77.7081	435.059	77.5447	435.059	75.732	435.059	75.9768	435.059	73.9707	435.059	75.2195	435.059	73.7352	435.059	75.4442	435.059	74.892	435.059	76.0781	435.059	76.0501	435.059	76.5699	435.059	76.6158
451.172	83.6644	451.172	83.5055	451.172	83.6716	451.172	83.2305	451.172	83.542	451.172	82.9205	451.172	83.3386	451.172	82.6866	451.172	83.1388	451.172	82.6165	451.172	82.9817	451.172	82.6926	451.172	82.8477	451.172	82.7729	451.172	82.679	451.172	82.6691	451.172	82.3901	451.172	82.2358	451.172	81.8551	451.172	81.3954	451.172	80.9081	451.172	80.0919	451.172	79.3673	451.172	78.2197	451.172	77.076	451.172	75.6635	451.172	74.111	451.172	72.8789	451.172	71.7683	451.172	72.0372	451.172	72.2037	451.172	73.4219	451.172	73.828	451.172	74.7179	451.172	74.9219	451.172	75.2219
465.82	83.2521	465.82	83.3268	465.82	83.1224	465.82	83.3056	465.82	82.9838	465.82	83.1757	465.82	82.876	465.82	82.9696	465.82	82.833	465.82	82.7599	465.82	82.8689	465.82	82.6155	465.82	82.9453	465.82	82.5226	465.82	82.9644	465.82	82.3505	465.82	82.8086	465.82	81.9195	465.82	82.3722	465.82	81.0884	465.82	81.5502	465.82	79.7886	465.82	80.2075	465.82	78.0237	465.82	78.1841	465.82	75.9014	465.82	75.4746	465.82	73.839	465.82	73.0654	465.82	72.8572	465.82	73.0701	465.82	73.4922	465.82	74.4686	465.82	74.6807	465.82	75.39	465.82	75.4351
483.398	82.8305	483.398	82.7561	483.398	82.766	483.398	82.5671	483.398	82.599	483.398	82.3412	483.398	82.4194	483.398	82.1855	483.398	82.3275	483.398	82.178	483.398	82.3622	483.398	82.3066	483.398	82.4734	483.398	82.4682	483.398	82.5581	483.398	82.5118	483.398	82.4968	483.398	82.2701	483.398	82.1609	483.398	81.5673	483.398	81.4051	483.398	80.2146	483.398	80.0641	483.398	77.993	483.398	77.9552	483.398	74.7101	483.398	74.9462	483.398	71.108	483.398	71.6001	483.398	70.9271	483.398	70.8452	483.398	73.1393	483.398	72.7787	483.398	74.6198	483.398	74.3995	483.398	75.022
499.512	83.8239	499.512	83.7412	499.512	83.7124	499.512	83.4912	499.512	83.3811	499.512	83.0863	499.512	82.8546	499.512	82.5543	499.512	82.2543	499.512	81.9871	499.512	81.7732	499.512	81.5396	499.512	81.5369	499.512	81.3299	499.512	81.4911	499.512	81.3222	499.512	81.4694	499.512	81.3363	499.512	81.295	499.512	81.1379	499.512	80.7929	499.512	80.492	499.512	79.7772	499.512	79.1674	499.512	78.0695	499.512	76.9383	499.512	75.5653	499.512	73.7316	499.512	72.6821	499.512	70.9963	499.512	71.6708	499.512	72.0407	499.512	73.2939	499.512	74.1908	499.512	74.825	499.512	75.1827
517.09	84.1277	517.09	84.0452	517.09	83.9649	517.09	83.7603	517.09	83.581	517.09	83.357	517.09	83.0585	517.09	82.9199	517.09	82.5023	517.09	82.5118	517.09	82.01	517.09	82.1689	517.09	81.6496	517.09	81.8888	517.09	81.419	517.09	81.6169	517.09	81.2206	517.09	81.2521	517.09	80.9101	517.09	80.6619	517.09	80.3637	517.09	79.7021	517.09	79.4735	517.09	78.239	517.09	78.0942	517.09	76.1705	517.09	76.0377	517.09	73.531	517.09	73.2532	517.09	71.1229	517.09	70.6393	517.09	70.8478	517.09	70.4267	517.09	71.958	517.09	71.7357	517.09	72.4233
536.133	84.2444	536.133	84.1506	536.133	84.0992	536.133	83.809	536.133	83.7511	536.133	83.2618	536.133	83.2583	536.133	82.6385	536.133	82.6983	536.133	82.1587	536.133	82.1557	536.133	81.9999	536.133	81.6943	536.133	82.0912	536.133	81.3017	536.133	82.1505	536.133	80.84	536.133	81.9047	536.133	80.0912	536.133	81.1668	536.133	78.8748	536.133	79.7762	536.133	77.1278	536.133	77.5753	536.133	74.9064	536.133	74.5979	536.133	72.5164	536.133	71.789	536.133	71.3786	536.133	71.0899	536.133	72.6674	536.133	72.1898	536.133	74.3256	536.133	73.6116	536.133	75.0214	536.133	74.6872
555.176	84.2619	555.176	84.1902	555.176	84.1383	555.176	83.9354	555.176	83.835	555.176	83.5305	555.176	83.3889	555.176	82.9939	555.176	82.8762	555.176	82.3294	555.176	82.4378	555.176	81.6283	555.176	82.2397	555.176	81.1552	555.176	82.345	555.176	81.1056	555.176	82.6066	555.176	81.2485	555.176	82.6976	555.176	81.14	555.176	82.2446	555.176	80.4833	555.176	80.9466	555.176	79.1323	555.176	78.6373	555.176	76.9202	555.176	75.3266	555.176	73.5978	555.176	71.3123	555.176	69.9513	555.176	68.2178	555.176	70.1736	555.176	69.2441	555.176	72.1288	555.176	71.5731	555.176	72.6597
574.219	85.016	574.219	84.9512	574.219	84.8019	574.219	84.592	574.219	84.3209	574.219	83.9576	574.219	83.6155	574.219	83.1781	574.219	82.816	574.219	82.5019	574.219	82.1395	574.219	82.1258	574.219	81.7814	574.219	81.9919	574.219	81.7653	574.219	81.8916	574.219	81.9314	574.219	81.7079	574.219	82.0607	574.219	81.3975	574.219	81.9324	574.219	80.7886	574.219	81.3071	574.219	79.5395	574.219	79.9301	574.219	77.2725	574.219	77.5251	574.219	73.6359	574.219	73.7328	574.219	68.5488	574.219	68.4648	574.219	65.8577	574.219	66.4798	574.219	68.2935	574.219	68.8969	574.219	69.6743
594.727	85.33	594.727	85.3086	594.727	85.2061	594.727	85.1287	594.727	84.9141	594.727	84.7536	594.727	84.3994	594.727	84.1357	594.727	83.6061	594.727	83.2475	594.727	82.5366	594.727	82.1682	594.727	81.3373	594.727	81.2022	594.727	80.361	594.727	80.7562	594.727	80.0111	594.727	80.8315	594.727	80.2696	594.727	80.9923	594.727	80.6139	594.727	80.8502	594.727	80.5192	594.727	80.2173	594.727	79.7317	594.727	79.0355	594.727	78.2346	594.727	77.339	594.727	76.1869	594.727	75.3561	594.727	74.0335	594.727	73.7604	594.727	72.6773	594.727	73.1329	594.727	72.5666	594.727	72.9041
615.234	84.4416	615.234	84.3839	615.234	84.3888	615.234	84.245	615.234	84.2073	615.234	83.9875	615.234	83.9201	615.234	83.5456	615.234	83.5183	615.234	82.9119	615.234	82.9359	615.234	82.1434	615.234	82.1172	615.234	81.334	615.234	81.0559	615.234	80.5731	615.234	79.7766	615.234	79.8512	615.234	78.3986	615.234	79.1515	615.234	77.3018	615.234	78.6945	615.234	76.9268	615.234	78.6004	615.234	77.0955	615.234	78.3992	615.234	77.2672	615.234	77.6636	615.234	77.2123	615.234	76.6613	615.234	76.9993	615.234	76.1171	615.234	76.8004	615.234	76.2269	615.234	76.6814	615.234	76.5135
637.207	84.5316	637.207	84.4441	637.207	84.398	637.207	84.1564	637.207	84.0586	637.207	83.7576	637.207	83.5431	637.207	83.3483	637.207	82.9386	637.207	82.9559	637.207	82.3778	637.207	82.5381	637.207	81.9298	637.207	82.0453	637.207	81.5381	637.207	81.446	637.207	81.0416	637.207	80.6872	637.207	80.2724	637.207	79.6223	637.207	79.2305	637.207	78.0467	637.207	78.0614	637.207	76.0637	637.207	76.759	637.207	74.7332	637.207	75.4531	637.207	75.12	637.207	75.0729	637.207	76.3001	637.207	75.9343	637.207	77.3547	637.207	77.0332	637.207	78.0268	637.207	77.8244	637.207	78.186
659.18	84.6088	659.18	84.5666	659.18	84.4334	659.18	84.2579	659.18	84.0693	659.18	83.7011	659.18	83.5486	659.18	83.0911	659.18	82.9546	659.18	82.6617	659.18	82.4314	659.18	82.3753	659.18	82.1083	659.18	82.0095	659.18	81.9285	659.18	81.4364	659.18	81.6444	659.18	80.6531	659.18	80.9838	659.18	79.6614	659.18	79.6648	659.18	78.2928	659.18	77.4384	659.18	76.1944	659.18	74.5347	659.18	73.6476	659.18	72.7533	659.18	73.6196	659.18	73.7986	659.18	76.1621	659.18	75.8584	659.18	78.1662	659.18	77.5095	659.18	79.0766	659.18	78.5619	659.18	79.1142
682.617	85.2553	682.617	85.1883	682.617	85.0614	682.617	84.9109	682.617	84.6353	682.617	84.4376	682.617	84.0866	682.617	83.7629	682.617	83.5283	682.617	83.0734	682.617	83.0419	682.617	82.7102	682.617	82.6867	682.617	82.71	682.617	82.4707	682.617	82.7305	682.617	82.28	682.617	82.3852	682.617	81.8918	682.617	81.4108	682.617	80.9943	682.617	79.7391	682.617	79.1762	682.617	77.4484	682.617	75.9787	682.617	74.7072	682.617	71.5492	682.617	72.7136	682.617	71.6165	682.617	73.8653	682.617	75.6521	682.617	76.3738	682.617	78.2722	682.617	78.2582	682.617	79.364	682.617	79.2748
707.52	86.4638	707.52	86.2499	707.52	86.3582	707.52	85.7155	707.52	85.882	707.52	84.9357	707.52	84.9742	707.52	84.0064	707.52	83.7987	707.52	82.9087	707.52	82.7667	707.52	81.762	707.52	82.1008	707.52	81.1072	707.52	81.6683	707.52	81.2208	707.52	81.4916	707.52	81.5304	707.52	81.5594	707.52	81.3875	707.52	81.2894	707.52	80.324	707.52	79.9789	707.52	77.8168	707.52	76.9473	707.52	73.502	707.52	71.0345	707.52	71.3376	707.52	68.0769	707.52	75.1831	707.52	74.47	707.52	78.4548	707.52	78.2488	707.52	80.3267	707.52	80.2624	707.52	80.9193
732.422	86.375	732.422	86.3167	732.422	86.1874	732.422	85.9889	732.422	85.7278	732.422	85.3314	732.422	84.9474	732.422	84.3723	732.422	83.8298	732.422	83.2848	732.422	82.5611	732.422	82.3277	732.422	81.6132	732.422	81.8258	732.422	81.2987	732.422	81.8208	732.422	81.3352	732.422	81.8408	732.422	81.25	732.422	81.3788	732.422	80.7956	732.422	80.0952	732.422	79.7375	732.422	77.6531	732.422	77.4909	732.422	73.2662	732.422	72.939	732.422	65.3118	732.422	66.6265	732.422	71.6237	732.422	71.9294	732.422	76.9056	732.422	76.068	732.422	78.9188	732.422	78.111	732.422	79.0752
757.324	86.2903	757.324	86.2573	757.324	86.0128	757.324	85.8488	757.324	85.5824	757.324	85.0913	757.324	85.0289	757.324	84.0289	757.324	84.1537	757.324	82.865	757.324	82.8453	757.324	81.9677	757.324	81.6033	757.324	81.4866	757.324	81.2355	757.324	81.4745	757.324	81.495	757.324	81.736	757.324	81.474	757.324	81.5399	757.324	80.5892	757.324	80.3379	757.324	78.8424	757.324	77.6434	757.324	76.4512	757.324	72.0029	757.324	72.1629	757.324	63.5252	757.324	62.8871	757.324	71.161	757.324	71.4727	757.324	75.0629	757.324	76.7751	757.324	77.3829	757.324	78.8027	757.324	78.7921
785.156	86.1037	785.156	85.9801	785.156	85.8061	785.156	85.4328	785.156	85.1409	785.156	84.6614	785.156	84.1366	785.156	83.7641	785.156	82.9733	785.156	82.4468	785.156	81.7495	785.156	80.6192	785.156	80.3834	785.156	79.4599	785.156	79.9138	785.156	79.8527	785.156	80.9877	785.156	80.4743	785.156	81.5289	785.156	80.7083	785.156	80.6596	785.156	80.2772	785.156	78.8775	785.156	78.4053	785.156	76.3672	785.156	74.3291	785.156	71.9859	785.156	67.7048	785.156	63.2461	785.156	67.5511	785.156	70.6951	785.156	73.9125	785.156	76.305	785.156	77.3396	785.156	78.5477	785.156	78.7831
811.523	87.1095	811.523	86.8646	811.523	86.9287	811.523	86.3691	811.523	86.1811	811.523	85.5315	811.523	85.0439	811.523	84.2523	811.523	83.8388	811.523	82.6899	811.523	82.6473	811.523	80.8253	811.523	81.2077	811.523	78.7342	811.523	79.625	811.523	78.229	811.523	79.6271	811.523	79.557	811.523	81.1978	811.523	80.4002	811.523	82.2206	811.523	80.4126	811.523	81.9723	811.523	79.5977	811.523	79.9904	811.523	76.7808	811.523	75.6923	811.523	70.073	811.523	68.8591	811.523	70.8866	811.523	68.5338	811.523	76.6169	811.523	74.9631	811.523	79.5716	811.523	78.9423	811.523	80.4157
840.82	86.2425	840.82	86.173	840.82	86.2449	840.82	85.9888	840.82	86.0951	840.82	85.4513	840.82	85.6833	840.82	84.4012	840.82	84.8388	840.82	83.0265	840.82	83.4058	840.82	81.72	840.82	81.4662	840.82	80.7213	840.82	79.7057	840.82	80.0998	840.82	79.1272	840.82	79.998	840.82	78.7958	840.82	80.4794	840.82	77.655	840.82	80.5433	840.82	77.2615	840.82	78.9809	840.82	77.1525	840.82	75.0114	840.82	74.0027	840.82	67.1726	840.82	60.6326	840.82	68.3257	840.82	70.1769	840.82	75.4443	840.82	75.2775	840.82	78.2561	840.82	77.5094	840.82	78.6105
870.117	86.2225	870.117	86.1077	870.117	85.7858	870.117	85.5244	870.117	85.0493	870.117	84.8019	870.117	84.258	870.117	83.9148	870.117	83.2924	870.117	82.3782	870.117	81.8755	870.117	80.1012	870.117	80.2804	870.117	78.1948	870.117	79.6308	870.117	77.7537	870.117	80.5285	870.117	78.215	870.117	81.8088	870.117	78.7093	870.117	82.091	870.117	78.7339	870.117	81.1431	870.117	77.5083	870.117	79.4553	870.117	73.5592	870.117	76.2262	870.117	62.4826	870.117	68.13	870.117	65.0069	870.117	69.0641	870.117	73.4555	870.117	75.8853	870.117	77.6224	870.117	78.6896	870.117	79.2698
900.879	86.7815	900.879	86.7311	900.879	86.5775	900.879	86.4501	900.879	86.0959	900.879	85.7837	900.879	85.4065	900.879	84.6836	900.879	84.442	900.879	83.3279	900.879	83.1157	900.879	81.7325	900.879	81.5547	900.879	79.7524	900.879	79.8365	900.879	77.9644	900.879	78.7667	900.879	77.9126	900.879	79.7087	900.879	79.2587	900.879	80.54	900.879	80.2662	900.879	79.9078	900.879	79.6862	900.879	77.9037	900.879	76.8429	900.879	74.1152	900.879	71.2705	900.879	68.3627	900.879	66.2475	900.879	74.2535	900.879	74.048	900.879	77.9788	900.879	78.3454	900.879	79.5128	900.879	79.8472
933.105	86.0474	933.105	85.9191	933.105	85.9929	933.105	85.5824	933.105	85.8099	933.105	85.3183	933.105	85.0964	933.105	84.7322	933.105	83.8692	933.105	83.2569	933.105	82.3419	933.105	80.8998	933.105	79.7418	933.105	78.2529	933.105	75.8006	933.105	76.892	933.105	74.4442	933.105	77.5087	933.105	76.486	933.105	79.1117	933.105	79.1451	933.105	80.2321	933.105	80.5192	933.105	79.6084	933.105	79.202	933.105	76.4216	933.105	75.1018	933.105	68.8577	933.105	67.9634	933.105	66.085	933.105	69.3566	933.105	74.2148	933.105	76.1832	933.105	77.5971	933.105	78.806	933.105	79.062
965.332	85.7301	965.332	85.5145	965.332	85.3163	965.332	84.8166	965.332	84.5393	965.332	84.1559	965.332	83.6082	965.332	83.7098	965.332	82.4084	965.332	82.8313	965.332	80.9897	965.332	80.8468	965.332	79.4894	965.332	77.5942	965.332	77.7412	965.332	73.1467	965.332	76.5769	965.332	67.8265	965.332	76.5256	965.332	72.4615	965.332	75.6126	965.332	75.8066	965.332	75.49	965.332	75.8298	965.332	76.0599	965.332	73.2641	965.332	72.4198	965.332	65.8132	965.332	63.3721	965.332	64.7302	965.332	75.1172	965.332	75.4642	965.332	78.3581	965.332	79.8039	965.332	79.7875	965.332	80.6924
1,000.49	84.9033	1,000.49	84.6759	1,000.49	84.9722	1,000.49	84.4284	1,000.49	84.5842	1,000.49	83.9847	1,000.49	83.955	1,000.49	83.5086	1,000.49	83.1755	1,000.49	82.9389	1,000.49	81.6866	1,000.49	81.381	1,000.49	79.2758	1,000.49	78.1161	1,000.49	76.293	1,000.49	75.6093	1,000.49	74.5374	1,000.49	76.1122	1,000.49	76.3498	1,000.49	76.3112	1,000.49	78.2626	1,000.49	77.0099	1,000.49	78.9847	1,000.49	77.7479	1,000.49	78.0695	1,000.49	76.3034	1,000.49	74.7031	1,000.49	71.6045	1,000.49	67.5866	1,000.49	69.7331	1,000.49	72.7975	1,000.49	76.122	1,000.49	77.279	1,000.49	79.5223	1,000.49	79.2777	1,000.49	80.2402
1,035.64	84.2686	1,035.64	84.4547	1,035.64	84.0141	1,035.64	84.3737	1,035.64	83.5137	1,035.64	83.9063	1,035.64	82.8251	1,035.64	83.561	1,035.64	81.991	1,035.64	83.0671	1,035.64	81.1833	1,035.64	81.8397	1,035.64	80.2693	1,035.64	80.1048	1,035.64	77.881	1,035.64	77.6578	1,035.64	73.0265	1,035.64	73.2476	1,035.64	74.4833	1,035.64	69.9146	1,035.64	77.8817	1,035.64	73.7863	1,035.64	79.2381	1,035.64	76.2111	1,035.64	78.049	1,035.64	75.6687	1,035.64	73.8251	1,035.64	71.3017	1,035.64	67.8358	1,035.64	60.7925	1,035.64	73.3834	1,035.64	73.501	1,035.64	77.6882	1,035.64	79.0646	1,035.64	79.4268	1,035.64	80.3222
1,072.27	84.6612	1,072.27	84.6659	1,072.27	84.4565	1,072.27	84.1836	1,072.27	83.7685	1,072.27	83.0787	1,072.27	83.1755	1,072.27	82.2786	1,072.27	82.7635	1,072.27	81.6025	1,072.27	81.5794	1,072.27	80.6503	1,072.27	80.1997	1,072.27	79.3515	1,072.27	78.2476	1,072.27	76.822	1,072.27	73.4543	1,072.27	72.404	1,072.27	70.8719	1,072.27	72.5416	1,072.27	72.919	1,072.27	75.5994	1,072.27	75.723	1,072.27	76.7636	1,072.27	77.8225	1,072.27	76.7217	1,072.27	76.6603	1,072.27	74.4464	1,072.27	72.9105	1,072.27	69.6254	1,072.27	72.8815	1,072.27	75.0671	1,072.27	76.572	1,072.27	78.8752	1,072.27	78.5141	1,072.27	79.3155
1,108.89	82.5985	1,108.89	83.1436	1,108.89	82.8054	1,108.89	82.7768	1,108.89	82.922	1,108.89	81.4349	1,108.89	81.5182	1,108.89	80.9108	1,108.89	79.6521	1,108.89	81.2314	1,108.89	78.5416	1,108.89	80.9677	1,108.89	77.9002	1,108.89	79.6945	1,108.89	77.073	1,108.89	77.5071	1,108.89	74.2955	1,108.89	73.9044	1,108.89	69.8656	1,108.89	69.1298	1,108.89	72.2729	1,108.89	71.0489	1,108.89	73.4365	1,108.89	73.9866	1,108.89	73.5639	1,108.89	74.1347	1,108.89	72.8354	1,108.89	72.1631	1,108.89	70.3512	1,108.89	70.3498	1,108.89	73.2785	1,108.89	73.6722	1,108.89	76.4511	1,108.89	78.7367	1,108.89	78.2923	1,108.89	79.8684
1,148.44	84.0467	1,148.44	83.5563	1,148.44	83.8062	1,148.44	83.7073	1,148.44	82.6128	1,148.44	82.9755	1,148.44	81.1554	1,148.44	80.9253	1,148.44	79.5043	1,148.44	80.5795	1,148.44	78.944	1,148.44	80.8545	1,148.44	79.2633	1,148.44	80.0854	1,148.44	78.5355	1,148.44	79.4655	1,148.44	75.2035	1,148.44	78.2921	1,148.44	68.5431	1,148.44	73.8539	1,148.44	71.2254	1,148.44	72.3809	1,148.44	72.5944	1,148.44	75.7023	1,148.44	72.2666	1,148.44	77.2345	1,148.44	71.1992	1,148.44	74.9104	1,148.44	73.091	1,148.44	68.2141	1,148.44	75.4063	1,148.44	71.8035	1,148.44	75.343	1,148.44	75.2055	1,148.44	75.0071	1,148.44	75.4706
1,189.45	84.3074	1,189.45	83.8086	1,189.45	83.9264	1,189.45	83.0347	1,189.45	83.4152	1,189.45	82.42	1,189.45	82.6767	1,189.45	80.7821	1,189.45	81.6048	1,189.45	79.221	1,189.45	79.9489	1,189.45	79.1654	1,189.45	78.4405	1,189.45	78.8411	1,189.45	77.6133	1,189.45	76.5652	1,189.45	75.8705	1,189.45	73.5249	1,189.45	72.1255	1,189.45	71.4086	1,189.45	58.7251	1,189.45	72.3708	1,189.45	69.3357	1,189.45	75.5482	1,189.45	72.6224	1,189.45	75.948	1,189.45	73.1572	1,189.45	73.8175	1,189.45	74.1466	1,189.45	71.844	1,189.45	72.8951	1,189.45	72.5939	1,189.45	71.8169	1,189.45	73.7166	1,189.45	74.3961	1,189.45	74.9349
1,230.47	84.4183	1,230.47	83.873	1,230.47	83.6434	1,230.47	82.8691	1,230.47	82.819	1,230.47	81.7051	1,230.47	82.2976	1,230.47	79.5665	1,230.47	80.5784	1,230.47	77.7047	1,230.47	79.1695	1,230.47	77.5661	1,230.47	78.8846	1,230.47	76.5424	1,230.47	77.6601	1,230.47	75.1874	1,230.47	76.5837	1,230.47	75.0142	1,230.47	73.6772	1,230.47	72.0225	1,230.47	70.1311	1,230.47	69.8122	1,230.47	64.5341	1,230.47	74.6722	1,230.47	69.782	1,230.47	76.0903	1,230.47	73.5807	1,230.47	75.3723	1,230.47	73.3755	1,230.47	74.4777	1,230.47	73.7345	1,230.47	73.2013	1,230.47	73.7031	1,230.47	74.9106	1,230.47	73.7634	1,230.47	74.9801
1,274.41	84.5004	1,274.41	84.2556	1,274.41	84.0966	1,274.41	83.2332	1,274.41	83.5131	1,274.41	82.0332	1,274.41	82.4545	1,274.41	80.7358	1,274.41	81.0759	1,274.41	78.6996	1,274.41	79.5282	1,274.41	75.8442	1,274.41	77.765	1,274.41	74.2866	1,274.41	75.4459	1,274.41	72.6361	1,274.41	71.9652	1,274.41	71.154	1,274.41	69.4274	1,274.41	69.9531	1,274.41	60.5384	1,274.41	59.4573	1,274.41	66.7213	1,274.41	67.3924	1,274.41	72.8432	1,274.41	71.606	1,274.41	75.5649	1,274.41	74.1439	1,274.41	75.8744	1,274.41	73.3888	1,274.41	73.8307	1,274.41	73.577	1,274.41	70.7697	1,274.41	74.1866	1,274.41	73.2634	1,274.41	74.3894
1,319.82	82.4374	1,319.82	82.1793	1,319.82	82.3688	1,319.82	81.5559	1,319.82	81.6787	1,319.82	81.1239	1,319.82	80.4952	1,319.82	80.2229	1,319.82	78.8182	1,319.82	78.8942	1,319.82	77.5539	1,319.82	77.9433	1,319.82	76.5171	1,319.82	76.1304	1,319.82	76.3691	1,319.82	75.6512	1,319.82	75.4811	1,319.82	74.9758	1,319.82	73.9882	1,319.82	69.2082	1,319.82	71.3782	1,319.82	62.1024	1,319.82	55.2711	1,319.82	57.24	1,319.82	71.1219	1,319.82	67.521	1,319.82	71.5977	1,319.82	71.9825	1,319.82	72.7335	1,319.82	74.5464	1,319.82	72.637	1,319.82	74.3073	1,319.82	70.5416	1,319.82	73.5168	1,319.82	69.3457	1,319.82	71.4864
1,366.7	82.5486	1,366.7	82.251	1,366.7	81.9215	1,366.7	81.9718	1,366.7	81.1254	1,366.7	80.9391	1,366.7	80.5816	1,366.7	80.2383	1,366.7	78.9433	1,366.7	79.209	1,366.7	77.5585	1,366.7	77.3481	1,366.7	76.9676	1,366.7	76.0765	1,366.7	75.3573	1,366.7	75.7874	1,366.7	74.9604	1,366.7	74.2562	1,366.7	74.3783	1,366.7	73.5011	1,366.7	72.7881	1,366.7	71.7943	1,366.7	72.6794	1,366.7	68.0938	1,366.7	64.5483	1,366.7	66.1447	1,366.7	71.1054	1,366.7	71.6516	1,366.7	72.5154	1,366.7	71.2581	1,366.7	71.0251	1,366.7	70.5401	1,366.7	68.1612	1,366.7	69.8814	1,366.7	65.0379	1,366.7	63.788
1,413.57	81.6652	1,413.57	82.2857	1,413.57	81.6269	1,413.57	81.9508	1,413.57	81.4051	1,413.57	81.6071	1,413.57	79.7844	1,413.57	80.2647	1,413.57	79.1174	1,413.57	78.7283	1,413.57	77.9036	1,413.57	77.3569	1,413.57	75.4735	1,413.57	75.9559	1,413.57	75.241	1,413.57	74.0883	1,413.57	75.8337	1,413.57	73.1332	1,413.57	74.5109	1,413.57	71.8137	1,413.57	70.8785	1,413.57	68.9296	1,413.57	60.0806	1,413.57	70.3922	1,413.57	64.1295	1,413.57	66.343	1,413.57	61.6568	1,413.57	71.5876	1,413.57	66.7375	1,413.57	71.7918	1,413.57	69.0414	1,413.57	69.576	1,413.57	66.567	1,413.57	67.5237	1,413.57	64.3983	1,413.57	66.1966
1,463.38	82.3988	1,463.38	82.1918	1,463.38	82.0024	1,463.38	82.421	1,463.38	81.2893	1,463.38	80.6212	1,463.38	80.4538	1,463.38	79.1234	1,463.38	79.0906	1,463.38	78.28	1,463.38	77.8693	1,463.38	77.1894	1,463.38	76.6927	1,463.38	76.0218	1,463.38	76.4196	1,463.38	74.9366	1,463.38	74.0566	1,463.38	74.5573	1,463.38	73.4011	1,463.38	73.2256	1,463.38	73.6188	1,463.38	71.3255	1,463.38	73.1457	1,463.38	71.0305	1,463.38	67.7136	1,463.38	68.9999	1,463.38	71.0335	1,463.38	67.6169	1,463.38	70.6979	1,463.38	71.1481	1,463.38	67.5948	1,463.38	70.2929	1,463.38	64.8984	1,463.38	67.3646	1,463.38	63.4979	1,463.38	63.7404
1,516.11	81.4185	1,516.11	81.1453	1,516.11	81.4615	1,516.11	80.3817	1,516.11	81.2195	1,516.11	79.823	1,516.11	79.9091	1,516.11	78.8973	1,516.11	78.4352	1,516.11	78.2147	1,516.11	76.9857	1,516.11	75.8278	1,516.11	74.3415	1,516.11	75.7303	1,516.11	70.8686	1,516.11	75.0109	1,516.11	72.5674	1,516.11	73.7063	1,516.11	72.7445	1,516.11	71.264	1,516.11	71.9029	1,516.11	70.6829	1,516.11	68.9726	1,516.11	68.1619	1,516.11	69.8397	1,516.11	70.4266	1,516.11	66.9144	1,516.11	71.7932	1,516.11	68.9836	1,516.11	70.4342	1,516.11	67.203	1,516.11	67.1592	1,516.11	64.4914	1,516.11	59.0001	1,516.11	61.3106	1,516.11	62.7654
1,568.85	82.113	1,568.85	81.8352	1,568.85	81.8406	1,568.85	81.5122	1,568.85	80.8527	1,568.85	79.8885	1,568.85	80.2857	1,568.85	78.7576	1,568.85	79.4102	1,568.85	77.088	1,568.85	77.0844	1,568.85	76.7983	1,568.85	76.1714	1,568.85	75.1669	1,568.85	75.6017	1,568.85	73.8109	1,568.85	74.4112	1,568.85	72.1028	1,568.85	73.2763	1,568.85	70.0914	1,568.85	71.4833	1,568.85	70.1696	1,568.85	69.9272	1,568.85	68.7112	1,568.85	66.427	1,568.85	66.4329	1,568.85	69.6167	1,568.85	62.8272	1,568.85	65.6305	1,568.85	65.4025	1,568.85	66.8774	1,568.85	62.4749	1,568.85	66.1062	1,568.85	46.7526	1,568.85	59.4587	1,568.85	49.777
1,624.51	82.6761	1,624.51	82.8334	1,624.51	82.4759	1,624.51	82.1524	1,624.51	82.4159	1,624.51	81.5229	1,624.51	81.0639	1,624.51	80.2111	1,624.51	79.5527	1,624.51	79.2053	1,624.51	78.465	1,624.51	77.2641	1,624.51	78.3431	1,624.51	75.2681	1,624.51	75.831	1,624.51	75.8499	1,624.51	74.1576	1,624.51	75.8306	1,624.51	73.7767	1,624.51	72.9609	1,624.51	72.5207	1,624.51	71.4984	1,624.51	72.3862	1,624.51	69.4756	1,624.51	74.204	1,624.51	68.9463	1,624.51	73.4854	1,624.51	71.5984	1,624.51	73.0551	1,624.51	66.3786	1,624.51	70.5076	1,624.51	63.5526	1,624.51	68.732	1,624.51	64.9823	1,624.51	65.7421	1,624.51	64.9871
1,681.64	84.5939	1,681.64	84.119	1,681.64	83.932	1,681.64	83.6689	1,681.64	83.1707	1,681.64	82.6527	1,681.64	83.2972	1,681.64	81.8833	1,681.64	82.0441	1,681.64	80.9719	1,681.64	80.9756	1,681.64	78.49	1,681.64	78.1004	1,681.64	77.903	1,681.64	78.1569	1,681.64	77.0158	1,681.64	76.2101	1,681.64	76.6442	1,681.64	72.8871	1,681.64	72.0282	1,681.64	75.5938	1,681.64	71.6213	1,681.64	74.2225	1,681.64	68.7095	1,681.64	69.5995	1,681.64	66.3737	1,681.64	63.3178	1,681.64	64.0087	1,681.64	67.6903	1,681.64	68.1288	1,681.64	65.9926	1,681.64	65.2083	1,681.64	66.0092	1,681.64	62.122	1,681.64	61.0017	1,681.64	58.6844
1,741.7	85.187	1,741.7	85.3947	1,741.7	84.7779	1,741.7	84.1546	1,741.7	83.4517	1,741.7	83.3568	1,741.7	82.6863	1,741.7	83.127	1,741.7	82.4418	1,741.7	80.8885	1,741.7	79.7988	1,741.7	79.0345	1,741.7	78.5363	1,741.7	76.1154	1,741.7	78.9078	1,741.7	74.8282	1,741.7	78.397	1,741.7	71.8695	1,741.7	77.419	1,741.7	73.7006	1,741.7	73.4705	1,741.7	70.9896	1,741.7	66.6701	1,741.7	69.7356	1,741.7	70.6935	1,741.7	69.8585	1,741.7	70.708	1,741.7	66.7878	1,741.7	70.954	1,741.7	69.7173	1,741.7	67.2498	1,741.7	67.5069	1,741.7	64.9397	1,741.7	65.1962	1,741.7	69.3974	1,741.7	66.252
1,803.22	85.0035	1,803.22	84.4238	1,803.22	85.1097	1,803.22	84.5903	1,803.22	84.0497	1,803.22	83.5658	1,803.22	82.6082	1,803.22	81.7507	1,803.22	80.9745	1,803.22	81.3459	1,803.22	78.7973	1,803.22	77.7708	1,803.22	78.8158	1,803.22	78.5032	1,803.22	77.4433	1,803.22	78.5882	1,803.22	75.4285	1,803.22	78.4327	1,803.22	70.8979	1,803.22	75.787	1,803.22	71.7154	1,803.22	71.0809	1,803.22	75.2667	1,803.22	72.9382	1,803.22	74.2221	1,803.22	71.6057	1,803.22	72.7784	1,803.22	71.63	1,803.22	69.6234	1,803.22	71.7258	1,803.22	70.8269	1,803.22	67.4317	1,803.22	63.0126	1,803.22	62.0609	1,803.22	60.4359	1,803.22	65.5249
1,866.21	83.7498	1,866.21	83.992	1,866.21	83.8903	1,866.21	84.201	1,866.21	83.2055	1,866.21	82.8764	1,866.21	81.8335	1,866.21	81.9267	1,866.21	80.5094	1,866.21	81.1582	1,866.21	80.2617	1,866.21	80.3057	1,866.21	77.9598	1,866.21	78.6049	1,866.21	75.9651	1,866.21	75.6882	1,866.21	73.2783	1,866.21	76.2619	1,866.21	72.0673	1,866.21	73.9916	1,866.21	72.0152	1,866.21	70.6491	1,866.21	69.0831	1,866.21	71.741	1,866.21	69.5256	1,866.21	68.6824	1,866.21	68.3505	1,866.21	68.6257	1,866.21	69.115	1,866.21	67.1461	1,866.21	67.5988	1,866.21	56.4594	1,866.21	67.1575	1,866.21	67.1774	1,866.21	67.2537	1,866.21	49.4099
1,932.13	84.0819	1,932.13	83.9429	1,932.13	83.8079	1,932.13	82.9957	1,932.13	83.12	1,932.13	81.9997	1,932.13	81.5682	1,932.13	81.1477	1,932.13	80.6817	1,932.13	80.3328	1,932.13	79.5138	1,932.13	78.6034	1,932.13	78.2511	1,932.13	76.691	1,932.13	75.6507	1,932.13	76.1948	1,932.13	74.6894	1,932.13	75.5481	1,932.13	74.6877	1,932.13	74.0325	1,932.13	71.7252	1,932.13	69.8493	1,932.13	71.238	1,932.13	71.6492	1,932.13	70.4608	1,932.13	70.0744	1,932.13	67.593	1,932.13	70.8356	1,932.13	68.1601	1,932.13	68.6536	1,932.13	67.0079	1,932.13	68.2699	1,932.13	64.0279	1,932.13	63.7684	1,932.13	63.6973	1,932.13	62.1662
1,999.51	84.301	1,999.51	83.929	1,999.51	83.8976	1,999.51	83.4376	1,999.51	83.3317	1,999.51	82.2154	1,999.51	82.1618	1,999.51	81.0184	1,999.51	81.051	1,999.51	79.9481	1,999.51	80.0819	1,999.51	79.0616	1,999.51	79.15	1,999.51	76.8675	1,999.51	77.5816	1,999.51	74.3506	1,999.51	75.7489	1,999.51	73.3224	1,999.51	73.2215	1,999.51	72.4585	1,999.51	72.88	1,999.51	70.2276	1,999.51	69.4932	1,999.51	68.5302	1,999.51	69.6958	1,999.51	69.2771	1,999.51	69.1473	1,999.51	65.5464	1,999.51	68.7098	1,999.51	64.3286	1,999.51	68.0446	1,999.51	64.7875	1,999.51	67.9891	1,999.51	63.169	1,999.51	65.2715	1,999.51	63.8972
2,069.82	84.4377	2,069.82	84.4726	2,069.82	84.1431	2,069.82	83.6581	2,069.82	83.1648	2,069.82	82.6132	2,069.82	82.2084	2,069.82	81.3974	2,069.82	81.0504	2,069.82	80.1395	2,069.82	79.9486	2,069.82	79.2124	2,069.82	79.0716	2,069.82	77.4956	2,069.82	77.7982	2,069.82	75.6133	2,069.82	75.6099	2,069.82	74.0131	2,069.82	75.3126	2,069.82	72.9186	2,069.82	73.0977	2,069.82	70.0224	2,069.82	70.1201	2,069.82	68.7537	2,069.82	68.9966	2,069.82	69.0274	2,069.82	69.193	2,069.82	68.2722	2,069.82	67.0503	2,069.82	67.2709	2,069.82	66.0648	2,069.82	66.4967	2,069.82	64.2984	2,069.82	66.9595	2,069.82	65.3672	2,069.82	67.0894
2,143.07	83.9209	2,143.07	83.8143	2,143.07	83.5342	2,143.07	83.2885	2,143.07	82.9455	2,143.07	82.6373	2,143.07	81.9572	2,143.07	81.6844	2,143.07	80.7629	2,143.07	80.4314	2,143.07	79.6129	2,143.07	78.9793	2,143.07	78.4767	2,143.07	78.1916	2,143.07	76.7923	2,143.07	76.1699	2,143.07	75.2458	2,143.07	74.306	2,143.07	73.3927	2,143.07	72.8926	2,143.07	72.5206	2,143.07	71.044	2,143.07	69.6944	2,143.07	67.9232	2,143.07	69.0172	2,143.07	70.3132	2,143.07	68.5241	2,143.07	69.3654	2,143.07	67.4834	2,143.07	66.6737	2,143.07	65.2961	2,143.07	65.1096	2,143.07	66.8062	2,143.07	66.2891	2,143.07	67.4568	2,143.07	66.3961
2,219.24	82.6199	2,219.24	82.3784	2,219.24	82.2421	2,219.24	82.1016	2,219.24	81.6851	2,219.24	81.4772	2,219.24	80.7685	2,219.24	80.9836	2,219.24	79.8264	2,219.24	79.859	2,219.24	78.4373	2,219.24	78.8513	2,219.24	76.8763	2,219.24	77.5289	2,219.24	75.6082	2,219.24	76.4809	2,219.24	73.971	2,219.24	74.0774	2,219.24	70.8863	2,219.24	73.5286	2,219.24	71.4298	2,219.24	72.4671	2,219.24	69.4983	2,219.24	70.0115	2,219.24	65.1385	2,219.24	67.7294	2,219.24	67.6609	2,219.24	69.4035	2,219.24	67.4229	2,219.24	64.9648	2,219.24	64.1476	2,219.24	64.437	2,219.24	62.4265	2,219.24	67.641	2,219.24	66.8794	2,219.24	68.83
2,296.88	81.5901	2,296.88	81.4755	2,296.88	81.1082	2,296.88	80.7142	2,296.88	80.6107	2,296.88	80.3369	2,296.88	79.9394	2,296.88	79.612	2,296.88	79.3147	2,296.88	78.5844	2,296.88	78.3192	2,296.88	77.8901	2,296.88	77.0129	2,296.88	76.9384	2,296.88	75.6406	2,296.88	74.3721	2,296.88	73.3228	2,296.88	72.9661	2,296.88	71.5376	2,296.88	71.4777	2,296.88	69.8095	2,296.88	70.6277	2,296.88	70.3225	2,296.88	69.2466	2,296.88	66.6936	2,296.88	67.6941	2,296.88	66.179	2,296.88	67.9737	2,296.88	66.9741	2,296.88	68.034	2,296.88	64.3475	2,296.88	64.3995	2,296.88	57.5816	2,296.88	65.8663	2,296.88	65.3596	2,296.88	67.7041
2,378.91	80.5148	2,378.91	80.5081	2,378.91	80.6531	2,378.91	80.0253	2,378.91	80.0928	2,378.91	79.465	2,378.91	80.086	2,378.91	78.885	2,378.91	79.2699	2,378.91	78.4457	2,378.91	78.8747	2,378.91	77.1814	2,378.91	77.6946	2,378.91	75.4567	2,378.91	76.3196	2,378.91	75.1533	2,378.91	74.4813	2,378.91	72.8058	2,378.91	73.6405	2,378.91	70.4997	2,378.91	70.759	2,378.91	68.8904	2,378.91	70.2426	2,378.91	66.9617	2,378.91	69.8059	2,378.91	64.5024	2,378.91	67.3603	2,378.91	66.8944	2,378.91	68.125	2,378.91	67.2333	2,378.91	66.3721	2,378.91	61.9292	2,378.91	64.4476	2,378.91	64.4806	2,378.91	64.8394	2,378.91	65.1149
2,462.4	80.8903	2,462.4	80.9326	2,462.4	80.9505	2,462.4	81.0192	2,462.4	81.0377	2,462.4	80.8425	2,462.4	80.8214	2,462.4	80.3093	2,462.4	80.3805	2,462.4	79.6765	2,462.4	79.5074	2,462.4	78.3031	2,462.4	77.8958	2,462.4	76.8891	2,462.4	76.2078	2,462.4	74.813	2,462.4	74.9928	2,462.4	73.4737	2,462.4	72.9013	2,462.4	70.9567	2,462.4	70.5706	2,462.4	69.5871	2,462.4	70.3128	2,462.4	69.7226	2,462.4	69.5108	2,462.4	67.4877	2,462.4	67.3782	2,462.4	66.7294	2,462.4	68.5247	2,462.4	66.6916	2,462.4	68.3765	2,462.4	61.0465	2,462.4	61.6774	2,462.4	60.6605	2,462.4	63.5318	2,462.4	67.0845
2,548.83	79.9988	2,548.83	80.4438	2,548.83	79.9372	2,548.83	80.1808	2,548.83	80.4651	2,548.83	80.8498	2,548.83	79.9101	2,548.83	80.2368	2,548.83	79.8683	2,548.83	79.2719	2,548.83	78.5307	2,548.83	78.2926	2,548.83	77.1136	2,548.83	77.1783	2,548.83	75.7058	2,548.83	74.4583	2,548.83	73.6697	2,548.83	73.2865	2,548.83	71.6791	2,548.83	72.3176	2,548.83	70.751	2,548.83	68.5428	2,548.83	68.2	2,548.83	70.1893	2,548.83	70.0949	2,548.83	68.2657	2,548.83	67.461	2,548.83	67.6171	2,548.83	67.6178	2,548.83	70.3697	2,548.83	67.713	2,548.83	67.3852	2,548.83	65.1324	2,548.83	61.4083	2,548.83	66.5818	2,548.83	66.2786
2,639.65	78.6643	2,639.65	78.8486	2,639.65	78.4137	2,639.65	79.4088	2,639.65	78.9292	2,639.65	80.107	2,639.65	79.2421	2,639.65	80.2193	2,639.65	79.2799	2,639.65	79.1819	2,639.65	78.4476	2,639.65	77.8796	2,639.65	77.3217	2,639.65	76.1079	2,639.65	75.4129	2,639.65	74.4708	2,639.65	73.6262	2,639.65	72.2501	2,639.65	72.3948	2,639.65	70.8722	2,639.65	72.331	2,639.65	71.223	2,639.65	67.0852	2,639.65	69.2502	2,639.65	66.9007	2,639.65	70.1621	2,639.65	69.0319	2,639.65	68.1449	2,639.65	65.896	2,639.65	68.9349	2,639.65	67.5122	2,639.65	64.3236	2,639.65	65.3308	2,639.65	66.7843	2,639.65	64.7331	2,639.65	70.175
2,731.93	77.1555	2,731.93	77.4185	2,731.93	79.2992	2,731.93	79.1444	2,731.93	78.7408	2,731.93	79.2799	2,731.93	80.3117	2,731.93	80.2826	2,731.93	80.0372	2,731.93	80.9323	2,731.93	79.6682	2,731.93	78.5693	2,731.93	78.0973	2,731.93	76.6442	2,731.93	76.6193	2,731.93	77.2315	2,731.93	74.9306	2,731.93	72.9589	2,731.93	73.567	2,731.93	72.3991	2,731.93	72.5709	2,731.93	71.0485	2,731.93	68.8773	2,731.93	68.2182	2,731.93	70.0044	2,731.93	68.6193	2,731.93	70.996	2,731.93	68.2192	2,731.93	70.0959	2,731.93	72.0216	2,731.93	70.539	2,731.93	70.627	2,731.93	67.902	2,731.93	67.306	2,731.93	67.6218	2,731.93	70.2649
2,828.61	79.7692	2,828.61	79.9573	2,828.61	80.3271	2,828.61	80.4581	2,828.61	81.621	2,828.61	81.7376	2,828.61	82.3255	2,828.61	82.3202	2,828.61	82.2776	2,828.61	82.0343	2,828.61	81.5007	2,828.61	80.5444	2,828.61	80.4221	2,828.61	79.4719	2,828.61	78.5635	2,828.61	77.8785	2,828.61	76.1337	2,828.61	75.55	2,828.61	73.9124	2,828.61	73.7656	2,828.61	72.2994	2,828.61	73.8511	2,828.61	73.6185	2,828.61	70.0512	2,828.61	70.7273	2,828.61	72.564	2,828.61	72.4509	2,828.61	70.6638	2,828.61	72.3714	2,828.61	71.2704	2,828.61	72.8962	2,828.61	69.8372	2,828.61	70.1924	2,828.61	69.1674	2,828.61	69.7394	2,828.61	70.0064
2,928.22	81.8891	2,928.22	82.2105	2,928.22	82.1317	2,928.22	82.4063	2,928.22	83.5883	2,928.22	83.2927	2,928.22	83.6655	2,928.22	83.2311	2,928.22	83.7622	2,928.22	82.6103	2,928.22	82.8153	2,928.22	81.7056	2,928.22	81.3783	2,928.22	81.0954	2,928.22	79.4556	2,928.22	78.1456	2,928.22	78.3444	2,928.22	76.7944	2,928.22	76.3077	2,928.22	75.2014	2,928.22	74.1569	2,928.22	73.2663	2,928.22	73.2339	2,928.22	70.7852	2,928.22	70.3634	2,928.22	73.1917	2,928.22	73.0174	2,928.22	72.8815	2,928.22	71.2988	2,928.22	72.1411	2,928.22	73.3938	2,928.22	74.0017	2,928.22	70.333	2,928.22	66.3621	2,928.22	69.2125	2,928.22	71.8471
3,030.76	81.9765	3,030.76	82.4431	3,030.76	81.7822	3,030.76	83.4348	3,030.76	83.6637	3,030.76	84.1365	3,030.76	83.6546	3,030.76	84.0247	3,030.76	83.3515	3,030.76	81.9693	3,030.76	82.634	3,030.76	82.1894	3,030.76	81.5398	3,030.76	79.9771	3,030.76	79.1248	3,030.76	77.182	3,030.76	78.0023	3,030.76	76.7417	3,030.76	75.9597	3,030.76	73.9572	3,030.76	73.6656	3,030.76	73.2018	3,030.76	73.1654	3,030.76	71.0557	3,030.76	69.5972	3,030.76	70.7835	3,030.76	73.3467	3,030.76	72.4115	3,030.76	71.4146	3,030.76	70.5274	3,030.76	73.1986	3,030.76	72.4429	3,030.76	71.1852	3,030.76	67.9231	3,030.76	68.7846	3,030.76	70.7935
3,137.7	81.0914	3,137.7	80.9296	3,137.7	82.1998	3,137.7	82.3335	3,137.7	82.4364	3,137.7	83.6635	3,137.7	83.5266	3,137.7	83.4107	3,137.7	83.0533	3,137.7	82.8513	3,137.7	82.4314	3,137.7	82.3079	3,137.7	80.8186	3,137.7	79.3787	3,137.7	78.4886	3,137.7	77.842	3,137.7	77.3013	3,137.7	75.9275	3,137.7	75.5936	3,137.7	74.3202	3,137.7	73.2968	3,137.7	72.3115	3,137.7	73.044	3,137.7	70.9763	3,137.7	69.4074	3,137.7	70.6333	3,137.7	70.975	3,137.7	72.9026	3,137.7	71.8196	3,137.7	71.5686	3,137.7	72.2235	3,137.7	72.1322	3,137.7	71.4877	3,137.7	69.4084	3,137.7	67.9783	3,137.7	71.5892
3,249.02	79.5269	3,249.02	79.6036	3,249.02	80.9626	3,249.02	81.8791	3,249.02	82.3682	3,249.02	83.0902	3,249.02	83.3176	3,249.02	83.3221	3,249.02	82.6927	3,249.02	82.6383	3,249.02	81.9956	3,249.02	81.2288	3,249.02	80.4989	3,249.02	79.3422	3,249.02	78.9503	3,249.02	77.336	3,249.02	77.1041	3,249.02	75.4825	3,249.02	74.3508	3,249.02	73.6213	3,249.02	72.6211	3,249.02	71.8842	3,249.02	71.9863	3,249.02	71.328	3,249.02	69.6437	3,249.02	69.0927	3,249.02	69.0742	3,249.02	71.2762	3,249.02	71.4163	3,249.02	70.6155	3,249.02	71.1721	3,249.02	71.3448	3,249.02	69.6567	3,249.02	69.6318	3,249.02	66.7778	3,249.02	72.7805
3,363.28	79.4357	3,363.28	79.9746	3,363.28	80.9917	3,363.28	81.1827	3,363.28	82.6946	3,363.28	82.5468	3,363.28	83.462	3,363.28	82.3153	3,363.28	83.402	3,363.28	82.4437	3,363.28	82.4265	3,363.28	80.4053	3,363.28	80.0085	3,363.28	78.2355	3,363.28	78.0911	3,363.28	76.8632	3,363.28	76.0398	3,363.28	74.8576	3,363.28	73.771	3,363.28	72.0079	3,363.28	71.4545	3,363.28	69.4044	3,363.28	70.0734	3,363.28	70.4968	3,363.28	68.3546	3,363.28	67.4844	3,363.28	69.1353	3,363.28	70.739	3,363.28	71.1115	3,363.28	67.8985	3,363.28	70.6465	3,363.28	71.3672	3,363.28	70.6852	3,363.28	61.8616	3,363.28	67.7308	3,363.28	68.1294
3,481.93	79.4037	3,481.93	81.0634	3,481.93	80.0644	3,481.93	82.4647	3,481.93	82.878	3,481.93	83.1907	3,481.93	83.2612	3,481.93	83.8305	3,481.93	82.8873	3,481.93	82.3645	3,481.93	80.962	3,481.93	80.4158	3,481.93	79.411	3,481.93	78.6499	3,481.93	77.1681	3,481.93	75.987	3,481.93	75.2993	3,481.93	74.194	3,481.93	72.7188	3,481.93	71.7119	3,481.93	71.8589	3,481.93	70.8699	3,481.93	69.7731	3,481.93	68.5934	3,481.93	69.5877	3,481.93	67.4068	3,481.93	66.6954	3,481.93	70.8991	3,481.93	69.0735	3,481.93	68.521	3,481.93	67.4968	3,481.93	71.3335	3,481.93	69.3337	3,481.93	64.2375	3,481.93	64.0526	3,481.93	68.1147
3,604.98	80.6232	3,604.98	81.2575	3,604.98	81.0718	3,604.98	82.5807	3,604.98	83.0214	3,604.98	83.1276	3,604.98	83.3834	3,604.98	83.2559	3,604.98	82.7219	3,604.98	81.1182	3,604.98	80.8212	3,604.98	78.7709	3,604.98	79.0446	3,604.98	77.646	3,604.98	77.5137	3,604.98	75.9542	3,604.98	74.8696	3,604.98	74.4672	3,604.98	73.5845	3,604.98	72.5009	3,604.98	72.362	3,604.98	71.4369	3,604.98	70.5232	3,604.98	69.6852	3,604.98	70.5052	3,604.98	66.6822	3,604.98	67.1865	3,604.98	70.1593	3,604.98	70.5265	3,604.98	68.8285	3,604.98	69.0088	3,604.98	70.6067	3,604.98	70.6491	3,604.98	66.5768	3,604.98	64.5225	3,604.98	69.6252
3,732.42	82.4966	3,732.42	81.7757	3,732.42	83.1446	3,732.42	82.9207	3,732.42	82.7004	3,732.42	83.7108	3,732.42	83.2046	3,732.42	82.2155	3,732.42	81.8423	3,732.42	80.5202	3,732.42	80.377	3,732.42	78.8187	3,732.42	79.3854	3,732.42	77.8264	3,732.42	77.4549	3,732.42	76.2735	3,732.42	75.39	3,732.42	73.0591	3,732.42	74.1442	3,732.42	73.2636	3,732.42	72.0947	3,732.42	71.4075	3,732.42	70.2782	3,732.42	68.9626	3,732.42	70.8321	3,732.42	68.5739	3,732.42	68.058	3,732.42	69.5014	3,732.42	71.0623	3,732.42	70.1245	3,732.42	69.126	3,732.42	71.171	3,732.42	69.9767	3,732.42	67.3186	3,732.42	66.6857	3,732.42	69.4453
3,864.26	82.2913	3,864.26	81.9728	3,864.26	82.5892	3,864.26	82.2947	3,864.26	82.3087	3,864.26	82.346	3,864.26	82.1649	3,864.26	80.4822	3,864.26	81.1014	3,864.26	80.0809	3,864.26	79.845	3,864.26	78.5343	3,864.26	78.01	3,864.26	77.0547	3,864.26	76.5419	3,864.26	75.9211	3,864.26	75.2045	3,864.26	74.5222	3,864.26	74.5126	3,864.26	73.2581	3,864.26	71.7722	3,864.26	72.0595	3,864.26	70.6577	3,864.26	69.9277	3,864.26	68	3,864.26	68.6336	3,864.26	65.3293	3,864.26	68.6046	3,864.26	70.1989	3,864.26	68.8517	3,864.26	67.9706	3,864.26	70.976	3,864.26	70.1438	3,864.26	65.507	3,864.26	65.0156	3,864.26	68.6526
4,000.49	82.803	4,000.49	83.1988	4,000.49	81.9534	4,000.49	81.8691	4,000.49	82.38	4,000.49	81.4396	4,000.49	81.4955	4,000.49	81.506	4,000.49	81.0929	4,000.49	80.1618	4,000.49	79.8373	4,000.49	79.0368	4,000.49	78.4871	4,000.49	77.1593	4,000.49	76.9092	4,000.49	75.5853	4,000.49	76.144	4,000.49	74.5858	4,000.49	74.6747	4,000.49	73.2808	4,000.49	72.4509	4,000.49	71.0321	4,000.49	70.5144	4,000.49	70.0165	4,000.49	68.1687	4,000.49	65.664	4,000.49	67.983	4,000.49	67.2951	4,000.49	69.3156	4,000.49	67.4705	4,000.49	67.9071	4,000.49	69.1364	4,000.49	70.7901	4,000.49	65.2354	4,000.49	63.9342	4,000.49	66.6763
4,141.11	84.7721	4,141.11	84.3409	4,141.11	83.8817	4,141.11	83.0939	4,141.11	82.5001	4,141.11	81.7754	4,141.11	81.8294	4,141.11	81.7693	4,141.11	80.6924	4,141.11	80.5512	4,141.11	80.0474	4,141.11	80.5224	4,141.11	80.079	4,141.11	79.1148	4,141.11	78.9236	4,141.11	77.3461	4,141.11	77.041	4,141.11	74.8309	4,141.11	73.9304	4,141.11	74.1664	4,141.11	73.3632	4,141.11	69.8752	4,141.11	70.3505	4,141.11	69.527	4,141.11	69.2761	4,141.11	69.0637	4,141.11	67.6181	4,141.11	66.3246	4,141.11	68.0065	4,141.11	68.9655	4,141.11	67.5011	4,141.11	68.6209	4,141.11	69.7298	4,141.11	67.3007	4,141.11	63.6824	4,141.11	66.5419
4,287.6	85.3462	4,287.6	84.3303	4,287.6	84.4635	4,287.6	83.5105	4,287.6	81.7754	4,287.6	81.1379	4,287.6	81.046	4,287.6	79.4188	4,287.6	80.5982	4,287.6	79.8523	4,287.6	80.9028	4,287.6	79.7514	4,287.6	80.575	4,287.6	78.7533	4,287.6	78.8219	4,287.6	77.1888	4,287.6	76.8834	4,287.6	74.9292	4,287.6	74.3705	4,287.6	71.8205	4,287.6	72.3876	4,287.6	70.4415	4,287.6	70.8239	4,287.6	70.4154	4,287.6	69.0894	4,287.6	69.0762	4,287.6	68.0851	4,287.6	67.4776	4,287.6	68.9004	4,287.6	69.5788	4,287.6	66.1942	4,287.6	68.2084	4,287.6	69.7582	4,287.6	67.3658	4,287.6	63.9646	4,287.6	67.7066
4,438.48	84.9688	4,438.48	84.9837	4,438.48	83.401	4,438.48	81.7244	4,438.48	82.0886	4,438.48	80.7541	4,438.48	79.6056	4,438.48	80.3088	4,438.48	81.1856	4,438.48	80.3397	4,438.48	81.6609	4,438.48	80.4169	4,438.48	80.1846	4,438.48	79.1397	4,438.48	78.1441	4,438.48	76.0722	4,438.48	75.7564	4,438.48	74.831	4,438.48	73.513	4,438.48	71.1341	4,438.48	71.8343	4,438.48	69.8681	4,438.48	70.0591	4,438.48	68.5264	4,438.48	68.9232	4,438.48	66.725	4,438.48	68.6779	4,438.48	67.6753	4,438.48	67.9935	4,438.48	68.4734	4,438.48	68.0638	4,438.48	68.6625	4,438.48	69.6506	4,438.48	64.0424	4,438.48	64.0955	4,438.48	64.4678
4,595.21	84.8936	4,595.21	83.8531	4,595.21	84.1044	4,595.21	82.0696	4,595.21	80.8737	4,595.21	79.666	4,595.21	81.0541	4,595.21	80.5677	4,595.21	80.2338	4,595.21	81.3944	4,595.21	79.7881	4,595.21	79.6959	4,595.21	79.3133	4,595.21	77.7864	4,595.21	77.8577	4,595.21	76.3583	4,595.21	75.2493	4,595.21	73.9485	4,595.21	73.8756	4,595.21	73.5029	4,595.21	71.4904	4,595.21	69.5648	4,595.21	68.9509	4,595.21	67.4795	4,595.21	69.3786	4,595.21	68.4144	4,595.21	65.884	4,595.21	65.9813	4,595.21	66.4013	4,595.21	70.6622	4,595.21	69.3619	4,595.21	68.7153	4,595.21	69.6497	4,595.21	67.9515	4,595.21	62.8907	4,595.21	66.4559
4,756.35	85.7191	4,756.35	85.008	4,756.35	84.0595	4,756.35	83.2823	4,756.35	81.9233	4,756.35	81.4107	4,756.35	80.8378	4,756.35	81.2008	4,756.35	81.2982	4,756.35	80.5072	4,756.35	81.2036	4,756.35	79.8642	4,756.35	79.4004	4,756.35	77.7963	4,756.35	77.3092	4,756.35	74.8739	4,756.35	75.639	4,756.35	73.0517	4,756.35	73.6076	4,756.35	68.4339	4,756.35	69.9889	4,756.35	69.5022	4,756.35	69.6389	4,756.35	68.8121	4,756.35	68.4002	4,756.35	67.6375	4,756.35	67.7951	4,756.35	66.6641	4,756.35	68.4343	4,756.35	68.5341	4,756.35	69.7068	4,756.35	66.6551	4,756.35	68.3404	4,756.35	67.6043	4,756.35	64.8991	4,756.35	66.938
4,924.8	85.5418	4,924.8	85.2311	4,924.8	83.2873	4,924.8	82.0252	4,924.8	81.601	4,924.8	81.0387	4,924.8	80.85	4,924.8	80.7951	4,924.8	81.469	4,924.8	81.1578	4,924.8	81.2504	4,924.8	80.4137	4,924.8	79.6004	4,924.8	79.1188	4,924.8	77.0297	4,924.8	76.1248	4,924.8	74.7641	4,924.8	75.1771	4,924.8	73.4191	4,924.8	72.3698	4,924.8	70.0273	4,924.8	70.9158	4,924.8	69.3553	4,924.8	67.7301	4,924.8	67.1673	4,924.8	68.3188	4,924.8	66.7251	4,924.8	67.5669	4,924.8	66.5914	4,924.8	67.9599	4,924.8	68.7019	4,924.8	68.3886	4,924.8	68.3998	4,924.8	68.1868	4,924.8	64.004	4,924.8	63.2759
5,097.66	85.1783	5,097.66	84.3307	5,097.66	84.2838	5,097.66	82.0462	5,097.66	81.4763	5,097.66	80.1537	5,097.66	82.03	5,097.66	81.124	5,097.66	81.6463	5,097.66	80.701	5,097.66	80.4608	5,097.66	79.2935	5,097.66	78.9176	5,097.66	76.2357	5,097.66	75.911	5,097.66	75.2795	5,097.66	72.8916	5,097.66	72.09	5,097.66	72.4833	5,097.66	72.2016	5,097.66	69.4757	5,097.66	69.8245	5,097.66	66.6752	5,097.66	67.3537	5,097.66	67.2682	5,097.66	65.4415	5,097.66	64.3024	5,097.66	66.7906	5,097.66	66.2917	5,097.66	68.7325	5,097.66	69.176	5,097.66	66.3653	5,097.66	68.7188	5,097.66	66.5624	5,097.66	65.1002	5,097.66	64.0032
5,277.83	85.5918	5,277.83	84.6586	5,277.83	83.5125	5,277.83	83.1277	5,277.83	82.4228	5,277.83	82.6906	5,277.83	81.4654	5,277.83	82.6335	5,277.83	81.9395	5,277.83	81.6786	5,277.83	81.0771	5,277.83	79.8136	5,277.83	78.1768	5,277.83	76.7782	5,277.83	75.6006	5,277.83	75.7269	5,277.83	74.7188	5,277.83	72.2945	5,277.83	70.6724	5,277.83	68.1972	5,277.83	69.536	5,277.83	65.9336	5,277.83	67.4081	5,277.83	63.6098	5,277.83	64.4094	5,277.83	64.9852	5,277.83	61.7798	5,277.83	61.2075	5,277.83	63.8177	5,277.83	65.0513	5,277.83	66.5727	5,277.83	63.3717	5,277.83	65.8146	5,277.83	66.8129	5,277.83	64.8722	5,277.83	60.1155
5,463.87	84.9785	5,463.87	84.2887	5,463.87	83.96	5,463.87	82.6901	5,463.87	82.1093	5,463.87	81.6564	5,463.87	81.9837	5,463.87	81.1641	5,463.87	81.8162	5,463.87	80.5974	5,463.87	80.4117	5,463.87	78.5169	5,463.87	78.3318	5,463.87	77.4115	5,463.87	76.7922	5,463.87	74.059	5,463.87	72.3813	5,463.87	72.9104	5,463.87	70.3794	5,463.87	67.8946	5,463.87	68.7466	5,463.87	66.0676	5,463.87	66.8452	5,463.87	62.9703	5,463.87	61.9201	5,463.87	63.3735	5,463.87	61.8573	5,463.87	65.1408	5,463.87	63.8132	5,463.87	65.6684	5,463.87	64.753	5,463.87	64.93	5,463.87	64.9012	5,463.87	68.4234	5,463.87	65.0044	5,463.87	63.743
5,657.23	85.3956	5,657.23	85.164	5,657.23	84.3128	5,657.23	83.8726	5,657.23	82.8261	5,657.23	83.387	5,657.23	82.5274	5,657.23	82.2128	5,657.23	81.3188	5,657.23	80.0588	5,657.23	79.263	5,657.23	77.1091	5,657.23	77.8641	5,657.23	72.9881	5,657.23	74.8248	5,657.23	72.2518	5,657.23	73.6758	5,657.23	68.6762	5,657.23	70.617	5,657.23	69.1016	5,657.23	69.3131	5,657.23	66.3373	5,657.23	66.811	5,657.23	64.5251	5,657.23	64.0694	5,657.23	62.4433	5,657.23	63.9783	5,657.23	61.3886	5,657.23	63.3345	5,657.23	61.5435	5,657.23	66.1675	5,657.23	64.3454	5,657.23	65.3304	5,657.23	65.5885	5,657.23	65.4092	5,657.23	62.1453
5,856.45	84.6591	5,856.45	84.2079	5,856.45	83.5974	5,856.45	82.9821	5,856.45	83.2171	5,856.45	82.3268	5,856.45	81.7778	5,856.45	80.7726	5,856.45	80.2024	5,856.45	78.8678	5,856.45	79.1376	5,856.45	77.3841	5,856.45	77.4407	5,856.45	76.6316	5,856.45	77.3285	5,856.45	75.1619	5,856.45	74.8456	5,856.45	72.5459	5,856.45	72.6372	5,856.45	69.8468	5,856.45	69.3494	5,856.45	67.2651	5,856.45	67.7625	5,856.45	65.3174	5,856.45	63.0095	5,856.45	65.9724	5,856.45	65.3485	5,856.45	64.1951	5,856.45	63.2166	5,856.45	65.4403	5,856.45	65.0014	5,856.45	65.2985	5,856.45	64.4145	5,856.45	66.867	5,856.45	65.4477	5,856.45	61.5861
6,062.99	84.0839	6,062.99	84.1182	6,062.99	84.1289	6,062.99	84.5321	6,062.99	83.407	6,062.99	83.4593	6,062.99	82.4593	6,062.99	81.888	6,062.99	80.0816	6,062.99	79.8241	6,062.99	78.4952	6,062.99	78.7758	6,062.99	78.1008	6,062.99	79.1962	6,062.99	77.4953	6,062.99	75.8169	6,062.99	74.3577	6,062.99	73.6552	6,062.99	73.3345	6,062.99	71.2245	6,062.99	70.6451	6,062.99	67.2891	6,062.99	68.2005	6,062.99	65.6365	6,062.99	66.7337	6,062.99	64.6386	6,062.99	65.86	6,062.99	61.7044	6,062.99	63.1739	6,062.99	65.355	6,062.99	65.0488	6,062.99	65.8356	6,062.99	63.9697	6,062.99	66.4075	6,062.99	65.134	6,062.99	61.4432
6,276.86	83.2173	6,276.86	83.6247	6,276.86	83.6063	6,276.86	84.5731	6,276.86	83.9221	6,276.86	82.5351	6,276.86	81.4557	6,276.86	80.2948	6,276.86	80.7758	6,276.86	78.5673	6,276.86	80.2083	6,276.86	79.072	6,276.86	78.7498	6,276.86	77.8404	6,276.86	77.0127	6,276.86	75.987	6,276.86	75.2495	6,276.86	74.2589	6,276.86	72.8794	6,276.86	71.9104	6,276.86	69.6056	6,276.86	69.2551	6,276.86	67.794	6,276.86	67.254	6,276.86	65.2189	6,276.86	64.7344	6,276.86	62.348	6,276.86	60.8648	6,276.86	62.1217	6,276.86	63.255	6,276.86	64.3578	6,276.86	66.061	6,276.86	64.364	6,276.86	64.5963	6,276.86	62.9485	6,276.86	61.1157
6,498.05	82.8827	6,498.05	83.8558	6,498.05	84.4547	6,498.05	84.9254	6,498.05	83.9183	6,498.05	83.3425	6,498.05	81.6767	6,498.05	80.3926	6,498.05	79.93	6,498.05	80.7606	6,498.05	80.0437	6,498.05	79.747	6,498.05	79.6801	6,498.05	78.421	6,498.05	77.6838	6,498.05	75.8964	6,498.05	74.637	6,498.05	73.487	6,498.05	71.7391	6,498.05	69.8733	6,498.05	69.9492	6,498.05	67.4948	6,498.05	66.675	6,498.05	64.6181	6,498.05	63.3141	6,498.05	64.0309	6,498.05	61.8788	6,498.05	62.8673	6,498.05	59.5544	6,498.05	63.1905	6,498.05	63.9385	6,498.05	63.3384	6,498.05	62.4167	6,498.05	64.5565	6,498.05	63.6752	6,498.05	58.3309
6,726.56	82.7079	6,726.56	83.5321	6,726.56	84.1105	6,726.56	84.8011	6,726.56	83.9666	6,726.56	83.2598	6,726.56	81.4689	6,726.56	81.0965	6,726.56	80.5672	6,726.56	80.5478	6,726.56	80.6235	6,726.56	80.0201	6,726.56	78.8231	6,726.56	77.8924	6,726.56	75.0807	6,726.56	74.7721	6,726.56	72.8484	6,726.56	71.7445	6,726.56	69.0948	6,726.56	69.4644	6,726.56	67.9375	6,726.56	65.8079	6,726.56	63.6503	6,726.56	64.1465	6,726.56	63.839	6,726.56	61.1558	6,726.56	61.1803	6,726.56	62.82	6,726.56	60.0115	6,726.56	61.5361	6,726.56	62.8397	6,726.56	63.3511	6,726.56	62.6444	6,726.56	63.4535	6,726.56	63.0067	6,726.56	57.3797
6,963.87	81.9268	6,963.87	83.0134	6,963.87	84.2243	6,963.87	84.4436	6,963.87	84.3594	6,963.87	83.2975	6,963.87	82.6045	6,963.87	81.7671	6,963.87	81.1568	6,963.87	80.634	6,963.87	80.2036	6,963.87	78.7375	6,963.87	77.7732	6,963.87	74.2993	6,963.87	74.8388	6,963.87	71.6231	6,963.87	70.6874	6,963.87	68.0956	6,963.87	67.4258	6,963.87	64.9547	6,963.87	65.9428	6,963.87	64.0126	6,963.87	64.4421	6,963.87	62.8359	6,963.87	61.8631	6,963.87	59.7025	6,963.87	59.4024	6,963.87	54.6191	6,963.87	58.1863	6,963.87	60.1162	6,963.87	60.945	6,963.87	61.9454	6,963.87	61.4318	6,963.87	62.2102	6,963.87	59.1688	6,963.87	50.4357
7,209.96	81.7906	7,209.96	82.9177	7,209.96	83.9435	7,209.96	84.2044	7,209.96	84.3827	7,209.96	83.0234	7,209.96	82.725	7,209.96	82.0646	7,209.96	81.364	7,209.96	80.8292	7,209.96	79.1041	7,209.96	77.9421	7,209.96	76.7292	7,209.96	74.3839	7,209.96	74.1652	7,209.96	71.3702	7,209.96	70.8843	7,209.96	68.4467	7,209.96	68.6009	7,209.96	65.5679	7,209.96	65.61	7,209.96	61.7966	7,209.96	62.0193	7,209.96	60.824	7,209.96	63.2662	7,209.96	58.547	7,209.96	59.2831	7,209.96	57.7766	7,209.96	58.6714	7,209.96	58.9411	7,209.96	62.4459	7,209.96	62.0882	7,209.96	62.0747	7,209.96	61.738	7,209.96	62.4774	7,209.96	50.4327
7,464.84	82.5278	7,464.84	82.9352	7,464.84	83.7453	7,464.84	83.6984	7,464.84	83.4854	7,464.84	83.1072	7,464.84	81.735	7,464.84	82.2868	7,464.84	80.6669	7,464.84	80.2118	7,464.84	78.2916	7,464.84	77.4257	7,464.84	75.1698	7,464.84	73.974	7,464.84	72.9282	7,464.84	69.6285	7,464.84	69.3506	7,464.84	65.9985	7,464.84	67.0956	7,464.84	63.4297	7,464.84	64.7457	7,464.84	61.1562	7,464.84	61.7009	7,464.84	57.1767	7,464.84	60.0034	7,464.84	55.736	7,464.84	59.2164	7,464.84	53.6149	7,464.84	56.385	7,464.84	54.3627	7,464.84	59.4556	7,464.84	60.0784	7,464.84	59.786	7,464.84	58.8843	7,464.84	59.469	7,464.84	48.074
7,727.05	83.4394	7,727.05	82.9949	7,727.05	84.0203	7,727.05	83.2668	7,727.05	83.5871	7,727.05	82.7941	7,727.05	82.637	7,727.05	81.9067	7,727.05	80.7852	7,727.05	79.4372	7,727.05	78.0992	7,727.05	74.6814	7,727.05	75.0611	7,727.05	70.9929	7,727.05	71.9665	7,727.05	68.4376	7,727.05	70.4217	7,727.05	65.7403	7,727.05	67.485	7,727.05	63.4369	7,727.05	65.6935	7,727.05	61.335	7,727.05	62.3697	7,727.05	62.044	7,727.05	61.7943	7,727.05	56.9465	7,727.05	56.1285	7,727.05	56.7941	7,727.05	56.2382	7,727.05	55.6406	7,727.05	57.1043	7,727.05	57.1438	7,727.05	57.9768	7,727.05	58.3893	7,727.05	60.0575	7,727.05	46.7889
7,999.51	83.2789	7,999.51	82.8046	7,999.51	83.5402	7,999.51	82.3888	7,999.51	82.8251	7,999.51	82.7629	7,999.51	82.2075	7,999.51	81.7325	7,999.51	80.0818	7,999.51	78.3981	7,999.51	77.1583	7,999.51	75.0182	7,999.51	74.8514	7,999.51	72.0065	7,999.51	73.7714	7,999.51	70.3915	7,999.51	69.6434	7,999.51	68.0583	7,999.51	67.2775	7,999.51	64.7543	7,999.51	64.4938	7,999.51	60.9251	7,999.51	63.4451	7,999.51	61.4979	7,999.51	59.7439	7,999.51	58.3932	7,999.51	49.498	7,999.51	52.7232	7,999.51	52.1691	7,999.51	55.063	7,999.51	56.1074	7,999.51	56.7431	7,999.51	58.6096	7,999.51	59.3827	7,999.51	57.2278	7,999.51	43.9169
8,282.23	83.8553	8,282.23	82.8712	8,282.23	83.1893	8,282.23	82.6121	8,282.23	83.0902	8,282.23	82.8634	8,282.23	82.6187	8,282.23	81.3599	8,282.23	80.1142	8,282.23	78.0233	8,282.23	76.933	8,282.23	75.3087	8,282.23	75.2536	8,282.23	73.5784	8,282.23	73.1489	8,282.23	70.3983	8,282.23	69.7653	8,282.23	67.003	8,282.23	66.7241	8,282.23	63.9761	8,282.23	64.3645	8,282.23	60.3623	8,282.23	62.8499	8,282.23	59.7064	8,282.23	59.2048	8,282.23	55.0451	8,282.23	58.1097	8,282.23	54.4707	8,282.23	54.4681	8,282.23	49.9981	8,282.23	57.6227	8,282.23	54.4357	8,282.23	55.1122	8,282.23	57.2409	8,282.23	55.7163	8,282.23	48.7204
8,573.73	83.9647	8,573.73	83.3974	8,573.73	82.9206	8,573.73	82.7446	8,573.73	83.1317	8,573.73	83.0741	8,573.73	82.1124	8,573.73	80.8438	8,573.73	79.0086	8,573.73	77.8107	8,573.73	76.5825	8,573.73	75.9674	8,573.73	74.3246	8,573.73	73.867	8,573.73	71.7618	8,573.73	70.3536	8,573.73	67.9502	8,573.73	66.9834	8,573.73	65.5029	8,573.73	62.8815	8,573.73	62.2502	8,573.73	60.2478	8,573.73	61.1279	8,573.73	57.9339	8,573.73	57.8221	8,573.73	55.6306	8,573.73	54.6804	8,573.73	54.8768	8,573.73	52.8114	8,573.73	49.7354	8,573.73	56.0502	8,573.73	56.8936	8,573.73	56.5326	8,573.73	57.3567	8,573.73	52.2933	8,573.73	47.4105
8,876.95	84.1784	8,876.95	83.3706	8,876.95	83.0458	8,876.95	82.701	8,876.95	82.8113	8,876.95	82.34	8,876.95	81.5537	8,876.95	79.7602	8,876.95	78.535	8,876.95	77.6568	8,876.95	76.2972	8,876.95	75.7864	8,876.95	73.8496	8,876.95	72.6421	8,876.95	71.0428	8,876.95	69.0106	8,876.95	67.6279	8,876.95	65.5658	8,876.95	63.6436	8,876.95	61.9578	8,876.95	61.0843	8,876.95	59.7525	8,876.95	59.7915	8,876.95	55.5248	8,876.95	55.5829	8,876.95	54.2302	8,876.95	52.9069	8,876.95	52.1619	8,876.95	52.0842	8,876.95	50.5704	8,876.95	55.8561	8,876.95	55.1787	8,876.95	55.8686	8,876.95	56.7026	8,876.95	53.0343	8,876.95	45.9171
9,188.96	83.8885	9,188.96	83.3527	9,188.96	82.701	9,188.96	82.7722	9,188.96	82.6226	9,188.96	81.7797	9,188.96	80.9013	9,188.96	79.2764	9,188.96	78.059	9,188.96	77.1066	9,188.96	75.7739	9,188.96	75.2631	9,188.96	73.1819	9,188.96	71.7684	9,188.96	70.5318	9,188.96	67.908	9,188.96	66.794	9,188.96	64.5642	9,188.96	63.5514	9,188.96	59.9863	9,188.96	61.2253	9,188.96	56.3849	9,188.96	58.8553	9,188.96	54.7962	9,188.96	53.1447	9,188.96	52.6974	9,188.96	53.7207	9,188.96	47.2351	9,188.96	49.7877	9,188.96	47.514	9,188.96	52.9627	9,188.96	54.3282	9,188.96	57.4247	9,188.96	56.1219	9,188.96	52.7788	9,188.96	47.0775
9,514.16	84.0019	9,514.16	83.6651	9,514.16	82.9315	9,514.16	82.7559	9,514.16	82.287	9,514.16	80.9503	9,514.16	80.5282	9,514.16	78.4756	9,514.16	77.8878	9,514.16	76.9528	9,514.16	75.3506	9,514.16	74.133	9,514.16	72.3562	9,514.16	70.1762	9,514.16	69.6704	9,514.16	65.7998	9,514.16	65.755	9,514.16	61.996	9,514.16	62.5199	9,514.16	58.3745	9,514.16	59.9899	9,514.16	53.8522	9,514.16	57.2652	9,514.16	53.5406	9,514.16	52.6765	9,514.16	53.0199	9,514.16	54.6218	9,514.16	50.4572	9,514.16	50.208	9,514.16	43.6265	9,514.16	50.4311	9,514.16	53.4334	9,514.16	55.4034	9,514.16	52.8403	9,514.16	53.2669	9,514.16	41.3759
9,849.61	84.1597	9,849.61	83.8855	9,849.61	82.9334	9,849.61	82.7516	9,849.61	82.0614	9,849.61	80.365	9,849.61	80.1243	9,849.61	78.0205	9,849.61	77.6689	9,849.61	76.0009	9,849.61	74.5902	9,849.61	72.5845	9,849.61	71.1917	9,849.61	67.8782	9,849.61	68.0426	9,849.61	65.0506	9,849.61	66.3137	9,849.61	61.4328	9,849.61	62.5954	9,849.61	59.7346	9,849.61	60.2061	9,849.61	58.0391	9,849.61	57.4774	9,849.61	54.8654	9,849.61	53.1257	9,849.61	55.8019	9,849.61	54.0589	9,849.61	50.6499	9,849.61	50.3449	9,849.61	42.1656	9,849.61	51.2659	9,849.61	53.9933	9,849.61	54.6709	9,849.61	50.9155	9,849.61	52.5726	9,849.61	40.6625
10,196.8	84.3054	10,196.8	84.0775	10,196.8	83.3118	10,196.8	82.5173	10,196.8	81.8848	10,196.8	79.6468	10,196.8	79.8767	10,196.8	77.9167	10,196.8	77.4753	10,196.8	75.1017	10,196.8	74.2222	10,196.8	71.2737	10,196.8	71.5363	10,196.8	68.8708	10,196.8	68.9547	10,196.8	66.3877	10,196.8	66.7582	10,196.8	63.5372	10,196.8	62.7059	10,196.8	60.6695	10,196.8	60.3732	10,196.8	58.9211	10,196.8	57.6153	10,196.8	55.1693	10,196.8	55.2147	10,196.8	56.1061	10,196.8	53.3548	10,196.8	50.5773	10,196.8	50.5074	10,196.8	43.172	10,196.8	49.2713	10,196.8	54.5907	10,196.8	56.0027	10,196.8	52.8184	10,196.8	51.4484	10,196.8	35.7385
10,555.7	84.2806	10,555.7	84.1501	10,555.7	83.516	10,555.7	82.244	10,555.7	81.8363	10,555.7	79.9227	10,555.7	80.3841	10,555.7	77.8243	10,555.7	77.6381	10,555.7	74.0213	10,555.7	74.5867	10,555.7	71.0845	10,555.7	72.1722	10,555.7	70.0758	10,555.7	69.0926	10,555.7	67.5284	10,555.7	65.882	10,555.7	63.191	10,555.7	61.4468	10,555.7	60.7527	10,555.7	60.0611	10,555.7	57.8179	10,555.7	55.5159	10,555.7	55.0808	10,555.7	54.7318	10,555.7	54.7984	10,555.7	53.4067	10,555.7	51.7869	10,555.7	49.6075	10,555.7	43.0454	10,555.7	47.3886	10,555.7	54.8189	10,555.7	55.2002	10,555.7	52.4846	10,555.7	52.2931	10,555.7	39.7795
10,927.7	84.2014	10,927.7	84.1372	10,927.7	83.8692	10,927.7	82.4179	10,927.7	81.959	10,927.7	80.535	10,927.7	80.5788	10,927.7	77.5212	10,927.7	77.6716	10,927.7	73.3128	10,927.7	75.0579	10,927.7	72.4503	10,927.7	72.6531	10,927.7	70.62	10,927.7	69.6626	10,927.7	67.0634	10,927.7	65.1304	10,927.7	62.4166	10,927.7	60.6201	10,927.7	58.8674	10,927.7	58.1476	10,927.7	56.5525	10,927.7	54.91	10,927.7	53.8701	10,927.7	54.7454	10,927.7	52.3897	10,927.7	54.1076	10,927.7	50.8131	10,927.7	50.9957	10,927.7	46.486	10,927.7	48.8833	10,927.7	53.3073	10,927.7	54.9423	10,927.7	52.9309	10,927.7	50.0446	10,927.7	39.1436
11,313	84.1534	11,313	83.7562	11,313	84.1614	11,313	82.5456	11,313	82.0631	11,313	80.6182	11,313	80.4093	11,313	76.6976	11,313	77.6814	11,313	74.0382	11,313	75.4338	11,313	73.016	11,313	72.7971	11,313	70.0585	11,313	69.5674	11,313	64.8129	11,313	64.8389	11,313	60.8179	11,313	61.076	11,313	56.5881	11,313	58.422	11,313	53.6793	11,313	54.9281	11,313	51.744	11,313	54.7449	11,313	52.1374	11,313	51.6537	11,313	48.2551	11,313	50.521	11,313	41.9422	11,313	47.4396	11,313	50.9519	11,313	54.3137	11,313	52.8428	11,313	49.9134	11,313	36.7951
11,712.9	83.7407	11,712.9	83.3137	11,712.9	84.0459	11,712.9	82.4256	11,712.9	82.0419	11,712.9	80.4338	11,712.9	80.3403	11,712.9	76.4423	11,712.9	78.0353	11,712.9	75.1967	11,712.9	75.6662	11,712.9	72.415	11,712.9	72.0185	11,712.9	67.892	11,712.9	68.307	11,712.9	63.0365	11,712.9	64.964	11,712.9	57.7554	11,712.9	61.6935	11,712.9	56.931	11,712.9	59.333	11,712.9	53.1147	11,712.9	54.0641	11,712.9	52.4839	11,712.9	54.4962	11,712.9	49.6441	11,712.9	50.0056	11,712.9	46.9048	11,712.9	50.2762	11,712.9	42.3102	11,712.9	46.5796	11,712.9	52.3463	11,712.9	54.3872	11,712.9	50.73	11,712.9	48.0941	11,712.9	36.6119
12,126	83.2762	12,126	83.1013	12,126	83.8066	12,126	82.1207	12,126	81.8936	12,126	80.0911	12,126	80.2337	12,126	77.5281	12,126	78.6251	12,126	75.4429	12,126	75.4844	12,126	70.7476	12,126	71.6985	12,126	65.6122	12,126	68.5977	12,126	62.7249	12,126	66.133	12,126	59.395	12,126	62.5094	12,126	57.1547	12,126	59.1044	12,126	56.6007	12,126	55.4524	12,126	51.9616	12,126	55.0275	12,126	49.5079	12,126	52.1211	12,126	47.18	12,126	50.3961	12,126	43.0018	12,126	49.0172	12,126	52.2002	12,126	54.7532	12,126	47.8384	12,126	46.9995	12,126	22.5115
12,553.7	82.9824	12,553.7	82.799	12,553.7	83.3433	12,553.7	81.8206	12,553.7	81.7725	12,553.7	79.5179	12,553.7	79.9135	12,553.7	78.1848	12,553.7	78.6069	12,553.7	75.0156	12,553.7	74.4697	12,553.7	69.6601	12,553.7	71.9531	12,553.7	66.9171	12,553.7	69.7586	12,553.7	63.2738	12,553.7	65.3074	12,553.7	61.0592	12,553.7	61.4868	12,553.7	56.9532	12,553.7	58.2366	12,553.7	55.4949	12,553.7	54.9259	12,553.7	52.3239	12,553.7	54.2366	12,553.7	50.2304	12,553.7	49.6133	12,553.7	48.0133	12,553.7	47.5583	12,553.7	42.9874	12,553.7	46.5232	12,553.7	52.2007	12,553.7	53.8122	12,553.7	45.4673	12,553.7	44.4509	12,553.7	30.1771
12,996.1	83.0106	12,996.1	82.7506	12,996.1	83.0362	12,996.1	81.7284	12,996.1	81.8042	12,996.1	79.4908	12,996.1	80.3246	12,996.1	78.7982	12,996.1	78.5785	12,996.1	74.4998	12,996.1	74.3052	12,996.1	70.4394	12,996.1	72.0765	12,996.1	68.2715	12,996.1	68.8071	12,996.1	63.6179	12,996.1	63.2429	12,996.1	60.0709	12,996.1	60.1365	12,996.1	54.8717	12,996.1	55.9945	12,996.1	49.8688	12,996.1	52.591	12,996.1	52.0377	12,996.1	52.982	12,996.1	47.9859	12,996.1	50.2073	12,996.1	46.2016	12,996.1	45.4198	12,996.1	42.4505	12,996.1	46.0136	12,996.1	52.246	12,996.1	52.7049	12,996.1	37.4059	12,996.1	44.0675	12,996.1	37.7391
13,454.6	83.5505	13,454.6	83.0741	13,454.6	83.0348	13,454.6	81.7266	13,454.6	82.1674	13,454.6	80.0388	13,454.6	80.8082	13,454.6	78.9879	13,454.6	78.7685	13,454.6	74.0826	13,454.6	75.4583	13,454.6	71.4202	13,454.6	71.556	13,454.6	68.1433	13,454.6	66.826	13,454.6	61.3262	13,454.6	63.4783	13,454.6	56.4367	13,454.6	59.2119	13,454.6	53.1831	13,454.6	53.8351	13,454.6	50.7594	13,454.6	53.0024	13,454.6	50.8023	13,454.6	52.1974	13,454.6	45.4946	13,454.6	49.5557	13,454.6	46.5968	13,454.6	45.9089	13,454.6	37.6082	13,454.6	46.2859	13,454.6	48.6731	13,454.6	52.7626	13,454.6	29.4579	13,454.6	44.0471	13,454.6	39.3579
13,929.2	83.991	13,929.2	83.2377	13,929.2	83.1625	13,929.2	82.1676	13,929.2	82.447	13,929.2	80.9444	13,929.2	81.15	13,929.2	79.1455	13,929.2	78.9404	13,929.2	75.037	13,929.2	75.9694	13,929.2	71.5317	13,929.2	71.7132	13,929.2	66.2128	13,929.2	67.5936	13,929.2	60.3528	13,929.2	64.3666	13,929.2	56.1065	13,929.2	59.528	13,929.2	55.4797	13,929.2	54.4348	13,929.2	52.6236	13,929.2	54.9521	13,929.2	50.3127	13,929.2	52.9368	13,929.2	41.9425	13,929.2	51.0478	13,929.2	47.8232	13,929.2	46.9874	13,929.2	36.9757	13,929.2	48.7252	13,929.2	44.093	13,929.2	52.9726	13,929.2	37.0145	13,929.2	43.6157	13,929.2	35.5866
14,419.9	82.1283	14,419.9	80.9852	14,419.9	80.9281	14,419.9	80.3416	14,419.9	81.0239	14,419.9	79.7976	14,419.9	80.2491	14,419.9	77.7964	14,419.9	78.2632	14,419.9	75.0945	14,419.9	75.5673	14,419.9	70.2824	14,419.9	71.5681	14,419.9	66.0188	14,419.9	68.1985	14,419.9	62.9346	14,419.9	64.9991	14,419.9	59.5569	14,419.9	59.2199	14,419.9	56.831	14,419.9	56.4787	14,419.9	53.515	14,419.9	55.28	14,419.9	50.3497	14,419.9	52.6551	14,419.9	37.9611	14,419.9	49.3294	14,419.9	47.3145	14,419.9	44.5479	14,419.9	40.3768	14,419.9	48.3967	14,419.9	44.484	14,419.9	53.0247	14,419.9	40.1104	14,419.9	44.138	14,419.9	39.3754
14,928.2	82.8952	14,928.2	82.2491	14,928.2	82.448	14,928.2	81.9438	14,928.2	82.3094	14,928.2	80.8265	14,928.2	81.0102	14,928.2	78.3536	14,928.2	79.1242	14,928.2	75.2278	14,928.2	75.5624	14,928.2	69.2518	14,928.2	71.1289	14,928.2	65.4759	14,928.2	66.9942	14,928.2	61.1605	14,928.2	63.0466	14,928.2	56.6505	14,928.2	56.162	14,928.2	53.8837	14,928.2	54.8901	14,928.2	50.0608	14,928.2	54.6111	14,928.2	47.5718	14,928.2	50.1177	14,928.2	34.4365	14,928.2	44.547	14,928.2	46.5972	14,928.2	43.1909	14,928.2	40.1291	14,928.2	46.2939	14,928.2	41.2486	14,928.2	50.2213	14,928.2	34.0402	14,928.2	39.6691	14,928.2	40.5799
15,455.6	83.7118	15,455.6	83.1756	15,455.6	83.5328	15,455.6	82.7852	15,455.6	82.9027	15,455.6	81.1987	15,455.6	81.3064	15,455.6	78.476	15,455.6	78.9688	15,455.6	73.883	15,455.6	74.545	15,455.6	67.2061	15,455.6	69.2956	15,455.6	62.5098	15,455.6	63.4002	15,455.6	59.9426	15,455.6	62.1419	15,455.6	55.7077	15,455.6	53.752	15,455.6	52.8528	15,455.6	53.987	15,455.6	50.0092	15,455.6	52.9386	15,455.6	47.8901	15,455.6	48.3556	15,455.6	32.8836	15,455.6	42.814	15,455.6	47.1918	15,455.6	40.8244	15,455.6	37.9173	15,455.6	44.7571	15,455.6	41.6794	15,455.6	48.7834	15,455.6	34.0241	15,455.6	36.3015	15,455.6	41.446
16,000.5	83.1756	16,000.5	82.6687	16,000.5	83.3178	16,000.5	82.4686	16,000.5	82.826	16,000.5	80.8301	16,000.5	81.326	16,000.5	78.0417	16,000.5	78.3402	16,000.5	72.0811	16,000.5	72.7749	16,000.5	66.3289	16,000.5	67.8069	16,000.5	62.2302	16,000.5	64.0125	16,000.5	59.6533	16,000.5	61.8158	16,000.5	57.0426	16,000.5	55.8265	16,000.5	53.8875	16,000.5	55.5221	16,000.5	51.4765	16,000.5	53.4379	16,000.5	45.0991	16,000.5	48.6813	16,000.5	41.4841	16,000.5	37.6544	16,000.5	45.335	16,000.5	40.2749	16,000.5	37.9388	16,000.5	43.7325	16,000.5	41.3244	16,000.5	47.4082	16,000.5	39.2649	16,000.5	31.4963	16,000.5	43.7453
16,564.5	82.931	16,564.5	82.8081	16,564.5	83.3486	16,564.5	82.6894	16,564.5	82.611	16,564.5	80.8526	16,564.5	81.3854	16,564.5	78.033	16,564.5	78.4392	16,564.5	70.6437	16,564.5	73.21	16,564.5	65.7978	16,564.5	68.7003	16,564.5	64.8213	16,564.5	66.4572	16,564.5	61.0062	16,564.5	63.4593	16,564.5	58.2848	16,564.5	57.6832	16,564.5	53.3877	16,564.5	57.6952	16,564.5	54.2967	16,564.5	53.5667	16,564.5	44.7623	16,564.5	47.0106	16,564.5	36.5757	16,564.5	35.9388	16,564.5	42.5034	16,564.5	42.155	16,564.5	37.5551	16,564.5	42.2556	16,564.5	44.6477	16,564.5	47.111	16,564.5	34.9692	16,564.5	40.866	16,564.5	43.9538
17,148.9	84.3301	17,148.9	84.2197	17,148.9	84.5215	17,148.9	83.443	17,148.9	83.4022	17,148.9	81.0349	17,148.9	81.6767	17,148.9	77.2434	17,148.9	78.4786	17,148.9	69.9025	17,148.9	73.033	17,148.9	64.3517	17,148.9	68.6424	17,148.9	65.2904	17,148.9	67.0307	17,148.9	63.1473	17,148.9	63.3364	17,148.9	58.9252	17,148.9	57.837	17,148.9	54.215	17,148.9	56.8373	17,148.9	54.5089	17,148.9	51.6743	17,148.9	46.5353	17,148.9	47.0934	17,148.9	42.6349	17,148.9	40.5436	17,148.9	44.6681	17,148.9	40.5573	17,148.9	39.57	17,148.9	42.2521	17,148.9	46.1275	17,148.9	41.5982	17,148.9	33.7428	17,148.9	36.8963	17,148.9	40.5022
17,752.4	84.667	17,752.4	84.5488	17,752.4	84.4414	17,752.4	83.0656	17,752.4	83.0538	17,752.4	80.0942	17,752.4	80.9985	17,752.4	75.1327	17,752.4	77.3063	17,752.4	65.8189	17,752.4	71.5796	17,752.4	63.983	17,752.4	67.6945	17,752.4	66.1988	17,752.4	66.0843	17,752.4	63.4477	17,752.4	63.5402	17,752.4	59.4738	17,752.4	58.1326	17,752.4	55.1133	17,752.4	55.7559	17,752.4	52.9684	17,752.4	50.6373	17,752.4	48.4042	17,752.4	44.9045	17,752.4	42.1749	17,752.4	38.2685	17,752.4	41.6178	17,752.4	38.1542	17,752.4	41.2789	17,752.4	41.0498	17,752.4	44.7413	17,752.4	39.8667	17,752.4	35.6009	17,752.4	35.2357	17,752.4	35.2072
18,379.4	84.3007	18,379.4	83.7789	18,379.4	83.554	18,379.4	81.6448	18,379.4	81.6194	18,379.4	77.5339	18,379.4	78.6019	18,379.4	71.3839	18,379.4	74.5481	18,379.4	58.4365	18,379.4	67.8619	18,379.4	66.3653	18,379.4	66.7346	18,379.4	66.2355	18,379.4	66.1293	18,379.4	63.8047	18,379.4	62.8331	18,379.4	59.3296	18,379.4	57.6398	18,379.4	53.8545	18,379.4	54.7945	18,379.4	50.7662	18,379.4	49.7229	18,379.4	46.5821	18,379.4	45.0732	18,379.4	38.362	18,379.4	41.4566	18,379.4	38.1165	18,379.4	37.6468	18,379.4	43.1716	18,379.4	43.5369	18,379.4	42.0626	18,379.4	40.7452	18,379.4	36.6549	18,379.4	37.2148	18,379.4	25.6912
19,026.9	83.6802	19,026.9	82.8865	19,026.9	82.2294	19,026.9	79.9333	19,026.9	79.3805	19,026.9	73.5687	19,026.9	75.3755	19,026.9	64.8851	19,026.9	70.6632	19,026.9	55.4713	19,026.9	64.3426	19,026.9	64.9036	19,026.9	65.5182	19,026.9	64.9976	19,026.9	64.6953	19,026.9	61.0759	19,026.9	61.3462	19,026.9	56.7259	19,026.9	55.6777	19,026.9	50.4751	19,026.9	52.8517	19,026.9	46.4604	19,026.9	47.0418	19,026.9	42.3472	19,026.9	41.348	19,026.9	37.21	19,026.9	38.9177	19,026.9	34.623	19,026.9	35.8466	19,026.9	41.4853	19,026.9	41.8068	19,026.9	37.9382	19,026.9	38.2229	19,026.9	21.593	19,026.9	30.3453	19,026.9	26.7039
19,697.8	82.8147	19,697.8	81.8594	19,697.8	80.8298	19,697.8	77.8091	19,697.8	76.9694	19,697.8	68.1078	19,697.8	71.6653	19,697.8	56.7167	19,697.8	66.2244	19,697.8	61.3854	19,697.8	61.7294	19,697.8	63.4512	19,697.8	64.1904	19,697.8	62.026	19,697.8	62.4066	19,697.8	57.1205	19,697.8	59.1089	19,697.8	51.8876	19,697.8	54.0194	19,697.8	45.9396	19,697.8	50.7383	19,697.8	44.2329	19,697.8	44.0421	19,697.8	41.0669	19,697.8	37.6442	19,697.8	35.0441	19,697.8	37.5907	19,697.8	32.7983	19,697.8	32.3558	19,697.8	39.5828	19,697.8	37.7231	19,697.8	31.4658	19,697.8	39.3358	19,697.8	16.1115	19,697.8	28.3387	19,697.8	19.5312
19,999.5	82.5477	19,999.5	81.3985	19,999.5	80.1437	19,999.5	76.6812	19,999.5	75.9552	19,999.5	65.7467	19,999.5	69.3689	19,999.5	56.7655	19,999.5	63.7245	19,999.5	61.4157	19,999.5	60.6059	19,999.5	63.3707	19,999.5	63.6527	19,999.5	60.5773	19,999.5	61.4845	19,999.5	56.9657	19,999.5	59.7712	19,999.5	49.7536	19,999.5	54.1645	19,999.5	43.2936	19,999.5	47.0538	19,999.5	38.0859	19,999.5	42.1531	19,999.5	45.5145	19,999.5	42.2732	19,999.5	39.0762	19,999.5	42.5963	19,999.5	32.0029	19,999.5	32.3797	19,999.5	32.9001	19,999.5	38.7432	19,999.5	42.2878	19,999.5	38.2799	19,999.5	19.4973	19,999.5	37.7861	19,999.5	28.9905
