"SPL Vertical"
"On-Axis"		"10°"		"-10°"		"20°"		"-20°"		"30°"		"-30°"		"40°"		"-40°"		"50°"		"-50°"		"60°"		"-60°"		"70°"		"-70°"		"80°"		"-80°"		"90°"		"-90°"		"100°"		"-100°"		"110°"		"-110°"		"120°"		"-120°"		"130°"		"-130°"		"140°"		"-140°"		"150°"		"-150°"		"160°"		"-160°"		"170°"		"-170°"		"180°"
"Frequency / Hz"	"Sound Pressure Level / dB (re 20 µPa/V)  [2.83  V @ 1. m]"	"Frequency / Hz"	"Sound Pressure Level / dB (re 20 µPa/V)  [2.83  V @ 1. m]"	"Frequency / Hz"	"Sound Pressure Level / dB (re 20 µPa/V)  [2.83  V @ 1. m]"	"Frequency / Hz"	"Sound Pressure Level / dB (re 20 µPa/V)  [2.83  V @ 1. m]"	"Frequency / Hz"	"Sound Pressure Level / dB (re 20 µPa/V)  [2.83  V @ 1. m]"	"Frequency / Hz"	"Sound Pressure Level / dB (re 20 µPa/V)  [2.83  V @ 1. m]"	"Frequency / Hz"	"Sound Pressure Level / dB (re 20 µPa/V)  [2.83  V @ 1. m]"	"Frequency / Hz"	"Sound Pressure Level / dB (re 20 µPa/V)  [2.83  V @ 1. m]"	"Frequency / Hz"	"Sound Pressure Level / dB (re 20 µPa/V)  [2.83  V @ 1. m]"	"Frequency / Hz"	"Sound Pressure Level / dB (re 20 µPa/V)  [2.83  V @ 1. m]"	"Frequency / Hz"	"Sound Pressure Level / dB (re 20 µPa/V)  [2.83  V @ 1. m]"	"Frequency / Hz"	"Sound Pressure Level / dB (re 20 µPa/V)  [2.83  V @ 1. m]"	"Frequency / Hz"	"Sound Pressure Level / dB (re 20 µPa/V)  [2.83  V @ 1. m]"	"Frequency / Hz"	"Sound Pressure Level / dB (re 20 µPa/V)  [2.83  V @ 1. m]"	"Frequency / Hz"	"Sound Pressure Level / dB (re 20 µPa/V)  [2.83  V @ 1. m]"	"Frequency / Hz"	"Sound Pressure Level / dB (re 20 µPa/V)  [2.83  V @ 1. m]"	"Frequency / Hz"	"Sound Pressure Level / dB (re 20 µPa/V)  [2.83  V @ 1. m]"	"Frequency / Hz"	"Sound Pressure Level / dB (re 20 µPa/V)  [2.83  V @ 1. m]"	"Frequency / Hz"	"Sound Pressure Level / dB (re 20 µPa/V)  [2.83  V @ 1. m]"	"Frequency / Hz"	"Sound Pressure Level / dB (re 20 µPa/V)  [2.83  V @ 1. m]"	"Frequency / Hz"	"Sound Pressure Level / dB (re 20 µPa/V)  [2.83  V @ 1. m]"	"Frequency / Hz"	"Sound Pressure Level / dB (re 20 µPa/V)  [2.83  V @ 1. m]"	"Frequency / Hz"	"Sound Pressure Level / dB (re 20 µPa/V)  [2.83  V @ 1. m]"	"Frequency / Hz"	"Sound Pressure Level / dB (re 20 µPa/V)  [2.83  V @ 1. m]"	"Frequency / Hz"	"Sound Pressure Level / dB (re 20 µPa/V)  [2.83  V @ 1. m]"	"Frequency / Hz"	"Sound Pressure Level / dB (re 20 µPa/V)  [2.83  V @ 1. m]"	"Frequency / Hz"	"Sound Pressure Level / dB (re 20 µPa/V)  [2.83  V @ 1. m]"	"Frequency / Hz"	"Sound Pressure Level / dB (re 20 µPa/V)  [2.83  V @ 1. m]"	"Frequency / Hz"	"Sound Pressure Level / dB (re 20 µPa/V)  [2.83  V @ 1. m]"	"Frequency / Hz"	"Sound Pressure Level / dB (re 20 µPa/V)  [2.83  V @ 1. m]"	"Frequency / Hz"	"Sound Pressure Level / dB (re 20 µPa/V)  [2.83  V @ 1. m]"	"Frequency / Hz"	"Sound Pressure Level / dB (re 20 µPa/V)  [2.83  V @ 1. m]"	"Frequency / Hz"	"Sound Pressure Level / dB (re 20 µPa/V)  [2.83  V @ 1. m]"	"Frequency / Hz"	"Sound Pressure Level / dB (re 20 µPa/V)  [2.83  V @ 1. m]"	"Frequency / Hz"	"Sound Pressure Level / dB (re 20 µPa/V)  [2.83  V @ 1. m]"	"Frequency / Hz"	"Sound Pressure Level / dB (re 20 µPa/V)  [2.83  V @ 1. m]"
20.5078	58.8852	20.5078	58.7781	20.5078	58.8493	20.5078	58.5381	20.5078	58.6551	20.5078	58.17	20.5078	58.2799	20.5078	57.6743	20.5078	57.6923	20.5078	57.047	20.5078	56.8495	20.5078	56.2793	20.5078	55.6949	20.5078	55.3586	20.5078	54.1598	20.5078	54.2705	20.5078	52.193	20.5078	53.0082	20.5078	49.9236	20.5078	51.5995	20.5078	48.2153	20.5078	50.1767	20.5078	48.5431	20.5078	49.0918	20.5078	50.3352	20.5078	48.858	20.5078	52.1327	20.5078	49.6085	20.5078	53.4551	20.5078	50.8845	20.5078	54.267	20.5078	52.1981	20.5078	54.6152	20.5078	53.3017	20.5078	54.5468	20.5078	54.0986
21.9727	56.8359	21.9727	56.6592	21.9727	56.8306	21.9727	56.3101	21.9727	56.622	21.9727	55.7876	21.9727	56.1744	21.9727	55.0802	21.9727	55.4319	21.9727	54.1628	21.9727	54.3077	21.9727	52.9912	21.9727	52.6628	21.9727	51.4898	21.9727	50.2701	21.9727	49.527	21.9727	46.8433	21.9727	46.8663	21.9727	43.4429	21.9727	43.1311	21.9727	45.3723	21.9727	39.0678	21.9727	49.2699	21.9727	41.1583	21.9727	52.1142	21.9727	45.6381	21.9727	54.0193	21.9727	48.9527	21.9727	55.233	21.9727	51.3593	21.9727	55.9058	21.9727	53.1476	21.9727	56.1261	21.9727	54.4681	21.9727	55.946	21.9727	55.3922
23.4375	54.4872	23.4375	54.3618	23.4375	54.3171	23.4375	53.9567	23.4375	53.8041	23.4375	53.2602	23.4375	52.8521	23.4375	52.2291	23.4375	51.2709	23.4375	50.7725	23.4375	48.6359	23.4375	48.7117	23.4375	43.6582	23.4375	45.6876	23.4375	24.0842	23.4375	41.1232	23.4375	42.9764	23.4375	38.5856	23.4375	49.7245	23.4375	43.9294	23.4375	53.5438	23.4375	48.4319	23.4375	56.1196	23.4375	51.6243	23.4375	57.947	23.4375	54.0326	23.4375	59.2372	23.4375	55.9263	23.4375	60.0989	23.4375	57.4409	23.4375	60.5954	23.4375	58.6462	23.4375	60.7674	23.4375	59.5759	23.4375	60.6431	23.4375	60.2421
24.9023	55.8136	24.9023	55.744	24.9023	55.6296	24.9023	55.4403	24.9023	55.1572	24.9023	54.9107	24.9023	54.3437	24.9023	54.1573	24.9023	53.1215	24.9023	53.1859	24.9023	51.4617	24.9023	52.0369	24.9023	49.6723	24.9023	50.8637	24.9023	49.1591	24.9023	50.0673	24.9023	51.0614	24.9023	50.2224	24.9023	53.8458	24.9023	51.4463	24.9023	56.3401	24.9023	53.2233	24.9023	58.3373	24.9023	55.067	24.9023	59.8736	24.9023	56.7628	24.9023	61.008	24.9023	58.2478	24.9023	61.7882	24.9023	59.511	24.9023	62.2495	24.9023	60.5529	24.9023	62.419	24.9023	61.3727	24.9023	62.318	24.9023	61.9645
26.3672	58.9855	26.3672	58.9541	26.3672	58.8548	26.3672	58.7709	26.3672	58.5473	26.3672	58.4423	26.3672	58.0448	26.3672	57.9727	26.3672	57.3324	26.3672	57.3678	26.3672	56.4204	26.3672	56.6414	26.3672	55.4052	26.3672	55.8301	26.3672	54.5868	26.3672	55.0193	26.3672	54.4869	26.3672	54.377	26.3672	55.3717	26.3672	54.1446	26.3672	56.8565	26.3672	54.5024	26.3672	58.4151	26.3672	55.3992	26.3672	59.768	26.3672	56.6	26.3672	60.8217	26.3672	57.872	26.3672	61.559	26.3672	59.0685	26.3672	61.9882	26.3672	60.1121	26.3672	62.1253	26.3672	60.9624	26.3672	61.9879	26.3672	61.5942
27.832	61.1056	27.832	61.0154	27.832	61.0221	27.832	60.761	27.832	60.7487	27.832	60.3464	27.832	60.2622	27.832	59.7708	27.832	59.534	27.832	59.0303	27.832	58.5391	27.832	58.1231	27.832	57.2918	27.832	57.062	27.832	55.9579	27.832	55.9084	27.832	55.0674	27.832	54.8415	27.832	55.3568	27.832	54.2242	27.832	56.7577	27.832	54.442	27.832	58.4924	27.832	55.4757	27.832	60.0535	27.832	56.9197	27.832	61.2805	27.832	58.4074	27.832	62.1506	27.832	59.7546	27.832	62.6787	27.832	60.889	27.832	62.8868	27.832	61.7831	27.832	62.7957	27.832	62.4229
29.2969	61.3411	29.2969	61.2221	29.2969	61.2701	29.2969	60.9232	29.2969	60.9886	29.2969	60.4455	29.2969	60.463	29.2969	59.7805	29.2969	59.6424	29.2969	58.9094	29.2969	58.4518	29.2969	57.8013	29.2969	56.7912	29.2969	56.4134	29.2969	54.5862	29.2969	54.7051	29.2969	52.1798	29.2969	52.7172	29.2969	51.4821	29.2969	50.8841	29.2969	53.61	29.2969	50.4523	29.2969	56.2968	29.2969	51.9945	29.2969	58.456	29.2969	54.2646	29.2969	60.016	29.2969	56.3771	29.2969	61.0618	29.2969	58.1303	29.2969	61.6702	29.2969	59.5248	29.2969	61.8964	29.2969	60.5882	29.2969	61.7779	29.2969	61.3382
30.7617	61.123	30.7617	60.9844	30.7617	61.0507	30.7617	60.645	30.7617	60.7433	30.7617	60.1027	30.7617	60.1582	30.7617	59.3429	30.7617	59.2265	30.7617	58.3376	30.7617	57.84	30.7617	57.044	30.7617	55.8377	30.7617	55.4127	30.7617	53.0798	30.7617	53.4442	30.7617	50.3878	30.7617	51.4584	30.7617	51.3628	30.7617	50.6781	30.7617	54.8247	30.7617	52.1027	30.7617	57.7987	30.7617	54.5169	30.7617	59.985	30.7617	56.8174	30.7617	61.5403	30.7617	58.7466	30.7617	62.5948	30.7617	60.3077	30.7617	63.2329	30.7617	61.5391	30.7617	63.5094	30.7617	62.4689	30.7617	63.4606	30.7617	63.1096
32.2266	61.1103	32.2266	61.0403	32.2266	60.9508	32.2266	60.7557	32.2266	60.5323	32.2266	60.2595	32.2266	59.8062	32.2266	59.5443	32.2266	58.6968	32.2266	58.5943	32.2266	57.0965	32.2266	57.3918	32.2266	54.9109	32.2266	55.9458	32.2266	52.4838	32.2266	54.3877	32.2266	51.9842	32.2266	53.2033	32.2266	54.5463	32.2266	53.2427	32.2266	57.556	32.2266	54.6565	32.2266	59.9757	32.2266	56.6313	32.2266	61.7891	32.2266	58.5571	32.2266	63.0991	32.2266	60.237	32.2266	63.9887	32.2266	61.6396	32.2266	64.5156	32.2266	62.7734	32.2266	64.7202	32.2266	63.6491	32.2266	64.6315	32.2266	64.2702
33.6914	62.062	33.6914	61.9843	33.6914	61.9186	33.6914	61.7006	33.6914	61.5267	33.6914	61.2158	33.6914	60.8443	33.6914	60.5261	33.6914	59.8135	33.6914	59.6224	33.6914	58.3719	33.6914	58.4992	33.6914	56.5389	33.6914	57.1861	33.6914	54.8103	33.6914	55.8343	33.6914	54.7158	33.6914	54.8793	33.6914	56.7221	33.6914	54.967	33.6914	59.2266	33.6914	56.1977	33.6914	61.3755	33.6914	57.9647	33.6914	63.0427	33.6914	59.7502	33.6914	64.268	33.6914	61.3479	33.6914	65.1051	33.6914	62.705	33.6914	65.5977	33.6914	63.8159	33.6914	65.7792	33.6914	64.6831	33.6914	65.6753	33.6914	65.3054
35.1562	63.1746	35.1562	63.079	35.1562	63.0654	35.1562	62.7945	35.1562	62.7252	35.1562	62.3278	35.1562	62.1152	35.1562	61.6788	35.1562	61.1832	35.1562	60.843	35.1562	59.8713	35.1562	59.8209	35.1562	58.1729	35.1562	58.6409	35.1562	56.3973	35.1562	57.42	35.1562	55.7322	35.1562	56.4709	35.1562	57.1584	35.1562	56.2952	35.1562	59.4983	35.1562	57.1274	35.1562	61.6528	35.1562	58.6062	35.1562	63.3578	35.1562	60.2456	35.1562	64.618	35.1562	61.7806	35.1562	65.4809	35.1562	63.1147	35.1562	65.9905	35.1562	64.22	35.1562	66.1817	35.1562	65.088	35.1562	66.0819	35.1562	65.7121
36.6211	63.3149	36.6211	63.2357	36.6211	63.1835	36.6211	62.9608	36.6211	62.8155	36.6211	62.4959	36.6211	62.1716	36.6211	61.8391	36.6211	61.1973	36.6211	60.9837	36.6211	59.8319	36.6211	59.9267	36.6211	58.0733	36.6211	58.6933	36.6211	56.2836	36.6211	57.4044	36.6211	55.7866	36.6211	56.4045	36.6211	57.4392	36.6211	56.2584	36.6211	59.8647	36.6211	57.2002	36.6211	62.0299	36.6211	58.7868	36.6211	63.726	36.6211	60.4941	36.6211	64.9739	36.6211	62.0653	36.6211	65.8253	36.6211	63.4172	36.6211	66.3254	36.6211	64.5309	36.6211	66.5093	36.6211	65.4032	36.6211	66.4041	36.6211	66.0305
38.0859	63.5213	38.0859	63.4674	38.0859	63.3586	38.0859	63.2129	38.0859	62.9525	38.0859	62.7651	38.0859	62.264	38.0859	62.1245	38.0859	61.2444	38.0859	61.2896	38.0859	59.8586	38.0859	60.2694	38.0859	58.2017	38.0859	59.1146	38.0859	56.8869	38.0859	57.9935	38.0859	57.1947	38.0859	57.2874	38.0859	59.1485	38.0859	57.4636	38.0859	61.4483	38.0859	58.5603	38.0859	63.4379	38.0859	60.1306	38.0859	64.9985	38.0859	61.7606	38.0859	66.1518	38.0859	63.2539	38.0859	66.939	38.0859	64.5443	38.0859	67.3973	38.0859	65.6138	38.0859	67.5565	38.0859	66.4575	38.0859	67.4409	38.0859	67.0697
39.5508	64.1233	39.5508	64.084	39.5508	63.9597	39.5508	63.8585	39.5508	63.5689	39.5508	63.4579	39.5508	62.9215	39.5508	62.8902	39.5508	61.9922	39.5508	62.1668	39.5508	60.7993	39.5508	61.3162	39.5508	59.5323	39.5508	60.4135	39.5508	58.7943	39.5508	59.6283	39.5508	59.3643	39.5508	59.2456	39.5508	61.0531	39.5508	59.53	39.5508	63.0133	39.5508	60.4682	39.5508	64.7653	39.5508	61.7816	39.5508	66.1765	39.5508	63.1865	39.5508	67.2373	39.5508	64.5163	39.5508	67.9684	39.5508	65.6949	39.5508	68.3948	39.5508	66.6898	39.5508	68.5399	39.5508	67.4849	39.5508	68.4247	39.5508	68.0678
41.0156	65.3197	41.0156	65.2764	41.0156	65.1788	41.0156	65.0631	41.0156	64.835	41.0156	64.6897	41.0156	64.2677	41.0156	64.1638	41.0156	63.4654	41.0156	63.4967	41.0156	62.4599	41.0156	62.7146	41.0156	61.4174	41.0156	61.8819	41.0156	60.7787	41.0156	61.1379	41.0156	61.1116	41.0156	60.7163	41.0156	62.4102	41.0156	60.8578	41.0156	64.0896	41.0156	61.6075	41.0156	65.6877	41.0156	62.7643	41.0156	67.0202	41.0156	64.0684	41.0156	68.0413	41.0156	65.3409	41.0156	68.7527	41.0156	66.4891	41.0156	69.1696	41.0156	67.4688	41.0156	69.3104	41.0156	68.2569	41.0156	69.1936	41.0156	68.837
42.4805	65.9311	42.4805	65.8871	42.4805	65.8014	42.4805	65.6821	42.4805	65.4817	42.4805	65.3253	42.4805	64.9564	42.4805	64.8238	42.4805	64.2217	42.4805	64.1873	42.4805	63.3182	42.4805	63.4376	42.4805	62.4068	42.4805	62.6279	42.4805	61.8641	42.4805	61.8737	42.4805	62.1462	42.4805	61.3776	42.4805	63.2707	42.4805	61.3756	42.4805	64.7781	42.4805	61.9648	42.4805	66.2534	42.4805	63.0043	42.4805	67.503	42.4805	64.2478	42.4805	68.465	42.4805	65.5013	42.4805	69.1304	42.4805	66.6546	42.4805	69.5083	42.4805	67.6527	42.4805	69.6138	42.4805	68.4662	42.4805	69.4638	42.4805	69.0756
43.9453	67.2717	43.9453	67.2029	43.9453	67.1815	43.9453	66.9865	43.9453	66.9193	43.9453	66.6312	43.9453	66.4728	43.9453	66.1451	43.9453	65.8401	43.9453	65.5392	43.9453	65.052	43.9453	64.8358	43.9453	64.223	43.9453	64.0837	43.9453	63.6198	43.9453	63.3818	43.9453	63.6173	43.9453	62.896	43.9453	64.3692	43.9453	62.8228	43.9453	65.6052	43.9453	63.2658	43.9453	66.9386	43.9453	64.1409	43.9453	68.1291	43.9453	65.2484	43.9453	69.0756	43.9453	66.4043	43.9453	69.7475	43.9453	67.4899	43.9453	70.1431	43.9453	68.439	43.9453	70.2723	43.9453	69.2141	43.9453	70.1493	43.9453	69.7907
45.4102	68.0692	45.4102	68.0047	45.4102	67.9686	45.4102	67.7868	45.4102	67.6883	45.4102	67.4233	45.4102	67.2121	45.4102	66.9201	45.4102	66.5295	45.4102	66.2843	45.4102	65.6557	45.4102	65.5315	45.4102	64.6812	45.4102	64.7002	45.4102	63.8626	45.4102	63.8781	45.4102	63.639	45.4102	63.2321	45.4102	64.2841	45.4102	62.9928	45.4102	65.5393	45.4102	63.3234	45.4102	66.9411	45.4102	64.1668	45.4102	68.1987	45.4102	65.2984	45.4102	69.1971	45.4102	66.4976	45.4102	69.9056	45.4102	67.6247	45.4102	70.3254	45.4102	68.6059	45.4102	70.4688	45.4102	69.4023	45.4102	70.3515	45.4102	69.9903
46.875	68.2531	46.875	68.1878	46.875	68.1478	46.875	67.9637	46.875	67.8567	46.875	67.5889	46.875	67.3631	46.875	67.0698	46.875	66.6559	46.875	66.414	46.875	65.7512	46.875	65.6386	46.875	64.7463	46.875	64.7862	46.875	63.9201	46.875	63.9532	46.875	63.7427	46.875	63.3209	46.875	64.4752	46.875	63.1317	46.875	65.8056	46.875	63.5366	46.875	67.2503	46.875	64.448	46.875	68.5281	46.875	65.6233	46.875	69.535	46.875	66.844	46.875	70.2468	46.875	67.9788	46.875	70.6682	46.875	68.9605	46.875	70.8129	46.875	69.7545	46.875	70.6977	46.875	70.3393
48.3398	68.3816	48.3398	68.3305	48.3398	68.2551	48.3398	68.1125	48.3398	67.9364	48.3398	67.7348	48.3398	67.4098	48.3398	67.2023	48.3398	66.6672	48.3398	66.5214	48.3398	65.7343	48.3398	65.7089	48.3398	64.7358	48.3398	64.8102	48.3398	64.0014	48.3398	63.933	48.3398	64.0176	48.3398	63.2853	48.3398	64.9413	48.3398	63.1402	48.3398	66.3665	48.3398	63.6445	48.3398	67.8282	48.3398	64.6635	48.3398	69.0879	48.3398	65.9187	48.3398	70.0653	48.3398	67.1879	48.3398	70.7459	48.3398	68.3495	48.3398	71.1383	48.3398	69.3467	48.3398	71.2582	48.3398	70.1522	48.3398	71.123	48.3398	70.7491
51.2695	69.4207	51.2695	69.3672	51.2695	69.3088	51.2695	69.159	51.2695	69.0189	51.2695	68.8048	51.2695	68.5402	51.2695	68.3137	51.2695	67.8729	51.2695	67.6991	51.2695	67.054	51.2695	66.9887	51.2695	66.214	51.2695	66.2413	51.2695	65.6472	51.2695	65.5708	51.2695	65.7395	51.2695	65.1578	51.2695	66.598	51.2695	65.1922	51.2695	67.9018	51.2695	65.7391	51.2695	69.2633	51.2695	66.6768	51.2695	70.4602	51.2695	67.7999	51.2695	71.4056	51.2695	68.9389	51.2695	72.0764	51.2695	69.9911	51.2695	72.4755	51.2695	70.9007	51.2695	72.6152	51.2695	71.637	51.2695	72.511	51.2695	72.1795
52.7344	70.0375	52.7344	69.996	52.7344	69.9275	52.7344	69.8135	52.7344	69.654	52.7344	69.499	52.7344	69.2069	52.7344	69.0619	52.7344	68.5869	52.7344	68.5158	52.7344	67.8287	52.7344	67.8861	52.7344	67.0482	52.7344	67.2231	52.7344	66.501	52.7344	66.6197	52.7344	66.5269	52.7344	66.2189	52.7344	67.2545	52.7344	66.179	52.7344	68.4344	52.7344	66.5797	52.7344	69.7109	52.7344	67.3554	52.7344	70.8558	52.7344	68.3459	52.7344	71.7697	52.7344	69.3929	52.7344	72.4211	52.7344	70.3864	52.7344	72.8083	52.7344	71.2605	52.7344	72.9415	52.7344	71.9763	52.7344	72.8358	52.7344	72.5081
54.1992	71.0089	54.1992	70.9825	54.1992	70.8721	54.1992	70.8026	54.1992	70.5608	54.1992	70.4762	54.1992	70.0641	54.1992	70.0101	54.1992	69.3815	54.1992	69.4143	54.1992	68.547	54.1992	68.7102	54.1992	67.683	54.1992	67.9458	54.1992	67.0703	54.1992	67.2193	54.1992	67.0899	54.1992	66.6991	54.1992	67.8724	54.1992	66.5881	54.1992	69.1211	54.1992	66.9976	54.1992	70.4484	54.1992	67.8443	54.1992	71.6241	54.1992	68.9241	54.1992	72.555	54.1992	70.0492	54.1992	73.2156	54.1992	71.1003	54.1992	73.6074	54.1992	72.0132	54.1992	73.7418	54.1992	72.7532	54.1992	73.6337	54.1992	73.299
55.6641	70.6047	55.6641	70.5938	55.6641	70.452	55.6641	70.4305	55.6641	70.1251	55.6641	70.1255	55.6641	69.6194	55.6641	69.6914	55.6641	68.9508	55.6641	69.1475	55.6641	68.1905	55.6641	68.529	55.6641	67.5235	55.6641	67.903	55.6641	67.2731	55.6641	67.384	55.6641	67.7162	55.6641	67.1302	55.6641	68.7763	55.6641	67.2821	55.6641	70.1053	55.6641	67.8651	55.6641	71.4027	55.6641	68.7666	55.6641	72.5135	55.6641	69.8196	55.6641	73.3784	55.6641	70.8857	55.6641	73.9833	55.6641	71.8764	55.6641	74.3325	55.6641	72.741	55.6641	74.4378	55.6641	73.449	55.6641	74.3147	55.6641	73.9794
58.5938	72.1274	58.5938	72.0889	58.5938	72.0416	58.5938	71.9342	58.5938	71.8255	58.5938	71.6724	58.5938	71.4792	58.5938	71.3149	58.5938	71.0181	58.5938	70.879	58.5938	70.4903	58.5938	70.3928	58.5938	70.0019	58.5938	69.9039	58.5938	69.7281	58.5938	69.4866	58.5938	69.8528	58.5938	69.2396	58.5938	70.4298	58.5938	69.2597	58.5938	71.3235	58.5938	69.594	58.5938	72.3203	58.5938	70.2077	58.5938	73.2504	58.5938	71.004	58.5938	74.0163	58.5938	71.8722	58.5938	74.5733	58.5938	72.7215	58.5938	74.9062	58.5938	73.4877	58.5938	75.0161	58.5938	74.1273	58.5938	74.9124	58.5938	74.6099
60.0586	72.5281	60.0586	72.4892	60.0586	72.4396	60.0586	72.3311	60.0586	72.217	60.0586	72.0629	60.0586	71.8597	60.0586	71.6963	60.0586	71.3817	60.0586	71.2478	60.0586	70.8302	60.0586	70.7457	60.0586	70.3122	60.0586	70.2371	60.0586	70.0087	60.0586	69.7969	60.0586	70.1151	60.0586	69.5262	60.0586	70.692	60.0586	69.5261	60.0586	71.5987	60.0586	69.8481	60.0586	72.6116	60.0586	70.459	60.0586	73.5548	60.0586	71.2599	60.0586	74.3292	60.0586	72.1368	60.0586	74.8902	60.0586	72.9964	60.0586	75.2235	60.0586	73.7729	60.0586	75.3308	60.0586	74.4221	60.0586	75.2223	60.0586	74.913
62.9883	73.4958	62.9883	73.4703	62.9883	73.4003	62.9883	73.3319	62.9883	73.1792	62.9883	73.0906	62.9883	72.8352	62.9883	72.7595	62.9883	72.3882	62.9883	72.3576	62.9883	71.892	62.9883	71.9145	62.9883	71.4571	62.9883	71.4767	62.9883	71.2528	62.9883	71.1128	62.9883	71.4404	62.9883	70.9094	62.9883	72.0482	62.9883	70.9485	62.9883	72.937	62.9883	71.2694	62.9883	73.9078	62.9883	71.8438	62.9883	74.8057	62.9883	72.5903	62.9883	75.541	62.9883	73.4116	62.9883	76.072	62.9883	74.2237	62.9883	76.3846	62.9883	74.964	62.9883	76.4801	62.9883	75.5882	62.9883	76.3683	62.9883	76.0645
64.4531	74.0929	64.4531	74.0723	64.4531	74.0011	64.4531	73.9465	64.4531	73.7933	64.4531	73.7251	64.4531	73.4735	64.4531	73.4203	64.4531	73.0627	64.4531	73.0497	64.4531	72.6143	64.4531	72.6403	64.4531	72.231	64.4531	72.2337	64.4531	72.0636	64.4531	71.8906	64.4531	72.2503	64.4531	71.6878	64.4531	72.8148	64.4531	71.7007	64.4531	73.6375	64.4531	71.9713	64.4531	74.5422	64.4531	72.4838	64.4531	75.3847	64.4531	73.1707	64.4531	76.0774	64.4531	73.9436	64.4531	76.5769	64.4531	74.7207	64.4531	76.867	64.4531	75.4382	64.4531	76.9474	64.4531	76.0496	64.4531	76.8271	64.4531	76.5211
67.3828	74.9569	67.3828	74.9375	67.3828	74.8756	67.3828	74.8226	67.3828	74.6929	67.3828	74.6205	67.3828	74.4174	67.3828	74.3431	67.3828	74.0743	67.3828	74.0076	67.3828	73.7181	67.3828	73.64	67.3828	73.4423	67.3828	73.2796	67.3828	73.3692	67.3828	72.9814	67.3828	73.5986	67.3828	72.8131	67.3828	74.1368	67.3828	72.8393	67.3828	74.8849	67.3828	73.0965	67.3828	75.7001	67.3828	73.5728	67.3828	76.4605	67.3828	74.2118	67.3828	77.0868	67.3828	74.9364	67.3828	77.5363	67.3828	75.672	67.3828	77.7911	67.3828	76.358	67.3828	77.8488	67.3828	76.9488	67.3828	77.7172	67.3828	77.4105
68.8477	75.4943	68.8477	75.4662	68.8477	75.4322	68.8477	75.3522	68.8477	75.2802	68.8477	75.1597	68.8477	75.0473	68.8477	74.8998	68.8477	74.7576	68.8477	74.5883	68.8477	74.46	68.8477	74.2495	68.8477	74.2351	68.8477	73.9187	68.8477	74.1854	68.8477	73.6449	68.8477	74.3945	68.8477	73.4876	68.8477	74.8722	68.8477	73.5045	68.8477	75.5408	68.8477	73.7302	68.8477	76.2792	68.8477	74.1589	68.8477	76.9762	68.8477	74.7449	68.8477	77.5543	68.8477	75.4206	68.8477	77.9689	68.8477	76.1164	68.8477	78.1997	68.8477	76.7735	68.8477	78.2425	68.8477	77.3458	68.8477	78.104	68.8477	77.7983
71.7773	76.7783	71.7773	76.7407	71.7773	76.7329	71.7773	76.6244	71.7773	76.6046	71.7773	76.4364	71.7773	76.4004	71.7773	76.1867	71.7773	76.1405	71.7773	75.8897	71.7773	75.8651	71.7773	75.5666	71.7773	75.6406	71.7773	75.2477	71.7773	75.5536	71.7773	74.9749	71.7773	75.6821	71.7773	74.7995	71.7773	76.0503	71.7773	74.7735	71.7773	76.6068	71.7773	74.9324	71.7773	77.2508	71.7773	75.2801	71.7773	77.878	71.7773	75.7838	71.7773	78.4087	71.7773	76.3864	71.7773	78.7934	71.7773	77.0237	71.7773	79.0074	71.7773	77.6371	71.7773	79.0436	71.7773	78.1789	71.7773	78.907	71.7773	78.6117
74.707	77.8523	74.707	77.8165	74.707	77.8098	74.707	77.7063	74.707	77.6896	74.707	77.5283	74.707	77.4991	74.707	77.2922	74.707	77.2581	74.707	77.0116	74.707	77.0048	74.707	76.7062	74.707	76.8004	74.707	76.4042	74.707	76.7236	74.707	76.144	74.707	76.8444	74.707	75.9725	74.707	77.1859	74.707	75.938	74.707	77.7038	74.707	76.075	74.707	78.3074	74.707	76.3903	74.707	78.8994	74.707	76.8574	74.707	79.4031	74.707	77.4252	74.707	79.7688	74.707	78.0331	74.707	79.971	74.707	78.6241	74.707	80.0013	74.707	79.1501	74.707	79.8641	74.707	79.5732
77.6367	78.8177	77.6367	78.7842	77.6367	78.7812	77.6367	78.6829	77.6367	78.6762	77.6367	78.5193	77.6367	78.5116	77.6367	78.3021	77.6367	78.3072	77.6367	78.0437	77.6367	78.0988	77.6367	77.7622	77.6367	77.941	77.6367	77.4834	77.6367	77.9002	77.6367	77.2421	77.6367	78.0333	77.6367	77.0809	77.6367	78.3569	77.6367	77.0433	77.6367	78.8327	77.6367	77.1623	77.6367	79.383	77.6367	77.4467	77.6367	79.9226	77.6367	77.8758	77.6367	80.3812	77.6367	78.4053	77.6367	80.7117	77.6367	78.9797	77.6367	80.8885	77.6367	79.5448	77.6367	80.9026	77.6367	80.0534	77.6367	80.7578	77.6367	80.4675
79.1016	79.2804	79.1016	79.2442	79.1016	79.2509	79.1016	79.1443	79.1016	79.1582	79.1016	78.9856	79.1016	79.0112	79.1016	78.7762	79.1016	78.8295	79.1016	78.5283	79.1016	78.6469	79.1016	78.2595	79.1016	78.514	79.1016	77.9949	79.1016	78.491	79.1016	77.7678	79.1016	78.6287	79.1016	77.6187	79.1016	78.9417	79.1016	77.5886	79.1016	79.3954	79.1016	77.7083	79.1016	79.9192	79.1016	77.9862	79.1016	80.4335	79.1016	78.4029	79.1016	80.8714	79.1016	78.9169	79.1016	81.1868	79.1016	79.4756	79.1016	81.3538	79.1016	80.0267	79.1016	81.363	79.1016	80.5243	79.1016	81.2178	79.1016	80.9311
82.0312	80.3112	82.0312	80.2717	82.0312	80.2938	82.0312	80.177	82.0312	80.2223	82.0312	80.0318	82.0312	80.1054	82.0312	79.8439	82.0312	79.961	82.0312	79.625	82.0312	79.8192	82.0312	79.3918	82.0312	79.7226	82.0312	79.1669	82.0312	79.7211	82.0312	78.9798	82.0312	79.8561	82.0312	78.8646	82.0312	80.1407	82.0312	78.8552	82.0312	80.5483	82.0312	78.9767	82.0312	81.0209	82.0312	79.2361	82.0312	81.4895	82.0312	79.6182	82.0312	81.893	82.0312	80.0885	82.0312	82.1868	82.0312	80.6019	82.0312	82.3444	82.0312	81.1113	82.0312	82.3549	82.0312	81.5738	82.0312	82.2205	82.0312	81.9531
84.9609	81.3158	84.9609	81.2831	84.9609	81.3025	84.9609	81.2047	84.9609	81.2467	84.9609	81.0843	84.9609	81.1574	84.9609	80.9286	84.9609	81.0513	84.9609	80.7473	84.9609	80.9538	84.9609	80.5544	84.9609	80.8995	84.9609	80.3686	84.9609	80.9263	84.9609	80.2139	84.9609	81.0644	84.9609	80.1179	84.9609	81.3223	84.9609	80.1086	84.9609	81.6789	84.9609	80.2081	84.9609	82.0884	84.9609	80.425	84.9609	82.4942	84.9609	80.7505	84.9609	82.8434	84.9609	81.1587	84.9609	83.0961	84.9609	81.6123	84.9609	83.227	84.9609	82.0698	84.9609	83.2255	84.9609	82.4911	84.9609	83.0931	84.9609	82.8416
87.8906	82.6344	87.8906	82.5782	87.8906	82.6469	87.8906	82.4797	87.8906	82.617	87.8906	82.3428	87.8906	82.5501	87.8906	82.1735	87.8906	82.4582	87.8906	81.9806	87.8906	82.3613	87.8906	81.7766	87.8906	82.2885	87.8906	81.5784	87.8906	82.2752	87.8906	81.4077	87.8906	82.354	87.8906	81.2905	87.8906	82.5414	87.8906	81.2537	87.8906	82.8271	87.8906	81.3193	87.8906	83.1741	87.8906	81.4984	87.8906	83.53	87.8906	81.7855	87.8906	83.8419	87.8906	82.1586	87.8906	84.0676	87.8906	82.5833	87.8906	84.1795	87.8906	83.0196	87.8906	84.1652	87.8906	83.4279	87.8906	84.0257	87.8906	83.7729
90.8203	83.1867	90.8203	83.1398	90.8203	83.2017	90.8203	83.0621	90.8203	83.1873	90.8203	82.9575	90.8203	83.1506	90.8203	82.8321	90.8203	83.1047	90.8203	82.6947	90.8203	83.0697	90.8203	82.5566	90.8203	83.0714	90.8203	82.4322	90.8203	83.1372	90.8203	82.3386	90.8203	83.2879	90.8203	82.2948	90.8203	83.5287	90.8203	82.3195	90.8203	83.843	90.8203	82.4277	90.8203	84.1956	90.8203	82.6259	90.8203	84.5415	90.8203	82.9095	90.8203	84.8371	90.8203	83.2619	90.8203	85.047	90.8203	83.6563	90.8203	85.1486	90.8203	84.06	90.8203	85.1318	90.8203	84.4388	90.8203	84.9986	90.8203	84.7607
95.2148	84.9725	95.2148	84.9171	95.2148	85.0072	95.2148	84.8409	95.2148	85.0232	95.2148	84.7454	95.2148	85.0248	95.2148	84.6335	95.2148	85.0194	95.2148	84.51	95.2148	85.0186	95.2148	84.3818	95.2148	85.0376	95.2148	84.2588	95.2148	85.0935	95.2148	84.1539	95.2148	85.2009	95.2148	84.0826	95.2148	85.3663	95.2148	84.0621	95.2148	85.5828	95.2148	84.1083	95.2148	85.8291	95.2148	84.2321	95.2148	86.0733	95.2148	84.436	95.2148	86.2806	95.2148	84.7111	95.2148	86.42	95.2148	85.0378	95.2148	86.4697	95.2148	85.3882	95.2148	86.4194	95.2148	85.7306	95.2148	86.2701	95.2148	86.0337
98.1445	85.9721	98.1445	85.9165	98.1445	86.0125	98.1445	85.8461	98.1445	86.0384	98.1445	85.7625	98.1445	86.0529	98.1445	85.6682	98.1445	86.0615	98.1445	85.5669	98.1445	86.0728	98.1445	85.4641	98.1445	86.099	98.1445	85.367	98.1445	86.1538	98.1445	85.2854	98.1445	86.2494	98.1445	85.2309	98.1445	86.392	98.1445	85.217	98.1445	86.5769	98.1445	85.2566	98.1445	86.7873	98.1445	85.3598	98.1445	86.9968	98.1445	85.5303	98.1445	87.175	98.1445	85.7634	98.1445	87.2938	98.1445	86.0445	98.1445	87.333	98.1445	86.351	98.1445	87.2826	98.1445	86.6551	98.1445	87.1438	98.1445	86.928
101.074	87.0051	101.074	86.9516	101.074	87.0469	101.074	86.8866	101.074	87.0776	101.074	86.811	101.074	87.0992	101.074	86.7262	101.074	87.1155	101.074	86.6344	101.074	87.1326	101.074	86.5394	101.074	87.1592	101.074	86.4464	101.074	87.2054	101.074	86.3628	101.074	87.2805	101.074	86.2983	101.074	87.3901	101.074	86.2648	101.074	87.5315	101.074	86.2745	101.074	87.6927	101.074	86.3383	101.074	87.8527	101.074	86.4629	101.074	87.9863	101.074	86.6474	101.074	88.0691	101.074	86.8818	101.074	88.0829	101.074	87.1475	101.074	88.0185	101.074	87.4197	101.074	87.8776	101.074	87.6714
105.469	88.2905	105.469	88.2365	105.469	88.3372	105.469	88.1749	105.469	88.3773	105.469	88.1055	105.469	88.4118	105.469	88.0284	105.469	88.4427	105.469	87.9446	105.469	88.4734	105.469	87.8558	105.469	88.5091	105.469	87.7658	105.469	88.5559	105.469	87.68	105.469	88.6199	105.469	87.6068	105.469	88.7051	105.469	87.5565	105.469	88.8097	105.469	87.5412	105.469	88.9251	105.469	87.5723	105.469	89.0357	105.469	87.6585	105.469	89.1216	105.469	87.8019	105.469	89.1628	105.469	87.9964	105.469	89.1445	105.469	88.2271	105.469	89.0594	105.469	88.4726	105.469	88.9101	105.469	88.7082
108.398	89.141	108.398	89.0775	108.398	89.2016	108.398	89.0111	108.398	89.2593	108.398	88.9416	108.398	89.314	108.398	88.8686	108.398	89.3665	108.398	88.7922	108.398	89.4183	108.398	88.7135	108.398	89.4721	108.398	88.6351	108.398	89.5317	108.398	88.5614	108.398	89.6009	108.398	88.4992	108.398	89.6815	108.398	88.4572	108.398	89.7718	108.398	88.4454	108.398	89.8646	108.398	88.4737	108.398	89.9471	108.398	88.5499	108.398	90.0032	108.398	88.6768	108.398	90.0167	108.398	88.851	108.398	89.9754	108.398	89.0614	108.398	89.8742	108.398	89.2903	108.398	89.7171	108.398	89.5162
112.793	90.303	112.793	90.2417	112.793	90.3682	112.793	90.1838	112.793	90.4373	112.793	90.1286	112.793	90.5098	112.793	90.075	112.793	90.5849	112.793	90.0221	112.793	90.6614	112.793	89.9694	112.793	90.7383	112.793	89.9172	112.793	90.8148	112.793	89.8673	112.793	90.8899	112.793	89.8232	112.793	90.9627	112.793	89.7901	112.793	91.0307	112.793	89.7753	112.793	91.0893	112.793	89.7871	112.793	91.1309	112.793	89.8339	112.793	91.1459	112.793	89.9214	112.793	91.1239	112.793	90.0509	112.793	91.0574	112.793	90.217	112.793	90.9442	112.793	90.4074	112.793	90.7893	112.793	90.6046
117.188	91.0633	117.188	90.9974	117.188	91.1401	117.188	90.942	117.188	91.2269	117.188	90.8954	117.188	91.3212	117.188	90.8551	117.188	91.4192	117.188	90.8183	117.188	91.5164	117.188	90.7823	117.188	91.6078	117.188	90.7453	117.188	91.6891	117.188	90.7069	117.188	91.7568	117.188	90.6682	117.188	91.8086	117.188	90.6329	117.188	91.8429	117.188	90.6068	117.188	91.8579	117.188	90.5975	117.188	91.8508	117.188	90.6139	117.188	91.8176	117.188	90.6637	117.188	91.7537	117.188	90.7512	117.188	91.6563	117.188	90.8755	117.188	91.5264	117.188	91.0292	117.188	91.3701	117.188	91.1993
120.117	91.2684	120.117	91.2041	120.117	91.3473	120.117	91.1536	120.117	91.4395	120.117	91.1147	120.117	91.5421	120.117	91.0842	120.117	91.6505	120.117	91.0583	120.117	91.7588	120.117	91.0334	120.117	91.8607	120.117	91.0066	120.117	91.9498	120.117	90.9763	120.117	92.0207	120.117	90.9427	120.117	92.0696	120.117	90.9081	120.117	92.0937	120.117	90.8774	120.117	92.0916	120.117	90.8576	120.117	92.062	120.117	90.8571	120.117	92.0036	120.117	90.8844	120.117	91.9153	120.117	90.9461	120.117	91.7976	120.117	91.0443	120.117	91.6545	120.117	91.1754	120.117	91.4945	120.117	91.33
124.512	91.1749	124.512	91.1057	124.512	91.2654	124.512	91.0572	124.512	91.3756	124.512	91.0267	124.512	91.5013	124.512	91.0099	124.512	91.6361	124.512	91.002	124.512	91.7715	124.512	90.9976	124.512	91.8981	124.512	90.992	124.512	92.0062	124.512	90.9815	124.512	92.0873	124.512	90.9642	124.512	92.135	124.512	90.9401	124.512	92.1458	124.512	90.9121	124.512	92.1189	124.512	90.8857	124.512	92.0562	124.512	90.869	124.512	91.9607	124.512	90.8717	124.512	91.8368	124.512	90.903	124.512	91.6902	124.512	90.9693	124.512	91.5288	124.512	91.0722	124.512	91.3634	124.512	91.2069
128.906	90.735	128.906	90.6598	128.906	90.8386	128.906	90.6124	128.906	90.9678	128.906	90.5895	128.906	91.1168	128.906	90.5859	128.906	91.2766	128.906	90.5949	128.906	91.436	128.906	90.6095	128.906	91.5823	128.906	90.6229	128.906	91.7032	128.906	90.6295	128.906	91.7878	128.906	90.6252	128.906	91.8279	128.906	90.608	128.906	91.8196	128.906	90.5789	128.906	91.7632	128.906	90.5422	128.906	91.6631	128.906	90.5055	128.906	91.5267	128.906	90.4792	128.906	91.3635	128.906	90.4753	128.906	91.1847	128.906	90.5047	128.906	91.0029	128.906	90.5745	128.906	90.832	128.906	90.6855
133.301	90.1005	133.301	90.0178	133.301	90.2172	133.301	89.9689	133.301	90.3638	133.301	89.9503	133.301	90.5328	133.301	89.9559	133.301	90.7132	133.301	89.9774	133.301	90.8914	133.301	90.006	133.301	91.0529	133.301	90.0329	133.301	91.1831	133.301	90.0503	133.301	91.2693	133.301	90.052	133.301	91.3021	133.301	90.0347	133.301	91.2768	133.301	89.9979	133.301	91.1941	133.301	89.9453	133.301	91.06	133.301	89.8851	133.301	90.8852	133.301	89.8292	133.301	90.6835	133.301	89.793	133.301	90.4708	133.301	89.7916	133.301	90.264	133.301	89.837	133.301	90.0801	133.301	89.9342
139.16	89.0597	139.16	88.9634	139.16	89.1955	139.16	88.9073	139.16	89.3653	139.16	88.8884	139.16	89.5596	139.16	88.8997	139.16	89.7654	139.16	88.9322	139.16	89.967	139.16	88.9749	139.16	90.1475	139.16	89.0171	139.16	90.29	139.16	89.0488	139.16	90.3799	139.16	89.0618	139.16	90.4062	139.16	89.0508	139.16	90.3636	139.16	89.0141	139.16	90.2532	139.16	88.9548	139.16	90.0834	139.16	88.8806	139.16	89.8687	139.16	88.8046	139.16	89.628	139.16	88.7438	139.16	89.3826	139.16	88.7167	139.16	89.1539	139.16	88.7391	139.16	88.9615	139.16	88.8205
143.555	88.3423	143.555	88.2318	143.555	88.4948	143.555	88.1653	143.555	88.6826	143.555	88.1401	143.555	88.8949	143.555	88.1496	143.555	89.1171	143.555	88.1841	143.555	89.3323	143.555	88.2322	143.555	89.5222	143.555	88.2819	143.555	89.6689	143.555	88.3221	143.555	89.7567	143.555	88.3437	143.555	89.774	143.555	88.3402	143.555	89.7154	143.555	88.3088	143.555	89.5827	143.555	88.2514	143.555	89.386	143.555	88.1749	143.555	89.1427	143.555	88.0917	143.555	88.8757	143.555	88.0188	143.555	88.6103	143.555	87.9756	143.555	88.371	143.555	87.9805	143.555	88.1784	143.555	88.0466
147.949	87.7277	147.949	87.5981	147.949	87.8998	147.949	87.5143	147.949	88.1062	147.949	87.4748	147.949	88.3344	147.949	87.4738	147.949	88.5687	147.949	87.5015	147.949	88.7911	147.949	87.5462	147.949	88.9826	147.949	87.5952	147.949	89.1246	147.949	87.6362	147.949	89.2008	147.949	87.6587	147.949	89.1992	147.949	87.655	147.949	89.1141	147.949	87.6208	147.949	88.948	147.949	87.5566	147.949	88.7125	147.949	87.4685	147.949	88.4278	147.949	87.3682	147.949	88.1209	147.949	87.2735	147.949	87.8224	147.949	87.2057	147.949	87.5612	147.949	87.187	147.949	87.3611	147.949	87.2356
153.809	87.0047	153.809	86.8606	153.809	87.1896	153.809	86.7621	153.809	87.4061	153.809	86.7093	153.809	87.6412	153.809	86.697	153.809	87.8794	153.809	86.7162	153.809	88.1033	153.809	86.755	153.809	88.2943	153.809	86.8004	153.809	88.4338	153.809	86.8395	153.809	88.5049	153.809	86.8609	153.809	88.4946	153.809	86.8559	153.809	88.3959	153.809	86.8193	153.809	88.2106	153.809	86.7504	153.809	87.9502	153.809	86.6543	153.809	87.6365	153.809	86.5424	153.809	87.2994	153.809	86.4328	153.809	86.9732	153.809	86.3486	153.809	86.6913	153.809	86.3153	153.809	86.4803	153.809	86.3549
159.668	86.4532	159.668	86.2998	159.668	86.6474	159.668	86.1929	159.668	86.8727	159.668	86.1334	159.668	87.1162	159.668	86.1175	159.668	87.3625	159.668	86.137	159.668	87.5935	159.668	86.1801	159.668	87.7898	159.668	86.2331	159.668	87.9315	159.668	86.282	159.668	88.0008	159.668	86.3142	159.668	87.9836	159.668	86.3195	159.668	87.873	159.668	86.2911	159.668	87.6714	159.668	86.2273	159.668	87.392	159.668	86.1321	159.668	87.059	159.668	86.0163	159.668	86.7056	159.668	85.8974	159.668	86.3695	159.668	85.7994	159.668	86.0862	159.668	85.749	159.668	85.8825	159.668	85.7712
165.527	86.024	165.527	85.8769	165.527	86.2154	165.527	85.7807	165.527	86.4406	165.527	85.7366	165.527	86.6856	165.527	85.7409	165.527	86.9339	165.527	85.7846	165.527	87.1664	165.527	85.8545	165.527	87.3627	165.527	85.9355	165.527	87.5022	165.527	86.0116	165.527	87.5658	165.527	86.0681	165.527	87.5391	165.527	86.0926	165.527	87.4147	165.527	86.0764	165.527	87.1956	165.527	86.0155	165.527	86.8967	165.527	85.9121	165.527	86.5457	165.527	85.7755	165.527	86.1807	165.527	85.6229	165.527	85.8448	165.527	85.4795	165.527	85.578	165.527	85.376	165.527	85.4079	165.527	85.3439
171.387	85.6063	171.387	85.4481	171.387	85.8058	171.387	85.3394	171.387	86.0347	171.387	85.2836	171.387	86.2785	171.387	85.2781	171.387	86.5208	171.387	85.3146	171.387	86.7428	171.387	85.3794	171.387	86.9241	171.387	85.456	171.387	87.0438	171.387	85.5265	171.387	87.0822	171.387	85.5745	171.387	87.0241	171.387	85.5858	171.387	86.8616	171.387	85.5508	171.387	86.5976	171.387	85.4647	171.387	86.2488	171.387	85.3293	171.387	85.8461	171.387	85.1545	171.387	85.4329	171.387	84.9587	171.387	85.0592	171.387	84.7698	171.387	84.7714	171.387	84.6232	171.387	84.6009	171.387	84.5564
177.246	85.1894	177.246	85.0287	177.246	85.3855	177.246	84.9115	177.246	85.6066	177.246	84.842	177.246	85.8401	177.246	84.8195	177.246	86.0715	177.246	84.8375	177.246	86.2835	177.246	84.8839	177.246	86.4563	177.246	84.943	177.246	86.5685	177.246	84.9974	177.246	86.5995	177.246	85.0301	177.246	86.5324	177.246	85.0265	177.246	86.3578	177.246	84.9759	177.246	86.0773	177.246	84.8732	177.246	85.7063	177.246	84.7197	177.246	85.2761	177.246	84.5255	177.246	84.832	177.246	84.3101	177.246	84.4273	177.246	84.1037	177.246	84.113	177.246	83.9445	177.246	83.9248	177.246	83.8736
183.105	84.637	183.105	84.4763	183.105	84.8365	183.105	84.3622	183.105	85.0642	183.105	84.2988	183.105	85.3078	183.105	84.2847	183.105	85.5524	183.105	84.3129	183.105	85.7807	183.105	84.3702	183.105	85.9724	183.105	84.4396	183.105	86.1053	183.105	84.5024	183.105	86.1574	183.105	84.5405	183.105	86.1101	183.105	84.5389	183.105	85.9517	183.105	84.487	183.105	85.6819	183.105	84.3801	183.105	85.3146	183.105	84.221	183.105	84.8802	183.105	84.0213	183.105	84.4238	183.105	83.8024	183.105	84.0006	183.105	83.5964	183.105	83.6643	183.105	83.4433	183.105	83.4543	183.105	83.3849
188.965	84.4276	188.965	84.2555	188.965	84.6264	188.965	84.1201	188.965	84.8409	188.965	84.0291	188.965	85.06	188.965	83.986	188.965	85.2713	188.965	83.9881	188.965	85.46	188.965	84.0263	188.965	85.6086	188.965	84.0856	188.965	85.6966	188.965	84.1475	188.965	85.7036	188.965	84.1924	188.965	85.6122	188.965	84.2022	188.965	85.4127	188.965	84.1628	188.965	85.1074	188.965	84.0662	188.965	84.7142	188.965	83.9117	188.965	84.2678	188.965	83.7083	188.965	83.8176	188.965	83.4758	188.965	83.4199	188.965	83.2448	188.965	83.1255	188.965	83.0551	188.965	82.9669	188.965	82.9501
196.289	84.1788	196.289	84.0222	196.289	84.3599	196.289	83.8997	196.289	84.5558	196.289	83.8184	196.289	84.7564	196.289	83.7809	196.289	84.9511	196.289	83.7831	196.289	85.1263	196.289	83.8141	196.289	85.2646	196.289	83.8576	196.289	85.3446	196.289	83.8946	196.289	85.3434	196.289	83.9062	196.289	85.2406	196.289	83.8762	196.289	85.0228	196.289	83.7927	196.289	84.6894	196.289	83.6498	196.289	84.2569	196.289	83.4489	196.289	83.7614	196.289	83.2002	196.289	83.2579	196.289	82.9242	196.289	82.8116	196.289	82.6531	196.289	82.4829	196.289	82.4294	196.289	82.3106	196.289	82.3008
203.613	83.9127	203.613	83.7346	203.613	84.1021	203.613	83.5796	203.613	84.2916	203.613	83.4586	203.613	84.4712	203.613	83.378	203.613	84.6318	203.613	83.3379	203.613	84.7629	203.613	83.3308	203.613	84.8509	203.613	83.3427	203.613	84.8785	203.613	83.3554	203.613	84.8262	203.613	83.3498	203.613	84.6752	203.613	83.3087	203.613	84.413	203.613	83.2184	203.613	84.039	203.613	83.071	203.613	83.5703	203.613	82.8652	203.613	83.0452	203.613	82.6086	203.613	82.522	203.613	82.3196	203.613	82.0697	203.613	82.029	203.613	81.7504	203.613	81.7792	203.613	81.6005	203.613	81.6204
210.938	83.6861	210.938	83.5138	210.938	83.8624	210.938	83.3562	210.938	84.0335	210.938	83.2239	210.938	84.1924	210.938	83.1244	210.938	84.3333	210.938	83.0597	210.938	84.4486	210.938	83.0252	210.938	84.5268	210.938	83.0101	210.938	84.5508	210.938	82.9992	210.938	84.5	210.938	82.9757	210.938	84.3545	210.938	82.9234	210.938	84.1005	210.938	82.8287	210.938	83.7365	210.938	82.6827	210.938	83.2791	210.938	82.4832	210.938	82.7651	210.938	82.2369	210.938	82.2507	210.938	81.9616	210.938	81.8018	210.938	81.6878	210.938	81.4783	210.938	81.4572	210.938	81.3163	210.938	81.3184
218.262	83.2249	218.262	83.0437	218.262	83.4085	218.262	82.8777	218.262	83.5856	218.262	82.7419	218.262	83.7511	218.262	82.649	218.262	83.9013	218.262	82.606	218.262	84.0298	218.262	82.6108	218.262	84.1245	218.262	82.6523	218.262	84.167	218.262	82.7123	218.262	84.1348	218.262	82.7687	218.262	84.007	218.262	82.7993	218.262	83.7711	218.262	82.7847	218.262	83.4292	218.262	82.711	218.262	83.0037	218.262	82.5724	218.262	82.538	218.262	82.3735	218.262	82.0913	218.262	82.1304	218.262	81.7262	218.262	81.8714	218.262	81.4912	218.262	81.635	218.262	81.4074	218.262	81.4659
225.586	83.271	225.586	83.0891	225.586	83.443	225.586	82.9097	225.586	83.5975	225.586	82.7487	225.586	83.7309	225.586	82.6223	225.586	83.8406	225.586	82.5424	225.586	83.9207	225.586	82.5118	225.586	83.9598	225.586	82.523	225.586	83.9399	225.586	82.5584	225.586	83.8396	225.586	82.5943	225.586	83.6396	225.586	82.605	225.586	83.3301	225.586	82.568	225.586	82.9179	225.586	82.4671	225.586	82.432	225.586	82.2958	225.586	81.9244	225.586	82.0593	225.586	81.4619	225.586	81.7753	225.586	81.109	225.586	81.4736	225.586	80.9086	225.586	81.1931	225.586	80.871	225.586	80.9778
232.91	83.2455	232.91	83.056	232.91	83.4193	232.91	82.8647	232.91	83.5677	232.91	82.6885	232.91	83.6857	232.91	82.5438	232.91	83.7694	232.91	82.4421	232.91	83.8134	232.91	82.3853	232.91	83.8072	232.91	82.3646	232.91	83.7337	232.91	82.3617	232.91	83.5713	232.91	82.3526	232.91	83.2989	232.91	82.3121	232.91	82.9047	232.91	82.2186	232.91	82.3955	232.91	82.0574	232.91	81.8059	232.91	81.8239	232.91	81.2003	232.91	81.525	232.91	80.6633	232.91	81.1802	232.91	80.2734	232.91	80.8203	232.91	80.0748	232.91	80.4849	232.91	80.0669	232.91	80.2183
241.699	82.8303	241.699	82.6082	241.699	83.0327	241.699	82.3822	241.699	83.2061	241.699	82.1719	241.699	83.3465	241.699	81.9969	241.699	83.4531	241.699	81.8706	241.699	83.5225	241.699	81.7957	241.699	83.5451	241.699	81.7621	241.699	83.5015	241.699	81.7493	241.699	83.3643	241.699	81.7307	241.699	83.104	241.699	81.6796	241.699	82.6978	241.699	81.5739	241.699	82.1421	241.699	81.399	241.699	81.4644	241.699	81.1506	241.699	80.734	241.699	80.8356	241.699	80.058	241.699	80.4726	241.699	79.5516	241.699	80.0911	241.699	79.2874	241.699	79.7296	241.699	79.266	241.699	79.4352
250.488	83.049	250.488	82.773	250.488	83.2777	250.488	82.4653	250.488	83.452	250.488	82.1486	250.488	83.5717	250.488	81.8488	250.488	83.6409	250.488	81.5897	250.488	83.6629	250.488	81.3862	250.488	83.6348	250.488	81.2396	250.488	83.5445	250.488	81.1371	250.488	83.3715	250.488	81.0552	250.488	83.0918	250.488	80.9664	250.488	82.6861	250.488	80.8452	250.488	82.15	250.488	80.6736	250.488	81.5038	250.488	80.4448	250.488	80.7998	250.488	80.1651	250.488	80.1213	250.488	79.8542	250.488	79.5634	250.488	79.5435	250.488	79.199	250.488	79.2736	250.488	79.0503	250.488	79.0917
259.277	82.9388	259.277	82.7044	259.277	83.1265	259.277	82.4345	259.277	83.2641	259.277	82.1485	259.277	83.3544	259.277	81.8712	259.277	83.402	259.277	81.6283	259.277	83.4092	259.277	81.4395	259.277	83.3707	259.277	81.3113	259.277	83.2713	259.277	81.2337	259.277	83.0883	259.277	81.1817	259.277	82.7969	259.277	81.1227	259.277	82.3799	259.277	81.0252	259.277	81.8393	259.277	80.8673	259.277	81.2064	259.277	80.6419	259.277	80.5467	259.277	80.3584	259.277	79.9498	259.277	80.0416	259.277	79.5002	259.277	79.7268	259.277	79.2425	259.277	79.4523	259.277	79.1722	259.277	79.2552
268.066	82.8692	268.066	82.6289	268.066	83.0554	268.066	82.3448	268.066	83.184	268.066	82.0326	268.066	83.2576	268.066	81.7115	268.066	83.2829	268.066	81.4011	268.066	83.2653	268.066	81.1182	268.066	83.2037	268.066	80.8739	268.066	83.0854	268.066	80.6708	268.066	82.8869	268.066	80.5016	268.066	82.5803	268.066	80.3508	268.066	82.1436	268.066	80.1984	268.066	81.5754	268.066	80.027	268.066	80.9079	268.066	79.8274	268.066	80.2137	268.066	79.6028	268.066	79.5925	268.066	79.3683	268.066	79.1336	268.066	79.1459	268.066	78.8728	268.066	78.9589	268.066	78.7876	268.066	78.8301
276.855	82.8959	276.855	82.6587	276.855	83.0661	276.855	82.3673	276.855	83.1653	276.855	82.0408	276.855	83.1982	276.855	81.7005	276.855	83.1761	276.855	81.3635	276.855	83.1118	276.855	81.0381	276.855	83.0127	276.855	80.7222	276.855	82.8744	276.855	80.4079	276.855	82.6778	276.855	80.0885	276.855	82.3947	276.855	79.7645	276.855	81.9975	276.855	79.4445	276.855	81.4735	276.855	79.1433	276.855	80.8401	276.855	78.8777	276.855	80.1544	276.855	78.6625	276.855	79.5079	276.855	78.5068	276.855	78.9919	276.855	78.4118	276.855	78.6508	276.855	78.3723	276.855	78.4653	276.855	78.3856
287.109	82.3822	287.109	82.204	287.109	82.4877	287.109	81.958	287.109	82.5264	287.109	81.6601	287.109	82.5139	287.109	81.3355	287.109	82.4699	287.109	81.0152	287.109	82.4087	287.109	80.7287	287.109	82.3297	287.109	80.4951	287.109	82.2142	287.109	80.3152	287.109	82.0303	287.109	80.1716	287.109	81.7465	287.109	80.0364	287.109	81.3474	287.109	79.8829	287.109	80.8482	287.109	79.6971	287.109	80.3018	287.109	79.4845	287.109	79.7898	287.109	79.2706	287.109	79.3905	287.109	79.0906	287.109	79.1369	287.109	78.9722	287.109	79.0049	287.109	78.9199	287.109	78.9436	287.109	78.9166
297.363	83.0123	297.363	82.8759	297.363	83.0584	297.363	82.6571	297.363	83.0134	297.363	82.3686	297.363	82.8848	297.363	82.0267	297.363	82.6887	297.363	81.6513	297.363	82.4458	297.363	81.264	297.363	82.174	297.363	80.8865	297.363	81.8796	297.363	80.5357	297.363	81.5529	297.363	80.2195	297.363	81.1722	297.363	79.9351	297.363	80.7176	297.363	79.6724	297.363	80.1889	297.363	79.4217	297.363	79.6235	297.363	79.1822	297.363	79.0989	297.363	78.9657	297.363	78.7068	297.363	78.7905	297.363	78.4979	297.363	78.6682	297.363	78.4466	297.363	78.5905	297.363	78.479	297.363	78.5332
307.617	82.8424	307.617	82.5991	307.617	83.0035	307.617	82.2939	307.617	83.0717	307.617	81.9532	307.617	83.046	307.617	81.6041	307.617	82.9326	307.617	81.2682	307.617	82.7397	307.617	80.9561	307.617	82.4717	307.617	80.6658	307.617	82.1234	307.617	80.3845	307.617	81.6789	307.617	80.0939	307.617	81.1172	307.617	79.7766	307.617	80.4273	307.617	79.4244	307.617	79.6325	307.617	79.0448	307.617	78.8158	307.617	78.666	307.617	78.1207	307.617	78.3324	307.617	77.687	307.617	78.0864	307.617	77.5457	307.617	77.9411	307.617	77.5987	307.617	77.8661	307.617	77.7122	307.617	77.8042
319.336	82.7416	319.336	82.5286	319.336	82.848	319.336	82.2162	319.336	82.8502	319.336	81.822	319.336	82.759	319.336	81.3749	319.336	82.5911	319.336	80.9132	319.336	82.3627	319.336	80.4799	319.336	82.0815	319.336	80.111	319.336	81.7395	319.336	79.8225	319.336	81.3131	319.336	79.6016	319.336	80.7754	319.336	79.4125	319.336	80.1183	319.336	79.2135	319.336	79.382	319.336	78.9773	319.336	78.6748	319.336	78.7054	319.336	78.145	319.336	78.4314	319.336	77.8847	319.336	78.2063	319.336	77.852	319.336	78.0688	319.336	77.9201	319.336	78.0168	319.336	77.9833	319.336	78.0067
329.59	82.5331	329.59	82.3708	329.59	82.6114	329.59	82.1397	329.59	82.5979	329.59	81.8563	329.59	82.4952	329.59	81.5331	329.59	82.3157	329.59	81.1765	329.59	82.0753	329.59	80.7875	329.59	81.7831	329.59	80.3667	329.59	81.4299	329.59	79.9192	329.59	80.9834	329.59	79.4575	329.59	80.3956	329.59	79.0015	329.59	79.6252	329.59	78.5767	329.59	78.6813	329.59	78.2121	329.59	77.6909	329.59	77.9397	329.59	76.9397	329.59	77.788	329.59	76.7134	329.59	77.7645	329.59	76.9781	329.59	77.8357	329.59	77.4195	329.59	77.9242	329.59	77.7698	329.59	77.9303
341.309	82.5509	341.309	82.3522	341.309	82.6367	341.309	82.0555	341.309	82.6091	341.309	81.6864	341.309	82.4814	341.309	81.2755	341.309	82.2768	341.309	80.8515	341.309	82.0177	341.309	80.4334	341.309	81.7134	341.309	80.0259	341.309	81.3522	341.309	79.6202	341.309	80.9021	341.309	79.2001	341.309	80.3219	341.309	78.7524	341.309	79.5805	341.309	78.2796	341.309	78.6889	341.309	77.8126	341.309	77.7459	341.309	77.4175	341.309	76.9727	341.309	77.1787	341.309	76.6234	341.309	77.146	341.309	76.7412	341.309	77.2787	341.309	77.0918	341.309	77.4516	341.309	77.4004	341.309	77.5225
353.027	82.6432	353.027	82.4386	353.027	82.7275	353.027	82.1343	353.027	82.6866	353.027	81.763	353.027	82.5317	353.027	81.3605	353.027	82.2849	353.027	80.9544	353.027	81.9704	353.027	80.5518	353.027	81.6021	353.027	80.1362	353.027	81.1726	353.027	79.6726	353.027	80.6501	353.027	79.1228	353.027	79.9859	353.027	78.4626	353.027	79.1384	353.027	77.7048	353.027	78.1197	353.027	76.925	353.027	77.0695	353.027	76.2796	353.027	76.2942	353.027	75.959	353.027	76.0819	353.027	76.0435	353.027	76.3623	353.027	76.407	353.027	76.7843	353.027	76.8139	353.027	77.059	353.027	77.0665
366.211	83.3038	366.211	83.1118	366.211	83.3724	366.211	82.8005	366.211	83.3217	366.211	82.3847	366.211	83.1594	366.211	81.8893	366.211	82.8895	366.211	81.3472	366.211	82.5074	366.211	80.7929	366.211	81.9985	366.211	80.2513	366.211	81.3415	366.211	79.725	366.211	80.5129	366.211	79.1888	366.211	79.4925	366.211	78.5959	366.211	78.2779	366.211	77.8986	366.211	76.9288	366.211	77.081	366.211	75.6604	366.211	76.2064	366.211	74.8919	366.211	75.4678	366.211	74.9203	366.211	75.1417	366.211	75.4801	366.211	75.3342	366.211	76.0568	366.211	75.8134	366.211	76.3341	366.211	76.2261
379.395	83.5996	379.395	83.3773	379.395	83.7405	379.395	83.0917	379.395	83.7901	379.395	82.7665	379.395	83.7449	379.395	82.4225	379.395	83.6008	379.395	82.0686	379.395	83.3474	379.395	81.6979	379.395	82.9631	379.395	81.2911	379.395	82.4138	379.395	80.8217	379.395	81.6496	379.395	80.2616	379.395	80.6012	379.395	79.5832	379.395	79.1764	379.395	78.7631	379.395	77.2795	379.395	77.7961	379.395	74.941	379.395	76.7319	379.395	72.8218	379.395	75.7375	379.395	72.4617	379.395	75.108	379.395	73.6884	379.395	75.0449	379.395	74.9272	379.395	75.3692	379.395	75.5847	379.395	75.6651
392.578	83.2018	392.578	82.9538	392.578	83.3664	392.578	82.6359	392.578	83.446	392.578	82.2763	392.578	83.4434	392.578	81.9125	392.578	83.3578	392.578	81.5759	392.578	83.1797	392.578	81.2738	392.578	82.8891	392.578	80.9812	392.578	82.4578	392.578	80.6488	392.578	81.8494	392.578	80.22	392.578	81.0167	392.578	79.645	392.578	79.8955	392.578	78.89	392.578	78.4058	392.578	77.9524	392.578	76.4932	392.578	76.8989	392.578	74.3431	392.578	75.9267	392.578	72.8977	392.578	75.3482	392.578	73.2222	392.578	75.3202	392.578	74.4356	392.578	75.5884	392.578	75.3666	392.578	75.7124
405.762	83.1954	405.762	82.993	405.762	83.2687	405.762	82.6741	405.762	83.2212	405.762	82.2686	405.762	83.0838	405.762	81.8212	405.762	82.9022	405.762	81.3824	405.762	82.7161	405.762	80.9921	405.762	82.5295	405.762	80.6596	405.762	82.2921	405.762	80.3533	405.762	81.908	405.762	80.0087	405.762	81.2644	405.762	79.546	405.762	80.2627	405.762	78.8882	405.762	78.8453	405.762	77.9844	405.762	77.0374	405.762	76.8537	405.762	75.0736	405.762	75.6683	405.762	73.6158	405.762	74.805	405.762	73.3882	405.762	74.5766	405.762	74.0415	405.762	74.7877	405.762	74.6978	405.762	74.9395
420.41	82.9867	420.41	82.8411	420.41	83.0034	420.41	82.5913	420.41	82.899	420.41	82.2854	420.41	82.7156	420.41	81.9771	420.41	82.5163	420.41	81.7044	420.41	82.356	420.41	81.4748	420.41	82.2425	420.41	81.2643	420.41	82.1146	420.41	81.028	420.41	81.8536	420.41	80.7123	420.41	81.3165	420.41	80.2636	420.41	80.3689	420.41	79.6355	420.41	78.9144	420.41	78.8019	420.41	76.971	420.41	77.7872	420.41	74.9236	420.41	76.7239	420.41	73.8102	420.41	75.8956	420.41	74.1828	420.41	75.5809	420.41	75.0898	420.41	75.7055	420.41	75.7132	420.41	75.8697
435.059	82.6196	435.059	82.3693	435.059	82.7257	435.059	81.9829	435.059	82.7112	435.059	81.502	435.059	82.6265	435.059	81.0005	435.059	82.5336	435.059	80.5723	435.059	82.4794	435.059	80.2963	435.059	82.4636	435.059	80.1845	435.059	82.4212	435.059	80.1605	435.059	82.2324	435.059	80.0941	435.059	81.7518	435.059	79.8561	435.059	80.8333	435.059	79.3533	435.059	79.3506	435.059	78.548	435.059	77.2769	435.059	77.4962	435.059	75.0308	435.059	76.4306	435.059	73.9871	435.059	75.7814	435.059	74.7325	435.059	75.8215	435.059	75.8655	435.059	76.268	435.059	76.5299	435.059	76.6158
451.172	83.6644	451.172	83.2837	451.172	83.8286	451.172	82.708	451.172	83.7848	451.172	81.9969	451.172	83.565	451.172	81.2436	451.172	83.2157	451.172	80.5473	451.172	82.7866	451.172	79.967	451.172	82.3158	451.172	79.4998	451.172	81.8188	451.172	79.1044	451.172	81.2835	451.172	78.7328	451.172	80.6592	451.172	78.3348	451.172	79.8312	451.172	77.8442	451.172	78.5974	451.172	77.1845	451.172	76.6609	451.172	76.3188	451.172	73.6867	451.172	75.3597	451.172	70.1438	451.172	74.6751	451.172	70.1286	451.172	74.6407	451.172	72.8447	451.172	75.042	451.172	74.618	451.172	75.2219
465.82	83.2521	465.82	82.999	465.82	83.2877	465.82	82.5323	465.82	83.1309	465.82	81.8864	465.82	82.839	465.82	81.1306	465.82	82.4948	465.82	80.3686	465.82	82.1756	465.82	79.7108	465.82	81.9071	465.82	79.2208	465.82	81.6399	465.82	78.8779	465.82	81.2733	465.82	78.5914	465.82	80.7013	465.82	78.2461	465.82	79.8397	465.82	77.7379	465.82	78.6234	465.82	77.0064	465.82	76.9993	465.82	76.093	465.82	74.9978	465.82	75.2343	465.82	73.1033	465.82	74.8313	465.82	72.5969	465.82	75.0202	465.82	73.6521	465.82	75.395	465.82	74.8439	465.82	75.4351
483.398	82.8305	483.398	82.6152	483.398	82.8114	483.398	82.1947	483.398	82.5829	483.398	81.6461	483.398	82.2226	483.398	81.0738	483.398	81.846	483.398	80.5684	483.398	81.5637	483.398	80.167	483.398	81.4202	483.398	79.8502	483.398	81.358	483.398	79.5655	483.398	81.244	483.398	79.2429	483.398	80.9262	483.398	78.7941	483.398	80.2668	483.398	78.1112	483.398	79.1408	483.398	77.0823	483.398	77.4344	483.398	75.658	483.398	75.1322	483.398	74.0561	483.398	72.8086	483.398	73.0945	483.398	72.2367	483.398	73.4937	483.398	73.5089	483.398	74.4816	483.398	74.6954	483.398	75.022
499.512	83.8239	499.512	83.4719	499.512	83.8458	499.512	82.8044	499.512	83.5644	499.512	81.889	499.512	83.0548	499.512	80.8762	499.512	82.448	499.512	80.0102	499.512	81.9112	499.512	79.5274	499.512	81.5696	499.512	79.4558	499.512	81.408	499.512	79.5876	499.512	81.265	499.512	79.6653	499.512	80.9318	499.512	79.503	499.512	80.2315	499.512	78.9774	499.512	79.0258	499.512	77.9834	499.512	77.2024	499.512	76.4293	499.512	74.7821	499.512	74.3917	499.512	72.5628	499.512	72.7161	499.512	72.495	499.512	72.9179	499.512	74.0003	499.512	74.2759	499.512	75.0964	499.512	75.1827
517.09	84.1277	517.09	83.8979	517.09	83.9996	517.09	83.3113	517.09	83.5645	517.09	82.426	517.09	82.9303	517.09	81.3759	517.09	82.2557	517.09	80.3893	517.09	81.7176	517.09	79.7346	517.09	81.4342	517.09	79.542	517.09	81.3702	517.09	79.6782	517.09	81.3313	517.09	79.8613	517.09	81.0728	517.09	79.8355	517.09	80.3868	517.09	79.4237	517.09	79.1072	517.09	78.5001	517.09	77.0904	517.09	76.9561	517.09	74.2705	517.09	74.7294	517.09	71.1679	517.09	72.1459	517.09	70.0224	517.09	70.7773	517.09	71.2617	517.09	71.5116	517.09	72.3692	517.09	72.4233
536.133	84.2444	536.133	83.9536	536.133	84.1046	536.133	83.2366	536.133	83.5683	536.133	82.1442	536.133	82.713	536.133	80.8056	536.133	81.6694	536.133	79.4867	536.133	80.6435	536.133	78.5968	536.133	79.9085	536.133	78.4331	536.133	79.6435	536.133	78.8281	536.133	79.7481	536.133	79.3386	536.133	79.9378	536.133	79.6354	536.133	79.9223	536.133	79.5629	536.133	79.4253	536.133	79.0338	536.133	78.1358	536.133	77.9594	536.133	75.6784	536.133	76.304	536.133	71.9296	536.133	74.4184	536.133	69.9665	536.133	73.5025	536.133	72.3882	536.133	74.0632	536.133	74.2774	536.133	74.6872
555.176	84.2619	555.176	84.1295	555.176	83.9952	555.176	83.5587	555.176	83.3952	555.176	82.5392	555.176	82.5418	555.176	81.0995	555.176	81.5114	555.176	79.3535	555.176	80.4022	555.176	77.6376	555.176	79.4129	555.176	76.6318	555.176	78.7971	555.176	76.7872	555.176	78.5893	555.176	77.6109	555.176	78.546	555.176	78.398	555.176	78.4272	555.176	78.7856	555.176	78.124	555.176	78.6059	555.176	77.5222	555.176	77.7446	555.176	76.3309	555.176	76.1468	555.176	74.16	555.176	74.045	555.176	71.2512	555.176	72.4949	555.176	70.3553	555.176	72.4449	555.176	71.8479	555.176	72.6597
574.219	85.016	574.219	84.799	574.219	84.8785	574.219	84.2175	574.219	84.4037	574.219	83.2666	574.219	83.609	574.219	81.9418	574.219	82.5161	574.219	80.2549	574.219	81.205	574.219	78.3246	574.219	79.9204	574.219	76.6049	574.219	79.0851	574.219	75.9236	574.219	78.9058	574.219	76.4706	574.219	79.011	574.219	77.4224	574.219	78.8645	574.219	78.0733	574.219	78.1799	574.219	78.1113	574.219	76.9068	574.219	77.3836	574.219	75.0683	574.219	75.7558	574.219	72.6364	574.219	73.1432	574.219	69.9351	574.219	70.1482	574.219	68.7807	574.219	69.0948	574.219	69.4844	574.219	69.6743
594.727	85.33	594.727	85.226	594.727	85.1493	594.727	84.8109	594.727	84.7135	594.727	84.0709	594.727	84.0171	594.727	82.9938	594.727	83.0012	594.727	81.5666	594.727	81.6169	594.727	79.7891	594.727	79.9611	594.727	77.7416	594.727	78.465	594.727	75.8349	594.727	77.884	594.727	75.0646	594.727	78.3878	594.727	75.8387	594.727	79.145	594.727	77.1201	594.727	79.3587	594.727	78.0365	594.727	78.6016	594.727	78.2778	594.727	76.6419	594.727	77.7639	594.727	73.5615	594.727	76.5559	594.727	70.9075	594.727	74.9744	594.727	71.0611	594.727	73.6551	594.727	72.1793	594.727	72.9041
615.234	84.4416	615.234	84.2465	615.234	84.4051	615.234	83.8443	615.234	84.1157	615.234	83.2525	615.234	83.5591	615.234	82.4608	615.234	82.7317	615.234	81.4156	615.234	81.6318	615.234	80.0403	615.234	80.2659	615.234	78.32	615.234	78.7374	615.234	76.4646	615.234	77.3964	615.234	75.0876	615.234	76.7831	615.234	74.9349	615.234	77.1683	615.234	75.9419	615.234	78.2095	615.234	77.3015	615.234	79.181	615.234	78.356	615.234	79.4725	615.234	78.821	615.234	78.8396	615.234	78.6765	615.234	77.5004	615.234	78.0797	615.234	76.2759	615.234	77.2831	615.234	76.0099	615.234	76.5135
637.207	84.5316	637.207	84.081	637.207	84.6359	637.207	83.3087	637.207	84.475	637.207	82.3541	637.207	84.1871	637.207	81.4281	637.207	83.834	637.207	80.65	637.207	83.2835	637.207	79.8913	637.207	82.2951	637.207	78.8959	637.207	80.71	637.207	77.5982	637.207	78.5693	637.207	76.3279	637.207	76.3934	637.207	75.5445	637.207	75.5988	637.207	75.251	637.207	76.3293	637.207	75.2468	637.207	77.059	637.207	75.6487	637.207	77.3128	637.207	76.4818	637.207	77.2641	637.207	77.3878	637.207	77.1264	637.207	78.0444	637.207	77.2262	637.207	78.3247	637.207	77.7029	637.207	78.186
659.18	84.6088	659.18	84.5287	659.18	84.3298	659.18	84.0298	659.18	83.8135	659.18	83.156	659.18	83.147	659.18	82.0415	659.18	82.3491	659.18	80.8749	659.18	81.459	659.18	79.8232	659.18	80.5652	659.18	78.8812	659.18	79.6735	659.18	77.8497	659.18	78.6119	659.18	76.587	659.18	77.1764	659.18	75.2677	659.18	75.5157	659.18	74.3815	659.18	74.4452	659.18	74.2033	659.18	74.3944	659.18	74.6019	659.18	74.8167	659.18	75.5428	659.18	75.7346	659.18	76.8631	659.18	77.0699	659.18	78.0955	659.18	78.2023	659.18	78.8766	659.18	78.8758	659.18	79.1142
682.617	85.2553	682.617	85.0958	682.617	85.0196	682.617	84.5253	682.617	84.5134	682.617	83.5977	682.617	83.8858	682.617	82.3955	682.617	83.1469	682.617	81.0699	682.617	82.2308	682.617	79.8934	682.617	81.2386	682.617	79.0879	682.617	80.4617	682.617	78.5642	682.617	80.0697	682.617	78.0201	682.617	79.7205	682.617	77.2038	682.617	78.7069	682.617	76.0491	682.617	76.7827	682.617	74.6135	682.617	75.6301	682.617	73.3186	682.617	76.5642	682.617	73.4691	682.617	77.2019	682.617	75.3534	682.617	77.1527	682.617	77.4462	682.617	77.727	682.617	78.8287	682.617	78.7872	682.617	79.2748
707.52	86.4638	707.52	86.3692	707.52	86.441	707.52	85.9916	707.52	86.294	707.52	85.2121	707.52	85.8112	707.52	84.0307	707.52	84.8597	707.52	82.5295	707.52	83.5967	707.52	80.9195	707.52	82.3456	707.52	79.6814	707.52	81.2462	707.52	79.1607	707.52	80.2041	707.52	78.8511	707.52	79.1677	707.52	78.1324	707.52	77.9407	707.52	77.0721	707.52	75.8302	707.52	76.2031	707.52	73.1129	707.52	75.618	707.52	74.059	707.52	74.9936	707.52	76.4249	707.52	75.4792	707.52	77.7967	707.52	77.7906	707.52	79.2233	707.52	79.9476	707.52	80.5693	707.52	80.9193
732.422	86.375	732.422	86.3399	732.422	85.9921	732.422	85.864	732.422	85.2795	732.422	84.9979	732.422	84.326	732.422	83.8341	732.422	83.1635	732.422	82.4899	732.422	81.8795	732.422	81.1608	732.422	80.79	732.422	80.1293	732.422	80.0888	732.422	79.562	732.422	79.389	732.422	79.2981	732.422	78.2425	732.422	78.9219	732.422	77.0474	732.422	78.0091	732.422	76.6107	732.422	76.3982	732.422	75.6933	732.422	74.47	732.422	73.0621	732.422	73.4559	732.422	72.6561	732.422	74.5714	732.422	75.5358	732.422	76.7749	732.422	77.4636	732.422	78.4772	732.422	78.62	732.422	79.0752
757.324	86.2903	757.324	85.9303	757.324	86.3521	757.324	85.3517	757.324	86.0151	757.324	84.6019	757.324	85.2041	757.324	83.6727	757.324	83.9213	757.324	82.4458	757.324	82.2979	757.324	80.8102	757.324	80.6612	757.324	79.0105	757.324	79.5619	757.324	77.6816	757.324	79.299	757.324	76.9591	757.324	79.1861	757.324	76.3154	757.324	78.1048	757.324	75.5018	757.324	75.9586	757.324	74.4594	757.324	75.8327	757.324	72.8381	757.324	77.426	757.324	70.7151	757.324	77.6009	757.324	72.0663	757.324	76.9813	757.324	75.9054	757.324	77.3316	757.324	78.1923	757.324	78.2803	757.324	78.7921
785.156	86.1037	785.156	85.8969	785.156	86.1689	785.156	85.5695	785.156	86.0609	785.156	85.1327	785.156	85.5741	785.156	84.4273	785.156	84.3987	785.156	83.048	785.156	82.5723	785.156	80.6168	785.156	80.709	785.156	77.6482	785.156	79.2391	785.156	76.4816	785.156	77.7108	785.156	76.8727	785.156	76.0102	785.156	76.6398	785.156	74.9504	785.156	75.7246	785.156	73.5447	785.156	74.8596	785.156	70.2854	785.156	74.039	785.156	70.6476	785.156	73.0305	785.156	73.608	785.156	73.2639	785.156	75.1879	785.156	75.5014	785.156	77.2479	785.156	77.6161	785.156	78.7419	785.156	78.7831
811.523	87.1095	811.523	86.5445	811.523	87.0369	811.523	85.8821	811.523	86.0028	811.523	85.259	811.523	84.3224	811.523	84.4653	811.523	83.0288	811.523	83.4563	811.523	82.5663	811.523	82.233	811.523	82.1115	811.523	80.7637	811.523	81.2628	811.523	79.6966	811.523	80.2976	811.523	79.803	811.523	79.3935	811.523	80.1027	811.523	78.6102	811.523	79.4965	811.523	78.399	811.523	77.9862	811.523	77.9792	811.523	75.5447	811.523	74.7433	811.523	72.9314	811.523	60.5435	811.523	74.3687	811.523	72.7828	811.523	76.325	811.523	78.7082	811.523	78.337	811.523	80.7996	811.523	80.4157
840.82	86.2425	840.82	86.6339	840.82	85.269	840.82	85.9575	840.82	84.9917	840.82	84.453	840.82	85.2096	840.82	82.6692	840.82	84.6417	840.82	81.2003	840.82	83.0943	840.82	80.0836	840.82	81.2557	840.82	78.7506	840.82	80.0413	840.82	77.4344	840.82	79.7344	840.82	77.4373	840.82	79.4769	840.82	78.0207	840.82	77.7186	840.82	77.6973	840.82	72.2695	840.82	76.3987	840.82	66.6044	840.82	74.8077	840.82	74.483	840.82	72.8733	840.82	77.0363	840.82	71.4163	840.82	76.2273	840.82	75.1493	840.82	73.6282	840.82	78.3454	840.82	75.9435	840.82	78.6105
870.117	86.2225	870.117	85.984	870.117	86.7646	870.117	85.9898	870.117	86.6918	870.117	85.6251	870.117	85.2426	870.117	84.3291	870.117	82.5918	870.117	81.6053	870.117	80.0681	870.117	77.4503	870.117	78.6734	870.117	74.3627	870.117	77.6423	870.117	75.3907	870.117	76.5509	870.117	77.66	870.117	76.9882	870.117	79.4188	870.117	77.9162	870.117	79.7173	870.117	76.8092	870.117	78.1478	870.117	74.9373	870.117	74.5635	870.117	75.2722	870.117	69.7356	870.117	73.9302	870.117	70.76	870.117	73.2299	870.117	75.1325	870.117	75.6896	870.117	78.2706	870.117	78.0812	870.117	79.2698
900.879	86.7815	900.879	85.8744	900.879	86.6804	900.879	84.4284	900.879	85.9001	900.879	83.6334	900.879	85.1238	900.879	83.5925	900.879	84.6094	900.879	83.0864	900.879	83.8721	900.879	81.4427	900.879	82.5413	900.879	78.8906	900.879	81.3107	900.879	76.2013	900.879	80.8108	900.879	74.6715	900.879	80.3829	900.879	76.0764	900.879	79.5494	900.879	78.365	900.879	78.1076	900.879	79.0779	900.879	76.1663	900.879	77.5663	900.879	75.3996	900.879	72.5688	900.879	74.9291	900.879	70.2337	900.879	74.4335	900.879	74.0511	900.879	77.7595	900.879	77.0905	900.879	80.2093	900.879	79.8472
933.105	86.0474	933.105	85.2568	933.105	86.3685	933.105	84.4912	933.105	86.0459	933.105	84.1788	933.105	85.3762	933.105	83.8934	933.105	84.5622	933.105	82.7169	933.105	82.9656	933.105	80.6828	933.105	80.2554	933.105	79.1945	933.105	77.2723	933.105	78.5463	933.105	75.7032	933.105	77.6862	933.105	76.7283	933.105	77.4627	933.105	77.9542	933.105	77.8098	933.105	77.3382	933.105	77.1094	933.105	74.7178	933.105	75.1998	933.105	70.0987	933.105	72.2839	933.105	73.3645	933.105	72.6662	933.105	78.4823	933.105	77.5216	933.105	78.8099	933.105	79.8171	933.105	77.4958	933.105	79.062
965.332	85.7301	965.332	85.028	965.332	86.0906	965.332	84.3291	965.332	85.8796	965.332	84.0122	965.332	85.2774	965.332	83.7346	965.332	84.6899	965.332	82.2822	965.332	83.8407	965.332	78.862	965.332	82.1569	965.332	74.4589	965.332	79.946	965.332	74.2775	965.332	78.5185	965.332	77.4033	965.332	77.895	965.332	79.3662	965.332	77.257	965.332	79.0387	965.332	73.7466	965.332	76.58	965.332	65.9059	965.332	73.3077	965.332	76.6464	965.332	68.9048	965.332	78.2482	965.332	67.344	965.332	75.8085	965.332	73.0547	965.332	75.573	965.332	78.4508	965.332	79.4358	965.332	80.6924
1,000.49	84.9033	1,000.49	84.8986	1,000.49	84.5647	1,000.49	84.0772	1,000.49	85.0666	1,000.49	83.1248	1,000.49	86.0842	1,000.49	83.1868	1,000.49	86.1499	1,000.49	83.1717	1,000.49	84.2914	1,000.49	81.9797	1,000.49	79.9855	1,000.49	80.0622	1,000.49	74.622	1,000.49	77.2053	1,000.49	74.3308	1,000.49	75.6422	1,000.49	77.6199	1,000.49	78.392	1,000.49	78.847	1,000.49	79.4279	1,000.49	77.593	1,000.49	76.5238	1,000.49	73.4298	1,000.49	67.9184	1,000.49	59.4542	1,000.49	62.6417	1,000.49	74.546	1,000.49	68.4094	1,000.49	77.6292	1,000.49	77.0597	1,000.49	76.1568	1,000.49	80.3305	1,000.49	77.4383	1,000.49	80.2402
1,035.64	84.2686	1,035.64	83.4002	1,035.64	85.523	1,035.64	83.7506	1,035.64	85.8936	1,035.64	83.7149	1,035.64	85.8238	1,035.64	82.4893	1,035.64	85.5941	1,035.64	80.8678	1,035.64	84.7472	1,035.64	80.0654	1,035.64	83.5065	1,035.64	80.0719	1,035.64	81.5067	1,035.64	79.4939	1,035.64	77.7872	1,035.64	77.2084	1,035.64	77.054	1,035.64	76.0757	1,035.64	79.3922	1,035.64	77.7165	1,035.64	78.4247	1,035.64	77.7122	1,035.64	70.8742	1,035.64	75.0802	1,035.64	70.5251	1,035.64	67.7161	1,035.64	75.0076	1,035.64	67.4358	1,035.64	77.3499	1,035.64	76.1496	1,035.64	78.083	1,035.64	79.5929	1,035.64	78.9403	1,035.64	80.3222
1,072.27	84.6612	1,072.27	83.9278	1,072.27	84.7873	1,072.27	82.1932	1,072.27	85.6746	1,072.27	81.2474	1,072.27	86.4504	1,072.27	82.2489	1,072.27	85.8889	1,072.27	82.8711	1,072.27	84.4336	1,072.27	82.3274	1,072.27	83.0174	1,072.27	80.6524	1,072.27	81.1792	1,072.27	77.747	1,072.27	77.9635	1,072.27	76.3331	1,072.27	75.8929	1,072.27	78.32	1,072.27	78.9201	1,072.27	78.5824	1,072.27	79.7426	1,072.27	78.0638	1,072.27	77.5519	1,072.27	77.6389	1,072.27	71.7548	1,072.27	72.1492	1,072.27	65.4018	1,072.27	69.3559	1,072.27	75.905	1,072.27	77.8821	1,072.27	76.4688	1,072.27	79.2165	1,072.27	77.9487	1,072.27	79.3155
1,108.89	82.5985	1,108.89	83.1394	1,108.89	84.8414	1,108.89	83.3021	1,108.89	87.0416	1,108.89	81.8828	1,108.89	86.7235	1,108.89	80.6448	1,108.89	84.9269	1,108.89	81.3323	1,108.89	84.2713	1,108.89	81.7105	1,108.89	84.3446	1,108.89	81.8534	1,108.89	83.3225	1,108.89	81.6245	1,108.89	80.9131	1,108.89	80.066	1,108.89	79.1565	1,108.89	79.7431	1,108.89	80.3326	1,108.89	79.7096	1,108.89	80.9567	1,108.89	77.7403	1,108.89	78.328	1,108.89	74.0134	1,108.89	70.3172	1,108.89	73.6644	1,108.89	69.2831	1,108.89	73.9149	1,108.89	78.5606	1,108.89	65.5155	1,108.89	78.1617	1,108.89	77.4964	1,108.89	75.997	1,108.89	79.8684
1,148.44	84.0467	1,148.44	82.4909	1,148.44	86.2178	1,148.44	83.3449	1,148.44	86.6625	1,148.44	83.0551	1,148.44	86.2392	1,148.44	81.1796	1,148.44	85.9279	1,148.44	78.4518	1,148.44	85.5194	1,148.44	76.5576	1,148.44	84.516	1,148.44	79.4242	1,148.44	81.6048	1,148.44	81.7139	1,148.44	76.5504	1,148.44	80.6282	1,148.44	76.6537	1,148.44	80.1923	1,148.44	79.8612	1,148.44	78.9865	1,148.44	82.1588	1,148.44	74.9774	1,148.44	81.8903	1,148.44	76.4612	1,148.44	77.9371	1,148.44	76.9523	1,148.44	56.1419	1,148.44	68.2557	1,148.44	76.697	1,148.44	72.1381	1,148.44	77.8287	1,148.44	76.4571	1,148.44	74.4513	1,148.44	75.4706
1,189.45	84.3074	1,189.45	80.6962	1,189.45	85.948	1,189.45	79.9033	1,189.45	86.1818	1,189.45	81.35	1,189.45	86.4958	1,189.45	80.548	1,189.45	86.074	1,189.45	78.2417	1,189.45	83.9706	1,189.45	74.6839	1,189.45	80.5804	1,189.45	70.2505	1,189.45	76.1815	1,189.45	73.5213	1,189.45	73.1389	1,189.45	71.256	1,189.45	66.4313	1,189.45	68.2175	1,189.45	63.8292	1,189.45	68.4583	1,189.45	71.8613	1,189.45	75.7904	1,189.45	74.4102	1,189.45	79.4757	1,189.45	73.3483	1,189.45	78.5708	1,189.45	71.1635	1,189.45	70.2269	1,189.45	70.2956	1,189.45	71.9081	1,189.45	75.6252	1,189.45	76.3332	1,189.45	76.0268	1,189.45	74.9349
1,230.47	84.4183	1,230.47	81.1792	1,230.47	86.5316	1,230.47	80.0732	1,230.47	86.9237	1,230.47	79.9027	1,230.47	86.4868	1,230.47	78.5656	1,230.47	85.5294	1,230.47	77.8296	1,230.47	83.9	1,230.47	78.132	1,230.47	81.964	1,230.47	77.038	1,230.47	79.1701	1,230.47	74.9648	1,230.47	74.6269	1,230.47	69.0754	1,230.47	69.3427	1,230.47	62.4783	1,230.47	58.0724	1,230.47	66.0511	1,230.47	69.2312	1,230.47	70.7596	1,230.47	73.2708	1,230.47	77.4669	1,230.47	74.2506	1,230.47	77.6065	1,230.47	70.4796	1,230.47	69.7771	1,230.47	69.2531	1,230.47	69.8523	1,230.47	73.304	1,230.47	75.3673	1,230.47	73.5101	1,230.47	74.9801
1,274.41	84.5004	1,274.41	79.8965	1,274.41	85.8164	1,274.41	75.4042	1,274.41	86.7867	1,274.41	79.3765	1,274.41	87.3311	1,274.41	79.9691	1,274.41	85.4416	1,274.41	78.424	1,274.41	81.5582	1,274.41	75.6637	1,274.41	78.6368	1,274.41	69.208	1,274.41	79.0641	1,274.41	51.7352	1,274.41	79.825	1,274.41	67.4961	1,274.41	76.2417	1,274.41	71.94	1,274.41	62.4905	1,274.41	68.2589	1,274.41	71.2549	1,274.41	75.1246	1,274.41	74.5825	1,274.41	79.656	1,274.41	71.048	1,274.41	79.2489	1,274.41	65.5629	1,274.41	73.9067	1,274.41	73.0725	1,274.41	70.4288	1,274.41	66.3512	1,274.41	74.1659	1,274.41	72.6638	1,274.41	74.3894
1,319.82	82.4374	1,319.82	78.1497	1,319.82	85.7653	1,319.82	74.882	1,319.82	87.4295	1,319.82	77.2382	1,319.82	86.7783	1,319.82	79.5676	1,319.82	84.4571	1,319.82	80.6821	1,319.82	82.3367	1,319.82	80.1031	1,319.82	80.2754	1,319.82	78.4054	1,319.82	78.799	1,319.82	76.6536	1,319.82	76.3259	1,319.82	74.5887	1,319.82	72.9913	1,319.82	74.3126	1,319.82	72.2791	1,319.82	73.3059	1,319.82	72.2982	1,319.82	72.4361	1,319.82	72.4666	1,319.82	76.3012	1,319.82	70.1636	1,319.82	77.0147	1,319.82	70.173	1,319.82	74.0568	1,319.82	72.7457	1,319.82	61.0225	1,319.82	70.6163	1,319.82	69.805	1,319.82	43.5592	1,319.82	71.4864
1,366.7	82.5486	1,366.7	77.3821	1,366.7	85.7898	1,366.7	71.5227	1,366.7	87.3848	1,366.7	75.3669	1,366.7	86.5344	1,366.7	79.7125	1,366.7	84.313	1,366.7	82.4684	1,366.7	82.9748	1,366.7	81.6014	1,366.7	80.4656	1,366.7	79.546	1,366.7	76.0106	1,366.7	78.1276	1,366.7	73.8499	1,366.7	75.0513	1,366.7	72.3514	1,366.7	74.7377	1,366.7	64.8617	1,366.7	75.2141	1,366.7	65.0164	1,366.7	71.5465	1,366.7	71.3721	1,366.7	72.3867	1,366.7	71.992	1,366.7	76.4417	1,366.7	67.3834	1,366.7	75.7145	1,366.7	72.7371	1,366.7	63.5662	1,366.7	71.5782	1,366.7	66.2144	1,366.7	56.1229	1,366.7	63.788
1,413.57	81.6652	1,413.57	75.5744	1,413.57	85.6049	1,413.57	64.0766	1,413.57	87.0526	1,413.57	72.0848	1,413.57	86.3509	1,413.57	78.6936	1,413.57	84.5135	1,413.57	78.9302	1,413.57	80.7786	1,413.57	76.6638	1,413.57	75.0554	1,413.57	78.6881	1,413.57	71.0086	1,413.57	79.2457	1,413.57	67.0844	1,413.57	76.6005	1,413.57	62.3388	1,413.57	75.7447	1,413.57	66.383	1,413.57	75.8022	1,413.57	67.0433	1,413.57	74.4105	1,413.57	71.5277	1,413.57	71.5209	1,413.57	70.371	1,413.57	71.0406	1,413.57	68.9828	1,413.57	73.6902	1,413.57	75.3548	1,413.57	71.0694	1,413.57	72.0761	1,413.57	65.7874	1,413.57	62.2421	1,413.57	66.1966
1,463.38	82.3988	1,463.38	76.1395	1,463.38	85.6024	1,463.38	45.2995	1,463.38	86.7709	1,463.38	74.7625	1,463.38	85.9458	1,463.38	78.4307	1,463.38	83.4576	1,463.38	78.7058	1,463.38	79.1918	1,463.38	79.5645	1,463.38	71.3392	1,463.38	79.7	1,463.38	66.0817	1,463.38	78.313	1,463.38	69.8121	1,463.38	77.581	1,463.38	71.3142	1,463.38	75.9891	1,463.38	67.8628	1,463.38	75.866	1,463.38	43.6052	1,463.38	75.5625	1,463.38	60.9331	1,463.38	74.6643	1,463.38	65.9319	1,463.38	74.1174	1,463.38	68.3605	1,463.38	73.6277	1,463.38	73.5025	1,463.38	65.7887	1,463.38	75.0763	1,463.38	60.3728	1,463.38	68.208	1,463.38	63.7404
1,516.11	81.4185	1,516.11	74.5318	1,516.11	85.405	1,516.11	60.7213	1,516.11	86.4908	1,516.11	73.1317	1,516.11	85.4119	1,516.11	78.5651	1,516.11	83.2015	1,516.11	79.7074	1,516.11	79.8753	1,516.11	79.7662	1,516.11	74.788	1,516.11	76.4122	1,516.11	70.106	1,516.11	72.9499	1,516.11	65.2043	1,516.11	73.2813	1,516.11	58.357	1,516.11	73.4882	1,516.11	64.8039	1,516.11	73.6698	1,516.11	64.0338	1,516.11	76.3195	1,516.11	66.2559	1,516.11	76.2614	1,516.11	71.8908	1,516.11	74.0508	1,516.11	68.5834	1,516.11	73.185	1,516.11	72.6494	1,516.11	71.5197	1,516.11	74.045	1,516.11	69.6023	1,516.11	69.0023	1,516.11	62.7654
1,568.85	82.113	1,568.85	76.8886	1,568.85	84.4916	1,568.85	63.549	1,568.85	85.7285	1,568.85	76.1508	1,568.85	84.852	1,568.85	78.8659	1,568.85	81.0976	1,568.85	79.0839	1,568.85	77.0577	1,568.85	79.1452	1,568.85	72.167	1,568.85	78.0675	1,568.85	64.3198	1,568.85	76.6482	1,568.85	59.9519	1,568.85	76.0243	1,568.85	64.0477	1,568.85	73.4137	1,568.85	48.2544	1,568.85	72.551	1,568.85	53.1242	1,568.85	73.9498	1,568.85	66.3645	1,568.85	76.7934	1,568.85	68.4264	1,568.85	74.8779	1,568.85	53.4188	1,568.85	71.9262	1,568.85	72.2616	1,568.85	70.5459	1,568.85	74.559	1,568.85	58.2744	1,568.85	66.9922	1,568.85	49.777
1,624.51	82.6761	1,624.51	77.6405	1,624.51	84.8874	1,624.51	66.6795	1,624.51	85.2251	1,624.51	76.5478	1,624.51	83.7483	1,624.51	77.9812	1,624.51	80.5227	1,624.51	78.5898	1,624.51	75.3051	1,624.51	79.6098	1,624.51	72.7652	1,624.51	78.6007	1,624.51	62.7688	1,624.51	76.5317	1,624.51	66.8119	1,624.51	75.9487	1,624.51	69.9155	1,624.51	76.0072	1,624.51	66.1281	1,624.51	75.1633	1,624.51	64.7973	1,624.51	75.4527	1,624.51	68.5911	1,624.51	75.5554	1,624.51	67.9586	1,624.51	71.8121	1,624.51	70.9477	1,624.51	72.0303	1,624.51	68.2191	1,624.51	70.5379	1,624.51	74.7179	1,624.51	65.9253	1,624.51	72.7541	1,624.51	64.9871
1,681.64	84.5939	1,681.64	78.0113	1,681.64	86.0176	1,681.64	64.1279	1,681.64	84.3567	1,681.64	74.8485	1,681.64	82.3558	1,681.64	79.401	1,681.64	79.895	1,681.64	81.8204	1,681.64	73.5942	1,681.64	80.5156	1,681.64	60.9738	1,681.64	79.8682	1,681.64	57.0327	1,681.64	77.6808	1,681.64	59.9084	1,681.64	73.9587	1,681.64	68.2223	1,681.64	70.6485	1,681.64	62.9291	1,681.64	67.555	1,681.64	68.1657	1,681.64	72.9882	1,681.64	70.3021	1,681.64	74.6858	1,681.64	60.1505	1,681.64	75.8072	1,681.64	54.5566	1,681.64	71.4729	1,681.64	72.8792	1,681.64	71.2996	1,681.64	75.0332	1,681.64	65.1152	1,681.64	69.2883	1,681.64	58.6844
1,741.7	85.187	1,741.7	80.6626	1,741.7	86.4888	1,741.7	71.563	1,741.7	85.3055	1,741.7	76.1194	1,741.7	82.1055	1,741.7	80.9841	1,741.7	78.1875	1,741.7	80.4458	1,741.7	74.1291	1,741.7	79.3865	1,741.7	72.2375	1,741.7	79.1544	1,741.7	67.1734	1,741.7	73.9964	1,741.7	65.1098	1,741.7	73.8936	1,741.7	65.1709	1,741.7	74.4037	1,741.7	69.0011	1,741.7	75.827	1,741.7	68.9565	1,741.7	70.1574	1,741.7	71.6106	1,741.7	72.317	1,741.7	65.1462	1,741.7	74.6858	1,741.7	55.4347	1,741.7	72.1154	1,741.7	70.8514	1,741.7	71.9795	1,741.7	73.1889	1,741.7	69.6576	1,741.7	73.8421	1,741.7	66.252
1,803.22	85.0035	1,803.22	82.9092	1,803.22	85.3202	1,803.22	76.5907	1,803.22	85.6114	1,803.22	76.3197	1,803.22	82.6741	1,803.22	79.8387	1,803.22	76.396	1,803.22	82.3858	1,803.22	65.3789	1,803.22	82.5606	1,803.22	54.6959	1,803.22	79.4145	1,803.22	69.2161	1,803.22	76.4193	1,803.22	56.9565	1,803.22	75.0049	1,803.22	66.6849	1,803.22	73.6386	1,803.22	67.9579	1,803.22	74.4083	1,803.22	63.6543	1,803.22	76.9412	1,803.22	66.5402	1,803.22	78.059	1,803.22	65.5535	1,803.22	74.6402	1,803.22	67.8046	1,803.22	69.7673	1,803.22	66.2294	1,803.22	62.7917	1,803.22	75.263	1,803.22	62.1679	1,803.22	70.1656	1,803.22	65.5249
1,866.21	83.7498	1,866.21	79.9689	1,866.21	86.1639	1,866.21	73.2228	1,866.21	85.2923	1,866.21	78.0108	1,866.21	81.2095	1,866.21	80.5043	1,866.21	76.9454	1,866.21	80.9377	1,866.21	65.5965	1,866.21	81.2234	1,866.21	71.6838	1,866.21	79.0969	1,866.21	71.1668	1,866.21	75.264	1,866.21	68.2413	1,866.21	74.016	1,866.21	69.7178	1,866.21	72.1863	1,866.21	55.8054	1,866.21	67.9933	1,866.21	64.4101	1,866.21	73.3343	1,866.21	60.7316	1,866.21	75.4941	1,866.21	65.6793	1,866.21	73.714	1,866.21	65.5161	1,866.21	72.9382	1,866.21	62.7644	1,866.21	71.5443	1,866.21	73.423	1,866.21	70.7614	1,866.21	72.2223	1,866.21	49.4099
1,932.13	84.0819	1,932.13	79.4361	1,932.13	85.2359	1,932.13	74.0997	1,932.13	84.3666	1,932.13	78.3233	1,932.13	81.1041	1,932.13	81.7186	1,932.13	74.5233	1,932.13	81.8259	1,932.13	69.1567	1,932.13	81.4806	1,932.13	69.8459	1,932.13	79.8255	1,932.13	73.0508	1,932.13	78.2694	1,932.13	70.4435	1,932.13	77.8622	1,932.13	64.4803	1,932.13	73.9979	1,932.13	66.1773	1,932.13	73.0983	1,932.13	57.8869	1,932.13	74.3402	1,932.13	66.1366	1,932.13	74.0444	1,932.13	59.8205	1,932.13	74.264	1,932.13	64.4631	1,932.13	73.9656	1,932.13	67.3845	1,932.13	70.9466	1,932.13	72.872	1,932.13	69.1298	1,932.13	72.9393	1,932.13	62.1662
1,999.51	84.301	1,999.51	78.8298	1,999.51	85.6173	1,999.51	72.6877	1,999.51	83.672	1,999.51	78.6037	1,999.51	79.9941	1,999.51	82.388	1,999.51	74.4607	1,999.51	82.6706	1,999.51	69.0369	1,999.51	81.7241	1,999.51	70.615	1,999.51	79.6553	1,999.51	72.0099	1,999.51	77.7251	1,999.51	70.8262	1,999.51	74.6734	1,999.51	68.6232	1,999.51	73.6838	1,999.51	67.0103	1,999.51	71.0246	1,999.51	63.2486	1,999.51	73.6615	1,999.51	60.4361	1,999.51	74.2572	1,999.51	63.9373	1,999.51	73.6312	1,999.51	66.4978	1,999.51	72.4933	1,999.51	67.2179	1,999.51	70.3815	1,999.51	73.3587	1,999.51	69.2716	1,999.51	71.9828	1,999.51	63.8972
2,069.82	84.4377	2,069.82	79.5346	2,069.82	85.9316	2,069.82	73.1116	2,069.82	83.7476	2,069.82	79.5361	2,069.82	78.5266	2,069.82	81.9481	2,069.82	72.2808	2,069.82	82.6576	2,069.82	70.4644	2,069.82	82.1383	2,069.82	72.3852	2,069.82	80.4124	2,069.82	71.4859	2,069.82	78.6908	2,069.82	70.8109	2,069.82	75.8097	2,069.82	69.4265	2,069.82	74.0107	2,069.82	69.9725	2,069.82	72.5421	2,069.82	67.0189	2,069.82	71.9289	2,069.82	65.9875	2,069.82	73.1493	2,069.82	67.189	2,069.82	72.3818	2,069.82	65.6781	2,069.82	72.7712	2,069.82	66.8775	2,069.82	69.7565	2,069.82	73.0609	2,069.82	68.1267	2,069.82	71.9732	2,069.82	67.0894
2,143.07	83.9209	2,143.07	79.8039	2,143.07	85.7058	2,143.07	75.4169	2,143.07	83.9454	2,143.07	80.4084	2,143.07	77.0231	2,143.07	81.8798	2,143.07	70.7578	2,143.07	82.7316	2,143.07	72.2834	2,143.07	81.8418	2,143.07	73.6821	2,143.07	79.0988	2,143.07	72.9534	2,143.07	76.3811	2,143.07	69.7401	2,143.07	75.3783	2,143.07	68.7808	2,143.07	71.8895	2,143.07	70.6567	2,143.07	70.9261	2,143.07	71.329	2,143.07	70.9358	2,143.07	65.6671	2,143.07	71.8588	2,143.07	69.2095	2,143.07	71.8622	2,143.07	64.5754	2,143.07	71.3025	2,143.07	66.1951	2,143.07	70.3309	2,143.07	72.5755	2,143.07	68.5179	2,143.07	70.8932	2,143.07	66.3961
2,219.24	82.6199	2,219.24	78.3053	2,219.24	84.4996	2,219.24	75.2378	2,219.24	83.5289	2,219.24	79.3235	2,219.24	76.9398	2,219.24	81.9699	2,219.24	67.9771	2,219.24	82.6677	2,219.24	72.544	2,219.24	80.8779	2,219.24	76.0628	2,219.24	78.458	2,219.24	74.3938	2,219.24	75.0667	2,219.24	64.6836	2,219.24	70.5103	2,219.24	63.7237	2,219.24	70.9366	2,219.24	71.789	2,219.24	67.9238	2,219.24	72.1919	2,219.24	69.3651	2,219.24	68.1523	2,219.24	69.4335	2,219.24	69.8334	2,219.24	71.34	2,219.24	62.0798	2,219.24	69.544	2,219.24	66.9952	2,219.24	70.3646	2,219.24	72.4327	2,219.24	66.738	2,219.24	69.7309	2,219.24	68.83
2,296.88	81.5901	2,296.88	76.3769	2,296.88	83.0181	2,296.88	76.2205	2,296.88	82.6252	2,296.88	80.5401	2,296.88	77.7036	2,296.88	82.9718	2,296.88	67.6148	2,296.88	81.9622	2,296.88	73.1727	2,296.88	80.657	2,296.88	75.4808	2,296.88	76.8986	2,296.88	76.3637	2,296.88	75.5326	2,296.88	72.1854	2,296.88	74.5631	2,296.88	61.8602	2,296.88	71.3153	2,296.88	64.2641	2,296.88	67.9142	2,296.88	72.0041	2,296.88	70.2296	2,296.88	68.7049	2,296.88	68.6158	2,296.88	68.5915	2,296.88	70.9686	2,296.88	62.6235	2,296.88	68.8335	2,296.88	64.6843	2,296.88	69.9294	2,296.88	70.39	2,296.88	64.9618	2,296.88	69.3534	2,296.88	67.7041
2,378.91	80.5148	2,378.91	76.0211	2,378.91	82.1664	2,378.91	74.4998	2,378.91	80.5338	2,378.91	81.0948	2,378.91	75.7594	2,378.91	81.9804	2,378.91	70.0921	2,378.91	80.6686	2,378.91	74.1282	2,378.91	79.3191	2,378.91	76.3407	2,378.91	77.5527	2,378.91	76.5272	2,378.91	73.0064	2,378.91	74.3281	2,378.91	68.6458	2,378.91	70.6559	2,378.91	67.3101	2,378.91	69.2872	2,378.91	67.9201	2,378.91	64.856	2,378.91	65.5952	2,378.91	67.5315	2,378.91	68.2915	2,378.91	68.2157	2,378.91	68.1435	2,378.91	62.2745	2,378.91	67.6579	2,378.91	63.1998	2,378.91	70.0167	2,378.91	69.4337	2,378.91	64.2082	2,378.91	68.4931	2,378.91	65.1149
2,462.4	80.8903	2,462.4	75.8795	2,462.4	82.6843	2,462.4	76.433	2,462.4	80.7384	2,462.4	81.4397	2,462.4	74.558	2,462.4	81.7856	2,462.4	71.3015	2,462.4	80.3765	2,462.4	74.4318	2,462.4	77.6758	2,462.4	76.8197	2,462.4	74.2086	2,462.4	76.1872	2,462.4	71.4078	2,462.4	71.5346	2,462.4	68.7248	2,462.4	70.4873	2,462.4	63.0412	2,462.4	69.66	2,462.4	64.6016	2,462.4	65.8563	2,462.4	62.7352	2,462.4	65.353	2,462.4	66.265	2,462.4	67.6028	2,462.4	66.1778	2,462.4	60.6641	2,462.4	64.8013	2,462.4	61.4839	2,462.4	68.3864	2,462.4	70.3722	2,462.4	66.3625	2,462.4	69.5731	2,462.4	67.0845
2,548.83	79.9988	2,548.83	75.2485	2,548.83	82.8457	2,548.83	78.8254	2,548.83	82.1539	2,548.83	81.321	2,548.83	73.8658	2,548.83	82.1705	2,548.83	72.157	2,548.83	80.2708	2,548.83	76.0477	2,548.83	76.1696	2,548.83	76.2489	2,548.83	70.9854	2,548.83	75.0729	2,548.83	66.8083	2,548.83	73.7499	2,548.83	66.3903	2,548.83	72.1072	2,548.83	68.2369	2,548.83	70.6692	2,548.83	65.8961	2,548.83	68.674	2,548.83	64.3409	2,548.83	69.5297	2,548.83	65.2394	2,548.83	68.3322	2,548.83	64.7323	2,548.83	64.2462	2,548.83	64.1378	2,548.83	60.887	2,548.83	67.3748	2,548.83	70.5271	2,548.83	66.0707	2,548.83	69.5171	2,548.83	66.2786
2,639.65	78.6643	2,639.65	74.9163	2,639.65	81.5418	2,639.65	79.3395	2,639.65	83.0237	2,639.65	82.2822	2,639.65	77.6268	2,639.65	82.6399	2,639.65	72.2545	2,639.65	79.0927	2,639.65	78.9844	2,639.65	75.8369	2,639.65	79.9507	2,639.65	74.5647	2,639.65	77.4578	2,639.65	73.2953	2,639.65	74.1017	2,639.65	70.2046	2,639.65	68.6599	2,639.65	70.2656	2,639.65	71.9836	2,639.65	64.0527	2,639.65	69.5194	2,639.65	65.5177	2,639.65	69.6017	2,639.65	65.2893	2,639.65	67.0715	2,639.65	65.1816	2,639.65	64.2215	2,639.65	63.3517	2,639.65	65.4568	2,639.65	67.003	2,639.65	72.8321	2,639.65	66.696	2,639.65	68.1787	2,639.65	70.175
2,731.93	77.1555	2,731.93	76.613	2,731.93	80.6159	2,731.93	79.0747	2,731.93	82.1223	2,731.93	83.6837	2,731.93	78.5864	2,731.93	81.8997	2,731.93	74.8933	2,731.93	79.5405	2,731.93	81.5317	2,731.93	76.3585	2,731.93	81.0097	2,731.93	74.8537	2,731.93	79.6478	2,731.93	71.7935	2,731.93	77.701	2,731.93	72.2404	2,731.93	60.185	2,731.93	68.1669	2,731.93	69.7574	2,731.93	67.6797	2,731.93	70.2549	2,731.93	67.0913	2,731.93	71.7926	2,731.93	68.8529	2,731.93	70.1269	2,731.93	66.3952	2,731.93	54.7771	2,731.93	66.7673	2,731.93	63.5203	2,731.93	66.0121	2,731.93	72.0284	2,731.93	64.8613	2,731.93	70.0663	2,731.93	70.2649
2,828.61	79.7692	2,828.61	78.5703	2,828.61	80.0378	2,828.61	81.9495	2,828.61	80.7446	2,828.61	84.4243	2,828.61	79.0748	2,828.61	82.7164	2,828.61	74.9856	2,828.61	80.4172	2,828.61	83.4112	2,828.61	79.6483	2,828.61	83.0138	2,828.61	77.2066	2,828.61	82.4763	2,828.61	73.9888	2,828.61	79.2793	2,828.61	73.972	2,828.61	58.7576	2,828.61	72.3859	2,828.61	43.7898	2,828.61	71.8914	2,828.61	57.6953	2,828.61	68.2393	2,828.61	75.8972	2,828.61	70.0431	2,828.61	66.9996	2,828.61	67.9032	2,828.61	60.6714	2,828.61	66.0799	2,828.61	60.7742	2,828.61	64.6832	2,828.61	71.421	2,828.61	67.019	2,828.61	69.1661	2,828.61	70.0064
2,928.22	81.8891	2,928.22	79.5875	2,928.22	80.7167	2,928.22	83.9258	2,928.22	81.7464	2,928.22	84.7493	2,928.22	80.091	2,928.22	83.1417	2,928.22	77.543	2,928.22	81.6917	2,928.22	84.1702	2,928.22	79.209	2,928.22	84.1989	2,928.22	76.557	2,928.22	83.1976	2,928.22	77.9254	2,928.22	77.9083	2,928.22	73.2257	2,928.22	70.9005	2,928.22	71.6063	2,928.22	70.2151	2,928.22	69.0576	2,928.22	74.6121	2,928.22	69.1966	2,928.22	72.8629	2,928.22	69.2171	2,928.22	70.2174	2,928.22	70.3126	2,928.22	57.3412	2,928.22	68.5544	2,928.22	62.6943	2,928.22	66.9492	2,928.22	72.2197	2,928.22	69.733	2,928.22	69.6232	2,928.22	71.8471
3,030.76	81.9765	3,030.76	79.6163	3,030.76	81.3718	3,030.76	84.1915	3,030.76	81.9622	3,030.76	84.3547	3,030.76	80.3108	3,030.76	83.1098	3,030.76	79.6758	3,030.76	81.9232	3,030.76	84.607	3,030.76	78.6171	3,030.76	84.3133	3,030.76	79.4719	3,030.76	83.7523	3,030.76	75.7053	3,030.76	77.3111	3,030.76	74.5847	3,030.76	77.019	3,030.76	72.491	3,030.76	74.3325	3,030.76	73.2142	3,030.76	73.0797	3,030.76	70.6204	3,030.76	71.7092	3,030.76	71.5497	3,030.76	70.8774	3,030.76	70.6448	3,030.76	63.8959	3,030.76	69.1719	3,030.76	65.0034	3,030.76	62.272	3,030.76	71.5826	3,030.76	70.0527	3,030.76	70.3327	3,030.76	70.7935
3,137.7	81.0914	3,137.7	77.8773	3,137.7	82.4479	3,137.7	84.013	3,137.7	81.4951	3,137.7	84.4104	3,137.7	80.358	3,137.7	82.948	3,137.7	76.5348	3,137.7	81.7402	3,137.7	84.5556	3,137.7	79.722	3,137.7	83.0161	3,137.7	77.543	3,137.7	83.7837	3,137.7	78.448	3,137.7	79.479	3,137.7	77.4687	3,137.7	77.919	3,137.7	72.9262	3,137.7	73.6225	3,137.7	72.6429	3,137.7	74.2753	3,137.7	70.6604	3,137.7	70.2651	3,137.7	71.6955	3,137.7	69.5251	3,137.7	71.0042	3,137.7	59.7429	3,137.7	67.3746	3,137.7	61.3329	3,137.7	63.3095	3,137.7	70.2463	3,137.7	70.2439	3,137.7	71.3693	3,137.7	71.5892
3,249.02	79.5269	3,249.02	78.0713	3,249.02	82.7277	3,249.02	82.401	3,249.02	81.5002	3,249.02	83.9951	3,249.02	81.768	3,249.02	82.7587	3,249.02	77.3033	3,249.02	80.66	3,249.02	83.3424	3,249.02	80.2108	3,249.02	84.1025	3,249.02	80.2371	3,249.02	83.8783	3,249.02	78.4001	3,249.02	81.4412	3,249.02	72.1661	3,249.02	78.5974	3,249.02	70.0821	3,249.02	70.111	3,249.02	71.7454	3,249.02	70.9809	3,249.02	70.6861	3,249.02	72.2668	3,249.02	69.7181	3,249.02	71.1388	3,249.02	71.6558	3,249.02	66.0754	3,249.02	67.0364	3,249.02	64.7258	3,249.02	65.5343	3,249.02	70.6864	3,249.02	66.5137	3,249.02	70.8761	3,249.02	72.7805
3,363.28	79.4357	3,363.28	80.3408	3,363.28	83.5421	3,363.28	82.264	3,363.28	82.0837	3,363.28	83.5638	3,363.28	81.7846	3,363.28	82.0781	3,363.28	78.8663	3,363.28	81.6233	3,363.28	82.3588	3,363.28	80.5273	3,363.28	85.1024	3,363.28	79.5284	3,363.28	83.4624	3,363.28	74.9572	3,363.28	81.1651	3,363.28	75.008	3,363.28	78.0012	3,363.28	71.752	3,363.28	70.319	3,363.28	71.2696	3,363.28	62.7213	3,363.28	70.9062	3,363.28	71.2568	3,363.28	69.7417	3,363.28	67.798	3,363.28	71.4131	3,363.28	66.3573	3,363.28	64.4083	3,363.28	64.6858	3,363.28	64.284	3,363.28	69.5229	3,363.28	66.4307	3,363.28	67.4471	3,363.28	68.1294
3,481.93	79.4037	3,481.93	81.1498	3,481.93	83.9167	3,481.93	82.8302	3,481.93	83.6564	3,481.93	83.3236	3,481.93	82.3629	3,481.93	82.3484	3,481.93	79.747	3,481.93	81.5317	3,481.93	80.3289	3,481.93	80.6064	3,481.93	85.1944	3,481.93	77.5531	3,481.93	82.3558	3,481.93	78.8351	3,481.93	80.4718	3,481.93	72.8702	3,481.93	72.8672	3,481.93	70.9454	3,481.93	68.6354	3,481.93	69.9666	3,481.93	64.3443	3,481.93	68.0384	3,481.93	69.5645	3,481.93	70.3622	3,481.93	65.6832	3,481.93	70.2483	3,481.93	63.8969	3,481.93	66.9444	3,481.93	66.365	3,481.93	63.0427	3,481.93	68.575	3,481.93	66.5221	3,481.93	68.5836	3,481.93	68.1147
3,604.98	80.6232	3,604.98	80.4938	3,604.98	83.3057	3,604.98	82.5085	3,604.98	83.3309	3,604.98	83.0871	3,604.98	83.3324	3,604.98	81.629	3,604.98	80.5148	3,604.98	81.5837	3,604.98	81.2966	3,604.98	79.3538	3,604.98	84.8586	3,604.98	78.5859	3,604.98	81.0912	3,604.98	76.2906	3,604.98	77.1023	3,604.98	74.3643	3,604.98	58.5776	3,604.98	71.8771	3,604.98	59.6361	3,604.98	69.6956	3,604.98	66.525	3,604.98	69.2702	3,604.98	66.2181	3,604.98	70.0159	3,604.98	60.8415	3,604.98	69.1433	3,604.98	63.0538	3,604.98	68.0501	3,604.98	65.0588	3,604.98	64.682	3,604.98	65.5274	3,604.98	67.3613	3,604.98	69.3414	3,604.98	69.6252
3,732.42	82.4966	3,732.42	80.8907	3,732.42	84.4446	3,732.42	82.7364	3,732.42	83.4316	3,732.42	83.6958	3,732.42	82.7773	3,732.42	82.959	3,732.42	79.4029	3,732.42	80.9892	3,732.42	79.8458	3,732.42	80.1664	3,732.42	83.276	3,732.42	78.4189	3,732.42	79.0268	3,732.42	77.2848	3,732.42	74.743	3,732.42	73.9854	3,732.42	63.2417	3,732.42	70.3086	3,732.42	64.4421	3,732.42	69.0192	3,732.42	67.5515	3,732.42	69.112	3,732.42	64.882	3,732.42	70.2132	3,732.42	65.2532	3,732.42	69.3088	3,732.42	61.5426	3,732.42	69.0032	3,732.42	63.9224	3,732.42	63.1418	3,732.42	65.02	3,732.42	64.0016	3,732.42	69.0719	3,732.42	69.4453
3,864.26	82.2913	3,864.26	81.0584	3,864.26	84.4256	3,864.26	83.2637	3,864.26	84.4284	3,864.26	82.8534	3,864.26	83.0762	3,864.26	81.4527	3,864.26	80.1316	3,864.26	80.763	3,864.26	80.0746	3,864.26	79.8894	3,864.26	82.1707	3,864.26	79.8171	3,864.26	79.4331	3,864.26	76.6455	3,864.26	71.9336	3,864.26	71.628	3,864.26	65.4179	3,864.26	69.6987	3,864.26	54.0007	3,864.26	68.8136	3,864.26	59.18	3,864.26	70.2088	3,864.26	67.189	3,864.26	68.8565	3,864.26	67.3371	3,864.26	69.7643	3,864.26	59.7191	3,864.26	67.3701	3,864.26	65.7852	3,864.26	60.0847	3,864.26	61.9767	3,864.26	62.9889	3,864.26	68.8268	3,864.26	68.6526
4,000.49	82.803	4,000.49	81.8353	4,000.49	84.0129	4,000.49	83.2068	4,000.49	83.8928	4,000.49	82.5711	4,000.49	83.1554	4,000.49	81.427	4,000.49	80.3039	4,000.49	81.1325	4,000.49	78.8264	4,000.49	80.0858	4,000.49	80.67	4,000.49	78.8861	4,000.49	75.146	4,000.49	74.3718	4,000.49	71.3798	4,000.49	73.3513	4,000.49	73.5603	4,000.49	70.5633	4,000.49	62.5526	4,000.49	66.0188	4,000.49	59.0815	4,000.49	65.8665	4,000.49	65.2058	4,000.49	66.5467	4,000.49	65.0026	4,000.49	67.8363	4,000.49	60.7019	4,000.49	66.3071	4,000.49	66.8192	4,000.49	60.3382	4,000.49	60.1693	4,000.49	64.785	4,000.49	68.312	4,000.49	66.6763
4,141.11	84.7721	4,141.11	82.3835	4,141.11	85.2418	4,141.11	83.2328	4,141.11	83.7226	4,141.11	83.4385	4,141.11	83.6731	4,141.11	80.915	4,141.11	80.3203	4,141.11	81.6429	4,141.11	77.372	4,141.11	80.6093	4,141.11	79.7471	4,141.11	76.9503	4,141.11	73.5172	4,141.11	75.8355	4,141.11	72.2939	4,141.11	68.4112	4,141.11	76.7058	4,141.11	65.5995	4,141.11	55.637	4,141.11	64.0747	4,141.11	64.9772	4,141.11	66.9173	4,141.11	68.764	4,141.11	65.7422	4,141.11	65.2112	4,141.11	66.2043	4,141.11	64.1128	4,141.11	66.1338	4,141.11	66.3392	4,141.11	55.6402	4,141.11	58.8288	4,141.11	63.5463	4,141.11	68.5635	4,141.11	66.5419
4,287.6	85.3462	4,287.6	83.595	4,287.6	85.6054	4,287.6	84.8536	4,287.6	83.6875	4,287.6	81.5452	4,287.6	83.1079	4,287.6	81.3698	4,287.6	80.3888	4,287.6	81.5517	4,287.6	74.1517	4,287.6	78.504	4,287.6	75.0783	4,287.6	76.5986	4,287.6	75.6988	4,287.6	72.1069	4,287.6	77.6581	4,287.6	72.4065	4,287.6	76.1041	4,287.6	69.4532	4,287.6	64.0553	4,287.6	66.9576	4,287.6	62.8142	4,287.6	65.2908	4,287.6	66.134	4,287.6	63.1686	4,287.6	68.4614	4,287.6	64.6977	4,287.6	63.1304	4,287.6	64.8918	4,287.6	66.9201	4,287.6	57.6372	4,287.6	61.185	4,287.6	60.6042	4,287.6	68.7743	4,287.6	67.7066
4,438.48	84.9688	4,438.48	83.3222	4,438.48	86.0623	4,438.48	83.8575	4,438.48	83.5822	4,438.48	83.0172	4,438.48	83.1572	4,438.48	82.1049	4,438.48	80.6566	4,438.48	81.5099	4,438.48	66.4291	4,438.48	77.4858	4,438.48	68.9919	4,438.48	76.03	4,438.48	79.1084	4,438.48	74.8328	4,438.48	77.9876	4,438.48	69.6097	4,438.48	71.6205	4,438.48	70.3971	4,438.48	67.9936	4,438.48	65.4146	4,438.48	54.584	4,438.48	68.5115	4,438.48	63.5189	4,438.48	65.1848	4,438.48	69.6557	4,438.48	66.851	4,438.48	63.4264	4,438.48	65.2067	4,438.48	66.8924	4,438.48	37.6602	4,438.48	61.3813	4,438.48	56.3407	4,438.48	67.3599	4,438.48	64.4678
4,595.21	84.8936	4,595.21	83.8363	4,595.21	86.6416	4,595.21	84.1321	4,595.21	83.4152	4,595.21	82.492	4,595.21	82.6403	4,595.21	80.8795	4,595.21	81.2325	4,595.21	80.8173	4,595.21	68.0835	4,595.21	77.952	4,595.21	75.7768	4,595.21	77.1584	4,595.21	81.3774	4,595.21	74.695	4,595.21	77.031	4,595.21	72.4505	4,595.21	72.906	4,595.21	65.0436	4,595.21	58.7418	4,595.21	66.9205	4,595.21	53.2285	4,595.21	67.8923	4,595.21	57.7106	4,595.21	67.1526	4,595.21	67.1525	4,595.21	67.8511	4,595.21	64.1942	4,595.21	65.0428	4,595.21	64.9979	4,595.21	57.4241	4,595.21	55.7504	4,595.21	51.2702	4,595.21	68.0953	4,595.21	66.4559
4,756.35	85.7191	4,756.35	85.0425	4,756.35	86.1866	4,756.35	85.4764	4,756.35	83.3518	4,756.35	82.2888	4,756.35	83.3122	4,756.35	82.2557	4,756.35	81.0368	4,756.35	79.4164	4,756.35	70.6005	4,756.35	78.0502	4,756.35	79.9059	4,756.35	77.3859	4,756.35	80.8589	4,756.35	73.9002	4,756.35	74.3155	4,756.35	69.3974	4,756.35	72.3009	4,756.35	68.5926	4,756.35	66.5312	4,756.35	62.5433	4,756.35	63.2219	4,756.35	64.4361	4,756.35	50.7018	4,756.35	64.4752	4,756.35	63.0783	4,756.35	66.4338	4,756.35	61.8938	4,756.35	64.5607	4,756.35	62.6211	4,756.35	55.9111	4,756.35	53.8636	4,756.35	59.4093	4,756.35	66.9472	4,756.35	66.938
4,924.8	85.5418	4,924.8	84.8024	4,924.8	86.3455	4,924.8	84.4038	4,924.8	83.1114	4,924.8	82.6763	4,924.8	82.7525	4,924.8	80.2376	4,924.8	81.3218	4,924.8	80.4315	4,924.8	73.4647	4,924.8	78.3142	4,924.8	81.0385	4,924.8	75.8652	4,924.8	79.1118	4,924.8	72.8912	4,924.8	73.6156	4,924.8	71.5045	4,924.8	70.3577	4,924.8	66.7876	4,924.8	65.9032	4,924.8	66.7274	4,924.8	60.7231	4,924.8	64.5972	4,924.8	56.3275	4,924.8	63.6877	4,924.8	59.9769	4,924.8	66.4628	4,924.8	64.1904	4,924.8	65.2821	4,924.8	63.1761	4,924.8	61.2053	4,924.8	45.1062	4,924.8	52.7902	4,924.8	65.7888	4,924.8	63.2759
5,097.66	85.1783	5,097.66	85.0326	5,097.66	85.4787	5,097.66	84.7118	5,097.66	84.1038	5,097.66	82.5768	5,097.66	82.1424	5,097.66	80.9356	5,097.66	80.1819	5,097.66	80.5218	5,097.66	76.6295	5,097.66	77.7299	5,097.66	80.3497	5,097.66	76.0331	5,097.66	75.9196	5,097.66	73.2656	5,097.66	75.6503	5,097.66	70.1251	5,097.66	71.0762	5,097.66	66.6203	5,097.66	65.069	5,097.66	66.0866	5,097.66	58.5801	5,097.66	65.1629	5,097.66	56.3943	5,097.66	67.015	5,097.66	62.0374	5,097.66	67.2982	5,097.66	58.8559	5,097.66	64.9717	5,097.66	61.8303	5,097.66	62.3786	5,097.66	50.2194	5,097.66	52.8262	5,097.66	66.1464	5,097.66	64.0032
5,277.83	85.5918	5,277.83	85.5038	5,277.83	85.7055	5,277.83	84.2602	5,277.83	81.8178	5,277.83	83.0998	5,277.83	81.0029	5,277.83	80.0913	5,277.83	80.7641	5,277.83	81.2758	5,277.83	79.0945	5,277.83	77.5762	5,277.83	76.3645	5,277.83	76.4449	5,277.83	74.5796	5,277.83	75.5979	5,277.83	75.6095	5,277.83	72.4949	5,277.83	73.6896	5,277.83	69.4515	5,277.83	69.0229	5,277.83	66.259	5,277.83	56.3794	5,277.83	65.8449	5,277.83	61.9863	5,277.83	65.5865	5,277.83	52.9718	5,277.83	67.3392	5,277.83	59.9916	5,277.83	68.1391	5,277.83	63.1319	5,277.83	65.5734	5,277.83	35.6611	5,277.83	53.1858	5,277.83	64.7599	5,277.83	60.1155
5,463.87	84.9785	5,463.87	84.9956	5,463.87	85.2602	5,463.87	84.1154	5,463.87	81.7928	5,463.87	81.8699	5,463.87	80.9849	5,463.87	81.1116	5,463.87	82.9182	5,463.87	79.9791	5,463.87	79.551	5,463.87	78.9219	5,463.87	75.6318	5,463.87	77.6682	5,463.87	76.725	5,463.87	75.4574	5,463.87	73.4168	5,463.87	72.6434	5,463.87	72.3987	5,463.87	68.4502	5,463.87	70.7262	5,463.87	65.2142	5,463.87	58.0218	5,463.87	64.3752	5,463.87	62.4937	5,463.87	66.1124	5,463.87	61.6668	5,463.87	68.1422	5,463.87	54.2394	5,463.87	66.7967	5,463.87	61.5609	5,463.87	63.1461	5,463.87	57.1866	5,463.87	59.7146	5,463.87	65.1534	5,463.87	63.743
5,657.23	85.3956	5,657.23	84.3182	5,657.23	84.5393	5,657.23	84.1646	5,657.23	83.5283	5,657.23	80.5699	5,657.23	81.4548	5,657.23	81.2532	5,657.23	82.9413	5,657.23	79.4869	5,657.23	79.8388	5,657.23	79.428	5,657.23	73.3078	5,657.23	78.4201	5,657.23	77.8353	5,657.23	76.0869	5,657.23	73.1254	5,657.23	72.3143	5,657.23	71.1346	5,657.23	67.8168	5,657.23	64.0115	5,657.23	66.5863	5,657.23	62.5548	5,657.23	65.6026	5,657.23	59.7379	5,657.23	65.9124	5,657.23	59.1024	5,657.23	65.7343	5,657.23	56.5647	5,657.23	65.9997	5,657.23	61.4405	5,657.23	62.5934	5,657.23	57.6988	5,657.23	55.2624	5,657.23	64.3324	5,657.23	62.1453
5,856.45	84.6591	5,856.45	84.9318	5,856.45	82.8924	5,856.45	83.8078	5,856.45	82.7325	5,856.45	81.457	5,856.45	81.8912	5,856.45	80.1623	5,856.45	82.6004	5,856.45	80.4582	5,856.45	79.6546	5,856.45	79.9661	5,856.45	72.6791	5,856.45	77.761	5,856.45	78.0626	5,856.45	75.3099	5,856.45	71.2768	5,856.45	72.4366	5,856.45	70.0159	5,856.45	66.7872	5,856.45	59.4623	5,856.45	65.7116	5,856.45	60.1255	5,856.45	64.5506	5,856.45	55.9654	5,856.45	66.0966	5,856.45	61.0688	5,856.45	64.7288	5,856.45	59.7191	5,856.45	66.4345	5,856.45	59.8769	5,856.45	64.1702	5,856.45	57.976	5,856.45	55.6862	5,856.45	62.6142	5,856.45	61.5861
6,062.99	84.0839	6,062.99	84.9401	6,062.99	82.9062	6,062.99	83.2558	6,062.99	80.5462	6,062.99	82.4054	6,062.99	83.0605	6,062.99	79.6794	6,062.99	81.9445	6,062.99	81.4489	6,062.99	79.482	6,062.99	80.0912	6,062.99	73.4058	6,062.99	78.282	6,062.99	78.3899	6,062.99	74.7516	6,062.99	72.7039	6,062.99	71.0437	6,062.99	68.5005	6,062.99	66.3972	6,062.99	63.8621	6,062.99	63.3601	6,062.99	51.5608	6,062.99	62.2548	6,062.99	58.1009	6,062.99	66.1808	6,062.99	61.1683	6,062.99	63.38	6,062.99	59.2029	6,062.99	61.077	6,062.99	59.8674	6,062.99	64.7288	6,062.99	58.956	6,062.99	56.5848	6,062.99	62.8031	6,062.99	61.4432
6,276.86	83.2173	6,276.86	84.3342	6,276.86	83.5099	6,276.86	83.2033	6,276.86	83.4033	6,276.86	81.5674	6,276.86	81.1703	6,276.86	81.5059	6,276.86	81.6084	6,276.86	81.5778	6,276.86	78.3356	6,276.86	80.3225	6,276.86	72.8469	6,276.86	77.1888	6,276.86	75.8608	6,276.86	73.5307	6,276.86	71.9769	6,276.86	67.6873	6,276.86	67.8218	6,276.86	64.4045	6,276.86	58.9814	6,276.86	61.0896	6,276.86	46.0366	6,276.86	62.0883	6,276.86	58.1063	6,276.86	64.7355	6,276.86	51.7595	6,276.86	63.2975	6,276.86	54.5198	6,276.86	61.8727	6,276.86	56.9353	6,276.86	63.6374	6,276.86	61.3092	6,276.86	53.5489	6,276.86	61.3962	6,276.86	61.1157
6,498.05	82.8827	6,498.05	83.6804	6,498.05	82.8006	6,498.05	82.8109	6,498.05	82.5003	6,498.05	81.2381	6,498.05	82.0884	6,498.05	82.3942	6,498.05	81.0047	6,498.05	81.4472	6,498.05	78.5979	6,498.05	80.0959	6,498.05	73.712	6,498.05	75.021	6,498.05	76.5801	6,498.05	71.822	6,498.05	68.0707	6,498.05	69.7436	6,498.05	68.9683	6,498.05	63.7482	6,498.05	61.1615	6,498.05	60.632	6,498.05	58.1459	6,498.05	61.3819	6,498.05	52.732	6,498.05	62.8076	6,498.05	53.7473	6,498.05	64.6112	6,498.05	57.5572	6,498.05	64.9874	6,498.05	53.0607	6,498.05	62.4854	6,498.05	60.2703	6,498.05	59.7353	6,498.05	59.5143	6,498.05	58.3309
6,726.56	82.7079	6,726.56	83.2868	6,726.56	82.1725	6,726.56	82.8363	6,726.56	80.4653	6,726.56	81.6345	6,726.56	82.6389	6,726.56	81.8405	6,726.56	79.9099	6,726.56	81.4219	6,726.56	78.2916	6,726.56	77.7235	6,726.56	72.9922	6,726.56	75.263	6,726.56	73.1386	6,726.56	71.5777	6,726.56	61.5072	6,726.56	69.6368	6,726.56	64.4247	6,726.56	60.9854	6,726.56	55.6952	6,726.56	61.4084	6,726.56	62.8876	6,726.56	61.2263	6,726.56	57.2815	6,726.56	62.9127	6,726.56	48.5633	6,726.56	64.7348	6,726.56	56.0561	6,726.56	64.478	6,726.56	47.761	6,726.56	61.391	6,726.56	51.7976	6,726.56	56.1571	6,726.56	55.2421	6,726.56	57.3797
6,963.87	81.9268	6,963.87	83.5853	6,963.87	82.6612	6,963.87	82.9074	6,963.87	81.8301	6,963.87	81.9816	6,963.87	82.2824	6,963.87	81.893	6,963.87	79.3627	6,963.87	80.2033	6,963.87	77.7598	6,963.87	77.3086	6,963.87	71.8371	6,963.87	74.8578	6,963.87	67.3587	6,963.87	71.6443	6,963.87	70.569	6,963.87	67.1512	6,963.87	66.6095	6,963.87	62.6194	6,963.87	65.1321	6,963.87	59.3929	6,963.87	59.9015	6,963.87	60.2017	6,963.87	60.103	6,963.87	63.946	6,963.87	51.6991	6,963.87	63.7213	6,963.87	54.0026	6,963.87	63.0864	6,963.87	48.4454	6,963.87	59.2703	6,963.87	50.3242	6,963.87	59.5422	6,963.87	56.2215	6,963.87	50.4357
7,209.96	81.7906	7,209.96	84.0965	7,209.96	82.3344	7,209.96	82.7406	7,209.96	81.6903	7,209.96	82.1832	7,209.96	81.271	7,209.96	81.2915	7,209.96	79.3465	7,209.96	79.1029	7,209.96	77.8527	7,209.96	76.7425	7,209.96	67.9046	7,209.96	72.7409	7,209.96	69.8241	7,209.96	70.143	7,209.96	69.9825	7,209.96	66.9861	7,209.96	65.0681	7,209.96	62.4337	7,209.96	66.1589	7,209.96	60.5487	7,209.96	60.2045	7,209.96	59.8401	7,209.96	58.865	7,209.96	60.6808	7,209.96	50.3808	7,209.96	60.8469	7,209.96	54.4034	7,209.96	63.2519	7,209.96	56.1481	7,209.96	61.6792	7,209.96	53.0399	7,209.96	56.6403	7,209.96	58.0134	7,209.96	50.4327
7,464.84	82.5278	7,464.84	83.4123	7,464.84	82.8477	7,464.84	82.198	7,464.84	82.6751	7,464.84	82.5956	7,464.84	81.1973	7,464.84	80.7468	7,464.84	78.9602	7,464.84	78.0012	7,464.84	76.6219	7,464.84	75.4181	7,464.84	67.8113	7,464.84	72.6217	7,464.84	71.1119	7,464.84	70.5426	7,464.84	67.2498	7,464.84	65.1284	7,464.84	64.1312	7,464.84	58.8799	7,464.84	65.2234	7,464.84	54.1704	7,464.84	57.8705	7,464.84	58.7554	7,464.84	54.9296	7,464.84	61.4544	7,464.84	50.9493	7,464.84	59.1271	7,464.84	51.6218	7,464.84	62.366	7,464.84	54.4872	7,464.84	59.7239	7,464.84	52.0576	7,464.84	56.818	7,464.84	54.8976	7,464.84	48.074
7,727.05	83.4394	7,727.05	83.278	7,727.05	83.5024	7,727.05	82.7444	7,727.05	82.8642	7,727.05	82.5042	7,727.05	81.8319	7,727.05	79.5341	7,727.05	78.0222	7,727.05	77.0902	7,727.05	76.9222	7,727.05	75.1693	7,727.05	69.4092	7,727.05	71.6291	7,727.05	71.9862	7,727.05	68.6145	7,727.05	60.9479	7,727.05	65.75	7,727.05	61.1683	7,727.05	60.3258	7,727.05	61.2319	7,727.05	54.7151	7,727.05	58.6233	7,727.05	56.2379	7,727.05	50.8397	7,727.05	57.999	7,727.05	50.0807	7,727.05	58.1966	7,727.05	48.0417	7,727.05	61.0154	7,727.05	54.9739	7,727.05	59.0431	7,727.05	49.4014	7,727.05	55.1963	7,727.05	51.3473	7,727.05	46.7889
7,999.51	83.2789	7,999.51	83.0167	7,999.51	83.7004	7,999.51	83.278	7,999.51	83.0022	7,999.51	81.875	7,999.51	81.2615	7,999.51	79.039	7,999.51	77.3081	7,999.51	76.34	7,999.51	75.4213	7,999.51	74.7629	7,999.51	72.9769	7,999.51	70.5719	7,999.51	68.2661	7,999.51	68.4044	7,999.51	64.3585	7,999.51	64.9899	7,999.51	56.1091	7,999.51	59.902	7,999.51	59.0631	7,999.51	50.2791	7,999.51	57.7146	7,999.51	56.2892	7,999.51	49.7166	7,999.51	59.6736	7,999.51	52.0044	7,999.51	59.1173	7,999.51	50.9946	7,999.51	58.7499	7,999.51	51.4616	7,999.51	57.942	7,999.51	46.6869	7,999.51	49.6621	7,999.51	52.3094	7,999.51	43.9169
8,282.23	83.8553	8,282.23	83.6519	8,282.23	84.1553	8,282.23	83.7921	8,282.23	82.4739	8,282.23	81.681	8,282.23	80.3155	8,282.23	78.1001	8,282.23	77.6021	8,282.23	75.9798	8,282.23	73.184	8,282.23	73.5698	8,282.23	72.9459	8,282.23	71.1113	8,282.23	53.3165	8,282.23	66.5742	8,282.23	64.5249	8,282.23	64.6862	8,282.23	52.7096	8,282.23	53.2789	8,282.23	63.0245	8,282.23	53.0424	8,282.23	54.7249	8,282.23	56.2393	8,282.23	51.0869	8,282.23	56.9694	8,282.23	52.6495	8,282.23	57.2812	8,282.23	52.3835	8,282.23	55.1963	8,282.23	48.7188	8,282.23	53.9263	8,282.23	46.3804	8,282.23	50.8969	8,282.23	47.3611	8,282.23	48.7204
8,573.73	83.9647	8,573.73	83.6634	8,573.73	84.3749	8,573.73	84.1464	8,573.73	82.9965	8,573.73	80.6194	8,573.73	79.6952	8,573.73	78.0738	8,573.73	79.3012	8,573.73	74.9961	8,573.73	74.6866	8,573.73	73.8914	8,573.73	70.3012	8,573.73	69.0727	8,573.73	67.5282	8,573.73	65.9448	8,573.73	59.6018	8,573.73	62.0564	8,573.73	57.4967	8,573.73	57.3694	8,573.73	57.3768	8,573.73	49.714	8,573.73	56.8004	8,573.73	53.7752	8,573.73	53.9698	8,573.73	56.5594	8,573.73	49.49	8,573.73	55.8021	8,573.73	52.5515	8,573.73	54.3563	8,573.73	39.2337	8,573.73	53.3138	8,573.73	44.8027	8,573.73	49.9706	8,573.73	47.1959	8,573.73	47.4105
8,876.95	84.1784	8,876.95	84.1622	8,876.95	83.9264	8,876.95	84.4369	8,876.95	83.1838	8,876.95	80.2817	8,876.95	81.1219	8,876.95	77.4248	8,876.95	78.4645	8,876.95	74.8157	8,876.95	74.8201	8,876.95	73.0238	8,876.95	69.0687	8,876.95	68.2198	8,876.95	64.9467	8,876.95	64.0707	8,876.95	54.4212	8,876.95	59.1492	8,876.95	56.9812	8,876.95	51.843	8,876.95	59.9006	8,876.95	48.7816	8,876.95	55.7348	8,876.95	52.4317	8,876.95	48.8462	8,876.95	52.6998	8,876.95	46.9407	8,876.95	54.4445	8,876.95	48.3719	8,876.95	55.3033	8,876.95	44.353	8,876.95	54.4386	8,876.95	49.1023	8,876.95	48.7045	8,876.95	44.5823	8,876.95	45.9171
9,188.96	83.8885	9,188.96	84.4542	9,188.96	83.9849	9,188.96	84.133	9,188.96	82.2726	9,188.96	80.2267	9,188.96	80.5045	9,188.96	77.2122	9,188.96	75.7065	9,188.96	75.1233	9,188.96	74.3934	9,188.96	72.8338	9,188.96	69.8982	9,188.96	65.7659	9,188.96	62.8436	9,188.96	63.4903	9,188.96	63.5781	9,188.96	60.0488	9,188.96	54.4393	9,188.96	53.2435	9,188.96	60.8258	9,188.96	40.476	9,188.96	56.1995	9,188.96	53.6346	9,188.96	49.2725	9,188.96	56.936	9,188.96	44.6699	9,188.96	55.4298	9,188.96	48.7499	9,188.96	54.7304	9,188.96	43.171	9,188.96	50.1928	9,188.96	50.3064	9,188.96	49.3684	9,188.96	36.5974	9,188.96	47.0775
9,514.16	84.0019	9,514.16	84.5664	9,514.16	83.8718	9,514.16	83.8862	9,514.16	82.4282	9,514.16	79.9388	9,514.16	79.2592	9,514.16	77.8576	9,514.16	75.8944	9,514.16	74.8469	9,514.16	72.1253	9,514.16	71.5573	9,514.16	69.39	9,514.16	66.3397	9,514.16	55.3393	9,514.16	62.5743	9,514.16	62.4385	9,514.16	59.8882	9,514.16	54.7878	9,514.16	51.9167	9,514.16	62.3751	9,514.16	44.933	9,514.16	54.9212	9,514.16	51.7065	9,514.16	36.1436	9,514.16	54.5001	9,514.16	26.9465	9,514.16	54.9459	9,514.16	47.5419	9,514.16	54.8015	9,514.16	44.4937	9,514.16	51.3064	9,514.16	47.1469	9,514.16	45.0818	9,514.16	40.8174	9,514.16	41.3759
9,849.61	84.1597	9,849.61	84.5512	9,849.61	83.6898	9,849.61	83.6887	9,849.61	81.9761	9,849.61	79.8402	9,849.61	79.3547	9,849.61	78.3092	9,849.61	75.786	9,849.61	73.9832	9,849.61	70.7831	9,849.61	71.3437	9,849.61	68.9659	9,849.61	66.0043	9,849.61	59.8446	9,849.61	63.3865	9,849.61	58.6026	9,849.61	61.1855	9,849.61	54.1814	9,849.61	53.2528	9,849.61	62.4067	9,849.61	49.2542	9,849.61	57.6186	9,849.61	53.7673	9,849.61	43.6887	9,849.61	55.1296	9,849.61	47.6908	9,849.61	54.6613	9,849.61	48.2816	9,849.61	53.0627	9,849.61	45.8375	9,849.61	51.7691	9,849.61	41.8013	9,849.61	48.2693	9,849.61	41.0641	9,849.61	40.6625
10,196.8	84.3054	10,196.8	84.5761	10,196.8	83.5157	10,196.8	83.5361	10,196.8	81.6599	10,196.8	80.2351	10,196.8	79.9124	10,196.8	78.1509	10,196.8	74.5617	10,196.8	73.5397	10,196.8	72.0117	10,196.8	70.9473	10,196.8	68.1755	10,196.8	66.6369	10,196.8	62.6439	10,196.8	64.6987	10,196.8	62.5097	10,196.8	60.9377	10,196.8	52.6935	10,196.8	56.3149	10,196.8	63.1564	10,196.8	40.0448	10,196.8	58.7322	10,196.8	52.3844	10,196.8	44.1597	10,196.8	55.2525	10,196.8	47.1588	10,196.8	55.7655	10,196.8	44.4833	10,196.8	53.6813	10,196.8	44.6849	10,196.8	52.8275	10,196.8	36.9231	10,196.8	46.9384	10,196.8	46.6747	10,196.8	35.7385
10,555.7	84.2806	10,555.7	84.3373	10,555.7	83.2018	10,555.7	83.3279	10,555.7	80.9909	10,555.7	80.7194	10,555.7	79.0974	10,555.7	78.0687	10,555.7	74.2941	10,555.7	72.4332	10,555.7	73.1586	10,555.7	71.6571	10,555.7	65.3391	10,555.7	67.1281	10,555.7	62.6549	10,555.7	64.9576	10,555.7	62.1977	10,555.7	61.696	10,555.7	52.543	10,555.7	55.5572	10,555.7	62.9243	10,555.7	44.7591	10,555.7	58.0909	10,555.7	52.6978	10,555.7	31.0524	10,555.7	54.6992	10,555.7	46.9656	10,555.7	55.1835	10,555.7	43.7602	10,555.7	52.048	10,555.7	42.3022	10,555.7	50.7996	10,555.7	45.332	10,555.7	45.3091	10,555.7	47.061	10,555.7	39.7795
10,927.7	84.2014	10,927.7	84.0436	10,927.7	83.0687	10,927.7	83.2014	10,927.7	80.9863	10,927.7	80.8791	10,927.7	78.11	10,927.7	77.5557	10,927.7	74.2279	10,927.7	72.5891	10,927.7	72.5827	10,927.7	71.7082	10,927.7	68.7647	10,927.7	67.9689	10,927.7	62.9827	10,927.7	64.6847	10,927.7	59.6906	10,927.7	60.992	10,927.7	54.8729	10,927.7	53.2983	10,927.7	62.6426	10,927.7	48.7092	10,927.7	57.725	10,927.7	52.8767	10,927.7	37.1639	10,927.7	55.2777	10,927.7	41.8239	10,927.7	55.0261	10,927.7	42.9453	10,927.7	52.5098	10,927.7	43.2381	10,927.7	50.6275	10,927.7	46.435	10,927.7	45.8372	10,927.7	47.557	10,927.7	39.1436
11,313	84.1534	11,313	83.8699	11,313	82.7258	11,313	83.1108	11,313	80.5569	11,313	80.7908	11,313	78.2307	11,313	77.2239	11,313	73.34	11,313	72.5441	11,313	71.7893	11,313	72.039	11,313	67.4157	11,313	67.6441	11,313	58.9364	11,313	63.7177	11,313	58.3498	11,313	59.0158	11,313	50.5539	11,313	51.8854	11,313	63.5573	11,313	38.3778	11,313	57.7322	11,313	49.9085	11,313	42.2003	11,313	54.0829	11,313	44.1836	11,313	52.2005	11,313	44.8512	11,313	51.515	11,313	43.5448	11,313	50.2735	11,313	43.0221	11,313	46.0898	11,313	47.55	11,313	36.7951
11,712.9	83.7407	11,712.9	83.4331	11,712.9	82.4719	11,712.9	83.0695	11,712.9	80.0805	11,712.9	80.2705	11,712.9	77.2124	11,712.9	77.0245	11,712.9	72.7591	11,712.9	73.0004	11,712.9	71.0422	11,712.9	71.9487	11,712.9	67.2039	11,712.9	65.9891	11,712.9	59.5718	11,712.9	62.1	11,712.9	58.2523	11,712.9	58.6175	11,712.9	56.0706	11,712.9	52.0918	11,712.9	64.1391	11,712.9	47.5191	11,712.9	57.943	11,712.9	51.3648	11,712.9	40.1557	11,712.9	54.3371	11,712.9	41.5575	11,712.9	51.4565	11,712.9	39.6212	11,712.9	51.4723	11,712.9	44.808	11,712.9	50.0839	11,712.9	41.852	11,712.9	44.217	11,712.9	46.7029	11,712.9	36.6119
12,126	83.2762	12,126	82.7007	12,126	82.2639	12,126	82.6802	12,126	80.0709	12,126	79.4684	12,126	77.3802	12,126	76.7736	12,126	74.1339	12,126	73.7526	12,126	70.2187	12,126	71.5359	12,126	63.8489	12,126	63.9793	12,126	59.9958	12,126	61.8125	12,126	52.2072	12,126	57.1588	12,126	56.9003	12,126	53.3004	12,126	64.2705	12,126	44.8992	12,126	55.9446	12,126	51.1084	12,126	40.8056	12,126	52.6174	12,126	42.1389	12,126	50.0983	12,126	40.5853	12,126	50.0876	12,126	39.255	12,126	48.2266	12,126	41.8242	12,126	46.2126	12,126	47.874	12,126	22.5115
12,553.7	82.9824	12,553.7	82.5257	12,553.7	82.0449	12,553.7	82.3055	12,553.7	80.3953	12,553.7	78.6139	12,553.7	77.8561	12,553.7	77.2994	12,553.7	74.4914	12,553.7	73.9715	12,553.7	70.0302	12,553.7	71.212	12,553.7	63.5676	12,553.7	64.0846	12,553.7	61.7618	12,553.7	62.2893	12,553.7	58.7868	12,553.7	57.4049	12,553.7	54.5019	12,553.7	53.2044	12,553.7	66.1445	12,553.7	35.2644	12,553.7	58.2114	12,553.7	50.3649	12,553.7	32.4248	12,553.7	50.6661	12,553.7	41.0552	12,553.7	48.202	12,553.7	34.557	12,553.7	48.027	12,553.7	38.5301	12,553.7	43.1708	12,553.7	42.711	12,553.7	47.0901	12,553.7	45.4593	12,553.7	30.1771
12,996.1	83.0106	12,996.1	83.1224	12,996.1	82.0696	12,996.1	82.1422	12,996.1	80.3308	12,996.1	78.5207	12,996.1	78.6148	12,996.1	77.8799	12,996.1	74.821	12,996.1	73.9399	12,996.1	67.9605	12,996.1	70.8836	12,996.1	67.1199	12,996.1	65.7018	12,996.1	62.6536	12,996.1	62.5511	12,996.1	59.0472	12,996.1	58.2787	12,996.1	53.0357	12,996.1	53.0948	12,996.1	66.6557	12,996.1	36.529	12,996.1	57.296	12,996.1	50.1829	12,996.1	39.5504	12,996.1	51.8418	12,996.1	40.9256	12,996.1	47.4489	12,996.1	43.4273	12,996.1	47.1036	12,996.1	39.2146	12,996.1	43.7957	12,996.1	44.1671	12,996.1	49.1842	12,996.1	46.9611	12,996.1	37.7391
13,454.6	83.5505	13,454.6	83.6738	13,454.6	82.3579	13,454.6	82.0683	13,454.6	80.6102	13,454.6	78.8891	13,454.6	79.438	13,454.6	78.3	13,454.6	74.2454	13,454.6	73.2131	13,454.6	67.5176	13,454.6	70.6875	13,454.6	66.1699	13,454.6	66.2621	13,454.6	62.9644	13,454.6	61.5072	13,454.6	56.7061	13,454.6	57.1765	13,454.6	53.3792	13,454.6	53.5681	13,454.6	66.9461	13,454.6	38.7121	13,454.6	57.7758	13,454.6	49.2892	13,454.6	44.0307	13,454.6	49.674	13,454.6	36.2427	13,454.6	43.4031	13,454.6	35.0268	13,454.6	47.0566	13,454.6	38.6573	13,454.6	44.997	13,454.6	43.9331	13,454.6	50.1782	13,454.6	48.8592	13,454.6	39.3579
13,929.2	83.991	13,929.2	84.1072	13,929.2	82.6363	13,929.2	82.0797	13,929.2	80.839	13,929.2	79.0141	13,929.2	78.6793	13,929.2	77.9664	13,929.2	73.4501	13,929.2	72.0863	13,929.2	67.8874	13,929.2	70.2893	13,929.2	62.3395	13,929.2	65.0325	13,929.2	61.7438	13,929.2	58.6606	13,929.2	51.7541	13,929.2	55.4819	13,929.2	55.8849	13,929.2	52.3436	13,929.2	68.0227	13,929.2	35.7092	13,929.2	59.1362	13,929.2	44.5457	13,929.2	44.0886	13,929.2	43.8875	13,929.2	32.2485	13,929.2	34.9873	13,929.2	33.2974	13,929.2	43.9072	13,929.2	26.1857	13,929.2	43.2715	13,929.2	41.4691	13,929.2	47.5653	13,929.2	47.1616	13,929.2	35.5866
14,419.9	82.1283	14,419.9	82.1948	14,419.9	80.8018	14,419.9	79.7844	14,419.9	79.9422	14,419.9	78.251	14,419.9	78.012	14,419.9	77.2632	14,419.9	73.0557	14,419.9	72.3132	14,419.9	70.7443	14,419.9	71.6817	14,419.9	63.8969	14,419.9	65.5961	14,419.9	62.3114	14,419.9	58.6364	14,419.9	59.8618	14,419.9	57.4638	14,419.9	57.8029	14,419.9	52.992	14,419.9	68.3694	14,419.9	38.6519	14,419.9	58.9763	14,419.9	41.234	14,419.9	41.3877	14,419.9	36.4527	14,419.9	40.9998	14,419.9	25.8356	14,419.9	35.299	14,419.9	44.571	14,419.9	38.4554	14,419.9	41.4795	14,419.9	44.5528	14,419.9	46.583	14,419.9	47.4446	14,419.9	39.3754
14,928.2	82.8952	14,928.2	82.7322	14,928.2	82.4325	14,928.2	81.602	14,928.2	81.6698	14,928.2	79.5581	14,928.2	78.9755	14,928.2	78.0012	14,928.2	75.1434	14,928.2	73.9728	14,928.2	69.7322	14,928.2	71.5985	14,928.2	62.6068	14,928.2	63.9802	14,928.2	62.3819	14,928.2	58.4671	14,928.2	56.5908	14,928.2	55.5085	14,928.2	58.4729	14,928.2	51.5806	14,928.2	68.9854	14,928.2	40.6292	14,928.2	60.7539	14,928.2	40.8135	14,928.2	43.4083	14,928.2	38.5855	14,928.2	41.1117	14,928.2	29.335	14,928.2	29.1561	14,928.2	42.7182	14,928.2	39.5544	14,928.2	36.8598	14,928.2	43.1995	14,928.2	42.1342	14,928.2	39.9359	14,928.2	40.5799
15,455.6	83.7118	15,455.6	83.2797	15,455.6	83.5059	15,455.6	82.6234	15,455.6	82.4173	15,455.6	80.4634	15,455.6	79.3699	15,455.6	78.3497	15,455.6	73.8456	15,455.6	74.335	15,455.6	68.9063	15,455.6	70.0355	15,455.6	64.1409	15,455.6	62.9408	15,455.6	62.2967	15,455.6	57.1665	15,455.6	57.8058	15,455.6	54.7178	15,455.6	58.6752	15,455.6	51.1894	15,455.6	69.152	15,455.6	45.264	15,455.6	60.6402	15,455.6	32.586	15,455.6	40.534	15,455.6	38.4757	15,455.6	38.2178	15,455.6	40.0384	15,455.6	32.5502	15,455.6	43.6171	15,455.6	32.1454	15,455.6	40.9586	15,455.6	43.8323	15,455.6	43.8392	15,455.6	37.6673	15,455.6	41.446
16,000.5	83.1756	16,000.5	82.3755	16,000.5	83.2799	16,000.5	82.3383	16,000.5	82.0187	16,000.5	80.0981	16,000.5	79.3701	16,000.5	78.4229	16,000.5	72.8965	16,000.5	73.4699	16,000.5	68.4415	16,000.5	68.3315	16,000.5	66.1058	16,000.5	62.6717	16,000.5	61.899	16,000.5	55.7684	16,000.5	56.3059	16,000.5	53.6907	16,000.5	57.6295	16,000.5	50.2346	16,000.5	68.7109	16,000.5	44.9556	16,000.5	58.3185	16,000.5	32.3265	16,000.5	38.9691	16,000.5	36.3402	16,000.5	39.7037	16,000.5	39.7151	16,000.5	29.8524	16,000.5	45.6027	16,000.5	36.0616	16,000.5	37.241	16,000.5	48.1726	16,000.5	46.8882	16,000.5	37.0887	16,000.5	43.7453
16,564.5	82.931	16,564.5	82.4088	16,564.5	83.4449	16,564.5	82.3045	16,564.5	82.0814	16,564.5	79.2953	16,564.5	79.4811	16,564.5	78.5046	16,564.5	72.325	16,564.5	72.398	16,564.5	68.747	16,564.5	68.1636	16,564.5	65.828	16,564.5	60.9445	16,564.5	57.3845	16,564.5	53.7852	16,564.5	51.8481	16,564.5	53.6268	16,564.5	59.2698	16,564.5	47.4738	16,564.5	69.5247	16,564.5	46.2135	16,564.5	59.6693	16,564.5	38.5066	16,564.5	39.7664	16,564.5	39.7826	16,564.5	39.7856	16,564.5	40.1022	16,564.5	35.2911	16,564.5	39.4347	16,564.5	34.0159	16,564.5	32.0255	16,564.5	45.4772	16,564.5	42.9897	16,564.5	31.7155	16,564.5	43.9538
17,148.9	84.3301	17,148.9	83.6955	17,148.9	84.5828	17,148.9	83.194	17,148.9	82.3159	17,148.9	79.2155	17,148.9	79.6463	17,148.9	78.5847	17,148.9	71.6648	17,148.9	71.2947	17,148.9	66.0914	17,148.9	66.9067	17,148.9	64.7676	17,148.9	59.8481	17,148.9	58.0067	17,148.9	53.9096	17,148.9	55.2225	17,148.9	53.4482	17,148.9	59.4065	17,148.9	49.6001	17,148.9	69.0169	17,148.9	46.8991	17,148.9	59.0806	17,148.9	38.3046	17,148.9	36.6089	17,148.9	40.8588	17,148.9	37.403	17,148.9	39.0362	17,148.9	36.3811	17,148.9	36.0784	17,148.9	26.172	17,148.9	40.0675	17,148.9	42.5924	17,148.9	40.8034	17,148.9	37.1131	17,148.9	40.5022
17,752.4	84.667	17,752.4	84.0933	17,752.4	84.4773	17,752.4	83.0166	17,752.4	81.6535	17,752.4	78.6019	17,752.4	78.1765	17,752.4	76.8513	17,752.4	69.0026	17,752.4	69.5909	17,752.4	65.3437	17,752.4	62.7307	17,752.4	64.7619	17,752.4	60.5174	17,752.4	59.3864	17,752.4	54.899	17,752.4	56.7451	17,752.4	53.9405	17,752.4	56.4271	17,752.4	48.6326	17,752.4	67.4891	17,752.4	45.5808	17,752.4	56.8635	17,752.4	36.7561	17,752.4	34.6245	17,752.4	42.0741	17,752.4	37.4468	17,752.4	40.9176	17,752.4	32.7154	17,752.4	38.5846	17,752.4	33.1349	17,752.4	42.8398	17,752.4	35.9473	17,752.4	39.6777	17,752.4	41.4104	17,752.4	35.2072
18,379.4	84.3007	18,379.4	83.8717	18,379.4	83.2528	18,379.4	81.8303	18,379.4	79.7737	18,379.4	76.8658	18,379.4	74.7073	18,379.4	73.6404	18,379.4	64.8935	18,379.4	65.7761	18,379.4	64.5312	18,379.4	55.5797	18,379.4	64.7553	18,379.4	59.7588	18,379.4	58.7809	18,379.4	54.5734	18,379.4	55.0148	18,379.4	52.1244	18,379.4	54.8556	18,379.4	46.6411	18,379.4	65.2585	18,379.4	44.4968	18,379.4	53.4973	18,379.4	30.1133	18,379.4	33.9061	18,379.4	41.0843	18,379.4	32.6023	18,379.4	38.2334	18,379.4	36.8612	18,379.4	39.0274	18,379.4	29.2859	18,379.4	39.7735	18,379.4	39.4921	18,379.4	34.6223	18,379.4	35.9043	18,379.4	25.6912
19,026.9	83.6802	19,026.9	83.4732	19,026.9	81.8664	19,026.9	80.5339	19,026.9	77.246	19,026.9	74.0136	19,026.9	70.4697	19,026.9	69.7182	19,026.9	63.8864	19,026.9	59.4944	19,026.9	64.6232	19,026.9	52.2229	19,026.9	62.1532	19,026.9	58.798	19,026.9	56.453	19,026.9	53.9156	19,026.9	51.0419	19,026.9	49.63	19,026.9	50.6962	19,026.9	40.9927	19,026.9	63.2084	19,026.9	42.505	19,026.9	53.7328	19,026.9	29.9253	19,026.9	36.7952	19,026.9	40.9774	19,026.9	22.6047	19,026.9	36.3061	19,026.9	28.6794	19,026.9	33.1041	19,026.9	30.3711	19,026.9	40.6324	19,026.9	41.7239	19,026.9	16.6762	19,026.9	17.6336	19,026.9	26.7039
19,697.8	82.8147	19,697.8	82.6452	19,697.8	80.2516	19,697.8	79.0395	19,697.8	74.1224	19,697.8	69.9784	19,697.8	63.9493	19,697.8	65.1617	19,697.8	53.8196	19,697.8	53.0214	19,697.8	63.4908	19,697.8	53.8579	19,697.8	59.7992	19,697.8	56.2857	19,697.8	54.4351	19,697.8	51.5321	19,697.8	44.8917	19,697.8	47.124	19,697.8	49.5562	19,697.8	37.8997	19,697.8	60.5802	19,697.8	38.7249	19,697.8	52.5487	19,697.8	28.5118	19,697.8	34.218	19,697.8	39.8194	19,697.8	30.3038	19,697.8	36.3922	19,697.8	28.5784	19,697.8	18.6649	19,697.8	29.7104	19,697.8	36.5913	19,697.8	38.727	19,697.8	29.2628	19,697.8	24.4607	19,697.8	19.5312
19,999.5	82.5477	19,999.5	82.2256	19,999.5	79.5611	19,999.5	78.3541	19,999.5	72.1574	19,999.5	67.757	19,999.5	63.1882	19,999.5	63.2019	19,999.5	56.0609	19,999.5	49.5207	19,999.5	61.7276	19,999.5	52.7701	19,999.5	60.38	19,999.5	54.6101	19,999.5	54.4454	19,999.5	51.5412	19,999.5	38.867	19,999.5	37.2731	19,999.5	49.1826	19,999.5	38.5646	19,999.5	60.0137	19,999.5	46.5911	19,999.5	53.3416	19,999.5	38.4324	19,999.5	27.9538	19,999.5	47.4053	19,999.5	26.0171	19,999.5	40.2454	19,999.5	40.8847	19,999.5	42.7016	19,999.5	43.8444	19,999.5	40.3802	19,999.5	40.8651	19,999.5	44.1564	19,999.5	38.5521	19,999.5	28.9905
