"SPL Horizontal"
"On-Axis"		"10°"		"-10°"		"20°"		"-20°"		"30°"		"-30°"		"40°"		"-40°"		"50°"		"-50°"		"60°"		"-60°"		"70°"		"-70°"		"80°"		"-80°"		"90°"		"-90°"		"100°"		"-100°"		"110°"		"-110°"		"120°"		"-120°"		"130°"		"-130°"		"140°"		"-140°"		"150°"		"-150°"		"160°"		"-160°"		"170°"		"-170°"		"180°"
"Frequency / Hz"	"Sound Pressure Level / dB (re 20 µPa/V)  [2.83  V @ 1. m]"	"Frequency / Hz"	"Sound Pressure Level / dB (re 20 µPa/V)  [2.83  V @ 1. m]"	"Frequency / Hz"	"Sound Pressure Level / dB (re 20 µPa/V)  [2.83  V @ 1. m]"	"Frequency / Hz"	"Sound Pressure Level / dB (re 20 µPa/V)  [2.83  V @ 1. m]"	"Frequency / Hz"	"Sound Pressure Level / dB (re 20 µPa/V)  [2.83  V @ 1. m]"	"Frequency / Hz"	"Sound Pressure Level / dB (re 20 µPa/V)  [2.83  V @ 1. m]"	"Frequency / Hz"	"Sound Pressure Level / dB (re 20 µPa/V)  [2.83  V @ 1. m]"	"Frequency / Hz"	"Sound Pressure Level / dB (re 20 µPa/V)  [2.83  V @ 1. m]"	"Frequency / Hz"	"Sound Pressure Level / dB (re 20 µPa/V)  [2.83  V @ 1. m]"	"Frequency / Hz"	"Sound Pressure Level / dB (re 20 µPa/V)  [2.83  V @ 1. m]"	"Frequency / Hz"	"Sound Pressure Level / dB (re 20 µPa/V)  [2.83  V @ 1. m]"	"Frequency / Hz"	"Sound Pressure Level / dB (re 20 µPa/V)  [2.83  V @ 1. m]"	"Frequency / Hz"	"Sound Pressure Level / dB (re 20 µPa/V)  [2.83  V @ 1. m]"	"Frequency / Hz"	"Sound Pressure Level / dB (re 20 µPa/V)  [2.83  V @ 1. m]"	"Frequency / Hz"	"Sound Pressure Level / dB (re 20 µPa/V)  [2.83  V @ 1. m]"	"Frequency / Hz"	"Sound Pressure Level / dB (re 20 µPa/V)  [2.83  V @ 1. m]"	"Frequency / Hz"	"Sound Pressure Level / dB (re 20 µPa/V)  [2.83  V @ 1. m]"	"Frequency / Hz"	"Sound Pressure Level / dB (re 20 µPa/V)  [2.83  V @ 1. m]"	"Frequency / Hz"	"Sound Pressure Level / dB (re 20 µPa/V)  [2.83  V @ 1. m]"	"Frequency / Hz"	"Sound Pressure Level / dB (re 20 µPa/V)  [2.83  V @ 1. m]"	"Frequency / Hz"	"Sound Pressure Level / dB (re 20 µPa/V)  [2.83  V @ 1. m]"	"Frequency / Hz"	"Sound Pressure Level / dB (re 20 µPa/V)  [2.83  V @ 1. m]"	"Frequency / Hz"	"Sound Pressure Level / dB (re 20 µPa/V)  [2.83  V @ 1. m]"	"Frequency / Hz"	"Sound Pressure Level / dB (re 20 µPa/V)  [2.83  V @ 1. m]"	"Frequency / Hz"	"Sound Pressure Level / dB (re 20 µPa/V)  [2.83  V @ 1. m]"	"Frequency / Hz"	"Sound Pressure Level / dB (re 20 µPa/V)  [2.83  V @ 1. m]"	"Frequency / Hz"	"Sound Pressure Level / dB (re 20 µPa/V)  [2.83  V @ 1. m]"	"Frequency / Hz"	"Sound Pressure Level / dB (re 20 µPa/V)  [2.83  V @ 1. m]"	"Frequency / Hz"	"Sound Pressure Level / dB (re 20 µPa/V)  [2.83  V @ 1. m]"	"Frequency / Hz"	"Sound Pressure Level / dB (re 20 µPa/V)  [2.83  V @ 1. m]"	"Frequency / Hz"	"Sound Pressure Level / dB (re 20 µPa/V)  [2.83  V @ 1. m]"	"Frequency / Hz"	"Sound Pressure Level / dB (re 20 µPa/V)  [2.83  V @ 1. m]"	"Frequency / Hz"	"Sound Pressure Level / dB (re 20 µPa/V)  [2.83  V @ 1. m]"	"Frequency / Hz"	"Sound Pressure Level / dB (re 20 µPa/V)  [2.83  V @ 1. m]"	"Frequency / Hz"	"Sound Pressure Level / dB (re 20 µPa/V)  [2.83  V @ 1. m]"	"Frequency / Hz"	"Sound Pressure Level / dB (re 20 µPa/V)  [2.83  V @ 1. m]"
20.5078	54.5161	20.5078	54.5266	20.5078	54.5008	20.5078	54.5278	20.5078	54.4867	20.5078	54.5178	20.5078	54.4799	20.5078	54.4973	20.5078	54.4848	20.5078	54.4691	20.5078	54.5028	20.5078	54.437	20.5078	54.532	20.5078	54.4053	20.5078	54.5677	20.5078	54.3772	20.5078	54.6042	20.5078	54.3552	20.5078	54.6367	20.5078	54.3406	20.5078	54.6617	20.5078	54.3342	20.5078	54.6768	20.5078	54.3363	20.5078	54.6802	20.5078	54.3465	20.5078	54.6706	20.5078	54.3639	20.5078	54.6476	20.5078	54.387	20.5078	54.6132	20.5078	54.4148	20.5078	54.5713	20.5078	54.4474	20.5078	54.5271	20.5078	54.485
21.9727	53.3045	21.9727	53.3816	21.9727	53.2127	21.9727	53.4406	21.9727	53.1098	21.9727	53.4791	21.9727	52.9999	21.9727	53.4952	21.9727	52.8872	21.9727	53.4888	21.9727	52.776	21.9727	53.4614	21.9727	52.6697	21.9727	53.4161	21.9727	52.5702	21.9727	53.3569	21.9727	52.4776	21.9727	53.2874	21.9727	52.3904	21.9727	53.2101	21.9727	52.3072	21.9727	53.1252	21.9727	52.2283	21.9727	53.0315	21.9727	52.1569	21.9727	52.9263	21.9727	52.0992	21.9727	52.8077	21.9727	52.0632	21.9727	52.6758	21.9727	52.0577	21.9727	52.5348	21.9727	52.0891	21.9727	52.3935	21.9727	52.1592	21.9727	52.264
23.4375	55.8222	23.4375	55.8362	23.4375	55.7973	23.4375	55.8376	23.4375	55.7628	23.4375	55.8247	23.4375	55.7195	23.4375	55.7959	23.4375	55.6678	23.4375	55.7511	23.4375	55.6078	23.4375	55.6912	23.4375	55.5399	23.4375	55.6193	23.4375	55.4645	23.4375	55.5399	23.4375	55.3832	23.4375	55.4582	23.4375	55.2982	23.4375	55.3795	23.4375	55.2131	23.4375	55.3073	23.4375	55.1322	23.4375	55.2434	23.4375	55.0599	23.4375	55.1872	23.4375	55.0005	23.4375	55.1366	23.4375	54.9574	23.4375	55.0893	23.4375	54.9327	23.4375	55.0441	23.4375	54.927	23.4375	55.0018	23.4375	54.9389	23.4375	54.9653
24.9023	56.2477	24.9023	56.2528	24.9023	56.2343	24.9023	56.2482	24.9023	56.2146	24.9023	56.2327	24.9023	56.1902	24.9023	56.2056	24.9023	56.1628	24.9023	56.1673	24.9023	56.1334	24.9023	56.1186	24.9023	56.1027	24.9023	56.0617	24.9023	56.0709	24.9023	55.9993	24.9023	56.0377	24.9023	55.9352	24.9023	56.0024	24.9023	55.8733	24.9023	55.9646	24.9023	55.8174	24.9023	55.9242	24.9023	55.7705	24.9023	55.882	24.9023	55.7342	24.9023	55.8393	24.9023	55.7087	24.9023	55.7985	24.9023	55.693	24.9023	55.7618	24.9023	55.6857	24.9023	55.7314	24.9023	55.6859	24.9023	55.7084	24.9023	55.6934
26.3672	57.1262	26.3672	57.1298	26.3672	57.114	26.3672	57.1244	26.3672	57.0945	26.3672	57.1099	26.3672	57.0688	26.3672	57.0867	26.3672	57.0381	26.3672	57.0559	26.3672	57.0036	26.3672	57.0191	26.3672	56.9661	26.3672	56.978	26.3672	56.9262	26.3672	56.9346	26.3672	56.8844	26.3672	56.8907	26.3672	56.841	26.3672	56.8483	26.3672	56.7968	26.3672	56.8087	26.3672	56.7532	26.3672	56.773	26.3672	56.7121	26.3672	56.7413	26.3672	56.6759	26.3672	56.7132	26.3672	56.6472	26.3672	56.6879	26.3672	56.6278	26.3672	56.6649	26.3672	56.6187	26.3672	56.6448	26.3672	56.6196	26.3672	56.629
27.832	58.1179	27.832	58.1192	27.832	58.109	27.832	58.1123	27.832	58.0935	27.832	58.0969	27.832	58.0721	27.832	58.073	27.832	58.0461	27.832	58.0411	27.832	58.0165	27.832	58.0024	27.832	57.9844	27.832	57.9585	27.832	57.9507	27.832	57.9118	27.832	57.9161	27.832	57.8649	27.832	57.8815	27.832	57.8201	27.832	57.8476	27.832	57.7797	27.832	57.8152	27.832	57.7449	27.832	57.785	27.832	57.7169	27.832	57.7575	27.832	57.6959	27.832	57.733	27.832	57.6816	27.832	57.7119	27.832	57.6736	27.832	57.6947	27.832	57.6711	27.832	57.6819	27.832	57.6739
29.2969	58.6689	29.2969	58.6614	29.2969	58.6681	29.2969	58.6451	29.2969	58.6595	29.2969	58.6202	29.2969	58.6436	29.2969	58.5873	29.2969	58.6213	29.2969	58.5477	29.2969	58.5931	29.2969	58.5031	29.2969	58.5599	29.2969	58.4558	29.2969	58.5224	29.2969	58.4083	29.2969	58.4813	29.2969	58.3626	29.2969	58.4375	29.2969	58.3202	29.2969	58.3923	29.2969	58.2821	29.2969	58.3468	29.2969	58.2486	29.2969	58.3028	29.2969	58.2199	29.2969	58.2618	29.2969	58.1959	29.2969	58.2255	29.2969	58.1767	29.2969	58.1954	29.2969	58.1627	29.2969	58.1728	29.2969	58.1543	29.2969	58.1586	29.2969	58.1526
30.7617	59.3553	30.7617	59.3391	30.7617	59.3602	30.7617	59.3112	30.7617	59.3546	30.7617	59.2714	30.7617	59.3395	30.7617	59.22	30.7617	59.3157	30.7617	59.1584	30.7617	59.284	30.7617	59.0889	30.7617	59.2451	30.7617	59.0143	30.7617	59.1995	30.7617	58.9384	30.7617	59.1478	30.7617	58.8647	30.7617	59.0902	30.7617	58.7962	30.7617	59.0276	30.7617	58.7351	30.7617	58.9608	30.7617	58.6824	30.7617	58.8913	30.7617	58.6388	30.7617	58.8215	30.7617	58.6047	30.7617	58.7543	30.7617	58.5804	30.7617	58.6931	30.7617	58.5669	30.7617	58.6415	30.7617	58.5653	30.7617	58.6022	30.7617	58.5768
32.2266	60.6392	32.2266	60.6333	32.2266	60.6357	32.2266	60.6175	32.2266	60.6231	32.2266	60.5922	32.2266	60.6023	32.2266	60.5578	32.2266	60.5743	32.2266	60.5152	32.2266	60.54	32.2266	60.4658	32.2266	60.5003	32.2266	60.4111	32.2266	60.4559	32.2266	60.3527	32.2266	60.4073	32.2266	60.2924	32.2266	60.3548	32.2266	60.2319	32.2266	60.2989	32.2266	60.1731	32.2266	60.2407	32.2266	60.118	32.2266	60.1817	32.2266	60.0686	32.2266	60.1244	32.2266	60.0266	32.2266	60.0714	32.2266	59.9934	32.2266	60.026	32.2266	59.9701	32.2266	59.9906	32.2266	59.9573	32.2266	59.967	32.2266	59.956
33.6914	61.1234	33.6914	61.1075	33.6914	61.1296	33.6914	61.0819	33.6914	61.1263	33.6914	61.0469	33.6914	61.1139	33.6914	61.0032	33.6914	61.0932	33.6914	60.952	33.6914	61.065	33.6914	60.8947	33.6914	61.0306	33.6914	60.8335	33.6914	60.9911	33.6914	60.7705	33.6914	60.9477	33.6914	60.7079	33.6914	60.9014	33.6914	60.648	33.6914	60.8528	33.6914	60.5927	33.6914	60.8023	33.6914	60.5439	33.6914	60.75	33.6914	60.5035	33.6914	60.6963	33.6914	60.4729	33.6914	60.6422	33.6914	60.4535	33.6914	60.5896	33.6914	60.4463	33.6914	60.5415	33.6914	60.4519	33.6914	60.5008	33.6914	60.4703
35.1562	61.8591	35.1562	61.8509	35.1562	61.8565	35.1562	61.8315	35.1562	61.844	35.1562	61.8008	35.1562	61.8222	35.1562	61.7591	35.1562	61.7923	35.1562	61.707	35.1562	61.7555	35.1562	61.646	35.1562	61.7128	35.1562	61.578	35.1562	61.6655	35.1562	61.5057	35.1562	61.6147	35.1562	61.432	35.1562	61.5611	35.1562	61.3602	35.1562	61.5057	35.1562	61.2935	35.1562	61.4492	35.1562	61.2349	35.1562	61.3926	35.1562	61.1868	35.1562	61.3371	35.1562	61.1509	35.1562	61.2841	35.1562	61.128	35.1562	61.2355	35.1562	61.1179	35.1562	61.1931	35.1562	61.1201	35.1562	61.1588	35.1562	61.1341
36.6211	62.3549	36.6211	62.3416	36.6211	62.3582	36.6211	62.3182	36.6211	62.3516	36.6211	62.2852	36.6211	62.3357	36.6211	62.2432	36.6211	62.3112	36.6211	62.1932	36.6211	62.2792	36.6211	62.1367	36.6211	62.241	36.6211	62.0756	36.6211	62.1982	36.6211	62.0121	36.6211	62.1524	36.6211	61.9488	36.6211	62.105	36.6211	61.8884	36.6211	62.0572	36.6211	61.8334	36.6211	62.0097	36.6211	61.7865	36.6211	61.9633	36.6211	61.7496	36.6211	61.9181	36.6211	61.7243	36.6211	61.8748	36.6211	61.7111	36.6211	61.834	36.6211	61.7098	36.6211	61.7967	36.6211	61.7192	36.6211	61.7642	36.6211	61.7378
38.0859	63.2173	38.0859	63.1889	38.0859	63.2325	38.0859	63.1474	38.0859	63.2346	38.0859	63.0932	38.0859	63.2239	38.0859	63.027	38.0859	63.2008	38.0859	62.9497	38.0859	63.1664	38.0859	62.863	38.0859	63.1217	38.0859	62.7689	38.0859	63.0681	38.0859	62.6705	38.0859	63.007	38.0859	62.571	38.0859	62.9395	38.0859	62.4745	38.0859	62.8668	38.0859	62.3848	38.0859	62.7895	38.0859	62.3063	38.0859	62.7084	38.0859	62.2431	38.0859	62.6242	38.0859	62.1988	38.0859	62.5383	38.0859	62.176	38.0859	62.4531	38.0859	62.1758	38.0859	62.3722	38.0859	62.1979	38.0859	62.2997	38.0859	62.2402
39.5508	63.6366	39.5508	63.6152	39.5508	63.6468	39.5508	63.5828	39.5508	63.6459	39.5508	63.5397	39.5508	63.634	39.5508	63.4865	39.5508	63.6115	39.5508	63.4242	39.5508	63.5789	39.5508	63.3539	39.5508	63.5373	39.5508	63.2774	39.5508	63.4875	39.5508	63.1966	39.5508	63.4309	39.5508	63.1139	39.5508	63.3686	39.5508	63.0317	39.5508	63.3017	39.5508	62.953	39.5508	63.2313	39.5508	62.881	39.5508	63.1584	39.5508	62.8197	39.5508	63.0843	39.5508	62.7727	39.5508	63.0107	39.5508	62.7435	39.5508	62.9398	39.5508	62.734	39.5508	62.8744	39.5508	62.7443	39.5508	62.8176	39.5508	62.7731
41.0156	64.7547	41.0156	64.7656	41.0156	64.7372	41.0156	64.768	41.0156	64.7149	41.0156	64.7598	41.0156	64.6888	41.0156	64.7388	41.0156	64.6593	41.0156	64.7031	41.0156	64.6259	41.0156	64.6511	41.0156	64.5867	41.0156	64.5815	41.0156	64.5384	41.0156	64.4933	41.0156	64.4757	41.0156	64.3866	41.0156	64.3917	41.0156	64.2617	41.0156	64.2794	41.0156	64.1196	41.0156	64.1333	41.0156	63.9616	41.0156	63.9528	41.0156	63.7905	41.0156	63.7455	41.0156	63.6115	41.0156	63.5286	41.0156	63.4339	41.0156	63.3278	41.0156	63.2725	41.0156	63.1724	41.0156	63.1471	41.0156	63.086	41.0156	63.0792
42.4805	64.5752	42.4805	64.609	42.4805	64.537	42.4805	64.6381	42.4805	64.4952	42.4805	64.6625	42.4805	64.451	42.4805	64.6827	42.4805	64.4061	42.4805	64.6989	42.4805	64.3623	42.4805	64.7115	42.4805	64.3212	42.4805	64.7204	42.4805	64.2847	42.4805	64.7258	42.4805	64.2541	42.4805	64.7273	42.4805	64.2309	42.4805	64.7247	42.4805	64.2164	42.4805	64.7176	42.4805	64.2117	42.4805	64.705	42.4805	64.2178	42.4805	64.6857	42.4805	64.2356	42.4805	64.6588	42.4805	64.2653	42.4805	64.6233	42.4805	64.3061	42.4805	64.5793	42.4805	64.3563	42.4805	64.5278	42.4805	64.4126	42.4805	64.4712
43.9453	65.2727	43.9453	65.3014	43.9453	65.2366	43.9453	65.3221	43.9453	65.1941	43.9453	65.3347	43.9453	65.1465	43.9453	65.3396	43.9453	65.0955	43.9453	65.3371	43.9453	65.0426	43.9453	65.3283	43.9453	64.9897	43.9453	65.314	43.9453	64.9386	43.9453	65.2955	43.9453	64.8912	43.9453	65.2738	43.9453	64.8493	43.9453	65.2494	43.9453	64.8146	43.9453	65.2227	43.9453	64.7888	43.9453	65.1934	43.9453	64.7732	43.9453	65.1606	43.9453	64.7691	43.9453	65.1234	43.9453	64.7777	43.9453	65.0809	43.9453	64.7994	43.9453	65.0332	43.9453	64.8335	43.9453	64.9816	43.9453	64.8778	43.9453	64.9285
45.4102	65.7534	45.4102	65.7584	45.4102	65.7403	45.4102	65.7551	45.4102	65.7195	45.4102	65.7435	45.4102	65.6916	45.4102	65.7237	45.4102	65.6574	45.4102	65.6959	45.4102	65.6177	45.4102	65.6607	45.4102	65.5736	45.4102	65.619	45.4102	65.5261	45.4102	65.5719	45.4102	65.4761	45.4102	65.5208	45.4102	65.4248	45.4102	65.4674	45.4102	65.373	45.4102	65.4135	45.4102	65.322	45.4102	65.3607	45.4102	65.2732	45.4102	65.3106	45.4102	65.2286	45.4102	65.2645	45.4102	65.1907	45.4102	65.2235	45.4102	65.162	45.4102	65.1891	45.4102	65.1445	45.4102	65.1625	45.4102	65.139	45.4102	65.1454
46.875	66.3202	46.875	66.3194	46.875	66.3129	46.875	66.3105	46.875	66.298	46.875	66.2935	46.875	66.276	46.875	66.2691	46.875	66.2477	46.875	66.2378	46.875	66.2142	46.875	66.2008	46.875	66.1764	46.875	66.1596	46.875	66.1355	46.875	66.1157	46.875	66.0927	46.875	66.0707	46.875	66.0492	46.875	66.0262	46.875	66.006	46.875	65.9835	46.875	65.9641	46.875	65.9436	46.875	65.9247	46.875	65.9075	46.875	65.889	46.875	65.8759	46.875	65.8584	46.875	65.8495	46.875	65.8343	46.875	65.8292	46.875	65.8178	46.875	65.8154	46.875	65.8093	46.875	65.8086
48.3398	66.7822	48.3398	66.7836	48.3398	66.7716	48.3398	66.7754	48.3398	66.7521	48.3398	66.7581	48.3398	66.7245	48.3398	66.7321	48.3398	66.6898	48.3398	66.6983	48.3398	66.6489	48.3398	66.6579	48.3398	66.6031	48.3398	66.6125	48.3398	66.5537	48.3398	66.5637	48.3398	66.502	48.3398	66.5128	48.3398	66.4494	48.3398	66.4613	48.3398	66.3972	48.3398	66.4105	48.3398	66.3466	48.3398	66.3614	48.3398	66.299	48.3398	66.3151	48.3398	66.2561	48.3398	66.2729	48.3398	66.2198	48.3398	66.2361	48.3398	66.1919	48.3398	66.2058	48.3398	66.1739	48.3398	66.1834	48.3398	66.1666	48.3398	66.17
51.2695	67.7911	51.2695	67.7883	51.2695	67.7828	51.2695	67.7745	51.2695	67.7636	51.2695	67.7505	51.2695	67.7342	51.2695	67.7173	51.2695	67.6959	51.2695	67.6765	51.2695	67.6502	51.2695	67.6295	51.2695	67.5986	51.2695	67.5782	51.2695	67.543	51.2695	67.524	51.2695	67.4849	51.2695	67.4683	51.2695	67.4258	51.2695	67.4122	51.2695	67.367	51.2695	67.3564	51.2695	67.3096	51.2695	67.3018	51.2695	67.255	51.2695	67.2497	51.2695	67.2047	51.2695	67.2014	51.2695	67.1607	51.2695	67.1589	51.2695	67.1251	51.2695	67.1244	51.2695	67.1001	51.2695	67.0999	51.2695	67.0872	51.2695	67.0872
52.7344	68.1991	52.7344	68.2025	52.7344	68.1861	52.7344	68.1964	52.7344	68.1638	52.7344	68.1813	52.7344	68.1329	52.7344	68.1579	52.7344	68.0945	52.7344	68.1273	52.7344	68.05	52.7344	68.0907	52.7344	68.0011	52.7344	68.049	52.7344	67.9496	52.7344	68.0036	52.7344	67.8973	52.7344	67.9555	52.7344	67.8457	52.7344	67.9058	52.7344	67.7963	52.7344	67.8559	52.7344	67.7502	52.7344	67.8069	52.7344	67.7084	52.7344	67.7605	52.7344	67.6721	52.7344	67.718	52.7344	67.6426	52.7344	67.681	52.7344	67.6212	52.7344	67.6504	52.7344	67.6088	52.7344	67.6272	52.7344	67.6058	52.7344	67.6121
54.1992	68.6942	54.1992	68.6993	54.1992	68.6802	54.1992	68.696	54.1992	68.6575	54.1992	68.6847	54.1992	68.6264	54.1992	68.6662	54.1992	68.5878	54.1992	68.6414	54.1992	68.5429	54.1992	68.6112	54.1992	68.4933	54.1992	68.5765	54.1992	68.441	54.1992	68.5381	54.1992	68.3879	54.1992	68.4969	54.1992	68.3363	54.1992	68.4535	54.1992	68.2877	54.1992	68.4089	54.1992	68.2438	54.1992	68.3638	54.1992	68.2056	54.1992	68.3193	54.1992	68.1744	54.1992	68.2766	54.1992	68.1511	54.1992	68.237	54.1992	68.1368	54.1992	68.2019	54.1992	68.132	54.1992	68.1727	54.1992	68.1368	54.1992	68.1506
55.6641	69.1333	55.6641	69.1374	55.6641	69.1199	55.6641	69.132	55.6641	69.0971	55.6641	69.1177	55.6641	69.0655	55.6641	69.0948	55.6641	69.0258	55.6641	69.0643	55.6641	68.9794	55.6641	69.027	55.6641	68.9279	55.6641	68.9842	55.6641	68.8732	55.6641	68.9373	55.6641	68.8177	55.6641	68.8877	55.6641	68.7633	55.6641	68.8369	55.6641	68.7121	55.6641	68.7863	55.6641	68.6655	55.6641	68.7374	55.6641	68.6248	55.6641	68.6916	55.6641	68.5909	55.6641	68.6502	55.6641	68.5648	55.6641	68.6143	55.6641	68.5471	55.6641	68.5847	55.6641	68.5382	55.6641	68.5618	55.6641	68.538	55.6641	68.546
58.5938	70.1001	58.5938	70.0938	58.5938	70.0921	58.5938	70.0727	58.5938	70.0704	58.5938	70.037	58.5938	70.0362	58.5938	69.9874	58.5938	69.9911	58.5938	69.9253	58.5938	69.937	58.5938	69.8527	58.5938	69.8756	58.5938	69.772	58.5938	69.8092	58.5938	69.6865	58.5938	69.7396	58.5938	69.5994	58.5938	69.6688	58.5938	69.5143	58.5938	69.5985	58.5938	69.4346	58.5938	69.53	58.5938	69.3632	58.5938	69.4647	58.5938	69.3026	58.5938	69.4036	58.5938	69.2547	58.5938	69.3479	58.5938	69.2207	58.5938	69.2988	58.5938	69.2014	58.5938	69.2577	58.5938	69.1964	58.5938	69.2259	58.5938	69.205
60.0586	70.4779	60.0586	70.4707	60.0586	70.4709	60.0586	70.4496	60.0586	70.4498	60.0586	70.415	60.0586	70.4154	60.0586	70.368	60.0586	70.3685	60.0586	70.3102	60.0586	70.3105	60.0586	70.2433	60.0586	70.2431	60.0586	70.1695	60.0586	70.1687	60.0586	70.091	60.0586	70.0897	60.0586	70.0106	60.0586	70.0091	60.0586	69.9308	60.0586	69.9296	60.0586	69.8545	60.0586	69.8541	60.0586	69.7842	60.0586	69.7847	60.0586	69.7221	60.0586	69.7235	60.0586	69.67	60.0586	69.672	60.0586	69.6291	60.0586	69.6312	60.0586	69.5999	60.0586	69.6017	60.0586	69.5826	60.0586	69.5836	60.0586	69.5773
62.9883	71.2217	62.9883	71.2246	62.9883	71.2057	62.9883	71.2145	62.9883	71.1772	62.9883	71.1919	62.9883	71.137	62.9883	71.1577	62.9883	71.0864	62.9883	71.113	62.9883	71.027	62.9883	71.0593	62.9883	70.9609	62.9883	70.9981	62.9883	70.8901	62.9883	70.9311	62.9883	70.8169	62.9883	70.8601	62.9883	70.7436	62.9883	70.7871	62.9883	70.6721	62.9883	70.7141	62.9883	70.6045	62.9883	70.6434	62.9883	70.5426	62.9883	70.5772	62.9883	70.4882	62.9883	70.5177	62.9883	70.4431	62.9883	70.4669	62.9883	70.4088	62.9883	70.4263	62.9883	70.3866	62.9883	70.3974	62.9883	70.3771	62.9883	70.3808
64.4531	71.5741	64.4531	71.5785	64.4531	71.5577	64.4531	71.5709	64.4531	71.5295	64.4531	71.5518	64.4531	71.4905	64.4531	71.5221	64.4531	71.4418	64.4531	71.483	64.4531	71.3851	64.4531	71.4359	64.4531	71.3224	64.4531	71.3824	64.4531	71.2559	64.4531	71.3244	64.4531	71.1882	64.4531	71.2634	64.4531	71.1215	64.4531	71.2015	64.4531	71.0582	64.4531	71.1404	64.4531	71.0003	64.4531	71.0819	64.4531	70.9495	64.4531	71.0274	64.4531	70.9073	64.4531	70.9783	64.4531	70.875	64.4531	70.9355	64.4531	70.8533	64.4531	70.8998	64.4531	70.8424	64.4531	70.8719	64.4531	70.8424	64.4531	70.8524
67.3828	72.3718	67.3828	72.3676	67.3828	72.364	67.3828	72.3515	67.3828	72.3445	67.3828	72.3242	67.3828	72.314	67.3828	72.2866	67.3828	72.2735	67.3828	72.2401	67.3828	72.2245	67.3828	72.1865	67.3828	72.1689	67.3828	72.1276	67.3828	72.1087	67.3828	72.0657	67.3828	72.0462	67.3828	72.0031	67.3828	71.9834	67.3828	71.9419	67.3828	71.9226	67.3828	71.8843	67.3828	71.8657	67.3828	71.8321	67.3828	71.8143	67.3828	71.7864	67.3828	71.7697	67.3828	71.7482	67.3828	71.7332	67.3828	71.7178	67.3828	71.7052	67.3828	71.6954	67.3828	71.6862	67.3828	71.6809	67.3828	71.676	67.3828	71.6743
68.8477	72.7327	68.8477	72.7265	68.8477	72.7269	68.8477	72.7087	68.8477	72.7092	68.8477	72.68	68.8477	72.6803	68.8477	72.6416	68.8477	72.6414	68.8477	72.5951	68.8477	72.594	68.8477	72.5423	68.8477	72.5402	68.8477	72.4854	68.8477	72.4822	68.8477	72.4263	68.8477	72.4224	68.8477	72.3674	68.8477	72.3632	68.8477	72.3108	68.8477	72.3066	68.8477	72.2581	68.8477	72.2546	68.8477	72.2111	68.8477	72.2082	68.8477	72.1706	68.8477	72.1685	68.8477	72.1374	68.8477	72.136	68.8477	72.1118	68.8477	72.1109	68.8477	72.0937	68.8477	72.0931	68.8477	72.0829	68.8477	72.0826	68.8477	72.0792
71.7773	73.4535	71.7773	73.4452	71.7773	73.4491	71.7773	73.4246	71.7773	73.4325	71.7773	73.3924	71.7773	73.4043	71.7773	73.3501	71.7773	73.3658	71.7773	73.2993	71.7773	73.319	71.7773	73.2423	71.7773	73.2659	71.7773	73.1816	71.7773	73.2089	71.7773	73.1196	71.7773	73.1507	71.7773	73.0591	71.7773	73.0934	71.7773	73.0026	71.7773	73.0393	71.7773	72.9522	71.7773	72.99	71.7773	72.9094	71.7773	72.9466	71.7773	72.8751	71.7773	72.9098	71.7773	72.8495	71.7773	72.8798	71.7773	72.8321	71.7773	72.8562	71.7773	72.822	71.7773	72.8387	71.7773	72.8182	71.7773	72.8267	71.7773	72.8199
74.707	74.1945	74.707	74.1869	74.707	74.1888	74.707	74.1661	74.707	74.1703	74.707	74.1328	74.707	74.1399	74.707	74.0883	74.707	74.0992	74.707	74.0344	74.707	74.05	74.707	73.9733	74.707	73.9948	74.707	73.9078	74.707	73.9359	74.707	73.8406	74.707	73.8758	74.707	73.7747	74.707	73.8168	74.707	73.7127	74.707	73.7611	74.707	73.657	74.707	73.7102	74.707	73.6094	74.707	73.6651	74.707	73.5712	74.707	73.6262	74.707	73.5429	74.707	73.5935	74.707	73.5242	74.707	73.5667	74.707	73.5146	74.707	73.5453	74.707	73.513	74.707	73.5291	74.707	73.5181
77.6367	74.857	77.6367	74.852	77.6367	74.8485	77.6367	74.8336	77.6367	74.827	77.6367	74.8028	77.6367	74.7936	77.6367	74.7608	77.6367	74.7499	77.6367	74.7098	77.6367	74.6982	77.6367	74.6521	77.6367	74.6409	77.6367	74.5905	77.6367	74.581	77.6367	74.5279	77.6367	74.5212	77.6367	74.467	77.6367	74.464	77.6367	74.4105	77.6367	74.4117	77.6367	74.3604	77.6367	74.3658	77.6367	74.3181	77.6367	74.3273	77.6367	74.2845	77.6367	74.2962	77.6367	74.2594	77.6367	74.2722	77.6367	74.2423	77.6367	74.2543	77.6367	74.2321	77.6367	74.2415	77.6367	74.2279	77.6367	74.233	77.6367	74.2284
79.1016	75.164	79.1016	75.1618	79.1016	75.1524	79.1016	75.146	79.1016	75.1278	79.1016	75.1173	79.1016	75.0914	79.1016	75.077	79.1016	75.045	79.1016	75.0271	79.1016	74.9909	79.1016	74.9699	79.1016	74.9318	79.1016	74.9083	79.1016	74.8707	79.1016	74.8454	79.1016	74.8105	79.1016	74.7841	79.1016	74.7538	79.1016	74.7272	79.1016	74.7029	79.1016	74.6768	79.1016	74.6594	79.1016	74.6346	79.1016	74.624	79.1016	74.6011	79.1016	74.5966	79.1016	74.5764	79.1016	74.5764	79.1016	74.5597	79.1016	74.5623	79.1016	74.5496	79.1016	74.5528	79.1016	74.5449	79.1016	74.547	79.1016	74.5443
82.0312	75.8425	82.0312	75.8386	82.0312	75.8312	82.0312	75.8196	82.0312	75.8051	82.0312	75.7865	82.0312	75.7656	82.0312	75.7408	82.0312	75.7146	82.0312	75.6848	82.0312	75.6547	82.0312	75.6213	82.0312	75.5888	82.0312	75.5537	82.0312	75.5204	82.0312	75.4855	82.0312	75.4531	82.0312	75.42	82.0312	75.3903	82.0312	75.3604	82.0312	75.3348	82.0312	75.3089	82.0312	75.2888	82.0312	75.2673	82.0312	75.2531	82.0312	75.2359	82.0312	75.2277	82.0312	75.2144	82.0312	75.2111	82.0312	75.2013	82.0312	75.2014	82.0312	75.1946	82.0312	75.1961	82.0312	75.1921	82.0312	75.1933	82.0312	75.192
84.9609	76.4449	84.9609	76.4434	84.9609	76.4316	84.9609	76.4274	84.9609	76.4041	84.9609	76.3974	84.9609	76.3635	84.9609	76.3551	84.9609	76.3117	84.9609	76.3022	84.9609	76.2509	84.9609	76.2415	84.9609	76.1838	84.9609	76.1757	84.9609	76.1135	84.9609	76.1081	84.9609	76.0432	84.9609	76.0416	84.9609	75.976	84.9609	75.9789	84.9609	75.9148	84.9609	75.9224	84.9609	75.8618	84.9609	75.8734	84.9609	75.8184	84.9609	75.8327	84.9609	75.7852	84.9609	75.8005	84.9609	75.7617	84.9609	75.776	84.9609	75.7468	84.9609	75.7583	84.9609	75.7389	84.9609	75.7464	84.9609	75.7367	84.9609	75.7393
87.8906	77.0258	87.8906	77.0227	87.8906	77.013	87.8906	77.0035	87.8906	76.985	87.8906	76.9692	87.8906	76.9436	87.8906	76.9216	87.8906	76.891	87.8906	76.8631	87.8906	76.8302	87.8906	76.7972	87.8906	76.7646	87.8906	76.7275	87.8906	76.6977	87.8906	76.6581	87.8906	76.6333	87.8906	76.5928	87.8906	76.5745	87.8906	76.5351	87.8906	76.5238	87.8906	76.4874	87.8906	76.4829	87.8906	76.4511	87.8906	76.4525	87.8906	76.4262	87.8906	76.4319	87.8906	76.4115	87.8906	76.4195	87.8906	76.4049	87.8906	76.4131	87.8906	76.4035	87.8906	76.4101	87.8906	76.4048	87.8906	76.4085	87.8906	76.4068
90.8203	77.6004	90.8203	77.6003	90.8203	77.5848	90.8203	77.5844	90.8203	77.5543	90.8203	77.5534	90.8203	77.5107	90.8203	77.5088	90.8203	77.4562	90.8203	77.4529	90.8203	77.3939	90.8203	77.3888	90.8203	77.3269	90.8203	77.32	90.8203	77.259	90.8203	77.2505	90.8203	77.1936	90.8203	77.1843	90.8203	77.134	90.8203	77.125	90.8203	77.0828	90.8203	77.0753	90.8203	77.0417	90.8203	77.0368	90.8203	77.0114	90.8203	77.0098	90.8203	76.9914	90.8203	76.993	90.8203	76.9804	90.8203	76.9842	90.8203	76.9759	90.8203	76.9805	90.8203	76.9755	90.8203	76.9792	90.8203	76.9768	90.8203	76.9782
95.2148	78.3945	95.2148	78.3926	95.2148	78.3799	95.2148	78.3741	95.2148	78.3497	95.2148	78.3399	95.2148	78.3058	95.2148	78.2916	95.2148	78.2505	95.2148	78.2318	95.2148	78.1871	95.2148	78.1639	95.2148	78.1192	95.2148	78.0918	95.2148	78.0508	95.2148	78.0197	95.2148	77.9856	95.2148	77.9518	95.2148	77.927	95.2148	77.892	95.2148	77.8778	95.2148	77.8432	95.2148	77.8394	95.2148	77.807	95.2148	77.8122	95.2148	77.7836	95.2148	77.7953	95.2148	77.7717	95.2148	77.7867	95.2148	77.7686	95.2148	77.7835	95.2148	77.7709	95.2148	77.7827	95.2148	77.7755	95.2148	77.7819	95.2148	77.7796
98.1445	79.0004	98.1445	79.0042	98.1445	78.9784	98.1445	78.9898	98.1445	78.9392	98.1445	78.9581	98.1445	78.8845	98.1445	78.911	98.1445	78.8171	98.1445	78.8509	98.1445	78.7403	98.1445	78.7812	98.1445	78.6582	98.1445	78.706	98.1445	78.5751	98.1445	78.6294	98.1445	78.4954	98.1445	78.5557	98.1445	78.4233	98.1445	78.4887	98.1445	78.3618	98.1445	78.4312	98.1445	78.3133	98.1445	78.3848	98.1445	78.2787	98.1445	78.3495	98.1445	78.2575	98.1445	78.3239	98.1445	78.248	98.1445	78.3058	98.1445	78.2475	98.1445	78.2925	98.1445	78.2531	98.1445	78.2817	98.1445	78.2618	98.1445	78.2716
101.074	79.5314	101.074	79.5303	101.074	79.5122	101.074	79.5092	101.074	79.4736	101.074	79.4692	101.074	79.4173	101.074	79.4126	101.074	79.3461	101.074	79.3422	101.074	79.2636	101.074	79.2621	101.074	79.1742	101.074	79.1767	101.074	79.0824	101.074	79.0909	101.074	78.9932	101.074	79.0094	101.074	78.9109	101.074	78.9364	101.074	78.8394	101.074	78.8749	101.074	78.7813	101.074	78.8265	101.074	78.738	101.074	78.7907	101.074	78.7095	101.074	78.7655	101.074	78.6944	101.074	78.7479	101.074	78.6903	101.074	78.7348	101.074	78.6939	101.074	78.7235	101.074	78.7023	101.074	78.7126
105.469	80.2752	105.469	80.2785	105.469	80.2527	105.469	80.2621	105.469	80.2127	105.469	80.2262	105.469	80.1575	105.469	80.1725	105.469	80.0903	105.469	80.1034	105.469	80.0149	105.469	80.0225	105.469	79.9355	105.469	79.9345	105.469	79.8568	105.469	79.8446	105.469	79.7833	105.469	79.758	105.469	79.7186	105.469	79.68	105.469	79.6655	105.469	79.6148	105.469	79.6253	105.469	79.5652	105.469	79.5975	105.469	79.5326	105.469	79.5799	105.469	79.5159	105.469	79.5696	105.469	79.5126	105.469	79.5631	105.469	79.5184	105.469	79.5573	105.469	79.5289	105.469	79.55	105.469	79.5403
108.398	80.749	108.398	80.7549	108.398	80.7236	108.398	80.7418	108.398	80.6795	108.398	80.7107	108.398	80.6184	108.398	80.6638	108.398	80.543	108.398	80.6036	108.398	80.4572	108.398	80.5335	108.398	80.3656	108.398	80.4572	108.398	80.2734	108.398	80.3784	108.398	80.186	108.398	80.3012	108.398	80.1082	108.398	80.2289	108.398	80.0438	108.398	80.1646	108.398	79.9951	108.398	80.1104	108.398	79.9624	108.398	80.0671	108.398	79.9445	108.398	80.0344	108.398	79.9385	108.398	80.0108	108.398	79.9411	108.398	79.9937	108.398	79.9486	108.398	79.9806	108.398	79.9586	108.398	79.9693
112.793	81.4258	112.793	81.4194	112.793	81.4114	112.793	81.3929	112.793	81.377	112.793	81.3477	112.793	81.3244	112.793	81.2861	112.793	81.2564	112.793	81.2114	112.793	81.1768	112.793	81.1275	112.793	81.0904	112.793	81.0389	112.793	81.0023	112.793	80.9503	112.793	80.9176	112.793	80.8662	112.793	80.8409	112.793	80.7909	112.793	80.7755	112.793	80.7277	112.793	80.7236	112.793	80.6786	112.793	80.6853	112.793	80.6443	112.793	80.6592	112.793	80.6236	112.793	80.643	112.793	80.614	112.793	80.6335	112.793	80.6123	112.793	80.6278	112.793	80.6149	112.793	80.6235	112.793	80.6192
117.188	82.0449	117.188	82.034	117.188	82.0335	117.188	82.0014	117.188	82.0004	117.188	81.949	117.188	81.9477	117.188	81.88	117.188	81.8789	117.188	81.7985	117.188	81.7985	117.188	81.7093	117.188	81.7118	117.188	81.6175	117.188	81.6247	117.188	81.5282	117.188	81.5427	117.188	81.4465	117.188	81.4708	117.188	81.3765	117.188	81.4123	117.188	81.3215	117.188	81.369	117.188	81.2832	117.188	81.3404	117.188	81.2617	117.188	81.3243	117.188	81.2551	117.188	81.3169	117.188	81.26	117.188	81.3142	117.188	81.2718	117.188	81.312	117.188	81.2859	117.188	81.3073	117.188	81.2984
120.117	82.4536	120.117	82.4436	120.117	82.4414	120.117	82.4119	120.117	82.4079	120.117	82.3603	120.117	82.3553	120.117	82.292	120.117	82.2868	120.117	82.211	120.117	82.207	120.117	82.1223	120.117	82.1212	120.117	82.0311	120.117	82.035	120.117	81.9429	120.117	81.954	120.117	81.8624	120.117	81.883	120.117	81.7939	120.117	81.8257	120.117	81.7403	120.117	81.7836	120.117	81.703	120.117	81.7564	120.117	81.682	120.117	81.7417	120.117	81.6756	120.117	81.7359	120.117	81.6806	120.117	81.7344	120.117	81.6926	120.117	81.7331	120.117	81.707	120.117	81.7288	120.117	81.7199
124.512	82.9788	124.512	82.9647	124.512	82.9714	124.512	82.9296	124.512	82.9435	124.512	82.8749	124.512	82.8974	124.512	82.8038	124.512	82.8363	124.512	82.7207	124.512	82.7648	124.512	82.6308	124.512	82.6879	124.512	82.5405	124.512	82.6113	124.512	82.456	124.512	82.5404	124.512	82.3834	124.512	82.4801	124.512	82.3272	124.512	82.4338	124.512	82.2902	124.512	82.4028	124.512	82.2728	124.512	82.3865	124.512	82.2733	124.512	82.382	124.512	82.288	124.512	82.3853	124.512	82.3116	124.512	82.3912	124.512	82.3385	124.512	82.3949	124.512	82.3634	124.512	82.3926	124.512	82.3821
128.906	83.4761	128.906	83.4658	128.906	83.4621	128.906	83.4312	128.906	83.4252	128.906	83.3738	128.906	83.3682	128.906	83.2964	128.906	83.295	128.906	83.2035	128.906	83.2109	128.906	83.1004	128.906	83.1216	128.906	82.9937	128.906	83.0334	128.906	82.8906	128.906	82.9527	128.906	82.7982	128.906	82.8851	128.906	82.7232	128.906	82.8346	128.906	82.6704	128.906	82.803	128.906	82.6423	128.906	82.7892	128.906	82.6382	128.906	82.7894	128.906	82.6547	128.906	82.7978	128.906	82.6855	128.906	82.8076	128.906	82.7231	128.906	82.8121	128.906	82.7597	128.906	82.8067	128.906	82.7889
133.301	84.1434	133.301	84.1685	133.301	84.0886	133.301	84.1624	133.301	84.0069	133.301	84.1254	133.301	83.9028	133.301	84.0595	133.301	83.7818	133.301	83.9685	133.301	83.6502	133.301	83.858	133.301	83.515	133.301	83.7349	133.301	83.3834	133.301	83.6069	133.301	83.2622	133.301	83.4822	133.301	83.1573	133.301	83.3679	133.301	83.0731	133.301	83.2697	133.301	83.0118	133.301	83.1907	133.301	82.9732	133.301	83.1312	133.301	82.9551	133.301	83.0892	133.301	82.953	133.301	83.0606	133.301	82.962	133.301	83.0407	133.301	82.9768	133.301	83.0249	133.301	82.9936	133.301	83.0097
139.16	84.6039	139.16	84.6114	139.16	84.5662	139.16	84.5898	139.16	84.4993	139.16	84.5413	139.16	84.4058	139.16	84.4697	139.16	84.2907	139.16	84.3795	139.16	84.1607	139.16	84.2763	139.16	84.0243	139.16	84.1665	139.16	83.8907	139.16	84.0565	139.16	83.7688	139.16	83.9531	139.16	83.6663	139.16	83.8621	139.16	83.5883	139.16	83.7877	139.16	83.5371	139.16	83.7316	139.16	83.5117	139.16	83.693	139.16	83.5085	139.16	83.6686	139.16	83.5217	139.16	83.6536	139.16	83.5446	139.16	83.6427	139.16	83.5709	139.16	83.6313	139.16	83.5958	139.16	83.6162
143.555	84.8792	143.555	84.8603	143.555	84.8703	143.555	84.8154	143.555	84.8335	143.555	84.7472	143.555	84.7702	143.555	84.6599	143.555	84.6835	143.555	84.5584	143.555	84.5784	143.555	84.4489	143.555	84.4614	143.555	84.3382	143.555	84.3409	143.555	84.2332	143.555	84.2257	143.555	84.1406	143.555	84.1241	143.555	84.0658	143.555	84.0429	143.555	84.0121	143.555	83.9861	143.555	83.9801	143.555	83.9541	143.555	83.9673	143.555	83.944	143.555	83.9689	143.555	83.9501	143.555	83.979	143.555	83.9652	143.555	83.9911	143.555	83.9825	143.555	84.0001	143.555	83.9959	143.555	84.0022
147.949	85.0938	147.949	85.0794	147.949	85.0796	147.949	85.0367	147.949	85.0384	147.949	84.9675	147.949	84.9734	147.949	84.8759	147.949	84.8893	147.949	84.7673	147.949	84.792	147.949	84.6489	147.949	84.6885	147.949	84.5289	147.949	84.5862	147.949	84.4161	147.949	84.4928	147.949	84.3188	147.949	84.4151	147.949	84.2441	147.949	84.3582	147.949	84.1966	147.949	84.3246	147.949	84.1778	147.949	84.3133	147.949	84.1852	147.949	84.3202	147.949	84.213	147.949	84.3381	147.949	84.2533	147.949	84.3587	147.949	84.297	147.949	84.3736	147.949	84.336	147.949	84.3763	147.949	84.3637
153.809	85.5343	153.809	85.5273	153.809	85.5088	153.809	85.4895	153.809	85.4514	153.809	85.4238	153.809	85.3641	153.809	85.3347	153.809	85.2515	153.809	85.2278	153.809	85.1201	153.809	85.1097	153.809	84.9785	153.809	84.9876	153.809	84.8369	153.809	84.8694	153.809	84.7066	153.809	84.7624	153.809	84.5979	153.809	84.6734	153.809	84.5191	153.809	84.6073	153.809	84.474	153.809	84.5663	153.809	84.4616	153.809	84.5493	153.809	84.4758	153.809	84.5519	153.809	84.507	153.809	84.5673	153.809	84.5445	153.809	84.5871	153.809	84.5782	153.809	84.6033	153.809	84.601	153.809	84.6092
159.668	85.8872	159.668	85.8749	159.668	85.8641	159.668	85.828	159.668	85.8068	159.668	85.7496	159.668	85.7185	159.668	85.6447	159.668	85.6042	159.668	85.5203	159.668	85.4707	159.668	85.3848	159.668	85.3263	159.668	85.2474	159.668	85.1809	159.668	85.1175	159.668	85.0451	159.668	85.0037	159.668	84.9295	159.668	84.913	159.668	84.843	159.668	84.8494	159.668	84.7908	159.668	84.814	159.668	84.7727	159.668	84.8043	159.668	84.7829	159.668	84.8146	159.668	84.8112	159.668	84.8372	159.668	84.8458	159.668	84.8638	159.668	84.8762	159.668	84.8863	159.668	84.8947	159.668	84.8979
165.527	86.1648	165.527	86.1605	165.527	86.1343	165.527	86.1211	165.527	86.071	165.527	86.0482	165.527	85.9785	165.527	85.9455	165.527	85.8619	165.527	85.819	165.527	85.7276	165.527	85.6771	165.527	85.5833	165.527	85.5299	165.527	85.4375	165.527	85.3886	165.527	85.2997	165.527	85.2642	165.527	85.1796	165.527	85.1658	165.527	85.0858	165.527	85.099	165.527	85.0248	165.527	85.0647	165.527	84.9985	165.527	85.059	165.527	85.0039	165.527	85.0744	165.527	85.0324	165.527	85.101	165.527	85.0725	165.527	85.1287	165.527	85.112	165.527	85.1484	165.527	85.141	165.527	85.1535
171.387	86.2378	171.387	86.225	171.387	86.2148	171.387	86.1765	171.387	86.158	171.387	86.094	171.387	86.0709	171.387	85.9813	171.387	85.9589	171.387	85.844	171.387	85.8285	171.387	85.6899	171.387	85.6874	171.387	85.529	171.387	85.5439	171.387	85.3732	171.387	85.4067	171.387	85.2351	171.387	85.2848	171.387	85.1264	171.387	85.1864	171.387	85.0551	171.387	85.1181	171.387	85.0238	171.387	85.083	171.387	85.0283	171.387	85.079	171.387	85.059	171.387	85.0992	171.387	85.103	171.387	85.1324	171.387	85.1471	171.387	85.1662	171.387	85.1802	171.387	85.1896	171.387	85.1952
177.246	86.2818	177.246	86.2767	177.246	86.2465	177.246	86.2312	177.246	86.1731	177.246	86.1475	177.246	86.0664	177.246	86.03	177.246	85.9333	177.246	85.8853	177.246	85.7827	177.246	85.7218	177.246	85.6244	177.246	85.5498	177.246	85.4694	177.246	85.3812	177.246	85.3281	177.246	85.2286	177.246	85.2096	177.246	85.104	177.246	85.121	177.246	85.0163	177.246	85.0663	177.246	84.9697	177.246	85.0453	177.246	84.962	177.246	85.0532	177.246	84.9855	177.246	85.0807	177.246	85.0287	177.246	85.1155	177.246	85.0784	177.246	85.1449	177.246	85.1224	177.246	85.1585	177.246	85.1509
183.105	86.275	183.105	86.2704	183.105	86.2389	183.105	86.2242	183.105	86.1651	183.105	86.1385	183.105	86.0586	183.105	86.0172	183.105	85.9262	183.105	85.8673	183.105	85.7762	183.105	85.6976	183.105	85.6178	183.105	85.5198	183.105	85.4613	183.105	85.3471	183.105	85.3172	183.105	85.1943	183.105	85.1962	183.105	85.0753	183.105	85.107	183.105	85.0004	183.105	85.0559	183.105	84.9733	183.105	85.0439	183.105	84.9898	183.105	85.0661	183.105	85.0384	183.105	85.112	183.105	85.1035	183.105	85.1668	183.105	85.1687	183.105	85.2153	183.105	85.2197	183.105	85.2444	183.105	85.2465
188.965	86.3425	188.965	86.3528	188.965	86.2863	188.965	86.3164	188.965	86.1874	188.965	86.235	188.965	86.0519	188.965	86.1128	188.965	85.8881	188.965	85.9568	188.965	85.7066	188.965	85.776	188.965	85.5199	188.965	85.5817	188.965	85.3409	188.965	85.3875	188.965	85.1826	188.965	85.2082	188.965	85.0557	188.965	85.0595	188.965	84.9685	188.965	84.9545	188.965	84.9246	188.965	84.9012	188.965	84.9225	188.965	84.8986	188.965	84.9555	188.965	84.9374	188.965	85.0112	188.965	85.0011	188.965	85.0743	188.965	85.0705	188.965	85.1284	188.965	85.128	188.965	85.1597	188.965	85.1599
196.289	86.2409	196.289	86.2347	196.289	86.2088	196.289	86.1909	196.289	86.1392	196.289	86.1119	196.289	86.0348	196.289	86.0019	196.289	85.8997	196.289	85.8668	196.289	85.7405	196.289	85.7144	196.289	85.5657	196.289	85.5541	196.289	85.3859	196.289	85.3965	196.289	85.2136	196.289	85.2527	196.289	85.0617	196.289	85.1328	196.289	84.9414	196.289	85.0444	196.289	84.8607	196.289	84.9906	196.289	84.8218	196.289	84.9687	196.289	84.8209	196.289	84.9708	196.289	84.8483	196.289	84.9854	196.289	84.8914	196.289	85.0009	196.289	84.9374	196.289	85.0079	196.289	84.9759	196.289	85.0002
203.613	86.328	203.613	86.3321	203.613	86.2707	203.613	86.2817	203.613	86.1646	203.613	86.179	203.613	86.0169	203.613	86.0305	203.613	85.8372	203.613	85.8461	203.613	85.6368	203.613	85.6387	203.613	85.429	203.613	85.4234	203.613	85.2276	203.613	85.2161	203.613	85.0463	203.613	85.0331	203.613	84.8972	203.613	84.8893	203.613	84.7892	203.613	84.7955	203.613	84.7274	203.613	84.756	203.613	84.712	203.613	84.7657	203.613	84.7373	203.613	84.8108	203.613	84.792	203.613	84.8726	203.613	84.8601	203.613	84.9319	203.613	84.9243	203.613	84.9734	203.613	84.9699	203.613	84.9873
210.938	86.0982	210.938	86.1073	210.938	86.0406	210.938	86.0675	210.938	85.9371	210.938	85.9804	210.938	85.7924	210.938	85.8507	210.938	85.6143	210.938	85.686	210.938	85.4134	210.938	85.4979	210.938	85.2038	210.938	85.3014	210.938	85.0024	210.938	85.1128	210.938	84.827	210.938	84.9481	210.938	84.6935	210.938	84.8196	210.938	84.6117	210.938	84.7345	210.938	84.5822	210.938	84.6937	210.938	84.5965	210.938	84.6914	210.938	84.6402	210.938	84.7169	210.938	84.6971	210.938	84.7563	210.938	84.7533	210.938	84.7959	210.938	84.799	210.938	84.8249	210.938	84.8277	210.938	84.8365
218.262	85.9068	218.262	85.9018	218.262	85.8698	218.262	85.8552	218.262	85.7908	218.262	85.7678	218.262	85.6711	218.262	85.6415	218.262	85.5143	218.262	85.4801	218.262	85.327	218.262	85.2915	218.262	85.1195	218.262	85.0887	218.262	84.9066	218.262	84.8901	218.262	84.7073	218.262	84.7179	218.262	84.5435	218.262	84.5934	218.262	84.436	218.262	84.5306	218.262	84.3978	218.262	84.5319	218.262	84.4287	218.262	84.5866	218.262	84.5139	218.262	84.6745	218.262	84.6289	218.262	84.7721	218.262	84.747	218.262	84.8579	218.262	84.8461	218.262	84.9156	218.262	84.9113	218.262	84.9348
225.586	85.8091	225.586	85.8195	225.586	85.7515	225.586	85.784	225.586	85.648	225.586	85.7057	225.586	85.5031	225.586	85.5888	225.586	85.3243	225.586	85.4387	225.586	85.1217	225.586	85.2624	225.586	84.9076	225.586	85.0697	225.586	84.6954	225.586	84.8742	225.586	84.5002	225.586	84.6934	225.586	84.3378	225.586	84.5468	225.586	84.2249	225.586	84.4522	225.586	84.1746	225.586	84.4195	225.586	84.192	225.586	84.4465	225.586	84.2694	225.586	84.5179	225.586	84.387	225.586	84.6091	225.586	84.5183	225.586	84.6939	225.586	84.637	225.586	84.7494	225.586	84.722	225.586	84.7607
232.91	85.7369	232.91	85.7326	232.91	85.6801	232.91	85.6686	232.91	85.5648	232.91	85.5498	232.91	85.3969	232.91	85.3844	232.91	85.1863	232.91	85.1841	232.91	84.9468	232.91	84.9622	232.91	84.6957	232.91	84.7334	232.91	84.4525	232.91	84.514	232.91	84.2369	232.91	84.3218	232.91	84.0674	232.91	84.1752	232.91	83.9588	232.91	84.0891	232.91	83.9195	232.91	84.0703	232.91	83.9478	232.91	84.1128	232.91	84.0308	232.91	84.1984	232.91	84.147	232.91	84.3016	232.91	84.271	232.91	84.3961	232.91	84.3791	232.91	84.4605	232.91	84.4529	232.91	84.4811
241.699	85.5419	241.699	85.5437	241.699	85.4838	241.699	85.4904	241.699	85.3706	241.699	85.3852	241.699	85.2071	241.699	85.2327	241.699	85.0017	241.699	85.0394	241.699	84.7665	241.699	84.8146	241.699	84.5162	241.699	84.5705	241.699	84.2666	241.699	84.3237	241.699	84.034	241.699	84.0953	241.699	83.8349	241.699	83.9096	241.699	83.6872	241.699	83.7893	241.699	83.6089	241.699	83.7486	241.699	83.6115	241.699	83.7854	241.699	83.691	241.699	83.8805	241.699	83.8246	241.699	84.0029	241.699	83.9768	241.699	84.1194	241.699	84.1115	241.699	84.2022	241.699	84.2015	241.699	84.2324
250.488	85.5805	250.488	85.5573	250.488	85.5298	250.488	85.4632	250.488	85.4061	250.488	85.3051	250.488	85.2143	250.488	85.0934	250.488	84.9646	250.488	84.8416	250.488	84.6733	250.488	84.5656	250.488	84.3631	250.488	84.2828	250.488	84.0615	250.488	84.0105	250.488	83.7967	250.488	83.765	250.488	83.5914	250.488	83.5609	250.488	83.4579	250.488	83.4101	250.488	83.3968	250.488	83.3206	250.488	83.399	250.488	83.2952	250.488	83.449	250.488	83.3293	250.488	83.5271	250.488	83.4094	250.488	83.6104	250.488	83.5127	250.488	83.6754	250.488	83.6116	250.488	83.7024	250.488	83.6803
259.277	85.4669	259.277	85.459	259.277	85.4105	259.277	85.3869	259.277	85.2914	259.277	85.2518	259.277	85.1132	259.277	85.0566	259.277	84.8826	259.277	84.8075	259.277	84.6104	259.277	84.5154	259.277	84.312	259.277	84.1985	259.277	84.0068	259.277	83.8829	259.277	83.7179	259.277	83.6013	259.277	83.4732	259.277	83.3859	259.277	83.3026	259.277	83.2588	259.277	83.2311	259.277	83.2242	259.277	83.265	259.277	83.2691	259.277	83.3831	259.277	83.3699	259.277	83.5423	259.277	83.5006	259.277	83.6948	259.277	83.6361	259.277	83.8037	259.277	83.7528	259.277	83.8496	259.277	83.8296
268.066	85.3464	268.066	85.3343	268.066	85.2766	268.066	85.2367	268.066	85.133	268.066	85.0569	268.066	84.9258	268.066	84.8066	268.066	84.6647	268.066	84.505	268.066	84.3597	268.066	84.1765	268.066	84.024	268.066	83.8451	268.066	83.6776	268.066	83.531	268.066	83.3479	268.066	83.2514	268.066	83.0662	268.066	83.0265	268.066	82.861	268.066	82.8793	268.066	82.754	268.066	82.8272	268.066	82.757	268.066	82.8694	268.066	82.864	268.066	82.9845	268.066	83.0443	268.066	83.1396	268.066	83.2463	268.066	83.3005	268.066	83.4142	268.066	83.4345	268.066	83.5077	268.066	83.5116
276.855	85.0684	276.855	85.066	276.855	85.021	276.855	85.0154	276.855	84.9205	276.855	84.9109	276.855	84.7656	276.855	84.739	276.855	84.5584	276.855	84.4856	276.855	84.303	276.855	84.1486	276.855	84.0043	276.855	83.7499	276.855	83.6706	276.855	83.3382	276.855	83.3182	276.855	82.9783	276.855	82.9754	276.855	82.7266	276.855	82.6791	276.855	82.6089	276.855	82.464	276.855	82.6144	276.855	82.3482	276.855	82.7064	276.855	82.3283	276.855	82.8361	276.855	82.3863	276.855	82.9542	276.855	82.5001	276.855	83.0205	276.855	82.6472	276.855	83.0135	276.855	82.8019	276.855	82.9339
287.109	85.2396	287.109	85.2142	287.109	85.1578	287.109	85.0918	287.109	84.9688	287.109	84.8914	287.109	84.6849	287.109	84.6359	287.109	84.3322	287.109	84.3446	287.109	83.952	287.109	84.0268	287.109	83.5962	287.109	83.6833	287.109	83.3133	287.109	83.3201	287.109	83.1286	287.109	82.9646	287.109	83.0331	287.109	82.6684	287.109	82.9957	287.109	82.4867	287.109	82.9892	287.109	82.4444	287.109	83.0077	287.109	82.524	287.109	83.0607	287.109	82.6835	287.109	83.1523	287.109	82.8806	287.109	83.2641	287.109	83.0802	287.109	83.3592	287.109	83.2506	287.109	83.3996	287.109	83.3633
297.363	85.0296	297.363	85.0447	297.363	84.9495	297.363	84.9843	297.363	84.8149	297.363	84.846	297.363	84.6284	297.363	84.6404	297.363	84.38	297.363	84.3889	297.363	84.0496	297.363	84.1126	297.363	83.6173	297.363	83.819	297.363	83.0844	297.363	83.5012	297.363	82.4967	297.363	83.1532	297.363	81.9613	297.363	82.7939	297.363	81.6225	297.363	82.4811	297.363	81.5762	297.363	82.296	297.363	81.7902	297.363	82.2938	297.363	82.1356	297.363	82.4552	297.363	82.4837	297.363	82.6932	297.363	82.7618	297.363	82.9106	297.363	82.9511	297.363	83.0487	297.363	83.0598	297.363	83.0948
307.617	84.9732	307.617	84.9627	307.617	84.895	307.617	84.8635	307.617	84.7337	307.617	84.6792	307.617	84.5037	307.617	84.4175	307.617	84.2299	307.617	84.0922	307.617	83.9439	307.617	83.7263	307.617	83.6689	307.617	83.3527	307.617	83.4057	307.617	83.0077	307.617	83.1333	307.617	82.7214	307.617	82.8327	307.617	82.5095	307.617	82.5161	307.617	82.3756	307.617	82.236	307.617	82.3178	307.617	82.0631	307.617	82.3319	307.617	82.0404	307.617	82.4077	307.617	82.1536	307.617	82.5242	307.617	82.3436	307.617	82.6474	307.617	82.5409	307.617	82.7369	307.617	82.6895	307.617	82.757
319.336	84.7139	319.336	84.7096	319.336	84.6248	319.336	84.6106	319.336	84.4449	319.336	84.4186	319.336	84.1766	319.336	84.1396	319.336	83.8255	319.336	83.7843	319.336	83.4066	319.336	83.3684	319.336	82.9519	319.336	82.9127	319.336	82.5092	319.336	82.4483	319.336	82.1283	319.336	82.0218	319.336	81.8427	319.336	81.6933	319.336	81.6674	319.336	81.5168	319.336	81.6118	319.336	81.5111	319.336	81.681	319.336	81.6469	319.336	81.856	319.336	81.8625	319.336	82.0822	319.336	82.0913	319.336	82.2914	319.336	82.2842	319.336	82.4351	319.336	82.4186	319.336	82.499	319.336	82.4906
329.59	84.6448	329.59	84.625	329.59	84.5806	329.59	84.5225	329.59	84.4292	329.59	84.3371	329.59	84.1905	329.59	84.0717	329.59	83.8707	329.59	83.7376	329.59	83.4855	329.59	83.3547	329.59	83.0587	329.59	82.945	329.59	82.619	329.59	82.5257	329.59	82.1944	329.59	82.1143	329.59	81.8124	329.59	81.743	329.59	81.5075	329.59	81.4646	329.59	81.3287	329.59	81.3332	329.59	81.3227	329.59	81.3682	329.59	81.4908	329.59	81.5377	329.59	81.766	329.59	81.7771	329.59	82.0475	329.59	82.0199	329.59	82.2547	329.59	82.216	329.59	82.3509	329.59	82.3334
341.309	84.7095	341.309	84.7088	341.309	84.5982	341.309	84.5942	341.309	84.3807	341.309	84.3682	341.309	84.067	341.309	84.0383	341.309	83.6706	341.309	83.6199	341.309	83.2118	341.309	83.1429	341.309	82.7218	341.309	82.6526	341.309	82.2448	341.309	82.1969	341.309	81.83	341.309	81.8031	341.309	81.5142	341.309	81.4719	341.309	81.3077	341.309	81.2024	341.309	81.2036	341.309	81.0183	341.309	81.199	341.309	80.9588	341.309	81.2985	341.309	81.0417	341.309	81.4884	341.309	81.2415	341.309	81.7144	341.309	81.4993	341.309	81.8981	341.309	81.7462	341.309	81.9752	341.309	81.9198
353.027	84.7945	353.027	84.7912	353.027	84.7207	353.027	84.7062	353.027	84.5638	353.027	84.5238	353.027	84.3119	353.027	84.2237	353.027	83.9525	353.027	83.7954	353.027	83.4803	353.027	83.2519	353.027	82.9067	353.027	82.6345	353.027	82.27	353.027	82.0074	353.027	81.6347	353.027	81.4454	353.027	81.0709	353.027	81.0216	353.027	80.6325	353.027	80.788	353.027	80.3625	353.027	80.751	353.027	80.3101	353.027	80.8704	353.027	80.4992	353.027	81.0863	353.027	80.8708	353.027	81.3436	353.027	81.2931	353.027	81.5936	353.027	81.6395	353.027	81.7887	353.027	81.8407	353.027	81.8835
366.211	84.6378	366.211	84.5669	366.211	84.5884	366.211	84.3943	366.211	84.4205	366.211	84.1542	366.211	84.1515	366.211	83.8781	366.211	83.8088	366.211	83.5689	366.211	83.4212	366.211	83.1966	366.211	83.003	366.211	82.7297	366.211	82.5418	366.211	82.1784	366.211	82.0117	366.211	81.6093	366.211	81.4195	366.211	81.1147	366.211	80.8505	366.211	80.7704	366.211	80.45	366.211	80.6207	366.211	80.3179	366.211	80.6688	366.211	80.4286	366.211	80.853	366.211	80.68	366.211	81.0725	366.211	80.9723	366.211	81.255	366.211	81.226	366.211	81.3774	366.211	81.3843	366.211	81.4288
379.395	84.8462	379.395	84.8518	379.395	84.7475	379.395	84.7569	379.395	84.5575	379.395	84.5522	379.395	84.2744	379.395	84.2352	379.395	83.8969	379.395	83.8188	379.395	83.4331	379.395	83.3268	379.395	82.9161	379.395	82.7798	379.395	82.4123	379.395	82.1927	379.395	81.9935	379.395	81.5989	379.395	81.6813	379.395	81.0761	379.395	81.4402	379.395	80.7199	379.395	81.2455	379.395	80.581	379.395	81.1376	379.395	80.648	379.395	81.1835	379.395	80.8867	379.395	81.3908	379.395	81.2506	379.395	81.6868	379.395	81.656	379.395	81.9695	379.395	81.9911	379.395	82.1504	379.395	82.1662
392.578	84.782	392.578	84.7659	392.578	84.6697	392.578	84.6275	392.578	84.4301	392.578	84.378	392.578	84.0718	392.578	84.0294	392.578	83.6103	392.578	83.5924	392.578	83.0697	392.578	83.0768	392.578	82.4824	392.578	82.4952	392.578	81.8871	392.578	81.8723	392.578	81.3302	392.578	81.2612	392.578	80.8633	392.578	80.7527	392.578	80.5306	392.578	80.4473	392.578	80.3512	392.578	80.3904	392.578	80.3247	392.578	80.5412	392.578	80.4457	392.578	80.8119	392.578	80.6931	392.578	81.1156	392.578	81.0084	392.578	81.3816	392.578	81.3081	392.578	81.5566	392.578	81.5208	392.578	81.6071
405.762	84.6418	405.762	84.6175	405.762	84.547	405.762	84.4666	405.762	84.3362	405.762	84.1849	405.762	84.0036	405.762	83.7787	405.762	83.5376	405.762	83.2702	405.762	82.9344	405.762	82.6973	405.762	82.2179	405.762	82.0981	405.762	81.4566	405.762	81.4897	405.762	80.7599	405.762	80.8785	405.762	80.2355	405.762	80.3186	405.762	79.9304	405.762	79.9466	405.762	79.8289	405.762	79.8889	405.762	79.9028	405.762	80.1109	405.762	80.1211	405.762	80.4418	405.762	80.4114	405.762	80.729	405.762	80.6725	405.762	80.9065	405.762	80.8436	405.762	80.9764	405.762	80.9325	405.762	80.9745
420.41	85.1756	420.41	85.1596	420.41	85.0658	420.41	85.0147	420.41	84.8418	420.41	84.7442	420.41	84.5196	420.41	84.3541	420.41	84.1083	420.41	83.8521	420.41	83.6025	420.41	83.252	420.41	82.9907	420.41	82.5801	420.41	82.2788	420.41	81.8754	420.41	81.5107	420.41	81.1754	420.41	80.7684	420.41	80.5098	420.41	80.1485	420.41	79.9352	420.41	79.7347	420.41	79.5811	420.41	79.5862	420.41	79.5866	420.41	79.7186	420.41	79.9241	420.41	80.0707	420.41	80.3898	420.41	80.5093	420.41	80.794	420.41	80.8899	420.41	81.059	420.41	81.1191	420.41	81.1713
435.059	84.5909	435.059	84.592	435.059	84.4605	435.059	84.4689	435.059	84.207	435.059	84.2354	435.059	83.8454	435.059	83.9029	435.059	83.3975	435.059	83.4671	435.059	82.8886	435.059	82.905	435.059	82.338	435.059	82.1963	435.059	81.7448	435.059	81.3653	435.059	81.0968	435.059	80.5123	435.059	80.418	435.059	79.7934	435.059	79.8171	435.059	79.3387	435.059	79.4586	435.059	79.1926	435.059	79.4425	435.059	79.3317	435.059	79.7283	435.059	79.6848	435.059	80.187	435.059	80.1403	435.059	80.6709	435.059	80.5879	435.059	81.0463	435.059	80.9531	435.059	81.2242	435.059	81.1823
451.172	85.2026	451.172	85.184	451.172	85.1158	451.172	85.0532	451.172	84.9172	451.172	84.7888	451.172	84.5943	451.172	84.3744	451.172	84.1297	451.172	83.8297	451.172	83.5025	451.172	83.2166	451.172	82.7076	451.172	82.5914	451.172	81.7961	451.172	81.942	451.172	80.9023	451.172	81.2055	451.172	80.1909	451.172	80.3806	451.172	79.7304	451.172	79.6206	451.172	79.4646	451.172	79.1752	451.172	79.3545	451.172	79.1759	451.172	79.4694	451.172	79.5369	451.172	79.8513	451.172	80.07	451.172	80.3664	451.172	80.5896	451.172	80.8118	451.172	80.9612	451.172	81.0734	451.172	81.1248
465.82	84.9309	465.82	84.9279	465.82	84.8588	465.82	84.8358	465.82	84.6848	465.82	84.609	465.82	84.3609	465.82	84.1971	465.82	83.8562	465.82	83.5801	465.82	83.1833	465.82	82.8005	465.82	82.3944	465.82	81.9655	465.82	81.5513	465.82	81.1858	465.82	80.7077	465.82	80.493	465.82	79.9267	465.82	79.8605	465.82	79.3054	465.82	79.3232	465.82	78.9415	465.82	79.0188	465.82	78.8599	465.82	79.0574	465.82	79.0098	465.82	79.4027	465.82	79.3226	465.82	79.9057	465.82	79.7317	465.82	80.3844	465.82	80.1624	465.82	80.6837	465.82	80.5264	465.82	80.7262
483.398	84.7314	483.398	84.6974	483.398	84.6396	483.398	84.5669	483.398	84.4157	483.398	84.3744	483.398	84.0651	483.398	84.1214	483.398	83.5899	483.398	83.7569	483.398	82.9887	483.398	83.2054	483.398	82.2673	483.398	82.428	483.398	81.4519	483.398	81.4732	483.398	80.5921	483.398	80.4591	483.398	79.7522	483.398	79.4832	483.398	79.0091	483.398	78.5991	483.398	78.4699	483.398	77.9453	483.398	78.2725	483.398	77.7847	483.398	78.4864	483.398	78.1853	483.398	78.9891	483.398	78.8489	483.398	79.5345	483.398	79.4552	483.398	79.9316	483.398	79.8725	483.398	80.1137	483.398	80.0895
499.512	85.186	499.512	85.1839	499.512	84.991	499.512	84.9704	499.512	84.6666	499.512	84.5965	499.512	84.2775	499.512	84.1367	499.512	83.8282	499.512	83.6252	499.512	83.2598	499.512	83.0313	499.512	82.5112	499.512	82.304	499.512	81.5945	499.512	81.4437	499.512	80.6183	499.512	80.5425	499.512	79.7274	499.512	79.7569	499.512	79.0178	499.512	79.2045	499.512	78.5514	499.512	78.8951	499.512	78.4324	499.512	78.8155	499.512	78.7321	499.512	79.0005	499.512	79.3271	499.512	79.4258	499.512	79.9558	499.512	79.9317	499.512	80.4093	499.512	80.3437	499.512	80.6118	499.512	80.5792
517.09	84.99	517.09	84.9912	517.09	84.9449	517.09	84.9427	517.09	84.8137	517.09	84.7841	517.09	84.5472	517.09	84.443	517.09	84.1199	517.09	83.8913	517.09	83.5238	517.09	83.1615	517.09	82.7471	517.09	82.2981	517.09	81.7749	517.09	81.2991	517.09	80.6264	517.09	80.1402	517.09	79.3898	517.09	78.8981	517.09	78.2003	517.09	77.8564	517.09	77.212	517.09	77.3525	517.09	76.6749	517.09	77.4158	517.09	76.8954	517.09	77.8432	517.09	77.7981	517.09	78.4834	517.09	78.8803	517.09	79.195	517.09	79.7199	517.09	79.8031	517.09	80.1496	517.09	80.1571
536.133	84.642	536.133	84.5553	536.133	84.5809	536.133	84.3434	536.133	84.355	536.133	84.0362	536.133	83.9629	536.133	83.6641	536.133	83.4325	536.133	83.2375	536.133	82.8224	536.133	82.7414	536.133	82.1923	536.133	82.1599	536.133	81.5502	536.133	81.4954	536.133	80.8366	536.133	80.7496	536.133	79.9994	536.133	79.9058	536.133	79.0978	536.133	78.9821	536.133	78.3155	536.133	78.1493	536.133	77.8471	536.133	77.7412	536.133	77.7858	536.133	77.9433	536.133	78.0722	536.133	78.5171	536.133	78.5098	536.133	79.0675	536.133	78.9168	536.133	79.369	536.133	79.2231	536.133	79.3967
555.176	85.0035	555.176	85.0563	555.176	84.8381	555.176	84.9603	555.176	84.5967	555.176	84.6982	555.176	84.2825	555.176	84.2705	555.176	83.8582	555.176	83.6937	555.176	83.2854	555.176	82.9916	555.176	82.5534	555.176	82.1552	555.176	81.6554	555.176	81.1211	555.176	80.58	555.176	79.8634	555.176	79.4219	555.176	78.5712	555.176	78.4927	555.176	77.6654	555.176	78.0473	555.176	77.3607	555.176	77.9075	555.176	77.4016	555.176	77.8518	555.176	77.5895	555.176	77.9984	555.176	77.9991	555.176	78.4196	555.176	78.5784	555.176	78.8895	555.176	79.0641	555.176	79.2016	555.176	79.2762
574.219	85.2658	574.219	85.2379	574.219	85.19	574.219	85.1015	574.219	85.0016	574.219	84.8475	574.219	84.6828	574.219	84.4617	574.219	84.2122	574.219	83.9121	574.219	83.5593	574.219	83.1735	574.219	82.6943	574.219	82.2931	574.219	81.6284	574.219	81.3704	574.219	80.4418	574.219	80.3722	574.219	79.25	574.219	79.0745	574.219	78.1555	574.219	77.4272	574.219	77.2937	574.219	76.1088	574.219	76.8676	574.219	76.0663	574.219	77.0436	574.219	76.947	574.219	77.7944	574.219	77.9548	574.219	78.7907	574.219	78.807	574.219	79.5927	574.219	79.4584	574.219	79.9526	574.219	79.8703
594.727	84.6137	594.727	84.5555	594.727	84.5304	594.727	84.4111	594.727	84.3209	594.727	84.2353	594.727	84.0444	594.727	84.0109	594.727	83.7167	594.727	83.6624	594.727	83.2767	594.727	83.1039	594.727	82.6478	594.727	82.2839	594.727	81.803	594.727	81.2606	594.727	80.7321	594.727	80.2226	594.727	79.3991	594.727	79.268	594.727	77.8609	594.727	78.2395	594.727	76.4503	594.727	77.0751	594.727	75.5932	594.727	76.2174	594.727	75.4773	594.727	76.2123	594.727	76.0985	594.727	76.8792	594.727	77.1022	594.727	77.7149	594.727	78.0088	594.727	78.3879	594.727	78.5715	594.727	78.7024
615.234	84.7963	615.234	84.8019	615.234	84.6827	615.234	84.6722	615.234	84.4701	615.234	84.3991	615.234	84.1454	615.234	84.0108	615.234	83.7062	615.234	83.5332	615.234	83.1783	615.234	82.9493	615.234	82.5772	615.234	82.2338	615.234	81.8677	615.234	81.4043	615.234	80.9849	615.234	80.4673	615.234	79.9017	615.234	79.34	615.234	78.7055	615.234	77.9625	615.234	77.619	615.234	76.5386	615.234	76.8363	615.234	75.6288	615.234	76.4241	615.234	75.698	615.234	76.5549	615.234	76.4743	615.234	77.191	615.234	77.3654	615.234	77.8454	615.234	78.0122	615.234	78.2215	615.234	78.2903
637.207	84.8197	637.207	84.7966	637.207	84.7923	637.207	84.7312	637.207	84.6664	637.207	84.5844	637.207	84.3898	637.207	84.2945	637.207	83.9579	637.207	83.8362	637.207	83.4212	637.207	83.2577	637.207	82.8257	637.207	82.6195	637.207	82.154	637.207	81.9082	637.207	81.3279	637.207	81.0856	637.207	80.2881	637.207	80.138	637.207	79.1234	637.207	78.9976	637.207	78.0791	637.207	77.6681	637.207	77.3063	637.207	76.4893	637.207	76.7684	637.207	75.832	637.207	76.5856	637.207	75.828	637.207	76.874	637.207	76.4431	637.207	77.2926	637.207	77.1541	637.207	77.5154	637.207	77.5009
659.18	85.2448	659.18	85.2133	659.18	85.0803	659.18	85.0285	659.18	84.7189	659.18	84.7117	659.18	84.2468	659.18	84.2666	659.18	83.7663	659.18	83.7164	659.18	83.2534	659.18	83.0761	659.18	82.5697	659.18	82.3104	659.18	81.6684	659.18	81.3997	659.18	80.7243	659.18	80.3919	659.18	79.934	659.18	79.3524	659.18	79.2168	659.18	78.376	659.18	78.4078	659.18	77.5743	659.18	77.6756	659.18	77.0335	659.18	77.465	659.18	76.9537	659.18	77.7404	659.18	77.3702	659.18	77.9986	659.18	77.9469	659.18	78.1649	659.18	78.4044	659.18	78.4172	659.18	78.5756
682.617	85.7465	682.617	85.8295	682.617	85.5499	682.617	85.7088	682.617	85.3252	682.617	85.4273	682.617	85.0511	682.617	85.1175	682.617	84.6191	682.617	84.7597	682.617	83.9534	682.617	84.1494	682.617	83.0936	682.617	83.1639	682.617	82.0884	682.617	81.9183	682.617	80.8721	682.617	80.6681	682.617	79.4633	682.617	79.5508	682.617	78.2502	682.617	78.5183	682.617	77.6932	682.617	77.8411	682.617	77.6352	682.617	78.018	682.617	77.7368	682.617	78.6187	682.617	78.2647	682.617	79.0156	682.617	79.2681	682.617	79.2818	682.617	80.0275	682.617	79.6046	682.617	80.1833	682.617	79.9505
707.52	85.999	707.52	85.9099	707.52	85.9447	707.52	85.8252	707.52	85.6827	707.52	85.7315	707.52	85.2625	707.52	85.4182	707.52	84.7314	707.52	84.8061	707.52	84.1119	707.52	84.0873	707.52	83.4352	707.52	83.3686	707.52	82.6597	707.52	82.4641	707.52	81.5989	707.52	81.2777	707.52	80.0809	707.52	79.9747	707.52	78.2576	707.52	78.6157	707.52	76.6392	707.52	77.2232	707.52	75.6574	707.52	76.291	707.52	75.6544	707.52	76.2916	707.52	76.5486	707.52	77.0968	707.52	77.7313	707.52	78.365	707.52	78.9094	707.52	79.5247	707.52	79.8065	707.52	80.0618
732.422	85.632	732.422	85.6571	732.422	85.4847	732.422	85.5102	732.422	85.1739	732.422	85.17	732.422	84.6906	732.422	84.709	732.422	84.1682	732.422	84.1544	732.422	83.6673	732.422	83.4903	732.422	83.0147	732.422	82.83	732.422	82.12	732.422	82.1878	732.422	81.1558	732.422	81.1799	732.422	80.0588	732.422	79.5646	732.422	78.4066	732.422	77.791	732.422	76.4872	732.422	76.2863	732.422	75.9732	732.422	75.4476	732.422	76.6713	732.422	76.1097	732.422	77.2585	732.422	77.4032	732.422	78.038	732.422	78.5229	732.422	79.0887	732.422	79.4157	732.422	79.8132	732.422	79.9075
757.324	85.2156	757.324	85.2598	757.324	85.0055	757.324	85.1094	757.324	84.7448	757.324	84.8283	757.324	84.5686	757.324	84.5217	757.324	84.4047	757.324	84.1825	757.324	83.9739	757.324	83.6735	757.324	83.1329	757.324	82.9231	757.324	81.9833	757.324	82.0043	757.324	80.6847	757.324	80.9765	757.324	79.3695	757.324	79.7157	757.324	77.9673	757.324	78.1364	757.324	76.2678	757.324	76.5135	757.324	75.068	757.324	75.2836	757.324	75.6394	757.324	75.2914	757.324	77.079	757.324	76.919	757.324	78.2265	757.324	78.7038	757.324	78.8558	757.324	79.6911	757.324	79.3472	757.324	79.7885
785.156	85.0634	785.156	84.964	785.156	85.0178	785.156	84.772	785.156	84.8055	785.156	84.5093	785.156	84.4064	785.156	84.1964	785.156	83.8043	785.156	83.8565	785.156	83.1648	785.156	83.3768	785.156	82.7967	785.156	82.6178	785.156	82.631	785.156	81.8177	785.156	82.1291	785.156	81.4134	785.156	80.8491	785.156	81.048	785.156	78.7492	785.156	80.0336	785.156	76.4961	785.156	78.5408	785.156	74.9475	785.156	77.2044	785.156	74.3694	785.156	76.7087	785.156	76.0488	785.156	77.603	785.156	78.4232	785.156	78.5268	785.156	79.5732	785.156	78.9013	785.156	79.6501	785.156	79.259
811.523	85.1157	811.523	85.0526	811.523	85.0557	811.523	84.8089	811.523	84.8762	811.523	84.4875	811.523	84.4704	811.523	84.0649	811.523	83.8507	811.523	83.303	811.523	83.1041	811.523	82.3537	811.523	82.2506	811.523	81.5227	811.523	81.3598	811.523	80.4046	811.523	80.5371	811.523	78.8372	811.523	79.5695	811.523	78	811.523	77.7978	811.523	77.6293	811.523	74.6817	811.523	76.2587	811.523	71.3257	811.523	74.8517	811.523	71.3283	811.523	74.792	811.523	72.9589	811.523	75.8583	811.523	75.0649	811.523	77.4427	811.523	76.9467	811.523	78.2774	811.523	77.8968	811.523	78.2583
840.82	84.686	840.82	84.8149	840.82	84.7209	840.82	84.9442	840.82	84.7442	840.82	84.7738	840.82	84.491	840.82	84.3307	840.82	83.894	840.82	83.6914	840.82	83.1973	840.82	82.785	840.82	82.4981	840.82	81.9361	840.82	81.5887	840.82	81.2966	840.82	80.5627	840.82	80.1583	840.82	79.6476	840.82	78.1575	840.82	78.4519	840.82	76.6694	840.82	76.3476	840.82	75.8694	840.82	74.2966	840.82	73.5233	840.82	74.3112	840.82	72.3282	840.82	75.026	840.82	75.283	840.82	76.5102	840.82	76.972	840.82	78.3579	840.82	78.202	840.82	79.3648	840.82	79.2528
870.117	84.6299	870.117	84.6165	870.117	84.3499	870.117	84.3331	870.117	83.8845	870.117	83.8369	870.117	83.3906	870.117	83.1932	870.117	82.8644	870.117	82.5849	870.117	82.1215	870.117	81.8679	870.117	81.2935	870.117	80.8319	870.117	80.8762	870.117	80.198	870.117	80.7651	870.117	79.9613	870.117	80.3118	870.117	78.7221	870.117	79.0606	870.117	76.0232	870.117	76.653	870.117	73.0307	870.117	72.7088	870.117	72.2247	870.117	67.1721	870.117	72.0923	870.117	70.0923	870.117	72.7098	870.117	75.1702	870.117	75.1661	870.117	77.153	870.117	76.499	870.117	77.3132	870.117	76.9356
900.879	85.8418	900.879	85.6945	900.879	85.6567	900.879	85.3843	900.879	85.1497	900.879	84.9876	900.879	84.4429	900.879	84.3457	900.879	83.5848	900.879	83.3799	900.879	82.6543	900.879	82.384	900.879	81.7112	900.879	81.5492	900.879	80.6192	900.879	80.5762	900.879	79.2481	900.879	79.1391	900.879	77.8769	900.879	77.5261	900.879	77.0473	900.879	76.5503	900.879	76.475	900.879	75.6652	900.879	75.5879	900.879	73.4293	900.879	74.666	900.879	71.7416	900.879	74.4167	900.879	74.2509	900.879	75.5628	900.879	76.8334	900.879	77.0436	900.879	78.3183	900.879	78.0803	900.879	78.6357
933.105	84.4908	933.105	84.6668	933.105	84.1707	933.105	84.6254	933.105	83.7524	933.105	84.2282	933.105	83.4417	933.105	83.6048	933.105	83.3344	933.105	83.1564	933.105	82.9456	933.105	82.7936	933.105	82.062	933.105	82.2315	933.105	81.3717	933.105	81.715	933.105	81.2039	933.105	81.3451	933.105	80.7451	933.105	80.6656	933.105	79.2032	933.105	79.129	933.105	76.4195	933.105	76.8448	933.105	72.8548	933.105	74.6563	933.105	70.018	933.105	72.1242	933.105	70.9117	933.105	73.222	933.105	75.0343	933.105	75.9918	933.105	77.5842	933.105	77.0389	933.105	77.8288	933.105	77.3306
965.332	85.4983	965.332	85.3917	965.332	85.4903	965.332	85.1717	965.332	85.1732	965.332	84.8089	965.332	84.4669	965.332	84.1817	965.332	83.6003	965.332	83.2319	965.332	82.7843	965.332	82.2084	965.332	81.8906	965.332	81.269	965.332	80.6375	965.332	80.2428	965.332	79.4871	965.332	78.8934	965.332	79.0731	965.332	77.5913	965.332	78.1101	965.332	77.0383	965.332	76.0113	965.332	76.4923	965.332	74.1193	965.332	74.3088	965.332	73.4956	965.332	72.4425	965.332	73.8357	965.332	74.1351	965.332	75.4458	965.332	76.5661	965.332	76.9768	965.332	78.1451	965.332	77.9633	965.332	78.5737
1,000.49	86.0279	1,000.49	86.0141	1,000.49	85.5657	1,000.49	85.578	1,000.49	84.8957	1,000.49	84.8987	1,000.49	84.1266	1,000.49	84.1636	1,000.49	83.1032	1,000.49	83.2675	1,000.49	82.1029	1,000.49	82.231	1,000.49	81.4364	1,000.49	81.6179	1,000.49	80.7574	1,000.49	81.4171	1,000.49	79.6307	1,000.49	80.9709	1,000.49	78.506	1,000.49	79.8073	1,000.49	77.9931	1,000.49	78.2131	1,000.49	76.4572	1,000.49	76.0556	1,000.49	71.8584	1,000.49	72.0877	1,000.49	66.5185	1,000.49	64.5797	1,000.49	68.7819	1,000.49	67.6329	1,000.49	73.0532	1,000.49	73.2548	1,000.49	76.2387	1,000.49	76.3012	1,000.49	77.6306	1,000.49	77.5744
1,035.64	85.1904	1,035.64	85.2346	1,035.64	84.9151	1,035.64	84.768	1,035.64	84.4107	1,035.64	84.0609	1,035.64	83.4626	1,035.64	83.4332	1,035.64	82.3085	1,035.64	82.6305	1,035.64	81.2486	1,035.64	81.4731	1,035.64	80.0828	1,035.64	80.101	1,035.64	78.7325	1,035.64	78.92	1,035.64	77.5977	1,035.64	78.2616	1,035.64	77.0954	1,035.64	77.8732	1,035.64	76.6786	1,035.64	77.0478	1,035.64	75.1828	1,035.64	76.0857	1,035.64	72.4952	1,035.64	74.1639	1,035.64	69.8469	1,035.64	69.9321	1,035.64	68.9735	1,035.64	68.0297	1,035.64	70.4313	1,035.64	72.3034	1,035.64	73.0908	1,035.64	74.4431	1,035.64	74.6448	1,035.64	75.1209
1,072.27	84.7648	1,072.27	84.6979	1,072.27	84.5802	1,072.27	84.744	1,072.27	83.9532	1,072.27	84.3094	1,072.27	83.1539	1,072.27	83.0925	1,072.27	82.2368	1,072.27	82.2048	1,072.27	81.1951	1,072.27	81.7527	1,072.27	80.1008	1,072.27	80.9361	1,072.27	79.1902	1,072.27	80.3447	1,072.27	78.4916	1,072.27	79.2215	1,072.27	77.1283	1,072.27	76.7239	1,072.27	75.2358	1,072.27	75.1233	1,072.27	74.007	1,072.27	73.8891	1,072.27	70.7081	1,072.27	70.6106	1,072.27	65.5325	1,072.27	63.6221	1,072.27	60.6481	1,072.27	61.8379	1,072.27	64.9184	1,072.27	68.3364	1,072.27	71.111	1,072.27	70.5779	1,072.27	73.002	1,072.27	72.1362
1,108.89	84.5807	1,108.89	84.5249	1,108.89	84.3203	1,108.89	83.9999	1,108.89	84.0244	1,108.89	83.3601	1,108.89	83.247	1,108.89	82.5752	1,108.89	81.6855	1,108.89	81.291	1,108.89	80.2801	1,108.89	80.0809	1,108.89	79.2457	1,108.89	79.3905	1,108.89	78.0162	1,108.89	78.463	1,108.89	76.8463	1,108.89	77.8234	1,108.89	75.9962	1,108.89	77.9169	1,108.89	75.1886	1,108.89	77.1452	1,108.89	73.3469	1,108.89	75.651	1,108.89	70.6172	1,108.89	73.6555	1,108.89	65.5817	1,108.89	70.5788	1,108.89	65.5637	1,108.89	67.1747	1,108.89	68.9579	1,108.89	67.8873	1,108.89	71.3004	1,108.89	72.2355	1,108.89	73.0215	1,108.89	73.4681
1,148.44	82.9562	1,148.44	83.365	1,148.44	82.7023	1,148.44	83.2501	1,148.44	82.4795	1,148.44	82.3193	1,148.44	82	1,148.44	81.3018	1,148.44	80.9642	1,148.44	80.7375	1,148.44	79.4616	1,148.44	80.0317	1,148.44	78.6029	1,148.44	78.837	1,148.44	77.8938	1,148.44	77.6171	1,148.44	76.5345	1,148.44	77.3211	1,148.44	74.8567	1,148.44	76.8515	1,148.44	72.9955	1,148.44	75.371	1,148.44	72.8471	1,148.44	74.1196	1,148.44	72.2497	1,148.44	71.4958	1,148.44	69.5605	1,148.44	66.7781	1,148.44	67.1292	1,148.44	58.6245	1,148.44	67.8615	1,148.44	60.8068	1,148.44	68.4442	1,148.44	65.5277	1,148.44	69.9002	1,148.44	69.1595
1,189.45	82.8895	1,189.45	82.3369	1,189.45	82.7023	1,189.45	82.0125	1,189.45	82.0494	1,189.45	81.7954	1,189.45	81.3873	1,189.45	81.0551	1,189.45	80.2616	1,189.45	80.3987	1,189.45	78.8801	1,189.45	79.9249	1,189.45	77.8173	1,189.45	78.9856	1,189.45	76.723	1,189.45	77.6443	1,189.45	76.1722	1,189.45	76.2949	1,189.45	75.2857	1,189.45	75.5965	1,189.45	73.9753	1,189.45	74.8993	1,189.45	72.8344	1,189.45	72.4163	1,189.45	70.666	1,189.45	70.7721	1,189.45	62.9291	1,189.45	68.7369	1,189.45	56.28	1,189.45	65.1469	1,189.45	62.1919	1,189.45	65.9373	1,189.45	67.844	1,189.45	69.3516	1,189.45	69.1726	1,189.45	70.119
1,230.47	81.2023	1,230.47	81.3537	1,230.47	80.9539	1,230.47	80.8174	1,230.47	80.5498	1,230.47	80.0996	1,230.47	79.7353	1,230.47	79.5628	1,230.47	78.9267	1,230.47	78.7227	1,230.47	78.1162	1,230.47	78.0924	1,230.47	77.3978	1,230.47	77.8577	1,230.47	77.1058	1,230.47	77.6051	1,230.47	76.6698	1,230.47	76.845	1,230.47	75.6685	1,230.47	75.9714	1,230.47	74.1368	1,230.47	74.5527	1,230.47	73.2382	1,230.47	72.1443	1,230.47	71.1247	1,230.47	68.9683	1,230.47	66.2979	1,230.47	64.5827	1,230.47	67.2515	1,230.47	66.9739	1,230.47	69.2604	1,230.47	69.1364	1,230.47	71.024	1,230.47	69.9651	1,230.47	71.9725	1,230.47	71.4865
1,274.41	81.8984	1,274.41	81.7215	1,274.41	81.5357	1,274.41	81.3248	1,274.41	80.6127	1,274.41	80.4474	1,274.41	79.3734	1,274.41	79.3758	1,274.41	78.2262	1,274.41	78.398	1,274.41	76.7668	1,274.41	76.6856	1,274.41	75.4719	1,274.41	75.7869	1,274.41	74.1301	1,274.41	75.5432	1,274.41	73.3016	1,274.41	75.595	1,274.41	74.4745	1,274.41	76.2749	1,274.41	74.5763	1,274.41	74.9628	1,274.41	74.0288	1,274.41	70.9977	1,274.41	72.1301	1,274.41	68.2469	1,274.41	66.7096	1,274.41	63.0649	1,274.41	46.432	1,274.41	56.0581	1,274.41	66.0831	1,274.41	67.3658	1,274.41	71.274	1,274.41	72.2641	1,274.41	72.6538	1,274.41	73.1234
1,319.82	81.5943	1,319.82	81.6268	1,319.82	81.3041	1,319.82	81.326	1,319.82	80.8215	1,319.82	80.4808	1,319.82	79.861	1,319.82	79.6436	1,319.82	78.6997	1,319.82	79.1605	1,319.82	77.6651	1,319.82	77.8215	1,319.82	76.7723	1,319.82	76.1825	1,319.82	75.0874	1,319.82	74.3893	1,319.82	74.295	1,319.82	73.9892	1,319.82	73.876	1,319.82	74.5694	1,319.82	73.1851	1,319.82	74.0069	1,319.82	73.4161	1,319.82	72.7644	1,319.82	72.0386	1,319.82	71.0184	1,319.82	66.379	1,319.82	67.9149	1,319.82	55.6771	1,319.82	56.4935	1,319.82	60.322	1,319.82	61.8797	1,319.82	67.0888	1,319.82	68.433	1,319.82	69.1768	1,319.82	70.033
1,366.7	81.2902	1,366.7	81.3208	1,366.7	81.1252	1,366.7	81.0135	1,366.7	80.4772	1,366.7	79.9703	1,366.7	79.7568	1,366.7	79.423	1,366.7	78.7277	1,366.7	78.4072	1,366.7	77.5122	1,366.7	77.1871	1,366.7	75.4911	1,366.7	75.2871	1,366.7	74.5772	1,366.7	73.0572	1,366.7	73.1445	1,366.7	72.5197	1,366.7	70.4056	1,366.7	71.6127	1,366.7	71.0992	1,366.7	71.3741	1,366.7	70.8052	1,366.7	72.8452	1,366.7	69.702	1,366.7	70.9953	1,366.7	69.1021	1,366.7	66.2341	1,366.7	59.4071	1,366.7	61.312	1,366.7	58.4459	1,366.7	61.8957	1,366.7	63.3279	1,366.7	65.2656	1,366.7	66.0037	1,366.7	67.1309
1,413.57	82.4992	1,413.57	82.6937	1,413.57	82.1207	1,413.57	82.2051	1,413.57	81.6613	1,413.57	81.5319	1,413.57	80.749	1,413.57	80.2422	1,413.57	79.8025	1,413.57	78.785	1,413.57	78.2145	1,413.57	77.302	1,413.57	76.5324	1,413.57	75.6833	1,413.57	74.9671	1,413.57	74.4188	1,413.57	73.4107	1,413.57	73.7292	1,413.57	73.1934	1,413.57	73.3848	1,413.57	71.8166	1,413.57	72.8593	1,413.57	71.4292	1,413.57	71.921	1,413.57	72.4957	1,413.57	70.3075	1,413.57	69.6418	1,413.57	69.2555	1,413.57	65.527	1,413.57	62.5894	1,413.57	56.1253	1,413.57	61.3861	1,413.57	64.5383	1,413.57	68.1297	1,413.57	67.9135	1,413.57	68.4873
1,463.38	82.9102	1,463.38	82.9822	1,463.38	82.5524	1,463.38	82.616	1,463.38	81.7682	1,463.38	82.1825	1,463.38	80.7537	1,463.38	80.8225	1,463.38	78.8841	1,463.38	79.2432	1,463.38	76.9497	1,463.38	77.8333	1,463.38	75.3046	1,463.38	76.3545	1,463.38	73.8556	1,463.38	74.8562	1,463.38	73.3954	1,463.38	74.3081	1,463.38	73.4779	1,463.38	74.2272	1,463.38	73.2591	1,463.38	74.0502	1,463.38	73.4805	1,463.38	74.3637	1,463.38	73.5501	1,463.38	73.4113	1,463.38	73.0155	1,463.38	68.4278	1,463.38	67.3617	1,463.38	62.1472	1,463.38	58.158	1,463.38	62.1697	1,463.38	64.7092	1,463.38	67.0267	1,463.38	67.5529	1,463.38	68.6118
1,516.11	83.044	1,516.11	82.7944	1,516.11	82.9222	1,516.11	82.6089	1,516.11	82.2649	1,516.11	82.232	1,516.11	80.1589	1,516.11	81.0398	1,516.11	78.495	1,516.11	79.8504	1,516.11	77.4619	1,516.11	78.7601	1,516.11	75.6081	1,516.11	76.6966	1,516.11	75.6512	1,516.11	75.7105	1,516.11	74.2108	1,516.11	73.0425	1,516.11	73.2265	1,516.11	72.9126	1,516.11	72.6482	1,516.11	74.1264	1,516.11	72.1384	1,516.11	74.7525	1,516.11	73.104	1,516.11	72.6259	1,516.11	72.3447	1,516.11	71.4388	1,516.11	65.8551	1,516.11	65.0506	1,516.11	37.2298	1,516.11	50.1845	1,516.11	63.3895	1,516.11	64.8323	1,516.11	67.2441	1,516.11	68.3319
1,568.85	82.7483	1,568.85	82.9326	1,568.85	81.8824	1,568.85	82.3683	1,568.85	80.769	1,568.85	81.461	1,568.85	79.5608	1,568.85	80.486	1,568.85	77.8976	1,568.85	79.4552	1,568.85	76.1404	1,568.85	77.9906	1,568.85	75.2461	1,568.85	76.4204	1,568.85	74.5864	1,568.85	74.3537	1,568.85	72.3191	1,568.85	74.0639	1,568.85	71.5473	1,568.85	73.6801	1,568.85	71.2019	1,568.85	74.3143	1,568.85	72.6106	1,568.85	72.8928	1,568.85	70.66	1,568.85	72.5322	1,568.85	68.8129	1,568.85	70.0108	1,568.85	65.3176	1,568.85	64.0143	1,568.85	57.0261	1,568.85	62.74	1,568.85	61.4838	1,568.85	63.1759	1,568.85	66.836	1,568.85	68.1881
1,624.51	81.9444	1,624.51	81.9361	1,624.51	81.3458	1,624.51	81.4971	1,624.51	80.0426	1,624.51	80.789	1,624.51	79.2283	1,624.51	79.987	1,624.51	77.7917	1,624.51	79.3813	1,624.51	76.4109	1,624.51	77.8614	1,624.51	74.2202	1,624.51	74.6154	1,624.51	73.5115	1,624.51	74.4425	1,624.51	70.27	1,624.51	72.8364	1,624.51	67.3059	1,624.51	71.3652	1,624.51	66.9346	1,624.51	72.0595	1,624.51	69.4309	1,624.51	72.4852	1,624.51	67.1245	1,624.51	70.7942	1,624.51	71.3518	1,624.51	67.1868	1,624.51	66.3371	1,624.51	61.9667	1,624.51	56.6384	1,624.51	58.1455	1,624.51	64.114	1,624.51	69.0465	1,624.51	69.7433	1,624.51	68.3817
1,681.64	81.4103	1,681.64	81.6618	1,681.64	81.9081	1,681.64	81.3388	1,681.64	81.5718	1,681.64	80.8967	1,681.64	78.8819	1,681.64	80.1403	1,681.64	77.3826	1,681.64	77.721	1,681.64	76.2648	1,681.64	76.4833	1,681.64	74.4082	1,681.64	74.338	1,681.64	73.614	1,681.64	73.9018	1,681.64	74.096	1,681.64	71.0604	1,681.64	70.942	1,681.64	71.4578	1,681.64	70.8166	1,681.64	69.8959	1,681.64	70.8324	1,681.64	67.1252	1,681.64	70.3581	1,681.64	70.4344	1,681.64	69.7781	1,681.64	66.3363	1,681.64	69.2882	1,681.64	59.9422	1,681.64	64.4368	1,681.64	65.3183	1,681.64	61.3771	1,681.64	63.2631	1,681.64	66.3751	1,681.64	66.2644
1,741.7	83.4468	1,741.7	83.2659	1,741.7	82.8672	1,741.7	83.139	1,741.7	82.2074	1,741.7	82.1701	1,741.7	80.7184	1,741.7	81.0279	1,741.7	79.8152	1,741.7	79.0564	1,741.7	78.1735	1,741.7	77.6627	1,741.7	76.4728	1,741.7	74.5876	1,741.7	76.0432	1,741.7	72.077	1,741.7	73.5332	1,741.7	72.3615	1,741.7	73.3055	1,741.7	73.0065	1,741.7	70.7286	1,741.7	71.7533	1,741.7	72.0805	1,741.7	69.2186	1,741.7	71.9645	1,741.7	69.3691	1,741.7	71.081	1,741.7	67.7911	1,741.7	69.839	1,741.7	65.8349	1,741.7	63.5591	1,741.7	60.0128	1,741.7	67.5243	1,741.7	67.0924	1,741.7	70.3871	1,741.7	71.7892
1,803.22	85.4993	1,803.22	84.9992	1,803.22	84.5746	1,803.22	84.0945	1,803.22	83.7304	1,803.22	83.7583	1,803.22	82.8527	1,803.22	81.7292	1,803.22	80.5869	1,803.22	80.0449	1,803.22	78.6533	1,803.22	78.5717	1,803.22	77.5611	1,803.22	77.4359	1,803.22	76.6974	1,803.22	74.8954	1,803.22	75.4884	1,803.22	73.7329	1,803.22	73.5817	1,803.22	72.398	1,803.22	72.5831	1,803.22	73.0117	1,803.22	70.5414	1,803.22	72.0894	1,803.22	68.9618	1,803.22	70.9111	1,803.22	71.3765	1,803.22	69.5908	1,803.22	69.457	1,803.22	64.2153	1,803.22	57.2524	1,803.22	52.4947	1,803.22	66.3379	1,803.22	67.8635	1,803.22	69.1845	1,803.22	71.4101
1,866.21	84.7106	1,866.21	84.2087	1,866.21	84.65	1,866.21	84.1401	1,866.21	84.0232	1,866.21	83.2523	1,866.21	82.3341	1,866.21	81.0355	1,866.21	80.5295	1,866.21	79.026	1,866.21	78.4234	1,866.21	77.236	1,866.21	76.0405	1,866.21	77.1044	1,866.21	75.2117	1,866.21	75.1243	1,866.21	74.8932	1,866.21	73.6367	1,866.21	73.6205	1,866.21	73.6146	1,866.21	70.5789	1,866.21	72.8135	1,866.21	71.5885	1,866.21	70.711	1,866.21	70.1518	1,866.21	73.3291	1,866.21	71.1125	1,866.21	73.1662	1,866.21	67.7109	1,866.21	68.6058	1,866.21	63.9237	1,866.21	65.1436	1,866.21	63.7619	1,866.21	64.2158	1,866.21	69.1146	1,866.21	70.2517
1,932.13	84.1056	1,932.13	84.1195	1,932.13	84.088	1,932.13	83.6434	1,932.13	83.2546	1,932.13	82.8549	1,932.13	81.8102	1,932.13	80.98	1,932.13	81.1309	1,932.13	78.8809	1,932.13	78.8609	1,932.13	77.8083	1,932.13	77.274	1,932.13	75.0665	1,932.13	74.5061	1,932.13	73.1187	1,932.13	73.9795	1,932.13	72.0965	1,932.13	72.6499	1,932.13	70.9637	1,932.13	72.6412	1,932.13	70.491	1,932.13	70.6586	1,932.13	70.4239	1,932.13	70.2115	1,932.13	69.9147	1,932.13	70.429	1,932.13	71.9226	1,932.13	69.3048	1,932.13	65.9304	1,932.13	66.8604	1,932.13	54.3244	1,932.13	60.6136	1,932.13	64.3449	1,932.13	65.045	1,932.13	68.9402
1,999.51	84.9659	1,999.51	84.781	1,999.51	84.3258	1,999.51	84.1337	1,999.51	83.759	1,999.51	83.3508	1,999.51	82.7598	1,999.51	81.9454	1,999.51	81.7688	1,999.51	80.8313	1,999.51	79.9444	1,999.51	78.17	1,999.51	78.229	1,999.51	76.0614	1,999.51	76.114	1,999.51	73.6616	1,999.51	74.3777	1,999.51	71.0762	1,999.51	73.4026	1,999.51	69.9156	1,999.51	71.7679	1,999.51	71.1709	1,999.51	72.6939	1,999.51	70.9517	1,999.51	72.2441	1,999.51	71.0836	1,999.51	70.4439	1,999.51	71.6307	1,999.51	71.1994	1,999.51	70.5745	1,999.51	67.0262	1,999.51	60.4992	1,999.51	54.9275	1,999.51	63.3837	1,999.51	63.7555	1,999.51	66.1696
2,069.82	85.6252	2,069.82	85.2935	2,069.82	84.9463	2,069.82	84.8465	2,069.82	84.3166	2,069.82	83.7722	2,069.82	83.2993	2,069.82	82.7671	2,069.82	81.8241	2,069.82	81.5917	2,069.82	80.7024	2,069.82	80.2	2,069.82	78.5519	2,069.82	77.7833	2,069.82	77.1868	2,069.82	75.0445	2,069.82	73.7369	2,069.82	72.5611	2,069.82	74.0716	2,069.82	72.1894	2,069.82	72.1368	2,069.82	71.3874	2,069.82	72.1135	2,069.82	70.9332	2,069.82	69.9636	2,069.82	69.1487	2,069.82	72.0229	2,069.82	70.3298	2,069.82	71.292	2,069.82	71.41	2,069.82	68.556	2,069.82	62.8972	2,069.82	54.4986	2,069.82	58.8983	2,069.82	66.5024	2,069.82	67.1846
2,143.07	85.0592	2,143.07	85.0561	2,143.07	84.8774	2,143.07	84.3616	2,143.07	84.1487	2,143.07	83.4604	2,143.07	83.1019	2,143.07	82.0366	2,143.07	81.4644	2,143.07	81.0519	2,143.07	80.4499	2,143.07	79.8425	2,143.07	77.9331	2,143.07	78.0853	2,143.07	77.2283	2,143.07	76.7651	2,143.07	74.1818	2,143.07	73.4555	2,143.07	72.4931	2,143.07	72.3908	2,143.07	70.452	2,143.07	71.6885	2,143.07	68.7749	2,143.07	70.2019	2,143.07	69.4985	2,143.07	70.8655	2,143.07	71.1978	2,143.07	71.8742	2,143.07	71.3396	2,143.07	72.3212	2,143.07	67.2589	2,143.07	65.3096	2,143.07	54.0405	2,143.07	58.9405	2,143.07	65.4625	2,143.07	69.334
2,219.24	84.7628	2,219.24	84.4103	2,219.24	84.3758	2,219.24	83.9832	2,219.24	83.8741	2,219.24	83.0523	2,219.24	82.8268	2,219.24	81.6667	2,219.24	81.6777	2,219.24	80.1025	2,219.24	79.9751	2,219.24	78.1464	2,219.24	78.0103	2,219.24	77.1706	2,219.24	75.925	2,219.24	73.1476	2,219.24	74.0264	2,219.24	72.0719	2,219.24	72.938	2,219.24	70.5294	2,219.24	72.0159	2,219.24	68.9025	2,219.24	69.283	2,219.24	70.0752	2,219.24	69.5167	2,219.24	69.3353	2,219.24	70.0138	2,219.24	70.7766	2,219.24	70.733	2,219.24	70.5526	2,219.24	67.459	2,219.24	66.5381	2,219.24	59.1029	2,219.24	62.9037	2,219.24	62.0519	2,219.24	67.2588
2,296.88	85.1966	2,296.88	84.9456	2,296.88	84.8983	2,296.88	84.792	2,296.88	84.3048	2,296.88	83.6108	2,296.88	83.6999	2,296.88	82.5032	2,296.88	82.1307	2,296.88	81.1863	2,296.88	80.6175	2,296.88	78.9016	2,296.88	79.2166	2,296.88	77.0572	2,296.88	77.0558	2,296.88	75.4404	2,296.88	74.3821	2,296.88	73.5419	2,296.88	72.9752	2,296.88	72.1713	2,296.88	72.3512	2,296.88	71.5833	2,296.88	71.6134	2,296.88	66.1072	2,296.88	69.1944	2,296.88	69.9375	2,296.88	72.0215	2,296.88	70.5073	2,296.88	70.9161	2,296.88	69.0622	2,296.88	68.8469	2,296.88	66.3154	2,296.88	59.1687	2,296.88	57.0847	2,296.88	65.2804	2,296.88	63.2871
2,378.91	86.1239	2,378.91	86.0412	2,378.91	85.7809	2,378.91	85.4153	2,378.91	85.3177	2,378.91	84.9664	2,378.91	84.1132	2,378.91	83.6945	2,378.91	82.9988	2,378.91	82.0631	2,378.91	81.3043	2,378.91	80.504	2,378.91	79.4696	2,378.91	78.6	2,378.91	76.7679	2,378.91	76.4027	2,378.91	75.0649	2,378.91	74.6078	2,378.91	72.7211	2,378.91	73.4041	2,378.91	72.7132	2,378.91	71.8149	2,378.91	70.9493	2,378.91	69.3677	2,378.91	68.4372	2,378.91	69.8489	2,378.91	71.0034	2,378.91	71.3325	2,378.91	71.5598	2,378.91	72.4274	2,378.91	70.7372	2,378.91	70.025	2,378.91	60.2851	2,378.91	52.2454	2,378.91	61.6905	2,378.91	66.5313
2,462.4	85.7091	2,462.4	85.7521	2,462.4	85.7881	2,462.4	85.4718	2,462.4	85.1289	2,462.4	84.4589	2,462.4	84.4289	2,462.4	83.5578	2,462.4	82.7221	2,462.4	82.3771	2,462.4	81.6635	2,462.4	81.0725	2,462.4	79.7641	2,462.4	78.753	2,462.4	77.463	2,462.4	75.7628	2,462.4	75.1952	2,462.4	73.8562	2,462.4	72.8443	2,462.4	71.9421	2,462.4	72.2018	2,462.4	71.113	2,462.4	72.0104	2,462.4	69.9166	2,462.4	70.9751	2,462.4	69.8031	2,462.4	66.158	2,462.4	69.4647	2,462.4	69.0517	2,462.4	71.5506	2,462.4	68.7194	2,462.4	69.5898	2,462.4	61.3216	2,462.4	53.7013	2,462.4	59.1094	2,462.4	67.4827
2,548.83	85.6949	2,548.83	86.1333	2,548.83	85.9843	2,548.83	85.5728	2,548.83	85.25	2,548.83	84.4423	2,548.83	84.4176	2,548.83	83.3758	2,548.83	83.1689	2,548.83	82.4446	2,548.83	81.9426	2,548.83	81.3679	2,548.83	80.2175	2,548.83	79.798	2,548.83	78.3599	2,548.83	78.6102	2,548.83	76.2712	2,548.83	73.9243	2,548.83	73.4211	2,548.83	72.3395	2,548.83	71.576	2,548.83	70.2311	2,548.83	72.6617	2,548.83	71.0732	2,548.83	70.649	2,548.83	66.6309	2,548.83	70.299	2,548.83	68.1435	2,548.83	71.2191	2,548.83	70.2273	2,548.83	70.3322	2,548.83	66.2039	2,548.83	63.3666	2,548.83	56.9705	2,548.83	65.9367	2,548.83	66.0356
2,639.65	86.2464	2,639.65	86.4905	2,639.65	85.6027	2,639.65	85.7605	2,639.65	85.5043	2,639.65	85.381	2,639.65	84.1127	2,639.65	83.4701	2,639.65	83.2284	2,639.65	81.3345	2,639.65	81.4725	2,639.65	81.298	2,639.65	80.2847	2,639.65	79.6079	2,639.65	78.1413	2,639.65	76.1473	2,639.65	76.3	2,639.65	74.5242	2,639.65	71.8751	2,639.65	71.251	2,639.65	71.2841	2,639.65	70.2976	2,639.65	70.4929	2,639.65	72.192	2,639.65	68.3137	2,639.65	69.0368	2,639.65	65.2958	2,639.65	68.1432	2,639.65	69.3997	2,639.65	69.9257	2,639.65	69.1239	2,639.65	67.6303	2,639.65	57.839	2,639.65	58.5289	2,639.65	60.4134	2,639.65	66.2726
2,731.93	85.7496	2,731.93	85.7104	2,731.93	85.4586	2,731.93	85.4714	2,731.93	85.0642	2,731.93	84.8762	2,731.93	84.0837	2,731.93	83.7129	2,731.93	82.8493	2,731.93	82.0193	2,731.93	80.6858	2,731.93	80.2701	2,731.93	79.3698	2,731.93	78.4941	2,731.93	78.172	2,731.93	76.2661	2,731.93	75.5255	2,731.93	74.4472	2,731.93	72.6706	2,731.93	69.4492	2,731.93	71.5056	2,731.93	70.4503	2,731.93	70.3783	2,731.93	71.3914	2,731.93	67.8467	2,731.93	68.7906	2,731.93	64.9175	2,731.93	67.7959	2,731.93	69.3959	2,731.93	68.2228	2,731.93	68.079	2,731.93	66.411	2,731.93	58.6798	2,731.93	53.4829	2,731.93	62.0688	2,731.93	64.8143
2,828.61	85.8739	2,828.61	85.4998	2,828.61	85.7769	2,828.61	85.6528	2,828.61	85.1712	2,828.61	85.1676	2,828.61	84.4159	2,828.61	84.1172	2,828.61	83.4266	2,828.61	82.2459	2,828.61	81.5305	2,828.61	79.9608	2,828.61	79.2878	2,828.61	78.058	2,828.61	77.723	2,828.61	75.9658	2,828.61	75.5506	2,828.61	73.1086	2,828.61	72.9975	2,828.61	71.2749	2,828.61	71.9548	2,828.61	71.3071	2,828.61	70.975	2,828.61	71.2741	2,828.61	69.4711	2,828.61	68.4838	2,828.61	66.4105	2,828.61	67.0087	2,828.61	66.9503	2,828.61	66.7319	2,828.61	67.861	2,828.61	67.3556	2,828.61	61.4987	2,828.61	60.2953	2,828.61	57.3597	2,828.61	64.3
2,928.22	85.2171	2,928.22	85.1356	2,928.22	85.0956	2,928.22	85.1038	2,928.22	84.4755	2,928.22	84.8265	2,928.22	84.0238	2,928.22	84.1211	2,928.22	82.8339	2,928.22	82.3642	2,928.22	81.0497	2,928.22	79.3055	2,928.22	78.8129	2,928.22	77.369	2,928.22	76.8002	2,928.22	74.8367	2,928.22	74.8394	2,928.22	72.9598	2,928.22	72.1528	2,928.22	70.998	2,928.22	69.7895	2,928.22	70.3201	2,928.22	68.6678	2,928.22	69.6149	2,928.22	71.9607	2,928.22	68.994	2,928.22	65.438	2,928.22	66.0207	2,928.22	64.8757	2,928.22	67.3278	2,928.22	67.3006	2,928.22	67.266	2,928.22	56.553	2,928.22	51.5479	2,928.22	61.5696	2,928.22	66.2035
3,030.76	84.7453	3,030.76	84.5231	3,030.76	84.8197	3,030.76	84.8204	3,030.76	83.8722	3,030.76	84.3054	3,030.76	83.7726	3,030.76	83.8098	3,030.76	82.357	3,030.76	81.5775	3,030.76	80.7105	3,030.76	79.0954	3,030.76	78.0315	3,030.76	76.0045	3,030.76	76.3179	3,030.76	75.6665	3,030.76	73.6922	3,030.76	71.9588	3,030.76	71.6317	3,030.76	68.1891	3,030.76	68.9108	3,030.76	69.3916	3,030.76	69.6507	3,030.76	69.1465	3,030.76	71.376	3,030.76	68.7885	3,030.76	66.9022	3,030.76	65.2132	3,030.76	66.5111	3,030.76	65.0792	3,030.76	67.2877	3,030.76	64.1548	3,030.76	62.7776	3,030.76	63.8196	3,030.76	61.3502	3,030.76	54.7498
3,137.7	84.8752	3,137.7	84.5523	3,137.7	85.3571	3,137.7	84.4818	3,137.7	84.649	3,137.7	84.3274	3,137.7	84.2272	3,137.7	83.4591	3,137.7	83.0325	3,137.7	83.3181	3,137.7	81.2148	3,137.7	79.911	3,137.7	78.0192	3,137.7	77.4244	3,137.7	75.4241	3,137.7	76.1833	3,137.7	73.84	3,137.7	73.5576	3,137.7	72.6608	3,137.7	70.4848	3,137.7	65.3754	3,137.7	65.5086	3,137.7	66.9286	3,137.7	69.1499	3,137.7	70.323	3,137.7	68.0718	3,137.7	69.4643	3,137.7	66.6359	3,137.7	63.9113	3,137.7	68.2597	3,137.7	68.4817	3,137.7	66.3608	3,137.7	64.1172	3,137.7	57.8163	3,137.7	51.9987	3,137.7	58.3819
3,249.02	85.2205	3,249.02	85.375	3,249.02	84.9336	3,249.02	84.6444	3,249.02	85.0538	3,249.02	84.1766	3,249.02	83.6677	3,249.02	83.3558	3,249.02	82.6347	3,249.02	82.4191	3,249.02	80.2746	3,249.02	80.2953	3,249.02	77.6409	3,249.02	78.5653	3,249.02	74.9604	3,249.02	74.9423	3,249.02	72.0703	3,249.02	72.8006	3,249.02	71.2181	3,249.02	69.5572	3,249.02	67.4019	3,249.02	65.1794	3,249.02	65.4294	3,249.02	68.0936	3,249.02	68.2995	3,249.02	69.2658	3,249.02	68.6709	3,249.02	66.1546	3,249.02	62.4066	3,249.02	66.0525	3,249.02	68.4084	3,249.02	66.5135	3,249.02	65.3414	3,249.02	61.2703	3,249.02	50.5375	3,249.02	58.7636
3,363.28	85.8166	3,363.28	85.8187	3,363.28	85.2409	3,363.28	84.9598	3,363.28	84.9166	3,363.28	84.383	3,363.28	83.3918	3,363.28	83.3367	3,363.28	82.1433	3,363.28	81.2758	3,363.28	79.505	3,363.28	79.4596	3,363.28	76.9159	3,363.28	77.223	3,363.28	73.8609	3,363.28	73.8483	3,363.28	72.2409	3,363.28	72.032	3,363.28	71.4544	3,363.28	70.383	3,363.28	68.9124	3,363.28	66.157	3,363.28	65.8521	3,363.28	64.0263	3,363.28	66.1628	3,363.28	66.5296	3,363.28	68.6723	3,363.28	63.7508	3,363.28	61.2199	3,363.28	62.2255	3,363.28	66.0594	3,363.28	63.418	3,363.28	63.3436	3,363.28	42.4614	3,363.28	57.066	3,363.28	57.4283
3,481.93	86.1694	3,481.93	86.2309	3,481.93	85.4634	3,481.93	85.5547	3,481.93	85.2944	3,481.93	84.6248	3,481.93	83.6464	3,481.93	83.7524	3,481.93	81.6407	3,481.93	81.2726	3,481.93	79.347	3,481.93	79.1079	3,481.93	76.8345	3,481.93	76.8799	3,481.93	74.4362	3,481.93	73.9319	3,481.93	72.6342	3,481.93	72.9187	3,481.93	70.1734	3,481.93	70.1365	3,481.93	68.5159	3,481.93	65.9013	3,481.93	63.8219	3,481.93	61.3477	3,481.93	64.3032	3,481.93	67.1961	3,481.93	68.8642	3,481.93	65.5405	3,481.93	62.3095	3,481.93	61.2994	3,481.93	64.9195	3,481.93	62.1063	3,481.93	62.7453	3,481.93	38.0644	3,481.93	53.8733	3,481.93	53.4602
3,604.98	86.3713	3,604.98	86.0963	3,604.98	86.279	3,604.98	85.5484	3,604.98	84.7104	3,604.98	84.412	3,604.98	83.0712	3,604.98	82.6036	3,604.98	80.8046	3,604.98	79.9561	3,604.98	79.2758	3,604.98	78.3269	3,604.98	76.8411	3,604.98	75.6327	3,604.98	74.6249	3,604.98	73.4746	3,604.98	71.9396	3,604.98	71.9464	3,604.98	69.6228	3,604.98	70.0821	3,604.98	68.2315	3,604.98	67.7919	3,604.98	63.8088	3,604.98	60.0548	3,604.98	61.7867	3,604.98	67.8839	3,604.98	64.5195	3,604.98	66.8579	3,604.98	63.4196	3,604.98	60.6239	3,604.98	64.9957	3,604.98	63.4714	3,604.98	62.9473	3,604.98	59.2489	3,604.98	54.6371	3,604.98	39.3419
3,732.42	86.7596	3,732.42	86.606	3,732.42	86.384	3,732.42	85.7419	3,732.42	85.0362	3,732.42	84.72	3,732.42	83.5926	3,732.42	83.0521	3,732.42	81.4932	3,732.42	80.9638	3,732.42	79.4253	3,732.42	78.3943	3,732.42	76.8005	3,732.42	74.8231	3,732.42	73.8718	3,732.42	74.0724	3,732.42	73.0275	3,732.42	72.1429	3,732.42	70.5608	3,732.42	70.1605	3,732.42	69.2072	3,732.42	66.8029	3,732.42	66.6239	3,732.42	62.3642	3,732.42	62.147	3,732.42	66.4975	3,732.42	66.3636	3,732.42	66.5452	3,732.42	66.8325	3,732.42	59.6588	3,732.42	61.0381	3,732.42	61.5049	3,732.42	62.7048	3,732.42	59.1227	3,732.42	56.3836	3,732.42	46.3243
3,864.26	86.3249	3,864.26	86.2929	3,864.26	86.6037	3,864.26	85.6716	3,864.26	85.1748	3,864.26	85.0915	3,864.26	83.3128	3,864.26	82.7625	3,864.26	81.6409	3,864.26	81.5868	3,864.26	80.1228	3,864.26	78.8479	3,864.26	76.9135	3,864.26	76.6634	3,864.26	74.4209	3,864.26	74.7222	3,864.26	71.7365	3,864.26	72.6049	3,864.26	70.0489	3,864.26	70.3645	3,864.26	68.3675	3,864.26	66.2414	3,864.26	67.694	3,864.26	65.797	3,864.26	60.4415	3,864.26	56.8197	3,864.26	65.934	3,864.26	65.8386	3,864.26	66.4543	3,864.26	64.1981	3,864.26	57.2518	3,864.26	64.1978	3,864.26	61.9069	3,864.26	61.0415	3,864.26	57.6709	3,864.26	56.8056
4,000.49	86.0825	4,000.49	85.7882	4,000.49	86.2867	4,000.49	85.6284	4,000.49	85.1369	4,000.49	84.8274	4,000.49	83.8384	4,000.49	82.7035	4,000.49	81.858	4,000.49	81.567	4,000.49	79.4088	4,000.49	79.0369	4,000.49	77.0773	4,000.49	76.8418	4,000.49	74.2565	4,000.49	73.4147	4,000.49	72.6912	4,000.49	72.2622	4,000.49	70.4836	4,000.49	68.8793	4,000.49	66.754	4,000.49	68.1014	4,000.49	65.0132	4,000.49	66.4011	4,000.49	64.1293	4,000.49	61.6412	4,000.49	65.4902	4,000.49	64.5931	4,000.49	64.8639	4,000.49	63.7801	4,000.49	61.6589	4,000.49	64.6831	4,000.49	59.1416	4,000.49	58.7115	4,000.49	57.5448	4,000.49	51.4902
4,141.11	85.6937	4,141.11	85.6009	4,141.11	85.3289	4,141.11	85.7614	4,141.11	85.4104	4,141.11	84.6411	4,141.11	83.974	4,141.11	83.7422	4,141.11	82.6251	4,141.11	81.7819	4,141.11	79.8344	4,141.11	79.8883	4,141.11	77.2378	4,141.11	77.3092	4,141.11	75.3723	4,141.11	73.524	4,141.11	70.887	4,141.11	72.5597	4,141.11	70.7969	4,141.11	70.9246	4,141.11	68.9394	4,141.11	68.653	4,141.11	65.9128	4,141.11	64.2224	4,141.11	64.9373	4,141.11	61.1226	4,141.11	62.8268	4,141.11	63.7896	4,141.11	62.7177	4,141.11	62.7933	4,141.11	62.0169	4,141.11	63.7027	4,141.11	61.2321	4,141.11	61.8307	4,141.11	54.0993	4,141.11	53.6804
4,287.6	85.2428	4,287.6	86.382	4,287.6	84.9244	4,287.6	85.7851	4,287.6	85.5144	4,287.6	85.5512	4,287.6	84.4188	4,287.6	84.9809	4,287.6	81.9507	4,287.6	81.7526	4,287.6	79.2162	4,287.6	79.3285	4,287.6	77.384	4,287.6	76.6221	4,287.6	74.7696	4,287.6	73.84	4,287.6	72.9968	4,287.6	70.6279	4,287.6	71.1838	4,287.6	70.9577	4,287.6	70.4343	4,287.6	68.7248	4,287.6	68.2472	4,287.6	65.8231	4,287.6	64.2656	4,287.6	58.3666	4,287.6	64.0952	4,287.6	59.9931	4,287.6	66.0852	4,287.6	63.1213	4,287.6	61.4869	4,287.6	63.7287	4,287.6	62.6087	4,287.6	63.58	4,287.6	64.4828	4,287.6	59.7012
4,438.48	85.1075	4,438.48	85.1618	4,438.48	85.4495	4,438.48	85.5727	4,438.48	84.9463	4,438.48	85.3435	4,438.48	84.6304	4,438.48	83.8917	4,438.48	81.6607	4,438.48	81.22	4,438.48	78.1975	4,438.48	78.494	4,438.48	77.9427	4,438.48	76.2238	4,438.48	75.869	4,438.48	75.2515	4,438.48	71.439	4,438.48	69.6102	4,438.48	69.9392	4,438.48	69.6996	4,438.48	69.7397	4,438.48	67.8988	4,438.48	66.3989	4,438.48	67.0942	4,438.48	66.6353	4,438.48	62.4049	4,438.48	63.1737	4,438.48	62.9032	4,438.48	63.9034	4,438.48	60.7474	4,438.48	59.6952	4,438.48	62.7781	4,438.48	59.6644	4,438.48	60.2056	4,438.48	63.8168	4,438.48	59.3158
4,595.21	86.8333	4,595.21	86.1832	4,595.21	86.7883	4,595.21	87.7666	4,595.21	86.0247	4,595.21	86.3494	4,595.21	84.5611	4,595.21	83.5312	4,595.21	82.8321	4,595.21	81.3351	4,595.21	80.8112	4,595.21	79.6179	4,595.21	78.0349	4,595.21	77.9563	4,595.21	76.1099	4,595.21	76.1802	4,595.21	73.8624	4,595.21	68.3562	4,595.21	70.3771	4,595.21	66.7339	4,595.21	69.882	4,595.21	69.8564	4,595.21	67.6228	4,595.21	66.9411	4,595.21	66.4498	4,595.21	67.1871	4,595.21	55.5919	4,595.21	61.5328	4,595.21	61.0893	4,595.21	65.8927	4,595.21	60.7442	4,595.21	64.2037	4,595.21	61.954	4,595.21	61.2714	4,595.21	61.1279	4,595.21	63.1834
4,756.35	85.8414	4,756.35	86.2197	4,756.35	85.373	4,756.35	85.5333	4,756.35	85.6328	4,756.35	84.664	4,756.35	83.7516	4,756.35	82.6276	4,756.35	83.1955	4,756.35	79.8248	4,756.35	81.6483	4,756.35	78.7491	4,756.35	78.5343	4,756.35	77.1653	4,756.35	74.8722	4,756.35	72.4488	4,756.35	72.5649	4,756.35	71.6953	4,756.35	69.8778	4,756.35	68.7699	4,756.35	69.9842	4,756.35	67.8324	4,756.35	66.1142	4,756.35	66.179	4,756.35	66.7158	4,756.35	66.6539	4,756.35	61.7514	4,756.35	63.358	4,756.35	63.1765	4,756.35	64.1252	4,756.35	57.7838	4,756.35	63.2752	4,756.35	65.3343	4,756.35	59.1112	4,756.35	62.529	4,756.35	61.7693
4,924.8	86.574	4,924.8	87.2248	4,924.8	87.2537	4,924.8	86.1792	4,924.8	86.5403	4,924.8	86.0624	4,924.8	85.5175	4,924.8	85.3778	4,924.8	83.5735	4,924.8	83.6917	4,924.8	80.9719	4,924.8	80.4352	4,924.8	78.1251	4,924.8	76.6909	4,924.8	75.3437	4,924.8	75.0619	4,924.8	73.5042	4,924.8	72.7781	4,924.8	72.1011	4,924.8	73.0671	4,924.8	69.348	4,924.8	68.7868	4,924.8	68.0588	4,924.8	67.2036	4,924.8	62.4282	4,924.8	64.483	4,924.8	65.1355	4,924.8	64.6426	4,924.8	63.3489	4,924.8	59.71	4,924.8	52.6993	4,924.8	62.0545	4,924.8	65.5588	4,924.8	56.2143	4,924.8	65.5869	4,924.8	63.0401
5,097.66	87.1245	5,097.66	86.5216	5,097.66	87.9273	5,097.66	87.3433	5,097.66	86.3014	5,097.66	86.0509	5,097.66	85.6705	5,097.66	85.1891	5,097.66	83.1692	5,097.66	83.3468	5,097.66	79.9848	5,097.66	79.7448	5,097.66	77.5766	5,097.66	74.5567	5,097.66	75.2371	5,097.66	74.9169	5,097.66	73.462	5,097.66	70.4356	5,097.66	70.4615	5,097.66	69.7189	5,097.66	68.3308	5,097.66	68.8462	5,097.66	66.52	5,097.66	67.2982	5,097.66	65.1593	5,097.66	69.2378	5,097.66	65.9884	5,097.66	65.5724	5,097.66	59.8339	5,097.66	63.1005	5,097.66	59.0463	5,097.66	60.724	5,097.66	64.9799	5,097.66	56.8782	5,097.66	61.6974	5,097.66	62.9209
5,277.83	87.2952	5,277.83	87.0014	5,277.83	87.0154	5,277.83	87.8266	5,277.83	86.4489	5,277.83	86.9014	5,277.83	84.8549	5,277.83	85.6034	5,277.83	83.4981	5,277.83	83.1591	5,277.83	81.7285	5,277.83	81.0186	5,277.83	77.5557	5,277.83	79.052	5,277.83	73.151	5,277.83	76.2422	5,277.83	74.5554	5,277.83	74.8507	5,277.83	69.3948	5,277.83	65.935	5,277.83	68.1638	5,277.83	68.0882	5,277.83	69.6734	5,277.83	68.105	5,277.83	62.0036	5,277.83	68.0711	5,277.83	63.321	5,277.83	67.6275	5,277.83	61.606	5,277.83	67.1799	5,277.83	58.1516	5,277.83	59.9259	5,277.83	63.3505	5,277.83	63.5276	5,277.83	58.5741	5,277.83	65.9165
5,463.87	87.4899	5,463.87	87.5421	5,463.87	86.7512	5,463.87	86.6963	5,463.87	86.7053	5,463.87	86.8491	5,463.87	85.3767	5,463.87	84.4073	5,463.87	83.9082	5,463.87	82.4739	5,463.87	81.6786	5,463.87	81.0331	5,463.87	78.8072	5,463.87	79.406	5,463.87	76.1783	5,463.87	74.7454	5,463.87	69.215	5,463.87	74.67	5,463.87	68.996	5,463.87	71.0304	5,463.87	67.9417	5,463.87	65.0635	5,463.87	67.5109	5,463.87	61.9239	5,463.87	66.4017	5,463.87	63.497	5,463.87	68.2699	5,463.87	66.1704	5,463.87	64.936	5,463.87	62.5189	5,463.87	64.0951	5,463.87	57.7202	5,463.87	55.1138	5,463.87	62.7765	5,463.87	62.1386	5,463.87	64.4301
5,657.23	87.2111	5,657.23	87.1925	5,657.23	87.117	5,657.23	86.063	5,657.23	85.9366	5,657.23	85.3883	5,657.23	85.9118	5,657.23	84.2141	5,657.23	83.3938	5,657.23	81.9543	5,657.23	80.5504	5,657.23	79.4945	5,657.23	79.3798	5,657.23	76.9106	5,657.23	76.7979	5,657.23	75.2345	5,657.23	69.9783	5,657.23	72.3162	5,657.23	70.1908	5,657.23	72.5415	5,657.23	69.373	5,657.23	63.3871	5,657.23	64.8306	5,657.23	65.3665	5,657.23	64.4094	5,657.23	63.138	5,657.23	64.5873	5,657.23	62.9611	5,657.23	64.2802	5,657.23	65.606	5,657.23	65.9121	5,657.23	59.5119	5,657.23	61.9689	5,657.23	57.5873	5,657.23	64.2111	5,657.23	63.0546
5,856.45	87.6078	5,856.45	87.6283	5,856.45	87.4468	5,856.45	86.908	5,856.45	86.6557	5,856.45	86.4169	5,856.45	85.1422	5,856.45	85.8136	5,856.45	83.5695	5,856.45	83.2268	5,856.45	80.9053	5,856.45	80.9905	5,856.45	77.7617	5,856.45	76.5402	5,856.45	74.2618	5,856.45	76.3139	5,856.45	74.114	5,856.45	71.8877	5,856.45	71.3261	5,856.45	69.1999	5,856.45	68.8808	5,856.45	66.3457	5,856.45	67.8384	5,856.45	68.0648	5,856.45	64.8699	5,856.45	58.9736	5,856.45	61.4822	5,856.45	63.6067	5,856.45	64.8797	5,856.45	67.5171	5,856.45	67.1211	5,856.45	60.7957	5,856.45	62.4734	5,856.45	60.4918	5,856.45	62.9149	5,856.45	62.473
6,062.99	87.5453	6,062.99	87.2979	6,062.99	86.5127	6,062.99	86.768	6,062.99	86.8239	6,062.99	86.1237	6,062.99	84.262	6,062.99	85.0157	6,062.99	83.468	6,062.99	82.92	6,062.99	80.8889	6,062.99	80.8679	6,062.99	77.6281	6,062.99	79.5517	6,062.99	76.9319	6,062.99	73.7815	6,062.99	72.2566	6,062.99	74.2601	6,062.99	71.0421	6,062.99	66.693	6,062.99	66.6136	6,062.99	68.5163	6,062.99	67.3701	6,062.99	65.5098	6,062.99	64.8244	6,062.99	58.6527	6,062.99	61.9822	6,062.99	62.8044	6,062.99	66.3422	6,062.99	63.5151	6,062.99	63.5732	6,062.99	53.9556	6,062.99	45.485	6,062.99	62.5267	6,062.99	59.905	6,062.99	62.599
6,276.86	87.3822	6,276.86	87.1158	6,276.86	87.2796	6,276.86	86.5321	6,276.86	86.4791	6,276.86	86.2375	6,276.86	85.846	6,276.86	84.8376	6,276.86	83.3195	6,276.86	83.1184	6,276.86	80.2078	6,276.86	80.2594	6,276.86	79.039	6,276.86	80.1118	6,276.86	77.1588	6,276.86	74.2755	6,276.86	74.835	6,276.86	73.2933	6,276.86	72.8379	6,276.86	72.0433	6,276.86	69.3853	6,276.86	68.4745	6,276.86	67.2432	6,276.86	66.9939	6,276.86	65.9206	6,276.86	63.2097	6,276.86	67.214	6,276.86	62.9549	6,276.86	68.7744	6,276.86	62.7758	6,276.86	66.0606	6,276.86	59.3016	6,276.86	62.96	6,276.86	58.094	6,276.86	52.8151	6,276.86	60.8981
6,498.05	87.0161	6,498.05	86.9745	6,498.05	87.0959	6,498.05	86.8122	6,498.05	85.7534	6,498.05	86.1523	6,498.05	85.8114	6,498.05	85.2888	6,498.05	84.2856	6,498.05	82.7261	6,498.05	81.1693	6,498.05	80.6459	6,498.05	78.3222	6,498.05	75.9977	6,498.05	73.8814	6,498.05	75.866	6,498.05	75.5766	6,498.05	72.5399	6,498.05	72.1082	6,498.05	72.8747	6,498.05	68.2807	6,498.05	71.6232	6,498.05	68.0702	6,498.05	63.1018	6,498.05	63.9559	6,498.05	66.4429	6,498.05	69.648	6,498.05	67.6692	6,498.05	67.1064	6,498.05	66.7289	6,498.05	65.94	6,498.05	60.1906	6,498.05	62.2946	6,498.05	61.7843	6,498.05	57.024	6,498.05	59.9494
6,726.56	87.3699	6,726.56	87.3219	6,726.56	86.1043	6,726.56	86.9729	6,726.56	86.4066	6,726.56	85.8068	6,726.56	84.6546	6,726.56	85.2897	6,726.56	83.9536	6,726.56	82.3704	6,726.56	82.3304	6,726.56	81.3453	6,726.56	79.465	6,726.56	77.5231	6,726.56	76.7734	6,726.56	77.1461	6,726.56	74.4201	6,726.56	73.3857	6,726.56	71.1839	6,726.56	72.3718	6,726.56	70.0715	6,726.56	71.1945	6,726.56	67.2723	6,726.56	63.3996	6,726.56	63.9691	6,726.56	65.8219	6,726.56	66.9756	6,726.56	63.2693	6,726.56	65.9997	6,726.56	65.3292	6,726.56	61.3951	6,726.56	62.301	6,726.56	53.1451	6,726.56	59.0333	6,726.56	55.6159	6,726.56	60.042
6,963.87	87.6067	6,963.87	87.6467	6,963.87	87.4855	6,963.87	86.8947	6,963.87	86.1164	6,963.87	86.519	6,963.87	85.6438	6,963.87	85.1769	6,963.87	82.6275	6,963.87	84.3939	6,963.87	81.6566	6,963.87	81.2863	6,963.87	80.4262	6,963.87	79.7773	6,963.87	76.6704	6,963.87	76.9672	6,963.87	75.1477	6,963.87	72.8727	6,963.87	68.0862	6,963.87	70.4892	6,963.87	69.6049	6,963.87	68.1165	6,963.87	64.6514	6,963.87	64.2889	6,963.87	65.79	6,963.87	64.9454	6,963.87	65.4952	6,963.87	62.0689	6,963.87	64.9995	6,963.87	66.1298	6,963.87	61.6816	6,963.87	65.2121	6,963.87	56.5379	6,963.87	58.2766	6,963.87	56.0491	6,963.87	60.0887
7,209.96	88.3372	7,209.96	87.9927	7,209.96	87.3584	7,209.96	87.2705	7,209.96	86.3061	7,209.96	86.5328	7,209.96	85.3916	7,209.96	84.9817	7,209.96	83.8605	7,209.96	82.7123	7,209.96	82.0852	7,209.96	81.4308	7,209.96	79.5404	7,209.96	78.62	7,209.96	75.8981	7,209.96	76.2442	7,209.96	69.6902	7,209.96	72.1023	7,209.96	69.201	7,209.96	68.7182	7,209.96	65.5327	7,209.96	66.7286	7,209.96	65.668	7,209.96	67.2148	7,209.96	66.0665	7,209.96	64.276	7,209.96	62.1347	7,209.96	61.2933	7,209.96	63.2955	7,209.96	65.0909	7,209.96	64.1034	7,209.96	65.3626	7,209.96	59.059	7,209.96	61.0916	7,209.96	58.9694	7,209.96	57.1107
7,464.84	88.5785	7,464.84	87.9664	7,464.84	86.8449	7,464.84	87.168	7,464.84	86.9247	7,464.84	85.6692	7,464.84	84.3132	7,464.84	84.6746	7,464.84	84.2712	7,464.84	81.9288	7,464.84	82.6407	7,464.84	82.3838	7,464.84	78.9393	7,464.84	78.2181	7,464.84	76.303	7,464.84	72.8217	7,464.84	69.3621	7,464.84	72.0327	7,464.84	68.213	7,464.84	64.0955	7,464.84	64.4334	7,464.84	65.7188	7,464.84	64.0374	7,464.84	66.5852	7,464.84	62.9992	7,464.84	65.3608	7,464.84	60.0669	7,464.84	62.541	7,464.84	59.1439	7,464.84	58.7465	7,464.84	56.3876	7,464.84	65.0432	7,464.84	55.7799	7,464.84	59.7928	7,464.84	54.4062	7,464.84	57.1394
7,727.05	88.2731	7,727.05	88.0879	7,727.05	87.6643	7,727.05	86.5402	7,727.05	86.2589	7,727.05	85.9791	7,727.05	84.9517	7,727.05	84.4771	7,727.05	84.134	7,727.05	84.3171	7,727.05	81.9098	7,727.05	80.66	7,727.05	77.9079	7,727.05	77.0902	7,727.05	75.3262	7,727.05	73.5761	7,727.05	71.9031	7,727.05	71.6555	7,727.05	69.6759	7,727.05	69.1746	7,727.05	66.0195	7,727.05	66.5339	7,727.05	62.9681	7,727.05	66.6238	7,727.05	64.1321	7,727.05	65.1797	7,727.05	54.3479	7,727.05	63.249	7,727.05	60.8843	7,727.05	60.113	7,727.05	65.6087	7,727.05	66.082	7,727.05	61.8636	7,727.05	55.1941	7,727.05	58.3802	7,727.05	59.437
7,999.51	88.0762	7,999.51	88.1487	7,999.51	87.5255	7,999.51	87.2169	7,999.51	86.2037	7,999.51	85.3259	7,999.51	85.2273	7,999.51	84.8276	7,999.51	84.5606	7,999.51	83.9549	7,999.51	81.4363	7,999.51	80.2065	7,999.51	78.1962	7,999.51	76.0806	7,999.51	74.1608	7,999.51	73.4751	7,999.51	72.7631	7,999.51	72.2074	7,999.51	70.1451	7,999.51	70.4187	7,999.51	68.1767	7,999.51	65.1642	7,999.51	67.3474	7,999.51	64.6378	7,999.51	62.1401	7,999.51	64.0103	7,999.51	61.8112	7,999.51	64.4696	7,999.51	60.8332	7,999.51	58.3029	7,999.51	64.0802	7,999.51	64.5844	7,999.51	58.9819	7,999.51	52.6162	7,999.51	57.6996	7,999.51	57.3046
8,282.23	88.2264	8,282.23	88.2868	8,282.23	87.2736	8,282.23	86.9337	8,282.23	85.3806	8,282.23	85.4714	8,282.23	84.3833	8,282.23	84.7384	8,282.23	84.1968	8,282.23	82.9579	8,282.23	80.9414	8,282.23	80.6609	8,282.23	76.7727	8,282.23	76.5765	8,282.23	74.7247	8,282.23	73.632	8,282.23	72.2384	8,282.23	70.5923	8,282.23	69.5777	8,282.23	69.0889	8,282.23	66.9615	8,282.23	63.5532	8,282.23	66.6245	8,282.23	60.8087	8,282.23	64.2816	8,282.23	63.8165	8,282.23	57.1577	8,282.23	66.723	8,282.23	60.4158	8,282.23	63.3132	8,282.23	61.368	8,282.23	62.2711	8,282.23	51.9562	8,282.23	48.6166	8,282.23	59.0754	8,282.23	53.7063
8,573.73	88.0005	8,573.73	87.953	8,573.73	87.1331	8,573.73	87.2876	8,573.73	84.8029	8,573.73	84.9211	8,573.73	84.6807	8,573.73	84.5013	8,573.73	82.9206	8,573.73	82.8321	8,573.73	79.4837	8,573.73	79.285	8,573.73	76.3919	8,573.73	76.6337	8,573.73	73.0818	8,573.73	73.4515	8,573.73	73.6921	8,573.73	71.4088	8,573.73	67.5968	8,573.73	69.6254	8,573.73	68.1743	8,573.73	64.1843	8,573.73	63.904	8,573.73	56.6995	8,573.73	62.9546	8,573.73	52.7834	8,573.73	61.277	8,573.73	62.8452	8,573.73	62.193	8,573.73	63.6527	8,573.73	62.493	8,573.73	59.8415	8,573.73	56.3251	8,573.73	54.2433	8,573.73	57.3752	8,573.73	48.207
8,876.95	88.0293	8,876.95	87.7429	8,876.95	86.54	8,876.95	86.6029	8,876.95	84.3049	8,876.95	84.6573	8,876.95	84.854	8,876.95	84.7009	8,876.95	83.0536	8,876.95	81.4564	8,876.95	79.9288	8,876.95	79.0266	8,876.95	77.8283	8,876.95	76.1269	8,876.95	76.1517	8,876.95	73.2454	8,876.95	71.5412	8,876.95	71.1679	8,876.95	68.8802	8,876.95	68.4541	8,876.95	65.8559	8,876.95	66.0439	8,876.95	65.0826	8,876.95	59.1483	8,876.95	61.3021	8,876.95	63.7148	8,876.95	62.5581	8,876.95	60.1562	8,876.95	64.1362	8,876.95	64.7038	8,876.95	54.1384	8,876.95	58.012	8,876.95	59.0134	8,876.95	61.1499	8,876.95	49.7649	8,876.95	47.0724
9,188.96	87.4928	9,188.96	88.0204	9,188.96	86.3898	9,188.96	86.4785	9,188.96	85.6438	9,188.96	84.7463	9,188.96	84.5009	9,188.96	84.3839	9,188.96	81.8602	9,188.96	80.9305	9,188.96	79.4405	9,188.96	79.0122	9,188.96	78.5053	9,188.96	77.6586	9,188.96	75.4997	9,188.96	74.0161	9,188.96	72.0272	9,188.96	70.5195	9,188.96	69.2322	9,188.96	68.8907	9,188.96	65.0354	9,188.96	64.6401	9,188.96	64.5751	9,188.96	61.7674	9,188.96	63.4103	9,188.96	65.0135	9,188.96	57.8031	9,188.96	57.5502	9,188.96	60.1768	9,188.96	63.0052	9,188.96	56.4668	9,188.96	58.626	9,188.96	57.6979	9,188.96	63.2697	9,188.96	59.3173	9,188.96	49.2583
9,514.16	87.8157	9,514.16	87.7984	9,514.16	86.5903	9,514.16	86.196	9,514.16	85.6805	9,514.16	85.2041	9,514.16	84.6861	9,514.16	83.6015	9,514.16	82.041	9,514.16	80.6515	9,514.16	80.1793	9,514.16	78.8117	9,514.16	78.3493	9,514.16	76.2516	9,514.16	74.5548	9,514.16	72.2349	9,514.16	69.041	9,514.16	69.4122	9,514.16	67.0596	9,514.16	65.4907	9,514.16	62.1666	9,514.16	65.8491	9,514.16	62.7982	9,514.16	59.7424	9,514.16	62.9458	9,514.16	60.834	9,514.16	58.3927	9,514.16	56.3309	9,514.16	55.2596	9,514.16	57.9861	9,514.16	58.0918	9,514.16	56.7249	9,514.16	54.321	9,514.16	61.7611	9,514.16	56.4088	9,514.16	49.0684
9,849.61	86.727	9,849.61	87.1987	9,849.61	86.1534	9,849.61	86.157	9,849.61	85.5971	9,849.61	85.3138	9,849.61	83.5022	9,849.61	83.5272	9,849.61	81.0265	9,849.61	80.3591	9,849.61	80.2619	9,849.61	79.3585	9,849.61	76.6924	9,849.61	75.8363	9,849.61	72.6961	9,849.61	71.0729	9,849.61	67.5493	9,849.61	67.5829	9,849.61	67.1338	9,849.61	61.8386	9,849.61	60.873	9,849.61	63.5548	9,849.61	61.6589	9,849.61	56.8721	9,849.61	59.3112	9,849.61	59.243	9,849.61	58.4534	9,849.61	59.1568	9,849.61	59.0079	9,849.61	57.013	9,849.61	59.869	9,849.61	55.853	9,849.61	49.576	9,849.61	57.3856	9,849.61	49.1514	9,849.61	50.7511
10,196.8	86.4965	10,196.8	86.4531	10,196.8	86.1988	10,196.8	86.1882	10,196.8	85.4453	10,196.8	85.5294	10,196.8	83.096	10,196.8	83.139	10,196.8	81.3434	10,196.8	81.0225	10,196.8	79.8699	10,196.8	78.7202	10,196.8	75.9085	10,196.8	74.6974	10,196.8	71.0872	10,196.8	68.9319	10,196.8	67.6836	10,196.8	64.5062	10,196.8	66.6121	10,196.8	64.7421	10,196.8	64.0338	10,196.8	63.1835	10,196.8	60.9801	10,196.8	56.4703	10,196.8	55.5802	10,196.8	59.005	10,196.8	57.4838	10,196.8	58.8883	10,196.8	60.984	10,196.8	58.777	10,196.8	57.6592	10,196.8	57.269	10,196.8	48.9303	10,196.8	55.0413	10,196.8	52.9972	10,196.8	46.702
10,555.7	85.1822	10,555.7	84.604	10,555.7	85.0403	10,555.7	85.0507	10,555.7	84.3259	10,555.7	85.3266	10,555.7	82.1511	10,555.7	82.6945	10,555.7	81.0876	10,555.7	80.7909	10,555.7	79.3429	10,555.7	78.7194	10,555.7	74.3781	10,555.7	72.3798	10,555.7	70.2223	10,555.7	69.4773	10,555.7	69.4781	10,555.7	66.1043	10,555.7	65.417	10,555.7	64.1364	10,555.7	64.195	10,555.7	58.6632	10,555.7	60.1557	10,555.7	60.3576	10,555.7	61.1382	10,555.7	59.2927	10,555.7	52.4772	10,555.7	57.8918	10,555.7	59.6448	10,555.7	53.7561	10,555.7	53.7782	10,555.7	56.628	10,555.7	47.9315	10,555.7	54.842	10,555.7	34.7887	10,555.7	50.6557
10,927.7	85.0612	10,927.7	84.7308	10,927.7	84.6187	10,927.7	85.1465	10,927.7	84.3685	10,927.7	84.7216	10,927.7	82.5986	10,927.7	82.5094	10,927.7	81.5023	10,927.7	80.9124	10,927.7	78.4834	10,927.7	76.8006	10,927.7	74.3632	10,927.7	72.5151	10,927.7	71.4284	10,927.7	68.7989	10,927.7	68.847	10,927.7	66.5622	10,927.7	65.3419	10,927.7	65.9361	10,927.7	61.88	10,927.7	62.4533	10,927.7	61.5196	10,927.7	60.938	10,927.7	51.5803	10,927.7	52.4558	10,927.7	54.1256	10,927.7	55.59	10,927.7	52.7307	10,927.7	48.8508	10,927.7	54.193	10,927.7	51.503	10,927.7	55.4324	10,927.7	50.3325	10,927.7	43.7596	10,927.7	48.1935
11,313	85.2483	11,313	85.1604	11,313	84.9695	11,313	85.2298	11,313	84.1826	11,313	84.2599	11,313	81.7954	11,313	82.3795	11,313	80.8101	11,313	79.8676	11,313	76.9261	11,313	76.1108	11,313	73.7175	11,313	72.9125	11,313	71.193	11,313	69.9258	11,313	67.2539	11,313	65.788	11,313	63.6173	11,313	64.3912	11,313	61.7396	11,313	62.9414	11,313	59.254	11,313	58.0455	11,313	55.6738	11,313	46.3041	11,313	55.8094	11,313	55.3963	11,313	54.7244	11,313	49.8464	11,313	52.7225	11,313	53.9399	11,313	54.3946	11,313	47.199	11,313	50.7314	11,313	46.3206
11,712.9	85.1058	11,712.9	84.9729	11,712.9	84.7608	11,712.9	85.5516	11,712.9	84.1377	11,712.9	83.9452	11,712.9	81.6763	11,712.9	82.1236	11,712.9	80.2848	11,712.9	79.2579	11,712.9	77.2703	11,712.9	76.1985	11,712.9	74.5807	11,712.9	73.5292	11,712.9	71.1266	11,712.9	69.713	11,712.9	66.9165	11,712.9	65.9381	11,712.9	64.1416	11,712.9	63.9146	11,712.9	62.366	11,712.9	60.4328	11,712.9	59.9664	11,712.9	55.2724	11,712.9	57.102	11,712.9	50.3934	11,712.9	56.8489	11,712.9	55.3103	11,712.9	45.8289	11,712.9	47.7986	11,712.9	47.9875	11,712.9	53.1677	11,712.9	56.6058	11,712.9	42.0992	11,712.9	47.5013	11,712.9	33.5114
12,126	85.042	12,126	85.0911	12,126	85.1137	12,126	85.6833	12,126	83.6312	12,126	82.5379	12,126	81.6206	12,126	82.2639	12,126	80.0729	12,126	79.4542	12,126	77.5343	12,126	76.4417	12,126	74.568	12,126	73.0991	12,126	71.674	12,126	70.753	12,126	67.1148	12,126	64.1433	12,126	63.8682	12,126	64.4454	12,126	63.0882	12,126	61.8074	12,126	59.3361	12,126	55.2355	12,126	59.3035	12,126	49.6236	12,126	60.6871	12,126	55.916	12,126	51.5442	12,126	54.6397	12,126	51.0858	12,126	55.1215	12,126	49.2696	12,126	48.0143	12,126	50.8028	12,126	40.3786
12,553.7	84.1459	12,553.7	85.0752	12,553.7	85.3129	12,553.7	85.4662	12,553.7	83.283	12,553.7	83.2665	12,553.7	82.5171	12,553.7	82.5144	12,553.7	80.0392	12,553.7	79.135	12,553.7	77.9344	12,553.7	77.0646	12,553.7	74.9773	12,553.7	73.6137	12,553.7	71.0856	12,553.7	69.9033	12,553.7	68.0133	12,553.7	66.5752	12,553.7	64.1676	12,553.7	64.5315	12,553.7	62.7877	12,553.7	61.5176	12,553.7	58.5836	12,553.7	56.5735	12,553.7	58.7202	12,553.7	53.7708	12,553.7	55.4819	12,553.7	53.8556	12,553.7	52.6555	12,553.7	58.1908	12,553.7	51.7983	12,553.7	57.549	12,553.7	48.4173	12,553.7	47.0312	12,553.7	55.447	12,553.7	53.1924
12,996.1	83.9699	12,996.1	83.9309	12,996.1	85.3544	12,996.1	85.618	12,996.1	82.7799	12,996.1	82.9745	12,996.1	82.169	12,996.1	82.2065	12,996.1	79.2847	12,996.1	78.9048	12,996.1	77.8288	12,996.1	77.3746	12,996.1	74.8232	12,996.1	73.4148	12,996.1	70.9257	12,996.1	69.7302	12,996.1	67.2054	12,996.1	66.2609	12,996.1	63.5978	12,996.1	60.6045	12,996.1	61.5034	12,996.1	62.8812	12,996.1	59.5315	12,996.1	56.1959	12,996.1	59.0729	12,996.1	55.72	12,996.1	56.6472	12,996.1	52.8011	12,996.1	51.9534	12,996.1	59.5401	12,996.1	55.1535	12,996.1	54.8695	12,996.1	46.6875	12,996.1	51.0067	12,996.1	49.6219	12,996.1	49.4952
13,454.6	83.6679	13,454.6	84.5914	13,454.6	85.2071	13,454.6	85.2258	13,454.6	82.5449	13,454.6	83.009	13,454.6	82.5259	13,454.6	81.9347	13,454.6	79.5116	13,454.6	79.2408	13,454.6	77.482	13,454.6	77.4447	13,454.6	73.9235	13,454.6	73.3121	13,454.6	69.7766	13,454.6	67.6114	13,454.6	67.2005	13,454.6	66.528	13,454.6	62.8786	13,454.6	61.77	13,454.6	61.8033	13,454.6	63.2391	13,454.6	59.1959	13,454.6	55.4517	13,454.6	57.0222	13,454.6	54.6613	13,454.6	52.0117	13,454.6	49.1393	13,454.6	53.8199	13,454.6	56.0093	13,454.6	54.2247	13,454.6	54.9133	13,454.6	49.2149	13,454.6	48.862	13,454.6	49.8899	13,454.6	50.3761
13,929.2	83.7553	13,929.2	84.6495	13,929.2	85.3625	13,929.2	85.1135	13,929.2	83.0083	13,929.2	83.791	13,929.2	81.813	13,929.2	81.429	13,929.2	79.9396	13,929.2	79.1835	13,929.2	78.2708	13,929.2	77.4806	13,929.2	73.7754	13,929.2	73.4204	13,929.2	70.0772	13,929.2	69.4835	13,929.2	67.5562	13,929.2	66.7897	13,929.2	63.0624	13,929.2	61.1595	13,929.2	61.7021	13,929.2	62.3592	13,929.2	58.1827	13,929.2	57.8819	13,929.2	57.9885	13,929.2	46.6082	13,929.2	56.0685	13,929.2	54.8344	13,929.2	48.8168	13,929.2	52.7152	13,929.2	53.5956	13,929.2	53.7238	13,929.2	49.7873	13,929.2	47.7236	13,929.2	40.3556	13,929.2	49.0976
14,419.9	84.4307	14,419.9	84.5583	14,419.9	84.8926	14,419.9	84.6585	14,419.9	83.5855	14,419.9	83.7548	14,419.9	80.9064	14,419.9	80.7493	14,419.9	79.7047	14,419.9	79.2751	14,419.9	77.6665	14,419.9	77.1051	14,419.9	73.7277	14,419.9	73.6949	14,419.9	71.2104	14,419.9	70.0136	14,419.9	67.9656	14,419.9	67.4292	14,419.9	63.3854	14,419.9	61.0927	14,419.9	62.3604	14,419.9	60.5816	14,419.9	55.4771	14,419.9	59.5206	14,419.9	59.3156	14,419.9	46.1289	14,419.9	56.2568	14,419.9	54.8599	14,419.9	52.2665	14,419.9	46.9847	14,419.9	52.0708	14,419.9	47.0415	14,419.9	49.642	14,419.9	38.8125	14,419.9	40.5293	14,419.9	42.7955
14,928.2	85.2648	14,928.2	84.7537	14,928.2	84.4175	14,928.2	84.1775	14,928.2	84.0989	14,928.2	83.83	14,928.2	80.711	14,928.2	81.0777	14,928.2	79.8159	14,928.2	79.123	14,928.2	76.6485	14,928.2	76.7886	14,928.2	74.6358	14,928.2	73.7647	14,928.2	69.4521	14,928.2	69.5201	14,928.2	66.9606	14,928.2	64.9863	14,928.2	62.8575	14,928.2	62.6077	14,928.2	58.7097	14,928.2	59.1472	14,928.2	57.0199	14,928.2	53.8172	14,928.2	59.0732	14,928.2	48.4957	14,928.2	55.2528	14,928.2	54.1272	14,928.2	48.786	14,928.2	49.7921	14,928.2	50.3444	14,928.2	42.1165	14,928.2	51.1445	14,928.2	39.4044	14,928.2	44.4555	14,928.2	36.8287
15,455.6	85.2125	15,455.6	84.8453	15,455.6	83.5824	15,455.6	83.9423	15,455.6	84.2043	15,455.6	83.9161	15,455.6	81.0195	15,455.6	81.4977	15,455.6	80.0419	15,455.6	78.9576	15,455.6	77.4298	15,455.6	76.3709	15,455.6	74.9007	15,455.6	73.1932	15,455.6	70.1599	15,455.6	69.1265	15,455.6	65.2328	15,455.6	65.2108	15,455.6	62.7165	15,455.6	59.6882	15,455.6	58.0206	15,455.6	55.8655	15,455.6	57.4007	15,455.6	54.3407	15,455.6	57.1624	15,455.6	49.0189	15,455.6	52.1875	15,455.6	55.354	15,455.6	45.7896	15,455.6	52.5216	15,455.6	42.6116	15,455.6	43.3737	15,455.6	49.1696	15,455.6	47.7394	15,455.6	44.7687	15,455.6	45.4327
16,000.5	84.8759	16,000.5	84.7669	16,000.5	83.2562	16,000.5	83.8643	16,000.5	84.2801	16,000.5	83.8815	16,000.5	81.8258	16,000.5	82.1516	16,000.5	79.9572	16,000.5	78.9492	16,000.5	77.8815	16,000.5	76.9036	16,000.5	73.9135	16,000.5	72.8245	16,000.5	69.2111	16,000.5	68.117	16,000.5	64.8569	16,000.5	65.0678	16,000.5	62.0914	16,000.5	59.8166	16,000.5	58.0221	16,000.5	57.9174	16,000.5	57.8787	16,000.5	57.3835	16,000.5	56.6676	16,000.5	49.8325	16,000.5	40.9404	16,000.5	50.9373	16,000.5	48.3594	16,000.5	52.9194	16,000.5	46.8918	16,000.5	44.7878	16,000.5	51.9546	16,000.5	47.9675	16,000.5	49.3419	16,000.5	47.465
16,564.5	84.5126	16,564.5	84.6819	16,564.5	83.7125	16,564.5	83.9748	16,564.5	83.6469	16,564.5	83.3778	16,564.5	82.4969	16,564.5	82.8011	16,564.5	78.9899	16,564.5	79.1723	16,564.5	77.7533	16,564.5	77.3492	16,564.5	72.2687	16,564.5	72.0617	16,564.5	68.7774	16,564.5	67.7336	16,564.5	65.7521	16,564.5	65.5078	16,564.5	62.6287	16,564.5	59.6823	16,564.5	59.0126	16,564.5	57.5751	16,564.5	58.4614	16,564.5	54.8603	16,564.5	56.7265	16,564.5	52.0926	16,564.5	46.359	16,564.5	48.9597	16,564.5	46.4657	16,564.5	44.2617	16,564.5	41.5161	16,564.5	50.9317	16,564.5	53.4654	16,564.5	44.6251	16,564.5	44.0336	16,564.5	46.5701
17,148.9	84.6749	17,148.9	84.7236	17,148.9	84.1989	17,148.9	84.4888	17,148.9	82.9603	17,148.9	82.5114	17,148.9	82.3698	17,148.9	82.0671	17,148.9	79.3233	17,148.9	78.979	17,148.9	77.0463	17,148.9	76.65	17,148.9	73.555	17,148.9	71.9631	17,148.9	69.9576	17,148.9	67.6953	17,148.9	65.1629	17,148.9	64.4094	17,148.9	62.728	17,148.9	59.6366	17,148.9	56.8075	17,148.9	59.5764	17,148.9	56.5365	17,148.9	58.4277	17,148.9	53.8454	17,148.9	44.822	17,148.9	48.1094	17,148.9	49.736	17,148.9	47.5624	17,148.9	44.1167	17,148.9	46.4148	17,148.9	47.5866	17,148.9	55.1915	17,148.9	46.0673	17,148.9	39.0695	17,148.9	46.4317
17,752.4	84.5339	17,752.4	84.6238	17,752.4	84.0191	17,752.4	84.664	17,752.4	82.8336	17,752.4	82.9032	17,752.4	81.8929	17,752.4	81.8764	17,752.4	79.7803	17,752.4	79.3401	17,752.4	76.2348	17,752.4	76.0404	17,752.4	73.9279	17,752.4	73.3457	17,752.4	69.3761	17,752.4	68.4435	17,752.4	63.9323	17,752.4	64.2474	17,752.4	62.7118	17,752.4	57.622	17,752.4	54.0081	17,752.4	57.9552	17,752.4	55.8434	17,752.4	56.5524	17,752.4	52.641	17,752.4	40.5179	17,752.4	48.8668	17,752.4	49.7634	17,752.4	50.4958	17,752.4	38.6939	17,752.4	43.6663	17,752.4	48.4765	17,752.4	50.6122	17,752.4	54.1044	17,752.4	29.2406	17,752.4	36.9795
18,379.4	84.0776	18,379.4	84.1684	18,379.4	83.6829	18,379.4	84.2168	18,379.4	82.9038	18,379.4	83.2499	18,379.4	81.5536	18,379.4	81.9083	18,379.4	79.8531	18,379.4	79.5986	18,379.4	76.441	18,379.4	76.7506	18,379.4	73.8831	18,379.4	73.3135	18,379.4	69.166	18,379.4	69.0406	18,379.4	61.9205	18,379.4	64.1287	18,379.4	61.696	18,379.4	57.8871	18,379.4	53.1379	18,379.4	54.1211	18,379.4	55.4777	18,379.4	55.5973	18,379.4	53.195	18,379.4	40.3241	18,379.4	48.7794	18,379.4	46.7079	18,379.4	43.2834	18,379.4	45.4024	18,379.4	44.6264	18,379.4	51.4688	18,379.4	52.062	18,379.4	52.8612	18,379.4	45.0445	18,379.4	40.617
19,026.9	83.7269	19,026.9	83.9632	19,026.9	83.341	19,026.9	83.4598	19,026.9	82.6232	19,026.9	83.0518	19,026.9	80.9273	19,026.9	81.8846	19,026.9	79.3782	19,026.9	79.1997	19,026.9	76.8104	19,026.9	76.9018	19,026.9	73.3077	19,026.9	72.3362	19,026.9	68.7364	19,026.9	67.8096	19,026.9	62.1165	19,026.9	63.0215	19,026.9	60.8355	19,026.9	59.2948	19,026.9	54.7697	19,026.9	56.191	19,026.9	55.9942	19,026.9	49.1267	19,026.9	51.6726	19,026.9	49.7141	19,026.9	49.8717	19,026.9	41.4949	19,026.9	40.6507	19,026.9	45.0329	19,026.9	41.2759	19,026.9	50.5927	19,026.9	51.8717	19,026.9	50.5481	19,026.9	40.6879	19,026.9	40.1648
19,697.8	83.5259	19,697.8	83.5749	19,697.8	82.8792	19,697.8	83.1224	19,697.8	82.116	19,697.8	82.6129	19,697.8	80.7795	19,697.8	82.2799	19,697.8	78.6508	19,697.8	78.7046	19,697.8	76.6405	19,697.8	76.0947	19,697.8	72.5035	19,697.8	71.4356	19,697.8	67.9662	19,697.8	67.4609	19,697.8	63.6889	19,697.8	64.2617	19,697.8	60.2629	19,697.8	59.6493	19,697.8	56.523	19,697.8	58.9132	19,697.8	56.2345	19,697.8	53.657	19,697.8	48.7156	19,697.8	50.9492	19,697.8	50.3763	19,697.8	34.4181	19,697.8	43.3901	19,697.8	45.585	19,697.8	43.8194	19,697.8	50.3596	19,697.8	36.6281	19,697.8	45.87	19,697.8	45.7394	19,697.8	42.9897
19,999.5	83.3665	19,999.5	83.4888	19,999.5	82.6998	19,999.5	83.041	19,999.5	81.915	19,999.5	82.3907	19,999.5	80.9002	19,999.5	82.4644	19,999.5	79.0502	19,999.5	78.8323	19,999.5	76.7255	19,999.5	76.5477	19,999.5	72.2719	19,999.5	70.0314	19,999.5	67.7342	19,999.5	69.4777	19,999.5	63.5357	19,999.5	63.1835	19,999.5	62.9399	19,999.5	55.8095	19,999.5	56.959	19,999.5	58.302	19,999.5	46.2047	19,999.5	55.7752	19,999.5	55.753	19,999.5	54.0108	19,999.5	58.1693	19,999.5	51.0937	19,999.5	51.5524	19,999.5	53.0865	19,999.5	47.7058	19,999.5	45.3786	19,999.5	48.5208	19,999.5	49.0597	19,999.5	44.2742	19,999.5	55.9311
