"SPL Vertical"
"On-Axis"		"10°"		"-10°"		"20°"		"-20°"		"30°"		"-30°"		"40°"		"-40°"		"50°"		"-50°"		"60°"		"-60°"		"70°"		"-70°"		"80°"		"-80°"		"90°"		"-90°"		"100°"		"-100°"		"110°"		"-110°"		"120°"		"-120°"		"130°"		"-130°"		"140°"		"-140°"		"150°"		"-150°"		"160°"		"-160°"		"170°"		"-170°"		"180°"
"Frequency / Hz"	"Sound Pressure Level / dB (re 20 µPa/V)  [2.83  V @ 1. m]"	"Frequency / Hz"	"Sound Pressure Level / dB (re 20 µPa/V)  [2.83  V @ 1. m]"	"Frequency / Hz"	"Sound Pressure Level / dB (re 20 µPa/V)  [2.83  V @ 1. m]"	"Frequency / Hz"	"Sound Pressure Level / dB (re 20 µPa/V)  [2.83  V @ 1. m]"	"Frequency / Hz"	"Sound Pressure Level / dB (re 20 µPa/V)  [2.83  V @ 1. m]"	"Frequency / Hz"	"Sound Pressure Level / dB (re 20 µPa/V)  [2.83  V @ 1. m]"	"Frequency / Hz"	"Sound Pressure Level / dB (re 20 µPa/V)  [2.83  V @ 1. m]"	"Frequency / Hz"	"Sound Pressure Level / dB (re 20 µPa/V)  [2.83  V @ 1. m]"	"Frequency / Hz"	"Sound Pressure Level / dB (re 20 µPa/V)  [2.83  V @ 1. m]"	"Frequency / Hz"	"Sound Pressure Level / dB (re 20 µPa/V)  [2.83  V @ 1. m]"	"Frequency / Hz"	"Sound Pressure Level / dB (re 20 µPa/V)  [2.83  V @ 1. m]"	"Frequency / Hz"	"Sound Pressure Level / dB (re 20 µPa/V)  [2.83  V @ 1. m]"	"Frequency / Hz"	"Sound Pressure Level / dB (re 20 µPa/V)  [2.83  V @ 1. m]"	"Frequency / Hz"	"Sound Pressure Level / dB (re 20 µPa/V)  [2.83  V @ 1. m]"	"Frequency / Hz"	"Sound Pressure Level / dB (re 20 µPa/V)  [2.83  V @ 1. m]"	"Frequency / Hz"	"Sound Pressure Level / dB (re 20 µPa/V)  [2.83  V @ 1. m]"	"Frequency / Hz"	"Sound Pressure Level / dB (re 20 µPa/V)  [2.83  V @ 1. m]"	"Frequency / Hz"	"Sound Pressure Level / dB (re 20 µPa/V)  [2.83  V @ 1. m]"	"Frequency / Hz"	"Sound Pressure Level / dB (re 20 µPa/V)  [2.83  V @ 1. m]"	"Frequency / Hz"	"Sound Pressure Level / dB (re 20 µPa/V)  [2.83  V @ 1. m]"	"Frequency / Hz"	"Sound Pressure Level / dB (re 20 µPa/V)  [2.83  V @ 1. m]"	"Frequency / Hz"	"Sound Pressure Level / dB (re 20 µPa/V)  [2.83  V @ 1. m]"	"Frequency / Hz"	"Sound Pressure Level / dB (re 20 µPa/V)  [2.83  V @ 1. m]"	"Frequency / Hz"	"Sound Pressure Level / dB (re 20 µPa/V)  [2.83  V @ 1. m]"	"Frequency / Hz"	"Sound Pressure Level / dB (re 20 µPa/V)  [2.83  V @ 1. m]"	"Frequency / Hz"	"Sound Pressure Level / dB (re 20 µPa/V)  [2.83  V @ 1. m]"	"Frequency / Hz"	"Sound Pressure Level / dB (re 20 µPa/V)  [2.83  V @ 1. m]"	"Frequency / Hz"	"Sound Pressure Level / dB (re 20 µPa/V)  [2.83  V @ 1. m]"	"Frequency / Hz"	"Sound Pressure Level / dB (re 20 µPa/V)  [2.83  V @ 1. m]"	"Frequency / Hz"	"Sound Pressure Level / dB (re 20 µPa/V)  [2.83  V @ 1. m]"	"Frequency / Hz"	"Sound Pressure Level / dB (re 20 µPa/V)  [2.83  V @ 1. m]"	"Frequency / Hz"	"Sound Pressure Level / dB (re 20 µPa/V)  [2.83  V @ 1. m]"	"Frequency / Hz"	"Sound Pressure Level / dB (re 20 µPa/V)  [2.83  V @ 1. m]"	"Frequency / Hz"	"Sound Pressure Level / dB (re 20 µPa/V)  [2.83  V @ 1. m]"	"Frequency / Hz"	"Sound Pressure Level / dB (re 20 µPa/V)  [2.83  V @ 1. m]"	"Frequency / Hz"	"Sound Pressure Level / dB (re 20 µPa/V)  [2.83  V @ 1. m]"
20.5078	54.5161	20.5078	54.5516	20.5078	54.4673	20.5078	54.5701	20.5078	54.4104	20.5078	54.57	20.5078	54.3515	20.5078	54.552	20.5078	54.2961	20.5078	54.5193	20.5078	54.2487	20.5078	54.4765	20.5078	54.2125	20.5078	54.4292	20.5078	54.1896	20.5078	54.3833	20.5078	54.1809	20.5078	54.3444	20.5078	54.1864	20.5078	54.3174	20.5078	54.2057	20.5078	54.3059	20.5078	54.2371	20.5078	54.3113	20.5078	54.2785	20.5078	54.3327	20.5078	54.3262	20.5078	54.3661	20.5078	54.3758	20.5078	54.4054	20.5078	54.4218	20.5078	54.4431	20.5078	54.4584	20.5078	54.4715	20.5078	54.4805	20.5078	54.485
21.9727	53.3045	21.9727	53.3589	21.9727	53.2338	21.9727	53.394	21.9727	53.1506	21.9727	53.408	21.9727	53.059	21.9727	53.401	21.9727	52.9625	21.9727	53.3744	21.9727	52.8641	21.9727	53.3304	21.9727	52.7663	21.9727	53.2718	21.9727	52.6709	21.9727	53.2009	21.9727	52.5796	21.9727	53.1197	21.9727	52.494	21.9727	53.0292	21.9727	52.4158	21.9727	52.9306	21.9727	52.3467	21.9727	52.8254	21.9727	52.2884	21.9727	52.7161	21.9727	52.2428	21.9727	52.6066	21.9727	52.2117	21.9727	52.5017	21.9727	52.1966	21.9727	52.4066	21.9727	52.1995	21.9727	52.3262	21.9727	52.2216	21.9727	52.264
23.4375	55.8222	23.4375	55.8555	23.4375	55.7726	23.4375	55.8701	23.4375	55.7098	23.4375	55.8648	23.4375	55.6373	23.4375	55.8396	23.4375	55.5585	23.4375	55.7961	23.4375	55.4762	23.4375	55.7368	23.4375	55.3932	23.4375	55.6653	23.4375	55.3118	23.4375	55.5855	23.4375	55.234	23.4375	55.5014	23.4375	55.1618	23.4375	55.4166	23.4375	55.0971	23.4375	55.3346	23.4375	55.0415	23.4375	55.2579	23.4375	54.9966	23.4375	55.1884	23.4375	54.9632	23.4375	55.1271	23.4375	54.9419	23.4375	55.0744	23.4375	54.9323	23.4375	55.03	23.4375	54.9337	23.4375	54.9937	23.4375	54.9451	23.4375	54.9653
24.9023	56.2477	24.9023	56.2562	24.9023	56.2277	24.9023	56.2522	24.9023	56.1981	24.9023	56.2355	24.9023	56.1606	24.9023	56.2067	24.9023	56.1174	24.9023	56.1676	24.9023	56.0701	24.9023	56.1206	24.9023	56.0205	24.9023	56.0684	24.9023	55.9701	24.9023	56.014	24.9023	55.9204	24.9023	55.96	24.9023	55.8731	24.9023	55.9085	24.9023	55.8294	24.9023	55.8612	24.9023	55.7908	24.9023	55.8193	24.9023	55.7583	24.9023	55.7834	24.9023	55.7322	24.9023	55.7539	24.9023	55.7129	24.9023	55.7305	24.9023	55.6999	24.9023	55.713	24.9023	55.6927	24.9023	55.7007	24.9023	55.6906	24.9023	55.6934
26.3672	57.1262	26.3672	57.1356	26.3672	57.1059	26.3672	57.133	26.3672	57.0765	26.3672	57.1181	26.3672	57.0401	26.3672	57.0916	26.3672	56.9986	26.3672	57.055	26.3672	56.9539	26.3672	57.0106	26.3672	56.9077	26.3672	56.961	26.3672	56.8614	26.3672	56.9092	26.3672	56.8165	26.3672	56.8577	26.3672	56.7743	26.3672	56.8089	26.3672	56.7361	26.3672	56.7649	26.3672	56.703	26.3672	56.7271	26.3672	56.6759	26.3672	56.6961	26.3672	56.6552	26.3672	56.672	26.3672	56.6407	26.3672	56.6544	26.3672	56.6317	26.3672	56.6421	26.3672	56.6274	26.3672	56.634	26.3672	56.6268	26.3672	56.629
27.832	58.1179	27.832	58.1157	27.832	58.1107	27.832	58.1039	27.832	58.0947	27.832	58.0827	27.832	58.071	27.832	58.053	27.832	58.0406	27.832	58.0162	27.832	58.0049	27.832	57.9743	27.832	57.9652	27.832	57.9294	27.832	57.9232	27.832	57.884	27.832	57.8805	27.832	57.8402	27.832	57.8388	27.832	57.8	27.832	57.7999	27.832	57.765	27.832	57.7652	27.832	57.7361	27.832	57.7359	27.832	57.7137	27.832	57.7127	27.832	57.6974	27.832	57.6956	27.832	57.6864	27.832	57.6842	27.832	57.6795	27.832	57.6775	27.832	57.6756	27.832	57.6744	27.832	57.6739
29.2969	58.6689	29.2969	58.6678	29.2969	58.6603	29.2969	58.6565	29.2969	58.6427	29.2969	58.6351	29.2969	58.6169	29.2969	58.6046	29.2969	58.584	29.2969	58.5662	29.2969	58.5454	29.2969	58.5218	29.2969	58.5023	29.2969	58.4737	29.2969	58.4563	29.2969	58.4242	29.2969	58.4089	29.2969	58.3753	29.2969	58.3619	29.2969	58.329	29.2969	58.3172	29.2969	58.2869	29.2969	58.2762	29.2969	58.2501	29.2969	58.2405	29.2969	58.2193	29.2969	58.2108	29.2969	58.1947	29.2969	58.1875	29.2969	58.1763	29.2969	58.1707	29.2969	58.1635	29.2969	58.1597	29.2969	58.1558	29.2969	58.1538	29.2969	58.1526
30.7617	59.3553	30.7617	59.3445	30.7617	59.3539	30.7617	59.3216	30.7617	59.3408	30.7617	59.287	30.7617	59.3167	30.7617	59.2418	30.7617	59.2826	30.7617	59.1874	30.7617	59.2394	30.7617	59.1256	30.7617	59.1887	30.7617	59.0585	30.7617	59.1319	30.7617	58.9883	30.7617	59.0706	30.7617	58.9173	30.7617	59.0067	30.7617	58.8475	30.7617	58.9419	30.7617	58.7813	30.7617	58.8781	30.7617	58.7208	30.7617	58.8169	30.7617	58.6682	30.7617	58.7597	30.7617	58.6254	30.7617	58.7077	30.7617	58.5941	30.7617	58.6622	30.7617	58.5755	30.7617	58.6243	30.7617	58.5698	30.7617	58.5954	30.7617	58.5768
32.2266	60.6392	32.2266	60.6411	32.2266	60.6263	32.2266	60.6315	32.2266	60.6031	32.2266	60.6108	32.2266	60.5703	32.2266	60.5795	32.2266	60.5293	32.2266	60.5389	32.2266	60.4812	32.2266	60.4907	32.2266	60.4274	32.2266	60.4366	32.2266	60.3694	32.2266	60.3788	32.2266	60.3091	32.2266	60.3192	32.2266	60.2482	32.2266	60.2597	32.2266	60.1888	32.2266	60.202	32.2266	60.1328	32.2266	60.1477	32.2266	60.0822	32.2266	60.0982	32.2266	60.0385	32.2266	60.0545	32.2266	60.0031	32.2266	60.0178	32.2266	59.9768	32.2266	59.9887	32.2266	59.9602	32.2266	59.9679	32.2266	59.9533	32.2266	59.956
33.6914	61.1234	33.6914	61.1209	33.6914	61.1159	33.6914	61.1082	33.6914	61.0987	33.6914	61.0855	33.6914	61.0726	33.6914	61.0536	33.6914	61.0385	33.6914	61.0138	33.6914	60.9973	33.6914	60.9675	33.6914	60.9502	33.6914	60.9165	33.6914	60.8985	33.6914	60.8625	33.6914	60.8436	33.6914	60.8072	33.6914	60.787	33.6914	60.752	33.6914	60.7304	33.6914	60.6983	33.6914	60.6757	33.6914	60.6473	33.6914	60.6244	33.6914	60.6003	33.6914	60.5783	33.6914	60.5587	33.6914	60.5389	33.6914	60.5236	33.6914	60.5074	33.6914	60.4965	33.6914	60.485	33.6914	60.4785	33.6914	60.4725	33.6914	60.4703
35.1562	61.8591	35.1562	61.8527	35.1562	61.8544	35.1562	61.8353	35.1562	61.8388	35.1562	61.8074	35.1562	61.8129	35.1562	61.7695	35.1562	61.7775	35.1562	61.7229	35.1562	61.7336	35.1562	61.6688	35.1562	61.6826	35.1562	61.6091	35.1562	61.6262	35.1562	61.5455	35.1562	61.5659	35.1562	61.4803	35.1562	61.5038	35.1562	61.4156	35.1562	61.4416	35.1562	61.3536	35.1562	61.3813	35.1562	61.2963	35.1562	61.3246	35.1562	61.2457	35.1562	61.2731	35.1562	61.2033	35.1562	61.2281	35.1562	61.1703	35.1562	61.1909	35.1562	61.1475	35.1562	61.1623	35.1562	61.1354	35.1562	61.1432	35.1562	61.1341
36.6211	62.3549	36.6211	62.3481	36.6211	62.3518	36.6211	62.3315	36.6211	62.339	36.6211	62.3056	36.6211	62.3168	36.6211	62.2712	36.6211	62.2859	36.6211	62.2293	36.6211	62.2472	36.6211	62.1814	36.6211	62.202	36.6211	62.129	36.6211	62.1517	36.6211	62.074	36.6211	62.0981	36.6211	62.0183	36.6211	62.0432	36.6211	61.9638	36.6211	61.9888	36.6211	61.9123	36.6211	61.9369	36.6211	61.8655	36.6211	61.889	36.6211	61.8248	36.6211	61.8465	36.6211	61.7913	36.6211	61.8102	36.6211	61.7656	36.6211	61.781	36.6211	61.7481	36.6211	61.759	36.6211	61.7389	36.6211	61.7446	36.6211	61.7378
38.0859	63.2173	38.0859	63.2067	38.0859	63.2138	38.0859	63.1822	38.0859	63.1965	38.0859	63.1444	38.0859	63.166	38.0859	63.0944	38.0859	63.1231	38.0859	63.0335	38.0859	63.069	38.0859	62.9636	38.0859	63.0052	38.0859	62.8865	38.0859	62.9335	38.0859	62.8044	38.0859	62.8557	38.0859	62.7197	38.0859	62.7741	38.0859	62.6348	38.0859	62.6909	38.0859	62.5521	38.0859	62.6084	38.0859	62.474	38.0859	62.529	38.0859	62.4033	38.0859	62.4548	38.0859	62.3424	38.0859	62.3881	38.0859	62.2939	38.0859	62.3312	38.0859	62.2598	38.0859	62.2863	38.0859	62.2416	38.0859	62.2555	38.0859	62.2402
39.5508	63.6366	39.5508	63.6203	39.5508	63.6406	39.5508	63.5926	39.5508	63.6322	39.5508	63.5544	39.5508	63.6111	39.5508	63.5068	39.5508	63.578	39.5508	63.4513	39.5508	63.5336	39.5508	63.389	39.5508	63.4792	39.5508	63.3215	39.5508	63.4164	39.5508	63.2503	39.5508	63.347	39.5508	63.1772	39.5508	63.2733	39.5508	63.1039	39.5508	63.1974	39.5508	63.0324	39.5508	63.1217	39.5508	62.9651	39.5508	63.0484	39.5508	62.9042	39.5508	62.9797	39.5508	62.8522	39.5508	62.9175	39.5508	62.8114	39.5508	62.864	39.5508	62.7839	39.5508	62.8209	39.5508	62.771	39.5508	62.7901	39.5508	62.7731
41.0156	64.7547	41.0156	64.7159	41.0156	64.7813	41.0156	64.6668	41.0156	64.7936	41.0156	64.6087	41.0156	64.7898	41.0156	64.5424	41.0156	64.7681	41.0156	64.4678	41.0156	64.7272	41.0156	64.3841	41.0156	64.6664	41.0156	64.2899	41.0156	64.5853	41.0156	64.1838	41.0156	64.4843	41.0156	64.0646	41.0156	64.3639	41.0156	63.9322	41.0156	64.2254	41.0156	63.7878	41.0156	64.071	41.0156	63.6349	41.0156	63.9038	41.0156	63.4804	41.0156	63.729	41.0156	63.334	41.0156	63.554	41.0156	63.2084	41.0156	63.3891	41.0156	63.1172	41.0156	63.2466	41.0156	63.0718	41.0156	63.1396	41.0156	63.0792
42.4805	64.5752	42.4805	64.5599	42.4805	64.5883	42.4805	64.5431	42.4805	64.5982	42.4805	64.5258	42.4805	64.6045	42.4805	64.5085	42.4805	64.6068	42.4805	64.4919	42.4805	64.6053	42.4805	64.4765	42.4805	64.6005	42.4805	64.4627	42.4805	64.5929	42.4805	64.4511	42.4805	64.5833	42.4805	64.442	42.4805	64.5723	42.4805	64.4358	42.4805	64.5606	42.4805	64.4326	42.4805	64.5486	42.4805	64.4322	42.4805	64.5366	42.4805	64.4345	42.4805	64.5248	42.4805	64.4391	42.4805	64.5132	42.4805	64.4455	42.4805	64.5021	42.4805	64.4532	42.4805	64.4913	42.4805	64.4618	42.4805	64.481	42.4805	64.4712
43.9453	65.2727	43.9453	65.2674	43.9453	65.2721	43.9453	65.2567	43.9453	65.2657	43.9453	65.2409	43.9453	65.2534	43.9453	65.2207	43.9453	65.2356	43.9453	65.1967	43.9453	65.2129	43.9453	65.17	43.9453	65.186	43.9453	65.1416	43.9453	65.1559	43.9453	65.1125	43.9453	65.124	43.9453	65.0839	43.9453	65.0913	43.9453	65.0565	43.9453	65.0593	43.9453	65.0309	43.9453	65.0289	43.9453	65.0077	43.9453	65.0013	43.9453	64.9871	43.9453	64.9772	43.9453	64.9692	43.9453	64.9575	43.9453	64.9541	43.9453	64.9425	43.9453	64.942	43.9453	64.9327	43.9453	64.9333	43.9453	64.9282	43.9453	64.9285
45.4102	65.7534	45.4102	65.7437	45.4102	65.7545	45.4102	65.7261	45.4102	65.7467	45.4102	65.7012	45.4102	65.73	45.4102	65.6699	45.4102	65.7049	45.4102	65.6329	45.4102	65.6721	45.4102	65.5911	45.4102	65.6325	45.4102	65.5454	45.4102	65.5875	45.4102	65.4968	45.4102	65.5386	45.4102	65.4462	45.4102	65.487	45.4102	65.395	45.4102	65.4344	45.4102	65.3444	45.4102	65.3821	45.4102	65.296	45.4102	65.3315	45.4102	65.2515	45.4102	65.284	45.4102	65.2126	45.4102	65.2411	45.4102	65.1812	45.4102	65.2043	45.4102	65.1588	45.4102	65.1751	45.4102	65.1466	45.4102	65.1551	45.4102	65.1454
46.875	66.3202	46.875	66.312	46.875	66.3204	46.875	66.2967	46.875	66.3126	46.875	66.2749	46.875	66.2967	46.875	66.2473	46.875	66.2733	46.875	66.2147	46.875	66.2431	46.875	66.1778	46.875	66.2075	46.875	66.1374	46.875	66.1677	46.875	66.0945	46.875	66.1254	46.875	66.0501	46.875	66.0818	46.875	66.0055	46.875	66.0384	46.875	65.962	46.875	65.9963	46.875	65.9211	46.875	65.9565	46.875	65.8845	46.875	65.9196	46.875	65.8537	46.875	65.8866	46.875	65.8299	46.875	65.858	46.875	65.8142	46.875	65.8349	46.875	65.8071	46.875	65.8181	46.875	65.8086
48.3398	66.7822	48.3398	66.7703	48.3398	66.7854	48.3398	66.7505	48.3398	66.7793	48.3398	66.7237	48.3398	66.7636	48.3398	66.6906	48.3398	66.7386	48.3398	66.6521	48.3398	66.7051	48.3398	66.6088	48.3398	66.6642	48.3398	66.5616	48.3398	66.6174	48.3398	66.5115	48.3398	66.5665	48.3398	66.4595	48.3398	66.5132	48.3398	66.4071	48.3398	66.4593	48.3398	66.3559	48.3398	66.4064	48.3398	66.3074	48.3398	66.3559	48.3398	66.2637	48.3398	66.3091	48.3398	66.2266	48.3398	66.267	48.3398	66.1976	48.3398	66.231	48.3398	66.1781	48.3398	66.2021	48.3398	66.1688	48.3398	66.1814	48.3398	66.17
51.2695	67.7911	51.2695	67.775	51.2695	67.7972	51.2695	67.7497	51.2695	67.7928	51.2695	67.716	51.2695	67.7779	51.2695	67.6751	51.2695	67.753	51.2695	67.6284	51.2695	67.7187	51.2695	67.577	51.2695	67.6762	51.2695	67.5221	51.2695	67.6269	51.2695	67.465	51.2695	67.5723	51.2695	67.4068	51.2695	67.5139	51.2695	67.3488	51.2695	67.4535	51.2695	67.2921	51.2695	67.3925	51.2695	67.2385	51.2695	67.3323	51.2695	67.1896	51.2695	67.2745	51.2695	67.1476	51.2695	67.2208	51.2695	67.1145	51.2695	67.1732	51.2695	67.0925	51.2695	67.1337	51.2695	67.0832	51.2695	67.1044	51.2695	67.0872
52.7344	68.1991	52.7344	68.1857	52.7344	68.2033	52.7344	68.1637	52.7344	68.1978	52.7344	68.1343	52.7344	68.1825	52.7344	68.0987	52.7344	68.1581	52.7344	68.0582	52.7344	68.1252	52.7344	68.0141	52.7344	68.0853	52.7344	67.9676	52.7344	68.0399	52.7344	67.9198	52.7344	67.9907	52.7344	67.872	52.7344	67.9394	52.7344	67.8249	52.7344	67.8877	52.7344	67.7797	52.7344	67.8369	52.7344	67.7374	52.7344	67.7884	52.7344	67.6991	52.7344	67.7434	52.7344	67.6661	52.7344	67.703	52.7344	67.6398	52.7344	67.6685	52.7344	67.6214	52.7344	67.6411	52.7344	67.6119	52.7344	67.622	52.7344	67.6121
54.1992	68.6942	54.1992	68.685	54.1992	68.6942	54.1992	68.6672	54.1992	68.6847	54.1992	68.6418	54.1992	68.6659	54.1992	68.6101	54.1992	68.6385	54.1992	68.5732	54.1992	68.6037	54.1992	68.5326	54.1992	68.5629	54.1992	68.4895	54.1992	68.518	54.1992	68.445	54.1992	68.4709	54.1992	68.4001	54.1992	68.4234	54.1992	68.356	54.1992	68.3769	54.1992	68.3134	54.1992	68.3327	54.1992	68.2734	54.1992	68.2916	54.1992	68.2371	54.1992	68.2544	54.1992	68.2057	54.1992	68.2215	54.1992	68.1803	54.1992	68.1939	54.1992	68.1622	54.1992	68.1722	54.1992	68.1522	54.1992	68.1575	54.1992	68.1506
55.6641	69.1333	55.6641	69.1261	55.6641	69.1308	55.6641	69.1097	55.6641	69.1182	55.6641	69.0849	55.6641	69.0959	55.6641	69.0528	55.6641	69.0645	55.6641	69.0145	55.6641	69.0252	55.6641	68.9712	55.6641	68.9797	55.6641	68.9243	55.6641	68.9299	55.6641	68.875	55.6641	68.8779	55.6641	68.8248	55.6641	68.8257	55.6641	68.775	55.6641	68.7752	55.6641	68.7269	55.6641	68.7279	55.6641	68.682	55.6641	68.6846	55.6641	68.6416	55.6641	68.6462	55.6641	68.607	55.6641	68.6133	55.6641	68.5794	55.6641	68.5862	55.6641	68.5597	55.6641	68.5655	55.6641	68.5486	55.6641	68.5518	55.6641	68.546
58.5938	70.1001	58.5938	70.0946	58.5938	70.0914	58.5938	70.0747	58.5938	70.0688	58.5938	70.0411	58.5938	70.0334	58.5938	69.9947	58.5938	69.9865	58.5938	69.9371	58.5938	69.9296	58.5938	69.87	58.5938	69.865	58.5938	69.7956	58.5938	69.7946	58.5938	69.7162	58.5938	69.721	58.5938	69.6344	58.5938	69.6464	58.5938	69.5528	58.5938	69.573	58.5938	69.4743	58.5938	69.5027	58.5938	69.4015	58.5938	69.4371	58.5938	69.3372	58.5938	69.3775	58.5938	69.2839	58.5938	69.3249	58.5938	69.2432	58.5938	69.2802	58.5938	69.2164	58.5938	69.2445	58.5938	69.2038	58.5938	69.219	58.5938	69.205
60.0586	70.4779	60.0586	70.4632	60.0586	70.4788	60.0586	70.4352	60.0586	70.4656	60.0586	70.3952	60.0586	70.4387	60.0586	70.3443	60.0586	70.399	60.0586	70.2844	60.0586	70.3477	60.0586	70.2173	60.0586	70.2867	60.0586	70.1448	60.0586	70.218	60.0586	70.069	60.0586	70.144	60.0586	69.9919	60.0586	70.0671	60.0586	69.9154	60.0586	69.9895	60.0586	69.8417	60.0586	69.9136	60.0586	69.7728	60.0586	69.8411	60.0586	69.7111	60.0586	69.7741	60.0586	69.6586	60.0586	69.714	60.0586	69.6175	60.0586	69.6627	60.0586	69.5896	60.0586	69.6218	60.0586	69.5761	60.0586	69.5928	60.0586	69.5773
62.9883	71.2217	62.9883	71.2081	62.9883	71.2223	62.9883	71.1821	62.9883	71.2097	62.9883	71.1449	62.9883	71.1845	62.9883	71.0978	62.9883	71.1475	62.9883	71.0425	62.9883	71.1002	62.9883	70.9807	62.9883	71.0443	62.9883	70.9143	62.9883	70.9818	62.9883	70.8448	62.9883	70.9147	62.9883	70.7741	62.9883	70.8449	62.9883	70.7036	62.9883	70.7744	62.9883	70.6352	62.9883	70.7047	62.9883	70.5706	62.9883	70.6374	62.9883	70.512	62.9883	70.574	62.9883	70.4614	62.9883	70.5162	62.9883	70.4213	62.9883	70.466	62.9883	70.3935	62.9883	70.4253	62.9883	70.3798	62.9883	70.3963	62.9883	70.3808
64.4531	71.5741	64.4531	71.5612	64.4531	71.5753	64.4531	71.537	64.4531	71.5648	64.4531	71.5024	64.4531	71.5431	64.4531	71.4589	64.4531	71.5113	64.4531	71.408	64.4531	71.4707	64.4531	71.3514	64.4531	71.4231	64.4531	71.291	64.4531	71.3702	64.4531	71.2286	64.4531	71.3139	64.4531	71.1658	64.4531	71.2557	64.4531	71.1041	64.4531	71.1972	64.4531	71.0453	64.4531	71.1393	64.4531	70.991	64.4531	71.0832	64.4531	70.9428	64.4531	71.0298	64.4531	70.9027	64.4531	70.9802	64.4531	70.8724	64.4531	70.9359	64.4531	70.8534	64.4531	70.8986	64.4531	70.8466	64.4531	70.8702	64.4531	70.8524
67.3828	72.3718	67.3828	72.3563	67.3828	72.3756	67.3828	72.3295	67.3828	72.3677	67.3828	72.2923	67.3828	72.3488	67.3828	72.2459	67.3828	72.3201	67.3828	72.192	67.3828	72.2828	67.3828	72.1324	67.3828	72.2389	67.3828	72.069	67.3828	72.1901	67.3828	72.0038	67.3828	72.1383	67.3828	71.9387	67.3828	72.085	67.3828	71.8759	67.3828	72.0312	67.3828	71.8172	67.3828	71.9778	67.3828	71.7648	67.3828	71.9253	67.3828	71.7207	67.3828	71.874	67.3828	71.6867	67.3828	71.8247	67.3828	71.6645	67.3828	71.7783	67.3828	71.655	67.3828	71.7364	67.3828	71.6585	67.3828	71.701	67.3828	71.6743
68.8477	72.7327	68.8477	72.719	68.8477	72.735	68.8477	72.6943	68.8477	72.7262	68.8477	72.6594	68.8477	72.707	68.8477	72.6156	68.8477	72.6785	68.8477	72.5644	68.8477	72.6425	68.8477	72.5076	68.8477	72.6008	68.8477	72.4471	68.8477	72.5553	68.8477	72.3848	68.8477	72.5078	68.8477	72.3226	68.8477	72.4596	68.8477	72.2624	68.8477	72.4116	68.8477	72.2064	68.8477	72.3643	68.8477	72.1565	68.8477	72.3176	68.8477	72.1147	68.8477	72.2716	68.8477	72.0831	68.8477	72.2264	68.8477	72.0632	68.8477	72.1828	68.8477	72.056	68.8477	72.1422	68.8477	72.0617	68.8477	72.1069	68.8477	72.0792
71.7773	73.4535	71.7773	73.4453	71.7773	73.4498	71.7773	73.4256	71.7773	73.4346	71.7773	73.3951	71.7773	73.4086	71.7773	73.3551	71.7773	73.3734	71.7773	73.3071	71.7773	73.3308	71.7773	73.2527	71.7773	73.2832	71.7773	73.1938	71.7773	73.233	71.7773	73.1324	71.7773	73.1824	71.7773	73.0707	71.7773	73.1334	71.7773	73.0108	71.7773	73.087	71.7773	72.9549	71.7773	73.0439	71.7773	72.9053	71.7773	73.0039	71.7773	72.8639	71.7773	72.9665	71.7773	72.8325	71.7773	72.9312	71.7773	72.8125	71.7773	72.898	71.7773	72.8041	71.7773	72.8674	71.7773	72.8071	71.7773	72.8408	71.7773	72.8199
74.707	74.1945	74.707	74.188	74.707	74.1884	74.707	74.1692	74.707	74.1699	74.707	74.1388	74.707	74.1401	74.707	74.0982	74.707	74.1007	74.707	74.049	74.707	74.054	74.707	73.993	74.707	74.0025	74.707	73.932	74.707	73.9488	74.707	73.8682	74.707	73.8953	74.707	73.8035	74.707	73.8438	74.707	73.74	74.707	73.7955	74.707	73.6799	74.707	73.7508	74.707	73.6256	74.707	73.7092	74.707	73.5792	74.707	73.6702	74.707	73.5429	74.707	73.6332	74.707	73.5183	74.707	73.5984	74.707	73.5062	74.707	73.5663	74.707	73.5066	74.707	73.5388	74.707	73.5181
77.6367	74.857	77.6367	74.8531	77.6367	74.8479	77.6367	74.8366	77.6367	74.8263	77.6367	74.8084	77.6367	74.7934	77.6367	74.77	77.6367	74.751	77.6367	74.7231	77.6367	74.7018	77.6367	74.6699	77.6367	74.6485	77.6367	74.6124	77.6367	74.594	77.6367	74.5527	77.6367	74.5412	77.6367	74.4928	77.6367	74.4919	77.6367	74.4348	77.6367	74.4474	77.6367	74.3804	77.6367	74.4081	77.6367	74.3315	77.6367	74.3733	77.6367	74.2899	77.6367	74.3421	77.6367	74.2572	77.6367	74.3136	77.6367	74.2346	77.6367	74.2874	77.6367	74.2225	77.6367	74.2635	77.6367	74.2208	77.6367	74.2433	77.6367	74.2284
79.1016	75.164	79.1016	75.1609	79.1016	75.1538	79.1016	75.1449	79.1016	75.1309	79.1016	75.1166	79.1016	75.0968	79.1016	75.0777	79.1016	75.0534	79.1016	75.03	79.1016	75.0035	79.1016	74.9756	79.1016	74.95	79.1016	74.9168	79.1016	74.8959	79.1016	74.856	79.1016	74.8439	79.1016	74.7952	79.1016	74.7961	79.1016	74.7367	79.1016	74.7535	79.1016	74.6826	79.1016	74.7163	79.1016	74.6347	79.1016	74.6838	79.1016	74.5948	79.1016	74.6548	79.1016	74.5643	79.1016	74.6283	79.1016	74.5442	79.1016	74.6034	79.1016	74.5347	79.1016	74.5803	79.1016	74.5352	79.1016	74.56	79.1016	74.5443
82.0312	75.8425	82.0312	75.8351	82.0312	75.8355	82.0312	75.8136	82.0312	75.8148	82.0312	75.779	82.0312	75.7816	82.0312	75.733	82.0312	75.7382	82.0312	75.6777	82.0312	75.6873	82.0312	75.6156	82.0312	75.6322	82.0312	75.5493	82.0312	75.5761	82.0312	75.4815	82.0312	75.5219	82.0312	75.415	82.0312	75.4717	82.0312	75.3524	82.0312	75.4268	82.0312	75.2961	82.0312	75.3874	82.0312	75.2484	82.0312	75.3529	82.0312	75.2109	82.0312	75.3218	82.0312	75.1851	82.0312	75.2929	82.0312	75.1711	82.0312	75.2651	82.0312	75.1686	82.0312	75.2384	82.0312	75.1763	82.0312	75.2135	82.0312	75.192
84.9609	76.4449	84.9609	76.44	84.9609	76.436	84.9609	76.4216	84.9609	76.414	84.9609	76.3904	84.9609	76.3803	84.9609	76.3477	84.9609	76.3371	84.9609	76.2953	84.9609	76.2869	84.9609	76.2353	84.9609	76.2326	84.9609	76.1699	84.9609	76.1772	84.9609	76.1014	84.9609	76.123	84.9609	76.032	84.9609	76.0718	84.9609	75.9642	84.9609	76.0245	84.9609	75.9005	84.9609	75.9809	84.9609	75.8432	84.9609	75.9402	84.9609	75.7949	84.9609	75.9016	84.9609	75.7577	84.9609	75.8641	84.9609	75.7334	84.9609	75.8277	84.9609	75.7226	84.9609	75.7934	84.9609	75.725	84.9609	75.763	84.9609	75.7393
87.8906	77.0258	87.8906	77.0207	87.8906	77.016	87.8906	77.0008	87.8906	76.992	87.8906	76.9669	87.8906	76.9557	87.8906	76.921	87.8906	76.9098	87.8906	76.8652	87.8906	76.8576	87.8906	76.8023	87.8906	76.803	87.8906	76.7353	87.8906	76.7496	87.8906	76.6671	87.8906	76.7004	87.8906	76.6007	87.8906	76.6574	87.8906	76.5387	87.8906	76.6213	87.8906	76.4837	87.8906	76.5913	87.8906	76.4378	87.8906	76.5654	87.8906	76.4029	87.8906	76.5413	87.8906	76.3801	87.8906	76.5167	87.8906	76.3701	87.8906	76.4903	87.8906	76.3724	87.8906	76.4621	87.8906	76.3854	87.8906	76.4334	87.8906	76.4068
90.8203	77.6004	90.8203	77.598	90.8203	77.5875	90.8203	77.5805	90.8203	77.5601	90.8203	77.5488	90.8203	77.5203	90.8203	77.5048	90.8203	77.4709	90.8203	77.4508	90.8203	77.4157	90.8203	77.3894	90.8203	77.3588	90.8203	77.3234	90.8203	77.304	90.8203	77.2556	90.8203	77.2545	90.8203	77.1887	90.8203	77.2124	90.8203	77.1256	90.8203	77.178	90.8203	77.0686	90.8203	77.1503	90.8203	77.0203	90.8203	77.1271	90.8203	76.9827	90.8203	77.1056	90.8203	76.9575	90.8203	77.0833	90.8203	76.9453	90.8203	77.0587	90.8203	76.9459	90.8203	77.0318	90.8203	76.9577	90.8203	77.004	90.8203	76.9782
95.2148	78.3945	95.2148	78.3963	95.2148	78.3771	95.2148	78.3823	95.2148	78.3452	95.2148	78.3532	95.2148	78.3011	95.2148	78.3107	95.2148	78.2481	95.2148	78.2568	95.2148	78.1901	95.2148	78.1942	95.2148	78.1314	95.2148	78.1257	95.2148	78.0764	95.2148	78.0545	95.2148	78.0284	95.2148	77.9835	95.2148	77.9895	95.2148	77.9161	95.2148	77.96	95.2148	77.8553	95.2148	77.9383	95.2148	77.8042	95.2148	77.9215	95.2148	77.7655	95.2148	77.9059	95.2148	77.7411	95.2148	77.8882	95.2148	77.7317	95.2148	77.8661	95.2148	77.7367	95.2148	77.8394	95.2148	77.7539	95.2148	77.8095	95.2148	77.7796
98.1445	79.0004	98.1445	79.0033	98.1445	78.9801	98.1445	78.9893	98.1445	78.9432	98.1445	78.9596	98.1445	78.8918	98.1445	78.9164	98.1445	78.8292	98.1445	78.8618	98.1445	78.7599	98.1445	78.7982	98.1445	78.6887	98.1445	78.7283	98.1445	78.6206	98.1445	78.6544	98.1445	78.5598	98.1445	78.5792	98.1445	78.5089	98.1445	78.5053	98.1445	78.4686	98.1445	78.4357	98.1445	78.4377	98.1445	78.3735	98.1445	78.4132	98.1445	78.3217	98.1445	78.3919	98.1445	78.283	98.1445	78.3703	98.1445	78.2591	98.1445	78.3467	98.1445	78.2504	98.1445	78.3209	98.1445	78.2555	98.1445	78.2948	98.1445	78.2716
101.074	79.5314	101.074	79.5456	101.074	79.4978	101.074	79.5402	101.074	79.4463	101.074	79.5159	101.074	79.3797	101.074	79.4745	101.074	79.3022	101.074	79.4181	101.074	79.2189	101.074	79.3493	101.074	79.1356	101.074	79.2712	101.074	79.0579	101.074	79.1867	101.074	78.9906	101.074	79.0992	101.074	78.9363	101.074	79.0121	101.074	78.8956	101.074	78.929	101.074	78.8665	101.074	78.8539	101.074	78.8453	101.074	78.7903	101.074	78.8275	101.074	78.7416	101.074	78.8089	101.074	78.7098	101.074	78.787	101.074	78.6957	101.074	78.7619	101.074	78.6977	101.074	78.7357	101.074	78.7126
105.469	80.2752	105.469	80.2927	105.469	80.2382	105.469	80.2912	105.469	80.1827	105.469	80.2721	105.469	80.111	105.469	80.2378	105.469	80.027	105.469	80.1909	105.469	79.9361	105.469	80.1341	105.469	79.8445	105.469	80.0701	105.469	79.7587	105.469	80.0013	105.469	79.6847	105.469	79.9297	105.469	79.6267	105.469	79.8575	105.469	79.5865	105.469	79.7871	105.469	79.563	105.469	79.721	105.469	79.5526	105.469	79.6623	105.469	79.5504	105.469	79.6137	105.469	79.5511	105.469	79.5773	105.469	79.5508	105.469	79.5538	105.469	79.548	105.469	79.5424	105.469	79.5435	105.469	79.5403
108.398	80.749	108.398	80.759	108.398	80.7188	108.398	80.7497	108.398	80.6686	108.398	80.7234	108.398	80.6002	108.398	80.6829	108.398	80.517	108.398	80.6313	108.398	80.4239	108.398	80.5719	108.398	80.327	108.398	80.5073	108.398	80.2329	108.398	80.44	108.398	80.1479	108.398	80.3717	108.398	80.0773	108.398	80.3038	108.398	80.0238	108.398	80.2379	108.398	79.988	108.398	80.1754	108.398	79.9676	108.398	80.1184	108.398	79.9587	108.398	80.0691	108.398	79.9567	108.398	80.0293	108.398	79.958	108.398	79.9999	108.398	79.9603	108.398	79.9805	108.398	79.9635	108.398	79.9693
112.793	81.4258	112.793	81.4293	112.793	81.4017	112.793	81.4132	112.793	81.3575	112.793	81.3796	112.793	81.2952	112.793	81.3313	112.793	81.2182	112.793	81.2715	112.793	81.1318	112.793	81.2035	112.793	81.0419	112.793	81.1301	112.793	80.9549	112.793	81.0543	112.793	80.8765	112.793	80.9783	112.793	80.8107	112.793	80.9044	112.793	80.7597	112.793	80.8346	112.793	80.723	112.793	80.7712	112.793	80.6979	112.793	80.7164	112.793	80.6805	112.793	80.6725	112.793	80.667	112.793	80.641	112.793	80.6544	112.793	80.6224	112.793	80.6413	112.793	80.6159	112.793	80.6287	112.793	80.6192
117.188	82.0449	117.188	82.0515	117.188	82.0164	117.188	82.0369	117.188	81.9666	117.188	82.0035	117.188	81.8983	117.188	81.9545	117.188	81.8159	117.188	81.8938	117.188	81.7257	117.188	81.8252	117.188	81.6345	117.188	81.7522	117.188	81.5497	117.188	81.6778	117.188	81.4773	117.188	81.6043	117.188	81.4216	117.188	81.534	117.188	81.3839	117.188	81.4685	117.188	81.3623	117.188	81.4101	117.188	81.3524	117.188	81.3609	117.188	81.3487	117.188	81.3231	117.188	81.3455	117.188	81.2985	117.188	81.339	117.188	81.2874	117.188	81.3278	117.188	81.2884	117.188	81.3131	117.188	81.2984
120.117	82.4536	120.117	82.462	120.117	82.4227	120.117	82.4492	120.117	82.3697	120.117	82.418	120.117	82.2971	120.117	82.372	120.117	82.209	120.117	82.3155	120.117	82.1114	120.117	82.2527	120.117	82.0114	120.117	82.187	120.117	81.9165	120.117	82.1211	120.117	81.834	120.117	82.0566	120.117	81.7691	120.117	81.9947	120.117	81.7247	120.117	81.936	120.117	81.7001	120.117	81.8817	120.117	81.6919	120.117	81.8331	120.117	81.6946	120.117	81.7921	120.117	81.7022	120.117	81.7602	120.117	81.7098	120.117	81.7383	120.117	81.7149	120.117	81.7257	120.117	81.7175	120.117	81.7199
124.512	82.9788	124.512	82.9741	124.512	82.9618	124.512	82.9496	124.512	82.9228	124.512	82.9087	124.512	82.8639	124.512	82.856	124.512	82.7887	124.512	82.7964	124.512	82.7028	124.512	82.7346	124.512	82.613	124.512	82.6746	124.512	82.5269	124.512	82.6193	124.512	82.4513	124.512	82.5703	124.512	82.3918	124.512	82.5282	124.512	82.3515	124.512	82.4924	124.512	82.3304	124.512	82.4626	124.512	82.3256	124.512	82.438	124.512	82.3323	124.512	82.4183	124.512	82.3448	124.512	82.4036	124.512	82.3582	124.512	82.3935	124.512	82.3692	124.512	82.3869	124.512	82.377	124.512	82.3821
128.906	83.4761	128.906	83.4621	128.906	83.4664	128.906	83.4264	128.906	83.4324	128.906	83.3721	128.906	83.3753	128.906	83.3033	128.906	83.2981	128.906	83.2247	128.906	83.2058	128.906	83.1413	128.906	83.1053	128.906	83.0582	128.906	83.0044	128.906	82.9803	128.906	82.9113	128.906	82.9117	128.906	82.8334	128.906	82.8553	128.906	82.7758	128.906	82.8129	128.906	82.7408	128.906	82.7848	128.906	82.727	128.906	82.7699	128.906	82.7301	128.906	82.7659	128.906	82.7438	128.906	82.7697	128.906	82.7613	128.906	82.7774	128.906	82.7768	128.906	82.785	128.906	82.7865	128.906	82.7889
133.301	84.1434	133.301	84.1322	133.301	84.1273	133.301	84.0944	133.301	84.0844	133.301	84.0324	133.301	84.0169	133.301	83.9493	133.301	83.929	133.301	83.8494	133.301	83.8261	133.301	83.7372	133.301	83.7147	133.301	83.6177	133.301	83.6016	133.301	83.4962	133.301	83.4934	133.301	83.3782	133.301	83.395	133.301	83.2689	133.301	83.3099	133.301	83.1733	133.301	83.2396	133.301	83.0953	133.301	83.1836	133.301	83.0375	133.301	83.1399	133.301	83.0007	133.301	83.1058	133.301	82.9833	133.301	83.0779	133.301	82.982	133.301	83.0534	133.301	82.9923	133.301	83.0307	133.301	83.0097
139.16	84.6039	139.16	84.5907	139.16	84.5897	139.16	84.5514	139.16	84.5492	139.16	84.4889	139.16	84.4856	139.16	84.4076	139.16	84.404	139.16	84.3127	139.16	84.3112	139.16	84.2093	139.16	84.2143	139.16	84.1026	139.16	84.1205	139.16	83.9967	139.16	84.0354	139.16	83.8956	139.16	83.9623	139.16	83.8027	139.16	83.9023	139.16	83.7212	139.16	83.854	139.16	83.6544	139.16	83.8145	139.16	83.605	139.16	83.7804	139.16	83.5746	139.16	83.7485	139.16	83.5633	139.16	83.7164	139.16	83.5689	139.16	83.6831	139.16	83.588	139.16	83.649	139.16	83.6162
143.555	84.8792	143.555	84.8691	143.555	84.8613	143.555	84.8323	143.555	84.8167	143.555	84.7724	143.555	84.7497	143.555	84.6943	143.555	84.6667	143.555	84.6035	143.555	84.5762	143.555	84.5055	143.555	84.487	143.555	84.4051	143.555	84.407	143.555	84.3063	143.555	84.3416	143.555	84.2122	143.555	84.2931	143.555	84.1259	143.555	84.2598	143.555	84.0501	143.555	84.2372	143.555	83.9881	143.555	84.2192	143.555	83.9432	143.555	84.1997	143.555	83.9178	143.555	84.174	143.555	83.9131	143.555	84.1399	143.555	83.9281	143.555	84.0977	143.555	83.9594	143.555	84.0502	143.555	84.0022
147.949	85.0938	147.949	85.0928	147.949	85.0669	147.949	85.0647	147.949	85.0141	147.949	85.0121	147.949	84.9403	147.949	84.9394	147.949	84.8525	147.949	84.8517	147.949	84.7597	147.949	84.7544	147.949	84.6717	147.949	84.6528	147.949	84.5973	147.949	84.552	147.949	84.5428	147.949	84.4565	147.949	84.5107	147.949	84.3708	147.949	84.4992	147.949	84.2994	147.949	84.5022	147.949	84.2464	147.949	84.5116	147.949	84.2151	147.949	84.5185	147.949	84.2075	147.949	84.5155	147.949	84.2229	147.949	84.4981	147.949	84.2582	147.949	84.465	147.949	84.3076	147.949	84.4185	147.949	84.3637
153.809	85.5343	153.809	85.5332	153.809	85.5069	153.809	85.5048	153.809	85.4521	153.809	85.4518	153.809	85.3735	153.809	85.3781	153.809	85.277	153.809	85.288	153.809	85.1706	153.809	85.1862	153.809	85.0638	153.809	85.077	153.809	84.9658	153.809	84.9647	153.809	84.8845	153.809	84.8534	153.809	84.8244	153.809	84.7478	153.809	84.7862	153.809	84.6535	153.809	84.7664	153.809	84.5764	153.809	84.7585	153.809	84.5222	153.809	84.7545	153.809	84.4947	153.809	84.7468	153.809	84.4946	153.809	84.7295	153.809	84.5185	153.809	84.6998	153.809	84.5596	153.809	84.6583	153.809	84.6092
159.668	85.8872	159.668	85.8897	159.668	85.8537	159.668	85.8618	159.668	85.7911	159.668	85.8062	159.668	85.7043	159.668	85.727	159.668	85.6007	159.668	85.6295	159.668	85.4899	159.668	85.5187	159.668	85.3825	159.668	85.3995	159.668	85.2882	159.668	85.2766	159.668	85.214	159.668	85.1544	159.668	85.1629	159.668	85.0378	159.668	85.1332	159.668	84.9331	159.668	85.1191	159.668	84.847	159.668	85.1125	159.668	84.7863	159.668	85.1047	159.668	84.7559	159.668	85.0885	159.668	84.7571	159.668	85.0595	159.668	84.7865	159.668	85.0161	159.668	84.8366	159.668	84.9604	159.668	84.8979
165.527	86.1648	165.527	86.1668	165.527	86.1305	165.527	86.1379	165.527	86.0649	165.527	86.0816	165.527	85.9723	165.527	86.0027	165.527	85.8603	165.527	85.9068	165.527	85.7389	165.527	85.7992	165.527	85.62	165.527	85.6846	165.527	85.5148	165.527	85.567	165.527	85.4321	165.527	85.4497	165.527	85.3759	165.527	85.3367	165.527	85.345	165.527	85.2328	165.527	85.3331	165.527	85.1444	165.527	85.3313	165.527	85.0784	165.527	85.3298	165.527	85.0406	165.527	85.3205	165.527	85.0335	165.527	85.298	165.527	85.055	165.527	85.2607	165.527	85.0982	165.527	85.2106	165.527	85.1535
171.387	86.2378	171.387	86.23	171.387	86.211	171.387	86.1903	171.387	86.1501	171.387	86.1232	171.387	86.059	171.387	86.0341	171.387	85.9451	171.387	85.9288	171.387	85.8191	171.387	85.8126	171.387	85.6937	171.387	85.6898	171.387	85.581	171.387	85.5645	171.387	85.4905	171.387	85.4407	171.387	85.4271	171.387	85.323	171.387	85.3904	171.387	85.2175	171.387	85.3746	171.387	85.1314	171.387	85.3711	171.387	85.0717	171.387	85.3702	171.387	85.0434	171.387	85.3628	171.387	85.0475	171.387	85.3427	171.387	85.0802	171.387	85.3068	171.387	85.133	171.387	85.256	171.387	85.1952
177.246	86.2818	177.246	86.282	177.246	86.2448	177.246	86.2465	177.246	86.1735	177.246	86.1791	177.246	86.0746	177.246	86.0857	177.246	85.9582	177.246	85.9725	177.246	85.8369	177.246	85.8454	177.246	85.7236	177.246	85.709	177.246	85.6292	177.246	85.5673	177.246	85.5598	177.246	85.4245	177.246	85.5154	177.246	85.2862	177.246	85.4906	177.246	85.1606	177.246	85.4763	177.246	85.0576	177.246	85.4628	177.246	84.9871	177.246	85.4422	177.246	84.9557	177.246	85.4095	177.246	84.9642	177.246	85.3626	177.246	85.0068	177.246	85.3019	177.246	85.0731	177.246	85.2298	177.246	85.1509
183.105	86.275	183.105	86.2963	183.105	86.2181	183.105	86.2824	183.105	86.1287	183.105	86.2365	183.105	86.0147	183.105	86.1629	183.105	85.888	183.105	86.0663	183.105	85.764	183.105	85.9506	183.105	85.6581	183.105	85.819	183.105	85.5827	183.105	85.6746	183.105	85.5431	183.105	85.5218	183.105	85.5362	183.105	85.3676	183.105	85.5513	183.105	85.2232	183.105	85.5736	183.105	85.1026	183.105	85.5889	183.105	85.0201	183.105	85.5864	183.105	84.9856	183.105	85.5605	183.105	85.001	183.105	85.5099	183.105	85.0589	183.105	85.4372	183.105	85.1459	183.105	85.347	183.105	85.2465
188.965	86.3425	188.965	86.3881	188.965	86.2586	188.965	86.3962	188.965	86.1391	188.965	86.3706	188.965	85.9924	188.965	86.3152	188.965	85.8325	188.965	86.2334	188.965	85.6781	188.965	86.1265	188.965	85.5495	188.965	85.9943	188.965	85.4636	188.965	85.836	188.965	85.4288	188.965	85.6532	188.965	85.4411	188.965	85.4526	188.965	85.4852	188.965	85.2487	188.965	85.5396	188.965	85.0637	188.965	85.5828	188.965	84.9229	188.965	85.5983	188.965	84.8475	188.965	85.5767	188.965	84.8461	188.965	85.5161	188.965	84.9113	188.965	85.4205	188.965	85.0239	188.965	85.2977	188.965	85.1599
196.289	86.2409	196.289	86.3032	196.289	86.1357	196.289	86.3262	196.289	85.9894	196.289	86.3175	196.289	85.8117	196.289	86.2853	196.289	85.6207	196.289	86.2367	196.289	85.4425	196.289	86.1741	196.289	85.3062	196.289	86.0949	196.289	85.2367	196.289	85.9914	196.289	85.2437	196.289	85.8549	196.289	85.317	196.289	85.6796	196.289	85.4281	196.289	85.4689	196.289	85.5407	196.289	85.2392	196.289	85.6211	196.289	85.0203	196.289	85.6463	196.289	84.8493	196.289	85.6068	196.289	84.7582	196.289	85.5056	196.289	84.7613	196.289	85.3561	196.289	84.8504	196.289	85.1789	196.289	85.0002
203.613	86.328	203.613	86.3573	203.613	86.2418	203.613	86.3405	203.613	86.0924	203.613	86.2916	203.613	85.8807	203.613	86.2254	203.613	85.6168	203.613	86.1547	203.613	85.3228	203.613	86.0881	203.613	85.0336	203.613	86.0267	203.613	84.793	203.613	85.964	203.613	84.6432	203.613	85.8878	203.613	84.6078	203.613	85.7849	203.613	84.6797	203.613	85.6471	203.613	84.8224	203.613	85.4767	203.613	84.9857	203.613	85.2897	203.613	85.1228	203.613	85.1139	203.613	85.2031	203.613	84.9812	203.613	85.2155	203.613	84.9153	203.613	85.1673	203.613	84.9223	203.613	85.0806	203.613	84.9873
210.938	86.0982	210.938	86.1154	210.938	86.026	210.938	86.0869	210.938	85.8943	210.938	86.0258	210.938	85.7054	210.938	85.9468	210.938	85.4697	210.938	85.8641	210.938	85.2068	210.938	85.7886	210.938	84.9455	210.938	85.7249	210.938	84.7206	210.938	85.6696	210.938	84.5659	210.938	85.6123	210.938	84.5027	210.938	85.5393	210.938	84.5304	210.938	85.4391	210.938	84.6256	210.938	85.3089	210.938	84.7506	210.938	85.1582	210.938	84.8666	210.938	85.0083	210.938	84.9446	210.938	84.8863	210.938	84.9713	210.938	84.8146	210.938	84.9494	210.938	84.8014	210.938	84.8956	210.938	84.8365
218.262	85.9068	218.262	85.9204	218.262	85.8375	218.262	85.8887	218.262	85.707	218.262	85.8257	218.262	85.5169	218.262	85.7468	218.262	85.2778	218.262	85.667	218.262	85.0108	218.262	85.5977	218.262	84.7482	218.262	85.5444	218.262	84.5295	218.262	85.505	218.262	84.3924	218.262	85.4705	218.262	84.359	218.262	85.428	218.262	84.425	218.262	85.3658	218.262	84.5606	218.262	85.2788	218.262	84.7225	218.262	85.1723	218.262	84.8695	218.262	85.0622	218.262	84.9729	218.262	84.9703	218.262	85.0209	218.262	84.9156	218.262	85.0179	218.262	84.9063	218.262	84.9808	218.262	84.9348
225.586	85.8091	225.586	85.7984	225.586	85.7523	225.586	85.7352	225.586	85.6181	225.586	85.6385	225.586	85.4044	225.586	85.5289	225.586	85.1186	225.586	85.4254	225.586	84.7812	225.586	85.3421	225.586	84.4293	225.586	85.2848	225.586	84.1154	225.586	85.2498	225.586	83.8981	225.586	85.2253	225.586	83.8208	225.586	85.1956	225.586	83.8896	225.586	85.1474	225.586	84.0678	225.586	85.0746	225.586	84.2943	225.586	84.9819	225.586	84.5095	225.586	84.8842	225.586	84.6733	225.586	84.8018	225.586	84.7693	225.586	84.752	225.586	84.8018	225.586	84.7411	225.586	84.7901	225.586	84.7607
232.91	85.7369	232.91	85.6751	232.91	85.7272	232.91	85.5578	232.91	85.635	232.91	85.4054	232.91	85.4544	232.91	85.2412	232.91	85.1866	232.91	85.0894	232.91	84.843	232.91	84.9705	232.91	84.4494	232.91	84.8962	232.91	84.0507	232.91	84.8655	232.91	83.7107	232.91	84.8645	232.91	83.4971	232.91	84.8712	232.91	83.4525	232.91	84.8633	232.91	83.568	232.91	84.8261	232.91	83.7861	232.91	84.7577	232.91	84.0314	232.91	84.6698	232.91	84.2424	232.91	84.583	232.91	84.3867	232.91	84.5182	232.91	84.4609	232.91	84.486	232.91	84.4827	232.91	84.4811
241.699	85.5419	241.699	85.4713	241.699	85.5462	241.699	85.346	241.699	85.476	241.699	85.1815	241.699	85.3275	241.699	84.9966	241.699	85.1012	241.699	84.812	241.699	84.8039	241.699	84.648	241.699	84.4515	241.699	84.5205	241.699	84.0733	241.699	84.4369	241.699	83.7141	241.699	84.3939	241.699	83.4303	241.699	84.3792	241.699	83.2736	241.699	84.3762	241.699	83.2675	241.699	84.3697	241.699	83.3921	241.699	84.352	241.699	83.5934	241.699	84.3239	241.699	83.8094	241.699	84.293	241.699	83.9932	241.699	84.2677	241.699	84.1222	241.699	84.2502	241.699	84.1968	241.699	84.2324
250.488	85.5805	250.488	85.4641	250.488	85.6178	250.488	85.2789	250.488	85.5708	250.488	85.0406	250.488	85.4384	250.488	84.7706	250.488	85.2229	250.488	84.4946	250.488	84.931	250.488	84.2391	250.488	84.5756	250.488	84.0268	250.488	84.1796	250.488	83.8703	250.488	83.7804	250.488	83.769	250.488	83.43	250.488	83.7109	250.488	83.1842	250.488	83.6788	250.488	83.0802	250.488	83.6579	250.488	83.1145	250.488	83.6411	250.488	83.2425	250.488	83.6292	250.488	83.4028	250.488	83.6276	250.488	83.5436	250.488	83.6394	250.488	83.637	250.488	83.6611	250.488	83.6786	250.488	83.6803
259.277	85.4669	259.277	85.3764	259.277	85.4905	259.277	85.2251	259.277	85.4463	259.277	85.0241	259.277	85.3373	259.277	84.7893	259.277	85.1694	259.277	84.5404	259.277	84.95	259.277	84.2995	259.277	84.6885	259.277	84.0877	259.277	84.398	259.277	83.9213	259.277	84.0984	259.277	83.8069	259.277	83.8195	259.277	83.7397	259.277	83.5985	259.277	83.7067	259.277	83.4693	259.277	83.6935	259.277	83.4458	259.277	83.6906	259.277	83.5108	259.277	83.6969	259.277	83.6227	259.277	83.716	259.277	83.7345	259.277	83.7496	259.277	83.8121	259.277	83.7923	259.277	83.8419	259.277	83.8296
268.066	85.3464	268.066	85.3013	268.066	85.3375	268.066	85.2029	268.066	85.2751	268.066	85.0521	268.066	85.1615	268.066	84.8507	268.066	85.0016	268.066	84.6031	268.066	84.803	268.066	84.3191	268.066	84.575	268.066	84.0158	268.066	84.3275	268.066	83.7176	268.066	84.0717	268.066	83.4534	268.066	83.8218	268.066	83.2497	268.066	83.5977	268.066	83.1231	268.066	83.4239	268.066	83.0757	268.066	83.3227	268.066	83.096	268.066	83.3017	268.066	83.1651	268.066	83.3459	268.066	83.2614	268.066	83.4217	268.066	83.3643	268.066	83.4909	268.066	83.4537	268.066	83.525	268.066	83.5116
276.855	85.0684	276.855	85.0247	276.855	85.0353	276.855	84.9184	276.855	84.9211	276.855	84.7708	276.855	84.7319	276.855	84.6044	276.855	84.4859	276.855	84.4348	276.855	84.2122	276.855	84.2638	276.855	83.9483	276.855	84.0779	276.855	83.7316	276.855	83.8557	276.855	83.5876	276.855	83.5812	276.855	83.5188	276.855	83.2573	276.855	83.5046	276.855	82.9144	276.855	83.5115	276.855	82.6077	276.855	83.509	276.855	82.3988	276.855	83.4799	276.855	82.3271	276.855	83.4214	276.855	82.3894	276.855	83.3382	276.855	82.5453	276.855	83.2321	276.855	82.7415	276.855	83.0991	276.855	82.9339
287.109	85.2396	287.109	85.2095	287.109	85.1921	287.109	85.1071	287.109	85.0692	287.109	84.9463	287.109	84.88	287.109	84.7492	287.109	84.6392	287.109	84.5431	287.109	84.3676	287.109	84.3526	287.109	84.0903	287.109	84.1897	287.109	83.8349	287.109	84.0474	287.109	83.6273	287.109	83.9031	287.109	83.4873	287.109	83.7325	287.109	83.4229	287.109	83.5274	287.109	83.4266	287.109	83.3068	287.109	83.4762	287.109	83.115	287.109	83.5413	287.109	83.001	287.109	83.5919	287.109	82.9915	287.109	83.6062	287.109	83.0755	287.109	83.5726	287.109	83.2143	287.109	83.4892	287.109	83.3633
297.363	85.0296	297.363	85.0191	297.363	84.9399	297.363	84.9318	297.363	84.7381	297.363	84.7991	297.363	84.4286	297.363	84.6564	297.363	84.0364	297.363	84.537	297.363	83.6101	297.363	84.4617	297.363	83.2181	297.363	84.4275	297.363	82.9359	297.363	84.4034	297.363	82.8193	297.363	84.3391	297.363	82.8778	297.363	84.1852	297.363	83.0688	297.363	83.915	297.363	83.3189	297.363	83.5424	297.363	83.554	297.363	83.1323	297.363	83.7186	297.363	82.7894	297.363	83.7821	297.363	82.6137	297.363	83.7364	297.363	82.6414	297.363	83.5903	297.363	82.829	297.363	83.3654	297.363	83.0948
307.617	84.9732	307.617	84.8644	307.617	84.9875	307.617	84.6786	307.617	84.8966	307.617	84.4399	307.617	84.6972	307.617	84.1775	307.617	84.3943	307.617	83.9241	307.617	84.0041	307.617	83.7108	307.617	83.5572	307.617	83.5599	307.617	83.1025	307.617	83.4748	307.617	82.7043	307.617	83.4345	307.617	82.4283	307.617	83.3984	307.617	82.3156	307.617	83.3231	307.617	82.3605	307.617	83.1834	307.617	82.5126	307.617	82.9883	307.617	82.7011	307.617	82.7827	307.617	82.8624	307.617	82.6305	307.617	82.9537	307.617	82.5806	307.617	82.9577	307.617	82.6366	307.617	82.8817	307.617	82.757
319.336	84.7139	319.336	84.6271	319.336	84.6914	319.336	84.4473	319.336	84.5519	319.336	84.2013	319.336	84.295	319.336	83.9284	319.336	83.9293	319.336	83.6771	319.336	83.4766	319.336	83.4932	319.336	82.9782	319.336	83.3991	319.336	82.5004	319.336	83.3783	319.336	82.1311	319.336	83.3807	319.336	81.9527	319.336	83.3448	319.336	81.9955	319.336	83.2247	319.336	82.2114	319.336	83.0087	319.336	82.499	319.336	82.7283	319.336	82.7562	319.336	82.4529	319.336	82.9149	319.336	82.2644	319.336	82.9487	319.336	82.2169	319.336	82.8653	319.336	82.3087	319.336	82.6965	319.336	82.4906
329.59	84.6448	329.59	84.5185	329.59	84.6564	329.59	84.2909	329.59	84.5473	329.59	83.9855	329.59	84.3193	329.59	83.6395	329.59	83.9827	329.59	83.305	329.59	83.5581	329.59	83.0397	329.59	83.0776	329.59	82.8848	329.59	82.5853	329.59	82.8393	329.59	82.1371	329.59	82.8549	329.59	81.7956	329.59	82.8608	329.59	81.6157	329.59	82.799	329.59	81.6194	329.59	82.65	329.59	81.7774	329.59	82.4418	329.59	82.0171	329.59	82.2394	329.59	82.2538	329.59	82.1147	329.59	82.4214	329.59	82.1062	329.59	82.4859	329.59	82.1979	329.59	82.447	329.59	82.3334
341.309	84.7095	341.309	84.5914	341.309	84.7109	341.309	84.3673	341.309	84.5914	341.309	84.0568	341.309	84.3562	341.309	83.6938	341.309	84.0223	341.309	83.3302	341.309	83.6219	341.309	83.0311	341.309	83.1993	341.309	82.8507	341.309	82.8038	341.309	82.7973	341.309	82.4767	341.309	82.8172	341.309	82.241	341.309	82.8206	341.309	82.0979	341.309	82.7291	341.309	82.032	341.309	82.5139	341.309	82.0214	341.309	82.2108	341.309	82.0443	341.309	81.9107	341.309	82.0806	341.309	81.7171	341.309	82.1081	341.309	81.6826	341.309	82.1014	341.309	81.7768	341.309	82.0393	341.309	81.9198
353.027	84.7945	353.027	84.6911	353.027	84.7605	353.027	84.4659	353.027	84.5795	353.027	84.1396	353.027	84.2515	353.027	83.7404	353.027	83.7899	353.027	83.3096	353.027	83.2271	353.027	82.9062	353.027	82.6187	353.027	82.5991	353.027	82.0462	353.027	82.4376	353.027	81.6059	353.027	82.4132	353.027	81.3787	353.027	82.4526	353.027	81.3865	353.027	82.4562	353.027	81.5748	353.027	82.3536	353.027	81.8424	353.027	82.1392	353.027	82.0902	353.027	81.8782	353.027	82.2514	353.027	81.6763	353.027	82.2977	353.027	81.6156	353.027	82.2321	353.027	81.7039	353.027	82.0798	353.027	81.8835
366.211	84.6378	366.211	84.5059	366.211	84.6184	366.211	84.2467	366.211	84.4316	366.211	83.8958	366.211	84.0715	366.211	83.5085	366.211	83.5518	366.211	83.1648	366.211	82.9196	366.211	82.9543	366.211	82.2686	366.211	82.9301	366.211	81.7372	366.211	83.0597	366.211	81.4624	366.211	83.2284	366.211	81.4965	366.211	83.2985	366.211	81.7679	366.211	83.1666	366.211	82.1358	366.211	82.7925	366.211	82.469	366.211	82.2144	366.211	82.6805	366.211	81.5617	366.211	82.7264	366.211	81.0431	366.211	82.5968	366.211	80.8522	366.211	82.3073	366.211	81.0247	366.211	81.8956	366.211	81.4288
379.395	84.8462	379.395	84.5995	379.395	84.9391	379.395	84.2145	379.395	84.8603	379.395	83.7046	379.395	84.5922	379.395	83.0888	379.395	84.1217	379.395	82.4137	379.395	83.4457	379.395	81.7894	379.395	82.5846	379.395	81.403	379.395	81.6134	379.395	81.427	379.395	80.7116	379.395	81.8415	379.395	80.1671	379.395	82.4204	379.395	80.1946	379.395	82.9112	379.395	80.6962	379.395	83.1588	379.395	81.3651	379.395	83.1198	379.395	81.9512	379.395	82.8468	379.395	82.3404	379.395	82.4738	379.395	82.5119	379.395	82.1746	379.395	82.4943	379.395	82.0732	379.395	82.3478	379.395	82.1662
392.578	84.782	392.578	84.6377	392.578	84.7957	392.578	84.3746	392.578	84.6686	392.578	84.0033	392.578	84.3978	392.578	83.5358	392.578	83.9937	392.578	82.994	392.578	83.4807	392.578	82.4226	392.578	82.8928	392.578	81.902	392.578	82.2663	392.578	81.5398	392.578	81.6403	392.578	81.415	392.578	81.0698	392.578	81.506	392.578	80.6397	392.578	81.6903	392.578	80.4446	392.578	81.8298	392.578	80.5187	392.578	81.85	392.578	80.7883	392.578	81.7624	392.578	81.1183	392.578	81.6399	392.578	81.396	392.578	81.5634	392.578	81.5669	392.578	81.5639	392.578	81.6271	392.578	81.6071
405.762	84.6418	405.762	84.4899	405.762	84.6136	405.762	84.1733	405.762	84.3937	405.762	83.7099	405.762	83.9809	405.762	83.1275	405.762	83.3904	405.762	82.4818	405.762	82.6616	405.762	81.8766	405.762	81.8707	405.762	81.4537	405.762	81.1467	405.762	81.3196	405.762	80.6613	405.762	81.4482	405.762	80.5442	405.762	81.6826	405.762	80.7708	405.762	81.8407	405.762	81.1743	405.762	81.8055	405.762	81.5697	405.762	81.5559	405.762	81.8362	405.762	81.1709	405.762	81.9249	405.762	80.8103	405.762	81.839	405.762	80.6389	405.762	81.6141	405.762	80.7161	405.762	81.3037	405.762	80.9745
420.41	85.1756	420.41	84.9815	420.41	85.2096	420.41	84.6286	420.41	85.0782	420.41	84.1142	420.41	84.7748	420.41	83.4367	420.41	84.294	420.41	82.609	420.41	83.6312	420.41	81.6913	420.41	82.7838	420.41	80.8462	420.41	81.7634	420.41	80.36	420.41	80.6434	420.41	80.4544	420.41	79.648	420.41	80.9977	420.41	79.1628	420.41	81.6159	420.41	79.4081	420.41	82.0178	420.41	80.1214	420.41	82.0935	420.41	80.8693	420.41	81.8763	420.41	81.3946	420.41	81.505	420.41	81.6257	420.41	81.179	420.41	81.5967	420.41	81.0605	420.41	81.4008	420.41	81.1713
435.059	84.5909	435.059	84.4104	435.059	84.5953	435.059	84.0699	435.059	84.4103	435.059	83.5869	435.059	84.0318	435.059	82.9857	435.059	83.4753	435.059	82.3119	435.059	82.7904	435.059	81.6551	435.059	82.0792	435.059	81.157	435.059	81.4978	435.059	80.9572	435.059	81.1946	435.059	81.074	435.059	81.1935	435.059	81.3598	435.059	81.3703	435.059	81.6093	435.059	81.5687	435.059	81.6808	435.059	81.7015	435.059	81.5421	435.059	81.7563	435.059	81.2671	435.059	81.7527	435.059	81.0033	435.059	81.7007	435.059	80.8924	435.059	81.5898	435.059	80.9753	435.059	81.4102	435.059	81.1823
451.172	85.2026	451.172	84.9327	451.172	85.3479	451.172	84.5462	451.172	85.347	451.172	84.0272	451.172	85.1724	451.172	83.3307	451.172	84.789	451.172	82.387	451.172	84.1437	451.172	81.1303	451.172	83.1525	451.172	79.5955	451.172	81.7066	451.172	78.1773	451.172	79.7545	451.172	77.7789	451.172	77.6779	451.172	78.6824	451.172	76.9565	451.172	79.9741	451.172	78.2789	451.172	80.9444	451.172	80.028	451.172	81.4111	451.172	81.2599	451.172	81.4386	451.172	81.87	451.172	81.212	451.172	81.9846	451.172	80.979	451.172	81.785	451.172	80.9376	451.172	81.4494	451.172	81.1248
465.82	84.9309	465.82	84.777	465.82	84.9622	465.82	84.5124	465.82	84.8737	465.82	84.1518	465.82	84.6834	465.82	83.6952	465.82	84.4096	465.82	83.1152	465.82	84.0477	465.82	82.3591	465.82	83.5527	465.82	81.3709	465.82	82.8415	465.82	80.1538	465.82	81.8175	465.82	78.9173	465.82	80.422	465.82	78.2014	465.82	78.7721	465.82	78.4056	465.82	77.481	465.82	79.1368	465.82	77.5129	465.82	79.7985	465.82	78.6639	465.82	80.1622	465.82	79.8887	465.82	80.2887	465.82	80.6814	465.82	80.3511	465.82	80.9945	465.82	80.4911	465.82	80.9507	465.82	80.7262
483.398	84.7314	483.398	84.5409	483.398	84.7024	483.398	84.1521	483.398	84.4498	483.398	83.6065	483.398	83.9885	483.398	82.9705	483.398	83.3639	483.398	82.3332	483.398	82.6701	483.398	81.7874	483.398	82.0521	483.398	81.3935	483.398	81.6449	483.398	81.1548	483.398	81.4601	483.398	81.025	483.398	81.3581	483.398	80.9345	483.398	81.17	483.398	80.8062	483.398	80.8424	483.398	80.5687	483.398	80.5007	483.398	80.1917	483.398	80.3562	483.398	79.7397	483.398	80.4638	483.398	79.396	483.398	80.64	483.398	79.3601	483.398	80.6715	483.398	79.6505	483.398	80.4739	483.398	80.0895
499.512	85.186	499.512	84.942	499.512	85.2803	499.512	84.566	499.512	85.2034	499.512	84.0658	499.512	84.9296	499.512	83.422	499.512	84.4262	499.512	82.5704	499.512	83.6478	499.512	81.4056	499.512	82.536	499.512	79.8565	499.512	81.051	499.512	78.164	499.512	79.3174	499.512	77.3463	499.512	77.9797	499.512	78.1714	499.512	78.0367	499.512	79.6057	499.512	79.2417	499.512	80.6664	499.512	80.5382	499.512	81.1126	499.512	81.4365	499.512	81.013	499.512	81.8713	499.512	80.5923	499.512	81.9061	499.512	80.2079	499.512	81.6292	499.512	80.1916	499.512	81.1382	499.512	80.5792
517.09	84.99	517.09	84.8002	517.09	85.0176	517.09	84.4845	517.09	84.8627	517.09	84.0908	517.09	84.539	517.09	83.6803	517.09	84.1201	517.09	83.3161	517.09	83.7413	517.09	83.0217	517.09	83.524	517.09	82.7418	517.09	83.4448	517.09	82.3522	517.09	83.3019	517.09	81.7161	517.09	82.8201	517.09	80.7636	517.09	81.7586	517.09	79.5988	517.09	80.0134	517.09	78.5818	517.09	77.9925	517.09	78.1264	517.09	77.2349	517.09	78.2467	517.09	78.32	517.09	78.6504	517.09	79.6255	517.09	79.1478	517.09	80.3331	517.09	79.6758	517.09	80.4438	517.09	80.1571
536.133	84.642	536.133	84.0404	536.133	84.9965	536.133	83.2414	536.133	85.0354	536.133	82.268	536.133	84.6819	536.133	81.1147	536.133	83.8578	536.133	79.7651	536.133	82.4893	536.133	78.2743	536.133	80.5659	536.133	77.0508	536.133	78.5314	536.133	77.0967	536.133	78.0398	536.133	78.6565	536.133	79.6451	536.133	80.5208	536.133	81.4524	536.133	81.8269	536.133	82.5178	536.133	82.3415	536.133	82.7433	536.133	82.0746	536.133	82.2707	536.133	81.1597	536.133	81.4163	536.133	79.9348	536.133	80.6381	536.133	79.0324	536.133	80.1855	536.133	78.9457	536.133	79.8548	536.133	79.3967
555.176	85.0035	555.176	84.7138	555.176	85.1664	555.176	84.287	555.176	85.2067	555.176	83.7276	555.176	85.105	555.176	83.0577	555.176	84.8064	555.176	82.2724	555.176	84.2036	555.176	81.2476	555.176	83.1076	555.176	79.6486	555.176	81.2088	555.176	76.9329	555.176	78.095	555.176	73.421	555.176	74.4565	555.176	74.8097	555.176	75.861	555.176	78.6944	555.176	79.4349	555.176	81.0058	555.176	81.6303	555.176	81.8613	555.176	82.5666	555.176	81.6019	555.176	82.5793	555.176	80.5735	555.176	81.9858	555.176	79.3743	555.176	81.1	555.176	78.8539	555.176	80.1463	555.176	79.2762
574.219	85.2658	574.219	85.0377	574.219	85.3636	574.219	84.6829	574.219	85.3433	574.219	84.2274	574.219	85.2262	574.219	83.7223	574.219	85.019	574.219	83.2182	574.219	84.6758	574.219	82.6852	574.219	84.0674	574.219	81.9268	574.219	82.9662	574.219	80.5465	574.219	81.0116	574.219	77.9292	574.219	77.6276	574.219	73.5968	574.219	72.7637	574.219	73.0918	574.219	73.8844	574.219	77.5099	574.219	78.0963	574.219	80.1594	574.219	80.4357	574.219	81.1538	574.219	81.4128	574.219	81.0207	574.219	81.5419	574.219	80.3026	574.219	81.1618	574.219	79.7363	574.219	80.506	574.219	79.8703
594.727	84.6137	594.727	84.2407	594.727	84.7373	594.727	83.6793	594.727	84.6	594.727	83.0368	594.727	84.245	594.727	82.4612	594.727	83.7845	594.727	82.1099	594.727	83.3911	594.727	82.041	594.727	83.1832	594.727	82.0816	594.727	83.0517	594.727	81.8554	594.727	82.6507	594.727	80.9618	594.727	81.5398	594.727	79.1519	594.727	79.2975	594.727	76.7246	594.727	75.8976	594.727	75.561	594.727	74.2553	594.727	76.7061	594.727	76.5396	594.727	77.9899	594.727	78.5276	594.727	78.4841	594.727	79.3712	594.727	78.4397	594.727	79.4618	594.727	78.4091	594.727	79.1531	594.727	78.7024
615.234	84.7963	615.234	84.4156	615.234	84.9212	615.234	83.8143	615.234	84.7796	615.234	83.0622	615.234	84.386	615.234	82.2653	615.234	83.7973	615.234	81.5465	615.234	83.1083	615.234	80.9826	615.234	82.3719	615.234	80.4935	615.234	81.4778	615.234	79.8129	615.234	80.1652	615.234	78.6923	615.234	78.3127	615.234	77.4153	615.234	76.7202	615.234	77.3162	615.234	77.1094	615.234	78.6847	615.234	78.6536	615.234	79.927	615.234	79.665	615.234	80.2669	615.234	79.8487	615.234	79.7576	615.234	79.5482	615.234	78.8391	615.234	79.1495	615.234	78.214	615.234	78.7269	615.234	78.2903
637.207	84.8197	637.207	84.299	637.207	85.1068	637.207	83.5944	637.207	85.135	637.207	82.7579	637.207	84.9007	637.207	81.8227	637.207	84.4067	637.207	80.8446	637.207	83.6704	637.207	80.0095	637.207	82.7774	637.207	79.5961	637.207	81.9132	637.207	79.5688	637.207	81.187	637.207	79.4558	637.207	80.3695	637.207	78.9199	637.207	79.0637	637.207	78.2513	637.207	77.3441	637.207	78.2105	637.207	76.6042	637.207	78.798	637.207	77.6592	637.207	79.1733	637.207	78.801	637.207	78.8653	637.207	79.1136	637.207	78.0632	637.207	78.7216	637.207	77.4444	637.207	78.0506	637.207	77.5009
659.18	85.2448	659.18	84.7609	659.18	85.4558	659.18	84.0651	659.18	85.3546	659.18	83.2428	659.18	84.9519	659.18	82.4109	659.18	84.3463	659.18	81.7004	659.18	83.6901	659.18	81.2077	659.18	83.0377	659.18	80.884	659.18	82.2147	659.18	80.3735	659.18	80.9092	659.18	79.0355	659.18	78.9534	659.18	76.4467	659.18	76.9043	659.18	75.1167	659.18	76.6221	659.18	78.1099	659.18	78.2113	659.18	80.7313	659.18	79.7895	659.18	81.6913	659.18	80.7065	659.18	81.2103	659.18	80.9567	659.18	79.7788	659.18	80.5773	659.18	78.4808	659.18	79.6408	659.18	78.5756
682.617	85.7465	682.617	85.0953	682.617	86.0067	682.617	84.1463	682.617	85.8526	682.617	83.0765	682.617	85.2938	682.617	82.0837	682.617	84.3575	682.617	81.2562	682.617	83.1613	682.617	80.5908	682.617	82.0724	682.617	80.2099	682.617	81.5309	682.617	80.1726	682.617	81.2931	682.617	79.914	682.617	80.4771	682.617	78.5108	682.617	78.4428	682.617	75.4343	682.617	76.1821	682.617	74.9008	682.617	77.1047	682.617	78.8812	682.617	79.2481	682.617	81.3301	682.617	80.395	682.617	81.9912	682.617	80.6664	682.617	81.4637	682.617	80.473	682.617	80.4908	682.617	80.1026	682.617	79.9505
707.52	85.999	707.52	85.3447	707.52	86.2372	707.52	84.3018	707.52	86.1174	707.52	83.0211	707.52	85.7069	707.52	81.712	707.52	85.0121	707.52	80.47	707.52	83.9898	707.52	79.3411	707.52	82.6958	707.52	78.6943	707.52	81.4966	707.52	78.9009	707.52	80.7865	707.52	79.3019	707.52	80.0905	707.52	78.6948	707.52	78.4396	707.52	76.3588	707.52	76.0702	707.52	74.5257	707.52	76.705	707.52	77.6594	707.52	79.27	707.52	80.5067	707.52	80.5929	707.52	81.5416	707.52	80.7521	707.52	81.2581	707.52	80.4807	707.52	80.466	707.52	80.1952	707.52	80.0618
732.422	85.632	732.422	84.9523	732.422	86.0305	732.422	84.0966	732.422	86.0813	732.422	83.1967	732.422	85.7412	732.422	82.3722	732.422	85.0129	732.422	81.7245	732.422	83.9828	732.422	81.2753	732.422	82.7792	732.422	80.8932	732.422	81.4642	732.422	80.4818	732.422	79.9914	732.422	79.9688	732.422	78.2052	732.422	78.78	732.422	76.0007	732.422	75.9016	732.422	74.2367	732.422	71.7769	732.422	75.1299	732.422	74.8797	732.422	77.6227	732.422	78.8688	732.422	79.6157	732.422	80.558	732.422	80.6917	732.422	80.6711	732.422	80.8773	732.422	80.1033	732.422	80.4012	732.422	79.9075
757.324	85.2156	757.324	84.591	757.324	85.7181	757.324	83.9097	757.324	86.0297	757.324	83.2457	757.324	86.0694	757.324	82.6252	757.324	85.7305	757.324	81.9356	757.324	84.8616	757.324	81.0277	757.324	83.3483	757.324	80.0158	757.324	81.4041	757.324	79.1984	757.324	79.739	757.324	78.4523	757.324	78.527	757.324	77.3619	757.324	76.7444	757.324	75.3156	757.324	74.3646	757.324	72.3927	757.324	75.684	757.324	74.7012	757.324	78.6009	757.324	78.6146	757.324	79.9008	757.324	80.5275	757.324	79.9083	757.324	80.9521	757.324	79.5076	757.324	80.4927	757.324	79.4017	757.324	79.7885
785.156	85.0634	785.156	84.7485	785.156	85.109	785.156	84.0859	785.156	85.0669	785.156	83.0918	785.156	85.055	785.156	81.7921	785.156	84.9554	785.156	80.2285	785.156	84.4903	785.156	78.5839	785.156	83.5024	785.156	77.711	785.156	82.2692	785.156	78.5615	785.156	81.4043	785.156	80.0285	785.156	80.528	785.156	80.6953	785.156	78.2837	785.156	79.7221	785.156	73.1619	785.156	76.3482	785.156	64.388	785.156	72.2781	785.156	72.548	785.156	74.9453	785.156	76.701	785.156	77.3372	785.156	78.6465	785.156	77.9678	785.156	79.7295	785.156	78.3224	785.156	79.9446	785.156	79.259
811.523	85.1157	811.523	84.5984	811.523	85.3977	811.523	83.8524	811.523	85.4684	811.523	82.9953	811.523	85.3408	811.523	82.1737	811.523	84.9883	811.523	81.3179	811.523	84.2577	811.523	80.0466	811.523	82.8601	811.523	77.8501	811.523	80.742	811.523	75.3104	811.523	79.0087	811.523	76.5451	811.523	78.7854	811.523	79.3659	811.523	78.4148	811.523	79.707	811.523	76.1468	811.523	76.7392	811.523	71.8595	811.523	73.3171	811.523	74.7085	811.523	77.848	811.523	78.5631	811.523	80.493	811.523	79.9475	811.523	80.5135	811.523	79.8577	811.523	79.1244	811.523	78.9455	811.523	78.2583
840.82	84.686	840.82	83.7436	840.82	85.175	840.82	82.6625	840.82	85.2017	840.82	81.7977	840.82	84.8947	840.82	81.0253	840.82	84.2997	840.82	79.9756	840.82	83.3391	840.82	78.7572	840.82	81.9771	840.82	77.6591	840.82	80.6668	840.82	76.3546	840.82	80.4248	840.82	75.7958	840.82	80.7798	840.82	77.797	840.82	80.0144	840.82	79.5434	840.82	77.0935	840.82	79.0801	840.82	72.0888	840.82	76.0845	840.82	71.8937	840.82	73.7387	840.82	75.0916	840.82	76.0093	840.82	77.2145	840.82	78.1432	840.82	78.4328	840.82	79.0937	840.82	79.0156	840.82	79.2528
870.117	84.6299	870.117	84.1138	870.117	84.9067	870.117	83.4166	870.117	84.8952	870.117	82.6434	870.117	84.6141	870.117	81.9514	870.117	84.1345	870.117	81.3468	870.117	83.3556	870.117	80.6101	870.117	81.8137	870.117	79.4727	870.117	78.8822	870.117	77.1527	870.117	76.7414	870.117	70.9706	870.117	79.7046	870.117	69.0727	870.117	81.9063	870.117	76.2046	870.117	81.8105	870.117	77.5616	870.117	79.1988	870.117	76.561	870.117	75.2444	870.117	76.6905	870.117	76.72	870.117	78.1748	870.117	79.0532	870.117	78.193	870.117	79.4592	870.117	76.9947	870.117	78.3852	870.117	76.9356
900.879	85.8418	900.879	84.584	900.879	86.1861	900.879	82.7919	900.879	85.6679	900.879	81.2857	900.879	84.5987	900.879	80.5613	900.879	83.4819	900.879	80.159	900.879	82.8496	900.879	79.7772	900.879	82.4132	900.879	79.9164	900.879	80.8955	900.879	80.2648	900.879	77.1255	900.879	79.4867	900.879	74.8118	900.879	76.5048	900.879	78.9243	900.879	70.9064	900.879	81.0525	900.879	70.2711	900.879	80.6397	900.879	74.4242	900.879	78.8172	900.879	77.2447	900.879	77.1151	900.879	78.9574	900.879	76.6544	900.879	79.5611	900.879	77.2294	900.879	79.2881	900.879	77.9576	900.879	78.6357
933.105	84.4908	933.105	83.9161	933.105	85.1329	933.105	83.3734	933.105	85.6026	933.105	82.5783	933.105	85.4236	933.105	81.2038	933.105	84.2629	933.105	79.2335	933.105	82.4309	933.105	77.2575	933.105	80.9389	933.105	76.5105	933.105	79.8988	933.105	77.2611	933.105	77.663	933.105	78.2158	933.105	72.7191	933.105	78.4446	933.105	70.6556	933.105	77.3471	933.105	73.3449	933.105	74.3995	933.105	73.8623	933.105	72.1004	933.105	74.2587	933.105	75.0141	933.105	75.3711	933.105	77.3514	933.105	76.8222	933.105	77.6477	933.105	77.8766	933.105	77.189	933.105	77.8626	933.105	77.3306
965.332	85.4983	965.332	85.3242	965.332	85.41	965.332	84.6603	965.332	85.3953	965.332	83.5247	965.332	85.4571	965.332	82.1109	965.332	85.1231	965.332	80.8155	965.332	83.9866	965.332	79.9737	965.332	82.1527	965.332	79.2321	965.332	80.1701	965.332	77.9757	965.332	78.9323	965.332	76.4719	965.332	78.3355	965.332	76.3116	965.332	77.1081	965.332	76.6677	965.332	75.6639	965.332	74.7214	965.332	76.0552	965.332	70.8858	965.332	77.1926	965.332	74.6399	965.332	77.3337	965.332	77.607	965.332	77.5624	965.332	78.3982	965.332	78.4228	965.332	78.3888	965.332	78.8238	965.332	78.5737
1,000.49	86.0279	1,000.49	85.0121	1,000.49	86.3483	1,000.49	84.0367	1,000.49	85.7961	1,000.49	83.6243	1,000.49	84.4003	1,000.49	83.1563	1,000.49	82.4636	1,000.49	82.1705	1,000.49	80.9542	1,000.49	80.6573	1,000.49	80.3001	1,000.49	79.5138	1,000.49	79.0795	1,000.49	79.4459	1,000.49	76.4451	1,000.49	78.1633	1,000.49	74.0523	1,000.49	73.7531	1,000.49	74.4904	1,000.49	73.3416	1,000.49	74.1051	1,000.49	75.0702	1,000.49	71.3642	1,000.49	71.1198	1,000.49	72.9061	1,000.49	70.3988	1,000.49	76.2562	1,000.49	76.9274	1,000.49	77.7304	1,000.49	78.4822	1,000.49	77.885	1,000.49	77.8167	1,000.49	77.743	1,000.49	77.5744
1,035.64	85.1904	1,035.64	85.1861	1,035.64	85.4717	1,035.64	85.293	1,035.64	85.714	1,035.64	84.9622	1,035.64	85.5208	1,035.64	83.7839	1,035.64	84.5031	1,035.64	81.8303	1,035.64	82.3482	1,035.64	79.8731	1,035.64	79.1525	1,035.64	78.7269	1,035.64	75.6868	1,035.64	78.3063	1,035.64	73.1055	1,035.64	78.1613	1,035.64	71.8026	1,035.64	77.9167	1,035.64	73.6724	1,035.64	76.7872	1,035.64	75.7058	1,035.64	73.2536	1,035.64	76.3301	1,035.64	68.6643	1,035.64	76.794	1,035.64	73.329	1,035.64	76.1207	1,035.64	76.3198	1,035.64	75.7252	1,035.64	76.3731	1,035.64	77.1308	1,035.64	75.0155	1,035.64	76.7897	1,035.64	75.1209
1,072.27	84.7648	1,072.27	84.4521	1,072.27	85.3162	1,072.27	84.3719	1,072.27	85.6661	1,072.27	83.7633	1,072.27	85.2309	1,072.27	81.7969	1,072.27	83.6937	1,072.27	79.0373	1,072.27	81.5397	1,072.27	77.3593	1,072.27	79.8261	1,072.27	76.8769	1,072.27	78.424	1,072.27	77.3299	1,072.27	74.9647	1,072.27	77.6987	1,072.27	65.2813	1,072.27	77.3865	1,072.27	71.7813	1,072.27	76.2295	1,072.27	75.5212	1,072.27	74.6199	1,072.27	74.7868	1,072.27	71.0618	1,072.27	73.3648	1,072.27	70.4167	1,072.27	74.5608	1,072.27	75.8868	1,072.27	75.5513	1,072.27	77.0682	1,072.27	74.8652	1,072.27	74.7721	1,072.27	72.9773	1,072.27	72.1362
1,108.89	84.5807	1,108.89	84.4144	1,108.89	84.5749	1,108.89	83.7603	1,108.89	84.5503	1,108.89	82.3378	1,108.89	84.3713	1,108.89	80.4526	1,108.89	83.8306	1,108.89	79.1704	1,108.89	82.6524	1,108.89	78.144	1,108.89	80.215	1,108.89	75.5687	1,108.89	76.6992	1,108.89	72.8229	1,108.89	74.9396	1,108.89	74.5421	1,108.89	73.8069	1,108.89	77.0651	1,108.89	67.1791	1,108.89	77.8501	1,108.89	70.5873	1,108.89	76.053	1,108.89	76.0687	1,108.89	68.8912	1,108.89	76.9935	1,108.89	69.6875	1,108.89	76.1566	1,108.89	75.9577	1,108.89	73.6484	1,108.89	75.7731	1,108.89	73.9601	1,108.89	73.3877	1,108.89	74.9447	1,108.89	73.4681
1,148.44	82.9562	1,148.44	82.812	1,148.44	83.2275	1,148.44	82.3028	1,148.44	83.5483	1,148.44	81.0961	1,148.44	83.435	1,148.44	79.4156	1,148.44	82.5302	1,148.44	77.9353	1,148.44	80.7257	1,148.44	76.3012	1,148.44	78.4272	1,148.44	73.9508	1,148.44	76.4372	1,148.44	71.8689	1,148.44	74.45	1,148.44	71.8637	1,148.44	70.6284	1,148.44	73.553	1,148.44	66.6177	1,148.44	75.9671	1,148.44	70.1307	1,148.44	77.5554	1,148.44	72.529	1,148.44	75.9516	1,148.44	74.3368	1,148.44	65.3366	1,148.44	73.9914	1,148.44	70.8629	1,148.44	72.9936	1,148.44	74.0015	1,148.44	72.2322	1,148.44	72.2114	1,148.44	70.0219	1,148.44	69.1595
1,189.45	82.8895	1,189.45	82.3279	1,189.45	82.4754	1,189.45	80.8824	1,189.45	81.6504	1,189.45	79.3899	1,189.45	81.2515	1,189.45	78.7423	1,189.45	81.3447	1,189.45	78.5269	1,189.45	81.0059	1,189.45	77.7538	1,189.45	79.4321	1,189.45	76.218	1,189.45	76.6052	1,189.45	73.6734	1,189.45	73.5473	1,189.45	70.478	1,189.45	71.6408	1,189.45	68.5242	1,189.45	67.9574	1,189.45	73.5973	1,189.45	49.5591	1,189.45	76.5017	1,189.45	69.2584	1,189.45	73.418	1,189.45	74.5206	1,189.45	57.8604	1,189.45	75.9676	1,189.45	72.3211	1,189.45	74.1443	1,189.45	73.8884	1,189.45	71.7477	1,189.45	71.7854	1,189.45	71.3131	1,189.45	70.119
1,230.47	81.2023	1,230.47	80.736	1,230.47	81.4252	1,230.47	79.9286	1,230.47	81.158	1,230.47	78.3703	1,230.47	80.4913	1,230.47	76.8362	1,230.47	79.7501	1,230.47	76.2263	1,230.47	78.8381	1,230.47	75.8919	1,230.47	77.2683	1,230.47	75.8968	1,230.47	75.1259	1,230.47	75.2874	1,230.47	73.9917	1,230.47	73.3697	1,230.47	74.236	1,230.47	69.0286	1,230.47	73.241	1,230.47	53.7779	1,230.47	70.5755	1,230.47	73.2578	1,230.47	63.2741	1,230.47	76.0363	1,230.47	67.9566	1,230.47	70.4055	1,230.47	73.4005	1,230.47	69.7537	1,230.47	74.1539	1,230.47	74.8138	1,230.47	73.364	1,230.47	74.1523	1,230.47	71.3175	1,230.47	71.4865
1,274.41	81.8984	1,274.41	81.2118	1,274.41	82.1085	1,274.41	80.231	1,274.41	81.7488	1,274.41	79.1601	1,274.41	80.9559	1,274.41	78.0489	1,274.41	79.7694	1,274.41	76.382	1,274.41	78.3776	1,274.41	73.7106	1,274.41	77.5353	1,274.41	70.8345	1,274.41	76.665	1,274.41	69.0596	1,274.41	74.0729	1,274.41	71.7732	1,274.41	68.433	1,274.41	75.4326	1,274.41	64.8161	1,274.41	74.8438	1,274.41	70.1526	1,274.41	66.9845	1,274.41	70.5232	1,274.41	67.0077	1,274.41	69.5481	1,274.41	67.4161	1,274.41	71.8885	1,274.41	66.6506	1,274.41	72.5395	1,274.41	72.2186	1,274.41	73.1292	1,274.41	73.8	1,274.41	73.338	1,274.41	73.1234
1,319.82	81.5943	1,319.82	81.1531	1,319.82	81.9208	1,319.82	80.3167	1,319.82	81.9193	1,319.82	79.2918	1,319.82	81.335	1,319.82	78.916	1,319.82	80.6017	1,319.82	78.3921	1,319.82	80.1698	1,319.82	76.561	1,319.82	79.6957	1,319.82	73.5887	1,319.82	78.5416	1,319.82	69.2669	1,319.82	75.9834	1,319.82	63.3213	1,319.82	73.3408	1,319.82	66.5412	1,319.82	71.2066	1,319.82	72.483	1,319.82	65.8026	1,319.82	75.6732	1,319.82	71.1345	1,319.82	74.8146	1,319.82	74.7819	1,319.82	64.9182	1,319.82	73.9101	1,319.82	67.6554	1,319.82	71.9309	1,319.82	72.0496	1,319.82	71.7357	1,319.82	71.3973	1,319.82	71.1537	1,319.82	70.033
1,366.7	81.2902	1,366.7	81.032	1,366.7	81.8613	1,366.7	80.9694	1,366.7	81.9057	1,366.7	80.4312	1,366.7	80.9778	1,366.7	79.0303	1,366.7	80.0546	1,366.7	76.4178	1,366.7	79.6134	1,366.7	74.3917	1,366.7	78.3009	1,366.7	75.6176	1,366.7	76.255	1,366.7	76.2243	1,366.7	75.6979	1,366.7	74.6504	1,366.7	74.4125	1,366.7	71.8393	1,366.7	67.643	1,366.7	70.5036	1,366.7	49.9226	1,366.7	72.9268	1,366.7	63.8176	1,366.7	74.0205	1,366.7	69.1482	1,366.7	70.1877	1,366.7	71.7322	1,366.7	65.123	1,366.7	71.1698	1,366.7	72.1878	1,366.7	70.0841	1,366.7	71.098	1,366.7	68.374	1,366.7	67.1309
1,413.57	82.4992	1,413.57	82.6815	1,413.57	82.1298	1,413.57	82.2032	1,413.57	82.0324	1,413.57	81.7062	1,413.57	81.6347	1,413.57	81.197	1,413.57	80.6411	1,413.57	79.0561	1,413.57	79.1243	1,413.57	75.4933	1,413.57	77.5034	1,413.57	73.7093	1,413.57	77.0173	1,413.57	73.8848	1,413.57	75.1334	1,413.57	75.1516	1,413.57	70.9331	1,413.57	76.5987	1,413.57	73.3716	1,413.57	73.281	1,413.57	72.0563	1,413.57	71.6793	1,413.57	64.1407	1,413.57	77.6333	1,413.57	68.8019	1,413.57	74.0575	1,413.57	72.8139	1,413.57	63.8787	1,413.57	72.4145	1,413.57	74.3603	1,413.57	70.7519	1,413.57	72.8722	1,413.57	69.8229	1,413.57	68.4873
1,463.38	82.9102	1,463.38	82.9445	1,463.38	82.7702	1,463.38	81.9455	1,463.38	82.595	1,463.38	80.6839	1,463.38	81.7114	1,463.38	79.8711	1,463.38	80.2278	1,463.38	78.4827	1,463.38	78.54	1,463.38	77.5757	1,463.38	77.5164	1,463.38	75.4565	1,463.38	77.4084	1,463.38	74.0078	1,463.38	76.2598	1,463.38	70.0917	1,463.38	72.2527	1,463.38	72.1523	1,463.38	66.4808	1,463.38	75.3582	1,463.38	72.116	1,463.38	71.7948	1,463.38	66.7509	1,463.38	74.0452	1,463.38	68.2527	1,463.38	74.5142	1,463.38	72.9959	1,463.38	62.5884	1,463.38	72.5481	1,463.38	73.3931	1,463.38	71.7819	1,463.38	74.1386	1,463.38	68.3959	1,463.38	68.6118
1,516.11	83.044	1,516.11	82.8617	1,516.11	82.6644	1,516.11	81.775	1,516.11	82.4713	1,516.11	80.8238	1,516.11	81.9658	1,516.11	79.8433	1,516.11	80.6012	1,516.11	78.3394	1,516.11	78.8072	1,516.11	76.7934	1,516.11	78.2111	1,516.11	72.9733	1,516.11	77.9834	1,516.11	65.1192	1,516.11	75.9669	1,516.11	62.5351	1,516.11	71.5123	1,516.11	63.671	1,516.11	64.771	1,516.11	74.1884	1,516.11	67.9869	1,516.11	72.7935	1,516.11	70.8964	1,516.11	69.909	1,516.11	64.9757	1,516.11	73.3867	1,516.11	68.5068	1,516.11	68.5995	1,516.11	72.0059	1,516.11	66.842	1,516.11	70.3878	1,516.11	70.7154	1,516.11	68.5613	1,516.11	68.3319
1,568.85	82.7483	1,568.85	82.6528	1,568.85	81.7953	1,568.85	81.8205	1,568.85	80.9298	1,568.85	81.5234	1,568.85	80.9546	1,568.85	79.6766	1,568.85	80.9436	1,568.85	77.0503	1,568.85	80.0145	1,568.85	77.3887	1,568.85	79.3877	1,568.85	75.2376	1,568.85	77.5672	1,568.85	71.0174	1,568.85	75.1714	1,568.85	70.225	1,568.85	74.6643	1,568.85	61.83	1,568.85	68.5433	1,568.85	65.8275	1,568.85	55.3719	1,568.85	73.8772	1,568.85	64.7251	1,568.85	74.9354	1,568.85	62.0534	1,568.85	74.5253	1,568.85	66.013	1,568.85	66.3214	1,568.85	70.5659	1,568.85	70.1971	1,568.85	71.1019	1,568.85	72.6036	1,568.85	68.6944	1,568.85	68.1881
1,624.51	81.9444	1,624.51	81.3338	1,624.51	82.344	1,624.51	82.3343	1,624.51	81.0063	1,624.51	81.56	1,624.51	79.529	1,624.51	78.4421	1,624.51	80.7247	1,624.51	77.5537	1,624.51	81.1482	1,624.51	77.2997	1,624.51	78.6169	1,624.51	76.0891	1,624.51	76.7402	1,624.51	74.0254	1,624.51	76.2424	1,624.51	68.1282	1,624.51	73.388	1,624.51	67.5542	1,624.51	71.0637	1,624.51	67.3711	1,624.51	67.2274	1,624.51	65.3917	1,624.51	62.8585	1,624.51	71.5406	1,624.51	65.5692	1,624.51	73.5888	1,624.51	70.7733	1,624.51	67.2383	1,624.51	71.6546	1,624.51	73.0525	1,624.51	68.4107	1,624.51	74.9228	1,624.51	60.8344	1,624.51	68.3817
1,681.64	81.4103	1,681.64	82.2437	1,681.64	81.5988	1,681.64	83.2779	1,681.64	81.3292	1,681.64	82.3736	1,681.64	80.5097	1,681.64	80.1298	1,681.64	80.8746	1,681.64	78.4239	1,681.64	81.1964	1,681.64	75.8822	1,681.64	79.3536	1,681.64	74.9413	1,681.64	77.2058	1,681.64	75.2981	1,681.64	75.6227	1,681.64	73.2056	1,681.64	71.7304	1,681.64	72.4639	1,681.64	67.1524	1,681.64	66.93	1,681.64	66.9839	1,681.64	71.2435	1,681.64	73.4187	1,681.64	71.4604	1,681.64	64.1958	1,681.64	73.477	1,681.64	71.3779	1,681.64	68.0274	1,681.64	72.0785	1,681.64	72.4974	1,681.64	70.9505	1,681.64	73.38	1,681.64	67.1929	1,681.64	66.2644
1,741.7	83.4468	1,741.7	83.3776	1,741.7	82.9532	1,741.7	82.7414	1,741.7	82.2452	1,741.7	82.2503	1,741.7	81.8384	1,741.7	81.2806	1,741.7	81.9809	1,741.7	80.4808	1,741.7	81.9093	1,741.7	78.349	1,741.7	81.0085	1,741.7	75.1368	1,741.7	79.1955	1,741.7	76.1032	1,741.7	77.2596	1,741.7	73.9277	1,741.7	75.1102	1,741.7	74.2909	1,741.7	72.8528	1,741.7	68.6719	1,741.7	62.0475	1,741.7	69.6133	1,741.7	70.9197	1,741.7	74.7058	1,741.7	71.1112	1,741.7	75.4061	1,741.7	66.3404	1,741.7	69.4813	1,741.7	71.7402	1,741.7	69.9537	1,741.7	70.0826	1,741.7	73.6562	1,741.7	68.5956	1,741.7	71.7892
1,803.22	85.4993	1,803.22	85.4046	1,803.22	83.7078	1,803.22	84.0912	1,803.22	82.7645	1,803.22	83.2073	1,803.22	82.4642	1,803.22	82.2753	1,803.22	82.1415	1,803.22	81.019	1,803.22	81.8962	1,803.22	79.3798	1,803.22	80.9378	1,803.22	78.8472	1,803.22	78.016	1,803.22	78.0629	1,803.22	76.2015	1,803.22	71.3407	1,803.22	74.4183	1,803.22	68.8587	1,803.22	69.7019	1,803.22	70.2996	1,803.22	65.1263	1,803.22	68.2909	1,803.22	71.7674	1,803.22	74.9435	1,803.22	74.3773	1,803.22	76.4327	1,803.22	63.6413	1,803.22	68.1092	1,803.22	69.2016	1,803.22	69.9255	1,803.22	67.1693	1,803.22	75.6796	1,803.22	65.8832	1,803.22	71.4101
1,866.21	84.7106	1,866.21	85.673	1,866.21	83.4761	1,866.21	84.4506	1,866.21	83.6266	1,866.21	82.8068	1,866.21	83.5326	1,866.21	83.473	1,866.21	81.99	1,866.21	82.1597	1,866.21	81.4969	1,866.21	79.8766	1,866.21	80.8861	1,866.21	78.2116	1,866.21	78.3147	1,866.21	74.5436	1,866.21	77.1941	1,866.21	70.262	1,866.21	76.7919	1,866.21	71.6394	1,866.21	75.6817	1,866.21	64.6126	1,866.21	72.7261	1,866.21	66.4653	1,866.21	66.489	1,866.21	72.1612	1,866.21	68.3281	1,866.21	77.0198	1,866.21	71.5603	1,866.21	73.0515	1,866.21	72.1918	1,866.21	65.7716	1,866.21	68.4504	1,866.21	74.0686	1,866.21	65.2652	1,866.21	70.2517
1,932.13	84.1056	1,932.13	83.62	1,932.13	83.837	1,932.13	84.4059	1,932.13	83.8115	1,932.13	84.5034	1,932.13	84.4125	1,932.13	81.4483	1,932.13	83.8027	1,932.13	80.1455	1,932.13	83.126	1,932.13	78.5876	1,932.13	82.1717	1,932.13	78.0312	1,932.13	80.6562	1,932.13	74.9727	1,932.13	76.7617	1,932.13	72.7394	1,932.13	72.7986	1,932.13	71.9151	1,932.13	76.5411	1,932.13	64.885	1,932.13	73.5919	1,932.13	68.5836	1,932.13	66.8445	1,932.13	73.2416	1,932.13	69.0662	1,932.13	77.3025	1,932.13	73.2642	1,932.13	74.2065	1,932.13	72.0723	1,932.13	66.1575	1,932.13	68.9709	1,932.13	73.9933	1,932.13	64.303	1,932.13	68.9402
1,999.51	84.9659	1,999.51	84.6873	1,999.51	84.6344	1,999.51	85.417	1,999.51	83.6648	1,999.51	84.3635	1,999.51	84.1257	1,999.51	82.1717	1,999.51	84.1181	1,999.51	80.8902	1,999.51	84.1046	1,999.51	79.3995	1,999.51	82.8721	1,999.51	79.1798	1,999.51	80.2363	1,999.51	76.4492	1,999.51	77.4048	1,999.51	75.3484	1,999.51	70.9111	1,999.51	72.3076	1,999.51	74.1047	1,999.51	70.1701	1,999.51	76.5327	1,999.51	65.76	1,999.51	65.8976	1,999.51	67.4512	1,999.51	68.0664	1,999.51	75.8716	1,999.51	74.4632	1,999.51	75.0753	1,999.51	74.3584	1,999.51	58.8088	1,999.51	70.5705	1,999.51	72.6074	1,999.51	62.4205	1,999.51	66.1696
2,069.82	85.6252	2,069.82	85.8876	2,069.82	85.4919	2,069.82	85.661	2,069.82	84.3998	2,069.82	83.7844	2,069.82	83.5799	2,069.82	83.5727	2,069.82	84.2438	2,069.82	82.4555	2,069.82	84.8003	2,069.82	79.8737	2,069.82	82.3496	2,069.82	77.6561	2,069.82	80.3638	2,069.82	74.1438	2,069.82	76.7288	2,069.82	75.0053	2,069.82	73.9872	2,069.82	72.594	2,069.82	73.2414	2,069.82	70.187	2,069.82	73.905	2,069.82	66.1394	2,069.82	69.4996	2,069.82	68.2134	2,069.82	53.8484	2,069.82	75.0445	2,069.82	73.5352	2,069.82	75.6551	2,069.82	74.9097	2,069.82	54.4261	2,069.82	70.4087	2,069.82	73.3773	2,069.82	54.4546	2,069.82	67.1846
2,143.07	85.0592	2,143.07	86.2206	2,143.07	85.4258	2,143.07	85.6833	2,143.07	85.5008	2,143.07	84.7226	2,143.07	84.3159	2,143.07	84.5309	2,143.07	84.5171	2,143.07	82.1036	2,143.07	84.2186	2,143.07	78.9047	2,143.07	82.6883	2,143.07	76.836	2,143.07	81.212	2,143.07	76.6806	2,143.07	78.9866	2,143.07	73.2403	2,143.07	76.7492	2,143.07	73.4018	2,143.07	73.7933	2,143.07	74.2597	2,143.07	70.0624	2,143.07	67.6753	2,143.07	67.2567	2,143.07	65.7888	2,143.07	58.2606	2,143.07	74.3285	2,143.07	71.8257	2,143.07	76.5786	2,143.07	75.419	2,143.07	60.2554	2,143.07	69.9272	2,143.07	73.205	2,143.07	54.8556	2,143.07	69.334
2,219.24	84.7628	2,219.24	84.9821	2,219.24	84.679	2,219.24	85.7644	2,219.24	85.7947	2,219.24	85.902	2,219.24	85.8807	2,219.24	84.1455	2,219.24	85.0145	2,219.24	81.6024	2,219.24	84.386	2,219.24	79.2015	2,219.24	82.2937	2,219.24	75.5446	2,219.24	80.5569	2,219.24	73.3345	2,219.24	77.6983	2,219.24	73.2963	2,219.24	75.9573	2,219.24	71.8779	2,219.24	74.2835	2,219.24	73.8459	2,219.24	71.9438	2,219.24	71.4	2,219.24	57.0295	2,219.24	62.4733	2,219.24	65.9984	2,219.24	73.2113	2,219.24	68.2076	2,219.24	76.7276	2,219.24	74.9216	2,219.24	64.9863	2,219.24	67.8191	2,219.24	71.8268	2,219.24	60.1286	2,219.24	67.2588
2,296.88	85.1966	2,296.88	85.6772	2,296.88	84.743	2,296.88	85.9594	2,296.88	85.12	2,296.88	85.8024	2,296.88	85.5492	2,296.88	83.8574	2,296.88	85.0217	2,296.88	81.0259	2,296.88	84.6583	2,296.88	79.4831	2,296.88	83.574	2,296.88	75.8866	2,296.88	80.0239	2,296.88	76.3879	2,296.88	73.807	2,296.88	74.6848	2,296.88	75.1933	2,296.88	71.2684	2,296.88	72.7075	2,296.88	72.0591	2,296.88	72.2694	2,296.88	73.7106	2,296.88	68.2268	2,296.88	67.2634	2,296.88	64.3231	2,296.88	72.0337	2,296.88	63.9436	2,296.88	77.1201	2,296.88	73.0333	2,296.88	65.3713	2,296.88	66.9077	2,296.88	70.6981	2,296.88	42.6966	2,296.88	63.2871
2,378.91	86.1239	2,378.91	86.6453	2,378.91	85.919	2,378.91	86.3154	2,378.91	85.8567	2,378.91	85.272	2,378.91	85.6347	2,378.91	84.0892	2,378.91	85.3598	2,378.91	81.6282	2,378.91	84.4763	2,378.91	80.4749	2,378.91	82.0727	2,378.91	76.3899	2,378.91	80.5141	2,378.91	66.9594	2,378.91	79.5889	2,378.91	63.7232	2,378.91	77.6749	2,378.91	67.1732	2,378.91	71.5425	2,378.91	72.288	2,378.91	55.2498	2,378.91	74.2012	2,378.91	64.6762	2,378.91	69.7507	2,378.91	68.0598	2,378.91	68.7824	2,378.91	55.506	2,378.91	77.445	2,378.91	71.5845	2,378.91	69.8585	2,378.91	64.1741	2,378.91	68.7676	2,378.91	54.9406	2,378.91	66.5313
2,462.4	85.7091	2,462.4	86.546	2,462.4	85.4573	2,462.4	86.4458	2,462.4	86.0078	2,462.4	85.3149	2,462.4	86.1175	2,462.4	83.97	2,462.4	86.5244	2,462.4	83.8692	2,462.4	84.3177	2,462.4	78.8219	2,462.4	82.1337	2,462.4	75.5148	2,462.4	81.0407	2,462.4	75.1979	2,462.4	75.7802	2,462.4	66.9413	2,462.4	73.0059	2,462.4	72.3697	2,462.4	69.281	2,462.4	68.9178	2,462.4	66.1598	2,462.4	73.4431	2,462.4	60.7755	2,462.4	72.3038	2,462.4	69.622	2,462.4	64.469	2,462.4	60.1182	2,462.4	76.5001	2,462.4	71.5031	2,462.4	70.8855	2,462.4	65.8373	2,462.4	69.6721	2,462.4	57.1885	2,462.4	67.4827
2,548.83	85.6949	2,548.83	85.8225	2,548.83	85.5622	2,548.83	85.7999	2,548.83	85.3863	2,548.83	86.0988	2,548.83	86.2658	2,548.83	84.4229	2,548.83	86.3711	2,548.83	82.1583	2,548.83	83.4679	2,548.83	78.0506	2,548.83	82.9588	2,548.83	77.3873	2,548.83	79.1592	2,548.83	71.9319	2,548.83	76.574	2,548.83	74.4921	2,548.83	75.3716	2,548.83	68.3187	2,548.83	58.0445	2,548.83	66.1939	2,548.83	60.467	2,548.83	71.8637	2,548.83	66.4485	2,548.83	74.223	2,548.83	65.0726	2,548.83	56.4483	2,548.83	66.6246	2,548.83	75.7939	2,548.83	70.7929	2,548.83	73.0044	2,548.83	68.6336	2,548.83	67.6087	2,548.83	51.2571	2,548.83	66.0356
2,639.65	86.2464	2,639.65	86.0885	2,639.65	86.0039	2,639.65	86.0726	2,639.65	85.7025	2,639.65	86.0046	2,639.65	85.9484	2,639.65	83.6767	2,639.65	85.9575	2,639.65	80.4423	2,639.65	83.1261	2,639.65	79.4355	2,639.65	82.3325	2,639.65	77.9283	2,639.65	79.4406	2,639.65	76.4681	2,639.65	79.5492	2,639.65	71.0155	2,639.65	72.8606	2,639.65	66.0486	2,639.65	69.2883	2,639.65	65.1574	2,639.65	68.4784	2,639.65	69.8631	2,639.65	56.0745	2,639.65	74.1941	2,639.65	63.8485	2,639.65	65.8534	2,639.65	64.2423	2,639.65	75.9756	2,639.65	73.0205	2,639.65	73.442	2,639.65	69.809	2,639.65	68.1084	2,639.65	48.0678	2,639.65	66.2726
2,731.93	85.7496	2,731.93	85.7317	2,731.93	85.9442	2,731.93	86.0878	2,731.93	86.305	2,731.93	84.5533	2,731.93	85.7284	2,731.93	82.8997	2,731.93	85.074	2,731.93	81.3622	2,731.93	83.542	2,731.93	80.4654	2,731.93	82.7086	2,731.93	76.5575	2,731.93	78.6935	2,731.93	72.6164	2,731.93	78.5408	2,731.93	71.9702	2,731.93	69.2949	2,731.93	69.8425	2,731.93	70.6725	2,731.93	63.6506	2,731.93	69.0728	2,731.93	67.9005	2,731.93	64.7492	2,731.93	73.9299	2,731.93	62.6805	2,731.93	70.9921	2,731.93	62.7683	2,731.93	74.4189	2,731.93	71.4557	2,731.93	73.8914	2,731.93	66.9867	2,731.93	63.8904	2,731.93	59.9356	2,731.93	64.8143
2,828.61	85.8739	2,828.61	85.5657	2,828.61	86.0215	2,828.61	85.4924	2,828.61	85.6173	2,828.61	84.3298	2,828.61	85.2518	2,828.61	83.3833	2,828.61	83.5436	2,828.61	82.0198	2,828.61	83.7535	2,828.61	79.8892	2,828.61	80.8944	2,828.61	78.2347	2,828.61	80.2163	2,828.61	74.9226	2,828.61	79.3505	2,828.61	72.0759	2,828.61	69.5411	2,828.61	72.3936	2,828.61	75.6626	2,828.61	69.5972	2,828.61	73.6119	2,828.61	64.9654	2,828.61	62.2256	2,828.61	72.4325	2,828.61	60.7738	2,828.61	71.9747	2,828.61	54.3177	2,828.61	72.3754	2,828.61	71.0145	2,828.61	74.3466	2,828.61	61.9412	2,828.61	64.6576	2,828.61	62.9543	2,828.61	64.3
2,928.22	85.2171	2,928.22	85.0808	2,928.22	86.2552	2,928.22	85.1756	2,928.22	86.1358	2,928.22	84.7141	2,928.22	84.8424	2,928.22	82.6492	2,928.22	83.551	2,928.22	81.249	2,928.22	83.3815	2,928.22	79.1043	2,928.22	81.8262	2,928.22	76.7417	2,928.22	81.3594	2,928.22	76.9061	2,928.22	75.3483	2,928.22	72.8281	2,928.22	74.4269	2,928.22	68.9317	2,928.22	78.6441	2,928.22	67.1908	2,928.22	71.0498	2,928.22	67.3015	2,928.22	63.6029	2,928.22	71.3844	2,928.22	58.1184	2,928.22	72.8158	2,928.22	57.4534	2,928.22	70.1576	2,928.22	69.8488	2,928.22	74.0894	2,928.22	65.9498	2,928.22	63.1242	2,928.22	61.7849	2,928.22	66.2035
3,030.76	84.7453	3,030.76	84.6953	3,030.76	85.9019	3,030.76	84.5712	3,030.76	85.8919	3,030.76	83.8137	3,030.76	84.7922	3,030.76	82.9097	3,030.76	83.6947	3,030.76	81.4705	3,030.76	82.4643	3,030.76	79.3977	3,030.76	79.4101	3,030.76	78.6599	3,030.76	78.7831	3,030.76	72.6744	3,030.76	72.3971	3,030.76	65.4706	3,030.76	78.2112	3,030.76	68.9112	3,030.76	78.3159	3,030.76	68.8884	3,030.76	68.8405	3,030.76	66.5929	3,030.76	58.8335	3,030.76	69.9979	3,030.76	45.5467	3,030.76	72.2238	3,030.76	56.9734	3,030.76	66.8763	3,030.76	70.0497	3,030.76	73.8877	3,030.76	66.9204	3,030.76	52.7178	3,030.76	62.795	3,030.76	54.7498
3,137.7	84.8752	3,137.7	84.9497	3,137.7	86.2387	3,137.7	84.6409	3,137.7	85.6821	3,137.7	83.495	3,137.7	83.959	3,137.7	82.6144	3,137.7	83.6894	3,137.7	81.6611	3,137.7	82.8283	3,137.7	79.4431	3,137.7	79.8238	3,137.7	76.3585	3,137.7	77.8879	3,137.7	71.9514	3,137.7	75.4423	3,137.7	70.66	3,137.7	78.59	3,137.7	70.3296	3,137.7	75.1499	3,137.7	68.573	3,137.7	67.8896	3,137.7	64.6766	3,137.7	61.9973	3,137.7	68.0145	3,137.7	51.241	3,137.7	73.6103	3,137.7	54.061	3,137.7	63.2545	3,137.7	69.892	3,137.7	73.6743	3,137.7	64.8903	3,137.7	47.9537	3,137.7	61.9629	3,137.7	58.3819
3,249.02	85.2205	3,249.02	85.1605	3,249.02	85.4507	3,249.02	84.2347	3,249.02	85.731	3,249.02	83.9498	3,249.02	84.5328	3,249.02	82.7711	3,249.02	83.2144	3,249.02	81.4164	3,249.02	82.5276	3,249.02	78.4887	3,249.02	80.8367	3,249.02	73.6189	3,249.02	79.1347	3,249.02	74.7045	3,249.02	79.4252	3,249.02	68.8009	3,249.02	77.8425	3,249.02	62.0518	3,249.02	69.0513	3,249.02	66.2745	3,249.02	70.855	3,249.02	65.4648	3,249.02	66.5509	3,249.02	65.6566	3,249.02	54.469	3,249.02	72.6427	3,249.02	60.6694	3,249.02	61.777	3,249.02	66.1286	3,249.02	73.2203	3,249.02	61.0835	3,249.02	50.4573	3,249.02	61.2778	3,249.02	58.7636
3,363.28	85.8166	3,363.28	84.8707	3,363.28	85.66	3,363.28	83.9123	3,363.28	85.4507	3,363.28	83.5308	3,363.28	84.4041	3,363.28	83.1473	3,363.28	81.9939	3,363.28	80.4142	3,363.28	81.0372	3,363.28	76.1354	3,363.28	81.3086	3,363.28	75.2732	3,363.28	80.4132	3,363.28	69.8923	3,363.28	80.0415	3,363.28	64.9116	3,363.28	76.8633	3,363.28	63.3886	3,363.28	69.7862	3,363.28	65.4536	3,363.28	69.456	3,363.28	66.5992	3,363.28	65.8178	3,363.28	62.7101	3,363.28	55.6673	3,363.28	72.1729	3,363.28	63.0025	3,363.28	60.0646	3,363.28	63.6083	3,363.28	72.2511	3,363.28	62.4464	3,363.28	43.6	3,363.28	65.04	3,363.28	57.4283
3,481.93	86.1694	3,481.93	85.6146	3,481.93	86.031	3,481.93	83.9161	3,481.93	85.4106	3,481.93	83.9012	3,481.93	84.0686	3,481.93	82.9721	3,481.93	82.6061	3,481.93	80.0797	3,481.93	80.6756	3,481.93	77.4479	3,481.93	81.405	3,481.93	75.2372	3,481.93	79.8109	3,481.93	71.5219	3,481.93	79.985	3,481.93	72.2009	3,481.93	71.1486	3,481.93	66.8207	3,481.93	65.5645	3,481.93	62.2889	3,481.93	70.1338	3,481.93	66.7472	3,481.93	64.5327	3,481.93	64.329	3,481.93	54.2095	3,481.93	71.7632	3,481.93	55.3005	3,481.93	64.9422	3,481.93	65.3866	3,481.93	72.1591	3,481.93	66.296	3,481.93	54.2603	3,481.93	65.3484	3,481.93	53.4602
3,604.98	86.3713	3,604.98	84.6247	3,604.98	85.9419	3,604.98	83.5963	3,604.98	85.6709	3,604.98	84.484	3,604.98	83.7791	3,604.98	82.8324	3,604.98	82.4275	3,604.98	80.5774	3,604.98	81.5826	3,604.98	77.8068	3,604.98	82.3448	3,604.98	74.885	3,604.98	80.2973	3,604.98	75.0764	3,604.98	76.9006	3,604.98	70.4351	3,604.98	62.7724	3,604.98	66.6987	3,604.98	55.3712	3,604.98	64.495	3,604.98	60.6775	3,604.98	66.4241	3,604.98	64.5515	3,604.98	64.6555	3,604.98	55.9744	3,604.98	71.1437	3,604.98	61.7822	3,604.98	67.7605	3,604.98	65.215	3,604.98	71.1027	3,604.98	61.6423	3,604.98	56.8043	3,604.98	66.5453	3,604.98	39.3419
3,732.42	86.7596	3,732.42	83.6581	3,732.42	85.9956	3,732.42	83.7867	3,732.42	84.9831	3,732.42	84.4059	3,732.42	83.7127	3,732.42	82.5895	3,732.42	81.4577	3,732.42	79.7529	3,732.42	81.9866	3,732.42	77.2923	3,732.42	81.7913	3,732.42	76.3872	3,732.42	78.8912	3,732.42	72.6954	3,732.42	70.2788	3,732.42	69.1014	3,732.42	73.209	3,732.42	68.3681	3,732.42	66.8716	3,732.42	62.2135	3,732.42	66.3147	3,732.42	66.1786	3,732.42	63.0892	3,732.42	67.458	3,732.42	54.0643	3,732.42	69.9433	3,732.42	62.1357	3,732.42	68.6399	3,732.42	60.9475	3,732.42	69.848	3,732.42	59.907	3,732.42	58.4938	3,732.42	65.2241	3,732.42	46.3243
3,864.26	86.3249	3,864.26	84.0467	3,864.26	86.4015	3,864.26	84.2475	3,864.26	83.6272	3,864.26	83.7439	3,864.26	83.1297	3,864.26	81.7449	3,864.26	82.2837	3,864.26	80.7845	3,864.26	82.458	3,864.26	78.4	3,864.26	80.5636	3,864.26	76.8364	3,864.26	78.2136	3,864.26	71.5078	3,864.26	72.2133	3,864.26	71.5326	3,864.26	75.3207	3,864.26	65.5928	3,864.26	73.5086	3,864.26	65.278	3,864.26	70.4541	3,864.26	65.1342	3,864.26	62.7542	3,864.26	67.7541	3,864.26	56.0126	3,864.26	69.7616	3,864.26	55.853	3,864.26	69.5698	3,864.26	59.0387	3,864.26	69.3107	3,864.26	62.0001	3,864.26	45.6348	3,864.26	64.4517	3,864.26	56.8056
4,000.49	86.0825	4,000.49	83.5876	4,000.49	86.0922	4,000.49	84.8514	4,000.49	84.2196	4,000.49	83.7419	4,000.49	82.6456	4,000.49	82.1352	4,000.49	82.0686	4,000.49	81.0807	4,000.49	82.8491	4,000.49	78.866	4,000.49	80.1285	4,000.49	76.4227	4,000.49	77.6336	4,000.49	74.4747	4,000.49	72.6433	4,000.49	70.4361	4,000.49	71.8214	4,000.49	65.2531	4,000.49	73.935	4,000.49	65.6948	4,000.49	70.3095	4,000.49	61.9478	4,000.49	50.2917	4,000.49	68.121	4,000.49	55.5303	4,000.49	68.2832	4,000.49	45.728	4,000.49	70.0898	4,000.49	56.4003	4,000.49	68.454	4,000.49	61.8691	4,000.49	57.7531	4,000.49	64.409	4,000.49	51.4902
4,141.11	85.6937	4,141.11	85.8463	4,141.11	86.5516	4,141.11	84.4655	4,141.11	84.3204	4,141.11	82.9755	4,141.11	82.9555	4,141.11	82.005	4,141.11	82.2176	4,141.11	81.0639	4,141.11	83.1652	4,141.11	78.8286	4,141.11	81.2895	4,141.11	76.5089	4,141.11	75.9912	4,141.11	71.5405	4,141.11	75.9827	4,141.11	67.6455	4,141.11	77.1936	4,141.11	65.447	4,141.11	71.2311	4,141.11	63.2324	4,141.11	65.9132	4,141.11	61.6763	4,141.11	63.349	4,141.11	67.4735	4,141.11	63.6829	4,141.11	66.6278	4,141.11	47.3531	4,141.11	70.5305	4,141.11	61.5	4,141.11	67.3112	4,141.11	57.8426	4,141.11	56.6787	4,141.11	65.0084	4,141.11	53.6804
4,287.6	85.2428	4,287.6	85.3388	4,287.6	86.5172	4,287.6	83.5114	4,287.6	84.6051	4,287.6	81.5467	4,287.6	83.5975	4,287.6	82.3722	4,287.6	82.3048	4,287.6	81.1331	4,287.6	83.2418	4,287.6	79.4857	4,287.6	80.0328	4,287.6	76.3124	4,287.6	74.9147	4,287.6	72.9029	4,287.6	78.363	4,287.6	72.9956	4,287.6	76.4474	4,287.6	67.8128	4,287.6	61.547	4,287.6	61.7351	4,287.6	53.7644	4,287.6	63.9936	4,287.6	66.3133	4,287.6	67.9918	4,287.6	64.8446	4,287.6	65.7434	4,287.6	43.6163	4,287.6	69.6969	4,287.6	57.2554	4,287.6	66.6308	4,287.6	59.8224	4,287.6	57.1951	4,287.6	63.038	4,287.6	59.7012
4,438.48	85.1075	4,438.48	85.3445	4,438.48	86.6295	4,438.48	82.965	4,438.48	85.5642	4,438.48	83.6469	4,438.48	84.1749	4,438.48	82.5813	4,438.48	81.879	4,438.48	80.7648	4,438.48	83.1702	4,438.48	79.1159	4,438.48	76.3029	4,438.48	74.8791	4,438.48	77.1477	4,438.48	72.4098	4,438.48	78.6183	4,438.48	64.0223	4,438.48	71.1393	4,438.48	64.6496	4,438.48	70.5894	4,438.48	61.7725	4,438.48	68.3731	4,438.48	65.8924	4,438.48	62.0934	4,438.48	65.6748	4,438.48	61.6274	4,438.48	65.4679	4,438.48	59.164	4,438.48	69.7713	4,438.48	63.6308	4,438.48	66.2084	4,438.48	52.9042	4,438.48	61.8089	4,438.48	63.2558	4,438.48	59.3158
4,595.21	86.8333	4,595.21	86.578	4,595.21	86.2936	4,595.21	84.2135	4,595.21	85.463	4,595.21	83.2619	4,595.21	84.1812	4,595.21	82.5975	4,595.21	82.7621	4,595.21	80.7938	4,595.21	81.5061	4,595.21	78.6553	4,595.21	75.8287	4,595.21	76.2985	4,595.21	79.0155	4,595.21	70.2342	4,595.21	77.2972	4,595.21	69.0772	4,595.21	67.4329	4,595.21	67.5114	4,595.21	72.0052	4,595.21	60.4073	4,595.21	67.8023	4,595.21	62.4123	4,595.21	55.368	4,595.21	67.4341	4,595.21	50.1755	4,595.21	65.4656	4,595.21	62.9091	4,595.21	69.9587	4,595.21	62.9603	4,595.21	65.646	4,595.21	57.5762	4,595.21	57.5714	4,595.21	63.2485	4,595.21	63.1834
4,756.35	85.8414	4,756.35	86.6704	4,756.35	85.5671	4,756.35	84.1008	4,756.35	86.103	4,756.35	81.9475	4,756.35	84.4284	4,756.35	82.7878	4,756.35	84.0988	4,756.35	81.1663	4,756.35	78.6496	4,756.35	78.0342	4,756.35	80.8189	4,756.35	73.5232	4,756.35	80.5861	4,756.35	69.958	4,756.35	74.9356	4,756.35	66.0112	4,756.35	72.0709	4,756.35	65.4658	4,756.35	63.9709	4,756.35	59.99	4,756.35	57.7339	4,756.35	61.1095	4,756.35	61.0995	4,756.35	67.1358	4,756.35	40.4378	4,756.35	64.1634	4,756.35	62.7123	4,756.35	70.1116	4,756.35	52.21	4,756.35	65.2634	4,756.35	60.6955	4,756.35	52.3448	4,756.35	62.083	4,756.35	61.7693
4,924.8	86.574	4,924.8	86.1079	4,924.8	86.6007	4,924.8	84.101	4,924.8	86.5665	4,924.8	84.3766	4,924.8	84.4983	4,924.8	82.9615	4,924.8	84.5499	4,924.8	80.6962	4,924.8	76.0755	4,924.8	77.352	4,924.8	82.4041	4,924.8	76.9952	4,924.8	79.2425	4,924.8	71.8846	4,924.8	73.8152	4,924.8	68.7307	4,924.8	72.366	4,924.8	67.4275	4,924.8	67.2611	4,924.8	61.5473	4,924.8	61.846	4,924.8	63.7079	4,924.8	64.5925	4,924.8	66.0971	4,924.8	45.3898	4,924.8	66.6566	4,924.8	55.3769	4,924.8	69.5176	4,924.8	58.9004	4,924.8	64.8653	4,924.8	57.7876	4,924.8	50.208	4,924.8	62.4767	4,924.8	63.0401
5,097.66	87.1245	5,097.66	85.9603	5,097.66	85.6633	5,097.66	85.4899	5,097.66	87.339	5,097.66	83.1554	5,097.66	84.4989	5,097.66	82.8267	5,097.66	83.5721	5,097.66	80.7446	5,097.66	80.3389	5,097.66	78.45	5,097.66	82.4646	5,097.66	76.133	5,097.66	76.6239	5,097.66	72.7463	5,097.66	73.6756	5,097.66	69.8779	5,097.66	67.998	5,097.66	62.7064	5,097.66	68.7946	5,097.66	64.8255	5,097.66	58.2198	5,097.66	63.1696	5,097.66	64.7813	5,097.66	55.6748	5,097.66	45.6799	5,097.66	68.2852	5,097.66	49.6879	5,097.66	70.169	5,097.66	61.6903	5,097.66	60.7934	5,097.66	51.4811	5,097.66	52.5468	5,097.66	53.5657	5,097.66	62.9209
5,277.83	87.2952	5,277.83	87.4498	5,277.83	86.5588	5,277.83	85.8122	5,277.83	87.4307	5,277.83	83.1778	5,277.83	85.86	5,277.83	82.721	5,277.83	82.4824	5,277.83	80.9744	5,277.83	82.1738	5,277.83	77.6929	5,277.83	81.2474	5,277.83	78.2064	5,277.83	75.8072	5,277.83	73.4926	5,277.83	73.4955	5,277.83	69.2323	5,277.83	71.0254	5,277.83	65.1883	5,277.83	64.7077	5,277.83	64.2557	5,277.83	55.9817	5,277.83	62.214	5,277.83	65.3965	5,277.83	60.1561	5,277.83	61.7105	5,277.83	68.8801	5,277.83	55.6618	5,277.83	68.4772	5,277.83	61.5771	5,277.83	56.2717	5,277.83	49.9212	5,277.83	53.2529	5,277.83	57.8646	5,277.83	65.9165
5,463.87	87.4899	5,463.87	86.7886	5,463.87	86.0313	5,463.87	84.9467	5,463.87	87.7805	5,463.87	85.1235	5,463.87	86.677	5,463.87	81.6317	5,463.87	80.6613	5,463.87	80.7262	5,463.87	83.2594	5,463.87	79.4291	5,463.87	78.0696	5,463.87	76.7042	5,463.87	75.9445	5,463.87	72.1226	5,463.87	75.0288	5,463.87	68.4867	5,463.87	73.0899	5,463.87	63.3186	5,463.87	66.535	5,463.87	62.2158	5,463.87	52.2735	5,463.87	58.5035	5,463.87	63.4128	5,463.87	61.0551	5,463.87	64.4509	5,463.87	67.8311	5,463.87	57.0468	5,463.87	68.2243	5,463.87	64.456	5,463.87	58.6574	5,463.87	52.2906	5,463.87	46.2188	5,463.87	57.6407	5,463.87	64.4301
5,657.23	87.2111	5,657.23	86.6474	5,657.23	86.3073	5,657.23	86.4128	5,657.23	87.7983	5,657.23	83.8274	5,657.23	85.7433	5,657.23	81.1039	5,657.23	82.1809	5,657.23	81.2486	5,657.23	83.3991	5,657.23	78.1757	5,657.23	77.2103	5,657.23	74.8954	5,657.23	76.4971	5,657.23	70.9291	5,657.23	73.9941	5,657.23	66.8837	5,657.23	72.421	5,657.23	61.426	5,657.23	66.615	5,657.23	64.3725	5,657.23	50.0626	5,657.23	53.8956	5,657.23	57.7367	5,657.23	62.2552	5,657.23	60.0917	5,657.23	67.1592	5,657.23	62.8423	5,657.23	67.0408	5,657.23	59.0224	5,657.23	61.4797	5,657.23	58.0464	5,657.23	56.931	5,657.23	54.7992	5,657.23	63.0546
5,856.45	87.6078	5,856.45	87.194	5,856.45	87.0643	5,856.45	86.6311	5,856.45	86.7557	5,856.45	84.0346	5,856.45	85.0715	5,856.45	82.4016	5,856.45	82.6648	5,856.45	81.0848	5,856.45	82.5676	5,856.45	77.9359	5,856.45	76.6315	5,856.45	73.8564	5,856.45	76.8704	5,856.45	72.0382	5,856.45	75.8903	5,856.45	68.8574	5,856.45	72.7873	5,856.45	64.2196	5,856.45	64.0967	5,856.45	60.0203	5,856.45	48.441	5,856.45	49.2524	5,856.45	53.5297	5,856.45	64.3354	5,856.45	61.8855	5,856.45	65.2299	5,856.45	63.6369	5,856.45	65.0797	5,856.45	47.6527	5,856.45	62.6061	5,856.45	60.9847	5,856.45	63.5033	5,856.45	52.27	5,856.45	62.473
6,062.99	87.5453	6,062.99	87.065	6,062.99	87.8077	6,062.99	86.874	6,062.99	84.8108	6,062.99	83.4964	6,062.99	84.5455	6,062.99	82.4424	6,062.99	85.138	6,062.99	80.7628	6,062.99	82.1522	6,062.99	77.7679	6,062.99	78.6961	6,062.99	76.8219	6,062.99	75.2078	6,062.99	72.5647	6,062.99	77.5314	6,062.99	68.9437	6,062.99	69.3377	6,062.99	68.5717	6,062.99	45.9773	6,062.99	57.1711	6,062.99	63.5392	6,062.99	60.8845	6,062.99	57.5371	6,062.99	64.2805	6,062.99	64.3541	6,062.99	67.6071	6,062.99	57.0527	6,062.99	64.4406	6,062.99	57.5953	6,062.99	60.4872	6,062.99	61.7177	6,062.99	62.8237	6,062.99	62.5823	6,062.99	62.599
6,276.86	87.3822	6,276.86	87.3733	6,276.86	87.5042	6,276.86	87.0038	6,276.86	84.8618	6,276.86	83.1996	6,276.86	85.583	6,276.86	82.4893	6,276.86	85.5766	6,276.86	79.2067	6,276.86	81.0525	6,276.86	79.9553	6,276.86	79.2651	6,276.86	75.9874	6,276.86	77.7803	6,276.86	73.3761	6,276.86	78.0308	6,276.86	67.1289	6,276.86	70.1665	6,276.86	65.4033	6,276.86	61.1636	6,276.86	59.2825	6,276.86	61.8642	6,276.86	61.518	6,276.86	59.8193	6,276.86	62.1927	6,276.86	54.3391	6,276.86	68.7665	6,276.86	56.7034	6,276.86	63.4575	6,276.86	29.2043	6,276.86	48.5681	6,276.86	58.3782	6,276.86	61.2063	6,276.86	63.3715	6,276.86	60.8981
6,498.05	87.0161	6,498.05	87.7177	6,498.05	87.6298	6,498.05	86.7052	6,498.05	88.3439	6,498.05	84.0746	6,498.05	86.6243	6,498.05	81.6964	6,498.05	84.0878	6,498.05	79.2932	6,498.05	80.3393	6,498.05	79.8909	6,498.05	79.1972	6,498.05	76.7081	6,498.05	79.1799	6,498.05	71.3631	6,498.05	75.6565	6,498.05	68.1997	6,498.05	72.2715	6,498.05	62.2342	6,498.05	66.0776	6,498.05	60.3804	6,498.05	63.8336	6,498.05	60.5788	6,498.05	59.8835	6,498.05	60.866	6,498.05	62.3172	6,498.05	68.0351	6,498.05	40.4792	6,498.05	61.0513	6,498.05	58.1711	6,498.05	50.6322	6,498.05	57.3853	6,498.05	62.4439	6,498.05	60.8339	6,498.05	59.9494
6,726.56	87.3699	6,726.56	88.2201	6,726.56	88.8989	6,726.56	86.3794	6,726.56	89.5353	6,726.56	84.5552	6,726.56	87.1708	6,726.56	80.7997	6,726.56	83.1179	6,726.56	80.9322	6,726.56	80.5395	6,726.56	79.6466	6,726.56	79.9246	6,726.56	74.0145	6,726.56	78.3189	6,726.56	71.6269	6,726.56	71.9797	6,726.56	66.4732	6,726.56	73.8947	6,726.56	61.7602	6,726.56	60.9532	6,726.56	62.6566	6,726.56	64.3543	6,726.56	55.1959	6,726.56	56.8131	6,726.56	53.8779	6,726.56	59.1968	6,726.56	64.7375	6,726.56	56.6556	6,726.56	65.2313	6,726.56	56.9923	6,726.56	54.8515	6,726.56	57.7665	6,726.56	60.3652	6,726.56	58.5783	6,726.56	60.042
6,963.87	87.6067	6,963.87	88.0773	6,963.87	88.1863	6,963.87	86.6129	6,963.87	88.2479	6,963.87	84.7	6,963.87	87.4783	6,963.87	81.2949	6,963.87	82.7015	6,963.87	81.1668	6,963.87	80.9171	6,963.87	78.1807	6,963.87	81.3449	6,963.87	75.239	6,963.87	73.6771	6,963.87	70.3528	6,963.87	74.7168	6,963.87	68.3763	6,963.87	67.175	6,963.87	64.7385	6,963.87	64.6218	6,963.87	59.924	6,963.87	62.2073	6,963.87	50.7801	6,963.87	51.9407	6,963.87	53.6487	6,963.87	58.381	6,963.87	63.723	6,963.87	49.3541	6,963.87	67.9767	6,963.87	55.0345	6,963.87	53.3043	6,963.87	56.8761	6,963.87	62.3407	6,963.87	60.9913	6,963.87	60.0887
7,209.96	88.3372	7,209.96	88.1853	7,209.96	86.7005	7,209.96	86.9699	7,209.96	86.4111	7,209.96	84.343	7,209.96	87.6648	7,209.96	82.1448	7,209.96	84.0736	7,209.96	80.2424	7,209.96	80.6586	7,209.96	78.6791	7,209.96	81.2417	7,209.96	76.2162	7,209.96	73.8692	7,209.96	71.4721	7,209.96	76.4226	7,209.96	66.7008	7,209.96	71.237	7,209.96	64.2423	7,209.96	67.3219	7,209.96	60.517	7,209.96	46.7557	7,209.96	54.6928	7,209.96	50.1575	7,209.96	57.4127	7,209.96	57.9359	7,209.96	63.4961	7,209.96	59.8688	7,209.96	70.323	7,209.96	57.3655	7,209.96	52.6249	7,209.96	53.5066	7,209.96	62.9025	7,209.96	62.9931	7,209.96	57.1107
7,464.84	88.5785	7,464.84	87.7688	7,464.84	87.9384	7,464.84	87.1833	7,464.84	87.2636	7,464.84	84.1887	7,464.84	86.5167	7,464.84	82.6926	7,464.84	84.6744	7,464.84	79.8749	7,464.84	81.9286	7,464.84	78.7214	7,464.84	79.1541	7,464.84	74.6902	7,464.84	78.9204	7,464.84	69.1782	7,464.84	73.8075	7,464.84	67.0122	7,464.84	72.4374	7,464.84	57.8275	7,464.84	57.4987	7,464.84	53.0078	7,464.84	61.6432	7,464.84	56.3666	7,464.84	54.9021	7,464.84	53.1449	7,464.84	58.0004	7,464.84	63.3371	7,464.84	60.0212	7,464.84	68.5678	7,464.84	44.3724	7,464.84	51.1397	7,464.84	53.8257	7,464.84	64.3216	7,464.84	61.634	7,464.84	57.1394
7,727.05	88.2731	7,727.05	87.0201	7,727.05	88.7917	7,727.05	86.7353	7,727.05	88.6589	7,727.05	84.1818	7,727.05	85.3749	7,727.05	83.3044	7,727.05	84.7758	7,727.05	80.0604	7,727.05	83.6387	7,727.05	77.8838	7,727.05	75.5808	7,727.05	74.5633	7,727.05	79.8946	7,727.05	66.9538	7,727.05	69.6406	7,727.05	67.4692	7,727.05	69.1137	7,727.05	56.2249	7,727.05	65.9934	7,727.05	57.5331	7,727.05	63.1181	7,727.05	57.311	7,727.05	52.9286	7,727.05	43.7886	7,727.05	56.6109	7,727.05	63.1505	7,727.05	61.7607	7,727.05	65.3382	7,727.05	57.5909	7,727.05	52.0794	7,727.05	51.898	7,727.05	66.6612	7,727.05	62.8231	7,727.05	59.437
7,999.51	88.0762	7,999.51	87.3269	7,999.51	87.9801	7,999.51	86.434	7,999.51	88.1941	7,999.51	84.2094	7,999.51	84.575	7,999.51	82.973	7,999.51	83.7263	7,999.51	79.7686	7,999.51	83.811	7,999.51	77.1519	7,999.51	78.1975	7,999.51	74.0165	7,999.51	77.4833	7,999.51	69.2062	7,999.51	72.576	7,999.51	66.284	7,999.51	69.0583	7,999.51	63.2872	7,999.51	66.4302	7,999.51	62.9849	7,999.51	66.7391	7,999.51	54.9206	7,999.51	57.8376	7,999.51	43.4661	7,999.51	52.0605	7,999.51	62.8459	7,999.51	59.0919	7,999.51	59.8357	7,999.51	59.9783	7,999.51	52.9975	7,999.51	53.6053	7,999.51	66.995	7,999.51	61.4989	7,999.51	57.3046
8,282.23	88.2264	8,282.23	86.8414	8,282.23	87.5072	8,282.23	85.7789	8,282.23	87.4606	8,282.23	84.5998	8,282.23	84.9731	8,282.23	81.7849	8,282.23	83.9994	8,282.23	79.9037	8,282.23	81.4141	8,282.23	76.0084	8,282.23	80.3984	8,282.23	73.2088	8,282.23	70.6749	8,282.23	70.855	8,282.23	72.0706	8,282.23	63.6503	8,282.23	71.5424	8,282.23	65.9831	8,282.23	64.008	8,282.23	58.2268	8,282.23	63.9811	8,282.23	54.6756	8,282.23	57.8704	8,282.23	53.6825	8,282.23	53.1149	8,282.23	59.726	8,282.23	49.3155	8,282.23	58.0863	8,282.23	54.9129	8,282.23	52.7038	8,282.23	50.8633	8,282.23	63.0397	8,282.23	59.4975	8,282.23	53.7063
8,573.73	88.0005	8,573.73	87.2963	8,573.73	88.6466	8,573.73	85.5805	8,573.73	86.6475	8,573.73	84.4467	8,573.73	84.4915	8,573.73	80.8107	8,573.73	84.5293	8,573.73	79.014	8,573.73	78.5597	8,573.73	76.5432	8,573.73	80.117	8,573.73	73.3473	8,573.73	72.6333	8,573.73	69.5685	8,573.73	72.6016	8,573.73	65.601	8,573.73	72.7	8,573.73	64.7298	8,573.73	67.1004	8,573.73	49.1761	8,573.73	64.3272	8,573.73	60.972	8,573.73	57.0014	8,573.73	60.0352	8,573.73	51.2898	8,573.73	57.0242	8,573.73	57.6935	8,573.73	61.0744	8,573.73	45.6669	8,573.73	56.7009	8,573.73	50.4393	8,573.73	56.9614	8,573.73	55.52	8,573.73	48.207
8,876.95	88.0293	8,876.95	86.462	8,876.95	88.5116	8,876.95	84.9211	8,876.95	86.8911	8,876.95	84.4665	8,876.95	84.4423	8,876.95	80.965	8,876.95	84.2465	8,876.95	78.1829	8,876.95	80.0162	8,876.95	77.5341	8,876.95	77.7858	8,876.95	74.3117	8,876.95	77.4878	8,876.95	67.5092	8,876.95	70.3174	8,876.95	64.5271	8,876.95	71.9648	8,876.95	60.4499	8,876.95	70.2755	8,876.95	56.8864	8,876.95	66.1016	8,876.95	61.3334	8,876.95	60.1372	8,876.95	60.1916	8,876.95	56.6189	8,876.95	58.6814	8,876.95	59.541	8,876.95	64.8634	8,876.95	52.5156	8,876.95	60.7446	8,876.95	56.9805	8,876.95	54.0189	8,876.95	57.3237	8,876.95	47.0724
9,188.96	87.4928	9,188.96	86.013	9,188.96	87.8501	9,188.96	85.2369	9,188.96	87.2894	9,188.96	84.159	9,188.96	84.7494	9,188.96	79.9794	9,188.96	83.1728	9,188.96	78.4282	9,188.96	82.1133	9,188.96	77.7471	9,188.96	75.5677	9,188.96	73.0305	9,188.96	77.4512	9,188.96	68.229	9,188.96	71.0433	9,188.96	65.4318	9,188.96	71.4705	9,188.96	57.0349	9,188.96	71.7271	9,188.96	59.6912	9,188.96	69.6988	9,188.96	59.3349	9,188.96	62.2762	9,188.96	60.0097	9,188.96	59.2276	9,188.96	59.3711	9,188.96	55.4737	9,188.96	63.7932	9,188.96	55.1954	9,188.96	61.085	9,188.96	56.087	9,188.96	57.264	9,188.96	58.4128	9,188.96	49.2583
9,514.16	87.8157	9,514.16	85.6637	9,514.16	87.7306	9,514.16	85.4799	9,514.16	86.3642	9,514.16	83.3151	9,514.16	85.1874	9,514.16	79.3875	9,514.16	83.1239	9,514.16	78.2301	9,514.16	81.4804	9,514.16	77.2857	9,514.16	76.4593	9,514.16	72.4745	9,514.16	74.856	9,514.16	68.9624	9,514.16	73.3676	9,514.16	63.1133	9,514.16	70.9787	9,514.16	57.0336	9,514.16	70.3043	9,514.16	59.0936	9,514.16	70.1508	9,514.16	57.1497	9,514.16	62.0567	9,514.16	54.4629	9,514.16	59.34	9,514.16	55.334	9,514.16	51.4163	9,514.16	56.0004	9,514.16	49.2212	9,514.16	57.5267	9,514.16	38.2756	9,514.16	53.5497	9,514.16	30.906	9,514.16	49.0684
9,849.61	86.727	9,849.61	85.7569	9,849.61	86.6859	9,849.61	85.367	9,849.61	84.9666	9,849.61	83.1964	9,849.61	84.7359	9,849.61	79.7449	9,849.61	83.7986	9,849.61	77.7899	9,849.61	78.6452	9,849.61	77.0057	9,849.61	78.913	9,849.61	71.2464	9,849.61	73.9696	9,849.61	65.7017	9,849.61	67.3837	9,849.61	58.757	9,849.61	70.5707	9,849.61	56.4809	9,849.61	70.7092	9,849.61	55.3265	9,849.61	67.3923	9,849.61	55.3509	9,849.61	62.8523	9,849.61	46.4426	9,849.61	37.5413	9,849.61	38.6919	9,849.61	47.4204	9,849.61	57.6383	9,849.61	43.3984	9,849.61	51.6383	9,849.61	41.3161	9,849.61	52.3212	9,849.61	47.5396	9,849.61	50.7511
10,196.8	86.4965	10,196.8	85.6901	10,196.8	86.043	10,196.8	85.4067	10,196.8	85.6957	10,196.8	82.807	10,196.8	84.6995	10,196.8	80.0735	10,196.8	82.6407	10,196.8	78.0446	10,196.8	79.2182	10,196.8	76.124	10,196.8	78.2576	10,196.8	66.0308	10,196.8	73.9747	10,196.8	65.0553	10,196.8	69.5664	10,196.8	59.5849	10,196.8	69.578	10,196.8	55.7886	10,196.8	73.296	10,196.8	50.4227	10,196.8	68.6065	10,196.8	53.1937	10,196.8	65.4435	10,196.8	54.4378	10,196.8	42.789	10,196.8	51.8525	10,196.8	48.7348	10,196.8	59.1362	10,196.8	45.4687	10,196.8	47.6949	10,196.8	51.4455	10,196.8	54.8266	10,196.8	42.8462	10,196.8	46.702
10,555.7	85.1822	10,555.7	84.4943	10,555.7	84.9386	10,555.7	84.1103	10,555.7	84.9932	10,555.7	81.9714	10,555.7	84.6217	10,555.7	79.7676	10,555.7	82.1042	10,555.7	77.2215	10,555.7	80.8886	10,555.7	73.4968	10,555.7	76.6833	10,555.7	70.3572	10,555.7	72.6474	10,555.7	66.5451	10,555.7	69.4797	10,555.7	63.0471	10,555.7	69.9243	10,555.7	56.4021	10,555.7	72.4906	10,555.7	54.0815	10,555.7	69.4139	10,555.7	51.605	10,555.7	64.9627	10,555.7	53.5673	10,555.7	54.7171	10,555.7	54.45	10,555.7	52.1563	10,555.7	58.7486	10,555.7	50.4948	10,555.7	54.2936	10,555.7	48.907	10,555.7	51.1089	10,555.7	51.1388	10,555.7	50.6557
10,927.7	85.0612	10,927.7	84.6333	10,927.7	84.6303	10,927.7	83.9725	10,927.7	84.6508	10,927.7	81.8358	10,927.7	84.2976	10,927.7	79.2669	10,927.7	82.1148	10,927.7	75.5096	10,927.7	80.6914	10,927.7	73.775	10,927.7	74.6843	10,927.7	69.8691	10,927.7	73.3073	10,927.7	62.5374	10,927.7	66.165	10,927.7	58.7966	10,927.7	66.7198	10,927.7	50.0325	10,927.7	72.4858	10,927.7	57.3651	10,927.7	70.7732	10,927.7	51.7146	10,927.7	66.7279	10,927.7	54.0243	10,927.7	52.8255	10,927.7	52.0158	10,927.7	44.5629	10,927.7	55.1832	10,927.7	48.8483	10,927.7	51.2828	10,927.7	46.1411	10,927.7	55.5735	10,927.7	46.9556	10,927.7	48.1935
11,313	85.2483	11,313	84.8094	11,313	85.6342	11,313	83.5722	11,313	85.7339	11,313	81.4896	11,313	83.7005	11,313	78.6004	11,313	81.5871	11,313	73.881	11,313	79.6669	11,313	74.1426	11,313	74.0434	11,313	65.2281	11,313	69.1634	11,313	63.2353	11,313	67.6894	11,313	57.9644	11,313	67.3563	11,313	51.8178	11,313	72.7132	11,313	56.994	11,313	70.5025	11,313	50.6512	11,313	65.7682	11,313	46.8372	11,313	44.4282	11,313	48.9661	11,313	48.0736	11,313	45.9128	11,313	48.6428	11,313	42.6912	11,313	30.4631	11,313	56.6097	11,313	49.7231	11,313	46.3206
11,712.9	85.1058	11,712.9	85.1629	11,712.9	85.3636	11,712.9	83.3932	11,712.9	85.7814	11,712.9	81.1556	11,712.9	83.3815	11,712.9	78.1708	11,712.9	81.9503	11,712.9	74.2609	11,712.9	78.6003	11,712.9	73.091	11,712.9	75.0978	11,712.9	68.8434	11,712.9	70.7703	11,712.9	64.3313	11,712.9	68.7208	11,712.9	56.4823	11,712.9	68.9656	11,712.9	53.5976	11,712.9	72.7241	11,712.9	54.2635	11,712.9	71.1695	11,712.9	47.402	11,712.9	65.9757	11,712.9	53.6492	11,712.9	48.3657	11,712.9	52.3514	11,712.9	47.9126	11,712.9	53.9843	11,712.9	43.7147	11,712.9	40.0915	11,712.9	49.2655	11,712.9	54.7724	11,712.9	49.0813	11,712.9	33.5114
12,126	85.042	12,126	85.1336	12,126	84.823	12,126	83.5636	12,126	84.7426	12,126	81.5356	12,126	81.8003	12,126	78.1782	12,126	82.166	12,126	74.4657	12,126	78.0148	12,126	74.0081	12,126	73.5362	12,126	67.286	12,126	72.5273	12,126	61.5036	12,126	65.605	12,126	54.3082	12,126	66.0129	12,126	52.19	12,126	72.419	12,126	51.7293	12,126	70.7204	12,126	49.8674	12,126	67.3889	12,126	52.8919	12,126	42.549	12,126	52.7992	12,126	42.6894	12,126	57.5988	12,126	46.2451	12,126	51.9201	12,126	28.4845	12,126	51.659	12,126	47.8747	12,126	40.3786
12,553.7	84.1459	12,553.7	85.1471	12,553.7	84.4724	12,553.7	83.0674	12,553.7	85.1553	12,553.7	81.8798	12,553.7	81.5887	12,553.7	78.4857	12,553.7	82.1396	12,553.7	74.3382	12,553.7	77.8776	12,553.7	74.5694	12,553.7	74.7255	12,553.7	66.9198	12,553.7	73.0358	12,553.7	61.8735	12,553.7	61.9153	12,553.7	58.6764	12,553.7	67.1248	12,553.7	55.0962	12,553.7	73.1947	12,553.7	50.6703	12,553.7	71.515	12,553.7	50.4602	12,553.7	67.4823	12,553.7	47.0396	12,553.7	48.8378	12,553.7	49.5946	12,553.7	43.1076	12,553.7	56.6194	12,553.7	47.5308	12,553.7	54.9197	12,553.7	46.1209	12,553.7	50.6513	12,553.7	42.4464	12,553.7	53.1924
12,996.1	83.9699	12,996.1	85.4233	12,996.1	83.5118	12,996.1	82.6996	12,996.1	85.2625	12,996.1	81.8287	12,996.1	82.673	12,996.1	78.1834	12,996.1	81.8505	12,996.1	75.23	12,996.1	77.7019	12,996.1	72.3548	12,996.1	75.1833	12,996.1	68.4656	12,996.1	70.3852	12,996.1	63.1382	12,996.1	65.236	12,996.1	59.0602	12,996.1	65.013	12,996.1	52.4095	12,996.1	71.8856	12,996.1	51.016	12,996.1	70.5185	12,996.1	45.6951	12,996.1	65.8945	12,996.1	54.8126	12,996.1	52.9853	12,996.1	49.7914	12,996.1	46.9022	12,996.1	47.5987	12,996.1	40.0946	12,996.1	52.9474	12,996.1	42.6738	12,996.1	53.4873	12,996.1	48.841	12,996.1	49.4952
13,454.6	83.6679	13,454.6	85.2366	13,454.6	83.4192	13,454.6	82.8453	13,454.6	84.8719	13,454.6	81.5252	13,454.6	82.9959	13,454.6	77.8347	13,454.6	80.9471	13,454.6	74.1841	13,454.6	78.0715	13,454.6	72.6534	13,454.6	75.178	13,454.6	67.5393	13,454.6	69.8843	13,454.6	60.7738	13,454.6	66.4475	13,454.6	54.4785	13,454.6	63.9839	13,454.6	50.7717	13,454.6	71.658	13,454.6	50.9566	13,454.6	70.2215	13,454.6	47.7894	13,454.6	67.4598	13,454.6	53.0721	13,454.6	38.7387	13,454.6	52.1691	13,454.6	20.897	13,454.6	48.4539	13,454.6	49.8675	13,454.6	47.3401	13,454.6	36.6551	13,454.6	50.2569	13,454.6	44.591	13,454.6	50.3761
13,929.2	83.7553	13,929.2	84.7469	13,929.2	83.1039	13,929.2	82.9073	13,929.2	84.9731	13,929.2	80.7696	13,929.2	82.3259	13,929.2	77.7947	13,929.2	80.8727	13,929.2	73.723	13,929.2	77.3703	13,929.2	72.6058	13,929.2	76.009	13,929.2	66.1895	13,929.2	68.9177	13,929.2	62.5453	13,929.2	61.3245	13,929.2	56.5097	13,929.2	60.5651	13,929.2	54.2817	13,929.2	71.0353	13,929.2	49.2725	13,929.2	70.1438	13,929.2	46.4317	13,929.2	67.4097	13,929.2	54.2022	13,929.2	48.0148	13,929.2	52.1197	13,929.2	48.6317	13,929.2	53.7963	13,929.2	36.3358	13,929.2	50.1252	13,929.2	43.2427	13,929.2	42.3051	13,929.2	47.3417	13,929.2	49.0976
14,419.9	84.4307	14,419.9	84.3411	14,419.9	84.3417	14,419.9	83.1452	14,419.9	84.8379	14,419.9	80.3512	14,419.9	82.1424	14,419.9	78.0146	14,419.9	79.7705	14,419.9	73.5841	14,419.9	78.1544	14,419.9	71.3871	14,419.9	73.8187	14,419.9	68.4919	14,419.9	70.0368	14,419.9	59.9042	14,419.9	64.9178	14,419.9	54.6977	14,419.9	58.1279	14,419.9	49.4647	14,419.9	70.5537	14,419.9	47.9676	14,419.9	69.9238	14,419.9	47.2631	14,419.9	66.9283	14,419.9	54.0659	14,419.9	43.0223	14,419.9	50.7415	14,419.9	32.2764	14,419.9	54.2241	14,419.9	46.1397	14,419.9	50.4022	14,419.9	43.0081	14,419.9	38.7257	14,419.9	48.6436	14,419.9	42.7955
14,928.2	85.2648	14,928.2	84.1799	14,928.2	84.7567	14,928.2	83.4556	14,928.2	84.1555	14,928.2	80.0089	14,928.2	83.5798	14,928.2	77.6748	14,928.2	80.2241	14,928.2	72.7466	14,928.2	78.5486	14,928.2	72.6412	14,928.2	72.9893	14,928.2	66.4206	14,928.2	68.4458	14,928.2	61.1455	14,928.2	66.3925	14,928.2	56.6062	14,928.2	57.5104	14,928.2	51.8193	14,928.2	69.8309	14,928.2	49.4911	14,928.2	69.9819	14,928.2	49.7097	14,928.2	66.576	14,928.2	54.8906	14,928.2	46.4066	14,928.2	52.0214	14,928.2	44.0409	14,928.2	49.9092	14,928.2	37.4753	14,928.2	48.7156	14,928.2	40.9467	14,928.2	40.0875	14,928.2	49.0218	14,928.2	36.8287
15,455.6	85.2125	15,455.6	83.5477	15,455.6	85.0209	15,455.6	83.3928	15,455.6	84.4281	15,455.6	80.252	15,455.6	82.9657	15,455.6	77.1663	15,455.6	80.57	15,455.6	72.3216	15,455.6	77.5777	15,455.6	72.1272	15,455.6	72.9555	15,455.6	67.3559	15,455.6	70.5973	15,455.6	59.0555	15,455.6	58.7683	15,455.6	55.5831	15,455.6	58.0692	15,455.6	51.3581	15,455.6	67.187	15,455.6	45.9666	15,455.6	69.2789	15,455.6	44.1755	15,455.6	65.9357	15,455.6	54.2012	15,455.6	41.8686	15,455.6	47.1993	15,455.6	42.6222	15,455.6	51.0865	15,455.6	40.2172	15,455.6	44.0265	15,455.6	47.1089	15,455.6	46.2462	15,455.6	47.0637	15,455.6	45.4327
16,000.5	84.8759	16,000.5	83.3715	16,000.5	85.0655	16,000.5	83.0838	16,000.5	82.4534	16,000.5	81.1498	16,000.5	82.4698	16,000.5	76.5499	16,000.5	81.5448	16,000.5	73.1409	16,000.5	76.4223	16,000.5	71.2196	16,000.5	71.6544	16,000.5	65.301	16,000.5	69.9077	16,000.5	59.3391	16,000.5	63.062	16,000.5	54.4202	16,000.5	55.1474	16,000.5	50.6942	16,000.5	65.9735	16,000.5	39.9725	16,000.5	69.2969	16,000.5	43.5241	16,000.5	65.5587	16,000.5	45.6234	16,000.5	49.9825	16,000.5	37.3077	16,000.5	50.3529	16,000.5	54.8625	16,000.5	42.1128	16,000.5	43.9329	16,000.5	44.0206	16,000.5	43.4889	16,000.5	41.1343	16,000.5	47.465
16,564.5	84.5126	16,564.5	83.961	16,564.5	85.3039	16,564.5	82.9638	16,564.5	84.5402	16,564.5	81.1959	16,564.5	81.5672	16,564.5	77.0109	16,564.5	81.8479	16,564.5	72.298	16,564.5	76.5998	16,564.5	70.4578	16,564.5	73.2577	16,564.5	66.3951	16,564.5	66.7719	16,564.5	61.2575	16,564.5	63.4897	16,564.5	55.5916	16,564.5	51.6136	16,564.5	50.6413	16,564.5	62.4737	16,564.5	41.6281	16,564.5	65.9989	16,564.5	43.2298	16,564.5	63.7468	16,564.5	43.6953	16,564.5	44.7053	16,564.5	42.4569	16,564.5	36.3806	16,564.5	51.2321	16,564.5	38.9864	16,564.5	44.1506	16,564.5	46.5082	16,564.5	44.17	16,564.5	43.6445	16,564.5	46.5701
17,148.9	84.6749	17,148.9	84.0354	17,148.9	85.076	17,148.9	82.6217	17,148.9	83.7447	17,148.9	80.899	17,148.9	80.8085	17,148.9	77.6078	17,148.9	81.1124	17,148.9	70.96	17,148.9	76.8025	17,148.9	69.6537	17,148.9	71.7729	17,148.9	65.8215	17,148.9	67.1994	17,148.9	57.8831	17,148.9	63.3089	17,148.9	53.2725	17,148.9	55.0824	17,148.9	46.8688	17,148.9	59.4148	17,148.9	41.3641	17,148.9	66.1118	17,148.9	38.9311	17,148.9	63.8822	17,148.9	44.3571	17,148.9	36.9773	17,148.9	23.2651	17,148.9	46.9101	17,148.9	39.312	17,148.9	38.5848	17,148.9	45.9086	17,148.9	42.9271	17,148.9	46.3284	17,148.9	48.8238	17,148.9	46.4317
17,752.4	84.5339	17,752.4	83.4956	17,752.4	84.5349	17,752.4	82.4266	17,752.4	84.8973	17,752.4	80.87	17,752.4	82.6609	17,752.4	77.8114	17,752.4	80.9923	17,752.4	70.9258	17,752.4	76.89	17,752.4	70.2223	17,752.4	71.0534	17,752.4	64.2946	17,752.4	66.7862	17,752.4	58.3992	17,752.4	62.6281	17,752.4	52.0484	17,752.4	52.6432	17,752.4	39.5577	17,752.4	54.8276	17,752.4	43.9145	17,752.4	64.5496	17,752.4	45.0445	17,752.4	62.5008	17,752.4	37.1703	17,752.4	49.8869	17,752.4	41.1141	17,752.4	42.803	17,752.4	47.0503	17,752.4	41.3902	17,752.4	47.447	17,752.4	35.7239	17,752.4	42.5113	17,752.4	42.0322	17,752.4	36.9795
18,379.4	84.0776	18,379.4	83.2823	18,379.4	83.6054	18,379.4	82.3353	18,379.4	83.3983	18,379.4	80.1624	18,379.4	81.4745	18,379.4	77.7685	18,379.4	80.0622	18,379.4	71.1453	18,379.4	77.1852	18,379.4	69.0476	18,379.4	72.3547	18,379.4	64.2886	18,379.4	67.3196	18,379.4	55.7098	18,379.4	55.8081	18,379.4	51.2319	18,379.4	51.03	18,379.4	45.4068	18,379.4	48.0562	18,379.4	42.0997	18,379.4	61.5137	18,379.4	47.5864	18,379.4	61.2788	18,379.4	47.5243	18,379.4	35.9715	18,379.4	30.9433	18,379.4	39.3799	18,379.4	46.181	18,379.4	37.1387	18,379.4	48.6902	18,379.4	41.1341	18,379.4	51.7472	18,379.4	37.5084	18,379.4	40.617
19,026.9	83.7269	19,026.9	82.9617	19,026.9	83.1933	19,026.9	81.9936	19,026.9	83.7557	19,026.9	80.1416	19,026.9	81.4572	19,026.9	77.3377	19,026.9	80.305	19,026.9	70.9966	19,026.9	76.3624	19,026.9	68.589	19,026.9	72.3823	19,026.9	63.1742	19,026.9	65.794	19,026.9	56.2266	19,026.9	58.3327	19,026.9	52.5286	19,026.9	52.0715	19,026.9	44.4894	19,026.9	55.6829	19,026.9	38.3494	19,026.9	58.5456	19,026.9	47.8122	19,026.9	59.9632	19,026.9	46.0417	19,026.9	42.3235	19,026.9	43.5158	19,026.9	44.3094	19,026.9	46.2878	19,026.9	15.5328	19,026.9	45.5256	19,026.9	42.3704	19,026.9	48.5258	19,026.9	40.4166	19,026.9	40.1648
19,697.8	83.5259	19,697.8	82.5834	19,697.8	82.6753	19,697.8	81.5326	19,697.8	82.6934	19,697.8	79.8725	19,697.8	81.8162	19,697.8	76.567	19,697.8	80.0711	19,697.8	70.5204	19,697.8	75.5409	19,697.8	66.5516	19,697.8	71.3336	19,697.8	62.9539	19,697.8	65.1344	19,697.8	52.3916	19,697.8	58.5897	19,697.8	49.7723	19,697.8	52.6989	19,697.8	32.5754	19,697.8	57.1098	19,697.8	28.9992	19,697.8	54.2022	19,697.8	44.6048	19,697.8	59.1003	19,697.8	46.5723	19,697.8	31.7596	19,697.8	44.9967	19,697.8	35.3935	19,697.8	48.5151	19,697.8	43.0728	19,697.8	41.9465	19,697.8	47.1983	19,697.8	47.2564	19,697.8	46.3717	19,697.8	42.9897
19,999.5	83.3665	19,999.5	82.7323	19,999.5	82.1857	19,999.5	81.7994	19,999.5	82.4547	19,999.5	79.7824	19,999.5	81.8369	19,999.5	76.1094	19,999.5	80.1243	19,999.5	70.0231	19,999.5	74.9842	19,999.5	67.8599	19,999.5	71.2538	19,999.5	60.9897	19,999.5	64.8383	19,999.5	58.5667	19,999.5	59.6998	19,999.5	55.6614	19,999.5	57.7794	19,999.5	48.9358	19,999.5	59.2562	19,999.5	54.3933	19,999.5	53.6009	19,999.5	54.3775	19,999.5	58.9729	19,999.5	52.866	19,999.5	50.2036	19,999.5	53.3438	19,999.5	49.4524	19,999.5	49.2351	19,999.5	43.8945	19,999.5	42.318	19,999.5	45.755	19,999.5	47.507	19,999.5	32.8081	19,999.5	55.9311
