"SPL Horizontal"
"On-Axis"		"10°"		"-10°"		"20°"		"-20°"		"30°"		"-30°"		"40°"		"-40°"		"50°"		"-50°"		"60°"		"-60°"		"70°"		"-70°"		"80°"		"-80°"		"90°"		"-90°"		"100°"		"-100°"		"110°"		"-110°"		"120°"		"-120°"		"130°"		"-130°"		"140°"		"-140°"		"150°"		"-150°"		"160°"		"-160°"		"170°"		"-170°"		"180°"
"Frequency [Hz]"	"Sound Pessure Level [dB]  / [2.83V 1m] "	"Frequency [Hz]"	"Sound Pessure Level [dB]  / [2.83V 1m] "	"Frequency [Hz]"	"Sound Pessure Level [dB]  / [2.83V 1m] "	"Frequency [Hz]"	"Sound Pessure Level [dB]  / [2.83V 1m] "	"Frequency [Hz]"	"Sound Pessure Level [dB]  / [2.83V 1m] "	"Frequency [Hz]"	"Sound Pessure Level [dB]  / [2.83V 1m] "	"Frequency [Hz]"	"Sound Pessure Level [dB]  / [2.83V 1m] "	"Frequency [Hz]"	"Sound Pessure Level [dB]  / [2.83V 1m] "	"Frequency [Hz]"	"Sound Pessure Level [dB]  / [2.83V 1m] "	"Frequency [Hz]"	"Sound Pessure Level [dB]  / [2.83V 1m] "	"Frequency [Hz]"	"Sound Pessure Level [dB]  / [2.83V 1m] "	"Frequency [Hz]"	"Sound Pessure Level [dB]  / [2.83V 1m] "	"Frequency [Hz]"	"Sound Pessure Level [dB]  / [2.83V 1m] "	"Frequency [Hz]"	"Sound Pessure Level [dB]  / [2.83V 1m] "	"Frequency [Hz]"	"Sound Pessure Level [dB]  / [2.83V 1m] "	"Frequency [Hz]"	"Sound Pessure Level [dB]  / [2.83V 1m] "	"Frequency [Hz]"	"Sound Pessure Level [dB]  / [2.83V 1m] "	"Frequency [Hz]"	"Sound Pessure Level [dB]  / [2.83V 1m] "	"Frequency [Hz]"	"Sound Pessure Level [dB]  / [2.83V 1m] "	"Frequency [Hz]"	"Sound Pessure Level [dB]  / [2.83V 1m] "	"Frequency [Hz]"	"Sound Pessure Level [dB]  / [2.83V 1m] "	"Frequency [Hz]"	"Sound Pessure Level [dB]  / [2.83V 1m] "	"Frequency [Hz]"	"Sound Pessure Level [dB]  / [2.83V 1m] "	"Frequency [Hz]"	"Sound Pessure Level [dB]  / [2.83V 1m] "	"Frequency [Hz]"	"Sound Pessure Level [dB]  / [2.83V 1m] "	"Frequency [Hz]"	"Sound Pessure Level [dB]  / [2.83V 1m] "	"Frequency [Hz]"	"Sound Pessure Level [dB]  / [2.83V 1m] "	"Frequency [Hz]"	"Sound Pessure Level [dB]  / [2.83V 1m] "	"Frequency [Hz]"	"Sound Pessure Level [dB]  / [2.83V 1m] "	"Frequency [Hz]"	"Sound Pessure Level [dB]  / [2.83V 1m] "	"Frequency [Hz]"	"Sound Pessure Level [dB]  / [2.83V 1m] "	"Frequency [Hz]"	"Sound Pessure Level [dB]  / [2.83V 1m] "	"Frequency [Hz]"	"Sound Pessure Level [dB]  / [2.83V 1m] "	"Frequency [Hz]"	"Sound Pessure Level [dB]  / [2.83V 1m] "	"Frequency [Hz]"	"Sound Pessure Level [dB]  / [2.83V 1m] "	"Frequency [Hz]"	"Sound Pessure Level [dB]  / [2.83V 1m] "
20.5078	50.7245	20.5078	50.385	20.5078	50.7868	20.5078	49.7482	20.5078	50.6023	20.5078	48.82	20.5078	50.2232	20.5078	47.7107	20.5078	49.7571	20.5078	46.8456	20.5078	49.4196	20.5078	47.0609	20.5078	49.5323	20.5078	48.6754	20.5078	50.3272	20.5078	50.9489	20.5078	51.7066	20.5078	53.2116	20.5078	53.3611	20.5078	55.2287	20.5078	55.0342	20.5078	56.9609	20.5078	56.5927	20.5078	58.4202	20.5078	57.9818	20.5078	59.6248	20.5078	59.1814	20.5078	60.5878	20.5078	60.1839	20.5078	61.3169	20.5078	60.985	20.5078	61.8163	20.5078	61.5808	20.5078	62.0887	20.5078	61.9666	20.5078	62.1375
21.9727	49.8256	21.9727	49.3953	21.9727	50.0046	21.9727	48.7549	21.9727	49.9385	21.9727	48.0562	21.9727	49.6721	21.9727	47.6703	21.9727	49.3198	21.9727	48.1168	21.9727	49.122	21.9727	49.5308	21.9727	49.4307	21.9727	51.4771	21.9727	50.4621	21.9727	53.5021	21.9727	52.0553	21.9727	55.3896	21.9727	53.866	21.9727	57.0729	21.9727	55.6434	21.9727	58.542	21.9727	57.2697	21.9727	59.8016	21.9727	58.7031	21.9727	60.8562	21.9727	59.9328	21.9727	61.7068	21.9727	60.9581	21.9727	62.3511	21.9727	61.7802	21.9727	62.7854	21.9727	62.3986	21.9727	63.007	21.9727	62.8113	21.9727	63.0151
23.4375	53.4401	23.4375	53.2779	23.4375	53.4135	23.4375	52.9341	23.4375	53.213	23.4375	52.4495	23.4375	52.8835	23.4375	51.9322	23.4375	52.5253	23.4375	51.6047	23.4375	52.3231	23.4375	51.7791	23.4375	52.5227	23.4375	52.6392	23.4375	53.2795	23.4375	54.0419	23.4375	54.5118	23.4375	55.6772	23.4375	55.9842	23.4375	57.3065	23.4375	57.4864	23.4375	58.8083	23.4375	58.8962	23.4375	60.1325	23.4375	60.1561	23.4375	61.2605	23.4375	61.2421	23.4375	62.1856	23.4375	62.1441	23.4375	62.9045	23.4375	62.8563	23.4375	63.4149	23.4375	63.3741	23.4375	63.716	23.4375	63.6928	23.4375	63.8079
24.9023	56.762	24.9023	56.6101	24.9023	56.7761	24.9023	56.329	24.9023	56.6601	24.9023	55.9515	24.9023	56.4406	24.9023	55.5514	24.9023	56.1729	24.9023	55.2651	24.9023	55.956	24.9023	55.2843	24.9023	55.9331	24.9023	55.7677	24.9023	56.249	24.9023	56.7135	24.9023	56.9611	24.9023	57.9591	24.9023	57.9933	24.9023	59.3081	24.9023	59.194	24.9023	60.619	24.9023	60.4214	24.9023	61.812	24.9023	61.5798	24.9023	62.847	24.9023	62.6135	24.9023	63.7035	24.9023	63.4919	24.9023	64.3705	24.9023	64.1972	24.9023	64.8411	24.9023	64.7185	24.9023	65.1115	24.9023	65.048	24.9023	65.1801
26.3672	58.4671	26.3672	58.3482	26.3672	58.4748	26.3672	58.1276	26.3672	58.3761	26.3672	57.8335	26.3672	58.1911	26.3672	57.5238	26.3672	57.9616	26.3672	57.2969	26.3672	57.7605	26.3672	57.2871	26.3672	57.6948	26.3672	57.6173	26.3672	57.8834	26.3672	58.3221	26.3672	58.4005	26.3672	59.3185	26.3672	59.2247	26.3672	60.4642	26.3672	60.2519	26.3672	61.6288	26.3672	61.3561	26.3672	62.7228	26.3672	62.4347	26.3672	63.6923	26.3672	63.4193	26.3672	64.5061	26.3672	64.2681	26.3672	65.1455	26.3672	64.956	26.3672	65.599	26.3672	65.4673	26.3672	65.8596	26.3672	65.7921	26.3672	65.9239
27.832	60.7983	27.832	60.7325	27.832	60.7608	27.832	60.57	27.832	60.6251	27.832	60.3317	27.832	60.4098	27.832	60.0596	27.832	60.153	27.832	59.8256	27.832	59.9203	27.832	59.7329	27.832	59.8079	27.832	59.8933	27.832	59.9245	27.832	60.3731	27.832	60.3439	27.832	61.148	27.832	61.0576	27.832	62.1167	27.832	61.9788	27.832	63.1578	27.832	62.9916	27.832	64.1722	27.832	63.996	27.832	65.0928	27.832	64.9219	27.832	65.8782	27.832	65.7251	27.832	66.5028	27.832	66.3779	27.832	66.9511	27.832	66.8628	27.832	67.2137	27.832	67.1679	27.832	67.2861
29.2969	62.266	29.2969	62.2058	29.2969	62.2351	29.2969	62.0611	29.2969	62.1192	29.2969	61.8524	29.2969	61.9375	29.2969	61.6206	29.2969	61.727	29.2969	61.4318	29.2969	61.5476	29.2969	61.3769	29.2969	61.4826	29.2969	61.5493	29.2969	61.6216	29.2969	62.003	29.2969	62.0238	29.2969	62.7182	29.2969	62.6831	29.2969	63.6116	29.2969	63.529	29.2969	64.5791	29.2969	64.4635	29.2969	65.5308	29.2969	65.3972	29.2969	66.4017	29.2969	66.2641	29.2969	67.1495	29.2969	67.0203	29.2969	67.7467	29.2969	67.6375	29.2969	68.1764	29.2969	68.0972	29.2969	68.4286	29.2969	68.387	29.2969	68.4988
30.7617	63.8914	30.7617	63.8373	30.7617	63.8773	30.7617	63.7211	30.7617	63.8006	30.7617	63.5622	30.7617	63.679	30.7617	63.3964	30.7617	63.5456	30.7617	63.2789	30.7617	63.45	30.7617	63.2802	30.7617	63.4565	30.7617	63.4701	30.7617	63.63	30.7617	63.8886	30.7617	64.0123	30.7617	64.5231	30.7617	64.5997	30.7617	65.3135	30.7617	65.3432	30.7617	66.1785	30.7617	66.1697	30.7617	67.0415	30.7617	67.0061	30.7617	67.8428	30.7617	67.7926	30.7617	68.54	30.7617	68.4857	30.7617	69.1039	30.7617	69.0545	30.7617	69.5152	30.7617	69.478	30.7617	69.762	30.7617	69.7421	30.7617	69.838
32.2266	65.6329	32.2266	65.5865	32.2266	65.6252	32.2266	65.4913	32.2266	65.5677	32.2266	65.3633	32.2266	65.4752	32.2266	65.2316	32.2266	65.374	32.2266	65.1398	32.2266	65.3037	32.2266	65.1426	32.2266	65.3151	32.2266	65.2952	32.2266	65.4608	32.2266	65.6334	32.2266	65.7777	32.2266	66.1572	32.2266	66.2699	32.2266	66.8278	32.2266	66.9046	32.2266	67.5824	32.2266	67.6247	32.2266	68.3543	32.2266	68.3675	32.2266	69.0856	32.2266	69.0775	32.2266	69.7316	32.2266	69.711	32.2266	70.2603	32.2266	70.2358	32.2266	70.6496	32.2266	70.6287	32.2266	70.8855	32.2266	70.8737	32.2266	70.9607
33.6914	66.7825	33.6914	66.7689	33.6914	66.7569	33.6914	66.7219	33.6914	66.6956	33.6914	66.6577	33.6914	66.6123	33.6914	66.6028	33.6914	66.5316	33.6914	66.5935	33.6914	66.4894	33.6914	66.6721	33.6914	66.5297	33.6914	66.8768	33.6914	66.6959	33.6914	67.23	33.6914	67.0169	33.6914	67.7272	33.6914	67.4945	33.6914	68.3378	33.6914	68.1008	33.6914	69.0138	33.6914	68.7869	33.6914	69.7026	33.6914	69.4972	33.6914	70.3565	33.6914	70.1802	33.6914	70.9366	33.6914	70.7935	33.6914	71.4127	33.6914	71.3048	33.6914	71.7627	33.6914	71.6907	33.6914	71.9715	33.6914	71.9355	33.6914	72.0301
35.1562	68.4125	35.1562	68.3921	35.1562	68.4007	35.1562	68.3433	35.1562	68.3608	35.1562	68.2781	35.1562	68.3049	35.1562	68.2171	35.1562	68.2536	35.1562	68.1897	35.1562	68.2357	35.1562	68.2316	35.1562	68.2854	35.1562	68.3784	35.1562	68.4367	35.1562	68.6555	35.1562	68.7133	35.1562	69.0677	35.1562	69.1198	35.1562	69.5954	35.1562	69.6381	35.1562	70.1995	35.1562	70.2315	35.1562	70.8319	35.1562	70.8542	35.1562	71.4452	35.1562	71.4601	35.1562	71.9988	35.1562	72.0086	35.1562	72.4608	35.1562	72.4671	35.1562	72.8073	35.1562	72.8111	35.1562	73.022	35.1562	73.0238	35.1562	73.0951
36.6211	69.773	36.6211	69.7627	36.6211	69.7599	36.6211	69.7323	36.6211	69.7271	36.6211	69.6918	36.6211	69.6849	36.6211	69.6588	36.6211	69.6511	36.6211	69.6574	36.6211	69.6495	36.6211	69.7162	36.6211	69.7082	36.6211	69.8637	36.6211	69.8549	36.6211	70.1199	36.6211	70.1092	36.6211	70.4894	36.6211	70.4757	36.6211	70.9579	36.6211	70.9409	36.6211	71.4945	36.6211	71.475	36.6211	72.0593	36.6211	72.039	36.6211	72.6111	36.6211	72.5919	36.6211	73.1128	36.6211	73.0961	36.6211	73.5337	36.6211	73.5206	36.6211	73.8502	36.6211	73.8413	36.6211	74.0458	36.6211	74.0413	36.6211	74.1105
38.0859	71.0935	38.0859	71.0841	38.0859	71.0855	38.0859	71.06	38.0859	71.0627	38.0859	71.0304	38.0859	71.034	38.0859	71.0101	38.0859	71.0139	38.0859	71.0197	38.0859	71.0222	38.0859	71.0835	38.0859	71.0825	38.0859	71.2252	38.0859	71.2181	38.0859	71.4622	38.0859	71.4467	38.0859	71.7994	38.0859	71.7743	38.0859	72.2256	38.0859	72.1915	38.0859	72.7153	38.0859	72.6747	38.0859	73.2337	38.0859	73.1902	38.0859	73.7433	38.0859	73.701	38.0859	74.209	38.0859	74.1714	38.0859	74.6011	38.0859	74.5709	38.0859	74.8961	38.0859	74.8751	38.0859	75.0775	38.0859	75.0668	38.0859	75.1354
39.5508	72.2336	39.5508	72.2238	39.5508	72.2312	39.5508	72.204	39.5508	72.2195	39.5508	72.1818	39.5508	72.2064	39.5508	72.1702	39.5508	72.2047	39.5508	72.1869	39.5508	72.2313	39.5508	72.2528	39.5508	72.3057	39.5508	72.3885	39.5508	72.4471	39.5508	72.6094	39.5508	72.6698	39.5508	72.9203	39.5508	72.9785	39.5508	73.3125	39.5508	73.3657	39.5508	73.7645	39.5508	73.8113	39.5508	74.2461	39.5508	74.2862	39.5508	74.7232	39.5508	74.7572	39.5508	75.1631	39.5508	75.1914	39.5508	75.5371	39.5508	75.5595	39.5508	75.8223	39.5508	75.8381	39.5508	76.002	39.5508	76.0102	39.5508	76.0659
41.0156	73.4557	41.0156	73.4472	41.0156	73.458	41.0156	73.4342	41.0156	73.4563	41.0156	73.4232	41.0156	73.4571	41.0156	73.4247	41.0156	73.4708	41.0156	73.4527	41.0156	73.5111	41.0156	73.5237	41.0156	73.5938	41.0156	73.6536	41.0156	73.734	41.0156	73.8547	41.0156	73.9431	41.0156	74.1315	41.0156	74.2251	41.0156	74.4783	41.0156	74.5736	41.0156	74.8787	41.0156	74.9724	41.0156	75.3081	41.0156	75.397	41.0156	75.7374	41.0156	75.8186	41.0156	76.1373	41.0156	76.2079	41.0156	76.481	41.0156	76.5379	41.0156	76.7464	41.0156	76.7865	41.0156	76.9168	41.0156	76.9377	41.0156	76.982
42.4805	74.044	42.4805	74.0451	42.4805	74.034	42.4805	74.0393	42.4805	74.0172	42.4805	74.0324	42.4805	73.999	42.4805	74.0339	42.4805	73.9885	42.4805	74.0566	42.4805	73.9979	42.4805	74.1156	42.4805	74.0414	42.4805	74.2257	42.4805	74.1337	42.4805	74.3985	42.4805	74.287	42.4805	74.6386	42.4805	74.508	42.4805	74.941	42.4805	74.795	42.4805	75.2913	42.4805	75.1367	42.4805	75.6671	42.4805	75.513	42.4805	76.0421	42.4805	75.8984	42.4805	76.3894	42.4805	76.265	42.4805	76.6844	42.4805	76.5861	42.4805	76.906	42.4805	76.8384	42.4805	77.0387	42.4805	77.0043	42.4805	77.0725
43.9453	75.0132	43.9453	75.0148	43.9453	75.0073	43.9453	75.0137	43.9453	74.9987	43.9453	75.0151	43.9453	74.9925	43.9453	75.0273	43.9453	74.9969	43.9453	75.0612	43.9453	75.0229	43.9453	75.1295	43.9453	75.0832	43.9453	75.2446	43.9453	75.1903	43.9453	75.4159	43.9453	75.3542	43.9453	75.6475	43.9453	75.5795	43.9453	75.9356	43.9453	75.8634	43.9453	76.268	43.9453	76.1943	43.9453	76.6254	43.9453	76.5535	43.9453	76.9839	43.9453	76.9173	43.9453	77.3181	43.9453	77.2603	43.9453	77.6042	43.9453	77.5581	43.9453	77.8218	43.9453	77.7897	43.9453	77.9553	43.9453	77.9389	43.9453	77.9953
45.4102	75.8874	45.4102	75.8934	45.4102	75.8808	45.4102	75.9003	45.4102	75.875	45.4102	75.9122	45.4102	75.8742	45.4102	75.9361	45.4102	75.8852	45.4102	75.981	45.4102	75.9171	45.4102	76.0572	45.4102	75.9806	45.4102	76.1744	45.4102	76.0862	45.4102	76.3404	45.4102	76.2424	45.4102	76.5582	45.4102	76.453	45.4102	76.8246	45.4102	76.7158	45.4102	77.1292	45.4102	77.021	45.4102	77.4554	45.4102	77.3523	45.4102	77.7823	45.4102	77.6888	45.4102	78.0872	45.4102	78.0072	45.4102	78.3481	45.4102	78.285	45.4102	78.5459	45.4102	78.5024	45.4102	78.6662	45.4102	78.644	45.4102	78.6998
46.875	76.7474	46.875	76.7574	46.875	76.7379	46.875	76.7687	46.875	76.7307	46.875	76.7846	46.875	76.73	46.875	76.8108	46.875	76.7423	46.875	76.8551	46.875	76.7759	46.875	76.9265	46.875	76.8402	46.875	77.0342	46.875	76.9441	46.875	77.1855	46.875	77.0947	46.875	77.3843	46.875	77.2952	46.875	77.6286	46.875	77.5431	46.875	77.9101	46.875	77.8296	46.875	78.2141	46.875	78.14	46.875	78.5213	46.875	78.455	46.875	78.81	46.875	78.7534	46.875	79.0589	46.875	79.0139	46.875	79.249	46.875	79.2177	46.875	79.3658	46.875	79.3497	46.875	79.4003
48.3398	77.3042	48.3398	77.3115	48.3398	77.3023	48.3398	77.3253	48.3398	77.3072	48.3398	77.3487	48.3398	77.3221	48.3398	77.3867	48.3398	77.3523	48.3398	77.4461	48.3398	77.4045	48.3398	77.5342	48.3398	77.4861	48.3398	77.6581	48.3398	77.6042	48.3398	77.8229	48.3398	77.7642	48.3398	78.0305	48.3398	77.9681	48.3398	78.2779	48.3398	78.2133	48.3398	78.5566	48.3398	78.4916	48.3398	78.853	48.3398	78.7899	48.3398	79.1496	48.3398	79.0909	48.3398	79.4267	48.3398	79.3751	48.3398	79.6647	48.3398	79.6229	48.3398	79.8461	48.3398	79.8167	48.3398	79.9575	48.3398	79.9422	48.3398	79.9904
51.2695	78.5404	51.2695	78.5484	51.2695	78.5405	51.2695	78.5649	51.2695	78.5493	51.2695	78.5916	51.2695	78.569	51.2695	78.6316	51.2695	78.6028	51.2695	78.6886	51.2695	78.6547	51.2695	78.7672	51.2695	78.7294	51.2695	78.8718	51.2695	78.8313	51.2695	79.0057	51.2695	78.9638	51.2695	79.1705	51.2695	79.1285	51.2695	79.3647	51.2695	79.3237	51.2695	79.5828	51.2695	79.5442	51.2695	79.8158	51.2695	79.7808	51.2695	80.0508	51.2695	80.0206	51.2695	80.273	51.2695	80.2483	51.2695	80.4663	51.2695	80.4479	51.2695	80.6161	51.2695	80.6039	51.2695	80.7101	51.2695	80.7041	51.2695	80.7404
52.7344	79.0312	52.7344	79.0394	52.7344	79.0317	52.7344	79.0567	52.7344	79.0413	52.7344	79.0846	52.7344	79.0617	52.7344	79.1255	52.7344	79.0956	52.7344	79.1827	52.7344	79.1462	52.7344	79.2598	52.7344	79.2175	52.7344	79.3603	52.7344	79.313	52.7344	79.487	52.7344	79.436	52.7344	79.641	52.7344	79.5874	52.7344	79.8208	52.7344	79.7663	52.7344	80.0214	52.7344	79.9679	52.7344	80.2348	52.7344	80.1844	52.7344	80.4495	52.7344	80.4044	52.7344	80.652	52.7344	80.614	52.7344	80.8279	52.7344	80.7984	52.7344	80.9636	52.7344	80.9436	52.7344	81.0479	52.7344	81.0379	52.7344	81.0735
54.1992	79.5081	54.1992	79.5222	54.1992	79.5046	54.1992	79.5471	54.1992	79.5124	54.1992	79.5836	54.1992	79.5329	54.1992	79.6333	54.1992	79.5681	54.1992	79.6985	54.1992	79.6206	54.1992	79.7816	54.1992	79.6932	54.1992	79.8853	54.1992	79.7887	54.1992	80.0114	54.1992	79.9092	54.1992	80.1607	54.1992	80.0554	54.1992	80.3316	54.1992	80.2261	54.1992	80.5201	54.1992	80.4175	54.1992	80.7189	54.1992	80.6224	54.1992	80.9179	54.1992	80.8309	54.1992	81.1047	54.1992	81.0305	54.1992	81.2659	54.1992	81.2075	54.1992	81.3889	54.1992	81.3486	54.1992	81.4631	54.1992	81.4425	54.1992	81.4817
55.6641	79.9985	55.6641	80.0124	55.6641	79.9958	55.6641	80.0376	55.6641	80.005	55.6641	80.0747	55.6641	80.0273	55.6641	80.1247	55.6641	80.0643	55.6641	80.1894	55.6641	80.118	55.6641	80.2708	55.6641	80.1907	55.6641	80.3706	55.6641	80.2845	55.6641	80.4906	55.6641	80.4009	55.6641	80.6311	55.6641	80.5405	55.6641	80.7909	55.6641	80.7019	55.6641	80.9665	55.6641	80.8814	55.6641	81.1514	55.6641	81.0728	55.6641	81.3368	55.6641	81.2668	55.6641	81.5114	55.6641	81.4522	55.6641	81.6628	55.6641	81.6163	55.6641	81.779	55.6641	81.7469	55.6641	81.8497	55.6641	81.8333	55.6641	81.8685
58.5938	80.7077	58.5938	80.7177	58.5938	80.711	58.5938	80.7411	58.5938	80.7278	58.5938	80.778	58.5938	80.7587	58.5938	80.8285	58.5938	80.8039	58.5938	80.8933	58.5938	80.8643	58.5938	80.9727	58.5938	80.9404	58.5938	81.0675	58.5938	81.033	58.5938	81.1779	58.5938	81.1424	58.5938	81.3038	58.5938	81.2684	58.5938	81.4439	58.5938	81.4098	58.5938	81.5958	58.5938	81.5637	58.5938	81.7548	58.5938	81.7253	58.5938	81.914	58.5938	81.8877	58.5938	82.0647	58.5938	82.042	58.5938	82.1963	58.5938	82.178	58.5938	82.2985	58.5938	82.2855	58.5938	82.3623	58.5938	82.3556	58.5938	82.382
60.0586	81.0467	60.0586	81.0566	60.0586	81.0499	60.0586	81.0795	60.0586	81.0662	60.0586	81.1151	60.0586	81.0957	60.0586	81.1637	60.0586	81.1388	60.0586	81.2253	60.0586	81.1957	60.0586	81.3	60.0586	81.2666	60.0586	81.3881	60.0586	81.3518	60.0586	81.4897	60.0586	81.4515	60.0586	81.6044	60.0586	81.565	60.0586	81.7311	60.0586	81.6914	60.0586	81.8673	60.0586	81.8279	60.0586	82.0088	60.0586	81.9707	60.0586	82.1495	60.0586	82.1138	60.0586	82.2815	60.0586	82.2496	60.0586	82.3959	60.0586	82.3696	60.0586	82.4837	60.0586	82.4649	60.0586	82.5377	60.0586	82.5278	60.0586	82.5528
62.9883	81.6451	62.9883	81.6549	62.9883	81.6495	62.9883	81.679	62.9883	81.6683	62.9883	81.7167	62.9883	81.701	62.9883	81.7675	62.9883	81.7471	62.9883	81.8305	62.9883	81.8059	62.9883	81.9048	62.9883	81.8767	62.9883	81.9898	62.9883	81.9586	62.9883	82.0845	62.9883	82.0509	62.9883	82.188	62.9883	82.1526	62.9883	82.2991	62.9883	82.2624	62.9883	82.4156	62.9883	82.3783	62.9883	82.5345	62.9883	82.4974	62.9883	82.6513	62.9883	82.6156	62.9883	82.7598	62.9883	82.7272	62.9883	82.8533	62.9883	82.8259	62.9883	82.9246	62.9883	82.9047	62.9883	82.9678	62.9883	82.9573	62.9883	82.979
64.4531	81.9493	64.4531	81.9603	64.4531	81.9528	64.4531	81.9856	64.4531	81.9708	64.4531	82.0244	64.4531	82.0027	64.4531	82.0758	64.4531	82.0478	64.4531	82.1386	64.4531	82.105	64.4531	82.2116	64.4531	82.1733	64.4531	82.2935	64.4531	82.2515	64.4531	82.3833	64.4531	82.3384	64.4531	82.4798	64.4531	82.433	64.4531	82.5816	64.4531	82.5337	64.4531	82.687	64.4531	82.639	64.4531	82.7932	64.4531	82.7464	64.4531	82.8966	64.4531	82.8524	64.4531	82.9921	64.4531	82.9525	64.4531	83.0739	64.4531	83.0412	64.4531	83.1359	64.4531	83.1124	64.4531	83.1728	64.4531	83.1605	64.4531	83.1813
67.3828	82.407	67.3828	82.4146	67.3828	82.4143	67.3828	82.4369	67.3828	82.4364	67.3828	82.4731	67.3828	82.4723	67.3828	82.5219	67.3828	82.5207	67.3828	82.5816	67.3828	82.58	67.3828	82.6505	67.3828	82.6485	67.3828	82.7265	67.3828	82.7243	67.3828	82.8081	67.3828	82.8056	67.3828	82.8934	67.3828	82.8909	67.3828	82.9809	67.3828	82.9787	67.3828	83.069	67.3828	83.0675	67.3828	83.156	67.3828	83.1553	67.3828	83.2394	67.3828	83.2397	67.3828	83.3163	67.3828	83.3174	67.3828	83.3828	67.3828	83.3844	67.3828	83.4347	67.3828	83.4362	67.3828	83.468	67.3828	83.4689	67.3828	83.4798
68.8477	82.5588	68.8477	82.5616	68.8477	82.5718	68.8477	82.5799	68.8477	82.5999	68.8477	82.6129	68.8477	82.6421	68.8477	82.6592	68.8477	82.6967	68.8477	82.717	68.8477	82.7615	68.8477	82.7843	68.8477	82.8343	68.8477	82.8588	68.8477	82.9126	68.8477	82.9387	68.8477	82.9944	68.8477	83.0219	68.8477	83.0778	68.8477	83.1067	68.8477	83.161	68.8477	83.1915	68.8477	83.2428	68.8477	83.2746	68.8477	83.3214	68.8477	83.3539	68.8477	83.395	68.8477	83.4267	68.8477	83.4612	68.8477	83.4898	68.8477	83.5167	68.8477	83.5398	68.8477	83.5583	68.8477	83.5733	68.8477	83.5827	68.8477	83.588
71.7773	83.0754	71.7773	83.0816	71.7773	83.0848	71.7773	83.1032	71.7773	83.1094	71.7773	83.139	71.7773	83.148	71.7773	83.1873	71.7773	83.1987	71.7773	83.2459	71.7773	83.2591	71.7773	83.3121	71.7773	83.3267	71.7773	83.3833	71.7773	83.3986	71.7773	83.4569	71.7773	83.4723	71.7773	83.5305	71.7773	83.5458	71.7773	83.6024	71.7773	83.6171	71.7773	83.6712	71.7773	83.685	71.7773	83.7359	71.7773	83.7483	71.7773	83.7953	71.7773	83.8061	71.7773	83.8483	71.7773	83.8571	71.7773	83.8931	71.7773	83.8996	71.7773	83.9276	71.7773	83.9319	71.7773	83.9498	71.7773	83.9518	71.7773	83.958
74.707	83.6274	74.707	83.6353	74.707	83.6345	74.707	83.6579	74.707	83.6561	74.707	83.6936	74.707	83.6908	74.707	83.7403	74.707	83.7365	74.707	83.7952	74.707	83.7905	74.707	83.8552	74.707	83.8497	74.707	83.917	74.707	83.9109	74.707	83.9774	74.707	83.9713	74.707	84.034	74.707	84.0284	74.707	84.0849	74.707	84.0803	74.707	84.1292	74.707	84.126	74.707	84.1667	74.707	84.1652	74.707	84.1978	74.707	84.1979	74.707	84.2231	74.707	84.2245	74.707	84.2433	74.707	84.2452	74.707	84.2582	74.707	84.2601	74.707	84.2678	74.707	84.2689	74.707	84.2714
77.6367	83.968	77.6367	83.9782	77.6367	83.9732	77.6367	84.0033	77.6367	83.9933	77.6367	84.0418	77.6367	84.0268	77.6367	84.0912	77.6367	84.0712	77.6367	84.1484	77.6367	84.1236	77.6367	84.2098	77.6367	84.1805	77.6367	84.2718	77.6367	84.2385	77.6367	84.3308	77.6367	84.2943	77.6367	84.3841	77.6367	84.3452	77.6367	84.4295	77.6367	84.3894	77.6367	84.4661	77.6367	84.4257	77.6367	84.4937	77.6367	84.4542	77.6367	84.5131	77.6367	84.4757	77.6367	84.5254	77.6367	84.4917	77.6367	84.5319	77.6367	84.5038	77.6367	84.5337	77.6367	84.5133	77.6367	84.532	77.6367	84.5212	77.6367	84.5275
79.1016	84.1111	79.1016	84.121	79.1016	84.1169	79.1016	84.1462	79.1016	84.1379	79.1016	84.185	79.1016	84.1725	79.1016	84.2349	79.1016	84.2181	79.1016	84.2927	79.1016	84.2717	79.1016	84.3546	79.1016	84.3296	79.1016	84.4166	79.1016	84.3881	79.1016	84.4751	79.1016	84.4439	79.1016	84.527	79.1016	84.494	79.1016	84.57	79.1016	84.5364	79.1016	84.6031	79.1016	84.57	79.1016	84.6262	79.1016	84.5948	79.1016	84.6404	79.1016	84.6118	79.1016	84.6475	79.1016	84.6227	79.1016	84.6495	79.1016	84.6295	79.1016	84.6482	79.1016	84.6341	79.1016	84.6452	79.1016	84.6379	79.1016	84.6416
82.0312	84.405	82.0312	84.4159	82.0312	84.4085	82.0312	84.4405	82.0312	84.426	82.0312	84.4771	82.0312	84.4559	82.0312	84.523	82.0312	84.4959	82.0312	84.5749	82.0312	84.5427	82.0312	84.6288	82.0312	84.5927	82.0312	84.6809	82.0312	84.6421	82.0312	84.7272	82.0312	84.6871	82.0312	84.7647	82.0312	84.7247	82.0312	84.7911	82.0312	84.7527	82.0312	84.8056	82.0312	84.77	82.0312	84.8086	82.0312	84.7768	82.0312	84.8021	82.0312	84.7748	82.0312	84.7891	82.0312	84.7667	82.0312	84.7731	82.0312	84.7559	82.0312	84.7576	82.0312	84.746	82.0312	84.7458	82.0312	84.7399	82.0312	84.7396
84.9609	84.7219	84.9609	84.7316	84.9609	84.7262	84.9609	84.755	84.9609	84.7439	84.9609	84.7902	84.9609	84.7734	84.9609	84.8347	84.9609	84.812	84.9609	84.8851	84.9609	84.8563	84.9609	84.9373	84.9609	84.9025	84.9609	84.987	84.9609	84.9466	84.9609	85.0303	84.9609	84.9849	84.9609	85.0638	84.9609	85.0144	84.9609	85.0854	84.9609	85.0328	84.9609	85.0942	84.9609	85.0396	84.9609	85.0907	84.9609	85.0357	84.9609	85.0769	84.9609	85.0233	84.9609	85.0557	84.9609	85.0063	84.9609	85.0309	84.9609	84.989	84.9609	85.0065	84.9609	84.9758	84.9609	84.9864	84.9609	84.9701	84.9609	84.9737
87.8906	84.9119	87.8906	84.9168	87.8906	84.9219	87.8906	84.9358	87.8906	84.9466	87.8906	84.9668	87.8906	84.9845	87.8906	85.0069	87.8906	85.033	87.8906	85.0523	87.8906	85.0885	87.8906	85.0989	87.8906	85.1467	87.8906	85.1428	87.8906	85.2028	87.8906	85.1803	87.8906	85.2523	87.8906	85.2085	87.8906	85.2911	87.8906	85.2257	87.8906	85.3161	87.8906	85.2318	87.8906	85.3259	87.8906	85.2276	87.8906	85.3207	87.8906	85.2157	87.8906	85.3024	87.8906	85.1996	87.8906	85.2749	87.8906	85.1833	87.8906	85.243	87.8906	85.1709	87.8906	85.2121	87.8906	85.1662	87.8906	85.1871	87.8906	85.1713
90.8203	85.2054	90.8203	85.2269	90.8203	85.1931	90.8203	85.2573	90.8203	85.1895	90.8203	85.2953	90.8203	85.193	90.8203	85.3387	90.8203	85.2015	90.8203	85.3842	90.8203	85.2123	90.8203	85.428	90.8203	85.2222	90.8203	85.4657	90.8203	85.2281	90.8203	85.4927	90.8203	85.2271	90.8203	85.5046	90.8203	85.2169	90.8203	85.498	90.8203	85.1961	90.8203	85.4708	90.8203	85.1646	90.8203	85.4231	90.8203	85.1241	90.8203	85.3574	90.8203	85.0785	90.8203	85.2788	90.8203	85.0335	90.8203	85.1949	90.8203	84.9964	90.8203	85.1145	90.8203	84.9747	90.8203	85.0466	90.8203	84.9742	90.8203	84.9984
95.2148	85.4012	95.2148	85.3848	95.2148	85.4347	95.2148	85.3864	95.2148	85.4828	95.2148	85.4055	95.2148	85.5424	95.2148	85.4402	95.2148	85.6092	95.2148	85.4875	95.2148	85.6786	95.2148	85.543	95.2148	85.7457	95.2148	85.6017	95.2148	85.8058	95.2148	85.6583	95.2148	85.8547	95.2148	85.7079	95.2148	85.8892	95.2148	85.7463	95.2148	85.9074	95.2148	85.7708	95.2148	85.909	95.2148	85.7805	95.2148	85.8954	95.2148	85.7768	95.2148	85.8694	95.2148	85.7635	95.2148	85.8354	95.2148	85.7458	95.2148	85.7988	95.2148	85.7299	95.2148	85.7649	95.2148	85.7213	95.2148	85.7388	95.2148	85.7239
98.1445	85.6919	98.1445	85.6927	98.1445	85.7022	98.1445	85.705	98.1445	85.7225	98.1445	85.728	98.1445	85.7508	98.1445	85.76	98.1445	85.7849	98.1445	85.7983	98.1445	85.8217	98.1445	85.8393	98.1445	85.8579	98.1445	85.8788	98.1445	85.8901	98.1445	85.9119	98.1445	85.9145	98.1445	85.9341	98.1445	85.9278	98.1445	85.9415	98.1445	85.9272	98.1445	85.9315	98.1445	85.9114	98.1445	85.9038	98.1445	85.8809	98.1445	85.861	98.1445	85.8386	98.1445	85.8086	98.1445	85.7894	98.1445	85.7545	98.1445	85.7402	98.1445	85.7073	98.1445	85.6982	98.1445	85.6747	98.1445	85.6705	98.1445	85.6619
101.074	85.3923	101.074	85.4173	101.074	85.3886	101.074	85.4615	101.074	85.4067	101.074	85.5216	101.074	85.4452	101.074	85.5933	101.074	85.5014	101.074	85.6715	101.074	85.5711	101.074	85.751	101.074	85.6491	101.074	85.8264	101.074	85.7296	101.074	85.893	101.074	85.8064	101.074	85.9466	101.074	85.874	101.074	85.9843	101.074	85.9273	101.074	86.0048	101.074	85.9632	101.074	86.0085	101.074	85.9807	101.074	85.9982	101.074	85.9814	101.074	85.9782	101.074	85.9694	101.074	85.9542	101.074	85.9505	101.074	85.9319	101.074	85.9309	101.074	85.9164	101.074	85.9164	101.074	85.911
105.469	85.9051	105.469	85.9375	105.469	85.8849	105.469	85.9788	105.469	85.8788	105.469	86.0251	105.469	85.8876	105.469	86.0716	105.469	85.9103	105.469	86.1133	105.469	85.9445	105.469	86.1453	105.469	85.986	105.469	86.1629	105.469	86.0291	105.469	86.1628	105.469	86.0679	105.469	86.1434	105.469	86.0966	105.469	86.1054	105.469	86.1103	105.469	86.0517	105.469	86.1061	105.469	85.9874	105.469	86.0831	105.469	85.9197	105.469	86.0429	105.469	85.8563	105.469	85.9896	105.469	85.8052	105.469	85.929	105.469	85.7731	105.469	85.8685	105.469	85.7643	105.469	85.8162	105.469	85.7795
108.398	86.3114	108.398	86.3269	108.398	86.2993	108.398	86.3452	108.398	86.291	108.398	86.3652	108.398	86.2862	108.398	86.3851	108.398	86.2846	108.398	86.4024	108.398	86.2849	108.398	86.4135	108.398	86.2852	108.398	86.4148	108.398	86.2826	108.398	86.4026	108.398	86.2737	108.398	86.3737	108.398	86.2548	108.398	86.3266	108.398	86.223	108.398	86.2614	108.398	86.1769	108.398	86.1806	108.398	86.1168	108.398	86.0893	108.398	86.0456	108.398	85.9946	108.398	85.9685	108.398	85.9059	108.398	85.8932	108.398	85.8333	108.398	85.8289	108.398	85.7858	108.398	85.785	108.398	85.7693
112.793	86.765	112.793	86.7738	112.793	86.7512	112.793	86.778	112.793	86.7322	112.793	86.7778	112.793	86.7078	112.793	86.7731	112.793	86.6784	112.793	86.7629	112.793	86.6441	112.793	86.7455	112.793	86.6048	112.793	86.7183	112.793	86.5602	112.793	86.678	112.793	86.509	112.793	86.6211	112.793	86.4492	112.793	86.5449	112.793	86.3785	112.793	86.4484	112.793	86.2954	112.793	86.3333	112.793	86.1994	112.793	86.2048	112.793	86.0935	112.793	86.0713	112.793	85.9838	112.793	85.9448	112.793	85.8805	112.793	85.8383	112.793	85.7963	112.793	85.7643	112.793	85.7435	112.793	85.7316
117.188	86.8365	117.188	86.8403	117.188	86.8263	117.188	86.838	117.188	86.8095	117.188	86.8292	117.188	86.785	117.188	86.8131	117.188	86.7517	117.188	86.7885	117.188	86.7084	117.188	86.754	117.188	86.6538	117.188	86.7073	117.188	86.5867	117.188	86.6465	117.188	86.5064	117.188	86.5695	117.188	86.4125	117.188	86.475	117.188	86.3057	117.188	86.3634	117.188	86.1879	117.188	86.2371	117.188	86.063	117.188	86.1013	117.188	85.9371	117.188	85.9638	117.188	85.8184	117.188	85.8348	117.188	85.7165	117.188	85.7251	117.188	85.6414	117.188	85.6451	117.188	85.6016	117.188	85.6026
120.117	87.0361	120.117	87.0295	120.117	87.0386	120.117	87.0188	120.117	87.0359	120.117	87.0031	120.117	87.0262	120.117	86.9808	120.117	87.0069	120.117	86.9494	120.117	86.9746	120.117	86.9058	120.117	86.9256	120.117	86.8469	120.117	86.8564	120.117	86.7692	120.117	86.7639	120.117	86.6704	120.117	86.6467	120.117	86.5491	120.117	86.5055	120.117	86.4062	120.117	86.3437	120.117	86.2454	120.117	86.1681	120.117	86.0735	120.117	85.9884	120.117	85.9011	120.117	85.8172	120.117	85.7414	120.117	85.668	120.117	85.6086	120.117	85.5543	120.117	85.5163	120.117	85.4875	120.117	85.4744
124.512	86.9441	124.512	86.9496	124.512	86.9456	124.512	86.9617	124.512	86.9535	124.512	86.9787	124.512	86.9656	124.512	86.9976	124.512	86.9785	124.512	87.0142	124.512	86.9874	124.512	87.0232	124.512	86.9867	124.512	87.0188	124.512	86.9699	124.512	86.9953	124.512	86.9315	124.512	86.9477	124.512	86.8672	124.512	86.8731	124.512	86.7756	124.512	86.7711	124.512	86.6589	124.512	86.645	124.512	86.5229	124.512	86.5018	124.512	86.3775	124.512	86.352	124.512	86.2352	124.512	86.209	124.512	86.1099	124.512	86.0872	124.512	86.0152	124.512	85.9997	124.512	85.9618	124.512	85.9563
128.906	86.5431	128.906	86.5539	128.906	86.5441	128.906	86.5763	128.906	86.5564	128.906	86.6094	128.906	86.5786	128.906	86.6511	128.906	86.6083	128.906	86.6982	128.906	86.642	128.906	86.7468	128.906	86.6753	128.906	86.7915	128.906	86.7031	128.906	86.8265	128.906	86.7201	128.906	86.8459	128.906	86.7218	128.906	86.8446	128.906	86.7052	128.906	86.8196	128.906	86.6694	128.906	86.7706	128.906	86.6166	128.906	86.7008	128.906	86.5518	128.906	86.6172	128.906	86.4827	128.906	86.5296	128.906	86.419	128.906	86.4493	128.906	86.3706	128.906	86.3873	128.906	86.3464	128.906	86.3516
133.301	86.7194	133.301	86.7381	133.301	86.7064	133.301	86.7616	133.301	86.6997	133.301	86.7884	133.301	86.6993	133.301	86.8163	133.301	86.7043	133.301	86.8429	133.301	86.7128	133.301	86.865	133.301	86.7219	133.301	86.8791	133.301	86.728	133.301	86.8813	133.301	86.7264	133.301	86.8678	133.301	86.7128	133.301	86.8355	133.301	86.6836	133.301	86.7829	133.301	86.6369	133.301	86.7108	133.301	86.5737	133.301	86.6229	133.301	86.4982	133.301	86.5261	133.301	86.418	133.301	86.4299	133.301	86.343	133.301	86.3453	133.301	86.2842	133.301	86.2827	133.301	86.2511	133.301	86.2501
139.16	86.738	139.16	86.7582	139.16	86.7211	139.16	86.7812	139.16	86.7075	139.16	86.8064	139.16	86.6969	139.16	86.8325	139.16	86.6885	139.16	86.8573	139.16	86.6806	139.16	86.8774	139.16	86.6707	139.16	86.8888	139.16	86.6551	139.16	86.8864	139.16	86.6301	139.16	86.8655	139.16	86.5916	139.16	86.8222	139.16	86.537	139.16	86.7546	139.16	86.4657	139.16	86.6635	139.16	86.3799	139.16	86.553	139.16	86.2856	139.16	86.4306	139.16	86.1921	139.16	86.3067	139.16	86.1108	139.16	86.1935	139.16	86.0538	139.16	86.1037	139.16	86.0308	139.16	86.0475
143.555	86.5504	143.555	86.5397	143.555	86.5626	143.555	86.5306	143.555	86.5767	143.555	86.5237	143.555	86.5929	143.555	86.5195	143.555	86.6117	143.555	86.5181	143.555	86.6323	143.555	86.5189	143.555	86.6533	143.555	86.5201	143.555	86.6718	143.555	86.5193	143.555	86.6841	143.555	86.5133	143.555	86.6861	143.555	86.4993	143.555	86.6744	143.555	86.4755	143.555	86.6469	143.555	86.442	143.555	86.6032	143.555	86.4012	143.555	86.5459	143.555	86.3573	143.555	86.4799	143.555	86.3165	143.555	86.4122	143.555	86.2854	143.555	86.3509	143.555	86.2704	143.555	86.3036	143.555	86.2761
147.949	86.6332	147.949	86.6081	147.949	86.6524	147.949	86.5786	147.949	86.6645	147.949	86.5466	147.949	86.6689	147.949	86.5137	147.949	86.6657	147.949	86.4805	147.949	86.6554	147.949	86.4468	147.949	86.638	147.949	86.4114	147.949	86.6133	147.949	86.3723	147.949	86.5802	147.949	86.3276	147.949	86.5376	147.949	86.2759	147.949	86.4844	147.949	86.2175	147.949	86.4201	147.949	86.1544	147.949	86.3459	147.949	86.0906	147.949	86.2645	147.949	86.0311	147.949	86.1806	147.949	85.9818	147.949	86.1001	147.949	85.9481	147.949	86.0299	147.949	85.9344	147.949	85.9762	147.949	85.9437
153.809	86.6932	153.809	86.6931	153.809	86.6833	153.809	86.6825	153.809	86.6643	153.809	86.6611	153.809	86.6375	153.809	86.6289	153.809	86.6039	153.809	86.5858	153.809	86.5647	153.809	86.5316	153.809	86.5202	153.809	86.4656	153.809	86.4702	153.809	86.3868	153.809	86.4137	153.809	86.2941	153.809	86.3487	153.809	86.1874	153.809	86.2728	153.809	86.0682	153.809	86.1839	153.809	85.9404	153.809	86.0814	153.809	85.8108	153.809	85.967	153.809	85.6892	153.809	85.8458	153.809	85.5866	153.809	85.7261	153.809	85.5139	153.809	85.6189	153.809	85.4795	153.809	85.5359	153.809	85.4872
159.668	86.6953	159.668	86.7064	159.668	86.673	159.668	86.7055	159.668	86.6406	159.668	86.6925	159.668	86.5995	159.668	86.6676	159.668	86.551	159.668	86.6309	159.668	86.4962	159.668	86.582	159.668	86.4355	159.668	86.52	159.668	86.369	159.668	86.4433	159.668	86.2963	159.668	86.3502	159.668	86.217	159.668	86.2394	159.668	86.1306	159.668	86.1115	159.668	86.0372	159.668	85.9698	159.668	85.9369	159.668	85.8217	159.668	85.8309	159.668	85.6785	159.668	85.7221	159.668	85.5541	159.668	85.616	159.668	85.4624	159.668	85.5212	159.668	85.413	159.668	85.4486	159.668	85.4096
165.527	86.708	165.527	86.7039	165.527	86.7064	165.527	86.6942	165.527	86.6991	165.527	86.6794	165.527	86.6864	165.527	86.6597	165.527	86.6682	165.527	86.6352	165.527	86.6438	165.527	86.6048	165.527	86.6117	165.527	86.5668	165.527	86.5694	165.527	86.5187	165.527	86.5144	165.527	86.4581	165.527	86.4446	165.527	86.3832	165.527	86.3602	165.527	86.2942	165.527	86.2635	165.527	86.1935	165.527	86.1596	165.527	86.0867	165.527	86.0552	165.527	85.9817	165.527	85.9575	165.527	85.8881	165.527	85.8731	165.527	85.8147	165.527	85.8077	165.527	85.7682	165.527	85.7661	165.527	85.7521
171.387	86.5544	171.387	86.5384	171.387	86.5567	171.387	86.5096	171.387	86.546	171.387	86.4704	171.387	86.5238	171.387	86.4243	171.387	86.4929	171.387	86.3755	171.387	86.4556	171.387	86.3273	171.387	86.4139	171.387	86.2814	171.387	86.3686	171.387	86.2374	171.387	86.3188	171.387	86.1927	171.387	86.2626	171.387	86.1438	171.387	86.1982	171.387	86.0877	171.387	86.1248	171.387	86.0236	171.387	86.0442	171.387	85.9536	171.387	85.9607	171.387	85.8824	171.387	85.8806	171.387	85.8167	171.387	85.8107	171.387	85.7633	171.387	85.7571	171.387	85.728	171.387	85.7242	171.387	85.7144
177.246	86.669	177.246	86.6773	177.246	86.6393	177.246	86.6633	177.246	86.5904	177.246	86.6272	177.246	86.5254	177.246	86.5705	177.246	86.4476	177.246	86.4958	177.246	86.3605	177.246	86.4062	177.246	86.2668	177.246	86.305	177.246	86.1683	177.246	86.1946	177.246	86.0655	177.246	86.0768	177.246	85.9581	177.246	85.9524	177.246	85.8454	177.246	85.8223	177.246	85.7278	177.246	85.6887	177.246	85.6079	177.246	85.5564	177.246	85.4907	177.246	85.4322	177.246	85.383	177.246	85.3245	177.246	85.2918	177.246	85.2414	177.246	85.2228	177.246	85.1886	177.246	85.1806	177.246	85.1685
183.105	86.2274	183.105	86.2429	183.105	86.1929	183.105	86.2388	183.105	86.1419	183.105	86.2152	183.105	86.0778	183.105	86.1734	183.105	86.0044	183.105	86.1149	183.105	85.9252	183.105	86.0412	183.105	85.8421	183.105	85.9539	183.105	85.7558	183.105	85.8551	183.105	85.6654	183.105	85.7466	183.105	85.5691	183.105	85.6309	183.105	85.4659	183.105	85.5104	183.105	85.3562	183.105	85.3881	183.105	85.2432	183.105	85.2678	183.105	85.1329	183.105	85.1545	183.105	85.0334	183.105	85.0538	183.105	84.9531	183.105	84.9711	183.105	84.8985	183.105	84.9112	183.105	84.8731	183.105	84.8777
188.965	85.9162	188.965	85.9257	188.965	85.8889	188.965	85.9181	188.965	85.8442	188.965	85.8954	188.965	85.7841	188.965	85.8597	188.965	85.7123	188.965	85.8128	188.965	85.6333	188.965	85.756	188.965	85.5515	188.965	85.6897	188.965	85.4701	188.965	85.6141	188.965	85.3905	188.965	85.5295	188.965	85.3116	188.965	85.4368	188.965	85.2314	188.965	85.3376	188.965	85.148	188.965	85.2342	188.965	85.0616	188.965	85.13	188.965	84.9755	188.965	85.0295	188.965	84.8958	188.965	84.9381	188.965	84.8299	188.965	84.8615	188.965	84.7846	188.965	84.8046	188.965	84.7646	188.965	84.7715
196.289	86.1911	196.289	86.1911	196.289	86.1655	196.289	86.1669	196.289	86.1145	196.289	86.1213	196.289	86.0398	196.289	86.0578	196.289	85.9443	196.289	85.9796	196.289	85.8311	196.289	85.8886	196.289	85.7034	196.289	85.7852	196.289	85.564	196.289	85.6687	196.289	85.4156	196.289	85.5389	196.289	85.2609	196.289	85.3976	196.289	85.1033	196.289	85.2494	196.289	84.9471	196.289	85.1013	196.289	84.7979	196.289	84.9603	196.289	84.6634	196.289	84.8314	196.289	84.5524	196.289	84.7166	196.289	84.4739	196.289	84.6164	196.289	84.4338	196.289	84.5322	196.289	84.4336	196.289	84.4689
203.613	85.9719	203.613	85.9154	203.613	85.9917	203.613	85.8298	203.613	85.97	203.613	85.7246	203.613	85.9054	203.613	85.6096	203.613	85.8004	203.613	85.4931	203.613	85.6608	203.613	85.381	203.613	85.495	203.613	85.2751	203.613	85.3131	203.613	85.1743	203.613	85.1254	203.613	85.0756	203.613	84.9422	203.613	84.9765	203.613	84.7727	203.613	84.8766	203.613	84.6254	203.613	84.7788	203.613	84.5071	203.613	84.6879	203.613	84.4215	203.613	84.6085	203.613	84.369	203.613	84.5422	203.613	84.3467	203.613	84.4876	203.613	84.349	203.613	84.4415	203.613	84.3695	203.613	84.4018
210.938	85.9575	210.938	85.8628	210.938	86.0242	210.938	85.7399	210.938	86.063	210.938	85.5891	210.938	86.0738	210.938	85.4129	210.938	86.0568	210.938	85.2162	210.938	86.0134	210.938	85.0064	210.938	85.9462	210.938	84.7915	210.938	85.8574	210.938	84.5786	210.938	85.7469	210.938	84.3734	210.938	85.6104	210.938	84.1802	210.938	85.4407	210.938	84.0039	210.938	85.2314	210.938	83.8502	210.938	84.9826	210.938	83.7253	210.938	84.7049	210.938	83.6339	210.938	84.4193	210.938	83.5785	210.938	84.1519	210.938	83.56	210.938	83.9264	210.938	83.5798	210.938	83.7561	210.938	83.6426
218.262	85.485	218.262	85.4728	218.262	85.4673	218.262	85.4257	218.262	85.4296	218.262	85.3441	218.262	85.3832	218.262	85.2326	218.262	85.3371	218.262	85.0972	218.262	85.2952	218.262	84.9435	218.262	85.2559	218.262	84.7751	218.262	85.216	218.262	84.5948	218.262	85.173	218.262	84.4065	218.262	85.1269	218.262	84.2184	218.262	85.0773	218.262	84.044	218.262	85.0207	218.262	83.9019	218.262	84.9504	218.262	83.8105	218.262	84.8595	218.262	83.7815	218.262	84.7452	218.262	83.8147	218.262	84.6105	218.262	83.8992	218.262	84.4626	218.262	84.0188	218.262	84.3096	218.262	84.1591
225.586	85.2792	225.586	85.3282	225.586	85.1987	225.586	85.3459	225.586	85.0903	225.586	85.3347	225.586	84.9625	225.586	85.2988	225.586	84.8283	225.586	85.2431	225.586	84.7026	225.586	85.172	225.586	84.5974	225.586	85.0872	225.586	84.5169	225.586	84.9871	225.586	84.4565	225.586	84.867	225.586	84.408	225.586	84.7228	225.586	84.3661	225.586	84.556	225.586	84.3313	225.586	84.3786	225.586	84.308	225.586	84.2134	225.586	84.2976	225.586	84.0873	225.586	84.2939	225.586	84.0207	225.586	84.2841	225.586	84.017	225.586	84.2556	225.586	84.0624	225.586	84.2031	225.586	84.1328
232.91	85.4607	232.91	85.4937	232.91	85.3903	232.91	85.4911	232.91	85.2798	232.91	85.4544	232.91	85.1279	232.91	85.3849	232.91	84.9363	232.91	85.2855	232.91	84.713	232.91	85.16	232.91	84.4732	232.91	85.0128	232.91	84.2384	232.91	84.8469	232.91	84.0309	232.91	84.6637	232.91	83.8664	232.91	84.4636	232.91	83.7485	232.91	84.2496	232.91	83.6691	232.91	84.031	232.91	83.6149	232.91	83.8251	232.91	83.575	232.91	83.6541	232.91	83.5436	232.91	83.5355	232.91	83.5188	232.91	83.4733	232.91	83.4987	232.91	83.4558	232.91	83.4803	232.91	83.4636
241.699	84.643	241.699	84.6546	241.699	84.6168	241.699	84.6535	241.699	84.5752	241.699	84.6429	241.699	84.5177	241.699	84.6259	241.699	84.4441	241.699	84.6046	241.699	84.3542	241.699	84.577	241.699	84.2483	241.699	84.536	241.699	84.1266	241.699	84.4697	241.699	83.9896	241.699	84.3644	241.699	83.8376	241.699	84.2083	241.699	83.6719	241.699	83.9969	241.699	83.495	241.699	83.7358	241.699	83.3104	241.699	83.4423	241.699	83.1237	241.699	83.1439	241.699	82.9415	241.699	82.8739	241.699	82.773	241.699	82.664	241.699	82.631	241.699	82.5356	241.699	82.5319	241.699	82.4945
250.488	82.0477	250.488	82.0813	250.488	82.0074	250.488	82.1138	250.488	81.9753	250.488	82.1684	250.488	81.9832	250.488	82.2762	250.488	82.0675	250.488	82.4625	250.488	82.2522	250.488	82.7337	250.488	82.5339	250.488	83.0703	250.488	82.8809	250.488	83.4313	250.488	83.2452	250.488	83.7666	250.488	83.5789	250.488	84.0301	250.488	83.8454	250.488	84.1892	250.488	84.0235	250.488	84.2297	250.488	84.1053	250.488	84.1583	250.488	84.094	250.488	84.0028	250.488	84.0028	250.488	83.8079	250.488	83.8562	250.488	83.627	250.488	83.691	250.488	83.5087	250.488	83.5525	250.488	83.4832
259.277	84.8542	259.277	84.7696	259.277	84.782	259.277	84.5316	259.277	84.5526	259.277	84.1497	259.277	84.1702	259.277	83.6502	259.277	83.6504	259.277	83.0938	259.277	83.0332	259.277	82.5952	259.277	82.4002	259.277	82.3166	259.277	81.8882	259.277	82.3983	259.277	81.6653	259.277	82.8556	259.277	81.8446	259.277	83.5655	259.277	82.3974	259.277	84.3621	259.277	83.178	259.277	85.1178	259.277	84.0248	259.277	85.7611	259.277	84.8231	259.277	86.2623	259.277	85.5106	259.277	86.617	259.277	86.0614	259.277	86.8332	259.277	86.4709	259.277	86.9229	259.277	86.7451	259.277	86.8935
268.066	86.56	268.066	86.4784	268.066	86.5194	268.066	86.2796	268.066	86.3515	268.066	85.9673	268.066	86.0534	268.066	85.5468	268.066	85.6279	268.066	85.0305	268.066	85.0888	268.066	84.4481	268.066	84.4658	268.066	83.8583	268.066	83.8093	268.066	83.3526	268.066	83.1934	268.066	83.034	268.066	82.7105	268.066	82.9698	268.066	82.4517	268.066	83.152	268.066	82.4707	268.066	83.5079	268.066	82.7522	268.066	83.9426	268.066	83.2159	268.066	84.3722	268.066	83.7537	268.066	84.7359	268.066	84.2675	268.066	84.9953	268.066	84.6888	268.066	85.1294	268.066	84.9797	268.066	85.1265
276.855	86.1276	276.855	86.0844	276.855	86.0855	276.855	85.9483	276.855	85.9614	276.855	85.7096	276.855	85.7543	276.855	85.358	276.855	85.4601	276.855	84.8857	276.855	85.0753	276.855	84.2941	276.855	84.6025	276.855	83.6089	276.855	84.0561	276.855	82.9051	276.855	83.4724	276.855	82.3215	276.855	82.9178	276.855	82.0204	276.855	82.4883	276.855	82.0762	276.855	82.2791	276.855	82.4093	276.855	82.3306	276.855	82.8602	276.855	82.5991	276.855	83.2973	276.855	82.9869	276.855	83.6524	276.855	83.3918	276.855	83.9031	276.855	83.7349	276.855	84.0445	276.855	83.9672	276.855	84.0694
287.109	85.9699	287.109	85.9086	287.109	85.9263	287.109	85.7565	287.109	85.7692	287.109	85.5281	287.109	85.4988	287.109	85.2348	287.109	85.1275	287.109	84.8842	287.109	84.6807	287.109	84.4803	287.109	84.1949	287.109	84.0263	287.109	83.7072	287.109	83.5306	287.109	83.2398	287.109	83.0203	287.109	82.7939	287.109	82.5583	287.109	82.3708	287.109	82.2457	287.109	82.0082	287.109	82.1799	287.109	81.7906	287.109	82.3767	287.109	81.8015	287.109	82.7404	287.109	82.0464	287.109	83.1234	287.109	82.4382	287.109	83.4038	287.109	82.8589	287.109	83.5166	287.109	83.2155	287.109	83.4476
297.363	85.6876	297.363	85.6458	297.363	85.6483	297.363	85.5278	297.363	85.5204	297.363	85.3361	297.363	85.2945	297.363	85.0711	297.363	84.9614	297.363	84.7321	297.363	84.519	297.363	84.3192	297.363	83.9838	297.363	83.8411	297.363	83.4081	297.363	83.3265	297.363	82.8858	297.363	82.8288	297.363	82.5229	297.363	82.4149	297.363	82.3711	297.363	82.1407	297.363	82.3924	297.363	82.0317	297.363	82.5026	297.363	82.0835	297.363	82.6368	297.363	82.2682	297.363	82.7698	297.363	82.5316	297.363	82.8982	297.363	82.7995	297.363	83.014	297.363	83.0014	297.363	83.0928	297.363	83.0986
307.617	85.9077	307.617	85.8868	307.617	85.8512	307.617	85.776	307.617	85.7273	307.617	85.5664	307.617	85.538	307.617	85.2585	307.617	85.2749	307.617	84.8643	307.617	84.9202	307.617	84.4038	307.617	84.4523	307.617	83.8976	307.617	83.8586	307.617	83.3656	307.617	83.1575	307.617	82.8367	307.617	82.4255	307.617	82.3652	307.617	81.8066	307.617	82.0294	307.617	81.4604	307.617	81.8928	307.617	81.4543	307.617	81.9574	307.617	81.7132	307.617	82.164	307.617	82.0924	307.617	82.4328	307.617	82.4676	307.617	82.6931	307.617	82.7624	307.617	82.8888	307.617	82.9376	307.617	82.9783
319.336	85.5325	319.336	85.4632	319.336	85.5103	319.336	85.2999	319.336	85.3976	319.336	85.0395	319.336	85.1928	319.336	84.6805	319.336	84.8933	319.336	84.2247	319.336	84.4975	319.336	83.6796	319.336	84.0089	319.336	83.0626	319.336	83.4411	319.336	82.4094	319.336	82.8273	319.336	81.7885	319.336	82.2293	319.336	81.3095	319.336	81.7371	319.336	81.0897	319.336	81.442	319.336	81.1707	319.336	81.3889	319.336	81.4751	319.336	81.5476	319.336	81.8681	319.336	81.8354	319.336	82.2398	319.336	82.1615	319.336	82.5285	319.336	82.4532	319.336	82.7029	319.336	82.6593	319.336	82.7473
329.59	85.6942	329.59	85.6479	329.59	85.6596	329.59	85.5244	329.59	85.5352	329.59	85.319	329.59	85.3119	329.59	85.0205	329.59	84.9843	329.59	84.6175	329.59	84.5511	329.59	84.1069	329.59	84.0128	329.59	83.4972	329.59	83.3709	329.59	82.8082	329.59	82.6337	329.59	82.072	329.59	81.836	329.59	81.3504	329.59	81.0699	329.59	80.7685	329.59	80.4979	329.59	80.5032	329.59	80.2864	329.59	80.6552	329.59	80.4731	329.59	81.1206	329.59	80.9302	329.59	81.674	329.59	81.474	329.59	82.1316	329.59	81.9614	329.59	82.4029	329.59	82.3057	329.59	82.4601
341.309	85.3084	341.309	85.3034	341.309	85.2165	341.309	85.1885	341.309	85.0422	341.309	84.9567	341.309	84.7969	341.309	84.6093	341.309	84.4869	341.309	84.1571	341.309	84.1144	341.309	83.6193	341.309	83.6817	341.309	83.0224	341.309	83.1951	341.309	82.3994	341.309	82.6677	341.309	81.7926	341.309	82.1231	341.309	81.2543	341.309	81.6026	341.309	80.846	341.309	81.178	341.309	80.629	341.309	80.9474	341.309	80.6441	341.309	80.9824	341.309	80.8786	341.309	81.253	341.309	81.2527	341.309	81.6278	341.309	81.6514	341.309	81.9579	341.309	81.9723	341.309	82.1443	341.309	82.148
353.027	85.1906	353.027	85.1628	353.027	85.1219	353.027	85.0429	353.027	84.9516	353.027	84.8315	353.027	84.6764	353.027	84.5241	353.027	84.2941	353.027	84.1141	353.027	83.8028	353.027	83.597	353.027	83.1991	353.027	82.9759	353.027	82.4823	353.027	82.2677	353.027	81.6684	353.027	81.5154	353.027	80.8189	353.027	80.8079	353.027	80.0692	353.027	80.2871	353.027	79.6032	353.027	80.0906	353.027	79.534	353.027	80.2393	353.027	79.8072	353.027	80.6079	353.027	80.2637	353.027	81.0255	353.027	80.7545	353.027	81.3675	353.027	81.1782	353.027	81.57	353.027	81.4732	353.027	81.6072
366.211	84.8683	366.211	84.7861	366.211	84.872	366.211	84.6295	366.211	84.7891	366.211	84.4007	366.211	84.6054	366.211	84.0963	366.211	84.3055	366.211	83.701	366.211	83.8807	366.211	83.1901	366.211	83.3342	366.211	82.549	366.211	82.6792	366.211	81.802	366.211	81.9302	366.211	81.0249	366.211	81.1055	366.211	80.3216	366.211	80.2557	366.211	79.7823	366.211	79.5146	366.211	79.4777	366.211	79.087	366.211	79.4648	366.211	79.0931	366.211	79.7301	366.211	79.4365	366.211	80.1458	366.211	79.9118	366.211	80.5396	366.211	80.3587	366.211	80.7883	366.211	80.6854	366.211	80.8381
379.395	85.4543	379.395	85.4391	379.395	85.387	379.395	85.3249	379.395	85.2531	379.395	85.0987	379.395	85.0585	379.395	84.7532	379.395	84.7913	379.395	84.2832	379.395	84.4209	379.395	83.6805	379.395	83.9115	379.395	82.9321	379.395	83.2474	379.395	82.0317	379.395	82.4545	379.395	81.0157	379.395	81.6002	379.395	80.0105	379.395	80.7617	379.395	79.2333	379.395	80.0009	379.395	78.8693	379.395	79.4039	379.395	78.9252	379.395	79.1379	379.395	79.2779	379.395	79.3402	379.395	79.7969	379.395	79.899	379.395	80.3532	379.395	80.5099	379.395	80.8028	379.395	80.9197	379.395	81.0173
392.578	85.4115	392.578	85.3953	392.578	85.3649	392.578	85.3226	392.578	85.2391	392.578	85.185	392.578	85.0151	392.578	84.9603	392.578	84.6809	392.578	84.6205	392.578	84.2357	392.578	84.1397	392.578	83.6854	392.578	83.4973	392.578	83.0298	392.578	82.6805	392.578	82.2566	392.578	81.6985	392.578	81.3624	392.578	80.6302	392.578	80.4068	392.578	79.6967	392.578	79.5673	392.578	79.2284	392.578	79.102	392.578	79.3713	392.578	79.1538	392.578	79.9085	392.578	79.6133	392.578	80.5289	392.578	80.2458	392.578	81.0464	392.578	80.8465	392.578	81.3736	392.578	81.2768	392.578	81.4589
405.762	86.262	405.762	86.239	405.762	86.222	405.762	86.1368	405.762	86.1328	405.762	85.9479	405.762	85.9961	405.762	85.6781	405.762	85.7979	405.762	85.3385	405.762	85.5135	405.762	84.9279	405.762	85.1164	405.762	84.4221	405.762	84.5863	405.762	83.7827	405.762	83.9139	405.762	82.9845	405.762	83.1084	405.762	82.0509	405.762	82.2183	405.762	81.0913	405.762	81.3692	405.762	80.3329	405.762	80.7734	405.762	80.0561	405.762	80.6205	405.762	80.3474	405.762	80.8959	405.762	80.9734	405.762	81.3904	405.762	81.6161	405.762	81.8755	405.762	82.0768	405.762	82.1977	405.762	82.2751
420.41	86.8795	420.41	86.8437	420.41	86.8128	420.41	86.7046	420.41	86.6449	420.41	86.4618	420.41	86.3781	420.41	86.1177	420.41	86.016	420.41	85.6773	420.41	85.5594	420.41	85.1427	420.41	85.0012	420.41	84.5024	420.41	84.3247	420.41	83.7291	420.41	83.5104	420.41	82.8033	420.41	82.5527	420.41	81.7748	420.41	81.4944	420.41	80.8342	420.41	80.4822	420.41	80.2891	420.41	79.7992	420.41	80.3141	420.41	79.7112	420.41	80.7534	420.41	80.1706	420.41	81.3138	420.41	80.8607	420.41	81.7891	420.41	81.4977	420.41	82.0778	420.41	81.9385	420.41	82.1338
435.059	85.9138	435.059	85.8757	435.059	85.857	435.059	85.7496	435.059	85.7104	435.059	85.5465	435.059	85.4881	435.059	85.2657	435.059	85.2042	435.059	84.8883	435.059	84.8646	435.059	84.3886	435.059	84.4621	435.059	83.7538	435.059	83.9754	435.059	82.985	435.059	83.3718	435.059	82.0771	435.059	82.6199	435.059	81.0139	435.059	81.7198	435.059	79.8352	435.059	80.7514	435.059	78.7867	435.059	79.9079	435.059	78.3423	435.059	79.4342	435.059	78.7317	435.059	79.4467	435.059	79.5901	435.059	79.8377	435.059	80.4238	435.059	80.3827	435.059	80.9534	435.059	80.8592	435.059	81.0883
451.172	86.3654	451.172	86.3559	451.172	86.3213	451.172	86.2834	451.172	86.204	451.172	86.1153	451.172	85.978	451.172	85.8165	451.172	85.6096	451.172	85.3681	451.172	85.0784	451.172	84.7662	451.172	84.3809	451.172	84.0081	451.172	83.5276	451.172	83.0891	451.172	82.5398	451.172	82.0274	451.172	81.4542	451.172	80.9074	451.172	80.3434	451.172	79.9068	451.172	79.3668	451.172	79.2805	451.172	78.824	451.172	79.2602	451.172	79.0197	451.172	79.841	451.172	79.8764	451.172	80.719	451.172	80.9383	451.172	81.5487	451.172	81.804	451.172	82.1335	451.172	82.298	451.172	82.397
465.82	86.5457	465.82	86.4903	465.82	86.4815	465.82	86.331	465.82	86.2927	465.82	86.0856	465.82	85.989	465.82	85.7686	465.82	85.591	465.82	85.3881	465.82	85.1155	465.82	84.9402	465.82	84.5601	465.82	84.3995	465.82	83.8977	465.82	83.7163	465.82	83.0859	465.82	82.8297	465.82	82.0789	465.82	81.7037	465.82	80.8513	465.82	80.3844	465.82	79.4779	465.82	79.0804	465.82	78.2936	465.82	78.191	465.82	77.8515	465.82	78.0419	465.82	78.2627	465.82	78.5051	465.82	79.0109	465.82	79.1752	465.82	79.6477	465.82	79.7368	465.82	80.0027	465.82	80.0317
483.398	86.6284	483.398	86.6549	483.398	86.516	483.398	86.5865	483.398	86.3361	483.398	86.4316	483.398	86.0934	483.398	86.1958	483.398	85.7678	483.398	85.858	483.398	85.3278	483.398	85.3697	483.398	84.7482	483.398	84.6773	483.398	84.0125	483.398	83.7438	483.398	83.1013	483.398	82.5705	483.398	81.9951	483.398	81.2385	483.398	80.7248	483.398	79.9703	483.398	79.4694	483.398	79.1262	483.398	78.6064	483.398	79.0039	483.398	78.4825	483.398	79.5629	483.398	79.036	483.398	80.438	483.398	79.8993	483.398	81.2225	483.398	80.7441	483.398	81.6721	483.398	81.3835	483.398	81.7159
499.512	85.952	499.512	85.9614	499.512	85.8724	499.512	85.8853	499.512	85.7349	499.512	85.7126	499.512	85.5507	499.512	85.4466	499.512	85.3235	499.512	85.0983	499.512	85.0285	499.512	84.6632	499.512	84.6051	499.512	84.1034	499.512	83.9867	499.512	83.3627	499.512	83.1429	499.512	82.3968	499.512	82.0895	499.512	81.206	499.512	80.8529	499.512	79.9049	499.512	79.4629	499.512	78.8431	499.512	78.131	499.512	78.5143	499.512	77.5161	499.512	78.9928	499.512	78.1105	499.512	79.8358	499.512	79.3334	499.512	80.6399	499.512	80.4465	499.512	81.1989	499.512	81.1538	499.512	81.3956
517.09	86.7174	517.09	86.6794	517.09	86.6733	517.09	86.5866	517.09	86.5264	517.09	86.4344	517.09	86.2812	517.09	86.1804	517.09	85.9483	517.09	85.7842	517.09	85.524	517.09	85.2405	517.09	85.0015	517.09	84.5655	517.09	84.378	517.09	83.7495	517.09	83.619	517.09	82.7232	517.09	82.6228	517.09	81.3832	517.09	81.2719	517.09	79.7053	517.09	79.6032	517.09	78.0131	517.09	78.0836	517.09	77.2497	517.09	77.6118	517.09	78.0237	517.09	78.4203	517.09	79.5374	517.09	79.7436	517.09	80.9156	517.09	80.95	517.09	81.797	517.09	81.7704	517.09	82.0778
536.133	85.6957	536.133	85.6985	536.133	85.5599	536.133	85.5784	536.133	85.3103	536.133	85.3795	536.133	84.9849	536.133	85.1511	536.133	84.6284	536.133	84.8959	536.133	84.2631	536.133	84.5547	536.133	83.8531	536.133	84.0522	536.133	83.3101	536.133	83.3469	536.133	82.5501	536.133	82.4293	536.133	81.5407	536.133	81.2933	536.133	80.304	536.133	79.9731	536.133	78.9339	536.133	78.7206	536.133	77.7312	536.133	78.1031	536.133	77.2771	536.133	78.417	536.133	77.8166	536.133	79.1964	536.133	78.8132	536.133	79.9071	536.133	79.6984	536.133	80.3411	536.133	80.255	536.133	80.4614
555.176	86.7804	555.176	86.7293	555.176	86.7442	555.176	86.5762	555.176	86.6333	555.176	86.3288	555.176	86.4361	555.176	86.0163	555.176	86.1184	555.176	85.6606	555.176	85.6505	555.176	85.2463	555.176	85.0343	555.176	84.7085	555.176	84.2849	555.176	83.9351	555.176	83.3577	555.176	82.7928	555.176	82.1057	555.176	81.1758	555.176	80.3331	555.176	79.0845	555.176	77.915	555.176	76.8529	555.176	75.1636	555.176	75.6474	555.176	73.9599	555.176	76.5596	555.176	75.7176	555.176	78.4578	555.176	78.1445	555.176	80.0714	555.176	79.955	555.176	81.0431	555.176	81.0039	555.176	81.3515
574.219	86.8756	574.219	86.8578	574.219	86.823	574.219	86.7539	574.219	86.7077	574.219	86.5575	574.219	86.5394	574.219	86.2885	574.219	86.3369	574.219	85.9552	574.219	86.0983	574.219	85.4989	574.219	85.7688	574.219	84.8396	574.219	85.2662	574.219	83.982	574.219	84.5414	574.219	82.9817	574.219	83.5819	574.219	81.7625	574.219	82.3257	574.219	80.1481	574.219	80.6196	574.219	78.3845	574.219	78.4034	574.219	77.6769	574.219	76.3105	574.219	78.5172	574.219	76.078	574.219	79.7281	574.219	77.7299	574.219	80.6528	574.219	79.5435	574.219	81.1988	574.219	80.7658	574.219	81.2855
594.727	86.8513	594.727	86.7798	594.727	86.8275	594.727	86.6656	594.727	86.6666	594.727	86.5132	594.727	86.3968	594.727	86.2945	594.727	86.1013	594.727	86.018	594.727	85.8369	594.727	85.731	594.727	85.5711	594.727	85.4082	594.727	85.195	594.727	84.8956	594.727	84.5846	594.727	84.0067	594.727	83.662	594.727	82.6196	594.727	82.4009	594.727	80.6787	594.727	80.7685	594.727	78.2662	594.727	78.773	594.727	76.2349	594.727	77.0718	594.727	76.4547	594.727	77.3036	594.727	78.376	594.727	78.9536	594.727	80.1538	594.727	80.3557	594.727	81.178	594.727	81.1601	594.727	81.4555
615.234	87.0023	615.234	87.0109	615.234	86.9266	615.234	86.9098	615.234	86.7974	615.234	86.6848	615.234	86.5959	615.234	86.3761	615.234	86.3042	615.234	86.0156	615.234	85.9272	615.234	85.5897	615.234	85.4793	615.234	85.0783	615.234	84.9455	615.234	84.4244	615.234	84.2635	615.234	83.4693	615.234	83.3331	615.234	82.0642	615.234	82.0172	615.234	80.2496	615.234	80.2147	615.234	78.2657	615.234	78.1732	615.234	76.6504	615.234	76.8509	615.234	76.6389	615.234	77.0586	615.234	78.2551	615.234	78.4309	615.234	79.9732	615.234	80.1328	615.234	81.1732	615.234	81.3597	615.234	81.699
637.207	87.1223	637.207	86.995	637.207	87.1259	637.207	86.7976	637.207	86.9878	637.207	86.5571	637.207	86.7479	637.207	86.2826	637.207	86.4605	637.207	86.0119	637.207	86.1635	637.207	85.7552	637.207	85.8864	637.207	85.4386	637.207	85.628	637.207	84.9702	637.207	85.305	637.207	84.2447	637.207	84.7401	637.207	83.0482	637.207	83.686	637.207	81.104	637.207	81.8474	637.207	78.4365	637.207	78.9529	637.207	76.4066	637.207	75.45	637.207	77.0459	637.207	74.926	637.207	78.9947	637.207	77.3861	637.207	80.6389	637.207	79.369	637.207	81.4612	637.207	80.6375	637.207	81.3897
659.18	86.9054	659.18	86.8138	659.18	86.7607	659.18	86.4948	659.18	86.452	659.18	86.0578	659.18	86.0918	659.18	85.661	659.18	85.7862	659.18	85.3996	659.18	85.5602	659.18	85.2133	659.18	85.3449	659.18	84.9241	659.18	85.0606	659.18	84.404	659.18	84.6198	659.18	83.656	659.18	83.8634	659.18	82.6289	659.18	82.6428	659.18	81.0277	659.18	80.8968	659.18	78.5486	659.18	78.4581	659.18	75.9938	659.18	75.4067	659.18	76.4498	659.18	75.1	659.18	78.8097	659.18	78.1341	659.18	80.6549	659.18	80.5152	659.18	81.7743	659.18	81.7944	659.18	82.1803
682.617	87.0085	682.617	86.9518	682.617	86.8183	682.617	86.6704	682.617	86.4233	682.617	86.2242	682.617	85.8964	682.617	85.6741	682.617	85.3031	682.617	85.1018	682.617	84.7428	682.617	84.6311	682.617	84.3408	682.617	84.312	682.617	84.074	682.617	83.9742	682.617	83.7771	682.617	83.3428	682.617	83.311	682.617	82.2647	682.617	82.4799	682.617	80.6435	682.617	80.9499	682.617	78.1311	682.617	78.4687	682.617	74.339	682.617	75.3246	682.617	72.9947	682.617	74.2736	682.617	76.9717	682.617	76.9783	682.617	79.9308	682.617	79.58	682.617	81.2906	682.617	81.0329	682.617	81.5633
707.52	87.2099	707.52	87.0388	707.52	87.1921	707.52	86.6756	707.52	86.9559	707.52	86.1418	707.52	86.4903	707.52	85.5516	707.52	85.8839	707.52	85.044	707.52	85.2773	707.52	84.6656	707.52	84.7551	707.52	84.4096	707.52	84.3468	707.52	84.1863	707.52	83.9927	707.52	83.6559	707.52	83.4616	707.52	82.3804	707.52	82.4179	707.52	80.1745	707.52	80.4819	707.52	77.2262	707.52	77.273	707.52	73.9701	707.52	73.0147	707.52	72.7664	707.52	71.4341	707.52	75.8505	707.52	74.519	707.52	78.8736	707.52	77.9302	707.52	80.5761	707.52	80.1774	707.52	81.0287
732.422	86.8497	732.422	86.6237	732.422	86.8873	732.422	86.2872	732.422	86.7086	732.422	85.84	732.422	86.3355	732.422	85.177	732.422	85.8079	732.422	84.3493	732.422	85.2012	732.422	83.67	732.422	84.6308	732.422	83.2426	732.422	84.13	732.422	82.8415	732.422	83.6339	732.422	82.3643	732.422	83.153	732.422	81.6299	732.422	82.6276	732.422	80.1526	732.422	81.6131	732.422	77.4552	732.422	79.4207	732.422	73.3775	732.422	75.4369	732.422	71.1284	732.422	70.9612	732.422	73.9524	732.422	73.4567	732.422	76.5043	732.422	76.774	732.422	78.0653	732.422	78.3565	732.422	78.7152
757.324	86.8118	757.324	86.6891	757.324	86.695	757.324	86.3767	757.324	86.297	757.324	85.8734	757.324	85.6695	757.324	85.2235	757.324	84.9404	757.324	84.5442	757.324	84.2991	757.324	83.9722	757.324	83.87	757.324	83.6091	757.324	83.5854	757.324	83.3085	757.324	83.2941	757.324	82.7996	757.324	82.7939	757.324	82.0304	757.324	81.9227	757.324	80.7561	757.324	80.6878	757.324	78.1106	757.324	78.8589	757.324	73.4145	757.324	75.6714	757.324	71.2254	757.324	72.3811	757.324	74.9425	757.324	74.5971	757.324	77.9944	757.324	77.3154	757.324	79.6428	757.324	78.9917	757.324	79.8822
785.156	87.9386	785.156	87.8438	785.156	87.7323	785.156	87.2598	785.156	87.5435	785.156	86.388	785.156	87.38	785.156	85.5335	785.156	86.929	785.156	84.6853	785.156	86.0871	785.156	83.854	785.156	85.2815	785.156	83.4775	785.156	84.9207	785.156	83.5314	785.156	84.7523	785.156	83.1328	785.156	84.4639	785.156	82.0358	785.156	83.8577	785.156	80.8366	785.156	82.5806	785.156	79.5497	785.156	80.5355	785.156	76.8727	785.156	77.8138	785.156	70.9852	785.156	73.3192	785.156	67.2213	785.156	71.3397	785.156	74.1478	785.156	76.4046	785.156	77.4734	785.156	78.7609	785.156	78.8322
811.523	86.8098	811.523	86.8425	811.523	86.3083	811.523	86.3269	811.523	85.566	811.523	85.4019	811.523	84.7614	811.523	84.3642	811.523	83.8175	811.523	83.4547	811.523	82.6973	811.523	82.6912	811.523	81.716	811.523	82.0326	811.523	81.1316	811.523	81.6461	811.523	80.7913	811.523	81.6665	811.523	80.6084	811.523	81.5954	811.523	80.7945	811.523	80.785	811.523	80.8793	811.523	78.9781	811.523	79.884	811.523	75.9098	811.523	77.5257	811.523	71.5136	811.523	75.2898	811.523	72.0587	811.523	73.9977	811.523	75.743	811.523	73.6349	811.523	77.6922	811.523	75.6723	811.523	77.6226
840.82	86.5494	840.82	86.2635	840.82	86.5707	840.82	85.82	840.82	86.3043	840.82	85.4097	840.82	85.6165	840.82	84.7797	840.82	84.6461	840.82	83.7566	840.82	83.6925	840.82	82.8149	840.82	82.7829	840.82	82.116	840.82	81.9371	840.82	81.2446	840.82	81.4543	840.82	80.2462	840.82	81.266	840.82	79.4638	840.82	80.6064	840.82	78.5575	840.82	79.7607	840.82	76.9242	840.82	79.1462	840.82	73.7639	840.82	77.0957	840.82	69.6317	840.82	75.5854	840.82	75.3702	840.82	78.2206	840.82	80.008	840.82	80.0501	840.82	81.8551	840.82	80.9551	840.82	81.7961
870.117	88.4188	870.117	88.2523	870.117	88.2616	870.117	87.7061	870.117	87.7659	870.117	86.7507	870.117	87.0123	870.117	85.5793	870.117	86.0844	870.117	84.3512	870.117	85.0698	870.117	83.1654	870.117	84.1999	870.117	82.3394	870.117	83.4617	870.117	81.8965	870.117	82.6187	870.117	81.5226	870.117	81.7863	870.117	81.0446	870.117	81.1048	870.117	80.4053	870.117	80.4548	870.117	79.4895	870.117	79.7833	870.117	77.6674	870.117	78.271	870.117	72.8763	870.117	75.2501	870.117	69.5042	870.117	75.4089	870.117	75.6101	870.117	78.2386	870.117	77.8749	870.117	79.283	870.117	78.8736
900.879	86.3105	900.879	86.035	900.879	86.458	900.879	85.6965	900.879	86.1206	900.879	85.1785	900.879	85.2281	900.879	84.3875	900.879	84.3254	900.879	83.139	900.879	83.5714	900.879	81.1392	900.879	82.7934	900.879	78.8082	900.879	82.4024	900.879	77.6834	900.879	82.4882	900.879	77.7512	900.879	82.3636	900.879	77.6974	900.879	81.659	900.879	77.1385	900.879	80.6973	900.879	76.186	900.879	79.2697	900.879	74.0768	900.879	76.8392	900.879	68.4006	900.879	73.8278	900.879	68.2529	900.879	73.8573	900.879	74.4586	900.879	76.4903	900.879	77.4593	900.879	77.8506	900.879	78.2689
933.105	86.7823	933.105	86.6939	933.105	87.0891	933.105	86.7101	933.105	87.0609	933.105	86.2563	933.105	86.2569	933.105	85.1086	933.105	84.8335	933.105	83.4604	933.105	83.445	933.105	81.8746	933.105	82.5332	933.105	80.6791	933.105	81.6841	933.105	79.1078	933.105	80.5625	933.105	77.3751	933.105	80.3996	933.105	77.4253	933.105	80.5315	933.105	78.4096	933.105	78.8205	933.105	77.8692	933.105	75.7734	933.105	75.0005	933.105	72.3505	933.105	71.445	933.105	69.1533	933.105	59.3671	933.105	73.8131	933.105	67.3049	933.105	76.7182	933.105	74.7313	933.105	77.8655	933.105	77.6147
965.332	88.1689	965.332	88.1133	965.332	88.201	965.332	87.9208	965.332	87.7663	965.332	87.3884	965.332	86.5473	965.332	86.5054	965.332	85.1341	965.332	85.0604	965.332	84.1915	965.332	82.9262	965.332	83.2632	965.332	80.9343	965.332	82.1823	965.332	79.8161	965.332	81.0282	965.332	78.6761	965.332	79.458	965.332	77.2337	965.332	78.7653	965.332	77.6262	965.332	79.486	965.332	79.0597	965.332	79.9049	965.332	78.4495	965.332	78.8382	965.332	75.4314	965.332	74.9858	965.332	73.0429	965.332	69.09	965.332	73.3743	965.332	71.5777	965.332	76.3325	965.332	74.2265	965.332	76.529
1,000.49	86.7203	1,000.49	86.4273	1,000.49	86.542	1,000.49	85.8053	1,000.49	86.1645	1,000.49	85.0135	1,000.49	85.5954	1,000.49	84.091	1,000.49	84.3907	1,000.49	83.2535	1,000.49	82.6462	1,000.49	82.5284	1,000.49	81.3301	1,000.49	81.4673	1,000.49	81.1554	1,000.49	80.2556	1,000.49	81.2521	1,000.49	79.3811	1,000.49	81.2411	1,000.49	78.8245	1,000.49	80.8592	1,000.49	79.6524	1,000.49	78.7841	1,000.49	80.4782	1,000.49	74.4987	1,000.49	78.6977	1,000.49	72.2943	1,000.49	73.4039	1,000.49	71.1666	1,000.49	68.2179	1,000.49	72.0152	1,000.49	70.4264	1,000.49	75.0253	1,000.49	73.588	1,000.49	75.9735	1,000.49	75.5356
1,035.64	86.5765	1,035.64	86.2342	1,035.64	86.317	1,035.64	85.6519	1,035.64	85.2548	1,035.64	84.8758	1,035.64	83.5955	1,035.64	83.7933	1,035.64	82.1439	1,035.64	82.4054	1,035.64	81.2689	1,035.64	80.6987	1,035.64	79.8591	1,035.64	79.6701	1,035.64	78.0882	1,035.64	79.1464	1,035.64	78.6909	1,035.64	78.504	1,035.64	78.8004	1,035.64	77.0894	1,035.64	76.5556	1,035.64	73.7794	1,035.64	76.7409	1,035.64	76.6832	1,035.64	78.3254	1,035.64	79.324	1,035.64	77.546	1,035.64	76.9098	1,035.64	74.0918	1,035.64	74.5234	1,035.64	70.5254	1,035.64	75.4398	1,035.64	72.923	1,035.64	76.0398	1,035.64	75.3527	1,035.64	76.8743
1,072.27	86.9042	1,072.27	86.6853	1,072.27	87.003	1,072.27	86.5627	1,072.27	86.439	1,072.27	85.9344	1,072.27	85.4481	1,072.27	84.7927	1,072.27	84.4007	1,072.27	83.2909	1,072.27	83.0572	1,072.27	81.0897	1,072.27	81.1214	1,072.27	78.5631	1,072.27	78.8593	1,072.27	78.1235	1,072.27	77.413	1,072.27	78.0987	1,072.27	78.2116	1,072.27	77.9681	1,072.27	77.3553	1,072.27	78.6906	1,072.27	74.3882	1,072.27	77.4134	1,072.27	73.4425	1,072.27	76.568	1,072.27	72.2332	1,072.27	76.3621	1,072.27	53.3191	1,072.27	73.3639	1,072.27	71.3064	1,072.27	74.1219	1,072.27	75.1495	1,072.27	76.8768	1,072.27	75.7573	1,072.27	77.1649
1,108.89	86.552	1,108.89	86.8222	1,108.89	86.4538	1,108.89	86.8509	1,108.89	85.8682	1,108.89	85.9815	1,108.89	84.7454	1,108.89	84.9178	1,108.89	83.9445	1,108.89	83.7984	1,108.89	83.5468	1,108.89	81.8596	1,108.89	83.2724	1,108.89	80.8505	1,108.89	82.6164	1,108.89	81.3535	1,108.89	81.0143	1,108.89	81.6719	1,108.89	80.7308	1,108.89	81.0693	1,108.89	80.149	1,108.89	79.0486	1,108.89	79.1271	1,108.89	76.6638	1,108.89	76.5392	1,108.89	76.3301	1,108.89	72.1896	1,108.89	76.7329	1,108.89	69.4667	1,108.89	78.4202	1,108.89	60.9754	1,108.89	79.0473	1,108.89	71.8068	1,108.89	78.2682	1,108.89	76.6133	1,108.89	77.7639
1,148.44	84.9426	1,148.44	85.2627	1,148.44	84.8708	1,148.44	85.1208	1,148.44	84.6155	1,148.44	84.2374	1,148.44	83.7451	1,148.44	83.2488	1,148.44	82.7708	1,148.44	81.967	1,148.44	81.5852	1,148.44	79.9426	1,148.44	80.1234	1,148.44	78.0955	1,148.44	79.3981	1,148.44	78.1883	1,148.44	78.209	1,148.44	78.1038	1,148.44	77.2174	1,148.44	77.2607	1,148.44	77.6406	1,148.44	76.6468	1,148.44	76.094	1,148.44	75.5608	1,148.44	73.9049	1,148.44	73.6793	1,148.44	69.7587	1,148.44	69.8815	1,148.44	66.7568	1,148.44	69.4225	1,148.44	65.5006	1,148.44	74.3361	1,148.44	70.9442	1,148.44	75.6514	1,148.44	73.3526	1,148.44	73.9983
1,189.45	85.8976	1,189.45	85.8401	1,189.45	85.5184	1,189.45	85.7202	1,189.45	85.4477	1,189.45	85.5357	1,189.45	85.371	1,189.45	84.4615	1,189.45	84.2863	1,189.45	82.6584	1,189.45	82.5186	1,189.45	81.1644	1,189.45	80.7988	1,189.45	80.4974	1,189.45	79.2903	1,189.45	81.6369	1,189.45	76.3952	1,189.45	82.1051	1,189.45	74.2274	1,189.45	80.5345	1,189.45	76.1235	1,189.45	80.9089	1,189.45	79.1599	1,189.45	78.8821	1,189.45	78.2343	1,189.45	75.0659	1,189.45	73.0938	1,189.45	69.6335	1,189.45	69.8416	1,189.45	69.073	1,189.45	67.0426	1,189.45	76.4055	1,189.45	66.1228	1,189.45	76.4041	1,189.45	73.4258	1,189.45	73.7664
1,230.47	85.578	1,230.47	85.1835	1,230.47	85.3143	1,230.47	84.3814	1,230.47	85.0911	1,230.47	83.9233	1,230.47	84.9744	1,230.47	82.6977	1,230.47	84.3158	1,230.47	80.4369	1,230.47	83.3818	1,230.47	79.8427	1,230.47	81.7009	1,230.47	80.3743	1,230.47	79.9864	1,230.47	80.3597	1,230.47	79.6937	1,230.47	80.1729	1,230.47	77.1923	1,230.47	79.6815	1,230.47	77.0499	1,230.47	77.9263	1,230.47	77.5879	1,230.47	76.6532	1,230.47	74.8414	1,230.47	74.8801	1,230.47	71.8148	1,230.47	69.5258	1,230.47	70.0736	1,230.47	70.5145	1,230.47	70.9321	1,230.47	75.6925	1,230.47	73.1105	1,230.47	76.9806	1,230.47	77.2418	1,230.47	77.2438
1,274.41	86.6058	1,274.41	85.9351	1,274.41	86.5851	1,274.41	84.8767	1,274.41	86.2572	1,274.41	84.4191	1,274.41	85.7072	1,274.41	83.9187	1,274.41	84.6475	1,274.41	83.151	1,274.41	83.482	1,274.41	81.8824	1,274.41	82.1117	1,274.41	78.7963	1,274.41	78.7838	1,274.41	74.5968	1,274.41	78.4533	1,274.41	75.0472	1,274.41	79.4032	1,274.41	78.5267	1,274.41	78.8621	1,274.41	78.9407	1,274.41	78.058	1,274.41	76.9833	1,274.41	76.2345	1,274.41	73.4948	1,274.41	73.5238	1,274.41	66.8222	1,274.41	67.2009	1,274.41	68.7787	1,274.41	66.5929	1,274.41	75.6411	1,274.41	73.8389	1,274.41	77.5653	1,274.41	78.591	1,274.41	79.148
1,319.82	87.4312	1,319.82	86.819	1,319.82	87.3504	1,319.82	85.9146	1,319.82	86.546	1,319.82	85.1216	1,319.82	85.8506	1,319.82	84.255	1,319.82	85.0715	1,319.82	83.5404	1,319.82	84.0434	1,319.82	82.5122	1,319.82	82.4193	1,319.82	80.1097	1,319.82	79.5629	1,319.82	75.2895	1,319.82	77.7376	1,319.82	73.8029	1,319.82	75.5131	1,319.82	79.404	1,319.82	74.9963	1,319.82	80.3789	1,319.82	77.4894	1,319.82	79.1618	1,319.82	78.3203	1,319.82	76.3169	1,319.82	76.9832	1,319.82	69.309	1,319.82	71.6742	1,319.82	59.6775	1,319.82	57.6318	1,319.82	74.9352	1,319.82	73.9236	1,319.82	78.5335	1,319.82	78.8208	1,319.82	78.904
1,366.7	88.0148	1,366.7	87.9707	1,366.7	87.8126	1,366.7	87.3685	1,366.7	86.9247	1,366.7	86.2603	1,366.7	86.1669	1,366.7	85.3873	1,366.7	85.6143	1,366.7	84.7287	1,366.7	84.3858	1,366.7	83.4833	1,366.7	83.8353	1,366.7	81.302	1,366.7	82.5765	1,366.7	78.4205	1,366.7	80.313	1,366.7	75.8099	1,366.7	77.782	1,366.7	74.2473	1,366.7	75.97	1,366.7	76.6202	1,366.7	78.3471	1,366.7	76.9583	1,366.7	79.139	1,366.7	75.4411	1,366.7	78.7798	1,366.7	74.4946	1,366.7	75.6348	1,366.7	66.828	1,366.7	66.6647	1,366.7	63.766	1,366.7	70.1946	1,366.7	71.3016	1,366.7	75.6312	1,366.7	75.798
1,413.57	88.5481	1,413.57	88.49	1,413.57	88.101	1,413.57	87.9263	1,413.57	87.2594	1,413.57	87.1988	1,413.57	86.261	1,413.57	86.0477	1,413.57	85.1922	1,413.57	84.842	1,413.57	83.9433	1,413.57	83.4924	1,413.57	83.1812	1,413.57	81.7835	1,413.57	80.9755	1,413.57	79.6701	1,413.57	79.6546	1,413.57	77.2726	1,413.57	77.9735	1,413.57	74.3261	1,413.57	76.9268	1,413.57	75.3686	1,413.57	76.2914	1,413.57	74.5536	1,413.57	78.07	1,413.57	75.4706	1,413.57	78.1765	1,413.57	75.5388	1,413.57	75.78	1,413.57	70.2447	1,413.57	70.117	1,413.57	61.1086	1,413.57	57.868	1,413.57	67.0407	1,413.57	73.4591	1,413.57	73.2388
1,463.38	88.5801	1,463.38	88.6213	1,463.38	88.1609	1,463.38	88.1131	1,463.38	87.5533	1,463.38	87.3575	1,463.38	86.5312	1,463.38	86.4397	1,463.38	85.2288	1,463.38	84.759	1,463.38	83.9664	1,463.38	83.5082	1,463.38	82.8844	1,463.38	81.3647	1,463.38	81.9799	1,463.38	79.4968	1,463.38	79.5979	1,463.38	77.8341	1,463.38	77.0531	1,463.38	74.4178	1,463.38	74.0186	1,463.38	75.2129	1,463.38	74.2547	1,463.38	77.0794	1,463.38	77.1175	1,463.38	75.9795	1,463.38	76.9384	1,463.38	77.1071	1,463.38	75.8751	1,463.38	71.6528	1,463.38	70.3942	1,463.38	66.0804	1,463.38	66.5596	1,463.38	71.4952	1,463.38	74.1916	1,463.38	74.9002
1,516.11	88.0902	1,516.11	88.1643	1,516.11	87.7831	1,516.11	87.5288	1,516.11	87.1076	1,516.11	86.7451	1,516.11	86.0536	1,516.11	85.6054	1,516.11	84.8524	1,516.11	84.7856	1,516.11	83.464	1,516.11	83.5049	1,516.11	82.0287	1,516.11	81.8105	1,516.11	80.2886	1,516.11	79.8071	1,516.11	77.6417	1,516.11	77.4994	1,516.11	74.1956	1,516.11	76.5948	1,516.11	74.8835	1,516.11	75.4936	1,516.11	76.4677	1,516.11	76.5834	1,516.11	74.3904	1,516.11	75.3234	1,516.11	74.5693	1,516.11	74.9237	1,516.11	74.0891	1,516.11	70.1516	1,516.11	67.7356	1,516.11	68.71	1,516.11	62.7798	1,516.11	72.8628	1,516.11	73.217	1,516.11	74.9118
1,568.85	87.2297	1,568.85	87.1899	1,568.85	87.0957	1,568.85	86.5324	1,568.85	86.1778	1,568.85	85.6659	1,568.85	84.6897	1,568.85	84.5825	1,568.85	83.4442	1,568.85	83.7456	1,568.85	81.8945	1,568.85	82.0325	1,568.85	80.4263	1,568.85	80.1485	1,568.85	78.3273	1,568.85	78.3104	1,568.85	77.6363	1,568.85	74.7373	1,568.85	74.8085	1,568.85	75.8696	1,568.85	74.0801	1,568.85	75.7303	1,568.85	71.6278	1,568.85	75.3969	1,568.85	70.371	1,568.85	72.8297	1,568.85	73.4112	1,568.85	74.9265	1,568.85	73.197	1,568.85	71.6154	1,568.85	67.9014	1,568.85	70.8179	1,568.85	66.049	1,568.85	76.1456	1,568.85	75.044	1,568.85	76.3112
1,624.51	87.1467	1,624.51	87.0489	1,624.51	87.0266	1,624.51	86.3858	1,624.51	85.7324	1,624.51	85.582	1,624.51	84.1802	1,624.51	84.2447	1,624.51	82.9855	1,624.51	82.8156	1,624.51	81.634	1,624.51	81.3173	1,624.51	79.2824	1,624.51	80.8379	1,624.51	77.3949	1,624.51	78.0949	1,624.51	77.0489	1,624.51	74.8833	1,624.51	75.5144	1,624.51	75.1375	1,624.51	72.9605	1,624.51	75.2356	1,624.51	62.7053	1,624.51	74.2362	1,624.51	65.2381	1,624.51	72.1588	1,624.51	69.6172	1,624.51	72.9773	1,624.51	69.5668	1,624.51	67.2075	1,624.51	64.3747	1,624.51	65.0971	1,624.51	64.5553	1,624.51	74.6114	1,624.51	72.456	1,624.51	72.7158
1,681.64	87.7336	1,681.64	87.2906	1,681.64	86.8836	1,681.64	87.1136	1,681.64	85.6517	1,681.64	86.2247	1,681.64	84.3662	1,681.64	84.6308	1,681.64	83.1001	1,681.64	83.395	1,681.64	82.369	1,681.64	81.7992	1,681.64	80.6144	1,681.64	81.7902	1,681.64	79.6028	1,681.64	80.3449	1,681.64	77.1453	1,681.64	77.0964	1,681.64	76.9858	1,681.64	76.8536	1,681.64	70.9744	1,681.64	74.6289	1,681.64	68.8626	1,681.64	75.4262	1,681.64	73.6586	1,681.64	74.3384	1,681.64	75.6913	1,681.64	73.1538	1,681.64	73.5916	1,681.64	71.7853	1,681.64	71.3624	1,681.64	63.7197	1,681.64	62.2192	1,681.64	74.9039	1,681.64	72.7871	1,681.64	74.0261
1,741.7	88.3317	1,741.7	88.354	1,741.7	87.89	1,741.7	87.7648	1,741.7	87.5222	1,741.7	86.4164	1,741.7	85.984	1,741.7	85.8363	1,741.7	84.2101	1,741.7	84.5949	1,741.7	83.5746	1,741.7	83.4639	1,741.7	82.8561	1,741.7	83.0441	1,741.7	80.3194	1,741.7	82.5926	1,741.7	75.9582	1,741.7	79.8757	1,741.7	72.1006	1,741.7	75.0071	1,741.7	64.243	1,741.7	73.7222	1,741.7	70.8253	1,741.7	73.3335	1,741.7	71.5858	1,741.7	73.3113	1,741.7	75.5394	1,741.7	76.8698	1,741.7	75.0584	1,741.7	74.6474	1,741.7	68.4214	1,741.7	65.5683	1,741.7	68.7075	1,741.7	72.6511	1,741.7	61.6944	1,741.7	72.4906
1,803.22	87.7799	1,803.22	87.998	1,803.22	87.1781	1,803.22	87.9766	1,803.22	87.5671	1,803.22	86.7203	1,803.22	86.041	1,803.22	85.5388	1,803.22	84.2042	1,803.22	85.4523	1,803.22	84.4561	1,803.22	83.965	1,803.22	82.3713	1,803.22	81.6952	1,803.22	81.7287	1,803.22	79.4962	1,803.22	80.6289	1,803.22	75.6626	1,803.22	76.9564	1,803.22	73.2538	1,803.22	73.8505	1,803.22	70.7238	1,803.22	75.9837	1,803.22	71.2135	1,803.22	72.1335	1,803.22	68.7165	1,803.22	73.9865	1,803.22	74.4271	1,803.22	75.3846	1,803.22	66.3312	1,803.22	72.8395	1,803.22	73.4329	1,803.22	67.7464	1,803.22	75.1518	1,803.22	71.5713	1,803.22	75.1717
1,866.21	88.0221	1,866.21	87.5442	1,866.21	87.2651	1,866.21	87.3099	1,866.21	87.2539	1,866.21	86.0421	1,866.21	86.3399	1,866.21	85.2367	1,866.21	84.4929	1,866.21	82.8979	1,866.21	81.9676	1,866.21	81.8921	1,866.21	79.7026	1,866.21	80.145	1,866.21	80.002	1,866.21	78.4661	1,866.21	78.9183	1,866.21	76.2817	1,866.21	75.5348	1,866.21	72.1508	1,866.21	73.2725	1,866.21	69.5376	1,866.21	76.1554	1,866.21	69.1178	1,866.21	76.7599	1,866.21	71.2399	1,866.21	71.5812	1,866.21	72.3492	1,866.21	73.9109	1,866.21	68.9533	1,866.21	71.67	1,866.21	72.3366	1,866.21	66.8607	1,866.21	71.1411	1,866.21	67.7511	1,866.21	71.7698
1,932.13	87.5649	1,932.13	87.2767	1,932.13	87.328	1,932.13	86.5469	1,932.13	86.6892	1,932.13	85.5606	1,932.13	86.0879	1,932.13	84.1789	1,932.13	84.8337	1,932.13	81.8507	1,932.13	83.1974	1,932.13	80.3354	1,932.13	80.9865	1,932.13	78.1905	1,932.13	79.3536	1,932.13	76.9029	1,932.13	78.0427	1,932.13	74.8735	1,932.13	77.2751	1,932.13	73.4288	1,932.13	73.9528	1,932.13	72.1739	1,932.13	73.6449	1,932.13	69.9841	1,932.13	71.8497	1,932.13	66.0433	1,932.13	70.3193	1,932.13	67.9202	1,932.13	68.82	1,932.13	66.2645	1,932.13	71.1628	1,932.13	64.4638	1,932.13	68.1609	1,932.13	70.878	1,932.13	68.8081	1,932.13	72.0825
1,999.51	87.3665	1,999.51	86.6367	1,999.51	87.3752	1,999.51	85.8219	1,999.51	86.7876	1,999.51	84.9364	1,999.51	86.1859	1,999.51	83.6308	1,999.51	84.936	1,999.51	82.21	1,999.51	83.2972	1,999.51	78.8139	1,999.51	81.4648	1,999.51	76.5383	1,999.51	79.7359	1,999.51	75.4422	1,999.51	78.0923	1,999.51	74.0002	1,999.51	77.3745	1,999.51	71.6196	1,999.51	74.4733	1,999.51	72.106	1,999.51	73.4408	1,999.51	69.8861	1,999.51	72.8983	1,999.51	66.4407	1,999.51	70.7195	1,999.51	68.079	1,999.51	69.4734	1,999.51	63.8752	1,999.51	67.5499	1,999.51	60.4623	1,999.51	62.9646	1,999.51	69.0555	1,999.51	68.2999	1,999.51	70.7983
2,069.82	87.873	2,069.82	87.3557	2,069.82	87.7128	2,069.82	86.5719	2,069.82	87.3801	2,069.82	85.4363	2,069.82	86.5684	2,069.82	84.0615	2,069.82	85.3229	2,069.82	82.14	2,069.82	83.8381	2,069.82	80.2577	2,069.82	82.1697	2,069.82	77.8774	2,069.82	80.5032	2,069.82	75.8144	2,069.82	79.1118	2,069.82	73.4217	2,069.82	76.9054	2,069.82	71.8188	2,069.82	74.4301	2,069.82	71.947	2,069.82	73.7632	2,069.82	70.434	2,069.82	72.5205	2,069.82	67.3005	2,069.82	70.8412	2,069.82	69.1935	2,069.82	71.3566	2,069.82	68.7885	2,069.82	70.7472	2,069.82	60.8293	2,069.82	67.7822	2,069.82	66.8023	2,069.82	66.9584	2,069.82	68.8919
2,143.07	88.2349	2,143.07	87.8542	2,143.07	88.088	2,143.07	87.2422	2,143.07	87.5634	2,143.07	86.2555	2,143.07	86.7592	2,143.07	85.0922	2,143.07	85.4768	2,143.07	83.4845	2,143.07	83.8382	2,143.07	81.1544	2,143.07	81.7679	2,143.07	77.9001	2,143.07	80.0558	2,143.07	76.6382	2,143.07	78.493	2,143.07	74.8	2,143.07	76.3253	2,143.07	72.0404	2,143.07	73.6183	2,143.07	71.6978	2,143.07	72.399	2,143.07	71.306	2,143.07	72.4618	2,143.07	67.3463	2,143.07	69.7739	2,143.07	67.8249	2,143.07	67.9951	2,143.07	68.4619	2,143.07	69.9422	2,143.07	64.8126	2,143.07	64.9898	2,143.07	66.7218	2,143.07	68.7554	2,143.07	70.9166
2,219.24	87.5913	2,219.24	87.2274	2,219.24	87.2831	2,219.24	86.3686	2,219.24	86.6692	2,219.24	85.6227	2,219.24	85.5597	2,219.24	84.4116	2,219.24	84.3054	2,219.24	83.1822	2,219.24	82.6739	2,219.24	80.7625	2,219.24	80.3963	2,219.24	78.44	2,219.24	77.8847	2,219.24	76.1968	2,219.24	76.2879	2,219.24	75.8194	2,219.24	75.7687	2,219.24	72.4813	2,219.24	72.7041	2,219.24	69.1829	2,219.24	69.0454	2,219.24	70.2588	2,219.24	71.1179	2,219.24	67.664	2,219.24	69.5914	2,219.24	65.9524	2,219.24	64.8914	2,219.24	68.3592	2,219.24	66.583	2,219.24	63.4019	2,219.24	64.8816	2,219.24	67.6836	2,219.24	66.1212	2,219.24	70.2997
2,296.88	85.9711	2,296.88	85.496	2,296.88	85.7631	2,296.88	84.8743	2,296.88	85.2761	2,296.88	83.7782	2,296.88	84.2983	2,296.88	82.7106	2,296.88	82.8616	2,296.88	81.3476	2,296.88	81.6658	2,296.88	79.6287	2,296.88	80.0149	2,296.88	77.0596	2,296.88	76.8836	2,296.88	75.4607	2,296.88	75.0346	2,296.88	74.6962	2,296.88	74.4274	2,296.88	72.0475	2,296.88	72.6218	2,296.88	69.4288	2,296.88	67.9471	2,296.88	70.8447	2,296.88	69.0588	2,296.88	68.1834	2,296.88	69.3688	2,296.88	64.2825	2,296.88	66.3407	2,296.88	66.4529	2,296.88	66.911	2,296.88	62.0965	2,296.88	63.8711	2,296.88	68.7425	2,296.88	67.4129	2,296.88	70.3835
2,378.91	84.9756	2,378.91	84.8209	2,378.91	85.1315	2,378.91	84.0987	2,378.91	84.8238	2,378.91	83.0569	2,378.91	83.834	2,378.91	81.5213	2,378.91	82.8911	2,378.91	80.1197	2,378.91	81.8209	2,378.91	78.9943	2,378.91	80.3415	2,378.91	76.3119	2,378.91	78.2023	2,378.91	73.6053	2,378.91	76.1386	2,378.91	72.6923	2,378.91	74.0852	2,378.91	71.7441	2,378.91	73.7352	2,378.91	67.8409	2,378.91	70.3886	2,378.91	69.4902	2,378.91	68.7888	2,378.91	67.2814	2,378.91	68.8897	2,378.91	63.0133	2,378.91	67.318	2,378.91	65.2432	2,378.91	67.3715	2,378.91	60.0372	2,378.91	63.2842	2,378.91	66.6404	2,378.91	66.4542	2,378.91	70.7222
2,462.4	85.8243	2,462.4	85.9154	2,462.4	86.0948	2,462.4	85.5444	2,462.4	85.8982	2,462.4	84.8491	2,462.4	85.4581	2,462.4	83.4045	2,462.4	84.5466	2,462.4	81.7473	2,462.4	83.0338	2,462.4	80.401	2,462.4	81.4858	2,462.4	77.9789	2,462.4	80.1687	2,462.4	75.8593	2,462.4	77.4892	2,462.4	73.5595	2,462.4	75.8254	2,462.4	72.4563	2,462.4	75.2901	2,462.4	68.5088	2,462.4	72.2219	2,462.4	67.6498	2,462.4	69.7211	2,462.4	68.3567	2,462.4	69.5815	2,462.4	64.2842	2,462.4	67.7385	2,462.4	66.1891	2,462.4	67.4494	2,462.4	59.9159	2,462.4	63.551	2,462.4	64.9655	2,462.4	66.5769	2,462.4	70.043
2,548.83	86.3065	2,548.83	86.4109	2,548.83	86.4282	2,548.83	86.2854	2,548.83	86.4018	2,548.83	86.0437	2,548.83	85.9678	2,548.83	85.1776	2,548.83	84.9497	2,548.83	83.6353	2,548.83	83.5478	2,548.83	81.9064	2,548.83	81.301	2,548.83	79.9926	2,548.83	79.6526	2,548.83	77.5336	2,548.83	77.123	2,548.83	75.6111	2,548.83	75.867	2,548.83	73.625	2,548.83	73.7166	2,548.83	70.3363	2,548.83	71.3285	2,548.83	69.4535	2,548.83	69.981	2,548.83	69.8265	2,548.83	67.7961	2,548.83	67.153	2,548.83	67.5343	2,548.83	69.442	2,548.83	68.9649	2,548.83	64.7777	2,548.83	63.8773	2,548.83	64.6182	2,548.83	66.5697	2,548.83	69.8438
2,639.65	85.7188	2,639.65	85.797	2,639.65	85.4369	2,639.65	86.0171	2,639.65	85.6935	2,639.65	85.9784	2,639.65	85.2063	2,639.65	85.2184	2,639.65	84.0225	2,639.65	83.6659	2,639.65	82.5744	2,639.65	81.7351	2,639.65	80.7332	2,639.65	80.1475	2,639.65	78.2327	2,639.65	77.487	2,639.65	75.4825	2,639.65	75.5578	2,639.65	73.6829	2,639.65	74.8244	2,639.65	73.0201	2,639.65	72.768	2,639.65	70.3151	2,639.65	70.2324	2,639.65	65.0306	2,639.65	69.981	2,639.65	65.8371	2,639.65	67.5244	2,639.65	63.4268	2,639.65	67.3829	2,639.65	67.7591	2,639.65	65.0999	2,639.65	62.7989	2,639.65	64.9956	2,639.65	67.1968	2,639.65	69.8461
2,731.93	84.6992	2,731.93	84.8787	2,731.93	85.0248	2,731.93	85.0912	2,731.93	84.9594	2,731.93	84.9129	2,731.93	84.6527	2,731.93	84.0199	2,731.93	83.7727	2,731.93	82.5193	2,731.93	82.0954	2,731.93	80.3641	2,731.93	79.6791	2,731.93	78.7995	2,731.93	77.2426	2,731.93	76.2384	2,731.93	75.1795	2,731.93	74.312	2,731.93	72.276	2,731.93	74.0685	2,731.93	71.9908	2,731.93	71.1898	2,731.93	69.8822	2,731.93	67.9193	2,731.93	67.6153	2,731.93	68.7957	2,731.93	66.2887	2,731.93	65.6986	2,731.93	61.8399	2,731.93	67.7338	2,731.93	64.5358	2,731.93	64.4788	2,731.93	60.8584	2,731.93	67.7281	2,731.93	60.5639	2,731.93	72.5689
2,828.61	85.5194	2,828.61	85.5079	2,828.61	85.5289	2,828.61	85.1043	2,828.61	85.5757	2,828.61	84.7342	2,828.61	85.1322	2,828.61	83.519	2,828.61	84.2861	2,828.61	82.2866	2,828.61	82.446	2,828.61	79.4307	2,828.61	80.2092	2,828.61	77.6138	2,828.61	77.7004	2,828.61	74.9412	2,828.61	76.0681	2,828.61	73.2309	2,828.61	73.3474	2,828.61	70.4193	2,828.61	71.3728	2,828.61	69.981	2,828.61	71.0243	2,828.61	65.3125	2,828.61	67.2179	2,828.61	65.8209	2,828.61	67.8104	2,828.61	65.8727	2,828.61	66.4003	2,828.61	65.2104	2,828.61	64.7985	2,828.61	54.3127	2,828.61	61.9857	2,828.61	63.6898	2,828.61	64.9379	2,828.61	70.6541
2,928.22	86.7283	2,928.22	86.8295	2,928.22	86.7143	2,928.22	86.7299	2,928.22	86.5782	2,928.22	86.2193	2,928.22	86.0445	2,928.22	85.0315	2,928.22	85.117	2,928.22	83.0465	2,928.22	82.9768	2,928.22	81.0931	2,928.22	80.4732	2,928.22	78.0931	2,928.22	78.3485	2,928.22	75.5439	2,928.22	75.5851	2,928.22	73.4958	2,928.22	73.6973	2,928.22	71.3664	2,928.22	72.5161	2,928.22	70.3645	2,928.22	70.4353	2,928.22	65.8437	2,928.22	66.5993	2,928.22	68.5278	2,928.22	67.1252	2,928.22	67.6757	2,928.22	65.0467	2,928.22	68.121	2,928.22	67.2823	2,928.22	66.1384	2,928.22	63.0799	2,928.22	67.4722	2,928.22	62.5195	2,928.22	70.0603
3,030.76	86.9237	3,030.76	87.1128	3,030.76	86.7284	3,030.76	87.1418	3,030.76	86.6862	3,030.76	86.6194	3,030.76	85.7841	3,030.76	85.5957	3,030.76	84.4264	3,030.76	83.6251	3,030.76	82.2377	3,030.76	81.0769	3,030.76	79.4973	3,030.76	78.8478	3,030.76	77.1233	3,030.76	76.0777	3,030.76	74.6152	3,030.76	73.5564	3,030.76	72.6003	3,030.76	71.9514	3,030.76	71.3969	3,030.76	71.2497	3,030.76	70.739	3,030.76	65.8518	3,030.76	65.0043	3,030.76	67.0361	3,030.76	66.163	3,030.76	66.505	3,030.76	64.5195	3,030.76	66.6398	3,030.76	65.8277	3,030.76	66.4079	3,030.76	67.1869	3,030.76	65.5728	3,030.76	57.0833	3,030.76	69.1328
3,137.7	86.6676	3,137.7	86.706	3,137.7	87.0133	3,137.7	86.7419	3,137.7	86.3008	3,137.7	86.2436	3,137.7	85.6142	3,137.7	85.0071	3,137.7	84.0641	3,137.7	82.4608	3,137.7	82.162	3,137.7	80.2517	3,137.7	79.639	3,137.7	76.7384	3,137.7	77.048	3,137.7	75.3385	3,137.7	75.0129	3,137.7	71.7499	3,137.7	72.7173	3,137.7	69.8441	3,137.7	70.4228	3,137.7	71.2846	3,137.7	71.0245	3,137.7	66.3211	3,137.7	67.7274	3,137.7	62.5818	3,137.7	62.6863	3,137.7	64.1885	3,137.7	66.0238	3,137.7	65.7123	3,137.7	62.8563	3,137.7	65.0914	3,137.7	67.0333	3,137.7	59.42	3,137.7	55.1083	3,137.7	66.7403
3,249.02	85.9145	3,249.02	85.7829	3,249.02	86.0161	3,249.02	85.6985	3,249.02	85.9462	3,249.02	85.1198	3,249.02	85.3208	3,249.02	83.752	3,249.02	83.8976	3,249.02	81.9645	3,249.02	81.8797	3,249.02	79.2991	3,249.02	79.4931	3,249.02	76.7975	3,249.02	76.9312	3,249.02	74.8654	3,249.02	74.6378	3,249.02	72.0123	3,249.02	72.2707	3,249.02	69.0722	3,249.02	70.2519	3,249.02	69.3249	3,249.02	70.9855	3,249.02	67.9011	3,249.02	68.6159	3,249.02	63.201	3,249.02	63.9952	3,249.02	64.4572	3,249.02	66.1557	3,249.02	62.0876	3,249.02	59.5848	3,249.02	63.8506	3,249.02	66.0213	3,249.02	56.2939	3,249.02	56.6094	3,249.02	66.0769
3,363.28	84.1779	3,363.28	84.0735	3,363.28	84.5035	3,363.28	84.0456	3,363.28	84.4343	3,363.28	83.4671	3,363.28	84.0322	3,363.28	81.7414	3,363.28	82.4478	3,363.28	79.6864	3,363.28	80.7833	3,363.28	76.2674	3,363.28	78.7097	3,363.28	74.3135	3,363.28	76.4733	3,363.28	72.4051	3,363.28	74.4712	3,363.28	71.2112	3,363.28	72.5803	3,363.28	67.2422	3,363.28	70.1061	3,363.28	67.5245	3,363.28	68.9044	3,363.28	66.0781	3,363.28	66.82	3,363.28	62.4933	3,363.28	62.7303	3,363.28	64.7233	3,363.28	67.0439	3,363.28	59.7501	3,363.28	60.6216	3,363.28	65.5198	3,363.28	64.275	3,363.28	63.3945	3,363.28	57.7047	3,363.28	68.3111
3,481.93	82.1369	3,481.93	82.4983	3,481.93	82.4711	3,481.93	82.5238	3,481.93	83.2056	3,481.93	81.7759	3,481.93	82.6313	3,481.93	80.6824	3,481.93	81.841	3,481.93	78.9551	3,481.93	80.1407	3,481.93	76.2459	3,481.93	78.1461	3,481.93	73.9783	3,481.93	76.1292	3,481.93	71.4548	3,481.93	73.9163	3,481.93	70.0616	3,481.93	72.7964	3,481.93	67.63	3,481.93	70.176	3,481.93	66.0974	3,481.93	68.2728	3,481.93	66.0148	3,481.93	67.6731	3,481.93	56.4756	3,481.93	59.7238	3,481.93	65.2279	3,481.93	67.3378	3,481.93	57.0668	3,481.93	58.3765	3,481.93	63.7595	3,481.93	62.5546	3,481.93	58.9085	3,481.93	61.593	3,481.93	67.0456
3,604.98	81.8734	3,604.98	82.0538	3,604.98	82.1285	3,604.98	82.0702	3,604.98	82.6773	3,604.98	81.4415	3,604.98	82.4859	3,604.98	80.1067	3,604.98	81.5571	3,604.98	78.2504	3,604.98	80.1072	3,604.98	76.9046	3,604.98	78.811	3,604.98	75.6927	3,604.98	76.7012	3,604.98	73.2505	3,604.98	74.9713	3,604.98	71.4668	3,604.98	73.1492	3,604.98	69.4353	3,604.98	71.3519	3,604.98	66.8436	3,604.98	68.9747	3,604.98	67.1497	3,604.98	68.8108	3,604.98	56.9851	3,604.98	63.9002	3,604.98	65.6317	3,604.98	67.4209	3,604.98	59.579	3,604.98	63.0083	3,604.98	63.2443	3,604.98	64.0912	3,604.98	56.4767	3,604.98	59.9831	3,604.98	65.438
3,732.42	83.7685	3,732.42	83.962	3,732.42	83.7101	3,732.42	83.3988	3,732.42	83.5502	3,732.42	82.8407	3,732.42	83.2406	3,732.42	81.9094	3,732.42	82.4325	3,732.42	80.1208	3,732.42	80.9043	3,732.42	78.6376	3,732.42	79.5064	3,732.42	76.7296	3,732.42	77.8052	3,732.42	74.4504	3,732.42	75.3828	3,732.42	72.9738	3,732.42	73.6359	3,732.42	70.2121	3,732.42	71.6274	3,732.42	69.7297	3,732.42	69.619	3,732.42	67.4293	3,732.42	67.374	3,732.42	62.2598	3,732.42	63.0465	3,732.42	66.3573	3,732.42	67.6163	3,732.42	59.5809	3,732.42	62.3705	3,732.42	65.3528	3,732.42	66.6457	3,732.42	57.0322	3,732.42	57.5133	3,732.42	65.0059
3,864.26	84.4694	3,864.26	84.3025	3,864.26	84.296	3,864.26	83.9914	3,864.26	83.1645	3,864.26	83.2264	3,864.26	82.2511	3,864.26	82.0184	3,864.26	81.121	3,864.26	80.4392	3,864.26	79.4973	3,864.26	78.7339	3,864.26	78.0906	3,864.26	76.888	3,864.26	76.1054	3,864.26	74.5222	3,864.26	73.1677	3,864.26	72.0282	3,864.26	71.3443	3,864.26	69.9856	3,864.26	69.1461	3,864.26	68.3182	3,864.26	66.2594	3,864.26	66.9233	3,864.26	65.9393	3,864.26	62.6272	3,864.26	59.996	3,864.26	64.5354	3,864.26	64.9516	3,864.26	60.5424	3,864.26	59.8557	3,864.26	64.0408	3,864.26	63.2725	3,864.26	60.7303	3,864.26	57.6898	3,864.26	64.9243
4,000.49	84.0184	4,000.49	83.5768	4,000.49	83.8614	4,000.49	82.7559	4,000.49	82.565	4,000.49	81.7984	4,000.49	81.2026	4,000.49	79.9701	4,000.49	79.9688	4,000.49	79.0174	4,000.49	78.5503	4,000.49	76.9365	4,000.49	76.9655	4,000.49	75.0843	4,000.49	75.3955	4,000.49	72.1369	4,000.49	72.1866	4,000.49	70.0663	4,000.49	70.3692	4,000.49	67.4138	4,000.49	68.0637	4,000.49	66.7551	4,000.49	67.3404	4,000.49	63.3099	4,000.49	63.1836	4,000.49	62.6887	4,000.49	61.5931	4,000.49	61.9541	4,000.49	63.0684	4,000.49	59.3603	4,000.49	62.3914	4,000.49	62.6913	4,000.49	62.4776	4,000.49	58.3144	4,000.49	57.7149	4,000.49	65.2449
4,141.11	84.7868	4,141.11	84.4693	4,141.11	84.0206	4,141.11	83.1885	4,141.11	83.2863	4,141.11	81.8502	4,141.11	81.6321	4,141.11	80.6777	4,141.11	80.7837	4,141.11	79.3135	4,141.11	79.4157	4,141.11	77.0114	4,141.11	77.5206	4,141.11	75.1077	4,141.11	74.7944	4,141.11	71.5349	4,141.11	72.2519	4,141.11	69.1722	4,141.11	70.4812	4,141.11	66.3766	4,141.11	67.7639	4,141.11	65.4642	4,141.11	65.19	4,141.11	63.5554	4,141.11	64.471	4,141.11	60.2641	4,141.11	62.0585	4,141.11	61.3002	4,141.11	61.731	4,141.11	58.8078	4,141.11	60.2746	4,141.11	62.787	4,141.11	62.6121	4,141.11	51.4047	4,141.11	57.754	4,141.11	62.9921
4,287.6	85.1451	4,287.6	84.8974	4,287.6	84.5207	4,287.6	83.4742	4,287.6	83.3672	4,287.6	82.0959	4,287.6	82.1515	4,287.6	81.3207	4,287.6	80.737	4,287.6	79.1207	4,287.6	79.07	4,287.6	77.1899	4,287.6	76.963	4,287.6	74.6692	4,287.6	74.2905	4,287.6	71.2075	4,287.6	71.5093	4,287.6	68.303	4,287.6	68.6795	4,287.6	68.1233	4,287.6	66.826	4,287.6	64.1811	4,287.6	65.383	4,287.6	63.2312	4,287.6	62.2279	4,287.6	59.3321	4,287.6	60.2009	4,287.6	59.4721	4,287.6	61.459	4,287.6	59.7123	4,287.6	61.6364	4,287.6	62.4179	4,287.6	61.1768	4,287.6	54.716	4,287.6	53.3215	4,287.6	62.2896
4,438.48	85.5791	4,438.48	84.904	4,438.48	85.0572	4,438.48	83.9205	4,438.48	83.1058	4,438.48	82.5032	4,438.48	82.0582	4,438.48	80.9438	4,438.48	80.4297	4,438.48	79.4552	4,438.48	78.2841	4,438.48	76.4901	4,438.48	76.7226	4,438.48	73.2183	4,438.48	73.9709	4,438.48	71.4135	4,438.48	71.8593	4,438.48	67.3734	4,438.48	68.7037	4,438.48	66.1139	4,438.48	66.6019	4,438.48	63.3908	4,438.48	63.0425	4,438.48	64.4646	4,438.48	62.7668	4,438.48	60.1429	4,438.48	57.6997	4,438.48	61.2865	4,438.48	61.3687	4,438.48	58.3256	4,438.48	62.0296	4,438.48	62.7239	4,438.48	61.9553	4,438.48	53.031	4,438.48	57.5668	4,438.48	63.856
4,595.21	85.2561	4,595.21	84.6311	4,595.21	84.2753	4,595.21	83.1855	4,595.21	82.9055	4,595.21	81.4956	4,595.21	80.5323	4,595.21	80.0826	4,595.21	80.1572	4,595.21	77.8988	4,595.21	78.3738	4,595.21	75.7978	4,595.21	75.2961	4,595.21	73.3372	4,595.21	72.2065	4,595.21	69.0879	4,595.21	67.9158	4,595.21	66.4727	4,595.21	66.4166	4,595.21	63.1264	4,595.21	65.0061	4,595.21	62.1799	4,595.21	60.9302	4,595.21	62.3182	4,595.21	62.4722	4,595.21	53.2651	4,595.21	48.5442	4,595.21	61.2817	4,595.21	58.2094	4,595.21	57.8852	4,595.21	58.1808	4,595.21	58.1844	4,595.21	60.7418	4,595.21	54.0779	4,595.21	58.931	4,595.21	61.7374
4,756.35	85.5661	4,756.35	85.2596	4,756.35	85.1512	4,756.35	83.2678	4,756.35	83.9181	4,756.35	81.9246	4,756.35	82.1525	4,756.35	80.2972	4,756.35	80.7672	4,756.35	78.3683	4,756.35	79.2862	4,756.35	75.3989	4,756.35	75.946	4,756.35	71.883	4,756.35	72.1856	4,756.35	67.7601	4,756.35	69.2757	4,756.35	66.7189	4,756.35	66.2491	4,756.35	65.7626	4,756.35	64.0822	4,756.35	62.0079	4,756.35	63.2022	4,756.35	60.5419	4,756.35	63.4552	4,756.35	55.5561	4,756.35	52.1765	4,756.35	59.1405	4,756.35	55.7194	4,756.35	55.9871	4,756.35	57.8597	4,756.35	59.249	4,756.35	53.9607	4,756.35	54.0975	4,756.35	52.2615	4,756.35	58.4216
4,924.8	86.9198	4,924.8	86.269	4,924.8	86.5576	4,924.8	85.0255	4,924.8	84.4239	4,924.8	83.4698	4,924.8	83.2668	4,924.8	81.7124	4,924.8	81.4749	4,924.8	79.7636	4,924.8	78.3877	4,924.8	75.8947	4,924.8	76.0337	4,924.8	71.9437	4,924.8	72.6541	4,924.8	69.9589	4,924.8	68.7925	4,924.8	66.65	4,924.8	66.6979	4,924.8	63.8629	4,924.8	64.991	4,924.8	63.4344	4,924.8	62.4033	4,924.8	59.4829	4,924.8	62.1	4,924.8	58.0416	4,924.8	58.7825	4,924.8	57.326	4,924.8	57.6705	4,924.8	59.2687	4,924.8	58.2509	4,924.8	56.7069	4,924.8	54.551	4,924.8	52.8405	4,924.8	54.6829	4,924.8	60.2789
5,097.66	87.1319	5,097.66	86.3841	5,097.66	86.2189	5,097.66	84.8385	5,097.66	85.0291	5,097.66	83.4425	5,097.66	83.0319	5,097.66	81.7472	5,097.66	81.6442	5,097.66	78.6036	5,097.66	79.0834	5,097.66	75.3255	5,097.66	74.8177	5,097.66	71.8986	5,097.66	70.8797	5,097.66	68.5316	5,097.66	68.7763	5,097.66	68.1067	5,097.66	67.6331	5,097.66	64.1041	5,097.66	63.7796	5,097.66	65.0716	5,097.66	65.0077	5,097.66	63.8839	5,097.66	62.2333	5,097.66	60.382	5,097.66	58.4732	5,097.66	61.4571	5,097.66	60.0249	5,097.66	60.2969	5,097.66	56.3566	5,097.66	49.5762	5,097.66	42.7014	5,097.66	57.6841	5,097.66	54.3852	5,097.66	61.8944
5,277.83	87.6634	5,277.83	87.0231	5,277.83	86.7864	5,277.83	85.1022	5,277.83	85.055	5,277.83	83.1744	5,277.83	83.2714	5,277.83	81.0326	5,277.83	81.5197	5,277.83	78.2845	5,277.83	78.1057	5,277.83	73.4027	5,277.83	74.0649	5,277.83	70.7408	5,277.83	70.7863	5,277.83	68.5887	5,277.83	67.4376	5,277.83	65.9603	5,277.83	66.7961	5,277.83	64.7387	5,277.83	65.54	5,277.83	64.4862	5,277.83	64.0343	5,277.83	58.7384	5,277.83	60.8948	5,277.83	53.7656	5,277.83	58.6743	5,277.83	60.8567	5,277.83	58.7024	5,277.83	57.2766	5,277.83	57.2259	5,277.83	53.2086	5,277.83	56.9591	5,277.83	56.9682	5,277.83	54.0599	5,277.83	62.0711
5,463.87	87.9811	5,463.87	87.3645	5,463.87	87.4568	5,463.87	85.5497	5,463.87	85.1779	5,463.87	83.7175	5,463.87	83.7606	5,463.87	81.6906	5,463.87	81.2398	5,463.87	77.9591	5,463.87	76.9117	5,463.87	73.7189	5,463.87	73.0534	5,463.87	70.4973	5,463.87	70.3257	5,463.87	71.4804	5,463.87	70.0692	5,463.87	67.7271	5,463.87	67.0616	5,463.87	64.5288	5,463.87	67.393	5,463.87	65.8717	5,463.87	64.7042	5,463.87	62.015	5,463.87	62.5634	5,463.87	62.5299	5,463.87	61.0956	5,463.87	57.4239	5,463.87	58.5241	5,463.87	58.6623	5,463.87	59.1616	5,463.87	42.9572	5,463.87	52.2077	5,463.87	50.812	5,463.87	48.21	5,463.87	61.8092
5,657.23	87.8822	5,657.23	87.0271	5,657.23	86.8511	5,657.23	85.0037	5,657.23	85.065	5,657.23	83.4125	5,657.23	82.6948	5,657.23	81.1402	5,657.23	80.5277	5,657.23	77.0629	5,657.23	76.969	5,657.23	72.9352	5,657.23	73.0656	5,657.23	72.1664	5,657.23	72.2209	5,657.23	69.1903	5,657.23	70.144	5,657.23	67.7368	5,657.23	68.1231	5,657.23	66.0497	5,657.23	66.5361	5,657.23	63.7626	5,657.23	65.6765	5,657.23	62.9112	5,657.23	64.3127	5,657.23	60.3392	5,657.23	59.6949	5,657.23	62.7143	5,657.23	61.6135	5,657.23	59.7811	5,657.23	62.8488	5,657.23	47.2842	5,657.23	52.8255	5,657.23	55.1585	5,657.23	57.6338	5,657.23	61.5804
5,856.45	87.6481	5,856.45	86.8577	5,856.45	86.7759	5,856.45	84.8354	5,856.45	84.4432	5,856.45	83.3039	5,856.45	82.3842	5,856.45	80.3527	5,856.45	79.4158	5,856.45	77.0509	5,856.45	74.9965	5,856.45	72.6514	5,856.45	74.0473	5,856.45	71.5203	5,856.45	73.5678	5,856.45	70.1988	5,856.45	71.7866	5,856.45	69.4673	5,856.45	69.4182	5,856.45	68.1578	5,856.45	67.4126	5,856.45	64.5134	5,856.45	65.3616	5,856.45	62.6858	5,856.45	64.395	5,856.45	62.3583	5,856.45	63.2863	5,856.45	58.3794	5,856.45	61.5519	5,856.45	56.6204	5,856.45	63.5451	5,856.45	55.7362	5,856.45	59.4738	5,856.45	53.705	5,856.45	52.4022	5,856.45	61.3173
6,062.99	88.6584	6,062.99	87.7863	6,062.99	87.528	6,062.99	85.5158	6,062.99	85.6507	6,062.99	83.8377	6,062.99	83.2165	6,062.99	80.5093	6,062.99	80.4501	6,062.99	75.1616	6,062.99	77.6449	6,062.99	74.6026	6,062.99	76.8785	6,062.99	72.7547	6,062.99	75.2013	6,062.99	72.4503	6,062.99	74.0447	6,062.99	70.0288	6,062.99	71.761	6,062.99	67.456	6,062.99	68.7006	6,062.99	66.6282	6,062.99	66.5736	6,062.99	62.4926	6,062.99	64.3656	6,062.99	63.6794	6,062.99	65.4343	6,062.99	61.5896	6,062.99	63.5593	6,062.99	61.1429	6,062.99	63.5203	6,062.99	55.7958	6,062.99	60.6116	6,062.99	52.6702	6,062.99	56.6256	6,062.99	62.0159
6,276.86	88.2954	6,276.86	87.2514	6,276.86	87.4509	6,276.86	84.9514	6,276.86	85.5364	6,276.86	82.9689	6,276.86	83.0061	6,276.86	79.0563	6,276.86	80.2669	6,276.86	75.4711	6,276.86	78.2498	6,276.86	75.4825	6,276.86	78.2418	6,276.86	75.6975	6,276.86	77.4387	6,276.86	73.7977	6,276.86	74.6411	6,276.86	71.3032	6,276.86	72.361	6,276.86	68.485	6,276.86	69.9379	6,276.86	66.7402	6,276.86	67.2566	6,276.86	63.6321	6,276.86	65.9034	6,276.86	63.6155	6,276.86	66.0979	6,276.86	62.3584	6,276.86	65.5167	6,276.86	61.8326	6,276.86	61.4597	6,276.86	58.7706	6,276.86	60.9712	6,276.86	56.5586	6,276.86	59.0799	6,276.86	62.3532
6,498.05	88.3227	6,498.05	87.3361	6,498.05	87.9208	6,498.05	85.5037	6,498.05	85.8824	6,498.05	82.5781	6,498.05	83.4784	6,498.05	78.4533	6,498.05	80.6713	6,498.05	76.9357	6,498.05	79.6803	6,498.05	77.2009	6,498.05	79.1141	6,498.05	75.672	6,498.05	77.2569	6,498.05	74.1885	6,498.05	75.0696	6,498.05	71.2069	6,498.05	72.3941	6,498.05	68.1572	6,498.05	70.1909	6,498.05	66.9482	6,498.05	66.9081	6,498.05	63.4679	6,498.05	66.5015	6,498.05	63.1292	6,498.05	65.7315	6,498.05	63.9739	6,498.05	64.5459	6,498.05	63.1411	6,498.05	63.6401	6,498.05	59.8944	6,498.05	62.4664	6,498.05	56.3744	6,498.05	56.8726	6,498.05	61.5861
6,726.56	89.2174	6,726.56	88.3641	6,726.56	88.7285	6,726.56	86.5625	6,726.56	87.3099	6,726.56	83.0756	6,726.56	84.0342	6,726.56	79.3256	6,726.56	81.6305	6,726.56	78.8733	6,726.56	81.2944	6,726.56	79.3064	6,726.56	80.5211	6,726.56	77.5403	6,726.56	79.147	6,726.56	75.5888	6,726.56	75.8797	6,726.56	72.3943	6,726.56	73.6946	6,726.56	69.0241	6,726.56	70.8664	6,726.56	67.144	6,726.56	68.4285	6,726.56	65.7154	6,726.56	67.2701	6,726.56	64.6044	6,726.56	64.625	6,726.56	60.7627	6,726.56	64.2835	6,726.56	60.7099	6,726.56	61.3206	6,726.56	60.3738	6,726.56	61.4027	6,726.56	58.3974	6,726.56	58.6417	6,726.56	61.418
6,963.87	88.3368	6,963.87	88.0061	6,963.87	88.6256	6,963.87	86.0722	6,963.87	87.0176	6,963.87	82.0882	6,963.87	83.7552	6,963.87	78.9673	6,963.87	81.4968	6,963.87	79.8369	6,963.87	81.6036	6,963.87	78.9749	6,963.87	80.8348	6,963.87	77.3205	6,963.87	78.8594	6,963.87	75.2477	6,963.87	76.1489	6,963.87	72.3391	6,963.87	73.8054	6,963.87	69.6636	6,963.87	70.4451	6,963.87	67.341	6,963.87	68.494	6,963.87	64.4932	6,963.87	67.2509	6,963.87	63.9097	6,963.87	64.5413	6,963.87	62.9372	6,963.87	63.5952	6,963.87	62.4674	6,963.87	63.0161	6,963.87	61.3769	6,963.87	63.6201	6,963.87	58.3394	6,963.87	59.4364	6,963.87	61.915
7,209.96	88.8191	7,209.96	88.5648	7,209.96	89.1282	7,209.96	86.6536	7,209.96	87.8298	7,209.96	82.3888	7,209.96	83.9841	7,209.96	80.101	7,209.96	82.5674	7,209.96	80.0421	7,209.96	82.532	7,209.96	80.1746	7,209.96	81.4622	7,209.96	77.7258	7,209.96	78.6731	7,209.96	75.0688	7,209.96	76.2988	7,209.96	72.0234	7,209.96	73.3145	7,209.96	68.8454	7,209.96	70.9672	7,209.96	67.6974	7,209.96	68.6737	7,209.96	64.8335	7,209.96	66.5321	7,209.96	63.1971	7,209.96	63.9818	7,209.96	60.3188	7,209.96	62.797	7,209.96	61.2698	7,209.96	60.9632	7,209.96	59.7512	7,209.96	62.566	7,209.96	57.1913	7,209.96	59.591	7,209.96	59.2122
7,464.84	88.6462	7,464.84	88.51	7,464.84	89.2657	7,464.84	86.2459	7,464.84	87.5257	7,464.84	81.8999	7,464.84	83.7886	7,464.84	79.8867	7,464.84	82.5871	7,464.84	80.4085	7,464.84	82.0717	7,464.84	79.0492	7,464.84	81.0569	7,464.84	76.4659	7,464.84	78.5753	7,464.84	73.8667	7,464.84	75.3607	7,464.84	70.3457	7,464.84	72.1838	7,464.84	67.4994	7,464.84	70.3391	7,464.84	66.1707	7,464.84	67.8317	7,464.84	62.4116	7,464.84	65.4865	7,464.84	62.297	7,464.84	64.712	7,464.84	60.5224	7,464.84	62.2191	7,464.84	61.0748	7,464.84	62.3282	7,464.84	61.249	7,464.84	62.7268	7,464.84	58.0684	7,464.84	58.5961	7,464.84	58.0032
7,727.05	88.1097	7,727.05	87.8152	7,727.05	88.7702	7,727.05	85.1676	7,727.05	87.2306	7,727.05	80.2019	7,727.05	83.7556	7,727.05	79.3463	7,727.05	82.3006	7,727.05	79.2433	7,727.05	81.2459	7,727.05	78.0388	7,727.05	80.1915	7,727.05	75.8629	7,727.05	77.5763	7,727.05	72.4816	7,727.05	74.6552	7,727.05	69.3508	7,727.05	71.407	7,727.05	66.3981	7,727.05	68.6808	7,727.05	64.9499	7,727.05	66.0742	7,727.05	60.4637	7,727.05	65.6593	7,727.05	60.3873	7,727.05	64.7012	7,727.05	60.5188	7,727.05	61.5056	7,727.05	60.395	7,727.05	59.4547	7,727.05	59.6513	7,727.05	62.8467	7,727.05	55.333	7,727.05	58.4729	7,727.05	56.4388
7,999.51	88.9946	7,999.51	88.4899	7,999.51	89.4282	7,999.51	85.583	7,999.51	87.62	7,999.51	80.7514	7,999.51	83.9868	7,999.51	79.977	7,999.51	82.4138	7,999.51	79.7552	7,999.51	80.8954	7,999.51	78.4439	7,999.51	79.7823	7,999.51	75.347	7,999.51	77.9183	7,999.51	72.403	7,999.51	73.1942	7,999.51	68.4305	7,999.51	70.4554	7,999.51	64.5195	7,999.51	67.8879	7,999.51	62.6927	7,999.51	65.0431	7,999.51	59.0673	7,999.51	64.3624	7,999.51	60.1684	7,999.51	64.9901	7,999.51	58.7558	7,999.51	61.6703	7,999.51	57.2037	7,999.51	62.8028	7,999.51	58.5143	7,999.51	62.2739	7,999.51	52.7214	7,999.51	55.8169	7,999.51	57.2059
8,282.23	89.2754	8,282.23	88.4744	8,282.23	89.4758	8,282.23	85.3004	8,282.23	87.6281	8,282.23	81.2738	8,282.23	83.8587	8,282.23	80.0118	8,282.23	82.0269	8,282.23	79.8666	8,282.23	81.0048	8,282.23	77.615	8,282.23	79.1557	8,282.23	73.979	8,282.23	76.1046	8,282.23	71.1889	8,282.23	72.5621	8,282.23	67.5301	8,282.23	70.0351	8,282.23	64.8213	8,282.23	66.4566	8,282.23	63.1795	8,282.23	64.2414	8,282.23	59.7103	8,282.23	63.0295	8,282.23	60.6302	8,282.23	62.8761	8,282.23	57.2584	8,282.23	62.7011	8,282.23	56.4553	8,282.23	59.673	8,282.23	58.2621	8,282.23	58.751	8,282.23	53.1762	8,282.23	55.3209	8,282.23	56.612
8,573.73	90.0423	8,573.73	89.3064	8,573.73	90.15	8,573.73	85.9883	8,573.73	87.9607	8,573.73	81.9336	8,573.73	84.1036	8,573.73	81.1569	8,573.73	82.4923	8,573.73	80.6401	8,573.73	81.8015	8,573.73	77.6698	8,573.73	79.8218	8,573.73	74.2466	8,573.73	76.6008	8,573.73	71.3953	8,573.73	73.444	8,573.73	67.601	8,573.73	70.7857	8,573.73	64.5437	8,573.73	67.3149	8,573.73	63.7329	8,573.73	65.3578	8,573.73	61.2956	8,573.73	62.843	8,573.73	60.9846	8,573.73	60.6764	8,573.73	60.2103	8,573.73	61.4388	8,573.73	60.2721	8,573.73	62.5906	8,573.73	57.4682	8,573.73	61.2056	8,573.73	55.9505	8,573.73	58.4961	8,573.73	59.1873
8,876.95	90.0084	8,876.95	88.7294	8,876.95	89.6623	8,876.95	85.0964	8,876.95	87.3588	8,876.95	81.6731	8,876.95	83.6948	8,876.95	81.463	8,876.95	82.6663	8,876.95	80.3328	8,876.95	81.689	8,876.95	77.4412	8,876.95	79.4343	8,876.95	74.2154	8,876.95	76.0943	8,876.95	70.4127	8,876.95	72.9876	8,876.95	67.9314	8,876.95	69.9427	8,876.95	65.3533	8,876.95	67.3606	8,876.95	63.7499	8,876.95	65.3599	8,876.95	60.8873	8,876.95	63.3136	8,876.95	62.2249	8,876.95	60.4156	8,876.95	59.8264	8,876.95	61.7055	8,876.95	58.862	8,876.95	58.9166	8,876.95	57.3072	8,876.95	60.2317	8,876.95	54.3658	8,876.95	59.6439	8,876.95	56.1752
9,188.96	90.3894	9,188.96	88.8566	9,188.96	89.65	9,188.96	85.6124	9,188.96	87.9118	9,188.96	82.9217	9,188.96	84.7075	9,188.96	82.9518	9,188.96	83.5641	9,188.96	80.6814	9,188.96	82.4242	9,188.96	78.0937	9,188.96	80.3254	9,188.96	74.7346	9,188.96	77.0197	9,188.96	71.4532	9,188.96	74.4018	9,188.96	67.2961	9,188.96	70.188	9,188.96	66.0628	9,188.96	68.259	9,188.96	64.186	9,188.96	66.0166	9,188.96	59.5776	9,188.96	63.4407	9,188.96	62.5755	9,188.96	59.7882	9,188.96	58.5134	9,188.96	61.8563	9,188.96	58.3509	9,188.96	61.2029	9,188.96	55.9944	9,188.96	61.5318	9,188.96	59.2229	9,188.96	60.1752	9,188.96	59.366
9,514.16	89.5617	9,514.16	87.6635	9,514.16	88.755	9,514.16	84.6515	9,514.16	86.9571	9,514.16	83.5899	9,514.16	85.0195	9,514.16	82.6979	9,514.16	83.7663	9,514.16	80.1185	9,514.16	82.1004	9,514.16	77.3986	9,514.16	80.0112	9,514.16	72.6866	9,514.16	76.5977	9,514.16	69.1884	9,514.16	72.778	9,514.16	66.3603	9,514.16	69.0383	9,514.16	63.7488	9,514.16	67.3958	9,514.16	63.2285	9,514.16	64.2802	9,514.16	59.6674	9,514.16	62.0403	9,514.16	59.1978	9,514.16	60.5565	9,514.16	56.9046	9,514.16	59.6778	9,514.16	53.7867	9,514.16	60.1574	9,514.16	56.2305	9,514.16	60.5722	9,514.16	57.1662	9,514.16	58.1097	9,514.16	57.5535
9,849.61	89.6524	9,849.61	87.3894	9,849.61	88.5945	9,849.61	84.6064	9,849.61	87.1269	9,849.61	83.5632	9,849.61	85.588	9,849.61	82.1588	9,849.61	84.2746	9,849.61	80.0028	9,849.61	81.8828	9,849.61	75.8926	9,849.61	79.4667	9,849.61	71.1448	9,849.61	75.6956	9,849.61	68.1466	9,849.61	71.8197	9,849.61	64.4295	9,849.61	69.0738	9,849.61	62.6197	9,849.61	66.3256	9,849.61	60.9672	9,849.61	63.5947	9,849.61	58.5321	9,849.61	61.9555	9,849.61	57.2817	9,849.61	61.1972	9,849.61	56.163	9,849.61	58.8237	9,849.61	53.2636	9,849.61	54.9783	9,849.61	55.8301	9,849.61	60.5863	9,849.61	56.7258	9,849.61	59.5199	9,849.61	54.1671
10,196.8	89.7805	10,196.8	86.9469	10,196.8	89.0251	10,196.8	85.0253	10,196.8	87.6215	10,196.8	83.9884	10,196.8	86.1666	10,196.8	81.8793	10,196.8	84.3492	10,196.8	78.9342	10,196.8	81.8006	10,196.8	74.6188	10,196.8	78.6431	10,196.8	68.9302	10,196.8	74.6522	10,196.8	68.1994	10,196.8	71.3445	10,196.8	65.1963	10,196.8	68.6249	10,196.8	63.2691	10,196.8	65.8361	10,196.8	60.9988	10,196.8	63.7929	10,196.8	58.5094	10,196.8	62.2678	10,196.8	56.2834	10,196.8	59.7737	10,196.8	55.6117	10,196.8	59.4005	10,196.8	52.9535	10,196.8	53.6709	10,196.8	51.0427	10,196.8	59.744	10,196.8	54.6303	10,196.8	58.6044	10,196.8	51.3926
10,555.7	89.8856	10,555.7	87.3087	10,555.7	89.3108	10,555.7	85.3373	10,555.7	88.0059	10,555.7	84.0695	10,555.7	86.2705	10,555.7	81.081	10,555.7	83.8596	10,555.7	77.419	10,555.7	80.4537	10,555.7	71.6738	10,555.7	77.4914	10,555.7	69.1231	10,555.7	73.8982	10,555.7	68.5541	10,555.7	70.7243	10,555.7	66.5606	10,555.7	67.9547	10,555.7	62.7949	10,555.7	65.6072	10,555.7	60.1821	10,555.7	62.5673	10,555.7	59.0898	10,555.7	62.3908	10,555.7	53.4724	10,555.7	61.4094	10,555.7	53.6779	10,555.7	59.7493	10,555.7	49.4849	10,555.7	55.907	10,555.7	49.1356	10,555.7	57.8281	10,555.7	57.3955	10,555.7	58.4995	10,555.7	47.701
10,927.7	89.9373	10,927.7	87.4271	10,927.7	89.6318	10,927.7	85.4044	10,927.7	88.1749	10,927.7	83.8807	10,927.7	86.2494	10,927.7	79.8424	10,927.7	83.3689	10,927.7	74.3348	10,927.7	79.704	10,927.7	68.4989	10,927.7	76.5916	10,927.7	69.0127	10,927.7	72.9527	10,927.7	66.8541	10,927.7	70.5063	10,927.7	65.4147	10,927.7	67.4537	10,927.7	60.9493	10,927.7	64.134	10,927.7	58.9493	10,927.7	61.6108	10,927.7	56.7424	10,927.7	60.4403	10,927.7	55.2872	10,927.7	58.8069	10,927.7	52.9717	10,927.7	57.5917	10,927.7	51.0751	10,927.7	52.8758	10,927.7	50.0227	10,927.7	55.7473	10,927.7	56.9883	10,927.7	57.9908	10,927.7	39.4177
11,313	89.9862	11,313	87.5991	11,313	90.0939	11,313	85.8315	11,313	88.434	11,313	83.0385	11,313	86.2526	11,313	77.7692	11,313	82.7848	11,313	72.1852	11,313	79.1568	11,313	68.768	11,313	75.6533	11,313	67.3257	11,313	72.3108	11,313	66.5642	11,313	70.0808	11,313	62.5599	11,313	66.7757	11,313	58.4132	11,313	62.2244	11,313	57.5445	11,313	61.8485	11,313	51.6306	11,313	59.9749	11,313	52.7029	11,313	58.4625	11,313	51.1325	11,313	56.0923	11,313	51.5109	11,313	48.236	11,313	50.3748	11,313	54.9113	11,313	53.3516	11,313	55.2383	11,313	31.0734
11,712.9	90.7667	11,712.9	88.6615	11,712.9	90.8133	11,712.9	85.7005	11,712.9	88.7121	11,712.9	81.0433	11,712.9	85.2385	11,712.9	72.6809	11,712.9	81.1464	11,712.9	59.5898	11,712.9	77.0227	11,712.9	62.475	11,712.9	73.1182	11,712.9	61.4827	11,712.9	70.3736	11,712.9	60.5777	11,712.9	66.0266	11,712.9	56.3142	11,712.9	63.8215	11,712.9	53.0676	11,712.9	58.9687	11,712.9	49.8686	11,712.9	58.565	11,712.9	48.7907	11,712.9	56.7527	11,712.9	42.7139	11,712.9	55.259	11,712.9	43.5625	11,712.9	53.0523	11,712.9	49.1426	11,712.9	47.778	11,712.9	25.9383	11,712.9	48.2503	11,712.9	42.479	11,712.9	50.4432	11,712.9	39.9399
12,126	90.8251	12,126	88.6203	12,126	90.4211	12,126	84.443	12,126	87.6776	12,126	79.0999	12,126	82.9652	12,126	69.094	12,126	79.119	12,126	68.091	12,126	74.2944	12,126	70.8763	12,126	70.1607	12,126	68.884	12,126	65.4645	12,126	66.3329	12,126	63.2613	12,126	62.0745	12,126	61.2076	12,126	60.2032	12,126	55.2264	12,126	56.4372	12,126	53.5536	12,126	49.1023	12,126	52.3475	12,126	52.3911	12,126	54.501	12,126	39.0788	12,126	47.8928	12,126	45.7815	12,126	43.4299	12,126	36.0461	12,126	45.1671	12,126	52.182	12,126	48.5596	12,126	39.2324
12,553.7	89.8594	12,553.7	87.6072	12,553.7	89.0414	12,553.7	83.9593	12,553.7	85.7763	12,553.7	76.8187	12,553.7	80.4505	12,553.7	72.408	12,553.7	77.6917	12,553.7	70.2503	12,553.7	72.6287	12,553.7	71.5831	12,553.7	67.5526	12,553.7	66.2511	12,553.7	54.5722	12,553.7	66.5009	12,553.7	60.5219	12,553.7	60.4021	12,553.7	57.7693	12,553.7	59.4194	12,553.7	55.7291	12,553.7	57.0003	12,553.7	53.294	12,553.7	54.5386	12,553.7	51.8955	12,553.7	51.7439	12,553.7	52.9877	12,553.7	42.7509	12,553.7	41.66	12,553.7	42.9645	12,553.7	46.8704	12,553.7	48.0196	12,553.7	37.1632	12,553.7	49.5833	12,553.7	47.3774	12,553.7	44.6738
12,996.1	89.0084	12,996.1	87.1625	12,996.1	87.0217	12,996.1	82.698	12,996.1	81.9807	12,996.1	78.2497	12,996.1	76.4574	12,996.1	77.2617	12,996.1	72.5441	12,996.1	73.733	12,996.1	68.2064	12,996.1	72.1417	12,996.1	60.6912	12,996.1	70.0791	12,996.1	59.4768	12,996.1	67.6828	12,996.1	58.491	12,996.1	63.3769	12,996.1	49.2067	12,996.1	60.882	12,996.1	49.4491	12,996.1	59.3088	12,996.1	48.3296	12,996.1	52.5017	12,996.1	48.2481	12,996.1	48.9998	12,996.1	46.0273	12,996.1	41.216	12,996.1	41.59	12,996.1	36.8385	12,996.1	42.2167	12,996.1	46.6225	12,996.1	42.6022	12,996.1	49.318	12,996.1	41.7857	12,996.1	34.7466
13,454.6	91.319	13,454.6	90.1687	13,454.6	88.7378	13,454.6	86.4303	13,454.6	83.6607	13,454.6	81.9074	13,454.6	79.2402	13,454.6	78.6669	13,454.6	74.9096	13,454.6	74.5802	13,454.6	67.2022	13,454.6	73.6212	13,454.6	59.2822	13,454.6	71.3695	13,454.6	59.2179	13,454.6	69.7241	13,454.6	53.2775	13,454.6	64.2359	13,454.6	37.5035	13,454.6	61.3086	13,454.6	36.519	13,454.6	60.6861	13,454.6	45.0528	13,454.6	55.0812	13,454.6	43.3631	13,454.6	49.4366	13,454.6	38.8383	13,454.6	41.1519	13,454.6	32.7569	13,454.6	37.7688	13,454.6	48.5806	13,454.6	34.9034	13,454.6	42.3689	13,454.6	43.2599	13,454.6	36.0977	13,454.6	39.1329
13,929.2	93.7741	13,929.2	92.0212	13,929.2	90.9446	13,929.2	87.089	13,929.2	84.985	13,929.2	81.6443	13,929.2	78.1246	13,929.2	78.2347	13,929.2	73.5772	13,929.2	75.0404	13,929.2	69.7163	13,929.2	75.3181	13,929.2	60.1328	13,929.2	73.3702	13,929.2	54.3801	13,929.2	69.7072	13,929.2	57.2601	13,929.2	65.3031	13,929.2	52.4429	13,929.2	62.0814	13,929.2	46.4998	13,929.2	61.7627	13,929.2	43.3156	13,929.2	55.2607	13,929.2	46.5587	13,929.2	50.2216	13,929.2	40.4731	13,929.2	41.692	13,929.2	43.1214	13,929.2	48.3639	13,929.2	49.1869	13,929.2	44.2896	13,929.2	43.5854	13,929.2	42.9594	13,929.2	46.0937	13,929.2	38.3406
14,419.9	93.9747	14,419.9	91.7995	14,419.9	90.5212	14,419.9	86.1429	14,419.9	83.4534	14,419.9	81.8942	14,419.9	75.0869	14,419.9	78.5189	14,419.9	70.3127	14,419.9	76.6606	14,419.9	70.5116	14,419.9	76.8709	14,419.9	62.5482	14,419.9	74.5166	14,419.9	65.2939	14,419.9	71.4027	14,419.9	58.6508	14,419.9	66.7651	14,419.9	49.8699	14,419.9	63.727	14,419.9	52.8722	14,419.9	61.5436	14,419.9	50.6098	14,419.9	54.5748	14,419.9	48.7027	14,419.9	54.8674	14,419.9	48.7386	14,419.9	45.9294	14,419.9	46.1047	14,419.9	47.1992	14,419.9	46.2625	14,419.9	48.9246	14,419.9	38.4011	14,419.9	49.6593	14,419.9	49.6969	14,419.9	39.5935
14,928.2	93.5213	14,928.2	91.2428	14,928.2	89.6296	14,928.2	86.0315	14,928.2	82.1006	14,928.2	83.0973	14,928.2	75.187	14,928.2	79.55	14,928.2	70.465	14,928.2	78.0747	14,928.2	69.3395	14,928.2	77.646	14,928.2	67.5194	14,928.2	74.8989	14,928.2	64.9127	14,928.2	72.004	14,928.2	52.438	14,928.2	66.6915	14,928.2	57.7268	14,928.2	64.7396	14,928.2	55.7039	14,928.2	60.8525	14,928.2	50.7549	14,928.2	54.1166	14,928.2	43.3771	14,928.2	53.4757	14,928.2	51.0992	14,928.2	47.8624	14,928.2	46.5263	14,928.2	51.4656	14,928.2	52.1756	14,928.2	50.959	14,928.2	42.6808	14,928.2	48.0602	14,928.2	51.4783	14,928.2	39.326
15,455.6	93.0053	15,455.6	91.1855	15,455.6	88.1328	15,455.6	86.544	15,455.6	80.1887	15,455.6	83.6995	15,455.6	70.6298	15,455.6	79.9049	15,455.6	74.4135	15,455.6	78.6721	15,455.6	72.7325	15,455.6	77.1831	15,455.6	71.6599	15,455.6	73.992	15,455.6	66.932	15,455.6	70.6019	15,455.6	67.7277	15,455.6	65.1241	15,455.6	64.8802	15,455.6	63.1313	15,455.6	62.1559	15,455.6	59.9411	15,455.6	57.1118	15,455.6	52.9799	15,455.6	53.3258	15,455.6	48.4797	15,455.6	57.5324	15,455.6	44.4218	15,455.6	49.8865	15,455.6	52.838	15,455.6	52.7338	15,455.6	51.0019	15,455.6	43.0629	15,455.6	51.8704	15,455.6	48.6231	15,455.6	42.1771
16,000.5	92.7709	16,000.5	91.079	16,000.5	87.5888	16,000.5	85.6526	16,000.5	78.8824	16,000.5	82.4372	16,000.5	56.1462	16,000.5	78.7478	16,000.5	76.2662	16,000.5	76.4642	16,000.5	74.3506	16,000.5	75.69	16,000.5	72.4617	16,000.5	69.0492	16,000.5	71.3582	16,000.5	67.5966	16,000.5	70.2125	16,000.5	62.71	16,000.5	66.1696	16,000.5	59.4431	16,000.5	63.4241	16,000.5	55.4879	16,000.5	58.8578	16,000.5	47.3414	16,000.5	52.9031	16,000.5	49.0073	16,000.5	59.2699	16,000.5	46.8831	16,000.5	46.6494	16,000.5	50.3788	16,000.5	48.9287	16,000.5	48.9873	16,000.5	50.8088	16,000.5	50.4667	16,000.5	50.7606	16,000.5	44.0511
16,564.5	92.8578	16,564.5	90.4898	16,564.5	87.8462	16,564.5	84.2018	16,564.5	77.5037	16,564.5	80.8442	16,564.5	71.9248	16,564.5	76.8874	16,564.5	78.3556	16,564.5	74.3619	16,564.5	76.5289	16,564.5	72.5047	16,564.5	73.3644	16,564.5	69.0805	16,564.5	73.8899	16,564.5	67.4495	16,564.5	70.0748	16,564.5	63.8242	16,564.5	66.3599	16,564.5	59.0383	16,564.5	63.2173	16,564.5	56.3849	16,564.5	59.3659	16,564.5	50.3256	16,564.5	53.2407	16,564.5	49.4572	16,564.5	58.5297	16,564.5	46.9163	16,564.5	42.4295	16,564.5	52.5812	16,564.5	33.9449	16,564.5	52.8065	16,564.5	51.7907	16,564.5	50.7393	16,564.5	51.2958	16,564.5	43.9136
17,148.9	93.8367	17,148.9	90.5878	17,148.9	88.7588	17,148.9	83.1067	17,148.9	78.5521	17,148.9	76.7877	17,148.9	77.3499	17,148.9	77.5618	17,148.9	80.2636	17,148.9	75.0108	17,148.9	78.3864	17,148.9	71.8023	17,148.9	75.7899	17,148.9	74.5315	17,148.9	76.8459	17,148.9	70.0909	17,148.9	71.4385	17,148.9	66.3685	17,148.9	68.6624	17,148.9	62.129	17,148.9	65.4651	17,148.9	57.6419	17,148.9	59.9398	17,148.9	46.5513	17,148.9	54.6815	17,148.9	43.4518	17,148.9	61.4408	17,148.9	49.7573	17,148.9	40.0904	17,148.9	52.4651	17,148.9	30.4505	17,148.9	54.4807	17,148.9	54.9004	17,148.9	46.2474	17,148.9	51.3137	17,148.9	48.1333
17,752.4	94.5041	17,752.4	89.8072	17,752.4	89.6424	17,752.4	82.2806	17,752.4	83.2458	17,752.4	75.6413	17,752.4	80.6531	17,752.4	82.9713	17,752.4	83.69	17,752.4	78.9257	17,752.4	81.0036	17,752.4	78.3088	17,752.4	79.9589	17,752.4	78.0641	17,752.4	79.5228	17,752.4	73.7327	17,752.4	74.9083	17,752.4	68.8806	17,752.4	71.1681	17,752.4	65.8342	17,752.4	67.529	17,752.4	60.7675	17,752.4	61.8583	17,752.4	54.2802	17,752.4	57.8855	17,752.4	48.1507	17,752.4	64.207	17,752.4	51.2556	17,752.4	50.9614	17,752.4	51.4746	17,752.4	53.1811	17,752.4	51.2021	17,752.4	55.5163	17,752.4	45.757	17,752.4	49.215	17,752.4	46.1506
18,379.4	91.5175	18,379.4	82.2187	18,379.4	89.2435	18,379.4	81.0423	18,379.4	84.8666	18,379.4	76.0391	18,379.4	82.424	18,379.4	82.0279	18,379.4	84.3985	18,379.4	75	18,379.4	82.296	18,379.4	77.342	18,379.4	80.8502	18,379.4	74.3072	18,379.4	79.2007	18,379.4	69.4329	18,379.4	75.5213	18,379.4	64.796	18,379.4	70.8415	18,379.4	61.6725	18,379.4	67.7048	18,379.4	58.2429	18,379.4	61.3579	18,379.4	50.5216	18,379.4	59.0424	18,379.4	44.1087	18,379.4	64.7075	18,379.4	45.3433	18,379.4	53.692	18,379.4	50.7697	18,379.4	56.8596	18,379.4	46.3318	18,379.4	52.2849	18,379.4	51.9879	18,379.4	46.1257	18,379.4	45.9166
19,026.9	80.7227	19,026.9	79.7566	19,026.9	84.8894	19,026.9	78.9446	19,026.9	80.8931	19,026.9	76.2581	19,026.9	80.4201	19,026.9	74.1307	19,026.9	81.1734	19,026.9	72.2461	19,026.9	79.273	19,026.9	68.8927	19,026.9	75.8891	19,026.9	65.84	19,026.9	75.2648	19,026.9	60.9259	19,026.9	71.2489	19,026.9	59.9471	19,026.9	66.5273	19,026.9	54.4413	19,026.9	64.7382	19,026.9	42.2404	19,026.9	57.0425	19,026.9	43.2717	19,026.9	54.9387	19,026.9	48.8293	19,026.9	59.1845	19,026.9	41.6829	19,026.9	51.0252	19,026.9	51.192	19,026.9	49.6126	19,026.9	46.0336	19,026.9	50.8844	19,026.9	38.9097	19,026.9	50.841	19,026.9	34.8605
19,697.8	80.1922	19,697.8	84.7582	19,697.8	78.1205	19,697.8	83.1248	19,697.8	79.8489	19,697.8	83.7121	19,697.8	77.1714	19,697.8	82.8397	19,697.8	74.3808	19,697.8	79.4704	19,697.8	72.9427	19,697.8	77.0324	19,697.8	66.6882	19,697.8	75.1603	19,697.8	70.3704	19,697.8	70.4256	19,697.8	64.2735	19,697.8	67.6394	19,697.8	60.9857	19,697.8	62.5006	19,697.8	59.1389	19,697.8	56.4811	19,697.8	44.7596	19,697.8	52.2587	19,697.8	44.7183	19,697.8	51.4441	19,697.8	49.0378	19,697.8	45.4193	19,697.8	43.8407	19,697.8	48.189	19,697.8	44.5712	19,697.8	52.5519	19,697.8	43.007	19,697.8	48.5371	19,697.8	41.849	19,697.8	44.9337
19,999.5	79.9636	19,999.5	84.215	19,999.5	71.3539	19,999.5	84.0968	19,999.5	75.8287	19,999.5	83.8841	19,999.5	75.2501	19,999.5	83.0826	19,999.5	70.5096	19,999.5	78.6641	19,999.5	71.7056	19,999.5	78.016	19,999.5	60.9748	19,999.5	75.1199	19,999.5	66.5992	19,999.5	69.5914	19,999.5	60.4568	19,999.5	68.3721	19,999.5	58.1559	19,999.5	58.7572	19,999.5	59.0449	19,999.5	51.723	19,999.5	29.1594	19,999.5	47.5546	19,999.5	47.9719	19,999.5	47.4426	19,999.5	54.616	19,999.5	46.6788	19,999.5	44.7982	19,999.5	43.2539	19,999.5	48.5062	19,999.5	53.4007	19,999.5	49.3554	19,999.5	60.0211	19,999.5	45.6823	19,999.5	50.2146
