"SPL Vertical"
"On-Axis"		"10°"		"-10°"		"20°"		"-20°"		"30°"		"-30°"		"40°"		"-40°"		"50°"		"-50°"		"60°"		"-60°"		"70°"		"-70°"		"80°"		"-80°"		"90°"		"-90°"		"100°"		"-100°"		"110°"		"-110°"		"120°"		"-120°"		"130°"		"-130°"		"140°"		"-140°"		"150°"		"-150°"		"160°"		"-160°"		"170°"		"-170°"		"180°"
"Frequency [Hz]"	"Sound Pessure Level [dB]  / [2.83V 1m] "	"Frequency [Hz]"	"Sound Pessure Level [dB]  / [2.83V 1m] "	"Frequency [Hz]"	"Sound Pessure Level [dB]  / [2.83V 1m] "	"Frequency [Hz]"	"Sound Pessure Level [dB]  / [2.83V 1m] "	"Frequency [Hz]"	"Sound Pessure Level [dB]  / [2.83V 1m] "	"Frequency [Hz]"	"Sound Pessure Level [dB]  / [2.83V 1m] "	"Frequency [Hz]"	"Sound Pessure Level [dB]  / [2.83V 1m] "	"Frequency [Hz]"	"Sound Pessure Level [dB]  / [2.83V 1m] "	"Frequency [Hz]"	"Sound Pessure Level [dB]  / [2.83V 1m] "	"Frequency [Hz]"	"Sound Pessure Level [dB]  / [2.83V 1m] "	"Frequency [Hz]"	"Sound Pessure Level [dB]  / [2.83V 1m] "	"Frequency [Hz]"	"Sound Pessure Level [dB]  / [2.83V 1m] "	"Frequency [Hz]"	"Sound Pessure Level [dB]  / [2.83V 1m] "	"Frequency [Hz]"	"Sound Pessure Level [dB]  / [2.83V 1m] "	"Frequency [Hz]"	"Sound Pessure Level [dB]  / [2.83V 1m] "	"Frequency [Hz]"	"Sound Pessure Level [dB]  / [2.83V 1m] "	"Frequency [Hz]"	"Sound Pessure Level [dB]  / [2.83V 1m] "	"Frequency [Hz]"	"Sound Pessure Level [dB]  / [2.83V 1m] "	"Frequency [Hz]"	"Sound Pessure Level [dB]  / [2.83V 1m] "	"Frequency [Hz]"	"Sound Pessure Level [dB]  / [2.83V 1m] "	"Frequency [Hz]"	"Sound Pessure Level [dB]  / [2.83V 1m] "	"Frequency [Hz]"	"Sound Pessure Level [dB]  / [2.83V 1m] "	"Frequency [Hz]"	"Sound Pessure Level [dB]  / [2.83V 1m] "	"Frequency [Hz]"	"Sound Pessure Level [dB]  / [2.83V 1m] "	"Frequency [Hz]"	"Sound Pessure Level [dB]  / [2.83V 1m] "	"Frequency [Hz]"	"Sound Pessure Level [dB]  / [2.83V 1m] "	"Frequency [Hz]"	"Sound Pessure Level [dB]  / [2.83V 1m] "	"Frequency [Hz]"	"Sound Pessure Level [dB]  / [2.83V 1m] "	"Frequency [Hz]"	"Sound Pessure Level [dB]  / [2.83V 1m] "	"Frequency [Hz]"	"Sound Pessure Level [dB]  / [2.83V 1m] "	"Frequency [Hz]"	"Sound Pessure Level [dB]  / [2.83V 1m] "	"Frequency [Hz]"	"Sound Pessure Level [dB]  / [2.83V 1m] "	"Frequency [Hz]"	"Sound Pessure Level [dB]  / [2.83V 1m] "	"Frequency [Hz]"	"Sound Pessure Level [dB]  / [2.83V 1m] "	"Frequency [Hz]"	"Sound Pessure Level [dB]  / [2.83V 1m] "	"Frequency [Hz]"	"Sound Pessure Level [dB]  / [2.83V 1m] "
20.5078	50.7245	20.5078	49.8429	20.5078	51.3819	20.5078	48.8182	20.5078	51.7822	20.5078	47.8629	20.5078	51.9026	20.5078	47.4026	20.5078	51.7198	20.5078	47.8702	20.5078	51.2206	20.5078	49.2025	20.5078	50.4601	20.5078	50.9377	20.5078	49.7341	20.5078	52.7126	20.5078	49.7837	20.5078	54.3714	20.5078	51.1865	20.5078	55.8703	20.5078	53.4039	20.5078	57.206	20.5078	55.6533	20.5078	58.3851	20.5078	57.5988	20.5078	59.4134	20.5078	59.1687	20.5078	60.292	20.5078	60.3735	20.5078	61.0165	20.5078	61.2426	20.5078	61.5764	20.5078	61.8069	20.5078	61.9566	20.5078	62.0961	20.5078	62.1375
21.9727	49.8256	21.9727	49.0245	21.9727	50.4963	21.9727	48.312	21.9727	50.9271	21.9727	48.05	21.9727	51.0565	21.9727	48.5556	21.9727	50.8398	21.9727	49.7734	21.9727	50.2585	21.9727	51.3582	21.9727	49.4171	21.9727	53.0137	21.9727	48.8328	21.9727	54.5939	21.9727	49.5355	21.9727	56.0479	21.9727	51.6929	21.9727	57.3653	21.9727	54.2834	21.9727	58.5489	21.9727	56.6388	21.9727	59.6034	21.9727	58.5882	21.9727	60.5307	21.9727	60.1309	21.9727	61.3288	21.9727	61.3031	21.9727	61.9903	21.9727	62.1438	21.9727	62.5035	21.9727	62.6887	21.9727	62.8519	21.9727	62.9695	21.9727	63.0151
23.4375	53.4401	23.4375	52.7974	23.4375	53.9655	23.4375	52.1467	23.4375	54.3107	23.4375	51.669	23.4375	54.4346	23.4375	51.5945	23.4375	54.3077	23.4375	52.0737	23.4375	53.9197	23.4375	53.0485	23.4375	53.3253	23.4375	54.3145	23.4375	52.7611	23.4375	55.6768	23.4375	52.7661	23.4375	57.0158	23.4375	53.8224	23.4375	58.2732	23.4375	55.6657	23.4375	59.4247	23.4375	57.6712	23.4375	60.4602	23.4375	59.4732	23.4375	61.3742	23.4375	60.9543	23.4375	62.1608	23.4375	62.1005	23.4375	62.8116	23.4375	62.931	23.4375	63.3142	23.4375	63.4734	23.4375	63.6529	23.4375	63.7566	23.4375	63.8079
24.9023	56.762	24.9023	56.3003	24.9023	57.1355	24.9023	55.8169	24.9023	57.3757	24.9023	55.4101	24.9023	57.4515	24.9023	55.2061	24.9023	57.3422	24.9023	55.3233	24.9023	57.0479	24.9023	55.8102	24.9023	56.6189	24.9023	56.6146	24.9023	56.2184	24.9023	57.6223	24.9023	56.1725	24.9023	58.7188	24.9023	56.8144	24.9023	59.8204	24.9023	58.1162	24.9023	60.8754	24.9023	59.709	24.9023	61.8533	24.9023	61.2544	24.9023	62.7349	24.9023	62.5816	24.9023	63.5058	24.9023	63.6327	24.9023	64.1522	24.9023	64.4009	24.9023	64.6589	24.9023	64.9002	24.9023	65.0082	24.9023	65.1519	24.9023	65.1801
26.3672	58.4671	26.3672	58.0703	26.3672	58.7985	26.3672	57.6611	26.3672	59.0264	26.3672	57.3125	26.3672	59.1229	26.3672	57.1154	26.3672	59.0702	26.3672	57.1587	26.3672	58.8675	26.3672	57.4934	26.3672	58.553	26.3672	58.1057	26.3672	58.2439	26.3672	58.9265	26.3672	58.1699	26.3672	59.8672	26.3672	58.5938	26.3672	60.8497	26.3672	59.5764	26.3672	61.8174	26.3672	60.8946	26.3672	62.732	26.3672	62.2568	26.3672	63.5677	26.3672	63.4726	26.3672	64.3051	26.3672	64.4567	26.3672	64.9272	26.3672	65.1845	26.3672	65.4169	26.3672	65.66	26.3672	65.7559	26.3672	65.8994	26.3672	65.9239
27.832	60.7983	27.832	60.4298	27.832	61.0967	27.832	60.034	27.832	61.2941	27.832	59.6698	27.832	61.3685	27.832	59.4127	27.832	61.3069	27.832	59.344	27.832	61.1125	27.832	59.5255	27.832	60.8225	27.832	59.9712	27.832	60.5378	27.832	60.641	27.832	60.4456	27.832	61.4618	27.832	60.7618	27.832	62.3572	27.832	61.5613	27.832	63.2648	27.832	62.69	27.832	64.1395	27.832	63.9027	27.832	64.9493	27.832	65.0143	27.832	65.6707	27.832	65.9287	27.832	66.2839	27.832	66.6103	27.832	66.7704	27.832	67.055	27.832	67.1112	27.832	67.2742	27.832	67.2861
29.2969	62.266	29.2969	61.941	29.2969	62.5318	29.2969	61.5972	29.2969	62.7094	29.2969	61.2881	29.2969	62.7787	29.2969	61.0791	29.2969	62.7301	29.2969	61.038	29.2969	62.5714	29.2969	61.215	29.2969	62.3429	29.2969	61.6225	29.2969	62.1402	29.2969	62.2301	29.2969	62.1243	29.2969	62.9792	29.2969	62.4655	29.2969	63.8049	29.2969	63.2153	29.2969	64.651	29.2969	64.2477	29.2969	65.4744	29.2969	65.3593	29.2969	66.2431	29.2969	66.3871	29.2969	66.9326	29.2969	67.239	29.2969	67.5222	29.2969	67.8766	29.2969	67.9927	29.2969	68.2924	29.2969	68.3249	29.2969	68.4944	29.2969	68.4988
30.7617	63.8914	30.7617	63.6084	30.7617	64.1351	30.7617	63.3219	30.7617	64.3123	30.7617	63.0774	30.7617	64.4051	30.7617	62.9274	30.7617	64.406	30.7617	62.9228	30.7617	64.3248	30.7617	63.1001	30.7617	64.2001	30.7617	63.4685	30.7617	64.1129	30.7617	64.0065	30.7617	64.1861	30.7617	64.671	30.7617	64.5399	30.7617	65.4113	30.7617	65.2086	30.7617	66.1805	30.7617	66.1036	30.7617	66.9393	30.7617	67.0725	30.7617	67.6571	30.7617	67.9802	30.7617	68.3086	30.7617	68.7407	30.7617	68.8725	30.7617	69.3118	30.7617	69.3286	30.7617	69.6809	30.7617	69.6571	30.7617	69.8519	30.7617	69.838
32.2266	65.6329	32.2266	65.3896	32.2266	65.8444	32.2266	65.1433	32.2266	66.0022	32.2266	64.9298	32.2266	66.0922	32.2266	64.79	32.2266	66.1093	32.2266	64.7651	32.2266	66.0634	32.2266	64.8874	32.2266	65.9865	32.2266	65.1711	32.2266	65.9423	32.2266	65.6078	32.2266	66.0237	32.2266	66.1691	32.2266	66.3226	32.2266	66.8157	32.2266	66.8744	32.2266	67.5061	32.2266	67.6251	32.2266	68.2024	32.2266	68.4605	32.2266	68.8725	32.2266	69.2644	32.2266	69.4887	32.2266	69.9526	32.2266	70.0273	32.2266	70.4777	32.2266	70.466	32.2266	70.82	32.2266	70.7839	32.2266	70.9779	32.2266	70.9607
33.6914	66.7825	33.6914	66.5747	33.6914	66.9725	33.6914	66.375	33.6914	67.1247	33.6914	66.2151	33.6914	67.2265	33.6914	66.1288	33.6914	67.2753	33.6914	66.1484	33.6914	67.282	33.6914	66.2971	33.6914	67.2774	33.6914	66.5837	33.6914	67.3164	33.6914	66.9999	33.6914	67.4725	33.6914	67.5223	33.6914	67.8113	33.6914	68.1195	33.6914	68.352	33.6914	68.7572	33.6914	69.0475	33.6914	69.4033	33.6914	69.806	33.6914	70.0291	33.6914	70.532	33.6914	70.609	33.6914	71.1527	33.6914	71.1201	33.6914	71.6247	33.6914	71.541	33.6914	71.9283	33.6914	71.8508	33.6914	72.0607	33.6914	72.0301
35.1562	68.4125	35.1562	68.2131	35.1562	68.597	35.1562	68.0205	35.1562	68.75	35.1562	67.8607	35.1562	68.8607	35.1562	67.7621	35.1562	68.9262	35.1562	67.7523	35.1562	68.9551	35.1562	67.8535	35.1562	68.9714	35.1562	68.0773	35.1562	69.0187	35.1562	68.4214	35.1562	69.1554	35.1562	68.8704	35.1562	69.437	35.1562	69.399	35.1562	69.8862	35.1562	69.9773	35.1562	70.4739	35.1562	70.5745	35.1562	71.1289	35.1562	71.1619	35.1562	71.7685	35.1562	71.7129	35.1562	72.3235	35.1562	72.2036	35.1562	72.7486	35.1562	72.6113	35.1562	73.0211	35.1562	72.915	35.1562	73.1348	35.1562	73.0951
36.6211	69.773	36.6211	69.5964	36.6211	69.9412	36.6211	69.4302	36.6211	70.0862	36.6211	69.2965	36.6211	70.1984	36.6211	69.2188	36.6211	70.2754	36.6211	69.2194	36.6211	70.3246	36.6211	69.3161	36.6211	70.3665	36.6211	69.5184	36.6211	70.4371	36.6211	69.8253	36.6211	70.5835	36.6211	70.2251	36.6211	70.8497	36.6211	70.6981	36.6211	71.2546	36.6211	71.2194	36.6211	71.7762	36.6211	71.7625	36.6211	72.3574	36.6211	72.3013	36.6211	72.928	36.6211	72.8109	36.6211	73.4263	36.6211	73.2679	36.6211	73.8095	36.6211	73.6503	36.6211	74.0543	36.6211	73.9375	36.6211	74.1533	36.6211	74.1105
38.0859	71.0935	38.0859	70.9325	38.0859	71.2497	38.0859	70.7829	38.0859	71.3886	38.0859	70.6632	38.0859	71.5022	38.0859	70.5933	38.0859	71.5887	38.0859	70.5921	38.0859	71.6548	38.0859	70.6752	38.0859	71.7185	38.0859	70.8517	38.0859	71.8094	38.0859	71.1223	38.0859	71.9659	38.0859	71.479	38.0859	72.223	38.0859	71.9062	38.0859	72.5958	38.0859	72.3829	38.0859	73.0664	38.0859	72.8856	38.0859	73.588	38.0859	73.3899	38.0859	74.1005	38.0859	73.8721	38.0859	74.5487	38.0859	74.3089	38.0859	74.8923	38.0859	74.6785	38.0859	75.1082	38.0859	74.9603	38.0859	75.1883	38.0859	75.1354
39.5508	72.2336	39.5508	72.0851	39.5508	72.3812	39.5508	71.9493	39.5508	72.5168	39.5508	71.8425	39.5508	72.634	39.5508	71.7816	39.5508	72.7315	39.5508	71.7832	39.5508	72.8152	39.5508	71.8607	39.5508	72.9004	39.5508	72.0225	39.5508	73.0117	39.5508	72.27	39.5508	73.18	39.5508	72.5973	39.5508	73.433	39.5508	72.9914	39.5508	73.7823	39.5508	73.4344	39.5508	74.2133	39.5508	73.9051	39.5508	74.6868	39.5508	74.3811	39.5508	75.1513	39.5508	74.8396	39.5508	75.5576	39.5508	75.2582	39.5508	75.8682	39.5508	75.6154	39.5508	76.0605	39.5508	75.8907	39.5508	76.1257	39.5508	76.0659
41.0156	73.4557	41.0156	73.3219	41.0156	73.5931	41.0156	73.2029	41.0156	73.725	41.0156	73.1119	41.0156	73.8456	41.0156	73.0624	41.0156	73.9537	41.0156	73.0675	41.0156	74.0538	41.0156	73.1379	41.0156	74.1577	41.0156	73.2808	41.0156	74.2842	41.0156	73.498	41.0156	74.4571	41.0156	73.7858	41.0156	74.6975	41.0156	74.1346	41.0156	75.0142	41.0156	74.5304	41.0156	75.396	41.0156	74.9554	41.0156	75.8115	41.0156	75.3901	41.0156	76.218	41.0156	75.8136	41.0156	76.5729	41.0156	76.2048	41.0156	76.8422	41.0156	76.5429	41.0156	77.0044	41.0156	76.8079	41.0156	77.0506	41.0156	76.982
42.4805	74.044	42.4805	73.8982	42.4805	74.1905	42.4805	73.7638	42.4805	74.3291	42.4805	73.6527	42.4805	74.4538	42.4805	73.5773	42.4805	74.5625	42.4805	73.55	42.4805	74.6581	42.4805	73.5817	42.4805	74.7501	42.4805	73.6804	42.4805	74.8548	42.4805	73.85	42.4805	74.9933	42.4805	74.0892	42.4805	75.1861	42.4805	74.3911	42.4805	75.4442	42.4805	74.7438	42.4805	75.7613	42.4805	75.1313	42.4805	76.1124	42.4805	75.5348	42.4805	76.46	42.4805	75.9338	42.4805	76.7647	42.4805	76.3073	42.4805	76.9939	42.4805	76.6343	42.4805	77.1263	42.4805	76.8952	42.4805	77.1523	42.4805	77.0725
43.9453	75.0132	43.9453	74.8821	43.9453	75.148	43.9453	74.7638	43.9453	75.2789	43.9453	74.6689	43.9453	75.4011	43.9453	74.6086	43.9453	75.5133	43.9453	74.5937	43.9453	75.6188	43.9453	74.6337	43.9453	75.7262	43.9453	74.7356	43.9453	75.8496	43.9453	74.9028	43.9453	76.0065	43.9453	75.1341	43.9453	76.2126	43.9453	75.4234	43.9453	76.4748	43.9453	75.7599	43.9453	76.7854	43.9453	76.1293	43.9453	77.1211	43.9453	76.5141	43.9453	77.4483	43.9453	76.8953	43.9453	77.7317	43.9453	77.2532	43.9453	77.9422	43.9453	77.568	43.9453	78.0605	43.9453	77.8209	43.9453	78.0779	43.9453	77.9953
45.4102	75.8874	45.4102	75.7644	45.4102	76.0164	45.4102	75.6549	45.4102	76.1453	45.4102	75.5679	45.4102	76.27	45.4102	75.5128	45.4102	76.3896	45.4102	75.4988	45.4102	76.5067	45.4102	75.5343	45.4102	76.6279	45.4102	75.6259	45.4102	76.7643	45.4102	75.777	45.4102	76.9291	45.4102	75.9872	45.4102	77.134	45.4102	76.2519	45.4102	77.3834	45.4102	76.5622	45.4102	77.6701	45.4102	76.9055	45.4102	77.9739	45.4102	77.2664	45.4102	78.2659	45.4102	77.6272	45.4102	78.5154	45.4102	77.9694	45.4102	78.6962	45.4102	78.2739	45.4102	78.7909	45.4102	78.5228	45.4102	78.7918	45.4102	78.6998
46.875	76.7474	46.875	76.6221	46.875	76.8786	46.875	76.5095	46.875	77.0104	46.875	76.4179	46.875	77.1395	46.875	76.356	46.875	77.2651	46.875	76.3328	46.875	77.3895	46.875	76.3565	46.875	77.5186	46.875	76.4336	46.875	77.6613	46.875	76.5679	46.875	77.8282	46.875	76.76	46.875	78.0285	46.875	77.006	46.875	78.265	46.875	77.2983	46.875	78.5309	46.875	77.6255	46.875	78.8082	46.875	77.9729	46.875	79.0712	46.875	78.3239	46.875	79.2923	46.875	78.6603	46.875	79.4476	46.875	78.9635	46.875	79.5209	46.875	79.2156	46.875	79.5047	46.875	79.4003
48.3398	77.3042	48.3398	77.1807	48.3398	77.4385	48.3398	77.0744	48.3398	77.5785	48.3398	76.9926	48.3398	77.7209	48.3398	76.943	48.3398	77.8643	48.3398	76.9333	48.3398	78.0102	48.3398	76.9699	48.3398	78.1626	48.3398	77.058	48.3398	78.3278	48.3398	77.2001	48.3398	78.5133	48.3398	77.3958	48.3398	78.7249	48.3398	77.6412	48.3398	78.9636	48.3398	77.9291	48.3398	79.2221	48.3398	78.2489	48.3398	79.4845	48.3398	78.5874	48.3398	79.7285	48.3398	78.9292	48.3398	79.9299	48.3398	79.2576	48.3398	80.0673	48.3398	79.555	48.3398	80.1263	48.3398	79.8044	48.3398	80.1002	48.3398	79.9904
51.2695	78.5404	51.2695	78.4259	51.2695	78.6674	51.2695	78.3283	51.2695	78.8032	51.2695	78.2525	51.2695	78.9447	51.2695	78.2037	51.2695	79.0902	51.2695	78.187	51.2695	79.2394	51.2695	78.2069	51.2695	79.3931	51.2695	78.2676	51.2695	79.5538	51.2695	78.3714	51.2695	79.7244	51.2695	78.5192	51.2695	79.9071	51.2695	78.7095	51.2695	80.1015	51.2695	78.9382	51.2695	80.3022	51.2695	79.1983	51.2695	80.4984	51.2695	79.4802	51.2695	80.6743	51.2695	79.7718	51.2695	80.8121	51.2695	80.0588	51.2695	80.8957	51.2695	80.3261	51.2695	80.9138	51.2695	80.5581	51.2695	80.8615	51.2695	80.7404
52.7344	79.0312	52.7344	78.9187	52.7344	79.1567	52.7344	78.8228	52.7344	79.2916	52.7344	78.7478	52.7344	79.4335	52.7344	78.698	52.7344	79.5804	52.7344	78.678	52.7344	79.7312	52.7344	78.692	52.7344	79.8861	52.7344	78.7436	52.7344	80.0461	52.7344	78.8354	52.7344	80.2126	52.7344	78.9685	52.7344	80.3866	52.7344	79.142	52.7344	80.5671	52.7344	79.3526	52.7344	80.7492	52.7344	79.5944	52.7344	80.9234	52.7344	79.8588	52.7344	81.076	52.7344	80.1345	52.7344	81.1917	52.7344	80.4084	52.7344	81.2565	52.7344	80.6659	52.7344	81.2602	52.7344	80.8922	52.7344	81.1986	52.7344	81.0735
54.1992	79.5081	54.1992	79.3966	54.1992	79.6342	54.1992	79.303	54.1992	79.7718	54.1992	79.2309	54.1992	79.9182	54.1992	79.1838	54.1992	80.0714	54.1992	79.1656	54.1992	80.2295	54.1992	79.1797	54.1992	80.3917	54.1992	79.2293	54.1992	80.5576	54.1992	79.3167	54.1992	80.7272	54.1992	79.4429	54.1992	80.9003	54.1992	79.6073	54.1992	81.075	54.1992	79.8073	54.1992	81.2465	54.1992	80.0376	54.1992	81.4063	54.1992	80.2906	54.1992	81.5426	54.1992	80.5562	54.1992	81.6418	54.1992	80.8221	54.1992	81.6915	54.1992	81.0743	54.1992	81.6828	54.1992	81.2987	54.1992	81.6121	54.1992	81.4817
55.6641	79.9985	55.6641	79.8889	55.6641	80.1229	55.6641	79.7971	55.6641	80.2594	55.6641	79.7263	55.6641	80.4055	55.6641	79.6796	55.6641	80.5588	55.6641	79.6602	55.6641	80.7177	55.6641	79.6714	55.6641	80.8805	55.6641	79.7158	55.6641	81.0463	55.6641	79.7957	55.6641	81.2142	55.6641	79.912	55.6641	81.3831	55.6641	80.0647	55.6641	81.5503	55.6641	80.2516	55.6641	81.7112	55.6641	80.4685	55.6641	81.8578	55.6641	80.7085	55.6641	81.9794	55.6641	80.9624	55.6641	82.064	55.6641	81.2187	55.6641	82.1005	55.6641	81.4642	55.6641	82.0811	55.6641	81.6852	55.6641	82.0029	55.6641	81.8685
58.5938	80.7077	58.5938	80.6007	58.5938	80.8315	58.5938	80.5127	58.5938	80.9701	58.5938	80.4456	58.5938	81.121	58.5938	80.4014	58.5938	81.2815	58.5938	80.3821	58.5938	81.4488	58.5938	80.3896	58.5938	81.6196	58.5938	80.426	58.5938	81.7907	58.5938	80.4929	58.5938	81.9589	58.5938	80.5915	58.5938	82.1207	58.5938	80.7221	58.5938	82.2725	58.5938	80.8837	58.5938	82.4095	58.5938	81.0736	58.5938	82.5256	58.5938	81.2869	58.5938	82.6128	58.5938	81.5163	58.5938	82.6628	58.5938	81.7523	58.5938	82.6678	58.5938	81.9836	58.5938	82.6226	58.5938	82.1976	58.5938	82.5262	58.5938	82.382
60.0586	81.0467	60.0586	80.938	60.0586	81.1721	60.0586	80.8476	60.0586	81.3118	60.0586	80.7772	60.0586	81.4636	60.0586	80.7285	60.0586	81.6245	60.0586	80.7031	60.0586	81.7911	60.0586	80.7029	60.0586	81.9598	60.0586	80.7296	60.0586	82.1265	60.0586	80.785	60.0586	82.2872	60.0586	80.8701	60.0586	82.4381	60.0586	80.9858	60.0586	82.5751	60.0586	81.1313	60.0586	82.6936	60.0586	81.3047	60.0586	82.7885	60.0586	81.5018	60.0586	82.8534	60.0586	81.7162	60.0586	82.8818	60.0586	81.9394	60.0586	82.8678	60.0586	82.161	60.0586	82.8077	60.0586	82.3693	60.0586	82.7014	60.0586	82.5528
62.9883	81.6451	62.9883	81.536	62.9883	81.7715	62.9883	81.4457	62.9883	81.9136	62.9883	81.3751	62.9883	82.0689	62.9883	81.3253	62.9883	82.2343	62.9883	81.297	62.9883	82.4056	62.9883	81.2915	62.9883	82.578	62.9883	81.31	62.9883	82.7464	62.9883	81.3538	62.9883	82.9052	62.9883	81.4241	62.9883	83.0491	62.9883	81.5218	62.9883	83.1733	62.9883	81.6471	62.9883	83.2732	62.9883	81.7991	62.9883	83.3444	62.9883	81.975	62.9883	83.3825	62.9883	82.1702	62.9883	83.3831	62.9883	82.3777	62.9883	83.3428	62.9883	82.5887	62.9883	83.2605	62.9883	82.7927	62.9883	83.1376	62.9883	82.979
64.4531	81.9493	64.4531	81.8405	64.4531	82.0756	64.4531	81.7503	64.4531	82.2178	64.4531	81.6792	64.4531	82.3735	64.4531	81.6281	64.4531	82.5395	64.4531	81.5974	64.4531	82.7116	64.4531	81.588	64.4531	82.8845	64.4531	81.601	64.4531	83.0523	64.4531	81.6375	64.4531	83.209	64.4531	81.6989	64.4531	83.3486	64.4531	81.7862	64.4531	83.4658	64.4531	81.9	64.4531	83.5559	64.4531	82.0399	64.4531	83.6148	64.4531	82.204	64.4531	83.6388	64.4531	82.3885	64.4531	83.6249	64.4531	82.5873	64.4531	83.5709	64.4531	82.7923	64.4531	83.4768	64.4531	82.9937	64.4531	83.345	64.4531	83.1813
67.3828	82.407	67.3828	82.2936	67.3828	82.5385	67.3828	82.1992	67.3828	82.6866	67.3828	82.1241	67.3828	82.8488	67.3828	82.0683	67.3828	83.0213	67.3828	82.032	67.3828	83.1992	67.3828	82.0155	67.3828	83.3764	67.3828	82.0196	67.3828	83.5458	67.3828	82.0453	67.3828	83.7004	67.3828	82.0937	67.3828	83.8331	67.3828	82.1661	67.3828	83.938	67.3828	82.2637	67.3828	84.0103	67.3828	82.3866	67.3828	84.0464	67.3828	82.5342	67.3828	84.0441	67.3828	82.7036	67.3828	84.0024	67.3828	82.8905	67.3828	83.9218	67.3828	83.088	67.3828	83.8045	67.3828	83.2876	67.3828	83.655	67.3828	83.4798
68.8477	82.5588	68.8477	82.4434	68.8477	82.693	68.8477	82.3474	68.8477	82.8443	68.8477	82.2711	68.8477	83.0101	68.8477	82.2145	68.8477	83.1865	68.8477	82.1775	68.8477	83.368	68.8477	82.1602	68.8477	83.5483	68.8477	82.1629	68.8477	83.72	68.8477	82.1866	68.8477	83.8754	68.8477	82.2323	68.8477	84.0072	68.8477	82.3012	68.8477	84.1088	68.8477	82.3943	68.8477	84.1754	68.8477	82.5121	68.8477	84.2037	68.8477	82.6542	68.8477	84.192	68.8477	82.8185	68.8477	84.1401	68.8477	83.001	68.8477	84.0496	68.8477	83.1955	68.8477	83.9236	68.8477	83.3942	68.8477	83.7673	68.8477	83.588
71.7773	83.0754	71.7773	82.9613	71.7773	83.2083	71.7773	82.8665	71.7773	83.3585	71.7773	82.7909	71.7773	83.5234	71.7773	82.7341	71.7773	83.699	71.7773	82.6957	71.7773	83.8795	71.7773	82.6753	71.7773	84.0582	71.7773	82.6728	71.7773	84.2269	71.7773	82.6888	71.7773	84.3774	71.7773	82.724	71.7773	84.5015	71.7773	82.7796	71.7773	84.5924	71.7773	82.8571	71.7773	84.645	71.7773	82.9574	71.7773	84.6564	71.7773	83.0811	71.7773	84.626	71.7773	83.2273	71.7773	84.5552	71.7773	83.3937	71.7773	84.4472	71.7773	83.5756	71.7773	84.3069	71.7773	83.7664	71.7773	84.1412	71.7773	83.958
74.707	83.6274	74.707	83.514	74.707	83.7589	74.707	83.4189	74.707	83.9072	74.707	83.3417	74.707	84.0695	74.707	83.2815	74.707	84.2417	74.707	83.2374	74.707	84.4177	74.707	83.2085	74.707	84.5901	74.707	83.1946	74.707	84.7503	74.707	83.1958	74.707	84.8893	74.707	83.2129	74.707	84.9984	74.707	83.2472	74.707	85.0705	74.707	83.3007	74.707	85.1007	74.707	83.3754	74.707	85.0865	74.707	83.4729	74.707	85.0289	74.707	83.5942	74.707	84.931	74.707	83.7384	74.707	84.7984	74.707	83.903	74.707	84.6384	74.707	84.083	74.707	84.4597	74.707	84.2714
77.6367	83.968	77.6367	83.8518	77.6367	84.1028	77.6367	83.7545	77.6367	84.2549	77.6367	83.6752	77.6367	84.4214	77.6367	83.6127	77.6367	84.5976	77.6367	83.5658	77.6367	84.7772	77.6367	83.5333	77.6367	84.952	77.6367	83.5146	77.6367	85.1132	77.6367	83.5097	77.6367	85.2512	77.6367	83.5194	77.6367	85.357	77.6367	83.5452	77.6367	85.4231	77.6367	83.5893	77.6367	85.4444	77.6367	83.6543	77.6367	85.4187	77.6367	83.7425	77.6367	85.3474	77.6367	83.8555	77.6367	85.2346	77.6367	83.9936	77.6367	85.0872	77.6367	84.1549	77.6367	84.9136	77.6367	84.3351	77.6367	84.7237	77.6367	84.5275
79.1016	84.1111	79.1016	83.9927	79.1016	84.2482	79.1016	83.8935	79.1016	84.4026	79.1016	83.8126	79.1016	84.5712	79.1016	83.7489	79.1016	84.7491	79.1016	83.7009	79.1016	84.9299	79.1016	83.6674	79.1016	85.1055	79.1016	83.6476	79.1016	85.2669	79.1016	83.6414	79.1016	85.4044	79.1016	83.6495	79.1016	85.5091	79.1016	83.6733	79.1016	85.5732	79.1016	83.715	79.1016	85.5915	79.1016	83.7772	79.1016	85.5619	79.1016	83.8624	79.1016	85.4855	79.1016	83.9725	79.1016	85.3671	79.1016	84.1081	79.1016	85.2138	79.1016	84.2679	79.1016	85.0349	79.1016	84.4478	79.1016	84.8406	79.1016	84.6416
82.0312	84.405	82.0312	84.2838	82.0312	84.5433	82.0312	84.18	82.0312	84.6969	82.0312	84.0933	82.0312	84.8624	82.0312	84.0227	82.0312	85.035	82.0312	83.9668	82.0312	85.2084	82.0312	83.9244	82.0312	85.3746	82.0312	83.8945	82.0312	85.5247	82.0312	83.877	82.0312	85.6493	82.0312	83.8725	82.0312	85.7394	82.0312	83.8822	82.0312	85.7871	82.0312	83.9084	82.0312	85.7872	82.0312	83.954	82.0312	85.738	82.0312	84.0219	82.0312	85.6415	82.0312	84.1149	82.0312	85.5036	82.0312	84.2345	82.0312	85.3333	82.0312	84.3805	82.0312	85.1415	82.0312	84.5506	82.0312	84.9398	82.0312	84.7396
84.9609	84.7219	84.9609	84.605	84.9609	84.8549	84.9609	84.5044	84.9609	85.0026	84.9609	84.4195	84.9609	85.1625	84.9609	84.3489	84.9609	85.3302	84.9609	84.2913	84.9609	85.5	84.9609	84.2453	84.9609	85.6644	84.9609	84.21	84.9609	85.8148	84.9609	84.1853	84.9609	85.9415	84.9609	84.1717	84.9609	86.0345	84.9609	84.1709	84.9609	86.0849	84.9609	84.1855	84.9609	86.0862	84.9609	84.2186	84.9609	86.0351	84.9609	84.2743	84.9609	85.9332	84.9609	84.3562	84.9609	85.7861	84.9609	84.4673	84.9609	85.6036	84.9609	84.6088	84.9609	85.3982	84.9609	84.7792	84.9609	85.1838	84.9609	84.9737
87.8906	84.9119	87.8906	84.7937	87.8906	85.0468	87.8906	84.6921	87.8906	85.1976	87.8906	84.6064	87.8906	85.3619	87.8906	84.5352	87.8906	85.5361	87.8906	84.4767	87.8906	85.7144	87.8906	84.4298	87.8906	85.8892	87.8906	84.3932	87.8906	86.0509	87.8906	84.3667	87.8906	86.1886	87.8906	84.3509	87.8906	86.2909	87.8906	84.3476	87.8906	86.3478	87.8906	84.3594	87.8906	86.3518	87.8906	84.3901	87.8906	86.2994	87.8906	84.4443	87.8906	86.192	87.8906	84.5264	87.8906	86.0359	87.8906	84.64	87.8906	85.8417	87.8906	84.7869	87.8906	85.6229	87.8906	84.9657	87.8906	85.3946	87.8906	85.1713
90.8203	85.2054	90.8203	85.0746	90.8203	85.3497	90.8203	84.9575	90.8203	85.5062	90.8203	84.8534	90.8203	85.6716	90.8203	84.7606	90.8203	85.841	90.8203	84.6775	90.8203	86.0074	90.8203	84.6025	90.8203	86.1623	90.8203	84.5348	90.8203	86.2957	90.8203	84.4742	90.8203	86.397	90.8203	84.422	90.8203	86.456	90.8203	84.3806	90.8203	86.4643	90.8203	84.3539	90.8203	86.4168	90.8203	84.3469	90.8203	86.3124	90.8203	84.3654	90.8203	86.1552	90.8203	84.4155	90.8203	85.9542	90.8203	84.5023	90.8203	85.7223	90.8203	84.629	90.8203	85.4752	90.8203	84.7957	90.8203	85.2289	90.8203	84.9984
95.2148	85.4012	95.2148	85.2752	95.2148	85.5458	95.2148	85.1685	95.2148	85.7075	95.2148	85.081	95.2148	85.8834	95.2148	85.0119	95.2148	86.0693	95.2148	84.96	95.2148	86.2591	95.2148	84.9237	95.2148	86.4447	95.2148	84.9014	95.2148	86.6157	95.2148	84.8917	95.2148	86.7607	95.2148	84.8936	95.2148	86.8678	95.2148	84.907	95.2148	86.9264	95.2148	84.933	95.2148	86.9286	95.2148	84.9738	95.2148	86.8712	95.2148	85.0327	95.2148	86.7563	95.2148	85.1139	95.2148	86.5919	95.2148	85.2217	95.2148	86.3907	95.2148	85.3593	95.2148	86.1684	95.2148	85.5275	95.2148	85.9412	95.2148	85.7239
98.1445	85.6919	98.1445	85.5686	98.1445	85.8308	98.1445	85.4608	98.1445	85.9839	98.1445	85.3678	98.1445	86.1486	98.1445	85.2882	98.1445	86.3204	98.1445	85.2204	98.1445	86.4929	98.1445	85.1627	98.1445	86.6577	98.1445	85.1138	98.1445	86.8049	98.1445	85.073	98.1445	86.9234	98.1445	85.0406	98.1445	87.0022	98.1445	85.0179	98.1445	87.0316	98.1445	85.0075	98.1445	87.0047	98.1445	85.0133	98.1445	86.919	98.1445	85.0404	98.1445	86.7775	98.1445	85.0944	98.1445	86.5888	98.1445	85.1809	98.1445	86.3663	98.1445	85.304	98.1445	86.1264	98.1445	85.4653	98.1445	85.8864	98.1445	85.6619
101.074	85.3923	101.074	85.257	101.074	85.5497	101.074	85.1446	101.074	85.7272	101.074	85.055	101.074	85.9211	101.074	84.9872	101.074	86.126	101.074	84.94	101.074	86.3343	101.074	84.9116	101.074	86.5368	101.074	84.9004	101.074	86.7224	101.074	84.9048	101.074	86.8797	101.074	84.9235	101.074	86.9973	101.074	84.956	101.074	87.0652	101.074	85.0027	101.074	87.0763	101.074	85.0649	101.074	87.028	101.074	85.1453	101.074	86.9224	101.074	85.2471	101.074	86.767	101.074	85.3735	101.074	86.5737	101.074	85.5268	101.074	86.3567	101.074	85.7071	101.074	86.1312	101.074	85.911
105.469	85.9051	105.469	85.7523	105.469	86.0735	105.469	85.6172	105.469	86.2535	105.469	85.5001	105.469	86.4398	105.469	85.4005	105.469	86.6254	105.469	85.3167	105.469	86.802	105.469	85.2468	105.469	86.961	105.469	85.1892	105.469	87.0932	105.469	85.1428	105.469	87.1895	105.469	85.1076	105.469	87.2416	105.469	85.0846	105.469	87.2428	105.469	85.0764	105.469	87.1892	105.469	85.0868	105.469	87.0807	105.469	85.1206	105.469	86.9216	105.469	85.183	105.469	86.721	105.469	85.2785	105.469	86.4917	105.469	85.4102	105.469	86.2485	105.469	85.5783	105.469	86.0066	105.469	85.7795
108.398	86.3114	108.398	86.1609	108.398	86.4726	108.398	86.0235	108.398	86.6406	108.398	85.9001	108.398	86.8098	108.398	85.7901	108.398	86.9734	108.398	85.6922	108.398	87.124	108.398	85.6046	108.398	87.2533	108.398	85.5257	108.398	87.3531	108.398	85.4546	108.398	87.4149	108.398	85.3913	108.398	87.4311	108.398	85.3372	108.398	87.3954	108.398	85.2952	108.398	87.3045	108.398	85.2697	108.398	87.1593	108.398	85.2662	108.398	86.966	108.398	85.2909	108.398	86.736	108.398	85.3499	108.398	86.4847	108.398	85.4482	108.398	86.2292	108.398	85.5883	108.398	85.9862	108.398	85.7693
112.793	86.765	112.793	86.6205	112.793	86.9091	112.793	86.4784	112.793	87.0496	112.793	86.3402	112.793	87.1828	112.793	86.2066	112.793	87.3046	112.793	86.0776	112.793	87.4108	112.793	85.9528	112.793	87.4966	112.793	85.8319	112.793	87.5562	112.793	85.7156	112.793	87.5829	112.793	85.6054	112.793	87.5693	112.793	85.504	112.793	87.5085	112.793	85.4161	112.793	87.3957	112.793	85.3474	112.793	87.2302	112.793	85.3053	112.793	87.0168	112.793	85.2974	112.793	86.7663	112.793	85.3316	112.793	86.4941	112.793	85.4139	112.793	86.219	112.793	85.5476	112.793	85.9594	112.793	85.7316
117.188	86.8365	117.188	86.6776	117.188	86.9954	117.188	86.5209	117.188	87.1516	117.188	86.3674	117.188	87.3013	117.188	86.2178	117.188	87.4395	117.188	86.0721	117.188	87.56	117.188	85.9305	117.188	87.6553	117.188	85.7932	117.188	87.7171	117.188	85.6612	117.188	87.7362	117.188	85.5366	117.188	87.7041	117.188	85.4225	117.188	87.6145	117.188	85.3234	117.188	87.4644	117.188	85.2453	117.188	87.2565	117.188	85.1952	117.188	87.0001	117.188	85.1807	117.188	86.7103	117.188	85.2093	117.188	86.4064	117.188	85.2872	117.188	86.1087	117.188	85.4182	117.188	85.836	117.188	85.6026
120.117	87.0361	120.117	86.8861	120.117	87.1877	120.117	86.7385	120.117	87.3381	120.117	86.5935	120.117	87.4837	120.117	86.4498	120.117	87.6191	120.117	86.3059	120.117	87.7376	120.117	86.1601	120.117	87.8311	120.117	86.0114	120.117	87.8898	120.117	85.86	120.117	87.9036	120.117	85.7078	120.117	87.862	120.117	85.5584	120.117	87.7566	120.117	85.4178	120.117	87.5829	120.117	85.294	120.117	87.3429	120.117	85.197	120.117	87.0466	120.117	85.1377	120.117	86.712	120.117	85.1273	120.117	86.3627	120.117	85.176	120.117	86.025	120.117	85.2909	120.117	85.7228	120.117	85.4744
124.512	86.9441	124.512	86.811	124.512	87.087	124.512	86.6885	124.512	87.2375	124.512	86.5761	124.512	87.3923	124.512	86.4719	124.512	87.5468	124.512	86.3733	124.512	87.6949	124.512	86.2773	124.512	87.8289	124.512	86.1811	124.512	87.9389	124.512	86.083	124.512	88.013	124.512	85.9825	124.512	88.0382	124.512	85.8814	124.512	88.002	124.512	85.7837	124.512	87.8953	124.512	85.6957	124.512	87.715	124.512	85.6265	124.512	87.4671	124.512	85.5871	124.512	87.1669	124.512	85.59	124.512	86.8382	124.512	85.6472	124.512	86.5093	124.512	85.768	124.512	86.2079	124.512	85.9563
128.906	86.5431	128.906	86.386	128.906	86.7137	128.906	86.2455	128.906	86.8944	128.906	86.1239	128.906	87.0812	128.906	86.0224	128.906	87.2696	128.906	85.9409	128.906	87.4539	128.906	85.8778	128.906	87.627	128.906	85.831	128.906	87.7796	128.906	85.7977	128.906	87.9008	128.906	85.7752	128.906	87.9783	128.906	85.7619	128.906	88	128.906	85.7575	128.906	87.9563	128.906	85.7634	128.906	87.8424	128.906	85.7838	128.906	87.6614	128.906	85.8248	128.906	87.4249	128.906	85.8944	128.906	87.1522	128.906	86.0014	128.906	86.8671	128.906	86.1529	128.906	86.5937	128.906	86.3516
133.301	86.7194	133.301	86.5501	133.301	86.901	133.301	86.3962	133.301	87.0908	133.301	86.2595	133.301	87.283	133.301	86.1406	133.301	87.4708	133.301	86.039	133.301	87.6466	133.301	85.9534	133.301	87.802	133.301	85.8821	133.301	87.9283	133.301	85.8231	133.301	88.0163	133.301	85.7751	133.301	88.0566	133.301	85.7375	133.301	88.0403	133.301	85.7112	133.301	87.9606	133.301	85.6986	133.301	87.8154	133.301	85.7043	133.301	87.609	133.301	85.7346	133.301	87.3534	133.301	85.7973	133.301	87.0673	133.301	85.9005	133.301	86.7736	133.301	86.0506	133.301	86.495	133.301	86.2501
139.16	86.738	139.16	86.5661	139.16	86.9195	139.16	86.408	139.16	87.1048	139.16	86.2664	139.16	87.2877	139.16	86.1418	139.16	87.4619	139.16	86.0333	139.16	87.6213	139.16	85.9386	139.16	87.7598	139.16	85.8548	139.16	87.8706	139.16	85.7796	139.16	87.9455	139.16	85.7114	139.16	87.975	139.16	85.6502	139.16	87.949	139.16	85.598	139.16	87.8592	139.16	85.5592	139.16	87.7022	139.16	85.5404	139.16	87.4816	139.16	85.5501	139.16	87.2098	139.16	85.598	139.16	86.9066	139.16	85.6932	139.16	86.5963	139.16	85.8425	139.16	86.3032	139.16	86.0475
143.555	86.5504	143.555	86.36	143.555	86.7486	143.555	86.1848	143.555	86.9469	143.555	86.0306	143.555	87.1382	143.555	85.9013	143.555	87.3163	143.555	85.7985	143.555	87.4764	143.555	85.7218	143.555	87.6147	143.555	85.6688	143.555	87.7271	143.555	85.636	143.555	87.8086	143.555	85.6197	143.555	87.8526	143.555	85.6166	143.555	87.8509	143.555	85.625	143.555	87.7957	143.555	85.6448	143.555	87.6822	143.555	85.6788	143.555	87.5114	143.555	85.7322	143.555	87.2914	143.555	85.8119	143.555	87.0376	143.555	85.9257	143.555	86.7701	143.555	86.0797	143.555	86.5102	143.555	86.2761
147.949	86.6332	147.949	86.439	147.949	86.8254	147.949	86.2489	147.949	87.0093	147.949	86.0681	147.949	87.1794	147.949	85.9009	147.949	87.3309	147.949	85.75	147.949	87.4602	147.949	85.6173	147.949	87.5638	147.949	85.5038	147.949	87.6379	147.949	85.4105	147.949	87.6777	147.949	85.3384	147.949	87.6776	147.949	85.289	147.949	87.6314	147.949	85.2638	147.949	87.5347	147.949	85.2647	147.949	87.3863	147.949	85.2939	147.949	87.1901	147.949	85.3538	147.949	86.956	147.949	85.447	147.949	86.6981	147.949	85.5758	147.949	86.4331	147.949	85.7417	147.949	86.1772	147.949	85.9437
153.809	86.6932	153.809	86.4939	153.809	86.8876	153.809	86.2948	153.809	87.0716	153.809	86.1005	153.809	87.2402	153.809	85.9142	153.809	87.3885	153.809	85.7382	153.809	87.512	153.809	85.5739	153.809	87.6058	153.809	85.4223	153.809	87.6648	153.809	85.2847	153.809	87.6824	153.809	85.1629	153.809	87.6517	153.809	85.0602	153.809	87.5659	153.809	84.9806	153.809	87.4207	153.809	84.9291	153.809	87.2163	153.809	84.9112	153.809	86.9599	153.809	84.9323	153.809	86.6652	153.809	84.9976	153.809	86.3511	153.809	85.1108	153.809	86.038	153.809	85.2743	153.809	85.7451	153.809	85.4872
159.668	86.6953	159.668	86.4873	159.668	86.9001	159.668	86.2817	159.668	87.0953	159.668	86.0834	159.668	87.275	159.668	85.8957	159.668	87.4335	159.668	85.7204	159.668	87.5659	159.668	85.5581	159.668	87.667	159.668	85.4088	159.668	87.7316	159.668	85.2723	159.668	87.753	159.668	85.1494	159.668	87.7238	159.668	85.0418	159.668	87.6362	159.668	84.9533	159.668	87.4847	159.668	84.8893	159.668	87.2688	159.668	84.8565	159.668	86.9951	159.668	84.8628	159.668	86.6783	159.668	84.916	159.668	86.3389	159.668	85.0227	159.668	86.0002	159.668	85.1872	159.668	85.6845	159.668	85.4096
165.527	86.708	165.527	86.5236	165.527	86.8937	165.527	86.3468	165.527	87.0739	165.527	86.1828	165.527	87.2424	165.527	86.0347	165.527	87.3941	165.527	85.9031	165.527	87.525	165.527	85.7867	165.527	87.6312	165.527	85.6831	165.527	87.7081	165.527	85.5896	165.527	87.7491	165.527	85.5045	165.527	87.7458	165.527	85.4278	165.527	87.6889	165.527	85.3621	165.527	87.5711	165.527	85.3121	165.527	87.3904	165.527	85.2847	165.527	87.153	165.527	85.2881	165.527	86.8734	165.527	85.3306	165.527	86.5719	165.527	85.4195	165.527	86.2714	165.527	85.5596	165.527	85.9927	165.527	85.7521
171.387	86.5544	171.387	86.3452	171.387	86.7592	171.387	86.1412	171.387	86.9501	171.387	85.9507	171.387	87.1193	171.387	85.7799	171.387	87.2612	171.387	85.6325	171.387	87.3731	171.387	85.5095	171.387	87.4541	171.387	85.4099	171.387	87.504	171.387	85.3315	171.387	87.5209	171.387	85.2721	171.387	87.5006	171.387	85.2298	171.387	87.4364	171.387	85.2043	171.387	87.3225	171.387	85.1965	171.387	87.1567	171.387	85.2088	171.387	86.9439	171.387	85.2449	171.387	86.6963	171.387	85.3092	171.387	86.4316	171.387	85.4064	171.387	86.1691	171.387	85.5408	171.387	85.926	171.387	85.7144
177.246	86.669	177.246	86.4634	177.246	86.8559	177.246	86.2487	177.246	87.0166	177.246	86.0338	177.246	87.1462	177.246	85.8261	177.246	87.2431	177.246	85.6307	177.246	87.3086	177.246	85.4504	177.246	87.3445	177.246	85.2868	177.246	87.351	177.246	85.1405	177.246	87.325	177.246	85.0126	177.246	87.2597	177.246	84.9051	177.246	87.1469	177.246	84.8209	177.246	86.9803	177.246	84.7635	177.246	86.7601	177.246	84.737	177.246	86.4956	177.246	84.7449	177.246	86.2044	177.246	84.7902	177.246	85.9083	177.246	84.8748	177.246	85.6281	177.246	85.0005	177.246	85.3786	177.246	85.1685
183.105	86.2274	183.105	86.0383	183.105	86.3996	183.105	85.8381	183.105	86.5515	183.105	85.6336	183.105	86.6823	183.105	85.4321	183.105	86.7931	183.105	85.24	183.105	86.8854	183.105	85.0622	183.105	86.9597	183.105	84.9021	183.105	87.0133	183.105	84.7621	183.105	87.0393	183.105	84.6437	183.105	87.0266	183.105	84.5479	183.105	86.9615	183.105	84.4759	183.105	86.8324	183.105	84.4291	183.105	86.6343	183.105	84.4098	183.105	86.3724	183.105	84.4212	183.105	86.0636	183.105	84.4677	183.105	85.7336	183.105	84.5551	183.105	85.4108	183.105	84.6899	183.105	85.1201	183.105	84.8777
188.965	85.9162	188.965	85.7186	188.965	86.1048	188.965	85.5176	188.965	86.2781	188.965	85.3177	188.965	86.4307	188.965	85.1218	188.965	86.5582	188.965	84.9317	188.965	86.659	188.965	84.7483	188.965	86.7332	188.965	84.5729	188.965	86.7822	188.965	84.4082	188.965	86.8059	188.965	84.2589	188.965	86.8004	188.965	84.1322	188.965	86.7571	188.965	84.0366	188.965	86.6651	188.965	83.9814	188.965	86.5153	188.965	83.9745	188.965	86.3045	188.965	84.0218	188.965	86.0384	188.965	84.1263	188.965	85.7311	188.965	84.2883	188.965	85.4028	188.965	84.5054	188.965	85.076	188.965	84.7715
196.289	86.1911	196.289	85.9527	196.289	86.407	196.289	85.7032	196.289	86.59	196.289	85.4542	196.289	86.7333	196.289	85.2149	196.289	86.8336	196.289	84.9921	196.289	86.8911	196.289	84.7894	196.289	86.9074	196.289	84.6082	196.289	86.8831	196.289	84.4486	196.289	86.8161	196.289	84.3105	196.289	86.7019	196.289	84.1947	196.289	86.5361	196.289	84.1036	196.289	86.3189	196.289	84.0411	196.289	86.0582	196.289	84.012	196.289	85.7698	196.289	84.0208	196.289	85.4728	196.289	84.0707	196.289	85.1845	196.289	84.1629	196.289	84.9168	196.289	84.2965	196.289	84.6768	196.289	84.4689
203.613	85.9719	203.613	85.7312	203.613	86.186	203.613	85.476	203.613	86.3647	203.613	85.2191	203.613	86.5033	203.613	84.9724	203.613	86.6017	203.613	84.7452	203.613	86.6633	203.613	84.5437	203.613	86.6924	203.613	84.3713	203.613	86.6916	203.613	84.229	203.613	86.6592	203.613	84.1163	203.613	86.5882	203.613	84.0323	203.613	86.468	203.613	83.976	203.613	86.2902	203.613	83.9465	203.613	86.0538	203.613	83.944	203.613	85.7699	203.613	83.9694	203.613	85.4599	203.613	84.0246	203.613	85.1495	203.613	84.1125	203.613	84.8613	203.613	84.237	203.613	84.61	203.613	84.4018
210.938	85.9575	210.938	85.6985	210.938	86.1801	210.938	85.4151	210.938	86.3561	210.938	85.1195	210.938	86.4795	210.938	84.8228	210.938	86.5502	210.938	84.534	210.938	86.5743	210.938	84.2604	210.938	86.5611	210.938	84.0076	210.938	86.5186	210.938	83.7803	210.938	86.4477	210.938	83.583	210.938	86.3403	210.938	83.4197	210.938	86.1812	210.938	83.2942	210.938	85.9562	210.938	83.21	210.938	85.6609	210.938	83.1692	210.938	85.3066	210.938	83.1731	210.938	84.9203	210.938	83.2216	210.938	84.5363	210.938	83.3149	210.938	84.1851	210.938	83.454	210.938	83.8854	210.938	83.6426
218.262	85.485	218.262	85.2773	218.262	85.6675	218.262	85.0533	218.262	85.82	218.262	84.8232	218.262	85.9428	218.262	84.5963	218.262	86.0408	218.262	84.3797	218.262	86.1203	218.262	84.1785	218.262	86.185	218.262	83.9963	218.262	86.2338	218.262	83.8362	218.262	86.2594	218.262	83.7014	218.262	86.2502	218.262	83.5952	218.262	86.1931	218.262	83.5207	218.262	86.0778	218.262	83.4809	218.262	85.9004	218.262	83.4789	218.262	85.6651	218.262	83.5182	218.262	85.3833	218.262	83.6027	218.262	85.0717	218.262	83.7366	218.262	84.7501	218.262	83.9224	218.262	84.4396	218.262	84.1591
225.586	85.2792	225.586	85.0115	225.586	85.5344	225.586	84.7457	225.586	85.7641	225.586	84.4956	225.586	85.9576	225.586	84.2726	225.586	86.1074	225.586	84.0835	225.586	86.2099	225.586	83.9305	225.586	86.2651	225.586	83.8121	225.586	86.2751	225.586	83.7245	225.586	86.2408	225.586	83.6637	225.586	86.1593	225.586	83.6264	225.586	86.0244	225.586	83.611	225.586	85.832	225.586	83.617	225.586	85.5873	225.586	83.6451	225.586	85.3078	225.586	83.6961	225.586	85.0197	225.586	83.7704	225.586	84.748	225.586	83.8678	225.586	84.5083	225.586	83.9883	225.586	84.3044	225.586	84.1328
232.91	85.4607	232.91	85.2212	232.91	85.6687	232.91	84.9661	232.91	85.8301	232.91	84.7083	232.91	85.9353	232.91	84.4558	232.91	85.9834	232.91	84.2112	232.91	85.982	232.91	83.974	232.91	85.9446	232.91	83.7443	232.91	85.883	232.91	83.5256	232.91	85.7999	232.91	83.3267	232.91	85.6866	232.91	83.1604	232.91	85.5262	232.91	83.04	232.91	85.305	232.91	82.9747	232.91	85.0236	232.91	82.9659	232.91	84.7023	232.91	83.0076	232.91	84.3758	232.91	83.0883	232.91	84.0786	232.91	83.1959	232.91	83.8296	232.91	83.3216	232.91	83.6286	232.91	83.4636
241.699	84.643	241.699	84.4167	241.699	84.8554	241.699	84.193	241.699	85.0406	241.699	83.9862	241.699	85.1921	241.699	83.8042	241.699	85.312	241.699	83.6467	241.699	85.4085	241.699	83.5061	241.699	85.4906	241.699	83.3718	241.699	85.5601	241.699	83.2342	241.699	85.6047	241.699	83.0882	241.699	85.597	241.699	82.9347	241.699	85.5018	241.699	82.7799	241.699	85.2886	241.699	82.634	241.699	84.946	241.699	82.5084	241.699	84.4917	241.699	82.4129	241.699	83.9746	241.699	82.3552	241.699	83.4641	241.699	82.3418	241.699	83.027	241.699	82.3824	241.699	82.7026	241.699	82.4945
250.488	82.0477	250.488	81.696	250.488	82.4267	250.488	81.4216	250.488	82.7936	250.488	81.2684	250.488	83.1299	250.488	81.2574	250.488	83.441	250.488	81.3788	250.488	83.7506	250.488	81.5991	250.488	84.0882	250.488	81.8744	250.488	84.4701	250.488	82.1626	250.488	84.8832	250.488	82.4294	250.488	85.2836	250.488	82.6505	250.488	85.6106	250.488	82.8121	250.488	85.8066	250.488	82.9116	250.488	85.8322	250.488	82.9579	250.488	85.6736	250.488	82.9724	250.488	85.3457	250.488	82.9891	250.488	84.892	250.488	83.0515	250.488	84.3796	250.488	83.2054	250.488	83.8871	250.488	83.4832
259.277	84.8542	259.277	84.3302	259.277	85.2101	259.277	83.67	259.277	85.3826	259.277	82.9295	259.277	85.3714	259.277	82.1959	259.277	85.1926	259.277	81.588	259.277	84.8865	259.277	81.2295	259.277	84.5292	259.277	81.1949	259.277	84.2407	259.277	81.4686	259.277	84.1605	259.277	81.9655	259.277	84.3746	259.277	82.5863	259.277	84.8506	259.277	83.2545	259.277	85.4626	259.277	83.922	259.277	86.0741	259.277	84.5617	259.277	86.5884	259.277	85.1577	259.277	86.9553	259.277	85.6987	259.277	87.1585	259.277	86.1753	259.277	87.2038	259.277	86.5774	259.277	87.1086	259.277	86.8935
268.066	86.56	268.066	86.1542	268.066	86.8343	268.066	85.63	268.066	86.9679	268.066	85.0071	268.066	86.9547	268.066	84.3175	268.066	86.7928	268.066	83.609	268.066	86.4897	268.066	82.9466	268.066	86.0691	268.066	82.4042	268.066	85.5782	268.066	82.0467	268.066	85.0916	268.066	81.9092	268.066	84.7001	268.066	81.9881	268.066	84.4805	268.066	82.2496	268.066	84.4571	268.066	82.6452	268.066	84.5909	268.066	83.1225	268.066	84.8052	268.066	83.6298	268.066	85.0232	268.066	84.1189	268.066	85.1891	268.066	84.5489	268.066	85.2709	268.066	84.8903	268.066	85.2525	268.066	85.1265
276.855	86.1276	276.855	85.7529	276.855	86.3954	276.855	85.2869	276.855	86.5439	276.855	84.7485	276.855	86.566	276.855	84.16	276.855	86.4616	276.855	83.5495	276.855	86.2387	276.855	82.9542	276.855	85.9135	276.855	82.4214	276.855	85.5108	276.855	82.0053	276.855	85.0658	276.855	81.7542	276.855	84.6268	276.855	81.6923	276.855	84.2543	276.855	81.8084	276.855	84.009	276.855	82.0619	276.855	83.9244	276.855	82.4014	276.855	83.9811	276.855	82.7802	276.855	84.1105	276.855	83.162	276.855	84.2296	276.855	83.519	276.855	84.2765	276.855	83.8284	276.855	84.2233	276.855	84.0694
287.109	85.9699	287.109	85.6226	287.109	86.2116	287.109	85.1874	287.109	86.3378	287.109	84.689	287.109	86.3464	287.109	84.157	287.109	86.2439	287.109	83.6231	287.109	86.0444	287.109	83.1169	287.109	85.7686	287.109	82.6628	287.109	85.4419	287.109	82.2806	287.109	85.0916	287.109	81.9878	287.109	84.7422	287.109	81.8033	287.109	84.4129	287.109	81.7447	287.109	84.1202	287.109	81.8193	287.109	83.8843	287.109	82.0159	287.109	83.7265	287.109	82.3018	287.109	83.652	287.109	82.6313	287.109	83.6349	287.109	82.9568	287.109	83.6256	287.109	83.2382	287.109	83.5738	287.109	83.4476
297.363	85.6876	297.363	85.3361	297.363	85.9408	297.363	84.9018	297.363	86.085	297.363	84.4049	297.363	86.1148	297.363	83.8714	297.363	86.0306	297.363	83.3335	297.363	85.8413	297.363	82.8284	297.363	85.5659	297.363	82.3941	297.363	85.2333	297.363	82.06	297.363	84.8763	297.363	81.8395	297.363	84.523	297.363	81.7278	297.363	84.1906	297.363	81.7097	297.363	83.8907	297.363	81.7706	297.363	83.6413	297.363	81.9022	297.363	83.4659	297.363	82.0988	297.363	83.3736	297.363	82.3475	297.363	83.3395	297.363	82.6216	297.363	83.3123	297.363	82.8842	297.363	83.2414	297.363	83.0986
307.617	85.9077	307.617	85.5309	307.617	86.1707	307.617	85.0605	307.617	86.3061	307.617	84.5212	307.617	86.3076	307.617	83.9407	307.617	86.1787	307.617	83.3482	307.617	85.9333	307.617	82.7727	307.617	85.5959	307.617	82.2438	307.617	85.2006	307.617	81.7924	307.617	84.788	307.617	81.4512	307.617	84.396	307.617	81.2506	307.617	84.0468	307.617	81.2091	307.617	83.7423	307.617	81.3234	307.617	83.4771	307.617	81.565	307.617	83.2595	307.617	81.8874	307.617	83.1131	307.617	82.2368	307.617	83.0514	307.617	82.5611	307.617	83.0484	307.617	82.8172	307.617	83.0442	307.617	82.9783
319.336	85.5325	319.336	85.1458	319.336	85.8033	319.336	84.6643	319.336	85.9464	319.336	84.1173	319.336	85.9591	319.336	83.5415	319.336	85.8469	319.336	82.9772	319.336	85.622	319.336	82.4637	319.336	85.3038	319.336	82.033	319.336	84.9202	319.336	81.7053	319.336	84.5108	319.336	81.4879	319.336	84.1219	319.336	81.3796	319.336	83.7917	319.336	81.3751	319.336	83.5337	319.336	81.4676	319.336	83.334	319.336	81.6453	319.336	83.17	319.336	81.8863	319.336	83.0322	319.336	82.156	319.336	82.9288	319.336	82.4118	319.336	82.8644	319.336	82.6154	319.336	82.818	319.336	82.7473
329.59	85.6942	329.59	85.3599	329.59	85.902	329.59	84.9062	329.59	85.9815	329.59	84.3464	329.59	85.9349	329.59	83.7024	329.59	85.7682	329.59	83.0091	329.59	85.4903	329.59	82.3172	329.59	85.1131	329.59	81.6918	329.59	84.6541	329.59	81.2015	329.59	84.1399	329.59	80.8966	329.59	83.6087	329.59	80.7891	329.59	83.1093	329.59	80.852	329.59	82.6963	329.59	81.0378	329.59	82.4178	329.59	81.2989	329.59	82.2916	329.59	81.5955	329.59	82.2907	329.59	81.8924	329.59	82.3587	329.59	82.1547	329.59	82.4378	329.59	82.3506	329.59	82.4828	329.59	82.4601
341.309	85.3084	341.309	85.0062	341.309	85.5093	341.309	84.6067	341.309	85.606	341.309	84.1168	341.309	85.5955	341.309	83.5497	341.309	85.475	341.309	82.9281	341.309	85.2451	341.309	82.2884	341.309	84.9147	341.309	81.6817	341.309	84.5061	341.309	81.1685	341.309	84.0543	341.309	80.8045	341.309	83.6008	341.309	80.6215	341.309	83.1836	341.309	80.617	341.309	82.8275	341.309	80.7593	341.309	82.5419	341.309	81.0026	341.309	82.3288	341.309	81.2986	341.309	82.1921	341.309	81.6001	341.309	82.1345	341.309	81.8632	341.309	82.1399	341.309	82.0517	341.309	82.1634	341.309	82.148
353.027	85.1906	353.027	84.771	353.027	85.4849	353.027	84.2489	353.027	85.6361	353.027	83.6484	353.027	85.6338	353.027	82.9931	353.027	85.4784	353.027	82.3074	353.027	85.1817	353.027	81.6202	353.027	84.7659	353.027	80.9723	353.027	84.2623	353.027	80.4179	353.027	83.7096	353.027	80.017	353.027	83.1549	353.027	79.8134	353.027	82.6514	353.027	79.8134	353.027	82.2485	353.027	79.9843	353.027	81.9708	353.027	80.2723	353.027	81.8012	353.027	80.6208	353.027	81.6998	353.027	80.975	353.027	81.6423	353.027	81.2823	353.027	81.6255	353.027	81.4988	353.027	81.6309	353.027	81.6072
366.211	84.8683	366.211	84.4507	366.211	85.1634	366.211	83.933	366.211	85.3245	366.211	83.3472	366.211	85.3494	366.211	82.7303	366.211	85.2437	366.211	82.1163	366.211	85.0206	366.211	81.53	366.211	84.7016	366.211	80.9874	366.211	84.3156	366.211	80.5037	366.211	83.8914	366.211	80.1032	366.211	83.4436	366.211	79.8186	366.211	82.9661	366.211	79.6774	366.211	82.4484	366.211	79.6846	366.211	81.9107	366.211	79.8174	366.211	81.424	366.211	80.0347	366.211	81.0778	366.211	80.2889	366.211	80.9096	366.211	80.5327	366.211	80.8719	366.211	80.7246	366.211	80.874	366.211	80.8381
379.395	85.4543	379.395	85.0556	379.395	85.7147	379.395	84.5346	379.395	85.8267	379.395	83.9127	379.395	85.7874	379.395	83.2178	379.395	85.6023	379.395	82.487	379.395	85.2847	379.395	81.7678	379.395	84.8538	379.395	81.1133	379.395	84.3326	379.395	80.5694	379.395	83.7476	379.395	80.1594	379.395	83.1339	379.395	79.8824	379.395	82.545	379.395	79.7269	379.395	82.0576	379.395	79.6877	379.395	81.7427	379.395	79.7667	379.395	81.6031	379.395	79.9554	379.395	81.5548	379.395	80.2206	379.395	81.4969	379.395	80.5113	379.395	81.3821	379.395	80.783	379.395	81.2169	379.395	81.0173
392.578	85.4115	392.578	84.9762	392.578	85.734	392.578	84.439	392.578	85.9324	392.578	83.8093	392.578	85.9942	392.578	83.0947	392.578	85.9095	392.578	82.3042	392.578	85.6788	392.578	81.4594	392.578	85.3197	392.578	80.6128	392.578	84.8661	392.578	79.8608	392.578	84.3547	392.578	79.3252	392.578	83.8046	392.578	79.0874	392.578	83.2123	392.578	79.1291	392.578	82.579	392.578	79.3566	392.578	81.9639	392.578	79.6782	392.578	81.5023	392.578	80.0454	392.578	81.3156	392.578	80.4403	392.578	81.3741	392.578	80.8407	392.578	81.5108	392.578	81.2008	392.578	81.564	392.578	81.4589
405.762	86.262	405.762	85.74	405.762	86.6409	405.762	85.1056	405.762	86.8473	405.762	84.3874	405.762	86.8594	405.762	83.6078	405.762	86.6725	405.762	82.7803	405.762	86.3085	405.762	81.9125	405.762	85.8162	405.762	81.0213	405.762	85.2612	405.762	80.1577	405.762	84.7066	405.762	79.4263	405.762	84.1972	405.762	78.9652	405.762	83.7499	405.762	78.869	405.762	83.3564	405.762	79.12	405.762	83	405.762	79.6131	405.762	82.6864	405.762	80.2315	405.762	82.4604	405.762	80.8813	405.762	82.3691	405.762	81.4842	405.762	82.3854	405.762	81.9675	405.762	82.3947	405.762	82.2751
420.41	86.8795	420.41	86.6212	420.41	86.9626	420.41	86.207	420.41	86.8565	420.41	85.6579	420.41	86.5579	420.41	84.9966	420.41	86.0798	420.41	84.249	420.41	85.4538	420.41	83.4481	420.41	84.7265	420.41	82.6375	420.41	83.9521	420.41	81.8731	420.41	83.1846	420.41	81.218	420.41	82.4745	420.41	80.7327	420.41	81.873	420.41	80.4631	420.41	81.4339	420.41	80.4336	420.41	81.1811	420.41	80.6392	420.41	81.0748	420.41	81.0313	420.41	81.0665	420.41	81.5078	420.41	81.185	420.41	81.9302	420.41	81.4769	420.41	82.1652	420.41	81.857	420.41	82.1338
435.059	85.9138	435.059	85.6606	435.059	86.0183	435.059	85.2774	435.059	85.9538	435.059	84.7799	435.059	85.7048	435.059	84.1792	435.059	85.2735	435.059	83.4835	435.059	84.6952	435.059	82.7079	435.059	84.0432	435.059	81.8944	435.059	83.4075	435.059	81.1341	435.059	82.8557	435.059	80.5595	435.059	82.3979	435.059	80.2734	435.059	81.9863	435.059	80.2652	435.059	81.5637	435.059	80.4248	435.059	81.1303	435.059	80.6378	435.059	80.764	435.059	80.8416	435.059	80.56	435.059	81.0142	435.059	80.5506	435.059	81.1357	435.059	80.6938	435.059	81.1702	435.059	80.9056	435.059	81.0883
451.172	86.3654	451.172	86.0442	451.172	86.5337	451.172	85.5941	451.172	86.5284	451.172	85.0361	451.172	86.3352	451.172	84.3772	451.172	85.9525	451.172	83.6015	451.172	85.4015	451.172	82.677	451.172	84.7284	451.172	81.5893	451.172	83.9933	451.172	80.4015	451.172	83.2523	451.172	79.3247	451.172	82.547	451.172	78.7011	451.172	81.9074	451.172	78.7516	451.172	81.3779	451.172	79.335	451.172	81.0368	451.172	80.1319	451.172	80.9576	451.172	80.9119	451.172	81.1392	451.172	81.5678	451.172	81.4975	451.172	82.0527	451.172	81.9065	451.172	82.3361	451.172	82.2383	451.172	82.397
465.82	86.5457	465.82	86.262	465.82	86.6423	465.82	85.8124	465.82	86.5339	465.82	85.2255	465.82	86.2111	465.82	84.5392	465.82	85.6927	465.82	83.7916	465.82	85.0366	465.82	83.0035	465.82	84.3211	465.82	82.1704	465.82	83.6053	465.82	81.2789	465.82	82.9197	465.82	80.3465	465.82	82.2871	465.82	79.4732	465.82	81.7288	465.82	78.8582	465.82	81.2559	465.82	78.6889	465.82	80.8531	465.82	78.9521	465.82	80.4552	465.82	79.4388	465.82	79.9932	465.82	79.9196	465.82	79.547	465.82	80.2323	465.82	79.3837	465.82	80.2767	465.82	79.6287	465.82	80.0317
483.398	86.6284	483.398	86.4083	483.398	86.6602	483.398	86.012	483.398	86.4946	483.398	85.4508	483.398	86.1415	483.398	84.7379	483.398	85.6454	483.398	83.8926	483.398	85.0761	483.398	82.9412	483.398	84.4885	483.398	81.918	483.398	83.891	483.398	80.8723	483.398	83.2609	483.398	79.883	483.398	82.5754	483.398	79.0744	483.398	81.8368	483.398	78.6004	483.398	81.1276	483.398	78.5722	483.398	80.658	483.398	78.9704	483.398	80.6175	483.398	79.6455	483.398	80.9116	483.398	80.4001	483.398	81.2724	483.398	81.0604	483.398	81.5469	483.398	81.5121	483.398	81.706	483.398	81.7159
499.512	85.952	499.512	85.6947	499.512	86.0492	499.512	85.2984	499.512	85.9724	499.512	84.7892	499.512	85.7206	499.512	84.1937	499.512	85.3121	499.512	83.5298	499.512	84.781	499.512	82.8008	499.512	84.1646	499.512	82.0029	499.512	83.5053	499.512	81.1491	499.512	82.8629	499.512	80.3007	499.512	82.29	499.512	79.5801	499.512	81.7751	499.512	79.1289	499.512	81.2547	499.512	79.0205	499.512	80.7285	499.512	79.225	499.512	80.3539	499.512	79.6569	499.512	80.3271	499.512	80.2134	499.512	80.6244	499.512	80.7719	499.512	81.0249	499.512	81.2002	499.512	81.3226	499.512	81.3956
517.09	86.7174	517.09	86.4212	517.09	86.824	517.09	85.9593	517.09	86.7231	517.09	85.3491	517.09	86.4201	517.09	84.6013	517.09	85.9495	517.09	83.7248	517.09	85.3585	517.09	82.7296	517.09	84.6852	517.09	81.6298	517.09	83.9538	517.09	80.459	517.09	83.1812	517.09	79.3162	517.09	82.3836	517.09	78.4268	517.09	81.6022	517.09	78.0816	517.09	80.9328	517.09	78.3644	517.09	80.467	517.09	79.0599	517.09	80.2024	517.09	79.9118	517.09	80.1558	517.09	80.7621	517.09	80.4669	517.09	81.4928	517.09	81.1116	517.09	81.9728	517.09	81.7548	517.09	82.0778
536.133	85.6957	536.133	85.374	536.133	85.7693	536.133	84.85	536.133	85.5801	536.133	84.195	536.133	85.1502	536.133	83.4966	536.133	84.5318	536.133	82.835	536.133	83.7913	536.133	82.2422	536.133	83.0058	536.133	81.67	536.133	82.2839	536.133	81.0066	536.133	81.7633	536.133	80.1632	536.133	81.5374	536.133	79.2054	536.133	81.536	536.133	78.4432	536.133	81.5159	536.133	78.2511	536.133	81.2322	536.133	78.6517	536.133	80.6215	536.133	79.3306	536.133	79.8817	536.133	79.9919	536.133	79.4114	536.133	80.4641	536.133	79.4994	536.133	80.6404	536.133	79.988	536.133	80.4614
555.176	86.7804	555.176	86.4685	555.176	86.7941	555.176	85.8983	555.176	86.499	555.176	85.1344	555.176	85.9241	555.176	84.2595	555.176	85.1422	555.176	83.353	555.176	84.2488	555.176	82.4551	555.176	83.315	555.176	81.5427	555.176	82.37	555.176	80.5551	555.176	81.4502	555.176	79.4705	555.176	80.6769	555.176	78.4069	555.176	80.2544	555.176	77.6662	555.176	80.2189	555.176	77.5667	555.176	80.2391	555.176	78.1262	555.176	79.9832	555.176	79.0648	555.176	79.5932	555.176	80.0668	555.176	79.6171	555.176	80.8863	555.176	80.2075	555.176	81.346	555.176	80.9175	555.176	81.3515
574.219	86.8756	574.219	86.5695	574.219	86.8898	574.219	85.9719	574.219	86.6414	574.219	85.1288	574.219	86.1922	574.219	84.1527	574.219	85.6326	574.219	83.2083	574.219	85.02	574.219	82.4253	574.219	84.3066	574.219	81.7812	574.219	83.3903	574.219	81.1014	574.219	82.2552	574.219	80.2062	574.219	81.0685	574.219	79.0815	574.219	80.2085	574.219	78.0171	574.219	80.0373	574.219	77.5777	574.219	80.3628	574.219	78.0591	574.219	80.6064	574.219	79.0786	574.219	80.5287	574.219	80.1095	574.219	80.3991	574.219	80.874	574.219	80.5718	574.219	81.2727	574.219	80.9779	574.219	81.2855
594.727	86.8513	594.727	86.6534	594.727	86.8076	594.727	86.215	594.727	86.514	594.727	85.5189	594.727	85.9897	594.727	84.5481	594.727	85.3165	594.727	83.3412	594.727	84.5996	594.727	82.0586	594.727	83.8399	594.727	80.9619	594.727	82.9293	594.727	80.2089	594.727	81.8476	594.727	79.687	594.727	80.8256	594.727	79.1941	594.727	80.2383	594.727	78.7471	594.727	80.1338	594.727	78.6479	594.727	80.119	594.727	79.1251	594.727	79.9872	594.727	79.9865	594.727	79.9379	594.727	80.8567	594.727	80.1137	594.727	81.4658	594.727	80.4658	594.727	81.672	594.727	80.9646	594.727	81.4555
615.234	87.0023	615.234	86.7833	615.234	87.0004	615.234	86.3677	615.234	86.7678	615.234	85.7745	615.234	86.3221	615.234	85.0115	615.234	85.709	615.234	84.1075	615.234	84.9617	615.234	83.1634	615.234	84.041	615.234	82.3445	615.234	82.868	615.234	81.7522	615.234	81.4844	615.234	81.242	615.234	80.2538	615.234	80.4744	615.234	79.763	615.234	79.268	615.234	79.9953	615.234	78.0197	615.234	80.2346	615.234	77.8184	615.234	79.9843	615.234	78.979	615.234	79.2896	615.234	80.4573	615.234	78.8733	615.234	81.5173	615.234	79.5541	615.234	81.9477	615.234	80.7969	615.234	81.699
637.207	87.1223	637.207	86.8072	637.207	87.2048	637.207	86.2955	637.207	87.0249	637.207	85.62	637.207	86.6161	637.207	84.8186	637.207	86.1057	637.207	83.9269	637.207	85.5687	637.207	82.9691	637.207	84.864	637.207	81.985	637.207	83.7946	637.207	81.0762	637.207	82.364	637.207	80.3163	637.207	80.8253	637.207	79.5647	637.207	79.5775	637.207	78.6333	637.207	78.9516	637.207	77.7166	637.207	78.9987	637.207	77.5562	637.207	79.4874	637.207	78.5894	637.207	79.9834	637.207	80.0611	637.207	80.2164	637.207	81.146	637.207	80.402	637.207	81.5732	637.207	80.8553	637.207	81.3897
659.18	86.9054	659.18	86.5571	659.18	86.8511	659.18	85.8079	659.18	86.4935	659.18	84.7555	659.18	86.0229	659.18	83.6069	659.18	85.5643	659.18	82.6037	659.18	85.0244	659.18	81.8031	659.18	84.2539	659.18	81.0032	659.18	83.2531	659.18	80.0436	659.18	82.1169	659.18	79.1646	659.18	80.8995	659.18	78.8069	659.18	79.656	659.18	78.8478	659.18	78.6836	659.18	78.8146	659.18	78.4031	659.18	78.7855	659.18	78.5368	659.18	79.4126	659.18	78.5416	659.18	80.7104	659.18	78.7711	659.18	81.8898	659.18	79.8303	659.18	82.4251	659.18	81.2145	659.18	82.1803
682.617	87.0085	682.617	86.8938	682.617	86.8253	682.617	86.4347	682.617	86.4234	682.617	85.6563	682.617	85.8859	682.617	84.6708	682.617	85.2918	682.617	83.6459	682.617	84.6716	682.617	82.6891	682.617	83.9581	682.617	81.7191	682.617	83.0668	682.617	80.5333	682.617	82.046	682.617	79.116	682.617	81.0362	682.617	77.9314	682.617	80.0467	682.617	77.5199	682.617	79.1526	682.617	77.7117	682.617	78.9095	682.617	78.2203	682.617	79.0758	682.617	79.2281	682.617	78.5455	682.617	80.6277	682.617	77.7124	682.617	81.7448	682.617	78.446	682.617	82.0979	682.617	80.2093	682.617	81.5633
707.52	87.2099	707.52	87.2398	707.52	86.8879	707.52	86.9003	707.52	86.4826	707.52	86.1794	707.52	86.178	707.52	85.0736	707.52	85.8831	707.52	83.6599	707.52	85.3936	707.52	82.2366	707.52	84.6513	707.52	81.2443	707.52	83.683	707.52	80.7405	707.52	82.4586	707.52	80.1989	707.52	80.9372	707.52	79.2075	707.52	79.5759	707.52	78.0456	707.52	79.3662	707.52	77.2787	707.52	79.5345	707.52	76.8775	707.52	79.2768	707.52	77.0083	707.52	79.3157	707.52	78.2228	707.52	79.6483	707.52	79.8192	707.52	79.998	707.52	80.8408	707.52	80.5734	707.52	81.0287
732.422	86.8497	732.422	86.7548	732.422	86.8594	732.422	86.4656	732.422	86.6586	732.422	85.8067	732.422	86.1094	732.422	84.7824	732.422	85.3757	732.422	83.6166	732.422	84.7198	732.422	82.5513	732.422	83.9881	732.422	81.6672	732.422	82.9236	732.422	81.0366	732.422	81.7337	732.422	80.6693	732.422	80.8808	732.422	80.2176	732.422	80.2123	732.422	79.4434	732.422	79.0881	732.422	78.6319	732.422	78.3187	732.422	78.2489	732.422	78.9654	732.422	78.2721	732.422	79.0758	732.422	78.4605	732.422	77.9424	732.422	78.841	732.422	77.0231	732.422	79.1165	732.422	77.6396	732.422	78.7152
757.324	86.8118	757.324	86.6979	757.324	86.8191	757.324	86.4423	757.324	86.6437	757.324	85.9265	757.324	86.2166	757.324	85.0902	757.324	85.5172	757.324	83.9861	757.324	84.5572	757.324	82.7717	757.324	83.4617	757.324	81.7109	757.324	82.4655	757.324	80.9419	757.324	81.615	757.324	80.2898	757.324	80.6192	757.324	79.6407	757.324	79.3598	757.324	79.1235	757.324	78.6727	757.324	78.8905	757.324	79.0605	757.324	79.0859	757.324	79.4033	757.324	79.794	757.324	79.2484	757.324	80.6992	757.324	78.4904	757.324	81.266	757.324	77.3421	757.324	81.0826	757.324	77.9487	757.324	79.8822
785.156	87.9386	785.156	86.7549	785.156	88.3214	785.156	85.6298	785.156	87.51	785.156	85.435	785.156	85.7457	785.156	85.7902	785.156	84.6947	785.156	85.8092	785.156	85.1322	785.156	85.1146	785.156	85.3901	785.156	83.7821	785.156	84.783	785.156	82.0317	785.156	83.2676	785.156	79.9384	785.156	81.4086	785.156	78.1349	785.156	80.4423	785.156	77.6702	785.156	79.0748	785.156	77.6543	785.156	76.1165	785.156	77.259	785.156	76.8927	785.156	77.3427	785.156	77.7175	785.156	78.3404	785.156	77.3233	785.156	79.269	785.156	78.3928	785.156	79.3924	785.156	78.6773	785.156	78.8322
811.523	86.8098	811.523	88.1202	811.523	85.7791	811.523	88.3059	811.523	86.7849	811.523	87.2523	811.523	87.8989	811.523	85.1852	811.523	87.4618	811.523	82.6111	811.523	85.2126	811.523	80.3484	811.523	81.7807	811.523	79.4797	811.523	79.4697	811.523	79.967	811.523	79.1938	811.523	79.6345	811.523	78.8793	811.523	77.4609	811.523	76.8597	811.523	74.7762	811.523	73.5291	811.523	74.6295	811.523	73.9913	811.523	76.6182	811.523	75.8939	811.523	78.7631	811.523	78.5682	811.523	80.7716	811.523	79.962	811.523	81.5838	811.523	79.1221	811.523	80.3538	811.523	77.1059	811.523	77.6226
840.82	86.5494	840.82	86.9724	840.82	87.2486	840.82	87.8633	840.82	87.8053	840.82	88.0024	840.82	87.1911	840.82	86.8693	840.82	85.3845	840.82	84.323	840.82	83.6988	840.82	80.6963	840.82	84.0699	840.82	77.872	840.82	85.0831	840.82	78.2677	840.82	85.1015	840.82	80.1438	840.82	84.0008	840.82	80.9341	840.82	81.6395	840.82	79.929	840.82	75.3416	840.82	77.1746	840.82	69.2136	840.82	72.5207	840.82	80.4858	840.82	67.5764	840.82	82.7857	840.82	71.665	840.82	81.0538	840.82	78.2365	840.82	74.2104	840.82	81.7305	840.82	77.331	840.82	81.7961
870.117	88.4188	870.117	88.1031	870.117	87.5541	870.117	87.1634	870.117	85.9268	870.117	86.6834	870.117	84.9851	870.117	86.5521	870.117	85.2963	870.117	85.6266	870.117	85.8028	870.117	83.3934	870.117	86.0113	870.117	80.1641	870.117	85.9646	870.117	76.711	870.117	85.6792	870.117	74.4477	870.117	85.1026	870.117	75.9012	870.117	84.0689	870.117	78.0097	870.117	81.5131	870.117	78.2864	870.117	75.9678	870.117	77.2397	870.117	76.437	870.117	76.7569	870.117	79.7938	870.117	78.0215	870.117	79.9773	870.117	79.7223	870.117	77.3786	870.117	80.2612	870.117	75.8784	870.117	78.8736
900.879	86.3105	900.879	87.808	900.879	87.1454	900.879	88.9812	900.879	88.1256	900.879	88.4713	900.879	87.2123	900.879	86.2874	900.879	85.0025	900.879	82.739	900.879	84.16	900.879	78.3341	900.879	84.9517	900.879	74.2909	900.879	85.5997	900.879	75.5698	900.879	85.8921	900.879	77.6552	900.879	85.6977	900.879	77.2805	900.879	84.3788	900.879	76.2593	900.879	81.2169	900.879	75.7478	900.879	75.559	900.879	75.3957	900.879	76.2255	900.879	76.0433	900.879	81.0614	900.879	77.4483	900.879	81.7724	900.879	80.034	900.879	79.4632	900.879	80.5731	900.879	76.5133	900.879	78.2689
933.105	86.7823	933.105	86.5401	933.105	87.911	933.105	87.7248	933.105	87.7243	933.105	88.414	933.105	85.525	933.105	87.5943	933.105	83.8197	933.105	84.7128	933.105	85.4788	933.105	78.6415	933.105	86.7656	933.105	64.9962	933.105	87.0307	933.105	74.403	933.105	86.7033	933.105	78.2235	933.105	86.2815	933.105	78.5945	933.105	86.1059	933.105	76.8976	933.105	84.6823	933.105	74.6725	933.105	80.0005	933.105	73.9645	933.105	73.3384	933.105	76.2617	933.105	78.3816	933.105	78.1071	933.105	81.4465	933.105	79.3271	933.105	79.9526	933.105	79.5924	933.105	75.9471	933.105	77.6147
965.332	88.1689	965.332	87.3098	965.332	87.7339	965.332	86.6657	965.332	86.0067	965.332	87.2927	965.332	85.4636	965.332	87.4733	965.332	87.0867	965.332	85.9426	965.332	88.0749	965.332	82.3456	965.332	87.8439	965.332	75.6767	965.332	86.8986	965.332	62.5182	965.332	85.9681	965.332	74.3435	965.332	85.8133	965.332	76.7354	965.332	85.9419	965.332	75.5567	965.332	84.6323	965.332	72.603	965.332	81.5378	965.332	72.6582	965.332	76.0945	965.332	76.9811	965.332	77.469	965.332	78.5703	965.332	82.3142	965.332	78.8377	965.332	81.3527	965.332	78.2887	965.332	77.0457	965.332	76.529
1,000.49	86.7203	1,000.49	87.2107	1,000.49	86.6141	1,000.49	87.3862	1,000.49	86.6166	1,000.49	86.9759	1,000.49	86.7439	1,000.49	86.2603	1,000.49	87.3798	1,000.49	85.369	1,000.49	87.076	1,000.49	84.2257	1,000.49	84.5714	1,000.49	82.4724	1,000.49	80.4638	1,000.49	79.0492	1,000.49	77.2442	1,000.49	74.7085	1,000.49	74.9782	1,000.49	70.5425	1,000.49	76.2395	1,000.49	75.1038	1,000.49	78.4051	1,000.49	78.6621	1,000.49	78.8293	1,000.49	78.3549	1,000.49	78.2705	1,000.49	80.4138	1,000.49	74.1587	1,000.49	81.7088	1,000.49	74.5169	1,000.49	80.2482	1,000.49	79.5459	1,000.49	76.8644	1,000.49	79.0843	1,000.49	75.5356
1,035.64	86.5765	1,035.64	87.8556	1,035.64	86.5097	1,035.64	88.7879	1,035.64	86.9361	1,035.64	88.5861	1,035.64	87.2775	1,035.64	87.1556	1,035.64	87.9965	1,035.64	84.2372	1,035.64	88.4547	1,035.64	80.0763	1,035.64	87.9803	1,035.64	78.3739	1,035.64	86.3308	1,035.64	79.3968	1,035.64	83.8416	1,035.64	79.6527	1,035.64	82.7687	1,035.64	79.736	1,035.64	83.2716	1,035.64	80.7744	1,035.64	81.9564	1,035.64	81.1523	1,035.64	77.5602	1,035.64	79.7827	1,035.64	75.5105	1,035.64	78.4656	1,035.64	76.8167	1,035.64	79.9403	1,035.64	78.4013	1,035.64	80.5192	1,035.64	77.8108	1,035.64	78.0661	1,035.64	77.6868	1,035.64	76.8743
1,072.27	86.9042	1,072.27	86.4325	1,072.27	86.9743	1,072.27	86.5832	1,072.27	87.0402	1,072.27	87.3099	1,072.27	88.0899	1,072.27	87.0894	1,072.27	88.8372	1,072.27	85.186	1,072.27	88.0577	1,072.27	81.8006	1,072.27	85.45	1,072.27	76.6366	1,072.27	82.0565	1,072.27	74.7394	1,072.27	80.0709	1,072.27	79.2413	1,072.27	79.9645	1,072.27	79.3788	1,072.27	82.1202	1,072.27	76.6715	1,072.27	83.6074	1,072.27	78.874	1,072.27	82.5702	1,072.27	79.1989	1,072.27	76.8391	1,072.27	76.9728	1,072.27	74.1568	1,072.27	75.9166	1,072.27	81.8179	1,072.27	76.7631	1,072.27	79.819	1,072.27	77.4838	1,072.27	74.5338	1,072.27	77.1649
1,108.89	86.552	1,108.89	86.7963	1,108.89	87.3298	1,108.89	87.7802	1,108.89	87.5714	1,108.89	87.9735	1,108.89	88.2928	1,108.89	87.1939	1,108.89	89.206	1,108.89	85.1564	1,108.89	88.691	1,108.89	81.2296	1,108.89	86.4062	1,108.89	76.3028	1,108.89	82.7857	1,108.89	74.8147	1,108.89	78.2422	1,108.89	75.1663	1,108.89	74.1934	1,108.89	77.7303	1,108.89	77.1257	1,108.89	77.1611	1,108.89	79.6575	1,108.89	74.4535	1,108.89	79.7915	1,108.89	76.53	1,108.89	79.5219	1,108.89	78.8306	1,108.89	75.7393	1,108.89	77.7093	1,108.89	79.201	1,108.89	75.9484	1,108.89	80.397	1,108.89	73.403	1,108.89	79.4088	1,108.89	77.7639
1,148.44	84.9426	1,148.44	86.3367	1,148.44	86.492	1,148.44	87.0611	1,148.44	88.5611	1,148.44	86.2576	1,148.44	88.774	1,148.44	85.7043	1,148.44	87.8361	1,148.44	85.7308	1,148.44	86.7042	1,148.44	84.9913	1,148.44	84.9728	1,148.44	83.1784	1,148.44	82.0614	1,148.44	81.1104	1,148.44	78.1217	1,148.44	79.7082	1,148.44	75.942	1,148.44	80.7729	1,148.44	78.1467	1,148.44	80.3665	1,148.44	80.9063	1,148.44	77.2038	1,148.44	81.7132	1,148.44	74.65	1,148.44	79.8522	1,148.44	73.771	1,148.44	72.8474	1,148.44	73.0502	1,148.44	79.7764	1,148.44	75.0443	1,148.44	81.405	1,148.44	76.5625	1,148.44	76.2784	1,148.44	73.9983
1,189.45	85.8976	1,189.45	84.497	1,189.45	87.7245	1,189.45	86.2134	1,189.45	87.8803	1,189.45	86.2559	1,189.45	87.7246	1,189.45	84.2135	1,189.45	87.497	1,189.45	82.582	1,189.45	86.3734	1,189.45	82.3097	1,189.45	83.9509	1,189.45	81.7959	1,189.45	80.7101	1,189.45	81.2743	1,189.45	78.3443	1,189.45	79.703	1,189.45	74.0927	1,189.45	80.1073	1,189.45	60.5281	1,189.45	81.2606	1,189.45	68.8405	1,189.45	78.7188	1,189.45	75.8959	1,189.45	76.2254	1,189.45	77.9496	1,189.45	76.9939	1,189.45	72.9187	1,189.45	76.2122	1,189.45	77.1319	1,189.45	73.9813	1,189.45	81.6433	1,189.45	73.7195	1,189.45	79.4781	1,189.45	73.7664
1,230.47	85.578	1,230.47	84.2783	1,230.47	87.2621	1,230.47	84.8977	1,230.47	87.7993	1,230.47	85.1264	1,230.47	87.5808	1,230.47	84.6049	1,230.47	87.2879	1,230.47	83.9319	1,230.47	85.9926	1,230.47	81.982	1,230.47	83.1862	1,230.47	79.6717	1,230.47	80.229	1,230.47	80.2826	1,230.47	79.5984	1,230.47	79.8428	1,230.47	79.4601	1,230.47	78.7752	1,230.47	77.4198	1,230.47	79.3019	1,230.47	70.7483	1,230.47	75.3374	1,230.47	69.2404	1,230.47	77.9855	1,230.47	75.0854	1,230.47	79.64	1,230.47	75.8224	1,230.47	77.9708	1,230.47	76.0817	1,230.47	74.6411	1,230.47	77.8778	1,230.47	73.4586	1,230.47	79.273	1,230.47	77.2438
1,274.41	86.6058	1,274.41	84.4437	1,274.41	87.9428	1,274.41	84.2262	1,274.41	88.0278	1,274.41	84.6094	1,274.41	87.4261	1,274.41	83.6595	1,274.41	86.4462	1,274.41	81.4421	1,274.41	84.4598	1,274.41	79.8324	1,274.41	81.2552	1,274.41	79.1646	1,274.41	79.7443	1,274.41	78.1893	1,274.41	79.9129	1,274.41	74.1132	1,274.41	78.5407	1,274.41	61.819	1,274.41	75.9233	1,274.41	72.5273	1,274.41	77.8207	1,274.41	74.7535	1,274.41	76.5432	1,274.41	80.4141	1,274.41	68.078	1,274.41	81.1151	1,274.41	67.319	1,274.41	77.2899	1,274.41	76.4865	1,274.41	73.148	1,274.41	79.7163	1,274.41	75.2047	1,274.41	80.9427	1,274.41	79.148
1,319.82	87.4312	1,319.82	85.1336	1,319.82	88.4792	1,319.82	83.1432	1,319.82	88.4077	1,319.82	83.3076	1,319.82	87.5991	1,319.82	83.1687	1,319.82	85.2136	1,319.82	81.0858	1,319.82	81.2385	1,319.82	77.6044	1,319.82	80.4986	1,319.82	73.6902	1,319.82	81.0567	1,319.82	73.6453	1,319.82	80.6059	1,319.82	75.0819	1,319.82	79.1347	1,319.82	69.1966	1,319.82	78.2009	1,319.82	67.9909	1,319.82	78.5314	1,319.82	65.7884	1,319.82	76.5792	1,319.82	76.0015	1,319.82	71.5078	1,319.82	78.4837	1,319.82	51.678	1,319.82	77.5669	1,319.82	71.3021	1,319.82	77.4338	1,319.82	79.0376	1,319.82	78.1819	1,319.82	80.7336	1,319.82	78.904
1,366.7	88.0148	1,366.7	86.1508	1,366.7	88.9855	1,366.7	83.0882	1,366.7	89.0109	1,366.7	82.4296	1,366.7	87.6907	1,366.7	83.2403	1,366.7	84.9404	1,366.7	82.4369	1,366.7	82.0186	1,366.7	78.9682	1,366.7	79.5927	1,366.7	73.7453	1,366.7	77.5643	1,366.7	72.2827	1,366.7	75.5503	1,366.7	68.1132	1,366.7	70.0091	1,366.7	61.3359	1,366.7	67.978	1,366.7	61.843	1,366.7	73.8394	1,366.7	70.1469	1,366.7	77.4761	1,366.7	77.6806	1,366.7	77.7322	1,366.7	77.5317	1,366.7	71.3047	1,366.7	74.0718	1,366.7	67.4385	1,366.7	74.9235	1,366.7	77.3506	1,366.7	76.1204	1,366.7	78.6465	1,366.7	75.798
1,413.57	88.5481	1,413.57	86.3698	1,413.57	89.3349	1,413.57	82.968	1,413.57	89.1136	1,413.57	81.4021	1,413.57	87.5563	1,413.57	81.8528	1,413.57	85.1531	1,413.57	82.6091	1,413.57	81.1904	1,413.57	81.6956	1,413.57	76.0423	1,413.57	76.8994	1,413.57	74.852	1,413.57	71.6034	1,413.57	74.012	1,413.57	70.1142	1,413.57	72.7675	1,413.57	67.5444	1,413.57	69.6089	1,413.57	52.2768	1,413.57	56.6898	1,413.57	69.9577	1,413.57	72.9736	1,413.57	75.6019	1,413.57	73.8028	1,413.57	76.989	1,413.57	68.1202	1,413.57	75.6629	1,413.57	71.4935	1,413.57	73.4943	1,413.57	74.8439	1,413.57	71.2415	1,413.57	78.3273	1,413.57	73.2388
1,463.38	88.5801	1,463.38	86.8591	1,463.38	89.2262	1,463.38	83.6871	1,463.38	88.6758	1,463.38	80.3106	1,463.38	86.8604	1,463.38	81.7288	1,463.38	84.2918	1,463.38	82.1062	1,463.38	81.7019	1,463.38	78.3062	1,463.38	78.9119	1,463.38	77.0773	1,463.38	79.9382	1,463.38	77.5027	1,463.38	79.0217	1,463.38	75.0947	1,463.38	77.3343	1,463.38	74.6688	1,463.38	75.4538	1,463.38	72.4042	1,463.38	69.7277	1,463.38	62.5467	1,463.38	61.6437	1,463.38	72.256	1,463.38	74.5211	1,463.38	76.3639	1,463.38	69.531	1,463.38	76.3999	1,463.38	69.3065	1,463.38	71.252	1,463.38	72.9535	1,463.38	67.9407	1,463.38	77.8012	1,463.38	74.9002
1,516.11	88.0902	1,516.11	86.7231	1,516.11	88.5222	1,516.11	83.3931	1,516.11	87.705	1,516.11	80.6827	1,516.11	85.3913	1,516.11	81.686	1,516.11	83.5096	1,516.11	81.0272	1,516.11	82.1625	1,516.11	80.4552	1,516.11	81.53	1,516.11	81.1871	1,516.11	80.0317	1,516.11	79.6274	1,516.11	78.8092	1,516.11	77.1903	1,516.11	77.1151	1,516.11	77.0234	1,516.11	78.492	1,516.11	75.1111	1,516.11	75.5101	1,516.11	67.6514	1,516.11	68.8452	1,516.11	70.9896	1,516.11	74.6725	1,516.11	77.1711	1,516.11	74.2373	1,516.11	74.3289	1,516.11	63.5535	1,516.11	65.995	1,516.11	75.6666	1,516.11	69.1893	1,516.11	77.0595	1,516.11	74.9118
1,568.85	87.2297	1,568.85	85.2523	1,568.85	87.986	1,568.85	83.764	1,568.85	86.108	1,568.85	80.9797	1,568.85	84.3075	1,568.85	79.1424	1,568.85	82.699	1,568.85	79.6403	1,568.85	82.0294	1,568.85	80.2319	1,568.85	82.0124	1,568.85	80.3341	1,568.85	80.4713	1,568.85	78.3263	1,568.85	77.3517	1,568.85	76.6981	1,568.85	76.0714	1,568.85	77.3366	1,568.85	75.2073	1,568.85	76.8102	1,568.85	74.6134	1,568.85	69.035	1,568.85	73.336	1,568.85	68.948	1,568.85	77.2904	1,568.85	74.4372	1,568.85	74.2854	1,568.85	74.8655	1,568.85	65.9199	1,568.85	71.3964	1,568.85	70.6865	1,568.85	69.8116	1,568.85	77.1286	1,568.85	76.3112
1,624.51	87.1467	1,624.51	84.8386	1,624.51	87.719	1,624.51	82.9599	1,624.51	85.3613	1,624.51	81.0913	1,624.51	81.9231	1,624.51	80.6738	1,624.51	81.0312	1,624.51	79.5679	1,624.51	82.4563	1,624.51	77.5562	1,624.51	83.2275	1,624.51	76.8133	1,624.51	81.3844	1,624.51	72.4681	1,624.51	77.3787	1,624.51	71.8768	1,624.51	78.672	1,624.51	68.2895	1,624.51	77.1396	1,624.51	68.5704	1,624.51	77.4164	1,624.51	72.3032	1,624.51	76.2057	1,624.51	68.3159	1,624.51	73.9384	1,624.51	73.6442	1,624.51	73.9869	1,624.51	73.7314	1,624.51	65.1474	1,624.51	70.5734	1,624.51	70.2778	1,624.51	70.1582	1,624.51	73.6723	1,624.51	72.7158
1,681.64	87.7336	1,681.64	85.5763	1,681.64	87.7482	1,681.64	82.0664	1,681.64	85.0446	1,681.64	79.5562	1,681.64	82.1192	1,681.64	80.8515	1,681.64	82.8195	1,681.64	79.0677	1,681.64	82.0945	1,681.64	74.6424	1,681.64	82.9744	1,681.64	72.2297	1,681.64	83.3916	1,681.64	72.8023	1,681.64	78.4123	1,681.64	71.9229	1,681.64	78.4909	1,681.64	73.0897	1,681.64	77.4116	1,681.64	74.4884	1,681.64	75.6926	1,681.64	71.7307	1,681.64	76.6607	1,681.64	73.0552	1,681.64	73.4864	1,681.64	72.5304	1,681.64	74.1138	1,681.64	73.2524	1,681.64	62.9247	1,681.64	66.8687	1,681.64	71.8436	1,681.64	67.9582	1,681.64	72.5269	1,681.64	74.0261
1,741.7	88.3317	1,741.7	86.0642	1,741.7	87.4063	1,741.7	83.946	1,741.7	84.9653	1,741.7	82.5994	1,741.7	81.9814	1,741.7	76.0117	1,741.7	82.309	1,741.7	77.103	1,741.7	84.8295	1,741.7	81.5914	1,741.7	83.2322	1,741.7	80.3115	1,741.7	77.5478	1,741.7	70.0309	1,741.7	72.4032	1,741.7	73.0226	1,741.7	72.8772	1,741.7	77.5476	1,741.7	74.4336	1,741.7	75.1353	1,741.7	69.4781	1,741.7	78.4541	1,741.7	79.1249	1,741.7	77.4467	1,741.7	76.9453	1,741.7	73.2613	1,741.7	53.0594	1,741.7	65.3986	1,741.7	72.6871	1,741.7	59.0606	1,741.7	67.9656	1,741.7	66.4405	1,741.7	77.5641	1,741.7	72.4906
1,803.22	87.7799	1,803.22	87.3936	1,803.22	87.1271	1,803.22	84.1542	1,803.22	84.2448	1,803.22	80.1932	1,803.22	83.7428	1,803.22	78.8986	1,803.22	84.5192	1,803.22	76.4787	1,803.22	81.8496	1,803.22	72.3125	1,803.22	84.9541	1,803.22	74.1857	1,803.22	83.4589	1,803.22	71.7699	1,803.22	77.273	1,803.22	70.9366	1,803.22	76.3853	1,803.22	76.6316	1,803.22	78.892	1,803.22	74.2327	1,803.22	76.5759	1,803.22	74.2284	1,803.22	68.3455	1,803.22	69.8469	1,803.22	76.0343	1,803.22	70.9666	1,803.22	74.4952	1,803.22	76.252	1,803.22	71.7101	1,803.22	67.4437	1,803.22	70.5072	1,803.22	68.3048	1,803.22	71.6278	1,803.22	75.1717
1,866.21	88.0221	1,866.21	87.9422	1,866.21	85.8083	1,866.21	84.3559	1,866.21	82.8286	1,866.21	80.3634	1,866.21	83.2212	1,866.21	75.9033	1,866.21	85.2723	1,866.21	73.9689	1,866.21	84.7582	1,866.21	76.1605	1,866.21	85.9118	1,866.21	74.6528	1,866.21	81.8786	1,866.21	72.7383	1,866.21	73.8401	1,866.21	71.8297	1,866.21	72.1286	1,866.21	75.3899	1,866.21	76.1941	1,866.21	75.6348	1,866.21	76.4795	1,866.21	53.1519	1,866.21	76.8154	1,866.21	67.5135	1,866.21	75.417	1,866.21	74.9814	1,866.21	56.6562	1,866.21	74.8247	1,866.21	73.3536	1,866.21	54.06	1,866.21	72.2845	1,866.21	73.8577	1,866.21	72.257	1,866.21	71.7698
1,932.13	87.5649	1,932.13	86.9673	1,932.13	85.6509	1,932.13	83.6831	1,932.13	82.7467	1,932.13	79.2896	1,932.13	82.6284	1,932.13	77.5398	1,932.13	85.1556	1,932.13	77.488	1,932.13	85.907	1,932.13	76.4865	1,932.13	85.2211	1,932.13	76.5882	1,932.13	82.7453	1,932.13	70.0799	1,932.13	74.8252	1,932.13	60.606	1,932.13	60.5488	1,932.13	73.3008	1,932.13	66.6545	1,932.13	67.064	1,932.13	71.7632	1,932.13	69.1434	1,932.13	70.7408	1,932.13	65.3176	1,932.13	70.6838	1,932.13	72.4318	1,932.13	73.0678	1,932.13	62.004	1,932.13	68.4972	1,932.13	55.582	1,932.13	68.9396	1,932.13	66.3107	1,932.13	70.9345	1,932.13	72.0825
1,999.51	87.3665	1,999.51	86.2168	1,999.51	85.3806	1,999.51	83.0973	1,999.51	81.0918	1,999.51	78.8559	1,999.51	81.6245	1,999.51	76.2563	1,999.51	84.5108	1,999.51	78.043	1,999.51	85.2743	1,999.51	79.0795	1,999.51	84.6829	1,999.51	76.6488	1,999.51	82.696	1,999.51	74.8841	1,999.51	76.5458	1,999.51	72.567	1,999.51	62.6637	1,999.51	70.5861	1,999.51	67.6903	1,999.51	72.51	1,999.51	68.9658	1,999.51	71.1422	1,999.51	68.8319	1,999.51	65.2125	1,999.51	70.1525	1,999.51	70.0836	1,999.51	66.804	1,999.51	67.8229	1,999.51	70.2193	1,999.51	62.0506	1,999.51	69.2742	1,999.51	66.0794	1,999.51	70.5704	1,999.51	70.7983
2,069.82	87.873	2,069.82	85.9438	2,069.82	86.2769	2,069.82	82.2032	2,069.82	81.6134	2,069.82	79.0455	2,069.82	81.6083	2,069.82	76.9237	2,069.82	83.393	2,069.82	78.3667	2,069.82	85.2524	2,069.82	78.237	2,069.82	85.1427	2,069.82	74.4732	2,069.82	82.5687	2,069.82	71.6415	2,069.82	74.3191	2,069.82	73.6972	2,069.82	51.6551	2,069.82	70.3369	2,069.82	68.5279	2,069.82	61.2181	2,069.82	71.7582	2,069.82	71.495	2,069.82	69.4996	2,069.82	68.7617	2,069.82	71.4656	2,069.82	69.0362	2,069.82	67.9621	2,069.82	67.2636	2,069.82	65.4712	2,069.82	61.466	2,069.82	67.2759	2,069.82	68.1561	2,069.82	71.0823	2,069.82	68.8919
2,143.07	88.2349	2,143.07	87.1218	2,143.07	86.2443	2,143.07	82.1398	2,143.07	81.2244	2,143.07	75.3641	2,143.07	81.4333	2,143.07	76.1221	2,143.07	83.2736	2,143.07	77.3266	2,143.07	84.4767	2,143.07	77.701	2,143.07	84.4299	2,143.07	77.1208	2,143.07	80.7962	2,143.07	73.7875	2,143.07	72.9224	2,143.07	70.6309	2,143.07	61.6399	2,143.07	70.1143	2,143.07	71.3015	2,143.07	68.729	2,143.07	71.1262	2,143.07	67.8979	2,143.07	70.3426	2,143.07	71.4702	2,143.07	70.7997	2,143.07	66.519	2,143.07	69.24	2,143.07	68.021	2,143.07	59.154	2,143.07	61.0768	2,143.07	66.1402	2,143.07	69.7809	2,143.07	69.2568	2,143.07	70.9166
2,219.24	87.5913	2,219.24	87.4205	2,219.24	84.7812	2,219.24	82.5977	2,219.24	79.8048	2,219.24	64.4532	2,219.24	80.6715	2,219.24	75.2067	2,219.24	82.496	2,219.24	77.6152	2,219.24	83.3826	2,219.24	78.5731	2,219.24	82.9823	2,219.24	77.1438	2,219.24	79.6756	2,219.24	75.3254	2,219.24	65.3867	2,219.24	75.0819	2,219.24	66.3051	2,219.24	72.2123	2,219.24	73.4153	2,219.24	68.51	2,219.24	71.8288	2,219.24	68.6001	2,219.24	67.3785	2,219.24	72.0712	2,219.24	67.5589	2,219.24	70.3619	2,219.24	70.3493	2,219.24	66.8708	2,219.24	52.0355	2,219.24	59.6525	2,219.24	61.3633	2,219.24	71.068	2,219.24	67.3885	2,219.24	70.2997
2,296.88	85.9711	2,296.88	86.6195	2,296.88	82.3107	2,296.88	83.0771	2,296.88	72.502	2,296.88	69.9309	2,296.88	78.7281	2,296.88	75.0643	2,296.88	82.9495	2,296.88	79.2233	2,296.88	83.2618	2,296.88	78.814	2,296.88	81.9667	2,296.88	77.7852	2,296.88	76.3676	2,296.88	75.2602	2,296.88	55.6816	2,296.88	71.7948	2,296.88	69.1142	2,296.88	70.8535	2,296.88	74.3806	2,296.88	69.544	2,296.88	73.3725	2,296.88	65.9461	2,296.88	67.4648	2,296.88	70.717	2,296.88	66.9959	2,296.88	70.8717	2,296.88	70.7187	2,296.88	64.8305	2,296.88	62.2133	2,296.88	57.5975	2,296.88	48.5425	2,296.88	70.3649	2,296.88	63.2344	2,296.88	70.3835
2,378.91	84.9756	2,378.91	85.6284	2,378.91	79.8325	2,378.91	82.2601	2,378.91	53.9012	2,378.91	71.3523	2,378.91	80.4374	2,378.91	74.4541	2,378.91	83.874	2,378.91	80.0766	2,378.91	83.1082	2,378.91	79.7698	2,378.91	80.3467	2,378.91	77.9203	2,378.91	73.0945	2,378.91	75.7997	2,378.91	67.2739	2,378.91	73.1714	2,378.91	72.8385	2,378.91	71.5256	2,378.91	71.7027	2,378.91	70.4501	2,378.91	69.7925	2,378.91	68.2849	2,378.91	66.2645	2,378.91	69.8832	2,378.91	64.4458	2,378.91	70.5254	2,378.91	71.0995	2,378.91	65.0723	2,378.91	65.5283	2,378.91	64.4151	2,378.91	51.2748	2,378.91	69.5422	2,378.91	63.1943	2,378.91	70.7222
2,462.4	85.8243	2,462.4	86.5829	2,462.4	78.3642	2,462.4	81.7137	2,462.4	72.5033	2,462.4	70.5252	2,462.4	82.012	2,462.4	74.0939	2,462.4	84.007	2,462.4	80.5086	2,462.4	82.5428	2,462.4	80.5337	2,462.4	78.5804	2,462.4	78.4051	2,462.4	63.3302	2,462.4	75.887	2,462.4	74.7803	2,462.4	75.3057	2,462.4	76.381	2,462.4	72.4149	2,462.4	73.3499	2,462.4	69.7629	2,462.4	66.5901	2,462.4	70.0005	2,462.4	63.7917	2,462.4	69.5394	2,462.4	61.8204	2,462.4	69.2064	2,462.4	69.842	2,462.4	67.344	2,462.4	67.9484	2,462.4	63.5985	2,462.4	60.7858	2,462.4	70.5237	2,462.4	62.8882	2,462.4	70.043
2,548.83	86.3065	2,548.83	87.7156	2,548.83	77.3636	2,548.83	83.3884	2,548.83	77.7111	2,548.83	70.3831	2,548.83	83.735	2,548.83	77.1782	2,548.83	83.7558	2,548.83	81.3841	2,548.83	81.4311	2,548.83	81.0293	2,548.83	76.6127	2,548.83	79.137	2,548.83	62.9845	2,548.83	75.1279	2,548.83	76.4243	2,548.83	73.5323	2,548.83	77.722	2,548.83	70.6143	2,548.83	72.4823	2,548.83	68.3468	2,548.83	59.9673	2,548.83	69.9023	2,548.83	62.458	2,548.83	70.9267	2,548.83	51.7132	2,548.83	68.3609	2,548.83	67.3814	2,548.83	67.377	2,548.83	69.8191	2,548.83	64.4235	2,548.83	65.8862	2,548.83	70.9889	2,548.83	65.5309	2,548.83	69.8438
2,639.65	85.7188	2,639.65	88.0484	2,639.65	74.1629	2,639.65	85.6816	2,639.65	81.4475	2,639.65	74.3488	2,639.65	86.6084	2,639.65	79.338	2,639.65	84.4123	2,639.65	81.7054	2,639.65	78.9631	2,639.65	81.3278	2,639.65	73.9605	2,639.65	79.037	2,639.65	65.9051	2,639.65	75.6356	2,639.65	79.0516	2,639.65	72.8657	2,639.65	77.5964	2,639.65	69.9199	2,639.65	72.8095	2,639.65	66.4635	2,639.65	71.0233	2,639.65	68.5991	2,639.65	62.7849	2,639.65	70.6828	2,639.65	53.8962	2,639.65	69.1637	2,639.65	63.1604	2,639.65	65.1979	2,639.65	71.8994	2,639.65	67.4572	2,639.65	68.2782	2,639.65	70.5899	2,639.65	65.2315	2,639.65	69.8461
2,731.93	84.6992	2,731.93	87.6231	2,731.93	69.8244	2,731.93	85.0835	2,731.93	83.2485	2,731.93	74.7875	2,731.93	87.8736	2,731.93	80.7781	2,731.93	86.0715	2,731.93	81.6627	2,731.93	74.6368	2,731.93	81.2355	2,731.93	71.6621	2,731.93	79.3444	2,731.93	74.9014	2,731.93	74.9964	2,731.93	80.3222	2,731.93	69.672	2,731.93	79.0844	2,731.93	67.589	2,731.93	75.7254	2,731.93	68.7359	2,731.93	70.1229	2,731.93	64.6317	2,731.93	61.6049	2,731.93	69.6789	2,731.93	56.5463	2,731.93	69.6798	2,731.93	63.6334	2,731.93	67.5347	2,731.93	72.6308	2,731.93	65.7324	2,731.93	66.9748	2,731.93	69.4614	2,731.93	59.6404	2,731.93	72.5689
2,828.61	85.5194	2,828.61	87.1916	2,828.61	67.2173	2,828.61	83.5801	2,828.61	84.2916	2,828.61	76.3222	2,828.61	88.2275	2,828.61	81.0807	2,828.61	86.1177	2,828.61	81.5925	2,828.61	72.3634	2,828.61	80.719	2,828.61	68.5663	2,828.61	77.3005	2,828.61	76.4408	2,828.61	76.1492	2,828.61	81.6941	2,828.61	71.3419	2,828.61	81.2635	2,828.61	71.2218	2,828.61	78.6926	2,828.61	66.6833	2,828.61	72.289	2,828.61	64.9592	2,828.61	62.2068	2,828.61	68.0986	2,828.61	53.9816	2,828.61	68.7103	2,828.61	63.7182	2,828.61	68.7477	2,828.61	73.9466	2,828.61	62.3047	2,828.61	68.0289	2,828.61	68.9162	2,828.61	60.929	2,828.61	70.6541
2,928.22	86.7283	2,928.22	88.5301	2,928.22	71.4015	2,928.22	83.4119	2,928.22	84.5987	2,928.22	74.2265	2,928.22	87.9143	2,928.22	79.9184	2,928.22	85.1189	2,928.22	82.2977	2,928.22	73.6598	2,928.22	81.1327	2,928.22	66.3496	2,928.22	78.2011	2,928.22	76.2292	2,928.22	75.8686	2,928.22	81.2639	2,928.22	73.8485	2,928.22	82.8896	2,928.22	68.9694	2,928.22	79.4472	2,928.22	68.3387	2,928.22	72.9632	2,928.22	65.9411	2,928.22	65.8051	2,928.22	67.896	2,928.22	52.3204	2,928.22	68.7897	2,928.22	49.5812	2,928.22	67.1873	2,928.22	71.373	2,928.22	63.772	2,928.22	65.7947	2,928.22	69.7158	2,928.22	49.0264	2,928.22	70.0603
3,030.76	86.9237	3,030.76	88.2993	3,030.76	74.8165	3,030.76	82.8899	3,030.76	84.822	3,030.76	77.4025	3,030.76	87.1374	3,030.76	80.5611	3,030.76	84.1047	3,030.76	82.3676	3,030.76	72.6326	3,030.76	81.0236	3,030.76	70.1581	3,030.76	78.1988	3,030.76	71.8369	3,030.76	75.2667	3,030.76	78.6652	3,030.76	67.7042	3,030.76	82.7542	3,030.76	65.5317	3,030.76	78.0661	3,030.76	61.618	3,030.76	68.3172	3,030.76	65.8766	3,030.76	63.0165	3,030.76	62.5086	3,030.76	60.7486	3,030.76	67.8097	3,030.76	52.3224	3,030.76	66.9092	3,030.76	69.2571	3,030.76	63.853	3,030.76	64.1137	3,030.76	68.0689	3,030.76	53.751	3,030.76	69.1328
3,137.7	86.6676	3,137.7	87.1778	3,137.7	77.9804	3,137.7	82.2654	3,137.7	85.8109	3,137.7	78.9987	3,137.7	87.003	3,137.7	81.5615	3,137.7	81.6184	3,137.7	81.9218	3,137.7	70.2078	3,137.7	79.9735	3,137.7	73.4195	3,137.7	76.3546	3,137.7	74.3212	3,137.7	66.78	3,137.7	75.1829	3,137.7	64.525	3,137.7	81.3725	3,137.7	61.0756	3,137.7	73.089	3,137.7	60.9683	3,137.7	64.6269	3,137.7	58.6667	3,137.7	60.4463	3,137.7	60.9435	3,137.7	63.4138	3,137.7	64.2953	3,137.7	56.6504	3,137.7	63.3459	3,137.7	67.0607	3,137.7	59.4085	3,137.7	63.8265	3,137.7	67.4315	3,137.7	51.6888	3,137.7	66.7403
3,249.02	85.9145	3,249.02	85.5511	3,249.02	80.7857	3,249.02	82.5336	3,249.02	85.4958	3,249.02	79.614	3,249.02	86.4945	3,249.02	81.6642	3,249.02	79.7029	3,249.02	81.1206	3,249.02	71.7184	3,249.02	77.502	3,249.02	75.9358	3,249.02	65.1974	3,249.02	76.9471	3,249.02	69.8613	3,249.02	79.0584	3,249.02	65.4431	3,249.02	80.5559	3,249.02	60.5655	3,249.02	72.9526	3,249.02	54.2326	3,249.02	59.5278	3,249.02	54.1107	3,249.02	57.4224	3,249.02	56.6823	3,249.02	65.6648	3,249.02	59.7348	3,249.02	53.4688	3,249.02	62.6618	3,249.02	67.9073	3,249.02	61.0093	3,249.02	62.9782	3,249.02	68.0494	3,249.02	52.2726	3,249.02	66.0769
3,363.28	84.1779	3,363.28	84.4845	3,363.28	82.3927	3,363.28	82.6476	3,363.28	85.452	3,363.28	78.9044	3,363.28	85.0352	3,363.28	81.4763	3,363.28	79.1799	3,363.28	79.1982	3,363.28	72.083	3,363.28	73.6203	3,363.28	77.3042	3,363.28	70.077	3,363.28	78.4795	3,363.28	67.3953	3,363.28	81.2779	3,363.28	59.8128	3,363.28	80.3329	3,363.28	60.5348	3,363.28	75.7632	3,363.28	64.9895	3,363.28	69.2758	3,363.28	55.0652	3,363.28	54.6631	3,363.28	55.9519	3,363.28	67.6028	3,363.28	56.6631	3,363.28	57.9425	3,363.28	61.0208	3,363.28	67.9172	3,363.28	50.9643	3,363.28	58.8483	3,363.28	65.6124	3,363.28	57.8268	3,363.28	68.3111
3,481.93	82.1369	3,481.93	85.8226	3,481.93	84.023	3,481.93	83.3886	3,481.93	85.9218	3,481.93	77.7238	3,481.93	83.218	3,481.93	80.5166	3,481.93	75.9939	3,481.93	78.1912	3,481.93	71.9402	3,481.93	74.1999	3,481.93	77.581	3,481.93	68.6867	3,481.93	78.1557	3,481.93	65.874	3,481.93	79.9969	3,481.93	66.8605	3,481.93	77.3183	3,481.93	59.946	3,481.93	74.9458	3,481.93	63.5468	3,481.93	67.3642	3,481.93	56.7569	3,481.93	52.161	3,481.93	57.8498	3,481.93	65.7453	3,481.93	54.7066	3,481.93	55.0798	3,481.93	61.3249	3,481.93	66.4298	3,481.93	46.6173	3,481.93	60.2885	3,481.93	66.1625	3,481.93	50.2817	3,481.93	67.0456
3,604.98	81.8734	3,604.98	86.8416	3,604.98	83.8824	3,604.98	83.6237	3,604.98	86.7155	3,604.98	79.1648	3,604.98	82.8676	3,604.98	79.6722	3,604.98	73.6007	3,604.98	77.5292	3,604.98	74.309	3,604.98	73.1886	3,604.98	77.7633	3,604.98	66.0599	3,604.98	76.6236	3,604.98	66.4169	3,604.98	77.4583	3,604.98	57.4726	3,604.98	72.8805	3,604.98	62.3133	3,604.98	68.29	3,604.98	60.3307	3,604.98	61.6657	3,604.98	62.4785	3,604.98	57.1041	3,604.98	52.9396	3,604.98	62.676	3,604.98	55.4138	3,604.98	53.9297	3,604.98	53.5231	3,604.98	66.1706	3,604.98	56.4668	3,604.98	59.0072	3,604.98	64.5298	3,604.98	57.8892	3,604.98	65.438
3,732.42	83.7685	3,732.42	86.8878	3,732.42	83.1561	3,732.42	81.5752	3,732.42	86.2309	3,732.42	79.2471	3,732.42	81.4915	3,732.42	80.1807	3,732.42	74.2598	3,732.42	76.8144	3,732.42	73.5928	3,732.42	70.2388	3,732.42	77.7192	3,732.42	66.556	3,732.42	74.3085	3,732.42	63.3853	3,732.42	73.0844	3,732.42	66.3899	3,732.42	67.175	3,732.42	63.1206	3,732.42	63.8469	3,732.42	60.7362	3,732.42	51.6287	3,732.42	61.2718	3,732.42	60.6144	3,732.42	59.5953	3,732.42	58.1777	3,732.42	57.1496	3,732.42	54.4772	3,732.42	55.0355	3,732.42	63.9529	3,732.42	55.3443	3,732.42	53.657	3,732.42	63.1661	3,732.42	59.0347	3,732.42	65.0059
3,864.26	84.4694	3,864.26	86.3429	3,864.26	83.8075	3,864.26	80.7539	3,864.26	87.0466	3,864.26	79.3849	3,864.26	80.6029	3,864.26	80.2156	3,864.26	74.8876	3,864.26	75.7438	3,864.26	72.1053	3,864.26	68.1308	3,864.26	76.6697	3,864.26	69.409	3,864.26	73.2729	3,864.26	70.8018	3,864.26	71.7731	3,864.26	67.7258	3,864.26	66.9428	3,864.26	64.904	3,864.26	67.6716	3,864.26	62.2515	3,864.26	59.6986	3,864.26	62.1383	3,864.26	62.2317	3,864.26	60.6877	3,864.26	57.6061	3,864.26	60.799	3,864.26	56.3597	3,864.26	55.2989	3,864.26	62.4756	3,864.26	55.9581	3,864.26	51.9474	3,864.26	63.7522	3,864.26	58.8553	3,864.26	64.9243
4,000.49	84.0184	4,000.49	85.0116	4,000.49	82.8443	4,000.49	81.33	4,000.49	86.1374	4,000.49	79.5726	4,000.49	81.8294	4,000.49	78.8547	4,000.49	74.2258	4,000.49	74.6372	4,000.49	75.4983	4,000.49	70.9279	4,000.49	76.0772	4,000.49	72.9907	4,000.49	74.3	4,000.49	70.3106	4,000.49	69.0466	4,000.49	66.1104	4,000.49	71.538	4,000.49	65.6808	4,000.49	67.4651	4,000.49	62.2604	4,000.49	58.0774	4,000.49	62.3353	4,000.49	63.1648	4,000.49	60.2338	4,000.49	54.6508	4,000.49	62.0155	4,000.49	58.3059	4,000.49	57.9957	4,000.49	62.6968	4,000.49	56.1995	4,000.49	56.4861	4,000.49	61.6863	4,000.49	57.8652	4,000.49	65.2449
4,141.11	84.7868	4,141.11	85.645	4,141.11	83.8885	4,141.11	80.6658	4,141.11	84.0924	4,141.11	79.7771	4,141.11	81.1778	4,141.11	79.918	4,141.11	75.0566	4,141.11	73.8578	4,141.11	74.5178	4,141.11	74.4317	4,141.11	75.1732	4,141.11	72.0635	4,141.11	71.957	4,141.11	70.066	4,141.11	68.6738	4,141.11	67.3971	4,141.11	74.47	4,141.11	65.1392	4,141.11	65.7728	4,141.11	57.0931	4,141.11	63.8711	4,141.11	60.1586	4,141.11	61.5706	4,141.11	59.4446	4,141.11	50.3333	4,141.11	60.1486	4,141.11	59.9902	4,141.11	57.3173	4,141.11	60.1953	4,141.11	58.5269	4,141.11	56.0387	4,141.11	61.6786	4,141.11	57.1988	4,141.11	62.9921
4,287.6	85.1451	4,287.6	85.4409	4,287.6	84.7858	4,287.6	80.8883	4,287.6	84.5716	4,287.6	80.3017	4,287.6	79.7396	4,287.6	78.7736	4,287.6	78.1645	4,287.6	73.1216	4,287.6	74.5725	4,287.6	74.1825	4,287.6	74.4293	4,287.6	71.3421	4,287.6	67.9259	4,287.6	68.7018	4,287.6	70.6694	4,287.6	57.5982	4,287.6	72.4231	4,287.6	58.99	4,287.6	65.1584	4,287.6	58.4604	4,287.6	64.3919	4,287.6	61.0238	4,287.6	61.7717	4,287.6	56.5861	4,287.6	54.2225	4,287.6	60.5162	4,287.6	59.6454	4,287.6	58.8459	4,287.6	58.7017	4,287.6	55.0504	4,287.6	57.105	4,287.6	60.5922	4,287.6	54.7445	4,287.6	62.2896
4,438.48	85.5791	4,438.48	85.0578	4,438.48	85.3143	4,438.48	81.9304	4,438.48	84.1795	4,438.48	80.4881	4,438.48	79.2647	4,438.48	77.054	4,438.48	77.4858	4,438.48	75.0943	4,438.48	75.1899	4,438.48	72.1716	4,438.48	70.6241	4,438.48	69.2942	4,438.48	71.0816	4,438.48	64.7132	4,438.48	71.0718	4,438.48	65.4158	4,438.48	69.0112	4,438.48	62.5655	4,438.48	67.5595	4,438.48	60.5834	4,438.48	63.7502	4,438.48	57.4647	4,438.48	61.448	4,438.48	51.4002	4,438.48	57.6585	4,438.48	60.7642	4,438.48	56.2996	4,438.48	57.4561	4,438.48	58.3789	4,438.48	47.6409	4,438.48	56.7842	4,438.48	61.3503	4,438.48	55.1403	4,438.48	63.856
4,595.21	85.2561	4,595.21	85.3065	4,595.21	86.1491	4,595.21	81.1213	4,595.21	84.0215	4,595.21	80.1964	4,595.21	80.0114	4,595.21	77.1466	4,595.21	78.9069	4,595.21	74.5278	4,595.21	75.6718	4,595.21	71.7344	4,595.21	64.0154	4,595.21	69.1486	4,595.21	72.5978	4,595.21	68.9216	4,595.21	72.0675	4,595.21	63.6695	4,595.21	71.0656	4,595.21	62.7027	4,595.21	69.438	4,595.21	54.97	4,595.21	61.413	4,595.21	55.9098	4,595.21	56.9324	4,595.21	57.6359	4,595.21	56.1007	4,595.21	58.5123	4,595.21	52.9113	4,595.21	57.1825	4,595.21	57.2728	4,595.21	50.5885	4,595.21	56.2308	4,595.21	60.4412	4,595.21	49.6146	4,595.21	61.7374
4,756.35	85.5661	4,756.35	86.1714	4,756.35	86.1156	4,756.35	83.0143	4,756.35	83.7083	4,756.35	80.1104	4,756.35	80.1569	4,756.35	76.2351	4,756.35	78.5605	4,756.35	73.716	4,756.35	72.6119	4,756.35	72.1009	4,756.35	71.7023	4,756.35	70.3823	4,756.35	74.5056	4,756.35	66.8911	4,756.35	70	4,756.35	63.0227	4,756.35	67.6468	4,756.35	60.9521	4,756.35	67.8981	4,756.35	60.4168	4,756.35	54.0495	4,756.35	59.7024	4,756.35	56.1196	4,756.35	61.9258	4,756.35	50.6755	4,756.35	55.6787	4,756.35	55.525	4,756.35	55.3683	4,756.35	52.7848	4,756.35	44.4862	4,756.35	60.3914	4,756.35	57.9113	4,756.35	53.2461	4,756.35	58.4216
4,924.8	86.9198	4,924.8	86.1901	4,924.8	87.6723	4,924.8	82.6158	4,924.8	83.3179	4,924.8	79.9759	4,924.8	79.6337	4,924.8	77.5941	4,924.8	78.7076	4,924.8	75.0112	4,924.8	68.901	4,924.8	73.1087	4,924.8	73.1535	4,924.8	69.4101	4,924.8	75.3446	4,924.8	65.4107	4,924.8	69.2785	4,924.8	64.4619	4,924.8	67.2933	4,924.8	63.1187	4,924.8	59.5714	4,924.8	58.7023	4,924.8	58.2982	4,924.8	54.4407	4,924.8	52.5582	4,924.8	57.693	4,924.8	56.1411	4,924.8	57.5614	4,924.8	55.2559	4,924.8	55.0078	4,924.8	41.368	4,924.8	50.0001	4,924.8	57.8022	4,924.8	57.8737	4,924.8	38.7152	4,924.8	60.2789
5,097.66	87.1319	5,097.66	87.6562	5,097.66	88.444	5,097.66	83.7719	5,097.66	84.648	5,097.66	80.1282	5,097.66	78.9246	5,097.66	78.12	5,097.66	79.2789	5,097.66	76.138	5,097.66	70.4761	5,097.66	73.0564	5,097.66	75.3025	5,097.66	69.8326	5,097.66	72.922	5,097.66	69.1739	5,097.66	71.7935	5,097.66	67.1273	5,097.66	67.1346	5,097.66	62.1994	5,097.66	64.55	5,097.66	61.3823	5,097.66	57.0439	5,097.66	61.3293	5,097.66	39.1725	5,097.66	62.4045	5,097.66	52.1974	5,097.66	59.1634	5,097.66	55.422	5,097.66	59.9535	5,097.66	50.2234	5,097.66	48.6085	5,097.66	57.6384	5,097.66	56.0125	5,097.66	51.7441	5,097.66	61.8944
5,277.83	87.6634	5,277.83	87.0907	5,277.83	87.7467	5,277.83	83.3263	5,277.83	84.8015	5,277.83	81.4926	5,277.83	81.2846	5,277.83	78.3386	5,277.83	80.0144	5,277.83	77.5177	5,277.83	74.6128	5,277.83	72.6027	5,277.83	75.5585	5,277.83	73.0616	5,277.83	70.3663	5,277.83	69.2392	5,277.83	71.5465	5,277.83	67.6566	5,277.83	64.6157	5,277.83	64.3349	5,277.83	62.8209	5,277.83	63.0242	5,277.83	45.8479	5,277.83	62.5238	5,277.83	42.0933	5,277.83	64.4866	5,277.83	41.2958	5,277.83	59.2578	5,277.83	55.1596	5,277.83	61.084	5,277.83	51.4623	5,277.83	52.541	5,277.83	62.9192	5,277.83	57.5131	5,277.83	45.3729	5,277.83	62.0711
5,463.87	87.9811	5,463.87	88.1277	5,463.87	87.7429	5,463.87	83.4262	5,463.87	85.3415	5,463.87	81.594	5,463.87	82.7075	5,463.87	79.0004	5,463.87	79.58	5,463.87	77.6298	5,463.87	78.2147	5,463.87	74.9207	5,463.87	73.823	5,463.87	73.5922	5,463.87	72.515	5,463.87	71.614	5,463.87	71.1344	5,463.87	68.5417	5,463.87	68.5585	5,463.87	63.6687	5,463.87	66.6451	5,463.87	63.8126	5,463.87	56.8578	5,463.87	60.3816	5,463.87	55.7908	5,463.87	63.2508	5,463.87	54.7741	5,463.87	57.8863	5,463.87	52.8129	5,463.87	60.7721	5,463.87	46.9887	5,463.87	57.0458	5,463.87	59.0282	5,463.87	62.0924	5,463.87	53.1012	5,463.87	61.8092
5,657.23	87.8822	5,657.23	87.3334	5,657.23	87.8912	5,657.23	83.3254	5,657.23	84.2449	5,657.23	81.6705	5,657.23	81.168	5,657.23	79.0983	5,657.23	79.311	5,657.23	77.0987	5,657.23	80.5249	5,657.23	75.3192	5,657.23	71.3808	5,657.23	73.555	5,657.23	76.4408	5,657.23	70.8125	5,657.23	71.7781	5,657.23	68.4722	5,657.23	71.146	5,657.23	65.7292	5,657.23	65.6309	5,657.23	61.2479	5,657.23	52.2138	5,657.23	59.9801	5,657.23	54.1601	5,657.23	63.157	5,657.23	54.9648	5,657.23	61.8761	5,657.23	57.0281	5,657.23	62.6909	5,657.23	50.0508	5,657.23	56.877	5,657.23	56.2801	5,657.23	61.9776	5,657.23	57.356	5,657.23	61.5804
5,856.45	87.6481	5,856.45	87.2087	5,856.45	87.3135	5,856.45	83.2262	5,856.45	83.7404	5,856.45	80.9559	5,856.45	80.2915	5,856.45	79.2477	5,856.45	78.0578	5,856.45	76.9218	5,856.45	80.4681	5,856.45	75.173	5,856.45	71.8147	5,856.45	73.8094	5,856.45	76.7785	5,856.45	70.8863	5,856.45	70.9578	5,856.45	67.3753	5,856.45	71.458	5,856.45	64.0742	5,856.45	61.8185	5,856.45	60.5789	5,856.45	57.2266	5,856.45	59.2371	5,856.45	51.6659	5,856.45	62.792	5,856.45	51.8854	5,856.45	60.767	5,856.45	55.5572	5,856.45	58.129	5,856.45	50.331	5,856.45	53.0236	5,856.45	58.7193	5,856.45	58.5663	5,856.45	57.0145	5,856.45	61.3173
6,062.99	88.6584	6,062.99	87.7846	6,062.99	87.4797	6,062.99	84.63	6,062.99	84.3197	6,062.99	81.7745	6,062.99	80.2609	6,062.99	78.967	6,062.99	78.5675	6,062.99	77.1735	6,062.99	79.8954	6,062.99	75.2554	6,062.99	72.2488	6,062.99	73.4175	6,062.99	77.206	6,062.99	70.4136	6,062.99	72.64	6,062.99	67.1649	6,062.99	71.6065	6,062.99	63.7831	6,062.99	63.516	6,062.99	59.2296	6,062.99	60.3396	6,062.99	58.4685	6,062.99	56.5797	6,062.99	61.1671	6,062.99	54.6669	6,062.99	58.5357	6,062.99	49.1036	6,062.99	57.8522	6,062.99	53.2479	6,062.99	51.5596	6,062.99	54.5215	6,062.99	61.6355	6,062.99	55.8972	6,062.99	62.0159
6,276.86	88.2954	6,276.86	87.9152	6,276.86	87.8322	6,276.86	84.426	6,276.86	85.4128	6,276.86	81.6256	6,276.86	80.2647	6,276.86	79.0114	6,276.86	80.8466	6,276.86	75.8828	6,276.86	78.2524	6,276.86	75.364	6,276.86	73.1655	6,276.86	73.0517	6,276.86	76.3459	6,276.86	69.3975	6,276.86	73.9528	6,276.86	67.3402	6,276.86	72.3095	6,276.86	62.7688	6,276.86	65.5721	6,276.86	59.2181	6,276.86	61.8334	6,276.86	59.5558	6,276.86	53.923	6,276.86	62.2939	6,276.86	47.8608	6,276.86	58.3306	6,276.86	53.4698	6,276.86	52.0742	6,276.86	50.5734	6,276.86	49.3581	6,276.86	54.5945	6,276.86	59.7007	6,276.86	59.1551	6,276.86	62.3532
6,498.05	88.3227	6,498.05	87.7218	6,498.05	87.0938	6,498.05	84.3453	6,498.05	84.7657	6,498.05	80.8708	6,498.05	82.5475	6,498.05	77.7167	6,498.05	80.0439	6,498.05	75.8542	6,498.05	77.9001	6,498.05	74.8667	6,498.05	73.9831	6,498.05	73.1017	6,498.05	76.3148	6,498.05	70.2276	6,498.05	72.4077	6,498.05	66.7393	6,498.05	68.1782	6,498.05	62.3869	6,498.05	66.974	6,498.05	58.4927	6,498.05	60.5649	6,498.05	57.2874	6,498.05	49.5258	6,498.05	62.4967	6,498.05	52.6013	6,498.05	55.9048	6,498.05	58.5249	6,498.05	50.2383	6,498.05	57.1479	6,498.05	51.7264	6,498.05	54.4852	6,498.05	59.7334	6,498.05	57.9503	6,498.05	61.5861
6,726.56	89.2174	6,726.56	88.3195	6,726.56	88.0898	6,726.56	84.5771	6,726.56	84.4152	6,726.56	80.8653	6,726.56	82.896	6,726.56	77.1429	6,726.56	78.216	6,726.56	76.3123	6,726.56	78.1539	6,726.56	75.3537	6,726.56	75.8594	6,726.56	73.336	6,726.56	75.946	6,726.56	69.1162	6,726.56	63.3394	6,726.56	64.6958	6,726.56	63.3129	6,726.56	60.9348	6,726.56	59.2734	6,726.56	58.0371	6,726.56	52.7883	6,726.56	57.4546	6,726.56	49.349	6,726.56	60.355	6,726.56	43.07	6,726.56	57.1918	6,726.56	55.3881	6,726.56	54.401	6,726.56	54.7832	6,726.56	47.6914	6,726.56	53.7186	6,726.56	59.6943	6,726.56	56.7637	6,726.56	61.418
6,963.87	88.3368	6,963.87	87.5061	6,963.87	88.7445	6,963.87	83.6993	6,963.87	86.2906	6,963.87	79.6246	6,963.87	81.8322	6,963.87	77.3051	6,963.87	78.9937	6,963.87	75.6051	6,963.87	79.4087	6,963.87	76.206	6,963.87	77.9681	6,963.87	71.8112	6,963.87	74.1668	6,963.87	67.9339	6,963.87	69.7608	6,963.87	65.2357	6,963.87	68.1077	6,963.87	60.2213	6,963.87	59.584	6,963.87	55.9968	6,963.87	44.1206	6,963.87	55.535	6,963.87	46.8408	6,963.87	58.4333	6,963.87	52.5325	6,963.87	54.0184	6,963.87	58.4075	6,963.87	54.0309	6,963.87	56.2004	6,963.87	45.422	6,963.87	50.4235	6,963.87	58.3955	6,963.87	59.3685	6,963.87	61.915
7,209.96	88.8191	7,209.96	87.4315	7,209.96	88.055	7,209.96	83.2386	7,209.96	86.1707	7,209.96	78.8529	7,209.96	81.3964	7,209.96	76.6508	7,209.96	80.751	7,209.96	77.4408	7,209.96	80.6981	7,209.96	74.775	7,209.96	78.7276	7,209.96	71.8729	7,209.96	66.299	7,209.96	65.5336	7,209.96	73.6126	7,209.96	61.2633	7,209.96	66.6414	7,209.96	56.0864	7,209.96	63.7103	7,209.96	52.1712	7,209.96	48.8948	7,209.96	54.2189	7,209.96	52.5864	7,209.96	57.0891	7,209.96	56.2082	7,209.96	51.3745	7,209.96	57.8874	7,209.96	54.4391	7,209.96	51.6773	7,209.96	41.5278	7,209.96	52.1078	7,209.96	57.3658	7,209.96	58.4645	7,209.96	59.2122
7,464.84	88.6462	7,464.84	86.7228	7,464.84	88.8539	7,464.84	82.478	7,464.84	86.1784	7,464.84	79.3021	7,464.84	82.9571	7,464.84	77.9287	7,464.84	82.3666	7,464.84	77.75	7,464.84	80.9269	7,464.84	74.7088	7,464.84	77.4379	7,464.84	70.0351	7,464.84	67.5947	7,464.84	63.8939	7,464.84	73.3649	7,464.84	58.6236	7,464.84	69.002	7,464.84	53.505	7,464.84	66.2259	7,464.84	52.7937	7,464.84	53.6479	7,464.84	55.8606	7,464.84	54.509	7,464.84	53.1412	7,464.84	55.1406	7,464.84	53.3205	7,464.84	58.7921	7,464.84	50.6749	7,464.84	50.2775	7,464.84	40.0706	7,464.84	45.1802	7,464.84	55.5506	7,464.84	56.5723	7,464.84	58.0032
7,727.05	88.1097	7,727.05	86.5435	7,727.05	87.971	7,727.05	82.2908	7,727.05	86.7058	7,727.05	78.6793	7,727.05	83.6954	7,727.05	78.857	7,727.05	82.1103	7,727.05	77.3286	7,727.05	81.1233	7,727.05	73.3578	7,727.05	74.6562	7,727.05	65.1755	7,727.05	71.6811	7,727.05	62.7257	7,727.05	69.178	7,727.05	58.436	7,727.05	67.8714	7,727.05	56.4146	7,727.05	64.6022	7,727.05	56.4476	7,727.05	46.2909	7,727.05	52.133	7,727.05	50.4832	7,727.05	50.9952	7,727.05	47.1502	7,727.05	54.5859	7,727.05	58.3207	7,727.05	41.3397	7,727.05	48.2099	7,727.05	46.874	7,727.05	49.4226	7,727.05	54.7288	7,727.05	57.8826	7,727.05	56.4388
7,999.51	88.9946	7,999.51	87.0186	7,999.51	88.6338	7,999.51	82.3471	7,999.51	85.7273	7,999.51	79.1515	7,999.51	83.427	7,999.51	79.0551	7,999.51	80.5255	7,999.51	76.8043	7,999.51	80.9373	7,999.51	71.3704	7,999.51	74.7348	7,999.51	66.5004	7,999.51	69.167	7,999.51	60.8536	7,999.51	66.3354	7,999.51	56.9312	7,999.51	67.6855	7,999.51	55.9063	7,999.51	60.9958	7,999.51	54.6684	7,999.51	54.1804	7,999.51	54.1572	7,999.51	51.0086	7,999.51	49.8941	7,999.51	48.6407	7,999.51	55.351	7,999.51	56.2899	7,999.51	49.7849	7,999.51	50.9774	7,999.51	50.8463	7,999.51	35.4238	7,999.51	47.4824	7,999.51	54.4528	7,999.51	57.2059
8,282.23	89.2754	8,282.23	87.0619	8,282.23	89.2874	8,282.23	82.8092	8,282.23	86.3079	8,282.23	79.3089	8,282.23	82.2852	8,282.23	79.089	8,282.23	80.8794	8,282.23	76.0416	8,282.23	79.4337	8,282.23	70.1188	8,282.23	75.7682	8,282.23	66.8639	8,282.23	58.9265	8,282.23	64.3943	8,282.23	70.829	8,282.23	62.54	8,282.23	64.0195	8,282.23	59.4855	8,282.23	60.4396	8,282.23	49.9769	8,282.23	45.0812	8,282.23	51.6451	8,282.23	33.0647	8,282.23	55.6935	8,282.23	46.7973	8,282.23	56.4485	8,282.23	57.6108	8,282.23	58.1674	8,282.23	53.1757	8,282.23	55.5199	8,282.23	51.3586	8,282.23	33.0915	8,282.23	53.1669	8,282.23	56.612
8,573.73	90.0423	8,573.73	87.7336	8,573.73	89.5029	8,573.73	83.3316	8,573.73	86.7074	8,573.73	80.1832	8,573.73	83.2472	8,573.73	79.3848	8,573.73	82.6469	8,573.73	75.0456	8,573.73	77.2983	8,573.73	70.2885	8,573.73	74.8268	8,573.73	68.098	8,573.73	69.1309	8,573.73	65.0801	8,573.73	72.3618	8,573.73	62.7183	8,573.73	68.2638	8,573.73	58.3138	8,573.73	63.1293	8,573.73	55.7775	8,573.73	56.8821	8,573.73	54.8059	8,573.73	49.7877	8,573.73	55.3832	8,573.73	41.0004	8,573.73	57.2284	8,573.73	55.1927	8,573.73	58.6919	8,573.73	52.5085	8,573.73	56.0733	8,573.73	41.3283	8,573.73	39.4228	8,573.73	55.2658	8,573.73	59.1873
8,876.95	90.0084	8,876.95	87.9546	8,876.95	89.6064	8,876.95	83.4695	8,876.95	86.5042	8,876.95	81.1241	8,876.95	83.8605	8,876.95	78.8578	8,876.95	81.8123	8,876.95	74.9516	8,876.95	76.7505	8,876.95	70.8678	8,876.95	73.7321	8,876.95	69.6094	8,876.95	72.5528	8,876.95	68.0013	8,876.95	72.3683	8,876.95	65.038	8,876.95	67.1996	8,876.95	60.2327	8,876.95	65.2532	8,876.95	56.808	8,876.95	58.3335	8,876.95	56.7594	8,876.95	47.7815	8,876.95	55.5122	8,876.95	51.3307	8,876.95	58.063	8,876.95	54.7387	8,876.95	59.7768	8,876.95	44.977	8,876.95	58.3276	8,876.95	52.2718	8,876.95	48.3004	8,876.95	48.9708	8,876.95	56.1752
9,188.96	90.3894	9,188.96	88.3465	9,188.96	89.8896	9,188.96	83.5971	9,188.96	86.5573	9,188.96	82.3349	9,188.96	84.0563	9,188.96	78.9908	9,188.96	81.238	9,188.96	73.7429	9,188.96	78.1788	9,188.96	71.8122	9,188.96	71.8604	9,188.96	71.2046	9,188.96	75.1927	9,188.96	69.2928	9,188.96	69.8932	9,188.96	64.7856	9,188.96	67.6405	9,188.96	61.1658	9,188.96	63.5739	9,188.96	58.9256	9,188.96	57.3513	9,188.96	56.4083	9,188.96	50.6235	9,188.96	57.0439	9,188.96	49.8264	9,188.96	58.0596	9,188.96	55.9353	9,188.96	59.4484	9,188.96	53.0169	9,188.96	57.0145	9,188.96	49.1001	9,188.96	48.9374	9,188.96	48.2531	9,188.96	59.366
9,514.16	89.5617	9,514.16	88.0267	9,514.16	89.7737	9,514.16	83.5919	9,514.16	86.769	9,514.16	83.0429	9,514.16	83.7394	9,514.16	78.764	9,514.16	82.0239	9,514.16	73.3794	9,514.16	79.0092	9,514.16	73.5705	9,514.16	73.8455	9,514.16	73.3764	9,514.16	76.5007	9,514.16	69.9797	9,514.16	71.2259	9,514.16	65.7477	9,514.16	68.383	9,514.16	61.3411	9,514.16	63.2533	9,514.16	57.2815	9,514.16	53.3383	9,514.16	56.6357	9,514.16	44.5024	9,514.16	54.1477	9,514.16	36.715	9,514.16	58.153	9,514.16	55.5542	9,514.16	59.1897	9,514.16	48.9242	9,514.16	59.2789	9,514.16	46.1699	9,514.16	51.6659	9,514.16	42.9793	9,514.16	57.5535
9,849.61	89.6524	9,849.61	87.4575	9,849.61	89.4494	9,849.61	83.8208	9,849.61	87.2455	9,849.61	83.2088	9,849.61	85.0409	9,849.61	78.8634	9,849.61	81.9609	9,849.61	73.394	9,849.61	76.1579	9,849.61	74.435	9,849.61	77.9313	9,849.61	73.4336	9,849.61	74.019	9,849.61	69.7363	9,849.61	69.9804	9,849.61	65.4578	9,849.61	65.6487	9,849.61	61.4654	9,849.61	61.8239	9,849.61	52.6289	9,849.61	49.6293	9,849.61	55.1938	9,849.61	51.3457	9,849.61	53.5071	9,849.61	47.3105	9,849.61	57.1359	9,849.61	53.3988	9,849.61	56.3934	9,849.61	52.3658	9,849.61	56.5125	9,849.61	46.0015	9,849.61	51.7353	9,849.61	49.4216	9,849.61	54.1671
10,196.8	89.7805	10,196.8	87.6716	10,196.8	89.6043	10,196.8	84.3505	10,196.8	87.5997	10,196.8	83.0888	10,196.8	86.2073	10,196.8	78.5897	10,196.8	83.1277	10,196.8	73.3314	10,196.8	77.4001	10,196.8	73.8651	10,196.8	77.9535	10,196.8	72.5582	10,196.8	73.916	10,196.8	65.5864	10,196.8	69.3131	10,196.8	60.9727	10,196.8	61.6708	10,196.8	55.6034	10,196.8	59.668	10,196.8	53.5546	10,196.8	38.4672	10,196.8	55.1313	10,196.8	55.5422	10,196.8	53.0035	10,196.8	52.6461	10,196.8	55.0787	10,196.8	52.3031	10,196.8	51.3229	10,196.8	50.1593	10,196.8	51.705	10,196.8	47.899	10,196.8	50.4354	10,196.8	47.3776	10,196.8	51.3926
10,555.7	89.8856	10,555.7	87.3076	10,555.7	89.7752	10,555.7	84.5832	10,555.7	87.3485	10,555.7	83.1488	10,555.7	86.4424	10,555.7	77.4829	10,555.7	81.7941	10,555.7	72.7875	10,555.7	78.0797	10,555.7	73.5441	10,555.7	76.1225	10,555.7	69.2852	10,555.7	72.3506	10,555.7	64.6826	10,555.7	68.9836	10,555.7	61.0717	10,555.7	64.7275	10,555.7	57.4211	10,555.7	56.4597	10,555.7	54.403	10,555.7	46.7269	10,555.7	52.1133	10,555.7	51.9387	10,555.7	51.9078	10,555.7	53.0896	10,555.7	53.0301	10,555.7	49.8753	10,555.7	49.3572	10,555.7	48.6837	10,555.7	48.4205	10,555.7	46.0025	10,555.7	50.4156	10,555.7	51.2261	10,555.7	47.701
10,927.7	89.9373	10,927.7	87.0231	10,927.7	89.6839	10,927.7	84.9501	10,927.7	87.8976	10,927.7	82.9299	10,927.7	85.5646	10,927.7	76.7337	10,927.7	81.9347	10,927.7	72.1393	10,927.7	76.6251	10,927.7	71.4064	10,927.7	73.2752	10,927.7	68.2539	10,927.7	72.9022	10,927.7	65.4907	10,927.7	61.1207	10,927.7	59.2624	10,927.7	66.4801	10,927.7	56.6704	10,927.7	57.9431	10,927.7	51.6296	10,927.7	51.9068	10,927.7	52.9089	10,927.7	48.3632	10,927.7	54.2391	10,927.7	53.8305	10,927.7	51.8703	10,927.7	50.34	10,927.7	45.5052	10,927.7	46.4772	10,927.7	50.7999	10,927.7	50.6277	10,927.7	55.0286	10,927.7	52.6253	10,927.7	39.4177
11,313	89.9862	11,313	86.5537	11,313	89.1856	11,313	85.16	11,313	88.3163	11,313	83.1224	11,313	85.5769	11,313	75.1835	11,313	81.8558	11,313	72.536	11,313	77.5119	11,313	69.9284	11,313	74.3421	11,313	66.9254	11,313	70.6954	11,313	64.4662	11,313	62.4406	11,313	58.3442	11,313	67.5428	11,313	55.2622	11,313	50.5882	11,313	52.9313	11,313	58.1135	11,313	49.1111	11,313	47.8541	11,313	52.4607	11,313	46.1995	11,313	48.0983	11,313	43.9413	11,313	44.1893	11,313	48.7199	11,313	43.3243	11,313	45.4704	11,313	53.5571	11,313	49.6775	11,313	31.0734
11,712.9	90.7667	11,712.9	87.2877	11,712.9	89.8303	11,712.9	85.6143	11,712.9	89.0364	11,712.9	82.9496	11,712.9	86.7471	11,712.9	73.5667	11,712.9	80.7154	11,712.9	73.3288	11,712.9	77.6963	11,712.9	69.8346	11,712.9	75.3017	11,712.9	65.6435	11,712.9	67.7767	11,712.9	59.7694	11,712.9	66.9994	11,712.9	53.5179	11,712.9	67.4586	11,712.9	49.9552	11,712.9	47.5783	11,712.9	48.1087	11,712.9	60.0062	11,712.9	44.5237	11,712.9	50.8369	11,712.9	45.974	11,712.9	47.9047	11,712.9	44.5621	11,712.9	45.6951	11,712.9	38.9233	11,712.9	46.0149	11,712.9	39.2735	11,712.9	45.1845	11,712.9	53.836	11,712.9	45.9367	11,712.9	39.9399
12,126	90.8251	12,126	87.6027	12,126	90.341	12,126	85.9747	12,126	89.6453	12,126	82.5214	12,126	85.6945	12,126	74.9362	12,126	80.9373	12,126	73.7462	12,126	79.5866	12,126	71.1803	12,126	74.7287	12,126	63.5127	12,126	70.1163	12,126	61.1494	12,126	65.0957	12,126	58.0511	12,126	67.753	12,126	51.4034	12,126	54.1095	12,126	51.1266	12,126	59.8413	12,126	46.6677	12,126	44.8176	12,126	49.5233	12,126	43.5211	12,126	38.5955	12,126	43.1801	12,126	43.6136	12,126	51.0382	12,126	42.9978	12,126	47.0797	12,126	52.4151	12,126	46.8838	12,126	39.2324
12,553.7	89.8594	12,553.7	87.0829	12,553.7	90.2659	12,553.7	85.7445	12,553.7	90.6552	12,553.7	81.9607	12,553.7	87.1869	12,553.7	75.9592	12,553.7	83.0274	12,553.7	73.6931	12,553.7	79.9525	12,553.7	69.8759	12,553.7	75.0923	12,553.7	62.6575	12,553.7	69.8381	12,553.7	60.91	12,553.7	66.3756	12,553.7	57.8788	12,553.7	71.1766	12,553.7	49.1888	12,553.7	62.468	12,553.7	52.8053	12,553.7	60.7873	12,553.7	47.8696	12,553.7	48.8026	12,553.7	52.7879	12,553.7	39.8479	12,553.7	41.6177	12,553.7	46.4531	12,553.7	42.6704	12,553.7	40.8628	12,553.7	47.3604	12,553.7	49.0245	12,553.7	45.7429	12,553.7	49.2103	12,553.7	44.6738
12,996.1	89.0084	12,996.1	86.5154	12,996.1	90.3704	12,996.1	84.9145	12,996.1	90.5162	12,996.1	79.6448	12,996.1	86.9144	12,996.1	75.8471	12,996.1	83.1457	12,996.1	72.0014	12,996.1	80.3185	12,996.1	66.4224	12,996.1	74.8741	12,996.1	61.6497	12,996.1	70.3706	12,996.1	59.3444	12,996.1	65.2175	12,996.1	53.4854	12,996.1	71.1222	12,996.1	50.1812	12,996.1	63.9932	12,996.1	51.8397	12,996.1	57.6894	12,996.1	45.52	12,996.1	49.3852	12,996.1	51.7554	12,996.1	33.3906	12,996.1	42.7732	12,996.1	38.998	12,996.1	28.1089	12,996.1	43.8505	12,996.1	46.3711	12,996.1	42.7275	12,996.1	46.1437	12,996.1	47.8269	12,996.1	34.7466
13,454.6	91.319	13,454.6	88.7354	13,454.6	92.0279	13,454.6	85.6065	13,454.6	90.8022	13,454.6	79.0173	13,454.6	86.2425	13,454.6	74.9703	13,454.6	82.7196	13,454.6	68.674	13,454.6	77.4769	13,454.6	63.5591	13,454.6	71.8068	13,454.6	60.9531	13,454.6	66.417	13,454.6	59.8469	13,454.6	65.2977	13,454.6	55.9534	13,454.6	71.0472	13,454.6	50.4342	13,454.6	64.5681	13,454.6	48.4242	13,454.6	52.3465	13,454.6	42.9921	13,454.6	45.4662	13,454.6	47.2078	13,454.6	30.7461	13,454.6	42.52	13,454.6	35.4337	13,454.6	34.1249	13,454.6	44.008	13,454.6	47.4454	13,454.6	40.6058	13,454.6	47.4651	13,454.6	46.1534	13,454.6	39.1329
13,929.2	93.7741	13,929.2	90.4021	13,929.2	93.8044	13,929.2	86.6465	13,929.2	91.838	13,929.2	79.3944	13,929.2	86.7261	13,929.2	74.091	13,929.2	82.995	13,929.2	67.1223	13,929.2	75.5448	13,929.2	66.711	13,929.2	74.2511	13,929.2	64.7111	13,929.2	68.6205	13,929.2	63.0428	13,929.2	66.6807	13,929.2	59.5765	13,929.2	73.6061	13,929.2	51.593	13,929.2	64.1379	13,929.2	51.1333	13,929.2	57.4263	13,929.2	46.698	13,929.2	45.2771	13,929.2	47.4116	13,929.2	35.3486	13,929.2	41.1954	13,929.2	28.6872	13,929.2	40.6866	13,929.2	40.6312	13,929.2	50.7718	13,929.2	44.8508	13,929.2	40.0897	13,929.2	44.4413	13,929.2	38.3406
14,419.9	93.9747	14,419.9	90.3289	14,419.9	93.8002	14,419.9	86.0857	14,419.9	91.5712	14,419.9	78.987	14,419.9	86.2691	14,419.9	74.1107	14,419.9	81.3838	14,419.9	68.0664	14,419.9	77.6133	14,419.9	68.054	14,419.9	72.9425	14,419.9	66.2381	14,419.9	68.9178	14,419.9	62.411	14,419.9	65.0657	14,419.9	57.0269	14,419.9	73.4378	14,419.9	46.7529	14,419.9	61.9841	14,419.9	50.4169	14,419.9	57.7427	14,419.9	44.2256	14,419.9	37.1564	14,419.9	45.5334	14,419.9	41.6016	14,419.9	39.8223	14,419.9	32.5395	14,419.9	43.9984	14,419.9	43.758	14,419.9	46.8234	14,419.9	43.2661	14,419.9	45.8706	14,419.9	41.8291	14,419.9	39.5935
14,928.2	93.5213	14,928.2	89.9592	14,928.2	92.9799	14,928.2	85.645	14,928.2	90.5381	14,928.2	79.5814	14,928.2	84.0902	14,928.2	74.991	14,928.2	80.8119	14,928.2	68.3027	14,928.2	75.9331	14,928.2	67.8199	14,928.2	72.1487	14,928.2	65.572	14,928.2	67.6902	14,928.2	58.5176	14,928.2	65.9396	14,928.2	52.3548	14,928.2	72.697	14,928.2	39.3195	14,928.2	63.2755	14,928.2	49.2026	14,928.2	56.8816	14,928.2	36.333	14,928.2	44.6703	14,928.2	46.153	14,928.2	44.0727	14,928.2	39.7586	14,928.2	43.4995	14,928.2	39.7331	14,928.2	46.2765	14,928.2	49.6424	14,928.2	40.8176	14,928.2	48.8245	14,928.2	41.1754	14,928.2	39.326
15,455.6	93.0053	15,455.6	89.395	15,455.6	93.0346	15,455.6	85.0412	15,455.6	90.9204	15,455.6	78.3988	15,455.6	84.9232	15,455.6	73.8794	15,455.6	81.5919	15,455.6	63.8836	15,455.6	75.3483	15,455.6	67.1385	15,455.6	73.1896	15,455.6	62.3473	15,455.6	67.021	15,455.6	52.1785	15,455.6	62.8841	15,455.6	45.9326	15,455.6	73.529	15,455.6	38.9872	15,455.6	65.7044	15,455.6	40.1557	15,455.6	54.8302	15,455.6	38.3011	15,455.6	48.2035	15,455.6	44.4242	15,455.6	40.612	15,455.6	35.2205	15,455.6	43.9318	15,455.6	45.545	15,455.6	36.991	15,455.6	48.3805	15,455.6	44.4417	15,455.6	46.4945	15,455.6	45.326	15,455.6	42.1771
16,000.5	92.7709	16,000.5	88.8214	16,000.5	93.5753	16,000.5	83.186	16,000.5	91.2008	16,000.5	75.5067	16,000.5	85.115	16,000.5	70.7496	16,000.5	81.1708	16,000.5	56.3307	16,000.5	74.9662	16,000.5	66.0132	16,000.5	72.4644	16,000.5	40.3345	16,000.5	67.2449	16,000.5	52.4452	16,000.5	62.1553	16,000.5	47.1513	16,000.5	72.885	16,000.5	41.3274	16,000.5	63.6913	16,000.5	42.6787	16,000.5	53.9197	16,000.5	30.2194	16,000.5	45.2261	16,000.5	38.5447	16,000.5	35.805	16,000.5	31.6798	16,000.5	44.6467	16,000.5	46.8651	16,000.5	42.1753	16,000.5	42.6959	16,000.5	46.2147	16,000.5	48.2095	16,000.5	43.2639	16,000.5	44.0511
16,564.5	92.8578	16,564.5	88.1807	16,564.5	93.8609	16,564.5	79.6953	16,564.5	91.5664	16,564.5	72.7486	16,564.5	85.5544	16,564.5	61.8774	16,564.5	81.209	16,564.5	66.3985	16,564.5	75.8395	16,564.5	60.4882	16,564.5	74.5859	16,564.5	62.6565	16,564.5	68.6363	16,564.5	57.4853	16,564.5	62.3646	16,564.5	50.1392	16,564.5	71.7093	16,564.5	42.4667	16,564.5	62.8099	16,564.5	47.5321	16,564.5	53.5675	16,564.5	22.6235	16,564.5	45.5181	16,564.5	39.9111	16,564.5	35.6031	16,564.5	40.4559	16,564.5	48.8711	16,564.5	42.6229	16,564.5	42.9129	16,564.5	38.4	16,564.5	45.283	16,564.5	53.1076	16,564.5	36.7258	16,564.5	43.9136
17,148.9	93.8367	17,148.9	87.7373	17,148.9	94.629	17,148.9	73.3166	17,148.9	92.0262	17,148.9	76.2075	17,148.9	85.3426	17,148.9	68.4396	17,148.9	82.186	17,148.9	70.4775	17,148.9	76.8302	17,148.9	61.6511	17,148.9	73.6372	17,148.9	65.7742	17,148.9	69.3869	17,148.9	59.6147	17,148.9	58.925	17,148.9	53.5142	17,148.9	72.3173	17,148.9	49.6066	17,148.9	63.5553	17,148.9	49.2759	17,148.9	57.8875	17,148.9	43.9766	17,148.9	49.2304	17,148.9	25.7268	17,148.9	40.6661	17,148.9	44.9425	17,148.9	53.9873	17,148.9	44.1801	17,148.9	37.8215	17,148.9	53.7409	17,148.9	49.5159	17,148.9	54.3852	17,148.9	30.5666	17,148.9	48.1333
17,752.4	94.5041	17,752.4	87.3015	17,752.4	95.5186	17,752.4	77.6212	17,752.4	93.2731	17,752.4	81.4635	17,752.4	86.2908	17,752.4	74.113	17,752.4	83.5237	17,752.4	71.4611	17,752.4	78.6693	17,752.4	68.1096	17,752.4	74.3153	17,752.4	67.399	17,752.4	71.2365	17,752.4	60.6962	17,752.4	61.3432	17,752.4	55.6131	17,752.4	71.645	17,752.4	50.8089	17,752.4	61.9309	17,752.4	47.8557	17,752.4	60.143	17,752.4	47.3814	17,752.4	50.446	17,752.4	33.3439	17,752.4	40.4754	17,752.4	48.8806	17,752.4	55.5301	17,752.4	50.2211	17,752.4	49.6407	17,752.4	54.8591	17,752.4	49.9154	17,752.4	54.9303	17,752.4	42.1533	17,752.4	46.1506
18,379.4	91.5175	18,379.4	85.3681	18,379.4	94.0805	18,379.4	82.2781	18,379.4	91.8385	18,379.4	82.6777	18,379.4	83.8081	18,379.4	74.1356	18,379.4	81.9312	18,379.4	68.6611	18,379.4	77.7492	18,379.4	67.7651	18,379.4	73.92	18,379.4	66.3434	18,379.4	70.7993	18,379.4	57.5984	18,379.4	60.0326	18,379.4	54.075	18,379.4	66.3149	18,379.4	45.098	18,379.4	61.3399	18,379.4	44.0177	18,379.4	57.6047	18,379.4	44.8201	18,379.4	47.7571	18,379.4	31.4207	18,379.4	45.6857	18,379.4	48.3831	18,379.4	55.0368	18,379.4	50.0165	18,379.4	51.7647	18,379.4	47.8919	18,379.4	50.1555	18,379.4	49.9145	18,379.4	46.1987	18,379.4	45.9166
19,026.9	80.7227	19,026.9	85.548	19,026.9	88.4169	19,026.9	78.7394	19,026.9	83.3047	19,026.9	75.8204	19,026.9	80.4761	19,026.9	58.6188	19,026.9	79.9685	19,026.9	64.8226	19,026.9	77.0971	19,026.9	53.3555	19,026.9	73.5805	19,026.9	49.6119	19,026.9	69.2101	19,026.9	52.327	19,026.9	62.8877	19,026.9	43.3478	19,026.9	65.7299	19,026.9	44.1547	19,026.9	66.6907	19,026.9	35.1426	19,026.9	58.2197	19,026.9	44.0677	19,026.9	46.121	19,026.9	42.3146	19,026.9	46.2979	19,026.9	42.7118	19,026.9	50.5631	19,026.9	45.4007	19,026.9	49.625	19,026.9	26.6895	19,026.9	49.425	19,026.9	45.9766	19,026.9	44.0495	19,026.9	34.8605
19,697.8	80.1922	19,697.8	84.4697	19,697.8	78.5761	19,697.8	72.8134	19,697.8	84.4874	19,697.8	79.5681	19,697.8	84.288	19,697.8	77.4459	19,697.8	82.4618	19,697.8	73.7781	19,697.8	77.6715	19,697.8	68.3978	19,697.8	72.7122	19,697.8	63.5816	19,697.8	67.752	19,697.8	63.8607	19,697.8	63.1373	19,697.8	57.1147	19,697.8	71.2878	19,697.8	48.6415	19,697.8	72.4244	19,697.8	36.908	19,697.8	62.6266	19,697.8	50.326	19,697.8	47.5764	19,697.8	47.3401	19,697.8	43.6209	19,697.8	50.9739	19,697.8	50.6384	19,697.8	46.9636	19,697.8	44.6656	19,697.8	41.0707	19,697.8	50.8958	19,697.8	48.7991	19,697.8	48.6737	19,697.8	44.9337
19,999.5	79.9636	19,999.5	81.8992	19,999.5	60.0937	19,999.5	78.5751	19,999.5	86.4479	19,999.5	82.3595	19,999.5	85.0217	19,999.5	78.6191	19,999.5	81.2823	19,999.5	74.4967	19,999.5	76.2968	19,999.5	71.0089	19,999.5	68.9508	19,999.5	65.6148	19,999.5	67.6054	19,999.5	64.3154	19,999.5	63.4778	19,999.5	60.1052	19,999.5	71.426	19,999.5	47.8443	19,999.5	72.9218	19,999.5	50.4453	19,999.5	63.7617	19,999.5	54.7594	19,999.5	54.2518	19,999.5	49.471	19,999.5	48.7624	19,999.5	57.4341	19,999.5	57.0899	19,999.5	45.8606	19,999.5	45.7257	19,999.5	46.7855	19,999.5	55.6269	19,999.5	50.4947	19,999.5	48.5681	19,999.5	50.2146
