"SPL Horizontal"
"On-Axis"		"10°"		"-10°"		"20°"		"-20°"		"30°"		"-30°"		"40°"		"-40°"		"50°"		"-50°"		"60°"		"-60°"		"70°"		"-70°"		"80°"		"-80°"		"90°"		"-90°"		"100°"		"-100°"		"110°"		"-110°"		"120°"		"-120°"		"130°"		"-130°"		"140°"		"-140°"		"150°"		"-150°"		"160°"		"-160°"		"170°"		"-170°"		"180°"
"Frequency [Hz]"	"Sound Pessure Level [dB]  / [2.83V 1m] "	"Frequency [Hz]"	"Sound Pessure Level [dB]  / [2.83V 1m] "	"Frequency [Hz]"	"Sound Pessure Level [dB]  / [2.83V 1m] "	"Frequency [Hz]"	"Sound Pessure Level [dB]  / [2.83V 1m] "	"Frequency [Hz]"	"Sound Pessure Level [dB]  / [2.83V 1m] "	"Frequency [Hz]"	"Sound Pessure Level [dB]  / [2.83V 1m] "	"Frequency [Hz]"	"Sound Pessure Level [dB]  / [2.83V 1m] "	"Frequency [Hz]"	"Sound Pessure Level [dB]  / [2.83V 1m] "	"Frequency [Hz]"	"Sound Pessure Level [dB]  / [2.83V 1m] "	"Frequency [Hz]"	"Sound Pessure Level [dB]  / [2.83V 1m] "	"Frequency [Hz]"	"Sound Pessure Level [dB]  / [2.83V 1m] "	"Frequency [Hz]"	"Sound Pessure Level [dB]  / [2.83V 1m] "	"Frequency [Hz]"	"Sound Pessure Level [dB]  / [2.83V 1m] "	"Frequency [Hz]"	"Sound Pessure Level [dB]  / [2.83V 1m] "	"Frequency [Hz]"	"Sound Pessure Level [dB]  / [2.83V 1m] "	"Frequency [Hz]"	"Sound Pessure Level [dB]  / [2.83V 1m] "	"Frequency [Hz]"	"Sound Pessure Level [dB]  / [2.83V 1m] "	"Frequency [Hz]"	"Sound Pessure Level [dB]  / [2.83V 1m] "	"Frequency [Hz]"	"Sound Pessure Level [dB]  / [2.83V 1m] "	"Frequency [Hz]"	"Sound Pessure Level [dB]  / [2.83V 1m] "	"Frequency [Hz]"	"Sound Pessure Level [dB]  / [2.83V 1m] "	"Frequency [Hz]"	"Sound Pessure Level [dB]  / [2.83V 1m] "	"Frequency [Hz]"	"Sound Pessure Level [dB]  / [2.83V 1m] "	"Frequency [Hz]"	"Sound Pessure Level [dB]  / [2.83V 1m] "	"Frequency [Hz]"	"Sound Pessure Level [dB]  / [2.83V 1m] "	"Frequency [Hz]"	"Sound Pessure Level [dB]  / [2.83V 1m] "	"Frequency [Hz]"	"Sound Pessure Level [dB]  / [2.83V 1m] "	"Frequency [Hz]"	"Sound Pessure Level [dB]  / [2.83V 1m] "	"Frequency [Hz]"	"Sound Pessure Level [dB]  / [2.83V 1m] "	"Frequency [Hz]"	"Sound Pessure Level [dB]  / [2.83V 1m] "	"Frequency [Hz]"	"Sound Pessure Level [dB]  / [2.83V 1m] "	"Frequency [Hz]"	"Sound Pessure Level [dB]  / [2.83V 1m] "	"Frequency [Hz]"	"Sound Pessure Level [dB]  / [2.83V 1m] "	"Frequency [Hz]"	"Sound Pessure Level [dB]  / [2.83V 1m] "	"Frequency [Hz]"	"Sound Pessure Level [dB]  / [2.83V 1m] "	"Frequency [Hz]"	"Sound Pessure Level [dB]  / [2.83V 1m] "
20.5078	79.0277	20.5078	78.8618	20.5078	79.1839	20.5078	78.6919	20.5078	79.3245	20.5078	78.5234	20.5078	79.4437	20.5078	78.3613	20.5078	79.5359	20.5078	78.2101	20.5078	79.596	20.5078	78.0738	20.5078	79.6201	20.5078	77.9558	20.5078	79.6059	20.5078	77.8587	20.5078	79.5527	20.5078	77.7841	20.5078	79.4624	20.5078	77.7327	20.5078	79.3392	20.5078	77.7042	20.5078	79.1895	20.5078	77.6976	20.5078	79.0212	20.5078	77.7116	20.5078	78.8431	20.5078	77.7448	20.5078	78.6639	20.5078	77.7963	20.5078	78.4911	20.5078	77.8659	20.5078	78.3306	20.5078	77.9538	20.5078	78.1864	20.5078	78.0606
21.9727	81.6501	21.9727	81.4942	21.9727	81.7967	21.9727	81.3336	21.9727	81.9288	21.9727	81.1733	21.9727	82.0414	21.9727	81.0176	21.9727	82.1296	21.9727	80.8707	21.9727	82.1888	21.9727	80.7365	21.9727	82.2152	21.9727	80.6184	21.9727	82.2063	21.9727	80.519	21.9727	82.1613	21.9727	80.4405	21.9727	82.0814	21.9727	80.3842	21.9727	81.9698	21.9727	80.3507	21.9727	81.832	21.9727	80.3397	21.9727	81.6747	21.9727	80.3508	21.9727	81.5054	21.9727	80.3833	21.9727	81.3319	21.9727	80.4368	21.9727	81.1612	21.9727	80.5107	21.9727	80.9992	21.9727	80.6047	21.9727	80.8505	21.9727	80.7184
23.4375	83.6376	23.4375	83.5023	23.4375	83.7666	23.4375	83.3649	23.4375	83.8846	23.4375	83.2293	23.4375	83.9866	23.4375	83.0987	23.4375	84.0674	23.4375	82.9758	23.4375	84.1221	23.4375	82.8629	23.4375	84.1465	23.4375	82.7617	23.4375	84.1377	23.4375	82.6735	23.4375	84.0945	23.4375	82.5993	23.4375	84.0177	23.4375	82.5398	23.4375	83.9105	23.4375	82.496	23.4375	83.7779	23.4375	82.4688	23.4375	83.6266	23.4375	82.4594	23.4375	83.464	23.4375	82.4693	23.4375	83.2977	23.4375	82.4999	23.4375	83.1349	23.4375	82.5523	23.4375	82.982	23.4375	82.6274	23.4375	82.8441	23.4375	82.7251
24.9023	85.2628	24.9023	85.1021	24.9023	85.416	24.9023	84.9394	24.9023	85.5555	24.9023	84.7797	24.9023	85.6752	24.9023	84.6272	24.9023	85.7693	24.9023	84.4851	24.9023	85.8327	24.9023	84.3561	24.9023	85.8615	24.9023	84.2423	24.9023	85.8532	24.9023	84.1452	24.9023	85.8073	24.9023	84.0662	24.9023	85.7251	24.9023	84.0062	24.9023	85.61	24.9023	83.9661	24.9023	85.4673	24.9023	83.9466	24.9023	85.3037	24.9023	83.9483	24.9023	85.1267	24.9023	83.9721	24.9023	84.9444	24.9023	84.0187	24.9023	84.7642	24.9023	84.0885	24.9023	84.593	24.9023	84.1819	24.9023	84.4363	24.9023	84.2984
26.3672	87.0755	26.3672	86.9302	26.3672	87.2138	26.3672	86.7829	26.3672	87.3398	26.3672	86.6379	26.3672	87.4484	26.3672	86.4989	26.3672	87.5345	26.3672	86.369	26.3672	87.5933	26.3672	86.2505	26.3672	87.6211	26.3672	86.1452	26.3672	87.6155	26.3672	86.0548	26.3672	87.5756	26.3672	85.9805	26.3672	87.5024	26.3672	85.9235	26.3672	87.3989	26.3672	85.8847	26.3672	87.2699	26.3672	85.865	26.3672	87.1212	26.3672	85.8655	26.3672	86.9598	26.3672	85.887	26.3672	86.7928	26.3672	85.9304	26.3672	86.6269	26.3672	85.996	26.3672	86.4685	26.3672	86.084	26.3672	86.3226	26.3672	86.1935
27.832	89.0438	27.832	88.8975	27.832	89.1822	27.832	88.7478	27.832	89.3078	27.832	88.5991	27.832	89.4158	27.832	88.4553	27.832	89.5012	27.832	88.3201	27.832	89.5595	27.832	88.1968	27.832	89.5871	27.832	88.0884	27.832	89.5815	27.832	87.9971	27.832	89.5423	27.832	87.9248	27.832	89.4709	27.832	87.8726	27.832	89.3705	27.832	87.8413	27.832	89.246	27.832	87.8311	27.832	89.1032	27.832	87.842	27.832	88.9488	27.832	87.8741	27.832	88.7889	27.832	87.9269	27.832	88.6298	27.832	88.0003	27.832	88.4766	27.832	88.0935	27.832	88.3339	27.832	88.2053
29.2969	90.46	29.2969	90.3044	29.2969	90.6075	29.2969	90.146	29.2969	90.7415	29.2969	89.9894	29.2969	90.8565	29.2969	89.8388	29.2969	90.9472	29.2969	89.6976	29.2969	91.0087	29.2969	89.5685	29.2969	91.0372	29.2969	89.4537	29.2969	91.0303	29.2969	89.355	29.2969	90.9875	29.2969	89.2741	29.2969	90.9102	29.2969	89.2127	29.2969	90.8018	29.2969	89.1723	29.2969	90.6674	29.2969	89.1546	29.2969	90.5133	29.2969	89.1608	29.2969	90.3466	29.2969	89.1913	29.2969	90.1743	29.2969	89.246	29.2969	90.0028	29.2969	89.3244	29.2969	89.8379	29.2969	89.4248	29.2969	89.6843	29.2969	89.5456
30.7617	92.1729	30.7617	92.0318	30.7617	92.3079	30.7617	91.8892	30.7617	92.4319	30.7617	91.7497	30.7617	92.5395	30.7617	91.617	30.7617	92.6259	30.7617	91.4945	30.7617	92.6861	30.7617	91.3849	30.7617	92.7164	30.7617	91.2901	30.7617	92.7142	30.7617	91.2114	30.7617	92.6787	30.7617	91.1496	30.7617	92.611	30.7617	91.1051	30.7617	92.5143	30.7617	91.0781	30.7617	92.3935	30.7617	91.0688	30.7617	92.2546	30.7617	91.0775	30.7617	92.1045	30.7617	91.1045	30.7617	91.95	30.7617	91.1502	30.7617	91.7973	30.7617	91.2147	30.7617	91.652	30.7617	91.298	30.7617	91.5183	30.7617	91.3997
32.2266	93.3925	32.2266	93.2386	32.2266	93.5391	32.2266	93.0824	32.2266	93.673	32.2266	92.9284	32.2266	93.7889	32.2266	92.7809	32.2266	93.8814	32.2266	92.6436	32.2266	93.9457	32.2266	92.5199	32.2266	93.9779	32.2266	92.4125	32.2266	93.9756	32.2266	92.3238	32.2266	93.9379	32.2266	92.2552	32.2266	93.8662	32.2266	92.2077	32.2266	93.7637	32.2266	92.1814	32.2266	93.6356	32.2266	92.1761	32.2266	93.4881	32.2266	92.1914	32.2266	93.3283	32.2266	92.227	32.2266	93.1632	32.2266	92.2824	32.2266	92.9992	32.2266	92.3576	32.2266	92.8421	32.2266	92.4523	32.2266	92.6964	32.2266	92.5657
33.6914	94.7605	33.6914	94.6033	33.6914	94.9098	33.6914	94.4434	33.6914	95.0458	33.6914	94.2852	33.6914	95.1632	33.6914	94.1333	33.6914	95.2567	33.6914	93.9912	33.6914	95.3216	33.6914	93.8623	33.6914	95.354	33.6914	93.7493	33.6914	95.3515	33.6914	93.6544	33.6914	95.3133	33.6914	93.5795	33.6914	95.2408	33.6914	93.5259	33.6914	95.137	33.6914	93.4946	33.6914	95.0072	33.6914	93.4861	33.6914	94.8574	33.6914	93.5007	33.6914	94.6947	33.6914	93.5382	33.6914	94.5257	33.6914	93.5982	33.6914	94.3571	33.6914	93.6799	33.6914	94.1943	33.6914	93.7822	33.6914	94.0419	33.6914	93.9036
35.1562	95.8093	35.1562	95.6548	35.1562	95.9548	35.1562	95.4961	35.1562	96.0862	35.1562	95.3379	35.1562	96.1984	35.1562	95.1842	35.1562	96.2864	35.1562	95.039	35.1562	96.3456	35.1562	94.9058	35.1562	96.3726	35.1562	94.7875	35.1562	96.3648	35.1562	94.6869	35.1562	96.3219	35.1562	94.606	35.1562	96.2451	35.1562	94.5465	35.1562	96.1379	35.1562	94.5098	35.1562	96.0051	35.1562	94.4966	35.1562	95.8533	35.1562	94.5073	35.1562	95.6891	35.1562	94.5416	35.1562	95.5196	35.1562	94.5991	35.1562	95.3509	35.1562	94.6789	35.1562	95.1885	35.1562	94.7797	35.1562	95.0369	35.1562	94.8997
36.6211	96.5131	36.6211	96.3604	36.6211	96.6574	36.6211	96.2039	36.6211	96.7881	36.6211	96.0482	36.6211	96.9001	36.6211	95.8975	36.6211	96.9883	36.6211	95.7555	36.6211	97.0483	36.6211	95.6256	36.6211	97.0765	36.6211	95.5106	36.6211	97.0704	36.6211	95.4131	36.6211	97.0295	36.6211	95.3351	36.6211	96.9551	36.6211	95.2781	36.6211	96.8504	36.6211	95.2434	36.6211	96.7204	36.6211	95.2315	36.6211	96.5713	36.6211	95.2429	36.6211	96.4099	36.6211	95.2774	36.6211	96.2429	36.6211	95.3345	36.6211	96.0766	36.6211	95.4135	36.6211	95.9165	36.6211	95.513	36.6211	95.7669	36.6211	95.6315
38.0859	97.0254	38.0859	96.8716	38.0859	97.1708	38.0859	96.7142	38.0859	97.3026	38.0859	96.5579	38.0859	97.4154	38.0859	96.4068	38.0859	97.5043	38.0859	96.2646	38.0859	97.5645	38.0859	96.1346	38.0859	97.5925	38.0859	96.0196	38.0859	97.5859	38.0859	95.9222	38.0859	97.5442	38.0859	95.8442	38.0859	97.4688	38.0859	95.7872	38.0859	97.363	38.0859	95.7524	38.0859	97.232	38.0859	95.7404	38.0859	97.082	38.0859	95.7516	38.0859	96.9198	38.0859	95.7859	38.0859	96.7522	38.0859	95.8428	38.0859	96.5855	38.0859	95.9216	38.0859	96.4251	38.0859	96.0211	38.0859	96.2753	38.0859	96.1397
39.5508	97.2693	39.5508	97.1153	39.5508	97.4145	39.5508	96.9577	39.5508	97.546	39.5508	96.8012	39.5508	97.6583	39.5508	96.65	39.5508	97.7465	39.5508	96.5079	39.5508	97.8063	39.5508	96.3782	39.5508	97.8339	39.5508	96.2639	39.5508	97.8273	39.5508	96.1673	39.5508	97.7859	39.5508	96.0903	39.5508	97.7112	39.5508	96.0344	39.5508	97.6064	39.5508	96.0007	39.5508	97.4765	39.5508	95.9897	39.5508	97.3278	39.5508	96.0018	39.5508	97.1669	39.5508	96.0369	39.5508	97.0006	39.5508	96.0944	39.5508	96.8351	39.5508	96.1735	39.5508	96.6756	39.5508	96.2731	39.5508	96.5265	39.5508	96.3915
41.0156	97.4047	41.0156	97.2457	41.0156	97.5539	41.0156	97.0822	41.0156	97.688	41.0156	96.919	41.0156	97.8017	41.0156	96.7607	41.0156	97.8898	41.0156	96.6116	41.0156	97.9482	41.0156	96.4754	41.0156	97.9733	41.0156	96.3554	41.0156	97.9633	41.0156	96.2544	41.0156	97.9182	41.0156	96.1746	41.0156	97.8396	41.0156	96.1177	41.0156	97.7313	41.0156	96.0848	41.0156	97.5986	41.0156	96.0763	41.0156	97.4478	41.0156	96.0923	41.0156	97.2857	41.0156	96.1321	41.0156	97.1187	41.0156	96.1948	41.0156	96.9527	41.0156	96.279	41.0156	96.7925	41.0156	96.3829	41.0156	96.6421	41.0156	96.5047
42.4805	97.4911	42.4805	97.3369	42.4805	97.6362	42.4805	97.1784	42.4805	97.7669	42.4805	97.0203	42.4805	97.878	42.4805	96.867	42.4805	97.9647	42.4805	96.7224	42.4805	98.0225	42.4805	96.5899	42.4805	98.0479	42.4805	96.4727	42.4805	98.0388	42.4805	96.3734	42.4805	97.9947	42.4805	96.2941	42.4805	97.9172	42.4805	96.2364	42.4805	97.8097	42.4805	96.2015	42.4805	97.6775	42.4805	96.1898	42.4805	97.5268	42.4805	96.2016	42.4805	97.3645	42.4805	96.2365	42.4805	97.1973	42.4805	96.2938	42.4805	97.0315	42.4805	96.3725	42.4805	96.8721	42.4805	96.4715	42.4805	96.7236	42.4805	96.5892
43.9453	97.5362	43.9453	97.3827	43.9453	97.6799	43.9453	97.2242	43.9453	97.8086	43.9453	97.0656	43.9453	97.9172	43.9453	96.911	43.9453	98.0009	43.9453	96.7644	43.9453	98.0554	43.9453	96.6295	43.9453	98.0772	43.9453	96.5095	43.9453	98.0643	43.9453	96.4071	43.9453	98.0166	43.9453	96.3246	43.9453	97.9359	43.9453	96.2638	43.9453	97.8257	43.9453	96.226	43.9453	97.6915	43.9453	96.2119	43.9453	97.5397	43.9453	96.2216	43.9453	97.3771	43.9453	96.255	43.9453	97.2102	43.9453	96.3113	43.9453	97.0451	43.9453	96.3895	43.9453	96.8867	43.9453	96.488	43.9453	96.739	43.9453	96.6052
45.4102	97.4738	45.4102	97.3186	45.4102	97.6195	45.4102	97.1588	45.4102	97.7505	45.4102	96.9994	45.4102	97.8615	45.4102	96.8446	45.4102	97.9476	45.4102	96.6987	45.4102	98.0044	45.4102	96.5652	45.4102	98.0283	45.4102	96.4475	45.4102	98.0173	45.4102	96.3481	45.4102	97.9712	45.4102	96.2693	45.4102	97.8918	45.4102	96.2127	45.4102	97.7829	45.4102	96.1792	45.4102	97.65	45.4102	96.1695	45.4102	97.4995	45.4102	96.1833	45.4102	97.3385	45.4102	96.2202	45.4102	97.1736	45.4102	96.2792	45.4102	97.0105	45.4102	96.3591	45.4102	96.854	45.4102	96.4584	45.4102	96.708	45.4102	96.5753
46.875	97.4678	46.875	97.3107	46.875	97.6156	46.875	97.1493	46.875	97.7486	46.875	96.9886	46.875	97.8616	46.875	96.8332	46.875	97.9495	46.875	96.6872	46.875	98.0077	46.875	96.5542	46.875	98.0329	46.875	96.4376	46.875	98.0229	46.875	96.3398	46.875	97.9776	46.875	96.263	46.875	97.8987	46.875	96.2085	46.875	97.7901	46.875	96.1773	46.875	97.6572	46.875	96.1696	46.875	97.5065	46.875	96.1852	46.875	97.3452	46.875	96.2235	46.875	97.1798	46.875	96.2835	46.875	97.0162	46.875	96.364	46.875	96.8594	46.875	96.4635	46.875	96.7132	46.875	96.5805
48.3398	97.455	48.3398	97.2965	48.3398	97.6039	48.3398	97.1337	48.3398	97.7379	48.3398	96.9716	48.3398	97.8517	48.3398	96.8149	48.3398	97.9403	48.3398	96.6678	48.3398	97.9993	48.3398	96.5341	48.3398	98.0251	48.3398	96.4172	48.3398	98.016	48.3398	96.3196	48.3398	97.9717	48.3398	96.2434	48.3398	97.894	48.3398	96.1901	48.3398	97.7868	48.3398	96.1604	48.3398	97.6553	48.3398	96.1546	48.3398	97.5061	48.3398	96.1724	48.3398	97.3459	48.3398	96.2131	48.3398	97.1813	48.3398	96.2755	48.3398	97.018	48.3398	96.3584	48.3398	96.8608	48.3398	96.4602	48.3398	96.7135	48.3398	96.5792
51.2695	97.4435	51.2695	97.2826	51.2695	97.5938	51.2695	97.1164	51.2695	97.7281	51.2695	96.9502	51.2695	97.8411	51.2695	96.7889	51.2695	97.9279	51.2695	96.6371	51.2695	97.9844	51.2695	96.4991	51.2695	98.0074	51.2695	96.3785	51.2695	97.9951	51.2695	96.2781	51.2695	97.9477	51.2695	96.2002	51.2695	97.8672	51.2695	96.1463	51.2695	97.7577	51.2695	96.1172	51.2695	97.6245	51.2695	96.1129	51.2695	97.4742	51.2695	96.1328	51.2695	97.3137	51.2695	96.176	51.2695	97.1493	51.2695	96.2409	51.2695	96.9865	51.2695	96.3259	51.2695	96.83	51.2695	96.4291	51.2695	96.6833	51.2695	96.5489
52.7344	97.4439	52.7344	97.286	52.7344	97.591	52.7344	97.1226	52.7344	97.7218	52.7344	96.9589	52.7344	97.8312	52.7344	96.7999	52.7344	97.9142	52.7344	96.6501	52.7344	97.9669	52.7344	96.5137	52.7344	97.9862	52.7344	96.394	52.7344	97.9706	52.7344	96.2941	52.7344	97.9204	52.7344	96.216	52.7344	97.8379	52.7344	96.1611	52.7344	97.7271	52.7344	96.1304	52.7344	97.5938	52.7344	96.1238	52.7344	97.4445	52.7344	96.141	52.7344	97.2858	52.7344	96.1809	52.7344	97.1241	52.7344	96.2422	52.7344	96.9646	52.7344	96.3233	52.7344	96.8117	52.7344	96.4226	52.7344	96.6687	52.7344	96.5384
54.1992	97.4677	54.1992	97.3113	54.1992	97.6133	54.1992	97.1495	54.1992	97.7425	54.1992	96.9875	54.1992	97.8502	54.1992	96.8304	54.1992	97.9315	54.1992	96.6827	54.1992	97.9823	54.1992	96.5485	54.1992	97.9997	54.1992	96.4311	54.1992	97.9822	54.1992	96.3334	54.1992	97.9302	54.1992	96.2572	54.1992	97.8463	54.1992	96.2039	54.1992	97.7347	54.1992	96.1739	54.1992	97.6012	54.1992	96.1671	54.1992	97.4525	54.1992	96.1831	54.1992	97.2954	54.1992	96.2208	54.1992	97.1359	54.1992	96.2792	54.1992	96.9793	54.1992	96.3569	54.1992	96.8299	54.1992	96.4524	54.1992	96.6907	54.1992	96.5642
55.6641	97.5021	55.6641	97.345	55.6641	97.6484	55.6641	97.1828	55.6641	97.7784	55.6641	97.0209	55.6641	97.8866	55.6641	96.8645	55.6641	97.9682	55.6641	96.7182	55.6641	98.019	55.6641	96.5863	55.6641	98.0363	55.6641	96.4721	55.6641	98.0186	55.6641	96.3782	55.6641	97.9666	55.6641	96.3064	55.6641	97.8828	55.6641	96.2575	55.6641	97.7717	55.6641	96.2318	55.6641	97.6394	55.6641	96.229	55.6641	97.4926	55.6641	96.248	55.6641	97.3381	55.6641	96.2879	55.6641	97.1821	55.6641	96.3471	55.6641	97.0296	55.6641	96.4243	55.6641	96.8845	55.6641	96.518	55.6641	96.7496	55.6641	96.6269
58.5938	97.4016	58.5938	97.2379	58.5938	97.5537	58.5938	97.0685	58.5938	97.6885	58.5938	96.899	58.5938	97.8005	58.5938	96.7349	58.5938	97.8847	58.5938	96.5812	58.5938	97.937	58.5938	96.4422	58.5938	97.9542	58.5938	96.3215	58.5938	97.9351	58.5938	96.222	58.5938	97.8802	58.5938	96.1456	58.5938	97.792	58.5938	96.0933	58.5938	97.6751	58.5938	96.0653	58.5938	97.5356	58.5938	96.0611	58.5938	97.3804	58.5938	96.0797	58.5938	97.2167	58.5938	96.1199	58.5938	97.0514	58.5938	96.1802	58.5938	96.89	58.5938	96.259	58.5938	96.737	58.5938	96.3553	58.5938	96.5956	58.5938	96.4679
60.0586	97.4439	60.0586	97.2757	60.0586	97.6	60.0586	97.1013	60.0586	97.7382	60.0586	96.9268	60.0586	97.8529	60.0586	96.7578	60.0586	97.9392	60.0586	96.5995	60.0586	97.9929	60.0586	96.4565	60.0586	98.0113	60.0586	96.3327	60.0586	97.9932	60.0586	96.2309	60.0586	97.9392	60.0586	96.1533	60.0586	97.852	60.0586	96.1008	60.0586	97.7361	60.0586	96.0736	60.0586	97.5974	60.0586	96.0713	60.0586	97.4426	60.0586	96.093	60.0586	97.2787	60.0586	96.1371	60.0586	97.1119	60.0586	96.2024	60.0586	96.9476	60.0586	96.2872	60.0586	96.7903	60.0586	96.39	60.0586	96.6434	60.0586	96.5093
62.9883	97.4336	62.9883	97.2682	62.9883	97.5863	62.9883	97.096	62.9883	97.7203	62.9883	96.9229	62.9883	97.8303	62.9883	96.7545	62.9883	97.9114	62.9883	96.5963	62.9883	97.9596	62.9883	96.4529	62.9883	97.9725	62.9883	96.3282	62.9883	97.949	62.9883	96.2252	62.9883	97.8902	62.9883	96.146	62.9883	97.799	62.9883	96.0918	62.9883	97.6802	62.9883	96.0627	62.9883	97.5401	62.9883	96.0584	62.9883	97.3854	62.9883	96.0777	62.9883	97.2231	62.9883	96.1193	62.9883	97.0594	62.9883	96.1816	62.9883	96.8993	62.9883	96.2629	62.9883	96.7469	62.9883	96.3615	62.9883	96.6051	62.9883	96.4761
64.4531	97.3927	64.4531	97.2271	64.4531	97.5448	64.4531	97.0541	64.4531	97.6777	64.4531	96.8794	64.4531	97.7862	64.4531	96.7088	64.4531	97.8655	64.4531	96.5477	64.4531	97.9119	64.4531	96.4008	64.4531	97.9229	64.4531	96.2722	64.4531	97.8976	64.4531	96.1652	64.4531	97.8371	64.4531	96.0821	64.4531	97.7444	64.4531	96.0242	64.4531	97.6242	64.4531	95.9921	64.4531	97.4827	64.4531	95.9854	64.4531	97.3265	64.4531	96.0031	64.4531	97.1626	64.4531	96.044	64.4531	96.997	64.4531	96.1064	64.4531	96.8348	64.4531	96.1885	64.4531	96.6802	64.4531	96.2886	64.4531	96.5362	64.4531	96.405
67.3828	97.0954	67.3828	96.9223	67.3828	97.2558	67.3828	96.743	67.3828	97.3973	67.3828	96.564	67.3828	97.5141	67.3828	96.3914	67.3828	97.6011	67.3828	96.2311	67.3828	97.6542	67.3828	96.0882	67.3828	97.6709	67.3828	95.9669	67.3828	97.6506	67.3828	95.8703	67.3828	97.5946	67.3828	95.8004	67.3828	97.5064	67.3828	95.7581	67.3828	97.3915	67.3828	95.7428	67.3828	97.2564	67.3828	95.7535	67.3828	97.1081	67.3828	95.7879	67.3828	96.9533	67.3828	95.8437	67.3828	96.7975	67.3828	95.9183	67.3828	96.645	67.3828	96.0093	67.3828	96.4986	67.3828	96.1144	67.3828	96.3604	67.3828	96.2319
68.8477	97.0216	68.8477	96.8431	68.8477	97.187	68.8477	96.6583	68.8477	97.3327	68.8477	96.4739	68.8477	97.4529	68.8477	96.2966	68.8477	97.5424	68.8477	96.1323	68.8477	97.5969	68.8477	95.9867	68.8477	97.6141	68.8477	95.8643	68.8477	97.5932	68.8477	95.7682	68.8477	97.5359	68.8477	95.7006	68.8477	97.4458	68.8477	95.6621	68.8477	97.3286	68.8477	95.6518	68.8477	97.1912	68.8477	95.668	68.8477	97.0412	68.8477	95.708	68.8477	96.8852	68.8477	95.7689	68.8477	96.7292	68.8477	95.8476	68.8477	96.5771	68.8477	95.9415	68.8477	96.4316	68.8477	96.0482	68.8477	96.2943	68.8477	96.1662
71.7773	96.9788	71.7773	96.7967	71.7773	97.146	71.7773	96.6064	71.7773	97.2919	71.7773	96.4148	71.7773	97.4106	71.7773	96.2287	71.7773	97.4973	71.7773	96.0546	71.7773	97.5485	71.7773	95.898	71.7773	97.5618	71.7773	95.7638	71.7773	97.5369	71.7773	95.6556	71.7773	97.4754	71.7773	95.5757	71.7773	97.3809	71.7773	95.5251	71.7773	97.2585	71.7773	95.5036	71.7773	97.1148	71.7773	95.5099	71.7773	96.9565	71.7773	95.5421	71.7773	96.7904	71.7773	95.5978	71.7773	96.6223	71.7773	95.6746	71.7773	96.4569	71.7773	95.7699	71.7773	96.2977	71.7773	95.8818	71.7773	96.1475	71.7773	96.0082
74.707	96.853	74.707	96.6752	74.707	97.0147	74.707	96.4878	74.707	97.1545	74.707	96.2973	74.707	97.2669	74.707	96.1102	74.707	97.3475	74.707	95.933	74.707	97.393	74.707	95.7713	74.707	97.4015	74.707	95.6303	74.707	97.373	74.707	95.5143	74.707	97.3093	74.707	95.4261	74.707	97.2139	74.707	95.3676	74.707	97.0922	74.707	95.3393	74.707	96.9502	74.707	95.3407	74.707	96.7945	74.707	95.3701	74.707	96.6311	74.707	95.4253	74.707	96.4652	74.707	95.5035	74.707	96.301	74.707	95.6018	74.707	96.1416	74.707	95.7174	74.707	95.9897	74.707	95.8475
77.6367	96.675	77.6367	96.5047	77.6367	96.8303	77.6367	96.3258	77.6367	96.9646	77.6367	96.1448	77.6367	97.0725	77.6367	95.968	77.6367	97.1493	77.6367	95.8014	77.6367	97.1919	77.6367	95.6506	77.6367	97.1985	77.6367	95.5201	77.6367	97.1693	77.6367	95.4136	77.6367	97.1065	77.6367	95.3339	77.6367	97.0142	77.6367	95.2825	77.6367	96.8979	77.6367	95.2595	77.6367	96.7641	77.6367	95.2644	77.6367	96.6189	77.6367	95.2955	77.6367	96.468	77.6367	95.3504	77.6367	96.316	77.6367	95.4264	77.6367	96.1661	77.6367	95.5204	77.6367	96.0207	77.6367	95.6294	77.6367	95.8816	77.6367	95.7505
79.1016	96.5765	79.1016	96.4066	79.1016	96.7312	79.1016	96.2281	79.1016	96.8648	79.1016	96.0475	79.1016	96.9716	79.1016	95.8714	79.1016	97.0472	79.1016	95.7058	79.1016	97.0884	79.1016	95.5564	79.1016	97.0936	79.1016	95.428	79.1016	97.0632	79.1016	95.3243	79.1016	96.9996	79.1016	95.2481	79.1016	96.9074	79.1016	95.2005	79.1016	96.7922	79.1016	95.1818	79.1016	96.6607	79.1016	95.1909	79.1016	96.5192	79.1016	95.2257	79.1016	96.3733	79.1016	95.2837	79.1016	96.2269	79.1016	95.3615	79.1016	96.083	79.1016	95.4559	79.1016	95.9434	79.1016	95.5638	79.1016	95.8094	79.1016	95.6823
82.0312	96.4223	82.0312	96.2522	82.0312	96.5771	82.0312	96.0737	82.0312	96.71	82.0312	95.8939	82.0312	96.8149	82.0312	95.7193	82.0312	96.8871	82.0312	95.5561	82.0312	96.9231	82.0312	95.4098	82.0312	96.9215	82.0312	95.2847	82.0312	96.883	82.0312	95.1844	82.0312	96.8108	82.0312	95.1111	82.0312	96.71	82.0312	95.0661	82.0312	96.5875	82.0312	95.0492	82.0312	96.4509	82.0312	95.0593	82.0312	96.3074	82.0312	95.0939	82.0312	96.163	82.0312	95.15	82.0312	96.0219	82.0312	95.224	82.0312	95.8864	82.0312	95.3122	82.0312	95.7575	82.0312	95.4116	82.0312	95.6352	82.0312	95.5197
84.9609	96.3396	84.9609	96.1629	84.9609	96.501	84.9609	95.9785	84.9609	96.6399	84.9609	95.794	84.9609	96.7501	84.9609	95.617	84.9609	96.8264	84.9609	95.4539	84.9609	96.8654	84.9609	95.3106	84.9609	96.8657	84.9609	95.1912	84.9609	96.8282	84.9609	95.0988	84.9609	96.7563	84.9609	95.035	84.9609	96.6554	84.9609	95	84.9609	96.533	84.9609	94.993	84.9609	96.3968	84.9609	95.012	84.9609	96.2546	84.9609	95.0542	84.9609	96.1124	84.9609	95.1162	84.9609	95.9746	84.9609	95.1939	84.9609	95.8432	84.9609	95.2839	84.9609	95.7188	84.9609	95.3829	84.9609	95.6008	84.9609	95.4889
87.8906	96.3947	87.8906	96.2037	87.8906	96.5672	87.8906	96.0025	87.8906	96.714	87.8906	95.7996	87.8906	96.8288	87.8906	95.6035	87.8906	96.9069	87.8906	95.4226	87.8906	96.9454	87.8906	95.2642	87.8906	96.9432	87.8906	95.134	87.8906	96.9019	87.8906	95.0362	87.8906	96.8255	87.8906	94.9728	87.8906	96.7201	87.8906	94.944	87.8906	96.5934	87.8906	94.9479	87.8906	96.454	87.8906	94.9811	87.8906	96.3094	87.8906	95.0392	87.8906	96.1659	87.8906	95.117	87.8906	96.0274	87.8906	95.2094	87.8906	95.8954	87.8906	95.3118	87.8906	95.7699	87.8906	95.4205	87.8906	95.6496	87.8906	95.5333
90.8203	96.46	90.8203	96.2756	90.8203	96.6239	90.8203	96.0784	90.8203	96.7604	90.8203	95.8768	90.8203	96.8634	90.8203	95.679	90.8203	96.9286	90.8203	95.4931	90.8203	96.9531	90.8203	95.3265	90.8203	96.9365	90.8203	95.1854	90.8203	96.8806	90.8203	95.0744	90.8203	96.7898	90.8203	94.9965	90.8203	96.6708	90.8203	94.9523	90.8203	96.5319	90.8203	94.9409	90.8203	96.382	90.8203	94.9595	90.8203	96.2296	90.8203	95.0042	90.8203	96.0808	90.8203	95.0701	90.8203	95.9395	90.8203	95.1521	90.8203	95.8071	90.8203	95.2458	90.8203	95.6831	90.8203	95.3472	90.8203	95.566	90.8203	95.4542
95.2148	96.5409	95.2148	96.3535	95.2148	96.7068	95.2148	96.1522	95.2148	96.8439	95.2148	95.9456	95.2148	96.9465	95.2148	95.742	95.2148	97.0099	95.2148	95.55	95.2148	97.0314	95.2148	95.3771	95.2148	97.0104	95.2148	95.2301	95.2148	96.9488	95.2148	95.1141	95.2148	96.8509	95.2148	95.0321	95.2148	96.7239	95.2148	94.9853	95.2148	96.5763	95.2148	94.9725	95.2148	96.4179	95.2148	94.9906	95.2148	96.2576	95.2148	95.035	95.2148	96.1026	95.2148	95.1003	95.2148	95.9571	95.2148	95.1812	95.2148	95.8229	95.2148	95.2728	95.2148	95.6992	95.2148	95.3714	95.2148	95.5841	95.2148	95.4752
98.1445	96.6775	98.1445	96.492	98.1445	96.8411	98.1445	96.2924	98.1445	96.9759	98.1445	96.087	98.1445	97.0761	98.1445	95.8843	98.1445	97.1375	98.1445	95.6927	98.1445	97.1574	98.1445	95.52	98.1445	97.1355	98.1445	95.3731	98.1445	97.0738	98.1445	95.257	98.1445	96.9767	98.1445	95.1752	98.1445	96.8512	98.1445	95.1284	98.1445	96.7057	98.1445	95.1153	98.1445	96.5494	98.1445	95.1328	98.1445	96.3907	98.1445	95.176	98.1445	96.2365	98.1445	95.2397	98.1445	96.0912	98.1445	95.3186	98.1445	95.9565	98.1445	95.4081	98.1445	95.8322	98.1445	95.5051	98.1445	95.7166	98.1445	95.608
101.074	96.681	101.074	96.4933	101.074	96.8477	101.074	96.2925	101.074	96.986	101.074	96.0873	101.074	97.0899	101.074	95.8859	101.074	97.1546	101.074	95.6967	101.074	97.1775	101.074	95.527	101.074	97.158	101.074	95.3833	101.074	97.0983	101.074	95.2703	101.074	97.0034	101.074	95.1911	101.074	96.8806	101.074	95.1469	101.074	96.7389	101.074	95.1368	101.074	96.5876	101.074	95.1578	101.074	96.4351	101.074	95.2058	101.074	96.2877	101.074	95.2754	101.074	96.1487	101.074	95.3611	101.074	96.0188	101.074	95.4578	101.074	95.8969	101.074	95.5615	101.074	95.7811	101.074	95.6695
105.469	96.8127	105.469	96.6073	105.469	96.9935	105.469	96.3866	105.469	97.1416	105.469	96.1606	105.469	97.2504	105.469	95.9397	105.469	97.315	105.469	95.7342	105.469	97.3328	105.469	95.5532	105.469	97.3041	105.469	95.4042	105.469	97.2319	105.469	95.2926	105.469	97.1225	105.469	95.2212	105.469	96.985	105.469	95.19	105.469	96.8303	105.469	95.1964	105.469	96.6698	105.469	95.2357	105.469	96.5136	105.469	95.3018	105.469	96.3684	105.469	95.3875	105.469	96.237	105.469	95.4858	105.469	96.1185	105.469	95.5903	105.469	96.0092	105.469	95.6963	105.469	95.9048	105.469	95.8012
108.398	97.1116	108.398	96.9026	108.398	97.2929	108.398	96.675	108.398	97.4388	108.398	96.4386	108.398	97.5431	108.398	96.2038	108.398	97.6012	108.398	95.9813	108.398	97.6111	108.398	95.7808	108.398	97.5728	108.398	95.6112	108.398	97.4897	108.398	95.4791	108.398	97.3679	108.398	95.3886	108.398	97.2164	108.398	95.3408	108.398	97.0465	108.398	95.3335	108.398	96.87	108.398	95.3624	108.398	96.6975	108.398	95.4208	108.398	96.5367	108.398	95.5015	108.398	96.3912	108.398	95.5971	108.398	96.2604	108.398	95.7013	108.398	96.1409	108.398	95.8092	108.398	96.0281	108.398	95.9183
112.793	97.3236	112.793	97.1205	112.793	97.4979	112.793	96.8977	112.793	97.6356	112.793	96.6648	112.793	97.7305	112.793	96.4321	112.793	97.7784	112.793	96.2098	112.793	97.7771	112.793	96.0076	112.793	97.7273	112.793	95.8341	112.793	97.6326	112.793	95.6959	112.793	97.4998	112.793	95.5977	112.793	97.3387	112.793	95.5412	112.793	97.161	112.793	95.5253	112.793	96.979	112.793	95.546	112.793	96.8037	112.793	95.597	112.793	96.6428	112.793	95.6708	112.793	96.4999	112.793	95.7595	112.793	96.3742	112.793	95.8564	112.793	96.2618	112.793	95.9563	112.793	96.1575	112.793	96.0566
117.188	97.449	117.188	97.2401	117.188	97.6288	117.188	97.0114	117.188	97.7715	117.188	96.7732	117.188	97.8709	117.188	96.5366	117.188	97.9228	117.188	96.3123	117.188	97.9251	117.188	96.1104	117.188	97.8787	117.188	95.9393	117.188	97.7872	117.188	95.805	117.188	97.6575	117.188	95.7114	117.188	97.4993	117.188	95.6595	117.188	97.3243	117.188	95.6476	117.188	97.1448	117.188	95.6719	117.188	96.9714	117.188	95.7265	117.188	96.8116	117.188	95.8042	117.188	96.6686	117.188	95.8977	117.188	96.5414	117.188	95.9999	117.188	96.426	117.188	96.1055	117.188	96.3175	117.188	96.2114
120.117	97.5154	120.117	97.3005	120.117	97.7001	120.117	97.0652	120.117	97.8464	120.117	96.8205	120.117	97.9476	120.117	96.5779	120.117	97.9992	120.117	96.3488	120.117	97.9993	120.117	96.1439	120.117	97.9486	120.117	95.9719	120.117	97.8511	120.117	95.8393	120.117	97.7142	120.117	95.7495	120.117	97.5484	120.117	95.703	120.117	97.3664	120.117	95.6975	120.117	97.1814	120.117	95.7282	120.117	97.0051	120.117	95.7886	120.117	96.8455	120.117	95.8709	120.117	96.7057	120.117	95.967	120.117	96.5842	120.117	96.0698	120.117	96.4761	120.117	96.1734	120.117	96.3749	120.117	96.2751
124.512	97.6328	124.512	97.4014	124.512	97.8309	124.512	97.1471	124.512	97.9874	124.512	96.8817	124.512	98.0959	124.512	96.6181	124.512	98.1524	124.512	96.3693	124.512	98.1555	124.512	96.1474	124.512	98.1065	124.512	95.9626	124.512	98.01	124.512	95.822	124.512	97.8736	124.512	95.7291	124.512	97.7078	124.512	95.6841	124.512	97.525	124.512	95.6837	124.512	97.3379	124.512	95.7221	124.512	97.1575	124.512	95.7921	124.512	96.9912	124.512	95.8856	124.512	96.8419	124.512	95.9944	124.512	96.7078	124.512	96.1113	124.512	96.5845	124.512	96.2308	124.512	96.4665	124.512	96.3494
128.906	97.6995	128.906	97.4745	128.906	97.8895	128.906	97.2238	128.906	98.0368	128.906	96.9586	128.906	98.1356	128.906	96.6912	128.906	98.1824	128.906	96.4348	128.906	98.1764	128.906	96.2021	128.906	98.1194	128.906	96.0047	128.906	98.0164	128.906	95.8519	128.906	97.8762	128.906	95.7492	128.906	97.7101	128.906	95.6987	128.906	97.5316	128.906	95.6985	128.906	97.3539	128.906	95.7431	128.906	97.1879	128.906	95.8246	128.906	97.0393	128.906	95.9335	128.906	96.9086	128.906	96.0593	128.906	96.7914	128.906	96.1923	128.906	96.6804	128.906	96.3245	128.906	96.5685	128.906	96.4505
133.301	97.7412	133.301	97.525	133.301	97.9223	133.301	97.2835	133.301	98.0603	133.301	97.028	133.301	98.1495	133.301	96.771	133.301	98.1864	133.301	96.5254	133.301	98.1703	133.301	96.304	133.301	98.1036	133.301	96.1178	133.301	97.992	133.301	95.9756	133.301	97.8451	133.301	95.8826	133.301	97.6752	133.301	95.8404	133.301	97.4967	133.301	95.8464	133.301	97.3238	133.301	95.8948	133.301	97.1676	133.301	95.9772	133.301	97.0343	133.301	96.0835	133.301	96.9232	133.301	96.2031	133.301	96.8286	133.301	96.3263	133.301	96.7411	133.301	96.445	133.301	96.6518	133.301	96.554
139.16	97.76	139.16	97.5271	139.16	97.9545	139.16	97.2675	139.16	98.1014	139.16	96.9945	139.16	98.1937	139.16	96.7232	139.16	98.2277	139.16	96.4685	139.16	98.2025	139.16	96.2446	139.16	98.1209	139.16	96.0633	139.16	97.9895	139.16	95.9326	139.16	97.8192	139.16	95.856	139.16	97.6242	139.16	95.8325	139.16	97.4215	139.16	95.857	139.16	97.2282	139.16	95.9211	139.16	97.0585	139.16	96.0142	139.16	96.9206	139.16	96.1248	139.16	96.8155	139.16	96.2413	139.16	96.7365	139.16	96.3536	139.16	96.6721	139.16	96.4542	139.16	96.6099	139.16	96.5393
143.555	97.8389	143.555	97.5906	143.555	98.0433	143.555	97.3103	143.555	98.1946	143.555	97.0126	143.555	98.2866	143.555	96.7139	143.555	98.3158	143.555	96.4315	143.555	98.2823	143.555	96.1819	143.555	98.1894	143.555	95.979	143.555	98.0444	143.555	95.8322	143.555	97.8582	143.555	95.7456	143.555	97.6455	143.555	95.7174	143.555	97.4232	143.555	95.7408	143.555	97.2085	143.555	95.8056	143.555	97.0161	143.555	95.8992	143.555	96.8552	143.555	96.0088	143.555	96.7281	143.555	96.1223	143.555	96.6304	143.555	96.2304	143.555	96.5524	143.555	96.3267	143.555	96.4824	143.555	96.4097
147.949	97.9034	147.949	97.6627	147.949	98.0956	147.949	97.384	147.949	98.2314	147.949	97.0803	147.949	98.3057	147.949	96.7674	147.949	98.3163	147.949	96.4626	147.949	98.2639	147.949	96.1842	147.949	98.1529	147.949	95.9489	147.949	97.9916	147.949	95.7699	147.949	97.7924	147.949	95.6551	147.949	97.5711	147.949	95.6054	147.949	97.3455	147.949	95.6155	147.949	97.1328	147.949	95.6752	147.949	96.9467	147.949	95.7711	147.949	96.7942	147.949	95.8887	147.949	96.6749	147.949	96.0144	147.949	96.5817	147.949	96.1369	147.949	96.5034	147.949	96.2482	147.949	96.4278	147.949	96.3448
153.809	97.8699	153.809	97.6381	153.809	98.0542	153.809	97.3697	153.809	98.1819	153.809	97.078	153.809	98.2466	153.809	96.7774	153.809	98.2448	153.809	96.4834	153.809	98.1759	153.809	96.2119	153.809	98.0434	153.809	95.9781	153.809	97.8551	153.809	95.7946	153.809	97.6243	153.809	95.6703	153.809	97.3689	153.809	95.608	153.809	97.111	153.809	95.6043	153.809	96.8729	153.809	95.6497	153.809	96.6725	153.809	95.7305	153.809	96.519	153.809	95.8314	153.809	96.411	153.809	95.9377	153.809	96.3387	153.809	96.0373	153.809	96.2874	153.809	96.1221	153.809	96.2418	153.809	96.1894
159.668	97.9734	159.668	97.7138	159.668	98.1873	159.668	97.422	159.668	98.3449	159.668	97.1138	159.668	98.4389	159.668	96.8062	159.668	98.4654	159.668	96.5156	159.668	98.4233	159.668	96.2568	159.668	98.3156	159.668	96.0412	159.668	98.1489	159.668	95.8773	159.668	97.9349	159.668	95.7697	159.668	97.6897	159.668	95.7196	159.668	97.4339	159.668	95.724	159.668	97.1894	159.668	95.776	159.668	96.976	159.668	95.8644	159.668	96.8058	159.668	95.9755	159.668	96.6807	159.668	96.0951	159.668	96.5922	159.668	96.2103	159.668	96.5256	159.668	96.312	159.668	96.4646	159.668	96.3961
165.527	98.0739	165.527	97.7875	165.527	98.307	165.527	97.4622	165.527	98.4763	165.527	97.1163	165.527	98.5751	165.527	96.7713	165.527	98.6003	165.527	96.4496	165.527	98.5527	165.527	96.1723	165.527	98.4363	165.527	95.9564	165.527	98.2599	165.527	95.812	165.527	98.0365	165.527	95.7421	165.527	97.7838	165.527	95.7423	165.527	97.5237	165.527	95.8026	165.527	97.2797	165.527	95.9088	165.527	97.0731	165.527	96.0446	165.527	96.9175	165.527	96.193	165.527	96.8153	165.527	96.3382	165.527	96.7561	165.527	96.4668	165.527	96.7211	165.527	96.5693	165.527	96.6891	165.527	96.6423
171.387	98.1904	171.387	97.8963	171.387	98.4223	171.387	97.5514	171.387	98.584	171.387	97.1718	171.387	98.6711	171.387	96.7778	171.387	98.6821	171.387	96.3933	171.387	98.6184	171.387	96.0436	171.387	98.4847	171.387	95.7529	171.387	98.2892	171.387	95.5403	171.387	98.0445	171.387	95.4164	171.387	97.7675	171.387	95.3817	171.387	97.4792	171.387	95.4268	171.387	97.2023	171.387	95.534	171.387	96.9582	171.387	95.6813	171.387	96.7619	171.387	95.8456	171.387	96.6187	171.387	96.0061	171.387	96.5223	171.387	96.1472	171.387	96.4575	171.387	96.2599	171.387	96.4042	171.387	96.3432
177.246	98.1606	177.246	97.908	177.246	98.351	177.246	97.6023	177.246	98.4732	177.246	97.2565	177.246	98.5246	177.246	96.8875	177.246	98.5055	177.246	96.5156	177.246	98.419	177.246	96.1636	177.246	98.2713	177.246	95.8545	177.246	98.0721	177.246	95.609	177.246	97.8344	177.246	95.442	177.246	97.5749	177.246	95.3593	177.246	97.3122	177.246	95.3572	177.246	97.0653	177.246	95.4228	177.246	96.8501	177.246	95.5371	177.246	96.6761	177.246	95.6793	177.246	96.5437	177.246	95.8296	177.246	96.4445	177.246	95.9724	177.246	96.3646	177.246	96.0978	177.246	96.2882	177.246	96.2022
183.105	98.0523	183.105	97.8056	183.105	98.2371	183.105	97.5067	183.105	98.3533	183.105	97.1688	183.105	98.3964	183.105	96.8087	183.105	98.3652	183.105	96.4473	183.105	98.2615	183.105	96.1084	183.105	98.0912	183.105	95.8164	183.105	97.865	183.105	95.5932	183.105	97.5991	183.105	95.4538	183.105	97.3152	183.105	95.4028	183.105	97.0388	183.105	95.4336	183.105	96.7955	183.105	95.5298	183.105	96.6057	183.105	95.6692	183.105	96.4789	183.105	95.8286	183.105	96.4101	183.105	95.9867	183.105	96.3822	183.105	96.1267	183.105	96.3712	183.105	96.237	183.105	96.3537	183.105	96.3122
188.965	98.0197	188.965	97.7523	188.965	98.225	188.965	97.4348	188.965	98.3584	188.965	97.0817	188.965	98.4128	188.965	96.7102	188.965	98.3843	188.965	96.3404	188.965	98.273	188.965	95.9957	188.965	98.0834	188.965	95.701	188.965	97.8264	188.965	95.4795	188.965	97.5192	188.965	95.3475	188.965	97.1871	188.965	95.3094	188.965	96.8609	188.965	95.3557	188.965	96.5734	188.965	95.4653	188.965	96.3518	188.965	95.6115	188.965	96.2094	188.965	95.7677	188.965	96.1419	188.965	95.9122	188.965	96.1293	188.965	96.0294	188.965	96.1441	188.965	96.1101	188.965	96.1586	188.965	96.1516
196.289	98.1538	196.289	97.8592	196.289	98.3793	196.289	97.5088	196.289	98.5266	196.289	97.1194	196.289	98.5901	196.289	96.7109	196.289	98.5677	196.289	96.3061	196.289	98.4606	196.289	95.929	196.289	98.2732	196.289	95.6043	196.289	98.0139	196.289	95.3548	196.289	97.696	196.289	95.1986	196.289	97.3396	196.289	95.1445	196.289	96.9732	196.289	95.1885	196.289	96.6329	196.289	95.3134	196.289	96.3571	196.289	95.4918	196.289	96.1746	196.289	95.6918	196.289	96.093	196.289	95.8827	196.289	96.0925	196.289	96.0387	196.289	96.135	196.289	96.1425	196.289	96.1778	196.289	96.187
203.613	98.2362	203.613	97.928	203.613	98.4693	203.613	97.556	203.613	98.6193	203.613	97.1345	203.613	98.6807	203.613	96.6821	203.613	98.6511	203.613	96.2227	203.613	98.531	203.613	95.7856	203.613	98.3249	203.613	95.405	203.613	98.0417	203.613	95.1154	203.613	97.6959	203.613	94.9432	203.613	97.3087	203.613	94.8981	203.613	96.9085	203.613	94.9676	203.613	96.5299	203.613	95.1208	203.613	96.2094	203.613	95.3173	203.613	95.9767	203.613	95.5182	203.613	95.8452	203.613	95.6921	203.613	95.8051	203.613	95.8181	203.613	95.8267	203.613	95.8866	203.613	95.8704	203.613	95.8994
210.938	98.2909	210.938	97.9678	210.938	98.5345	210.938	97.5766	210.938	98.6911	210.938	97.1322	210.938	98.7565	210.938	96.6524	210.938	98.7296	210.938	96.1578	210.938	98.6122	210.938	95.6714	210.938	98.4086	210.938	95.22	210.938	98.1263	210.938	94.8347	210.938	97.7765	210.938	94.5491	210.938	97.3759	210.938	94.3915	210.938	96.9486	210.938	94.3733	210.938	96.5269	210.938	94.4793	210.938	96.1492	210.938	94.6712	210.938	95.8513	210.938	94.9	210.938	95.6541	210.938	95.1207	210.938	95.5533	210.938	95.301	210.938	95.5199	210.938	95.4244	210.938	95.5121	210.938	95.49
218.262	98.1096	218.262	97.8175	218.262	98.3263	218.262	97.4605	218.262	98.4603	218.262	97.0524	218.262	98.508	218.262	96.6098	218.262	98.4691	218.262	96.1524	218.262	98.3477	218.262	95.7028	218.262	98.1515	218.262	95.2857	218.262	97.8927	218.262	94.9275	218.262	97.5872	218.262	94.6551	218.262	97.2555	218.262	94.4918	218.262	96.921	218.262	94.4509	218.262	96.6086	218.262	94.5283	218.262	96.3401	218.262	94.6993	218.262	96.1301	218.262	94.9256	218.262	95.9818	218.262	95.1652	218.262	95.886	218.262	95.3834	218.262	95.8224	218.262	95.558	218.262	95.7636	218.262	95.6822
225.586	98.2135	225.586	97.9146	225.586	98.4334	225.586	97.5497	225.586	98.5652	225.586	97.1354	225.586	98.6037	225.586	96.6912	225.586	98.548	225.586	96.2393	225.586	98.4006	225.586	95.8041	225.586	98.1682	225.586	95.4114	225.586	97.862	225.586	95.087	225.586	97.4992	225.586	94.8546	225.586	97.1049	225.586	94.7329	225.586	96.714	225.586	94.7306	225.586	96.3686	225.586	94.8408	225.586	96.1098	225.586	95.0397	225.586	95.9632	225.586	95.2903	225.586	95.9256	225.586	95.5505	225.586	95.9641	225.586	95.7816	225.586	96.0285	225.586	95.9538	225.586	96.0692	225.586	96.05
232.91	98.4479	232.91	98.1569	232.91	98.657	232.91	97.795	232.91	98.7766	232.91	97.3758	232.91	98.8015	232.91	96.916	232.91	98.73	232.91	96.4358	232.91	98.563	232.91	95.9587	232.91	98.3046	232.91	95.5115	232.91	97.9628	232.91	95.1236	232.91	97.5502	232.91	94.8249	232.91	97.0865	232.91	94.643	232.91	96.601	232.91	94.5955	232.91	96.1345	232.91	94.6809	232.91	95.7366	232.91	94.8722	232.91	95.4559	232.91	95.121	232.91	95.3233	232.91	95.3692	232.91	95.3334	232.91	95.5636	232.91	95.4404	232.91	95.6667	232.91	95.5738	232.91	95.6648
241.699	98.1868	241.699	97.8589	241.699	98.4291	241.699	97.4656	241.699	98.5735	241.699	97.033	241.699	98.6154	241.699	96.5881	241.699	98.5568	241.699	96.1543	241.699	98.4034	241.699	95.748	241.699	98.1633	241.699	95.3797	241.699	97.8458	241.699	95.0578	241.699	97.4618	241.699	94.7933	241.699	97.0262	241.699	94.6028	241.699	96.5621	241.699	94.5049	241.699	96.1034	241.699	94.5105	241.699	95.6912	241.699	94.6109	241.699	95.3646	241.699	94.7725	241.699	95.1481	241.699	94.9446	241.699	95.0449	241.699	95.0775	241.699	95.0358	241.699	95.1407	241.699	95.0819	241.699	95.1327
250.488	98.5273	250.488	98.1682	250.488	98.7698	250.488	97.7054	250.488	98.891	250.488	97.1631	250.488	98.892	250.488	96.5774	250.488	98.778	250.488	95.9937	250.488	98.5569	250.488	95.4581	250.488	98.239	250.488	95.0058	250.488	97.8372	250.488	94.6523	250.488	97.368	250.488	94.3946	250.488	96.8552	250.488	94.222	250.488	96.3338	250.488	94.1268	250.488	95.8515	250.488	94.1058	250.488	95.4592	250.488	94.1544	250.488	95.1886	250.488	94.2579	250.488	95.0324	250.488	94.3913	250.488	94.9499	250.488	94.5283	250.488	94.8937	250.488	94.651	250.488	94.8322	250.488	94.7525
259.277	98.2808	259.277	98.0235	259.277	98.4563	259.277	97.6844	259.277	98.5506	259.277	97.2671	259.277	98.5637	259.277	96.783	259.277	98.4956	259.277	96.2561	259.277	98.3473	259.277	95.7258	259.277	98.1212	259.277	95.2424	259.277	97.8214	259.277	94.8529	259.277	97.453	259.277	94.5831	259.277	97.0226	259.277	94.4279	259.277	96.5422	259.277	94.3607	259.277	96.0385	259.277	94.3518	259.277	95.5615	259.277	94.3828	259.277	95.1765	259.277	94.4465	259.277	94.9332	259.277	94.5377	259.277	94.8308	259.277	94.6432	259.277	94.8174	259.277	94.74	259.277	94.8246	259.277	94.8042
268.066	97.8993	268.066	97.5294	268.066	98.1637	268.066	97.0749	268.066	98.3122	268.066	96.5666	268.066	98.3427	268.066	96.0431	268.066	98.2601	268.066	95.5447	268.066	98.0752	268.066	95.1075	268.066	97.8036	268.066	94.7597	268.066	97.4645	268.066	94.5205	268.066	97.0768	268.066	94.3967	268.066	96.6561	268.066	94.379	268.066	96.2143	268.066	94.4418	268.066	95.7662	268.066	94.5503	268.066	95.3415	268.066	94.6711	268.066	94.9902	268.066	94.7793	268.066	94.7637	268.066	94.859	268.066	94.6791	268.066	94.9007	268.066	94.704	268.066	94.899	268.066	94.7797	268.066	94.8548
276.855	98.185	276.855	97.8913	276.855	98.3666	276.855	97.4818	276.855	98.4415	276.855	96.9559	276.855	98.415	276.855	96.318	276.855	98.2911	276.855	95.5851	276.855	98.0734	276.855	94.7989	276.855	97.7689	276.855	94.038	276.855	97.3929	276.855	93.4142	276.855	96.9718	276.855	93.0302	276.855	96.5398	276.855	92.9156	276.855	96.1307	276.855	93.0097	276.855	95.7688	276.855	93.2151	276.855	95.4664	276.855	93.4591	276.855	95.2299	276.855	93.7105	276.855	95.0631	276.855	93.9637	276.855	94.9579	276.855	94.2162	276.855	94.8833	276.855	94.4537	276.855	94.793	276.855	94.6519
287.109	97.8485	287.109	97.4462	287.109	98.133	287.109	96.9493	287.109	98.2846	287.109	96.3899	287.109	98.2956	287.109	95.8059	287.109	98.1665	287.109	95.2285	287.109	97.9077	287.109	94.6695	287.109	97.5412	287.109	94.125	287.109	97.0998	287.109	93.6037	287.109	96.6227	287.109	93.1639	287.109	96.1453	287.109	92.9149	287.109	95.6893	287.109	92.951	287.109	95.2607	287.109	93.2618	287.109	94.864	287.109	93.729	287.109	94.5244	287.109	94.2093	287.109	94.295	287.109	94.5947	287.109	94.2301	287.109	94.823	287.109	94.336	287.109	94.872	287.109	94.5481	287.109	94.7598
297.363	98.2704	297.363	97.7819	297.363	98.6205	297.363	97.1943	297.363	98.8104	297.363	96.5622	297.363	98.8332	297.363	95.9463	297.363	98.6927	297.363	95.4016	297.363	98.4005	297.363	94.9649	297.363	97.9729	297.363	94.6434	297.363	97.4317	297.363	94.4133	297.363	96.8123	297.363	94.2396	297.363	96.1783	297.363	94.1111	297.363	95.6262	297.363	94.0621	297.363	95.2538	297.363	94.1525	297.363	95.0967	297.363	94.4064	297.363	95.1041	297.363	94.7665	297.363	95.1897	297.363	95.1208	297.363	95.2911	297.363	95.3753	297.363	95.3839	297.363	95.4976	297.363	95.4618	297.363	95.5112
307.617	98.4901	307.617	98.0703	307.617	98.7478	307.617	97.4819	307.617	98.8525	307.617	96.7355	307.617	98.8112	307.617	95.8767	307.617	98.6316	307.617	94.9983	307.617	98.3252	307.617	94.2324	307.617	97.9094	307.617	93.7085	307.617	97.407	307.617	93.486	307.617	96.8454	307.617	93.5175	307.617	96.2567	307.617	93.689	307.617	95.6808	307.617	93.8959	307.617	95.17	307.617	94.0891	307.617	94.7893	307.617	94.2737	307.617	94.5981	307.617	94.4768	307.617	94.6132	307.617	94.7101	307.617	94.7847	307.617	94.9507	307.617	95.0112	307.617	95.1454	307.617	95.1851	307.617	95.235
319.336	98.5568	319.336	98.2296	319.336	98.7442	319.336	97.7524	319.336	98.8	319.336	97.114	319.336	98.7307	319.336	96.3071	319.336	98.5391	319.336	95.3412	319.336	98.2221	319.336	94.2662	319.336	97.7734	319.336	93.2075	319.336	97.1901	319.336	92.3855	319.336	96.485	319.336	92.0296	319.336	95.7036	319.336	92.1832	319.336	94.9443	319.336	92.6608	319.336	94.354	319.336	93.235	319.336	94.056	319.336	93.7725	319.336	94.0479	319.336	94.2271	319.336	94.2119	319.336	94.5865	319.336	94.4302	319.336	94.8371	319.336	94.6454	319.336	94.9602	319.336	94.8309	319.336	94.9503
329.59	97.9988	329.59	97.528	329.59	98.3232	329.59	96.9352	329.59	98.488	329.59	96.2556	329.59	98.4901	329.59	95.5273	329.59	98.3349	329.59	94.7773	329.59	98.0355	329.59	94.0116	329.59	97.6105	329.59	93.2295	329.59	97.0788	329.59	92.4706	329.59	96.4537	329.59	91.8666	329.59	95.7418	329.59	91.6174	329.59	94.9551	329.59	91.8318	329.59	94.1444	329.59	92.4035	329.59	93.4462	329.59	93.1102	329.59	93.0701	329.59	93.7686	329.59	93.1389	329.59	94.2772	329.59	93.5359	329.59	94.5953	329.59	94.0194	329.59	94.7179	329.59	94.4156	329.59	94.6546
341.309	98.271	341.309	97.8757	341.309	98.4966	341.309	97.3051	341.309	98.5657	341.309	96.5623	341.309	98.4964	341.309	95.6663	341.309	98.306	341.309	94.6643	341.309	98.0034	341.309	93.6378	341.309	97.5875	341.309	92.6881	341.309	97.0538	341.309	91.9107	341.309	96.4099	341.309	91.3909	341.309	95.6955	341.309	91.214	341.309	94.9978	341.309	91.4264	341.309	94.4356	341.309	91.9628	341.309	94.0959	341.309	92.659	341.309	93.9746	341.309	93.3471	341.309	94.0038	341.309	93.9173	341.309	94.1222	341.309	94.3164	341.309	94.2905	341.309	94.5275	341.309	94.4602	341.309	94.5616
353.027	98.1266	353.027	97.8011	353.027	98.3335	353.027	97.3289	353.027	98.4376	353.027	96.6807	353.027	98.4374	353.027	95.8397	353.027	98.3213	353.027	94.8141	353.027	98.0783	353.027	93.6513	353.027	97.7058	353.027	92.4515	353.027	97.2074	353.027	91.3733	353.027	96.5837	353.027	90.6133	353.027	95.8284	353.027	90.3404	353.027	94.9426	353.027	90.5968	353.027	93.983	353.027	91.2595	353.027	93.1315	353.027	92.1218	353.027	92.6881	353.027	92.9994	353.027	92.8292	353.027	93.767	353.027	93.3836	353.027	94.3451	353.027	94.0213	353.027	94.6801	353.027	94.5081	353.027	94.7378
366.211	98.3268	366.211	97.873	366.211	98.6389	366.211	97.3048	366.211	98.787	366.211	96.6432	366.211	98.76	366.211	95.8899	366.211	98.5575	366.211	95.0268	366.211	98.1879	366.211	94.0356	366.211	97.665	366.211	92.9339	366.211	97.0066	366.211	91.8182	366.211	96.2369	366.211	90.8883	366.211	95.3912	366.211	90.3888	366.211	94.5211	366.211	90.4418	366.211	93.698	366.211	90.9497	366.211	93.0248	366.211	91.6952	366.211	92.6374	366.211	92.4752	366.211	92.6316	366.211	93.1472	366.211	92.9445	366.211	93.6292	366.211	93.3755	366.211	93.8873	366.211	93.7344	366.211	93.918
379.395	98.7271	379.395	98.302	379.395	98.9926	379.395	97.7137	379.395	99.1106	379.395	96.9744	379.395	99.0971	379.395	96.1158	379.395	98.968	379.395	95.1775	379.395	98.7318	379.395	94.1804	379.395	98.3831	379.395	93.1158	379.395	97.9022	379.395	91.9837	379.395	97.2638	379.395	90.8763	379.395	96.452	379.395	90.0442	379.395	95.4794	379.395	89.8005	379.395	94.4103	379.395	90.231	379.395	93.3881	379.395	91.1022	379.395	92.6379	379.395	92.1027	379.395	92.375	379.395	93.0068	379.395	92.6217	379.395	93.6743	379.395	93.1595	379.395	94.0231	379.395	93.6972	379.395	94.0215
392.578	97.9742	392.578	97.5827	392.578	98.2294	392.578	97.0703	392.578	98.3313	392.578	96.4387	392.578	98.2714	392.578	95.6751	392.578	98.0544	392.578	94.7672	392.578	97.6997	392.578	93.7223	392.578	97.2394	392.578	92.5706	392.578	96.7117	392.578	91.3621	392.578	96.1485	392.578	90.1951	392.578	95.5645	392.578	89.2979	392.578	94.9634	392.578	89.0192	392.578	94.3623	392.578	89.4978	392.578	93.8097	392.578	90.4311	392.578	93.3626	392.578	91.4138	392.578	93.0479	392.578	92.2208	392.578	92.8775	392.578	92.7757	392.578	92.8702	392.578	93.0632	392.578	92.9907	392.578	93.1058
405.762	97.8465	405.762	97.4125	405.762	98.1104	405.762	96.823	405.762	98.1945	405.762	96.0957	405.762	98.1017	405.762	95.2545	405.762	97.8524	405.762	94.3287	405.762	97.4801	405.762	93.3445	405.762	97.0195	405.762	92.3212	405.762	96.4922	405.762	91.2816	405.762	95.9013	405.762	90.2763	405.762	95.2382	405.762	89.4179	405.762	94.5019	405.762	88.9112	405.762	93.7401	405.762	88.993	405.762	93.1087	405.762	89.704	405.762	92.8558	405.762	90.783	405.762	93.0788	405.762	91.8904	405.762	93.5393	405.762	92.8102	405.762	93.9081	405.762	93.4677	405.762	94.0221	405.762	93.8686
420.41	97.9668	420.41	97.5818	420.41	98.1541	420.41	96.9937	420.41	98.1575	420.41	96.2099	420.41	97.9954	420.41	95.2514	420.41	97.6888	420.41	94.1438	420.41	97.262	420.41	92.9084	420.41	96.7404	420.41	91.5722	420.41	96.1434	420.41	90.217	420.41	95.4747	420.41	89.0525	420.41	94.7238	420.41	88.4154	420.41	93.8866	420.41	88.5421	420.41	92.9922	420.41	89.3239	420.41	92.1259	420.41	90.4463	420.41	91.4649	420.41	91.6271	420.41	91.2861	420.41	92.6702	420.41	91.7478	420.41	93.4433	420.41	92.6	420.41	93.8554	420.41	93.3958	420.41	93.8449
435.059	97.7421	435.059	97.2255	435.059	98.0558	435.059	96.5495	435.059	98.1453	435.059	95.7549	435.059	98.0202	435.059	94.8702	435.059	97.7128	435.059	93.9224	435.059	97.2641	435.059	92.938	435.059	96.7098	435.059	91.9043	435.059	96.0699	435.059	90.7515	435.059	95.3475	435.059	89.439	435.059	94.5451	435.059	88.1612	435.059	93.6932	435.059	87.5058	435.059	92.8779	435.059	87.9725	435.059	92.2583	435.059	89.2272	435.059	92.0283	435.059	90.65	435.059	92.2702	435.059	91.9198	435.059	92.83	435.059	92.9198	435.059	93.4245	435.059	93.5903	435.059	93.8214	435.059	93.8926
451.172	98.7678	451.172	98.312	451.172	98.9875	451.172	97.6408	451.172	98.9645	451.172	96.7923	451.172	98.7035	451.172	95.8079	451.172	98.2273	451.172	94.7112	451.172	97.5882	451.172	93.503	451.172	96.8635	451.172	92.1758	451.172	96.1285	451.172	90.7215	451.172	95.4152	451.172	89.1312	451.172	94.6798	451.172	87.4738	451.172	93.8104	451.172	86.2117	451.172	92.7083	451.172	86.3738	451.172	91.4678	451.172	88.0984	451.172	90.598	451.172	90.2414	451.172	90.7194	451.172	92.0586	451.172	91.6613	451.172	93.3317	451.172	92.777	451.172	94.0127	451.172	93.6575	451.172	94.1052
465.82	98.5806	465.82	98.1308	465.82	98.7938	465.82	97.4371	465.82	98.7784	465.82	96.5048	465.82	98.5455	465.82	95.3749	465.82	98.1176	465.82	94.1395	465.82	97.5302	465.82	92.9218	465.82	96.8259	465.82	91.8083	465.82	96.0398	465.82	90.7759	465.82	95.1891	465.82	89.7012	465.82	94.2807	465.82	88.4587	465.82	93.3314	465.82	87.0536	465.82	92.3725	465.82	85.8237	465.82	91.4328	465.82	85.5527	465.82	90.5751	465.82	86.6139	465.82	90.0152	465.82	88.2645	465.82	90.0267	465.82	89.726	465.82	90.4976	465.82	90.6847	465.82	90.9679	465.82	91.0824
483.398	98.5279	483.398	98.1004	483.398	98.7431	483.398	97.4906	483.398	98.7181	483.398	96.721	483.398	98.4505	483.398	95.8083	483.398	97.9784	483.398	94.762	483.398	97.3666	483.398	93.5831	483.398	96.6678	483.398	92.2762	483.398	95.9014	483.398	90.8712	483.398	95.0743	483.398	89.4376	483.398	94.213	483.398	88.1124	483.398	93.3521	483.398	87.1894	483.398	92.4943	483.398	87.1204	483.398	91.638	483.398	88.0494	483.398	90.9363	483.398	89.5	483.398	90.7769	483.398	90.9259	483.398	91.3355	483.398	92.0549	483.398	92.1965	483.398	92.7856	483.398	92.8518	483.398	93.0625
499.512	98.1388	499.512	97.5801	499.512	98.3695	499.512	96.7662	499.512	98.2522	499.512	95.8036	499.512	97.8212	499.512	94.8034	499.512	97.1529	499.512	93.8466	499.512	96.35	499.512	92.9511	499.512	95.5271	499.512	92.0654	499.512	94.7856	499.512	91.1046	499.512	94.1723	499.512	90.0001	499.512	93.6529	499.512	88.7557	499.512	93.1368	499.512	87.5546	499.512	92.56	499.512	86.9117	499.512	91.9821	499.512	87.4286	499.512	91.6106	499.512	88.947	499.512	91.6443	499.512	90.715	499.512	92.0675	499.512	92.1856	499.512	92.6827	499.512	93.1144	499.512	93.228	499.512	93.4374
517.09	98.571	517.09	98.095	517.09	98.6805	517.09	97.2482	517.09	98.4379	517.09	96.0437	517.09	97.873	517.09	94.5413	517.09	97.0419	517.09	92.8897	517.09	96.0406	517.09	91.3405	517.09	95	517.09	90.1474	517.09	94.0346	517.09	89.3654	517.09	93.1775	517.09	88.8118	517.09	92.391	517.09	88.2869	517.09	91.6515	517.09	87.7904	517.09	91.011	517.09	87.6079	517.09	90.6104	517.09	88.1955	517.09	90.6878	517.09	89.6283	517.09	91.4156	517.09	91.3685	517.09	92.5585	517.09	92.8735	517.09	93.622	517.09	93.8956	517.09	94.2654	517.09	94.3638
536.133	98.7439	536.133	98.2652	536.133	98.8686	536.133	97.4629	536.133	98.6407	536.133	96.3931	536.133	98.0779	536.133	95.1046	536.133	97.2134	536.133	93.6169	536.133	96.1131	536.133	91.9304	536.133	94.8731	536.133	90.0376	536.133	93.5797	536.133	87.9041	536.133	92.2621	536.133	85.4645	536.133	90.8714	536.133	82.8122	536.133	89.301	536.133	81.108	536.133	87.524	536.133	82.3111	536.133	86.1176	536.133	85.0332	536.133	86.5278	536.133	87.5969	536.133	88.5207	536.133	89.7042	536.133	90.5416	536.133	91.3404	536.133	92.0009	536.133	92.453	536.133	92.8127	536.133	92.9612
555.176	98.8576	555.176	98.3936	555.176	99.0146	555.176	97.6553	555.176	98.8183	555.176	96.6638	555.176	98.2478	555.176	95.4636	555.176	97.3516	555.176	94.1461	555.176	96.254	555.176	92.8195	555.176	95.1088	555.176	91.5345	555.176	94.0333	555.176	90.2496	555.176	93.0743	555.176	88.8563	555.176	92.2039	555.176	87.1808	555.176	91.2897	555.176	84.9941	555.176	90.048	555.176	82.2918	555.176	88.0844	555.176	80.8402	555.176	85.4635	555.176	83.3157	555.176	85.0677	555.176	86.872	555.176	87.9354	555.176	89.605	555.176	90.3924	555.176	91.2849	555.176	91.6856	555.176	91.9613
574.219	98.8003	574.219	98.2335	574.219	98.957	574.219	97.3896	574.219	98.6121	574.219	96.3404	574.219	97.7898	574.219	95.0947	574.219	96.6126	574.219	93.6817	574.219	95.2433	574.219	92.199	574.219	93.8598	574.219	90.7962	574.219	92.6336	574.219	89.5857	574.219	91.6451	574.219	88.4944	574.219	90.8299	574.219	87.2398	574.219	90.0365	574.219	85.5464	574.219	89.0963	574.219	83.6229	574.219	87.8696	574.219	83.0953	574.219	86.4047	574.219	85.0812	574.219	85.685	574.219	87.6847	574.219	87.2381	574.219	89.7741	574.219	89.6526	574.219	91.1499	574.219	91.2484	574.219	91.7032
594.727	98.5494	594.727	98.0575	594.727	98.5899	594.727	97.085	594.727	98.2519	594.727	95.6942	594.727	97.5754	594.727	94.0445	594.727	96.5285	594.727	92.3213	594.727	95.0637	594.727	90.6117	594.727	93.2327	594.727	88.9363	594.727	91.2886	594.727	87.5002	594.727	89.6638	594.727	86.6547	594.727	88.6448	594.727	86.2869	594.727	87.9966	594.727	85.7807	594.727	87.2246	594.727	84.6833	594.727	86.0828	594.727	83.3911	594.727	84.8905	594.727	83.8232	594.727	84.9787	594.727	86.269	594.727	87.0079	594.727	88.726	594.727	89.2945	594.727	90.3739	594.727	90.7138	594.727	91.0595
615.234	98.2588	615.234	97.7298	615.234	98.428	615.234	96.8804	615.234	98.1723	615.234	95.7055	615.234	97.4115	615.234	94.1708	615.234	96.1095	615.234	92.3305	615.234	94.3793	615.234	90.4378	615.234	92.5207	615.234	88.7862	615.234	90.8693	615.234	87.3658	615.234	89.5727	615.234	85.9066	615.234	88.5672	615.234	84.3124	615.234	87.6664	615.234	82.7946	615.234	86.5388	615.234	81.3621	615.234	84.7865	615.234	79.9831	615.234	82.6831	615.234	80.0794	615.234	82.6132	615.234	82.7197	615.234	84.9947	615.234	85.8199	615.234	87.3193	615.234	88.0207	615.234	88.7267	615.234	88.9965
637.207	98.0175	637.207	97.4163	637.207	98.1468	637.207	96.4211	637.207	97.7576	637.207	95.0839	637.207	96.8736	637.207	93.419	637.207	95.585	637.207	91.4898	637.207	93.995	637.207	89.5086	637.207	92.187	637.207	87.7581	637.207	90.3233	637.207	86.3436	637.207	88.7058	637.207	85.1536	637.207	87.524	637.207	84.0853	637.207	86.5983	637.207	83.0992	637.207	85.5557	637.207	82.1289	637.207	84.1276	637.207	81.4484	637.207	82.4663	637.207	82.2283	637.207	82.2675	637.207	84.5368	637.207	84.8566	637.207	86.8701	637.207	87.5963	637.207	88.521	637.207	89.096	637.207	89.3254
659.18	97.2683	659.18	96.6514	659.18	97.3655	659.18	95.5157	659.18	97.0105	659.18	94.0233	659.18	96.2432	659.18	92.4216	659.18	95.0549	659.18	90.7904	659.18	93.431	659.18	89.0062	659.18	91.4268	659.18	87.0893	659.18	89.2266	659.18	85.4221	659.18	87.1925	659.18	84.2525	659.18	85.9143	659.18	83.1872	659.18	85.6972	659.18	81.9209	659.18	85.8418	659.18	80.9959	659.18	85.3986	659.18	81.3131	659.18	84.1639	659.18	82.5921	659.18	83.5474	659.18	84.1184	659.18	84.6296	659.18	85.6538	659.18	85.9535	659.18	86.8449	659.18	86.8833	659.18	87.269
682.617	98.2365	682.617	97.5928	682.617	98.4444	682.617	96.5631	682.617	98.1387	682.617	95.1492	682.617	97.25	682.617	93.3657	682.617	95.75	682.617	91.3441	682.617	93.72	682.617	89.3205	682.617	91.4569	682.617	87.4155	682.617	89.4819	682.617	85.4862	682.617	88.1165	682.617	83.4073	682.617	86.983	682.617	81.5348	682.617	85.5626	682.617	80.4712	682.617	84.0336	682.617	79.7926	682.617	83.2717	682.617	79.0855	682.617	83.664	682.617	80.7705	682.617	85.0887	682.617	84.3843	682.617	87.2899	682.617	87.2752	682.617	89.2723	682.617	89.1749	682.617	90.2889	682.617	90.2101
707.52	98.1247	707.52	97.2589	707.52	98.4894	707.52	96.0608	707.52	98.2911	707.52	94.7052	707.52	97.5439	707.52	93.2124	707.52	96.303	707.52	91.5348	707.52	94.6468	707.52	89.837	707.52	92.6447	707.52	88.474	707.52	90.409	707.52	87.5251	707.52	88.3144	707.52	86.6475	707.52	86.8646	707.52	85.5326	707.52	85.8351	707.52	84.1245	707.52	84.4296	707.52	82.3556	707.52	82.114	707.52	79.5422	707.52	79.3603	707.52	72.8358	707.52	80.4325	707.52	73.3521	707.52	84.6162	707.52	82.43	707.52	87.633	707.52	86.626	707.52	88.9291	707.52	88.6009
732.422	97.5026	732.422	96.7482	732.422	97.8782	732.422	95.6008	732.422	97.8161	732.422	94.0786	732.422	97.1864	732.422	92.3276	732.422	95.8997	732.422	90.6214	732.422	94.0043	732.422	89.2217	732.422	91.7374	732.422	88.1693	732.422	89.5537	732.422	87.2454	732.422	87.9949	732.422	86.1368	732.422	87.3244	732.422	84.6679	732.422	87.1833	732.422	82.9925	732.422	86.7974	732.422	81.561	732.422	85.5676	732.422	80.9834	732.422	83.9704	732.422	81.6004	732.422	84.396	732.422	82.9907	732.422	86.2334	732.422	84.676	732.422	87.506	732.422	86.3408	732.422	87.9444	732.422	87.5383
757.324	98.1033	757.324	97.0726	757.324	98.6455	757.324	95.6483	757.324	98.6304	757.324	93.9897	757.324	98.0562	757.324	92.3843	757.324	96.944	757.324	91.1034	757.324	95.238	757.324	90.1918	757.324	92.9027	757.324	89.5556	757.324	90.3149	757.324	89.1186	757.324	88.4144	757.324	88.6879	757.324	87.5728	757.324	87.8646	757.324	87.086	757.324	86.2028	757.324	86.1989	757.324	83.504	757.324	84.4358	757.324	80.5803	757.324	82.8879	757.324	79.2076	757.324	84.8473	757.324	80.4624	757.324	87.6726	757.324	83.545	757.324	89.1792	757.324	86.5339	757.324	89.4121	757.324	88.5334
785.156	97.347	785.156	96.3065	785.156	98.0941	785.156	95.1407	785.156	98.3725	785.156	93.855	785.156	98.069	785.156	92.3884	785.156	97.1301	785.156	90.9646	785.156	95.5797	785.156	89.9837	785.156	93.5389	785.156	89.4698	785.156	91.3803	785.156	89.0721	785.156	89.9627	785.156	88.6317	785.156	89.5242	785.156	88.1342	785.156	88.9941	785.156	87.2642	785.156	87.6743	785.156	85.6804	785.156	85.4699	785.156	83.7758	785.156	82.7318	785.156	82.383	785.156	82.9606	785.156	80.2481	785.156	86.5327	785.156	76.4719	785.156	88.6732	785.156	81.6503	785.156	88.626	785.156	86.4493
811.523	97.7411	811.523	96.8279	811.523	98.2474	811.523	95.6132	811.523	98.3185	811.523	94.3272	811.523	97.9645	811.523	93.2011	811.523	97.1928	811.523	92.2673	811.523	95.9321	811.523	91.4952	811.523	94.1059	811.523	90.9949	811.523	91.9365	811.523	90.7846	811.523	90.1329	811.523	90.5185	811.523	89.4043	811.523	89.8283	811.523	89.4184	811.523	88.7199	811.523	89.0382	811.523	87.3455	811.523	87.4603	811.523	85.6283	811.523	84.8959	811.523	83.6952	811.523	84.2225	811.523	82.859	811.523	86.4915	811.523	83.9513	811.523	88.3079	811.523	85.8561	811.523	88.6555	811.523	87.6571
840.82	97.9348	840.82	97.2287	840.82	98.4096	840.82	96.3992	840.82	98.5278	840.82	95.4184	840.82	98.2711	840.82	94.26	840.82	97.6492	840.82	93.0267	840.82	96.6301	840.82	91.8352	840.82	95.1497	840.82	90.7481	840.82	93.1724	840.82	89.9956	840.82	90.9867	840.82	89.9523	840.82	89.815	840.82	90.3072	840.82	89.895	840.82	90.0648	840.82	89.6955	840.82	88.5208	840.82	88.2395	840.82	86.0956	840.82	85.6371	840.82	85.1205	840.82	85.9307	840.82	85.3018	840.82	88.3005	840.82	84.388	840.82	89.0383	840.82	83.533	840.82	88.025	840.82	85.6087
870.117	98.1671	870.117	97.6808	870.117	98.6159	870.117	96.9315	870.117	98.9824	870.117	95.896	870.117	98.9134	870.117	94.8698	870.117	98.2226	870.117	94.0661	870.117	97.0736	870.117	93.3682	870.117	95.6488	870.117	92.7623	870.117	94.0082	870.117	92.4689	870.117	92.507	870.117	92.2831	870.117	91.6775	870.117	91.6555	870.117	91.3718	870.117	90.3736	870.117	90.8561	870.117	88.5459	870.117	89.6401	870.117	86.4105	870.117	87.942	870.117	85.2794	870.117	87.3727	870.117	86.5576	870.117	88.7696	870.117	87.6504	870.117	89.5602	870.117	87.1977	870.117	88.4558	870.117	86.8166
900.879	98.6246	900.879	98.0827	900.879	98.9304	900.879	97.4798	900.879	99.0062	900.879	96.93	900.879	98.9633	900.879	96.2786	900.879	98.7342	900.879	95.335	900.879	98.0427	900.879	94.1151	900.879	96.712	900.879	92.8124	900.879	94.833	900.879	91.7149	900.879	92.8085	900.879	91.2973	900.879	91.5492	900.879	91.6743	900.879	91.5407	900.879	91.9134	900.879	91.5411	900.879	90.8561	900.879	90.2764	900.879	87.8101	900.879	87.9964	900.879	84.4347	900.879	88.3714	900.879	85.6055	900.879	90.3577	900.879	87.0468	900.879	90.7716	900.879	86.9609	900.879	89.4869	900.879	87.4823
933.105	98.2683	933.105	98.0051	933.105	98.6914	933.105	97.7194	933.105	99.0842	933.105	97.2401	933.105	99.101	933.105	96.5707	933.105	98.6829	933.105	95.7011	933.105	97.9852	933.105	94.6672	933.105	96.991	933.105	93.7702	933.105	95.5291	933.105	93.2689	933.105	93.7824	933.105	92.9707	933.105	92.6135	933.105	92.7498	933.105	92.4839	933.105	92.4562	933.105	92.3727	933.105	91.3425	933.105	91.1011	933.105	88.5713	933.105	88.2902	933.105	84.9564	933.105	87.6467	933.105	85.465	933.105	90.1252	933.105	87.3966	933.105	90.6749	933.105	87.4149	933.105	89.0343	933.105	87.137
965.332	98.6687	965.332	98.6981	965.332	98.4966	965.332	98.4292	965.332	98.5331	965.332	97.9634	965.332	98.7567	965.332	97.2685	965.332	98.7493	965.332	96.1837	965.332	98.2324	965.332	94.8665	965.332	97.1185	965.332	93.7028	965.332	95.3305	965.332	92.7115	965.332	93.2231	965.332	91.8956	965.332	92.3224	965.332	91.7886	965.332	92.8844	965.332	92.2187	965.332	92.7927	965.332	92.115	965.332	91.0966	965.332	90.3753	965.332	88.3188	965.332	86.2626	965.332	87.8935	965.332	82.9483	965.332	90.1693	965.332	84.9729	965.332	90.9217	965.332	86.0803	965.332	89.1944	965.332	86.6879
1,000.49	98.2846	1,000.49	98.6024	1,000.49	98.2117	1,000.49	98.7656	1,000.49	98.5273	1,000.49	98.4888	1,000.49	98.7716	1,000.49	97.7138	1,000.49	98.5689	1,000.49	96.593	1,000.49	97.923	1,000.49	95.2581	1,000.49	96.9514	1,000.49	93.9369	1,000.49	95.6007	1,000.49	93.1549	1,000.49	93.7297	1,000.49	92.8576	1,000.49	91.888	1,000.49	92.4518	1,000.49	91.556	1,000.49	92.08	1,000.49	92.2678	1,000.49	91.9025	1,000.49	91.9027	1,000.49	90.9003	1,000.49	89.5273	1,000.49	88.2113	1,000.49	87.218	1,000.49	86.3386	1,000.49	88.7279	1,000.49	87.5411	1,000.49	89.6067	1,000.49	86.9996	1,000.49	87.9909	1,000.49	85.7508
1,035.64	98.4047	1,035.64	99.0041	1,035.64	97.8302	1,035.64	98.9781	1,035.64	98.0967	1,035.64	98.4749	1,035.64	98.6871	1,035.64	97.6494	1,035.64	98.6912	1,035.64	96.3631	1,035.64	98.0202	1,035.64	94.842	1,035.64	96.9277	1,035.64	93.6089	1,035.64	95.3286	1,035.64	92.5262	1,035.64	93.1798	1,035.64	91.3446	1,035.64	91.668	1,035.64	91.0232	1,035.64	92.0372	1,035.64	91.4403	1,035.64	92.2837	1,035.64	91.2619	1,035.64	91.2634	1,035.64	89.7768	1,035.64	88.9666	1,035.64	86.5107	1,035.64	87.6589	1,035.64	84.4124	1,035.64	90.1489	1,035.64	86.9025	1,035.64	90.5637	1,035.64	87.5054	1,035.64	87.4852	1,035.64	85.728
1,072.27	97.9834	1,072.27	99.0078	1,072.27	97.1026	1,072.27	99.2381	1,072.27	97.2943	1,072.27	98.4252	1,072.27	98.0214	1,072.27	97.0274	1,072.27	98.3881	1,072.27	95.7011	1,072.27	98.0992	1,072.27	94.2865	1,072.27	97.0868	1,072.27	92.3315	1,072.27	95.4239	1,072.27	90.7893	1,072.27	93.2249	1,072.27	90.6282	1,072.27	90.8193	1,072.27	90.5515	1,072.27	90.1458	1,072.27	90.2245	1,072.27	91.3636	1,072.27	90.2956	1,072.27	91.5413	1,072.27	89.8638	1,072.27	89.786	1,072.27	87.7577	1,072.27	87.5427	1,072.27	85.357	1,072.27	88.5136	1,072.27	86.4751	1,072.27	88.7491	1,072.27	86.8853	1,072.27	85.588	1,072.27	84.6992
1,108.89	98.5589	1,108.89	99.0797	1,108.89	97.5914	1,108.89	99.0463	1,108.89	96.9569	1,108.89	98.2979	1,108.89	97.3327	1,108.89	96.8938	1,108.89	97.9166	1,108.89	95.0779	1,108.89	97.7405	1,108.89	92.9845	1,108.89	96.6271	1,108.89	91.3147	1,108.89	95.0136	1,108.89	90.7793	1,108.89	93.1267	1,108.89	90.345	1,108.89	90.8658	1,108.89	89.4726	1,108.89	89.4044	1,108.89	89.2578	1,108.89	90.1674	1,108.89	89.7055	1,108.89	90.8224	1,108.89	88.9633	1,108.89	89.1199	1,108.89	85.1781	1,108.89	86.6656	1,108.89	81.6574	1,108.89	88.2381	1,108.89	85.8708	1,108.89	88.3256	1,108.89	86.8542	1,108.89	85.8264	1,108.89	84.6743
1,148.44	98.5054	1,148.44	99.0298	1,148.44	97.2253	1,148.44	98.699	1,148.44	96.4274	1,148.44	97.6765	1,148.44	96.9822	1,148.44	95.8921	1,148.44	97.385	1,148.44	93.8602	1,148.44	97.1711	1,148.44	92.1276	1,148.44	96.6453	1,148.44	89.9351	1,148.44	95.3096	1,148.44	87.5514	1,148.44	93.0647	1,148.44	87.289	1,148.44	90.5276	1,148.44	88.2345	1,148.44	89.1768	1,148.44	88.4927	1,148.44	90.3457	1,148.44	88.2662	1,148.44	90.6285	1,148.44	87.6571	1,148.44	88.8205	1,148.44	85.7381	1,148.44	86.1889	1,148.44	81.3514	1,148.44	86.9838	1,148.44	82.5405	1,148.44	87.3583	1,148.44	85.2607	1,148.44	82.3768	1,148.44	83.1856
1,189.45	98.2314	1,189.45	98.7726	1,189.45	97.2432	1,189.45	98.502	1,189.45	96.4391	1,189.45	97.2076	1,189.45	97.0909	1,189.45	95.6154	1,189.45	98.1269	1,189.45	94.076	1,189.45	97.9417	1,189.45	91.9283	1,189.45	96.5563	1,189.45	89.5648	1,189.45	95.124	1,189.45	88.0168	1,189.45	93.9576	1,189.45	86.9388	1,189.45	91.6458	1,189.45	86.7803	1,189.45	87.8523	1,189.45	86.4552	1,189.45	88.5163	1,189.45	85.63	1,189.45	90.6312	1,189.45	86.14	1,189.45	89.0408	1,189.45	85.0917	1,189.45	86.2731	1,189.45	79.2045	1,189.45	87.4102	1,189.45	83.6935	1,189.45	86.8173	1,189.45	87.5232	1,189.45	83.0656	1,189.45	85.4193
1,230.47	98.9774	1,230.47	99.1632	1,230.47	97.7794	1,230.47	98.1253	1,230.47	96.7901	1,230.47	96.6594	1,230.47	97.1441	1,230.47	95.0826	1,230.47	98.0963	1,230.47	93.4323	1,230.47	98.2041	1,230.47	92.1816	1,230.47	97.0625	1,230.47	90.5369	1,230.47	95.5776	1,230.47	87.6915	1,230.47	94.012	1,230.47	85.9066	1,230.47	91.7449	1,230.47	86.6461	1,230.47	89.6764	1,230.47	87.124	1,230.47	88.814	1,230.47	86.4282	1,230.47	89.645	1,230.47	85.2749	1,230.47	89.158	1,230.47	84.7723	1,230.47	86.4051	1,230.47	81.2085	1,230.47	86.8265	1,230.47	80.2757	1,230.47	86.0222	1,230.47	84.7778	1,230.47	80.9592	1,230.47	83.1796
1,274.41	99.2842	1,274.41	99.0781	1,274.41	98.313	1,274.41	98.098	1,274.41	96.9243	1,274.41	96.6943	1,274.41	97.1563	1,274.41	94.9208	1,274.41	98.078	1,274.41	92.98	1,274.41	98.0242	1,274.41	91.7321	1,274.41	97.1268	1,274.41	91.3523	1,274.41	95.5842	1,274.41	90.0387	1,274.41	93.7104	1,274.41	87.4077	1,274.41	91.8178	1,274.41	86.0366	1,274.41	88.8391	1,274.41	86.6196	1,274.41	87.7351	1,274.41	86.6412	1,274.41	90.2985	1,274.41	85.6181	1,274.41	89.3974	1,274.41	84.1017	1,274.41	85.5143	1,274.41	80.7073	1,274.41	86.5233	1,274.41	77.1051	1,274.41	85.8359	1,274.41	84.4027	1,274.41	80.2836	1,274.41	84.5474
1,319.82	99.0912	1,319.82	99.0906	1,319.82	97.9562	1,319.82	98.1363	1,319.82	96.7691	1,319.82	96.3626	1,319.82	96.9908	1,319.82	94.5632	1,319.82	97.5973	1,319.82	93.4307	1,319.82	97.7942	1,319.82	92.0438	1,319.82	96.9036	1,319.82	90.9055	1,319.82	94.9936	1,319.82	90.5083	1,319.82	93.2504	1,319.82	88.5383	1,319.82	91.6857	1,319.82	84.9664	1,319.82	89.7112	1,319.82	86.2976	1,319.82	88.1057	1,319.82	86.9503	1,319.82	89.2141	1,319.82	84.8838	1,319.82	88.9163	1,319.82	85.1404	1,319.82	85.3761	1,319.82	83.6665	1,319.82	86.0902	1,319.82	78.0222	1,319.82	84.7866	1,319.82	83.9095	1,319.82	81.0083	1,319.82	84.615
1,366.7	98.8442	1,366.7	98.5781	1,366.7	97.8504	1,366.7	97.2982	1,366.7	96.2801	1,366.7	95.4287	1,366.7	96.0275	1,366.7	94.1476	1,366.7	97.0031	1,366.7	92.9006	1,366.7	97.6651	1,366.7	91.4001	1,366.7	96.9192	1,366.7	90.9381	1,366.7	94.7921	1,366.7	89.345	1,366.7	92.1513	1,366.7	86.7346	1,366.7	90.0338	1,366.7	85.6213	1,366.7	88.3958	1,366.7	85.6652	1,366.7	86.0325	1,366.7	85.7589	1,366.7	88.3384	1,366.7	84.6541	1,366.7	88.4894	1,366.7	84.4878	1,366.7	86.3851	1,366.7	83.0448	1,366.7	86.016	1,366.7	79.5714	1,366.7	84.4056	1,366.7	84.4942	1,366.7	80.4707	1,366.7	85.1843
1,413.57	98.4434	1,413.57	98.0239	1,413.57	97.5788	1,413.57	96.5483	1,413.57	96.1121	1,413.57	94.7408	1,413.57	95.4958	1,413.57	93.0398	1,413.57	96.0182	1,413.57	91.3638	1,413.57	96.3722	1,413.57	91.1013	1,413.57	95.521	1,413.57	90.703	1,413.57	93.4157	1,413.57	88.756	1,413.57	91.2133	1,413.57	88.8678	1,413.57	90.2454	1,413.57	88.0097	1,413.57	88.5978	1,413.57	85.3157	1,413.57	86.7524	1,413.57	86.1995	1,413.57	87.0673	1,413.57	85.7982	1,413.57	87.3796	1,413.57	83.3085	1,413.57	82.969	1,413.57	81.7041	1,413.57	82.0576	1,413.57	79.2208	1,413.57	82.0014	1,413.57	81.2286	1,413.57	81.2699	1,413.57	83.1031
1,463.38	98.0003	1,463.38	97.1621	1,463.38	97.3102	1,463.38	95.4379	1,463.38	95.6191	1,463.38	93.7079	1,463.38	94.9919	1,463.38	92.4332	1,463.38	95.6011	1,463.38	92.2229	1,463.38	95.5913	1,463.38	91.1691	1,463.38	94.8738	1,463.38	89.5178	1,463.38	93.2156	1,463.38	89.4998	1,463.38	90.4329	1,463.38	88.2708	1,463.38	87.8758	1,463.38	85.3605	1,463.38	85.0192	1,463.38	84.0366	1,463.38	83.4451	1,463.38	86.3128	1,463.38	85.9943	1,463.38	85.6089	1,463.38	86.4023	1,463.38	83.194	1,463.38	83.819	1,463.38	82.0041	1,463.38	82.5628	1,463.38	75.1244	1,463.38	82.9932	1,463.38	82.1679	1,463.38	80.5128	1,463.38	84.075
1,516.11	97.5564	1,516.11	96.2714	1,516.11	96.9718	1,516.11	94.1896	1,516.11	95.1558	1,516.11	92.8474	1,516.11	94.2814	1,516.11	92.2404	1,516.11	95.2585	1,516.11	91.907	1,516.11	95.2312	1,516.11	91.0096	1,516.11	94.5185	1,516.11	89.874	1,516.11	93.1789	1,516.11	88.9416	1,516.11	90.4925	1,516.11	87.9087	1,516.11	88.1105	1,516.11	86.6339	1,516.11	87.3054	1,516.11	84.5909	1,516.11	85.447	1,516.11	85.1081	1,516.11	83.3556	1,516.11	85.8875	1,516.11	85.1282	1,516.11	82.3518	1,516.11	82.0212	1,516.11	80.7833	1,516.11	81.6128	1,516.11	78.2138	1,516.11	80.7942	1,516.11	81.228	1,516.11	77.7616	1,516.11	82.4651
1,568.85	97.0947	1,568.85	95.4178	1,568.85	97.3492	1,568.85	93.8542	1,568.85	95.649	1,568.85	92.712	1,568.85	93.936	1,568.85	92.6771	1,568.85	94.7692	1,568.85	91.587	1,568.85	95.4348	1,568.85	90.236	1,568.85	94.6024	1,568.85	88.9435	1,568.85	93.1622	1,568.85	87.695	1,568.85	91.1005	1,568.85	86.8688	1,568.85	88.8906	1,568.85	85.7397	1,568.85	87.1772	1,568.85	85.0332	1,568.85	85.4558	1,568.85	85.1599	1,568.85	84.1585	1,568.85	84.1058	1,568.85	84.3815	1,568.85	82.7784	1,568.85	80.7832	1,568.85	80.173	1,568.85	81.1309	1,568.85	73.4801	1,568.85	81.629	1,568.85	77.8499	1,568.85	75.0152	1,568.85	80.6299
1,624.51	97.8664	1,624.51	96.2821	1,624.51	98.1764	1,624.51	95.1275	1,624.51	96.8072	1,624.51	94.4648	1,624.51	94.9871	1,624.51	93.7212	1,624.51	95.16	1,624.51	92.606	1,624.51	95.7054	1,624.51	90.7375	1,624.51	95.4908	1,624.51	89.0909	1,624.51	93.7444	1,624.51	88.2328	1,624.51	91.3955	1,624.51	86.9553	1,624.51	88.428	1,624.51	85.6408	1,624.51	86.9808	1,624.51	85.0387	1,624.51	87.4498	1,624.51	83.4989	1,624.51	85.6872	1,624.51	85.1651	1,624.51	86.1475	1,624.51	82.75	1,624.51	83.4373	1,624.51	77.8121	1,624.51	80.2707	1,624.51	73.7616	1,624.51	81.237	1,624.51	77.0811	1,624.51	73.7157	1,624.51	82.0905
1,681.64	98.7971	1,681.64	97.0826	1,681.64	99.3099	1,681.64	96.3499	1,681.64	98.364	1,681.64	95.9403	1,681.64	96.516	1,681.64	95.0064	1,681.64	96.3171	1,681.64	92.8736	1,681.64	96.5531	1,681.64	91.5367	1,681.64	95.7749	1,681.64	90.4151	1,681.64	94.1077	1,681.64	89.3244	1,681.64	91.937	1,681.64	86.6523	1,681.64	89.833	1,681.64	85.8585	1,681.64	88.5087	1,681.64	84.1191	1,681.64	86.7559	1,681.64	84.308	1,681.64	85.5965	1,681.64	85.0036	1,681.64	87.2796	1,681.64	84.091	1,681.64	83.9255	1,681.64	80.9551	1,681.64	80.24	1,681.64	78.901	1,681.64	79.3476	1,681.64	74.0174	1,681.64	69.9744	1,681.64	79.1257
1,741.7	98.6307	1,741.7	97.3407	1,741.7	99.6152	1,741.7	96.8506	1,741.7	98.8835	1,741.7	96.305	1,741.7	96.623	1,741.7	95.0103	1,741.7	96.1137	1,741.7	94.0131	1,741.7	96.5367	1,741.7	91.847	1,741.7	96.229	1,741.7	90.8102	1,741.7	94.0868	1,741.7	89.2223	1,741.7	91.9636	1,741.7	87.6933	1,741.7	88.5194	1,741.7	85.9864	1,741.7	85.0238	1,741.7	84.7215	1,741.7	85.737	1,741.7	83.3695	1,741.7	85.6993	1,741.7	84.9915	1,741.7	85.0801	1,741.7	86.1583	1,741.7	83.3817	1,741.7	83.7524	1,741.7	76.8056	1,741.7	83.2852	1,741.7	68.5271	1,741.7	74.3824	1,741.7	79.6724	1,741.7	79.3858
1,803.22	98.2378	1,803.22	96.7188	1,803.22	98.9161	1,803.22	96.5185	1,803.22	98.5378	1,803.22	96.4285	1,803.22	96.4932	1,803.22	95.8331	1,803.22	95.7707	1,803.22	93.5995	1,803.22	96.0093	1,803.22	92.0978	1,803.22	95.4181	1,803.22	90.3298	1,803.22	93.0616	1,803.22	90.5745	1,803.22	90.9399	1,803.22	89.789	1,803.22	88.3096	1,803.22	87.6656	1,803.22	84.8192	1,803.22	87.5335	1,803.22	85.8508	1,803.22	87.4392	1,803.22	86.5877	1,803.22	88.009	1,803.22	84.8006	1,803.22	86.9075	1,803.22	80.8537	1,803.22	84.8206	1,803.22	77.3816	1,803.22	83.0564	1,803.22	76.3789	1,803.22	82.1024	1,803.22	80.6282	1,803.22	82.0331
1,866.21	97.1459	1,866.21	96.3875	1,866.21	97.9979	1,866.21	96.8011	1,866.21	97.7025	1,866.21	96.13	1,866.21	95.7581	1,866.21	94.8083	1,866.21	93.8199	1,866.21	93.0753	1,866.21	94.4538	1,866.21	90.9089	1,866.21	94.596	1,866.21	89.3232	1,866.21	92.9544	1,866.21	87.5792	1,866.21	89.9362	1,866.21	86.1502	1,866.21	88.9865	1,866.21	86.5408	1,866.21	86.0519	1,866.21	84.1417	1,866.21	82.8397	1,866.21	82.7216	1,866.21	82.9814	1,866.21	82.8602	1,866.21	82.3327	1,866.21	85.0673	1,866.21	80.0787	1,866.21	82.4679	1,866.21	69.289	1,866.21	79.9196	1,866.21	72.7918	1,866.21	79.7061	1,866.21	80.6374	1,866.21	85.2631
1,932.13	96.2858	1,932.13	96.4431	1,932.13	98.0836	1,932.13	96.0081	1,932.13	98.0088	1,932.13	95.6462	1,932.13	95.7618	1,932.13	93.8572	1,932.13	93.7374	1,932.13	91.9243	1,932.13	95.1069	1,932.13	89.435	1,932.13	94.8675	1,932.13	88.8135	1,932.13	93.7667	1,932.13	88.5357	1,932.13	90.68	1,932.13	88.2467	1,932.13	87.3722	1,932.13	87.3647	1,932.13	84.3897	1,932.13	86.2109	1,932.13	79.8767	1,932.13	85.9057	1,932.13	87.6728	1,932.13	85.8742	1,932.13	84.1564	1,932.13	84.3932	1,932.13	83.4105	1,932.13	83.2675	1,932.13	69.6545	1,932.13	81.2405	1,932.13	78.5608	1,932.13	76.1765	1,932.13	77.8363	1,932.13	77.5629
1,999.51	97.7873	1,999.51	97.5622	1,999.51	98.9718	1,999.51	96.7098	1,999.51	99.4161	1,999.51	95.942	1,999.51	98.1529	1,999.51	92.5381	1,999.51	96.4301	1,999.51	91.4481	1,999.51	95.683	1,999.51	90.1617	1,999.51	95.6185	1,999.51	90.3173	1,999.51	94.3302	1,999.51	89.2274	1,999.51	92.7238	1,999.51	85.392	1,999.51	89.767	1,999.51	86.2856	1,999.51	86.4627	1,999.51	85.7919	1,999.51	87.6133	1,999.51	84.0551	1,999.51	82.8447	1,999.51	83.3398	1,999.51	78.6759	1,999.51	84.5644	1,999.51	79.8074	1,999.51	81.5609	1,999.51	79.5106	1,999.51	78.3871	1,999.51	77.4504	1,999.51	80.6044	1,999.51	81.4304	1,999.51	80.2471
2,069.82	98.1025	2,069.82	98.2509	2,069.82	98.6501	2,069.82	97.1565	2,069.82	99.1883	2,069.82	95.8573	2,069.82	98.4653	2,069.82	93.2392	2,069.82	95.1763	2,069.82	92.3432	2,069.82	94.534	2,069.82	91.8706	2,069.82	94.9688	2,069.82	91.2784	2,069.82	93.9327	2,069.82	92.1642	2,069.82	91.418	2,069.82	88.5502	2,069.82	89.9135	2,069.82	84.723	2,069.82	88.6001	2,069.82	79.7691	2,069.82	85.345	2,069.82	77.0019	2,069.82	86.5462	2,069.82	81.6635	2,069.82	79.8472	2,069.82	83.7932	2,069.82	73.158	2,069.82	83.8728	2,069.82	75.4762	2,069.82	82.6226	2,069.82	79.6611	2,069.82	82.0014	2,069.82	80.5479	2,069.82	79.1767
2,143.07	98.6265	2,143.07	98.786	2,143.07	99.02	2,143.07	97.8646	2,143.07	99.9241	2,143.07	96.843	2,143.07	98.1388	2,143.07	96.2973	2,143.07	95.5172	2,143.07	93.4332	2,143.07	94.8332	2,143.07	91.5973	2,143.07	94.7835	2,143.07	88.7028	2,143.07	92.61	2,143.07	86.8913	2,143.07	91.0909	2,143.07	86.753	2,143.07	89.9509	2,143.07	84.3677	2,143.07	85.6278	2,143.07	84.9655	2,143.07	81.1145	2,143.07	82.1026	2,143.07	85.3591	2,143.07	85.4078	2,143.07	85.2646	2,143.07	84.704	2,143.07	74.7166	2,143.07	82.2757	2,143.07	71.9144	2,143.07	82.0872	2,143.07	80.5412	2,143.07	85.7701	2,143.07	79.423	2,143.07	77.4611
2,219.24	97.5915	2,219.24	98.6741	2,219.24	98.3175	2,219.24	98.2281	2,219.24	98.4624	2,219.24	95.9633	2,219.24	97.5008	2,219.24	94.6477	2,219.24	93.9291	2,219.24	93.7734	2,219.24	93.248	2,219.24	90.7616	2,219.24	94.0342	2,219.24	88.0031	2,219.24	91.5926	2,219.24	88.1119	2,219.24	88.4874	2,219.24	88.6835	2,219.24	85.598	2,219.24	86.2231	2,219.24	85.9061	2,219.24	86.4123	2,219.24	78.9713	2,219.24	81.8221	2,219.24	82.1871	2,219.24	86.1143	2,219.24	80.078	2,219.24	84.5531	2,219.24	71.0869	2,219.24	86.3105	2,219.24	79.8507	2,219.24	85.3381	2,219.24	80.4673	2,219.24	78.0697	2,219.24	78.552	2,219.24	78.8559
2,296.88	99.0174	2,296.88	97.7945	2,296.88	96.9937	2,296.88	95.5323	2,296.88	98.1718	2,296.88	93.3854	2,296.88	97.7033	2,296.88	91.9504	2,296.88	94.6545	2,296.88	90.7663	2,296.88	91.7157	2,296.88	91.1216	2,296.88	91.6236	2,296.88	90.5039	2,296.88	91.4307	2,296.88	87.636	2,296.88	90.391	2,296.88	86.9658	2,296.88	89.9036	2,296.88	86.1776	2,296.88	84.2206	2,296.88	85.9047	2,296.88	86.8155	2,296.88	83.5741	2,296.88	68.165	2,296.88	69.5081	2,296.88	71.8865	2,296.88	79.9961	2,296.88	74.4448	2,296.88	82.6589	2,296.88	73.4187	2,296.88	77.0179	2,296.88	77.0113	2,296.88	74.9649	2,296.88	79.5414	2,296.88	79.5148
2,378.91	98.6403	2,378.91	98.838	2,378.91	98.9189	2,378.91	97.178	2,378.91	99.2142	2,378.91	95.1717	2,378.91	99.3608	2,378.91	92.2513	2,378.91	96.2284	2,378.91	91.3018	2,378.91	94.7477	2,378.91	91.3384	2,378.91	93.1296	2,378.91	88.0426	2,378.91	93.9059	2,378.91	88.7155	2,378.91	91.3189	2,378.91	82.1012	2,378.91	88.0493	2,378.91	86.6861	2,378.91	86.8521	2,378.91	81.5139	2,378.91	81.7555	2,378.91	82.3118	2,378.91	87.0426	2,378.91	81.4688	2,378.91	72.9182	2,378.91	82.1518	2,378.91	79.1533	2,378.91	83.9334	2,378.91	76.4808	2,378.91	82.5002	2,378.91	84.3031	2,378.91	86.3825	2,378.91	81.8673	2,378.91	77.8447
2,462.4	99.8466	2,462.4	99.5192	2,462.4	99.3863	2,462.4	98.0765	2,462.4	99.7655	2,462.4	96.7442	2,462.4	99.2683	2,462.4	95.156	2,462.4	97.0377	2,462.4	93.4228	2,462.4	94.4742	2,462.4	92.1212	2,462.4	93.9349	2,462.4	90.5762	2,462.4	92.7738	2,462.4	87.7256	2,462.4	90.0236	2,462.4	85.1873	2,462.4	87.8161	2,462.4	83.4162	2,462.4	85.6508	2,462.4	81.9953	2,462.4	84.8338	2,462.4	82.7163	2,462.4	84.2147	2,462.4	80.4812	2,462.4	79.3885	2,462.4	81.3932	2,462.4	71.6627	2,462.4	80.6201	2,462.4	79.8654	2,462.4	79.5157	2,462.4	81.0006	2,462.4	76.6315	2,462.4	81.0166	2,462.4	75.7166
2,548.83	100.255	2,548.83	99.7727	2,548.83	98.9284	2,548.83	98.1321	2,548.83	99.5475	2,548.83	97.2958	2,548.83	98.8956	2,548.83	95.6696	2,548.83	96.4988	2,548.83	93.423	2,548.83	93.473	2,548.83	91.8535	2,548.83	93.0812	2,548.83	91.42	2,548.83	91.9175	2,548.83	85.906	2,548.83	89.6492	2,548.83	85.791	2,548.83	86.3823	2,548.83	83.8511	2,548.83	84.2462	2,548.83	83.0412	2,548.83	82.342	2,548.83	83.3704	2,548.83	81.2219	2,548.83	81.6713	2,548.83	79.8086	2,548.83	83.1716	2,548.83	73.9476	2,548.83	82.2819	2,548.83	78.4238	2,548.83	81.0208	2,548.83	77.6953	2,548.83	80.7945	2,548.83	80.3905	2,548.83	81.7286
2,639.65	99.6054	2,639.65	98.3986	2,639.65	98.1997	2,639.65	97.4091	2,639.65	97.9633	2,639.65	96.0791	2,639.65	98.2653	2,639.65	95.0045	2,639.65	95.6167	2,639.65	92.6836	2,639.65	92.1574	2,639.65	89.8293	2,639.65	92.1052	2,639.65	88.9849	2,639.65	91.1927	2,639.65	86.0481	2,639.65	88.0096	2,639.65	84.4648	2,639.65	85.4135	2,639.65	83.76	2,639.65	84.4618	2,639.65	84.7115	2,639.65	82.6737	2,639.65	81.9804	2,639.65	78.8201	2,639.65	82.2065	2,639.65	77.7835	2,639.65	81.8002	2,639.65	72.422	2,639.65	80.5838	2,639.65	73.9717	2,639.65	81.0774	2,639.65	72.41	2,639.65	69.6883	2,639.65	76.5236	2,639.65	76.2916
2,731.93	98.5194	2,731.93	97.1189	2,731.93	98.1698	2,731.93	96.4509	2,731.93	96.8104	2,731.93	95.1239	2,731.93	97.504	2,731.93	93.7014	2,731.93	95.3406	2,731.93	91.4205	2,731.93	92.2875	2,731.93	88.8304	2,731.93	91.4144	2,731.93	87.1482	2,731.93	90.709	2,731.93	86.6597	2,731.93	88.0087	2,731.93	83.1944	2,731.93	86.1249	2,731.93	82.9722	2,731.93	82.1101	2,731.93	83.2309	2,731.93	81.5431	2,731.93	79.6957	2,731.93	79.2299	2,731.93	79.9922	2,731.93	78.1268	2,731.93	77.9972	2,731.93	69.9112	2,731.93	80.0228	2,731.93	76.9345	2,731.93	79.8044	2,731.93	74.1738	2,731.93	76.7407	2,731.93	73.4614	2,731.93	76.1118
2,828.61	98.5529	2,828.61	97.7707	2,828.61	98.9212	2,828.61	97.0185	2,828.61	97.2562	2,828.61	95.4654	2,828.61	97.8029	2,828.61	93.4617	2,828.61	95.8454	2,828.61	92.8743	2,828.61	92.8905	2,828.61	89.7521	2,828.61	91.5778	2,828.61	86.3211	2,828.61	90.9	2,828.61	88.0208	2,828.61	88.7988	2,828.61	84.652	2,828.61	86.323	2,828.61	83.9303	2,828.61	82.3081	2,828.61	79.799	2,828.61	81.6353	2,828.61	80.6615	2,828.61	81.3695	2,828.61	80.4913	2,828.61	75.1814	2,828.61	78.3913	2,828.61	54.4427	2,828.61	81.3643	2,828.61	79.2514	2,828.61	78.7772	2,828.61	70.6408	2,828.61	74.7418	2,828.61	65.0092	2,828.61	70.3422
2,928.22	99.4783	2,928.22	98.6909	2,928.22	99.2814	2,928.22	97.9529	2,928.22	97.8873	2,928.22	96.7663	2,928.22	98.0926	2,928.22	94.8778	2,928.22	96.5761	2,928.22	93.2985	2,928.22	93.0599	2,928.22	91.5222	2,928.22	92.3048	2,928.22	89.881	2,928.22	91.3492	2,928.22	88.3869	2,928.22	88.8822	2,928.22	85.1147	2,928.22	85.3842	2,928.22	84.392	2,928.22	82.7675	2,928.22	81.1788	2,928.22	82.9045	2,928.22	80.4636	2,928.22	81.7991	2,928.22	80.46	2,928.22	74.3965	2,928.22	79.9985	2,928.22	69.7822	2,928.22	80.2153	2,928.22	79.3308	2,928.22	80.3454	2,928.22	75.7317	2,928.22	80.705	2,928.22	61.689	2,928.22	76.899
3,030.76	99.6052	3,030.76	98.9209	3,030.76	99.5079	3,030.76	98.1609	3,030.76	97.983	3,030.76	97.0276	3,030.76	97.8476	3,030.76	95.1984	3,030.76	96.9768	3,030.76	93.0011	3,030.76	93.6991	3,030.76	91.2578	3,030.76	92.2103	3,030.76	89.6459	3,030.76	91.2435	3,030.76	86.7929	3,030.76	89.3253	3,030.76	85.3742	3,030.76	86.8126	3,030.76	83.5064	3,030.76	83.2607	3,030.76	81.6657	3,030.76	81.4616	3,030.76	79.6691	3,030.76	80.992	3,030.76	80.1589	3,030.76	77.1156	3,030.76	80.1556	3,030.76	64.6716	3,030.76	80.1674	3,030.76	79.0199	3,030.76	80.5864	3,030.76	73.4235	3,030.76	77.3408	3,030.76	58.1973	3,030.76	77.5273
3,137.7	99.1398	3,137.7	98.8166	3,137.7	99.2627	3,137.7	98.1688	3,137.7	97.9331	3,137.7	96.8304	3,137.7	97.4997	3,137.7	95.3716	3,137.7	96.9042	3,137.7	92.9405	3,137.7	93.5941	3,137.7	91.5321	3,137.7	92.2508	3,137.7	89.0618	3,137.7	91.0092	3,137.7	86.5846	3,137.7	89.229	3,137.7	85.6593	3,137.7	86.1238	3,137.7	82.8924	3,137.7	84.1074	3,137.7	82.0373	3,137.7	81.3661	3,137.7	80.9919	3,137.7	79.5276	3,137.7	79.2486	3,137.7	78.5287	3,137.7	78.9729	3,137.7	58.7914	3,137.7	79.008	3,137.7	79.7711	3,137.7	80.5906	3,137.7	75.0528	3,137.7	80.9673	3,137.7	58.3167	3,137.7	75.3249
3,249.02	98.3983	3,249.02	98.3717	3,249.02	98.8034	3,249.02	97.5477	3,249.02	97.2612	3,249.02	96.0247	3,249.02	96.7363	3,249.02	94.4857	3,249.02	96.8535	3,249.02	91.901	3,249.02	94.1005	3,249.02	90.1405	3,249.02	92.3926	3,249.02	88.0914	3,249.02	91.4647	3,249.02	85.6739	3,249.02	89.6308	3,249.02	85.6286	3,249.02	86.7521	3,249.02	83.2156	3,249.02	84.2394	3,249.02	81.5927	3,249.02	82.2383	3,249.02	79.6833	3,249.02	80.3532	3,249.02	78.6744	3,249.02	77.6274	3,249.02	80.1545	3,249.02	60.3066	3,249.02	77.9299	3,249.02	78.2814	3,249.02	78.4188	3,249.02	73.0971	3,249.02	80.3567	3,249.02	52.3307	3,249.02	77.6325
3,363.28	97.6082	3,363.28	98.0832	3,363.28	97.8167	3,363.28	97.2108	3,363.28	96.8979	3,363.28	95.8188	3,363.28	96.1639	3,363.28	94.4323	3,363.28	96.6289	3,363.28	92.1511	3,363.28	94.2232	3,363.28	90.1892	3,363.28	92.5565	3,363.28	88.1634	3,363.28	91.732	3,363.28	85.4487	3,363.28	89.3619	3,363.28	84.933	3,363.28	86.0873	3,363.28	82.5666	3,363.28	83.277	3,363.28	81.151	3,363.28	81.4823	3,363.28	78.0914	3,363.28	81.5788	3,363.28	78.1026	3,363.28	77.3496	3,363.28	78.6964	3,363.28	67.5893	3,363.28	77.9996	3,363.28	76.9148	3,363.28	77.4684	3,363.28	59.3834	3,363.28	82.0557	3,363.28	66.5781	3,363.28	77.19
3,481.93	97.7719	3,481.93	97.9119	3,481.93	98.3574	3,481.93	97.3445	3,481.93	96.5906	3,481.93	96.1859	3,481.93	95.4843	3,481.93	94.078	3,481.93	96.3913	3,481.93	92.5152	3,481.93	94.6592	3,481.93	90.6374	3,481.93	92.6938	3,481.93	88.6549	3,481.93	92.1062	3,481.93	86.4783	3,481.93	89.624	3,481.93	84.7564	3,481.93	86.8642	3,481.93	81.9006	3,481.93	83.5708	3,481.93	83.0204	3,481.93	81.4203	3,481.93	79.651	3,481.93	80.8443	3,481.93	78.5884	3,481.93	76.0024	3,481.93	80.0702	3,481.93	72.1427	3,481.93	78.9328	3,481.93	74.8909	3,481.93	79.5266	3,481.93	66.9501	3,481.93	80.5299	3,481.93	71.1659	3,481.93	77.1356
3,604.98	98.3289	3,604.98	98.1649	3,604.98	98.3119	3,604.98	96.8193	3,604.98	97.8366	3,604.98	96.2921	3,604.98	95.8398	3,604.98	94.1109	3,604.98	97.6164	3,604.98	93.1726	3,604.98	96.2587	3,604.98	90.5424	3,604.98	93.5109	3,604.98	88.7346	3,604.98	92.4393	3,604.98	86.2284	3,604.98	90.308	3,604.98	84.5311	3,604.98	87.4097	3,604.98	82.9235	3,604.98	84.9023	3,604.98	81.324	3,604.98	83.7028	3,604.98	80.1935	3,604.98	82.3531	3,604.98	80.1407	3,604.98	72.5306	3,604.98	80.2278	3,604.98	76.724	3,604.98	79.4621	3,604.98	75.196	3,604.98	80.5292	3,604.98	59.3068	3,604.98	80.9327	3,604.98	70.2061	3,604.98	76.0282
3,732.42	99.0029	3,732.42	98.6923	3,732.42	98.4583	3,732.42	98.1763	3,732.42	98.7575	3,732.42	97.2435	3,732.42	96.3086	3,732.42	95.0107	3,732.42	97.9577	3,732.42	93.4179	3,732.42	97.0169	3,732.42	90.9974	3,732.42	94.1462	3,732.42	88.9855	3,732.42	92.9796	3,732.42	87.6683	3,732.42	90.3058	3,732.42	85.6085	3,732.42	86.8646	3,732.42	84.0037	3,732.42	83.9874	3,732.42	82.0058	3,732.42	83.1664	3,732.42	81.5508	3,732.42	81.9186	3,732.42	79.6558	3,732.42	75.4417	3,732.42	81.9095	3,732.42	76.4788	3,732.42	80.7695	3,732.42	75.35	3,732.42	80.6374	3,732.42	67.4679	3,732.42	79.7113	3,732.42	69.6595	3,732.42	74.9878
3,864.26	98.6148	3,864.26	98.1741	3,864.26	97.4129	3,864.26	97.9277	3,864.26	98.4964	3,864.26	96.7878	3,864.26	95.5963	3,864.26	95.5061	3,864.26	96.605	3,864.26	93.6715	3,864.26	95.9043	3,864.26	90.4448	3,864.26	92.925	3,864.26	89.1085	3,864.26	91.5884	3,864.26	87.5862	3,864.26	89.2936	3,864.26	85.7497	3,864.26	85.3625	3,864.26	84.1856	3,864.26	82.9574	3,864.26	83.1222	3,864.26	81.244	3,864.26	82.5729	3,864.26	78.5168	3,864.26	80.1768	3,864.26	75.1461	3,864.26	83.2343	3,864.26	70.1962	3,864.26	81.8119	3,864.26	71.0777	3,864.26	81.3574	3,864.26	68.1558	3,864.26	78.8862	3,864.26	61.6261	3,864.26	74.0608
4,000.49	98.8827	4,000.49	98.7374	4,000.49	97.495	4,000.49	98.0436	4,000.49	98.5208	4,000.49	96.5282	4,000.49	96.4548	4,000.49	95.2922	4,000.49	96.356	4,000.49	92.5402	4,000.49	96.274	4,000.49	89.6812	4,000.49	93.293	4,000.49	88.1507	4,000.49	92.0641	4,000.49	85.8215	4,000.49	88.2828	4,000.49	83.1359	4,000.49	85.4315	4,000.49	82.3148	4,000.49	83.61	4,000.49	80.7468	4,000.49	81.4827	4,000.49	81.2927	4,000.49	80.1419	4,000.49	78.1513	4,000.49	71.7487	4,000.49	80.9582	4,000.49	73.3555	4,000.49	81.1906	4,000.49	67.4747	4,000.49	81.3034	4,000.49	72.1159	4,000.49	77.4411	4,000.49	65.3141	4,000.49	73.1847
4,141.11	99.7086	4,141.11	99.6437	4,141.11	99.2195	4,141.11	99.0436	4,141.11	99.0166	4,141.11	97.5464	4,141.11	97.747	4,141.11	95.9027	4,141.11	96.2967	4,141.11	93.5205	4,141.11	96.2778	4,141.11	90.4352	4,141.11	93.5872	4,141.11	88.642	4,141.11	92.177	4,141.11	87.21	4,141.11	88.5186	4,141.11	83.5324	4,141.11	85.3617	4,141.11	82.5043	4,141.11	83.2445	4,141.11	80.1183	4,141.11	81.4413	4,141.11	82.8823	4,141.11	79.7037	4,141.11	78.5286	4,141.11	73.0937	4,141.11	80.6281	4,141.11	74.9283	4,141.11	81.6103	4,141.11	68.0202	4,141.11	80.6767	4,141.11	74.8505	4,141.11	79.7707	4,141.11	70.8379	4,141.11	75.2183
4,287.6	100.025	4,287.6	99.4318	4,287.6	99.6653	4,287.6	98.9972	4,287.6	98.5617	4,287.6	97.5123	4,287.6	97.9711	4,287.6	94.9841	4,287.6	96.2349	4,287.6	92.8495	4,287.6	96.6761	4,287.6	90.694	4,287.6	94.4213	4,287.6	88.6273	4,287.6	92.1109	4,287.6	86.31	4,287.6	88.392	4,287.6	83.7078	4,287.6	86.4258	4,287.6	82.3599	4,287.6	82.4863	4,287.6	82.1915	4,287.6	80.7362	4,287.6	82.3822	4,287.6	78.3752	4,287.6	82.3131	4,287.6	71.6618	4,287.6	81.2684	4,287.6	75.0768	4,287.6	80.8722	4,287.6	68.7141	4,287.6	80.9421	4,287.6	75.1796	4,287.6	79.852	4,287.6	70.0034	4,287.6	73.6819
4,438.48	99.7009	4,438.48	99.9893	4,438.48	99.576	4,438.48	98.5541	4,438.48	98.5909	4,438.48	97.6912	4,438.48	98.2204	4,438.48	95.0146	4,438.48	96.1142	4,438.48	92.9259	4,438.48	97.0894	4,438.48	90.2664	4,438.48	94.0131	4,438.48	88.3017	4,438.48	91.2799	4,438.48	85.536	4,438.48	87.6498	4,438.48	84.0711	4,438.48	85.6084	4,438.48	83.7644	4,438.48	82.0343	4,438.48	81.5172	4,438.48	78.3363	4,438.48	81.4615	4,438.48	77.7408	4,438.48	81.6929	4,438.48	75.5402	4,438.48	79.4949	4,438.48	71.6252	4,438.48	81.3167	4,438.48	67.8092	4,438.48	80.2499	4,438.48	71.8301	4,438.48	77.1373	4,438.48	67.0857	4,438.48	74.1813
4,595.21	98.5507	4,595.21	99.0432	4,595.21	99.1164	4,595.21	97.8026	4,595.21	98.1402	4,595.21	96.9719	4,595.21	98.4467	4,595.21	95.3208	4,595.21	95.7348	4,595.21	92.9751	4,595.21	95.8266	4,595.21	90.6861	4,595.21	93.5534	4,595.21	87.987	4,595.21	90.1343	4,595.21	86.4691	4,595.21	86.7052	4,595.21	84.5058	4,595.21	84.7801	4,595.21	84.7568	4,595.21	80.114	4,595.21	80.2566	4,595.21	80.1618	4,595.21	79.6071	4,595.21	76.2346	4,595.21	76.5458	4,595.21	73.0625	4,595.21	78.2544	4,595.21	67.1603	4,595.21	80.0524	4,595.21	70.1149	4,595.21	78.5173	4,595.21	71.3228	4,595.21	77.1636	4,595.21	58.5486	4,595.21	72.9403
4,756.35	99.4581	4,756.35	99.8319	4,756.35	100.096	4,756.35	99.2943	4,756.35	98.7238	4,756.35	97.6104	4,756.35	99.4287	4,756.35	95.9905	4,756.35	96.215	4,756.35	93.0221	4,756.35	95.2678	4,756.35	91.7787	4,756.35	93.0899	4,756.35	88.1448	4,756.35	90.8785	4,756.35	86.0353	4,756.35	88.7622	4,756.35	83.3743	4,756.35	85.3508	4,756.35	83.5754	4,756.35	79.5827	4,756.35	80.4548	4,756.35	79.0605	4,756.35	78.195	4,756.35	75.4481	4,756.35	78.3635	4,756.35	73.0809	4,756.35	78.0086	4,756.35	71.8855	4,756.35	78.9493	4,756.35	72.2687	4,756.35	78.9403	4,756.35	72.3023	4,756.35	76.7964	4,756.35	64.3488	4,756.35	68.1317
4,924.8	99.7733	4,924.8	99.9303	4,924.8	99.6176	4,924.8	99.6616	4,924.8	98.7242	4,924.8	98.1959	4,924.8	99.0784	4,924.8	95.8924	4,924.8	96.3386	4,924.8	93.3605	4,924.8	95.422	4,924.8	91.8934	4,924.8	93.4752	4,924.8	90.0042	4,924.8	90.5741	4,924.8	87.2994	4,924.8	89.3687	4,924.8	85.6344	4,924.8	85.1583	4,924.8	80.4489	4,924.8	80.0467	4,924.8	80.2885	4,924.8	78.9289	4,924.8	79.0466	4,924.8	77.6357	4,924.8	78.4474	4,924.8	76.3798	4,924.8	78.5623	4,924.8	70.5274	4,924.8	80.5528	4,924.8	72.4364	4,924.8	79.7698	4,924.8	74.1379	4,924.8	77.3854	4,924.8	64.9033	4,924.8	73.1737
5,097.66	98.8303	5,097.66	99.1872	5,097.66	98.8275	5,097.66	98.0499	5,097.66	98.6364	5,097.66	96.7778	5,097.66	98.1077	5,097.66	93.6774	5,097.66	96.6954	5,097.66	92.0258	5,097.66	95.5273	5,097.66	90.9385	5,097.66	94.0441	5,097.66	89.6911	5,097.66	91.64	5,097.66	85.906	5,097.66	88.2605	5,097.66	85.7494	5,097.66	83.7951	5,097.66	80.6852	5,097.66	80.0701	5,097.66	80.5543	5,097.66	79.6122	5,097.66	79.2821	5,097.66	77.9057	5,097.66	72.3687	5,097.66	73.7864	5,097.66	79.1195	5,097.66	70.4232	5,097.66	82.3634	5,097.66	65.561	5,097.66	79.8686	5,097.66	66.7887	5,097.66	75.7325	5,097.66	72.6505	5,097.66	70.3515
5,277.83	98.751	5,277.83	99.0636	5,277.83	99.1142	5,277.83	98.4232	5,277.83	98.1914	5,277.83	96.3041	5,277.83	98.1444	5,277.83	95.7266	5,277.83	96.4537	5,277.83	93.5684	5,277.83	94.1563	5,277.83	91.6779	5,277.83	94.2994	5,277.83	88.1867	5,277.83	91.9147	5,277.83	84.9839	5,277.83	87.2038	5,277.83	81.7961	5,277.83	83.7351	5,277.83	83.0578	5,277.83	79.6742	5,277.83	79.5862	5,277.83	79.3527	5,277.83	75.4803	5,277.83	76.9963	5,277.83	77.1431	5,277.83	72.0634	5,277.83	73.7348	5,277.83	70.3919	5,277.83	79.08	5,277.83	67.4693	5,277.83	77.3964	5,277.83	71.1181	5,277.83	73.2676	5,277.83	69.471	5,277.83	67.3016
5,463.87	98.7589	5,463.87	98.7499	5,463.87	98.9103	5,463.87	98.0034	5,463.87	98.4632	5,463.87	96.4003	5,463.87	97.6417	5,463.87	95.7395	5,463.87	96.8307	5,463.87	93.4876	5,463.87	93.7059	5,463.87	91.5242	5,463.87	94.0227	5,463.87	87.4298	5,463.87	91.1852	5,463.87	86.7857	5,463.87	90.003	5,463.87	82.4766	5,463.87	83.7112	5,463.87	81.0767	5,463.87	80.712	5,463.87	79.7359	5,463.87	77.693	5,463.87	77.8614	5,463.87	78.2342	5,463.87	78.7721	5,463.87	75.9406	5,463.87	76.7124	5,463.87	69.2486	5,463.87	81.7729	5,463.87	72.3354	5,463.87	78.0031	5,463.87	70.2383	5,463.87	76.6333	5,463.87	71.982	5,463.87	70.4928
5,657.23	98.941	5,657.23	98.4628	5,657.23	98.2889	5,657.23	97.9577	5,657.23	98.7538	5,657.23	96.6399	5,657.23	96.3157	5,657.23	94.8426	5,657.23	96.4728	5,657.23	93.8883	5,657.23	93.9745	5,657.23	90.7203	5,657.23	93.4115	5,657.23	88.9088	5,657.23	92.0879	5,657.23	84.5525	5,657.23	89.2102	5,657.23	82.4241	5,657.23	83.6933	5,657.23	70.8785	5,657.23	78.522	5,657.23	75.9465	5,657.23	79.0679	5,657.23	73.3104	5,657.23	77.1024	5,657.23	72.637	5,657.23	72.6461	5,657.23	73.7477	5,657.23	65.1511	5,657.23	80.7199	5,657.23	68.5751	5,657.23	76.5716	5,657.23	54.7559	5,657.23	75.7862	5,657.23	71.4154	5,657.23	65.4689
5,856.45	97.9786	5,856.45	97.5484	5,856.45	97.8687	5,856.45	96.794	5,856.45	97.9047	5,856.45	95.2107	5,856.45	96.8533	5,856.45	94.1819	5,856.45	95.8745	5,856.45	93.0646	5,856.45	93.2229	5,856.45	88.5932	5,856.45	92.9849	5,856.45	88.131	5,856.45	92.1697	5,856.45	81.2249	5,856.45	88.4205	5,856.45	80.2769	5,856.45	81.7757	5,856.45	79.4827	5,856.45	78.207	5,856.45	76.7459	5,856.45	77.5975	5,856.45	76.6603	5,856.45	75.8848	5,856.45	74.9401	5,856.45	68.8297	5,856.45	70.5063	5,856.45	64.5389	5,856.45	77.242	5,856.45	69.5794	5,856.45	76.9177	5,856.45	67.7853	5,856.45	73.7718	5,856.45	68.6882	5,856.45	66.4431
6,062.99	98.4005	6,062.99	98.5795	6,062.99	98.6113	6,062.99	97.7212	6,062.99	97.9902	6,062.99	96.7209	6,062.99	97.2654	6,062.99	95.9436	6,062.99	96.3611	6,062.99	93.1264	6,062.99	93.4207	6,062.99	89.1134	6,062.99	92.4352	6,062.99	81.7753	6,062.99	90.1028	6,062.99	82.0887	6,062.99	89.0348	6,062.99	77.3129	6,062.99	81.9565	6,062.99	78.9882	6,062.99	77.5713	6,062.99	77.0863	6,062.99	78.0609	6,062.99	75.6413	6,062.99	76.7896	6,062.99	74.586	6,062.99	70.1055	6,062.99	73.1355	6,062.99	64.2108	6,062.99	78.33	6,062.99	69.9226	6,062.99	78.1598	6,062.99	72.5803	6,062.99	72.2841	6,062.99	72.1059	6,062.99	67.4296
6,276.86	98.5976	6,276.86	97.976	6,276.86	97.637	6,276.86	97.0088	6,276.86	98.2774	6,276.86	95.8754	6,276.86	96.3284	6,276.86	94.6412	6,276.86	96.1177	6,276.86	91.0188	6,276.86	94.327	6,276.86	87.9223	6,276.86	91.4232	6,276.86	81.5491	6,276.86	89.9084	6,276.86	82.7835	6,276.86	88.453	6,276.86	79.9281	6,276.86	81.3648	6,276.86	78.2521	6,276.86	75.8006	6,276.86	76.9375	6,276.86	78.6379	6,276.86	76.1704	6,276.86	77.0859	6,276.86	74.3418	6,276.86	70.0492	6,276.86	71.5013	6,276.86	55.6921	6,276.86	72.9332	6,276.86	72.4954	6,276.86	75.8089	6,276.86	63.9574	6,276.86	73.0164	6,276.86	72.0226	6,276.86	66.6193
6,498.05	98.6828	6,498.05	98.172	6,498.05	98.4482	6,498.05	97.1849	6,498.05	98.3342	6,498.05	96.7096	6,498.05	97.462	6,498.05	94.4969	6,498.05	95.0254	6,498.05	91.9977	6,498.05	93.872	6,498.05	86.5638	6,498.05	90.7889	6,498.05	85.7104	6,498.05	91.0917	6,498.05	82.9661	6,498.05	87.521	6,498.05	81.4848	6,498.05	81.8022	6,498.05	78.9411	6,498.05	77.861	6,498.05	75.7542	6,498.05	78.5057	6,498.05	72.4349	6,498.05	76.3305	6,498.05	73.2809	6,498.05	62.0877	6,498.05	74.7526	6,498.05	67.2423	6,498.05	69.8192	6,498.05	61.3919	6,498.05	75.0937	6,498.05	69.7705	6,498.05	73.6749	6,498.05	69.1037	6,498.05	59.3629
6,726.56	98.715	6,726.56	98.1771	6,726.56	98.8394	6,726.56	97.2064	6,726.56	97.8804	6,726.56	97.4669	6,726.56	97.7232	6,726.56	95.2301	6,726.56	95.6021	6,726.56	90.277	6,726.56	94.0302	6,726.56	87.9018	6,726.56	90.3048	6,726.56	86.5787	6,726.56	90.1613	6,726.56	85.4999	6,726.56	88.1116	6,726.56	82.749	6,726.56	82.1816	6,726.56	79.6623	6,726.56	79.4064	6,726.56	76.8117	6,726.56	78.4888	6,726.56	77.2439	6,726.56	78.383	6,726.56	73.9422	6,726.56	71.2497	6,726.56	74.5199	6,726.56	60.4755	6,726.56	75.1885	6,726.56	73.2609	6,726.56	77.4328	6,726.56	68.61	6,726.56	72.8026	6,726.56	71.1552	6,726.56	64.7726
6,963.87	99.074	6,963.87	97.6543	6,963.87	98.0363	6,963.87	97.5939	6,963.87	98.3327	6,963.87	96.7678	6,963.87	96.989	6,963.87	93.9156	6,963.87	96.1846	6,963.87	90.069	6,963.87	94.6556	6,963.87	89.9603	6,963.87	90.7699	6,963.87	87.3519	6,963.87	91.2867	6,963.87	84.1836	6,963.87	87.6385	6,963.87	80.7577	6,963.87	83.5026	6,963.87	75.6392	6,963.87	79.9385	6,963.87	76.91	6,963.87	77.9936	6,963.87	72.1156	6,963.87	77.8862	6,963.87	70.9041	6,963.87	73.9201	6,963.87	70.7642	6,963.87	69.2782	6,963.87	74.6084	6,963.87	66.9318	6,963.87	74.4096	6,963.87	58.0997	6,963.87	70.1292	6,963.87	69.704	6,963.87	57.9621
7,209.96	98.9338	7,209.96	97.9987	7,209.96	98.9215	7,209.96	97.8252	7,209.96	98.7242	7,209.96	96.9288	7,209.96	98.3209	7,209.96	93.7736	7,209.96	96.8018	7,209.96	92.4686	7,209.96	94.716	7,209.96	89.3446	7,209.96	91.8148	7,209.96	87.0645	7,209.96	91.6075	7,209.96	84.6253	7,209.96	89.3767	7,209.96	82.5597	7,209.96	83.9803	7,209.96	78.5135	7,209.96	81.8111	7,209.96	76.3633	7,209.96	79.048	7,209.96	73.4028	7,209.96	75.2491	7,209.96	70.3611	7,209.96	72.6754	7,209.96	72.0895	7,209.96	72.0982	7,209.96	77.3929	7,209.96	71.2197	7,209.96	74.8329	7,209.96	49.7395	7,209.96	72.3762	7,209.96	59.8419	7,209.96	58.1066
7,464.84	98.2173	7,464.84	98.0662	7,464.84	98.5713	7,464.84	97.8276	7,464.84	98.1697	7,464.84	96.7288	7,464.84	97.9703	7,464.84	94.018	7,464.84	96.7795	7,464.84	91.9636	7,464.84	93.618	7,464.84	89.9413	7,464.84	92.0947	7,464.84	86.8715	7,464.84	89.381	7,464.84	82.7082	7,464.84	88.1512	7,464.84	78.4331	7,464.84	82.1373	7,464.84	75.7215	7,464.84	81.5345	7,464.84	74.3858	7,464.84	77.2836	7,464.84	70.4898	7,464.84	76.6233	7,464.84	70.1738	7,464.84	74.1891	7,464.84	65.5385	7,464.84	71.0969	7,464.84	75.6591	7,464.84	71.81	7,464.84	74.7535	7,464.84	56.1285	7,464.84	71.5056	7,464.84	65.4459	7,464.84	58.7878
7,727.05	99.1339	7,727.05	98.5723	7,727.05	99.2001	7,727.05	98.5036	7,727.05	98.8104	7,727.05	96.7388	7,727.05	98.1393	7,727.05	94.409	7,727.05	97.5722	7,727.05	92.1264	7,727.05	94.5922	7,727.05	89.427	7,727.05	92.6805	7,727.05	84.6033	7,727.05	89.991	7,727.05	80.3521	7,727.05	88.5211	7,727.05	78.0942	7,727.05	83.1119	7,727.05	75.5547	7,727.05	81.6692	7,727.05	70.3661	7,727.05	77.7345	7,727.05	72.4934	7,727.05	72.2791	7,727.05	73.1002	7,727.05	74.3987	7,727.05	72.6709	7,727.05	71.0278	7,727.05	74.3326	7,727.05	66.5781	7,727.05	73.0982	7,727.05	66.2833	7,727.05	69.71	7,727.05	66.6764	7,727.05	55.3704
7,999.51	98.6389	7,999.51	98.1055	7,999.51	99.2618	7,999.51	98.447	7,999.51	98.5286	7,999.51	96.649	7,999.51	98.2325	7,999.51	94.0911	7,999.51	96.9329	7,999.51	92.7097	7,999.51	93.6198	7,999.51	88.5825	7,999.51	91.2133	7,999.51	83.7724	7,999.51	88.8585	7,999.51	82.9063	7,999.51	88.7203	7,999.51	78.0835	7,999.51	82.2334	7,999.51	77.9884	7,999.51	79.8035	7,999.51	73.7424	7,999.51	75.9216	7,999.51	74.6445	7,999.51	70.5335	7,999.51	72.1906	7,999.51	73.8347	7,999.51	68.8796	7,999.51	71.241	7,999.51	72.5542	7,999.51	66.2383	7,999.51	74.5882	7,999.51	63.0264	7,999.51	66.7413	7,999.51	64.2399	7,999.51	56.9406
8,282.23	98.5578	8,282.23	98.4072	8,282.23	99.4424	8,282.23	98.4277	8,282.23	98.3502	8,282.23	96.786	8,282.23	97.9783	8,282.23	95.3152	8,282.23	97.1964	8,282.23	92.176	8,282.23	94.2818	8,282.23	88.2716	8,282.23	91.4221	8,282.23	83.6385	8,282.23	87.722	8,282.23	81.082	8,282.23	87.505	8,282.23	78.8958	8,282.23	81.6413	8,282.23	77.4737	8,282.23	78.3559	8,282.23	74.8259	8,282.23	74.2892	8,282.23	75.1126	8,282.23	65.775	8,282.23	69.4121	8,282.23	72.5574	8,282.23	69.0286	8,282.23	69.285	8,282.23	70.2116	8,282.23	59.2206	8,282.23	73.2084	8,282.23	60.4334	8,282.23	66.7285	8,282.23	67.3027	8,282.23	59.7728
8,573.73	98.3568	8,573.73	99.0525	8,573.73	99.3506	8,573.73	98.5789	8,573.73	98.8248	8,573.73	96.5769	8,573.73	97.9112	8,573.73	95.3373	8,573.73	96.5789	8,573.73	91.3679	8,573.73	94.0116	8,573.73	88.0321	8,573.73	90.2318	8,573.73	85.1213	8,573.73	87.7054	8,573.73	82.0694	8,573.73	86.7453	8,573.73	77.9768	8,573.73	82.5197	8,573.73	76.5131	8,573.73	75.3647	8,573.73	74.3299	8,573.73	72.6958	8,573.73	73.9846	8,573.73	68.0988	8,573.73	70.6706	8,573.73	71.5474	8,573.73	67.5366	8,573.73	69.8902	8,573.73	71.0256	8,573.73	57.173	8,573.73	73.3661	8,573.73	64.9992	8,573.73	69.7228	8,573.73	64.3463	8,573.73	42.6345
8,876.95	98.6049	8,876.95	98.9211	8,876.95	99.4239	8,876.95	97.7017	8,876.95	98.9562	8,876.95	96.0226	8,876.95	98.0399	8,876.95	94.1036	8,876.95	96.7763	8,876.95	90.4228	8,876.95	94.2376	8,876.95	86.2366	8,876.95	90.5941	8,876.95	84.6556	8,876.95	86.1019	8,876.95	79.4358	8,876.95	86.634	8,876.95	79.3647	8,876.95	80.6937	8,876.95	76.2578	8,876.95	75.5143	8,876.95	76.714	8,876.95	73.2824	8,876.95	73.5421	8,876.95	69.467	8,876.95	69.36	8,876.95	70.8382	8,876.95	63.0592	8,876.95	66.6472	8,876.95	68.0459	8,876.95	66.9079	8,876.95	72.2876	8,876.95	63.9059	8,876.95	65.0035	8,876.95	66.4763	8,876.95	51.0238
9,188.96	97.869	9,188.96	98.5021	9,188.96	98.7666	9,188.96	97.6699	9,188.96	98.7218	9,188.96	96.043	9,188.96	97.0611	9,188.96	94.1458	9,188.96	96.0277	9,188.96	89.8782	9,188.96	94.2406	9,188.96	87.2448	9,188.96	89.8707	9,188.96	82.958	9,188.96	85.1654	9,188.96	80.7552	9,188.96	84.8135	9,188.96	77.6226	9,188.96	80.0484	9,188.96	75.174	9,188.96	75.976	9,188.96	75.3751	9,188.96	73.8408	9,188.96	69.744	9,188.96	69.7643	9,188.96	51.4113	9,188.96	63.6167	9,188.96	60.733	9,188.96	61.0444	9,188.96	68.0939	9,188.96	63.6637	9,188.96	73.073	9,188.96	64.071	9,188.96	70.1136	9,188.96	64.705	9,188.96	55.2876
9,514.16	98.3975	9,514.16	98.9111	9,514.16	98.9111	9,514.16	97.5002	9,514.16	99.1474	9,514.16	96.151	9,514.16	97.2886	9,514.16	93.1581	9,514.16	96.2584	9,514.16	89.7756	9,514.16	94.4182	9,514.16	85.5926	9,514.16	89.4822	9,514.16	80.9692	9,514.16	83.7795	9,514.16	77.2523	9,514.16	85.1474	9,514.16	73.5407	9,514.16	78.7175	9,514.16	74.7974	9,514.16	76.5524	9,514.16	74.4676	9,514.16	72.9521	9,514.16	65.156	9,514.16	67.607	9,514.16	65.5972	9,514.16	67.2298	9,514.16	68.3847	9,514.16	59.31	9,514.16	63.0048	9,514.16	65.2797	9,514.16	71.9483	9,514.16	65.6499	9,514.16	66.0339	9,514.16	64.4241	9,514.16	56.8681
9,849.61	98.1566	9,849.61	98.5669	9,849.61	98.6188	9,849.61	97.0433	9,849.61	98.7648	9,849.61	95.8796	9,849.61	97.0517	9,849.61	93.1593	9,849.61	95.8541	9,849.61	88.8624	9,849.61	94.0313	9,849.61	85.5491	9,849.61	88.3175	9,849.61	80.305	9,849.61	83.6321	9,849.61	79.4937	9,849.61	83.6775	9,849.61	76.4456	9,849.61	79.0335	9,849.61	74.7546	9,849.61	75.2989	9,849.61	73.9079	9,849.61	72.6586	9,849.61	68.6913	9,849.61	67.388	9,849.61	71.6918	9,849.61	58.8475	9,849.61	69.0469	9,849.61	55.6715	9,849.61	62.6222	9,849.61	63.6345	9,849.61	72.9648	9,849.61	65.356	9,849.61	66.2211	9,849.61	65.7359	9,849.61	54.8144
10,196.8	98.7494	10,196.8	98.7734	10,196.8	98.602	10,196.8	97.2302	10,196.8	99.0822	10,196.8	95.859	10,196.8	97.4484	10,196.8	92.752	10,196.8	96.0391	10,196.8	88.89	10,196.8	93.6628	10,196.8	84.7544	10,196.8	88.2006	10,196.8	83.3419	10,196.8	83.6996	10,196.8	75.6764	10,196.8	82.9269	10,196.8	76.9455	10,196.8	77.7693	10,196.8	70.7972	10,196.8	75.5633	10,196.8	71.6972	10,196.8	72.2221	10,196.8	68.6479	10,196.8	65.9939	10,196.8	69.7033	10,196.8	55.3807	10,196.8	68.2005	10,196.8	60.9803	10,196.8	62.1255	10,196.8	51.2223	10,196.8	71.9556	10,196.8	61.5898	10,196.8	62.0177	10,196.8	65.7972	10,196.8	63.386
10,555.7	98.7086	10,555.7	98.4255	10,555.7	98.4875	10,555.7	97.2931	10,555.7	98.8555	10,555.7	95.4808	10,555.7	97.3477	10,555.7	92.6342	10,555.7	95.3954	10,555.7	87.5555	10,555.7	92.7443	10,555.7	84.4099	10,555.7	87.8053	10,555.7	82.2568	10,555.7	83.1488	10,555.7	75.4247	10,555.7	80.3003	10,555.7	75.405	10,555.7	77.9911	10,555.7	66.2455	10,555.7	73.0145	10,555.7	67.0685	10,555.7	68.4908	10,555.7	70.0026	10,555.7	59.4855	10,555.7	70.5398	10,555.7	61.959	10,555.7	65.4396	10,555.7	58.8095	10,555.7	63.7738	10,555.7	55.7036	10,555.7	69.5178	10,555.7	60.0071	10,555.7	58.6779	10,555.7	62.9048	10,555.7	60.2911
10,927.7	98.9956	10,927.7	98.6374	10,927.7	98.4681	10,927.7	97.5617	10,927.7	99.0908	10,927.7	95.7903	10,927.7	97.3252	10,927.7	91.8444	10,927.7	95.3225	10,927.7	87.4614	10,927.7	91.8641	10,927.7	82.8606	10,927.7	88.1741	10,927.7	79.2417	10,927.7	83.4096	10,927.7	74.2526	10,927.7	80.2875	10,927.7	75.0095	10,927.7	77.5832	10,927.7	69.2883	10,927.7	71.8342	10,927.7	64.0501	10,927.7	65.0622	10,927.7	70.0857	10,927.7	64.0849	10,927.7	67.206	10,927.7	56.3449	10,927.7	63.3343	10,927.7	59.7805	10,927.7	62.246	10,927.7	65.0325	10,927.7	68.7578	10,927.7	59.2136	10,927.7	61.3685	10,927.7	62.4446	10,927.7	59.854
11,313	99.1685	11,313	98.4024	11,313	98.751	11,313	97.7724	11,313	98.9045	11,313	95.0942	11,313	97.1696	11,313	91.6115	11,313	95.0755	11,313	87.006	11,313	91.7796	11,313	82.7642	11,313	88.3202	11,313	78.0646	11,313	83.5247	11,313	77.7675	11,313	80.1485	11,313	74.5799	11,313	77.8108	11,313	72.5647	11,313	69.2371	11,313	67.5034	11,313	66.0013	11,313	69.7662	11,313	64.9302	11,313	69.0377	11,313	55.5084	11,313	66.4282	11,313	45.4595	11,313	59.6415	11,313	55.5356	11,313	68.4329	11,313	50.4475	11,313	63.7467	11,313	58.6887	11,313	55.7005
11,712.9	99.1388	11,712.9	98.8492	11,712.9	98.6235	11,712.9	97.4198	11,712.9	99.0692	11,712.9	95.3188	11,712.9	97.4949	11,712.9	91.4894	11,712.9	95.2044	11,712.9	87.262	11,712.9	92.0294	11,712.9	82.437	11,712.9	88.1043	11,712.9	80.7818	11,712.9	83.2589	11,712.9	77.562	11,712.9	79.3296	11,712.9	75.2869	11,712.9	77.9655	11,712.9	73.6025	11,712.9	68.2545	11,712.9	69.8907	11,712.9	65.0975	11,712.9	68.8441	11,712.9	60.9109	11,712.9	68.0764	11,712.9	45.5744	11,712.9	66.32	11,712.9	54.741	11,712.9	54.495	11,712.9	58.0481	11,712.9	67.841	11,712.9	60.8782	11,712.9	63.4228	11,712.9	62.0273	11,712.9	50.9864
12,126	99.299	12,126	98.4641	12,126	98.9656	12,126	97.7306	12,126	99.1381	12,126	95.3459	12,126	97.5261	12,126	91.9128	12,126	94.9739	12,126	86.9104	12,126	92.4603	12,126	84.0575	12,126	88.0402	12,126	81.7581	12,126	82.281	12,126	79.2572	12,126	80.0675	12,126	73.5766	12,126	77.2917	12,126	72.2219	12,126	63.1214	12,126	71.2752	12,126	58.1305	12,126	67.7769	12,126	61.8123	12,126	66.6963	12,126	64.8087	12,126	66.2581	12,126	55.6727	12,126	57.9728	12,126	48.0852	12,126	69.1489	12,126	56.3407	12,126	67.6065	12,126	56.6008	12,126	53.6824
12,553.7	99.2306	12,553.7	98.9108	12,553.7	98.9661	12,553.7	97.7613	12,553.7	98.9436	12,553.7	95.3159	12,553.7	97.9124	12,553.7	92.3997	12,553.7	95.0683	12,553.7	87.1847	12,553.7	92.639	12,553.7	84.5253	12,553.7	87.4442	12,553.7	80.2143	12,553.7	80.6932	12,553.7	77.9777	12,553.7	80.1366	12,553.7	73.9935	12,553.7	78.0398	12,553.7	72.5767	12,553.7	66.646	12,553.7	69.7665	12,553.7	59.0443	12,553.7	69.0406	12,553.7	67.0724	12,553.7	67.9891	12,553.7	64.5445	12,553.7	65.8376	12,553.7	51.0663	12,553.7	53.8896	12,553.7	54.2947	12,553.7	68.2932	12,553.7	57.9392	12,553.7	66.1814	12,553.7	56.7387	12,553.7	56.1556
12,996.1	99.0939	12,996.1	98.7461	12,996.1	98.9239	12,996.1	97.9692	12,996.1	98.7978	12,996.1	95.8625	12,996.1	97.8147	12,996.1	92.5489	12,996.1	94.9235	12,996.1	88.316	12,996.1	92.2825	12,996.1	85.2487	12,996.1	87.682	12,996.1	80.6528	12,996.1	83.0357	12,996.1	79.0905	12,996.1	78.9904	12,996.1	75.6096	12,996.1	78.0137	12,996.1	73.8079	12,996.1	67.0061	12,996.1	70.3565	12,996.1	60.7936	12,996.1	70.4936	12,996.1	67.399	12,996.1	68.2621	12,996.1	64.006	12,996.1	64.9437	12,996.1	51.6637	12,996.1	61.6849	12,996.1	58.5249	12,996.1	69.0228	12,996.1	59.7064	12,996.1	67.5477	12,996.1	65.4902	12,996.1	52.8439
13,454.6	98.9336	13,454.6	98.3232	13,454.6	98.5736	13,454.6	98.0371	13,454.6	98.4895	13,454.6	95.8501	13,454.6	97.6461	13,454.6	92.8074	13,454.6	94.8767	13,454.6	88.9625	13,454.6	91.6753	13,454.6	85.2485	13,454.6	87.8679	13,454.6	82.0158	13,454.6	83.704	13,454.6	79.6686	13,454.6	79.0596	13,454.6	76.5671	13,454.6	77.8831	13,454.6	73.6108	13,454.6	66.2998	13,454.6	71.1284	13,454.6	58.598	13,454.6	70.9305	13,454.6	67.5084	13,454.6	68.1301	13,454.6	64.6638	13,454.6	67.7176	13,454.6	50.5615	13,454.6	60.8798	13,454.6	58.686	13,454.6	69.4465	13,454.6	60.3217	13,454.6	68.0242	13,454.6	62.7294	13,454.6	54.9236
13,929.2	98.5639	13,929.2	98.0391	13,929.2	98.2641	13,929.2	97.7078	13,929.2	98.0865	13,929.2	96.0085	13,929.2	97.6733	13,929.2	93.0081	13,929.2	94.952	13,929.2	89.1812	13,929.2	91.7236	13,929.2	85.4346	13,929.2	88.9245	13,929.2	82.2153	13,929.2	83.1555	13,929.2	79.0907	13,929.2	79.3509	13,929.2	76.2826	13,929.2	76.9921	13,929.2	73.9302	13,929.2	69.1883	13,929.2	70.3123	13,929.2	61.563	13,929.2	71.085	13,929.2	68.3508	13,929.2	70.0267	13,929.2	65.865	13,929.2	66.5435	13,929.2	58.6734	13,929.2	62.4831	13,929.2	58.7109	13,929.2	68.9527	13,929.2	62.8183	13,929.2	68.1864	13,929.2	58.4043	13,929.2	57.8901
14,419.9	98.457	14,419.9	98.1003	14,419.9	98.3873	14,419.9	97.4955	14,419.9	98.0514	14,419.9	96.0717	14,419.9	97.6905	14,419.9	92.8873	14,419.9	94.9796	14,419.9	89.1295	14,419.9	92.3261	14,419.9	85.8658	14,419.9	89.3135	14,419.9	80.8223	14,419.9	83.9357	14,419.9	78.3416	14,419.9	80.0945	14,419.9	76.9999	14,419.9	77.034	14,419.9	72.8768	14,419.9	70.753	14,419.9	70.5339	14,419.9	63.0524	14,419.9	69.0096	14,419.9	67.7714	14,419.9	71.7768	14,419.9	64.2772	14,419.9	64.1525	14,419.9	56.6892	14,419.9	54.7893	14,419.9	57.3692	14,419.9	65.5316	14,419.9	61.2724	14,419.9	68.4369	14,419.9	61.2865	14,419.9	59.7109
14,928.2	98.6806	14,928.2	98.2296	14,928.2	98.8516	14,928.2	97.2143	14,928.2	98.2279	14,928.2	95.547	14,928.2	97.7437	14,928.2	92.5943	14,928.2	94.8042	14,928.2	88.7806	14,928.2	91.9728	14,928.2	86.122	14,928.2	89.3016	14,928.2	82.5348	14,928.2	83.3545	14,928.2	79.2464	14,928.2	81.1897	14,928.2	78.7707	14,928.2	77.95	14,928.2	72.4829	14,928.2	70.9613	14,928.2	71.5012	14,928.2	62.5199	14,928.2	69.4202	14,928.2	65.1272	14,928.2	70.8895	14,928.2	55.9299	14,928.2	66.7506	14,928.2	54.8623	14,928.2	53.1489	14,928.2	54.5119	14,928.2	67.0026	14,928.2	63.6518	14,928.2	69.3088	14,928.2	63.8307	14,928.2	59.0172
15,455.6	98.6944	15,455.6	98.1088	15,455.6	98.8518	15,455.6	97.2289	15,455.6	98.1553	15,455.6	95.7229	15,455.6	97.7017	15,455.6	93.5133	15,455.6	95.3415	15,455.6	90.1946	15,455.6	92.6683	15,455.6	87.244	15,455.6	89.9231	15,455.6	83.8221	15,455.6	84.616	15,455.6	80.3149	15,455.6	81.6902	15,455.6	79.1175	15,455.6	78.5347	15,455.6	73.9968	15,455.6	68.5127	15,455.6	73.4055	15,455.6	60.593	15,455.6	71.4519	15,455.6	64.5676	15,455.6	70.4145	15,455.6	61.5993	15,455.6	65.8597	15,455.6	55.691	15,455.6	57.1842	15,455.6	58.3454	15,455.6	65.4067	15,455.6	68.2069	15,455.6	69.5844	15,455.6	64.0262	15,455.6	59.3992
16,000.5	99.2318	16,000.5	98.5668	16,000.5	99.3717	16,000.5	97.7203	16,000.5	98.4625	16,000.5	95.9775	16,000.5	97.9394	16,000.5	93.9937	16,000.5	95.2217	16,000.5	90.8168	16,000.5	91.8562	16,000.5	87.9739	16,000.5	88.9624	16,000.5	84.6412	16,000.5	84.5737	16,000.5	79.8414	16,000.5	79.4386	16,000.5	78.3121	16,000.5	78.4755	16,000.5	74.5587	16,000.5	65.3456	16,000.5	74.7977	16,000.5	59.6813	16,000.5	71.5653	16,000.5	60.3411	16,000.5	68.2954	16,000.5	59.1213	16,000.5	61.0361	16,000.5	55.5445	16,000.5	54.0889	16,000.5	57.5722	16,000.5	60.6929	16,000.5	66.6514	16,000.5	67.1353	16,000.5	63.763	16,000.5	60.8546
16,564.5	99.2488	16,564.5	98.626	16,564.5	99.2477	16,564.5	97.5366	16,564.5	98.0293	16,564.5	95.6914	16,564.5	97.5532	16,564.5	93.9904	16,564.5	94.7286	16,564.5	91.3648	16,564.5	90.8686	16,564.5	88.451	16,564.5	88.7144	16,564.5	84.3101	16,564.5	84.666	16,564.5	80.6469	16,564.5	78.5195	16,564.5	77.4003	16,564.5	78.1707	16,564.5	75.5331	16,564.5	66.2569	16,564.5	75.068	16,564.5	58.4699	16,564.5	70.1494	16,564.5	58.3439	16,564.5	66.2958	16,564.5	63.9909	16,564.5	60.655	16,564.5	58.781	16,564.5	57.5901	16,564.5	57.6967	16,564.5	52.8044	16,564.5	65.2777	16,564.5	66.7681	16,564.5	66.1223	16,564.5	60.6266
17,148.9	98.8459	17,148.9	97.9135	17,148.9	98.6862	17,148.9	96.7716	17,148.9	97.4757	17,148.9	94.8262	17,148.9	96.7504	17,148.9	93.7938	17,148.9	94.396	17,148.9	91.6158	17,148.9	91.0918	17,148.9	89.0015	17,148.9	89.2083	17,148.9	84.9274	17,148.9	84.9228	17,148.9	81.3117	17,148.9	79.4142	17,148.9	77.429	17,148.9	78.5532	17,148.9	76.1285	17,148.9	66.0734	17,148.9	73.5535	17,148.9	59.4272	17,148.9	68.5822	17,148.9	50.1687	17,148.9	66.8335	17,148.9	65.9938	17,148.9	57.4643	17,148.9	55.4404	17,148.9	57.2981	17,148.9	48.8452	17,148.9	56.917	17,148.9	63.3482	17,148.9	63.6561	17,148.9	67.265	17,148.9	59.1858
17,752.4	97.7014	17,752.4	96.2213	17,752.4	97.5706	17,752.4	95.5512	17,752.4	96.52	17,752.4	93.6947	17,752.4	95.4167	17,752.4	93.7419	17,752.4	93.5708	17,752.4	91.5595	17,752.4	91.3014	17,752.4	88.8008	17,752.4	89.1262	17,752.4	84.4567	17,752.4	85.0109	17,752.4	79.8639	17,752.4	81.0623	17,752.4	77.1297	17,752.4	77.3245	17,752.4	75.1022	17,752.4	68.082	17,752.4	73.0798	17,752.4	54.4502	17,752.4	69.62	17,752.4	55.6234	17,752.4	68.6783	17,752.4	67.329	17,752.4	59.006	17,752.4	55.7088	17,752.4	56.3179	17,752.4	54.8128	17,752.4	55.1591	17,752.4	65.7638	17,752.4	61.4842	17,752.4	66.3416	17,752.4	55.5012
18,379.4	96.603	18,379.4	94.7394	18,379.4	96.5514	18,379.4	93.5542	18,379.4	95.4546	18,379.4	92.8185	18,379.4	94.3368	18,379.4	93.2405	18,379.4	92.4001	18,379.4	91.2299	18,379.4	91.2447	18,379.4	88.2989	18,379.4	89.139	18,379.4	83.2978	18,379.4	86.1277	18,379.4	79.2661	18,379.4	81.3383	18,379.4	75.4887	18,379.4	76.6333	18,379.4	72.9403	18,379.4	66.5899	18,379.4	73.8431	18,379.4	60.1504	18,379.4	69.3129	18,379.4	60.1337	18,379.4	65.9351	18,379.4	69.029	18,379.4	53.0281	18,379.4	51.022	18,379.4	58.3809	18,379.4	56.2253	18,379.4	62.5484	18,379.4	67.926	18,379.4	62.1581	18,379.4	66.8684	18,379.4	60.0647
19,026.9	95.8364	19,026.9	93.7385	19,026.9	96.1142	19,026.9	92.2551	19,026.9	93.9935	19,026.9	92.3345	19,026.9	92.9817	19,026.9	92.8903	19,026.9	91.4905	19,026.9	90.93	19,026.9	90.6328	19,026.9	87.5788	19,026.9	89.5816	19,026.9	82.2881	19,026.9	85.2548	19,026.9	79.0638	19,026.9	81.3955	19,026.9	74.3386	19,026.9	75.9994	19,026.9	71.2133	19,026.9	68.9313	19,026.9	71.2731	19,026.9	60.5088	19,026.9	67.7744	19,026.9	62.3659	19,026.9	64.0796	19,026.9	69.921	19,026.9	42.1568	19,026.9	54.605	19,026.9	57.4462	19,026.9	58.5281	19,026.9	63.3256	19,026.9	66.8828	19,026.9	60.9437	19,026.9	67.6666	19,026.9	61.1199
19,697.8	95.6199	19,697.8	92.8544	19,697.8	95.7234	19,697.8	91.3272	19,697.8	92.5396	19,697.8	91.324	19,697.8	90.6894	19,697.8	92.3873	19,697.8	90.6439	19,697.8	89.7656	19,697.8	90.4832	19,697.8	85.4204	19,697.8	88.9215	19,697.8	81.4208	19,697.8	83.8274	19,697.8	78.139	19,697.8	80.9731	19,697.8	72.4683	19,697.8	74.9216	19,697.8	69.4769	19,697.8	67.3535	19,697.8	69.5283	19,697.8	57.1866	19,697.8	67.7077	19,697.8	60.3896	19,697.8	67.8708	19,697.8	67.0128	19,697.8	48.5339	19,697.8	50.9831	19,697.8	58.7138	19,697.8	57.4889	19,697.8	64.6695	19,697.8	63.5538	19,697.8	64.0525	19,697.8	65.7252	19,697.8	59.8688
19,999.5	95.5003	19,999.5	92.7519	19,999.5	95.1883	19,999.5	90.0074	19,999.5	91.47	19,999.5	91.1469	19,999.5	89.3941	19,999.5	91.7074	19,999.5	89.5414	19,999.5	89.1188	19,999.5	90.1703	19,999.5	83.3806	19,999.5	88.4882	19,999.5	81.0631	19,999.5	83.3164	19,999.5	77.5572	19,999.5	82.3739	19,999.5	70.5616	19,999.5	73.8151	19,999.5	68.7245	19,999.5	69.0193	19,999.5	72.5399	19,999.5	62.9754	19,999.5	70.6481	19,999.5	59.7152	19,999.5	69.4731	19,999.5	67.5138	19,999.5	57.3337	19,999.5	54.5869	19,999.5	53.4917	19,999.5	58.3036	19,999.5	60.0457	19,999.5	63.9649	19,999.5	63.527	19,999.5	64.3936	19,999.5	59.7668
