"SPL Vertical"
"On-Axis"		"10°"		"-10°"		"20°"		"-20°"		"30°"		"-30°"		"40°"		"-40°"		"50°"		"-50°"		"60°"		"-60°"		"70°"		"-70°"		"80°"		"-80°"		"90°"		"-90°"		"100°"		"-100°"		"110°"		"-110°"		"120°"		"-120°"		"130°"		"-130°"		"140°"		"-140°"		"150°"		"-150°"		"160°"		"-160°"		"170°"		"-170°"		"180°"
"Frequency [Hz]"	"Sound Pessure Level [dB]  / [2.83V 1m] "	"Frequency [Hz]"	"Sound Pessure Level [dB]  / [2.83V 1m] "	"Frequency [Hz]"	"Sound Pessure Level [dB]  / [2.83V 1m] "	"Frequency [Hz]"	"Sound Pessure Level [dB]  / [2.83V 1m] "	"Frequency [Hz]"	"Sound Pessure Level [dB]  / [2.83V 1m] "	"Frequency [Hz]"	"Sound Pessure Level [dB]  / [2.83V 1m] "	"Frequency [Hz]"	"Sound Pessure Level [dB]  / [2.83V 1m] "	"Frequency [Hz]"	"Sound Pessure Level [dB]  / [2.83V 1m] "	"Frequency [Hz]"	"Sound Pessure Level [dB]  / [2.83V 1m] "	"Frequency [Hz]"	"Sound Pessure Level [dB]  / [2.83V 1m] "	"Frequency [Hz]"	"Sound Pessure Level [dB]  / [2.83V 1m] "	"Frequency [Hz]"	"Sound Pessure Level [dB]  / [2.83V 1m] "	"Frequency [Hz]"	"Sound Pessure Level [dB]  / [2.83V 1m] "	"Frequency [Hz]"	"Sound Pessure Level [dB]  / [2.83V 1m] "	"Frequency [Hz]"	"Sound Pessure Level [dB]  / [2.83V 1m] "	"Frequency [Hz]"	"Sound Pessure Level [dB]  / [2.83V 1m] "	"Frequency [Hz]"	"Sound Pessure Level [dB]  / [2.83V 1m] "	"Frequency [Hz]"	"Sound Pessure Level [dB]  / [2.83V 1m] "	"Frequency [Hz]"	"Sound Pessure Level [dB]  / [2.83V 1m] "	"Frequency [Hz]"	"Sound Pessure Level [dB]  / [2.83V 1m] "	"Frequency [Hz]"	"Sound Pessure Level [dB]  / [2.83V 1m] "	"Frequency [Hz]"	"Sound Pessure Level [dB]  / [2.83V 1m] "	"Frequency [Hz]"	"Sound Pessure Level [dB]  / [2.83V 1m] "	"Frequency [Hz]"	"Sound Pessure Level [dB]  / [2.83V 1m] "	"Frequency [Hz]"	"Sound Pessure Level [dB]  / [2.83V 1m] "	"Frequency [Hz]"	"Sound Pessure Level [dB]  / [2.83V 1m] "	"Frequency [Hz]"	"Sound Pessure Level [dB]  / [2.83V 1m] "	"Frequency [Hz]"	"Sound Pessure Level [dB]  / [2.83V 1m] "	"Frequency [Hz]"	"Sound Pessure Level [dB]  / [2.83V 1m] "	"Frequency [Hz]"	"Sound Pessure Level [dB]  / [2.83V 1m] "	"Frequency [Hz]"	"Sound Pessure Level [dB]  / [2.83V 1m] "	"Frequency [Hz]"	"Sound Pessure Level [dB]  / [2.83V 1m] "	"Frequency [Hz]"	"Sound Pessure Level [dB]  / [2.83V 1m] "	"Frequency [Hz]"	"Sound Pessure Level [dB]  / [2.83V 1m] "	"Frequency [Hz]"	"Sound Pessure Level [dB]  / [2.83V 1m] "	"Frequency [Hz]"	"Sound Pessure Level [dB]  / [2.83V 1m] "
20.5078	79.0277	20.5078	78.9748	20.5078	79.0669	20.5078	78.9102	20.5078	79.0907	20.5078	78.8361	20.5078	79.0978	20.5078	78.7549	20.5078	79.0872	20.5078	78.6689	20.5078	79.0586	20.5078	78.5807	20.5078	79.012	20.5078	78.4929	20.5078	78.9485	20.5078	78.4076	20.5078	78.8699	20.5078	78.3272	20.5078	78.7791	20.5078	78.2536	20.5078	78.6796	20.5078	78.1887	20.5078	78.576	20.5078	78.1338	20.5078	78.4729	20.5078	78.09	20.5078	78.3749	20.5078	78.0583	20.5078	78.2858	20.5078	78.039	20.5078	78.2085	20.5078	78.0328	20.5078	78.1448	20.5078	78.0398	20.5078	78.0955	20.5078	78.0606
21.9727	81.6501	21.9727	81.5887	21.9727	81.6989	21.9727	81.5167	21.9727	81.7334	21.9727	81.4363	21.9727	81.7519	21.9727	81.3499	21.9727	81.7536	21.9727	81.2598	21.9727	81.7376	21.9727	81.1684	21.9727	81.7038	21.9727	81.0783	21.9727	81.6528	21.9727	80.9918	21.9727	81.5857	21.9727	80.9111	21.9727	81.5048	21.9727	80.8384	21.9727	81.4128	21.9727	80.7756	21.9727	81.3132	21.9727	80.7243	21.9727	81.2099	21.9727	80.686	21.9727	81.1071	21.9727	80.6619	21.9727	81.0087	21.9727	80.6526	21.9727	80.9181	21.9727	80.6589	21.9727	80.8382	21.9727	80.6808	21.9727	80.7711	21.9727	80.7184
23.4375	83.6376	23.4375	83.5733	23.4375	83.6907	23.4375	83.4998	23.4375	83.7305	23.4375	83.4195	23.4375	83.7552	23.4375	83.3343	23.4375	83.7631	23.4375	83.2466	23.4375	83.7531	23.4375	83.1583	23.4375	83.7245	23.4375	83.0717	23.4375	83.6774	23.4375	82.9888	23.4375	83.6129	23.4375	82.9117	23.4375	83.5329	23.4375	82.8421	23.4375	83.4401	23.4375	82.7819	23.4375	83.3382	23.4375	82.7325	23.4375	83.2316	23.4375	82.6953	23.4375	83.1248	23.4375	82.6714	23.4375	83.0225	23.4375	82.6618	23.4375	82.9286	23.4375	82.6671	23.4375	82.8463	23.4375	82.6881	23.4375	82.778	23.4375	82.7251
24.9023	85.2628	24.9023	85.2027	24.9023	85.3115	24.9023	85.1329	24.9023	85.3467	24.9023	85.0554	24.9023	85.3668	24.9023	84.9722	24.9023	85.3703	24.9023	84.8852	24.9023	85.3559	24.9023	84.7965	24.9023	85.323	24.9023	84.7082	24.9023	85.2718	24.9023	84.6222	24.9023	85.2032	24.9023	84.5407	24.9023	85.1192	24.9023	84.4657	24.9023	85.0228	24.9023	84.399	24.9023	84.9176	24.9023	84.3425	24.9023	84.808	24.9023	84.2979	24.9023	84.6987	24.9023	84.2665	24.9023	84.5943	24.9023	84.2499	24.9023	84.499	24.9023	84.2491	24.9023	84.4165	24.9023	84.2651	24.9023	84.349	24.9023	84.2984
26.3672	87.0755	26.3672	87.0162	26.3672	87.1242	26.3672	86.9481	26.3672	87.1605	26.3672	86.8731	26.3672	87.1826	26.3672	86.7932	26.3672	87.189	26.3672	86.7103	26.3672	87.1787	26.3672	86.6263	26.3672	87.151	26.3672	86.5432	26.3672	87.106	26.3672	86.4629	26.3672	87.0446	26.3672	86.3874	26.3672	86.9686	26.3672	86.3186	26.3672	86.8807	26.3672	86.2582	26.3672	86.7842	26.3672	86.2079	26.3672	86.6831	26.3672	86.1694	26.3672	86.5814	26.3672	86.144	26.3672	86.4833	26.3672	86.1329	26.3672	86.3926	26.3672	86.1371	26.3672	86.3125	26.3672	86.1572	26.3672	86.2456	26.3672	86.1935
27.832	89.0438	27.832	88.9815	27.832	89.0949	27.832	88.9106	27.832	89.1327	27.832	88.8332	27.832	89.1553	27.832	88.7516	27.832	89.1609	27.832	88.6682	27.832	89.1488	27.832	88.5849	27.832	89.1188	27.832	88.5039	27.832	89.0715	27.832	88.4271	27.832	89.0086	27.832	88.3562	27.832	88.9324	27.832	88.2931	27.832	88.8462	27.832	88.2393	27.832	88.7533	27.832	88.196	27.832	88.6576	27.832	88.1645	27.832	88.5629	27.832	88.1456	27.832	88.4725	27.832	88.1399	27.832	88.3894	27.832	88.1479	27.832	88.3161	27.832	88.1697	27.832	88.2544	27.832	88.2053
29.2969	90.46	29.2969	90.4026	29.2969	90.5052	29.2969	90.3351	29.2969	90.5363	29.2969	90.2595	29.2969	90.5518	29.2969	90.1782	29.2969	90.5504	29.2969	90.0932	29.2969	90.5315	29.2969	90.0069	29.2969	90.495	29.2969	89.9213	29.2969	90.4415	29.2969	89.8386	29.2969	90.3727	29.2969	89.7608	29.2969	90.2908	29.2969	89.6899	29.2969	90.1991	29.2969	89.6278	29.2969	90.1011	29.2969	89.576	29.2969	90.0009	29.2969	89.536	29.2969	89.9025	29.2969	89.509	29.2969	89.8096	29.2969	89.496	29.2969	89.7253	29.2969	89.4975	29.2969	89.6521	29.2969	89.514	29.2969	89.5918	29.2969	89.5456
30.7617	92.1729	30.7617	92.1174	30.7617	92.2182	30.7617	92.0535	30.7617	92.2514	30.7617	91.9832	30.7617	92.2712	30.7617	91.9086	30.7617	92.2763	30.7617	91.8316	30.7617	92.2661	30.7617	91.7543	30.7617	92.2403	30.7617	91.6788	30.7617	92.1994	30.7617	91.6068	30.7617	92.1445	30.7617	91.5401	30.7617	92.0773	30.7617	91.4806	30.7617	92.0004	30.7617	91.4296	30.7617	91.9165	30.7617	91.3885	30.7617	91.8289	30.7617	91.3585	30.7617	91.7411	30.7617	91.3405	30.7617	91.6562	30.7617	91.3353	30.7617	91.5774	30.7617	91.3433	30.7617	91.5071	30.7617	91.3648	30.7617	91.4474	30.7617	91.3997
32.2266	93.3925	32.2266	93.3367	32.2266	93.4372	32.2266	93.2717	32.2266	93.4689	32.2266	93.1996	32.2266	93.486	32.2266	93.1226	32.2266	93.4873	32.2266	93.0426	32.2266	93.4721	32.2266	92.962	32.2266	93.4403	32.2266	92.8827	32.2266	93.3926	32.2266	92.8069	32.2266	93.3304	32.2266	92.7365	32.2266	93.2559	32.2266	92.6731	32.2266	93.1722	32.2266	92.6185	32.2266	93.0826	32.2266	92.574	32.2266	92.9908	32.2266	92.5407	32.2266	92.9004	32.2266	92.5195	32.2266	92.8146	32.2266	92.511	32.2266	92.7363	32.2266	92.5158	32.2266	92.6677	32.2266	92.5341	32.2266	92.6105	32.2266	92.5657
33.6914	94.7605	33.6914	94.7028	33.6914	94.8066	33.6914	94.6355	33.6914	94.8393	33.6914	94.5608	33.6914	94.857	33.6914	94.4808	33.6914	94.8584	33.6914	94.3978	33.6914	94.8428	33.6914	94.3139	33.6914	94.8101	33.6914	94.2313	33.6914	94.761	33.6914	94.1521	33.6914	94.697	33.6914	94.0784	33.6914	94.6204	33.6914	94.0121	33.6914	94.5341	33.6914	93.9549	33.6914	94.4417	33.6914	93.9084	33.6914	94.3469	33.6914	93.8737	33.6914	94.2533	33.6914	93.852	33.6914	94.1644	33.6914	93.8438	33.6914	94.0829	33.6914	93.8496	33.6914	94.0112	33.6914	93.8696	33.6914	93.951	33.6914	93.9036
35.1562	95.8093	35.1562	95.7501	35.1562	95.856	35.1562	95.6804	35.1562	95.8882	35.1562	95.6024	35.1562	95.9044	35.1562	95.5186	35.1562	95.9035	35.1562	95.4312	35.1562	95.8849	35.1562	95.3427	35.1562	95.8486	35.1562	95.2553	35.1562	95.7956	35.1562	95.1714	35.1562	95.7274	35.1562	95.0931	35.1562	95.6465	35.1562	95.0225	35.1562	95.5559	35.1562	94.9613	35.1562	95.4592	35.1562	94.9112	35.1562	95.3603	35.1562	94.8736	35.1562	95.2628	35.1562	94.8496	35.1562	95.1703	35.1562	94.8399	35.1562	95.0856	35.1562	94.8449	35.1562	95.0111	35.1562	94.865	35.1562	94.9488	35.1562	94.8997
36.6211	96.5131	36.6211	96.4541	36.6211	96.5599	36.6211	96.3848	36.6211	96.5926	36.6211	96.3075	36.6211	96.6096	36.6211	96.2245	36.6211	96.6099	36.6211	96.1381	36.6211	96.5929	36.6211	96.0507	36.6211	96.5586	36.6211	95.9647	36.6211	96.5079	36.6211	95.8823	36.6211	96.4424	36.6211	95.8058	36.6211	96.3644	36.6211	95.7371	36.6211	96.2768	36.6211	95.6781	36.6211	96.1831	36.6211	95.6304	36.6211	96.087	36.6211	95.5952	36.6211	95.9919	36.6211	95.5736	36.6211	95.9013	36.6211	95.5663	36.6211	95.8178	36.6211	95.5735	36.6211	95.7439	36.6211	95.5954	36.6211	95.6814	36.6211	95.6315
38.0859	97.0254	38.0859	96.9658	38.0859	97.0726	38.0859	96.8956	38.0859	97.1054	38.0859	96.8174	38.0859	97.1223	38.0859	96.7333	38.0859	97.1222	38.0859	96.6458	38.0859	97.1045	38.0859	96.5574	38.0859	97.0695	38.0859	96.4705	38.0859	97.0181	38.0859	96.3874	38.0859	96.9518	38.0859	96.3103	38.0859	96.8731	38.0859	96.2413	38.0859	96.785	38.0859	96.1823	38.0859	96.6911	38.0859	96.1348	38.0859	96.595	38.0859	96.1001	38.0859	96.5001	38.0859	96.0791	38.0859	96.4096	38.0859	96.0725	38.0859	96.3264	38.0859	96.0805	38.0859	96.2526	38.0859	96.103	38.0859	96.1899	38.0859	96.1397
39.5508	97.2693	39.5508	97.2105	39.5508	97.3154	39.5508	97.1411	39.5508	97.347	39.5508	97.0634	39.5508	97.3627	39.5508	96.9797	39.5508	97.3616	39.5508	96.8926	39.5508	97.3431	39.5508	96.8046	39.5508	97.3076	39.5508	96.718	39.5508	97.2561	39.5508	96.6354	39.5508	97.1902	39.5508	96.5589	39.5508	97.1123	39.5508	96.4905	39.5508	97.0254	39.5508	96.4322	39.5508	96.933	39.5508	96.3853	39.5508	96.8385	39.5508	96.3513	39.5508	96.7453	39.5508	96.3309	39.5508	96.6566	39.5508	96.3247	39.5508	96.575	39.5508	96.3328	39.5508	96.5025	39.5508	96.3552	39.5508	96.4409	39.5508	96.3915
41.0156	97.4047	41.0156	97.3444	41.0156	97.4516	41.0156	97.2726	41.0156	97.4833	41.0156	97.1919	41.0156	97.4983	41.0156	97.1048	41.0156	97.4958	41.0156	97.0139	41.0156	97.4755	41.0156	96.9219	41.0156	97.4377	41.0156	96.8315	41.0156	97.3837	41.0156	96.7454	41.0156	97.3153	41.0156	96.6661	41.0156	97.2351	41.0156	96.5956	41.0156	97.1462	41.0156	96.5361	41.0156	97.0521	41.0156	96.489	41.0156	96.9564	41.0156	96.4556	41.0156	96.8624	41.0156	96.4365	41.0156	96.7731	41.0156	96.4321	41.0156	96.691	41.0156	96.4424	41.0156	96.6179	41.0156	96.4668	41.0156	96.5555	41.0156	96.5047
42.4805	97.4911	42.4805	97.4303	42.4805	97.5388	42.4805	97.3585	42.4805	97.5715	42.4805	97.2779	42.4805	97.5877	42.4805	97.191	42.4805	97.5866	42.4805	97.1004	42.4805	97.5678	42.4805	97.0087	42.4805	97.5316	42.4805	96.9184	42.4805	97.4789	42.4805	96.8322	42.4805	97.4118	42.4805	96.7524	42.4805	97.3325	42.4805	96.6813	42.4805	97.2443	42.4805	96.6208	42.4805	97.1503	42.4805	96.5727	42.4805	97.0541	42.4805	96.5382	42.4805	96.959	42.4805	96.5183	42.4805	96.8679	42.4805	96.5136	42.4805	96.7833	42.4805	96.524	42.4805	96.7075	42.4805	96.5495	42.4805	96.6423	42.4805	96.5892
43.9453	97.5362	43.9453	97.475	43.9453	97.5836	43.9453	97.4022	43.9453	97.6154	43.9453	97.3202	43.9453	97.6303	43.9453	97.2315	43.9453	97.6272	43.9453	97.1388	43.9453	97.606	43.9453	97.0449	43.9453	97.5671	43.9453	96.9524	43.9453	97.5116	43.9453	96.8639	43.9453	97.4416	43.9453	96.7819	43.9453	97.3597	43.9453	96.7087	43.9453	97.2689	43.9453	96.6462	43.9453	97.1726	43.9453	96.5962	43.9453	97.0744	43.9453	96.56	43.9453	96.9776	43.9453	96.5386	43.9453	96.8851	43.9453	96.5324	43.9453	96.7997	43.9453	96.5417	43.9453	96.7233	43.9453	96.5661	43.9453	96.658	43.9453	96.6052
45.4102	97.4738	45.4102	97.4145	45.4102	97.5196	45.4102	97.3437	45.4102	97.5502	45.4102	97.2638	45.4102	97.5642	45.4102	97.1772	45.4102	97.5608	45.4102	97.0865	45.4102	97.5397	45.4102	96.9946	45.4102	97.5015	45.4102	96.904	45.4102	97.4473	45.4102	96.8175	45.4102	97.3792	45.4102	96.7375	45.4102	97.2997	45.4102	96.6664	45.4102	97.2119	45.4102	96.6062	45.4102	97.1193	45.4102	96.5585	45.4102	97.0251	45.4102	96.5246	45.4102	96.9325	45.4102	96.5054	45.4102	96.8443	45.4102	96.5011	45.4102	96.7627	45.4102	96.5116	45.4102	96.6896	45.4102	96.5366	45.4102	96.6267	45.4102	96.5753
46.875	97.4678	46.875	97.4087	46.875	97.5134	46.875	97.3383	46.875	97.5439	46.875	97.2587	46.875	97.5578	46.875	97.1725	46.875	97.5544	46.875	97.0824	46.875	97.5335	46.875	96.9911	46.875	97.4955	46.875	96.9014	46.875	97.4416	46.875	96.8158	46.875	97.3739	46.875	96.737	46.875	97.2948	46.875	96.6672	46.875	97.2077	46.875	96.6083	46.875	97.1158	46.875	96.562	46.875	97.0225	46.875	96.5294	46.875	96.931	46.875	96.5111	46.875	96.844	46.875	96.5073	46.875	96.7639	46.875	96.518	46.875	96.6923	46.875	96.5427	46.875	96.6307	46.875	96.5805
48.3398	97.455	48.3398	97.3934	48.3398	97.503	48.3398	97.3203	48.3398	97.5356	48.3398	97.2381	48.3398	97.5516	48.3398	97.1494	48.3398	97.5501	48.3398	97.057	48.3398	97.531	48.3398	96.9638	48.3398	97.4947	48.3398	96.8726	48.3398	97.4425	48.3398	96.7862	48.3398	97.3764	48.3398	96.7074	48.3398	97.299	48.3398	96.6383	48.3398	97.2134	48.3398	96.5811	48.3398	97.1228	48.3398	96.5372	48.3398	97.0305	48.3398	96.5077	48.3398	96.9394	48.3398	96.4932	48.3398	96.8521	48.3398	96.4936	48.3398	96.7708	48.3398	96.5085	48.3398	96.6972	48.3398	96.5374	48.3398	96.6329	48.3398	96.5792
51.2695	97.4435	51.2695	97.3803	51.2695	97.4923	51.2695	97.3048	51.2695	97.5249	51.2695	97.2196	51.2695	97.54	51.2695	97.1274	51.2695	97.5369	51.2695	97.0312	51.2695	97.5157	51.2695	96.934	51.2695	97.477	51.2695	96.8389	51.2695	97.4225	51.2695	96.749	51.2695	97.3543	51.2695	96.667	51.2695	97.2752	51.2695	96.5957	51.2695	97.1885	51.2695	96.5371	51.2695	97.0974	51.2695	96.4929	51.2695	97.0051	51.2695	96.4641	51.2695	96.9142	51.2695	96.4513	51.2695	96.827	51.2695	96.4542	51.2695	96.7454	51.2695	96.4721	51.2695	96.6709	51.2695	96.5042	51.2695	96.6049	51.2695	96.5489
52.7344	97.4439	52.7344	97.3826	52.7344	97.4904	52.7344	97.3085	52.7344	97.5203	52.7344	97.2243	52.7344	97.5325	52.7344	97.1326	52.7344	97.5265	52.7344	97.0366	52.7344	97.5023	52.7344	96.9392	52.7344	97.461	52.7344	96.8437	52.7344	97.4041	52.7344	96.7532	52.7344	97.334	52.7344	96.6704	52.7344	97.2537	52.7344	96.5981	52.7344	97.1663	52.7344	96.5385	52.7344	97.0751	52.7344	96.4931	52.7344	96.9833	52.7344	96.463	52.7344	96.8935	52.7344	96.4486	52.7344	96.8078	52.7344	96.4499	52.7344	96.7281	52.7344	96.4659	52.7344	96.6558	52.7344	96.4959	52.7344	96.5921	52.7344	96.5384
54.1992	97.4677	54.1992	97.4081	54.1992	97.5121	54.1992	97.3355	54.1992	97.5398	54.1992	97.2523	54.1992	97.5498	54.1992	97.1613	54.1992	97.5415	54.1992	97.0656	54.1992	97.5155	54.1992	96.9683	54.1992	97.4726	54.1992	96.8727	54.1992	97.4147	54.1992	96.7819	54.1992	97.3443	54.1992	96.699	54.1992	97.2642	54.1992	96.6265	54.1992	97.1777	54.1992	96.5667	54.1992	97.0879	54.1992	96.5212	54.1992	96.998	54.1992	96.4911	54.1992	96.9102	54.1992	96.4767	54.1992	96.8268	54.1992	96.4777	54.1992	96.7492	54.1992	96.4934	54.1992	96.6787	54.1992	96.5227	54.1992	96.6167	54.1992	96.5642
55.6641	97.5021	55.6641	97.4421	55.6641	97.5469	55.6641	97.3691	55.6641	97.575	55.6641	97.2856	55.6641	97.5854	55.6641	97.1944	55.6641	97.5776	55.6641	97.0987	55.6641	97.552	55.6641	97.0018	55.6641	97.5097	55.6641	96.907	55.6641	97.4527	55.6641	96.8176	55.6641	97.3833	55.6641	96.7366	55.6641	97.3047	55.6641	96.6667	55.6641	97.2202	55.6641	96.6101	55.6641	97.1331	55.6641	96.5681	55.6641	97.0462	55.6641	96.5417	55.6641	96.9618	55.6641	96.531	55.6641	96.8818	55.6641	96.5353	55.6641	96.8073	55.6641	96.5537	55.6641	96.7394	55.6641	96.5847	55.6641	96.6789	55.6641	96.6269
58.5938	97.4016	58.5938	97.3414	58.5938	97.4453	58.5938	97.2671	58.5938	97.4711	58.5938	97.1811	58.5938	97.4781	58.5938	97.0864	58.5938	97.4658	58.5938	96.9864	58.5938	97.435	58.5938	96.8845	58.5938	97.3868	58.5938	96.7843	58.5938	97.3235	58.5938	96.6893	58.5938	97.2477	58.5938	96.6028	58.5938	97.1631	58.5938	96.5277	58.5938	97.0731	58.5938	96.4662	58.5938	96.9814	58.5938	96.4202	58.5938	96.8908	58.5938	96.3904	58.5938	96.804	58.5938	96.3771	58.5938	96.7224	58.5938	96.3795	58.5938	96.6473	58.5938	96.3964	58.5938	96.5794	58.5938	96.4264	58.5938	96.5192	58.5938	96.4679
60.0586	97.4439	60.0586	97.3825	60.0586	97.4891	60.0586	97.3071	60.0586	97.5165	60.0586	97.2204	60.0586	97.525	60.0586	97.1254	60.0586	97.5141	60.0586	97.0253	60.0586	97.4844	60.0586	96.9236	60.0586	97.4371	60.0586	96.8238	60.0586	97.3742	60.0586	96.7292	60.0586	97.2987	60.0586	96.643	60.0586	97.2139	60.0586	96.5682	60.0586	97.1236	60.0586	96.507	60.0586	97.0312	60.0586	96.4611	60.0586	96.9397	60.0586	96.4312	60.0586	96.8517	60.0586	96.4177	60.0586	96.7688	60.0586	96.42	60.0586	96.6922	60.0586	96.437	60.0586	96.6229	60.0586	96.4673	60.0586	96.5616	60.0586	96.5093
62.9883	97.4336	62.9883	97.3696	62.9883	97.4804	62.9883	97.2906	62.9883	97.5081	62.9883	97.1995	62.9883	97.5156	62.9883	97.0997	62.9883	97.5027	62.9883	96.9947	62.9883	97.4701	62.9883	96.8883	62.9883	97.4192	62.9883	96.7842	62.9883	97.3525	62.9883	96.6863	62.9883	97.2733	62.9883	96.5979	62.9883	97.1852	62.9883	96.5219	62.9883	97.0922	62.9883	96.4607	62.9883	96.9979	62.9883	96.4158	62.9883	96.9055	62.9883	96.3879	62.9883	96.8173	62.9883	96.3767	62.9883	96.7348	62.9883	96.3815	62.9883	96.6588	62.9883	96.4008	62.9883	96.59	62.9883	96.4329	62.9883	96.5288	62.9883	96.4761
64.4531	97.3927	64.4531	97.3258	64.4531	97.4414	64.4531	97.2434	64.4531	97.4703	64.4531	97.1483	64.4531	97.4782	64.4531	97.0442	64.4531	97.4649	64.4531	96.9349	64.4531	97.4313	64.4531	96.8242	64.4531	97.379	64.4531	96.7163	64.4531	97.3105	64.4531	96.615	64.4531	97.2292	64.4531	96.5237	64.4531	97.1388	64.4531	96.4457	64.4531	97.0433	64.4531	96.3831	64.4531	96.9464	64.4531	96.3375	64.4531	96.8513	64.4531	96.3095	64.4531	96.7601	64.4531	96.299	64.4531	96.6747	64.4531	96.3049	64.4531	96.5957	64.4531	96.3257	64.4531	96.5241	64.4531	96.3597	64.4531	96.4602	64.4531	96.405
67.3828	97.0954	67.3828	97.0246	67.3828	97.1484	67.3828	96.9387	67.3828	97.182	67.3828	96.8409	67.3828	97.1951	67.3828	96.7347	67.3828	97.1878	67.3828	96.6245	67.3828	97.161	67.3828	96.5144	67.3828	97.1165	67.3828	96.4088	67.3828	97.0571	67.3828	96.3119	67.3828	96.9861	67.3828	96.2276	67.3828	96.9073	67.3828	96.159	67.3828	96.8243	67.3828	96.1084	67.3828	96.7402	67.3828	96.077	67.3828	96.6575	67.3828	96.0649	67.3828	96.5777	67.3828	96.0711	67.3828	96.5012	67.3828	96.0935	67.3828	96.4283	67.3828	96.1296	67.3828	96.3589	67.3828	96.1767	67.3828	96.2932	67.3828	96.2319
68.8477	97.0216	68.8477	96.952	68.8477	97.0734	68.8477	96.867	68.8477	97.1058	68.8477	96.7698	68.8477	97.1177	68.8477	96.6639	68.8477	97.1094	68.8477	96.5534	68.8477	97.0817	68.8477	96.4425	68.8477	97.0365	68.8477	96.3357	68.8477	96.9768	68.8477	96.2374	68.8477	96.906	68.8477	96.1517	68.8477	96.828	68.8477	96.0819	68.8477	96.7465	68.8477	96.0305	68.8477	96.6645	68.8477	95.9992	68.8477	96.5844	68.8477	95.988	68.8477	96.5074	68.8477	95.9958	68.8477	96.4335	68.8477	96.0206	68.8477	96.3626	68.8477	96.0594	68.8477	96.2943	68.8477	96.109	68.8477	96.2286	68.8477	96.1662
71.7773	96.9788	71.7773	96.912	71.7773	97.0263	71.7773	96.8282	71.7773	97.0528	71.7773	96.7306	71.7773	97.0574	71.7773	96.6227	71.7773	97.0405	71.7773	96.5086	71.7773	97.0031	71.7773	96.3926	71.7773	96.9476	71.7773	96.2792	71.7773	96.8773	71.7773	96.1728	71.7773	96.7959	71.7773	96.0776	71.7773	96.7078	71.7773	95.9974	71.7773	96.617	71.7773	95.9349	71.7773	96.5267	71.7773	95.892	71.7773	96.4393	71.7773	95.8694	71.7773	96.3562	71.7773	95.8665	71.7773	96.2777	71.7773	95.8816	71.7773	96.2036	71.7773	95.9122	71.7773	96.1337	71.7773	95.9554	71.7773	96.0683	71.7773	96.0082
74.707	96.853	74.707	96.793	74.707	96.8928	74.707	96.7151	74.707	96.9109	74.707	96.6226	74.707	96.9066	74.707	96.5189	74.707	96.8803	74.707	96.4082	74.707	96.8336	74.707	96.2946	74.707	96.7691	74.707	96.1827	74.707	96.6903	74.707	96.0767	74.707	96.6018	74.707	95.9808	74.707	96.5079	74.707	95.8985	74.707	96.4131	74.707	95.8326	74.707	96.3211	74.707	95.7849	74.707	96.2343	74.707	95.756	74.707	96.1542	74.707	95.7454	74.707	96.0809	74.707	95.7517	74.707	96.0139	74.707	95.7725	74.707	95.9527	74.707	95.8053	74.707	95.8971	74.707	95.8475
77.6367	96.675	77.6367	96.6137	77.6367	96.7166	77.6367	96.535	77.6367	96.7368	77.6367	96.4422	77.6367	96.7351	77.6367	96.3389	77.6367	96.7121	77.6367	96.2296	77.6367	96.6693	77.6367	96.1186	77.6367	96.6095	77.6367	96.0107	77.6367	96.5363	77.6367	95.9101	77.6367	96.4541	77.6367	95.8211	77.6367	96.3673	77.6367	95.7468	77.6367	96.28	77.6367	95.6899	77.6367	96.1955	77.6367	95.6515	77.6367	96.1161	77.6367	95.6317	77.6367	96.0426	77.6367	95.6296	77.6367	95.975	77.6367	95.6431	77.6367	95.9125	77.6367	95.6696	77.6367	95.8544	77.6367	95.7063	77.6367	95.8003	77.6367	95.7505
79.1016	96.5765	79.1016	96.5139	79.1016	96.6191	79.1016	96.4339	79.1016	96.6402	79.1016	96.3396	79.1016	96.6393	79.1016	96.235	79.1016	96.617	79.1016	96.1245	79.1016	96.5751	79.1016	96.0127	79.1016	96.5164	79.1016	95.9045	79.1016	96.4447	79.1016	95.8044	79.1016	96.3644	79.1016	95.7167	79.1016	96.2801	79.1016	95.6449	79.1016	96.1959	79.1016	95.5912	79.1016	96.1151	79.1016	95.557	79.1016	96.0395	79.1016	95.5421	79.1016	95.9697	79.1016	95.5451	79.1016	95.9052	79.1016	95.5636	79.1016	95.845	79.1016	95.5947	79.1016	95.788	79.1016	95.6353	79.1016	95.7337	79.1016	95.6823
82.0312	96.4223	82.0312	96.3564	82.0312	96.4673	82.0312	96.2723	82.0312	96.4898	82.0312	96.1731	82.0312	96.4892	82.0312	96.063	82.0312	96.4663	82.0312	95.9468	82.0312	96.4229	82.0312	95.8294	82.0312	96.3619	82.0312	95.7159	82.0312	96.2876	82.0312	95.6116	82.0312	96.2047	82.0312	95.5209	82.0312	96.1182	82.0312	95.4477	82.0312	96.0326	82.0312	95.3946	82.0312	95.9514	82.0312	95.3627	82.0312	95.8764	82.0312	95.3518	82.0312	95.808	82.0312	95.3602	82.0312	95.7452	82.0312	95.3848	82.0312	95.6862	82.0312	95.4221	82.0312	95.6295	82.0312	95.4683	82.0312	95.5739	82.0312	95.5197
84.9609	96.3396	84.9609	96.2733	84.9609	96.3845	84.9609	96.188	84.9609	96.4063	84.9609	96.0873	84.9609	96.405	84.9609	95.9755	84.9609	96.3814	84.9609	95.8576	84.9609	96.338	84.9609	95.7388	84.9609	96.2782	84.9609	95.6248	84.9609	96.2066	84.9609	95.521	84.9609	96.1282	84.9609	95.4322	84.9609	96.0479	84.9609	95.3624	84.9609	95.9698	84.9609	95.3143	84.9609	95.8968	84.9609	95.289	84.9609	95.83	84.9609	95.2857	84.9609	95.7689	84.9609	95.3022	84.9609	95.712	84.9609	95.3351	84.9609	95.657	84.9609	95.38	84.9609	95.602	84.9609	95.4326	84.9609	95.5459	84.9609	95.4889
87.8906	96.3947	87.8906	96.3307	87.8906	96.4349	87.8906	96.2456	87.8906	96.4503	87.8906	96.1429	87.8906	96.4411	87.8906	96.027	87.8906	96.4086	87.8906	95.9032	87.8906	96.3561	87.8906	95.7775	87.8906	96.2877	87.8906	95.656	87.8906	96.2088	87.8906	95.5449	87.8906	96.1253	87.8906	95.45	87.8906	96.0428	87.8906	95.376	87.8906	95.9659	87.8906	95.326	87.8906	95.8975	87.8906	95.3015	87.8906	95.8381	87.8906	95.3018	87.8906	95.7863	87.8906	95.3239	87.8906	95.739	87.8906	95.3636	87.8906	95.6925	87.8906	95.4154	87.8906	95.6437	87.8906	95.4736	87.8906	95.5907	87.8906	95.5333
90.8203	96.46	90.8203	96.3924	90.8203	96.5015	90.8203	96.3013	90.8203	96.5157	90.8203	96.1905	90.8203	96.5027	90.8203	96.0647	90.8203	96.4641	90.8203	95.9295	90.8203	96.4031	90.8203	95.7912	90.8203	96.3245	90.8203	95.6563	90.8203	96.2341	90.8203	95.5315	90.8203	96.1382	90.8203	95.423	90.8203	96.0429	90.8203	95.3359	90.8203	95.9535	90.8203	95.2741	90.8203	95.8731	90.8203	95.2393	90.8203	95.8025	90.8203	95.2312	90.8203	95.7405	90.8203	95.2472	90.8203	95.6841	90.8203	95.2831	90.8203	95.6296	90.8203	95.3334	90.8203	95.5741	90.8203	95.3921	90.8203	95.5156	90.8203	95.4542
95.2148	96.5409	95.2148	96.4719	95.2148	96.5814	95.2148	96.3771	95.2148	96.5921	95.2148	96.2607	95.2148	96.5734	95.2148	96.1277	95.2148	96.5273	95.2148	95.9844	95.2148	96.4577	95.2148	95.8373	95.2148	96.3702	95.2148	95.6935	95.2148	96.2712	95.2148	95.5602	95.2148	96.1681	95.2148	95.444	95.2148	96.0675	95.2148	95.3506	95.2148	95.9749	95.2148	95.2841	95.2148	95.8934	95.2148	95.2466	95.2148	95.8234	95.2148	95.2377	95.2148	95.7629	95.2148	95.2549	95.2148	95.7081	95.2148	95.2933	95.2148	95.6547	95.2148	95.3471	95.2148	95.5991	95.2148	95.4097	95.2148	95.5392	95.2148	95.4752
98.1445	96.6775	98.1445	96.6109	98.1445	96.7153	98.1445	96.5181	98.1445	96.7231	98.1445	96.4031	98.1445	96.7015	98.1445	96.271	98.1445	96.6528	98.1445	96.1278	98.1445	96.5811	98.1445	95.9802	98.1445	96.492	98.1445	95.8354	98.1445	96.3922	98.1445	95.7006	98.1445	96.2892	98.1445	95.5827	98.1445	96.1897	98.1445	95.4875	98.1445	96.0989	98.1445	95.4193	98.1445	96.0196	98.1445	95.3804	98.1445	95.9518	98.1445	95.3706	98.1445	95.8933	98.1445	95.3872	98.1445	95.84	98.1445	95.4254	98.1445	95.7874	98.1445	95.4792	98.1445	95.7321	98.1445	95.5421	98.1445	95.6722	98.1445	95.608
101.074	96.681	101.074	96.6181	101.074	96.7142	101.074	96.5283	101.074	96.7166	101.074	96.4158	101.074	96.6887	101.074	96.286	101.074	96.6331	101.074	96.1451	101.074	96.5546	101.074	96.0002	101.074	96.4596	101.074	95.8586	101.074	96.3557	101.074	95.7277	101.074	96.2513	101.074	95.6143	101.074	96.1539	101.074	95.5243	101.074	96.0692	101.074	95.4619	101.074	95.9997	101.074	95.429	101.074	95.9447	101.074	95.4249	101.074	95.9005	101.074	95.4464	101.074	95.8618	101.074	95.4884	101.074	95.8228	101.074	95.5441	101.074	95.779	101.074	95.6066	101.074	95.7278	101.074	95.6695
105.469	96.8127	105.469	96.756	105.469	96.8378	105.469	96.6706	105.469	96.83	105.469	96.5605	105.469	96.7898	105.469	96.4312	105.469	96.72	105.469	96.289	105.469	96.6255	105.469	96.141	105.469	96.5138	105.469	95.995	105.469	96.3941	105.469	95.8589	105.469	96.2765	105.469	95.7406	105.469	96.1708	105.469	95.6469	105.469	96.0842	105.469	95.5826	105.469	96.0201	105.469	95.5501	105.469	95.9773	105.469	95.5487	105.469	95.9505	105.469	95.5745	105.469	95.932	105.469	95.6209	105.469	95.9133	105.469	95.6798	105.469	95.8875	105.469	95.7424	105.469	95.8504	105.469	95.8012
108.398	97.1116	108.398	97.0608	108.398	97.1275	108.398	96.9784	108.398	97.1071	108.398	96.8688	108.398	97.0508	108.398	96.7377	108.398	96.9612	108.398	96.5917	108.398	96.8436	108.398	96.4382	108.398	96.7058	108.398	96.285	108.398	96.558	108.398	96.1401	108.398	96.4117	108.398	96.0112	108.398	96.2785	108.398	95.905	108.398	96.1681	108.398	95.8265	108.398	96.086	108.398	95.7781	108.398	96.0326	108.398	95.7594	108.398	96.0031	108.398	95.7671	108.398	95.9891	108.398	95.7948	108.398	95.9807	108.398	95.8346	108.398	95.9694	108.398	95.8783	108.398	95.9493	108.398	95.9183
112.793	97.3236	112.793	97.265	112.793	97.3463	112.793	97.1738	112.793	97.3314	112.793	97.0548	112.793	97.2792	112.793	96.914	112.793	97.1924	112.793	96.7586	112.793	97.0758	112.793	96.5962	112.793	96.937	112.793	96.4353	112.793	96.7857	112.793	96.2843	112.793	96.6333	112.793	96.1513	112.793	96.4911	112.793	96.043	112.793	96.3691	112.793	95.964	112.793	96.2736	112.793	95.9165	112.793	96.2064	112.793	95.8992	112.793	96.1641	112.793	95.9081	112.793	96.1396	112.793	95.9362	112.793	96.124	112.793	95.9756	112.793	96.1086	112.793	96.018	112.793	96.0871	112.793	96.0566
117.188	97.449	117.188	97.3871	117.188	97.4731	117.188	97.2908	117.188	97.4578	117.188	97.1652	117.188	97.4038	117.188	97.0169	117.188	97.3142	117.188	96.8533	117.188	97.1947	117.188	96.6832	117.188	97.0538	117.188	96.5155	117.188	96.9022	117.188	96.3595	117.188	96.752	117.188	96.2239	117.188	96.615	117.188	96.116	117.188	96.5008	117.188	96.0409	117.188	96.4148	117.188	96.0004	117.188	96.3574	117.188	95.9932	117.188	96.3236	117.188	96.0141	117.188	96.3051	117.188	96.0554	117.188	96.292	117.188	96.108	117.188	96.2756	117.188	96.1626	117.188	96.2496	117.188	96.2114
120.117	97.5154	120.117	97.4523	120.117	97.5387	120.117	97.3533	120.117	97.5204	120.117	97.2239	120.117	97.4609	120.117	97.071	120.117	97.3636	120.117	96.9027	120.117	97.2344	120.117	96.7279	120.117	97.0825	120.117	96.5561	120.117	96.9196	120.117	96.3968	120.117	96.7593	120.117	96.2591	120.117	96.6148	120.117	96.1506	120.117	96.4973	120.117	96.0767	120.117	96.4132	120.117	96.0394	120.117	96.3625	120.117	96.0369	120.117	96.3395	120.117	96.0636	120.117	96.3337	120.117	96.111	120.117	96.3335	120.117	96.1686	120.117	96.3279	120.117	96.2263	120.117	96.3094	120.117	96.2751
124.512	97.6328	124.512	97.5643	124.512	97.6619	124.512	97.4604	124.512	97.6497	124.512	97.3269	124.512	97.596	124.512	97.1707	124.512	97.5036	124.512	97	124.512	97.3779	124.512	96.824	124.512	97.2269	124.512	96.652	124.512	97.0616	124.512	96.4935	124.512	96.8948	124.512	96.3572	124.512	96.74	124.512	96.2505	124.512	96.609	124.512	96.1779	124.512	96.5101	124.512	96.141	124.512	96.4454	124.512	96.1374	124.512	96.4113	124.512	96.1614	124.512	96.3987	124.512	96.2043	124.512	96.3959	124.512	96.2563	124.512	96.3918	124.512	96.3073	124.512	96.3777	124.512	96.3494
128.906	97.6995	128.906	97.6263	128.906	97.7316	128.906	97.5159	128.906	97.7204	128.906	97.3744	128.906	97.6664	128.906	97.2093	128.906	97.5726	128.906	97.0295	128.906	97.4451	128.906	96.8448	128.906	97.2929	128.906	96.6657	128.906	97.1277	128.906	96.5024	128.906	96.963	128.906	96.3646	128.906	96.8125	128.906	96.26	128.906	96.6881	128.906	96.1935	128.906	96.5971	128.906	96.1662	128.906	96.5408	128.906	96.1752	128.906	96.514	128.906	96.2133	128.906	96.5067	128.906	96.2708	128.906	96.5068	128.906	96.3363	128.906	96.5025	128.906	96.3992	128.906	96.4852	128.906	96.4505
133.301	97.7412	133.301	97.6604	133.301	97.7804	133.301	97.5425	133.301	97.7759	133.301	97.3939	133.301	97.7276	133.301	97.2227	133.301	97.6386	133.301	97.0382	133.301	97.5144	133.301	96.8511	133.301	97.3638	133.301	96.6724	133.301	97.1985	133.301	96.5131	133.301	97.0324	133.301	96.3829	133.301	96.8798	133.301	96.2895	133.301	96.7536	133.301	96.2368	133.301	96.6623	133.301	96.2245	133.301	96.608	133.301	96.248	133.301	96.5859	133.301	96.2989	133.301	96.5853	133.301	96.3662	133.301	96.593	133.301	96.438	133.301	96.5961	133.301	96.5035	133.301	96.5848	133.301	96.554
139.16	97.76	139.16	97.6683	139.16	97.8079	139.16	97.5364	139.16	97.8102	139.16	97.3701	139.16	97.7679	139.16	97.1772	139.16	97.6839	139.16	96.9677	139.16	97.5642	139.16	96.7533	139.16	97.4176	139.16	96.5472	139.16	97.2556	139.16	96.3633	139.16	97.0916	139.16	96.2146	139.16	96.9397	139.16	96.1114	139.16	96.8125	139.16	96.0593	139.16	96.7183	139.16	96.0584	139.16	96.6592	139.16	96.1023	139.16	96.6306	139.16	96.1796	139.16	96.6223	139.16	96.2758	139.16	96.6208	139.16	96.3761	139.16	96.6128	139.16	96.4672	139.16	96.5877	139.16	96.5393
143.555	97.8389	143.555	97.7412	143.555	97.8879	143.555	97.5983	143.555	97.8867	143.555	97.4162	143.555	97.8363	143.555	97.2027	143.555	97.7403	143.555	96.9678	143.555	97.6055	143.555	96.7239	143.555	97.4417	143.555	96.4852	143.555	97.2617	143.555	96.2673	143.555	97.0805	143.555	96.0854	143.555	96.9133	143.555	95.9527	143.555	96.7733	143.555	95.878	143.555	96.6685	143.555	95.8632	143.555	96.6005	143.555	95.9028	143.555	96.5636	143.555	95.9849	143.555	96.5464	143.555	96.093	143.555	96.5348	143.555	96.2098	143.555	96.5146	143.555	96.3193	143.555	96.4749	143.555	96.4097
147.949	97.9034	147.949	97.8071	147.949	97.9477	147.949	97.6624	147.949	97.9387	147.949	97.4751	147.949	97.8776	147.949	97.2533	147.949	97.7684	147.949	97.0074	147.949	97.6184	147.949	96.7499	147.949	97.4386	147.949	96.4957	147.949	97.2428	147.949	96.2609	147.949	97.0475	147.949	96.0618	147.949	96.8691	147.949	95.9128	147.949	96.7217	147.949	95.8236	147.949	96.6134	147.949	95.7973	147.949	96.5449	147.949	95.8292	147.949	96.5092	147.949	95.9074	147.949	96.4932	147.949	96.0152	147.949	96.4813	147.949	96.1346	147.949	96.4589	147.949	96.2488	147.949	96.4152	147.949	96.3448
153.809	97.8699	153.809	97.7806	153.809	97.9002	153.809	97.6366	153.809	97.8698	153.809	97.4445	153.809	97.7807	153.809	97.2132	153.809	97.6383	153.809	96.9536	153.809	97.4524	153.809	96.6786	153.809	97.2371	153.809	96.4033	153.809	97.0104	153.809	96.1447	153.809	96.7923	153.809	95.9208	153.809	96.6024	153.809	95.7482	153.809	96.4558	153.809	95.64	153.809	96.3595	153.809	95.6017	153.809	96.3109	153.809	95.63	153.809	96.2985	153.809	95.7124	153.809	96.3047	153.809	95.83	153.809	96.3108	153.809	95.9612	153.809	96.3003	153.809	96.0862	153.809	96.2615	153.809	96.1894
159.668	97.9734	159.668	97.8887	159.668	98.0025	159.668	97.7521	159.668	97.975	159.668	97.57	159.668	97.8931	159.668	97.3509	159.668	97.7623	159.668	97.1051	159.668	97.592	159.668	96.8452	159.668	97.3949	159.668	96.5853	159.668	97.1869	159.668	96.341	159.668	96.9861	159.668	96.1289	159.668	96.8101	159.668	95.9642	159.668	96.6731	159.668	95.8591	159.668	96.5822	159.668	95.8194	159.668	96.5357	159.668	95.8433	159.668	96.523	159.668	95.9204	159.668	96.5275	159.668	96.0338	159.668	96.5307	159.668	96.1634	159.668	96.5161	159.668	96.2896	159.668	96.4727	159.668	96.3961
165.527	98.0739	165.527	98.0004	165.527	98.0904	165.527	97.8731	165.527	98.0488	165.527	97.6979	165.527	97.9512	165.527	97.4828	165.527	97.8028	165.527	97.2381	165.527	97.6124	165.527	96.9769	165.527	97.3937	165.527	96.7147	165.527	97.1646	165.527	96.4692	165.527	96.9473	165.527	96.2589	165.527	96.7644	165.527	96.1009	165.527	96.635	165.527	96.0081	165.527	96.5687	165.527	95.9857	165.527	96.562	165.527	96.03	165.527	96.5986	165.527	96.1279	165.527	96.6543	165.527	96.26	165.527	96.7038	165.527	96.4038	165.527	96.7256	165.527	96.5372	165.527	96.7066	165.527	96.6423
171.387	98.1904	171.387	98.0922	171.387	98.225	171.387	97.9343	171.387	98.1942	171.387	97.7231	171.387	98.0988	171.387	97.4669	171.387	97.9428	171.387	97.1766	171.387	97.7345	171.387	96.8657	171.387	97.4867	171.387	96.5508	171.387	97.2182	171.387	96.2513	171.387	96.9525	171.387	95.9885	171.387	96.7156	171.387	95.7835	171.387	96.5311	171.387	95.6539	171.387	96.4137	171.387	95.6087	171.387	96.3644	171.387	95.6457	171.387	96.3694	171.387	95.7505	171.387	96.4038	171.387	95.8995	171.387	96.4395	171.387	96.0648	171.387	96.4511	171.387	96.2199	171.387	96.4214	171.387	96.3432
177.246	98.1606	177.246	98.0592	177.246	98.1965	177.246	97.8975	177.246	98.1641	177.246	97.6832	177.246	98.0638	177.246	97.4262	177.246	97.8994	177.246	97.1386	177.246	97.6796	177.246	96.8345	177.246	97.4179	177.246	96.5304	177.246	97.1335	177.246	96.2444	177.246	96.8503	177.246	95.9953	177.246	96.5947	177.246	95.8006	177.246	96.3913	177.246	95.674	177.246	96.2562	177.246	95.6221	177.246	96.1924	177.246	95.642	177.246	96.1879	177.246	95.7215	177.246	96.2189	177.246	95.8407	177.246	96.2572	177.246	95.9757	177.246	96.2773	177.246	96.1028	177.246	96.2614	177.246	96.2022
183.105	98.0523	183.105	97.9482	183.105	98.0897	183.105	97.7816	183.105	98.059	183.105	97.5594	183.105	97.9622	183.105	97.2909	183.105	97.8048	183.105	96.9885	183.105	97.5965	183.105	96.6678	183.105	97.3515	183.105	96.348	183.105	97.0887	183.105	96.0513	183.105	96.8304	183.105	95.8017	183.105	96.6006	183.105	95.6211	183.105	96.4212	183.105	95.5248	183.105	96.3066	183.105	95.517	183.105	96.2594	183.105	95.5889	183.105	96.2682	183.105	95.7203	183.105	96.3105	183.105	95.8843	183.105	96.3584	183.105	96.0532	183.105	96.3859	183.105	96.2019	183.105	96.3737	183.105	96.3122
188.965	98.0197	188.965	97.9347	188.965	98.0306	188.965	97.7789	188.965	97.9669	188.965	97.5581	188.965	97.8319	188.965	97.2807	188.965	97.6334	188.965	96.9579	188.965	97.3845	188.965	96.6043	188.965	97.104	188.965	96.2393	188.965	96.8164	188.965	95.8874	188.965	96.5492	188.965	95.5774	188.965	96.3294	188.965	95.3398	188.965	96.1774	188.965	95.1995	188.965	96.1016	188.965	95.169	188.965	96.0952	188.965	95.2425	188.965	96.1378	188.965	95.3969	188.965	96.2011	188.965	95.5984	188.965	96.2554	188.965	95.811	188.965	96.2753	188.965	96.0032	188.965	96.2432	188.965	96.1516
196.289	98.1538	196.289	98.0788	196.289	98.1543	196.289	97.933	196.289	98.0795	196.289	97.7225	196.289	97.9317	196.289	97.4559	196.289	97.7174	196.289	97.1445	196.289	97.4474	196.289	96.8024	196.289	97.1387	196.289	96.4473	196.289	96.8144	196.289	96.1011	196.289	96.5037	196.289	95.7891	196.289	96.2394	196.289	95.5385	196.289	96.0509	196.289	95.3739	196.289	95.9562	196.289	95.3109	196.289	95.9537	196.289	95.3504	196.289	96.0212	196.289	95.4762	196.289	96.1224	196.289	95.6584	196.289	96.2171	196.289	95.8603	196.289	96.2716	196.289	96.0462	196.289	96.2642	196.289	96.187
203.613	98.2362	203.613	98.1492	203.613	98.2342	203.613	97.9782	203.613	98.1409	203.613	97.7302	203.613	97.9572	203.613	97.4146	203.613	97.6886	203.613	97.0436	203.613	97.3472	203.613	96.6329	203.613	96.954	203.613	96.2031	203.613	96.5401	203.613	95.7814	203.613	96.1467	203.613	95.4007	203.613	95.8198	203.613	95.0976	203.613	95.5997	203.613	94.9051	203.613	95.5066	203.613	94.8421	203.613	95.5315	203.613	94.9052	203.613	95.6391	203.613	95.0686	203.613	95.7802	203.613	95.2918	203.613	95.9066	203.613	95.5298	203.613	95.981	203.613	95.7425	203.613	95.9811	203.613	95.8994
210.938	98.2909	210.938	98.215	210.938	98.2782	210.938	98.0576	210.938	98.1728	210.938	97.827	210.938	97.9738	210.938	97.533	210.938	97.6852	210.938	97.1859	210.938	97.317	210.938	96.7975	210.938	96.8865	210.938	96.382	210.938	96.42	210.938	95.9584	210.938	95.9542	210.938	95.5523	210.938	95.5349	210.938	95.1965	210.938	95.2109	210.938	94.9272	210.938	95.0206	210.938	94.7744	210.938	94.9755	210.938	94.75	210.938	95.052	210.938	94.8396	210.938	95.1993	210.938	95.0057	210.938	95.3584	210.938	95.1995	210.938	95.4786	210.938	95.3734	210.938	95.5269	210.938	95.49
218.262	98.1096	218.262	98.0577	218.262	98.0818	218.262	97.9323	218.262	97.9716	218.262	97.7409	218.262	97.7798	218.262	97.4927	218.262	97.5121	218.262	97.1972	218.262	97.1796	218.262	96.8652	218.262	96.8	218.262	96.5093	218.262	96.3983	218.262	96.1457	218.262	96.0077	218.262	95.7958	218.262	95.6671	218.262	95.4862	218.262	95.4151	218.262	95.2465	218.262	95.2782	218.262	95.1019	218.262	95.2594	218.262	95.0645	218.262	95.3352	218.262	95.1261	218.262	95.463	218.262	95.2587	218.262	95.595	218.262	95.4221	218.262	95.6905	218.262	95.5747	218.262	95.7229	218.262	95.6822
225.586	98.2135	225.586	98.1449	225.586	98.1925	225.586	97.9927	225.586	98.0791	225.586	97.7656	225.586	97.8746	225.586	97.4745	225.586	97.5848	225.586	97.1327	225.586	97.2217	225.586	96.756	225.586	96.8053	225.586	96.3635	225.586	96.3657	225.586	95.9787	225.586	95.9449	225.586	95.6299	225.586	95.5934	225.586	95.3484	225.586	95.3602	225.586	95.1641	225.586	95.2746	225.586	95.0966	225.586	95.3325	225.586	95.1473	225.586	95.4951	225.586	95.2958	225.586	95.704	225.586	95.5044	225.586	95.9006	225.586	95.7274	225.586	96.0392	225.586	95.921	225.586	96.092	225.586	96.05
232.91	98.4479	232.91	98.349	232.91	98.4531	232.91	98.1653	232.91	98.3579	232.91	97.9071	232.91	98.1577	232.91	97.5851	232.91	97.8515	232.91	97.2107	232.91	97.4432	232.91	96.7958	232.91	96.9449	232.91	96.3544	232.91	96.3818	232.91	95.9051	232.91	95.7994	232.91	95.4737	232.91	95.2663	232.91	95.0957	232.91	94.8656	232.91	94.813	232.91	94.666	232.91	94.6637	232.91	94.6851	232.91	94.6656	232.91	94.8754	232.91	94.8041	232.91	95.1494	232.91	95.0335	232.91	95.4178	232.91	95.2919	232.91	95.614	232.91	95.5184	232.91	95.7002	232.91	95.6648
241.699	98.1868	241.699	98.0567	241.699	98.2322	241.699	97.8529	241.699	98.1838	241.699	97.5881	241.699	98.0348	241.699	97.276	241.699	97.7805	241.699	96.9307	241.699	97.4195	241.699	96.5655	241.699	96.9555	241.699	96.1928	241.699	96.4016	241.699	95.8251	241.699	95.7869	241.699	95.4763	241.699	95.1639	241.699	95.1648	241.699	94.6122	241.699	94.9138	241.699	94.2251	241.699	94.7478	241.699	94.0698	241.699	94.6839	241.699	94.1451	241.699	94.7203	241.699	94.3775	241.699	94.8311	241.699	94.6638	241.699	94.9706	241.699	94.9156	241.699	95.0866	241.699	95.0785	241.699	95.1327
250.488	98.5273	250.488	98.3321	250.488	98.6294	250.488	98.0508	250.488	98.6323	250.488	97.6919	250.488	98.5308	250.488	97.266	250.488	98.3208	250.488	96.7862	250.488	98.0003	250.488	96.269	250.488	97.5719	250.488	95.7352	250.488	97.0464	250.488	95.2111	250.488	96.4479	250.488	94.7294	250.488	95.8187	250.488	94.3281	250.488	95.2225	250.488	94.0447	250.488	94.7366	250.488	93.9059	250.488	94.4281	250.488	93.9151	250.488	94.3204	250.488	94.0468	250.488	94.3769	250.488	94.2519	250.488	94.5201	250.488	94.4714	250.488	94.6673	250.488	94.6514	250.488	94.7559	250.488	94.7525
259.277	98.2808	259.277	98.123	259.277	98.343	259.277	97.8759	259.277	98.3074	259.277	97.5512	259.277	98.1753	259.277	97.1658	259.277	97.9508	259.277	96.7418	259.277	97.64	259.277	96.3042	259.277	97.2505	259.277	95.8778	259.277	96.7926	259.277	95.4838	259.277	96.2811	259.277	95.1379	259.277	95.7419	259.277	94.8504	259.277	95.2188	259.277	94.6289	259.277	94.775	259.277	94.4808	259.277	94.4782	259.277	94.4128	259.277	94.3654	259.277	94.4257	259.277	94.4149	259.277	94.5063	259.277	94.5548	259.277	94.6244	259.277	94.7017	259.277	94.7379	259.277	94.7939	259.277	94.8042
268.066	97.8993	268.066	97.7418	268.066	97.9569	268.066	97.4905	268.066	97.9119	268.066	97.1537	268.066	97.7661	268.066	96.7415	268.066	97.5263	268.066	96.2664	268.066	97.2043	268.066	95.7469	268.066	96.8156	268.066	95.2106	268.066	96.3779	268.066	94.6978	268.066	95.9118	268.066	94.2589	268.066	95.4431	268.066	93.9438	268.066	95.0093	268.066	93.7845	268.066	94.6602	268.066	93.7824	268.066	94.446	268.066	93.9083	268.066	94.3903	268.066	94.1161	268.066	94.4696	268.066	94.356	268.066	94.6203	268.066	94.5827	268.066	94.7684	268.066	94.7585	268.066	94.8566	268.066	94.8548
276.855	98.185	276.855	98.0807	276.855	98.1805	276.855	97.8717	276.855	98.0673	276.855	97.5657	276.855	97.8516	276.855	97.1733	276.855	97.5469	276.855	96.7074	276.855	97.1744	276.855	96.1843	276.855	96.7616	276.855	95.6253	276.855	96.3366	276.855	95.0604	276.855	95.9226	276.855	94.5326	276.855	95.5344	276.855	94.0959	276.855	95.1826	276.855	93.8035	276.855	94.8823	276.855	93.6859	276.855	94.6573	276.855	93.7341	276.855	94.5312	276.855	93.903	276.855	94.5081	276.855	94.1312	276.855	94.5601	276.855	94.3597	276.855	94.6348	276.855	94.5428	276.855	94.678	276.855	94.6519
287.109	97.8485	287.109	97.8158	287.109	97.7611	287.109	97.6678	287.109	97.5525	287.109	97.4123	287.109	97.2272	287.109	97.0593	287.109	96.7975	287.109	96.6217	287.109	96.287	287.109	96.1158	287.109	95.7354	287.109	95.5628	287.109	95.1995	287.109	94.9917	287.109	94.7456	287.109	94.4416	287.109	94.4292	287.109	93.9632	287.109	94.272	287.109	93.6138	287.109	94.2559	287.109	93.4425	287.109	94.3396	287.109	93.4668	287.109	94.4789	287.109	93.6591	287.109	94.6347	287.109	93.9545	287.109	94.7716	287.109	94.2766	287.109	94.8557	287.109	94.5595	287.109	94.8579	287.109	94.7598
297.363	98.2704	297.363	98.1549	297.363	98.2475	297.363	97.9148	297.363	98.0745	297.363	97.5651	297.363	97.7447	297.363	97.1217	297.363	97.2612	297.363	96.6033	297.363	96.6454	297.363	96.0327	297.363	95.9466	297.363	95.4411	297.363	95.2502	297.363	94.8713	297.363	94.67	297.363	94.3776	297.363	94.313	297.363	94.0164	297.363	94.2249	297.363	93.8282	297.363	94.3672	297.363	93.8229	297.363	94.6498	297.363	93.9785	297.363	94.9797	297.363	94.2527	297.363	95.285	297.363	94.5947	297.363	95.5159	297.363	94.9515	297.363	95.6398	297.363	95.2716	297.363	95.6389	297.363	95.5112
307.617	98.4901	307.617	98.2882	307.617	98.5665	307.617	97.9774	307.617	98.4984	307.617	97.5717	307.617	98.266	307.617	97.0822	307.617	97.8518	307.617	96.5192	307.617	97.2447	307.617	95.8946	307.617	96.4497	307.617	95.2267	307.617	95.5069	307.617	94.5478	307.617	94.5257	307.617	93.9127	307.617	93.711	307.617	93.3998	307.617	93.3031	307.617	93.0946	307.617	93.3928	307.617	93.0505	307.617	93.8305	307.617	93.2542	307.617	94.3786	307.617	93.6327	307.617	94.8662	307.617	94.092	307.617	95.2109	307.617	94.5497	307.617	95.3852	307.617	94.945	307.617	95.389	307.617	95.235
319.336	98.5568	319.336	98.371	319.336	98.6161	319.336	98.0682	319.336	98.5384	319.336	97.6591	319.336	98.3106	319.336	97.1558	319.336	97.916	319.336	96.5726	319.336	97.3356	319.336	95.9266	319.336	96.5526	319.336	95.24	319.336	95.5636	319.336	94.5475	319.336	94.4046	319.336	93.9053	319.336	93.2033	319.336	93.3941	319.336	92.2407	319.336	93.0999	319.336	91.8759	319.336	93.0701	319.336	92.2099	319.336	93.2791	319.336	92.9507	319.336	93.6424	319.336	93.7393	319.336	94.0617	319.336	94.373	319.336	94.4561	319.336	94.7829	319.336	94.7672	319.336	94.967	319.336	94.9503
329.59	97.9988	329.59	97.8184	329.59	98.0559	329.59	97.5242	329.59	97.9818	329.59	97.1267	329.59	97.7704	329.59	96.637	329.59	97.4164	329.59	96.0652	329.59	96.9142	329.59	95.422	329.59	96.2578	329.59	94.7226	329.59	95.4424	329.59	93.9959	329.59	94.4758	329.59	93.2969	329.59	93.4092	329.59	92.7162	329.59	92.3972	329.59	92.3659	329.59	91.7351	329.59	92.3286	329.59	91.7039	329.59	92.5966	329.59	92.2558	329.59	93.0691	329.59	93.0542	329.59	93.6108	329.59	93.7963	329.59	94.1055	329.59	94.3319	329.59	94.4716	329.59	94.6165	329.59	94.6546
341.309	98.271	341.309	98.142	341.309	98.2827	341.309	97.8975	341.309	98.1757	341.309	97.5394	341.309	97.9486	341.309	97.0697	341.309	97.5991	341.309	96.4911	341.309	97.1224	341.309	95.8086	341.309	96.5087	341.309	95.0341	341.309	95.7443	341.309	94.197	341.309	94.8213	341.309	93.3608	341.309	93.767	341.309	92.6385	341.309	92.7013	341.309	92.1796	341.309	91.8945	341.309	92.0965	341.309	91.6714	341.309	92.377	341.309	92.0877	341.309	92.8897	341.309	92.8455	341.309	93.473	341.309	93.6072	341.309	93.9986	341.309	94.1827	341.309	94.3804	341.309	94.5031	341.309	94.5616
353.027	98.1266	353.027	97.9656	353.027	98.162	353.027	97.6886	353.027	98.0655	353.027	97.3068	353.027	97.835	353.027	96.8301	353.027	97.4715	353.027	96.2626	353.027	96.9785	353.027	95.6005	353.027	96.3599	353.027	94.8365	353.027	95.6193	353.027	93.9742	353.027	94.7632	353.027	93.0568	353.027	93.8195	353.027	92.204	353.027	92.8794	353.027	91.6223	353.027	92.1502	353.027	91.5126	353.027	91.91	353.027	91.896	353.027	92.2629	353.027	92.5873	353.027	92.9886	353.027	93.3529	353.027	93.7603	353.027	94.0243	353.027	94.3601	353.027	94.5042	353.027	94.6935	353.027	94.7378
366.211	98.3268	366.211	98.1945	366.211	98.3361	366.211	97.9519	366.211	98.2089	366.211	97.6087	366.211	97.9327	366.211	97.1675	366.211	97.4952	366.211	96.6216	366.211	96.8836	366.211	95.9555	366.211	96.0864	366.211	95.1499	366.211	95.102	366.211	94.1961	366.211	93.9589	366.211	93.122	366.211	92.7534	366.211	92.0352	366.211	91.6973	366.211	91.1608	366.211	91.1011	366.211	90.777	366.211	91.1646	366.211	90.9877	366.211	91.7552	366.211	91.6109	366.211	92.5425	366.211	92.3703	366.211	93.2555	366.211	93.0701	366.211	93.7505	366.211	93.605	366.211	93.9732	366.211	93.918
379.395	98.7271	379.395	98.5904	379.395	98.7789	379.395	98.3783	379.395	98.734	379.395	98.0961	379.395	98.5766	379.395	97.7417	379.395	98.283	379.395	97.3006	379.395	97.8194	379.395	96.7455	379.395	97.1411	379.395	96.0396	379.395	96.1953	379.395	95.1472	379.395	94.9277	379.395	94.0533	379.395	93.3022	379.395	92.803	379.395	91.3836	379.395	91.5735	379.395	89.6051	379.395	90.7318	379.395	88.993	379.395	90.6477	379.395	89.9343	379.395	91.2727	379.395	91.43	379.395	92.1964	379.395	92.71	379.395	93.0645	379.395	93.5651	379.395	93.6986	379.395	93.9899	379.395	94.0215
392.578	97.9742	392.578	97.8207	392.578	98.0465	392.578	97.5989	392.578	98.0266	392.578	97.3219	392.578	97.9036	392.578	96.9979	392.578	97.6648	392.578	96.6237	392.578	97.2951	392.578	96.181	392.578	96.7771	392.578	95.6388	392.578	96.0894	392.578	94.9632	392.578	95.204	392.578	94.1339	392.578	94.0849	392.578	93.1703	392.578	92.7081	392.578	92.1709	392.578	91.1445	392.578	91.3502	392.578	89.7697	392.578	90.9824	392.578	89.3346	392.578	91.1804	392.578	90.0808	392.578	91.7598	392.578	91.2844	392.578	92.4148	392.578	92.3044	392.578	92.9102	392.578	92.919	392.578	93.1058
405.762	97.8465	405.762	97.763	405.762	97.8346	405.762	97.5932	405.762	97.7217	405.762	97.3449	405.762	97.5084	405.762	97.0191	405.762	97.2016	405.762	96.6056	405.762	96.811	405.762	96.0831	405.762	96.3423	405.762	95.4261	405.762	95.7856	405.762	94.6164	405.762	95.1056	405.762	93.6632	405.762	94.2449	405.762	92.6343	405.762	93.1597	405.762	91.6966	405.762	91.9127	405.762	91.1158	405.762	90.8431	405.762	91.1063	405.762	90.5549	405.762	91.6156	405.762	91.2226	405.762	92.3715	405.762	92.2819	405.762	93.104	405.762	93.1903	405.762	93.6377	405.762	93.7308	405.762	93.8686
420.41	97.9668	420.41	97.867	420.41	97.9452	420.41	97.6732	420.41	97.786	420.41	97.4157	420.41	97.4879	420.41	97.1152	420.41	97.0631	420.41	96.7708	420.41	96.531	420.41	96.3552	420.41	95.9071	420.41	95.8176	420.41	95.1913	420.41	95.098	420.41	94.361	420.41	94.1466	420.41	93.3793	420.41	92.9564	420.41	92.2368	420.41	91.6313	420.41	91.056	420.41	90.5024	420.41	90.24	420.41	90.1049	420.41	90.3136	420.41	90.6463	420.41	91.2216	420.41	91.6931	420.41	92.3599	420.41	92.7283	420.41	93.271	420.41	93.4809	420.41	93.7788	420.41	93.8449
435.059	97.7421	435.059	97.5968	435.059	97.7861	435.059	97.3685	435.059	97.7253	435.059	97.084	435.059	97.5676	435.059	96.7653	435.059	97.3229	435.059	96.4154	435.059	96.99	435.059	96.0119	435.059	96.5483	435.059	95.5125	435.059	95.9562	435.059	94.8735	435.059	95.1569	435.059	94.0735	435.059	94.091	435.059	93.1436	435.059	92.7266	435.059	92.2081	435.059	91.1536	435.059	91.5118	435.059	89.8188	435.059	91.3278	435.059	89.5648	435.059	91.7108	435.059	90.5494	435.059	92.4221	435.059	91.9189	435.059	93.1528	435.059	93.0315	435.059	93.6857	435.059	93.6919	435.059	93.8926
451.172	98.7678	451.172	98.5452	451.172	98.8234	451.172	98.1769	451.172	98.6949	451.172	97.6855	451.172	98.3733	451.172	97.0923	451.172	97.8636	451.172	96.4125	451.172	97.1906	451.172	95.6488	451.172	96.3959	451.172	94.7849	451.172	95.5179	451.172	93.7837	451.172	94.5547	451.172	92.5957	451.172	93.432	451.172	91.1948	451.172	92.0132	451.172	89.6954	451.172	90.2049	451.172	88.603	451.172	88.3436	451.172	88.73	451.172	87.8425	451.172	90.0397	451.172	89.3867	451.172	91.6458	451.172	91.4079	451.172	92.9659	451.172	92.9431	451.172	93.8049	451.172	93.8323	451.172	94.1052
465.82	98.5806	465.82	98.4206	465.82	98.5962	465.82	98.1212	465.82	98.4654	465.82	97.6912	465.82	98.1898	465.82	97.1437	465.82	97.7739	465.82	96.4945	465.82	97.2247	465.82	95.7578	465.82	96.5493	465.82	94.9394	465.82	95.7496	465.82	94.0291	465.82	94.8167	465.82	92.9999	465.82	93.7231	465.82	91.8226	465.82	92.4179	465.82	90.5116	465.82	90.8442	465.82	89.2318	465.82	89.0306	465.82	88.4156	465.82	87.3927	465.82	88.5126	465.82	86.9683	465.82	89.3488	465.82	88.0505	465.82	90.311	465.82	89.5253	465.82	90.9564	465.82	90.6056	465.82	91.0824
483.398	98.5279	483.398	98.4477	483.398	98.501	483.398	98.2713	483.398	98.3635	483.398	98.0144	483.398	98.1185	483.398	97.6896	483.398	97.7745	483.398	97.2951	483.398	97.3458	483.398	96.8058	483.398	96.8485	483.398	96.1699	483.398	96.2896	483.398	95.3142	483.398	95.6484	483.398	94.1543	483.398	94.8667	483.398	92.6132	483.398	93.8644	483.398	90.673	483.398	92.5986	483.398	88.5811	483.398	91.2057	483.398	87.3374	483.398	90.2202	483.398	88.0291	483.398	90.3166	483.398	89.7924	483.398	91.2883	483.398	91.4315	483.398	92.3354	483.398	92.5462	483.398	92.9793	483.398	93.0625
499.512	98.1388	499.512	97.939	499.512	98.1772	499.512	97.6126	499.512	98.0447	499.512	97.2158	499.512	97.756	499.512	96.8084	499.512	97.3429	499.512	96.4249	499.512	96.8444	499.512	96.0508	499.512	96.2883	499.512	95.622	499.512	95.6709	499.512	95.0472	499.512	94.9445	499.512	94.2345	499.512	94.0208	499.512	93.1131	499.512	92.8008	499.512	91.6723	499.512	91.2631	499.512	90.0813	499.512	89.724	499.512	88.938	499.512	89.1582	499.512	89.0635	499.512	90.1267	499.512	90.2932	499.512	91.6539	499.512	91.7303	499.512	92.8512	499.512	92.8401	499.512	93.4532	499.512	93.4374
517.09	98.571	517.09	98.3466	517.09	98.587	517.09	97.9523	517.09	98.4014	517.09	97.4701	517.09	98.0671	517.09	97.0064	517.09	97.6767	517.09	96.6455	517.09	97.3312	517.09	96.3945	517.09	97.0786	517.09	96.1678	517.09	96.8661	517.09	95.8195	517.09	96.552	517.09	95.1843	517.09	95.956	517.09	94.1015	517.09	94.8897	517.09	92.4319	517.09	93.1531	517.09	90.1605	517.09	90.5886	517.09	88.0024	517.09	87.8154	517.09	88.1103	517.09	87.9715	517.09	90.2947	517.09	90.6748	517.09	92.4137	517.09	92.8891	517.09	93.795	517.09	94.0894	517.09	94.3638
536.133	98.7439	536.133	98.3804	536.133	98.7572	536.133	97.7124	536.133	98.3935	536.133	96.8213	536.133	97.6469	536.133	95.8526	536.133	96.5597	536.133	95.0211	536.133	95.2883	536.133	94.523	536.133	94.1874	536.133	94.3688	536.133	93.7015	536.133	94.3507	536.133	93.8924	536.133	94.1995	536.133	94.3162	536.133	93.7109	536.133	94.4834	536.133	92.761	536.133	94.081	536.133	91.3109	536.133	92.943	536.133	89.5672	536.133	91.1515	536.133	88.4712	536.133	89.6441	536.133	89.1832	536.133	90.0531	536.133	90.8943	536.133	91.602	536.133	92.3114	536.133	92.7205	536.133	92.9612
555.176	98.8576	555.176	98.4522	555.176	98.9899	555.176	97.7964	555.176	98.8382	555.176	96.9333	555.176	98.3992	555.176	95.9365	555.176	97.6768	555.176	94.9091	555.176	96.6779	555.176	93.9595	555.176	95.4099	555.176	93.1539	555.176	93.9012	555.176	92.4746	555.176	92.2764	555.176	91.8201	555.176	90.8495	555.176	91.0517	555.176	89.9747	555.176	90.0548	555.176	89.5952	555.176	88.8197	555.176	89.3188	555.176	87.6432	555.176	89.0223	555.176	87.3461	555.176	89.1019	555.176	88.4152	555.176	89.9144	555.176	90.0375	555.176	91.0437	555.176	91.3358	555.176	91.837	555.176	91.9613
574.219	98.8003	574.219	98.3567	574.219	98.9799	574.219	97.676	574.219	98.8927	574.219	96.8119	574.219	98.5537	574.219	95.8442	574.219	97.9899	574.219	94.8744	574.219	97.2354	574.219	94.0071	574.219	96.3314	574.219	93.3045	574.219	95.325	574.219	92.7339	574.219	94.2517	574.219	92.1678	574.219	93.0944	574.219	91.4305	574.219	91.7386	574.219	90.3361	574.219	89.9762	574.219	88.734	574.219	87.6624	574.219	86.7581	574.219	85.5589	574.219	85.6626	574.219	86.1528	574.219	86.97	574.219	88.6161	574.219	89.1947	574.219	90.6035	574.219	90.8786	574.219	91.6253	574.219	91.7032
594.727	98.5494	594.727	98.1277	594.727	98.6437	594.727	97.4014	594.727	98.4095	594.727	96.4155	594.727	97.8709	594.727	95.2423	594.727	97.0822	594.727	93.988	594.727	96.1295	594.727	92.797	594.727	95.1308	594.727	91.8247	594.727	94.2308	594.727	91.1468	594.727	93.5424	594.727	90.6705	594.727	93.0216	594.727	90.1703	594.727	92.4145	594.727	89.4066	594.727	91.3488	594.727	88.2318	594.727	89.434	594.727	86.7967	594.727	86.4683	594.727	86.0387	594.727	84.2781	594.727	87.0431	594.727	86.4057	594.727	88.9185	594.727	89.169	594.727	90.4094	594.727	90.7016	594.727	91.0595
615.234	98.2588	615.234	97.9353	615.234	98.2958	615.234	97.3319	615.234	98.0587	615.234	96.4777	615.234	97.5637	615.234	95.4214	615.234	96.8166	615.234	94.231	615.234	95.8178	615.234	93.0114	615.234	94.5994	615.234	91.928	615.234	93.272	615.234	91.1441	615.234	92.0409	615.234	90.6325	615.234	91.1378	615.234	90.1127	615.234	90.6212	615.234	89.2324	615.234	90.2116	615.234	87.7234	615.234	89.4301	615.234	85.5511	615.234	87.8572	615.234	83.7178	615.234	85.5442	615.234	84.519	615.234	84.501	615.234	86.8054	615.234	86.3521	615.234	88.4705	615.234	88.2716	615.234	88.9965
637.207	98.0175	637.207	97.5877	637.207	98.1894	637.207	96.9526	637.207	98.0828	637.207	96.1887	637.207	97.7035	637.207	95.3679	637.207	97.0789	637.207	94.5297	637.207	96.2594	637.207	93.6822	637.207	95.3114	637.207	92.828	637.207	94.2903	637.207	91.9725	637.207	93.2113	637.207	91.0921	637.207	92.0519	637.207	90.0916	637.207	90.7618	637.207	88.7956	637.207	89.234	637.207	86.9996	637.207	87.3068	637.207	84.7104	637.207	85.0864	637.207	83.1338	637.207	84.0774	637.207	84.3486	637.207	85.6962	637.207	86.7509	637.207	87.8272	637.207	88.5282	637.207	89.0991	637.207	89.3254
659.18	97.2683	659.18	96.949	659.18	97.2939	659.18	96.3715	659.18	97.0189	659.18	95.5934	659.18	96.4681	659.18	94.6939	659.18	95.6955	659.18	93.7779	659.18	94.7812	659.18	92.9587	659.18	93.8297	659.18	92.3008	659.18	92.9568	659.18	91.7647	659.18	92.242	659.18	91.2175	659.18	91.6706	659.18	90.492	659.18	91.1171	659.18	89.4288	659.18	90.3745	659.18	87.876	659.18	89.1735	659.18	85.7316	659.18	87.1997	659.18	83.4187	659.18	84.376	659.18	82.9921	659.18	82.6306	659.18	84.8996	659.18	84.4387	659.18	86.6622	659.18	86.5133	659.18	87.269
682.617	98.2365	682.617	97.8067	682.617	98.2889	682.617	97.0476	682.617	97.9179	682.617	96.0018	682.617	97.0968	682.617	94.7169	682.617	95.855	682.617	93.3001	682.617	94.3349	682.617	92.0148	682.617	92.8442	682.617	91.2613	682.617	91.8742	682.617	91.2101	682.617	91.7912	682.617	91.526	682.617	92.2193	682.617	91.6962	682.617	92.4379	682.617	91.332	682.617	92.0641	682.617	90.1713	682.617	90.9941	682.617	88.0875	682.617	89.203	682.617	85.6934	682.617	87.0076	682.617	85.6387	682.617	86.2145	682.617	87.8548	682.617	87.8484	682.617	89.6201	682.617	89.5688	682.617	90.2101
707.52	98.1247	707.52	97.811	707.52	98.1722	707.52	97.2284	707.52	97.9606	707.52	96.3894	707.52	97.5007	707.52	95.3458	707.52	96.8033	707.52	94.2051	707.52	95.8665	707.52	93.1115	707.52	94.6722	707.52	92.1896	707.52	93.2078	707.52	91.4728	707.52	91.526	707.52	90.8483	707.52	89.8408	707.52	90.1006	707.52	88.4781	707.52	89.0173	707.52	87.4088	707.52	87.4022	707.52	85.9919	707.52	85.0354	707.52	83.3532	707.52	82.2166	707.52	79.4794	707.52	82.1893	707.52	81.1972	707.52	85.2833	707.52	85.5891	707.52	87.6783	707.52	87.9805	707.52	88.6009
732.422	97.5026	732.422	97.3324	732.422	97.402	732.422	96.889	732.422	97.0483	732.422	96.1928	732.422	96.4598	732.422	95.2825	732.422	95.6466	732.422	94.2149	732.422	94.6148	732.422	93.0906	732.422	93.3724	732.422	92.1089	732.422	91.9546	732.422	91.515	732.422	90.5466	732.422	91.307	732.422	89.6229	732.422	91.1329	732.422	89.5723	732.422	90.6142	732.422	89.9918	732.422	89.5282	732.422	90.0432	732.422	87.7303	732.422	89.0537	732.422	85.2073	732.422	86.5986	732.422	83.2339	732.422	83.5629	732.422	84.4503	732.422	84.3862	732.422	86.6257	732.422	86.7471	732.422	87.5383
757.324	98.1033	757.324	97.8925	757.324	98.0856	757.324	97.4538	757.324	97.8249	757.324	96.7783	757.324	97.3036	757.324	95.8651	757.324	96.518	757.324	94.7365	757.324	95.4784	757.324	93.4472	757.324	94.1877	757.324	92.1349	757.324	92.6713	757.324	91.0987	757.324	91.1077	757.324	90.593	757.324	89.8888	757.324	90.3898	757.324	89.3307	757.324	89.962	757.324	89.3378	757.324	88.9117	757.324	89.5039	757.324	87.0569	757.324	89.2879	757.324	84.8546	757.324	88.1932	757.324	84.6333	757.324	86.3111	757.324	86.696	757.324	85.6968	757.324	88.312	757.324	87.3188	757.324	88.5334
785.156	97.347	785.156	97.1653	785.156	97.3236	785.156	96.8265	785.156	97.068	785.156	96.3898	785.156	96.5918	785.156	95.8906	785.156	95.9581	785.156	95.2803	785.156	95.2245	785.156	94.435	785.156	94.3302	785.156	93.2909	785.156	93.1059	785.156	92.0008	785.156	91.482	785.156	90.8905	785.156	89.7341	785.156	90.1453	785.156	88.4525	785.156	89.6094	785.156	87.8381	785.156	88.8675	785.156	87.2455	785.156	87.3299	785.156	85.7039	785.156	84.2191	785.156	81.935	785.156	79.4973	785.156	74.7051	785.156	81.3014	785.156	80.5735	785.156	85.177	785.156	85.1833	785.156	86.4493
811.523	97.7411	811.523	97.6	811.523	97.6546	811.523	97.2696	811.523	97.3314	811.523	96.7899	811.523	96.8332	811.523	96.1941	811.523	96.266	811.523	95.4972	811.523	95.633	811.523	94.6779	811.523	94.7787	811.523	93.6798	811.523	93.5684	811.523	92.452	811.523	92.009	811.523	91.0315	811.523	90.1647	811.523	89.6191	811.523	88.466	811.523	88.4988	811.523	88.0785	811.523	87.7235	811.523	88.5848	811.523	86.9745	811.523	88.2553	811.523	85.9725	811.523	86.1972	811.523	85.223	811.523	82.8414	811.523	85.8548	811.523	83.5171	811.523	87.1862	811.523	86.4672	811.523	87.6571
840.82	97.9348	840.82	97.8858	840.82	97.7579	840.82	97.6367	840.82	97.3955	840.82	97.2597	840.82	96.919	840.82	96.8005	840.82	96.3607	840.82	96.2101	840.82	95.7159	840.82	95.3952	840.82	95.0558	840.82	94.3736	840.82	94.5352	840.82	93.3303	840.82	94.1485	840.82	92.4239	840.82	93.584	840.82	91.5874	840.82	92.4712	840.82	90.5674	840.82	90.6781	840.82	89.0457	840.82	88.4986	840.82	86.7709	840.82	86.6282	840.82	83.9169	840.82	84.9959	840.82	82.5419	840.82	82.3301	840.82	84.2099	840.82	80.1722	840.82	85.7837	840.82	83.2119	840.82	85.6087
870.117	98.1671	870.117	98.0736	870.117	97.9083	870.117	97.6374	870.117	97.3322	870.117	96.9039	870.117	96.4896	870.117	95.8976	870.117	95.4264	870.117	94.6134	870.117	94.1725	870.117	93.2044	870.117	92.7287	870.117	92.2189	870.117	91.1915	870.117	92.1117	870.117	90.1303	870.117	92.5046	870.117	90.2507	870.117	92.801	870.117	91.17	870.117	92.634	870.117	92.0966	870.117	91.7018	870.117	92.5563	870.117	89.6825	870.117	92.1245	870.117	86.3061	870.117	90.3154	870.117	82.8034	870.117	86.8513	870.117	83.9157	870.117	84.0075	870.117	86.23	870.117	85.5153	870.117	86.8166
900.879	98.6246	900.879	98.5314	900.879	98.388	900.879	98.1403	900.879	97.9183	900.879	97.5624	900.879	97.3436	900.879	96.8084	900.879	96.67	900.879	95.6531	900.879	95.7751	900.879	93.7447	900.879	94.5942	900.879	90.9337	900.879	93.2435	900.879	88.0826	900.879	91.8429	900.879	87.6398	900.879	90.2987	900.879	89.357	900.879	88.6934	900.879	91.0182	900.879	88.2969	900.879	91.6766	900.879	89.7227	900.879	90.9888	900.879	90.9002	900.879	88.8031	900.879	90.4292	900.879	85.6939	900.879	87.7427	900.879	85.2571	900.879	84.0403	900.879	87.1353	900.879	85.4887	900.879	87.4823
933.105	98.2683	933.105	98.0794	933.105	98.1473	933.105	97.7303	933.105	97.6699	933.105	97.3046	933.105	96.9253	933.105	96.6648	933.105	96.0469	933.105	95.5185	933.105	95.0901	933.105	93.646	933.105	94.0147	933.105	91.1352	933.105	92.8018	933.105	88.5648	933.105	91.6619	933.105	87.0681	933.105	90.9975	933.105	87.5904	933.105	90.7649	933.105	88.9837	933.105	90.6932	933.105	89.6385	933.105	90.922	933.105	88.8911	933.105	91.3016	933.105	86.288	933.105	90.9766	933.105	82.3054	933.105	88.9682	933.105	84.1012	933.105	84.9382	933.105	87.1219	933.105	84.4466	933.105	87.137
965.332	98.6687	965.332	98.3736	965.332	98.604	965.332	97.8426	965.332	98.1699	965.332	97.2058	965.332	97.5204	965.332	96.4749	965.332	96.8931	965.332	95.4748	965.332	96.3385	965.332	93.9576	965.332	95.6064	965.332	91.8989	965.332	94.4656	965.332	89.6964	965.332	92.9207	965.332	88.0494	965.332	90.9368	965.332	87.4283	965.332	88.1854	965.332	87.7557	965.332	85.1793	965.332	88.6887	965.332	85.9127	965.332	89.3709	965.332	88.4842	965.332	88.8809	965.332	89.404	965.332	86.6007	965.332	88.2178	965.332	83.5111	965.332	86.0863	965.332	84.8333	965.332	86.2913	965.332	86.6879
1,000.49	98.2846	1,000.49	98.2966	1,000.49	98.0118	1,000.49	98.0694	1,000.49	97.5314	1,000.49	97.5775	1,000.49	96.9868	1,000.49	96.7235	1,000.49	96.3726	1,000.49	95.4073	1,000.49	95.486	1,000.49	93.6106	1,000.49	94.3491	1,000.49	91.535	1,000.49	93.3347	1,000.49	89.7746	1,000.49	92.6345	1,000.49	89.0801	1,000.49	92.0084	1,000.49	89.3066	1,000.49	91.2204	1,000.49	89.4696	1,000.49	90.412	1,000.49	88.9333	1,000.49	89.9659	1,000.49	87.3491	1,000.49	89.8826	1,000.49	84.3176	1,000.49	89.4065	1,000.49	81.9389	1,000.49	87.2759	1,000.49	84.7972	1,000.49	81.7111	1,000.49	86.8271	1,000.49	80.5	1,000.49	85.7508
1,035.64	98.4047	1,035.64	98.5424	1,035.64	98.0798	1,035.64	98.3178	1,035.64	97.8079	1,035.64	97.686	1,035.64	97.6366	1,035.64	96.658	1,035.64	97.288	1,035.64	95.1604	1,035.64	96.4589	1,035.64	92.9901	1,035.64	95.0754	1,035.64	89.9682	1,035.64	93.1228	1,035.64	85.7337	1,035.64	91.2885	1,035.64	81.0846	1,035.64	91.2289	1,035.64	84.9721	1,035.64	91.2356	1,035.64	88.9826	1,035.64	89.6765	1,035.64	90.7383	1,035.64	88.7157	1,035.64	90.917	1,035.64	90.5314	1,035.64	89.7578	1,035.64	91.5747	1,035.64	87.3052	1,035.64	90.0436	1,035.64	84.914	1,035.64	85.6554	1,035.64	85.4026	1,035.64	83.7741	1,035.64	85.728
1,072.27	97.9834	1,072.27	98.1385	1,072.27	97.6583	1,072.27	98.0521	1,072.27	97.2879	1,072.27	97.5867	1,072.27	97.0329	1,072.27	96.5713	1,072.27	96.8807	1,072.27	95.0092	1,072.27	96.5682	1,072.27	93.1979	1,072.27	95.8085	1,072.27	91.3759	1,072.27	94.4705	1,072.27	88.97	1,072.27	92.4552	1,072.27	85.5087	1,072.27	89.82	1,072.27	84.2632	1,072.27	88.1638	1,072.27	85.5826	1,072.27	89.23	1,072.27	86.3008	1,072.27	90.8091	1,072.27	86.3398	1,072.27	91.6386	1,072.27	85.7254	1,072.27	91.5683	1,072.27	84.4058	1,072.27	90.2515	1,072.27	84.054	1,072.27	86.999	1,072.27	85.2198	1,072.27	83.3706	1,072.27	84.6992
1,108.89	98.5589	1,108.89	98.3943	1,108.89	98.4204	1,108.89	98.0527	1,108.89	97.9137	1,108.89	97.4442	1,108.89	97.1979	1,108.89	96.3108	1,108.89	96.4993	1,108.89	94.6337	1,108.89	95.9136	1,108.89	92.9779	1,108.89	95.3845	1,108.89	92.0168	1,108.89	94.5459	1,108.89	91.2224	1,108.89	92.8734	1,108.89	88.9451	1,108.89	90.4869	1,108.89	83.4709	1,108.89	88.2882	1,108.89	82.1587	1,108.89	85.8507	1,108.89	86.7337	1,108.89	83.9394	1,108.89	88.2927	1,108.89	87.8712	1,108.89	88.0761	1,108.89	91.0953	1,108.89	86.7403	1,108.89	91.0878	1,108.89	84.917	1,108.89	87.6026	1,108.89	84.6431	1,108.89	83.5303	1,108.89	84.6743
1,148.44	98.5054	1,148.44	98.5841	1,148.44	98.1314	1,148.44	98.3484	1,148.44	97.5321	1,148.44	97.6092	1,148.44	97.0098	1,148.44	96.17	1,148.44	96.7891	1,148.44	94.3176	1,148.44	96.6923	1,148.44	93.1033	1,148.44	96.3689	1,148.44	92.942	1,148.44	95.3694	1,148.44	92.5183	1,148.44	93.0844	1,148.44	90.4113	1,148.44	89.143	1,148.44	86.0493	1,148.44	84.4445	1,148.44	81.1822	1,148.44	84.6421	1,148.44	82.9322	1,148.44	87.8507	1,148.44	85.1072	1,148.44	90.2377	1,148.44	84.3475	1,148.44	91.4706	1,148.44	82.7486	1,148.44	91.1206	1,148.44	83.5148	1,148.44	88.7508	1,148.44	84.0818	1,148.44	84.6877	1,148.44	83.1856
1,189.45	98.2314	1,189.45	98.0519	1,189.45	98.0847	1,189.45	97.4609	1,189.45	97.6381	1,189.45	96.252	1,189.45	96.9034	1,189.45	94.3288	1,189.45	95.9611	1,189.45	92.3929	1,189.45	95.1539	1,189.45	91.8774	1,189.45	94.8588	1,189.45	92.5693	1,189.45	94.7973	1,189.45	92.6446	1,189.45	93.9909	1,189.45	91.1903	1,189.45	91.5448	1,189.45	88.5834	1,189.45	87.8198	1,189.45	85.6169	1,189.45	84.3253	1,189.45	82.3844	1,189.45	79.0454	1,189.45	79.7268	1,189.45	80.2321	1,189.45	81.0343	1,189.45	87.6971	1,189.45	83.2142	1,189.45	89.3096	1,189.45	84.3715	1,189.45	87.4155	1,189.45	85.0651	1,189.45	85.4391	1,189.45	85.4193
1,230.47	98.9774	1,230.47	98.791	1,230.47	98.6405	1,230.47	98.1303	1,230.47	97.7819	1,230.47	96.9023	1,230.47	96.5879	1,230.47	95.193	1,230.47	95.3224	1,230.47	93.6434	1,230.47	94.5701	1,230.47	92.4891	1,230.47	94.6439	1,230.47	91.1853	1,230.47	94.4914	1,230.47	90.2753	1,230.47	92.9952	1,230.47	89.3335	1,230.47	90.5633	1,230.47	87.8241	1,230.47	88.4051	1,230.47	86.4093	1,230.47	85.059	1,230.47	86.137	1,230.47	77.926	1,230.47	86.346	1,230.47	84.3412	1,230.47	84.9562	1,230.47	87.0996	1,230.47	81.3375	1,230.47	86.635	1,230.47	80.0654	1,230.47	85.9377	1,230.47	82.0181	1,230.47	84.7644	1,230.47	83.1796
1,274.41	99.2842	1,274.41	99.0137	1,274.41	98.8233	1,274.41	98.2454	1,274.41	97.577	1,274.41	97.0982	1,274.41	95.9762	1,274.41	95.752	1,274.41	94.6858	1,274.41	94.4652	1,274.41	93.9506	1,274.41	92.9698	1,274.41	93.4722	1,274.41	90.6127	1,274.41	92.7949	1,274.41	88.1822	1,274.41	91.416	1,274.41	85.607	1,274.41	89.9024	1,274.41	81.2554	1,274.41	88.7413	1,274.41	81.0324	1,274.41	86.7975	1,274.41	85.1455	1,274.41	84.9133	1,274.41	85.5764	1,274.41	84.8425	1,274.41	83.0226	1,274.41	83.8186	1,274.41	79.5525	1,274.41	83.9795	1,274.41	82.8804	1,274.41	83.7674	1,274.41	85.1809	1,274.41	82.9698	1,274.41	84.5474
1,319.82	99.0912	1,319.82	99.0702	1,319.82	98.6941	1,319.82	98.4349	1,319.82	97.81	1,319.82	96.7741	1,319.82	96.4014	1,319.82	94.3586	1,319.82	94.6316	1,319.82	92.6588	1,319.82	93.2369	1,319.82	92.0467	1,319.82	92.6694	1,319.82	90.9737	1,319.82	91.9355	1,319.82	88.7744	1,319.82	90.2719	1,319.82	86.7928	1,319.82	87.5968	1,319.82	85.0319	1,319.82	83.5909	1,319.82	79.0332	1,319.82	80.2702	1,319.82	78.139	1,319.82	76.589	1,319.82	84.4578	1,319.82	80.2472	1,319.82	85.5729	1,319.82	85.2679	1,319.82	81.6683	1,319.82	86.1819	1,319.82	79.5522	1,319.82	84.898	1,319.82	83.7751	1,319.82	84.2393	1,319.82	84.615
1,366.7	98.8442	1,366.7	98.9939	1,366.7	98.4609	1,366.7	98.5452	1,366.7	97.6578	1,366.7	97.1052	1,366.7	96.2792	1,366.7	95.1195	1,366.7	94.3392	1,366.7	93.1558	1,366.7	91.8561	1,366.7	90.6792	1,366.7	90.1391	1,366.7	87.3208	1,366.7	90.1431	1,366.7	82.7116	1,366.7	90.1942	1,366.7	83.5941	1,366.7	89.4973	1,366.7	86.4519	1,366.7	88.2227	1,366.7	85.5211	1,366.7	84.4904	1,366.7	80.0636	1,366.7	71.4284	1,366.7	80.1648	1,366.7	77.5506	1,366.7	81.7279	1,366.7	79.5194	1,366.7	77.6546	1,366.7	81.2494	1,366.7	78.6804	1,366.7	83.5158	1,366.7	84.3376	1,366.7	83.87	1,366.7	85.1843
1,413.57	98.4434	1,413.57	98.6403	1,413.57	97.8105	1,413.57	98.0249	1,413.57	96.7247	1,413.57	96.5981	1,413.57	95.1532	1,413.57	95.3572	1,413.57	93.1769	1,413.57	93.9548	1,413.57	91.0196	1,413.57	90.1231	1,413.57	89.4247	1,413.57	83.405	1,413.57	88.5847	1,413.57	80.0062	1,413.57	88.0125	1,413.57	80.253	1,413.57	87.4993	1,413.57	79.326	1,413.57	86.8031	1,413.57	78.9612	1,413.57	85.0358	1,413.57	77.3942	1,413.57	82.1954	1,413.57	81.6535	1,413.57	78.6311	1,413.57	85.1974	1,413.57	77.6761	1,413.57	83.7799	1,413.57	81.9995	1,413.57	77.8503	1,413.57	81.8551	1,413.57	78.9873	1,413.57	83.2875	1,413.57	83.1031
1,463.38	98.0003	1,463.38	98.3359	1,463.38	96.8104	1,463.38	97.4392	1,463.38	95.6202	1,463.38	96.0302	1,463.38	94.8202	1,463.38	95.0895	1,463.38	93.3825	1,463.38	93.578	1,463.38	90.8439	1,463.38	90.2924	1,463.38	88.5087	1,463.38	86.6392	1,463.38	86.4052	1,463.38	84.5094	1,463.38	84.9819	1,463.38	80.0869	1,463.38	83.9292	1,463.38	75.9353	1,463.38	83.7897	1,463.38	71.8703	1,463.38	84.6816	1,463.38	73.5154	1,463.38	85.0606	1,463.38	80.7101	1,463.38	80.7598	1,463.38	81.4519	1,463.38	71.3075	1,463.38	79.1952	1,463.38	82.1036	1,463.38	77.969	1,463.38	79.6165	1,463.38	81.7864	1,463.38	81.3243	1,463.38	84.075
1,516.11	97.5564	1,516.11	97.9449	1,516.11	96.4602	1,516.11	97.2239	1,516.11	95.4093	1,516.11	96.0302	1,516.11	94.2217	1,516.11	94.9538	1,516.11	91.6948	1,516.11	93.0022	1,516.11	88.128	1,516.11	89.3521	1,516.11	85.8666	1,516.11	86.6683	1,516.11	85.2808	1,516.11	85.4784	1,516.11	85.9662	1,516.11	82.4564	1,516.11	84.3191	1,516.11	80.675	1,516.11	80.5006	1,516.11	81.9258	1,516.11	81.6326	1,516.11	77.4172	1,516.11	80.9215	1,516.11	64.837	1,516.11	79.1164	1,516.11	76.2192	1,516.11	73.6418	1,516.11	78.7323	1,516.11	80.3639	1,516.11	78.1255	1,516.11	82.6203	1,516.11	81.9236	1,516.11	80.0622	1,516.11	82.4651
1,568.85	97.0947	1,568.85	97.2259	1,568.85	96.2023	1,568.85	96.6639	1,568.85	94.9411	1,568.85	95.733	1,568.85	93.3223	1,568.85	94.373	1,568.85	90.7974	1,568.85	92.5357	1,568.85	88.1636	1,568.85	90.1418	1,568.85	86.7115	1,568.85	87.3354	1,568.85	85.6264	1,568.85	81.5821	1,568.85	85.6459	1,568.85	77.9909	1,568.85	85.3621	1,568.85	79.3884	1,568.85	82.8373	1,568.85	81.5992	1,568.85	79.7672	1,568.85	80.2756	1,568.85	79.3495	1,568.85	68.6313	1,568.85	80.8309	1,568.85	75.0126	1,568.85	79.8638	1,568.85	80.2399	1,568.85	76.7937	1,568.85	76.9809	1,568.85	81.1768	1,568.85	78.1731	1,568.85	80.1454	1,568.85	80.6299
1,624.51	97.8664	1,624.51	97.4544	1,624.51	96.8636	1,624.51	96.4803	1,624.51	94.7464	1,624.51	95.8757	1,624.51	92.06	1,624.51	94.3857	1,624.51	89.5342	1,624.51	90.7884	1,624.51	87.982	1,624.51	87.8251	1,624.51	86.0361	1,624.51	87.3182	1,624.51	85.2292	1,624.51	83.7162	1,624.51	85.4989	1,624.51	72.1871	1,624.51	85.5635	1,624.51	70.8713	1,624.51	85.4192	1,624.51	80.2829	1,624.51	84.5683	1,624.51	80.5172	1,624.51	80.0193	1,624.51	75.8436	1,624.51	79.2771	1,624.51	72.1206	1,624.51	78.4041	1,624.51	79.2854	1,624.51	69.6899	1,624.51	78.4891	1,624.51	82.37	1,624.51	80.7444	1,624.51	82.8634	1,624.51	82.0905
1,681.64	98.7971	1,681.64	98.0733	1,681.64	97.8471	1,681.64	96.9191	1,681.64	94.9378	1,681.64	95.8511	1,681.64	91.5012	1,681.64	93.5817	1,681.64	89.0796	1,681.64	89.6418	1,681.64	87.4793	1,681.64	86.4528	1,681.64	84.865	1,681.64	87.6042	1,681.64	79.0861	1,681.64	86.1394	1,681.64	81.0413	1,681.64	78.1221	1,681.64	82.1611	1,681.64	76.7509	1,681.64	80.8272	1,681.64	78.6245	1,681.64	80.6826	1,681.64	74.8973	1,681.64	80.942	1,681.64	74.0409	1,681.64	82.0104	1,681.64	66.498	1,681.64	80.6581	1,681.64	77.7781	1,681.64	72.7066	1,681.64	76.5141	1,681.64	71.2545	1,681.64	73.6793	1,681.64	79.7132	1,681.64	79.1257
1,741.7	98.6307	1,741.7	98.3029	1,741.7	97.9214	1,741.7	96.8962	1,741.7	95.98	1,741.7	93.8843	1,741.7	92.7248	1,741.7	89.9754	1,741.7	88.2096	1,741.7	86.6044	1,741.7	82.2794	1,741.7	83.8951	1,741.7	68.6353	1,741.7	83.6395	1,741.7	76.6778	1,741.7	83.1227	1,741.7	80.9644	1,741.7	79.7983	1,741.7	83.5293	1,741.7	66.5635	1,741.7	79.1086	1,741.7	76.0321	1,741.7	76.9603	1,741.7	78.384	1,741.7	78.3433	1,741.7	67.7949	1,741.7	77.0237	1,741.7	67.1898	1,741.7	80.2321	1,741.7	76.5328	1,741.7	73.7438	1,741.7	76.2155	1,741.7	75.289	1,741.7	75.9998	1,741.7	78.8568	1,741.7	79.3858
1,803.22	98.2378	1,803.22	98.227	1,803.22	97.8496	1,803.22	96.9521	1,803.22	96.0662	1,803.22	93.4877	1,803.22	91.2296	1,803.22	87.7885	1,803.22	86.2113	1,803.22	80.0474	1,803.22	82.2171	1,803.22	85.4704	1,803.22	83.0008	1,803.22	89.3443	1,803.22	87.9498	1,803.22	90.4986	1,803.22	90.7985	1,803.22	88.0466	1,803.22	90.5784	1,803.22	82.8137	1,803.22	88.9644	1,803.22	81.9646	1,803.22	84.0064	1,803.22	80.053	1,803.22	82.4563	1,803.22	67.8288	1,803.22	78.105	1,803.22	70.7405	1,803.22	69.3407	1,803.22	70.8294	1,803.22	74.3158	1,803.22	75.2087	1,803.22	70.6438	1,803.22	65.4183	1,803.22	79.5102	1,803.22	82.0331
1,866.21	97.1459	1,866.21	96.5005	1,866.21	97.4666	1,866.21	95.9275	1,866.21	95.7624	1,866.21	93.6625	1,866.21	91.8183	1,866.21	86.5181	1,866.21	89.4984	1,866.21	77.0252	1,866.21	86.8411	1,866.21	87.3596	1,866.21	86.9886	1,866.21	88.9595	1,866.21	88.5198	1,866.21	86.9404	1,866.21	87.6756	1,866.21	87.1888	1,866.21	87.295	1,866.21	89.1142	1,866.21	85.2094	1,866.21	87.7635	1,866.21	83.0681	1,866.21	82.4386	1,866.21	88.3352	1,866.21	76.0046	1,866.21	88.4289	1,866.21	79.219	1,866.21	78.0981	1,866.21	76.063	1,866.21	78.8561	1,866.21	69.698	1,866.21	74.7344	1,866.21	71.425	1,866.21	82.39	1,866.21	85.2631
1,932.13	96.2858	1,932.13	95.9757	1,932.13	96.3241	1,932.13	95.488	1,932.13	94.9747	1,932.13	92.1079	1,932.13	89.6985	1,932.13	77.6437	1,932.13	81.5493	1,932.13	83.8011	1,932.13	85.0292	1,932.13	88.6721	1,932.13	90.0997	1,932.13	88.5682	1,932.13	92.3745	1,932.13	87.8664	1,932.13	92.1821	1,932.13	89.576	1,932.13	92.6078	1,932.13	87.7549	1,932.13	90.0517	1,932.13	84.921	1,932.13	87.0422	1,932.13	65.4427	1,932.13	78.5759	1,932.13	83.0931	1,932.13	83.2273	1,932.13	75.7383	1,932.13	83.3163	1,932.13	72.8675	1,932.13	83.8052	1,932.13	75.2606	1,932.13	65.2268	1,932.13	64.6523	1,932.13	75.1439	1,932.13	77.5629
1,999.51	97.7873	1,999.51	96.844	1,999.51	95.6478	1,999.51	91.9543	1,999.51	93.3411	1,999.51	88.3819	1,999.51	91.3594	1,999.51	86.2	1,999.51	91.1148	1,999.51	87.3397	1,999.51	93.4787	1,999.51	90.7954	1,999.51	93.718	1,999.51	91.8525	1,999.51	93.375	1,999.51	92.4395	1,999.51	94.2805	1,999.51	95.9043	1,999.51	95.3126	1,999.51	92.6593	1,999.51	94.9585	1,999.51	90.7395	1,999.51	94.8789	1,999.51	84.4424	1,999.51	89.9456	1,999.51	86.38	1,999.51	79.2884	1,999.51	82.669	1,999.51	86.9979	1,999.51	80.2691	1,999.51	83.2692	1,999.51	78.8238	1,999.51	76.612	1,999.51	79.5579	1,999.51	65.713	1,999.51	80.2471
2,069.82	98.1025	2,069.82	97.3011	2,069.82	97.0707	2,069.82	93.8238	2,069.82	94.7	2,069.82	87.7136	2,069.82	91.5016	2,069.82	80.9623	2,069.82	89.39	2,069.82	82.0057	2,069.82	88.1519	2,069.82	88.411	2,069.82	87.9107	2,069.82	88.5676	2,069.82	88.0814	2,069.82	87.4854	2,069.82	89.0794	2,069.82	93.5706	2,069.82	87.4674	2,069.82	93.9378	2,069.82	91.6951	2,069.82	90.4599	2,069.82	94.275	2,069.82	87.9783	2,069.82	93.0788	2,069.82	84.4057	2,069.82	82.0314	2,069.82	85.7964	2,069.82	87.7013	2,069.82	80.1817	2,069.82	87.1298	2,069.82	78.6283	2,069.82	72.0532	2,069.82	78.5964	2,069.82	83.4212	2,069.82	79.1767
2,143.07	98.6265	2,143.07	98.341	2,143.07	96.7771	2,143.07	95.7242	2,143.07	96.159	2,143.07	89.5584	2,143.07	89.8538	2,143.07	83.9649	2,143.07	83.3822	2,143.07	81.2117	2,143.07	90.4705	2,143.07	75.7116	2,143.07	93.1682	2,143.07	81.4199	2,143.07	92.0594	2,143.07	82.5245	2,143.07	89.6975	2,143.07	93.107	2,143.07	91.2318	2,143.07	92.9384	2,143.07	88.6179	2,143.07	92.1806	2,143.07	81.0218	2,143.07	90.7412	2,143.07	90.0644	2,143.07	86.0981	2,143.07	90.1553	2,143.07	82.8989	2,143.07	67.85	2,143.07	82.3478	2,143.07	86.5099	2,143.07	82.8817	2,143.07	80.4441	2,143.07	75.7753	2,143.07	78.6966	2,143.07	77.4611
2,219.24	97.5915	2,219.24	97.0107	2,219.24	96.7787	2,219.24	95.4206	2,219.24	95.0728	2,219.24	91.9334	2,219.24	88.8864	2,219.24	89.1195	2,219.24	88.4451	2,219.24	88.131	2,219.24	93.3529	2,219.24	89.7095	2,219.24	89.0919	2,219.24	87.0162	2,219.24	90.2598	2,219.24	91.5059	2,219.24	91.818	2,219.24	93.3762	2,219.24	92.24	2,219.24	91.5434	2,219.24	90.555	2,219.24	89.6718	2,219.24	84.8154	2,219.24	90.3599	2,219.24	83.4522	2,219.24	84.9779	2,219.24	82.5882	2,219.24	86.6973	2,219.24	77.6215	2,219.24	72.1776	2,219.24	82.5303	2,219.24	78.3296	2,219.24	74.4283	2,219.24	70.6908	2,219.24	86.4751	2,219.24	78.8559
2,296.88	99.0174	2,296.88	97.1553	2,296.88	96.19	2,296.88	94.61	2,296.88	87.5957	2,296.88	92.0459	2,296.88	91.5187	2,296.88	90.6329	2,296.88	90.8486	2,296.88	94.1868	2,296.88	92.8509	2,296.88	92.1649	2,296.88	91.786	2,296.88	91.405	2,296.88	92.011	2,296.88	90.4913	2,296.88	90.2907	2,296.88	93.1787	2,296.88	88.9508	2,296.88	93.7133	2,296.88	91.1405	2,296.88	88.9899	2,296.88	91.6095	2,296.88	86.683	2,296.88	88.902	2,296.88	86.1052	2,296.88	78.5157	2,296.88	88.6257	2,296.88	80.6026	2,296.88	81.4633	2,296.88	76.6427	2,296.88	73.9205	2,296.88	83.2839	2,296.88	70.6613	2,296.88	74.4348	2,296.88	79.5148
2,378.91	98.6403	2,378.91	97.8946	2,378.91	96.8036	2,378.91	93.3365	2,378.91	92.8229	2,378.91	90.603	2,378.91	93.3692	2,378.91	94.7981	2,378.91	93.0625	2,378.91	95.0061	2,378.91	90.853	2,378.91	89.0555	2,378.91	91.0387	2,378.91	93.4242	2,378.91	94.5947	2,378.91	93.1746	2,378.91	92.9413	2,378.91	84.3558	2,378.91	92.2196	2,378.91	86.6916	2,378.91	86.5345	2,378.91	86.6477	2,378.91	84.205	2,378.91	83.9056	2,378.91	75.5625	2,378.91	85.679	2,378.91	84.4971	2,378.91	88.4707	2,378.91	80.9841	2,378.91	79.3494	2,378.91	79.7811	2,378.91	78.2954	2,378.91	77.3142	2,378.91	84.6575	2,378.91	79.6015	2,378.91	77.8447
2,462.4	99.8466	2,462.4	98.7745	2,462.4	98.0724	2,462.4	94.6629	2,462.4	93.4324	2,462.4	92.6719	2,462.4	90.4156	2,462.4	91.0874	2,462.4	92.9875	2,462.4	91.142	2,462.4	92.3165	2,462.4	91.0559	2,462.4	92.475	2,462.4	89.8493	2,462.4	92.2864	2,462.4	86.374	2,462.4	88.8003	2,462.4	86.2718	2,462.4	89.6071	2,462.4	83.7651	2,462.4	87.5124	2,462.4	82.0121	2,462.4	85.6781	2,462.4	79.723	2,462.4	73.508	2,462.4	78.8445	2,462.4	83.7901	2,462.4	83.3698	2,462.4	78.2914	2,462.4	80.7709	2,462.4	78.968	2,462.4	77.9857	2,462.4	74.8468	2,462.4	81.64	2,462.4	77.1015	2,462.4	75.7166
2,548.83	100.255	2,548.83	99.1616	2,548.83	98.2012	2,548.83	96.7871	2,548.83	95.3946	2,548.83	93.7596	2,548.83	90.9126	2,548.83	92.5378	2,548.83	92.0696	2,548.83	92.7293	2,548.83	91.647	2,548.83	91.3596	2,548.83	91.1366	2,548.83	89.749	2,548.83	88.7854	2,548.83	87.511	2,548.83	89.5037	2,548.83	82.9793	2,548.83	91.245	2,548.83	82.261	2,548.83	88.1241	2,548.83	83.392	2,548.83	82.4922	2,548.83	78.8297	2,548.83	80.7034	2,548.83	77.0357	2,548.83	81.8614	2,548.83	82.4374	2,548.83	82.8062	2,548.83	83.763	2,548.83	79.0846	2,548.83	75.898	2,548.83	70.7656	2,548.83	82.2611	2,548.83	79.7054	2,548.83	81.7286
2,639.65	99.6054	2,639.65	98.2622	2,639.65	98.1635	2,639.65	96.7695	2,639.65	96.1739	2,639.65	93.8595	2,639.65	93.6402	2,639.65	94.3896	2,639.65	92.0289	2,639.65	93.1215	2,639.65	92.5001	2,639.65	90.948	2,639.65	91.36	2,639.65	87.0417	2,639.65	90.3518	2,639.65	84.0091	2,639.65	90.2297	2,639.65	84.3072	2,639.65	88.8569	2,639.65	83.2393	2,639.65	87.748	2,639.65	82.6465	2,639.65	83.3168	2,639.65	82.166	2,639.65	83.9065	2,639.65	76.0035	2,639.65	74.0096	2,639.65	79.1241	2,639.65	82.3468	2,639.65	82.3336	2,639.65	83.0311	2,639.65	72.3937	2,639.65	78.8557	2,639.65	81.3736	2,639.65	81.7564	2,639.65	76.2916
2,731.93	98.5194	2,731.93	96.9817	2,731.93	97.8244	2,731.93	94.6269	2,731.93	94.5488	2,731.93	94.3613	2,731.93	94.119	2,731.93	94.5935	2,731.93	91.8049	2,731.93	92.1792	2,731.93	92.0397	2,731.93	88.8884	2,731.93	91.7315	2,731.93	86.2425	2,731.93	89.7464	2,731.93	85.6237	2,731.93	87.7275	2,731.93	81.2672	2,731.93	87.2826	2,731.93	80.8412	2,731.93	85.1316	2,731.93	79.9243	2,731.93	85.0153	2,731.93	80.8893	2,731.93	85.0396	2,731.93	77.9381	2,731.93	79.3516	2,731.93	77.6773	2,731.93	79.1474	2,731.93	82.2651	2,731.93	80.6096	2,731.93	69.6729	2,731.93	76.681	2,731.93	80.3824	2,731.93	82.5566	2,731.93	76.1118
2,828.61	98.5529	2,828.61	97.5833	2,828.61	98.3304	2,828.61	94.8567	2,828.61	94.7786	2,828.61	94.4475	2,828.61	93.4503	2,828.61	93.5349	2,828.61	93.3228	2,828.61	90.7766	2,828.61	92.2958	2,828.61	85.456	2,828.61	90.6878	2,828.61	85.2001	2,828.61	89.5311	2,828.61	83.7332	2,828.61	89.6721	2,828.61	80.4145	2,828.61	85.8304	2,828.61	78.2238	2,828.61	75.4247	2,828.61	77.4348	2,828.61	81.2096	2,828.61	79.0917	2,828.61	84.6435	2,828.61	77.9818	2,828.61	78.0564	2,828.61	76.2676	2,828.61	78.0419	2,828.61	81.0609	2,828.61	78.0692	2,828.61	71.7459	2,828.61	73.1498	2,828.61	75.9808	2,828.61	80.8246	2,828.61	70.3422
2,928.22	99.4783	2,928.22	98.5872	2,928.22	98.5159	2,928.22	96.6115	2,928.22	95.3042	2,928.22	95.183	2,928.22	93.643	2,928.22	92.7567	2,928.22	94.7183	2,928.22	89.4519	2,928.22	92.9879	2,928.22	87.2814	2,928.22	90.8589	2,928.22	85.9469	2,928.22	90.0862	2,928.22	82.0457	2,928.22	88.9259	2,928.22	85.7515	2,928.22	81.5747	2,928.22	83.0682	2,928.22	74.2709	2,928.22	82.0833	2,928.22	80.4905	2,928.22	78.5377	2,928.22	82.0242	2,928.22	81.8047	2,928.22	65.6294	2,928.22	71.3245	2,928.22	76.4679	2,928.22	82.4754	2,928.22	79.1613	2,928.22	78.1119	2,928.22	76.9593	2,928.22	79.7528	2,928.22	82.6827	2,928.22	76.899
3,030.76	99.6052	3,030.76	97.9582	3,030.76	98.5148	3,030.76	97.0517	3,030.76	95.685	3,030.76	95.3885	3,030.76	93.8146	3,030.76	92.3684	3,030.76	95.3614	3,030.76	88.7308	3,030.76	93.5718	3,030.76	88.3833	3,030.76	90.5226	3,030.76	86.2004	3,030.76	91.0266	3,030.76	87.8892	3,030.76	88.615	3,030.76	86.7904	3,030.76	68.7508	3,030.76	82.9496	3,030.76	77.2303	3,030.76	81.4486	3,030.76	84.1525	3,030.76	78.9154	3,030.76	77.9452	3,030.76	81.7565	3,030.76	74.1399	3,030.76	78.2612	3,030.76	74.1616	3,030.76	81.0923	3,030.76	73.0959	3,030.76	78.7001	3,030.76	76.4495	3,030.76	77.3844	3,030.76	81.2932	3,030.76	77.5273
3,137.7	99.1398	3,137.7	97.6583	3,137.7	98.6306	3,137.7	97.3165	3,137.7	96.5213	3,137.7	95.66	3,137.7	93.7444	3,137.7	92.5089	3,137.7	94.3712	3,137.7	89.6253	3,137.7	94.4438	3,137.7	89.1838	3,137.7	89.5671	3,137.7	89.6719	3,137.7	90.2062	3,137.7	87.4184	3,137.7	86.6348	3,137.7	83.4927	3,137.7	80.2324	3,137.7	81.9731	3,137.7	79.9059	3,137.7	80.8511	3,137.7	76.0601	3,137.7	78.825	3,137.7	79.4516	3,137.7	79.6611	3,137.7	74.7899	3,137.7	80.2162	3,137.7	76.1345	3,137.7	79.354	3,137.7	70.4223	3,137.7	80.2423	3,137.7	76.4454	3,137.7	77.7575	3,137.7	80.9761	3,137.7	75.3249
3,249.02	98.3983	3,249.02	97.3104	3,249.02	98.0865	3,249.02	97.5425	3,249.02	96.5835	3,249.02	95.0185	3,249.02	95.2511	3,249.02	92.4971	3,249.02	93.7238	3,249.02	91.471	3,249.02	93.9839	3,249.02	91.377	3,249.02	90.9858	3,249.02	89.6186	3,249.02	89.8321	3,249.02	83.3258	3,249.02	85.7585	3,249.02	84.1901	3,249.02	85.5633	3,249.02	82.6326	3,249.02	81.1766	3,249.02	82.5392	3,249.02	80.0011	3,249.02	79.7409	3,249.02	71.4208	3,249.02	78.3008	3,249.02	76.4212	3,249.02	81.6299	3,249.02	77.1869	3,249.02	77.3488	3,249.02	69.0305	3,249.02	80.7787	3,249.02	73.1479	3,249.02	74.0181	3,249.02	80.5699	3,249.02	77.6325
3,363.28	97.6082	3,363.28	98.194	3,363.28	98.0402	3,363.28	97.1099	3,363.28	95.5938	3,363.28	93.4252	3,363.28	94.7115	3,363.28	93.2089	3,363.28	94.1085	3,363.28	92.0418	3,363.28	93.6842	3,363.28	90.3043	3,363.28	92.3772	3,363.28	86.4732	3,363.28	90.9014	3,363.28	86.4908	3,363.28	83.6293	3,363.28	85.2917	3,363.28	88.2778	3,363.28	80.6762	3,363.28	87.0865	3,363.28	79.7301	3,363.28	67.4937	3,363.28	79.7884	3,363.28	71.8064	3,363.28	74.4062	3,363.28	75.0627	3,363.28	81.5045	3,363.28	77.0632	3,363.28	74.0371	3,363.28	64.3844	3,363.28	78.3317	3,363.28	73.5659	3,363.28	71.1321	3,363.28	80.4859	3,363.28	77.19
3,481.93	97.7719	3,481.93	98.629	3,481.93	97.6081	3,481.93	97.6849	3,481.93	96.4203	3,481.93	93.9502	3,481.93	93.8261	3,481.93	92.8469	3,481.93	94.712	3,481.93	92.645	3,481.93	92.9653	3,481.93	89.9433	3,481.93	92.9971	3,481.93	87.5364	3,481.93	92.5181	3,481.93	85.3688	3,481.93	83.7915	3,481.93	79.0228	3,481.93	88.2225	3,481.93	81.2001	3,481.93	87.115	3,481.93	79.8478	3,481.93	81.8814	3,481.93	81.2694	3,481.93	77.7967	3,481.93	71.3229	3,481.93	73.8684	3,481.93	79.57	3,481.93	77.559	3,481.93	75.3394	3,481.93	62.8607	3,481.93	76.8784	3,481.93	71.5361	3,481.93	61.9467	3,481.93	76.8306	3,481.93	77.1356
3,604.98	98.3289	3,604.98	99.4009	3,604.98	97.1438	3,604.98	97.3972	3,604.98	95.7427	3,604.98	95.0678	3,604.98	94.7015	3,604.98	93.9517	3,604.98	93.823	3,604.98	92.4399	3,604.98	92.5423	3,604.98	89.0887	3,604.98	94.6462	3,604.98	86.8165	3,604.98	91.6126	3,604.98	80.5353	3,604.98	89.2707	3,604.98	82.4599	3,604.98	89.8878	3,604.98	80.2235	3,604.98	86.2386	3,604.98	78.5181	3,604.98	82.9816	3,604.98	81.1021	3,604.98	77.7825	3,604.98	75.7793	3,604.98	75.1141	3,604.98	79.2583	3,604.98	75.1477	3,604.98	77.8518	3,604.98	68.1377	3,604.98	77.0769	3,604.98	68.0309	3,604.98	67.7239	3,604.98	77.4919	3,604.98	76.0282
3,732.42	99.0029	3,732.42	100.088	3,732.42	98.7815	3,732.42	96.5852	3,732.42	95.2769	3,732.42	94.5567	3,732.42	92.8133	3,732.42	94.2044	3,732.42	92.995	3,732.42	90.6306	3,732.42	91.574	3,732.42	88.8915	3,732.42	94.0995	3,732.42	84.0286	3,732.42	90.415	3,732.42	85.189	3,732.42	89.6033	3,732.42	80.6862	3,732.42	88.1622	3,732.42	78.8506	3,732.42	85.1393	3,732.42	75.3723	3,732.42	79.8417	3,732.42	79.3534	3,732.42	78.3088	3,732.42	77.8984	3,732.42	66.8959	3,732.42	76.8346	3,732.42	76.5543	3,732.42	78.2129	3,732.42	72.801	3,732.42	74.8252	3,732.42	72.312	3,732.42	72.5675	3,732.42	76.2089	3,732.42	74.9878
3,864.26	98.6148	3,864.26	99.6061	3,864.26	98.377	3,864.26	96.4561	3,864.26	97.7349	3,864.26	95.0146	3,864.26	92.0837	3,864.26	93.8588	3,864.26	92.874	3,864.26	91.4654	3,864.26	92.0567	3,864.26	88.1429	3,864.26	94.0301	3,864.26	87.0377	3,864.26	88.9506	3,864.26	84.8785	3,864.26	86.4856	3,864.26	81.7508	3,864.26	80.1693	3,864.26	80.0708	3,864.26	79.4981	3,864.26	77.5564	3,864.26	79.4954	3,864.26	77.2917	3,864.26	69.8609	3,864.26	79.1972	3,864.26	73.3925	3,864.26	72.0887	3,864.26	76.6992	3,864.26	77.3845	3,864.26	70.0144	3,864.26	74.6886	3,864.26	72.3883	3,864.26	72.019	3,864.26	74.3389	3,864.26	74.0608
4,000.49	98.8827	4,000.49	98.7836	4,000.49	96.6818	4,000.49	95.6877	4,000.49	97.3467	4,000.49	95.1527	4,000.49	93.669	4,000.49	93.5423	4,000.49	89.7031	4,000.49	90.0259	4,000.49	92.7327	4,000.49	88.7093	4,000.49	92.7903	4,000.49	85.9548	4,000.49	87.2758	4,000.49	82.899	4,000.49	86.9839	4,000.49	82.0337	4,000.49	85.9586	4,000.49	80.4629	4,000.49	73.4049	4,000.49	78.5987	4,000.49	69.2925	4,000.49	74.4889	4,000.49	74.0767	4,000.49	79.4978	4,000.49	74.3202	4,000.49	69.0932	4,000.49	75.6828	4,000.49	78.486	4,000.49	64.6595	4,000.49	74.5428	4,000.49	64.6597	4,000.49	73.1828	4,000.49	73.8441	4,000.49	73.1847
4,141.11	99.7086	4,141.11	98.2831	4,141.11	97.9148	4,141.11	96.3366	4,141.11	96.7138	4,141.11	95.1879	4,141.11	94.704	4,141.11	93.6798	4,141.11	90.7677	4,141.11	90.5613	4,141.11	91.8392	4,141.11	89.8726	4,141.11	90.6588	4,141.11	84.1402	4,141.11	85.5854	4,141.11	86.7322	4,141.11	88.3782	4,141.11	80.3815	4,141.11	85.8995	4,141.11	79.7201	4,141.11	54.5961	4,141.11	78.2069	4,141.11	75.8811	4,141.11	75.4271	4,141.11	67.1337	4,141.11	78.1309	4,141.11	69.8941	4,141.11	71.4283	4,141.11	67.4911	4,141.11	78.0522	4,141.11	62.0741	4,141.11	72.8463	4,141.11	57.8367	4,141.11	71.9727	4,141.11	75.3515	4,141.11	75.2183
4,287.6	100.025	4,287.6	98.3512	4,287.6	97.9062	4,287.6	97.7194	4,287.6	97.3599	4,287.6	94.9961	4,287.6	94.956	4,287.6	93.3563	4,287.6	92.3474	4,287.6	91.9934	4,287.6	91.0251	4,287.6	87.0871	4,287.6	91.2004	4,287.6	87.5491	4,287.6	87.1611	4,287.6	79.5898	4,287.6	87.8791	4,287.6	82.6377	4,287.6	79.5706	4,287.6	78.1198	4,287.6	73.4475	4,287.6	80.1774	4,287.6	79.5304	4,287.6	74.6271	4,287.6	72.0524	4,287.6	75.6561	4,287.6	59.2017	4,287.6	75.7531	4,287.6	70.2789	4,287.6	76.3387	4,287.6	49.7886	4,287.6	67.021	4,287.6	68.7185	4,287.6	72.0937	4,287.6	74.0797	4,287.6	73.6819
4,438.48	99.7009	4,438.48	98.1396	4,438.48	98.1162	4,438.48	97.295	4,438.48	97.3986	4,438.48	95.3279	4,438.48	95.4576	4,438.48	93.8941	4,438.48	91.977	4,438.48	90.3382	4,438.48	92.8209	4,438.48	89.5437	4,438.48	90.4299	4,438.48	84.1982	4,438.48	88.7701	4,438.48	85.5537	4,438.48	85.272	4,438.48	82.9152	4,438.48	68.1419	4,438.48	76.1953	4,438.48	78.9606	4,438.48	78.1201	4,438.48	75.3201	4,438.48	76.4996	4,438.48	75.0048	4,438.48	75.6051	4,438.48	47.1966	4,438.48	76.5496	4,438.48	75.4802	4,438.48	76.747	4,438.48	60.0559	4,438.48	72.1191	4,438.48	69.5746	4,438.48	75.0397	4,438.48	72.1451	4,438.48	74.1813
4,595.21	98.5507	4,595.21	98.1179	4,595.21	98.1203	4,595.21	96.5645	4,595.21	97.2379	4,595.21	94.8778	4,595.21	96.0521	4,595.21	92.9705	4,595.21	91.1373	4,595.21	90.9807	4,595.21	92.5568	4,595.21	86.9331	4,595.21	90.3132	4,595.21	85.8978	4,595.21	87.9777	4,595.21	83.1397	4,595.21	80.6494	4,595.21	78.456	4,595.21	78.4831	4,595.21	79.5974	4,595.21	76.1524	4,595.21	73.073	4,595.21	72.8763	4,595.21	76.9297	4,595.21	75.008	4,595.21	73.6594	4,595.21	69.7493	4,595.21	76.8121	4,595.21	73.0696	4,595.21	74.1188	4,595.21	68.0312	4,595.21	73.5664	4,595.21	65.7748	4,595.21	73.7189	4,595.21	72.6395	4,595.21	72.9403
4,756.35	99.4581	4,756.35	98.7937	4,756.35	98.0621	4,756.35	97.7826	4,756.35	96.7712	4,756.35	96.1352	4,756.35	96.5472	4,756.35	93.8316	4,756.35	91.033	4,756.35	90.7179	4,756.35	91.1372	4,756.35	87.9821	4,756.35	89.2318	4,756.35	82.775	4,756.35	87.8596	4,756.35	82.3706	4,756.35	80.9138	4,756.35	80.6612	4,756.35	80.1728	4,756.35	78.7486	4,756.35	72.2206	4,756.35	75.3422	4,756.35	62.4314	4,756.35	76.6429	4,756.35	75.0265	4,756.35	73.7708	4,756.35	71.0912	4,756.35	75.9257	4,756.35	69.562	4,756.35	75.0971	4,756.35	64.482	4,756.35	72.197	4,756.35	72.2092	4,756.35	69.2789	4,756.35	73.5398	4,756.35	68.1317
4,924.8	99.7733	4,924.8	99.3563	4,924.8	99.3669	4,924.8	97.5604	4,924.8	95.792	4,924.8	95.222	4,924.8	95.8886	4,924.8	92.599	4,924.8	91.0551	4,924.8	89.1816	4,924.8	90.5186	4,924.8	86.2589	4,924.8	88.1297	4,924.8	84.1059	4,924.8	84.8689	4,924.8	84.052	4,924.8	72.9002	4,924.8	79.3248	4,924.8	78.9786	4,924.8	79.4094	4,924.8	74.3232	4,924.8	77.0367	4,924.8	69.9681	4,924.8	74.7982	4,924.8	74.566	4,924.8	76.5318	4,924.8	69.2317	4,924.8	74.7585	4,924.8	58.7451	4,924.8	73.3847	4,924.8	67.3557	4,924.8	75.2941	4,924.8	72.1808	4,924.8	66.2528	4,924.8	70.7523	4,924.8	73.1737
5,097.66	98.8303	5,097.66	98.3336	5,097.66	98.771	5,097.66	97.1275	5,097.66	97.2881	5,097.66	95.4458	5,097.66	96.3189	5,097.66	92.507	5,097.66	90.1851	5,097.66	88.9565	5,097.66	89.1174	5,097.66	86.564	5,097.66	87.0748	5,097.66	83.8534	5,097.66	83.3909	5,097.66	82.1464	5,097.66	82.4713	5,097.66	80.639	5,097.66	80.8438	5,097.66	79.3977	5,097.66	71.152	5,097.66	79.1261	5,097.66	71.3346	5,097.66	75.3153	5,097.66	75.6924	5,097.66	77.5522	5,097.66	72.708	5,097.66	73.1621	5,097.66	69.1855	5,097.66	73.8038	5,097.66	62.2746	5,097.66	72.8217	5,097.66	70.5644	5,097.66	59.8661	5,097.66	73.4124	5,097.66	70.3515
5,277.83	98.751	5,277.83	98.8582	5,277.83	98.3135	5,277.83	97.1543	5,277.83	96.4909	5,277.83	94.7344	5,277.83	97.0775	5,277.83	92.4065	5,277.83	89.6383	5,277.83	88.7676	5,277.83	88.5357	5,277.83	86.3578	5,277.83	85.1657	5,277.83	84.2325	5,277.83	83.2407	5,277.83	84.1572	5,277.83	83.6618	5,277.83	80.2273	5,277.83	81.781	5,277.83	77.2743	5,277.83	75.3677	5,277.83	77.4621	5,277.83	65.7602	5,277.83	76.0252	5,277.83	68.3928	5,277.83	74.2252	5,277.83	68.8893	5,277.83	76.0424	5,277.83	72.9579	5,277.83	75.5702	5,277.83	63.2277	5,277.83	73.3048	5,277.83	64.717	5,277.83	67.5841	5,277.83	71.531	5,277.83	67.3016
5,463.87	98.7589	5,463.87	98.8095	5,463.87	98.7616	5,463.87	97.4426	5,463.87	96.0658	5,463.87	94.4118	5,463.87	96.0184	5,463.87	92.6286	5,463.87	91.8283	5,463.87	88.7541	5,463.87	85.8969	5,463.87	86.5551	5,463.87	82.6606	5,463.87	84.1287	5,463.87	84.4109	5,463.87	81.5332	5,463.87	85.6002	5,463.87	81.3645	5,463.87	82.8982	5,463.87	78.5663	5,463.87	76.108	5,463.87	77.0474	5,463.87	62.0107	5,463.87	76.4473	5,463.87	72.224	5,463.87	76.7399	5,463.87	69.6097	5,463.87	75.7559	5,463.87	72.1702	5,463.87	75.3734	5,463.87	47.8981	5,463.87	74.8057	5,463.87	64.607	5,463.87	65.0884	5,463.87	72.233	5,463.87	70.4928
5,657.23	98.941	5,657.23	98.8611	5,657.23	99.5647	5,657.23	96.8549	5,657.23	95.9077	5,657.23	95.0903	5,657.23	94.0334	5,657.23	92.8066	5,657.23	92.3995	5,657.23	88.8032	5,657.23	84.7161	5,657.23	85.6031	5,657.23	83.6075	5,657.23	85.7823	5,657.23	84.5381	5,657.23	83.2289	5,657.23	87.3184	5,657.23	80.7886	5,657.23	80.5795	5,657.23	79.0037	5,657.23	75.7211	5,657.23	76.0479	5,657.23	63.6433	5,657.23	77.0214	5,657.23	73.294	5,657.23	75.1761	5,657.23	71.0682	5,657.23	75.8711	5,657.23	72.4142	5,657.23	75.7782	5,657.23	52.238	5,657.23	75.8525	5,657.23	64.904	5,657.23	69.8248	5,657.23	70.7733	5,657.23	65.4689
5,856.45	97.9786	5,856.45	98.4557	5,856.45	98.2175	5,856.45	96.9993	5,856.45	95.6736	5,856.45	94.8204	5,856.45	92.5518	5,856.45	91.7657	5,856.45	92.5832	5,856.45	88.8784	5,856.45	83.529	5,856.45	86.6971	5,856.45	86.8114	5,856.45	85.2595	5,856.45	86.3958	5,856.45	83.6294	5,856.45	87.0466	5,856.45	81.3245	5,856.45	77.6958	5,856.45	80.014	5,856.45	72.5903	5,856.45	76.1107	5,856.45	50.3503	5,856.45	76.0327	5,856.45	72.3359	5,856.45	75.5531	5,856.45	66.9314	5,856.45	77.0903	5,856.45	71.9052	5,856.45	74.4224	5,856.45	58.2351	5,856.45	74.6335	5,856.45	63.8904	5,856.45	70.6219	5,856.45	68.1191	5,856.45	66.4431
6,062.99	98.4005	6,062.99	98.7913	6,062.99	98.4083	6,062.99	97.1683	6,062.99	96.0142	6,062.99	94.9859	6,062.99	92.7597	6,062.99	91.2309	6,062.99	92.9789	6,062.99	89.0158	6,062.99	81.8735	6,062.99	86.9327	6,062.99	88.8895	6,062.99	86.9016	6,062.99	88.2139	6,062.99	83.1689	6,062.99	84.7161	6,062.99	80.1158	6,062.99	81.6912	6,062.99	77.0587	6,062.99	71.3716	6,062.99	76.6686	6,062.99	59.6031	6,062.99	76.5752	6,062.99	69.0039	6,062.99	76.4235	6,062.99	61.9839	6,062.99	75.5629	6,062.99	55.2152	6,062.99	74.4184	6,062.99	56.5382	6,062.99	75.0506	6,062.99	66.8326	6,062.99	69.3139	6,062.99	62.9309	6,062.99	67.4296
6,276.86	98.5976	6,276.86	98.5142	6,276.86	98.5635	6,276.86	97.344	6,276.86	98.305	6,276.86	93.9371	6,276.86	92.5129	6,276.86	91.1962	6,276.86	93.2357	6,276.86	89.9909	6,276.86	82.3302	6,276.86	87.5438	6,276.86	88.4552	6,276.86	85.3765	6,276.86	88.1235	6,276.86	82.8411	6,276.86	82.2178	6,276.86	80.4166	6,276.86	81.5001	6,276.86	76.2201	6,276.86	78.7332	6,276.86	76.853	6,276.86	56.1079	6,276.86	74.8458	6,276.86	69.8788	6,276.86	75.8838	6,276.86	69.6491	6,276.86	75.2262	6,276.86	66.848	6,276.86	73.6029	6,276.86	67.3555	6,276.86	72.6591	6,276.86	66.5005	6,276.86	67.4167	6,276.86	64.4205	6,276.86	66.6193
6,498.05	98.6828	6,498.05	98.5195	6,498.05	97.6754	6,498.05	97.2983	6,498.05	98.2656	6,498.05	93.2213	6,498.05	94.6441	6,498.05	91.7865	6,498.05	91.5433	6,498.05	90.424	6,498.05	86.9677	6,498.05	86.5315	6,498.05	88.7216	6,498.05	85.1418	6,498.05	87.7068	6,498.05	80.2158	6,498.05	78.1711	6,498.05	79.3675	6,498.05	79.8191	6,498.05	76.6993	6,498.05	77.9912	6,498.05	73.7883	6,498.05	62.0013	6,498.05	74.1149	6,498.05	66.3314	6,498.05	73.7557	6,498.05	68.9471	6,498.05	73.4121	6,498.05	66.9022	6,498.05	73.6932	6,498.05	66.9693	6,498.05	72.7501	6,498.05	67.484	6,498.05	57.0197	6,498.05	68.2414	6,498.05	59.3629
6,726.56	98.715	6,726.56	98.3732	6,726.56	96.4377	6,726.56	96.5271	6,726.56	95.1754	6,726.56	92.7734	6,726.56	95.9243	6,726.56	91.204	6,726.56	86.9343	6,726.56	89.4376	6,726.56	88.9888	6,726.56	85.355	6,726.56	87.9977	6,726.56	84.3533	6,726.56	87.9375	6,726.56	81.2037	6,726.56	83.3682	6,726.56	78.9233	6,726.56	81.1963	6,726.56	75.7804	6,726.56	67.9152	6,726.56	73.8938	6,726.56	66.5501	6,726.56	72.6925	6,726.56	66.5039	6,726.56	72.4691	6,726.56	55.9586	6,726.56	74.7817	6,726.56	68.5655	6,726.56	70.6746	6,726.56	62.721	6,726.56	75.5965	6,726.56	67.4763	6,726.56	60.6886	6,726.56	67.4683	6,726.56	64.7726
6,963.87	99.074	6,963.87	98.3384	6,963.87	97.3744	6,963.87	95.7535	6,963.87	95.5798	6,963.87	93.1231	6,963.87	95.5526	6,963.87	91.5384	6,963.87	87.2586	6,963.87	88.9751	6,963.87	91.0851	6,963.87	85.5385	6,963.87	87.3023	6,963.87	84.4501	6,963.87	87.3741	6,963.87	79.0854	6,963.87	84.1253	6,963.87	77.9162	6,963.87	78.6171	6,963.87	73.899	6,963.87	74.3084	6,963.87	74.2127	6,963.87	69.4629	6,963.87	71.1751	6,963.87	70.7887	6,963.87	71.1463	6,963.87	59.5378	6,963.87	72.5698	6,963.87	71.8404	6,963.87	71.9052	6,963.87	46.8616	6,963.87	75.4439	6,963.87	62.8398	6,963.87	60.449	6,963.87	66.0509	6,963.87	57.9621
7,209.96	98.9338	7,209.96	98.525	7,209.96	98.7576	7,209.96	95.1521	7,209.96	96.7103	7,209.96	93.4618	7,209.96	94.2452	7,209.96	90.7	7,209.96	91.7805	7,209.96	89.3115	7,209.96	92.1261	7,209.96	86.9222	7,209.96	85.482	7,209.96	83.2174	7,209.96	89.2892	7,209.96	77.8246	7,209.96	82.3271	7,209.96	76.8378	7,209.96	74.3011	7,209.96	73.8075	7,209.96	72.5858	7,209.96	71.3941	7,209.96	62.8879	7,209.96	72.0555	7,209.96	68.1895	7,209.96	70.3917	7,209.96	58.8177	7,209.96	73.4605	7,209.96	68.9154	7,209.96	72.002	7,209.96	60.1166	7,209.96	72.8278	7,209.96	57.9365	7,209.96	64.2835	7,209.96	58.9791	7,209.96	58.1066
7,464.84	98.2173	7,464.84	98.5301	7,464.84	98.8817	7,464.84	94.7881	7,464.84	97.0657	7,464.84	93.5267	7,464.84	91.8186	7,464.84	91.9604	7,464.84	94.4024	7,464.84	89.9384	7,464.84	91.2178	7,464.84	85.7064	7,464.84	85.136	7,464.84	83.0279	7,464.84	85.8108	7,464.84	79.3296	7,464.84	78.4454	7,464.84	76.8392	7,464.84	71.1701	7,464.84	73.5414	7,464.84	76.2749	7,464.84	70.1332	7,464.84	61.9283	7,464.84	69.4693	7,464.84	63.3934	7,464.84	70.8139	7,464.84	62.6086	7,464.84	72.8505	7,464.84	60.2334	7,464.84	72.5402	7,464.84	64.7385	7,464.84	70.8969	7,464.84	62.4029	7,464.84	69.0603	7,464.84	64.9032	7,464.84	58.7878
7,727.05	99.1339	7,727.05	97.8269	7,727.05	97.5961	7,727.05	95.1467	7,727.05	96.4304	7,727.05	93.9863	7,727.05	92.9397	7,727.05	92.1315	7,727.05	95.2983	7,727.05	89.5632	7,727.05	90.7943	7,727.05	85.7308	7,727.05	86.2269	7,727.05	83.639	7,727.05	86.3061	7,727.05	78.7381	7,727.05	77.7538	7,727.05	77.5844	7,727.05	75.7332	7,727.05	74.4702	7,727.05	71.5725	7,727.05	72.5265	7,727.05	54.5632	7,727.05	72.6996	7,727.05	57.0016	7,727.05	71.1409	7,727.05	64.7508	7,727.05	71.791	7,727.05	51.0385	7,727.05	73.2367	7,727.05	64.5963	7,727.05	74.2461	7,727.05	58.2584	7,727.05	70.1766	7,727.05	68.371	7,727.05	55.3704
7,999.51	98.6389	7,999.51	97.2781	7,999.51	98.5022	7,999.51	95.1287	7,999.51	96.4366	7,999.51	93.8401	7,999.51	95.2601	7,999.51	92.7766	7,999.51	95.6856	7,999.51	89.129	7,999.51	90.1888	7,999.51	86.9483	7,999.51	86.6393	7,999.51	84.1186	7,999.51	82.8333	7,999.51	78.7821	7,999.51	76.2528	7,999.51	75.7062	7,999.51	74.8689	7,999.51	73.2888	7,999.51	69.9533	7,999.51	71.8951	7,999.51	63.0689	7,999.51	68.7326	7,999.51	53.1707	7,999.51	73.0703	7,999.51	52.0255	7,999.51	72.1292	7,999.51	64.2407	7,999.51	69.4838	7,999.51	51.6714	7,999.51	75.0163	7,999.51	61.0413	7,999.51	68.7587	7,999.51	66.3768	7,999.51	56.9406
8,282.23	98.5578	8,282.23	97.4561	8,282.23	97.77	8,282.23	95.1308	8,282.23	97.3547	8,282.23	94.7275	8,282.23	97.1129	8,282.23	92.3959	8,282.23	94.559	8,282.23	89.4115	8,282.23	91.356	8,282.23	86.4372	8,282.23	84.6935	8,282.23	82.4218	8,282.23	73.6938	8,282.23	78.3102	8,282.23	76.2849	8,282.23	76.1752	8,282.23	75.5621	8,282.23	73.5352	8,282.23	78.0484	8,282.23	72.2236	8,282.23	68.2798	8,282.23	70.7598	8,282.23	53.2764	8,282.23	71.5871	8,282.23	59.9412	8,282.23	72.128	8,282.23	57.1432	8,282.23	71.6508	8,282.23	59.0561	8,282.23	74.323	8,282.23	62.9515	8,282.23	68.2566	8,282.23	63.25	8,282.23	59.7728
8,573.73	98.3568	8,573.73	97.0092	8,573.73	97.75	8,573.73	95.6011	8,573.73	97.6349	8,573.73	95.285	8,573.73	97.84	8,573.73	92.1953	8,573.73	92.7635	8,573.73	89.6841	8,573.73	92.4324	8,573.73	85.4734	8,573.73	78.6884	8,573.73	82.4319	8,573.73	77.1891	8,573.73	78.8409	8,573.73	81.1299	8,573.73	74.0425	8,573.73	75.947	8,573.73	76.0749	8,573.73	76.9944	8,573.73	70.0563	8,573.73	67.5168	8,573.73	68.1566	8,573.73	61.811	8,573.73	72.5196	8,573.73	56.2907	8,573.73	73.2556	8,573.73	61.5293	8,573.73	71.5885	8,573.73	52.5495	8,573.73	73.0138	8,573.73	49.0456	8,573.73	69.9831	8,573.73	60.5112	8,573.73	42.6345
8,876.95	98.6049	8,876.95	96.9161	8,876.95	98.2612	8,876.95	96.4414	8,876.95	96.7683	8,876.95	95.1641	8,876.95	96.8626	8,876.95	92.435	8,876.95	91.8788	8,876.95	88.9812	8,876.95	91.8663	8,876.95	84.9398	8,876.95	79.5165	8,876.95	82.1865	8,876.95	79.0568	8,876.95	77.1374	8,876.95	82.5223	8,876.95	75.2248	8,876.95	71.1601	8,876.95	72.5337	8,876.95	73.0236	8,876.95	69.4395	8,876.95	59.9493	8,876.95	71.0825	8,876.95	56.7628	8,876.95	71.2176	8,876.95	58.2695	8,876.95	71.3669	8,876.95	62.9362	8,876.95	70.6801	8,876.95	60.1691	8,876.95	73.0371	8,876.95	64.1403	8,876.95	66.6115	8,876.95	54.6532	8,876.95	51.0238
9,188.96	97.869	9,188.96	97.5483	9,188.96	98.0288	9,188.96	96.6892	9,188.96	95.9707	9,188.96	95.2175	9,188.96	95.2663	9,188.96	92.4366	9,188.96	92.607	9,188.96	88.1759	9,188.96	90.9029	9,188.96	84.7138	9,188.96	81.9647	9,188.96	79.7232	9,188.96	83.1343	9,188.96	75.6935	9,188.96	83.0446	9,188.96	73.0486	9,188.96	74.4494	9,188.96	72.5004	9,188.96	68.5293	9,188.96	66.824	9,188.96	67.2938	9,188.96	69.0067	9,188.96	66.6561	9,188.96	70.427	9,188.96	65.8339	9,188.96	71.1058	9,188.96	64.937	9,188.96	69.8726	9,188.96	57.2568	9,188.96	73.9631	9,188.96	62.6692	9,188.96	68.3013	9,188.96	55.5154	9,188.96	55.2876
9,514.16	98.3975	9,514.16	97.8804	9,514.16	98.2833	9,514.16	97.1592	9,514.16	97.7031	9,514.16	95.2413	9,514.16	94.3875	9,514.16	92.2682	9,514.16	94.0791	9,514.16	88.6501	9,514.16	88.5733	9,514.16	82.4426	9,514.16	87.3944	9,514.16	79.7684	9,514.16	83.7873	9,514.16	77.3949	9,514.16	80.2753	9,514.16	74.2558	9,514.16	76.3305	9,514.16	72.8164	9,514.16	53.2659	9,514.16	68.2182	9,514.16	71.1834	9,514.16	67.2375	9,514.16	63.7485	9,514.16	68.0783	9,514.16	49.4604	9,514.16	73.0077	9,514.16	61.5172	9,514.16	69.9566	9,514.16	57.159	9,514.16	75.6639	9,514.16	52.1972	9,514.16	66.5055	9,514.16	59.0499	9,514.16	56.8681
9,849.61	98.1566	9,849.61	98.1475	9,849.61	98.3629	9,849.61	97.1917	9,849.61	97.7735	9,849.61	95.3305	9,849.61	95.9439	9,849.61	92.0796	9,849.61	95.0278	9,849.61	86.7416	9,849.61	84.4625	9,849.61	83.1133	9,849.61	87.8209	9,849.61	80.8477	9,849.61	75.3331	9,849.61	76.7472	9,849.61	75.9031	9,849.61	73.6637	9,849.61	73.351	9,849.61	69.3013	9,849.61	66.1364	9,849.61	67.4524	9,849.61	57.1291	9,849.61	67.9296	9,849.61	64.5212	9,849.61	67.4962	9,849.61	65.1884	9,849.61	70.3223	9,849.61	55.7169	9,849.61	70.7212	9,849.61	53.3801	9,849.61	73.1887	9,849.61	46.4728	9,849.61	68.4422	9,849.61	60.7934	9,849.61	54.8144
10,196.8	98.7494	10,196.8	98.9458	10,196.8	98.1259	10,196.8	97.4854	10,196.8	97.3553	10,196.8	95.4114	10,196.8	97.4884	10,196.8	91.5394	10,196.8	94.873	10,196.8	85.8892	10,196.8	86.6035	10,196.8	84.1206	10,196.8	88.3004	10,196.8	79.1981	10,196.8	77.782	10,196.8	77.107	10,196.8	73.1858	10,196.8	73.4656	10,196.8	67.141	10,196.8	70.0081	10,196.8	72.5159	10,196.8	65.1589	10,196.8	67.4643	10,196.8	65.6732	10,196.8	52.0571	10,196.8	69.2499	10,196.8	61.245	10,196.8	69.5915	10,196.8	60.3666	10,196.8	70.1326	10,196.8	56.9218	10,196.8	72.3934	10,196.8	59.5773	10,196.8	69.1109	10,196.8	62.6077	10,196.8	63.386
10,555.7	98.7086	10,555.7	98.9435	10,555.7	98.7298	10,555.7	97.3265	10,555.7	97.6636	10,555.7	95.3659	10,555.7	97.2337	10,555.7	90.7655	10,555.7	93.1727	10,555.7	85.502	10,555.7	88.8142	10,555.7	83.9645	10,555.7	86.0055	10,555.7	80.7109	10,555.7	79.9049	10,555.7	77.8682	10,555.7	74.3915	10,555.7	72.4519	10,555.7	71.0294	10,555.7	71.4276	10,555.7	70.229	10,555.7	66.289	10,555.7	55.5622	10,555.7	65.5788	10,555.7	45.5406	10,555.7	68.8428	10,555.7	55.3016	10,555.7	68.8792	10,555.7	62.184	10,555.7	70.8947	10,555.7	50.9808	10,555.7	72.2981	10,555.7	53.137	10,555.7	68.4921	10,555.7	57.3373	10,555.7	60.2911
10,927.7	98.9956	10,927.7	99.2523	10,927.7	98.6991	10,927.7	97.2395	10,927.7	97.7587	10,927.7	95.0727	10,927.7	96.6869	10,927.7	90.2149	10,927.7	90.1713	10,927.7	86.1734	10,927.7	90.4796	10,927.7	84.1967	10,927.7	84.8991	10,927.7	80.3356	10,927.7	82.7929	10,927.7	76.2827	10,927.7	78.1188	10,927.7	71.1906	10,927.7	53.1131	10,927.7	69.0079	10,927.7	64.4822	10,927.7	62.108	10,927.7	65.3751	10,927.7	66.166	10,927.7	66.6939	10,927.7	67.27	10,927.7	57.128	10,927.7	64.7773	10,927.7	47.0787	10,927.7	70.6272	10,927.7	50.573	10,927.7	71.4684	10,927.7	52.2844	10,927.7	67.3398	10,927.7	59.0029	10,927.7	59.854
11,313	99.1685	11,313	99.2075	11,313	99.0462	11,313	97.1629	11,313	97.3726	11,313	95.1042	11,313	95.586	11,313	89.9766	11,313	89.0155	11,313	86.7751	11,313	90.5736	11,313	84.3094	11,313	86.1163	11,313	78.4492	11,313	81.8566	11,313	76.262	11,313	73.7333	11,313	72.7758	11,313	66.5267	11,313	69.2438	11,313	66.4906	11,313	63.8947	11,313	68.7103	11,313	66.8742	11,313	68.8263	11,313	66.5023	11,313	63.9507	11,313	67.3317	11,313	61.5818	11,313	69.7238	11,313	54.4667	11,313	71.7445	11,313	57.3575	11,313	65.4484	11,313	57.774	11,313	55.7005
11,712.9	99.1388	11,712.9	98.9922	11,712.9	99.3925	11,712.9	97.3757	11,712.9	98.303	11,712.9	94.8796	11,712.9	94.2453	11,712.9	90.224	11,712.9	90.8007	11,712.9	87.0373	11,712.9	89.8892	11,712.9	83.6946	11,712.9	87.2842	11,712.9	78.8732	11,712.9	77.2457	11,712.9	75.5484	11,712.9	73.0484	11,712.9	72.7283	11,712.9	72.4053	11,712.9	66.0351	11,712.9	68.1708	11,712.9	65.2068	11,712.9	69.7781	11,712.9	65.2744	11,712.9	67.4734	11,712.9	67.124	11,712.9	63.01	11,712.9	67.4338	11,712.9	54.6831	11,712.9	68.8935	11,712.9	58.9793	11,712.9	69.6264	11,712.9	57.6667	11,712.9	66.2136	11,712.9	53.8822	11,712.9	50.9864
12,126	99.299	12,126	99.2068	12,126	99.09	12,126	97.5419	12,126	98.6307	12,126	94.5626	12,126	95.1395	12,126	90.1086	12,126	91.7783	12,126	86.7582	12,126	88.1661	12,126	83.8251	12,126	85.5714	12,126	78.3435	12,126	80.024	12,126	76.3923	12,126	77.3021	12,126	72.2004	12,126	73.1368	12,126	66.9914	12,126	60.0108	12,126	65.1497	12,126	74.798	12,126	62.8662	12,126	68.2641	12,126	65.9588	12,126	57.1918	12,126	65.7492	12,126	58.894	12,126	66.8891	12,126	58.7001	12,126	68.7055	12,126	63.5985	12,126	61.9652	12,126	61.1297	12,126	53.6824
12,553.7	99.2306	12,553.7	99.0675	12,553.7	99.0032	12,553.7	97.6113	12,553.7	98.5517	12,553.7	94.3611	12,553.7	96.5368	12,553.7	90.253	12,553.7	91.6868	12,553.7	86.4498	12,553.7	85.5908	12,553.7	83.7629	12,553.7	82.6048	12,553.7	77.8111	12,553.7	81.2919	12,553.7	75.6145	12,553.7	76.777	12,553.7	71.7828	12,553.7	62.6122	12,553.7	66.4983	12,553.7	67.4047	12,553.7	64.8702	12,553.7	77.1623	12,553.7	63.2513	12,553.7	63.8697	12,553.7	64.758	12,553.7	49.3514	12,553.7	65.8484	12,553.7	60.1811	12,553.7	65.6261	12,553.7	52.9604	12,553.7	69.3445	12,553.7	59.1543	12,553.7	64.0324	12,553.7	59.8369	12,553.7	56.1556
12,996.1	99.0939	12,996.1	99.133	12,996.1	98.8829	12,996.1	97.3382	12,996.1	98.4734	12,996.1	94.2342	12,996.1	96.0467	12,996.1	90.2717	12,996.1	91.4389	12,996.1	86.1069	12,996.1	85.9902	12,996.1	83.0346	12,996.1	81.883	12,996.1	77.3048	12,996.1	81.3608	12,996.1	75.003	12,996.1	75.1644	12,996.1	72.2672	12,996.1	69.2663	12,996.1	66.1428	12,996.1	73.9764	12,996.1	64.1345	12,996.1	78.2971	12,996.1	60.7257	12,996.1	64.3568	12,996.1	67.0083	12,996.1	57.4381	12,996.1	64.8695	12,996.1	65.9412	12,996.1	67.5651	12,996.1	58.1599	12,996.1	69.9578	12,996.1	59.0223	12,996.1	65.8191	12,996.1	59.445	12,996.1	52.8439
13,454.6	98.9336	13,454.6	99.1881	13,454.6	99.0241	13,454.6	97.0703	13,454.6	98.0204	13,454.6	94.342	13,454.6	94.6665	13,454.6	90.1508	13,454.6	91.1977	13,454.6	86.6368	13,454.6	87.038	13,454.6	82.6787	13,454.6	82.4946	13,454.6	77.3215	13,454.6	80.9877	13,454.6	75.0468	13,454.6	76.1051	13,454.6	71.1104	13,454.6	68.7048	13,454.6	64.4922	13,454.6	73.35	13,454.6	66.0308	13,454.6	78.4178	13,454.6	58.2524	13,454.6	68.3687	13,454.6	64.8859	13,454.6	47.3418	13,454.6	64.5142	13,454.6	63.2449	13,454.6	67.5813	13,454.6	60.8225	13,454.6	69.0321	13,454.6	65.23	13,454.6	65.3737	13,454.6	60.556	13,454.6	54.9236
13,929.2	98.5639	13,929.2	99.188	13,929.2	98.9412	13,929.2	96.7704	13,929.2	97.7503	13,929.2	94.5492	13,929.2	94.064	13,929.2	90.3204	13,929.2	90.6798	13,929.2	86.0662	13,929.2	86.8043	13,929.2	82.3924	13,929.2	81.3609	13,929.2	76.0614	13,929.2	79.6035	13,929.2	74.257	13,929.2	77.8267	13,929.2	71.5886	13,929.2	65.3823	13,929.2	66.6046	13,929.2	72.7094	13,929.2	65.5509	13,929.2	79.8092	13,929.2	57.6086	13,929.2	66.315	13,929.2	64.693	13,929.2	55.2251	13,929.2	63.9195	13,929.2	58.7648	13,929.2	65.7679	13,929.2	57.3702	13,929.2	69.0201	13,929.2	64.73	13,929.2	64.6199	13,929.2	63.5103	13,929.2	57.8901
14,419.9	98.457	14,419.9	99.2502	14,419.9	99.1816	14,419.9	96.5662	14,419.9	98.5347	14,419.9	94.7154	14,419.9	94.8695	14,419.9	90.2329	14,419.9	90.0797	14,419.9	85.4088	14,419.9	86.0578	14,419.9	81.4417	14,419.9	81.0369	14,419.9	76.5554	14,419.9	77.3034	14,419.9	72.3119	14,419.9	77.3648	14,419.9	69.8087	14,419.9	54.2347	14,419.9	64.3574	14,419.9	69.482	14,419.9	63.9938	14,419.9	79.5588	14,419.9	57.4203	14,419.9	63.3241	14,419.9	63.9098	14,419.9	59.1077	14,419.9	61.7672	14,419.9	60.4671	14,419.9	63.4274	14,419.9	55.2012	14,419.9	67.4613	14,419.9	64.0781	14,419.9	65.3325	14,419.9	65.8183	14,419.9	59.7109
14,928.2	98.6806	14,928.2	99.4499	14,928.2	99.4148	14,928.2	96.5308	14,928.2	97.8439	14,928.2	94.3126	14,928.2	94.9544	14,928.2	89.7218	14,928.2	90.1735	14,928.2	83.2155	14,928.2	83.942	14,928.2	81.2846	14,928.2	78.9831	14,928.2	74.9678	14,928.2	78.4563	14,928.2	72.4963	14,928.2	70.9689	14,928.2	68.2139	14,928.2	66.7814	14,928.2	64.9816	14,928.2	72.6048	14,928.2	62.3919	14,928.2	80.0154	14,928.2	55.5688	14,928.2	67.3135	14,928.2	59.8784	14,928.2	44.6649	14,928.2	56.7204	14,928.2	62.1451	14,928.2	61.5816	14,928.2	59.1627	14,928.2	65.683	14,928.2	66.7202	14,928.2	65.9617	14,928.2	64.125	14,928.2	59.0172
15,455.6	98.6944	15,455.6	99.6034	15,455.6	99.4971	15,455.6	96.9917	15,455.6	98.4337	15,455.6	94.465	15,455.6	94.9317	15,455.6	89.5894	15,455.6	90.5648	15,455.6	84.0496	15,455.6	84.7858	15,455.6	82.2534	15,455.6	76.8526	15,455.6	74.7497	15,455.6	78.1244	15,455.6	72.5873	15,455.6	72.7831	15,455.6	67.9065	15,455.6	66.6749	15,455.6	66.0697	15,455.6	75.3025	15,455.6	63.1649	15,455.6	81.7255	15,455.6	57.8614	15,455.6	67.1951	15,455.6	62.64	15,455.6	56.4059	15,455.6	56.3845	15,455.6	59.8348	15,455.6	62.8502	15,455.6	49.3976	15,455.6	68.0261	15,455.6	66.0761	15,455.6	65.9619	15,455.6	66.2986	15,455.6	59.3992
16,000.5	99.2318	16,000.5	100.075	16,000.5	99.9023	16,000.5	97.5478	16,000.5	98.2333	16,000.5	94.7666	16,000.5	94.5671	16,000.5	88.9264	16,000.5	88.6379	16,000.5	84.6505	16,000.5	84.6295	16,000.5	82.3635	16,000.5	79.5001	16,000.5	75.9808	16,000.5	76.5737	16,000.5	73.0035	16,000.5	72.2505	16,000.5	68.5965	16,000.5	66.7848	16,000.5	67.1732	16,000.5	76.4463	16,000.5	63.6784	16,000.5	82.5252	16,000.5	57.0294	16,000.5	66.4433	16,000.5	62.1067	16,000.5	55.6601	16,000.5	53.1823	16,000.5	59.4076	16,000.5	61.7987	16,000.5	53.7735	16,000.5	65.7268	16,000.5	65.6941	16,000.5	62.0429	16,000.5	66.1413	16,000.5	60.8546
16,564.5	99.2488	16,564.5	100.059	16,564.5	99.7513	16,564.5	97.3426	16,564.5	98.4701	16,564.5	95.2749	16,564.5	95.2218	16,564.5	88.8945	16,564.5	88.6965	16,564.5	85.7695	16,564.5	84.5157	16,564.5	83.0755	16,564.5	81.4781	16,564.5	77.3549	16,564.5	78.9913	16,564.5	73.2862	16,564.5	70.7307	16,564.5	69.3796	16,564.5	66.4421	16,564.5	67.8382	16,564.5	78.2777	16,564.5	64.6309	16,564.5	83.7827	16,564.5	52.4694	16,564.5	66.6118	16,564.5	58.8584	16,564.5	53.2562	16,564.5	53.9657	16,564.5	58.9266	16,564.5	62.2612	16,564.5	53.8219	16,564.5	64.065	16,564.5	66.6429	16,564.5	55.8522	16,564.5	63.9091	16,564.5	60.6266
17,148.9	98.8459	17,148.9	99.824	17,148.9	99.1472	17,148.9	97.2699	17,148.9	97.674	17,148.9	95.505	17,148.9	95.2864	17,148.9	89.3948	17,148.9	89.7209	17,148.9	86.178	17,148.9	85.9979	17,148.9	84.3333	17,148.9	80.8289	17,148.9	78.4933	17,148.9	79.2831	17,148.9	74.4257	17,148.9	72.7608	17,148.9	69.8177	17,148.9	70.2854	17,148.9	68.4264	17,148.9	77.7706	17,148.9	63.3301	17,148.9	84.5037	17,148.9	56.1004	17,148.9	67.0474	17,148.9	59.1714	17,148.9	57.2997	17,148.9	59.1445	17,148.9	62.687	17,148.9	63.7748	17,148.9	57.8724	17,148.9	63.0324	17,148.9	65.5165	17,148.9	59.7562	17,148.9	64.2907	17,148.9	59.1858
17,752.4	97.7014	17,752.4	99.5361	17,752.4	98.43	17,752.4	97.0088	17,752.4	96.9456	17,752.4	95.1514	17,752.4	94.1947	17,752.4	89.9226	17,752.4	89.7626	17,752.4	86.459	17,752.4	86.653	17,752.4	84.8907	17,752.4	83.1402	17,752.4	79.0222	17,752.4	77.0742	17,752.4	74.7226	17,752.4	75.7625	17,752.4	71.3482	17,752.4	71.1658	17,752.4	66.6791	17,752.4	79.0875	17,752.4	65.5095	17,752.4	84.8311	17,752.4	59.9331	17,752.4	68.1184	17,752.4	60.6656	17,752.4	58.6134	17,752.4	58.7777	17,752.4	59.8064	17,752.4	59.598	17,752.4	57.0134	17,752.4	64.0671	17,752.4	63.0557	17,752.4	61.7595	17,752.4	65.4414	17,752.4	55.5012
18,379.4	96.603	18,379.4	98.4619	18,379.4	97.2858	18,379.4	96.3739	18,379.4	96.2151	18,379.4	94.2322	18,379.4	94.2117	18,379.4	89.6141	18,379.4	90.3554	18,379.4	87.163	18,379.4	87.5958	18,379.4	85.1704	18,379.4	82.4595	18,379.4	79.5546	18,379.4	80.4802	18,379.4	75.3858	18,379.4	71.4201	18,379.4	71.5194	18,379.4	70.8438	18,379.4	67.0827	18,379.4	80.4306	18,379.4	65.2481	18,379.4	84.2355	18,379.4	59.805	18,379.4	65.9047	18,379.4	57.0287	18,379.4	56.3972	18,379.4	60.49	18,379.4	60.4807	18,379.4	61.248	18,379.4	58.5934	18,379.4	66.0373	18,379.4	65.7986	18,379.4	64.7137	18,379.4	65.8999	18,379.4	60.0647
19,026.9	95.8364	19,026.9	97.6074	19,026.9	96.7543	19,026.9	95.7408	19,026.9	96.1591	19,026.9	93.815	19,026.9	94.4046	19,026.9	89.6647	19,026.9	90.2022	19,026.9	87.1815	19,026.9	87.2342	19,026.9	84.8783	19,026.9	81.2295	19,026.9	79.2767	19,026.9	77.4271	19,026.9	74.0238	19,026.9	73.2547	19,026.9	70.0241	19,026.9	71.5492	19,026.9	64.3984	19,026.9	78.6921	19,026.9	63.2008	19,026.9	83.5166	19,026.9	59.4826	19,026.9	64.8908	19,026.9	52.8839	19,026.9	59.5479	19,026.9	60.5685	19,026.9	59.3557	19,026.9	59.1266	19,026.9	60.3559	19,026.9	65.6967	19,026.9	65.4216	19,026.9	62.0769	19,026.9	66.2346	19,026.9	61.1199
19,697.8	95.6199	19,697.8	96.0631	19,697.8	96.2729	19,697.8	94.0803	19,697.8	95.6715	19,697.8	93.1004	19,697.8	92.8675	19,697.8	89.4915	19,697.8	88.6946	19,697.8	86.2221	19,697.8	83.3266	19,697.8	83.9866	19,697.8	80.6772	19,697.8	77.3768	19,697.8	70.7494	19,697.8	72.3101	19,697.8	68.7284	19,697.8	67.0353	19,697.8	67.5402	19,697.8	62.1821	19,697.8	78.3092	19,697.8	61.7668	19,697.8	82.2352	19,697.8	58.2325	19,697.8	65.3671	19,697.8	53.5113	19,697.8	51.9265	19,697.8	60.6688	19,697.8	59.1089	19,697.8	58.1074	19,697.8	59.2224	19,697.8	63.0365	19,697.8	62.6069	19,697.8	63.6757	19,697.8	62.6694	19,697.8	59.8688
19,999.5	95.5003	19,999.5	95.2496	19,999.5	95.4407	19,999.5	92.8604	19,999.5	95.0857	19,999.5	92.4629	19,999.5	92.6442	19,999.5	88.677	19,999.5	87.9851	19,999.5	85.3523	19,999.5	82.7988	19,999.5	82.8555	19,999.5	77.968	19,999.5	76.5735	19,999.5	68.1544	19,999.5	70.9934	19,999.5	70.9775	19,999.5	65.983	19,999.5	53.4388	19,999.5	64.1459	19,999.5	77.3774	19,999.5	61.8771	19,999.5	80.6616	19,999.5	61.3732	19,999.5	66.7748	19,999.5	61.7385	19,999.5	55.7728	19,999.5	62.0392	19,999.5	62.4546	19,999.5	43.7083	19,999.5	56.1723	19,999.5	64.8516	19,999.5	67.086	19,999.5	62.6917	19,999.5	62.2417	19,999.5	59.7668
