"SPL Horizontal"
"On-Axis"		"10°"		"-10°"		"20°"		"-20°"		"30°"		"-30°"		"40°"		"-40°"		"50°"		"-50°"		"60°"		"-60°"		"70°"		"-70°"		"80°"		"-80°"		"90°"		"-90°"		"100°"		"-100°"		"110°"		"-110°"		"120°"		"-120°"		"130°"		"-130°"		"140°"		"-140°"		"150°"		"-150°"		"160°"		"-160°"		"170°"		"-170°"		"180°"
"Frequency [Hz]"	"Sound Pessure Level [dB]  / [2.83V 1m] "	"Frequency [Hz]"	"Sound Pessure Level [dB]  / [2.83V 1m] "	"Frequency [Hz]"	"Sound Pessure Level [dB]  / [2.83V 1m] "	"Frequency [Hz]"	"Sound Pessure Level [dB]  / [2.83V 1m] "	"Frequency [Hz]"	"Sound Pessure Level [dB]  / [2.83V 1m] "	"Frequency [Hz]"	"Sound Pessure Level [dB]  / [2.83V 1m] "	"Frequency [Hz]"	"Sound Pessure Level [dB]  / [2.83V 1m] "	"Frequency [Hz]"	"Sound Pessure Level [dB]  / [2.83V 1m] "	"Frequency [Hz]"	"Sound Pessure Level [dB]  / [2.83V 1m] "	"Frequency [Hz]"	"Sound Pessure Level [dB]  / [2.83V 1m] "	"Frequency [Hz]"	"Sound Pessure Level [dB]  / [2.83V 1m] "	"Frequency [Hz]"	"Sound Pessure Level [dB]  / [2.83V 1m] "	"Frequency [Hz]"	"Sound Pessure Level [dB]  / [2.83V 1m] "	"Frequency [Hz]"	"Sound Pessure Level [dB]  / [2.83V 1m] "	"Frequency [Hz]"	"Sound Pessure Level [dB]  / [2.83V 1m] "	"Frequency [Hz]"	"Sound Pessure Level [dB]  / [2.83V 1m] "	"Frequency [Hz]"	"Sound Pessure Level [dB]  / [2.83V 1m] "	"Frequency [Hz]"	"Sound Pessure Level [dB]  / [2.83V 1m] "	"Frequency [Hz]"	"Sound Pessure Level [dB]  / [2.83V 1m] "	"Frequency [Hz]"	"Sound Pessure Level [dB]  / [2.83V 1m] "	"Frequency [Hz]"	"Sound Pessure Level [dB]  / [2.83V 1m] "	"Frequency [Hz]"	"Sound Pessure Level [dB]  / [2.83V 1m] "	"Frequency [Hz]"	"Sound Pessure Level [dB]  / [2.83V 1m] "	"Frequency [Hz]"	"Sound Pessure Level [dB]  / [2.83V 1m] "	"Frequency [Hz]"	"Sound Pessure Level [dB]  / [2.83V 1m] "	"Frequency [Hz]"	"Sound Pessure Level [dB]  / [2.83V 1m] "	"Frequency [Hz]"	"Sound Pessure Level [dB]  / [2.83V 1m] "	"Frequency [Hz]"	"Sound Pessure Level [dB]  / [2.83V 1m] "	"Frequency [Hz]"	"Sound Pessure Level [dB]  / [2.83V 1m] "	"Frequency [Hz]"	"Sound Pessure Level [dB]  / [2.83V 1m] "	"Frequency [Hz]"	"Sound Pessure Level [dB]  / [2.83V 1m] "	"Frequency [Hz]"	"Sound Pessure Level [dB]  / [2.83V 1m] "	"Frequency [Hz]"	"Sound Pessure Level [dB]  / [2.83V 1m] "	"Frequency [Hz]"	"Sound Pessure Level [dB]  / [2.83V 1m] "	"Frequency [Hz]"	"Sound Pessure Level [dB]  / [2.83V 1m] "	"Frequency [Hz]"	"Sound Pessure Level [dB]  / [2.83V 1m] "
20.5078	52.4102	20.5078	52.2379	20.5078	52.5884	20.5078	52.0792	20.5078	52.7632	20.5078	51.9381	20.5078	52.9258	20.5078	51.8142	20.5078	53.0696	20.5078	51.7032	20.5078	53.1911	20.5078	51.5988	20.5078	53.2895	20.5078	51.4949	20.5078	53.3661	20.5078	51.389	20.5078	53.4229	20.5078	51.2839	20.5078	53.4612	20.5078	51.1891	20.5078	53.4806	20.5078	51.1208	20.5078	53.4777	20.5078	51.0988	20.5078	53.4461	20.5078	51.1411	20.5078	53.3775	20.5078	51.2588	20.5078	53.2633	20.5078	51.4516	20.5078	53.0974	20.5078	51.7073	20.5078	52.8787	20.5078	52.0037	20.5078	52.6131	20.5078	52.3144
21.9727	52.2942	21.9727	52.2802	21.9727	52.3297	21.9727	52.2895	21.9727	52.3824	21.9727	52.321	21.9727	52.4462	21.9727	52.3711	21.9727	52.5136	21.9727	52.4336	21.9727	52.5777	21.9727	52.4999	21.9727	52.6336	21.9727	52.5609	21.9727	52.6793	21.9727	52.6088	21.9727	52.7164	21.9727	52.6392	21.9727	52.7486	21.9727	52.6528	21.9727	52.7797	21.9727	52.6554	21.9727	52.8126	21.9727	52.6558	21.9727	52.8471	21.9727	52.6634	21.9727	52.8802	21.9727	52.6844	21.9727	52.907	21.9727	52.7203	21.9727	52.922	21.9727	52.7675	21.9727	52.9209	21.9727	52.819	21.9727	52.9018	21.9727	52.8662
23.4375	53.9936	23.4375	53.9673	23.4375	54.0344	23.4375	53.9606	23.4375	54.0836	23.4375	53.9762	23.4375	54.1355	23.4375	54.0135	23.4375	54.1856	23.4375	54.0681	23.4375	54.2323	23.4375	54.1326	23.4375	54.276	23.4375	54.1977	23.4375	54.3189	23.4375	54.2541	23.4375	54.3639	23.4375	54.2951	23.4375	54.4125	23.4375	54.3181	23.4375	54.4643	23.4375	54.3252	23.4375	54.5159	23.4375	54.3227	23.4375	54.5616	23.4375	54.3195	23.4375	54.5951	23.4375	54.3241	23.4375	54.6105	23.4375	54.3428	23.4375	54.6048	23.4375	54.3774	23.4375	54.5781	23.4375	54.4255	23.4375	54.5344	23.4375	54.4807
24.9023	54.6954	24.9023	54.7272	24.9023	54.6511	24.9023	54.7402	24.9023	54.6015	24.9023	54.7301	24.9023	54.5532	24.9023	54.6955	24.9023	54.511	24.9023	54.6383	24.9023	54.4769	24.9023	54.563	24.9023	54.4495	24.9023	54.4759	24.9023	54.4248	24.9023	54.3837	24.9023	54.3973	24.9023	54.292	24.9023	54.3615	24.9023	54.2045	24.9023	54.3137	24.9023	54.1233	24.9023	54.2529	24.9023	54.0493	24.9023	54.1813	24.9023	53.9834	24.9023	54.1036	24.9023	53.9267	24.9023	54.0261	24.9023	53.881	24.9023	53.9554	24.9023	53.8489	24.9023	53.8975	24.9023	53.8328	24.9023	53.8566	24.9023	53.835
26.3672	53.1612	26.3672	53.14	26.3672	53.2065	26.3672	53.1448	26.3672	53.2724	26.3672	53.1762	26.3672	53.3546	26.3672	53.2332	26.3672	53.4475	26.3672	53.3129	26.3672	53.5456	26.3672	53.4105	26.3672	53.6441	26.3672	53.5195	26.3672	53.7394	26.3672	53.6328	26.3672	53.8297	26.3672	53.7437	26.3672	53.914	26.3672	53.8475	26.3672	53.9921	26.3672	53.9415	26.3672	54.0638	26.3672	54.0248	26.3672	54.1284	26.3672	54.0978	26.3672	54.1849	26.3672	54.1607	26.3672	54.2319	26.3672	54.2133	26.3672	54.268	26.3672	54.2548	26.3672	54.2921	26.3672	54.2842	26.3672	54.3031	26.3672	54.3004
27.832	55.6436	27.832	55.5984	27.832	55.6873	27.832	55.5544	27.832	55.7264	27.832	55.5134	27.832	55.7579	27.832	55.4761	27.832	55.7795	27.832	55.4421	27.832	55.7898	27.832	55.4103	27.832	55.789	27.832	55.3788	27.832	55.7781	27.832	55.3458	27.832	55.759	27.832	55.3099	27.832	55.7338	27.832	55.2714	27.832	55.704	27.832	55.2321	27.832	55.6702	27.832	55.1964	27.832	55.6318	27.832	55.1695	27.832	55.5878	27.832	55.1568	27.832	55.537	27.832	55.1622	27.832	55.4791	27.832	55.1869	27.832	55.4156	27.832	55.2294	27.832	55.3494	27.832	55.2854
29.2969	55.0093	29.2969	54.9802	29.2969	55.0511	29.2969	54.9668	29.2969	55.1008	29.2969	54.9704	29.2969	55.1536	29.2969	54.9894	29.2969	55.205	29.2969	55.0202	29.2969	55.2523	29.2969	55.0573	29.2969	55.2946	29.2969	55.0943	29.2969	55.3327	29.2969	55.1257	29.2969	55.369	29.2969	55.1482	29.2969	55.4055	29.2969	55.1616	29.2969	55.4435	29.2969	55.1689	29.2969	55.4817	29.2969	55.1757	29.2969	55.5167	29.2969	55.1885	29.2969	55.5431	29.2969	55.2124	29.2969	55.5554	29.2969	55.2502	29.2969	55.5492	29.2969	55.3011	29.2969	55.5233	29.2969	55.3609	29.2969	55.4795	29.2969	55.423
30.7617	56.0812	30.7617	56.0597	30.7617	56.1226	30.7617	56.0622	30.7617	56.1795	30.7617	56.091	30.7617	56.2474	30.7617	56.1463	30.7617	56.3224	30.7617	56.2252	30.7617	56.4013	30.7617	56.3222	30.7617	56.4821	30.7617	56.4295	30.7617	56.5635	30.7617	56.5387	30.7617	56.6446	30.7617	56.6424	30.7617	56.7247	30.7617	56.7354	30.7617	56.8025	30.7617	56.8156	30.7617	56.876	30.7617	56.8829	30.7617	56.9427	30.7617	56.9391	30.7617	57	30.7617	56.9861	30.7617	57.0456	30.7617	57.0255	30.7617	57.0781	30.7617	57.0576	30.7617	57.0972	30.7617	57.0822	30.7617	57.1035	30.7617	57.0979
32.2266	57.5763	32.2266	57.5435	32.2266	57.6179	32.2266	57.5225	32.2266	57.6646	32.2266	57.5143	32.2266	57.7122	32.2266	57.5184	32.2266	57.7569	32.2266	57.5324	32.2266	57.7962	32.2266	57.5529	32.2266	57.8284	32.2266	57.5754	32.2266	57.8534	32.2266	57.5963	32.2266	57.872	32.2266	57.6126	32.2266	57.8852	32.2266	57.6234	32.2266	57.894	32.2266	57.6296	32.2266	57.8985	32.2266	57.6336	32.2266	57.8981	32.2266	57.639	32.2266	57.8918	32.2266	57.6492	32.2266	57.8785	32.2266	57.6666	32.2266	57.8577	32.2266	57.6918	32.2266	57.8296	32.2266	57.7236	32.2266	57.796	32.2266	57.7595
33.6914	58.5847	33.6914	58.5559	33.6914	58.6218	33.6914	58.5384	33.6914	58.6638	33.6914	58.5335	33.6914	58.7071	33.6914	58.5412	33.6914	58.7482	33.6914	58.5598	33.6914	58.7848	33.6914	58.5867	33.6914	58.8153	33.6914	58.6181	33.6914	58.8392	33.6914	58.6507	33.6914	58.8571	33.6914	58.6815	33.6914	58.8696	33.6914	58.7084	33.6914	58.8779	33.6914	58.7306	33.6914	58.8829	33.6914	58.7485	33.6914	58.885	33.6914	58.7631	33.6914	58.8841	33.6914	58.776	33.6914	58.88	33.6914	58.7887	33.6914	58.8724	33.6914	58.8022	33.6914	58.8614	33.6914	58.817	33.6914	58.8478	33.6914	58.8325
35.1562	58.91	35.1562	58.8937	35.1562	58.9327	35.1562	58.8858	35.1562	58.9592	35.1562	58.8867	35.1562	58.9866	35.1562	58.8956	35.1562	59.0123	35.1562	58.9105	35.1562	59.0342	35.1562	58.9283	35.1562	59.051	35.1562	58.9457	35.1562	59.0621	35.1562	58.9598	35.1562	59.0674	35.1562	58.9687	35.1562	59.0672	35.1562	58.9716	35.1562	59.0618	35.1562	58.969	35.1562	59.0519	35.1562	58.9621	35.1562	59.0381	35.1562	58.9529	35.1562	59.0215	35.1562	58.9436	35.1562	59.0029	35.1562	58.9363	35.1562	58.984	35.1562	58.9326	35.1562	58.9662	35.1562	58.9336	35.1562	58.951	35.1562	58.9399
36.6211	60.3534	36.6211	60.3441	36.6211	60.3699	36.6211	60.3424	36.6211	60.392	36.6211	60.3479	36.6211	60.4178	36.6211	60.359	36.6211	60.4456	36.6211	60.3738	36.6211	60.4735	36.6211	60.39	36.6211	60.5003	36.6211	60.4058	36.6211	60.5248	36.6211	60.4202	36.6211	60.5464	36.6211	60.4328	36.6211	60.5643	36.6211	60.4438	36.6211	60.578	36.6211	60.454	36.6211	60.587	36.6211	60.4642	36.6211	60.5912	36.6211	60.4751	36.6211	60.5906	36.6211	60.4868	36.6211	60.5858	36.6211	60.4995	36.6211	60.5774	36.6211	60.5128	36.6211	60.5664	36.6211	60.5265	36.6211	60.5538	36.6211	60.5403
38.0859	61.1692	38.0859	61.1975	38.0859	61.1463	38.0859	61.2319	38.0859	61.1282	38.0859	61.272	38.0859	61.1139	38.0859	61.316	38.0859	61.1031	38.0859	61.3612	38.0859	61.096	38.0859	61.4037	38.0859	61.0931	38.0859	61.4397	38.0859	61.0952	38.0859	61.4658	38.0859	61.1029	38.0859	61.4803	38.0859	61.1162	38.0859	61.4831	38.0859	61.1347	38.0859	61.476	38.0859	61.1575	38.0859	61.4615	38.0859	61.1833	38.0859	61.4425	38.0859	61.2107	38.0859	61.4215	38.0859	61.2384	38.0859	61.4001	38.0859	61.2653	38.0859	61.3789	38.0859	61.2907	38.0859	61.3579	38.0859	61.3144	38.0859	61.3367
39.5508	62.2211	39.5508	62.2268	39.5508	62.223	39.5508	62.2421	39.5508	62.2299	39.5508	62.2673	39.5508	62.239	39.5508	62.301	39.5508	62.2485	39.5508	62.3401	39.5508	62.2575	39.5508	62.3808	39.5508	62.2662	39.5508	62.4194	39.5508	62.2758	39.5508	62.4533	39.5508	62.2875	39.5508	62.481	39.5508	62.3026	39.5508	62.5023	39.5508	62.3214	39.5508	62.5174	39.5508	62.3437	39.5508	62.5272	39.5508	62.3683	39.5508	62.5323	39.5508	62.394	39.5508	62.5332	39.5508	62.4194	39.5508	62.5303	39.5508	62.4434	39.5508	62.5238	39.5508	62.4653	39.5508	62.5139	39.5508	62.4845	39.5508	62.5008
41.0156	63.0064	41.0156	63.009	41.0156	63.0145	41.0156	63.0232	41.0156	63.0313	41.0156	63.0483	41.0156	63.0542	41.0156	63.0821	41.0156	63.0812	41.0156	63.1211	41.0156	63.1105	41.0156	63.1616	41.0156	63.1406	41.0156	63.2005	41.0156	63.1708	41.0156	63.236	41.0156	63.2001	41.0156	63.267	41.0156	63.2277	41.0156	63.2932	41.0156	63.2529	41.0156	63.3144	41.0156	63.2748	41.0156	63.3306	41.0156	63.2926	41.0156	63.3417	41.0156	63.3063	41.0156	63.348	41.0156	63.3163	41.0156	63.35	41.0156	63.3238	41.0156	63.3487	41.0156	63.3297	41.0156	63.3452	41.0156	63.3351	41.0156	63.3404
42.4805	61.9566	42.4805	61.9388	42.4805	61.9723	42.4805	61.9184	42.4805	61.9853	42.4805	61.8951	42.4805	61.9945	42.4805	61.8678	42.4805	61.9981	42.4805	61.836	42.4805	61.9938	42.4805	61.7988	42.4805	61.9797	42.4805	61.7557	42.4805	61.9543	42.4805	61.7066	42.4805	61.9172	42.4805	61.6525	42.4805	61.8689	42.4805	61.5953	42.4805	61.8114	42.4805	61.5378	42.4805	61.7473	42.4805	61.4836	42.4805	61.68	42.4805	61.4363	42.4805	61.6128	42.4805	61.399	42.4805	61.5493	42.4805	61.3738	42.4805	61.4922	42.4805	61.3619	42.4805	61.4437	42.4805	61.3635	42.4805	61.4053	42.4805	61.3783
43.9453	63.7539	43.9453	63.7484	43.9453	63.753	43.9453	63.7368	43.9453	63.7455	43.9453	63.7198	43.9453	63.7317	43.9453	63.6984	43.9453	63.7122	43.9453	63.6736	43.9453	63.6877	43.9453	63.6465	43.9453	63.6593	43.9453	63.6182	43.9453	63.6282	43.9453	63.5895	43.9453	63.5955	43.9453	63.5614	43.9453	63.5627	43.9453	63.5346	43.9453	63.531	43.9453	63.5099	43.9453	63.5015	43.9453	63.4877	43.9453	63.4754	43.9453	63.4684	43.9453	63.4535	43.9453	63.452	43.9453	63.4364	43.9453	63.4386	43.9453	63.4244	43.9453	63.4281	43.9453	63.4173	43.9453	63.4204	43.9453	63.4146	43.9453	63.4158
45.4102	64.4176	45.4102	64.4312	45.4102	64.3979	45.4102	64.4381	45.4102	64.3727	45.4102	64.4378	45.4102	64.3428	45.4102	64.4302	45.4102	64.3089	45.4102	64.4156	45.4102	64.2723	45.4102	64.395	45.4102	64.2343	45.4102	64.3698	45.4102	64.1965	45.4102	64.3418	45.4102	64.1605	45.4102	64.3124	45.4102	64.1276	45.4102	64.2825	45.4102	64.0988	45.4102	64.2526	45.4102	64.0746	45.4102	64.2226	45.4102	64.0551	45.4102	64.1924	45.4102	64.0405	45.4102	64.1618	45.4102	64.031	45.4102	64.1316	45.4102	64.0272	45.4102	64.1026	45.4102	64.0298	45.4102	64.0765	45.4102	64.039	45.4102	64.0548
46.875	64.8271	46.875	64.8378	46.875	64.8095	46.875	64.8408	46.875	64.7857	46.875	64.8353	46.875	64.7567	46.875	64.821	46.875	64.7232	46.875	64.7979	46.875	64.6864	46.875	64.7666	46.875	64.6474	46.875	64.7283	46.875	64.6072	46.875	64.6848	46.875	64.5672	46.875	64.6378	46.875	64.5281	46.875	64.5895	46.875	64.4909	46.875	64.5415	46.875	64.4561	46.875	64.4955	46.875	64.4242	46.875	64.453	46.875	64.3956	46.875	64.4151	46.875	64.371	46.875	64.3832	46.875	64.3512	46.875	64.3581	46.875	64.3374	46.875	64.3407	46.875	64.3306	46.875	64.3316
48.3398	65.4338	48.3398	65.4302	48.3398	65.4336	48.3398	65.4225	48.3398	65.4296	48.3398	65.4107	48.3398	65.4219	48.3398	65.3948	48.3398	65.4106	48.3398	65.375	48.3398	65.396	48.3398	65.3519	48.3398	65.3784	48.3398	65.3262	48.3398	65.3582	48.3398	65.2989	48.3398	65.3357	48.3398	65.271	48.3398	65.3115	48.3398	65.2434	48.3398	65.2863	48.3398	65.2171	48.3398	65.2605	48.3398	65.1927	48.3398	65.2349	48.3398	65.171	48.3398	65.2101	48.3398	65.1527	48.3398	65.187	48.3398	65.1387	48.3398	65.1664	48.3398	65.1297	48.3398	65.1492	48.3398	65.1263	48.3398	65.1363	48.3398	65.1285
51.2695	66.4668	51.2695	66.4622	51.2695	66.4641	51.2695	66.4496	51.2695	66.4546	51.2695	66.4291	51.2695	66.4395	51.2695	66.4008	51.2695	66.4198	51.2695	66.3656	51.2695	66.3966	51.2695	66.3249	51.2695	66.3711	51.2695	66.2806	51.2695	66.3444	51.2695	66.235	51.2695	66.3172	51.2695	66.1906	51.2695	66.2901	51.2695	66.1497	51.2695	66.2635	51.2695	66.1143	51.2695	66.2374	51.2695	66.086	51.2695	66.2118	51.2695	66.0656	51.2695	66.1867	51.2695	66.0536	51.2695	66.1621	51.2695	66.0496	51.2695	66.1383	51.2695	66.0528	51.2695	66.1156	51.2695	66.0622	51.2695	66.0947	51.2695	66.0766
52.7344	66.9668	52.7344	66.9588	52.7344	66.9699	52.7344	66.9462	52.7344	66.9683	52.7344	66.9289	52.7344	66.9621	52.7344	66.9075	52.7344	66.9515	52.7344	66.8824	52.7344	66.9371	52.7344	66.8546	52.7344	66.9197	52.7344	66.8253	52.7344	66.8999	52.7344	66.796	52.7344	66.8787	52.7344	66.7682	52.7344	66.8568	52.7344	66.7432	52.7344	66.835	52.7344	66.7222	52.7344	66.8137	52.7344	66.7058	52.7344	66.7933	52.7344	66.6943	52.7344	66.7738	52.7344	66.6875	52.7344	66.7555	52.7344	66.6851	52.7344	66.7387	52.7344	66.6866	52.7344	66.7235	52.7344	66.6916	52.7344	66.7103	52.7344	66.6996
54.1992	67.3111	54.1992	67.3186	54.1992	67.2984	54.1992	67.3199	54.1992	67.2814	54.1992	67.3145	54.1992	67.261	54.1992	67.3023	54.1992	67.2383	54.1992	67.2836	54.1992	67.2145	54.1992	67.2593	54.1992	67.1906	54.1992	67.2312	54.1992	67.1677	54.1992	67.201	54.1992	67.1466	54.1992	67.1708	54.1992	67.1279	54.1992	67.1422	54.1992	67.1116	54.1992	67.1163	54.1992	67.0976	54.1992	67.094	54.1992	67.0854	54.1992	67.0755	54.1992	67.0745	54.1992	67.061	54.1992	67.0647	54.1992	67.0504	54.1992	67.056	54.1992	67.0436	54.1992	67.0487	54.1992	67.0403	54.1992	67.0433	54.1992	67.0403
55.6641	67.9109	55.6641	67.929	55.6641	67.8859	55.6641	67.9396	55.6641	67.8554	55.6641	67.9422	55.6641	67.8205	55.6641	67.9368	55.6641	67.783	55.6641	67.9239	55.6641	67.7445	55.6641	67.9046	55.6641	67.707	55.6641	67.8803	55.6641	67.6722	55.6641	67.8527	55.6641	67.6417	55.6641	67.8232	55.6641	67.6169	55.6641	67.7934	55.6641	67.5984	55.6641	67.7644	55.6641	67.5863	55.6641	67.737	55.6641	67.5804	55.6641	67.7117	55.6641	67.5797	55.6641	67.689	55.6641	67.5833	55.6641	67.6688	55.6641	67.59	55.6641	67.6511	55.6641	67.5991	55.6641	67.6356	55.6641	67.6097	55.6641	67.6219
58.5938	68.89	58.5938	68.8827	58.5938	68.8931	58.5938	68.871	58.5938	68.8918	58.5938	68.8552	58.5938	68.8864	58.5938	68.8358	58.5938	68.877	58.5938	68.8136	58.5938	68.8637	58.5938	68.7897	58.5938	68.8469	58.5938	68.7653	58.5938	68.827	58.5938	68.7417	58.5938	68.8049	58.5938	68.7197	58.5938	68.7814	58.5938	68.7002	58.5938	68.7578	58.5938	68.6835	58.5938	68.7352	58.5938	68.6698	58.5938	68.7144	58.5938	68.6592	58.5938	68.6963	58.5938	68.6516	58.5938	68.6811	58.5938	68.6469	58.5938	68.6688	58.5938	68.6448	58.5938	68.6593	58.5938	68.6451	58.5938	68.6524	58.5938	68.6477
60.0586	69.233	60.0586	69.2399	60.0586	69.2229	60.0586	69.2433	60.0586	69.2101	60.0586	69.2431	60.0586	69.1956	60.0586	69.2398	60.0586	69.1804	60.0586	69.234	60.0586	69.1658	60.0586	69.2268	60.0586	69.1529	60.0586	69.2193	60.0586	69.1428	60.0586	69.2126	60.0586	69.1363	60.0586	69.2075	60.0586	69.134	60.0586	69.2046	60.0586	69.136	60.0586	69.2037	60.0586	69.1421	60.0586	69.2048	60.0586	69.1516	60.0586	69.2072	60.0586	69.1634	60.0586	69.2104	60.0586	69.1762	60.0586	69.2137	60.0586	69.1889	60.0586	69.216	60.0586	69.2	60.0586	69.2165	60.0586	69.2086	60.0586	69.2141
62.9883	70.2722	62.9883	70.2783	62.9883	70.2581	62.9883	70.2763	62.9883	70.2365	62.9883	70.2665	62.9883	70.2081	62.9883	70.2495	62.9883	70.174	62.9883	70.2264	62.9883	70.1356	62.9883	70.1984	62.9883	70.0944	62.9883	70.1667	62.9883	70.052	62.9883	70.1326	62.9883	70.0103	62.9883	70.0973	62.9883	69.9709	62.9883	70.0615	62.9883	69.9352	62.9883	70.0262	62.9883	69.9044	62.9883	69.9923	62.9883	69.8793	62.9883	69.9605	62.9883	69.8603	62.9883	69.9316	62.9883	69.8475	62.9883	69.9061	62.9883	69.8408	62.9883	69.8844	62.9883	69.8398	62.9883	69.8667	62.9883	69.8441	62.9883	69.8532
64.4531	70.7431	64.4531	70.7407	64.4531	70.7368	64.4531	70.73	64.4531	70.722	64.4531	70.7115	64.4531	70.6993	64.4531	70.6863	64.4531	70.6693	64.4531	70.6555	64.4531	70.6331	64.4531	70.6209	64.4531	70.5921	64.4531	70.5837	64.4531	70.5477	64.4531	70.5455	64.4531	70.5014	64.4531	70.5072	64.4531	70.4547	64.4531	70.4693	64.4531	70.4092	64.4531	70.4324	64.4531	70.366	64.4531	70.3964	64.4531	70.3265	64.4531	70.3617	64.4531	70.292	64.4531	70.3288	64.4531	70.2639	64.4531	70.2985	64.4531	70.2436	64.4531	70.2719	64.4531	70.232	64.4531	70.2506	64.4531	70.2295	64.4531	70.236
67.3828	71.7277	67.3828	71.7319	67.3828	71.7127	67.3828	71.7248	67.3828	71.6874	67.3828	71.7063	67.3828	71.6526	67.3828	71.6768	67.3828	71.6095	67.3828	71.6369	67.3828	71.5592	67.3828	71.5877	67.3828	71.5031	67.3828	71.5306	67.3828	71.4427	67.3828	71.4676	67.3828	71.3795	67.3828	71.4009	67.3828	71.3151	67.3828	71.3326	67.3828	71.2513	67.3828	71.2648	67.3828	71.1897	67.3828	71.1995	67.3828	71.132	67.3828	71.1385	67.3828	71.0799	67.3828	71.0837	67.3828	71.0351	67.3828	71.0369	67.3828	70.9993	67.3828	70.9999	67.3828	70.9743	67.3828	70.9743	67.3828	70.9613	67.3828	70.9612
68.8477	71.9685	68.8477	71.9565	68.8477	71.9735	68.8477	71.9376	68.8477	71.9715	68.8477	71.9121	68.8477	71.9626	68.8477	71.8807	68.8477	71.9471	68.8477	71.8442	68.8477	71.9251	68.8477	71.8039	68.8477	71.8971	68.8477	71.761	68.8477	71.8635	68.8477	71.7172	68.8477	71.8251	68.8477	71.6737	68.8477	71.7826	68.8477	71.632	68.8477	71.7373	68.8477	71.5931	68.8477	71.6904	68.8477	71.5577	68.8477	71.6436	68.8477	71.5266	68.8477	71.5985	68.8477	71.5003	68.8477	71.5571	68.8477	71.4796	68.8477	71.5212	68.8477	71.4655	68.8477	71.4924	68.8477	71.4589	68.8477	71.4721	68.8477	71.4609
71.7773	72.5309	71.7773	72.5129	71.7773	72.5446	71.7773	72.4908	71.7773	72.5541	71.7773	72.465	71.7773	72.5596	71.7773	72.4359	71.7773	72.5612	71.7773	72.4045	71.7773	72.5592	71.7773	72.3719	71.7773	72.5536	71.7773	72.3391	71.7773	72.5447	71.7773	72.3077	71.7773	72.5323	71.7773	72.2789	71.7773	72.5168	71.7773	72.2541	71.7773	72.4981	71.7773	72.2347	71.7773	72.4766	71.7773	72.2216	71.7773	72.4525	71.7773	72.2159	71.7773	72.4265	71.7773	72.2176	71.7773	72.399	71.7773	72.2266	71.7773	72.3707	71.7773	72.2421	71.7773	72.3421	71.7773	72.2627	71.7773	72.3139	71.7773	72.2871
74.707	73.2922	74.707	73.3038	74.707	73.2771	74.707	73.3113	74.707	73.2594	74.707	73.3141	74.707	73.2406	74.707	73.3123	74.707	73.2221	74.707	73.3062	74.707	73.2052	74.707	73.2961	74.707	73.191	74.707	73.2825	74.707	73.1802	74.707	73.2663	74.707	73.1729	74.707	73.2483	74.707	73.1688	74.707	73.2297	74.707	73.1671	74.707	73.2116	74.707	73.1672	74.707	73.1953	74.707	73.1683	74.707	73.1819	74.707	73.1697	74.707	73.1721	74.707	73.1709	74.707	73.1661	74.707	73.1712	74.707	73.1636	74.707	73.1704	74.707	73.1639	74.707	73.1684	74.707	73.1659
77.6367	74.2776	77.6367	74.2733	77.6367	74.2745	77.6367	74.2618	77.6367	74.2639	77.6367	74.2436	77.6367	74.2465	77.6367	74.2197	77.6367	74.223	77.6367	74.1909	77.6367	74.1943	77.6367	74.1581	77.6367	74.1614	77.6367	74.1222	77.6367	74.1254	77.6367	74.0843	77.6367	74.0872	77.6367	74.0455	77.6367	74.0479	77.6367	74.0071	77.6367	74.0086	77.6367	73.9705	77.6367	73.9707	77.6367	73.9371	77.6367	73.9357	77.6367	73.9076	77.6367	73.9048	77.6367	73.8827	77.6367	73.879	77.6367	73.8628	77.6367	73.8589	77.6367	73.848	77.6367	73.8448	77.6367	73.8385	77.6367	73.8368	77.6367	73.8347
79.1016	74.7834	79.1016	74.7605	79.1016	74.7977	79.1016	74.7299	79.1016	74.8032	79.1016	74.6924	79.1016	74.7999	79.1016	74.6492	79.1016	74.7881	79.1016	74.6017	79.1016	74.7681	79.1016	74.551	79.1016	74.7405	79.1016	74.4986	79.1016	74.7059	79.1016	74.4461	79.1016	74.665	79.1016	74.3952	79.1016	74.6187	79.1016	74.3478	79.1016	74.5682	79.1016	74.3055	79.1016	74.5148	79.1016	74.2696	79.1016	74.4606	79.1016	74.2411	79.1016	74.4072	79.1016	74.2204	79.1016	74.3568	79.1016	74.2076	79.1016	74.3114	79.1016	74.2029	79.1016	74.2725	79.1016	74.2069	79.1016	74.2417	79.1016	74.2197
82.0312	75.3289	82.0312	75.3002	82.0312	75.3547	82.0312	75.2689	82.0312	75.3769	82.0312	75.2357	82.0312	75.3952	82.0312	75.2013	82.0312	75.4089	82.0312	75.1664	82.0312	75.4175	82.0312	75.132	82.0312	75.4203	82.0312	75.0991	82.0312	75.4169	82.0312	75.0689	82.0312	75.407	82.0312	75.0426	82.0312	75.3904	82.0312	75.0216	82.0312	75.3676	82.0312	75.007	82.0312	75.3394	82.0312	74.9997	82.0312	75.3069	82.0312	75.0001	82.0312	75.2714	82.0312	75.0079	82.0312	75.2344	82.0312	75.0223	82.0312	75.1972	82.0312	75.0422	82.0312	75.161	82.0312	75.0668	82.0312	75.1268	82.0312	75.0952
84.9609	75.5218	84.9609	75.4977	84.9609	75.5531	84.9609	75.4813	84.9609	75.5905	84.9609	75.4728	84.9609	75.6325	84.9609	75.4719	84.9609	75.6776	84.9609	75.4781	84.9609	75.724	84.9609	75.491	84.9609	75.7698	84.9609	75.5099	84.9609	75.8136	84.9609	75.5344	84.9609	75.8539	84.9609	75.5641	84.9609	75.8897	84.9609	75.5987	84.9609	75.9203	84.9609	75.6382	84.9609	75.9455	84.9609	75.6819	84.9609	75.9653	84.9609	75.7291	84.9609	75.9794	84.9609	75.7781	84.9609	75.9876	84.9609	75.8268	84.9609	75.9891	84.9609	75.8723	84.9609	75.983	84.9609	75.9123	84.9609	75.9684	84.9609	75.9448
87.8906	76.0783	87.8906	76.0931	87.8906	76.0661	87.8906	76.11	87.8906	76.0582	87.8906	76.1292	87.8906	76.0568	87.8906	76.1513	87.8906	76.0643	87.8906	76.1776	87.8906	76.0831	87.8906	76.209	87.8906	76.1147	87.8906	76.2463	87.8906	76.1594	87.8906	76.2896	87.8906	76.2162	87.8906	76.3384	87.8906	76.2829	87.8906	76.3919	87.8906	76.3561	87.8906	76.4484	87.8906	76.432	87.8906	76.5064	87.8906	76.5065	87.8906	76.5636	87.8906	76.5757	87.8906	76.6174	87.8906	76.6362	87.8906	76.6649	87.8906	76.685	87.8906	76.7033	87.8906	76.7197	87.8906	76.7298	87.8906	76.7389	87.8906	76.7421
90.8203	77.4286	90.8203	77.4471	90.8203	77.3998	90.8203	77.4548	90.8203	77.3621	90.8203	77.4516	90.8203	77.3173	90.8203	77.4383	90.8203	77.2677	90.8203	77.4161	90.8203	77.2157	90.8203	77.3865	90.8203	77.1642	90.8203	77.3513	90.8203	77.1159	90.8203	77.3119	90.8203	77.0733	90.8203	77.2699	90.8203	77.0383	90.8203	77.2265	90.8203	77.012	90.8203	77.1832	90.8203	76.9944	90.8203	77.1415	90.8203	76.9846	90.8203	77.1033	90.8203	76.9806	90.8203	77.0701	90.8203	76.9805	90.8203	77.0431	90.8203	76.9827	90.8203	77.0224	90.8203	76.9861	90.8203	77.0076	90.8203	76.9907	90.8203	76.9975
95.2148	78.3643	95.2148	78.3923	95.2148	78.3275	95.2148	78.411	95.2148	78.2831	95.2148	78.4205	95.2148	78.2328	95.2148	78.4211	95.2148	78.1791	95.2148	78.4138	95.2148	78.1245	95.2148	78.3995	95.2148	78.072	95.2148	78.3794	95.2148	78.0246	95.2148	78.3549	95.2148	77.9851	95.2148	78.3273	95.2148	77.9561	95.2148	78.2979	95.2148	77.9392	95.2148	78.268	95.2148	77.9353	95.2148	78.2389	95.2148	77.9439	95.2148	78.2115	95.2148	77.9629	95.2148	78.1865	95.2148	77.9892	95.2148	78.1638	95.2148	78.0189	95.2148	78.1428	95.2148	78.0486	95.2148	78.1223	95.2148	78.0761	95.2148	78.1005
98.1445	79.2081	98.1445	79.2238	98.1445	79.18	98.1445	79.2268	98.1445	79.1398	98.1445	79.2177	98.1445	79.089	98.1445	79.1975	98.1445	79.0293	98.1445	79.1673	98.1445	78.9629	98.1445	79.1286	98.1445	78.8926	98.1445	79.083	98.1445	78.8215	98.1445	79.032	98.1445	78.753	98.1445	78.9774	98.1445	78.6903	98.1445	78.9211	98.1445	78.6367	98.1445	78.8648	98.1445	78.5948	98.1445	78.8107	98.1445	78.5659	98.1445	78.7604	98.1445	78.5501	98.1445	78.7155	98.1445	78.5459	98.1445	78.6768	98.1445	78.5508	98.1445	78.6446	98.1445	78.562	98.1445	78.618	98.1445	78.5774	98.1445	78.596
101.074	79.6915	101.074	79.7151	101.074	79.6577	101.074	79.7278	101.074	79.6152	101.074	79.7292	101.074	79.5659	101.074	79.7197	101.074	79.5118	101.074	79.7	101.074	79.4555	101.074	79.6712	101.074	79.3991	101.074	79.6344	101.074	79.3448	101.074	79.5909	101.074	79.2946	101.074	79.542	101.074	79.2498	101.074	79.4893	101.074	79.2113	101.074	79.4345	101.074	79.1795	101.074	79.3795	101.074	79.1547	101.074	79.3262	101.074	79.1368	101.074	79.2769	101.074	79.1258	101.074	79.2334	101.074	79.1214	101.074	79.1968	101.074	79.1234	101.074	79.1678	101.074	79.1316	101.074	79.1463
105.469	80.3994	105.469	80.4136	105.469	80.3789	105.469	80.4209	105.469	80.3526	105.469	80.421	105.469	80.3215	105.469	80.4139	105.469	80.2867	105.469	80.3996	105.469	80.2496	105.469	80.3788	105.469	80.2119	105.469	80.352	105.469	80.1754	105.469	80.3207	105.469	80.1418	105.469	80.2862	105.469	80.113	105.469	80.2504	105.469	80.0901	105.469	80.2152	105.469	80.074	105.469	80.1821	105.469	80.0642	105.469	80.1528	105.469	80.0599	105.469	80.128	105.469	80.0596	105.469	80.1083	105.469	80.0619	105.469	80.0934	105.469	80.0655	105.469	80.0828	105.469	80.0699	105.469	80.0754
108.398	81.0709	108.398	81.0763	108.398	81.056	108.398	81.0732	108.398	81.0313	108.398	81.0625	108.398	80.9968	108.398	81.0456	108.398	80.9532	108.398	81.0233	108.398	80.9019	108.398	80.9965	108.398	80.8447	108.398	80.9657	108.398	80.7838	108.398	80.9315	108.398	80.722	108.398	80.8941	108.398	80.662	108.398	80.854	108.398	80.6069	108.398	80.8117	108.398	80.5595	108.398	80.768	108.398	80.522	108.398	80.7237	108.398	80.4961	108.398	80.6797	108.398	80.4823	108.398	80.6372	108.398	80.4802	108.398	80.5974	108.398	80.4886	108.398	80.5615	108.398	80.5059	108.398	80.5306
112.793	81.6835	112.793	81.6809	112.793	81.6743	112.793	81.6676	112.793	81.6528	112.793	81.6456	112.793	81.6197	112.793	81.6173	112.793	81.5765	112.793	81.5855	112.793	81.5258	112.793	81.5527	112.793	81.4708	112.793	81.5211	112.793	81.4152	112.793	81.4926	112.793	81.3629	112.793	81.468	112.793	81.3173	112.793	81.4477	112.793	81.2811	112.793	81.4314	112.793	81.2561	112.793	81.4183	112.793	81.2427	112.793	81.407	112.793	81.2404	112.793	81.3958	112.793	81.2477	112.793	81.3832	112.793	81.2625	112.793	81.3679	112.793	81.2825	112.793	81.3494	112.793	81.3052	112.793	81.3281
117.188	82.4501	117.188	82.45	117.188	82.4374	117.188	82.437	117.188	82.4123	117.188	82.4112	117.188	82.3757	117.188	82.3734	117.188	82.3283	117.188	82.3247	117.188	82.2717	117.188	82.2666	117.188	82.2073	117.188	82.2013	117.188	82.1374	117.188	82.1314	117.188	82.0646	117.188	82.0594	117.188	81.9924	117.188	81.9881	117.188	81.9243	117.188	81.9202	117.188	81.8633	117.188	81.8583	117.188	81.8118	117.188	81.8045	117.188	81.7707	117.188	81.7607	117.188	81.7397	117.188	81.7277	117.188	81.7173	117.188	81.7057	117.188	81.7021	117.188	81.6935	117.188	81.693	117.188	81.6898
120.117	82.8948	120.117	82.897	120.117	82.8835	120.117	82.8904	120.117	82.8631	120.117	82.8751	120.117	82.8335	120.117	82.8512	120.117	82.7947	120.117	82.8186	120.117	82.7468	120.117	82.7773	120.117	82.6905	120.117	82.7273	120.117	82.6264	120.117	82.6688	120.117	82.556	120.117	82.6022	120.117	82.4809	120.117	82.5286	120.117	82.4034	120.117	82.4496	120.117	82.3264	120.117	82.3677	120.117	82.2529	120.117	82.2866	120.117	82.1859	120.117	82.2104	120.117	82.1282	120.117	82.1437	120.117	82.0823	120.117	82.0904	120.117	82.0502	120.117	82.0536	120.117	82.0339	120.117	82.0347
124.512	83.3019	124.512	83.2977	124.512	83.2972	124.512	83.2855	124.512	83.2835	124.512	83.2668	124.512	83.2611	124.512	83.243	124.512	83.2307	124.512	83.2155	124.512	83.1936	124.512	83.1854	124.512	83.1509	124.512	83.1534	124.512	83.1038	124.512	83.1195	124.512	83.0532	124.512	83.0834	124.512	83.0002	124.512	83.0446	124.512	82.9462	124.512	83.0029	124.512	82.8932	124.512	82.9585	124.512	82.8437	124.512	82.9126	124.512	82.8004	124.512	82.8671	124.512	82.7656	124.512	82.8243	124.512	82.7413	124.512	82.7869	124.512	82.7283	124.512	82.7571	124.512	82.7269	124.512	82.7367
128.906	83.6796	128.906	83.7077	128.906	83.6435	128.906	83.7271	128.906	83.601	128.906	83.7379	128.906	83.5546	128.906	83.7412	128.906	83.5074	128.906	83.7383	128.906	83.4623	128.906	83.731	128.906	83.422	128.906	83.7208	128.906	83.388	128.906	83.7087	128.906	83.3613	128.906	83.6951	128.906	83.3415	128.906	83.6796	128.906	83.3284	128.906	83.6614	128.906	83.3217	128.906	83.6394	128.906	83.3215	128.906	83.6133	128.906	83.328	128.906	83.5834	128.906	83.3412	128.906	83.5505	128.906	83.3609	128.906	83.516	128.906	83.386	128.906	83.4813	128.906	83.4152	128.906	83.4473
133.301	84.1581	133.301	84.171	133.301	84.1365	133.301	84.176	133.301	84.1067	133.301	84.1749	133.301	84.0699	133.301	84.1701	133.301	84.0288	133.301	84.1637	133.301	83.9865	133.301	84.1578	133.301	83.9464	133.301	84.1534	133.301	83.9115	133.301	84.1507	133.301	83.884	133.301	84.1487	133.301	83.865	133.301	84.1454	133.301	83.8543	133.301	84.1389	133.301	83.8511	133.301	84.1273	133.301	83.8543	133.301	84.1095	133.301	83.863	133.301	84.086	133.301	83.8764	133.301	84.0581	133.301	83.894	133.301	84.0277	133.301	83.9154	133.301	83.997	133.301	83.94	133.301	83.9674
139.16	84.7292	139.16	84.7381	139.16	84.7084	139.16	84.7359	139.16	84.6757	139.16	84.7245	139.16	84.6326	139.16	84.7068	139.16	84.5817	139.16	84.6858	139.16	84.5263	139.16	84.6643	139.16	84.4704	139.16	84.6448	139.16	84.4178	139.16	84.6285	139.16	84.3721	139.16	84.6154	139.16	84.3358	139.16	84.6042	139.16	84.3102	139.16	84.5929	139.16	84.2953	139.16	84.5789	139.16	84.2901	139.16	84.5603	139.16	84.2932	139.16	84.5359	139.16	84.3036	139.16	84.5061	139.16	84.3202	139.16	84.4724	139.16	84.3426	139.16	84.4369	139.16	84.3702	139.16	84.4021
143.555	85.0484	143.555	85.0455	143.555	85.0367	143.555	85.0298	143.555	85.0102	143.555	85.0038	143.555	84.9699	143.555	84.9708	143.555	84.9178	143.555	84.9345	143.555	84.8576	143.555	84.8984	143.555	84.7936	143.555	84.8654	143.555	84.7307	143.555	84.8377	143.555	84.6733	143.555	84.8158	143.555	84.6253	143.555	84.7991	143.555	84.589	143.555	84.7857	143.555	84.565	143.555	84.7732	143.555	84.5526	143.555	84.7591	143.555	84.55	143.555	84.7413	143.555	84.5557	143.555	84.7192	143.555	84.5682	143.555	84.6933	143.555	84.5865	143.555	84.6649	143.555	84.6096	143.555	84.6363
147.949	85.2236	147.949	85.2267	147.949	85.2072	147.949	85.2179	147.949	85.1773	147.949	85.1991	147.949	85.1346	147.949	85.1728	147.949	85.0808	147.949	85.1421	147.949	85.0187	147.949	85.1096	147.949	84.9524	147.949	85.0778	147.949	84.8867	147.949	85.0483	147.949	84.8265	147.949	85.0217	147.949	84.7767	147.949	84.9981	147.949	84.7406	147.949	84.9769	147.949	84.7199	147.949	84.957	147.949	84.714	147.949	84.9379	147.949	84.7208	147.949	84.9188	147.949	84.737	147.949	84.8993	147.949	84.7592	147.949	84.8791	147.949	84.7842	147.949	84.8575	147.949	84.8098	147.949	84.8345
153.809	85.2004	153.809	85.1947	153.809	85.1962	153.809	85.1804	153.809	85.1821	153.809	85.1598	153.809	85.1591	153.809	85.1361	153.809	85.1292	153.809	85.1129	153.809	85.0947	153.809	85.0935	153.809	85.0586	153.809	85.0805	153.809	85.0237	153.809	85.0757	153.809	84.9931	153.809	85.0795	153.809	84.9697	153.809	85.0911	153.809	84.9559	153.809	85.1083	153.809	84.953	153.809	85.128	153.809	84.9615	153.809	85.1467	153.809	84.9801	153.809	85.1609	153.809	85.0069	153.809	85.1678	153.809	85.0389	153.809	85.1657	153.809	85.0729	153.809	85.154	153.809	85.1055	153.809	85.1334
159.668	85.3559	159.668	85.3443	159.668	85.3538	159.668	85.3199	159.668	85.3386	159.668	85.2853	159.668	85.3123	159.668	85.2443	159.668	85.2778	159.668	85.2019	159.668	85.2387	159.668	85.1631	159.668	85.1988	159.668	85.1323	159.668	85.1615	159.668	85.1123	159.668	85.1297	159.668	85.1038	159.668	85.1051	159.668	85.1054	159.668	85.0886	159.668	85.1144	159.668	85.0804	159.668	85.1272	159.668	85.0799	159.668	85.1405	159.668	85.0864	159.668	85.1517	159.668	85.0981	159.668	85.1593	159.668	85.1131	159.668	85.1624	159.668	85.1289	159.668	85.1607	159.668	85.1432	159.668	85.1542
165.527	85.4546	165.527	85.452	165.527	85.4424	165.527	85.4347	165.527	85.4169	165.527	85.4044	165.527	85.3809	165.527	85.3647	165.527	85.3378	165.527	85.321	165.527	85.2914	165.527	85.2789	165.527	85.246	165.527	85.2441	165.527	85.2055	165.527	85.2206	165.527	85.173	165.527	85.2099	165.527	85.1506	165.527	85.2109	165.527	85.1384	165.527	85.2198	165.527	85.1351	165.527	85.2319	165.527	85.1384	165.527	85.2423	165.527	85.146	165.527	85.2477	165.527	85.1563	165.527	85.2466	165.527	85.1684	165.527	85.2393	165.527	85.182	165.527	85.2272	165.527	85.197	165.527	85.2125
171.387	85.5302	171.387	85.5331	171.387	85.5103	171.387	85.5195	171.387	85.4748	171.387	85.491	171.387	85.426	171.387	85.4511	171.387	85.3674	171.387	85.4043	171.387	85.3033	171.387	85.3561	171.387	85.2385	171.387	85.3117	171.387	85.1781	171.387	85.2754	171.387	85.1264	171.387	85.2495	171.387	85.0866	171.387	85.2338	171.387	85.0601	171.387	85.2258	171.387	85.0463	171.387	85.2218	171.387	85.0433	171.387	85.2173	171.387	85.0484	171.387	85.2094	171.387	85.0594	171.387	85.1965	171.387	85.0744	171.387	85.1787	171.387	85.0925	171.387	85.1577	171.387	85.113	171.387	85.1352
177.246	85.4593	177.246	85.4568	177.246	85.442	177.246	85.435	177.246	85.4066	177.246	85.3963	177.246	85.3563	177.246	85.3453	177.246	85.295	177.246	85.2881	177.246	85.2276	177.246	85.2314	177.246	85.159	177.246	85.1818	177.246	85.0944	177.246	85.1441	177.246	85.0387	177.246	85.1214	177.246	84.9955	177.246	85.1137	177.246	84.9668	177.246	85.118	177.246	84.9529	177.246	85.1293	177.246	84.952	177.246	85.142	177.246	84.962	177.246	85.1504	177.246	84.9805	177.246	85.1509	177.246	85.0055	177.246	85.1417	177.246	85.0349	177.246	85.123	177.246	85.0665	177.246	85.0969
183.105	85.4012	183.105	85.4001	183.105	85.3817	183.105	85.3787	183.105	85.3429	183.105	85.3397	183.105	85.2876	183.105	85.2875	183.105	85.2196	183.105	85.2282	183.105	85.1432	183.105	85.1688	183.105	85.0635	183.105	85.1163	183.105	84.9862	183.105	85.0764	183.105	84.9171	183.105	85.0525	183.105	84.8613	183.105	85.045	183.105	84.8223	183.105	85.0513	183.105	84.8018	183.105	85.0661	183.105	84.7991	183.105	85.0831	183.105	84.8125	183.105	85.0957	183.105	84.8398	183.105	85.0983	183.105	84.8786	183.105	85.0872	183.105	84.9253	183.105	85.0614	183.105	84.9753	183.105	85.0227
188.965	85.1848	188.965	85.1839	188.965	85.1654	188.965	85.1632	188.965	85.1265	188.965	85.1252	188.965	85.0708	188.965	85.0738	188.965	85.0019	188.965	85.0146	188.965	84.9247	188.965	84.9544	188.965	84.8453	188.965	84.9004	188.965	84.7706	188.965	84.8594	188.965	84.7077	188.965	84.8365	188.965	84.6626	188.965	84.8338	188.965	84.639	188.965	84.8494	188.965	84.6368	188.965	84.8773	188.965	84.6528	188.965	84.9087	188.965	84.6822	188.965	84.9344	188.965	84.7198	188.965	84.9471	188.965	84.7621	188.965	84.9433	188.965	84.8064	188.965	84.9235	188.965	84.8505	188.965	84.891
196.289	85.1397	196.289	85.1225	196.289	85.131	196.289	85.0824	196.289	85.0957	196.289	85.0242	196.289	85.0357	196.289	84.9542	196.289	84.955	196.289	84.879	196.289	84.8599	196.289	84.8052	196.289	84.7587	196.289	84.7391	196.289	84.6613	196.289	84.6855	196.289	84.578	196.289	84.6484	196.289	84.5175	196.289	84.6298	196.289	84.4853	196.289	84.6296	196.289	84.4814	196.289	84.6448	196.289	84.501	196.289	84.6698	196.289	84.5362	196.289	84.6971	196.289	84.5783	196.289	84.7195	196.289	84.621	196.289	84.7316	196.289	84.6599	196.289	84.7307	196.289	84.6927	196.289	84.7171
203.613	85.0814	203.613	85.0675	203.613	85.0681	203.613	85.0274	203.613	85.0289	203.613	84.9646	203.613	84.9668	203.613	84.885	203.613	84.8855	203.613	84.796	203.613	84.7897	203.613	84.705	203.613	84.685	203.613	84.6185	203.613	84.5788	203.613	84.5417	203.613	84.4802	203.613	84.4783	203.613	84.3994	203.613	84.4306	203.613	84.3448	203.613	84.4	203.613	84.3205	203.613	84.3861	203.613	84.324	203.613	84.3869	203.613	84.3469	203.613	84.3983	203.613	84.3783	203.613	84.415	203.613	84.4085	203.613	84.4317	203.613	84.4315	203.613	84.444	203.613	84.4451	203.613	84.449
210.938	84.7861	210.938	84.7464	210.938	84.8003	210.938	84.6855	210.938	84.7867	210.938	84.6092	210.938	84.7455	210.938	84.5248	210.938	84.6792	210.938	84.4396	210.938	84.593	210.938	84.3599	210.938	84.4943	210.938	84.2905	210.938	84.3925	210.938	84.2343	210.938	84.2975	210.938	84.1926	210.938	84.2182	210.938	84.1661	210.938	84.1608	210.938	84.155	210.938	84.1275	210.938	84.1581	210.938	84.117	210.938	84.1726	210.938	84.1245	210.938	84.1931	210.938	84.1435	210.938	84.2133	210.938	84.1677	210.938	84.2276	210.938	84.192	210.938	84.2323	210.938	84.2127	210.938	84.2269
218.262	84.4496	218.262	84.4315	218.262	84.4436	218.262	84.3901	218.262	84.4155	218.262	84.33	218.262	84.3685	218.262	84.259	218.262	84.3055	218.262	84.1872	218.262	84.2296	218.262	84.124	218.262	84.1446	218.262	84.0759	218.262	84.0574	218.262	84.0452	218.262	83.9784	218.262	84.0309	218.262	83.9204	218.262	84.0306	218.262	83.8951	218.262	84.0432	218.262	83.908	218.262	84.0682	218.262	83.9556	218.262	84.1045	218.262	84.0262	218.262	84.1486	218.262	84.1038	218.262	84.1936	218.262	84.1737	218.262	84.2321	218.262	84.2262	218.262	84.258	218.262	84.2573	218.262	84.2673
225.586	84.3786	225.586	84.3948	225.586	84.3307	225.586	84.3795	225.586	84.2552	225.586	84.3371	225.586	84.1592	225.586	84.2758	225.586	84.0512	225.586	84.2064	225.586	83.9387	225.586	84.1405	225.586	83.8283	225.586	84.0882	225.586	83.7262	225.586	84.0552	225.586	83.6391	225.586	84.0416	225.586	83.5759	225.586	84.0425	225.586	83.5455	225.586	84.0511	225.586	83.5539	225.586	84.0617	225.586	83.6003	225.586	84.071	225.586	83.6763	225.586	84.0776	225.586	83.7675	225.586	84.0802	225.586	83.8583	225.586	84.0768	225.586	83.9369	225.586	84.0641	225.586	83.9973	225.586	84.0388
232.91	84.3002	232.91	84.2888	232.91	84.2748	232.91	84.2445	232.91	84.2128	232.91	84.1736	232.91	84.118	232.91	84.0852	232.91	83.9972	232.91	83.9896	232.91	83.8591	232.91	83.8979	232.91	83.7134	232.91	83.8206	232.91	83.5709	232.91	83.7657	232.91	83.4433	232.91	83.7368	232.91	83.3428	232.91	83.7319	232.91	83.2807	232.91	83.7449	232.91	83.2642	232.91	83.7682	232.91	83.2944	232.91	83.7947	232.91	83.3649	232.91	83.8196	232.91	83.4628	232.91	83.8388	232.91	83.5713	232.91	83.8479	232.91	83.6734	232.91	83.841	232.91	83.7558	232.91	83.8118
241.699	83.9493	241.699	83.9263	241.699	83.9411	241.699	83.8722	241.699	83.9059	241.699	83.792	241.699	83.8505	241.699	83.6947	241.699	83.7814	241.699	83.5921	241.699	83.7026	241.699	83.4973	241.699	83.6149	241.699	83.4223	241.699	83.519	241.699	83.376	241.699	83.4179	241.699	83.3605	241.699	83.3196	241.699	83.3704	241.699	83.2354	241.699	83.3943	241.699	83.1764	241.699	83.4195	241.699	83.1497	241.699	83.4374	241.699	83.1565	241.699	83.4455	241.699	83.1918	241.699	83.4453	241.699	83.2456	241.699	83.4386	241.699	83.305	241.699	83.4242	241.699	83.3585	241.699	83.3986
250.488	83.8884	250.488	83.8616	250.488	83.857	250.488	83.7814	250.488	83.7699	250.488	83.6582	250.488	83.6383	250.488	83.5057	250.488	83.4809	250.488	83.3399	250.488	83.3212	250.488	83.1775	250.488	83.1811	250.488	83.0351	250.488	83.075	250.488	82.9278	250.488	83.0072	250.488	82.8655	250.488	82.9739	250.488	82.8493	250.488	82.968	250.488	82.8699	250.488	82.9819	250.488	82.9107	250.488	83.0093	250.488	82.9565	250.488	83.0444	250.488	82.9995	250.488	83.0823	250.488	83.0399	250.488	83.1174	250.488	83.0797	250.488	83.1432	250.488	83.1166	250.488	83.1532	250.488	83.1436
259.277	83.8709	259.277	83.8131	259.277	83.8639	259.277	83.7015	259.277	83.7894	259.277	83.5522	259.277	83.6554	259.277	83.3837	259.277	83.48	259.277	83.2132	259.277	83.2882	259.277	83.0548	259.277	83.1051	259.277	82.9187	259.277	82.9494	259.277	82.8109	259.277	82.83	259.277	82.7351	259.277	82.7475	259.277	82.6926	259.277	82.698	259.277	82.6819	259.277	82.6767	259.277	82.6988	259.277	82.6796	259.277	82.7372	259.277	82.7044	259.277	82.7905	259.277	82.7491	259.277	82.8507	259.277	82.809	259.277	82.9068	259.277	82.8736	259.277	82.945	259.277	82.9268	259.277	82.9531
268.066	83.8323	268.066	83.6998	268.066	83.8952	268.066	83.5181	268.066	83.8717	268.066	83.3087	268.066	83.7521	268.066	83.0923	268.066	83.5382	268.066	82.8877	268.066	83.2481	268.066	82.7101	268.066	82.9174	268.066	82.572	268.066	82.5938	268.066	82.4839	268.066	82.3238	268.066	82.4545	268.066	82.1355	268.066	82.4863	268.066	82.0301	268.066	82.5707	268.066	81.9902	268.066	82.6852	268.066	81.9962	268.066	82.7996	268.066	82.0382	268.066	82.8854	268.066	82.1171	268.066	82.9237	268.066	82.2354	268.066	82.9062	268.066	82.3875	268.066	82.8329	268.066	82.5545	268.066	82.7107
276.855	83.371	276.855	83.3526	276.855	83.3643	276.855	83.2963	276.855	83.3433	276.855	83.1956	276.855	83.3103	276.855	83.0557	276.855	83.2566	276.855	82.893	276.855	83.1665	276.855	82.7282	276.855	83.0266	276.855	82.5777	276.855	82.8363	276.855	82.4483	276.855	82.6164	276.855	82.3409	276.855	82.4101	276.855	82.259	276.855	82.2689	276.855	82.2124	276.855	82.227	276.855	82.2115	276.855	82.2785	276.855	82.2555	276.855	82.3802	276.855	82.3272	276.855	82.4779	276.855	82.4012	276.855	82.5358	276.855	82.458	276.855	82.5496	276.855	82.4935	276.855	82.537	276.855	82.5168
287.109	83.2429	287.109	83.2174	287.109	83.2423	287.109	83.1666	287.109	83.2112	287.109	83.089	287.109	83.1443	287.109	82.9846	287.109	83.0421	287.109	82.8603	287.109	82.9135	287.109	82.733	287.109	82.7739	287.109	82.6254	287.109	82.6354	287.109	82.5552	287.109	82.4981	287.109	82.525	287.109	82.3543	287.109	82.5232	287.109	82.2029	287.109	82.5349	287.109	82.064	287.109	82.551	287.109	81.9746	287.109	82.5673	287.109	81.9644	287.109	82.5765	287.109	82.0303	287.109	82.5679	287.109	82.1368	287.109	82.5344	287.109	82.2448	287.109	82.4794	287.109	82.3358	287.109	82.412
297.363	83.224	297.363	83.2467	297.363	83.1457	297.363	83.2131	297.363	83.0275	297.363	83.1378	297.363	82.8866	297.363	83.0365	297.363	82.725	297.363	82.9125	297.363	82.528	297.363	82.7582	297.363	82.2864	297.363	82.5737	297.363	82.0259	297.363	82.3861	297.363	81.8176	297.363	82.2487	297.363	81.742	297.363	82.2103	297.363	81.8176	297.363	82.2774	297.363	81.9719	297.363	82.4092	297.363	82.0952	297.363	82.5468	297.363	82.1192	297.363	82.6415	297.363	82.0542	297.363	82.6623	297.363	81.9729	297.363	82.5937	297.363	81.9603	297.363	82.4409	297.363	82.0575	297.363	82.2401
307.617	83.1371	307.617	83.143	307.617	83.041	307.617	83.0445	307.617	82.8854	307.617	82.8499	307.617	82.7115	307.617	82.594	307.617	82.5608	307.617	82.3302	307.617	82.4546	307.617	82.1069	307.617	82.3775	307.617	81.9418	307.617	82.2837	307.617	81.8194	307.617	82.1293	307.617	81.7164	307.617	81.9079	307.617	81.629	307.617	81.6644	307.617	81.5762	307.617	81.4748	307.617	81.5799	307.617	81.3958	307.617	81.6437	307.617	81.4288	307.617	81.7489	307.617	81.5331	307.617	81.8641	307.617	81.6651	307.617	81.9555	307.617	81.7956	307.617	81.9968	307.617	81.9054	307.617	81.9778
319.336	82.9517	319.336	82.8436	319.336	82.9649	319.336	82.6712	319.336	82.8583	319.336	82.4546	319.336	82.6327	319.336	82.1987	319.336	82.3263	319.336	81.9057	319.336	82.0081	319.336	81.5897	319.336	81.7476	319.336	81.2819	319.336	81.577	319.336	81.0186	319.336	81.4823	319.336	80.8278	319.336	81.4333	319.336	80.7314	319.336	81.4161	319.336	80.7532	319.336	81.4379	319.336	80.9084	319.336	81.5085	319.336	81.1766	319.336	81.6234	319.336	81.4962	319.336	81.7654	319.336	81.7938	319.336	81.9141	319.336	82.0174	319.336	82.0487	319.336	82.147	319.336	82.1465	319.336	82.1855
329.59	82.5299	329.59	82.4186	329.59	82.6541	329.59	82.3374	329.59	82.7468	329.59	82.2781	329.59	82.7512	329.59	82.219	329.59	82.6257	329.59	82.1362	329.59	82.368	329.59	82.0135	329.59	82.0224	329.59	81.848	329.59	81.663	329.59	81.6502	329.59	81.3549	329.59	81.4392	329.59	81.1208	329.59	81.2374	329.59	80.949	329.59	81.071	329.59	80.8398	329.59	80.9696	329.59	80.8282	329.59	80.9567	329.59	80.9496	329.59	81.034	329.59	81.184	329.59	81.1773	329.59	81.4472	329.59	81.3523	329.59	81.6418	329.59	81.5256	329.59	81.7122	329.59	81.6606
341.309	82.8179	341.309	82.7575	341.309	82.7596	341.309	82.5976	341.309	82.5921	341.309	82.3797	341.309	82.3469	341.309	82.1503	341.309	82.0599	341.309	81.9436	341.309	81.7559	341.309	81.7743	341.309	81.4463	341.309	81.6452	341.309	81.1449	341.309	81.557	341.309	80.8814	341.309	81.5075	341.309	80.6947	341.309	81.4832	341.309	80.609	341.309	81.4592	341.309	80.621	341.309	81.4146	341.309	80.7134	341.309	81.3519	341.309	80.8728	341.309	81.3002	341.309	81.0839	341.309	81.2955	341.309	81.3073	341.309	81.3524	341.309	81.482	341.309	81.4495	341.309	81.5604	341.309	81.5374
353.027	82.602	353.027	82.5645	353.027	82.5615	353.027	82.44	353.027	82.4622	353.027	82.2379	353.027	82.3253	353.027	81.9906	353.027	82.1663	353.027	81.7489	353.027	81.9891	353.027	81.5613	353.027	81.7859	353.027	81.4464	353.027	81.5472	353.027	81.386	353.027	81.2791	353.027	81.3481	353.027	81.0163	353.027	81.3169	353.027	80.8125	353.027	81.3037	353.027	80.705	353.027	81.3313	353.027	80.6819	353.027	81.4053	353.027	80.6974	353.027	81.4987	353.027	80.7205	353.027	81.5611	353.027	80.7645	353.027	81.5457	353.027	80.8659	353.027	81.4342	353.027	81.0377	353.027	81.2472
366.211	82.5267	366.211	82.428	366.211	82.5563	366.211	82.2509	366.211	82.5284	366.211	81.9973	366.211	82.4464	366.211	81.6826	366.211	82.3052	366.211	81.3342	366.211	82.1019	366.211	80.9903	366.211	81.8489	366.211	80.698	366.211	81.5777	366.211	80.5064	366.211	81.3276	366.211	80.4486	366.211	81.131	366.211	80.5212	366.211	81.0031	366.211	80.6805	366.211	80.9441	366.211	80.865	366.211	80.9448	366.211	81.0244	366.211	80.9886	366.211	81.1333	366.211	81.0498	366.211	81.1874	366.211	81.1011	366.211	81.1959	366.211	81.1286	366.211	81.1777	366.211	81.1406	366.211	81.1549
379.395	82.518	379.395	82.514	379.395	82.4425	379.395	82.4302	379.395	82.2952	379.395	82.2646	379.395	82.0977	379.395	82.0146	379.395	81.8773	379.395	81.6887	379.395	81.6501	379.395	81.3206	379.395	81.4109	379.395	80.9639	379.395	81.1473	379.395	80.6651	379.395	80.8656	379.395	80.4391	379.395	80.6098	379.395	80.2805	379.395	80.4485	379.395	80.1991	379.395	80.4298	379.395	80.235	379.395	80.5397	379.395	80.421	379.395	80.7152	379.395	80.7237	379.395	80.8944	379.395	81.0433	379.395	81.0488	379.395	81.2778	379.395	81.1792	379.395	81.3818	379.395	81.291	379.395	81.3711
392.578	82.4642	392.578	82.4065	392.578	82.4393	392.578	82.2861	392.578	82.3187	392.578	82.1189	392.578	82.1044	392.578	81.9118	392.578	81.8182	392.578	81.6676	392.578	81.4959	392.578	81.3996	392.578	81.1728	392.578	81.1452	392.578	80.8685	392.578	80.9591	392.578	80.5866	392.578	80.8741	392.578	80.3345	392.578	80.8633	392.578	80.1418	392.578	80.8523	392.578	80.0541	392.578	80.778	392.578	80.1003	392.578	80.6394	392.578	80.2582	392.578	80.4991	392.578	80.4572	392.578	80.431	392.578	80.6199	392.578	80.4567	392.578	80.7021	392.578	80.5411	392.578	80.6998	392.578	80.6353
405.762	82.0186	405.762	81.9344	405.762	82.0502	405.762	81.8089	405.762	82.0253	405.762	81.6508	405.762	81.9506	405.762	81.4613	405.762	81.8298	405.762	81.2379	405.762	81.6491	405.762	80.9844	405.762	81.3843	405.762	80.7265	405.762	81.0323	405.762	80.5242	405.762	80.6384	405.762	80.4539	405.762	80.2916	405.762	80.5449	405.762	80.0741	405.762	80.7353	405.762	80.002	405.762	80.9125	405.762	80.0274	405.762	80.9934	405.762	80.0994	405.762	80.9608	405.762	80.1987	405.762	80.8531	405.762	80.3165	405.762	80.7293	405.762	80.4301	405.762	80.6337	405.762	80.5147	405.762	80.572
420.41	81.7604	420.41	81.6539	420.41	81.7816	420.41	81.4859	420.41	81.6924	420.41	81.2715	420.41	81.4904	420.41	81.0283	420.41	81.2185	420.41	80.788	420.41	80.9585	420.41	80.5867	420.41	80.7822	420.41	80.4379	420.41	80.6942	420.41	80.3259	420.41	80.6336	420.41	80.241	420.41	80.5359	420.41	80.2068	420.41	80.3871	420.41	80.2566	420.41	80.2299	420.41	80.3909	420.41	80.1314	420.41	80.5792	420.41	80.1464	420.41	80.7915	420.41	80.2965	420.41	81.0058	420.41	80.5589	420.41	81.1905	420.41	80.8663	420.41	81.2983	420.41	81.1314	420.41	81.2844
435.059	81.2712	435.059	81.2173	435.059	81.2612	435.059	81.0901	435.059	81.2007	435.059	80.8932	435.059	81.0884	435.059	80.6386	435.059	80.9091	435.059	80.3463	435.059	80.6595	435.059	80.0538	435.059	80.3753	435.059	79.8174	435.059	80.1256	435.059	79.6943	435.059	79.9693	435.059	79.7304	435.059	79.9147	435.059	79.9614	435.059	79.9423	435.059	80.3888	435.059	80.0604	435.059	80.9357	435.059	80.3079	435.059	81.4578	435.059	80.6881	435.059	81.8223	435.059	81.1215	435.059	81.9795	435.059	81.4886	435.059	81.9759	435.059	81.715	435.059	81.9093	435.059	81.8129	435.059	81.8553
451.172	82.9701	451.172	82.7311	451.172	82.9869	451.172	82.2732	451.172	82.7942	451.172	81.6288	451.172	82.4199	451.172	80.8814	451.172	81.9084	451.172	80.172	451.172	81.3207	451.172	79.6515	451.172	80.7251	451.172	79.3913	451.172	80.187	451.172	79.3491	451.172	79.7813	451.172	79.4422	451.172	79.6148	451.172	79.6367	451.172	79.78	451.172	79.9626	451.172	80.2403	451.172	80.4567	451.172	80.8139	451.172	81.0848	451.172	81.3071	451.172	81.7267	451.172	81.6316	451.172	82.2377	451.172	81.8218	451.172	82.5184	451.172	81.9773	451.172	82.5497	451.172	82.1735	451.172	82.3965
465.82	83.3322	465.82	83.321	465.82	83.272	465.82	83.2131	465.82	83.1461	465.82	82.9617	465.82	82.9408	465.82	82.5086	465.82	82.6239	465.82	81.8146	465.82	82.1549	465.82	80.9114	465.82	81.5096	465.82	79.9598	465.82	80.7201	465.82	79.2427	465.82	79.9152	465.82	78.983	465.82	79.3128	465.82	79.1406	465.82	79.0963	465.82	79.5277	465.82	79.2639	465.82	80.0278	465.82	79.6842	465.82	80.6043	465.82	80.2541	465.82	81.2055	465.82	80.9125	465.82	81.7444	465.82	81.5684	465.82	82.1525	465.82	82.099	465.82	82.4089	465.82	82.4159	465.82	82.5069
483.398	83.4872	483.398	83.3105	483.398	83.5465	483.398	83.0247	483.398	83.4747	483.398	82.636	483.398	83.2592	483.398	82.1547	483.398	82.9007	483.398	81.5948	483.398	82.4178	483.398	80.9715	483.398	81.8372	483.398	80.313	483.398	81.1761	483.398	79.6938	483.398	80.4414	483.398	79.2504	483.398	79.676	483.398	79.1083	483.398	79.0257	483.398	79.2711	483.398	78.7222	483.398	79.6512	483.398	78.8998	483.398	80.1854	483.398	79.4481	483.398	80.8249	483.398	80.1307	483.398	81.4511	483.398	80.7705	483.398	81.9028	483.398	81.3003	483.398	82.0816	483.398	81.7141	483.398	81.9951
499.512	83.8881	499.512	83.6697	499.512	83.9893	499.512	83.3787	499.512	83.9303	499.512	83.0121	499.512	83.703	499.512	82.5149	499.512	83.3259	499.512	81.8397	499.512	82.8157	499.512	81.0157	499.512	82.1747	499.512	80.1614	499.512	81.4076	499.512	79.4259	499.512	80.5605	499.512	78.9207	499.512	79.7558	499.512	78.7235	499.512	79.1885	499.512	78.896	499.512	79.0413	499.512	79.4212	499.512	79.3418	499.512	80.1542	499.512	79.93	499.512	80.8975	499.512	80.5879	499.512	81.4972	499.512	81.1605	499.512	81.8767	499.512	81.5849	499.512	82.034	499.512	81.8629	499.512	82.0147
517.09	83.881	517.09	83.8745	517.09	83.7949	517.09	83.7198	517.09	83.657	517.09	83.3859	517.09	83.4704	517.09	82.8838	517.09	83.1989	517.09	82.2328	517.09	82.7841	517.09	81.4147	517.09	82.1847	517.09	80.3965	517.09	81.4157	517.09	79.2642	517.09	80.5581	517.09	78.3571	517.09	79.7412	517.09	78.0606	517.09	79.1226	517.09	78.3084	517.09	78.8478	517.09	78.7304	517.09	78.9523	517.09	79.1495	517.09	79.3091	517.09	79.602	517.09	79.7394	517.09	80.0984	517.09	80.1404	517.09	80.5348	517.09	80.4824	517.09	80.8009	517.09	80.7385	517.09	80.8608
536.133	84.006	536.133	83.8839	536.133	83.983	536.133	83.6231	536.133	83.8192	536.133	83.2426	536.133	83.5262	536.133	82.7611	536.133	83.1224	536.133	82.1842	536.133	82.621	536.133	81.5088	536.133	82.0021	536.133	80.7319	536.133	81.2156	536.133	79.8602	536.133	80.2564	536.133	78.9558	536.133	79.2672	536.133	78.2078	536.133	78.5022	536.133	77.9056	536.133	78.091	536.133	78.2076	536.133	78.0092	536.133	78.9542	536.133	78.3115	536.133	79.8156	536.133	79.0105	536.133	80.5146	536.133	79.837	536.133	80.9207	536.133	80.485	536.133	81.0575	536.133	80.8587	536.133	81.0249
555.176	83.9977	555.176	83.9163	555.176	84.027	555.176	83.7872	555.176	83.9781	555.176	83.5712	555.176	83.8216	555.176	83.1889	555.176	83.5344	555.176	82.5649	555.176	83.1128	555.176	81.6809	555.176	82.5756	555.176	80.5936	555.176	81.9384	555.176	79.4201	555.176	81.1902	555.176	78.3408	555.176	80.3254	555.176	77.6315	555.176	79.4391	555.176	77.5467	555.176	78.7905	555.176	78.0246	555.176	78.6292	555.176	78.76	555.176	78.9167	555.176	79.5253	555.176	79.4301	555.176	80.2046	555.176	79.9926	555.176	80.709	555.176	80.492	555.176	80.9829	555.176	80.8506	555.176	81.023
574.219	84.237	574.219	83.9743	574.219	84.3462	574.219	83.6351	574.219	84.2058	574.219	83.233	574.219	83.7986	574.219	82.7732	574.219	83.221	574.219	82.2841	574.219	82.6135	574.219	81.7544	574.219	82.0294	574.219	81.101	574.219	81.3786	574.219	80.2652	574.219	80.5207	574.219	79.3396	574.219	79.4265	574.219	78.5674	574.219	78.2986	574.219	78.1734	574.219	77.5267	574.219	78.2288	574.219	77.4427	574.219	78.6721	574.219	78.0821	574.219	79.3502	574.219	79.1245	574.219	80.0628	574.219	80.1165	574.219	80.6372	574.219	80.7731	574.219	80.9882	574.219	81.0717	574.219	81.124
594.727	84.1227	594.727	84.1668	594.727	83.993	594.727	84.0142	594.727	83.8544	594.727	83.6313	594.727	83.7016	594.727	83.0916	594.727	83.4847	594.727	82.4738	594.727	83.1411	594.727	81.7497	594.727	82.6001	594.727	80.8089	594.727	81.8173	594.727	79.6196	594.727	80.8322	594.727	78.415	594.727	79.7494	594.727	77.6528	594.727	78.6188	594.727	77.5303	594.727	77.4377	594.727	77.8293	594.727	76.4692	594.727	78.3842	594.727	76.4041	594.727	79.1347	594.727	77.3705	594.727	79.8479	594.727	78.5481	594.727	80.235	594.727	79.3629	594.727	80.2448	594.727	79.7929	594.727	80.052
615.234	84.0817	615.234	83.9959	615.234	84.0905	615.234	83.8145	615.234	84.0155	615.234	83.5203	615.234	83.8005	615.234	83.1147	615.234	83.3727	615.234	82.6131	615.234	82.7375	615.234	82.0017	615.234	82.001	615.234	81.2187	615.234	81.2281	615.234	80.2341	615.234	80.3506	615.234	79.1317	615.234	79.3198	615.234	78.0907	615.234	78.2829	615.234	77.3871	615.234	77.5321	615.234	77.3957	615.234	77.2481	615.234	78.1424	615.234	77.4274	615.234	79.0919	615.234	78.0058	615.234	79.8149	615.234	78.8056	615.234	80.2565	615.234	79.5878	615.234	80.4822	615.234	80.1758	615.234	80.4755
637.207	83.8772	637.207	83.7111	637.207	83.9677	637.207	83.4733	637.207	83.9178	637.207	83.1231	637.207	83.6789	637.207	82.6506	637.207	83.2696	637.207	82.0777	637.207	82.7477	637.207	81.4117	637.207	82.1523	637.207	80.6535	637.207	81.4629	637.207	79.8145	637.207	80.606	637.207	78.8934	637.207	79.5418	637.207	77.9686	637.207	78.3646	637.207	77.3557	637.207	77.2731	637.207	77.3242	637.207	76.538	637.207	77.7211	637.207	76.5728	637.207	78.327	637.207	77.5018	637.207	79.0403	637.207	78.7394	637.207	79.6705	637.207	79.6413	637.207	80.0314	637.207	80.0465	637.207	80.1349
659.18	83.8029	659.18	83.6716	659.18	83.7921	659.18	83.4016	659.18	83.6238	659.18	82.9316	659.18	83.3347	659.18	82.2442	659.18	82.9901	659.18	81.4927	659.18	82.6194	659.18	80.814	659.18	82.1682	659.18	80.0372	659.18	81.5044	659.18	78.8664	659.18	80.526	659.18	77.3726	659.18	79.3097	659.18	76.2208	659.18	78.121	659.18	75.892	659.18	77.1343	659.18	76.0873	659.18	76.2591	659.18	76.6919	659.18	75.7299	659.18	77.7416	659.18	76.3597	659.18	78.8105	659.18	77.8265	659.18	79.4224	659.18	78.9592	659.18	79.5369	659.18	79.3994	659.18	79.4795
682.617	84.0017	682.617	83.9977	682.617	83.9347	682.617	83.8866	682.617	83.8071	682.617	83.6507	682.617	83.562	682.617	83.2657	682.617	83.1419	682.617	82.6863	682.617	82.5868	682.617	81.8706	682.617	82.008	682.617	80.8123	682.617	81.4236	682.617	79.5548	682.617	80.6725	682.617	78.173	682.617	79.5599	682.617	76.7588	682.617	78.0565	682.617	75.5204	682.617	76.4365	682.617	75.0546	682.617	75.4088	682.617	75.927	682.617	75.5825	682.617	77.4842	682.617	76.4901	682.617	78.7115	682.617	77.5049	682.617	79.39	682.617	78.5127	682.617	79.7246	682.617	79.3535	682.617	79.7603
707.52	83.8648	707.52	83.6417	707.52	83.8539	707.52	83.3039	707.52	83.6066	707.52	82.9043	707.52	83.3053	707.52	82.447	707.52	83.0845	707.52	81.9749	707.52	82.8474	707.52	81.4484	707.52	82.4141	707.52	80.6563	707.52	81.6855	707.52	79.4192	707.52	80.6315	707.52	77.8713	707.52	79.2779	707.52	76.5943	707.52	77.7682	707.52	76.211	707.52	76.4347	707.52	76.5061	707.52	75.6958	707.52	76.8582	707.52	75.8927	707.52	77.2761	707.52	77.0036	707.52	77.9911	707.52	78.2378	707.52	78.6706	707.52	78.8587	707.52	78.9079	707.52	78.8997	707.52	78.8629
732.422	83.8939	732.422	83.8705	732.422	83.8106	732.422	83.6796	732.422	83.7057	732.422	83.2828	732.422	83.5887	732.422	82.6951	732.422	83.3169	732.422	82.0061	732.422	82.772	732.422	81.2617	732.422	82.0619	732.422	80.3566	732.422	81.4037	732.422	79.1497	732.422	80.7783	732.422	77.6589	732.422	79.8969	732.422	76.035	732.422	78.5455	732.422	74.5676	732.422	76.896	732.422	74.1472	732.422	75.5278	732.422	75.3887	732.422	74.9637	732.422	77.1912	732.422	75.521	732.422	78.4575	732.422	77.0071	732.422	78.9651	732.422	78.4329	732.422	79.0543	732.422	79.101	732.422	79.1379
757.324	83.9646	757.324	83.6496	757.324	84.1702	757.324	83.4278	757.324	84.028	757.324	83.2416	757.324	83.6136	757.324	82.9613	757.324	83.2661	757.324	82.5471	757.324	83.1194	757.324	81.9925	757.324	82.8709	757.324	81.242	757.324	82.2429	757.324	80.1794	757.324	81.287	757.324	78.6531	757.324	80.172	757.324	76.5851	757.324	78.7622	757.324	74.4777	757.324	76.7461	757.324	73.7862	757.324	74.588	757.324	74.6009	757.324	74.297	757.324	75.9416	757.324	75.9612	757.324	77.6929	757.324	77.3337	757.324	79.3088	757.324	77.9823	757.324	79.9898	757.324	78.6599	757.324	79.574
785.156	84.0525	785.156	84.1398	785.156	83.9265	785.156	83.9711	785.156	83.9608	785.156	83.5097	785.156	84.0495	785.156	82.9509	785.156	83.85	785.156	82.5108	785.156	83.239	785.156	82.064	785.156	82.5315	785.156	81.2935	785.156	82.0973	785.156	80.1402	785.156	81.7276	785.156	78.8643	785.156	80.9126	785.156	77.608	785.156	79.5903	785.156	76.1723	785.156	78.1149	785.156	74.7938	785.156	76.5613	785.156	75.0159	785.156	75.0567	785.156	76.8101	785.156	75.002	785.156	78.3721	785.156	76.3605	785.156	79.1508	785.156	77.567	785.156	79.2137	785.156	78.2939	785.156	78.8253
811.523	84.2013	811.523	84.2028	811.523	84.2131	811.523	84.17	811.523	84.1856	811.523	83.9369	811.523	84.0617	811.523	83.4262	811.523	83.8568	811.523	82.74	811.523	83.5942	811.523	82.1565	811.523	83.2555	811.523	81.8003	811.523	82.8018	811.523	81.2863	811.523	82.177	811.523	80.1048	811.523	81.2719	811.523	78.0827	811.523	79.9309	811.523	75.5401	811.523	78.2167	811.523	74.2254	811.523	76.7313	811.523	75.0681	811.523	75.9393	811.523	76.3516	811.523	75.9833	811.523	77.9491	811.523	77.1834	811.523	79.6	811.523	78.6838	811.523	80.4618	811.523	79.7071	811.523	80.3544
840.82	84.9	840.82	84.5588	840.82	84.9759	840.82	84.0662	840.82	84.7697	840.82	83.6281	840.82	84.3691	840.82	83.3181	840.82	83.9844	840.82	82.8333	840.82	83.7314	840.82	81.9646	840.82	83.4415	840.82	80.9792	840.82	82.9152	840.82	80.0956	840.82	82.2186	840.82	79.0481	840.82	81.461	840.82	77.9134	840.82	80.4229	840.82	77.2202	840.82	78.7992	840.82	76.4838	840.82	76.8937	840.82	75.4037	840.82	75.6427	840.82	76.2782	840.82	75.3076	840.82	78.3592	840.82	76.1491	840.82	79.1822	840.82	77.9503	840.82	79.2293	840.82	79.2105	840.82	79.3964
870.117	84.8408	870.117	84.8797	870.117	84.8716	870.117	84.7557	870.117	84.8089	870.117	84.0935	870.117	84.6064	870.117	83.2345	870.117	84.2552	870.117	82.949	870.117	83.6289	870.117	82.9822	870.117	82.9473	870.117	82.45	870.117	82.6083	870.117	81.2888	870.117	82.2886	870.117	80.191	870.117	81.3967	870.117	78.9713	870.117	79.9698	870.117	76.4559	870.117	78.5262	870.117	73.3537	870.117	76.9961	870.117	74.1362	870.117	75.4289	870.117	75.803	870.117	75.2457	870.117	77.1109	870.117	76.6482	870.117	78.7535	870.117	78.1954	870.117	80.0335	870.117	79.4614	870.117	80.2312
900.879	85.8549	900.879	85.5362	900.879	85.7708	900.879	84.8936	900.879	85.5327	900.879	84.4105	900.879	85.322	900.879	84.1965	900.879	85.1268	900.879	83.6843	900.879	84.8246	900.879	82.5949	900.879	84.2995	900.879	81.3592	900.879	83.4933	900.879	80.3619	900.879	82.4296	900.879	79.398	900.879	81.1978	900.879	78.2023	900.879	79.8625	900.879	76.8458	900.879	78.3748	900.879	75.5991	900.879	76.3917	900.879	75.2682	900.879	74.5244	900.879	76.6723	900.879	75.4387	900.879	78.6009	900.879	76.9725	900.879	79.7621	900.879	77.8424	900.879	80.1145	900.879	78.8102	900.879	79.7572
933.105	85.8408	933.105	85.6448	933.105	86.0167	933.105	85.549	933.105	85.7998	933.105	85.108	933.105	85.3542	933.105	84.2337	933.105	84.7904	933.105	83.3314	933.105	83.8929	933.105	82.6454	933.105	82.9724	933.105	82.1716	933.105	82.5965	933.105	81.6154	933.105	82.3471	933.105	80.408	933.105	81.6342	933.105	78.3597	933.105	80.4431	933.105	75.9529	933.105	78.663	933.105	73.758	933.105	76.32	933.105	72.1129	933.105	74.2419	933.105	73.7145	933.105	73.9134	933.105	76.5495	933.105	75.234	933.105	78.1355	933.105	77.1087	933.105	79.0561	933.105	78.8132	933.105	79.5047
965.332	86.0069	965.332	85.9208	965.332	85.6684	965.332	85.3772	965.332	85.3868	965.332	84.9189	965.332	85.2354	965.332	84.5815	965.332	85.1073	965.332	83.9896	965.332	84.8963	965.332	83.2611	965.332	84.1605	965.332	82.5424	965.332	82.9171	965.332	81.5374	965.332	82.0472	965.332	80.3695	965.332	81.5272	965.332	79.4983	965.332	80.5095	965.332	78.1281	965.332	78.835	965.332	75.5165	965.332	76.4915	965.332	73.5378	965.332	73.5146	965.332	73.8844	965.332	73.1586	965.332	75.4723	965.332	75.0658	965.332	77.7405	965.332	76.7602	965.332	78.9726	965.332	77.808	965.332	78.7363
1,000.49	85.6101	1,000.49	85.2527	1,000.49	85.8225	1,000.49	84.8108	1,000.49	85.71	1,000.49	84.2573	1,000.49	85.3146	1,000.49	83.6197	1,000.49	84.5995	1,000.49	82.9045	1,000.49	83.6202	1,000.49	82.3209	1,000.49	82.8683	1,000.49	81.9852	1,000.49	82.4906	1,000.49	81.5748	1,000.49	81.9034	1,000.49	80.8909	1,000.49	80.8938	1,000.49	79.8148	1,000.49	79.779	1,000.49	77.7563	1,000.49	78.1896	1,000.49	74.8841	1,000.49	75.6932	1,000.49	74.8217	1,000.49	73.3656	1,000.49	76.1614	1,000.49	72.9506	1,000.49	76.7679	1,000.49	73.3327	1,000.49	77.5108	1,000.49	74.9834	1,000.49	78.2805	1,000.49	77.3592	1,000.49	78.4724
1,035.64	86.3884	1,035.64	86.0729	1,035.64	86.3148	1,035.64	85.588	1,035.64	85.9094	1,035.64	85.0239	1,035.64	85.3058	1,035.64	84.1884	1,035.64	84.4695	1,035.64	83.787	1,035.64	83.8384	1,035.64	83.5123	1,035.64	83.4672	1,035.64	82.161	1,035.64	82.4111	1,035.64	80.2387	1,035.64	80.7865	1,035.64	79.4674	1,035.64	80.3242	1,035.64	78.9455	1,035.64	80.2609	1,035.64	77.6911	1,035.64	78.875	1,035.64	75.5557	1,035.64	76.7255	1,035.64	72.7618	1,035.64	74.5572	1,035.64	73.6675	1,035.64	72.3801	1,035.64	74.793	1,035.64	72.4774	1,035.64	77.1724	1,035.64	73.3107	1,035.64	79.3628	1,035.64	76.2611	1,035.64	79.0586
1,072.27	85.7128	1,072.27	85.8082	1,072.27	85.2011	1,072.27	85.0707	1,072.27	85.6595	1,072.27	84.8495	1,072.27	85.9696	1,072.27	84.5894	1,072.27	84.8502	1,072.27	83.0803	1,072.27	83.2723	1,072.27	81.8572	1,072.27	82.494	1,072.27	81.4905	1,072.27	82.0242	1,072.27	79.8257	1,072.27	81.3991	1,072.27	78.226	1,072.27	80.7394	1,072.27	78.6318	1,072.27	79.7615	1,072.27	78.0476	1,072.27	78.234	1,072.27	75.9035	1,072.27	76.3338	1,072.27	75.4978	1,072.27	74.4961	1,072.27	75.858	1,072.27	73.0203	1,072.27	76.1007	1,072.27	73.4202	1,072.27	77.5684	1,072.27	76.1366	1,072.27	78.7989	1,072.27	78.4745	1,072.27	79.1893
1,108.89	85.7688	1,108.89	84.4408	1,108.89	86.5294	1,108.89	84.514	1,108.89	85.3659	1,108.89	85.0598	1,108.89	84.0523	1,108.89	84.8518	1,108.89	84.2525	1,108.89	83.6627	1,108.89	84.0939	1,108.89	81.8292	1,108.89	83.4583	1,108.89	80.5421	1,108.89	83.0116	1,108.89	80.3018	1,108.89	81.3687	1,108.89	79.423	1,108.89	79.3467	1,108.89	76.875	1,108.89	79.3126	1,108.89	73.7886	1,108.89	78.6406	1,108.89	70.7821	1,108.89	75.4912	1,108.89	66.0031	1,108.89	69.7425	1,108.89	72.503	1,108.89	62.7439	1,108.89	74.1609	1,108.89	73.1872	1,108.89	73.3276	1,108.89	75.7072	1,108.89	75.1622	1,108.89	76.9181	1,108.89	77.306
1,148.44	85.4721	1,148.44	86.2039	1,148.44	84.2788	1,148.44	84.9234	1,148.44	84.4313	1,148.44	82.9236	1,148.44	85.2896	1,148.44	82.0763	1,148.44	85.4019	1,148.44	82.0892	1,148.44	83.8146	1,148.44	81.9869	1,148.44	81.5138	1,148.44	81.2598	1,148.44	81.1458	1,148.44	80.3929	1,148.44	80.3877	1,148.44	79.1159	1,148.44	79.1337	1,148.44	76.1938	1,148.44	80.1042	1,148.44	74.1591	1,148.44	79.9566	1,148.44	77.9925	1,148.44	76.4328	1,148.44	77.211	1,148.44	74.2274	1,148.44	74.4495	1,148.44	76.0979	1,148.44	77.3303	1,148.44	74.1303	1,148.44	79.5757	1,148.44	67.9181	1,148.44	80.132	1,148.44	74.7283	1,148.44	79.0601
1,189.45	85.4527	1,189.45	84.5392	1,189.45	85.439	1,189.45	84.2663	1,189.45	85.0676	1,189.45	84.6066	1,189.45	85.6628	1,189.45	83.8916	1,189.45	84.7326	1,189.45	81.8114	1,189.45	83.3173	1,189.45	79.6911	1,189.45	83.3079	1,189.45	78.6573	1,189.45	82.3407	1,189.45	77.2905	1,189.45	81.2798	1,189.45	75.9679	1,189.45	81.0747	1,189.45	77.238	1,189.45	79.3787	1,189.45	77.3312	1,189.45	76.625	1,189.45	72.8655	1,189.45	74.503	1,189.45	68.1826	1,189.45	67.433	1,189.45	65.3077	1,189.45	64.2843	1,189.45	62.1933	1,189.45	66.9646	1,189.45	76.2812	1,189.45	69.8469	1,189.45	78.7085	1,189.45	71.8503	1,189.45	75.001
1,230.47	86.0317	1,230.47	85.3686	1,230.47	86.9193	1,230.47	84.7126	1,230.47	87.4484	1,230.47	83.9767	1,230.47	86.3143	1,230.47	83.7062	1,230.47	84.5887	1,230.47	84.154	1,230.47	84.4133	1,230.47	83.7956	1,230.47	84.2864	1,230.47	81.9616	1,230.47	83.5466	1,230.47	79.9415	1,230.47	82.2215	1,230.47	79.2577	1,230.47	80.2363	1,230.47	78.4678	1,230.47	79.3996	1,230.47	75.1283	1,230.47	79.7207	1,230.47	73.5199	1,230.47	77.8999	1,230.47	71.4342	1,230.47	74.402	1,230.47	68.0925	1,230.47	70.0209	1,230.47	71.9984	1,230.47	63.9672	1,230.47	74.2389	1,230.47	63.872	1,230.47	76.4092	1,230.47	71.5257	1,230.47	76.6459
1,274.41	87.4941	1,274.41	87.6066	1,274.41	86.7236	1,274.41	85.107	1,274.41	86.6345	1,274.41	83.308	1,274.41	86.2946	1,274.41	84.8863	1,274.41	85.011	1,274.41	85.0535	1,274.41	83.3626	1,274.41	83.3443	1,274.41	83.4352	1,274.41	82.6588	1,274.41	82.6892	1,274.41	83.1166	1,274.41	80.5032	1,274.41	81.0693	1,274.41	81.3495	1,274.41	77.9767	1,274.41	81.8083	1,274.41	76.3546	1,274.41	78.6359	1,274.41	73.6239	1,274.41	73.2622	1,274.41	75.0664	1,274.41	70.3555	1,274.41	73.0769	1,274.41	69.3674	1,274.41	68.565	1,274.41	69.4352	1,274.41	79.8362	1,274.41	71.881	1,274.41	79.3989	1,274.41	76.6517	1,274.41	76.495
1,319.82	87	1,319.82	86.8992	1,319.82	87.3299	1,319.82	86.42	1,319.82	86.3209	1,319.82	84.6149	1,319.82	85.9896	1,319.82	84.003	1,319.82	86.9552	1,319.82	83.8009	1,319.82	85.7985	1,319.82	81.691	1,319.82	83.1352	1,319.82	79.2465	1,319.82	82.2286	1,319.82	79.489	1,319.82	81.7321	1,319.82	79.3956	1,319.82	80.573	1,319.82	79.4117	1,319.82	78.8521	1,319.82	78.9573	1,319.82	75.1159	1,319.82	75.9334	1,319.82	71.3863	1,319.82	72.2358	1,319.82	72.3588	1,319.82	68.0478	1,319.82	69.4744	1,319.82	65.6833	1,319.82	70.8705	1,319.82	74.2466	1,319.82	76.874	1,319.82	80.0406	1,319.82	75.9514	1,319.82	79.212
1,366.7	86.0779	1,366.7	85.2309	1,366.7	86.6708	1,366.7	84.5262	1,366.7	86.7901	1,366.7	84.2533	1,366.7	85.8157	1,366.7	84.9901	1,366.7	84.7875	1,366.7	84.945	1,366.7	84.8338	1,366.7	82.4513	1,366.7	84.4657	1,366.7	82.5827	1,366.7	82.0017	1,366.7	82.5051	1,366.7	79.4545	1,366.7	79.5757	1,366.7	79.3832	1,366.7	80.3205	1,366.7	80.5806	1,366.7	77.7869	1,366.7	81.1348	1,366.7	74.01	1,366.7	80.1165	1,366.7	75.7077	1,366.7	77.6635	1,366.7	73.9292	1,366.7	74.8458	1,366.7	74.8989	1,366.7	72.9391	1,366.7	77.8835	1,366.7	73.225	1,366.7	79.8103	1,366.7	76.1203	1,366.7	77.9502
1,413.57	86.3098	1,413.57	86.444	1,413.57	86.7527	1,413.57	86.5186	1,413.57	86.0607	1,413.57	85.4309	1,413.57	85.1501	1,413.57	84.5137	1,413.57	84.6715	1,413.57	83.5484	1,413.57	83.4936	1,413.57	82.1781	1,413.57	82.921	1,413.57	81.7987	1,413.57	82.8062	1,413.57	81.8663	1,413.57	81.7188	1,413.57	80.4402	1,413.57	80.6591	1,413.57	77.8064	1,413.57	79.7141	1,413.57	77.6635	1,413.57	77.8951	1,413.57	76.4045	1,413.57	75.4237	1,413.57	69.1718	1,413.57	72.9604	1,413.57	58.2999	1,413.57	68.9255	1,413.57	65.3378	1,413.57	68.9022	1,413.57	72.5688	1,413.57	71.1016	1,413.57	75.046	1,413.57	74.9275	1,413.57	76.1609
1,463.38	85.7705	1,463.38	85.2915	1,463.38	85.4612	1,463.38	85.1479	1,463.38	85.3562	1,463.38	84.6789	1,463.38	85.1352	1,463.38	83.456	1,463.38	83.8243	1,463.38	82.7231	1,463.38	82.9148	1,463.38	81.3622	1,463.38	81.6527	1,463.38	79.2153	1,463.38	79.7909	1,463.38	78.3282	1,463.38	79.0418	1,463.38	78.1549	1,463.38	78.2401	1,463.38	77.1069	1,463.38	78.2493	1,463.38	75.555	1,463.38	78.1604	1,463.38	73.8759	1,463.38	75.4444	1,463.38	70.3344	1,463.38	72.2181	1,463.38	63.7748	1,463.38	68.7091	1,463.38	68.1035	1,463.38	58.9442	1,463.38	71.7191	1,463.38	66.5124	1,463.38	72.1275	1,463.38	73.1608	1,463.38	73.8509
1,516.11	84.372	1,516.11	84.2422	1,516.11	84.4833	1,516.11	83.8272	1,516.11	84.0723	1,516.11	82.9194	1,516.11	83.253	1,516.11	81.9938	1,516.11	82.5442	1,516.11	80.9665	1,516.11	81.9695	1,516.11	79.488	1,516.11	80.6631	1,516.11	78.7171	1,516.11	79.2128	1,516.11	78.8652	1,516.11	78.7136	1,516.11	77.9957	1,516.11	78.299	1,516.11	76.7358	1,516.11	77.2039	1,516.11	75.7851	1,516.11	75.0545	1,516.11	73.0714	1,516.11	74.7257	1,516.11	67.3663	1,516.11	73.7235	1,516.11	62.3677	1,516.11	67.4985	1,516.11	66.8835	1,516.11	61.6539	1,516.11	68.1346	1,516.11	60.9877	1,516.11	72.4641	1,516.11	66.5778	1,516.11	70.698
1,568.85	84.183	1,568.85	83.8436	1,568.85	83.9448	1,568.85	83.3661	1,568.85	83.6023	1,568.85	82.613	1,568.85	83.5197	1,568.85	81.6803	1,568.85	82.5518	1,568.85	80.4228	1,568.85	81.4108	1,568.85	79.1086	1,568.85	80.76	1,568.85	77.1751	1,568.85	79.2502	1,568.85	75.3248	1,568.85	77.7504	1,568.85	75.2846	1,568.85	77.3499	1,568.85	75.0577	1,568.85	76.8023	1,568.85	73.6665	1,568.85	76.1611	1,568.85	69.2966	1,568.85	74.8652	1,568.85	64.7909	1,568.85	73.5401	1,568.85	61.3401	1,568.85	71.9343	1,568.85	66.9114	1,568.85	64.8177	1,568.85	69.355	1,568.85	56.6594	1,568.85	69.4128	1,568.85	66.0989	1,568.85	70.4491
1,624.51	83.8325	1,624.51	83.5738	1,624.51	84.0194	1,624.51	83.0928	1,624.51	83.6783	1,624.51	82.1077	1,624.51	82.9014	1,624.51	81.1519	1,624.51	82.576	1,624.51	80.3169	1,624.51	81.6356	1,624.51	79.0712	1,624.51	79.8809	1,624.51	77.7002	1,624.51	79.0672	1,624.51	76.1413	1,624.51	78.4584	1,624.51	75.4402	1,624.51	77.4852	1,624.51	75.1157	1,624.51	76.622	1,624.51	73.9094	1,624.51	76.2345	1,624.51	71.9123	1,624.51	75.4179	1,624.51	69.6236	1,624.51	73.5109	1,624.51	64.9612	1,624.51	70.8575	1,624.51	65.3332	1,624.51	66.8928	1,624.51	67.1542	1,624.51	65.6982	1,624.51	67.8326	1,624.51	68.3019	1,624.51	69.3612
1,681.64	84.4355	1,681.64	84.4304	1,681.64	84.808	1,681.64	84.1146	1,681.64	84.2797	1,681.64	83.142	1,681.64	83.557	1,681.64	82.2581	1,681.64	83.1969	1,681.64	80.9968	1,681.64	82.1938	1,681.64	79.559	1,681.64	81.2462	1,681.64	78.2557	1,681.64	80.3851	1,681.64	77.3746	1,681.64	78.9	1,681.64	76.4087	1,681.64	76.9744	1,681.64	75.0968	1,681.64	76.2812	1,681.64	73.9306	1,681.64	77.1837	1,681.64	72.2767	1,681.64	76.3539	1,681.64	70.2759	1,681.64	74.249	1,681.64	66.0184	1,681.64	72.6645	1,681.64	59.6106	1,681.64	68.2757	1,681.64	68.8923	1,681.64	66.0041	1,681.64	71.0968	1,681.64	70.1052	1,681.64	70.845
1,741.7	84.9588	1,741.7	84.8398	1,741.7	84.5932	1,741.7	84.2265	1,741.7	84.6395	1,741.7	83.9092	1,741.7	84.2882	1,741.7	83.3393	1,741.7	83.3081	1,741.7	82.2848	1,741.7	82.7463	1,741.7	81.0002	1,741.7	81.9439	1,741.7	79.416	1,741.7	80.67	1,741.7	78.243	1,741.7	79.0294	1,741.7	77.3118	1,741.7	77.6764	1,741.7	76.6233	1,741.7	77.2828	1,741.7	75.8123	1,741.7	76.1481	1,741.7	74.1859	1,741.7	75.2714	1,741.7	72.8298	1,741.7	74.4458	1,741.7	69.6639	1,741.7	70.6922	1,741.7	65.2198	1,741.7	65.5423	1,741.7	68.3471	1,741.7	66.9216	1,741.7	72.4072	1,741.7	71.362	1,741.7	73.1525
1,803.22	83.8325	1,803.22	83.82	1,803.22	83.8148	1,803.22	83.4978	1,803.22	83.5645	1,803.22	82.9359	1,803.22	83.2456	1,803.22	82.5348	1,803.22	82.907	1,803.22	81.9467	1,803.22	82.0294	1,803.22	81.0086	1,803.22	80.978	1,803.22	79.7485	1,803.22	79.9577	1,803.22	78.0864	1,803.22	78.5449	1,803.22	76.9658	1,803.22	76.6687	1,803.22	76.5727	1,803.22	75.2198	1,803.22	75.7585	1,803.22	75.3406	1,803.22	74.6382	1,803.22	75.2612	1,803.22	73.0644	1,803.22	74.1138	1,803.22	69.0946	1,803.22	71.6242	1,803.22	65.864	1,803.22	65.0335	1,803.22	70.4146	1,803.22	61.6253	1,803.22	72.0121	1,803.22	69.6633	1,803.22	72.1286
1,866.21	82.6194	1,866.21	82.7423	1,866.21	82.8859	1,866.21	82.4555	1,866.21	82.7489	1,866.21	81.8473	1,866.21	82.0688	1,866.21	81.4552	1,866.21	81.7223	1,866.21	80.7778	1,866.21	81.1575	1,866.21	79.8819	1,866.21	80.3168	1,866.21	78.7212	1,866.21	79.3805	1,866.21	77.2623	1,866.21	77.8205	1,866.21	76.3047	1,866.21	76.1646	1,866.21	75.2317	1,866.21	75.1301	1,866.21	74.2795	1,866.21	74.3226	1,866.21	74.0619	1,866.21	73.7148	1,866.21	71.575	1,866.21	73.0733	1,866.21	67.9473	1,866.21	70.7645	1,866.21	67.6624	1,866.21	66.0069	1,866.21	69.4018	1,866.21	61.7697	1,866.21	71.6206	1,866.21	68.2521	1,866.21	71.3036
1,932.13	82.8303	1,932.13	82.7757	1,932.13	82.8905	1,932.13	82.6015	1,932.13	82.707	1,932.13	82.2069	1,932.13	82.4327	1,932.13	81.3055	1,932.13	82.1773	1,932.13	80.1929	1,932.13	81.5716	1,932.13	79.1896	1,932.13	81.0151	1,932.13	77.7247	1,932.13	80.131	1,932.13	76.1044	1,932.13	78.4769	1,932.13	74.7999	1,932.13	76.8921	1,932.13	73.9985	1,932.13	75.4359	1,932.13	73.5619	1,932.13	74.4293	1,932.13	72.2721	1,932.13	74.149	1,932.13	69.7493	1,932.13	73.01	1,932.13	65.731	1,932.13	70.5274	1,932.13	65.5271	1,932.13	67.2247	1,932.13	69.703	1,932.13	64.3887	1,932.13	71.2091	1,932.13	66.9622	1,932.13	70.3557
1,999.51	83.8378	1,999.51	83.5291	1,999.51	83.6656	1,999.51	82.9186	1,999.51	83.8616	1,999.51	82.5854	1,999.51	83.7804	1,999.51	81.8224	1,999.51	83.0449	1,999.51	80.7517	1,999.51	82.4793	1,999.51	79.7717	1,999.51	81.9236	1,999.51	78.2729	1,999.51	80.748	1,999.51	75.9188	1,999.51	79.3158	1,999.51	74.1604	1,999.51	77.9311	1,999.51	73.613	1,999.51	76.3459	1,999.51	72.839	1,999.51	75.102	1,999.51	71.6778	1,999.51	74.6292	1,999.51	69.4409	1,999.51	73.4687	1,999.51	63.1627	1,999.51	71.056	1,999.51	63.1327	1,999.51	67.5915	1,999.51	68.2452	1,999.51	65.3669	1,999.51	70.8693	1,999.51	68.2366	1,999.51	70.8462
2,069.82	84.7299	2,069.82	84.4764	2,069.82	84.6883	2,069.82	84.0569	2,069.82	84.4766	2,069.82	83.4962	2,069.82	84.2293	2,069.82	82.7181	2,069.82	83.6063	2,069.82	81.8518	2,069.82	82.9261	2,069.82	80.7153	2,069.82	82.1761	2,069.82	79.16	2,069.82	80.8286	2,069.82	77.8273	2,069.82	79.5273	2,069.82	75.651	2,069.82	78.1497	2,069.82	73.3805	2,069.82	76.2063	2,069.82	73.0738	2,069.82	74.7993	2,069.82	72.6826	2,069.82	74.0964	2,069.82	70.849	2,069.82	73.4405	2,069.82	65.9375	2,069.82	71.6878	2,069.82	59.9688	2,069.82	67.4706	2,069.82	67.58	2,069.82	67.0539	2,069.82	71.523	2,069.82	70.245	2,069.82	71.754
2,143.07	84.8268	2,143.07	84.4171	2,143.07	84.5315	2,143.07	84.2092	2,143.07	84.0943	2,143.07	83.8731	2,143.07	83.8132	2,143.07	82.9131	2,143.07	83.0491	2,143.07	82.0981	2,143.07	82.3781	2,143.07	81.1364	2,143.07	81.538	2,143.07	80.009	2,143.07	80.1818	2,143.07	78.4473	2,143.07	78.9799	2,143.07	75.8421	2,143.07	77.3703	2,143.07	74.2563	2,143.07	75.135	2,143.07	73.9736	2,143.07	73.2595	2,143.07	73.7187	2,143.07	72.7537	2,143.07	72.5931	2,143.07	72.5998	2,143.07	67.617	2,143.07	71.2558	2,143.07	64.6434	2,143.07	67.0357	2,143.07	69.0791	2,143.07	63.8566	2,143.07	72.0616	2,143.07	70.0835	2,143.07	72.586
2,219.24	83.7579	2,219.24	83.5329	2,219.24	83.3551	2,219.24	83.0382	2,219.24	83.1151	2,219.24	82.7518	2,219.24	82.7328	2,219.24	82.146	2,219.24	81.9158	2,219.24	81.215	2,219.24	81.1067	2,219.24	80.1321	2,219.24	80.2148	2,219.24	78.8816	2,219.24	79.1174	2,219.24	77.3855	2,219.24	77.7092	2,219.24	75.6755	2,219.24	75.7993	2,219.24	73.6478	2,219.24	73.6998	2,219.24	73.1869	2,219.24	71.9066	2,219.24	72.8559	2,219.24	70.5464	2,219.24	70.4065	2,219.24	70.6021	2,219.24	67.5804	2,219.24	69.2095	2,219.24	63.8201	2,219.24	64.1714	2,219.24	69.3333	2,219.24	60.7809	2,219.24	71.6252	2,219.24	68.2665	2,219.24	71.633
2,296.88	83.8808	2,296.88	83.6109	2,296.88	84.1012	2,296.88	83.0026	2,296.88	83.9224	2,296.88	82.2222	2,296.88	83.352	2,296.88	81.44	2,296.88	82.8746	2,296.88	80.3772	2,296.88	82.2604	2,296.88	79.5691	2,296.88	81.245	2,296.88	78.8257	2,296.88	79.9939	2,296.88	77.0874	2,296.88	78.4682	2,296.88	74.8717	2,296.88	76.6899	2,296.88	72.845	2,296.88	74.9377	2,296.88	70.7993	2,296.88	73.4547	2,296.88	70.3132	2,296.88	72.1003	2,296.88	70.8146	2,296.88	69.8454	2,296.88	68.8257	2,296.88	67.8802	2,296.88	64.1321	2,296.88	64.5319	2,296.88	67.255	2,296.88	60.606	2,296.88	71.1437	2,296.88	66.3123	2,296.88	70.5752
2,378.91	85.2533	2,378.91	84.9756	2,378.91	85.402	2,378.91	84.1725	2,378.91	85.347	2,378.91	83.214	2,378.91	84.7684	2,378.91	82.4473	2,378.91	84.2932	2,378.91	81.2411	2,378.91	83.5156	2,378.91	79.5328	2,378.91	82.3716	2,378.91	78.3571	2,378.91	81.3287	2,378.91	76.7889	2,378.91	79.9558	2,378.91	74.6465	2,378.91	78.81	2,378.91	72.1635	2,378.91	76.8309	2,378.91	69.0559	2,378.91	73.9522	2,378.91	67.8783	2,378.91	73.7525	2,378.91	68.3915	2,378.91	73.0461	2,378.91	66.0952	2,378.91	68.6064	2,378.91	63.3773	2,378.91	66.5184	2,378.91	68.3638	2,378.91	66.565	2,378.91	69.5365	2,378.91	68.0473	2,378.91	69.673
2,462.4	86.8811	2,462.4	86.664	2,462.4	86.9442	2,462.4	86.3582	2,462.4	86.4134	2,462.4	85.3745	2,462.4	85.8161	2,462.4	84.3057	2,462.4	85.0332	2,462.4	83.2281	2,462.4	83.9066	2,462.4	81.8391	2,462.4	82.9204	2,462.4	80.5195	2,462.4	81.8002	2,462.4	78.9816	2,462.4	80.6912	2,462.4	77.1684	2,462.4	78.7992	2,462.4	74.5045	2,462.4	75.9528	2,462.4	71.8951	2,462.4	74.7326	2,462.4	71.5384	2,462.4	74.3227	2,462.4	69.4429	2,462.4	72.9487	2,462.4	65.0216	2,462.4	69.7932	2,462.4	63.5097	2,462.4	64.8209	2,462.4	68.8089	2,462.4	67.4901	2,462.4	72.0835	2,462.4	72.2921	2,462.4	73.033
2,548.83	86.1111	2,548.83	86.1069	2,548.83	86.3041	2,548.83	86.1218	2,548.83	85.9136	2,548.83	85.3946	2,548.83	85.2815	2,548.83	84.5129	2,548.83	84.5746	2,548.83	83.6605	2,548.83	83.349	2,548.83	82.3911	2,548.83	81.75	2,548.83	80.9739	2,548.83	80.5215	2,548.83	79.7418	2,548.83	79.7723	2,548.83	78.1675	2,548.83	78.4798	2,548.83	75.6811	2,548.83	76.0384	2,548.83	73.3881	2,548.83	72.7997	2,548.83	73.3673	2,548.83	71.5021	2,548.83	72.7559	2,548.83	71.0546	2,548.83	67.9083	2,548.83	70.1539	2,548.83	65.6805	2,548.83	67.5124	2,548.83	69.6286	2,548.83	66.8537	2,548.83	73.4186	2,548.83	71.9605	2,548.83	74.1022
2,639.65	84.8438	2,639.65	84.8051	2,639.65	84.6995	2,639.65	84.8568	2,639.65	84.58	2,639.65	84.5846	2,639.65	84.5287	2,639.65	83.6358	2,639.65	83.9529	2,639.65	82.3244	2,639.65	82.9031	2,639.65	80.8584	2,639.65	81.4105	2,639.65	78.9192	2,639.65	79.7319	2,639.65	77.1613	2,639.65	78.9755	2,639.65	75.6702	2,639.65	78.2623	2,639.65	73.5315	2,639.65	76.3585	2,639.65	72.9553	2,639.65	73.4052	2,639.65	72.0415	2,639.65	69.9251	2,639.65	67.7901	2,639.65	70.2952	2,639.65	57.7776	2,639.65	70.4852	2,639.65	61.9967	2,639.65	66.3538	2,639.65	70.3718	2,639.65	66.5875	2,639.65	72.3815	2,639.65	71.4187	2,639.65	72.25
2,731.93	84.8312	2,731.93	84.8811	2,731.93	84.4997	2,731.93	84.3737	2,731.93	84.8016	2,731.93	84.1462	2,731.93	84.7604	2,731.93	83.4581	2,731.93	84.1915	2,731.93	81.7288	2,731.93	83.6162	2,731.93	80.0145	2,731.93	82.4106	2,731.93	78.5986	2,731.93	80.8265	2,731.93	76.7101	2,731.93	79.6187	2,731.93	73.8622	2,731.93	77.6778	2,731.93	71.7748	2,731.93	75.7452	2,731.93	71.1751	2,731.93	74.6742	2,731.93	68.6964	2,731.93	71.1746	2,731.93	66.0829	2,731.93	69.6226	2,731.93	65.8992	2,731.93	70.5433	2,731.93	64.7658	2,731.93	66.457	2,731.93	69.8102	2,731.93	58.2125	2,731.93	71.4489	2,731.93	67.2683	2,731.93	71.8694
2,828.61	85.9694	2,828.61	85.5798	2,828.61	86.0001	2,828.61	85.2397	2,828.61	85.6988	2,828.61	84.7691	2,828.61	85.2807	2,828.61	83.8842	2,828.61	84.5362	2,828.61	82.58	2,828.61	83.9869	2,828.61	81.1573	2,828.61	83.226	2,828.61	79.5457	2,828.61	81.4739	2,828.61	77.2522	2,828.61	79.854	2,828.61	75.3003	2,828.61	77.9356	2,828.61	73.5928	2,828.61	76.2703	2,828.61	71.1655	2,828.61	75.65	2,828.61	69.0979	2,828.61	72.4722	2,828.61	67.2197	2,828.61	69.9726	2,828.61	64.1346	2,828.61	70.3981	2,828.61	57.1494	2,828.61	65.6963	2,828.61	67.2599	2,828.61	61.213	2,828.61	70.8552	2,828.61	69.6016	2,828.61	72.8419
2,928.22	86.7413	2,928.22	86.411	2,928.22	86.5894	2,928.22	85.8777	2,928.22	86.1849	2,928.22	85.2196	2,928.22	85.6134	2,928.22	84.4007	2,928.22	84.6968	2,928.22	83.427	2,928.22	84.029	2,928.22	82.0714	2,928.22	83.0357	2,928.22	79.9837	2,928.22	81.2576	2,928.22	78.4752	2,928.22	79.4404	2,928.22	77.5084	2,928.22	78.0348	2,928.22	74.9231	2,928.22	77.0039	2,928.22	71.4541	2,928.22	74.5565	2,928.22	72.2308	2,928.22	71.2632	2,928.22	72.8127	2,928.22	71.7377	2,928.22	68.6622	2,928.22	72.1257	2,928.22	62.0446	2,928.22	67.6475	2,928.22	64.7366	2,928.22	60.9322	2,928.22	70.3999	2,928.22	66.4626	2,928.22	70.1084
3,030.76	86.828	3,030.76	86.4623	3,030.76	86.8984	3,030.76	86.0821	3,030.76	86.3977	3,030.76	85.4202	3,030.76	85.5762	3,030.76	84.4749	3,030.76	84.6684	3,030.76	83.6544	3,030.76	83.9543	3,030.76	82.2768	3,030.76	83.0334	3,030.76	79.9877	3,030.76	81.4789	3,030.76	78.8468	3,030.76	79.5655	3,030.76	77.7084	3,030.76	77.8997	3,030.76	75.2152	3,030.76	76.4793	3,030.76	72.3091	3,030.76	75.4025	3,030.76	69.478	3,030.76	73.8121	3,030.76	69.1442	3,030.76	72.6215	3,030.76	65.7388	3,030.76	72.8568	3,030.76	61.5937	3,030.76	67.7424	3,030.76	66.5546	3,030.76	60.2519	3,030.76	72.0151	3,030.76	67.4829	3,030.76	72.5223
3,137.7	86.5139	3,137.7	86.34	3,137.7	86.5138	3,137.7	85.7833	3,137.7	86.027	3,137.7	84.96	3,137.7	85.1315	3,137.7	83.9405	3,137.7	84.3703	3,137.7	83.3121	3,137.7	83.3728	3,137.7	82.2625	3,137.7	82.6728	3,137.7	80.1617	3,137.7	81.8147	3,137.7	78.6868	3,137.7	79.6213	3,137.7	77.6842	3,137.7	78.0461	3,137.7	75.7769	3,137.7	76.813	3,137.7	73.2646	3,137.7	74.8644	3,137.7	71.5991	3,137.7	72.9172	3,137.7	70.8721	3,137.7	69.6847	3,137.7	68.1844	3,137.7	69.7607	3,137.7	62.2857	3,137.7	67.7682	3,137.7	67.5185	3,137.7	61.2957	3,137.7	72.0633	3,137.7	66.8475	3,137.7	71.9067
3,249.02	86.7785	3,249.02	86.2148	3,249.02	87.0294	3,249.02	85.4849	3,249.02	86.3317	3,249.02	84.2304	3,249.02	85.2071	3,249.02	83.0686	3,249.02	84.3299	3,249.02	82.6819	3,249.02	83.1525	3,249.02	81.6057	3,249.02	82.2067	3,249.02	79.9481	3,249.02	81.4078	3,249.02	78.0917	3,249.02	79.6835	3,249.02	76.0105	3,249.02	78.3322	3,249.02	75.0317	3,249.02	77.2974	3,249.02	73.1524	3,249.02	75.1358	3,249.02	70.0681	3,249.02	72.7126	3,249.02	68.5423	3,249.02	69.2192	3,249.02	65.2827	3,249.02	68.5452	3,249.02	59.8259	3,249.02	68.3242	3,249.02	64.6858	3,249.02	63.5566	3,249.02	69.6376	3,249.02	66.7461	3,249.02	70.0136
3,363.28	87.0165	3,363.28	86.6761	3,363.28	87.2365	3,363.28	85.9952	3,363.28	86.7574	3,363.28	84.829	3,363.28	85.5658	3,363.28	83.3434	3,363.28	84.45	3,363.28	82.234	3,363.28	82.8362	3,363.28	80.9502	3,363.28	81.6351	3,363.28	79.6966	3,363.28	81.0479	3,363.28	77.5682	3,363.28	79.1038	3,363.28	74.5641	3,363.28	77.2426	3,363.28	73.4214	3,363.28	76.0455	3,363.28	71.7179	3,363.28	74.55	3,363.28	70.0529	3,363.28	72.7811	3,363.28	69.6446	3,363.28	69.6821	3,363.28	65.5571	3,363.28	69.0765	3,363.28	59.1421	3,363.28	67.7994	3,363.28	65.8568	3,363.28	63.4261	3,363.28	71.2625	3,363.28	65.0667	3,363.28	69.768
3,481.93	86.8398	3,481.93	86.4154	3,481.93	86.5422	3,481.93	85.7542	3,481.93	85.8081	3,481.93	85.1675	3,481.93	85.0845	3,481.93	84.0407	3,481.93	84.4859	3,481.93	82.1285	3,481.93	83.1032	3,481.93	80.4706	3,481.93	81.2787	3,481.93	80.4106	3,481.93	80.0494	3,481.93	78.1641	3,481.93	79.1617	3,481.93	75.8036	3,481.93	77.5009	3,481.93	75.8697	3,481.93	75.847	3,481.93	74.1616	3,481.93	74.5906	3,481.93	72.8423	3,481.93	71.4902	3,481.93	70.2184	3,481.93	66.4347	3,481.93	65.6092	3,481.93	67.823	3,481.93	64.8929	3,481.93	68.2313	3,481.93	68.4898	3,481.93	59.8353	3,481.93	72.1357	3,481.93	68.3186	3,481.93	71.3524
3,604.98	86.4909	3,604.98	85.6181	3,604.98	86.659	3,604.98	84.9794	3,604.98	86.4616	3,604.98	84.1916	3,604.98	85.8012	3,604.98	82.9155	3,604.98	84.3032	3,604.98	81.0577	3,604.98	83.4096	3,604.98	79.9247	3,604.98	82.4323	3,604.98	79.5957	3,604.98	80.8032	3,604.98	76.889	3,604.98	80.2301	3,604.98	74.3384	3,604.98	78.6809	3,604.98	74.6339	3,604.98	76.9611	3,604.98	73.2669	3,604.98	76.0555	3,604.98	70.6753	3,604.98	73.7296	3,604.98	70.3246	3,604.98	70.3995	3,604.98	67.6977	3,604.98	68.1641	3,604.98	66.0063	3,604.98	69.5923	3,604.98	70.2154	3,604.98	64.775	3,604.98	72.4329	3,604.98	68.9155	3,604.98	73.0596
3,732.42	86.4437	3,732.42	85.6633	3,732.42	86.8168	3,732.42	84.9874	3,732.42	86.4861	3,732.42	84.1689	3,732.42	85.2748	3,732.42	83.6678	3,732.42	83.531	3,732.42	82.5577	3,732.42	82.8583	3,732.42	81.3805	3,732.42	81.8472	3,732.42	79.9277	3,732.42	80.0053	3,732.42	77.7818	3,732.42	79.0337	3,732.42	76.1296	3,732.42	77.616	3,732.42	74.6287	3,732.42	76.1301	3,732.42	74.4282	3,732.42	74.7223	3,732.42	71.1839	3,732.42	72.9781	3,732.42	69.8857	3,732.42	70.2385	3,732.42	70.8893	3,732.42	61.8097	3,732.42	67.7634	3,732.42	65.8357	3,732.42	70.0905	3,732.42	66.2347	3,732.42	72.4422	3,732.42	71.5812	3,732.42	74.3461
3,864.26	82.6321	3,864.26	81.8738	3,864.26	82.7565	3,864.26	81.8995	3,864.26	82.1936	3,864.26	82.3071	3,864.26	81.5964	3,864.26	81.4408	3,864.26	80.9648	3,864.26	81.8887	3,864.26	80.964	3,864.26	81.6238	3,864.26	80.8603	3,864.26	78.809	3,864.26	79.8837	3,864.26	79.0239	3,864.26	77.6806	3,864.26	78.2181	3,864.26	76.088	3,864.26	73.5676	3,864.26	75.1236	3,864.26	72.608	3,864.26	73.4252	3,864.26	71.6206	3,864.26	71.9448	3,864.26	67.905	3,864.26	68.7485	3,864.26	70.0629	3,864.26	65.6704	3,864.26	68.5199	3,864.26	67.1427	3,864.26	70.5147	3,864.26	69.5297	3,864.26	74.3777	3,864.26	65.8758	3,864.26	72.6609
4,000.49	81.0867	4,000.49	81.7247	4,000.49	80.6548	4,000.49	82.5471	4,000.49	82.1988	4,000.49	83.5271	4,000.49	83.4342	4,000.49	83.809	4,000.49	84.3551	4,000.49	82.4109	4,000.49	84.1032	4,000.49	81.5679	4,000.49	82.8995	4,000.49	81.7608	4,000.49	81.8024	4,000.49	79.3949	4,000.49	80.0692	4,000.49	76.5473	4,000.49	78.8683	4,000.49	73.9752	4,000.49	77.2355	4,000.49	72.1906	4,000.49	73.9734	4,000.49	72.3795	4,000.49	73.1315	4,000.49	68.2915	4,000.49	71.9953	4,000.49	63.0215	4,000.49	70.0192	4,000.49	66.9059	4,000.49	71.156	4,000.49	70.93	4,000.49	69.2287	4,000.49	75.4082	4,000.49	70.7617	4,000.49	74.3492
4,141.11	82.2138	4,141.11	84.0286	4,141.11	82.1967	4,141.11	85.4158	4,141.11	83.5531	4,141.11	86.0396	4,141.11	85.6936	4,141.11	86.449	4,141.11	87.0795	4,141.11	85.4836	4,141.11	86.8009	4,141.11	84.0017	4,141.11	86.0437	4,141.11	82.9151	4,141.11	84.1326	4,141.11	80.8511	4,141.11	81.5104	4,141.11	78.3747	4,141.11	79.3256	4,141.11	75.6682	4,141.11	76.8556	4,141.11	74.024	4,141.11	74.2326	4,141.11	74.0714	4,141.11	70.4467	4,141.11	69.9795	4,141.11	69.6995	4,141.11	68.0286	4,141.11	69.3464	4,141.11	68.641	4,141.11	70.2763	4,141.11	72.6803	4,141.11	62.5694	4,141.11	75.7026	4,141.11	67.3988	4,141.11	75.2704
4,287.6	83.4073	4,287.6	84.4107	4,287.6	83.4723	4,287.6	85.9586	4,287.6	84.6287	4,287.6	86.6922	4,287.6	86.2873	4,287.6	86.8886	4,287.6	87.3515	4,287.6	86.4922	4,287.6	87.6689	4,287.6	84.4293	4,287.6	86.6497	4,287.6	82.0906	4,287.6	84.2601	4,287.6	80.8223	4,287.6	82.1161	4,287.6	78.1953	4,287.6	80.0005	4,287.6	74.0721	4,287.6	78.1922	4,287.6	72.2123	4,287.6	75.2418	4,287.6	73.8029	4,287.6	69.2192	4,287.6	71.8469	4,287.6	67.2892	4,287.6	64.0484	4,287.6	63.9151	4,287.6	67.834	4,287.6	61.3427	4,287.6	72.172	4,287.6	63.055	4,287.6	74.6434	4,287.6	64.4949	4,287.6	72.5975
4,438.48	85.0234	4,438.48	85.1509	4,438.48	85.588	4,438.48	85.9116	4,438.48	86.1319	4,438.48	86.5867	4,438.48	86.6304	4,438.48	86.8574	4,438.48	86.7034	4,438.48	86.001	4,438.48	86.2379	4,438.48	84.4963	4,438.48	85.1708	4,438.48	82.4204	4,438.48	83.9526	4,438.48	80.0541	4,438.48	81.8914	4,438.48	78.801	4,438.48	79.5322	4,438.48	75.9854	4,438.48	77.6677	4,438.48	71.1354	4,438.48	75.5561	4,438.48	69.9035	4,438.48	72.753	4,438.48	69.902	4,438.48	69.0443	4,438.48	66.6712	4,438.48	61.9797	4,438.48	57.3167	4,438.48	61.5867	4,438.48	68.8157	4,438.48	62.2296	4,438.48	72.8801	4,438.48	66.0496	4,438.48	72.9858
4,595.21	85.439	4,595.21	85.3847	4,595.21	85.7309	4,595.21	86.0883	4,595.21	85.8665	4,595.21	86.7442	4,595.21	85.5253	4,595.21	86.1451	4,595.21	84.7819	4,595.21	84.5699	4,595.21	84.4911	4,595.21	83.7204	4,595.21	84.5162	4,595.21	82.6341	4,595.21	83.4495	4,595.21	81.0313	4,595.21	82.1362	4,595.21	79.433	4,595.21	79.9241	4,595.21	76.2527	4,595.21	77.4563	4,595.21	72.6322	4,595.21	76.6883	4,595.21	71.8849	4,595.21	74.0044	4,595.21	66.0766	4,595.21	72.4733	4,595.21	63.8531	4,595.21	68.1886	4,595.21	63.5919	4,595.21	61.8285	4,595.21	63.5069	4,595.21	63.7856	4,595.21	73.3061	4,595.21	61.8583	4,595.21	72.976
4,756.35	85.9854	4,756.35	85.2358	4,756.35	86.6006	4,756.35	85.869	4,756.35	86.0034	4,756.35	85.4179	4,756.35	86.2641	4,756.35	84.4358	4,756.35	86.3997	4,756.35	84.3888	4,756.35	86.0025	4,756.35	83.093	4,756.35	85.1909	4,756.35	81.1967	4,756.35	83.9153	4,756.35	80.8905	4,756.35	82.654	4,756.35	77.7417	4,756.35	80.653	4,756.35	74.6368	4,756.35	79.476	4,756.35	74.5587	4,756.35	78.1052	4,756.35	72.1397	4,756.35	73.2063	4,756.35	70.3814	4,756.35	71.4446	4,756.35	65.937	4,756.35	69.6774	4,756.35	68.0867	4,756.35	54.5981	4,756.35	67.2118	4,756.35	67.2294	4,756.35	74.1532	4,756.35	66.0757	4,756.35	74.6577
4,924.8	85.4983	4,924.8	84.8311	4,924.8	86.0245	4,924.8	85.0213	4,924.8	84.7928	4,924.8	84.0873	4,924.8	85.0456	4,924.8	84.6502	4,924.8	85.9414	4,924.8	86.0417	4,924.8	85.4876	4,924.8	84.4515	4,924.8	84.9287	4,924.8	82.8484	4,924.8	84.1498	4,924.8	82.0173	4,924.8	82.5674	4,924.8	78.3131	4,924.8	80.5176	4,924.8	77.0362	4,924.8	79.2959	4,924.8	76.7653	4,924.8	77.8354	4,924.8	71.2783	4,924.8	75.1341	4,924.8	70.4829	4,924.8	73.8103	4,924.8	69.2989	4,924.8	72.7295	4,924.8	70.0072	4,924.8	62.891	4,924.8	66.6237	4,924.8	67.5365	4,924.8	74.4937	4,924.8	65.1624	4,924.8	75.0956
5,097.66	84.8655	5,097.66	84.521	5,097.66	84.5928	5,097.66	84.2983	5,097.66	84.3436	5,097.66	83.836	5,097.66	84.9046	5,097.66	84.0323	5,097.66	84.2071	5,097.66	84.5297	5,097.66	83.2856	5,097.66	84.0376	5,097.66	83.4179	5,097.66	82.7287	5,097.66	83.121	5,097.66	80.2387	5,097.66	81.909	5,097.66	78.9798	5,097.66	81.1901	5,097.66	76.4721	5,097.66	79.6608	5,097.66	73.0141	5,097.66	77.4348	5,097.66	71.3959	5,097.66	76.2417	5,097.66	69.2869	5,097.66	72.8679	5,097.66	63.5397	5,097.66	70.53	5,097.66	62.9471	5,097.66	67.4976	5,097.66	64.7796	5,097.66	67.8744	5,097.66	74.4626	5,097.66	63.3589	5,097.66	74.2439
5,277.83	86.1532	5,277.83	86.7011	5,277.83	85.7444	5,277.83	85.2392	5,277.83	85.8101	5,277.83	85.5323	5,277.83	84.2556	5,277.83	85.6019	5,277.83	83.2805	5,277.83	82.6237	5,277.83	83.9893	5,277.83	83.1659	5,277.83	84.5951	5,277.83	83.6748	5,277.83	84.0503	5,277.83	79.2501	5,277.83	82.4711	5,277.83	78.1786	5,277.83	81.4984	5,277.83	79.2958	5,277.83	78.8392	5,277.83	74.3798	5,277.83	76.4011	5,277.83	72.0705	5,277.83	75.6288	5,277.83	72.9687	5,277.83	71.5084	5,277.83	69.948	5,277.83	70.5868	5,277.83	69.211	5,277.83	68.4051	5,277.83	59.4403	5,277.83	68.9491	5,277.83	74.2553	5,277.83	62.367	5,277.83	75.359
5,463.87	85.8407	5,463.87	85.6217	5,463.87	86.419	5,463.87	84.3053	5,463.87	85.8918	5,463.87	84.3729	5,463.87	84.0476	5,463.87	84.1777	5,463.87	85.0703	5,463.87	82.8853	5,463.87	85.6261	5,463.87	82.5974	5,463.87	84.8604	5,463.87	82.7725	5,463.87	84.3878	5,463.87	81.5356	5,463.87	82.7871	5,463.87	79.7154	5,463.87	80.4396	5,463.87	78.8291	5,463.87	78.7395	5,463.87	75.4202	5,463.87	78.1033	5,463.87	70.6385	5,463.87	75.9056	5,463.87	72.4017	5,463.87	71.5823	5,463.87	71.313	5,463.87	71.1019	5,463.87	71.2681	5,463.87	67.6991	5,463.87	65.2449	5,463.87	68.6959	5,463.87	74.079	5,463.87	60.6604	5,463.87	74.6237
5,657.23	85.4023	5,657.23	84.521	5,657.23	85.8891	5,657.23	85.1494	5,657.23	85.0111	5,657.23	84.6919	5,657.23	85.1878	5,657.23	84.7483	5,657.23	85.279	5,657.23	86.0501	5,657.23	84.0589	5,657.23	83.6716	5,657.23	84.436	5,657.23	80.5853	5,657.23	84.3482	5,657.23	81.7854	5,657.23	81.6917	5,657.23	80.0636	5,657.23	80.7244	5,657.23	76.0772	5,657.23	79.4757	5,657.23	76.1759	5,657.23	77.9556	5,657.23	73.5456	5,657.23	75.7868	5,657.23	68.9143	5,657.23	71.108	5,657.23	63.9529	5,657.23	70.7434	5,657.23	65.712	5,657.23	68.9556	5,657.23	56.9488	5,657.23	68.5725	5,657.23	75.2602	5,657.23	62.2684	5,657.23	75.1682
5,856.45	86.5441	5,856.45	86.0106	5,856.45	85.4312	5,856.45	86.3425	5,856.45	85.0246	5,856.45	85.7868	5,856.45	86.3749	5,856.45	84.768	5,856.45	84.0735	5,856.45	85.2288	5,856.45	82.9886	5,856.45	84.8865	5,856.45	84.3842	5,856.45	82.6294	5,856.45	82.2759	5,856.45	81.1065	5,856.45	81.5021	5,856.45	80.1609	5,856.45	81.9086	5,856.45	75.4322	5,856.45	78.5249	5,856.45	74.7484	5,856.45	76.1556	5,856.45	74.0964	5,856.45	74.7415	5,856.45	68.9625	5,856.45	72.1868	5,856.45	69.8129	5,856.45	69.4041	5,856.45	62.6797	5,856.45	68.515	5,856.45	61.3644	5,856.45	65.9268	5,856.45	74.671	5,856.45	63.8182	5,856.45	74.6027
6,062.99	86.273	6,062.99	86.9796	6,062.99	86.045	6,062.99	86.5166	6,062.99	86.3192	6,062.99	86.0087	6,062.99	85.6557	6,062.99	85.1472	6,062.99	85.5697	6,062.99	83.5284	6,062.99	86.3602	6,062.99	83.4324	6,062.99	84.2309	6,062.99	82.8561	6,062.99	82.1157	6,062.99	81.6891	6,062.99	83.937	6,062.99	79.4257	6,062.99	82.5814	6,062.99	76.968	6,062.99	79.1899	6,062.99	74.0654	6,062.99	78.1466	6,062.99	68.7395	6,062.99	74.9909	6,062.99	73.2314	6,062.99	71.9965	6,062.99	74.4344	6,062.99	72.7602	6,062.99	62.1764	6,062.99	65.4521	6,062.99	64.2133	6,062.99	67.233	6,062.99	74.8057	6,062.99	56.4029	6,062.99	74.5788
6,276.86	85.2589	6,276.86	85.1669	6,276.86	86.6029	6,276.86	85.5083	6,276.86	86.8324	6,276.86	85.7336	6,276.86	86.3035	6,276.86	85.1329	6,276.86	86.9822	6,276.86	84.2421	6,276.86	86.5584	6,276.86	83.4151	6,276.86	85.0095	6,276.86	83.1491	6,276.86	83.9088	6,276.86	82.1955	6,276.86	82.3756	6,276.86	79.2557	6,276.86	81.2109	6,276.86	78.1623	6,276.86	80.2847	6,276.86	76.4693	6,276.86	78.0714	6,276.86	71.2243	6,276.86	75.7464	6,276.86	71.0755	6,276.86	73.4133	6,276.86	74.4615	6,276.86	72.965	6,276.86	68.642	6,276.86	66.4116	6,276.86	55.7211	6,276.86	59.5861	6,276.86	75.3995	6,276.86	56.9517	6,276.86	73.272
6,498.05	88.8638	6,498.05	88.1488	6,498.05	88.0141	6,498.05	87.8409	6,498.05	87.8765	6,498.05	87.7646	6,498.05	88.8387	6,498.05	86.5647	6,498.05	87.9704	6,498.05	85.8345	6,498.05	86.2535	6,498.05	84.4949	6,498.05	85.8848	6,498.05	82.6799	6,498.05	84.2766	6,498.05	81.0488	6,498.05	81.7134	6,498.05	78.9274	6,498.05	81.8718	6,498.05	75.4468	6,498.05	81.1338	6,498.05	74.5052	6,498.05	77.0373	6,498.05	72.6894	6,498.05	75.655	6,498.05	66.8261	6,498.05	73.9077	6,498.05	68.4322	6,498.05	70.3898	6,498.05	67.6046	6,498.05	70.0224	6,498.05	60.0195	6,498.05	66.7198	6,498.05	74.4936	6,498.05	60.4658	6,498.05	74.8533
6,726.56	88.1869	6,726.56	88.4861	6,726.56	87.6423	6,726.56	87.623	6,726.56	88.2638	6,726.56	87.1977	6,726.56	87.9811	6,726.56	87.137	6,726.56	86.9546	6,726.56	85.7611	6,726.56	86.31	6,726.56	83.5294	6,726.56	84.7083	6,726.56	82.1031	6,726.56	83.0004	6,726.56	80.1414	6,726.56	81.9887	6,726.56	78.8405	6,726.56	80.7916	6,726.56	77.0387	6,726.56	78.3352	6,726.56	74.2178	6,726.56	76.7836	6,726.56	72.929	6,726.56	75.8576	6,726.56	69.0357	6,726.56	73.8951	6,726.56	67.8561	6,726.56	72.7925	6,726.56	67.8065	6,726.56	70.9237	6,726.56	63.5641	6,726.56	69.1993	6,726.56	74.468	6,726.56	57.483	6,726.56	73.539
6,963.87	87.4564	6,963.87	86.5183	6,963.87	88.5527	6,963.87	86.7396	6,963.87	87.6826	6,963.87	85.8714	6,963.87	86.8096	6,963.87	85.8432	6,963.87	86.5004	6,963.87	84.8882	6,963.87	85.6194	6,963.87	81.5968	6,963.87	84.4476	6,963.87	79.3838	6,963.87	82.6184	6,963.87	78.9258	6,963.87	81.5561	6,963.87	77.9164	6,963.87	79.0398	6,963.87	75.6604	6,963.87	75.4331	6,963.87	73.0623	6,963.87	76.0756	6,963.87	68.278	6,963.87	72.6558	6,963.87	68.7033	6,963.87	68.1085	6,963.87	69.4961	6,963.87	72.4453	6,963.87	54.0027	6,963.87	69.0422	6,963.87	51.8939	6,963.87	63.771	6,963.87	74.0647	6,963.87	60.2239	6,963.87	72.5344
7,209.96	89.5666	7,209.96	88.8344	7,209.96	89.467	7,209.96	87.8562	7,209.96	88.3045	7,209.96	86.5423	7,209.96	87.8319	7,209.96	85.109	7,209.96	87.048	7,209.96	84.4497	7,209.96	85.5386	7,209.96	83.7578	7,209.96	84.5695	7,209.96	80.7441	7,209.96	83.7821	7,209.96	78.6722	7,209.96	82.7773	7,209.96	78.5561	7,209.96	79.9428	7,209.96	74.8233	7,209.96	78.954	7,209.96	71.6319	7,209.96	77.167	7,209.96	71.304	7,209.96	72.9161	7,209.96	63.305	7,209.96	70.5435	7,209.96	69.9758	7,209.96	69.5677	7,209.96	63.001	7,209.96	68.9341	7,209.96	61.3549	7,209.96	65.2724	7,209.96	73.5925	7,209.96	57.1843	7,209.96	73.9309
7,464.84	88.5473	7,464.84	88.7614	7,464.84	88.2554	7,464.84	87.658	7,464.84	88.285	7,464.84	86.6687	7,464.84	86.4876	7,464.84	85.6437	7,464.84	85.2836	7,464.84	84.3767	7,464.84	85.123	7,464.84	83.4794	7,464.84	83.6336	7,464.84	82.2817	7,464.84	83.4417	7,464.84	79.4097	7,464.84	81.7823	7,464.84	77.9543	7,464.84	79.2384	7,464.84	76.9852	7,464.84	78.7593	7,464.84	72.6925	7,464.84	74.8301	7,464.84	71.098	7,464.84	72.601	7,464.84	61.9216	7,464.84	70.2976	7,464.84	70.4302	7,464.84	66.3554	7,464.84	63.727	7,464.84	66.0569	7,464.84	58.9318	7,464.84	64.8981	7,464.84	73.0654	7,464.84	64.4217	7,464.84	71.8146
7,727.05	88.8355	7,727.05	88.2855	7,727.05	89.469	7,727.05	87.9823	7,727.05	88.6935	7,727.05	86.4837	7,727.05	87.3822	7,727.05	84.6618	7,727.05	86.8208	7,727.05	83.1908	7,727.05	85.1923	7,727.05	81.8391	7,727.05	83.9535	7,727.05	81.0936	7,727.05	83.0007	7,727.05	79.1651	7,727.05	79.8897	7,727.05	77.3669	7,727.05	79.6884	7,727.05	76.6381	7,727.05	79.0959	7,727.05	73.6204	7,727.05	76.6508	7,727.05	72.4138	7,727.05	74.8967	7,727.05	67.5183	7,727.05	71.1495	7,727.05	67.6497	7,727.05	65.8532	7,727.05	63.6844	7,727.05	69.0321	7,727.05	60.1328	7,727.05	67.0645	7,727.05	72.2289	7,727.05	64.2278	7,727.05	71.0709
7,999.51	89.822	7,999.51	88.9016	7,999.51	89.6631	7,999.51	88.1625	7,999.51	88.7391	7,999.51	86.3262	7,999.51	88.3416	7,999.51	84.2495	7,999.51	86.3257	7,999.51	82.1149	7,999.51	83.7681	7,999.51	80.5479	7,999.51	82.9777	7,999.51	80.1179	7,999.51	80.1041	7,999.51	78.2072	7,999.51	79.2171	7,999.51	76.8566	7,999.51	79.9528	7,999.51	76.2649	7,999.51	78.112	7,999.51	74.4007	7,999.51	77.2304	7,999.51	69.731	7,999.51	75.0343	7,999.51	68.0471	7,999.51	71.6909	7,999.51	59.6946	7,999.51	67.6322	7,999.51	64.0581	7,999.51	67.3238	7,999.51	60.2238	7,999.51	67.7391	7,999.51	70.3555	7,999.51	64.3323	7,999.51	71.6667
8,282.23	89.1303	8,282.23	88.7111	8,282.23	89.282	8,282.23	87.6559	8,282.23	88.7867	8,282.23	86.3229	8,282.23	87.9118	8,282.23	84.4815	8,282.23	86.523	8,282.23	81.853	8,282.23	85.0403	8,282.23	80.7747	8,282.23	83.592	8,282.23	78.4841	8,282.23	81.7562	8,282.23	77.0233	8,282.23	80.6148	8,282.23	76.254	8,282.23	78.6714	8,282.23	73.3148	8,282.23	76.6588	8,282.23	72.3546	8,282.23	76.3063	8,282.23	70.5772	8,282.23	74.1768	8,282.23	64.2422	8,282.23	70.1467	8,282.23	64.5657	8,282.23	65.6241	8,282.23	58.9971	8,282.23	65.4854	8,282.23	59.0573	8,282.23	65.6828	8,282.23	70.8681	8,282.23	62.5863	8,282.23	69.6
8,573.73	88.8115	8,573.73	87.7676	8,573.73	88.9394	8,573.73	87.0254	8,573.73	88.1502	8,573.73	85.6486	8,573.73	87.6116	8,573.73	83.6233	8,573.73	86.0777	8,573.73	82.3776	8,573.73	83.7893	8,573.73	80.2943	8,573.73	82.0301	8,573.73	76.3401	8,573.73	79.6029	8,573.73	76.0437	8,573.73	78.759	8,573.73	74.6295	8,573.73	76.7734	8,573.73	71.3857	8,573.73	74.0619	8,573.73	71.5465	8,573.73	72.8489	8,573.73	68.5727	8,573.73	68.9916	8,573.73	65.6084	8,573.73	68.7956	8,573.73	60.6609	8,573.73	65.0745	8,573.73	58.1998	8,573.73	63.8788	8,573.73	58.3172	8,573.73	64.7794	8,573.73	68.6894	8,573.73	63.9093	8,573.73	68.5975
8,876.95	88.8675	8,876.95	88.0502	8,876.95	88.8815	8,876.95	87.1965	8,876.95	88.409	8,876.95	85.7889	8,876.95	88.0445	8,876.95	82.9936	8,876.95	86.3815	8,876.95	80.4513	8,876.95	83.6706	8,876.95	78.1591	8,876.95	81.0005	8,876.95	75.8558	8,876.95	79.6707	8,876.95	75.2272	8,876.95	78.4234	8,876.95	73.3446	8,876.95	75.8297	8,876.95	70.7412	8,876.95	74.8967	8,876.95	68.4733	8,876.95	71.5556	8,876.95	66.5446	8,876.95	70.0989	8,876.95	63.6841	8,876.95	68.5167	8,876.95	64.8415	8,876.95	60.6564	8,876.95	61.2246	8,876.95	61.826	8,876.95	59.7859	8,876.95	61.0969	8,876.95	68.8299	8,876.95	59.098	8,876.95	68.0057
9,188.96	88.2455	9,188.96	87.5002	9,188.96	88.2203	9,188.96	86.3476	9,188.96	87.5475	9,188.96	84.8081	9,188.96	86.5912	9,188.96	83.2526	9,188.96	85.0348	9,188.96	80.5972	9,188.96	83.3436	9,188.96	77.942	9,188.96	81.5648	9,188.96	77.3484	9,188.96	78.8651	9,188.96	74.27	9,188.96	75.4399	9,188.96	70.8444	9,188.96	73.8456	9,188.96	70.4739	9,188.96	73.0585	9,188.96	67.8315	9,188.96	70.6114	9,188.96	66.7649	9,188.96	68.6356	9,188.96	63.6927	9,188.96	67.9003	9,188.96	65.4347	9,188.96	65.4383	9,188.96	59.3113	9,188.96	63.8923	9,188.96	61.0616	9,188.96	61.8985	9,188.96	67.4967	9,188.96	59.7151	9,188.96	64.2504
9,514.16	87.9678	9,514.16	87.5256	9,514.16	88.132	9,514.16	86.342	9,514.16	87.5036	9,514.16	84.2564	9,514.16	86.4255	9,514.16	82.1424	9,514.16	84.8778	9,514.16	79.3555	9,514.16	82.4498	9,514.16	77.2943	9,514.16	79.6458	9,514.16	75.3086	9,514.16	77.3283	9,514.16	72.6118	9,514.16	75.7033	9,514.16	71.2376	9,514.16	74.4562	9,514.16	68.6002	9,514.16	73.1237	9,514.16	65.5916	9,514.16	70.9893	9,514.16	65.4166	9,514.16	68.4529	9,514.16	60.579	9,514.16	67.0949	9,514.16	61.1044	9,514.16	65.2173	9,514.16	58.2518	9,514.16	63.5108	9,514.16	57.6128	9,514.16	63.0437	9,514.16	66.2259	9,514.16	58.2177	9,514.16	64.2161
9,849.61	87.1162	9,849.61	86.7071	9,849.61	87.2455	9,849.61	85.4149	9,849.61	86.7622	9,849.61	83.6816	9,849.61	85.5205	9,849.61	81.4908	9,849.61	83.9832	9,849.61	78.4546	9,849.61	82.1926	9,849.61	76.1113	9,849.61	80.0617	9,849.61	73.6137	9,849.61	76.9488	9,849.61	71.1623	9,849.61	74.3764	9,849.61	69.9026	9,849.61	72.5391	9,849.61	68.6408	9,849.61	70.3604	9,849.61	66.2292	9,849.61	69.5915	9,849.61	62.9416	9,849.61	67.7851	9,849.61	61.7278	9,849.61	65.5273	9,849.61	50.1758	9,849.61	62.4284	9,849.61	55.9564	9,849.61	63.2668	9,849.61	57.8714	9,849.61	60.6779	9,849.61	64.7668	9,849.61	59.7894	9,849.61	62.071
10,196.8	86.7982	10,196.8	86.3961	10,196.8	86.7386	10,196.8	84.6321	10,196.8	86.4291	10,196.8	82.506	10,196.8	85.3078	10,196.8	80.9541	10,196.8	83.5529	10,196.8	78.1933	10,196.8	81.6239	10,196.8	75.0329	10,196.8	78.912	10,196.8	70.2416	10,196.8	76.6002	10,196.8	69.409	10,196.8	75.8047	10,196.8	68.6422	10,196.8	72.4391	10,196.8	64.6127	10,196.8	70.0063	10,196.8	63.3117	10,196.8	69.8083	10,196.8	58.7036	10,196.8	66.4024	10,196.8	62.0721	10,196.8	64.0911	10,196.8	52.7605	10,196.8	62.1309	10,196.8	53.7289	10,196.8	60.9869	10,196.8	57.0514	10,196.8	59.8331	10,196.8	64.0525	10,196.8	61.5561	10,196.8	61.2541
10,555.7	86.7909	10,555.7	85.6179	10,555.7	86.8697	10,555.7	84.1035	10,555.7	86.1543	10,555.7	82.2508	10,555.7	84.7231	10,555.7	79.482	10,555.7	82.9073	10,555.7	76.6191	10,555.7	81.2738	10,555.7	73.5336	10,555.7	79.1482	10,555.7	68.6567	10,555.7	76.5017	10,555.7	69.3596	10,555.7	74.2661	10,555.7	66.6937	10,555.7	71.4162	10,555.7	63.2623	10,555.7	69.2101	10,555.7	63.736	10,555.7	68.1057	10,555.7	57.1997	10,555.7	64.8017	10,555.7	59.7437	10,555.7	61.0212	10,555.7	57.4036	10,555.7	59.2425	10,555.7	49.7756	10,555.7	62.6355	10,555.7	56.744	10,555.7	60.5246	10,555.7	62.3404	10,555.7	63.1344	10,555.7	59.9995
10,927.7	86.543	10,927.7	85.3348	10,927.7	86.5438	10,927.7	83.7702	10,927.7	85.8002	10,927.7	82.0457	10,927.7	84.9388	10,927.7	78.8945	10,927.7	83.0171	10,927.7	75.9689	10,927.7	80.0929	10,927.7	73.1501	10,927.7	77.3782	10,927.7	70.7691	10,927.7	75.7093	10,927.7	68.9344	10,927.7	74.2835	10,927.7	65.8331	10,927.7	71.1857	10,927.7	63.6438	10,927.7	69.6898	10,927.7	61.8376	10,927.7	66.315	10,927.7	59.8063	10,927.7	63.1931	10,927.7	58.3788	10,927.7	61.9421	10,927.7	56.351	10,927.7	57.2506	10,927.7	46.8525	10,927.7	58.7561	10,927.7	52.8764	10,927.7	57.6294	10,927.7	58.8474	10,927.7	61.2412	10,927.7	56.4221
11,313	86.4949	11,313	84.9795	11,313	86.8031	11,313	84.0097	11,313	85.9999	11,313	81.4515	11,313	84.774	11,313	78.3041	11,313	82.7207	11,313	74.7282	11,313	80.1949	11,313	71.5327	11,313	77.4352	11,313	69.8048	11,313	74.6401	11,313	69.3661	11,313	72.0381	11,313	66.9811	11,313	71.4417	11,313	60.8538	11,313	68.9752	11,313	60.6274	11,313	66.1036	11,313	58.4729	11,313	63.6617	11,313	54.6364	11,313	60.6338	11,313	49.8035	11,313	54.982	11,313	47.5118	11,313	58.6328	11,313	51.5082	11,313	54.508	11,313	54.6163	11,313	57.2761	11,313	49.9508
11,712.9	85.77	11,712.9	85.1722	11,712.9	86.235	11,712.9	83.5638	11,712.9	85.4285	11,712.9	80.6165	11,712.9	84.3184	11,712.9	77.9778	11,712.9	82.268	11,712.9	74.7046	11,712.9	79.4906	11,712.9	72.0795	11,712.9	77.3057	11,712.9	67.9762	11,712.9	74.6929	11,712.9	67.9819	11,712.9	73.1523	11,712.9	64.9468	11,712.9	72.0585	11,712.9	61.8147	11,712.9	69.1625	11,712.9	56.8793	11,712.9	65.9597	11,712.9	57.7128	11,712.9	62.9583	11,712.9	54.614	11,712.9	57.9902	11,712.9	47.293	11,712.9	55.6452	11,712.9	52.5291	11,712.9	54.6347	11,712.9	49.9963	11,712.9	53.4746	11,712.9	48.9612	11,712.9	55.1263	11,712.9	50.2704
12,126	85.349	12,126	84.5446	12,126	85.7387	12,126	82.7564	12,126	85.2037	12,126	80.3653	12,126	83.9731	12,126	77.8249	12,126	81.8834	12,126	74.6116	12,126	79.6276	12,126	70.9144	12,126	77.3039	12,126	68.8091	12,126	74.1148	12,126	67.8163	12,126	72.4406	12,126	64.1535	12,126	71.3034	12,126	60.1339	12,126	68.639	12,126	56.6779	12,126	65.2789	12,126	57.1063	12,126	62.4418	12,126	51.9405	12,126	58.3691	12,126	41.2764	12,126	52.746	12,126	54.7464	12,126	53.6369	12,126	35.6402	12,126	51.8691	12,126	48.1447	12,126	52.1589	12,126	45.3886
12,553.7	84.8356	12,553.7	83.9565	12,553.7	85.1235	12,553.7	81.9315	12,553.7	84.7852	12,553.7	79.8464	12,553.7	83.4386	12,553.7	76.9412	12,553.7	81.4927	12,553.7	73.5799	12,553.7	79.3753	12,553.7	70.0482	12,553.7	76.9321	12,553.7	66.141	12,553.7	74.4059	12,553.7	64.155	12,553.7	72.1959	12,553.7	60.7635	12,553.7	69.8501	12,553.7	54.9236	12,553.7	67.4789	12,553.7	51.7502	12,553.7	64.5006	12,553.7	53.437	12,553.7	61.3365	12,553.7	50.7182	12,553.7	56.1129	12,553.7	37.6326	12,553.7	52.4691	12,553.7	52.7971	12,553.7	52.0825	12,553.7	47.4378	12,553.7	51.3988	12,553.7	43.1823	12,553.7	46.3201	12,553.7	47.8636
12,996.1	84.1923	12,996.1	82.8572	12,996.1	84.6808	12,996.1	80.8127	12,996.1	84.1215	12,996.1	78.4364	12,996.1	82.7342	12,996.1	75.0012	12,996.1	80.6596	12,996.1	71.7925	12,996.1	78.138	12,996.1	67.6702	12,996.1	75.8236	12,996.1	64.3401	12,996.1	73.4096	12,996.1	59.2048	12,996.1	70.4189	12,996.1	52.0655	12,996.1	67.0333	12,996.1	52.0951	12,996.1	64.3117	12,996.1	55.2159	12,996.1	60.6753	12,996.1	54.1956	12,996.1	58.5117	12,996.1	44.2081	12,996.1	54.6569	12,996.1	46.7183	12,996.1	52.9515	12,996.1	48.9884	12,996.1	51.501	12,996.1	50.0964	12,996.1	51.6026	12,996.1	49.8447	12,996.1	45.4718	12,996.1	50.6693
13,454.6	83.282	13,454.6	81.8123	13,454.6	83.8393	13,454.6	79.6736	13,454.6	83.3672	13,454.6	76.3652	13,454.6	81.6998	13,454.6	72.4	13,454.6	79.4567	13,454.6	69.3245	13,454.6	76.362	13,454.6	65.2858	13,454.6	73.2668	13,454.6	62.2668	13,454.6	71.2641	13,454.6	61.476	13,454.6	67.5694	13,454.6	63.1285	13,454.6	64.1617	13,454.6	62.1381	13,454.6	62.7289	13,454.6	56.65	13,454.6	60.0092	13,454.6	52.8078	13,454.6	57.7987	13,454.6	42.4293	13,454.6	53.759	13,454.6	48.5741	13,454.6	53.8695	13,454.6	39.324	13,454.6	48.0131	13,454.6	49.9832	13,454.6	49.3772	13,454.6	48.9118	13,454.6	48.3941	13,454.6	48.7597
13,929.2	83.2261	13,929.2	81.4752	13,929.2	83.5626	13,929.2	78.5158	13,929.2	82.6175	13,929.2	73.471	13,929.2	80.5854	13,929.2	66.9865	13,929.2	77.7436	13,929.2	64.8454	13,929.2	73.8195	13,929.2	64.9206	13,929.2	70.1104	13,929.2	64.9459	13,929.2	68.4257	13,929.2	66.6612	13,929.2	65.9998	13,929.2	67.0196	13,929.2	65.1368	13,929.2	64.8108	13,929.2	65.3724	13,929.2	61.7585	13,929.2	62.9616	13,929.2	57.9689	13,929.2	58.9094	13,929.2	54.0929	13,929.2	56.7745	13,929.2	50.2406	13,929.2	57.6738	13,929.2	41.8897	13,929.2	51.3734	13,929.2	51.1151	13,929.2	46.9865	13,929.2	50.5333	13,929.2	47.2039	13,929.2	48.5071
14,419.9	82.6273	14,419.9	80.6294	14,419.9	82.8296	14,419.9	76.9006	14,419.9	81.6999	14,419.9	69.2506	14,419.9	78.9387	14,419.9	60.5089	14,419.9	74.3334	14,419.9	68.6042	14,419.9	70.2922	14,419.9	69.8818	14,419.9	69.2483	14,419.9	69.8431	14,419.9	69.604	14,419.9	68.7403	14,419.9	68.1254	14,419.9	68.5511	14,419.9	67.8314	14,419.9	67.1522	14,419.9	67.7502	14,419.9	62.9483	14,419.9	66.2899	14,419.9	58.5374	14,419.9	62.0264	14,419.9	53.8037	14,419.9	58.2762	14,419.9	51.0564	14,419.9	58.6222	14,419.9	48.7787	14,419.9	54.7923	14,419.9	48.1944	14,419.9	46.4774	14,419.9	52.5077	14,419.9	50.0737	14,419.9	47.5054
14,928.2	81.986	14,928.2	80.3289	14,928.2	82.2651	14,928.2	75.7166	14,928.2	80.8522	14,928.2	64.9128	14,928.2	77.0632	14,928.2	63.4029	14,928.2	69.2618	14,928.2	71.0661	14,928.2	67.1745	14,928.2	73.1631	14,928.2	70.6923	14,928.2	72.3587	14,928.2	72.3782	14,928.2	71.0949	14,928.2	72.275	14,928.2	70.6206	14,928.2	70.938	14,928.2	67.8458	14,928.2	69.7895	14,928.2	65.0936	14,928.2	68.9929	14,928.2	61.5856	14,928.2	65.3174	14,928.2	57.8249	14,928.2	62.23	14,928.2	53.5656	14,928.2	59.4286	14,928.2	50.4146	14,928.2	57.7131	14,928.2	43.1619	14,928.2	50.3363	14,928.2	52.1479	14,928.2	54.3583	14,928.2	49.4299
15,455.6	82.0982	15,455.6	79.7153	15,455.6	82.2476	15,455.6	73.6749	15,455.6	80.0007	15,455.6	42.7786	15,455.6	74.5851	15,455.6	71.0873	15,455.6	65.0656	15,455.6	74.7546	15,455.6	71.0628	15,455.6	75.1019	15,455.6	75.0716	15,455.6	73.553	15,455.6	75.7192	15,455.6	72.4345	15,455.6	74.9057	15,455.6	71.216	15,455.6	72.8597	15,455.6	69.7776	15,455.6	71.334	15,455.6	66.6551	15,455.6	70.3434	15,455.6	64.2629	15,455.6	66.8446	15,455.6	59.4379	15,455.6	63.9877	15,455.6	60.7202	15,455.6	60.7893	15,455.6	54.9077	15,455.6	58.6829	15,455.6	48.4049	15,455.6	42.9802	15,455.6	55.1605	15,455.6	54.8852	15,455.6	45.1423
16,000.5	82.0206	16,000.5	78.8119	16,000.5	81.9949	16,000.5	68.9475	16,000.5	79.1262	16,000.5	69.513	16,000.5	68.721	16,000.5	76.7403	16,000.5	69.0373	16,000.5	78.8708	16,000.5	76.3393	16,000.5	78.371	16,000.5	78.5039	16,000.5	76.5895	16,000.5	78.7182	16,000.5	75.1262	16,000.5	77.7975	16,000.5	74.0617	16,000.5	75.0186	16,000.5	71.8296	16,000.5	72.9892	16,000.5	68.9415	16,000.5	72.9803	16,000.5	66.4002	16,000.5	69.6465	16,000.5	61.7411	16,000.5	65.9802	16,000.5	62.1344	16,000.5	63.401	16,000.5	55.7031	16,000.5	63.353	16,000.5	53.8784	16,000.5	52.2794	16,000.5	53.0476	16,000.5	55.043	16,000.5	39.0838
16,564.5	80.6908	16,564.5	75.2936	16,564.5	79.6383	16,564.5	68.8179	16,564.5	75.0621	16,564.5	78.2232	16,564.5	67.5119	16,564.5	81.0825	16,564.5	77.4855	16,564.5	81.6882	16,564.5	80.8131	16,564.5	80.131	16,564.5	81.1614	16,564.5	78.1781	16,564.5	80.5338	16,564.5	77.0757	16,564.5	78.7436	16,564.5	75.3318	16,564.5	76.0826	16,564.5	72.6585	16,564.5	74.9076	16,564.5	71.0858	16,564.5	74.5376	16,564.5	68.4415	16,564.5	71.5588	16,564.5	63.8358	16,564.5	67.8348	16,564.5	59.2405	16,564.5	62.954	16,564.5	55.8922	16,564.5	63.4894	16,564.5	48.0181	16,564.5	56.7243	16,564.5	56.0725	16,564.5	51.7561	16,564.5	49.6634
17,148.9	74.0053	17,148.9	70.4104	17,148.9	74.6956	17,148.9	75.831	17,148.9	71.5681	17,148.9	78.8766	17,148.9	74.1885	17,148.9	80.4617	17,148.9	78.27	17,148.9	79.8906	17,148.9	79.6259	17,148.9	77.8815	17,148.9	79.2748	17,148.9	75.1945	17,148.9	78.7482	17,148.9	74.1194	17,148.9	77.0884	17,148.9	72.2274	17,148.9	73.5839	17,148.9	69.0713	17,148.9	71.8872	17,148.9	68.0561	17,148.9	71.3175	17,148.9	65.3487	17,148.9	67.7873	17,148.9	61.4998	17,148.9	64.3245	17,148.9	54.9689	17,148.9	56.4391	17,148.9	50.3215	17,148.9	56.7746	17,148.9	45.8172	17,148.9	52.8915	17,148.9	51.9597	17,148.9	57.1196	17,148.9	50.9907
17,752.4	72.7146	17,752.4	73.8427	17,752.4	72.6662	17,752.4	76.3903	17,752.4	73.5782	17,752.4	77.0984	17,752.4	75.8407	17,752.4	77.2819	17,752.4	76.2546	17,752.4	76.1853	17,752.4	76.275	17,752.4	73.329	17,752.4	75.7266	17,752.4	71.2262	17,752.4	73.7601	17,752.4	68.4195	17,752.4	71.8818	17,752.4	65.884	17,752.4	69.0326	17,752.4	64.7438	17,752.4	66.553	17,752.4	61.0998	17,752.4	64.991	17,752.4	59.7153	17,752.4	61.66	17,752.4	54.7506	17,752.4	58.7833	17,752.4	51.8204	17,752.4	52.02	17,752.4	48.2679	17,752.4	52.3831	17,752.4	43.8008	17,752.4	48.5747	17,752.4	47.5306	17,752.4	52.7461	17,752.4	45.2261
18,379.4	73.765	18,379.4	74.2411	18,379.4	73.8016	18,379.4	74.6177	18,379.4	73.8591	18,379.4	74.8681	18,379.4	74.5349	18,379.4	74.1324	18,379.4	74.2362	18,379.4	71.917	18,379.4	73.4075	18,379.4	68.3859	18,379.4	71.7304	18,379.4	66.7715	18,379.4	68.8961	18,379.4	63.8817	18,379.4	66.1663	18,379.4	62.4376	18,379.4	62.4752	18,379.4	58.3618	18,379.4	60.658	18,379.4	54.5686	18,379.4	59.244	18,379.4	53.3988	18,379.4	56.9118	18,379.4	51.1416	18,379.4	51.5788	18,379.4	42.8338	18,379.4	35.6795	18,379.4	46.42	18,379.4	44.0774	18,379.4	42.316	18,379.4	44.6779	18,379.4	46.9354	18,379.4	45.1958	18,379.4	47.6825
19,026.9	73.8182	19,026.9	73.4932	19,026.9	74.0831	19,026.9	73.397	19,026.9	73.7356	19,026.9	72.7708	19,026.9	73.3176	19,026.9	71.5627	19,026.9	72.2112	19,026.9	68.4358	19,026.9	70.7632	19,026.9	64.917	19,026.9	68.5023	19,026.9	60.4392	19,026.9	64.5062	19,026.9	59.6109	19,026.9	59.6176	19,026.9	58.287	19,026.9	55.8591	19,026.9	47.9361	19,026.9	55.6651	19,026.9	48.6607	19,026.9	53.2853	19,026.9	48.2556	19,026.9	50.742	19,026.9	49.4993	19,026.9	43.5786	19,026.9	42.9457	19,026.9	41.6397	19,026.9	42.0913	19,026.9	35.8391	19,026.9	43.8479	19,026.9	36.6263	19,026.9	48.4641	19,026.9	42.7144	19,026.9	48.6032
19,697.8	72.8087	19,697.8	72.4654	19,697.8	73.1093	19,697.8	71.9975	19,697.8	72.8	19,697.8	70.6542	19,697.8	71.8585	19,697.8	68.3918	19,697.8	69.8267	19,697.8	64.7047	19,697.8	67.7703	19,697.8	58.7523	19,697.8	64.4046	19,697.8	53.3041	19,697.8	59.0778	19,697.8	53.2098	19,697.8	54.6023	19,697.8	50.4343	19,697.8	50.182	19,697.8	46.513	19,697.8	47.8003	19,697.8	48.3411	19,697.8	50.2173	19,697.8	45.6907	19,697.8	48.8321	19,697.8	44.3204	19,697.8	39.5753	19,697.8	34.7974	19,697.8	43.8717	19,697.8	39.0298	19,697.8	36.6881	19,697.8	40.0105	19,697.8	24.7992	19,697.8	47.2015	19,697.8	38.4931	19,697.8	45.5698
19,999.5	72.2852	19,999.5	71.2232	19,999.5	72.9975	19,999.5	70.7798	19,999.5	72.617	19,999.5	69.1073	19,999.5	70.8507	19,999.5	66.5403	19,999.5	69.1932	19,999.5	62.9468	19,999.5	67.3386	19,999.5	52.3484	19,999.5	61.6786	19,999.5	34.8719	19,999.5	51.5996	19,999.5	52.4894	19,999.5	51.3149	19,999.5	50.2931	19,999.5	51.8647	19,999.5	38.1367	19,999.5	49.4589	19,999.5	47.3052	19,999.5	47.4247	19,999.5	46.5075	19,999.5	46.082	19,999.5	47.0032	19,999.5	44.9931	19,999.5	46.0619	19,999.5	40.3112	19,999.5	29.1235	19,999.5	37.9099	19,999.5	46.5426	19,999.5	42.5309	19,999.5	49.1095	19,999.5	39.7958	19,999.5	44.6151
