"SPL Vertical"
"On-Axis"		"10°"		"-10°"		"20°"		"-20°"		"30°"		"-30°"		"40°"		"-40°"		"50°"		"-50°"		"60°"		"-60°"		"70°"		"-70°"		"80°"		"-80°"		"90°"		"-90°"		"100°"		"-100°"		"110°"		"-110°"		"120°"		"-120°"		"130°"		"-130°"		"140°"		"-140°"		"150°"		"-150°"		"160°"		"-160°"		"170°"		"-170°"		"180°"
"Frequency [Hz]"	"Sound Pessure Level [dB]  / [2.83V 1m] "	"Frequency [Hz]"	"Sound Pessure Level [dB]  / [2.83V 1m] "	"Frequency [Hz]"	"Sound Pessure Level [dB]  / [2.83V 1m] "	"Frequency [Hz]"	"Sound Pessure Level [dB]  / [2.83V 1m] "	"Frequency [Hz]"	"Sound Pessure Level [dB]  / [2.83V 1m] "	"Frequency [Hz]"	"Sound Pessure Level [dB]  / [2.83V 1m] "	"Frequency [Hz]"	"Sound Pessure Level [dB]  / [2.83V 1m] "	"Frequency [Hz]"	"Sound Pessure Level [dB]  / [2.83V 1m] "	"Frequency [Hz]"	"Sound Pessure Level [dB]  / [2.83V 1m] "	"Frequency [Hz]"	"Sound Pessure Level [dB]  / [2.83V 1m] "	"Frequency [Hz]"	"Sound Pessure Level [dB]  / [2.83V 1m] "	"Frequency [Hz]"	"Sound Pessure Level [dB]  / [2.83V 1m] "	"Frequency [Hz]"	"Sound Pessure Level [dB]  / [2.83V 1m] "	"Frequency [Hz]"	"Sound Pessure Level [dB]  / [2.83V 1m] "	"Frequency [Hz]"	"Sound Pessure Level [dB]  / [2.83V 1m] "	"Frequency [Hz]"	"Sound Pessure Level [dB]  / [2.83V 1m] "	"Frequency [Hz]"	"Sound Pessure Level [dB]  / [2.83V 1m] "	"Frequency [Hz]"	"Sound Pessure Level [dB]  / [2.83V 1m] "	"Frequency [Hz]"	"Sound Pessure Level [dB]  / [2.83V 1m] "	"Frequency [Hz]"	"Sound Pessure Level [dB]  / [2.83V 1m] "	"Frequency [Hz]"	"Sound Pessure Level [dB]  / [2.83V 1m] "	"Frequency [Hz]"	"Sound Pessure Level [dB]  / [2.83V 1m] "	"Frequency [Hz]"	"Sound Pessure Level [dB]  / [2.83V 1m] "	"Frequency [Hz]"	"Sound Pessure Level [dB]  / [2.83V 1m] "	"Frequency [Hz]"	"Sound Pessure Level [dB]  / [2.83V 1m] "	"Frequency [Hz]"	"Sound Pessure Level [dB]  / [2.83V 1m] "	"Frequency [Hz]"	"Sound Pessure Level [dB]  / [2.83V 1m] "	"Frequency [Hz]"	"Sound Pessure Level [dB]  / [2.83V 1m] "	"Frequency [Hz]"	"Sound Pessure Level [dB]  / [2.83V 1m] "	"Frequency [Hz]"	"Sound Pessure Level [dB]  / [2.83V 1m] "	"Frequency [Hz]"	"Sound Pessure Level [dB]  / [2.83V 1m] "	"Frequency [Hz]"	"Sound Pessure Level [dB]  / [2.83V 1m] "	"Frequency [Hz]"	"Sound Pessure Level [dB]  / [2.83V 1m] "	"Frequency [Hz]"	"Sound Pessure Level [dB]  / [2.83V 1m] "	"Frequency [Hz]"	"Sound Pessure Level [dB]  / [2.83V 1m] "	"Frequency [Hz]"	"Sound Pessure Level [dB]  / [2.83V 1m] "
20.5078	52.4102	20.5078	52.234	20.5078	52.5885	20.5078	52.0668	20.5078	52.7615	20.5078	51.914	20.5078	52.9222	20.5078	51.7796	20.5078	53.0647	20.5078	51.6656	20.5078	53.1845	20.5078	51.5729	20.5078	53.2786	20.5078	51.5018	20.5078	53.3453	20.5078	51.4522	20.5078	53.3838	20.5078	51.4246	20.5078	53.3937	20.5078	51.42	20.5078	53.3751	20.5078	51.4398	20.5078	53.3281	20.5078	51.4859	20.5078	53.2529	20.5078	51.56	20.5078	53.1499	20.5078	51.6628	20.5078	53.0204	20.5078	51.7937	20.5078	52.8668	20.5078	51.9498	20.5078	52.6934	20.5078	52.1258	20.5078	52.5066	20.5078	52.3144
21.9727	52.2942	21.9727	52.2753	21.9727	52.3289	21.9727	52.2707	21.9727	52.3788	21.9727	52.2784	21.9727	52.4418	21.9727	52.2958	21.9727	52.5134	21.9727	52.3211	21.9727	52.5878	21.9727	52.3527	21.9727	52.6592	21.9727	52.3897	21.9727	52.7222	21.9727	52.4317	21.9727	52.7734	21.9727	52.4781	21.9727	52.8114	21.9727	52.5284	21.9727	52.837	21.9727	52.5818	21.9727	52.8526	21.9727	52.6366	21.9727	52.8612	21.9727	52.6907	21.9727	52.8663	21.9727	52.7416	21.9727	52.8701	21.9727	52.7865	21.9727	52.8734	21.9727	52.823	21.9727	52.8754	21.9727	52.8496	21.9727	52.874	21.9727	52.8662
23.4375	53.9936	23.4375	53.8651	23.4375	54.1402	23.4375	53.7586	23.4375	54.2985	23.4375	53.6761	23.4375	54.4607	23.4375	53.6175	23.4375	54.6181	23.4375	53.5815	23.4375	54.7623	23.4375	53.5665	23.4375	54.8864	23.4375	53.5705	23.4375	54.9853	23.4375	53.5917	23.4375	55.0558	23.4375	53.6288	23.4375	55.0968	23.4375	53.6804	23.4375	55.1088	23.4375	53.7458	23.4375	55.0935	23.4375	53.8239	23.4375	55.0534	23.4375	53.9139	23.4375	54.9919	23.4375	54.0145	23.4375	54.9124	23.4375	54.1239	23.4375	54.8183	23.4375	54.2399	23.4375	54.713	23.4375	54.3598	23.4375	54.5994	23.4375	54.4807
24.9023	54.6954	24.9023	54.4453	24.9023	54.9336	24.9023	54.1963	24.9023	55.1474	24.9023	53.9602	24.9023	55.3264	24.9023	53.7461	24.9023	55.4635	24.9023	53.5602	24.9023	55.5553	24.9023	53.4054	24.9023	55.6013	24.9023	53.2827	24.9023	55.6036	24.9023	53.1911	24.9023	55.5652	24.9023	53.1294	24.9023	55.4898	24.9023	53.0961	24.9023	55.3809	24.9023	53.0905	24.9023	55.2422	24.9023	53.1125	24.9023	55.0774	24.9023	53.1623	24.9023	54.8907	24.9023	53.2409	24.9023	54.6873	24.9023	53.3485	24.9023	54.4729	24.9023	53.485	24.9023	54.2544	24.9023	53.6484	24.9023	54.0393	24.9023	53.835
26.3672	53.1612	26.3672	53.1395	26.3672	53.208	26.3672	53.1416	26.3672	53.2789	26.3672	53.1644	26.3672	53.3709	26.3672	53.2046	26.3672	53.4788	26.3672	53.2584	26.3672	53.5963	26.3672	53.323	26.3672	53.7168	26.3672	53.3959	26.3672	53.8345	26.3672	53.4755	26.3672	53.9449	26.3672	53.5606	26.3672	54.0446	26.3672	53.6499	26.3672	54.1316	26.3672	53.7425	26.3672	54.2051	26.3672	53.8369	26.3672	54.2644	26.3672	53.931	26.3672	54.3093	26.3672	54.0224	26.3672	54.3395	26.3672	54.1081	26.3672	54.3542	26.3672	54.1849	26.3672	54.353	26.3672	54.2499	26.3672	54.3351	26.3672	54.3004
27.832	55.6436	27.832	55.5329	27.832	55.753	27.832	55.4245	27.832	55.8572	27.832	55.3216	27.832	55.9521	27.832	55.2267	27.832	56.0336	27.832	55.1415	27.832	56.0985	27.832	55.0674	27.832	56.144	27.832	55.0054	27.832	56.1681	27.832	54.9563	27.832	56.1696	27.832	54.9207	27.832	56.1482	27.832	54.8991	27.832	56.1045	27.832	54.8923	27.832	56.0399	27.832	54.9009	27.832	55.9569	27.832	54.9254	27.832	55.8585	27.832	54.9662	27.832	55.7488	27.832	55.0235	27.832	55.6321	27.832	55.0967	27.832	55.513	27.832	55.1846	27.832	55.3961	27.832	55.2854
29.2969	55.0093	29.2969	54.983	29.2969	55.0447	29.2969	54.965	29.2969	55.0889	29.2969	54.9545	29.2969	55.1413	29.2969	54.9507	29.2969	55.2	29.2969	54.953	29.2969	55.2624	29.2969	54.9609	29.2969	55.3253	29.2969	54.9743	29.2969	55.3851	29.2969	54.9932	29.2969	55.4388	29.2969	55.0178	29.2969	55.484	29.2969	55.048	29.2969	55.5188	29.2969	55.0839	29.2969	55.5426	29.2969	55.125	29.2969	55.5551	29.2969	55.1708	29.2969	55.5567	29.2969	55.2203	29.2969	55.5477	29.2969	55.272	29.2969	55.5289	29.2969	55.3244	29.2969	55.5012	29.2969	55.3753	29.2969	55.4654	29.2969	55.423
30.7617	56.0812	30.7617	56.0634	30.7617	56.1209	30.7617	56.0656	30.7617	56.1834	30.7617	56.0847	30.7617	56.2672	30.7617	56.1177	30.7617	56.3687	30.7617	56.1619	30.7617	56.4821	30.7617	56.2153	30.7617	56.6008	30.7617	56.2764	30.7617	56.7181	30.7617	56.3439	30.7617	56.828	30.7617	56.4171	30.7617	56.926	30.7617	56.495	30.7617	57.0091	30.7617	56.5767	30.7617	57.0757	30.7617	56.6607	30.7617	57.1255	30.7617	56.7455	30.7617	57.1588	30.7617	56.8287	30.7617	57.1761	30.7617	56.9081	30.7617	57.1781	30.7617	56.9809	30.7617	57.1654	30.7617	57.0449	30.7617	57.1384	30.7617	57.0979
32.2266	57.5763	32.2266	57.5228	32.2266	57.6384	32.2266	57.4782	32.2266	57.7077	32.2266	57.4423	32.2266	57.7817	32.2266	57.4144	32.2266	57.8571	32.2266	57.394	32.2266	57.9294	32.2266	57.3808	32.2266	57.9943	32.2266	57.3745	32.2266	58.0479	32.2266	57.3753	32.2266	58.0871	32.2266	57.3831	32.2266	58.1102	32.2266	57.3982	32.2266	58.1165	32.2266	57.4207	32.2266	58.1067	32.2266	57.4506	32.2266	58.0823	32.2266	57.4879	32.2266	58.0454	32.2266	57.532	32.2266	57.9986	32.2266	57.5823	32.2266	57.9442	32.2266	57.6378	32.2266	57.8848	32.2266	57.6974	32.2266	57.8226	32.2266	57.7595
33.6914	58.5847	33.6914	58.5343	33.6914	58.6419	33.6914	58.4909	33.6914	58.7051	33.6914	58.4546	33.6914	58.7726	33.6914	58.4252	33.6914	58.842	33.6914	58.4031	33.6914	58.9101	33.6914	58.3884	33.6914	58.9733	33.6914	58.3816	33.6914	59.0283	33.6914	58.3833	33.6914	59.0723	33.6914	58.3938	33.6914	59.1032	33.6914	58.4134	33.6914	59.1201	33.6914	58.4422	33.6914	59.1227	33.6914	58.4799	33.6914	59.1116	33.6914	58.5259	33.6914	59.0879	33.6914	58.5791	33.6914	59.0528	33.6914	58.6383	33.6914	59.0079	33.6914	58.7016	33.6914	58.955	33.6914	58.767	33.6914	58.8959	33.6914	58.8325
35.1562	58.91	35.1562	58.844	35.1562	58.9822	35.1562	58.7854	35.1562	59.0585	35.1562	58.7349	35.1562	59.136	35.1562	58.6925	35.1562	59.211	35.1562	58.6582	35.1562	59.2798	35.1562	58.6316	35.1562	59.3382	35.1562	58.6128	35.1562	59.383	35.1562	58.6016	35.1562	59.4116	35.1562	58.5981	35.1562	59.4226	35.1562	58.6026	35.1562	59.4155	35.1562	58.6152	35.1562	59.3912	35.1562	58.6364	35.1562	59.3512	35.1562	58.6662	35.1562	59.2979	35.1562	58.7048	35.1562	59.2343	35.1562	58.7521	35.1562	59.1635	35.1562	58.8077	35.1562	59.0888	35.1562	58.8707	35.1562	59.0134	35.1562	58.9399
36.6211	60.3534	36.6211	60.2999	36.6211	60.4126	36.6211	60.2528	36.6211	60.4762	36.6211	60.2124	36.6211	60.5423	36.6211	60.179	36.6211	60.6084	36.6211	60.1527	36.6211	60.6717	36.6211	60.134	36.6211	60.7289	36.6211	60.1231	36.6211	60.7774	36.6211	60.1204	36.6211	60.8149	36.6211	60.1264	36.6211	60.8398	36.6211	60.1413	36.6211	60.8514	36.6211	60.1654	36.6211	60.8494	36.6211	60.1986	36.6211	60.8345	36.6211	60.2404	36.6211	60.8074	36.6211	60.2902	36.6211	60.7694	36.6211	60.3469	36.6211	60.7219	36.6211	60.4088	36.6211	60.6665	36.6211	60.474	36.6211	60.6052	36.6211	60.5403
38.0859	61.1692	38.0859	61.1145	38.0859	61.2281	38.0859	61.0656	38.0859	61.2897	38.0859	61.0234	38.0859	61.3519	38.0859	60.9887	38.0859	61.4125	38.0859	60.9621	38.0859	61.4689	38.0859	60.944	38.0859	61.5188	38.0859	60.9345	38.0859	61.5599	38.0859	60.9338	38.0859	61.5908	38.0859	60.942	38.0859	61.6102	38.0859	60.9588	38.0859	61.618	38.0859	60.9841	38.0859	61.6143	38.0859	61.0176	38.0859	61.5995	38.0859	61.0587	38.0859	61.5746	38.0859	61.1064	38.0859	61.5405	38.0859	61.1598	38.0859	61.4983	38.0859	61.2171	38.0859	61.4493	38.0859	61.2768	38.0859	61.3948	38.0859	61.3367
39.5508	62.2211	39.5508	62.1872	39.5508	62.257	39.5508	62.1555	39.5508	62.2954	39.5508	62.1264	39.5508	62.3362	39.5508	62.1008	39.5508	62.3793	39.5508	62.0797	39.5508	62.4239	39.5508	62.0645	39.5508	62.4686	39.5508	62.0566	39.5508	62.5119	39.5508	62.057	39.5508	62.552	39.5508	62.0667	39.5508	62.5873	39.5508	62.0862	39.5508	62.6163	39.5508	62.1156	39.5508	62.6379	39.5508	62.1546	39.5508	62.6508	39.5508	62.2024	39.5508	62.6538	39.5508	62.2573	39.5508	62.6458	39.5508	62.3175	39.5508	62.6262	39.5508	62.3801	39.5508	62.5948	39.5508	62.4423	39.5508	62.5524	39.5508	62.5008
41.0156	63.0064	41.0156	62.9576	41.0156	63.0593	41.0156	62.9137	41.0156	63.1154	41.0156	62.8757	41.0156	63.1737	41.0156	62.8444	41.0156	63.2327	41.0156	62.8211	41.0156	63.2908	41.0156	62.8068	41.0156	63.3458	41.0156	62.8025	41.0156	63.396	41.0156	62.8091	41.0156	63.4397	41.0156	62.8269	41.0156	63.4754	41.0156	62.8559	41.0156	63.5022	41.0156	62.8958	41.0156	63.5194	41.0156	62.9457	41.0156	63.5264	41.0156	63.004	41.0156	63.5228	41.0156	63.0688	41.0156	63.5081	41.0156	63.1377	41.0156	63.4821	41.0156	63.2079	41.0156	63.4449	41.0156	63.2764	41.0156	63.3972	41.0156	63.3404
42.4805	61.9566	42.4805	61.8738	42.4805	62.0353	42.4805	61.789	42.4805	62.107	42.4805	61.7041	42.4805	62.1688	42.4805	61.6207	42.4805	62.2176	42.4805	61.5403	42.4805	62.2505	42.4805	61.4643	42.4805	62.2651	42.4805	61.394	42.4805	62.2598	42.4805	61.3309	42.4805	62.2344	42.4805	61.2766	42.4805	62.1893	42.4805	61.2325	42.4805	62.1264	42.4805	61.2	42.4805	62.0482	42.4805	61.1805	42.4805	61.9581	42.4805	61.1751	42.4805	61.8597	42.4805	61.1848	42.4805	61.757	42.4805	61.2102	42.4805	61.6539	42.4805	61.2513	42.4805	61.5541	42.4805	61.3077	42.4805	61.4612	42.4805	61.3783
43.9453	63.7539	43.9453	63.677	43.9453	63.8268	43.9453	63.5988	43.9453	63.8932	43.9453	63.5215	43.9453	63.9507	43.9453	63.4475	43.9453	63.9968	43.9453	63.3788	43.9453	64.0298	43.9453	63.3172	43.9453	64.0483	43.9453	63.2642	43.9453	64.0513	43.9453	63.2209	43.9453	64.039	43.9453	63.1886	43.9453	64.0118	43.9453	63.1677	43.9453	63.9711	43.9453	63.1589	43.9453	63.9188	43.9453	63.1624	43.9453	63.8569	43.9453	63.178	43.9453	63.7879	43.9453	63.2054	43.9453	63.7141	43.9453	63.2441	43.9453	63.6378	43.9453	63.2929	43.9453	63.5613	43.9453	63.3506	43.9453	63.4867	43.9453	63.4158
45.4102	64.4176	45.4102	64.3393	45.4102	64.4912	45.4102	64.2589	45.4102	64.5577	45.4102	64.1787	45.4102	64.6149	45.4102	64.1013	45.4102	64.6606	45.4102	64.0288	45.4102	64.6933	45.4102	63.9633	45.4102	64.7115	45.4102	63.9067	45.4102	64.7146	45.4102	63.8603	45.4102	64.7024	45.4102	63.8253	45.4102	64.6753	45.4102	63.8024	45.4102	64.6345	45.4102	63.7922	45.4102	64.5814	45.4102	63.7948	45.4102	64.5179	45.4102	63.8101	45.4102	64.4464	45.4102	63.8377	45.4102	64.3692	45.4102	63.8769	45.4102	64.2889	45.4102	63.927	45.4102	64.2081	45.4102	63.9868	45.4102	64.1293	45.4102	64.0548
46.875	64.8271	46.875	64.7461	46.875	64.9021	46.875	64.6618	46.875	64.9683	46.875	64.5768	46.875	65.0234	46.875	64.4937	46.875	65.0652	46.875	64.4147	46.875	65.092	46.875	64.342	46.875	65.1027	46.875	64.2773	46.875	65.0966	46.875	64.2221	46.875	65.0738	46.875	64.1776	46.875	65.035	46.875	64.1446	46.875	64.9815	46.875	64.1239	46.875	64.9153	46.875	64.1158	46.875	64.8387	46.875	64.1205	46.875	64.7546	46.875	64.1381	46.875	64.6662	46.875	64.1685	46.875	64.5766	46.875	64.2113	46.875	64.4891	46.875	64.266	46.875	64.4066	46.875	64.3316
48.3398	65.4338	48.3398	65.3564	48.3398	65.5098	48.3398	65.2798	48.3398	65.5816	48.3398	65.2062	48.3398	65.6463	48.3398	65.1372	48.3398	65.7011	48.3398	65.0742	48.3398	65.7434	48.3398	65.0185	48.3398	65.7711	48.3398	64.9709	48.3398	65.7828	48.3398	64.9324	48.3398	65.7778	48.3398	64.9037	48.3398	65.7561	48.3398	64.8852	48.3398	65.7185	48.3398	64.8775	48.3398	65.6667	48.3398	64.8807	48.3398	65.6027	48.3398	64.895	48.3398	65.5292	48.3398	64.9205	48.3398	65.4493	48.3398	64.957	48.3398	65.3661	48.3398	65.0043	48.3398	65.283	48.3398	65.0618	48.3398	65.2029	48.3398	65.1285
51.2695	66.4668	51.2695	66.3871	51.2695	66.5411	51.2695	66.3048	51.2695	66.6073	51.2695	66.2226	51.2695	66.6629	51.2695	66.1432	51.2695	66.706	51.2695	66.0689	51.2695	66.7351	51.2695	66.0018	51.2695	66.7492	51.2695	65.9436	51.2695	66.7481	51.2695	65.8959	51.2695	66.7319	51.2695	65.8596	51.2695	66.7013	51.2695	65.8356	51.2695	66.6575	51.2695	65.8242	51.2695	66.602	51.2695	65.8257	51.2695	66.5369	51.2695	65.8397	51.2695	66.4643	51.2695	65.866	51.2695	66.3868	51.2695	65.9038	51.2695	66.3068	51.2695	65.9523	51.2695	66.2268	51.2695	66.0104	51.2695	66.1494	51.2695	66.0766
52.7344	66.9668	52.7344	66.8902	52.7344	67.0395	52.7344	66.8126	52.7344	67.1056	52.7344	66.7366	52.7344	67.1628	52.7344	66.6647	52.7344	67.209	52.7344	66.5991	52.7344	67.243	52.7344	66.5416	52.7344	67.2637	52.7344	66.4938	52.7344	67.2708	52.7344	66.4566	52.7344	67.2643	52.7344	66.431	52.7344	67.2448	52.7344	66.4172	52.7344	67.2129	52.7344	66.4154	52.7344	67.1699	52.7344	66.4256	52.7344	67.117	52.7344	66.4472	52.7344	67.0559	52.7344	66.4797	52.7344	66.9885	52.7344	66.5223	52.7344	66.9169	52.7344	66.574	52.7344	66.8434	52.7344	66.6336	52.7344	66.7702	52.7344	66.6996
54.1992	67.3111	54.1992	67.2371	54.1992	67.3818	54.1992	67.1621	54.1992	67.4466	54.1992	67.0886	54.1992	67.5034	54.1992	67.0188	54.1992	67.5501	54.1992	66.9547	54.1992	67.5853	54.1992	66.8982	54.1992	67.6077	54.1992	66.8506	54.1992	67.6167	54.1992	66.8131	54.1992	67.6118	54.1992	66.7865	54.1992	67.5933	54.1992	66.7714	54.1992	67.5619	54.1992	66.768	54.1992	67.5184	54.1992	66.7761	54.1992	67.4645	54.1992	66.7956	54.1992	67.4019	54.1992	66.826	54.1992	67.3328	54.1992	66.8666	54.1992	67.2596	54.1992	66.9167	54.1992	67.1848	54.1992	66.975	54.1992	67.1109	54.1992	67.0403
55.6641	67.9109	55.6641	67.8348	55.6641	67.9825	55.6641	67.7569	55.6641	68.0473	55.6641	67.6798	55.6641	68.1032	55.6641	67.6059	55.6641	68.1484	55.6641	67.5376	55.6641	68.1815	55.6641	67.477	55.6641	68.2015	55.6641	67.4256	55.6641	68.2079	55.6641	67.385	55.6641	68.2005	55.6641	67.3562	55.6641	68.1798	55.6641	67.3397	55.6641	68.1464	55.6641	67.3359	55.6641	68.1017	55.6641	67.3446	55.6641	68.047	55.6641	67.3656	55.6641	67.9843	55.6641	67.3981	55.6641	67.9155	55.6641	67.4413	55.6641	67.8427	55.6641	67.494	55.6641	67.768	55.6641	67.5547	55.6641	67.6936	55.6641	67.6219
58.5938	68.89	58.5938	68.8172	58.5938	68.9599	58.5938	68.7436	58.5938	69.0244	58.5938	68.6717	58.5938	69.0814	58.5938	68.6036	58.5938	69.1289	58.5938	68.5411	58.5938	69.1654	58.5938	68.486	58.5938	69.1898	58.5938	68.4397	58.5938	69.2012	58.5938	68.4034	58.5938	69.1995	58.5938	68.3779	58.5938	69.1847	58.5938	68.3639	58.5938	69.1572	58.5938	68.3616	58.5938	69.1179	58.5938	68.3712	58.5938	69.0677	58.5938	68.3923	58.5938	69.0083	58.5938	68.4245	58.5938	68.9414	58.5938	68.4673	58.5938	68.8694	58.5938	68.5196	58.5938	68.7947	58.5938	68.5802	58.5938	68.7199	58.5938	68.6477
60.0586	69.233	60.0586	69.1619	60.0586	69.303	60.0586	69.0921	60.0586	69.3695	60.0586	69.0257	60.0586	69.4303	60.0586	68.965	60.0586	69.4834	60.0586	68.9118	60.0586	69.5275	60.0586	68.868	60.0586	69.5613	60.0586	68.835	60.0586	69.5843	60.0586	68.8139	60.0586	69.5965	60.0586	68.8055	60.0586	69.5979	60.0586	68.8101	60.0586	69.5891	60.0586	68.8277	60.0586	69.5706	60.0586	68.8576	60.0586	69.5427	60.0586	68.8989	60.0586	69.506	60.0586	68.9502	60.0586	69.4609	60.0586	69.0095	60.0586	69.4079	60.0586	69.0749	60.0586	69.3482	60.0586	69.144	60.0586	69.2829	60.0586	69.2141
62.9883	70.2722	62.9883	70.1905	62.9883	70.3488	62.9883	70.1063	62.9883	70.4177	62.9883	70.0222	62.9883	70.4764	62.9883	69.9405	62.9883	70.5225	62.9883	69.8635	62.9883	70.5541	62.9883	69.7932	62.9883	70.5698	62.9883	69.7316	62.9883	70.5687	62.9883	69.6802	62.9883	70.5509	62.9883	69.6403	62.9883	70.5172	62.9883	69.613	62.9883	70.4689	62.9883	69.5989	62.9883	70.4081	62.9883	69.5984	62.9883	70.3372	62.9883	69.6113	62.9883	70.2591	62.9883	69.6373	62.9883	70.1766	62.9883	69.6756	62.9883	70.0923	62.9883	69.7252	62.9883	70.0088	62.9883	69.7849	62.9883	69.9284	62.9883	69.8532
64.4531	70.7431	64.4531	70.6598	64.4531	70.8207	64.4531	70.5735	64.4531	70.8901	64.4531	70.4868	64.4531	70.9484	64.4531	70.4018	64.4531	70.9932	64.4531	70.3209	64.4531	71.0224	64.4531	70.246	64.4531	71.0345	64.4531	70.179	64.4531	71.0287	64.4531	70.1215	64.4531	71.005	64.4531	70.0749	64.4531	70.9642	64.4531	70.0405	64.4531	70.9078	64.4531	70.0189	64.4531	70.8382	64.4531	70.0107	64.4531	70.7581	64.4531	70.0162	64.4531	70.6706	64.4531	70.0352	64.4531	70.5791	64.4531	70.0673	64.4531	70.4869	64.4531	70.1121	64.4531	70.3972	64.4531	70.1687	64.4531	70.3128	64.4531	70.236
67.3828	71.7277	67.3828	71.648	67.3828	71.7969	67.3828	71.5603	67.3828	71.8532	67.3828	71.4675	67.3828	71.895	67.3828	71.3726	67.3828	71.9209	67.3828	71.2785	67.3828	71.9298	67.3828	71.1878	67.3828	71.9212	67.3828	71.103	67.3828	71.8952	67.3828	71.0262	67.3828	71.8521	67.3828	70.9589	67.3828	71.7929	67.3828	70.9027	67.3828	71.7191	67.3828	70.8586	67.3828	71.633	67.3828	70.8278	67.3828	71.5371	67.3828	70.811	67.3828	71.4348	67.3828	70.8091	67.3828	71.3297	67.3828	70.8228	67.3828	71.2259	67.3828	70.8527	67.3828	71.1274	67.3828	70.899	67.3828	71.0381	67.3828	70.9612
68.8477	71.9685	68.8477	71.8946	68.8477	72.0358	68.8477	71.8163	68.8477	72.0943	68.8477	71.7361	68.8477	72.1425	68.8477	71.6563	68.8477	72.1786	68.8477	71.5795	68.8477	72.2015	68.8477	71.5077	68.8477	72.2101	68.8477	71.443	68.8477	72.2038	68.8477	71.3869	68.8477	72.1824	68.8477	71.3406	68.8477	72.1461	68.8477	71.3051	68.8477	72.0957	68.8477	71.2811	68.8477	72.0327	68.8477	71.269	68.8477	71.9592	68.8477	71.2692	68.8477	71.8775	68.8477	71.2822	68.8477	71.7907	68.8477	71.308	68.8477	71.7023	68.8477	71.3466	68.8477	71.6157	68.8477	71.3979	68.8477	71.5343	68.8477	71.4609
71.7773	72.5309	71.7773	72.4493	71.7773	72.6085	71.7773	72.3664	71.7773	72.6798	71.7773	72.2848	71.7773	72.7425	71.7773	72.2071	71.7773	72.7945	71.7773	72.1358	71.7773	72.8341	71.7773	72.0733	71.7773	72.8601	71.7773	72.0216	71.7773	72.8719	71.7773	71.9821	71.7773	72.8692	71.7773	71.9561	71.7773	72.8525	71.7773	71.9441	71.7773	72.8225	71.7773	71.9463	71.7773	72.7804	71.7773	71.9622	71.7773	72.7276	71.7773	71.9912	71.7773	72.6656	71.7773	72.0322	71.7773	72.5962	71.7773	72.0839	71.7773	72.5215	71.7773	72.1448	71.7773	72.4435	71.7773	72.2131	71.7773	72.3646	71.7773	72.2871
74.707	73.2922	74.707	73.2116	74.707	73.3709	74.707	73.1319	74.707	73.4449	74.707	73.0557	74.707	73.5117	74.707	72.9855	74.707	73.569	74.707	72.9235	74.707	73.615	74.707	72.8717	74.707	73.6484	74.707	72.8316	74.707	73.6684	74.707	72.8041	74.707	73.6748	74.707	72.7898	74.707	73.6677	74.707	72.7888	74.707	73.6476	74.707	72.8009	74.707	73.6154	74.707	72.8253	74.707	73.572	74.707	72.8611	74.707	73.5186	74.707	72.9071	74.707	73.4569	74.707	72.9621	74.707	73.3886	74.707	73.0247	74.707	73.3158	74.707	73.0932	74.707	73.2408	74.707	73.1659
77.6367	74.2776	77.6367	74.2039	77.6367	74.3456	77.6367	74.127	77.6367	74.4055	77.6367	74.0491	77.6367	74.4551	77.6367	73.9728	77.6367	74.4927	77.6367	73.9001	77.6367	74.5168	77.6367	73.8331	77.6367	74.5263	77.6367	73.7736	77.6367	74.5209	77.6367	73.723	77.6367	74.5005	77.6367	73.6824	77.6367	74.4661	77.6367	73.6527	77.6367	74.4187	77.6367	73.6346	77.6367	74.3601	77.6367	73.6283	77.6367	74.2923	77.6367	73.6341	77.6367	74.2178	77.6367	73.6518	77.6367	74.1389	77.6367	73.6813	77.6367	74.0585	77.6367	73.7221	77.6367	73.9794	77.6367	73.7736	77.6367	73.904	77.6367	73.8347
79.1016	74.7834	79.1016	74.7041	79.1016	74.8567	79.1016	74.6214	79.1016	74.9216	79.1016	74.5378	79.1016	74.9756	79.1016	74.4555	79.1016	75.0163	79.1016	74.3766	79.1016	75.042	79.1016	74.3029	79.1016	75.051	79.1016	74.2361	79.1016	75.0425	79.1016	74.1775	79.1016	75.0164	79.1016	74.1283	79.1016	74.9731	79.1016	74.0894	79.1016	74.914	79.1016	74.0614	79.1016	74.8411	79.1016	74.0451	79.1016	74.757	79.1016	74.041	79.1016	74.6651	79.1016	74.0497	79.1016	74.5691	79.1016	74.0716	79.1016	74.4728	79.1016	74.1073	79.1016	74.3802	79.1016	74.1568	79.1016	74.2948	79.1016	74.2197
82.0312	75.3289	82.0312	75.2465	82.0312	75.4087	82.0312	75.1643	82.0312	75.4829	82.0312	75.0852	82.0312	75.5488	82.0312	75.0118	82.0312	75.6041	82.0312	74.9465	82.0312	75.6467	82.0312	74.891	82.0312	75.6752	82.0312	74.8467	82.0312	75.6888	82.0312	74.8145	82.0312	75.6872	82.0312	74.7946	82.0312	75.6706	82.0312	74.7868	82.0312	75.6397	82.0312	74.7908	82.0312	75.5958	82.0312	74.806	82.0312	75.5403	82.0312	74.8316	82.0312	75.4752	82.0312	74.867	82.0312	75.4028	82.0312	74.9117	82.0312	75.3258	82.0312	74.9652	82.0312	75.247	82.0312	75.0266	82.0312	75.1693	82.0312	75.0952
84.9609	75.5218	84.9609	75.4473	84.9609	75.6031	84.9609	75.3815	84.9609	75.6889	84.9609	75.3263	84.9609	75.7768	84.9609	75.2831	84.9609	75.8643	84.9609	75.2532	84.9609	75.9486	84.9609	75.2376	84.9609	76.0272	84.9609	75.2369	84.9609	76.0976	84.9609	75.2511	84.9609	76.1578	84.9609	75.2797	84.9609	76.2057	84.9609	75.3219	84.9609	76.2394	84.9609	75.3763	84.9609	76.2576	84.9609	75.4414	84.9609	76.259	84.9609	75.5152	84.9609	76.2432	84.9609	75.5959	84.9609	76.2105	84.9609	75.6814	84.9609	76.1619	84.9609	75.7697	84.9609	76.0996	84.9609	75.8583	84.9609	76.0262	84.9609	75.9448
87.8906	76.0783	87.8906	75.9992	87.8906	76.1603	87.8906	75.9262	87.8906	76.2428	87.8906	75.8625	87.8906	76.3239	87.8906	75.8114	87.8906	76.4024	87.8906	75.776	87.8906	76.4774	87.8906	75.7587	87.8906	76.5484	87.8906	75.7616	87.8906	76.615	87.8906	75.7858	87.8906	76.6771	87.8906	75.8316	87.8906	76.7342	87.8906	75.898	87.8906	76.7855	87.8906	75.9833	87.8906	76.8299	87.8906	76.0841	87.8906	76.8652	87.8906	76.1964	87.8906	76.889	87.8906	76.3151	87.8906	76.8982	87.8906	76.4347	87.8906	76.8899	87.8906	76.5492	87.8906	76.8616	87.8906	76.6533	87.8906	76.8122	87.8906	76.7421
90.8203	77.4286	90.8203	77.382	90.8203	77.4667	90.8203	77.3269	90.8203	77.4968	90.8203	77.264	90.8203	77.5196	90.8203	77.1949	90.8203	77.5354	90.8203	77.1219	90.8203	77.5445	90.8203	77.0477	90.8203	77.5468	90.8203	76.9758	90.8203	77.5418	90.8203	76.9096	90.8203	77.5294	90.8203	76.8525	90.8203	77.5089	90.8203	76.8078	90.8203	77.4802	90.8203	76.7777	90.8203	77.443	90.8203	76.764	90.8203	77.3972	90.8203	76.7672	90.8203	77.3432	90.8203	76.7872	90.8203	77.2816	90.8203	76.8225	90.8203	77.214	90.8203	76.8711	90.8203	77.1423	90.8203	76.9304	90.8203	77.0691	90.8203	76.9975
95.2148	78.3643	95.2148	78.2979	95.2148	78.4251	95.2148	78.2274	95.2148	78.4788	95.2148	78.1548	95.2148	78.5239	95.2148	78.0822	95.2148	78.559	95.2148	78.012	95.2148	78.583	95.2148	77.9471	95.2148	78.595	95.2148	77.8899	95.2148	78.5949	95.2148	77.8428	95.2148	78.5835	95.2148	77.8081	95.2148	78.5621	95.2148	77.7873	95.2148	78.5327	95.2148	77.7814	95.2148	78.4968	95.2148	77.7908	95.2148	78.4557	95.2148	77.8151	95.2148	78.4096	95.2148	77.8533	95.2148	78.3581	95.2148	77.9037	95.2148	78.301	95.2148	77.9637	95.2148	78.2382	95.2148	78.0304	95.2148	78.1707	95.2148	78.1005
98.1445	79.2081	98.1445	79.121	98.1445	79.2849	98.1445	79.0262	98.1445	79.3489	98.1445	78.9269	98.1445	79.3979	98.1445	78.8264	98.1445	79.4303	98.1445	78.7281	98.1445	79.4446	98.1445	78.6355	98.1445	79.4398	98.1445	78.5518	98.1445	79.4161	98.1445	78.4798	98.1445	79.3744	98.1445	78.4217	98.1445	79.317	98.1445	78.3793	98.1445	79.2469	98.1445	78.3536	98.1445	79.1678	98.1445	78.3451	98.1445	79.0836	98.1445	78.3535	98.1445	78.9975	98.1445	78.3777	98.1445	78.9119	98.1445	78.4163	98.1445	78.8282	98.1445	78.4672	98.1445	78.7473	98.1445	78.5278	98.1445	78.6696	98.1445	78.596
101.074	79.6915	101.074	79.5969	101.074	79.7768	101.074	79.4962	101.074	79.8497	101.074	79.3934	101.074	79.9079	101.074	79.2922	101.074	79.9494	101.074	79.1966	101.074	79.9724	101.074	79.11	101.074	79.976	101.074	79.0353	101.074	79.9598	101.074	78.9744	101.074	79.9243	101.074	78.9288	101.074	79.8714	101.074	78.8991	101.074	79.8037	101.074	78.8851	101.074	79.7249	101.074	78.8866	101.074	79.6391	101.074	78.9024	101.074	79.5501	101.074	78.9314	101.074	79.4616	101.074	78.9719	101.074	79.3758	101.074	79.0223	101.074	79.2942	101.074	79.0808	101.074	79.2176	101.074	79.1463
105.469	80.3994	105.469	80.3414	105.469	80.4528	105.469	80.2812	105.469	80.4993	105.469	80.2209	105.469	80.5367	105.469	80.1629	105.469	80.5633	105.469	80.1087	105.469	80.5778	105.469	80.0597	105.469	80.5796	105.469	80.0169	105.469	80.5687	105.469	79.9811	105.469	80.5463	105.469	79.9529	105.469	80.5138	105.469	79.9326	105.469	80.4734	105.469	79.9208	105.469	80.4274	105.469	79.9177	105.469	80.3777	105.469	79.9237	105.469	80.3262	105.469	79.9387	105.469	80.2742	105.469	79.9624	105.469	80.2224	105.469	79.9939	105.469	80.1715	105.469	80.0321	105.469	80.1222	105.469	80.0754
108.398	81.0709	108.398	81.0048	108.398	81.129	108.398	80.9334	108.398	81.177	108.398	80.8594	108.398	81.2126	108.398	80.7854	108.398	81.2344	108.398	80.7141	108.398	81.2409	108.398	80.6477	108.398	81.2317	108.398	80.588	108.398	81.207	108.398	80.5365	108.398	81.1678	108.398	80.494	108.398	81.1159	108.398	80.461	108.398	81.0537	108.398	80.4377	108.398	80.9843	108.398	80.4238	108.398	80.9108	108.398	80.4194	108.398	80.8363	108.398	80.4241	108.398	80.7637	108.398	80.4378	108.398	80.6954	108.398	80.4603	108.398	80.6331	108.398	80.4913	108.398	80.578	108.398	80.5306
112.793	81.6835	112.793	81.615	112.793	81.7413	112.793	81.539	112.793	81.7859	112.793	81.4595	112.793	81.8159	112.793	81.3805	112.793	81.831	112.793	81.3064	112.793	81.8317	112.793	81.2407	112.793	81.8191	112.793	81.1866	112.793	81.7952	112.793	81.1459	112.793	81.7624	112.793	81.1197	112.793	81.7229	112.793	81.1078	112.793	81.6792	112.793	81.1093	112.793	81.6333	112.793	81.1225	112.793	81.5868	112.793	81.1452	112.793	81.5407	112.793	81.1751	112.793	81.4959	112.793	81.21	112.793	81.4524	112.793	81.2481	112.793	81.4102	112.793	81.2877	112.793	81.3689	112.793	81.3281
117.188	82.4501	117.188	82.3868	117.188	82.5011	117.188	82.3133	117.188	82.5384	117.188	82.2319	117.188	82.5608	117.188	82.1451	117.188	82.5676	117.188	82.0557	117.188	82.5581	117.188	81.9668	117.188	82.5323	117.188	81.8811	117.188	82.4906	117.188	81.8014	117.188	82.4341	117.188	81.7302	117.188	82.3647	117.188	81.67	117.188	82.2856	117.188	81.6228	117.188	82.2003	117.188	81.59	117.188	82.1128	117.188	81.5725	117.188	82.027	117.188	81.5704	117.188	81.9457	117.188	81.5828	117.188	81.871	117.188	81.6081	117.188	81.8034	117.188	81.6444	117.188	81.743	117.188	81.6898
120.117	82.8948	120.117	82.8257	120.117	82.9538	120.117	82.749	120.117	83.0008	120.117	82.6672	120.117	83.0338	120.117	82.5827	120.117	83.0511	120.117	82.498	120.117	83.0512	120.117	82.4152	120.117	83.0329	120.117	82.3362	120.117	82.9955	120.117	82.2625	120.117	82.9391	120.117	82.1951	120.117	82.8648	120.117	82.1348	120.117	82.7747	120.117	82.0826	120.117	82.6723	120.117	82.0394	120.117	82.5622	120.117	82.0061	120.117	82.4501	120.117	81.9841	120.117	82.3419	120.117	81.9746	120.117	82.2429	120.117	81.9791	120.117	82.1573	120.117	81.9988	120.117	82.0875	120.117	82.0347
124.512	83.3019	124.512	83.2369	124.512	83.358	124.512	83.1656	124.512	83.4035	124.512	83.091	124.512	83.4369	124.512	83.0164	124.512	83.4577	124.512	82.9448	124.512	83.4655	124.512	82.8788	124.512	83.4601	124.512	82.8204	124.512	83.4415	124.512	82.7707	124.512	83.4098	124.512	82.73	124.512	83.3652	124.512	82.698	124.512	83.3083	124.512	82.6743	124.512	83.2405	124.512	82.6582	124.512	83.1641	124.512	82.6495	124.512	83.0825	124.512	82.6484	124.512	82.9999	124.512	82.6555	124.512	82.9206	124.512	82.6719	124.512	82.8486	124.512	82.6986	124.512	82.7868	124.512	82.7367
128.906	83.6796	128.906	83.6103	128.906	83.7415	128.906	83.5365	128.906	83.7943	128.906	83.4621	128.906	83.8371	128.906	83.3914	128.906	83.87	128.906	83.3289	128.906	83.8934	128.906	83.2779	128.906	83.9076	128.906	83.2406	128.906	83.9127	128.906	83.218	128.906	83.9083	128.906	83.2091	128.906	83.8941	128.906	83.2122	128.906	83.8694	128.906	83.2247	128.906	83.8341	128.906	83.2442	128.906	83.7888	128.906	83.2685	128.906	83.7352	128.906	83.2965	128.906	83.676	128.906	83.3278	128.906	83.6147	128.906	83.3628	128.906	83.5545	128.906	83.4024	128.906	83.4982	128.906	83.4473
133.301	84.1581	133.301	84.0885	133.301	84.2228	133.301	84.0174	133.301	84.2801	133.301	83.9485	133.301	84.3281	133.301	83.8853	133.301	84.3656	133.301	83.8313	133.301	84.3918	133.301	83.7889	133.301	84.4067	133.301	83.7596	133.301	84.4104	133.301	83.7435	133.301	84.4033	133.301	83.7396	133.301	84.3856	133.301	83.7459	133.301	84.358	133.301	83.7603	133.301	84.321	133.301	83.7803	133.301	84.276	133.301	83.8043	133.301	84.2248	133.301	83.831	133.301	84.1701	133.301	83.8602	133.301	84.1148	133.301	83.8922	133.301	84.0615	133.301	83.9277	133.301	84.0121	133.301	83.9674
139.16	84.7292	139.16	84.6571	139.16	84.7902	139.16	84.5775	139.16	84.8375	139.16	84.4947	139.16	84.87	139.16	84.4137	139.16	84.8877	139.16	84.3393	139.16	84.8917	139.16	84.2758	139.16	84.8839	139.16	84.2265	139.16	84.8663	139.16	84.1931	139.16	84.8411	139.16	84.1758	139.16	84.81	139.16	84.1733	139.16	84.7738	139.16	84.1832	139.16	84.7332	139.16	84.2026	139.16	84.6885	139.16	84.2285	139.16	84.6404	139.16	84.2586	139.16	84.5903	139.16	84.2913	139.16	84.5399	139.16	84.3259	139.16	84.4909	139.16	84.3627	139.16	84.4448	139.16	84.4021
143.555	85.0484	143.555	84.9844	143.555	85.0996	143.555	84.9109	143.555	85.1362	143.555	84.8321	143.555	85.1574	143.555	84.7526	143.555	85.1639	143.555	84.6773	143.555	85.1573	143.555	84.6103	143.555	85.1399	143.555	84.555	143.555	85.1141	143.555	84.5134	143.555	85.082	143.555	84.4862	143.555	85.045	143.555	84.4728	143.555	85.0041	143.555	84.4715	143.555	84.9598	143.555	84.4799	143.555	84.9125	143.555	84.4958	143.555	84.8631	143.555	84.517	143.555	84.8131	143.555	84.542	143.555	84.7641	143.555	84.5703	143.555	84.7177	143.555	84.6016	143.555	84.675	143.555	84.6363
147.949	85.2236	147.949	85.1551	147.949	85.2783	147.949	85.0763	147.949	85.3174	147.949	84.9919	147.949	85.3405	147.949	84.9069	147.949	85.3488	147.949	84.8269	147.949	85.3443	147.949	84.7564	147.949	85.3297	147.949	84.6993	147.949	85.3073	147.949	84.6578	147.949	85.2791	147.949	84.6325	147.949	85.2461	147.949	84.6226	147.949	85.2087	147.949	84.6262	147.949	85.167	147.949	84.6405	147.949	85.1214	147.949	84.663	147.949	85.0725	147.949	84.6911	147.949	85.022	147.949	84.723	147.949	84.9716	147.949	84.7577	147.949	84.9229	147.949	84.7948	147.949	84.8771	147.949	84.8345
153.809	85.2004	153.809	85.132	153.809	85.2582	153.809	85.0563	153.809	85.3042	153.809	84.9777	153.809	85.3386	153.809	84.9015	153.809	85.3633	153.809	84.8334	153.809	85.3803	153.809	84.7784	153.809	85.3919	153.809	84.7404	153.809	85.3995	153.809	84.7215	153.809	85.4035	153.809	84.722	153.809	85.4036	153.809	84.7402	153.809	85.3984	153.809	84.7732	153.809	85.3868	153.809	84.8171	153.809	85.3677	153.809	84.8679	153.809	85.3412	153.809	84.9222	153.809	85.308	153.809	84.9772	153.809	85.2693	153.809	85.0312	153.809	85.2267	153.809	85.0834	153.809	85.1812	153.809	85.1334
159.668	85.3559	159.668	85.2722	159.668	85.4283	159.668	85.1808	159.668	85.4879	159.668	85.0862	159.668	85.5342	159.668	84.9945	159.668	85.5678	159.668	84.9118	159.668	85.5896	159.668	84.8433	159.668	85.6004	159.668	84.7932	159.668	85.6009	159.668	84.7634	159.668	85.5916	159.668	84.7539	159.668	85.5731	159.668	84.7629	159.668	85.5459	159.668	84.7875	159.668	85.511	159.668	84.8243	159.668	85.4695	159.668	84.8702	159.668	85.423	159.668	84.9223	159.668	85.3731	159.668	84.9785	159.668	85.3209	159.668	85.0368	159.668	85.2669	159.668	85.0957	159.668	85.2113	159.668	85.1542
165.527	85.4546	165.527	85.3662	165.527	85.5304	165.527	85.2692	165.527	85.591	165.527	85.1689	165.527	85.6357	165.527	85.0714	165.527	85.6649	165.527	84.9831	165.527	85.6804	165.527	84.9097	165.527	85.6846	165.527	84.8559	165.527	85.6795	165.527	84.8242	165.527	85.6667	165.527	84.815	165.527	85.6468	165.527	84.8263	165.527	85.6195	165.527	84.8545	165.527	85.5844	165.527	84.895	165.527	85.5415	165.527	84.9433	165.527	85.4919	165.527	84.9958	165.527	85.4375	165.527	85.0498	165.527	85.3808	165.527	85.104	165.527	85.3238	165.527	85.1581	165.527	85.2676	165.527	85.2125
171.387	85.5302	171.387	85.4461	171.387	85.598	171.387	85.349	171.387	85.6482	171.387	85.2439	171.387	85.6808	171.387	85.1369	171.387	85.6974	171.387	85.0345	171.387	85.7006	171.387	84.9434	171.387	85.6928	171.387	84.8693	171.387	85.6763	171.387	84.8162	171.387	85.6527	171.387	84.786	171.387	85.6224	171.387	84.7782	171.387	85.5852	171.387	84.7905	171.387	85.5409	171.387	84.8192	171.387	85.49	171.387	84.8601	171.387	85.4337	171.387	84.9093	171.387	85.3741	171.387	84.9633	171.387	85.3133	171.387	85.0198	171.387	85.2529	171.387	85.0773	171.387	85.1936	171.387	85.1352
177.246	85.4593	177.246	85.361	177.246	85.5394	177.246	85.2494	177.246	85.5981	177.246	85.1309	177.246	85.6342	177.246	85.0128	177.246	85.6484	177.246	84.9029	177.246	85.6432	177.246	84.8085	177.246	85.6229	177.246	84.7357	177.246	85.5919	177.246	84.6886	177.246	85.5546	177.246	84.6683	177.246	85.5144	177.246	84.6731	177.246	85.4732	177.246	84.6992	177.246	85.4315	177.246	84.7413	177.246	85.3891	177.246	84.7944	177.246	85.3457	177.246	84.8536	177.246	85.3008	177.246	84.9156	177.246	85.2539	177.246	84.9778	177.246	85.2046	177.246	85.0386	177.246	85.1523	177.246	85.0969
183.105	85.4012	183.105	85.3078	183.105	85.4722	183.105	85.1978	183.105	85.5173	183.105	85.0781	183.105	85.5357	183.105	84.9566	183.105	85.5294	183.105	84.8413	183.105	85.5026	183.105	84.7398	183.105	85.4615	183.105	84.6588	183.105	85.4123	183.105	84.6032	183.105	85.3607	183.105	84.5756	183.105	85.3112	183.105	84.5759	183.105	85.2665	183.105	84.6013	183.105	85.2284	183.105	84.6467	183.105	85.1972	183.105	84.7059	183.105	85.1717	183.105	84.7729	183.105	85.1496	183.105	84.8419	183.105	85.1271	183.105	84.9087	183.105	85.1004	183.105	84.9698	183.105	85.0662	183.105	85.0227
188.965	85.1848	188.965	85.0997	188.965	85.2472	188.965	84.9959	188.965	85.2849	188.965	84.8796	188.965	85.2988	188.965	84.758	188.965	85.2919	188.965	84.6396	188.965	85.2694	188.965	84.5325	188.965	85.2373	188.965	84.4447	188.965	85.2018	188.965	84.3823	188.965	85.1681	188.965	84.3495	188.965	85.1397	188.965	84.3474	188.965	85.1179	188.965	84.3741	188.965	85.1019	188.965	84.425	188.965	85.0892	188.965	84.4938	188.965	85.0764	188.965	84.5736	188.965	85.0593	188.965	84.6581	188.965	85.0342	188.965	84.7419	188.965	84.9985	188.965	84.8206	188.965	84.9508	188.965	84.891
196.289	85.1397	196.289	85.0466	196.289	85.2124	196.289	84.9375	196.289	85.262	196.289	84.8178	196.289	85.2871	196.289	84.6941	196.289	85.2883	196.289	84.5733	196.289	85.2678	196.289	84.4624	196.289	85.2296	196.289	84.3679	196.289	85.1787	196.289	84.2956	196.289	85.1212	196.289	84.2495	196.289	85.0633	196.289	84.2317	196.289	85.0106	196.289	84.2417	196.289	84.9667	196.289	84.2771	196.289	84.9329	196.289	84.3331	196.289	84.907	196.289	84.4041	196.289	84.8843	196.289	84.4839	196.289	84.8585	196.289	84.5663	196.289	84.824	196.289	84.6456	196.289	84.7771	196.289	84.7171
203.613	85.0814	203.613	84.9821	203.613	85.1561	203.613	84.863	203.613	85.203	203.613	84.7302	203.613	85.2213	203.613	84.591	203.613	85.2123	203.613	84.4533	203.613	85.179	203.613	84.325	203.613	85.1261	203.613	84.2132	203.613	85.0588	203.613	84.1238	203.613	84.9819	203.613	84.061	203.613	84.9007	203.613	84.0271	203.613	84.8202	203.613	84.0221	203.613	84.746	203.613	84.0441	203.613	84.6833	203.613	84.0894	203.613	84.6349	203.613	84.1528	203.613	84.5993	203.613	84.2277	203.613	84.5707	203.613	84.3068	203.613	84.5408	203.613	84.3827	203.613	84.5017	203.613	84.449
210.938	84.7861	210.938	84.6853	210.938	84.8603	210.938	84.5631	210.938	84.9054	210.938	84.4268	210.938	84.9216	210.938	84.2855	210.938	84.9118	210.938	84.1491	210.938	84.8809	210.938	84.0276	210.938	84.8351	210.938	83.9294	210.938	84.7807	210.938	83.8604	210.938	84.7224	210.938	83.8228	210.938	84.6633	210.938	83.8155	210.938	84.6049	210.938	83.8341	210.938	84.5483	210.938	83.8727	210.938	84.4948	210.938	83.9247	210.938	84.4456	210.938	83.9847	210.938	84.4012	210.938	84.048	210.938	84.3603	210.938	84.1112	210.938	84.3197	210.938	84.1716	210.938	84.2761	210.938	84.2269
218.262	84.4496	218.262	84.3512	218.262	84.5205	218.262	84.2327	218.262	84.5596	218.262	84.1031	218.262	84.5659	218.262	83.9724	218.262	84.5428	218.262	83.8506	218.262	84.4974	218.262	83.7468	218.262	84.4401	218.262	83.6686	218.262	84.3818	218.262	83.6217	218.262	84.3323	218.262	83.6088	218.262	84.298	218.262	83.6295	218.262	84.2814	218.262	83.6804	218.262	84.2812	218.262	83.7549	218.262	84.2934	218.262	83.845	218.262	84.3118	218.262	83.9422	218.262	84.3293	218.262	84.0387	218.262	84.3387	218.262	84.1283	218.262	84.3336	218.262	84.2057	218.262	84.3103	218.262	84.2673
225.586	84.3786	225.586	84.2818	225.586	84.4456	225.586	84.1617	225.586	84.479	225.586	84.0272	225.586	84.4783	225.586	83.8885	225.586	84.4465	225.586	83.7566	225.586	84.39	225.586	83.6418	225.586	84.3174	225.586	83.5525	225.586	84.2386	225.586	83.4943	225.586	84.1632	225.586	83.4693	225.586	84.0993	225.586	83.4765	225.586	84.0532	225.586	83.5121	225.586	84.0283	225.586	83.5707	225.586	84.0245	225.586	83.646	225.586	84.0378	225.586	83.7314	225.586	84.0601	225.586	83.8202	225.586	84.0803	225.586	83.9056	225.586	84.0879	225.586	83.9807	225.586	84.0751	225.586	84.0388
232.91	84.3002	232.91	84.1973	232.91	84.3691	232.91	84.0667	232.91	84.4006	232.91	83.9169	232.91	84.394	232.91	83.7584	232.91	84.352	232.91	83.6031	232.91	84.2807	232.91	83.4634	232.91	84.1886	232.91	83.3507	232.91	84.0857	232.91	83.2739	232.91	83.982	232.91	83.2377	232.91	83.8871	232.91	83.2419	232.91	83.8093	232.91	83.2817	232.91	83.7559	232.91	83.3492	232.91	83.731	232.91	83.4347	232.91	83.7342	232.91	83.5282	232.91	83.7585	232.91	83.6206	232.91	83.7914	232.91	83.7035	232.91	83.8186	232.91	83.7692	232.91	83.8278	232.91	83.8118
241.699	83.9493	241.699	83.8343	241.699	84.0342	241.699	83.6952	241.699	84.0856	241.699	83.5402	241.699	84.1035	241.699	83.3802	241.699	84.0909	241.699	83.2273	241.699	84.0533	241.699	83.0943	241.699	83.9967	241.699	82.9923	241.699	83.9263	241.699	82.9289	241.699	83.8455	241.699	82.9063	241.699	83.7567	241.699	82.9212	241.699	83.6632	241.699	82.966	241.699	83.5718	241.699	83.0314	241.699	83.4922	241.699	83.1079	241.699	83.4343	241.699	83.187	241.699	83.4032	241.699	83.2614	241.699	83.3959	241.699	83.3248	241.699	83.4016	241.699	83.3716	241.699	83.4064	241.699	83.3986
250.488	83.8884	250.488	83.7263	250.488	83.9983	250.488	83.5169	250.488	84.0554	250.488	83.2697	250.488	84.0631	250.488	82.9984	250.488	84.0292	250.488	82.7217	250.488	83.9644	250.488	82.4618	250.488	83.8818	250.488	82.2429	250.488	83.7938	250.488	82.0875	250.488	83.7099	250.488	82.0114	250.488	83.6352	250.488	82.019	250.488	83.5703	250.488	82.1016	250.488	83.5131	250.488	82.2401	250.488	83.4614	250.488	82.4106	250.488	83.4139	250.488	82.5906	250.488	83.3697	250.488	82.7626	250.488	83.3263	250.488	82.9152	250.488	83.279	250.488	83.0426	250.488	83.2205	250.488	83.1436
259.277	83.8709	259.277	83.6883	259.277	84.0026	259.277	83.4616	259.277	84.0803	259.277	83.2023	259.277	84.1051	259.277	82.9258	259.277	84.082	259.277	82.6514	259.277	84.0195	259.277	82.4004	259.277	83.9286	259.277	82.1938	259.277	83.8211	259.277	82.0489	259.277	83.707	259.277	81.9761	259.277	83.5932	259.277	81.9762	259.277	83.4838	259.277	82.0407	259.277	83.3823	259.277	82.1539	259.277	83.2925	259.277	82.2971	259.277	83.2182	259.277	82.4526	259.277	83.16	259.277	82.6053	259.277	83.1142	259.277	82.7439	259.277	83.0717	259.277	82.861	259.277	83.0213	259.277	82.9531
268.066	83.8323	268.066	83.6423	268.066	83.9676	268.066	83.4048	268.066	84.0431	268.066	83.128	268.066	84.0572	268.066	82.8217	268.066	84.0135	268.066	82.4982	268.066	83.9225	268.066	82.1743	268.066	83.8012	268.066	81.872	268.066	83.6709	268.066	81.6182	268.066	83.5531	268.066	81.4398	268.066	83.4627	268.066	81.3563	268.066	83.4035	268.066	81.3729	268.066	83.3673	268.066	81.4779	268.066	83.3383	268.066	81.6483	268.066	83.2995	268.066	81.8576	268.066	83.2384	268.066	82.0825	268.066	83.1484	268.066	82.306	268.066	83.0289	268.066	82.5175	268.066	82.8821	268.066	82.7107
276.855	83.371	276.855	83.2146	276.855	83.4951	276.855	83.0329	276.855	83.5811	276.855	82.8335	276.855	83.6247	276.855	82.6249	276.855	83.6236	276.855	82.415	276.855	83.5791	276.855	82.2111	276.855	83.497	276.855	82.0201	276.855	83.3874	276.855	81.8495	276.855	83.2651	276.855	81.709	276.855	83.1477	276.855	81.61	276.855	83.053	276.855	81.5628	276.855	82.9937	276.855	81.5734	276.855	82.9704	276.855	81.6413	276.855	82.9684	276.855	81.7601	276.855	82.9618	276.855	81.9201	276.855	82.9236	276.855	82.1096	276.855	82.8362	276.855	82.3143	276.855	82.697	276.855	82.5168
287.109	83.2429	287.109	83.1182	287.109	83.3267	287.109	82.9561	287.109	83.3681	287.109	82.7625	287.109	83.3682	287.109	82.5462	287.109	83.3315	287.109	82.3193	287.109	83.2656	287.109	82.0971	287.109	83.1793	287.109	81.8973	287.109	83.0798	287.109	81.7367	287.109	82.9718	287.109	81.6284	287.109	82.858	287.109	81.5786	287.109	82.7439	287.109	81.5859	287.109	82.6406	287.109	81.6432	287.109	82.5637	287.109	81.74	287.109	82.5245	287.109	81.8653	287.109	82.5198	287.109	82.008	287.109	82.53	287.109	82.1562	287.109	82.5276	287.109	82.296	287.109	82.491	287.109	82.412
297.363	83.224	297.363	83.1644	297.363	83.2264	297.363	83.0553	297.363	83.1695	297.363	82.907	297.363	83.0589	297.363	82.7297	297.363	82.9069	297.363	82.5311	297.363	82.7313	297.363	82.3164	297.363	82.5515	297.363	82.0919	297.363	82.3864	297.363	81.8695	297.363	82.2524	297.363	81.6688	297.363	82.1631	297.363	81.5157	297.363	82.1268	297.363	81.4337	297.363	82.1427	297.363	81.4339	297.363	82.1983	297.363	81.5094	297.363	82.2717	297.363	81.6396	297.363	82.3383	297.363	81.7987	297.363	82.3772	297.363	81.9632	297.363	82.3757	297.363	82.1148	297.363	82.3293	297.363	82.2401
307.617	83.1371	307.617	82.9461	307.617	83.2789	307.617	82.7198	307.617	83.3615	307.617	82.4762	307.617	83.3797	307.617	82.2358	307.617	83.3337	307.617	82.02	307.617	83.2289	307.617	81.8468	307.617	83.0753	307.617	81.7273	307.617	82.8844	307.617	81.663	307.617	82.6677	307.617	81.6478	307.617	82.437	307.617	81.6709	307.617	82.208	307.617	81.7201	307.617	82.0034	307.617	81.7841	307.617	81.8498	307.617	81.8522	307.617	81.7671	307.617	81.9148	307.617	81.7566	307.617	81.964	307.617	81.7994	307.617	81.9934	307.617	81.8663	307.617	81.9988	307.617	81.9313	307.617	81.9778
319.336	82.9517	319.336	82.7498	319.336	83.0978	319.336	82.506	319.336	83.1775	319.336	82.2355	319.336	83.1867	319.336	81.9531	319.336	83.1301	319.336	81.6716	319.336	83.0224	319.336	81.4021	319.336	82.8851	319.336	81.1555	319.336	82.7392	319.336	80.9468	319.336	82.5973	319.336	80.7969	319.336	82.4635	319.336	80.7306	319.336	82.3401	319.336	80.7673	319.336	82.2362	319.336	80.9084	319.336	82.1679	319.336	81.1317	319.336	82.1468	319.336	81.3976	319.336	82.1681	319.336	81.6634	319.336	82.2094	319.336	81.8948	319.336	82.2415	319.336	82.0713	319.336	82.2392	319.336	82.1855
329.59	82.5299	329.59	82.3613	329.59	82.6391	329.59	82.1431	329.59	82.6841	329.59	81.8892	329.59	82.6667	329.59	81.616	329.59	82.5967	329.59	81.3405	329.59	82.4915	329.59	81.077	329.59	82.372	329.59	80.835	329.59	82.2563	329.59	80.6183	329.59	82.155	329.59	80.4283	329.59	82.0718	329.59	80.2697	329.59	82.0093	329.59	80.1571	329.59	81.9749	329.59	80.1157	329.59	81.9782	329.59	80.1737	329.59	82.0187	329.59	80.3466	329.59	82.0739	329.59	80.6243	329.59	82.1012	329.59	80.9703	329.59	82.0558	329.59	81.3333	329.59	81.9094	329.59	81.6606
341.309	82.8179	341.309	82.6457	341.309	82.9283	341.309	82.4228	341.309	82.9702	341.309	82.1643	341.309	82.9422	341.309	81.8882	341.309	82.8504	341.309	81.6136	341.309	82.7097	341.309	81.3579	341.309	82.5422	341.309	81.1347	341.309	82.3712	341.309	80.9514	341.309	82.2133	341.309	80.8089	341.309	82.0737	341.309	80.7042	341.309	81.9499	341.309	80.635	341.309	81.842	341.309	80.6053	341.309	81.7603	341.309	80.6268	341.309	81.7201	341.309	80.7139	341.309	81.7241	341.309	80.8723	341.309	81.7484	341.309	81.0881	341.309	81.7486	341.309	81.3255	341.309	81.6837	341.309	81.5374
353.027	82.602	353.027	82.4846	353.027	82.6491	353.027	82.3053	353.027	82.6239	353.027	82.0745	353.027	82.5344	353.027	81.8032	353.027	82.4007	353.027	81.5037	353.027	82.2504	353.027	81.1912	353.027	82.1088	353.027	80.8863	353.027	81.9875	353.027	80.6152	353.027	81.881	353.027	80.4072	353.027	81.7749	353.027	80.2863	353.027	81.6613	353.027	80.2613	353.027	81.55	353.027	80.3216	353.027	81.4641	353.027	80.4431	353.027	81.422	353.027	80.5996	353.027	81.4184	353.027	80.771	353.027	81.4255	353.027	80.9437	353.027	81.41	353.027	81.1067	353.027	81.3515	353.027	81.2472
366.211	82.5267	366.211	82.4062	366.211	82.5824	366.211	82.2305	366.211	82.5668	366.211	82.0105	366.211	82.4767	366.211	81.7587	366.211	82.3147	366.211	81.488	366.211	82.0929	366.211	81.2142	366.211	81.837	366.211	80.9572	366.211	81.5863	366.211	80.7422	366.211	81.3846	366.211	80.5945	366.211	81.263	366.211	80.5279	366.211	81.224	366.211	80.5359	366.211	81.2439	366.211	80.5934	366.211	81.2898	366.211	80.672	366.211	81.3352	366.211	80.7545	366.211	81.3638	366.211	80.8393	366.211	81.3645	366.211	80.9338	366.211	81.3293	366.211	81.0415	366.211	81.2565	366.211	81.1549
379.395	82.518	379.395	82.319	379.395	82.6591	379.395	82.0842	379.395	82.7262	379.395	81.8387	379.395	82.7097	379.395	81.6037	379.395	82.6067	379.395	81.388	379.395	82.422	379.395	81.1852	379.395	82.169	379.395	80.9794	379.395	81.8674	379.395	80.7585	379.395	81.5396	379.395	80.5291	379.395	81.2126	379.395	80.3225	379.395	80.9266	379.395	80.1864	379.395	80.7376	379.395	80.1627	379.395	80.6989	379.395	80.2628	379.395	80.8182	379.395	80.4619	379.395	81.0371	379.395	80.7146	379.395	81.261	379.395	80.9747	379.395	81.4102	379.395	81.2042	379.395	81.4469	379.395	81.3711
392.578	82.4642	392.578	82.2668	392.578	82.5995	392.578	82.0188	392.578	82.6599	392.578	81.7329	392.578	82.6332	392.578	81.4268	392.578	82.5154	392.578	81.1221	392.578	82.3198	392.578	80.8392	392.578	82.0778	392.578	80.5893	392.578	81.8275	392.578	80.371	392.578	81.5944	392.578	80.1758	392.578	81.3792	392.578	79.9996	392.578	81.1681	392.578	79.8529	392.578	80.9578	392.578	79.7601	392.578	80.7746	392.578	79.748	392.578	80.6637	392.578	79.8304	392.578	80.6493	392.578	79.998	392.578	80.7022	392.578	80.2194	392.578	80.7542	392.578	80.4483	392.578	80.7412	392.578	80.6353
405.762	82.0186	405.762	81.8612	405.762	82.1037	405.762	81.6553	405.762	82.0994	405.762	81.4276	405.762	82.0041	405.762	81.2027	405.762	81.8396	405.762	80.9976	405.762	81.6527	405.762	80.8169	405.762	81.4995	405.762	80.6532	405.762	81.4164	405.762	80.494	405.762	81.4005	405.762	80.3299	405.762	81.4182	405.762	80.1618	405.762	81.4317	405.762	80.0021	405.762	81.4193	405.762	79.873	405.762	81.3778	405.762	79.8019	405.762	81.3127	405.762	79.8129	405.762	81.2267	405.762	79.9159	405.762	81.1161	405.762	80.0991	405.762	80.9733	405.762	80.3307	405.762	80.7914	405.762	80.572
420.41	81.7604	420.41	81.6387	420.41	81.8023	420.41	81.4595	420.41	81.7599	420.41	81.2532	420.41	81.6521	420.41	81.0496	420.41	81.5206	420.41	80.8717	420.41	81.4157	420.41	80.7327	420.41	81.3727	420.41	80.6375	420.41	81.3893	420.41	80.5853	420.41	81.4225	420.41	80.5708	420.41	81.4107	420.41	80.5844	420.41	81.313	420.41	80.6146	420.41	81.1434	420.41	80.6532	420.41	80.978	420.41	80.7007	420.41	80.9125	420.41	80.7677	420.41	80.986	420.41	80.868	420.41	81.1434	420.41	81.0044	420.41	81.2845	420.41	81.1572	420.41	81.3368	420.41	81.2844
435.059	81.2712	435.059	81.0418	435.059	81.4118	435.059	80.7572	435.059	81.4451	435.059	80.4621	435.059	81.3706	435.059	80.2049	435.059	81.2083	435.059	80.0292	435.059	81.0025	435.059	79.9652	435.059	80.8181	435.059	80.025	435.059	80.7192	435.059	80.2009	435.059	80.7307	435.059	80.4654	435.059	80.8182	435.059	80.7762	435.059	80.9193	435.059	81.0869	435.059	80.9958	435.059	81.3589	435.059	81.0583	435.059	81.5696	435.059	81.1479	435.059	81.7148	435.059	81.2922	435.059	81.8045	435.059	81.4761	435.059	81.8543	435.059	81.6543	435.059	81.8731	435.059	81.7854	435.059	81.8553
451.172	82.9701	451.172	82.7111	451.172	83.0779	451.172	82.3142	451.172	83.0267	451.172	81.8052	451.172	82.8103	451.172	81.2238	451.172	82.428	451.172	80.6197	451.172	81.9015	451.172	80.0433	451.172	81.2975	451.172	79.5426	451.172	80.7404	451.172	79.1714	451.172	80.3825	451.172	78.9985	451.172	80.3184	451.172	79.0878	451.172	80.513	451.172	79.4478	451.172	80.8416	451.172	80.0035	451.172	81.193	451.172	80.6323	451.172	81.5179	451.172	81.2248	451.172	81.8083	451.172	81.7144	451.172	82.0606	451.172	82.0736	451.172	82.2585	451.172	82.2988	451.172	82.3778	451.172	82.3965
465.82	83.3322	465.82	83.0957	465.82	83.4319	465.82	82.7406	465.82	83.3819	465.82	82.2881	465.82	83.1796	465.82	81.7623	465.82	82.8405	465.82	81.1903	465.82	82.4023	465.82	80.6041	465.82	81.9169	465.82	80.0468	465.82	81.4325	465.82	79.5794	465.82	80.9826	465.82	79.2782	465.82	80.6011	465.82	79.2084	465.82	80.3562	465.82	79.3873	465.82	80.3514	465.82	79.771	465.82	80.6448	465.82	80.2805	465.82	81.1637	465.82	80.8371	465.82	81.7398	465.82	81.3796	465.82	82.2179	465.82	81.8623	465.82	82.5132	465.82	82.249	465.82	82.6045	465.82	82.5069
483.398	83.4872	483.398	83.2628	483.398	83.5766	483.398	82.9054	483.398	83.5349	483.398	82.429	483.398	83.3692	483.398	81.8618	483.398	83.0933	483.398	81.2406	483.398	82.7357	483.398	80.5986	483.398	82.3421	483.398	79.9589	483.398	81.9633	483.398	79.3477	483.398	81.6258	483.398	78.8257	483.398	81.3085	483.398	78.5024	483.398	80.9681	483.398	78.4899	483.398	80.6191	483.398	78.8096	483.398	80.398	483.398	79.3669	483.398	80.4868	483.398	80.0249	483.398	80.9012	483.398	80.676	483.398	81.4387	483.398	81.2535	483.398	81.8667	483.398	81.7094	483.398	82.0592	483.398	81.9951
499.512	83.8881	499.512	83.6614	499.512	84.0011	499.512	83.3339	499.512	83.9884	499.512	82.9218	499.512	83.838	499.512	82.4428	499.512	83.544	499.512	81.9111	499.512	83.1189	499.512	81.3353	499.512	82.6037	499.512	80.7252	499.512	82.0648	499.512	80.1051	499.512	81.5757	499.512	79.5299	499.512	81.1858	499.512	79.0917	499.512	80.8977	499.512	78.8971	499.512	80.694	499.512	79.0117	499.512	80.5996	499.512	79.4125	499.512	80.6887	499.512	80.0013	499.512	80.9946	499.512	80.6564	499.512	81.4279	499.512	81.2672	499.512	81.823	499.512	81.743	499.512	82.0408	499.512	82.0147
517.09	83.881	517.09	83.6635	517.09	83.9324	517.09	83.2957	517.09	83.8282	517.09	82.8231	517.09	83.5988	517.09	82.3146	517.09	83.2866	517.09	81.8363	517.09	82.9309	517.09	81.4162	517.09	82.5516	517.09	81.0259	517.09	82.146	517.09	80.599	517.09	81.7054	517.09	80.079	517.09	81.2364	517.09	79.4704	517.09	80.7715	517.09	78.8668	517.09	80.3692	517.09	78.4362	517.09	80.1066	517.09	78.3427	517.09	80.0537	517.09	78.637	517.09	80.2238	517.09	79.2157	517.09	80.5347	517.09	79.8905	517.09	80.8341	517.09	80.4807	517.09	80.9732	517.09	80.8608
536.133	84.006	536.133	83.7643	536.133	84.0535	536.133	83.3414	536.133	83.9076	536.133	82.773	536.133	83.5793	536.133	82.1259	536.133	83.0938	536.133	81.4945	536.133	82.5045	536.133	80.9725	536.133	81.9058	536.133	80.6024	536.133	81.4165	536.133	80.3415	536.133	81.1166	536.133	80.0932	536.133	80.9853	536.133	79.7817	536.133	80.923	536.133	79.4099	536.133	80.8551	536.133	79.0659	536.133	80.808	536.133	78.8824	536.133	80.8738	536.133	78.9656	536.133	81.0818	536.133	79.3302	536.133	81.3282	536.133	79.889	536.133	81.4558	536.133	80.5	536.133	81.3607	536.133	81.0249
555.176	83.9977	555.176	83.6889	555.176	84.1433	555.176	83.2295	555.176	84.1202	555.176	82.652	555.176	83.9239	555.176	82.0161	555.176	83.5574	555.176	81.3996	555.176	83.0471	555.176	80.8729	555.176	82.4503	555.176	80.4691	555.176	81.8397	555.176	80.1755	555.176	81.2721	555.176	79.9532	555.176	80.7628	555.176	79.7703	555.176	80.3027	555.176	79.6223	555.176	79.9329	555.176	79.5341	555.176	79.7826	555.176	79.5461	555.176	79.9558	555.176	79.6894	555.176	80.3723	555.176	79.965	555.176	80.8163	555.176	80.3321	555.176	81.1077	555.176	80.715	555.176	81.1731	555.176	81.023
574.219	84.237	574.219	83.8539	574.219	84.4661	574.219	83.3249	574.219	84.5353	574.219	82.6777	574.219	84.4313	574.219	81.9731	574.219	84.1364	574.219	81.3021	574.219	83.6474	574.219	80.7536	574.219	83.0013	574.219	80.3633	574.219	82.289	574.219	80.0896	574.219	81.6253	574.219	79.8459	574.219	81.077	574.219	79.5584	574.219	80.6126	574.219	79.2076	574.219	80.1603	574.219	78.8598	574.219	79.7447	574.219	78.6809	574.219	79.546	574.219	78.8584	574.219	79.7373	574.219	79.4123	574.219	80.2432	574.219	80.1372	574.219	80.7886	574.219	80.7687	574.219	81.1247	574.219	81.124
594.727	84.1227	594.727	83.8266	594.727	84.2368	594.727	83.3482	594.727	84.1849	594.727	82.6982	594.727	83.992	594.727	81.896	594.727	83.6715	594.727	80.9841	594.727	83.2216	594.727	80.0576	594.727	82.6606	594.727	79.2789	594.727	82.0688	594.727	78.8228	594.727	81.5686	594.727	78.7388	594.727	81.2329	594.727	78.8803	594.727	81.0071	594.727	79.0192	594.727	80.7527	594.727	79.0114	594.727	80.3807	594.727	78.8789	594.727	79.9552	594.727	78.7931	594.727	79.6775	594.727	78.9384	594.727	79.6969	594.727	79.3213	594.727	79.917	594.727	79.7599	594.727	80.0939	594.727	80.052
615.234	84.0817	615.234	83.7533	615.234	84.2467	615.234	83.2438	615.234	84.2688	615.234	82.5618	615.234	84.1444	615.234	81.7521	615.234	83.8362	615.234	80.8865	615.234	83.3029	615.234	80.0411	615.234	82.5615	615.234	79.2918	615.234	81.7364	615.234	78.7379	615.234	81.0384	615.234	78.4819	615.234	80.6236	615.234	78.5208	615.234	80.4381	615.234	78.7049	615.234	80.3127	615.234	78.8542	615.234	80.1952	615.234	78.8908	615.234	80.1789	615.234	78.8943	615.234	80.3275	615.234	79.0481	615.234	80.5623	615.234	79.4556	615.234	80.7355	615.234	80.0036	615.234	80.7273	615.234	80.4755
637.207	83.8772	637.207	83.4468	637.207	84.2016	637.207	82.9279	637.207	84.3949	637.207	82.3327	637.207	84.4234	637.207	81.6699	637.207	84.2476	637.207	80.9519	637.207	83.8345	637.207	80.2122	637.207	83.1831	637.207	79.515	637.207	82.3516	637.207	78.9258	637.207	81.4556	637.207	78.4551	637.207	80.6233	637.207	78.0541	637.207	79.9389	637.207	77.7027	637.207	79.419	637.207	77.4985	637.207	79.0478	637.207	77.6115	637.207	78.8512	637.207	78.0909	637.207	78.9107	637.207	78.7757	637.207	79.2434	637.207	79.4392	637.207	79.6979	637.207	79.9213	637.207	80.0463	637.207	80.1349
659.18	83.8029	659.18	83.5449	659.18	83.8657	659.18	83.0739	659.18	83.7601	659.18	82.3869	659.18	83.5255	659.18	81.5171	659.18	83.2058	659.18	80.5592	659.18	82.8222	659.18	79.6659	659.18	82.368	659.18	79.0018	659.18	81.8534	659.18	78.6586	659.18	81.3483	659.18	78.5789	659.18	80.9447	659.18	78.5822	659.18	80.6611	659.18	78.485	659.18	80.3966	659.18	78.197	659.18	80.0153	659.18	77.7892	659.18	79.5049	659.18	77.5394	659.18	79.0593	659.18	77.7616	659.18	78.9474	659.18	78.4084	659.18	79.1858	659.18	79.0914	659.18	79.4693	659.18	79.4795
682.617	84.0017	682.617	83.4838	682.617	84.2434	682.617	82.7494	682.617	84.2178	682.617	81.8953	682.617	84.0176	682.617	81.0265	682.617	83.7461	682.617	80.2196	682.617	83.3872	682.617	79.4979	682.617	82.8438	682.617	78.8622	682.617	82.1573	682.617	78.3761	682.617	81.5706	682.617	78.2063	682.617	81.2558	682.617	78.4584	682.617	81.0778	682.617	78.9347	682.617	80.8243	682.617	79.2619	682.617	80.5119	682.617	79.2256	682.617	80.3297	682.617	78.9103	682.617	80.3425	682.617	78.6481	682.617	80.4037	682.617	78.7613	682.617	80.3598	682.617	79.2273	682.617	80.1521	682.617	79.7603
707.52	83.8648	707.52	83.6225	707.52	83.9552	707.52	83.1618	707.52	83.9974	707.52	82.4814	707.52	84.0532	707.52	81.6749	707.52	84.0395	707.52	80.9306	707.52	83.7536	707.52	80.4113	707.52	83.0466	707.52	80.1117	707.52	81.9859	707.52	79.9003	707.52	80.8642	707.52	79.6258	707.52	80.0276	707.52	79.1742	707.52	79.6578	707.52	78.5472	707.52	79.5492	707.52	77.9185	707.52	79.2934	707.52	77.5743	707.52	78.7454	707.52	77.6781	707.52	78.144	707.52	78.0885	707.52	77.9169	707.52	78.5336	707.52	78.1871	707.52	78.8247	707.52	78.6146	707.52	78.8629
732.422	83.8939	732.422	83.4707	732.422	84.066	732.422	82.8303	732.422	84.0203	732.422	82.0945	732.422	83.8083	732.422	81.4408	732.422	83.4477	732.422	80.9818	732.422	82.9335	732.422	80.6419	732.422	82.3123	732.422	80.2459	732.422	81.6905	732.422	79.779	732.422	81.1177	732.422	79.454	732.422	80.5704	732.422	79.4025	732.422	80.1405	732.422	79.4484	732.422	79.9966	732.422	79.3081	732.422	80.0484	732.422	78.8488	732.422	80.0055	732.422	78.2478	732.422	79.7295	732.422	77.9663	732.422	79.3784	732.422	78.2487	732.422	79.2172	732.422	78.7739	732.422	79.2282	732.422	79.1379
757.324	83.9646	757.324	83.6104	757.324	84.1108	757.324	82.9666	757.324	84.1525	757.324	82.0516	757.324	84.1312	757.324	81.0523	757.324	83.9644	757.324	80.2648	757.324	83.5225	757.324	79.854	757.324	82.8092	757.324	79.702	757.324	82.0226	757.324	79.6026	757.324	81.3725	757.324	79.557	757.324	80.8751	757.324	79.7067	757.324	80.4431	757.324	79.9775	757.324	80.0878	757.324	80.0575	757.324	79.9232	757.324	79.7178	757.324	80.0055	757.324	79.0057	757.324	80.2425	757.324	78.2897	757.324	80.4624	757.324	78.1346	757.324	80.4998	757.324	78.7184	757.324	80.2212	757.324	79.574
785.156	84.0525	785.156	83.5324	785.156	84.3525	785.156	82.897	785.156	84.3732	785.156	82.2713	785.156	84.1114	785.156	81.7318	785.156	83.613	785.156	81.2094	785.156	82.9506	785.156	80.5629	785.156	82.1974	785.156	79.788	785.156	81.3954	785.156	79.02	785.156	80.548	785.156	78.4133	785.156	79.7108	785.156	78.1464	785.156	79.1344	785.156	78.3386	785.156	79.1358	785.156	78.8579	785.156	79.5919	785.156	79.3742	785.156	79.9356	785.156	79.6268	785.156	79.7746	785.156	79.5531	785.156	79.2345	785.156	79.2715	785.156	78.8065	785.156	78.9932	785.156	78.7312	785.156	78.8253
811.523	84.2013	811.523	83.7048	811.523	84.585	811.523	83.192	811.523	84.8171	811.523	82.7852	811.523	84.8786	811.523	82.543	811.523	84.6889	811.523	82.3653	811.523	84.1059	811.523	82.0063	811.523	83.089	811.523	81.2417	811.523	81.8474	811.523	80.0685	811.523	80.706	811.523	78.8136	811.523	79.7759	811.523	77.9929	811.523	79.016	811.523	77.8139	811.523	78.6648	811.523	77.9995	811.523	78.9957	811.523	78.2624	811.523	79.6392	811.523	78.5744	811.523	80.0673	811.523	79.028	811.523	80.1683	811.523	79.6034	811.523	80.1889	811.523	80.1121	811.523	80.3088	811.523	80.3544
840.82	84.9	840.82	84.6327	840.82	84.9786	840.82	84.2017	840.82	84.9576	840.82	83.7548	840.82	84.8906	840.82	83.4113	840.82	84.6782	840.82	83.1069	840.82	84.1816	840.82	82.6709	840.82	83.4293	840.82	81.9875	840.82	82.5707	840.82	81.0165	840.82	81.6684	840.82	79.8339	840.82	80.7449	840.82	78.7228	840.82	79.8147	840.82	78.1411	840.82	78.8291	840.82	78.3516	840.82	77.9064	840.82	78.9468	840.82	77.6566	840.82	79.3415	840.82	78.4172	840.82	79.3608	840.82	79.3811	840.82	79.2017	840.82	79.836	840.82	79.1689	840.82	79.7356	840.82	79.3964
870.117	84.8408	870.117	84.4429	870.117	85.071	870.117	83.9212	870.117	85.1352	870.117	83.3892	870.117	85.0441	870.117	82.9395	870.117	84.8165	870.117	82.5394	870.117	84.4412	870.117	82.1176	870.117	83.8124	870.117	81.6802	870.117	82.8117	870.117	81.2475	870.117	81.5178	870.117	80.7632	870.117	80.292	870.117	80.0947	870.117	79.5371	870.117	79.156	870.117	79.2737	870.117	78.1387	870.117	79.1591	870.117	77.5311	870.117	78.8737	870.117	77.6534	870.117	78.4081	870.117	78.3129	870.117	78.3387	870.117	79.143	870.117	79.1077	870.117	79.8696	870.117	79.97	870.117	80.2312
900.879	85.8549	900.879	85.2798	900.879	86.008	900.879	84.4781	900.879	85.8058	900.879	83.8193	900.879	85.4388	900.879	83.4858	900.879	84.9845	900.879	83.2071	900.879	84.3484	900.879	82.5379	900.879	83.5028	900.879	81.3253	900.879	82.6246	900.879	79.9359	900.879	81.8082	900.879	79.0768	900.879	80.9222	900.879	79.069	900.879	79.9171	900.879	79.4454	900.879	78.9631	900.879	79.5522	900.879	78.3225	900.879	79.0928	900.879	78.0911	900.879	78.2808	900.879	78.0996	900.879	77.8259	900.879	78.2746	900.879	78.3312	900.879	78.7865	900.879	79.2798	900.879	79.4762	900.879	79.7572
933.105	85.8408	933.105	85.458	933.105	85.8256	933.105	84.7771	933.105	85.5087	933.105	83.9978	933.105	85.0924	933.105	83.2134	933.105	84.6611	933.105	82.3434	933.105	84.1171	933.105	81.2959	933.105	83.3945	933.105	80.1198	933.105	82.5966	933.105	79.0592	933.105	81.8253	933.105	78.4658	933.105	81.0595	933.105	78.4951	933.105	80.3641	933.105	78.9394	933.105	80.015	933.105	79.4244	933.105	80.1941	933.105	79.614	933.105	80.5504	933.105	79.2908	933.105	80.4783	933.105	78.5903	933.105	79.8804	933.105	78.2629	933.105	79.4823	933.105	78.8176	933.105	79.6196	933.105	79.5047
965.332	86.0069	965.332	85.7295	965.332	86.0019	965.332	85.2868	965.332	85.7305	965.332	84.8459	965.332	85.2989	965.332	84.4147	965.332	84.848	965.332	83.7442	965.332	84.4053	965.332	82.4965	965.332	83.734	965.332	80.6698	965.332	82.5843	965.332	78.979	965.332	81.1679	965.332	78.2944	965.332	80.0949	965.332	78.2727	965.332	79.5256	965.332	77.978	965.332	78.7029	965.332	77.4583	965.332	77.2463	965.332	77.6953	965.332	76.2411	965.332	78.5109	965.332	76.7753	965.332	78.9679	965.332	77.8681	965.332	78.8537	965.332	78.6023	965.332	78.6244	965.332	78.8705	965.332	78.7363
1,000.49	85.6101	1,000.49	85.4478	1,000.49	85.7447	1,000.49	85.2318	1,000.49	85.7803	1,000.49	84.7913	1,000.49	85.5885	1,000.49	83.9315	1,000.49	85.0535	1,000.49	82.763	1,000.49	84.1892	1,000.49	81.6826	1,000.49	83.2643	1,000.49	80.808	1,000.49	82.6529	1,000.49	80.1614	1,000.49	82.1399	1,000.49	79.7381	1,000.49	80.9934	1,000.49	79.2436	1,000.49	79.4282	1,000.49	78.5709	1,000.49	79.0809	1,000.49	77.9312	1,000.49	79.912	1,000.49	77.8503	1,000.49	80.3064	1,000.49	78.4802	1,000.49	79.6088	1,000.49	79.0668	1,000.49	78.3976	1,000.49	79.0283	1,000.49	77.8961	1,000.49	78.6758	1,000.49	78.1852	1,000.49	78.4724
1,035.64	86.3884	1,035.64	86.3381	1,035.64	86.0822	1,035.64	85.9705	1,035.64	85.586	1,035.64	85.3979	1,035.64	85.0909	1,035.64	84.5969	1,035.64	84.4251	1,035.64	83.3586	1,035.64	83.2912	1,035.64	81.5879	1,035.64	82.0427	1,035.64	79.833	1,035.64	81.24	1,035.64	79.0586	1,035.64	80.8894	1,035.64	79.2187	1,035.64	80.666	1,035.64	79.1155	1,035.64	79.9852	1,035.64	78.9427	1,035.64	79.0461	1,035.64	79.5705	1,035.64	78.6378	1,035.64	80.0276	1,035.64	78.7243	1,035.64	79.7207	1,035.64	78.3345	1,035.64	79.0765	1,035.64	77.5892	1,035.64	78.9202	1,035.64	77.5929	1,035.64	79.1591	1,035.64	78.3967	1,035.64	79.0586
1,072.27	85.7128	1,072.27	85.8362	1,072.27	85.8194	1,072.27	86.0308	1,072.27	85.9602	1,072.27	85.7965	1,072.27	85.8442	1,072.27	84.6139	1,072.27	85.3831	1,072.27	82.3884	1,072.27	84.7151	1,072.27	79.7437	1,072.27	83.9239	1,072.27	77.7482	1,072.27	82.9057	1,072.27	77.3421	1,072.27	81.4051	1,072.27	78.2765	1,072.27	79.2314	1,072.27	78.8519	1,072.27	78.0148	1,072.27	79.0956	1,072.27	78.9172	1,072.27	78.9418	1,072.27	79.865	1,072.27	77.3768	1,072.27	80.0229	1,072.27	75.6592	1,072.27	78.714	1,072.27	75.8834	1,072.27	76.0504	1,072.27	77.0927	1,072.27	76.5929	1,072.27	78.376	1,072.27	78.7595	1,072.27	79.1893
1,108.89	85.7688	1,108.89	85.3407	1,108.89	85.6941	1,108.89	84.6946	1,108.89	85.3167	1,108.89	83.9641	1,108.89	85.0779	1,108.89	82.7932	1,108.89	84.6679	1,108.89	81.0344	1,108.89	83.3848	1,108.89	79.4408	1,108.89	81.4665	1,108.89	78.6021	1,108.89	79.8289	1,108.89	78.1373	1,108.89	79.3369	1,108.89	77.7401	1,108.89	79.7966	1,108.89	77.8532	1,108.89	79.4926	1,108.89	79.0422	1,108.89	78.1051	1,108.89	78.7702	1,108.89	77.2475	1,108.89	76.2078	1,108.89	77.7551	1,108.89	74.2566	1,108.89	78.6802	1,108.89	75.4371	1,108.89	78.9076	1,108.89	77.0864	1,108.89	77.5712	1,108.89	77.7146	1,108.89	76.4156	1,108.89	77.306
1,148.44	85.4721	1,148.44	84.9933	1,148.44	85.5825	1,148.44	84.6953	1,148.44	85.3183	1,148.44	84.7301	1,148.44	85.1408	1,148.44	84.3576	1,148.44	85.0371	1,148.44	82.8481	1,148.44	84.5433	1,148.44	80.0971	1,148.44	83.6992	1,148.44	78.3424	1,148.44	82.7607	1,148.44	80.0295	1,148.44	81.6272	1,148.44	81.2579	1,148.44	80.3185	1,148.44	79.7081	1,148.44	78.3995	1,148.44	76.6478	1,148.44	77.7155	1,148.44	79.1497	1,148.44	79.9514	1,148.44	81.2344	1,148.44	80.2751	1,148.44	79.9088	1,148.44	77.5454	1,148.44	76.8443	1,148.44	77.5175	1,148.44	75.3447	1,148.44	80.6728	1,148.44	76.4212	1,148.44	80.8668	1,148.44	79.0601
1,189.45	85.4527	1,189.45	85.6897	1,189.45	85.7096	1,189.45	86.0234	1,189.45	85.8476	1,189.45	85.6489	1,189.45	85.2905	1,189.45	84.0398	1,189.45	83.5145	1,189.45	81.299	1,189.45	80.8408	1,189.45	78.7622	1,189.45	79.2306	1,189.45	77.6461	1,189.45	77.209	1,189.45	79.0159	1,189.45	77.0195	1,189.45	80.4825	1,189.45	78.1838	1,189.45	79.7267	1,189.45	77.2211	1,189.45	76.6822	1,189.45	75.8042	1,189.45	73.7772	1,189.45	78.15	1,189.45	74.7103	1,189.45	79.1146	1,189.45	77.1046	1,189.45	79.2209	1,189.45	78.6972	1,189.45	80.4011	1,189.45	79.1957	1,189.45	79.3086	1,189.45	78.2428	1,189.45	75.2329	1,189.45	75.001
1,230.47	86.0317	1,230.47	84.9602	1,230.47	86.956	1,230.47	84.2462	1,230.47	86.9313	1,230.47	83.668	1,230.47	85.5348	1,230.47	82.8085	1,230.47	83.4752	1,230.47	81.9129	1,230.47	82.647	1,230.47	81.1402	1,230.47	82.987	1,230.47	79.4038	1,230.47	81.9023	1,230.47	77.6113	1,230.47	80.1406	1,230.47	78.5912	1,230.47	80.3136	1,230.47	79.5406	1,230.47	79.7301	1,230.47	79.2038	1,230.47	76.3335	1,230.47	78.6253	1,230.47	74.609	1,230.47	78.2452	1,230.47	75.4826	1,230.47	77.2931	1,230.47	76.1354	1,230.47	75.9875	1,230.47	78.9523	1,230.47	76.7029	1,230.47	78.5811	1,230.47	77.5714	1,230.47	76.2825	1,230.47	76.6459
1,274.41	87.4941	1,274.41	86.9431	1,274.41	87.7393	1,274.41	86.455	1,274.41	86.9917	1,274.41	85.4697	1,274.41	85.0601	1,274.41	83.4707	1,274.41	82.8193	1,274.41	81.6524	1,274.41	81.6557	1,274.41	81.1511	1,274.41	81.0933	1,274.41	80.0291	1,274.41	80.4879	1,274.41	77.7104	1,274.41	79.3951	1,274.41	77.2627	1,274.41	78.8906	1,274.41	76.7975	1,274.41	77.9474	1,274.41	74.5525	1,274.41	74.6269	1,274.41	75.2544	1,274.41	76.9907	1,274.41	78.8282	1,274.41	78.945	1,274.41	79.9965	1,274.41	76.7716	1,274.41	78.2519	1,274.41	76.8548	1,274.41	76.572	1,274.41	79.1944	1,274.41	75.8881	1,274.41	78.6115	1,274.41	76.495
1,319.82	87	1,319.82	86.4362	1,319.82	87.0412	1,319.82	85.9531	1,319.82	86.6351	1,319.82	85.2417	1,319.82	85.9802	1,319.82	83.6489	1,319.82	84.0593	1,319.82	82.3098	1,319.82	82.0021	1,319.82	82.2355	1,319.82	81.8264	1,319.82	81.1364	1,319.82	80.5282	1,319.82	76.485	1,319.82	77.7864	1,319.82	71.708	1,319.82	77.412	1,319.82	73.7103	1,319.82	75.6221	1,319.82	75.0718	1,319.82	70.737	1,319.82	77.4212	1,319.82	73.0857	1,319.82	79.933	1,319.82	76.1274	1,319.82	81.0343	1,319.82	78.5657	1,319.82	80.9054	1,319.82	80.1554	1,319.82	80.1882	1,319.82	77.2453	1,319.82	80.7804	1,319.82	75.0607	1,319.82	79.212
1,366.7	86.0779	1,366.7	87.1873	1,366.7	85.8291	1,366.7	86.5015	1,366.7	86.851	1,366.7	83.267	1,366.7	85.7847	1,366.7	79.6057	1,366.7	80.22	1,366.7	78.5498	1,366.7	77.4361	1,366.7	78.2508	1,366.7	80.797	1,366.7	76.2259	1,366.7	81.1436	1,366.7	74.0668	1,366.7	79.1617	1,366.7	76.3864	1,366.7	77.303	1,366.7	77.5906	1,366.7	77.8573	1,366.7	76.0405	1,366.7	76.2797	1,366.7	75.6779	1,366.7	73.6858	1,366.7	80.6303	1,366.7	70.6139	1,366.7	83.0106	1,366.7	69.7424	1,366.7	80.9863	1,366.7	72.6499	1,366.7	77.2591	1,366.7	75.524	1,366.7	77.266	1,366.7	77.2448	1,366.7	77.9502
1,413.57	86.3098	1,413.57	86.4373	1,413.57	85.8507	1,413.57	85.3767	1,413.57	85.592	1,413.57	83.4802	1,413.57	84.9026	1,413.57	81.8499	1,413.57	83.1825	1,413.57	78.9802	1,413.57	80.8687	1,413.57	72.7285	1,413.57	80.0236	1,413.57	70.2681	1,413.57	79.545	1,413.57	77.554	1,413.57	77.5618	1,413.57	80.198	1,413.57	75.1301	1,413.57	78.8356	1,413.57	73.0771	1,413.57	72.8062	1,413.57	73.1673	1,413.57	66.5423	1,413.57	76.2084	1,413.57	75.6136	1,413.57	78.8534	1,413.57	77.6216	1,413.57	77.1861	1,413.57	75.5507	1,413.57	76.5066	1,413.57	72.9911	1,413.57	76.9112	1,413.57	75.3422	1,413.57	76.1817	1,413.57	76.1609
1,463.38	85.7705	1,463.38	85.819	1,463.38	85.225	1,463.38	84.7396	1,463.38	85.3321	1,463.38	83.4022	1,463.38	85.2571	1,463.38	81.3481	1,463.38	83.9231	1,463.38	77.1463	1,463.38	81.6521	1,463.38	75.7004	1,463.38	77.8702	1,463.38	78.4699	1,463.38	75.576	1,463.38	78.8848	1,463.38	78.2973	1,463.38	78.0318	1,463.38	77.8944	1,463.38	77.4883	1,463.38	74.0585	1,463.38	77.5952	1,463.38	74.4263	1,463.38	73.0594	1,463.38	74.8225	1,463.38	69.8573	1,463.38	76.4297	1,463.38	74.6846	1,463.38	76.6685	1,463.38	75.6572	1,463.38	74.4138	1,463.38	73.1364	1,463.38	73.9753	1,463.38	72.319	1,463.38	74.5126	1,463.38	73.8509
1,516.11	84.372	1,516.11	83.7646	1,516.11	84.3751	1,516.11	82.4683	1,516.11	84.6524	1,516.11	81.1118	1,516.11	84.8125	1,516.11	79.683	1,516.11	83.4306	1,516.11	78.268	1,516.11	80.3833	1,516.11	77.5468	1,516.11	75.8694	1,516.11	76.8499	1,516.11	74.3607	1,516.11	74.1405	1,516.11	76.8586	1,516.11	70.3223	1,516.11	76.6471	1,516.11	72.5682	1,516.11	75.815	1,516.11	74.5173	1,516.11	75.2285	1,516.11	72.9147	1,516.11	73.091	1,516.11	70.173	1,516.11	74.9012	1,516.11	73.9382	1,516.11	74.7422	1,516.11	74.602	1,516.11	73.2151	1,516.11	71.1735	1,516.11	72.9078	1,516.11	68.7223	1,516.11	72.1291	1,516.11	70.698
1,568.85	84.183	1,568.85	82.9406	1,568.85	84.3101	1,568.85	81.599	1,568.85	83.7541	1,568.85	81.2105	1,568.85	83.3908	1,568.85	80.4713	1,568.85	82.7924	1,568.85	78.124	1,568.85	80.7466	1,568.85	74.7624	1,568.85	77.5226	1,568.85	72.0876	1,568.85	76.6838	1,568.85	68.8394	1,568.85	76.2943	1,568.85	64.6949	1,568.85	74.2479	1,568.85	67.3108	1,568.85	74.2194	1,568.85	71.6375	1,568.85	74.0705	1,568.85	72.4527	1,568.85	71.2196	1,568.85	71.8449	1,568.85	72.6403	1,568.85	72.4899	1,568.85	72.8157	1,568.85	73.2486	1,568.85	71.3062	1,568.85	71.5485	1,568.85	71.3152	1,568.85	69.5858	1,568.85	71.6311	1,568.85	70.4491
1,624.51	83.8325	1,624.51	82.6515	1,624.51	83.659	1,624.51	81.298	1,624.51	82.8031	1,624.51	80.6819	1,624.51	82.061	1,624.51	79.3483	1,624.51	81.0243	1,624.51	76.7116	1,624.51	79.306	1,624.51	74.1286	1,624.51	76.2776	1,624.51	71.0081	1,624.51	74.729	1,624.51	68.4395	1,624.51	75.0533	1,624.51	70.0364	1,624.51	74.1395	1,624.51	71.7194	1,624.51	73.1376	1,624.51	71.6522	1,624.51	72.4522	1,624.51	70.3942	1,624.51	68.0938	1,624.51	68.7922	1,624.51	67.8495	1,624.51	69.6499	1,624.51	68.9377	1,624.51	72.0027	1,624.51	70.7723	1,624.51	72.1403	1,624.51	71.7278	1,624.51	70.1961	1,624.51	70.783	1,624.51	69.3612
1,681.64	84.4355	1,681.64	82.9927	1,681.64	84.5685	1,681.64	81.4879	1,681.64	83.4723	1,681.64	80.0444	1,681.64	81.8381	1,681.64	77.7557	1,681.64	79.8526	1,681.64	75.917	1,681.64	77.246	1,681.64	75.5516	1,681.64	74.7022	1,681.64	72.5157	1,681.64	73.8236	1,681.64	63.8655	1,681.64	72.5903	1,681.64	60.7269	1,681.64	68.4212	1,681.64	55.5784	1,681.64	69.3138	1,681.64	67.4489	1,681.64	70.502	1,681.64	71.1499	1,681.64	66.4663	1,681.64	70.2961	1,681.64	64.835	1,681.64	69.5781	1,681.64	69.3534	1,681.64	72.333	1,681.64	71.5739	1,681.64	73.1165	1,681.64	71.468	1,681.64	71.7943	1,681.64	71.0805	1,681.64	70.845
1,741.7	84.9588	1,741.7	83.9626	1,741.7	85.4419	1,741.7	82.9496	1,741.7	84.4762	1,741.7	80.12	1,741.7	82.3472	1,741.7	75.6054	1,741.7	80.5319	1,741.7	73.905	1,741.7	78.613	1,741.7	73.0391	1,741.7	75.823	1,741.7	65.2739	1,741.7	74.0566	1,741.7	64.7947	1,741.7	70.8841	1,741.7	71.1253	1,741.7	65.8726	1,741.7	68.5561	1,741.7	67.7542	1,741.7	59.2494	1,741.7	68.4673	1,741.7	66.247	1,741.7	63.1959	1,741.7	70.1789	1,741.7	63.284	1,741.7	70.4613	1,741.7	69.8358	1,741.7	71.307	1,741.7	72.0354	1,741.7	71.7005	1,741.7	72.8341	1,741.7	71.9657	1,741.7	73.5741	1,741.7	73.1525
1,803.22	83.8325	1,803.22	83.5331	1,803.22	84.6328	1,803.22	82.7834	1,803.22	84.4218	1,803.22	79.5445	1,803.22	82.346	1,803.22	74.791	1,803.22	79.9308	1,803.22	71.8929	1,803.22	77.9089	1,803.22	68.7477	1,803.22	74.8954	1,803.22	62.4324	1,803.22	72.5129	1,803.22	62.8435	1,803.22	69.8087	1,803.22	65.4722	1,803.22	68.0773	1,803.22	64.1247	1,803.22	67.6303	1,803.22	59.6976	1,803.22	63.0281	1,803.22	62.77	1,803.22	56.7312	1,803.22	66.6244	1,803.22	59.918	1,803.22	68.3077	1,803.22	68.7425	1,803.22	69.4182	1,803.22	72.0431	1,803.22	70.2828	1,803.22	71.2997	1,803.22	71.4012	1,803.22	71.1606	1,803.22	72.1286
1,866.21	82.6194	1,866.21	82.7855	1,866.21	83.378	1,866.21	82.0957	1,866.21	83.7995	1,866.21	79.2173	1,866.21	82.3628	1,866.21	76.049	1,866.21	79.6788	1,866.21	72.2067	1,866.21	76.226	1,866.21	65.4381	1,866.21	72.5095	1,866.21	62.5278	1,866.21	70.2234	1,866.21	62.4909	1,866.21	66.935	1,866.21	54.0984	1,866.21	63.7124	1,866.21	51.2441	1,866.21	63.8081	1,866.21	58.636	1,866.21	63.127	1,866.21	61.5954	1,866.21	62.2651	1,866.21	65.495	1,866.21	59.6066	1,866.21	67.957	1,866.21	65.2802	1,866.21	70.216	1,866.21	68.2573	1,866.21	71.532	1,866.21	69.8482	1,866.21	71.0973	1,866.21	71.0087	1,866.21	71.3036
1,932.13	82.8303	1,932.13	82.3555	1,932.13	82.8506	1,932.13	81.2767	1,932.13	82.6552	1,932.13	79.6225	1,932.13	81.5939	1,932.13	76.9646	1,932.13	79.1062	1,932.13	71.8908	1,932.13	75.2452	1,932.13	66.5488	1,932.13	70.8366	1,932.13	65.6155	1,932.13	66.1048	1,932.13	63.2628	1,932.13	61.5162	1,932.13	59.6793	1,932.13	52.318	1,932.13	60.6868	1,932.13	55.0513	1,932.13	61.5364	1,932.13	60.5926	1,932.13	63.2347	1,932.13	59.3879	1,932.13	67.542	1,932.13	58.6498	1,932.13	69.6467	1,932.13	61.4582	1,932.13	70.9194	1,932.13	65.5751	1,932.13	71.8243	1,932.13	69.433	1,932.13	70.8981	1,932.13	70.5318	1,932.13	70.3557
1,999.51	83.8378	1,999.51	82.6628	1,999.51	83.9319	1,999.51	81.0822	1,999.51	82.7264	1,999.51	79.3606	1,999.51	80.8442	1,999.51	76.9859	1,999.51	78.4546	1,999.51	73.87	1,999.51	74.4484	1,999.51	68.2217	1,999.51	69.6291	1,999.51	64.736	1,999.51	61.7163	1,999.51	64.6533	1,999.51	56.7396	1,999.51	61.0784	1,999.51	56.9525	1,999.51	62.4157	1,999.51	45.9412	1,999.51	65.4537	1,999.51	46.6736	1,999.51	63.3338	1,999.51	55.1376	1,999.51	67.9757	1,999.51	59.257	1,999.51	71.6316	1,999.51	55.9861	1,999.51	71.241	1,999.51	60.8535	1,999.51	71.3619	1,999.51	67.5458	1,999.51	71.8568	1,999.51	69.644	1,999.51	70.8462
2,069.82	84.7299	2,069.82	83.8682	2,069.82	84.6932	2,069.82	81.3602	2,069.82	83.165	2,069.82	77.8085	2,069.82	79.7543	2,069.82	76.2416	2,069.82	76.6127	2,069.82	74.542	2,069.82	73.8761	2,069.82	67.8805	2,069.82	68.6547	2,069.82	62.1297	2,069.82	59.2113	2,069.82	60.869	2,069.82	60.8383	2,069.82	61.1273	2,069.82	65.3527	2,069.82	61.2686	2,069.82	65.8993	2,069.82	65.7166	2,069.82	65.195	2,069.82	66.1353	2,069.82	66.3689	2,069.82	65.9582	2,069.82	63.805	2,069.82	70.775	2,069.82	56.7873	2,069.82	71.7253	2,069.82	45.3444	2,069.82	71.1282	2,069.82	65.4371	2,069.82	72.1137	2,069.82	69.7347	2,069.82	71.754
2,143.07	84.8268	2,143.07	84.3443	2,143.07	84.7781	2,143.07	81.8271	2,143.07	83.7228	2,143.07	78.3168	2,143.07	80.4313	2,143.07	76.506	2,143.07	75.0385	2,143.07	73.0802	2,143.07	71.4852	2,143.07	65.7466	2,143.07	69.9113	2,143.07	67.0627	2,143.07	66.4244	2,143.07	61.2147	2,143.07	64.6894	2,143.07	61.689	2,143.07	67.4189	2,143.07	61.0294	2,143.07	71.4666	2,143.07	61.4191	2,143.07	71.947	2,143.07	65.9618	2,143.07	70.3246	2,143.07	65.2349	2,143.07	66.396	2,143.07	68.8914	2,143.07	60.0956	2,143.07	72.0048	2,143.07	54.4556	2,143.07	71.5746	2,143.07	65.64	2,143.07	71.5715	2,143.07	71.1282	2,143.07	72.586
2,219.24	83.7579	2,219.24	83.4837	2,219.24	83.5593	2,219.24	82.1577	2,219.24	82.9515	2,219.24	79.7224	2,219.24	80.6399	2,219.24	74.9231	2,219.24	74.4664	2,219.24	65.7411	2,219.24	69.0509	2,219.24	63.7679	2,219.24	70.6661	2,219.24	60.3326	2,219.24	68.6497	2,219.24	61.2148	2,219.24	65.6617	2,219.24	64.529	2,219.24	65.285	2,219.24	64.6693	2,219.24	71.7733	2,219.24	60.0885	2,219.24	73.7021	2,219.24	65.6872	2,219.24	71.5936	2,219.24	66.2335	2,219.24	67.7669	2,219.24	65.4363	2,219.24	60.6054	2,219.24	71.91	2,219.24	47.0787	2,219.24	72.6608	2,219.24	63.1828	2,219.24	70.4133	2,219.24	70.0465	2,219.24	71.633
2,296.88	83.8808	2,296.88	83.2912	2,296.88	82.7218	2,296.88	81.9775	2,296.88	81.6303	2,296.88	79.4613	2,296.88	80.2397	2,296.88	70.9994	2,296.88	74.7378	2,296.88	61.4096	2,296.88	67.4535	2,296.88	67.3838	2,296.88	71.8652	2,296.88	68.2874	2,296.88	71.493	2,296.88	69.924	2,296.88	72.3821	2,296.88	65.8355	2,296.88	71.655	2,296.88	66.1315	2,296.88	70.662	2,296.88	65.9579	2,296.88	72.6443	2,296.88	61.325	2,296.88	71.5477	2,296.88	67.774	2,296.88	68.5279	2,296.88	67.4623	2,296.88	64.2454	2,296.88	70.9952	2,296.88	61.718	2,296.88	73.52	2,296.88	64.8605	2,296.88	70.9911	2,296.88	70.5485	2,296.88	70.5752
2,378.91	85.2533	2,378.91	83.9235	2,378.91	83.6787	2,378.91	80.9971	2,378.91	79.9408	2,378.91	76.7465	2,378.91	78.0225	2,378.91	66.3032	2,378.91	74.2756	2,378.91	69.7941	2,378.91	65.5532	2,378.91	65.8352	2,378.91	73.5499	2,378.91	65.1401	2,378.91	76.7893	2,378.91	70.0761	2,378.91	77.2272	2,378.91	68.6301	2,378.91	75.5649	2,378.91	64.0342	2,378.91	73.2921	2,378.91	68.3578	2,378.91	74.8482	2,378.91	66.9188	2,378.91	73.0988	2,378.91	62.4402	2,378.91	70.6404	2,378.91	67.3037	2,378.91	67.3417	2,378.91	70.1591	2,378.91	66.8094	2,378.91	72.6492	2,378.91	64.6387	2,378.91	71.7507	2,378.91	69.8339	2,378.91	69.673
2,462.4	86.8811	2,462.4	85.053	2,462.4	86.2936	2,462.4	80.7743	2,462.4	81.8867	2,462.4	72.2259	2,462.4	73.1744	2,462.4	71.3282	2,462.4	72.5956	2,462.4	70.4312	2,462.4	68.5708	2,462.4	65.779	2,462.4	75.1301	2,462.4	72.2403	2,462.4	77.6009	2,462.4	72.3932	2,462.4	75.6776	2,462.4	68.545	2,462.4	75.6274	2,462.4	68.2109	2,462.4	71.5342	2,462.4	69.0436	2,462.4	75.6864	2,462.4	68.5757	2,462.4	76.6514	2,462.4	68.094	2,462.4	72.1788	2,462.4	66.8939	2,462.4	70.3944	2,462.4	69.4441	2,462.4	65.3187	2,462.4	72.162	2,462.4	44.828	2,462.4	72.778	2,462.4	70.4028	2,462.4	73.033
2,548.83	86.1111	2,548.83	84.692	2,548.83	86.6174	2,548.83	81.2081	2,548.83	84.2257	2,548.83	75.6528	2,548.83	75.1859	2,548.83	72.0116	2,548.83	64.9882	2,548.83	64.138	2,548.83	72.6262	2,548.83	74.4616	2,548.83	74.2245	2,548.83	73.0323	2,548.83	75.4386	2,548.83	71.8062	2,548.83	78.0136	2,548.83	74.4804	2,548.83	78.9851	2,548.83	69.1574	2,548.83	73.848	2,548.83	68.192	2,548.83	68.9493	2,548.83	72.1374	2,548.83	77.6795	2,548.83	70.3852	2,548.83	73.5067	2,548.83	69.3594	2,548.83	71.8602	2,548.83	71.0359	2,548.83	65.1442	2,548.83	72.089	2,548.83	51.4463	2,548.83	73.104	2,548.83	71.1734	2,548.83	74.1022
2,639.65	84.8438	2,639.65	83.3187	2,639.65	85.691	2,639.65	80.3693	2,639.65	84.77	2,639.65	76.6783	2,639.65	79.9389	2,639.65	69.1926	2,639.65	53.3205	2,639.65	74.4347	2,639.65	74.4787	2,639.65	77.584	2,639.65	72.4861	2,639.65	76.3223	2,639.65	76.5745	2,639.65	73.8182	2,639.65	79.9326	2,639.65	71.5807	2,639.65	78.8385	2,639.65	70.2146	2,639.65	77.3419	2,639.65	68.2948	2,639.65	73.8985	2,639.65	68.8534	2,639.65	77.9874	2,639.65	72.168	2,639.65	76.3275	2,639.65	69.9458	2,639.65	70.3018	2,639.65	71.6206	2,639.65	70.1344	2,639.65	73.8093	2,639.65	57.3215	2,639.65	71.7937	2,639.65	67.775	2,639.65	72.25
2,731.93	84.8312	2,731.93	82.885	2,731.93	84.9342	2,731.93	79.7906	2,731.93	83.581	2,731.93	75.1634	2,731.93	79.6773	2,731.93	74.1942	2,731.93	59.3723	2,731.93	78.1706	2,731.93	74.4878	2,731.93	77.1029	2,731.93	74.654	2,731.93	74.9831	2,731.93	73.7342	2,731.93	75.1022	2,731.93	77.3638	2,731.93	73.6451	2,731.93	76.6717	2,731.93	71.6341	2,731.93	75.4586	2,731.93	71.3298	2,731.93	75.6358	2,731.93	70.8578	2,731.93	77.7116	2,731.93	71.9543	2,731.93	77.8958	2,731.93	71.7977	2,731.93	66.9885	2,731.93	70.7542	2,731.93	71.6745	2,731.93	73.8974	2,731.93	60.1676	2,731.93	72.3735	2,731.93	71.6891	2,731.93	71.8694
2,828.61	85.9694	2,828.61	83.8959	2,828.61	85.7287	2,828.61	79.4585	2,828.61	83.5408	2,828.61	74.687	2,828.61	79.3566	2,828.61	77.7318	2,828.61	61.9353	2,828.61	78.8543	2,828.61	71.8673	2,828.61	76.9494	2,828.61	74.2069	2,828.61	75.9596	2,828.61	76.5277	2,828.61	75.5663	2,828.61	77.2447	2,828.61	75.265	2,828.61	76.0545	2,828.61	74.0607	2,828.61	72.523	2,828.61	73.1147	2,828.61	74.5645	2,828.61	72.4962	2,828.61	77.1723	2,828.61	73.6633	2,828.61	76.9437	2,828.61	73.0831	2,828.61	68.0347	2,828.61	69.0219	2,828.61	66.7356	2,828.61	73.5229	2,828.61	56.763	2,828.61	72.8682	2,828.61	72.0224	2,828.61	72.8419
2,928.22	86.7413	2,928.22	84.566	2,928.22	86.6487	2,928.22	80.7335	2,928.22	83.8437	2,928.22	77.4559	2,928.22	77.9443	2,928.22	79.221	2,928.22	62.2346	2,928.22	79.4696	2,928.22	62.4983	2,928.22	77.3934	2,928.22	75.2721	2,928.22	77.0694	2,928.22	77.6964	2,928.22	76.8416	2,928.22	76.613	2,928.22	75.8471	2,928.22	73.2713	2,928.22	72.1107	2,928.22	69.6906	2,928.22	69.0679	2,928.22	70.5462	2,928.22	71.5395	2,928.22	75.2993	2,928.22	72.5903	2,928.22	76.3504	2,928.22	74.3571	2,928.22	66.7974	2,928.22	72.7793	2,928.22	66.4545	2,928.22	73.3133	2,928.22	67.7898	2,928.22	74.0942	2,928.22	71.3695	2,928.22	70.1084
3,030.76	86.828	3,030.76	84.3634	3,030.76	87.2738	3,030.76	81.296	3,030.76	84.8624	3,030.76	78.3806	3,030.76	77.7118	3,030.76	79.8651	3,030.76	64.1639	3,030.76	79.0872	3,030.76	70.516	3,030.76	77.1967	3,030.76	76.0758	3,030.76	77.1442	3,030.76	76.3759	3,030.76	74.3837	3,030.76	76.5179	3,030.76	69.3135	3,030.76	76.7588	3,030.76	68.0711	3,030.76	73.7123	3,030.76	67.5837	3,030.76	70.2845	3,030.76	69.9859	3,030.76	76.0539	3,030.76	72.122	3,030.76	76.5401	3,030.76	73.0493	3,030.76	69.285	3,030.76	73.2725	3,030.76	66.7208	3,030.76	73.6066	3,030.76	67.8236	3,030.76	73.7908	3,030.76	70.9885	3,030.76	72.5223
3,137.7	86.5139	3,137.7	84.212	3,137.7	87.5687	3,137.7	79.9851	3,137.7	86.1962	3,137.7	78.6261	3,137.7	79.7577	3,137.7	80.7705	3,137.7	63.622	3,137.7	78.5718	3,137.7	75.1362	3,137.7	77.9573	3,137.7	75.4528	3,137.7	76.1653	3,137.7	73.6609	3,137.7	67.6814	3,137.7	75.3284	3,137.7	69.5198	3,137.7	76.7773	3,137.7	71.0271	3,137.7	76.7661	3,137.7	68.6339	3,137.7	69.3397	3,137.7	68.7952	3,137.7	74.707	3,137.7	72.3282	3,137.7	76.5388	3,137.7	72.4418	3,137.7	72.0912	3,137.7	72.1044	3,137.7	63.8897	3,137.7	74.4609	3,137.7	61.3473	3,137.7	73.0746	3,137.7	70.3752	3,137.7	71.9067
3,249.02	86.7785	3,249.02	83.8566	3,249.02	87.4994	3,249.02	78.568	3,249.02	86.5095	3,249.02	80.2545	3,249.02	81.8279	3,249.02	80.6514	3,249.02	69.0373	3,249.02	77.9972	3,249.02	75.6135	3,249.02	75.3644	3,249.02	76.6197	3,249.02	69.0338	3,249.02	76.1387	3,249.02	71.9904	3,249.02	71.866	3,249.02	73.6393	3,249.02	70.8965	3,249.02	69.8648	3,249.02	77.8752	3,249.02	65.858	3,249.02	76.6138	3,249.02	66.2614	3,249.02	70.7867	3,249.02	70.3631	3,249.02	75.2125	3,249.02	73.3481	3,249.02	71.3378	3,249.02	70.7189	3,249.02	63.1257	3,249.02	72.5134	3,249.02	59.4758	3,249.02	71.7305	3,249.02	70.5468	3,249.02	70.0136
3,363.28	87.0165	3,363.28	83.0537	3,363.28	88.1603	3,363.28	78.9394	3,363.28	86.6498	3,363.28	79.8913	3,363.28	81.2801	3,363.28	78.7136	3,363.28	70.8311	3,363.28	75.2435	3,363.28	75.7842	3,363.28	72.5221	3,363.28	78.5822	3,363.28	72.5489	3,363.28	79.5323	3,363.28	70.803	3,363.28	75.3987	3,363.28	65.8181	3,363.28	74.2977	3,363.28	65.7604	3,363.28	79.9573	3,363.28	67.392	3,363.28	78.1467	3,363.28	64.466	3,363.28	72.5718	3,363.28	68.0543	3,363.28	74.5135	3,363.28	72.4777	3,363.28	72.0305	3,363.28	70.3876	3,363.28	62.8607	3,363.28	71.8508	3,363.28	55.4896	3,363.28	72.7987	3,363.28	69.1704	3,363.28	69.768
3,481.93	86.8398	3,481.93	82.5308	3,481.93	88.7961	3,481.93	79.9342	3,481.93	87.5495	3,481.93	79.9863	3,481.93	81.5209	3,481.93	76.9658	3,481.93	69.7728	3,481.93	73.2041	3,481.93	79.16	3,481.93	73.5122	3,481.93	79.2188	3,481.93	72.5835	3,481.93	80.1967	3,481.93	71.0078	3,481.93	77.4054	3,481.93	70.3934	3,481.93	76.771	3,481.93	69.0051	3,481.93	82.2926	3,481.93	65.2918	3,481.93	80.3843	3,481.93	61.5813	3,481.93	73.5063	3,481.93	64.4772	3,481.93	73.7442	3,481.93	72.1466	3,481.93	71.8697	3,481.93	72.0237	3,481.93	61.6549	3,481.93	71.2175	3,481.93	53.6304	3,481.93	73.5794	3,481.93	71.3375	3,481.93	71.3524
3,604.98	86.4909	3,604.98	81.703	3,604.98	88.2443	3,604.98	80.1297	3,604.98	87.7591	3,604.98	81.222	3,604.98	84.0303	3,604.98	72.8833	3,604.98	66.9448	3,604.98	74.3986	3,604.98	78.7088	3,604.98	76.2383	3,604.98	81.2195	3,604.98	75.2481	3,604.98	82.5222	3,604.98	76.9842	3,604.98	77.3144	3,604.98	75.9909	3,604.98	78.9171	3,604.98	73.1829	3,604.98	83.7872	3,604.98	70.8957	3,604.98	81.4259	3,604.98	68.1365	3,604.98	74.5088	3,604.98	67.7627	3,604.98	74.861	3,604.98	71.3986	3,604.98	70.7971	3,604.98	72.0171	3,604.98	60.8633	3,604.98	70.6909	3,604.98	57.1915	3,604.98	72.8164	3,604.98	73.4868	3,604.98	73.0596
3,732.42	86.4437	3,732.42	80.2505	3,732.42	89.04	3,732.42	81.7437	3,732.42	88.2454	3,732.42	76.1942	3,732.42	84.0962	3,732.42	76.2916	3,732.42	63.4902	3,732.42	81.2703	3,732.42	72.2357	3,732.42	79.9377	3,732.42	84.5161	3,732.42	80.609	3,732.42	84.3187	3,732.42	79.3926	3,732.42	73.8127	3,732.42	77.1693	3,732.42	77.0235	3,732.42	75.8381	3,732.42	84.5358	3,732.42	73.6294	3,732.42	82.5264	3,732.42	71.6988	3,732.42	74.6731	3,732.42	67.1206	3,732.42	78.009	3,732.42	71.9054	3,732.42	69.6041	3,732.42	75.0362	3,732.42	61.2492	3,732.42	72.9093	3,732.42	67.0039	3,732.42	74.5232	3,732.42	75.1999	3,732.42	74.3461
3,864.26	82.6321	3,864.26	80.6488	3,864.26	88.6406	3,864.26	81.3504	3,864.26	89.0172	3,864.26	77.2466	3,864.26	84.3982	3,864.26	83.0111	3,864.26	72.9025	3,864.26	83.1225	3,864.26	73.6297	3,864.26	83.1681	3,864.26	85.845	3,864.26	82.3021	3,864.26	84.3829	3,864.26	78.7488	3,864.26	80.5124	3,864.26	75.6944	3,864.26	69.8688	3,864.26	75.6904	3,864.26	81.1462	3,864.26	75.5178	3,864.26	81.84	3,864.26	73.4078	3,864.26	78.4205	3,864.26	71.7566	3,864.26	78.2701	3,864.26	70.5946	3,864.26	71.2168	3,864.26	76.4288	3,864.26	57.4464	3,864.26	74.8193	3,864.26	70.503	3,864.26	75.8682	3,864.26	74.8705	3,864.26	72.6609
4,000.49	81.0867	4,000.49	82.7784	4,000.49	86.0893	4,000.49	81.1635	4,000.49	88.2002	4,000.49	82.9587	4,000.49	86.1483	4,000.49	85.3504	4,000.49	77.125	4,000.49	84.5796	4,000.49	69.5855	4,000.49	83.8057	4,000.49	82.3828	4,000.49	80.9417	4,000.49	81.3784	4,000.49	78.7598	4,000.49	83.4389	4,000.49	78.5097	4,000.49	77.8832	4,000.49	76.1191	4,000.49	74.1579	4,000.49	74.8463	4,000.49	76.7363	4,000.49	74.1708	4,000.49	76.7569	4,000.49	74.6346	4,000.49	78.491	4,000.49	74.1194	4,000.49	66.0288	4,000.49	74.9851	4,000.49	59.2759	4,000.49	75.5173	4,000.49	70.7177	4,000.49	75.634	4,000.49	71.1199	4,000.49	74.3492
4,141.11	82.2138	4,141.11	83.4012	4,141.11	83.7342	4,141.11	81.743	4,141.11	86.2811	4,141.11	84.0847	4,141.11	84.961	4,141.11	86.3971	4,141.11	78.4027	4,141.11	85.7603	4,141.11	72.4741	4,141.11	83.6673	4,141.11	79.1453	4,141.11	82.9223	4,141.11	77.9938	4,141.11	81.2935	4,141.11	80.4165	4,141.11	76.6179	4,141.11	74.0483	4,141.11	73.3555	4,141.11	62.9784	4,141.11	73.2458	4,141.11	73.1442	4,141.11	73.5815	4,141.11	72.1645	4,141.11	74.3408	4,141.11	77.8567	4,141.11	76.0396	4,141.11	70.5918	4,141.11	75.4893	4,141.11	54.978	4,141.11	76.3562	4,141.11	70.9739	4,141.11	75.9561	4,141.11	74.5494	4,141.11	75.2704
4,287.6	83.4073	4,287.6	83.5991	4,287.6	81.7107	4,287.6	82.4042	4,287.6	84.475	4,287.6	85.7265	4,287.6	84.4238	4,287.6	86.6397	4,287.6	82.1507	4,287.6	85.1402	4,287.6	76.594	4,287.6	84.265	4,287.6	75.8095	4,287.6	82.4017	4,287.6	76.4688	4,287.6	77.5699	4,287.6	80.1508	4,287.6	76.553	4,287.6	77.0131	4,287.6	76.1005	4,287.6	69.2394	4,287.6	71.1875	4,287.6	75.907	4,287.6	67.8961	4,287.6	69.8807	4,287.6	70.8913	4,287.6	75.696	4,287.6	73.9965	4,287.6	70.9285	4,287.6	74.5719	4,287.6	59.2907	4,287.6	74.8518	4,287.6	67.355	4,287.6	75.4389	4,287.6	71.3245	4,287.6	72.5975
4,438.48	85.0234	4,438.48	83.2148	4,438.48	85.1733	4,438.48	83.1199	4,438.48	85.7681	4,438.48	86.2575	4,438.48	84.8439	4,438.48	86.1448	4,438.48	82.8661	4,438.48	84.8288	4,438.48	80.5954	4,438.48	82.5406	4,438.48	79.0143	4,438.48	78.9229	4,438.48	80.2685	4,438.48	79.2168	4,438.48	79.7811	4,438.48	76.8521	4,438.48	75.7764	4,438.48	73.362	4,438.48	71.7846	4,438.48	71.0087	4,438.48	76.5924	4,438.48	68.0188	4,438.48	74.0036	4,438.48	69.6702	4,438.48	71.013	4,438.48	73.9336	4,438.48	73.0063	4,438.48	73.4258	4,438.48	63.8134	4,438.48	73.0551	4,438.48	63.3761	4,438.48	73.9707	4,438.48	66.8406	4,438.48	72.9858
4,595.21	85.439	4,595.21	82.6772	4,595.21	86.0521	4,595.21	84.3168	4,595.21	86.7844	4,595.21	86.2537	4,595.21	85.6376	4,595.21	84.6363	4,595.21	84.6602	4,595.21	82.052	4,595.21	82.2589	4,595.21	79.6128	4,595.21	80.068	4,595.21	80.081	4,595.21	80.3396	4,595.21	79.028	4,595.21	78.8475	4,595.21	75.448	4,595.21	72.8325	4,595.21	75.1261	4,595.21	65.4142	4,595.21	72.319	4,595.21	75.093	4,595.21	68.9333	4,595.21	74.6328	4,595.21	68.1047	4,595.21	67.0572	4,595.21	73.5613	4,595.21	72.7559	4,595.21	74.5322	4,595.21	66.5178	4,595.21	73.0004	4,595.21	62.6775	4,595.21	74.1228	4,595.21	69.9059	4,595.21	72.976
4,756.35	85.9854	4,756.35	83.538	4,756.35	85.5702	4,756.35	85.69	4,756.35	86.5865	4,756.35	87.0061	4,756.35	87.0598	4,756.35	84.1002	4,756.35	87.0017	4,756.35	82.9903	4,756.35	83.0148	4,756.35	81.3279	4,756.35	80.8958	4,756.35	78.0276	4,756.35	81.0141	4,756.35	77.9817	4,756.35	75.8121	4,756.35	78.6061	4,756.35	74.2394	4,756.35	76.7172	4,756.35	70.6389	4,756.35	74.8637	4,756.35	68.5956	4,756.35	73.008	4,756.35	70.4156	4,756.35	70.9732	4,756.35	66.9454	4,756.35	72.16	4,756.35	71.7674	4,756.35	75.8921	4,756.35	67.6965	4,756.35	74.5504	4,756.35	59.9308	4,756.35	75.1716	4,756.35	70.6651	4,756.35	74.6577
4,924.8	85.4983	4,924.8	84.0277	4,924.8	87.6313	4,924.8	87.8708	4,924.8	86.7755	4,924.8	87.3574	4,924.8	86.7914	4,924.8	85.6145	4,924.8	88.3899	4,924.8	84.4539	4,924.8	83.5443	4,924.8	82.7631	4,924.8	79.7785	4,924.8	83.014	4,924.8	80.1619	4,924.8	80.5135	4,924.8	76.0782	4,924.8	78.2218	4,924.8	77.609	4,924.8	76.2933	4,924.8	75.071	4,924.8	75.7035	4,924.8	61.0004	4,924.8	74.7579	4,924.8	69.3244	4,924.8	69.5708	4,924.8	69.0616	4,924.8	71.38	4,924.8	68.7026	4,924.8	75.7086	4,924.8	65.8928	4,924.8	75.6033	4,924.8	59.739	4,924.8	74.9134	4,924.8	71.3377	4,924.8	75.0956
5,097.66	84.8655	5,097.66	84.8995	5,097.66	88.4309	5,097.66	88.3052	5,097.66	86.3054	5,097.66	87.1179	5,097.66	85.9976	5,097.66	85.8804	5,097.66	88.0853	5,097.66	84.8691	5,097.66	83.9298	5,097.66	83.5677	5,097.66	74.2958	5,097.66	81.1506	5,097.66	75.9802	5,097.66	78.0698	5,097.66	73.075	5,097.66	78.3077	5,097.66	71.4784	5,097.66	75.0099	5,097.66	75.1995	5,097.66	74.9068	5,097.66	63.8909	5,097.66	75.7106	5,097.66	61.6993	5,097.66	71.4791	5,097.66	61.073	5,097.66	71.059	5,097.66	63.4497	5,097.66	75.6563	5,097.66	69.4277	5,097.66	76.3944	5,097.66	61.5105	5,097.66	73.9697	5,097.66	68.9817	5,097.66	74.2439
5,277.83	86.1532	5,277.83	87.386	5,277.83	87.4583	5,277.83	88.2363	5,277.83	87.5214	5,277.83	86.5162	5,277.83	87.825	5,277.83	85.6066	5,277.83	87.7639	5,277.83	84.0864	5,277.83	84.0425	5,277.83	80.8893	5,277.83	77.904	5,277.83	78.4639	5,277.83	77.0257	5,277.83	77.0025	5,277.83	74.2763	5,277.83	75.9387	5,277.83	70.8453	5,277.83	73.1307	5,277.83	73.1168	5,277.83	72.5558	5,277.83	65.9264	5,277.83	73.4348	5,277.83	63.9336	5,277.83	71.0053	5,277.83	65.6039	5,277.83	70.9933	5,277.83	65.9451	5,277.83	72.8777	5,277.83	70.311	5,277.83	75.5159	5,277.83	66.0823	5,277.83	75.4499	5,277.83	68.1902	5,277.83	75.359
5,463.87	85.8407	5,463.87	87.7727	5,463.87	87.5251	5,463.87	88.3247	5,463.87	89.4413	5,463.87	85.9277	5,463.87	89.6821	5,463.87	85.2111	5,463.87	89.0108	5,463.87	83.0024	5,463.87	84.1278	5,463.87	80.8893	5,463.87	75.7365	5,463.87	78.6122	5,463.87	75.0304	5,463.87	75.4219	5,463.87	75.7389	5,463.87	75.4433	5,463.87	74.1699	5,463.87	72.3885	5,463.87	73.9867	5,463.87	71.5555	5,463.87	70.1699	5,463.87	72.08	5,463.87	65.4026	5,463.87	70.2098	5,463.87	72.9125	5,463.87	68.8221	5,463.87	68.4833	5,463.87	73.0683	5,463.87	68.8609	5,463.87	74.2038	5,463.87	66.064	5,463.87	75.1483	5,463.87	69.0402	5,463.87	74.6237
5,657.23	85.4023	5,657.23	86.8255	5,657.23	89.6583	5,657.23	87.8442	5,657.23	90.7934	5,657.23	85.8706	5,657.23	89.7808	5,657.23	85.8404	5,657.23	88.7994	5,657.23	82.9895	5,657.23	83.4725	5,657.23	81.485	5,657.23	79.5473	5,657.23	80.2587	5,657.23	77.2232	5,657.23	79.1073	5,657.23	78.0246	5,657.23	77.4974	5,657.23	75.8012	5,657.23	73.9402	5,657.23	74.7565	5,657.23	73.0506	5,657.23	61.6699	5,657.23	71.9781	5,657.23	68.7424	5,657.23	70.4732	5,657.23	69.6135	5,657.23	72.6497	5,657.23	66.4068	5,657.23	72.131	5,657.23	67.7434	5,657.23	74.0205	5,657.23	69.1351	5,657.23	73.8823	5,657.23	67.135	5,657.23	75.1682
5,856.45	86.5441	5,856.45	87.2774	5,856.45	89.4305	5,856.45	86.9313	5,856.45	90.4425	5,856.45	86.2094	5,856.45	89.959	5,856.45	86.1968	5,856.45	88.4758	5,856.45	83.9149	5,856.45	85.2068	5,856.45	83.4723	5,856.45	80.6795	5,856.45	81.2174	5,856.45	75.6684	5,856.45	79.3636	5,856.45	78.4162	5,856.45	76.8936	5,856.45	75.0078	5,856.45	74.3481	5,856.45	73.9751	5,856.45	73.5558	5,856.45	57.7445	5,856.45	73.9258	5,856.45	68.3891	5,856.45	71.2085	5,856.45	67.881	5,856.45	72.1631	5,856.45	69.3692	5,856.45	72.832	5,856.45	66.1735	5,856.45	74.7319	5,856.45	63.5634	5,856.45	74.4329	5,856.45	66.5206	5,856.45	74.6027
6,062.99	86.273	6,062.99	88.2374	6,062.99	86.4927	6,062.99	88.2152	6,062.99	88.7197	6,062.99	87.2509	6,062.99	89.8683	6,062.99	86.6428	6,062.99	88.2252	6,062.99	85.1538	6,062.99	83.7787	6,062.99	83.9693	6,062.99	82.6475	6,062.99	81.9773	6,062.99	77.1292	6,062.99	81.0172	6,062.99	74.847	6,062.99	78.6935	6,062.99	69.8312	6,062.99	75.1715	6,062.99	67.1088	6,062.99	74.7758	6,062.99	63.3776	6,062.99	73.7967	6,062.99	59.7518	6,062.99	72.6213	6,062.99	71.2578	6,062.99	69.8077	6,062.99	71.5693	6,062.99	74.5698	6,062.99	64.8796	6,062.99	74.706	6,062.99	66.7309	6,062.99	76.1074	6,062.99	68.0041	6,062.99	74.5788
6,276.86	85.2589	6,276.86	87.5903	6,276.86	86.6154	6,276.86	87.3666	6,276.86	87.5627	6,276.86	87.3882	6,276.86	86.2533	6,276.86	87.8634	6,276.86	85.442	6,276.86	85.1697	6,276.86	85.2642	6,276.86	83.7582	6,276.86	85.2201	6,276.86	80.7627	6,276.86	78.3752	6,276.86	77.6307	6,276.86	77.2341	6,276.86	76.098	6,276.86	73.1244	6,276.86	73.9717	6,276.86	63.4125	6,276.86	73.1073	6,276.86	66.9078	6,276.86	73.6297	6,276.86	52.4677	6,276.86	73.0653	6,276.86	67.3546	6,276.86	69.114	6,276.86	66.2057	6,276.86	73.9554	6,276.86	64.0126	6,276.86	74.0227	6,276.86	69.6011	6,276.86	75.6446	6,276.86	63.9407	6,276.86	73.272
6,498.05	88.8638	6,498.05	89.4656	6,498.05	89.0744	6,498.05	88.3637	6,498.05	88.1157	6,498.05	87.9772	6,498.05	83.1479	6,498.05	87.132	6,498.05	82.4251	6,498.05	84.4479	6,498.05	86.5649	6,498.05	82.2535	6,498.05	86.7195	6,498.05	79.6398	6,498.05	78.6824	6,498.05	77.7942	6,498.05	75.2242	6,498.05	73.1979	6,498.05	75.9934	6,498.05	73.3691	6,498.05	72.0965	6,498.05	72.3527	6,498.05	67.2149	6,498.05	72.6669	6,498.05	62.2929	6,498.05	74.9375	6,498.05	61.3843	6,498.05	69.1914	6,498.05	68.9377	6,498.05	73.4554	6,498.05	65.8856	6,498.05	75.276	6,498.05	69.3892	6,498.05	76.3004	6,498.05	64.2944	6,498.05	74.8533
6,726.56	88.1869	6,726.56	89.1059	6,726.56	89.4639	6,726.56	88.8696	6,726.56	88.9855	6,726.56	87.7159	6,726.56	84.566	6,726.56	85.99	6,726.56	83.0994	6,726.56	83.8489	6,726.56	85.8505	6,726.56	82.653	6,726.56	86.519	6,726.56	80.0831	6,726.56	79.2172	6,726.56	77.6889	6,726.56	65.8369	6,726.56	75.2943	6,726.56	72.5015	6,726.56	72.1814	6,726.56	72.4135	6,726.56	69.4372	6,726.56	67.4151	6,726.56	69.7368	6,726.56	59.8691	6,726.56	73.778	6,726.56	56.5215	6,726.56	69.5465	6,726.56	64.8089	6,726.56	71.5799	6,726.56	66.1016	6,726.56	74.6693	6,726.56	69.1781	6,726.56	76.003	6,726.56	64.7605	6,726.56	73.539
6,963.87	87.4564	6,963.87	88.1384	6,963.87	88.0135	6,963.87	87.1515	6,963.87	89.0006	6,963.87	86.4928	6,963.87	87.2611	6,963.87	86.1061	6,963.87	83.1087	6,963.87	84.9117	6,963.87	85.6134	6,963.87	83.2461	6,963.87	86.294	6,963.87	81.0107	6,963.87	78.6212	6,963.87	78.7032	6,963.87	72.2634	6,963.87	75.4717	6,963.87	70.1249	6,963.87	74.0706	6,963.87	65.0146	6,963.87	70.6829	6,963.87	64.857	6,963.87	69.9021	6,963.87	62.4251	6,963.87	72.1554	6,963.87	58.1104	6,963.87	71.1583	6,963.87	64.7453	6,963.87	68.0378	6,963.87	64.0335	6,963.87	74.5385	6,963.87	68.4416	6,963.87	75.2399	6,963.87	57.0773	6,963.87	72.5344
7,209.96	89.5666	7,209.96	89.2832	7,209.96	88.5214	7,209.96	88.0187	7,209.96	89.638	7,209.96	87.4576	7,209.96	88.3718	7,209.96	86.3118	7,209.96	83.8917	7,209.96	84.999	7,209.96	86.3337	7,209.96	82.8317	7,209.96	84.6674	7,209.96	80.0102	7,209.96	80.3568	7,209.96	78.5411	7,209.96	74.427	7,209.96	75.6762	7,209.96	69.9877	7,209.96	71.8149	7,209.96	65.9909	7,209.96	70.6393	7,209.96	63.3264	7,209.96	72.0669	7,209.96	61.9367	7,209.96	72.9406	7,209.96	63.6199	7,209.96	70.4405	7,209.96	66.9208	7,209.96	67.3447	7,209.96	59.3365	7,209.96	74.1899	7,209.96	56.9818	7,209.96	75.7223	7,209.96	59.1216	7,209.96	73.9309
7,464.84	88.5473	7,464.84	88.6911	7,464.84	88.3912	7,464.84	87.4522	7,464.84	89.4957	7,464.84	87.1439	7,464.84	87.1822	7,464.84	86.4247	7,464.84	85.9312	7,464.84	84.2088	7,464.84	85.9239	7,464.84	81.3033	7,464.84	83.5021	7,464.84	79.2012	7,464.84	81.3462	7,464.84	76.4202	7,464.84	75.6668	7,464.84	74.4854	7,464.84	70.9536	7,464.84	70.6226	7,464.84	69.1591	7,464.84	67.6212	7,464.84	58.9891	7,464.84	70.8726	7,464.84	60.9122	7,464.84	71.9487	7,464.84	61.3347	7,464.84	69.4061	7,464.84	57.8213	7,464.84	68.3427	7,464.84	61.2433	7,464.84	71.9118	7,464.84	63.4723	7,464.84	74.4628	7,464.84	61.5958	7,464.84	71.8146
7,727.05	88.8355	7,727.05	89.0075	7,727.05	88.4426	7,727.05	88.565	7,727.05	88.2358	7,727.05	86.8882	7,727.05	86.7514	7,727.05	84.6372	7,727.05	86.3114	7,727.05	82.9967	7,727.05	84.8858	7,727.05	81.1261	7,727.05	83.0882	7,727.05	79.4456	7,727.05	79.3773	7,727.05	76.5668	7,727.05	71.8965	7,727.05	74.0632	7,727.05	71.5708	7,727.05	70.4027	7,727.05	72.9921	7,727.05	67.7573	7,727.05	64.7538	7,727.05	68.924	7,727.05	44.5749	7,727.05	72.1868	7,727.05	65.2209	7,727.05	67.9141	7,727.05	64.8162	7,727.05	69.8779	7,727.05	63.5426	7,727.05	71.956	7,727.05	63.5762	7,727.05	74.6339	7,727.05	59.4201	7,727.05	71.0709
7,999.51	89.822	7,999.51	89.4692	7,999.51	88.9243	7,999.51	87.2002	7,999.51	87.4191	7,999.51	84.8968	7,999.51	87.1434	7,999.51	85.3084	7,999.51	85.592	7,999.51	83.4531	7,999.51	84.6838	7,999.51	81.3637	7,999.51	83.0796	7,999.51	79.2685	7,999.51	76.8646	7,999.51	76.9519	7,999.51	69.9796	7,999.51	74.2135	7,999.51	63.3863	7,999.51	71.0677	7,999.51	73.354	7,999.51	67.1192	7,999.51	65.883	7,999.51	68.5578	7,999.51	57.468	7,999.51	69.5486	7,999.51	61.5622	7,999.51	70.2693	7,999.51	57.3385	7,999.51	67.4035	7,999.51	63.9442	7,999.51	72.6946	7,999.51	64.1038	7,999.51	74.3822	7,999.51	59.0692	7,999.51	71.6667
8,282.23	89.1303	8,282.23	88.0603	8,282.23	88.4232	8,282.23	86.1603	8,282.23	87.5295	8,282.23	85.2423	8,282.23	86.2653	8,282.23	85.1239	8,282.23	84.1011	8,282.23	82.8844	8,282.23	85.4356	8,282.23	80.6728	8,282.23	81.8765	8,282.23	78.5224	8,282.23	75.8452	8,282.23	75.8347	8,282.23	73.1063	8,282.23	73.7642	8,282.23	65.4299	8,282.23	70.2931	8,282.23	72.3185	8,282.23	68.7725	8,282.23	68.2179	8,282.23	69.4544	8,282.23	58.9099	8,282.23	70.3541	8,282.23	61.5293	8,282.23	69.2757	8,282.23	57.5117	8,282.23	66.7107	8,282.23	63.1314	8,282.23	72.8277	8,282.23	64.7965	8,282.23	73.6667	8,282.23	55.4402	8,282.23	69.6
8,573.73	88.8115	8,573.73	88.2735	8,573.73	88.6782	8,573.73	86.2197	8,573.73	87.7271	8,573.73	85.2743	8,573.73	83.9846	8,573.73	84.611	8,573.73	82.5631	8,573.73	81.5727	8,573.73	84.3649	8,573.73	80.1796	8,573.73	78.4003	8,573.73	77.3785	8,573.73	78.9799	8,573.73	75.9639	8,573.73	75.0433	8,573.73	71.9803	8,573.73	59.9673	8,573.73	68.5225	8,573.73	69.3148	8,573.73	66.886	8,573.73	64.3159	8,573.73	68.26	8,573.73	57.9344	8,573.73	69.5497	8,573.73	59.21	8,573.73	68.756	8,573.73	56.4802	8,573.73	66.3521	8,573.73	59.877	8,573.73	71.5111	8,573.73	62.989	8,573.73	72.6733	8,573.73	59.3899	8,573.73	68.5975
8,876.95	88.8675	8,876.95	87.5635	8,876.95	88.2125	8,876.95	85.4889	8,876.95	86.9748	8,876.95	85.2238	8,876.95	83.2773	8,876.95	83.3162	8,876.95	82.0292	8,876.95	81.3807	8,876.95	81.9309	8,876.95	79.8368	8,876.95	76.0792	8,876.95	77.3852	8,876.95	78.397	8,876.95	75.6738	8,876.95	73.2492	8,876.95	72.5155	8,876.95	63.2717	8,876.95	68.9029	8,876.95	64.2856	8,876.95	66.1099	8,876.95	64.8759	8,876.95	67.2616	8,876.95	55.4175	8,876.95	69.5425	8,876.95	60.029	8,876.95	67.5391	8,876.95	61.967	8,876.95	61.9847	8,876.95	50.2301	8,876.95	70.6366	8,876.95	62.8404	8,876.95	71.8048	8,876.95	61.6211	8,876.95	68.0057
9,188.96	88.2455	9,188.96	87.5013	9,188.96	87.1997	9,188.96	85.3216	9,188.96	85.9181	9,188.96	84.2894	9,188.96	83.8307	9,188.96	83.0337	9,188.96	82.6546	9,188.96	81.4171	9,188.96	77.7353	9,188.96	78.911	9,188.96	75.4862	9,188.96	76.2225	9,188.96	78.33	9,188.96	74.0448	9,188.96	72.024	9,188.96	71.8362	9,188.96	65.0305	9,188.96	69.1885	9,188.96	55.8008	9,188.96	64.5263	9,188.96	56.5353	9,188.96	65.9264	9,188.96	52.7045	9,188.96	69.1457	9,188.96	59.5409	9,188.96	68.9016	9,188.96	56.6335	9,188.96	61.7827	9,188.96	52.9104	9,188.96	68.7182	9,188.96	60.2471	9,188.96	70.3509	9,188.96	63.1243	9,188.96	64.2504
9,514.16	87.9678	9,514.16	87.2905	9,514.16	86.9141	9,514.16	85.4996	9,514.16	86.0122	9,514.16	84.1199	9,514.16	84.3321	9,514.16	82.4602	9,514.16	81.7488	9,514.16	80.1845	9,514.16	76.6423	9,514.16	77.4664	9,514.16	77.1398	9,514.16	75.8446	9,514.16	76.8647	9,514.16	73.4305	9,514.16	69.762	9,514.16	70.1832	9,514.16	58.4871	9,514.16	67.4459	9,514.16	52.176	9,514.16	65.6383	9,514.16	54.5036	9,514.16	66.3384	9,514.16	43.1256	9,514.16	67.2232	9,514.16	58.4032	9,514.16	68.4274	9,514.16	59.474	9,514.16	61.7938	9,514.16	55.2831	9,514.16	68.4117	9,514.16	60.9062	9,514.16	68.8556	9,514.16	61.8422	9,514.16	64.2161
9,849.61	87.1162	9,849.61	87.1398	9,849.61	87.1167	9,849.61	85.715	9,849.61	87.3109	9,849.61	83.7236	9,849.61	85.6275	9,849.61	81.8453	9,849.61	82.7389	9,849.61	79.5761	9,849.61	76.7347	9,849.61	77.0178	9,849.61	78.5214	9,849.61	74.9476	9,849.61	75.3206	9,849.61	72.096	9,849.61	67.7477	9,849.61	69.8834	9,849.61	58.3147	9,849.61	66.0954	9,849.61	57.7957	9,849.61	61.5325	9,849.61	54.3576	9,849.61	64.5935	9,849.61	49.6925	9,849.61	66.9925	9,849.61	57.122	9,849.61	67.6263	9,849.61	60.6288	9,849.61	62.6758	9,849.61	57.3603	9,849.61	66.4966	9,849.61	61.952	9,849.61	67.2342	9,849.61	58.9881	9,849.61	62.071
10,196.8	86.7982	10,196.8	87.2813	10,196.8	86.0598	10,196.8	85.7779	10,196.8	85.8977	10,196.8	83.4489	10,196.8	85.0152	10,196.8	81.1765	10,196.8	81.9641	10,196.8	78.9184	10,196.8	77.3225	10,196.8	75.6147	10,196.8	77.263	10,196.8	72.3248	10,196.8	73.3537	10,196.8	70.1111	10,196.8	70.2407	10,196.8	68.3471	10,196.8	55.0665	10,196.8	65.4983	10,196.8	60.8264	10,196.8	59.1027	10,196.8	53.6855	10,196.8	63.1013	10,196.8	51.9635	10,196.8	64.1809	10,196.8	53.6939	10,196.8	66.127	10,196.8	60.7402	10,196.8	60.321	10,196.8	56.0295	10,196.8	65.4687	10,196.8	59.6748	10,196.8	66.2231	10,196.8	58.4978	10,196.8	61.2541
10,555.7	86.7909	10,555.7	86.797	10,555.7	85.5386	10,555.7	85.2729	10,555.7	84.7852	10,555.7	83.0581	10,555.7	84.7491	10,555.7	80.8591	10,555.7	80.3437	10,555.7	77.3295	10,555.7	77.3	10,555.7	73.6241	10,555.7	75.9849	10,555.7	72.0204	10,555.7	73.1773	10,555.7	69.123	10,555.7	69.908	10,555.7	65.6312	10,555.7	63.7005	10,555.7	63.973	10,555.7	60.2048	10,555.7	61.4783	10,555.7	48.669	10,555.7	62.4708	10,555.7	49.5048	10,555.7	62.1121	10,555.7	53.2983	10,555.7	65.499	10,555.7	60.3447	10,555.7	56.3769	10,555.7	53.7487	10,555.7	63.465	10,555.7	58.5786	10,555.7	64.215	10,555.7	57.2434	10,555.7	59.9995
10,927.7	86.543	10,927.7	86.1423	10,927.7	85.9306	10,927.7	84.9418	10,927.7	85.4564	10,927.7	82.7983	10,927.7	83.8603	10,927.7	80.2492	10,927.7	77.3267	10,927.7	76.4088	10,927.7	76.1002	10,927.7	73.3881	10,927.7	70.1947	10,927.7	70.3077	10,927.7	71.7883	10,927.7	66.2733	10,927.7	67.1148	10,927.7	62.1168	10,927.7	61.6772	10,927.7	59.6556	10,927.7	53.261	10,927.7	58.0292	10,927.7	55.4196	10,927.7	59.0124	10,927.7	42.9214	10,927.7	58.9845	10,927.7	48.7947	10,927.7	63.1105	10,927.7	55.2551	10,927.7	52.7817	10,927.7	52.9539	10,927.7	60.5514	10,927.7	56.3885	10,927.7	61.8403	10,927.7	49.9998	10,927.7	56.4221
11,313	86.4949	11,313	85.8157	11,313	85.9143	11,313	84.5757	11,313	84.9045	11,313	82.3228	11,313	81.8503	11,313	79.4808	11,313	76.9186	11,313	75.5901	11,313	76.317	11,313	71.4336	11,313	70.3754	11,313	66.7565	11,313	67.9011	11,313	63.9001	11,313	63.6384	11,313	60.2715	11,313	57.3797	11,313	55.7257	11,313	59.5525	11,313	55.0222	11,313	55.8444	11,313	54.6603	11,313	47.9979	11,313	53.0789	11,313	41.2298	11,313	59.0419	11,313	50.9272	11,313	53.8506	11,313	52.1211	11,313	55.1492	11,313	56.8539	11,313	59.2795	11,313	51.8283	11,313	49.9508
11,712.9	85.77	11,712.9	85.4039	11,712.9	85.3455	11,712.9	84.0846	11,712.9	84.0211	11,712.9	81.2987	11,712.9	79.936	11,712.9	78.4667	11,712.9	77.9453	11,712.9	73.7668	11,712.9	75.622	11,712.9	69.4573	11,712.9	68.0925	11,712.9	65.5431	11,712.9	62.7345	11,712.9	61.6897	11,712.9	58.9459	11,712.9	56.633	11,712.9	43.5997	11,712.9	55.3159	11,712.9	54.4713	11,712.9	53.6841	11,712.9	58.3905	11,712.9	49.3654	11,712.9	43.8768	11,712.9	52.0138	11,712.9	43.1087	11,712.9	50.9533	11,712.9	49.2926	11,712.9	51.6503	11,712.9	51.3967	11,712.9	51.5844	11,712.9	50.071	11,712.9	54.9094	11,712.9	48.8986	11,712.9	50.2704
12,126	85.349	12,126	84.8339	12,126	85.324	12,126	83.2296	12,126	83.6993	12,126	79.7094	12,126	80.4217	12,126	76.4829	12,126	76.8405	12,126	71.333	12,126	73.2116	12,126	66.4544	12,126	63.9992	12,126	61.6527	12,126	58.4494	12,126	55.8659	12,126	52.2071	12,126	49.6652	12,126	55.2375	12,126	49.5196	12,126	53.3527	12,126	43.6581	12,126	53.3704	12,126	43.3643	12,126	42.3999	12,126	44.6256	12,126	47.2536	12,126	47.558	12,126	49.2215	12,126	34.519	12,126	47.7316	12,126	44.9269	12,126	44.3002	12,126	52.2891	12,126	46.961	12,126	45.3886
12,553.7	84.8356	12,553.7	84.2239	12,553.7	84.2005	12,553.7	81.7087	12,553.7	83.2715	12,553.7	77.8204	12,553.7	80.0986	12,553.7	73.8194	12,553.7	75.0148	12,553.7	66.1149	12,553.7	68.8641	12,553.7	58.6733	12,553.7	44.059	12,553.7	52.8742	12,553.7	47.0054	12,553.7	48.7351	12,553.7	59.3123	12,553.7	43.0611	12,553.7	58.3711	12,553.7	44.6841	12,553.7	53.6772	12,553.7	40.9716	12,553.7	54.3265	12,553.7	39.0835	12,553.7	38.1061	12,553.7	42.1526	12,553.7	47.8742	12,553.7	41.5505	12,553.7	40.9941	12,553.7	46.5952	12,553.7	39.2981	12,553.7	40.3518	12,553.7	48.0828	12,553.7	44.3806	12,553.7	45.7468	12,553.7	47.8636
12,996.1	84.1923	12,996.1	83.563	12,996.1	83.0478	12,996.1	80.5311	12,996.1	81.6855	12,996.1	76.003	12,996.1	78.2836	12,996.1	69.1842	12,996.1	72.4577	12,996.1	54.9113	12,996.1	62.2468	12,996.1	53.7114	12,996.1	63.0936	12,996.1	56.6158	12,996.1	61.7787	12,996.1	53.6627	12,996.1	63.3736	12,996.1	52.7421	12,996.1	63.0764	12,996.1	51.5664	12,996.1	59.387	12,996.1	47.0611	12,996.1	52.6355	12,996.1	48.599	12,996.1	45.542	12,996.1	52.3596	12,996.1	38.5054	12,996.1	52.7214	12,996.1	40.2814	12,996.1	49.0277	12,996.1	31.0706	12,996.1	47.2243	12,996.1	49.0884	12,996.1	50.256	12,996.1	46.5686	12,996.1	50.6693
13,454.6	83.282	13,454.6	82.9519	13,454.6	81.9962	13,454.6	79.8902	13,454.6	80.8061	13,454.6	73.1867	13,454.6	77.3965	13,454.6	68.8638	13,454.6	71.5048	13,454.6	58.8371	13,454.6	61.8169	13,454.6	59.7719	13,454.6	67.3145	13,454.6	60.5717	13,454.6	63.9071	13,454.6	58.6488	13,454.6	62.7478	13,454.6	54.0451	13,454.6	60.8605	13,454.6	53.0443	13,454.6	59.0573	13,454.6	47.6647	13,454.6	39.4326	13,454.6	51.1479	13,454.6	51.2649	13,454.6	52.1187	13,454.6	44.9485	13,454.6	53.7971	13,454.6	46.3095	13,454.6	51.5312	13,454.6	40.2702	13,454.6	46.3289	13,454.6	43.9811	13,454.6	44.8084	13,454.6	47.8297	13,454.6	48.7597
13,929.2	83.2261	13,929.2	82.1308	13,929.2	82.0713	13,929.2	77.6652	13,929.2	80.7998	13,929.2	72.8203	13,929.2	76.703	13,929.2	68.3743	13,929.2	70.3993	13,929.2	60.0179	13,929.2	61.6343	13,929.2	60.162	13,929.2	67.8294	13,929.2	62.0936	13,929.2	59.9355	13,929.2	58.9332	13,929.2	60.0177	13,929.2	55.0759	13,929.2	60.3885	13,929.2	52.53	13,929.2	53.6994	13,929.2	48.1187	13,929.2	52.979	13,929.2	50.5857	13,929.2	51.3626	13,929.2	49.8738	13,929.2	50.3958	13,929.2	52.2261	13,929.2	48.2203	13,929.2	49.7662	13,929.2	43.9746	13,929.2	48.6307	13,929.2	47.9034	13,929.2	44.5397	13,929.2	44.5028	13,929.2	48.5071
14,419.9	82.6273	14,419.9	81.1463	14,419.9	82.1645	14,419.9	77.3633	14,419.9	80.7073	14,419.9	72.2433	14,419.9	75.549	14,419.9	65.3924	14,419.9	68.4747	14,419.9	60.6109	14,419.9	65.024	14,419.9	62.3992	14,419.9	65.9382	14,419.9	62.3894	14,419.9	56.6482	14,419.9	57.5913	14,419.9	61.241	14,419.9	57.3693	14,419.9	57.6774	14,419.9	53.2301	14,419.9	51.8146	14,419.9	45.6064	14,419.9	53.7822	14,419.9	49.9319	14,419.9	45.543	14,419.9	52.6482	14,419.9	44.9164	14,419.9	51.1082	14,419.9	49.4973	14,419.9	50.8867	14,419.9	48.215	14,419.9	47.7173	14,419.9	50.9947	14,419.9	51.7822	14,419.9	50.6236	14,419.9	47.5054
14,928.2	81.986	14,928.2	80.94	14,928.2	81.459	14,928.2	77.2345	14,928.2	80.0603	14,928.2	69.8144	14,928.2	74.0886	14,928.2	64.607	14,928.2	69.5811	14,928.2	62.1008	14,928.2	62.4566	14,928.2	65.832	14,928.2	64.198	14,928.2	63.8655	14,928.2	59.1516	14,928.2	61.2271	14,928.2	62.2165	14,928.2	59.4145	14,928.2	59.4823	14,928.2	57.3519	14,928.2	58.8131	14,928.2	47.3444	14,928.2	56.7225	14,928.2	52.9702	14,928.2	52.6806	14,928.2	48.4031	14,928.2	46.5573	14,928.2	53.3484	14,928.2	51.8712	14,928.2	49.2637	14,928.2	45.0511	14,928.2	45.669	14,928.2	53.1288	14,928.2	51.4339	14,928.2	50.8244	14,928.2	49.4299
15,455.6	82.0982	15,455.6	80.8239	15,455.6	81.5706	15,455.6	76.0713	15,455.6	80.0368	15,455.6	64.9684	15,455.6	71.7569	15,455.6	63.213	15,455.6	69.4325	15,455.6	66.9885	15,455.6	58.8801	15,455.6	67.285	15,455.6	67.4205	15,455.6	67.9067	15,455.6	65.2245	15,455.6	62.5903	15,455.6	65.383	15,455.6	61.5918	15,455.6	61.3672	15,455.6	59.1894	15,455.6	57.6704	15,455.6	47.794	15,455.6	60.9443	15,455.6	55.3192	15,455.6	46.9364	15,455.6	54.9377	15,455.6	53.4753	15,455.6	53.7042	15,455.6	54.8103	15,455.6	55.7115	15,455.6	49.2051	15,455.6	53.4682	15,455.6	51.4015	15,455.6	48.5366	15,455.6	52.9077	15,455.6	45.1423
16,000.5	82.0206	16,000.5	81.456	16,000.5	81.8986	16,000.5	74.639	16,000.5	79.8841	16,000.5	64.9897	16,000.5	66.307	16,000.5	68.1864	16,000.5	64.9012	16,000.5	71.5514	16,000.5	72.1065	16,000.5	72.1275	16,000.5	64.2004	16,000.5	70.8078	16,000.5	74.1476	16,000.5	66.3155	16,000.5	68.6197	16,000.5	63.1724	16,000.5	64.3933	16,000.5	62.6566	16,000.5	60.0119	16,000.5	54.1371	16,000.5	62.7197	16,000.5	59.8644	16,000.5	53.433	16,000.5	46.6798	16,000.5	56.7963	16,000.5	56.7209	16,000.5	56.5923	16,000.5	58.0262	16,000.5	46.056	16,000.5	54.3519	16,000.5	54.9379	16,000.5	58.0896	16,000.5	50.5865	16,000.5	39.0838
16,564.5	80.6908	16,564.5	79.7822	16,564.5	81.6589	16,564.5	72.92	16,564.5	76.5059	16,564.5	71.8935	16,564.5	72.8129	16,564.5	75.2274	16,564.5	72.586	16,564.5	75.0961	16,564.5	78.066	16,564.5	74.312	16,564.5	76.0253	16,564.5	74.8493	16,564.5	77.3947	16,564.5	70.5401	16,564.5	68.7437	16,564.5	65.1277	16,564.5	67.2563	16,564.5	65.1914	16,564.5	63.1126	16,564.5	54.1816	16,564.5	63.5467	16,564.5	59.8042	16,564.5	55.318	16,564.5	54.5085	16,564.5	52.2879	16,564.5	58.0552	16,564.5	53.4166	16,564.5	59.1379	16,564.5	50.2219	16,564.5	58.3396	16,564.5	60.0082	16,564.5	59.826	16,564.5	55.736	16,564.5	49.6634
17,148.9	74.0053	17,148.9	72.1798	17,148.9	75.6195	17,148.9	67.8437	17,148.9	70.8905	17,148.9	74.8172	17,148.9	74.1415	17,148.9	75.3997	17,148.9	74.7523	17,148.9	74.0592	17,148.9	76.5569	17,148.9	73.4588	17,148.9	74.92	17,148.9	72.1507	17,148.9	75.0704	17,148.9	66.546	17,148.9	67.1577	17,148.9	62.5081	17,148.9	61.3958	17,148.9	61.9721	17,148.9	65.311	17,148.9	53.5848	17,148.9	62.8517	17,148.9	56.6802	17,148.9	52.3227	17,148.9	48.7725	17,148.9	49.7664	17,148.9	56.8293	17,148.9	47.0697	17,148.9	60.2552	17,148.9	54.2497	17,148.9	57.9114	17,148.9	49.4025	17,148.9	56.0881	17,148.9	58.8778	17,148.9	50.9907
17,752.4	72.7146	17,752.4	72.3533	17,752.4	73.6754	17,752.4	73.2137	17,752.4	72.1104	17,752.4	73.9871	17,752.4	74.3123	17,752.4	72.7749	17,752.4	72.6435	17,752.4	69.5804	17,752.4	70.3765	17,752.4	67.8944	17,752.4	71.1914	17,752.4	68.6041	17,752.4	68.8555	17,752.4	62.8259	17,752.4	62.5941	17,752.4	56.8705	17,752.4	59.6508	17,752.4	56.7982	17,752.4	58.9857	17,752.4	49.5112	17,752.4	55.1273	17,752.4	51.5554	17,752.4	46.2598	17,752.4	48.4047	17,752.4	46.4739	17,752.4	49.5123	17,752.4	47.6146	17,752.4	49.7616	17,752.4	51.0171	17,752.4	53.4597	17,752.4	49.2249	17,752.4	55.7722	17,752.4	44.0647	17,752.4	45.2261
18,379.4	73.765	18,379.4	73.0225	18,379.4	72.8167	18,379.4	71.0907	18,379.4	74.2138	18,379.4	72.2892	18,379.4	73.4383	18,379.4	70.4908	18,379.4	71.7484	18,379.4	66.3987	18,379.4	68.7967	18,379.4	64.9631	18,379.4	68.2914	18,379.4	63.0089	18,379.4	65.1177	18,379.4	57.9101	18,379.4	50.7844	18,379.4	51.3726	18,379.4	49.896	18,379.4	51.5068	18,379.4	54.0617	18,379.4	45.418	18,379.4	55.5446	18,379.4	45.5308	18,379.4	49.4979	18,379.4	43.7525	18,379.4	44.4517	18,379.4	45.6184	18,379.4	19.3607	18,379.4	52.0815	18,379.4	38.237	18,379.4	49.1434	18,379.4	45.1823	18,379.4	52.1701	18,379.4	49.8546	18,379.4	47.6825
19,026.9	73.8182	19,026.9	73.4592	19,026.9	73.0075	19,026.9	71.976	19,026.9	73.0509	19,026.9	70.8315	19,026.9	71.0527	19,026.9	68.7937	19,026.9	68.6412	19,026.9	64.2508	19,026.9	66.0433	19,026.9	61.9906	19,026.9	64.8336	19,026.9	60.9635	19,026.9	62.8568	19,026.9	55.5178	19,026.9	51.4293	19,026.9	49.5158	19,026.9	50.6977	19,026.9	47.9203	19,026.9	52.0687	19,026.9	40.928	19,026.9	51.4015	19,026.9	42.3986	19,026.9	46.6318	19,026.9	32.2622	19,026.9	39.9616	19,026.9	35.4262	19,026.9	42.8463	19,026.9	49.9966	19,026.9	39.2478	19,026.9	47.7603	19,026.9	42.8802	19,026.9	48.8807	19,026.9	49.6685	19,026.9	48.6032
19,697.8	72.8087	19,697.8	73.0796	19,697.8	72.8021	19,697.8	71.2639	19,697.8	72.7685	19,697.8	69.5878	19,697.8	69.0211	19,697.8	67.4297	19,697.8	66.8553	19,697.8	62.0948	19,697.8	61.7005	19,697.8	59.5117	19,697.8	65.2371	19,697.8	56.5393	19,697.8	57.7258	19,697.8	50.9193	19,697.8	51.3118	19,697.8	48.1334	19,697.8	41.1501	19,697.8	41.2318	19,697.8	54.033	19,697.8	32.8839	19,697.8	50.9231	19,697.8	39.0357	19,697.8	44.3556	19,697.8	34.7601	19,697.8	37.314	19,697.8	40.2681	19,697.8	43.4344	19,697.8	43.3902	19,697.8	35.0027	19,697.8	43.7593	19,697.8	40.8922	19,697.8	44.9609	19,697.8	43.3699	19,697.8	45.5698
19,999.5	72.2852	19,999.5	72.6358	19,999.5	72.5969	19,999.5	71.3142	19,999.5	71.938	19,999.5	69.1367	19,999.5	68.5588	19,999.5	66.8905	19,999.5	67.3488	19,999.5	61.5481	19,999.5	63.9098	19,999.5	58.7713	19,999.5	65.056	19,999.5	55.9	19,999.5	54.8749	19,999.5	49.4139	19,999.5	50.143	19,999.5	48.4502	19,999.5	42.2335	19,999.5	42.228	19,999.5	53.0788	19,999.5	32.5163	19,999.5	51.0805	19,999.5	36.8444	19,999.5	43.107	19,999.5	37.6451	19,999.5	42.0078	19,999.5	39.816	19,999.5	42.9763	19,999.5	47.4798	19,999.5	47.6418	19,999.5	44.891	19,999.5	45.0163	19,999.5	40.427	19,999.5	39.568	19,999.5	44.6151
