"SPL Horizontal"
"On-Axis"		"10°"		"-10°"		"20°"		"-20°"		"30°"		"-30°"		"40°"		"-40°"		"50°"		"-50°"		"60°"		"-60°"		"70°"		"-70°"		"80°"		"-80°"		"90°"		"-90°"		"100°"		"-100°"		"110°"		"-110°"		"120°"		"-120°"		"130°"		"-130°"		"140°"		"-140°"		"150°"		"-150°"		"160°"		"-160°"		"170°"		"-170°"		"180°"
"Frequency [Hz]"	"Sound Pessure Level [dB]  / [2.83V 1m] "	"Frequency [Hz]"	"Sound Pessure Level [dB]  / [2.83V 1m] "	"Frequency [Hz]"	"Sound Pessure Level [dB]  / [2.83V 1m] "	"Frequency [Hz]"	"Sound Pessure Level [dB]  / [2.83V 1m] "	"Frequency [Hz]"	"Sound Pessure Level [dB]  / [2.83V 1m] "	"Frequency [Hz]"	"Sound Pessure Level [dB]  / [2.83V 1m] "	"Frequency [Hz]"	"Sound Pessure Level [dB]  / [2.83V 1m] "	"Frequency [Hz]"	"Sound Pessure Level [dB]  / [2.83V 1m] "	"Frequency [Hz]"	"Sound Pessure Level [dB]  / [2.83V 1m] "	"Frequency [Hz]"	"Sound Pessure Level [dB]  / [2.83V 1m] "	"Frequency [Hz]"	"Sound Pessure Level [dB]  / [2.83V 1m] "	"Frequency [Hz]"	"Sound Pessure Level [dB]  / [2.83V 1m] "	"Frequency [Hz]"	"Sound Pessure Level [dB]  / [2.83V 1m] "	"Frequency [Hz]"	"Sound Pessure Level [dB]  / [2.83V 1m] "	"Frequency [Hz]"	"Sound Pessure Level [dB]  / [2.83V 1m] "	"Frequency [Hz]"	"Sound Pessure Level [dB]  / [2.83V 1m] "	"Frequency [Hz]"	"Sound Pessure Level [dB]  / [2.83V 1m] "	"Frequency [Hz]"	"Sound Pessure Level [dB]  / [2.83V 1m] "	"Frequency [Hz]"	"Sound Pessure Level [dB]  / [2.83V 1m] "	"Frequency [Hz]"	"Sound Pessure Level [dB]  / [2.83V 1m] "	"Frequency [Hz]"	"Sound Pessure Level [dB]  / [2.83V 1m] "	"Frequency [Hz]"	"Sound Pessure Level [dB]  / [2.83V 1m] "	"Frequency [Hz]"	"Sound Pessure Level [dB]  / [2.83V 1m] "	"Frequency [Hz]"	"Sound Pessure Level [dB]  / [2.83V 1m] "	"Frequency [Hz]"	"Sound Pessure Level [dB]  / [2.83V 1m] "	"Frequency [Hz]"	"Sound Pessure Level [dB]  / [2.83V 1m] "	"Frequency [Hz]"	"Sound Pessure Level [dB]  / [2.83V 1m] "	"Frequency [Hz]"	"Sound Pessure Level [dB]  / [2.83V 1m] "	"Frequency [Hz]"	"Sound Pessure Level [dB]  / [2.83V 1m] "	"Frequency [Hz]"	"Sound Pessure Level [dB]  / [2.83V 1m] "	"Frequency [Hz]"	"Sound Pessure Level [dB]  / [2.83V 1m] "	"Frequency [Hz]"	"Sound Pessure Level [dB]  / [2.83V 1m] "	"Frequency [Hz]"	"Sound Pessure Level [dB]  / [2.83V 1m] "	"Frequency [Hz]"	"Sound Pessure Level [dB]  / [2.83V 1m] "	"Frequency [Hz]"	"Sound Pessure Level [dB]  / [2.83V 1m] "	"Frequency [Hz]"	"Sound Pessure Level [dB]  / [2.83V 1m] "
20.5078	44.9624	20.5078	45.0296	20.5078	44.6633	20.5078	44.9636	20.5078	44.0763	20.5078	44.9317	20.5078	43.1858	20.5078	45.1718	20.5078	42.084	20.5078	45.8896	20.5078	41.1819	20.5078	47.0928	20.5078	41.3418	20.5078	48.5915	20.5078	42.9414	20.5078	50.165	20.5078	45.229	20.5078	51.6667	20.5078	47.5059	20.5078	53.0232	20.5078	49.5336	20.5078	54.2041	20.5078	51.2791	20.5078	55.1992	20.5078	52.7629	20.5078	56.0065	20.5078	54.0115	20.5078	56.6275	20.5078	55.0467	20.5078	57.0639	20.5078	55.8838	20.5078	57.3179	20.5078	56.5326	20.5078	57.391	20.5078	56.9985	20.5078	57.2844
21.9727	49.1355	21.9727	49.0443	21.9727	48.9573	21.9727	48.7004	21.9727	48.4997	21.9727	48.1447	21.9727	47.7606	21.9727	47.4869	21.9727	46.7734	21.9727	46.9799	21.9727	45.694	21.9727	47.0227	21.9727	44.9669	21.9727	47.8705	21.9727	45.2576	21.9727	49.3296	21.9727	46.6778	21.9727	51.0016	21.9727	48.6148	21.9727	52.614	21.9727	50.5502	21.9727	54.0491	21.9727	52.2849	21.9727	55.2695	21.9727	53.7759	21.9727	56.2696	21.9727	55.0284	21.9727	57.0532	21.9727	56.0573	21.9727	57.6266	21.9727	56.8754	21.9727	57.9953	21.9727	57.4916	21.9727	58.1637	21.9727	57.9107	21.9727	58.1348
23.4375	48.9629	23.4375	48.6686	23.4375	48.8823	23.4375	47.9846	23.4375	48.4215	23.4375	46.8963	23.4375	47.5535	23.4375	45.4815	23.4375	46.2468	23.4375	44.2382	23.4375	44.5691	23.4375	44.405	23.4375	43.115	23.4375	46.3809	23.4375	43.4206	23.4375	48.9481	23.4375	45.7062	23.4375	51.3174	23.4375	48.4257	23.4375	53.3194	23.4375	50.8426	23.4375	54.9677	23.4375	52.8615	23.4375	56.3041	23.4375	54.5273	23.4375	57.365	23.4375	55.8933	23.4375	58.177	23.4375	56.9996	23.4375	58.7589	23.4375	57.8731	23.4375	59.1234	23.4375	58.5306	23.4375	59.279	23.4375	58.9818	23.4375	59.231
24.9023	50.6246	24.9023	50.371	24.9023	50.5958	24.9023	49.8528	24.9023	50.287	24.9023	49.1422	24.9023	49.7212	24.9023	48.454	24.9023	48.9767	24.9023	48.2363	24.9023	48.2707	24.9023	48.9448	24.9023	48.0376	24.9023	50.4897	24.9023	48.7031	24.9023	52.3689	24.9023	50.1787	24.9023	54.2084	24.9023	51.993	24.9023	55.8554	24.9023	53.7887	24.9023	57.2694	24.9023	55.4158	24.9023	58.4492	24.9023	56.8329	24.9023	59.4045	24.9023	58.0373	24.9023	60.1456	24.9023	59.0368	24.9023	60.6811	24.9023	59.8396	24.9023	61.0175	24.9023	60.4513	24.9023	61.1598	24.9023	60.8751	24.9023	61.1115
26.3672	52.7527	26.3672	52.5136	26.3672	52.7213	26.3672	52.0165	26.3672	52.4178	26.3672	51.3093	26.3672	51.85	26.3672	50.5426	26.3672	51.0563	26.3672	50.0701	26.3672	50.1702	26.3672	50.3777	26.3672	49.5342	26.3672	51.5962	26.3672	49.677	26.3672	53.323	26.3672	50.8114	26.3672	55.1208	26.3672	52.538	26.3672	56.7707	26.3672	54.3745	26.3672	58.2006	26.3672	56.0775	26.3672	59.3973	26.3672	57.5692	26.3672	60.3662	26.3672	58.8371	26.3672	61.1164	26.3672	59.8877	26.3672	61.6563	26.3672	60.7304	26.3672	61.9925	26.3672	61.3726	26.3672	62.1298	26.3672	61.8189	26.3672	62.0714
27.832	54.4049	27.832	54.1889	27.832	54.391	27.832	53.7615	27.832	54.148	27.832	53.1828	27.832	53.6943	27.832	52.6057	27.832	53.0854	27.832	52.3279	27.832	52.4588	27.832	52.6963	27.832	52.0868	27.832	53.7849	27.832	52.3124	27.832	55.3072	27.832	53.26	27.832	56.927	27.832	54.6933	27.832	58.4475	27.832	56.2795	27.832	59.7876	27.832	57.8062	27.832	60.922	27.832	59.1804	27.832	61.8474	27.832	60.3705	27.832	62.5672	27.832	61.3695	27.832	63.0863	27.832	62.1782	27.832	63.4091	27.832	62.7988	27.832	63.5393	27.832	63.2326	27.832	63.4798
29.2969	56.2938	29.2969	56.103	29.2969	56.2832	29.2969	55.728	29.2969	56.0713	29.2969	55.2201	29.2969	55.6746	29.2969	54.7006	29.2969	55.1391	29.2969	54.3974	29.2969	54.5714	29.2969	54.5949	29.2969	54.1762	29.2969	55.4193	29.2969	54.2297	29.2969	56.704	29.2969	54.8984	29.2969	58.1639	29.2969	56.0721	29.2969	59.59	29.2969	57.4825	29.2969	60.8764	29.2969	58.908	29.2969	61.9805	29.2969	60.2283	29.2969	62.8882	29.2969	61.3913	29.2969	63.5972	29.2969	62.3779	29.2969	64.1091	29.2969	63.1823	29.2969	64.4266	29.2969	63.8027	29.2969	64.5524	29.2969	64.2387	29.2969	64.4891
30.7617	58.5862	30.7617	58.4064	30.7617	58.5793	30.7617	58.0516	30.7617	58.3866	30.7617	57.5578	30.7617	58.0209	30.7617	57.0114	30.7617	57.5158	30.7617	56.583	30.7617	56.9467	30.7617	56.521	30.7617	56.4612	30.7617	57.016	30.7617	56.2835	30.7617	58.0237	30.7617	56.6164	30.7617	59.3102	30.7617	57.4733	30.7617	60.6448	30.7617	58.6659	30.7617	61.8872	30.7617	59.9684	30.7617	62.9707	30.7617	61.2268	30.7617	63.8689	30.7617	62.3614	30.7617	64.573	30.7617	63.3368	30.7617	65.0817	30.7617	64.1383	30.7617	65.3963	30.7617	64.76	30.7617	65.5191	30.7617	65.1988	30.7617	65.4525
32.2266	59.2619	32.2266	59.0945	32.2266	59.2423	32.2266	58.7539	32.2266	59.0357	32.2266	58.2795	32.2266	58.655	32.2266	57.7615	32.2266	58.1372	32.2266	57.3737	32.2266	57.5671	32.2266	57.3596	32.2266	57.1099	32.2266	57.8952	32.2266	57.0066	32.2266	58.925	32.2266	57.4496	32.2266	60.2181	32.2266	58.4106	32.2266	61.5528	32.2266	59.6711	32.2266	62.7944	32.2266	61.0049	32.2266	63.8789	32.2266	62.2704	32.2266	64.7804	32.2266	63.3988	32.2266	65.4902	32.2266	64.3613	32.2266	66.0068	32.2266	65.147	32.2266	66.3315	32.2266	65.7521	32.2266	66.4662	32.2266	66.1746	32.2266	66.4133
33.6914	60.9633	33.6914	60.8911	33.6914	60.9009	33.6914	60.6936	33.6914	60.7097	33.6914	60.4006	33.6914	60.4112	33.6914	60.0759	33.6914	60.0505	33.6914	59.8309	33.6914	59.7092	33.6914	59.8177	33.6914	59.5108	33.6914	60.1676	33.6914	59.5967	33.6914	60.9004	33.6914	60.0544	33.6914	61.9062	33.6914	60.8547	33.6914	63.0261	33.6914	61.8735	33.6914	64.129	33.6914	62.9704	33.6914	65.1327	33.6914	64.0396	33.6914	65.9927	33.6914	65.0164	33.6914	66.6868	33.6914	65.8645	33.6914	67.2047	33.6914	66.5642	33.6914	67.5423	33.6914	67.104	33.6914	67.699	33.6914	67.4764	33.6914	67.6761
35.1562	62.9096	35.1562	62.8269	35.1562	62.8755	35.1562	62.6351	35.1562	62.7308	35.1562	62.3606	35.1562	62.4955	35.1562	62.059	35.1562	62.2084	35.1562	61.8247	35.1562	61.9341	35.1562	61.7854	35.1562	61.7663	35.1562	62.0565	35.1562	61.8122	35.1562	62.67	35.1562	62.1487	35.1562	63.5485	35.1562	62.7769	35.1562	64.5587	35.1562	63.6207	35.1562	65.5776	35.1562	64.5711	35.1562	66.5209	35.1562	65.5305	35.1562	67.3386	35.1562	66.4297	35.1562	68.0039	35.1562	67.2249	35.1562	68.5027	35.1562	67.8893	35.1562	68.829	35.1562	68.4064	35.1562	68.9805	35.1562	68.7652	35.1562	68.9582
36.6211	64.5087	36.6211	64.4406	36.6211	64.466	36.6211	64.2684	36.6211	64.3178	36.6211	64.0144	36.6211	64.0812	36.6211	63.7247	36.6211	63.7898	36.6211	63.4784	36.6211	63.5001	36.6211	63.3857	36.6211	63.2957	36.6211	63.5571	36.6211	63.2766	36.6211	64.0443	36.6211	63.5243	36.6211	64.802	36.6211	64.0566	36.6211	65.7183	36.6211	64.8156	36.6211	66.6734	36.6211	65.7013	36.6211	67.5768	36.6211	66.6157	36.6211	68.3708	36.6211	67.4851	36.6211	69.0224	36.6211	68.2608	36.6211	69.5139	36.6211	68.9127	36.6211	69.8366	36.6211	69.4216	36.6211	69.9871	36.6211	69.7754	36.6211	69.9657
38.0859	66.026	38.0859	65.9707	38.0859	65.9811	38.0859	65.8216	38.0859	65.8406	38.0859	65.5994	38.0859	65.6203	38.0859	65.3458	38.0859	65.3506	38.0859	65.1299	38.0859	65.0818	38.0859	65.0463	38.0859	64.8874	38.0859	65.1908	38.0859	64.8554	38.0859	65.6138	38.0859	65.0605	38.0859	66.2864	38.0859	65.5266	38.0859	67.1175	38.0859	66.2111	38.0859	68.0007	38.0859	67.0285	38.0859	68.8487	38.0859	67.8879	38.0859	69.6024	38.0859	68.7165	38.0859	70.2255	38.0859	69.4634	38.0859	70.6976	38.0859	70.0957	38.0859	71.0077	38.0859	70.5923	38.0859	71.1511	38.0859	70.9392	38.0859	71.1274
39.5508	67.3998	39.5508	67.3428	39.5508	67.3618	39.5508	67.1965	39.5508	67.2337	39.5508	66.9799	39.5508	67.0306	39.5508	66.7311	39.5508	66.7813	39.5508	66.5134	39.5508	66.5322	39.5508	66.4136	39.5508	66.3494	39.5508	66.5219	39.5508	66.3115	39.5508	66.8908	39.5508	66.4865	39.5508	67.5024	39.5508	66.9001	39.5508	68.2772	39.5508	67.5204	39.5508	69.1151	39.5508	68.2739	39.5508	69.9299	39.5508	69.0777	39.5508	70.6607	39.5508	69.8613	39.5508	71.2693	39.5508	70.5733	39.5508	71.7332	39.5508	71.1792	39.5508	72.0404	39.5508	71.656	39.5508	72.1854	39.5508	71.9887	39.5508	72.1672
41.0156	68.6995	41.0156	68.643	41.0156	68.6705	41.0156	68.5074	41.0156	68.5611	41.0156	68.3127	41.0156	68.3868	41.0156	68.0975	41.0156	68.1759	41.0156	67.9228	41.0156	67.9723	41.0156	67.8675	41.0156	67.8353	41.0156	68.0088	41.0156	67.832	41.0156	68.3869	41.0156	68.0183	41.0156	68.981	41.0156	68.4141	41.0156	69.7198	41.0156	68.9929	41.0156	70.5145	41.0156	69.6938	41.0156	71.2875	41.0156	70.4453	41.0156	71.9822	41.0156	71.1839	41.0156	72.5614	41.0156	71.8609	41.0156	73.0028	41.0156	72.442	41.0156	73.2937	41.0156	72.9031	41.0156	73.4281	41.0156	73.2278	41.0156	73.4051
42.4805	70.1932	42.4805	70.1629	42.4805	70.1527	42.4805	70.0674	42.4805	70.0452	42.4805	69.9232	42.4805	69.8838	42.4805	69.7613	42.4805	69.6925	42.4805	69.6287	42.4805	69.5076	42.4805	69.5863	42.4805	69.3787	42.4805	69.6949	42.4805	69.3624	42.4805	69.9929	42.4805	69.5079	42.4805	70.4756	42.4805	69.8384	42.4805	71.0962	42.4805	70.3387	42.4805	71.7851	42.4805	70.961	42.4805	72.473	42.4805	71.6431	42.4805	73.104	42.4805	72.325	42.4805	73.6382	42.4805	72.9582	42.4805	74.0495	42.4805	73.5066	42.4805	74.3221	42.4805	73.9446	42.4805	74.4479	42.4805	74.2545	42.4805	74.4245
43.9453	71.3862	43.9453	71.3539	43.9453	71.3536	43.9453	71.2622	43.9453	71.2599	43.9453	71.1274	43.9453	71.1179	43.9453	70.9792	43.9453	70.9506	43.9453	70.8623	43.9453	70.7923	43.9453	70.8329	43.9453	70.6885	43.9453	70.9466	43.9453	70.6899	43.9453	71.2376	43.9453	70.8399	43.9453	71.7016	43.9453	71.1584	43.9453	72.2958	43.9453	71.6322	43.9453	72.9559	43.9453	72.2191	43.9453	73.6171	43.9453	72.8634	43.9453	74.2258	43.9453	73.5098	43.9453	74.7429	43.9453	74.1123	43.9453	75.1424	43.9453	74.6357	43.9453	75.4084	43.9453	75.0546	43.9453	75.5327	43.9453	75.3509	43.9453	75.5126
45.4102	72.7156	45.4102	72.694	45.4102	72.6824	45.4102	72.6227	45.4102	72.598	45.4102	72.5158	45.4102	72.4741	45.4102	72.3991	45.4102	72.3309	45.4102	72.3102	45.4102	72.1985	45.4102	72.2958	45.4102	72.1154	45.4102	72.402	45.4102	72.1242	45.4102	72.6584	45.4102	72.2615	45.4102	73.0652	45.4102	72.5454	45.4102	73.5904	45.4102	72.9675	45.4102	74.1817	45.4102	73.4946	45.4102	74.7823	45.4102	74.0794	45.4102	75.3421	45.4102	74.6727	45.4102	75.8225	45.4102	75.2311	45.4102	76.1967	45.4102	75.7201	45.4102	76.4473	45.4102	76.1137	45.4102	76.5648	45.4102	76.3932	45.4102	76.546
46.875	73.9235	46.875	73.9119	46.875	73.8878	46.875	73.8572	46.875	73.808	46.875	73.7722	46.875	73.6945	46.875	73.6792	46.875	73.5656	46.875	73.6106	46.875	73.4478	46.875	73.6058	46.875	73.3748	46.875	73.7041	46.875	73.3836	46.875	73.9318	46.875	73.5062	46.875	74.2919	46.875	73.7599	46.875	74.7601	46.875	74.1395	46.875	75.293	46.875	74.6179	46.875	75.8406	46.875	75.1543	46.875	76.3562	46.875	75.7041	46.875	76.8023	46.875	76.2263	46.875	77.1516	46.875	76.6872	46.875	77.3859	46.875	77.0606	46.875	77.4948	46.875	77.3274	46.875	77.4746
48.3398	74.9822	48.3398	74.9694	48.3398	74.948	48.3398	74.9135	48.3398	74.87	48.3398	74.8259	48.3398	74.7582	48.3398	74.7271	48.3398	74.6299	48.3398	74.6473	48.3398	74.5096	48.3398	74.6237	48.3398	74.429	48.3398	74.6942	48.3398	74.4229	48.3398	74.8866	48.3398	74.5221	48.3398	75.207	48.3398	74.7446	48.3398	75.636	48.3398	75.0878	48.3398	76.134	48.3398	75.5286	48.3398	76.6531	48.3398	76.0296	48.3398	77.1471	48.3398	76.5483	48.3398	77.5781	48.3398	77.0447	48.3398	77.9177	48.3398	77.485	48.3398	78.1471	48.3398	77.8427	48.3398	78.2553	48.3398	78.0983	48.3398	78.2384
51.2695	76.8166	51.2695	76.8184	51.2695	76.7799	51.2695	76.7879	51.2695	76.7113	51.2695	76.7344	51.2695	76.6195	51.2695	76.674	51.2695	76.5189	51.2695	76.6299	51.2695	76.4296	51.2695	76.6301	51.2695	76.3765	51.2695	76.7032	51.2695	76.3861	51.2695	76.8706	51.2695	76.4817	51.2695	77.139	51.2695	76.6769	51.2695	77.4962	51.2695	76.9709	51.2695	77.914	51.2695	77.3471	51.2695	78.3549	51.2695	77.7773	51.2695	78.78	51.2695	78.2271	51.2695	79.155	51.2695	78.6625	51.2695	79.4531	51.2695	79.0528	51.2695	79.655	51.2695	79.3729	51.2695	79.7495	51.2695	79.6038	51.2695	79.7318
52.7344	77.6686	52.7344	77.6731	52.7344	77.6328	52.7344	77.6487	52.7344	77.569	52.7344	77.6033	52.7344	77.4854	52.7344	77.5509	52.7344	77.395	52.7344	77.512	52.7344	77.316	52.7344	77.5115	52.7344	77.2703	52.7344	77.575	52.7344	77.2813	52.7344	77.7226	52.7344	77.3695	52.7344	77.9619	52.7344	77.5472	52.7344	78.2842	52.7344	77.8147	52.7344	78.6656	52.7344	78.1582	52.7344	79.0727	52.7344	78.5533	52.7344	79.4693	52.7344	78.9693	52.7344	79.8224	52.7344	79.3743	52.7344	80.1051	52.7344	79.7392	52.7344	80.2983	52.7344	80.0395	52.7344	80.39	52.7344	80.256	52.7344	80.3754
54.1992	78.4651	54.1992	78.4701	54.1992	78.4329	54.1992	78.4497	54.1992	78.3764	54.1992	78.4112	54.1992	78.303	54.1992	78.3673	54.1992	78.2248	54.1992	78.3364	54.1992	78.1578	54.1992	78.3406	54.1992	78.1216	54.1992	78.4032	54.1992	78.1368	54.1992	78.5422	54.1992	78.2216	54.1992	78.7651	54.1992	78.3876	54.1992	79.0649	54.1992	78.6353	54.1992	79.4206	54.1992	78.9535	54.1992	79.8018	54.1992	79.3206	54.1992	80.1751	54.1992	79.7088	54.1992	80.5088	54.1992	80.0887	54.1992	80.7771	54.1992	80.4326	54.1992	80.961	54.1992	80.7165	54.1992	81.0486	54.1992	80.9218	54.1992	81.0351
55.6641	79.2516	55.6641	79.2559	55.6641	79.221	55.6641	79.2358	55.6641	79.1669	55.6641	79.1976	55.6641	79.0963	55.6641	79.1533	55.6641	79.0201	55.6641	79.1198	55.6641	78.9534	55.6641	79.1179	55.6641	78.9143	55.6641	79.1692	55.6641	78.9221	55.6641	79.2915	55.6641	78.9942	55.6641	79.4927	55.6641	79.142	55.6641	79.7677	55.6641	79.3672	55.6641	80.098	55.6641	79.6605	55.6641	80.4555	55.6641	80.0022	55.6641	80.8081	55.6641	80.3668	55.6641	81.1254	55.6641	80.7259	55.6641	81.3817	55.6641	81.0527	55.6641	81.5578	55.6641	81.3238	55.6641	81.6419	55.6641	81.5203	55.6641	81.6289
58.5938	80.5809	58.5938	80.5906	58.5938	80.5527	58.5938	80.5833	58.5938	80.5087	58.5938	80.5644	58.5938	80.4547	58.5938	80.5435	58.5938	80.4003	58.5938	80.5344	58.5938	80.3577	58.5938	80.5536	58.5938	80.3416	58.5938	80.6179	58.5938	80.367	58.5938	80.7408	58.5938	80.4472	58.5938	80.9282	58.5938	80.5906	58.5938	81.1759	58.5938	80.7981	58.5938	81.469	58.5938	81.0618	58.5938	81.7847	58.5938	81.3663	58.5938	82.0962	58.5938	81.6902	58.5938	82.377	58.5938	82.0099	58.5938	82.6043	58.5938	82.3019	58.5938	82.7606	58.5938	82.5452	58.5938	82.8346	58.5938	82.7226	58.5938	82.8214
60.0586	81.2252	60.0586	81.2265	60.0586	81.2089	60.0586	81.2153	60.0586	81.1785	60.0586	81.1974	60.0586	81.138	60.0586	81.1815	60.0586	81.0946	60.0586	81.1791	60.0586	81.0588	60.0586	81.2037	60.0586	81.0433	60.0586	81.2684	60.0586	81.0619	60.0586	81.3837	60.0586	81.1275	60.0586	81.5543	60.0586	81.2491	60.0586	81.7771	60.0586	81.4294	60.0586	82.04	60.0586	81.663	60.0586	82.3241	60.0586	81.9367	60.0586	82.6062	60.0586	82.2314	60.0586	82.8625	60.0586	82.5249	60.0586	83.0718	60.0586	82.7945	60.0586	83.2169	60.0586	83.0199	60.0586	83.2865	60.0586	83.1842	60.0586	83.2753
62.9883	82.3638	62.9883	82.3666	62.9883	82.3511	62.9883	82.3615	62.9883	82.3289	62.9883	82.3532	62.9883	82.3002	62.9883	82.3486	62.9883	82.2708	62.9883	82.3568	62.9883	82.2487	62.9883	82.3883	62.9883	82.2438	62.9883	82.4533	62.9883	82.2671	62.9883	82.56	62.9883	82.3288	62.9883	82.7123	62.9883	82.4363	62.9883	82.9075	62.9883	82.5923	62.9883	83.1364	62.9883	82.7933	62.9883	83.3833	62.9883	83.0293	62.9883	83.6288	62.9883	83.2848	62.9883	83.8523	62.9883	83.5412	62.9883	84.035	62.9883	83.7786	62.9883	84.1613	62.9883	83.9787	62.9883	84.2208	62.9883	84.1259	62.9883	84.2087
64.4531	82.839	64.4531	82.8433	64.4531	82.8274	64.4531	82.8424	64.4531	82.809	64.4531	82.8401	64.4531	82.7863	64.4531	82.8429	64.4531	82.7645	64.4531	82.8587	64.4531	82.7505	64.4531	82.8965	64.4531	82.7531	64.4531	82.9653	64.4531	82.7821	64.4531	83.072	64.4531	82.8463	64.4531	83.2199	64.4531	82.9525	64.4531	83.4064	64.4531	83.1029	64.4531	83.6231	64.4531	83.2943	64.4531	83.8558	64.4531	83.5178	64.4531	84.0867	64.4531	83.7591	64.4531	84.297	64.4531	84.001	64.4531	84.4689	64.4531	84.2252	64.4531	84.5878	64.4531	84.4143	64.4531	84.6437	64.4531	84.5536	64.4531	84.632
67.3828	83.6866	67.3828	83.695	67.3828	83.6756	67.3828	83.7025	67.3828	83.6623	67.3828	83.7123	67.3828	83.6487	67.3828	83.729	67.3828	83.6387	67.3828	83.7587	67.3828	83.6378	67.3828	83.8081	67.3828	83.6528	67.3828	83.8835	67.3828	83.691	67.3828	83.9898	67.3828	83.759	67.3828	84.129	67.3828	83.862	67.3828	84.2986	67.3828	84.0013	67.3828	84.4915	67.3828	84.1742	67.3828	84.6962	67.3828	84.3735	67.3828	84.8981	67.3828	84.5874	67.3828	85.0812	67.3828	84.8018	67.3828	85.2303	67.3828	85.0009	67.3828	85.3326	67.3828	85.1696	67.3828	85.3795	67.3828	85.2947	67.3828	85.3666
68.8477	84.1826	68.8477	84.1945	68.8477	84.1709	68.8477	84.2079	68.8477	84.1597	68.8477	84.2254	68.8477	84.1507	68.8477	84.2509	68.8477	84.1469	68.8477	84.2892	68.8477	84.153	68.8477	84.3454	68.8477	84.1744	68.8477	84.4247	68.8477	84.2171	68.8477	84.5307	68.8477	84.2867	68.8477	84.6646	68.8477	84.3869	68.8477	84.8241	68.8477	84.5192	68.8477	85.003	68.8477	84.6811	68.8477	85.1912	68.8477	84.8664	68.8477	85.3759	68.8477	85.0651	68.8477	85.5427	68.8477	85.2643	68.8477	85.678	68.8477	85.45	68.8477	85.77	68.8477	85.6082	68.8477	85.8106	68.8477	85.7266	68.8477	85.7958
71.7773	85.2963	71.7773	85.3153	71.7773	85.2802	71.7773	85.338	71.7773	85.2675	71.7773	85.3657	71.7773	85.2593	71.7773	85.4007	71.7773	85.2578	71.7773	85.4456	71.7773	85.2659	71.7773	85.5036	71.7773	85.2875	71.7773	85.5779	71.7773	85.3267	71.7773	85.6708	71.7773	85.3873	71.7773	85.7832	71.7773	85.4727	71.7773	85.9138	71.7773	85.5839	71.7773	86.0583	71.7773	85.7197	71.7773	86.2096	71.7773	85.8756	71.7773	86.3578	71.7773	86.0439	71.7773	86.4917	71.7773	86.2143	71.7773	86.5998	71.7773	86.3747	71.7773	86.6718	71.7773	86.513	71.7773	86.7006	71.7773	86.6185	71.7773	86.6826
74.707	85.985	74.707	86.0042	74.707	85.9714	74.707	86.0294	74.707	85.9633	74.707	86.0612	74.707	85.9614	74.707	86.1007	74.707	85.9668	74.707	86.1493	74.707	85.9812	74.707	86.2086	74.707	86.007	74.707	86.2803	74.707	86.047	74.707	86.3655	74.707	86.104	74.707	86.4648	74.707	86.1803	74.707	86.577	74.707	86.2769	74.707	86.6991	74.707	86.3929	74.707	86.8257	74.707	86.5249	74.707	86.9491	74.707	86.667	74.707	87.0601	74.707	86.8111	74.707	87.1493	74.707	86.9473	74.707	87.2081	74.707	87.0655	74.707	87.2303	74.707	87.1565	74.707	87.2128
77.6367	86.6112	77.6367	86.6314	77.6367	86.5988	77.6367	86.6592	77.6367	86.5939	77.6367	86.695	77.6367	86.5968	77.6367	86.7387	77.6367	86.6079	77.6367	86.7908	77.6367	86.6279	77.6367	86.8515	77.6367	86.658	77.6367	86.9213	77.6367	86.6998	77.6367	87.0007	77.6367	86.7548	77.6367	87.0896	77.6367	86.8245	77.6367	87.187	77.6367	86.9095	77.6367	87.2906	77.6367	87.0093	77.6367	87.3962	77.6367	87.1214	77.6367	87.4981	77.6367	87.2413	77.6367	87.589	77.6367	87.3628	77.6367	87.6612	77.6367	87.4781	77.6367	87.7079	77.6367	87.5788	77.6367	87.7239	77.6367	87.6571	77.6367	87.7067
79.1016	87.1161	79.1016	87.137	79.1016	87.1035	79.1016	87.1662	79.1016	87.0994	79.1016	87.2036	79.1016	87.1036	79.1016	87.2489	79.1016	87.1161	79.1016	87.3018	79.1016	87.1374	79.1016	87.3622	79.1016	87.1681	79.1016	87.4301	79.1016	87.2092	79.1016	87.5055	79.1016	87.2617	79.1016	87.5882	79.1016	87.3269	79.1016	87.6772	79.1016	87.4052	79.1016	87.7707	79.1016	87.4961	79.1016	87.865	79.1016	87.5978	79.1016	87.9553	79.1016	87.7065	79.1016	88.0353	79.1016	87.8168	79.1016	88.0984	79.1016	87.9218	79.1016	88.1384	79.1016	88.014	79.1016	88.1507	79.1016	88.0864	79.1016	88.1331
82.0312	87.9187	82.0312	87.9406	82.0312	87.9066	82.0312	87.9719	82.0312	87.9042	82.0312	88.012	82.0312	87.9111	82.0312	88.0599	82.0312	87.9268	82.0312	88.1144	82.0312	87.9508	82.0312	88.1745	82.0312	87.9829	82.0312	88.2392	82.0312	88.0231	82.0312	88.3077	82.0312	88.0717	82.0312	88.3794	82.0312	88.1292	82.0312	88.4536	82.0312	88.1958	82.0312	88.5288	82.0312	88.2713	82.0312	88.6028	82.0312	88.3546	82.0312	88.6723	82.0312	88.4431	82.0312	88.7328	82.0312	88.533	82.0312	88.7796	82.0312	88.6189	82.0312	88.8079	82.0312	88.6952	82.0312	88.8142	82.0312	88.756	82.0312	88.7966
84.9609	88.2025	84.9609	88.2254	84.9609	88.1925	84.9609	88.2609	84.9609	88.1952	84.9609	88.308	84.9609	88.2098	84.9609	88.3651	84.9609	88.2352	84.9609	88.4302	84.9609	88.27	84.9609	88.5011	84.9609	88.3131	84.9609	88.5758	84.9609	88.3634	84.9609	88.6524	84.9609	88.4203	84.9609	88.7293	84.9609	88.4835	84.9609	88.805	84.9609	88.5526	84.9609	88.8781	84.9609	88.6272	84.9609	88.9467	84.9609	88.7063	84.9609	89.0083	84.9609	88.7879	84.9609	89.06	84.9609	88.8689	84.9609	89.0984	84.9609	88.9456	84.9609	89.12	84.9609	89.0133	84.9609	89.1225	84.9609	89.0676	84.9609	89.1048
87.8906	88.8551	87.8906	88.8833	87.8906	88.8436	87.8906	88.9273	87.8906	88.8482	87.8906	88.9853	87.8906	88.8678	87.8906	89.0544	87.8906	88.9002	87.8906	89.1311	87.8906	88.9429	87.8906	89.2119	87.8906	88.9933	87.8906	89.2931	87.8906	89.0493	87.8906	89.3716	87.8906	89.1089	87.8906	89.4452	87.8906	89.1708	87.8906	89.5121	87.8906	89.2343	87.8906	89.5712	87.8906	89.2987	87.8906	89.6218	87.8906	89.3637	87.8906	89.6628	87.8906	89.4284	87.8906	89.6932	87.8906	89.4916	87.8906	89.7118	87.8906	89.5515	87.8906	89.7172	87.8906	89.6057	87.8906	89.7088	87.8906	89.6515	87.8906	89.6865
90.8203	89.5779	90.8203	89.6063	90.8203	89.5656	90.8203	89.6497	90.8203	89.5693	90.8203	89.7056	90.8203	89.5876	90.8203	89.7707	90.8203	89.6183	90.8203	89.8411	90.8203	89.6583	90.8203	89.9126	90.8203	89.7046	90.8203	89.9815	90.8203	89.7541	90.8203	90.0447	90.8203	89.8044	90.8203	90.0999	90.8203	89.8537	90.8203	90.1458	90.8203	89.9009	90.8203	90.1819	90.8203	89.9457	90.8203	90.2085	90.8203	89.9881	90.8203	90.226	90.8203	90.0286	90.8203	90.2349	90.8203	90.0673	90.8203	90.236	90.8203	90.104	90.8203	90.2294	90.8203	90.1383	90.8203	90.2156	90.8203	90.1691	90.8203	90.1953
95.2148	90.2591	95.2148	90.2825	95.2148	90.2498	95.2148	90.319	95.2148	90.2545	95.2148	90.3664	95.2148	90.2716	95.2148	90.4214	95.2148	90.2989	95.2148	90.48	95.2148	90.3331	95.2148	90.538	95.2148	90.3708	95.2148	90.5914	95.2148	90.4089	95.2148	90.6368	95.2148	90.4445	95.2148	90.6716	95.2148	90.4758	95.2148	90.6945	95.2148	90.5015	95.2148	90.7054	95.2148	90.5218	95.2148	90.7056	95.2148	90.5373	95.2148	90.6969	95.2148	90.5494	95.2148	90.6821	95.2148	90.5596	95.2148	90.6638	95.2148	90.5695	95.2148	90.6443	95.2148	90.5803	95.2148	90.6254	95.2148	90.5931	95.2148	90.6081
98.1445	90.6881	98.1445	90.71	98.1445	90.6789	98.1445	90.7437	98.1445	90.6823	98.1445	90.7873	98.1445	90.6971	98.1445	90.8381	98.1445	90.7214	98.1445	90.8927	98.1445	90.7525	98.1445	90.9471	98.1445	90.7872	98.1445	90.9974	98.1445	90.8225	98.1445	91.04	98.1445	90.8554	98.1445	91.0719	98.1445	90.8835	98.1445	91.0913	98.1445	90.9055	98.1445	91.0976	98.1445	90.9209	98.1445	91.0919	98.1445	90.9303	98.1445	91.0764	98.1445	90.9351	98.1445	91.0542	98.1445	90.9373	98.1445	91.029	98.1445	90.9393	98.1445	91.0039	98.1445	90.9433	98.1445	90.9816	98.1445	90.951	98.1445	90.9637
101.074	91.2221	101.074	91.2559	101.074	91.2012	101.074	91.3013	101.074	91.1934	101.074	91.3558	101.074	91.1978	101.074	91.4159	101.074	91.2125	101.074	91.4774	101.074	91.235	101.074	91.5356	101.074	91.2622	101.074	91.5858	101.074	91.2906	101.074	91.6236	101.074	91.3172	101.074	91.6461	101.074	91.3393	101.074	91.6513	101.074	91.3552	101.074	91.6395	101.074	91.3641	101.074	91.6127	101.074	91.3665	101.074	91.5747	101.074	91.364	101.074	91.5302	101.074	91.3593	101.074	91.4843	101.074	91.3554	101.074	91.4418	101.074	91.3558	101.074	91.4062	101.074	91.3632	101.074	91.3797
105.469	91.546	105.469	91.5751	105.469	91.5337	105.469	91.6194	105.469	91.5381	105.469	91.6755	105.469	91.5576	105.469	91.7389	105.469	91.5892	105.469	91.804	105.469	91.6288	105.469	91.8652	105.469	91.6718	105.469	91.917	105.469	91.7134	105.469	91.9549	105.469	91.7495	105.469	91.9755	105.469	91.7762	105.469	91.9775	105.469	91.7913	105.469	91.9614	105.469	91.7937	105.469	91.9298	105.469	91.7842	105.469	91.8868	105.469	91.7654	105.469	91.8378	105.469	91.7414	105.469	91.7888	105.469	91.7172	105.469	91.7456	105.469	91.6982	105.469	91.7129	105.469	91.6893	105.469	91.6938
108.398	91.8005	108.398	91.8325	108.398	91.7845	108.398	91.8789	108.398	91.7845	108.398	91.9362	108.398	91.7989	108.398	91.9999	108.398	91.8247	108.398	92.0643	108.398	91.8579	108.398	92.1237	108.398	91.894	108.398	92.1722	108.398	91.9282	108.398	92.2051	108.398	91.9563	108.398	92.2188	108.398	91.9747	108.398	92.2116	108.398	91.981	108.398	92.1842	108.398	91.9744	108.398	92.1392	108.398	91.9557	108.398	92.0814	108.398	91.9278	108.398	92.0173	108.398	91.8952	108.398	91.9541	108.398	91.8636	108.398	91.8989	108.398	91.8392	108.398	91.8573	108.398	91.8278	108.398	91.8332
112.793	92.1551	112.793	92.1864	112.793	92.1385	112.793	92.2306	112.793	92.1368	112.793	92.2841	112.793	92.1487	112.793	92.3425	112.793	92.1713	112.793	92.3999	112.793	92.201	112.793	92.4504	112.793	92.2335	112.793	92.4884	112.793	92.2642	112.793	92.5089	112.793	92.2885	112.793	92.5087	112.793	92.3026	112.793	92.4866	112.793	92.3036	112.793	92.4436	112.793	92.2899	112.793	92.3836	112.793	92.2623	112.793	92.3124	112.793	92.2231	112.793	92.2378	112.793	92.1771	112.793	92.1683	112.793	92.1308	112.793	92.1117	112.793	92.0911	112.793	92.0739	112.793	92.0652	112.793	92.0584
117.188	92.2992	117.188	92.3321	117.188	92.2826	117.188	92.3789	117.188	92.283	117.188	92.4355	117.188	92.2993	117.188	92.4966	117.188	92.3286	117.188	92.5561	117.188	92.3666	117.188	92.6075	117.188	92.4083	117.188	92.6449	117.188	92.4476	117.188	92.663	117.188	92.4789	117.188	92.6583	117.188	92.4971	117.188	92.6294	117.188	92.4982	117.188	92.5778	117.188	92.4804	117.188	92.5075	117.188	92.4441	117.188	92.4255	117.188	92.3925	117.188	92.3408	117.188	92.3312	117.188	92.2632	117.188	92.268	117.188	92.2021	117.188	92.2119	117.188	92.1646	117.188	92.1717	117.188	92.1546
120.117	92.4608	120.117	92.4886	120.117	92.4458	120.117	92.5276	120.117	92.4434	120.117	92.5746	120.117	92.4521	120.117	92.625	120.117	92.4686	120.117	92.6731	120.117	92.4889	120.117	92.7126	120.117	92.5079	120.117	92.7371	120.117	92.5204	120.117	92.7411	120.117	92.5215	120.117	92.7205	120.117	92.5071	120.117	92.6736	120.117	92.4748	120.117	92.6014	120.117	92.4239	120.117	92.508	120.117	92.3568	120.117	92.4007	120.117	92.278	120.117	92.2891	120.117	92.1952	120.117	92.1844	120.117	92.1175	120.117	92.0975	120.117	92.0551	120.117	92.0375	120.117	92.017	120.117	92.0101
124.512	92.5169	124.512	92.5437	124.512	92.5003	124.512	92.5794	124.512	92.494	124.512	92.6213	124.512	92.4964	124.512	92.6652	124.512	92.5047	124.512	92.706	124.512	92.5151	124.512	92.7378	124.512	92.523	124.512	92.7547	124.512	92.5235	124.512	92.751	124.512	92.5121	124.512	92.7227	124.512	92.4851	124.512	92.6678	124.512	92.4406	124.512	92.5871	124.512	92.3787	124.512	92.4847	124.512	92.302	124.512	92.368	124.512	92.2158	124.512	92.2472	124.512	92.1276	124.512	92.1338	124.512	92.0469	124.512	92.0394	124.512	91.9833	124.512	91.9734	124.512	91.9461	124.512	91.9418
128.906	92.3591	128.906	92.396	128.906	92.3356	128.906	92.4438	128.906	92.3264	128.906	92.4987	128.906	92.3307	128.906	92.5561	128.906	92.3458	128.906	92.6099	128.906	92.3675	128.906	92.6542	128.906	92.3904	128.906	92.6824	128.906	92.4087	128.906	92.6888	128.906	92.4164	128.906	92.6692	128.906	92.4089	128.906	92.6214	128.906	92.383	128.906	92.5463	128.906	92.338	128.906	92.4483	128.906	92.2758	128.906	92.3354	128.906	92.201	128.906	92.2181	128.906	92.1206	128.906	92.1087	128.906	92.0438	128.906	92.0189	128.906	91.9806	128.906	91.9581	128.906	91.9408	128.906	91.9319
133.301	92.2402	133.301	92.2828	133.301	92.2126	133.301	92.3377	133.301	92.2006	133.301	92.4007	133.301	92.2027	133.301	92.4659	133.301	92.2154	133.301	92.5265	133.301	92.2339	133.301	92.5751	133.301	92.2523	133.301	92.6045	133.301	92.2643	133.301	92.6083	133.301	92.264	133.301	92.5821	133.301	92.2467	133.301	92.5236	133.301	92.2097	133.301	92.434	133.301	92.1523	133.301	92.3184	133.301	92.0769	133.301	92.1852	133.301	91.9888	133.301	92.0464	133.301	91.896	133.301	91.9157	133.301	91.8091	133.301	91.8066	133.301	91.7394	133.301	91.7303	133.301	91.6981	133.301	91.6937
139.16	91.9641	139.16	92.0084	139.16	91.9375	139.16	92.0678	139.16	91.9289	139.16	92.1376	139.16	91.9366	139.16	92.2113	139.16	91.957	139.16	92.2812	139.16	91.985	139.16	92.3389	139.16	92.0143	139.16	92.3764	139.16	92.0385	139.16	92.387	139.16	92.0512	139.16	92.3659	139.16	92.0471	139.16	92.3116	139.16	92.0226	139.16	92.2257	139.16	91.9763	139.16	92.1137	139.16	91.9098	139.16	91.9848	139.16	91.8278	139.16	91.8511	139.16	91.7382	139.16	91.7261	139.16	91.6514	139.16	91.6234	139.16	91.5794	139.16	91.5537	139.16	91.5337	139.16	91.5236
143.555	91.8801	143.555	91.9161	143.555	91.8599	143.555	91.9654	143.555	91.8558	143.555	92.024	143.555	91.8665	143.555	92.0861	143.555	91.8893	143.555	92.1445	143.555	91.9196	143.555	92.1914	143.555	91.9517	143.555	92.2189	143.555	91.9792	143.555	92.2205	143.555	91.9955	143.555	92.1917	143.555	91.9944	143.555	92.1311	143.555	91.9715	143.555	92.0408	143.555	91.9244	143.555	91.9267	143.555	91.8541	143.555	91.7983	143.555	91.7647	143.555	91.6681	143.555	91.6641	143.555	91.55	143.555	91.5633	143.555	91.4572	143.555	91.4752	143.555	91.4005	143.555	91.4125	143.555	91.3856
147.949	91.683	147.949	91.6951	147.949	91.6869	147.949	91.7223	147.949	91.7058	147.949	91.7618	147.949	91.7375	147.949	91.8089	147.949	91.7781	147.949	91.8572	147.949	91.8227	147.949	91.8989	147.949	91.8655	147.949	91.926	147.949	91.8999	147.949	91.931	147.949	91.9194	147.949	91.9084	147.949	91.9183	147.949	91.8556	147.949	91.8921	147.949	91.7738	147.949	91.8389	147.949	91.6686	147.949	91.7596	147.949	91.5494	147.949	91.6588	147.949	91.429	147.949	91.5446	147.949	91.3219	147.949	91.4285	147.949	91.2417	147.949	91.3238	147.949	91.1993	147.949	91.244	147.949	91.2003
153.809	91.4726	153.809	91.5072	153.809	91.4516	153.809	91.5529	153.809	91.4449	153.809	91.6057	153.809	91.4516	153.809	91.6599	153.809	91.4689	153.809	91.7089	153.809	91.4925	153.809	91.745	153.809	91.5168	153.809	91.7605	153.809	91.5352	153.809	91.7486	153.809	91.5412	153.809	91.7044	153.809	91.5284	153.809	91.6261	153.809	91.4922	153.809	91.516	153.809	91.4302	153.809	91.3807	153.809	91.343	153.809	91.2311	153.809	91.2352	153.809	91.0816	153.809	91.1153	153.809	90.9481	153.809	90.9952	153.809	90.8456	153.809	90.8892	153.809	90.7859	153.809	90.8117	153.809	90.7749
159.668	91.2887	159.668	91.3249	159.668	91.2641	159.668	91.3703	159.668	91.2518	159.668	91.4215	159.668	91.2514	159.668	91.4732	159.668	91.2605	159.668	91.5191	159.668	91.2753	159.668	91.5519	159.668	91.2908	159.668	91.564	159.668	91.3007	159.668	91.5486	159.668	91.2987	159.668	91.5009	159.668	91.2791	159.668	91.4189	159.668	91.2374	159.668	91.3048	159.668	91.1719	159.668	91.1652	159.668	91.0835	159.668	91.0113	159.668	90.977	159.668	90.8576	159.668	90.8604	159.668	90.7203	159.668	90.7449	159.668	90.6145	159.668	90.6438	159.668	90.5518	159.668	90.5708	159.668	90.5377
165.527	91.1051	165.527	91.1349	165.527	91.0881	165.527	91.175	165.527	91.0845	165.527	91.2218	165.527	91.0935	165.527	91.2699	165.527	91.1126	165.527	91.3129	165.527	91.1376	165.527	91.3433	165.527	91.1626	165.527	91.3538	165.527	91.1808	165.527	91.3374	165.527	91.185	165.527	91.2895	165.527	91.1687	165.527	91.2079	165.527	91.1271	165.527	91.0948	165.527	91.0583	165.527	90.9568	165.527	90.9636	165.527	90.8047	165.527	90.8482	165.527	90.6535	165.527	90.721	165.527	90.5194	165.527	90.594	165.527	90.4181	165.527	90.4813	165.527	90.3613	165.527	90.3975	165.527	90.3549
171.387	90.8551	171.387	90.8735	171.387	90.8478	171.387	90.901	171.387	90.8519	171.387	90.9349	171.387	90.8664	171.387	90.9706	171.387	90.889	171.387	91.0026	171.387	90.9156	171.387	91.0241	171.387	90.9408	171.387	91.0282	171.387	90.9579	171.387	91.0083	171.387	90.9599	171.387	90.9595	171.387	90.9403	171.387	90.8795	171.387	90.8943	171.387	90.7699	171.387	90.8198	171.387	90.6367	171.387	90.7182	171.387	90.4904	171.387	90.595	171.387	90.3452	171.387	90.4596	171.387	90.2169	171.387	90.3248	171.387	90.121	171.387	90.2051	171.387	90.0692	171.387	90.1153	171.387	90.0676
177.246	90.7015	177.246	90.7262	177.246	90.6838	177.246	90.7559	177.246	90.6745	177.246	90.7876	177.246	90.6737	177.246	90.817	177.246	90.6806	177.246	90.8392	177.246	90.6928	177.246	90.8482	177.246	90.7064	177.246	90.8382	177.246	90.7158	177.246	90.8036	177.246	90.7141	177.246	90.7407	177.246	90.6946	177.246	90.6485	177.246	90.6513	177.246	90.5292	177.246	90.5807	177.246	90.3894	177.246	90.483	177.246	90.2396	177.246	90.3628	177.246	90.0937	177.246	90.2289	177.246	89.9671	177.246	90.0938	177.246	89.8743	177.246	89.9726	177.246	89.8263	177.246	89.88	177.246	89.8287
183.105	90.5147	183.105	90.5559	183.105	90.4808	183.105	90.6018	183.105	90.4558	183.105	90.6491	183.105	90.4407	183.105	90.6932	183.105	90.4352	183.105	90.7287	183.105	90.4373	183.105	90.749	183.105	90.4429	183.105	90.7475	183.105	90.4458	183.105	90.7179	183.105	90.4385	183.105	90.6555	183.105	90.4134	183.105	90.5587	183.105	90.3643	183.105	90.4295	183.105	90.2878	183.105	90.2745	183.105	90.1847	183.105	90.1049	183.105	90.0608	183.105	89.9356	183.105	89.9262	183.105	89.7835	183.105	89.7949	183.105	89.6646	183.105	89.6824	183.105	89.5916	183.105	89.6039	183.105	89.5714
188.965	90.2663	188.965	90.2993	188.965	90.241	188.965	90.3385	188.965	90.2239	188.965	90.381	188.965	90.2147	188.965	90.4224	188.965	90.2118	188.965	90.4571	188.965	90.2127	188.965	90.4786	188.965	90.2134	188.965	90.4798	188.965	90.2084	188.965	90.4546	188.965	90.1913	188.965	90.3983	188.965	90.1561	188.965	90.309	188.965	90.0979	188.965	90.1882	188.965	90.0147	188.965	90.0419	188.965	89.9083	188.965	89.88	188.965	89.7848	188.965	89.7164	188.965	89.6545	188.965	89.5668	188.965	89.5309	188.965	89.4465	188.965	89.4285	188.965	89.3682	188.965	89.3612	188.965	89.3394
196.289	90.171	196.289	90.2028	196.289	90.1404	196.289	90.2353	196.289	90.1109	196.289	90.2669	196.289	90.0822	196.289	90.2945	196.289	90.0538	196.289	90.3133	196.289	90.0244	196.289	90.3166	196.289	89.9921	196.289	90.2971	196.289	89.954	196.289	90.248	196.289	89.9065	196.289	90.1647	196.289	89.8453	196.289	90.0461	196.289	89.7667	196.289	89.8958	196.289	89.6687	196.289	89.722	196.289	89.552	196.289	89.5368	196.289	89.4214	196.289	89.3551	196.289	89.2855	196.289	89.193	196.289	89.157	196.289	89.0654	196.289	89.0501	196.289	88.9839	196.289	88.9791	196.289	88.955
203.613	90.0118	203.613	90.0134	203.613	90.0059	203.613	90.012	203.613	89.9945	203.613	90.0088	203.613	89.9768	203.613	90.0038	203.613	89.9525	203.613	89.9951	203.613	89.9209	203.613	89.9781	203.613	89.8811	203.613	89.9462	203.613	89.8318	203.613	89.8923	203.613	89.7709	203.613	89.8106	203.613	89.6964	203.613	89.6992	203.613	89.6067	203.613	89.5609	203.613	89.5016	203.613	89.4038	203.613	89.383	203.613	89.2406	203.613	89.2555	203.613	89.0862	203.613	89.1265	203.613	88.9549	203.613	89.0056	203.613	88.8586	203.613	88.9036	203.613	88.8048	203.613	88.8309	203.613	88.7961
210.938	89.8973	210.938	89.878	210.938	89.9169	210.938	89.8604	210.938	89.9342	210.938	89.8445	210.938	89.9466	210.938	89.8285	210.938	89.9516	210.938	89.8086	210.938	89.9472	210.938	89.779	210.938	89.9312	210.938	89.7328	210.938	89.901	210.938	89.6631	210.938	89.8526	210.938	89.5649	210.938	89.7812	210.938	89.4367	210.938	89.6824	210.938	89.2822	210.938	89.5535	210.938	89.1099	210.938	89.3963	210.938	88.9328	210.938	89.2174	210.938	88.7663	210.938	89.0285	210.938	88.6268	210.938	88.8455	210.938	88.5286	210.938	88.6855	210.938	88.4826	210.938	88.5644	210.938	88.4946
218.262	89.5395	218.262	89.5478	218.262	89.5339	218.262	89.5584	218.262	89.5311	218.262	89.5704	218.262	89.5305	218.262	89.5823	218.262	89.5298	218.262	89.5916	218.262	89.5253	218.262	89.5935	218.262	89.5117	218.262	89.5812	218.262	89.4829	218.262	89.5467	218.262	89.4329	218.262	89.4825	218.262	89.3569	218.262	89.384	218.262	89.2534	218.262	89.252	218.262	89.1246	218.262	89.0933	218.262	88.9773	218.262	88.9203	218.262	88.8219	218.262	88.7491	218.262	88.6715	218.262	88.5958	218.262	88.5396	218.262	88.4745	218.262	88.4384	218.262	88.3947	218.262	88.3772	218.262	88.3618
225.586	89.5005	225.586	89.5331	225.586	89.4612	225.586	89.5585	225.586	89.4165	225.586	89.5767	225.586	89.3681	225.586	89.5868	225.586	89.3189	225.586	89.5869	225.586	89.2711	225.586	89.5734	225.586	89.2259	225.586	89.5411	225.586	89.1817	225.586	89.4841	225.586	89.1342	225.586	89.3979	225.586	89.0772	225.586	89.2808	225.586	89.0043	225.586	89.1354	225.586	88.9111	225.586	88.9694	225.586	88.7977	225.586	88.7942	225.586	88.6693	225.586	88.6233	225.586	88.5364	225.586	88.4707	225.586	88.4128	225.586	88.3491	225.586	88.3134	225.586	88.2685	225.586	88.2513	225.586	88.2352
232.91	89.4396	232.91	89.462	232.91	89.4057	232.91	89.473	232.91	89.361	232.91	89.4726	232.91	89.3067	232.91	89.4603	232.91	89.2439	232.91	89.434	232.91	89.1739	232.91	89.3896	232.91	89.0971	232.91	89.3214	232.91	89.0131	232.91	89.2238	232.91	88.9209	232.91	89.0934	232.91	88.8188	232.91	88.9313	232.91	88.706	232.91	88.7448	232.91	88.5833	232.91	88.5469	232.91	88.4538	232.91	88.3545	232.91	88.3232	232.91	88.1845	232.91	88.1989	232.91	88.0499	232.91	88.0884	232.91	87.9582	232.91	87.9987	232.91	87.9106	232.91	87.9356	232.91	87.9046
241.699	89.2358	241.699	89.223	241.699	89.2347	241.699	89.1972	241.699	89.2206	241.699	89.161	241.699	89.1951	241.699	89.1175	241.699	89.159	241.699	89.0687	241.699	89.1117	241.699	89.0135	241.699	89.051	241.699	88.9469	241.699	88.9741	241.699	88.8609	241.699	88.8784	241.699	88.7471	241.699	88.7621	241.699	88.6004	241.699	88.6259	241.699	88.4219	241.699	88.4727	241.699	88.2215	241.699	88.3084	241.699	88.0165	241.699	88.141	241.699	87.8287	241.699	87.9795	241.699	87.6788	241.699	87.8323	241.699	87.581	241.699	87.7072	241.699	87.54	241.699	87.6114	241.699	87.5528
250.488	89.0778	250.488	89.0689	250.488	89.069	250.488	89.0439	250.488	89.0422	250.488	89.005	250.488	88.9988	250.488	88.9533	250.488	88.9418	250.488	88.8886	250.488	88.8742	250.488	88.8092	250.488	88.7974	250.488	88.7132	250.488	88.7103	250.488	88.5979	250.488	88.6091	250.488	88.4611	250.488	88.4894	250.488	88.3013	250.488	88.3481	250.488	88.1201	250.488	88.1858	250.488	87.9239	250.488	88.0087	250.488	87.7255	250.488	87.828	250.488	87.543	250.488	87.6567	250.488	87.3949	250.488	87.5068	250.488	87.2949	250.488	87.3862	250.488	87.2482	250.488	87.2998	250.488	87.2519
259.277	89.0966	259.277	89.059	259.277	89.1098	259.277	89.0024	259.277	89.096	259.277	88.9332	259.277	89.0554	259.277	88.8571	259.277	88.9898	259.277	88.7758	259.277	88.9019	259.277	88.687	259.277	88.7945	259.277	88.5849	259.277	88.6706	259.277	88.4638	259.277	88.5332	259.277	88.3213	259.277	88.385	259.277	88.1601	259.277	88.2283	259.277	87.9882	259.277	88.0647	259.277	87.816	259.277	87.8966	259.277	87.6538	259.277	87.7286	259.277	87.5098	259.277	87.5691	259.277	87.3901	259.277	87.4294	259.277	87.2998	259.277	87.3209	259.277	87.2437	259.277	87.2521	259.277	87.2267
268.066	88.9617	268.066	88.8874	268.066	88.995	268.066	88.7845	268.066	88.9809	268.066	88.6687	268.066	88.9213	268.066	88.5535	268.066	88.824	268.066	88.4473	268.066	88.6986	268.066	88.3524	268.066	88.5527	268.066	88.2665	268.066	88.3899	268.066	88.1843	268.066	88.2111	268.066	88.1	268.066	88.0174	268.066	88.0083	268.066	87.8123	268.066	87.9043	268.066	87.6023	268.066	87.7844	268.066	87.3964	268.066	87.6473	268.066	87.2058	268.066	87.4944	268.066	87.0433	268.066	87.3317	268.066	86.9231	268.066	87.1702	268.066	86.858	268.066	87.0252	268.066	86.8557	268.066	86.9149
276.855	88.8353	276.855	88.7965	276.855	88.8645	276.855	88.7505	276.855	88.8779	276.855	88.6956	276.855	88.8678	276.855	88.6257	276.855	88.8283	276.855	88.5322	276.855	88.7567	276.855	88.4048	276.855	88.654	276.855	88.2353	276.855	88.5234	276.855	88.0223	276.855	88.369	276.855	87.777	276.855	88.1963	276.855	87.5244	276.855	88.0119	276.855	87.299	276.855	87.825	276.855	87.1315	276.855	87.6455	276.855	87.0357	276.855	87.483	276.855	87.0027	276.855	87.3448	276.855	87.0088	276.855	87.2358	276.855	87.03	276.855	87.1574	276.855	87.0524	276.855	87.1065	276.855	87.0752
287.109	88.6866	287.109	88.6938	287.109	88.6692	287.109	88.6869	287.109	88.6431	287.109	88.6632	287.109	88.6056	287.109	88.6245	287.109	88.5507	287.109	88.5753	287.109	88.4707	287.109	88.5177	287.109	88.3572	287.109	88.4455	287.109	88.2022	287.109	88.3447	287.109	88.0016	287.109	88.1995	287.109	87.7602	287.109	88.0032	287.109	87.4965	287.109	87.7668	287.109	87.2422	287.109	87.5201	287.109	87.0337	287.109	87.3019	287.109	86.8971	287.109	87.1425	287.109	86.8373	287.109	87.0489	287.109	86.8385	287.109	87.0038	287.109	86.8737	287.109	86.9799	287.109	86.9177	287.109	86.9544
297.363	88.7901	297.363	88.808	297.363	88.7308	297.363	88.7763	297.363	88.6429	297.363	88.696	297.363	88.5377	297.363	88.5772	297.363	88.4211	297.363	88.4347	297.363	88.2952	297.363	88.2832	297.363	88.1625	297.363	88.1328	297.363	88.0275	297.363	87.9852	297.363	87.8921	297.363	87.8329	297.363	87.7507	297.363	87.6611	297.363	87.5905	297.363	87.4547	297.363	87.4012	297.363	87.2083	297.363	87.1858	297.363	86.935	297.363	86.9643	297.363	86.6679	297.363	86.7645	297.363	86.4505	297.363	86.604	297.363	86.3173	297.363	86.4805	297.363	86.2763	297.363	86.3824	297.363	86.308
307.617	88.7719	307.617	88.7347	307.617	88.7719	307.617	88.6623	307.617	88.7339	307.617	88.5574	307.617	88.6599	307.617	88.4225	307.617	88.5536	307.617	88.2608	307.617	88.4183	307.617	88.0765	307.617	88.2564	307.617	87.8749	307.617	88.0715	307.617	87.6632	307.617	87.8715	307.617	87.45	307.617	87.6689	307.617	87.2457	307.617	87.4757	307.617	87.0602	307.617	87.297	307.617	86.9001	307.617	87.1279	307.617	86.7667	307.617	86.9593	307.617	86.6556	307.617	86.7891	307.617	86.5611	307.617	86.6287	307.617	86.4812	307.617	86.499	307.617	86.4217	307.617	86.4192	307.617	86.396
319.336	88.6853	319.336	88.5577	319.336	88.7508	319.336	88.3875	319.336	88.7452	319.336	88.1984	319.336	88.6712	319.336	88.0086	319.336	88.539	319.336	87.8238	319.336	88.3606	319.336	87.6382	319.336	88.1452	319.336	87.4421	319.336	87.8983	319.336	87.2317	319.336	87.6246	319.336	87.0153	319.336	87.3331	319.336	86.811	319.336	87.0412	319.336	86.6396	319.336	86.7756	319.336	86.5154	319.336	86.566	319.336	86.4427	319.336	86.4338	319.336	86.416	319.336	86.3812	319.336	86.4233	319.336	86.3895	319.336	86.4483	319.336	86.4275	319.336	86.473	319.336	86.4646	319.336	86.4813
329.59	88.2615	329.59	88.2213	329.59	88.2822	329.59	88.1669	329.59	88.2801	329.59	88.1028	329.59	88.2532	329.59	88.0282	329.59	88.1985	329.59	87.9319	329.59	88.1106	329.59	87.7931	329.59	87.9817	329.59	87.5909	329.59	87.804	329.59	87.3156	329.59	87.5728	329.59	86.9797	329.59	87.29	329.59	86.6188	329.59	86.9658	329.59	86.2841	329.59	86.6191	329.59	86.0245	329.59	86.2775	329.59	85.8644	329.59	85.9743	329.59	85.7928	329.59	85.7428	329.59	85.7715	329.59	85.6051	329.59	85.7567	329.59	85.5627	329.59	85.7199	329.59	85.593	329.59	85.6579
341.309	88.5344	341.309	88.5389	341.309	88.4664	341.309	88.4776	341.309	88.3376	341.309	88.3528	341.309	88.1519	341.309	88.1759	341.309	87.9195	341.309	87.9656	341.309	87.6605	341.309	87.7385	341.309	87.4016	341.309	87.4998	341.309	87.1662	341.309	87.2423	341.309	86.9654	341.309	86.9555	341.309	86.7966	341.309	86.6395	341.309	86.6516	341.309	86.3134	341.309	86.527	341.309	86.0158	341.309	86.4283	341.309	85.7938	341.309	86.3637	341.309	85.6846	341.309	86.3328	341.309	85.6974	341.309	86.3197	341.309	85.8072	341.309	86.2962	341.309	85.9655	341.309	86.2341	341.309	86.1201
353.027	88.3727	353.027	88.2926	353.027	88.3881	353.027	88.1523	353.027	88.3403	353.027	87.9655	353.027	88.2345	353.027	87.7559	353.027	88.0787	353.027	87.5507	353.027	87.8842	353.027	87.3689	353.027	87.6625	353.027	87.2104	353.027	87.4201	353.027	87.0556	353.027	87.1551	353.027	86.8771	353.027	86.859	353.027	86.6584	353.027	86.525	353.027	86.4066	353.027	86.1585	353.027	86.1516	353.027	85.7853	353.027	85.9294	353.027	85.4504	353.027	85.7605	353.027	85.2054	353.027	85.6388	353.027	85.0856	353.027	85.5388	353.027	85.0903	353.027	85.4333	353.027	85.1823	353.027	85.3099
366.211	88.3451	366.211	88.2144	366.211	88.4275	366.211	88.0283	366.211	88.466	366.211	87.7869	366.211	88.4555	366.211	87.503	366.211	88.3809	366.211	87.2015	366.211	88.2265	366.211	86.913	366.211	87.9886	366.211	86.6612	366.211	87.6841	366.211	86.4518	366.211	87.3469	366.211	86.271	366.211	87.0149	366.211	86.0975	366.211	86.7143	366.211	85.9183	366.211	86.4525	366.211	85.7355	366.211	86.2225	366.211	85.5613	366.211	86.0117	366.211	85.4084	366.211	85.8091	366.211	85.2849	366.211	85.6114	366.211	85.1985	366.211	85.4279	366.211	85.1612	366.211	85.2789	366.211	85.1864
379.395	88.6512	379.395	88.6106	379.395	88.6289	379.395	88.5066	379.395	88.5529	379.395	88.342	379.395	88.4396	379.395	88.1154	379.395	88.3023	379.395	87.8199	379.395	88.1411	379.395	87.4493	379.395	87.9406	379.395	87.0107	379.395	87.6796	379.395	86.5341	379.395	87.3463	379.395	86.0703	379.395	86.9519	379.395	85.675	379.395	86.5372	379.395	85.3899	379.395	86.166	379.395	85.2335	379.395	85.9023	379.395	85.2047	379.395	85.7782	379.395	85.2866	379.395	85.7764	379.395	85.4454	379.395	85.8433	379.395	85.6335	379.395	85.9171	379.395	85.8016	379.395	85.9493	379.395	85.9125
392.578	88.4097	392.578	88.323	392.578	88.4434	392.578	88.2029	392.578	88.4062	392.578	88.066	392.578	88.2889	392.578	87.9217	392.578	88.0959	392.578	87.7682	392.578	87.8452	392.578	87.5906	392.578	87.5613	392.578	87.3652	392.578	87.2653	392.578	87.0703	392.578	86.9662	392.578	86.6993	392.578	86.662	392.578	86.2702	392.578	86.3478	392.578	85.828	392.578	86.0279	392.578	85.4353	392.578	85.7246	392.578	85.1503	392.578	85.4739	392.578	85.0024	392.578	85.3072	392.578	84.9795	392.578	85.2289	392.578	85.0368	392.578	85.2106	392.578	85.1185	392.578	85.2074	392.578	85.1811
405.762	88.1058	405.762	88.0063	405.762	88.1567	405.762	87.8582	405.762	88.1519	405.762	87.6638	405.762	88.0781	405.762	87.4371	405.762	87.9261	405.762	87.2024	405.762	87.7018	405.762	86.9814	405.762	87.4268	405.762	86.7785	405.762	87.1276	405.762	86.5792	405.762	86.8181	405.762	86.3646	405.762	86.4921	405.762	86.1276	405.762	86.1321	405.762	85.879	405.762	85.7329	405.762	85.641	405.762	85.3225	405.762	85.436	405.762	84.9635	405.762	85.2772	405.762	84.7246	405.762	85.1644	405.762	84.6376	405.762	85.0819	405.762	84.6784	405.762	85.0034	405.762	84.7872	405.762	84.9058
420.41	88.3113	420.41	88.2654	420.41	88.2516	420.41	88.0999	420.41	88.1105	420.41	87.8198	420.41	87.9105	420.41	87.4514	420.41	87.6676	420.41	87.0363	420.41	87.3943	420.41	86.6195	420.41	87.1048	420.41	86.2369	420.41	86.8149	420.41	85.9064	420.41	86.5353	420.41	85.6281	420.41	86.2663	420.41	85.3944	420.41	86.0005	420.41	85.2031	420.41	85.7359	420.41	85.0636	420.41	85.4891	420.41	84.9923	420.41	85.296	420.41	84.9996	420.41	85.1933	420.41	85.0771	420.41	85.1903	420.41	85.192	420.41	85.2542	420.41	85.2961	420.41	85.3245	420.41	85.3459
435.059	88.3817	435.059	88.3237	435.059	88.3427	435.059	88.1562	435.059	88.2292	435.059	87.8808	435.059	88.0637	435.059	87.5114	435.059	87.8544	435.059	87.0709	435.059	87.5887	435.059	86.5889	435.059	87.2401	435.059	86.1012	435.059	86.7898	435.059	85.6477	435.059	86.252	435.059	85.2687	435.059	85.6907	435.059	84.9969	435.059	85.2113	435.059	84.8516	435.059	84.9177	435.059	84.8341	435.059	84.8531	435.059	84.9263	435.059	84.9777	435.059	85.0953	435.059	85.2029	435.059	85.3	435.059	85.4397	435.059	85.4988	435.059	85.626	435.059	85.6542	435.059	85.7288	435.059	85.7368
451.172	88.9201	451.172	88.7617	451.172	88.9685	451.172	88.507	451.172	88.9021	451.172	88.1829	451.172	88.7187	451.172	87.8193	451.172	88.4196	451.172	87.429	451.172	88.0176	451.172	86.9947	451.172	87.5418	451.172	86.4786	451.172	87.0295	451.172	85.8592	451.172	86.5089	451.172	85.1742	451.172	85.9906	451.172	84.539	451.172	85.4811	451.172	84.0998	451.172	85.0106	451.172	83.9331	451.172	84.6386	451.172	83.9945	451.172	84.4175	451.172	84.1747	451.172	84.348	451.172	84.3747	451.172	84.3834	451.172	84.5306	451.172	84.4676	451.172	84.6114	451.172	84.5562	451.172	84.614
465.82	88.7054	465.82	88.68	465.82	88.6447	465.82	88.5615	465.82	88.5142	465.82	88.3528	465.82	88.3325	465.82	88.0594	465.82	88.108	465.82	87.683	465.82	87.8333	465.82	87.2168	465.82	87.4895	465.82	86.6465	465.82	87.0565	465.82	85.9665	465.82	86.5257	465.82	85.2125	465.82	85.9094	465.82	84.495	465.82	85.253	465.82	83.9898	465.82	84.644	465.82	83.834	465.82	84.2018	465.82	84.0038	465.82	84.0258	465.82	84.3402	465.82	84.1244	465.82	84.6836	465.82	84.4011	465.82	84.9436	465.82	84.7182	465.82	85.085	465.82	84.9677	465.82	85.0946
483.398	88.4393	483.398	88.351	483.398	88.4465	483.398	88.1875	483.398	88.3801	483.398	87.9688	483.398	88.2544	483.398	87.7196	483.398	88.0818	483.398	87.4538	483.398	87.8667	483.398	87.1614	483.398	87.602	483.398	86.8068	483.398	87.2678	483.398	86.3406	483.398	86.8342	483.398	85.7201	483.398	86.269	483.398	84.942	483.398	85.558	483.398	84.0903	483.398	84.74	483.398	83.3785	483.398	83.9491	483.398	83.0779	483.398	83.4103	483.398	83.2724	483.398	83.3013	483.398	83.7525	483.398	83.5777	483.398	84.234	483.398	84.017	483.398	84.5375	483.398	84.3999	483.398	84.5928
499.512	88.3914	499.512	88.204	499.512	88.4816	499.512	87.9264	499.512	88.4667	499.512	87.5648	499.512	88.3455	499.512	87.1363	499.512	88.1268	499.512	86.6806	499.512	87.826	499.512	86.251	499.512	87.4595	499.512	85.8813	499.512	87.0422	499.512	85.5573	499.512	86.5884	499.512	85.2284	499.512	86.1104	499.512	84.8537	499.512	85.6201	499.512	84.4414	499.512	85.138	499.512	84.054	499.512	84.7061	499.512	83.78	499.512	84.3845	499.512	83.6889	499.512	84.2215	499.512	83.7867	499.512	84.2131	499.512	84.0021	499.512	84.2936	499.512	84.2222	499.512	84.3677	499.512	84.3549
517.09	88.3446	517.09	88.2423	517.09	88.3316	517.09	88.0149	517.09	88.217	517.09	87.6643	517.09	88.015	517.09	87.2056	517.09	87.7449	517.09	86.658	517.09	87.4365	517.09	86.0374	517.09	87.1214	517.09	85.3623	517.09	86.8141	517.09	84.6731	517.09	86.503	517.09	84.0416	517.09	86.1659	517.09	83.5471	517.09	85.7935	517.09	83.2318	517.09	85.3973	517.09	83.0874	517.09	84.9977	517.09	83.0859	517.09	84.6137	517.09	83.204	517.09	84.2746	517.09	83.4114	517.09	84.0302	517.09	83.6476	517.09	83.9195	517.09	83.8327	517.09	83.9132	517.09	83.9145
536.133	89.9677	536.133	89.8519	536.133	89.8915	536.133	89.5622	536.133	89.6313	536.133	89.1391	536.133	89.2095	536.133	88.6261	536.133	88.6484	536.133	88.0412	536.133	87.9645	536.133	87.3629	536.133	87.176	536.133	86.5478	536.133	86.3198	536.133	85.5771	536.133	85.4624	536.133	84.5153	536.133	84.6912	536.133	83.553	536.133	84.0975	536.133	82.9601	536.133	83.7701	536.133	82.8901	536.133	83.7757	536.133	83.2348	536.133	84.0933	536.133	83.7579	536.133	84.5822	536.133	84.2842	536.133	85.053	536.133	84.7401	536.133	85.3649	536.133	85.1054	536.133	85.4622	536.133	85.36
555.176	89.661	555.176	89.6927	555.176	89.5939	555.176	89.6096	555.176	89.5364	555.176	89.3516	555.176	89.4669	555.176	88.9089	555.176	89.3153	555.176	88.3132	555.176	89.013	555.176	87.5944	555.176	88.5315	555.176	86.7366	555.176	87.8816	555.176	85.6893	555.176	87.0843	555.176	84.4524	555.176	86.1493	555.176	83.2227	555.176	85.1084	555.176	82.4619	555.176	84.109	555.176	82.5101	555.176	83.4527	555.176	83.1246	555.176	83.378	555.176	83.8744	555.176	83.7858	555.176	84.5478	555.176	84.3846	555.176	85.0795	555.176	84.9469	555.176	85.4186	555.176	85.3464	555.176	85.5134
574.219	89.6646	574.219	89.4796	574.219	89.7397	574.219	89.2436	574.219	89.6614	574.219	89.0001	574.219	89.4243	574.219	88.7507	574.219	89.065	574.219	88.4494	574.219	88.6361	574.219	88.0187	574.219	88.1566	574.219	87.3808	574.219	87.5814	574.219	86.4832	574.219	86.8366	574.219	85.2993	574.219	85.9062	574.219	83.8465	574.219	84.9082	574.219	82.3363	574.219	84.0758	574.219	81.4381	574.219	83.605	574.219	81.7896	574.219	83.5477	574.219	82.9125	574.219	83.8621	574.219	84.0306	574.219	84.432	574.219	84.8623	574.219	85.0463	574.219	85.3861	574.219	85.4796	574.219	85.5998
594.727	89.0555	594.727	89.0923	594.727	88.9944	594.727	89.0551	594.727	88.9409	594.727	88.9132	594.727	88.8739	594.727	88.6558	594.727	88.7269	594.727	88.2658	594.727	88.4355	594.727	87.7015	594.727	87.9757	594.727	86.9136	594.727	87.3521	594.727	85.8867	594.727	86.5452	594.727	84.6693	594.727	85.4875	594.727	83.3832	594.727	84.1362	594.727	82.2384	594.727	82.6546	594.727	81.5753	594.727	81.6083	594.727	81.7148	594.727	81.6111	594.727	82.5181	594.727	82.4307	594.727	83.4713	594.727	83.3804	594.727	84.199	594.727	84.0976	594.727	84.5913	594.727	84.5204	594.727	84.6825
615.234	89.0759	615.234	88.9809	615.234	89.0712	615.234	88.8342	615.234	88.9545	615.234	88.6856	615.234	88.7585	615.234	88.5554	615.234	88.5289	615.234	88.4183	615.234	88.2722	615.234	88.2008	615.234	87.9309	615.234	87.7923	615.234	87.4045	615.234	87.0682	615.234	86.597	615.234	85.9192	615.234	85.4575	615.234	84.2812	615.234	84.0047	615.234	82.2407	615.234	82.3719	615.234	80.4025	615.234	80.9579	615.234	80.0046	615.234	80.456	615.234	81.1049	615.234	81.0753	615.234	82.5113	615.234	82.1816	615.234	83.5887	615.234	83.2099	615.234	84.1848	615.234	83.9416	615.234	84.2886
637.207	88.6261	637.207	88.5395	637.207	88.684	637.207	88.4502	637.207	88.6704	637.207	88.3605	637.207	88.5533	637.207	88.2563	637.207	88.3368	637.207	88.1081	637.207	88.0537	637.207	87.8664	637.207	87.7272	637.207	87.4713	637.207	87.3368	637.207	86.8714	637.207	86.8176	637.207	86.0229	637.207	86.0876	637.207	84.8704	637.207	85.0936	637.207	83.3729	637.207	83.8751	637.207	81.7025	637.207	82.6392	637.207	80.6049	637.207	81.7907	637.207	80.8887	637.207	81.7194	637.207	82.0418	637.207	82.3652	637.207	83.1673	637.207	83.2494	637.207	83.9038	637.207	83.924	637.207	84.1623
659.18	88.6124	659.18	88.4059	659.18	88.7268	659.18	88.1729	659.18	88.7271	659.18	87.9726	659.18	88.6424	659.18	87.8069	659.18	88.5159	659.18	87.6304	659.18	88.3561	659.18	87.4014	659.18	88.1259	659.18	87.084	659.18	87.7681	659.18	86.5978	659.18	87.215	659.18	85.8074	659.18	86.3704	659.18	84.6061	659.18	85.1017	659.18	83.0925	659.18	83.3022	659.18	81.8182	659.18	81.1934	659.18	81.6014	659.18	80.0256	659.18	82.4066	659.18	80.8929	659.18	83.4419	659.18	82.4598	659.18	84.2093	659.18	83.6429	659.18	84.5904	659.18	84.323	659.18	84.6183
682.617	89.1358	682.617	89.0289	682.617	89.1956	682.617	88.8876	682.617	89.1631	682.617	88.7023	682.617	89.02	682.617	88.4857	682.617	88.8245	682.617	88.2618	682.617	88.6675	682.617	87.9938	682.617	88.5529	682.617	87.5587	682.617	88.3531	682.617	86.8206	682.617	87.904	682.617	85.7166	682.617	87.1049	682.617	84.2551	682.617	85.9377	682.617	82.5088	682.617	84.4448	682.617	80.9711	682.617	82.7343	682.617	80.9687	682.617	81.1631	682.617	82.5698	682.617	80.6719	682.617	84.2714	682.617	81.7672	682.617	85.3847	682.617	83.4354	682.617	85.8246	682.617	84.8045	682.617	85.6199
707.52	89.3883	707.52	89.1667	707.52	89.403	707.52	88.7587	707.52	89.3056	707.52	88.3276	707.52	89.1946	707.52	88.0506	707.52	89.0906	707.52	87.9355	707.52	88.9559	707.52	87.8332	707.52	88.7678	707.52	87.6043	707.52	88.5194	707.52	87.184	707.52	88.1521	707.52	86.4986	707.52	87.5303	707.52	85.3889	707.52	86.487	707.52	83.685	707.52	84.9138	707.52	81.4959	707.52	82.8933	707.52	79.7527	707.52	80.945	707.52	79.8314	707.52	80.1949	707.52	81.3198	707.52	81.1483	707.52	82.9688	707.52	82.7498	707.52	84.1247	707.52	84.0045	707.52	84.4987
732.422	89.1887	732.422	89.0928	732.422	89.2232	732.422	88.882	732.422	89.1893	732.422	88.5181	732.422	89.0308	732.422	88.0538	732.422	88.7293	732.422	87.6222	732.422	88.3637	732.422	87.318	732.422	88.0636	732.422	87.0756	732.422	87.887	732.422	86.7004	732.422	87.7404	732.422	86.0012	732.422	87.4078	732.422	84.8502	732.422	86.6428	732.422	83.1799	732.422	85.2643	732.422	81.1493	732.422	83.2714	732.422	79.8123	732.422	81.1583	732.422	80.5319	732.422	80.2738	732.422	82.1834	732.422	81.1515	732.422	83.421	732.422	82.5054	732.422	83.9996	732.422	83.5079	732.422	84.0075
757.324	89.815	757.324	89.5475	757.324	89.7862	757.324	89.033	757.324	89.5537	757.324	88.452	757.324	89.2599	757.324	88.0105	757.324	88.9864	757.324	87.8022	757.324	88.7482	757.324	87.7325	757.324	88.5556	757.324	87.5719	757.324	88.4092	757.324	87.106	757.324	88.2266	757.324	86.2233	757.324	87.8341	757.324	84.8512	757.324	87.0417	757.324	82.8564	757.324	85.6868	757.324	80.2178	757.324	83.6221	757.324	78.37	757.324	80.8329	757.324	79.9267	757.324	78.4006	757.324	82.5435	757.324	78.993	757.324	84.2651	757.324	81.3277	757.324	84.8842	757.324	83.2949	757.324	84.514
785.156	89.9804	785.156	89.7363	785.156	90.1526	785.156	89.4168	785.156	90.1593	785.156	88.9374	785.156	89.9296	785.156	88.2729	785.156	89.5073	785.156	87.5551	785.156	89.0216	785.156	87.0093	785.156	88.5905	785.156	86.7525	785.156	88.2481	785.156	86.6591	785.156	87.9273	785.156	86.4452	785.156	87.4879	785.156	85.7995	785.156	86.7847	785.156	84.416	785.156	85.7452	785.156	82.0324	785.156	84.4097	785.156	78.8701	785.156	82.932	785.156	77.4102	785.156	81.6175	785.156	79.1587	785.156	80.9819	785.156	81.0181	785.156	81.2536	785.156	81.9844	785.156	81.8622	785.156	82.1956
811.523	90.485	811.523	90.2914	811.523	90.5089	811.523	89.9904	811.523	90.3559	811.523	89.6515	811.523	90.0608	811.523	89.2766	811.523	89.7101	811.523	88.8406	811.523	89.4275	811.523	88.3937	811.523	89.2729	811.523	88.0186	811.523	89.1556	811.523	87.648	811.523	88.9015	811.523	87.0462	811.523	88.3788	811.523	85.9523	811.523	87.527	811.523	84.2268	811.523	86.3023	811.523	82.0989	811.523	84.6535	811.523	80.5327	811.523	82.7007	811.523	80.6167	811.523	81.2245	811.523	81.9231	811.523	81.3527	811.523	83.3897	811.523	82.6344	811.523	84.3584	811.523	83.8893	811.523	84.5328
840.82	90.7334	840.82	90.5762	840.82	90.632	840.82	90.1155	840.82	90.3703	840.82	89.404	840.82	90.0634	840.82	88.6399	840.82	89.7972	840.82	88.08	840.82	89.5629	840.82	87.7911	840.82	89.2856	840.82	87.5988	840.82	88.9733	840.82	87.3113	840.82	88.7239	840.82	86.8396	840.82	88.5252	840.82	86.0829	840.82	88.1423	840.82	84.7853	840.82	87.2359	840.82	82.6189	840.82	85.5434	840.82	79.9391	840.82	83.1636	840.82	79.5374	840.82	81.3624	840.82	81.5868	840.82	81.8347	840.82	83.2548	840.82	83.2477	840.82	84.1189	840.82	84.165	840.82	84.4106
870.117	91.1205	870.117	90.8989	870.117	91.0769	870.117	90.4209	870.117	90.799	870.117	89.7656	870.117	90.3072	870.117	89.0446	870.117	89.6634	870.117	88.3971	870.117	89.0737	870.117	88.0257	870.117	88.7919	870.117	88.0135	870.117	88.7861	870.117	88.049	870.117	88.7112	870.117	87.6532	870.117	88.2402	870.117	86.4979	870.117	87.2656	870.117	84.4293	870.117	85.9001	870.117	81.5971	870.117	84.3873	870.117	79.4795	870.117	83.1034	870.117	80.588	870.117	82.7164	870.117	83.1108	870.117	83.5289	870.117	85.0438	870.117	84.7743	870.117	86.0501	870.117	85.7541	870.117	86.2284
900.879	91.7205	900.879	91.5828	900.879	91.585	900.879	91.166	900.879	91.2001	900.879	90.4883	900.879	90.6375	900.879	89.6285	900.879	90.0173	900.879	88.7404	900.879	89.454	900.879	88.0027	900.879	89.0387	900.879	87.5231	900.879	88.8488	900.879	87.293	900.879	88.8119	900.879	87.1673	900.879	88.6386	900.879	86.8004	900.879	88.023	900.879	85.6693	900.879	86.6931	900.879	83.1854	900.879	84.3528	900.879	78.9184	900.879	81.0545	900.879	76.8571	900.879	79.0104	900.879	80.7196	900.879	80.6838	900.879	83.5032	900.879	83.059	900.879	84.8464	900.879	84.6118	900.879	85.1906
933.105	92.1496	933.105	91.983	933.105	92.0579	933.105	91.5214	933.105	91.7507	933.105	90.7887	933.105	91.1868	933.105	89.8338	933.105	90.3255	933.105	88.7886	933.105	89.3756	933.105	88.0584	933.105	88.8021	933.105	88.019	933.105	88.7366	933.105	88.2948	933.105	88.7638	933.105	88.2235	933.105	88.5349	933.105	87.4097	933.105	87.97	933.105	85.5818	933.105	86.9703	933.105	82.4553	933.105	85.1912	933.105	78.1038	933.105	82.183	933.105	77.3018	933.105	78.9974	933.105	81.3133	933.105	80.486	933.105	84.2477	933.105	83.5045	933.105	85.7135	933.105	85.3213	933.105	86.0225
965.332	92.7234	965.332	92.6367	965.332	92.66	965.332	92.3247	965.332	92.3365	965.332	91.6458	965.332	91.6489	965.332	90.6394	965.332	90.6926	965.332	89.5406	965.332	89.7214	965.332	88.57	965.332	88.9355	965.332	87.8878	965.332	88.4684	965.332	87.7161	965.332	88.4958	965.332	88.0313	965.332	88.8854	965.332	88.3105	965.332	89.0672	965.332	87.8061	965.332	88.4601	965.332	85.7452	965.332	86.6132	965.332	81.2	965.332	83.0987	965.332	74.0797	965.332	78.1637	965.332	77.6198	965.332	78.5159	965.332	81.8185	965.332	82.3275	965.332	83.971	965.332	84.3998	965.332	84.8394
1,000.49	93.5586	1,000.49	93.3132	1,000.49	93.495	1,000.49	92.8357	1,000.49	93.1585	1,000.49	92.2167	1,000.49	92.5848	1,000.49	91.3612	1,000.49	91.7081	1,000.49	90.0514	1,000.49	90.4882	1,000.49	88.4333	1,000.49	89.1545	1,000.49	87.6413	1,000.49	88.2756	1,000.49	88.296	1,000.49	88.2429	1,000.49	89.0037	1,000.49	88.5689	1,000.49	88.8967	1,000.49	88.5219	1,000.49	88.0552	1,000.49	87.7826	1,000.49	86.7665	1,000.49	86.3084	1,000.49	84.8181	1,000.49	84.1146	1,000.49	81.7656	1,000.49	81.4755	1,000.49	80.6172	1,000.49	80.5812	1,000.49	83.3993	1,000.49	82.6765	1,000.49	85.2711	1,000.49	84.6845	1,000.49	85.5922
1,035.64	93.6635	1,035.64	93.6911	1,035.64	93.5363	1,035.64	93.4632	1,035.64	93.2881	1,035.64	92.7737	1,035.64	92.8352	1,035.64	91.6955	1,035.64	92.1091	1,035.64	90.6499	1,035.64	91.0521	1,035.64	89.8253	1,035.64	89.758	1,035.64	88.8124	1,035.64	88.6236	1,035.64	87.4862	1,035.64	88.0768	1,035.64	86.8105	1,035.64	87.9325	1,035.64	87.141	1,035.64	87.8544	1,035.64	87.0912	1,035.64	87.7078	1,035.64	85.4539	1,035.64	86.941	1,035.64	82.2722	1,035.64	84.6443	1,035.64	80.7765	1,035.64	80.346	1,035.64	81.9646	1,035.64	78.3528	1,035.64	83.2954	1,035.64	81.8307	1,035.64	84.5843	1,035.64	84.4462	1,035.64	85.2412
1,072.27	93.0706	1,072.27	93.0758	1,072.27	93.085	1,072.27	92.8809	1,072.27	93.0052	1,072.27	92.2343	1,072.27	92.5952	1,072.27	91.2387	1,072.27	91.7597	1,072.27	90.1422	1,072.27	90.571	1,072.27	88.8072	1,072.27	89.2516	1,072.27	87.1251	1,072.27	88.1706	1,072.27	86.2837	1,072.27	87.5539	1,072.27	86.805	1,072.27	87.4975	1,072.27	86.9689	1,072.27	87.7904	1,072.27	85.9167	1,072.27	87.6002	1,072.27	83.92	1,072.27	86.2161	1,072.27	81.4947	1,072.27	83.678	1,072.27	79.0192	1,072.27	80.6141	1,072.27	81.0531	1,072.27	79.9781	1,072.27	84.5641	1,072.27	82.318	1,072.27	85.9347	1,072.27	84.2155	1,072.27	85.5082
1,108.89	93.1321	1,108.89	92.943	1,108.89	92.9748	1,108.89	92.4369	1,108.89	92.6187	1,108.89	91.7972	1,108.89	92.0835	1,108.89	91.0118	1,108.89	91.219	1,108.89	89.8291	1,108.89	90.0081	1,108.89	88.2985	1,108.89	88.7134	1,108.89	87.1294	1,108.89	87.6352	1,108.89	86.7932	1,108.89	86.8625	1,108.89	86.6016	1,108.89	86.4871	1,108.89	86.1556	1,108.89	86.4973	1,108.89	85.5178	1,108.89	86.2832	1,108.89	84.0541	1,108.89	85.0596	1,108.89	80.882	1,108.89	82.4387	1,108.89	78.2259	1,108.89	78.9916	1,108.89	80.5988	1,108.89	78.397	1,108.89	83.1743	1,108.89	81.3437	1,108.89	84.6147	1,108.89	83.8803	1,108.89	84.9588
1,148.44	92.546	1,148.44	92.3556	1,148.44	92.7573	1,148.44	92.2175	1,148.44	92.5839	1,148.44	91.7272	1,148.44	91.9444	1,148.44	90.7031	1,148.44	91.0869	1,148.44	89.3456	1,148.44	90.1434	1,148.44	87.9541	1,148.44	88.9955	1,148.44	86.7293	1,148.44	87.5196	1,148.44	85.7689	1,148.44	86.087	1,148.44	85.3689	1,148.44	85.7921	1,148.44	85.4135	1,148.44	86.4156	1,148.44	84.8543	1,148.44	86.4106	1,148.44	82.8592	1,148.44	85.4317	1,148.44	78.5408	1,148.44	83.6744	1,148.44	74.234	1,148.44	80.2726	1,148.44	79.608	1,148.44	76.5128	1,148.44	82.9402	1,148.44	80.344	1,148.44	84.1946	1,148.44	83.3538	1,148.44	84.3926
1,189.45	92.2624	1,189.45	92.103	1,189.45	92.251	1,189.45	91.8463	1,189.45	92.0596	1,189.45	91.4533	1,189.45	91.739	1,189.45	90.7134	1,189.45	91.1689	1,189.45	89.4476	1,189.45	90.1257	1,189.45	87.7161	1,189.45	88.7171	1,189.45	85.7798	1,189.45	87.4598	1,189.45	84.3218	1,189.45	86.7109	1,189.45	84.3164	1,189.45	86.2259	1,189.45	84.8766	1,189.45	85.7662	1,189.45	84.7068	1,189.45	85.6049	1,189.45	83.1646	1,189.45	85.3587	1,189.45	79.8037	1,189.45	83.8676	1,189.45	74.5556	1,189.45	80.463	1,189.45	76.1087	1,189.45	76.909	1,189.45	81.0624	1,189.45	79.1911	1,189.45	83.1909	1,189.45	82.0703	1,189.45	83.3351
1,230.47	93.1395	1,230.47	92.8727	1,230.47	93.1776	1,230.47	92.5831	1,230.47	92.8588	1,230.47	91.9343	1,230.47	92.396	1,230.47	90.805	1,230.47	91.8163	1,230.47	89.6862	1,230.47	91.0208	1,230.47	88.4075	1,230.47	89.8448	1,230.47	86.2905	1,230.47	88.0003	1,230.47	84.3431	1,230.47	86.0712	1,230.47	84.217	1,230.47	85.6936	1,230.47	84.7321	1,230.47	86.2223	1,230.47	84.644	1,230.47	86.1083	1,230.47	83.5767	1,230.47	85.0142	1,230.47	80.3187	1,230.47	83.1629	1,230.47	73.9519	1,230.47	80.2449	1,230.47	77.8148	1,230.47	78.2816	1,230.47	80.6741	1,230.47	79.7748	1,230.47	82.4094	1,230.47	81.9892	1,230.47	83.1668
1,274.41	93.2188	1,274.41	92.9654	1,274.41	93.1185	1,274.41	92.5409	1,274.41	92.9185	1,274.41	92.0146	1,274.41	92.7169	1,274.41	91.1508	1,274.41	92.1071	1,274.41	90.018	1,274.41	91.0388	1,274.41	88.8602	1,274.41	89.8779	1,274.41	87.6248	1,274.41	88.6346	1,274.41	86.3557	1,274.41	87.3154	1,274.41	85.3213	1,274.41	86.4387	1,274.41	84.5385	1,274.41	86.1214	1,274.41	83.8966	1,274.41	85.8127	1,274.41	83.3538	1,274.41	84.9407	1,274.41	81.8552	1,274.41	83.3587	1,274.41	76.9358	1,274.41	80.893	1,274.41	75.5191	1,274.41	78.491	1,274.41	79.573	1,274.41	80.9241	1,274.41	81.7332	1,274.41	83.427	1,274.41	83.4011
1,319.82	93.3159	1,319.82	93.0497	1,319.82	93.3433	1,319.82	92.7211	1,319.82	93.0138	1,319.82	92.1664	1,319.82	92.4323	1,319.82	91.4451	1,319.82	91.6959	1,319.82	90.5897	1,319.82	90.8083	1,319.82	89.2515	1,319.82	89.5745	1,319.82	87.9023	1,319.82	87.9881	1,319.82	86.8211	1,319.82	86.4554	1,319.82	85.3925	1,319.82	85.8125	1,319.82	85.0281	1,319.82	86.03	1,319.82	85.3653	1,319.82	85.873	1,319.82	84.0501	1,319.82	85.0815	1,319.82	80.4003	1,319.82	83.698	1,319.82	74.2504	1,319.82	80.4211	1,319.82	75.6735	1,319.82	77.4214	1,319.82	81.771	1,319.82	81.4141	1,319.82	84.1072	1,319.82	83.9935	1,319.82	84.7237
1,366.7	92.8204	1,366.7	92.8624	1,366.7	92.802	1,366.7	92.6472	1,366.7	92.6446	1,366.7	91.896	1,366.7	92.0312	1,366.7	90.9488	1,366.7	91.2828	1,366.7	90.2157	1,366.7	90.5859	1,366.7	89.1683	1,366.7	89.3052	1,366.7	87.4372	1,366.7	87.5919	1,366.7	85.3877	1,366.7	85.8657	1,366.7	84.1157	1,366.7	84.0793	1,366.7	84.5766	1,366.7	84.0206	1,366.7	84.6977	1,366.7	84.6263	1,366.7	83.5134	1,366.7	83.8221	1,366.7	81.3436	1,366.7	81.875	1,366.7	77.5059	1,366.7	78.687	1,366.7	74.1167	1,366.7	76.4236	1,366.7	80.8084	1,366.7	80.992	1,366.7	83.9259	1,366.7	83.3518	1,366.7	84.2224
1,413.57	92.0443	1,413.57	92.1608	1,413.57	92.0538	1,413.57	91.746	1,413.57	91.7294	1,413.57	91.2309	1,413.57	90.6911	1,413.57	90.4125	1,413.57	89.7519	1,413.57	89.0583	1,413.57	88.4602	1,413.57	88.022	1,413.57	87.1467	1,413.57	86.2307	1,413.57	86.139	1,413.57	83.5758	1,413.57	84.3074	1,413.57	83.2368	1,413.57	83.8022	1,413.57	84.1307	1,413.57	83.9302	1,413.57	84.4182	1,413.57	83.1741	1,413.57	84.4935	1,413.57	83.0139	1,413.57	83.2023	1,413.57	81.9401	1,413.57	78.4507	1,413.57	77.0736	1,413.57	74.3618	1,413.57	73.3377	1,413.57	78.1595	1,413.57	78.2575	1,413.57	80.2142	1,413.57	80.3094	1,413.57	80.9308
1,463.38	91.6713	1,463.38	91.4154	1,463.38	91.5862	1,463.38	91.0147	1,463.38	91.0166	1,463.38	90.237	1,463.38	90.4876	1,463.38	89.3605	1,463.38	89.8422	1,463.38	88.635	1,463.38	88.5664	1,463.38	87.3912	1,463.38	87.097	1,463.38	85.6025	1,463.38	85.3168	1,463.38	84.3158	1,463.38	83.0279	1,463.38	83.436	1,463.38	81.3102	1,463.38	82.5665	1,463.38	81.1472	1,463.38	83.01	1,463.38	82.2478	1,463.38	83.5543	1,463.38	82.3316	1,463.38	81.74	1,463.38	80.7813	1,463.38	77.7002	1,463.38	75.8051	1,463.38	74.4616	1,463.38	70.6889	1,463.38	78.0992	1,463.38	77.3054	1,463.38	81.9732	1,463.38	80.8518	1,463.38	82.5156
1,516.11	90.4135	1,516.11	90.1669	1,516.11	90.3584	1,516.11	89.6014	1,516.11	89.9013	1,516.11	88.8204	1,516.11	89.1469	1,516.11	87.9402	1,516.11	88.0796	1,516.11	86.9097	1,516.11	87.0178	1,516.11	85.7638	1,516.11	86.2641	1,516.11	84.9467	1,516.11	84.9416	1,516.11	84.2328	1,516.11	83.7256	1,516.11	82.6715	1,516.11	82.8664	1,516.11	81.9021	1,516.11	80.9654	1,516.11	82.0457	1,516.11	80.4768	1,516.11	81.0569	1,516.11	81.3625	1,516.11	80.0224	1,516.11	80.6812	1,516.11	76.4783	1,516.11	77.8223	1,516.11	75.3911	1,516.11	70.0469	1,516.11	78.5399	1,516.11	72.3351	1,516.11	79.3824	1,516.11	78.1138	1,516.11	80.2152
1,568.85	90.1567	1,568.85	89.9655	1,568.85	90.1675	1,568.85	89.5244	1,568.85	89.542	1,568.85	88.5873	1,568.85	88.9031	1,568.85	87.1498	1,568.85	88.1475	1,568.85	85.5404	1,568.85	86.6036	1,568.85	84.2259	1,568.85	85.6901	1,568.85	82.9302	1,568.85	84.424	1,568.85	81.676	1,568.85	82.8681	1,568.85	80.5874	1,568.85	81.6173	1,568.85	79.0757	1,568.85	79.7581	1,568.85	79.2807	1,568.85	79.8733	1,568.85	79.4311	1,568.85	79.59	1,568.85	77.4452	1,568.85	77.1004	1,568.85	73.0066	1,568.85	74.1712	1,568.85	72.2411	1,568.85	71.8295	1,568.85	77.2116	1,568.85	73.7422	1,568.85	80.5595	1,568.85	76.5636	1,568.85	80.2341
1,624.51	90.7703	1,624.51	90.3521	1,624.51	90.5851	1,624.51	89.9752	1,624.51	90.0651	1,624.51	89.1684	1,624.51	89.3411	1,624.51	88.1096	1,624.51	88.156	1,624.51	86.9304	1,624.51	87.1701	1,624.51	84.8621	1,624.51	85.6984	1,624.51	82.7833	1,624.51	83.8189	1,624.51	81.5401	1,624.51	82.2812	1,624.51	80.769	1,624.51	81.2196	1,624.51	79.9251	1,624.51	80.3177	1,624.51	78.8165	1,624.51	79.5005	1,624.51	78.3805	1,624.51	78.7957	1,624.51	77.051	1,624.51	78.1775	1,624.51	74.6476	1,624.51	78.2597	1,624.51	72.4546	1,624.51	76.6104	1,624.51	74.3389	1,624.51	76.0706	1,624.51	76.2103	1,624.51	76.5133	1,624.51	77.1512
1,681.64	90.6823	1,681.64	90.4003	1,681.64	90.5318	1,681.64	90.0504	1,681.64	90.1308	1,681.64	89.6166	1,681.64	89.4687	1,681.64	89.0538	1,681.64	88.72	1,681.64	88.1902	1,681.64	87.8048	1,681.64	86.8928	1,681.64	86.576	1,681.64	83.8145	1,681.64	84.7264	1,681.64	80.2539	1,681.64	81.1737	1,681.64	81.5601	1,681.64	80.3319	1,681.64	82.1176	1,681.64	81.2585	1,681.64	80.7163	1,681.64	81.8351	1,681.64	74.8681	1,681.64	80.0395	1,681.64	71.4972	1,681.64	71.1397	1,681.64	77.1079	1,681.64	72.9213	1,681.64	80.1613	1,681.64	78.2805	1,681.64	81.0907	1,681.64	81.4261	1,681.64	81.7697	1,681.64	82.3105	1,681.64	82.1858
1,741.7	91.9802	1,741.7	91.5604	1,741.7	91.7452	1,741.7	90.5936	1,741.7	90.8468	1,741.7	89.5179	1,741.7	89.739	1,741.7	88.7567	1,741.7	88.6743	1,741.7	88.8247	1,741.7	87.9832	1,741.7	88.7608	1,741.7	87.5361	1,741.7	87.2193	1,741.7	86.6849	1,741.7	83.0817	1,741.7	83.9603	1,741.7	77.7686	1,741.7	78.1629	1,741.7	82.8528	1,741.7	80.7961	1,741.7	84.8863	1,741.7	84.0825	1,741.7	83.2055	1,741.7	84.6928	1,741.7	76.5068	1,741.7	81.6453	1,741.7	67.4902	1,741.7	72.4805	1,741.7	80.2794	1,741.7	79.2164	1,741.7	85.0503	1,741.7	84.8239	1,741.7	87.0445	1,741.7	87.124	1,741.7	87.5621
1,803.22	92.3645	1,803.22	92.0371	1,803.22	92.1159	1,803.22	91.2356	1,803.22	91.4195	1,803.22	89.7875	1,803.22	89.9006	1,803.22	88.0019	1,803.22	87.8548	1,803.22	86.997	1,803.22	86.1041	1,803.22	86.8372	1,803.22	85.1785	1,803.22	87.0759	1,803.22	85.4913	1,803.22	85.3589	1,803.22	84.4642	1,803.22	80.6101	1,803.22	80.605	1,803.22	79.0911	1,803.22	73.4793	1,803.22	83.8451	1,803.22	81.5205	1,803.22	85.0384	1,803.22	85.0427	1,803.22	82.0538	1,803.22	84.4142	1,803.22	73.9181	1,803.22	80.8059	1,803.22	77.6135	1,803.22	77.7021	1,803.22	83.4983	1,803.22	82.6421	1,803.22	86.4165	1,803.22	86.0456	1,803.22	87.0679
1,866.21	91.2332	1,866.21	91.1151	1,866.21	91.0887	1,866.21	90.5707	1,866.21	90.5506	1,866.21	89.4256	1,866.21	89.7451	1,866.21	87.7608	1,866.21	88.1908	1,866.21	86.0564	1,866.21	86.1836	1,866.21	85.5171	1,866.21	84.325	1,866.21	85.5096	1,866.21	83.3385	1,866.21	84.8157	1,866.21	83.8262	1,866.21	81.3428	1,866.21	82.2701	1,866.21	77.253	1,866.21	76.7074	1,866.21	81.3057	1,866.21	74.3009	1,866.21	83.8508	1,866.21	80.7081	1,866.21	82.9642	1,866.21	82.8137	1,866.21	77.7011	1,866.21	81.9661	1,866.21	59.1165	1,866.21	76.3427	1,866.21	78.5211	1,866.21	75.7852	1,866.21	82.6204	1,866.21	80.3314	1,866.21	83.236
1,932.13	90.7901	1,932.13	90.5872	1,932.13	90.6011	1,932.13	90.0083	1,932.13	90.2542	1,932.13	89.0486	1,932.13	89.5085	1,932.13	87.5188	1,932.13	88.4878	1,932.13	85.4568	1,932.13	86.899	1,932.13	83.7835	1,932.13	85.0587	1,932.13	83.7359	1,932.13	83.8306	1,932.13	84.0932	1,932.13	83.4308	1,932.13	81.2977	1,932.13	82.212	1,932.13	77.1001	1,932.13	79.7318	1,932.13	79.1476	1,932.13	76.1924	1,932.13	81.6954	1,932.13	80.3356	1,932.13	81.1758	1,932.13	82.0841	1,932.13	76.7831	1,932.13	80.9786	1,932.13	59.2978	1,932.13	75.2095	1,932.13	78.3535	1,932.13	68.5189	1,932.13	80.8093	1,932.13	79.347	1,932.13	80.9825
1,999.51	91.5688	1,999.51	91.4754	1,999.51	91.375	1,999.51	90.6494	1,999.51	90.7267	1,999.51	89.5759	1,999.51	90.1225	1,999.51	88.3333	1,999.51	88.9174	1,999.51	86.0912	1,999.51	87.6796	1,999.51	84.6505	1,999.51	85.9567	1,999.51	83.2924	1,999.51	84.1828	1,999.51	83.7194	1,999.51	83.258	1,999.51	81.5024	1,999.51	82.7213	1,999.51	76.9758	1,999.51	80.3702	1,999.51	77.7909	1,999.51	77.2541	1,999.51	81.0179	1,999.51	79.9925	1,999.51	81.1584	1,999.51	81.7928	1,999.51	76.1537	1,999.51	81.139	1,999.51	60.4283	1,999.51	75.8531	1,999.51	75.9185	1,999.51	65.9232	1,999.51	81.0378	1,999.51	77.4048	1,999.51	81.1951
2,069.82	91.954	2,069.82	91.9267	2,069.82	91.5519	2,069.82	91.4926	2,069.82	91.007	2,069.82	90.5693	2,069.82	89.8944	2,069.82	89.3141	2,069.82	89.0037	2,069.82	87.346	2,069.82	87.8404	2,069.82	85.0315	2,069.82	86.0798	2,069.82	83.3835	2,069.82	84.6945	2,069.82	83.6864	2,069.82	83.7838	2,069.82	82.6521	2,069.82	82.6836	2,069.82	78.4089	2,069.82	79.5341	2,069.82	75.4665	2,069.82	76.7808	2,069.82	81.1708	2,069.82	80.1488	2,069.82	81.7265	2,069.82	82.7633	2,069.82	79.216	2,069.82	82.0076	2,069.82	70.3515	2,069.82	76.8347	2,069.82	75.5635	2,069.82	67.7093	2,069.82	79.9213	2,069.82	78.8194	2,069.82	81.2175
2,143.07	91.8493	2,143.07	91.8391	2,143.07	91.3967	2,143.07	91.2085	2,143.07	90.5527	2,143.07	90.3221	2,143.07	89.1645	2,143.07	89.3322	2,143.07	87.7885	2,143.07	88.1407	2,143.07	86.6866	2,143.07	85.9848	2,143.07	85.1877	2,143.07	84.0381	2,143.07	83.6351	2,143.07	82.2301	2,143.07	82.383	2,143.07	82.9067	2,143.07	82.5055	2,143.07	81.2771	2,143.07	81.2199	2,143.07	75.9673	2,143.07	75.8813	2,143.07	80.2301	2,143.07	76.4231	2,143.07	83.6333	2,143.07	81.9862	2,143.07	82.7016	2,143.07	82.557	2,143.07	77.4106	2,143.07	79.4424	2,143.07	71.2155	2,143.07	73.6091	2,143.07	77.946	2,143.07	76.3729	2,143.07	79.3398
2,219.24	91.3368	2,219.24	91.2097	2,219.24	91.1188	2,219.24	90.7309	2,219.24	90.2516	2,219.24	89.3585	2,219.24	89.0724	2,219.24	88.0976	2,219.24	87.3362	2,219.24	87.0207	2,219.24	84.9583	2,219.24	84.7442	2,219.24	83.3117	2,219.24	82.7005	2,219.24	81.3601	2,219.24	82.2443	2,219.24	80.6624	2,219.24	81.5229	2,219.24	79.7192	2,219.24	81.2341	2,219.24	79.6637	2,219.24	78.264	2,219.24	77.8922	2,219.24	77.7126	2,219.24	73.837	2,219.24	81.101	2,219.24	77.1394	2,219.24	82.1553	2,219.24	80.9158	2,219.24	78.7501	2,219.24	80.3687	2,219.24	69.6775	2,219.24	75.4009	2,219.24	63.3537	2,219.24	66.1264	2,219.24	65.8537
2,296.88	91.3466	2,296.88	91.2863	2,296.88	91.1564	2,296.88	90.3987	2,296.88	90.7792	2,296.88	89.3106	2,296.88	89.7591	2,296.88	87.5799	2,296.88	88.2002	2,296.88	86.0037	2,296.88	86.9849	2,296.88	84.5279	2,296.88	84.7911	2,296.88	82.9987	2,296.88	82.8305	2,296.88	80.1364	2,296.88	81.5029	2,296.88	79.5465	2,296.88	80.838	2,296.88	79.3411	2,296.88	78.8858	2,296.88	77.4057	2,296.88	78.4693	2,296.88	75.766	2,296.88	75.2949	2,296.88	77.8277	2,296.88	75.8739	2,296.88	80.2681	2,296.88	79.1059	2,296.88	78.0903	2,296.88	79.5988	2,296.88	72.7639	2,296.88	75.5178	2,296.88	72.8276	2,296.88	66.8668	2,296.88	71.9754
2,378.91	92.4892	2,378.91	91.989	2,378.91	92.353	2,378.91	91.07	2,378.91	91.8372	2,378.91	89.8391	2,378.91	90.8119	2,378.91	87.8326	2,378.91	89.2575	2,378.91	86.306	2,378.91	87.7961	2,378.91	84.4551	2,378.91	86.3663	2,378.91	81.4602	2,378.91	84.5588	2,378.91	80.0179	2,378.91	83.222	2,378.91	78.174	2,378.91	81.6838	2,378.91	77.7762	2,378.91	80.3035	2,378.91	76.587	2,378.91	79.9469	2,378.91	74.8359	2,378.91	78.782	2,378.91	77.6182	2,378.91	78.1668	2,378.91	78.0481	2,378.91	80.5207	2,378.91	73.4498	2,378.91	79.1829	2,378.91	69.877	2,378.91	75.4449	2,378.91	72.0224	2,378.91	71.4712	2,378.91	72.0843
2,462.4	93.5965	2,462.4	93.4803	2,462.4	93.3662	2,462.4	92.529	2,462.4	92.7572	2,462.4	91.2366	2,462.4	91.7317	2,462.4	89.6505	2,462.4	90.2717	2,462.4	87.9964	2,462.4	88.6048	2,462.4	86.57	2,462.4	87.0763	2,462.4	84.593	2,462.4	85.2126	2,462.4	83.0743	2,462.4	83.6402	2,462.4	81.213	2,462.4	82.5041	2,462.4	79.4747	2,462.4	80.9469	2,462.4	77.5772	2,462.4	79.5819	2,462.4	74.9008	2,462.4	79.1029	2,462.4	77.964	2,462.4	79.475	2,462.4	78.6781	2,462.4	80.9163	2,462.4	76.6177	2,462.4	80.0346	2,462.4	68.6693	2,462.4	73.6939	2,462.4	72.2758	2,462.4	72.6699	2,462.4	74.6302
2,548.83	93.1931	2,548.83	93.0529	2,548.83	92.7723	2,548.83	92.2062	2,548.83	92.1764	2,548.83	91.1837	2,548.83	91.1503	2,548.83	89.7122	2,548.83	89.7494	2,548.83	88.1321	2,548.83	88.3852	2,548.83	86.5598	2,548.83	86.6574	2,548.83	85.2774	2,548.83	84.9024	2,548.83	82.0474	2,548.83	83.6409	2,548.83	81.3847	2,548.83	81.7368	2,548.83	79.5063	2,548.83	79.6115	2,548.83	79.2159	2,548.83	78.4424	2,548.83	79.1459	2,548.83	77.3251	2,548.83	78.8595	2,548.83	78.6772	2,548.83	80.6723	2,548.83	80.1847	2,548.83	78.8156	2,548.83	79.1522	2,548.83	69.9229	2,548.83	71.8456	2,548.83	77.1049	2,548.83	70.544	2,548.83	76.5286
2,639.65	92.5466	2,639.65	91.8814	2,639.65	92.1092	2,639.65	91.3758	2,639.65	91.3699	2,639.65	89.9777	2,639.65	90.1082	2,639.65	88.5256	2,639.65	88.9075	2,639.65	86.7862	2,639.65	87.277	2,639.65	84.8298	2,639.65	86.4626	2,639.65	83.5761	2,639.65	84.3763	2,639.65	81.6017	2,639.65	82.7396	2,639.65	79.8747	2,639.65	81.935	2,639.65	78.699	2,639.65	81.4942	2,639.65	80.1582	2,639.65	78.5186	2,639.65	79.6162	2,639.65	77.3081	2,639.65	78.7258	2,639.65	74.9816	2,639.65	78.8833	2,639.65	77.9709	2,639.65	76.9725	2,639.65	77.6138	2,639.65	73.3566	2,639.65	74.4724	2,639.65	68.7325	2,639.65	67.6671	2,639.65	72.6539
2,731.93	91.9581	2,731.93	91.5312	2,731.93	91.6925	2,731.93	90.7901	2,731.93	91.2519	2,731.93	89.4759	2,731.93	90.2403	2,731.93	87.9585	2,731.93	88.967	2,731.93	85.9697	2,731.93	87.4104	2,731.93	84.2331	2,731.93	86.1196	2,731.93	82.5966	2,731.93	84.2789	2,731.93	81.9556	2,731.93	82.4045	2,731.93	79.5551	2,731.93	81.7716	2,731.93	78.3286	2,731.93	81.2931	2,731.93	78.8458	2,731.93	78.8308	2,731.93	78.7234	2,731.93	78.0971	2,731.93	76.3101	2,731.93	77.3266	2,731.93	77.9956	2,731.93	77.4361	2,731.93	77.0634	2,731.93	77.4942	2,731.93	70.4839	2,731.93	73.7416	2,731.93	72.9215	2,731.93	63.7586	2,731.93	74.121
2,828.61	91.8593	2,828.61	91.4511	2,828.61	92.58	2,828.61	90.3628	2,828.61	91.373	2,828.61	89.2982	2,828.61	90.8622	2,828.61	87.6913	2,828.61	89.5839	2,828.61	87.1563	2,828.61	88.3642	2,828.61	85.096	2,828.61	86.7237	2,828.61	82.1378	2,828.61	85.1788	2,828.61	82.758	2,828.61	83.474	2,828.61	81.3163	2,828.61	81.9678	2,828.61	79.0577	2,828.61	80.5982	2,828.61	75.9743	2,828.61	79.519	2,828.61	75.7669	2,828.61	79.4249	2,828.61	76.3794	2,828.61	78.9792	2,828.61	76.3525	2,828.61	78.1124	2,828.61	78.5995	2,828.61	79.5392	2,828.61	74.0215	2,828.61	77.199	2,828.61	71.7685	2,828.61	68.8308	2,828.61	73.1471
2,928.22	92.5525	2,928.22	92.3395	2,928.22	92.4909	2,928.22	91.1998	2,928.22	92.1241	2,928.22	90.5296	2,928.22	91.4061	2,928.22	89.7424	2,928.22	89.9705	2,928.22	88.4038	2,928.22	88.8547	2,928.22	87.0936	2,928.22	87.3635	2,928.22	85.5204	2,928.22	85.8691	2,928.22	84.0864	2,928.22	84.077	2,928.22	81.5622	2,928.22	81.6066	2,928.22	80.1568	2,928.22	80.4672	2,928.22	76.616	2,928.22	79.3802	2,928.22	77.0373	2,928.22	78.8266	2,928.22	76.6558	2,928.22	77.7095	2,928.22	77.2863	2,928.22	78.2687	2,928.22	78.1491	2,928.22	79.7464	2,928.22	73.9005	2,928.22	77.2079	2,928.22	76.4506	2,928.22	67.826	2,928.22	72.3024
3,030.76	92.84	3,030.76	92.3252	3,030.76	92.8042	3,030.76	91.7677	3,030.76	91.9651	3,030.76	91.0666	3,030.76	91.2479	3,030.76	90.0233	3,030.76	89.718	3,030.76	88.6115	3,030.76	88.802	3,030.76	87.1805	3,030.76	87.2391	3,030.76	86.2682	3,030.76	86.345	3,030.76	84.1067	3,030.76	84.1345	3,030.76	82.8245	3,030.76	82.1296	3,030.76	80.8199	3,030.76	81.3142	3,030.76	78.3963	3,030.76	80.394	3,030.76	77.5791	3,030.76	78.9154	3,030.76	77.4548	3,030.76	77.894	3,030.76	77.8383	3,030.76	76.5091	3,030.76	76.8356	3,030.76	80.2706	3,030.76	73.9405	3,030.76	77.2153	3,030.76	72.6891	3,030.76	67.2405	3,030.76	68.9414
3,137.7	93.3741	3,137.7	92.8498	3,137.7	92.8883	3,137.7	91.9211	3,137.7	92.3626	3,137.7	91.0427	3,137.7	91.1626	3,137.7	90.5398	3,137.7	90.3631	3,137.7	89.0513	3,137.7	89.0116	3,137.7	87.9036	3,137.7	87.4057	3,137.7	87.091	3,137.7	85.7137	3,137.7	84.5127	3,137.7	85.1297	3,137.7	83.3487	3,137.7	82.8661	3,137.7	81.5638	3,137.7	81.74	3,137.7	79.1633	3,137.7	80.2106	3,137.7	79.743	3,137.7	78.2197	3,137.7	77.9733	3,137.7	78.4363	3,137.7	78.4983	3,137.7	77.7654	3,137.7	76.8672	3,137.7	79.7423	3,137.7	73.3607	3,137.7	79.2556	3,137.7	70.9742	3,137.7	72.5361	3,137.7	65.9126
3,249.02	93.7476	3,249.02	93.1353	3,249.02	93.4295	3,249.02	92.1904	3,249.02	93.0066	3,249.02	90.8431	3,249.02	91.7991	3,249.02	89.7303	3,249.02	90.899	3,249.02	88.1563	3,249.02	89.5543	3,249.02	86.9411	3,249.02	88.5849	3,249.02	85.9561	3,249.02	87.1046	3,249.02	83.8328	3,249.02	85.4855	3,249.02	83.5186	3,249.02	82.5828	3,249.02	81.2413	3,249.02	82.6804	3,249.02	79.1234	3,249.02	81.7453	3,249.02	79.5487	3,249.02	79.49	3,249.02	77.8187	3,249.02	79.9947	3,249.02	78.6481	3,249.02	78.1494	3,249.02	78.0519	3,249.02	79.5457	3,249.02	73.0056	3,249.02	79.5029	3,249.02	70.079	3,249.02	73.6712	3,249.02	70.4876
3,363.28	93.5901	3,363.28	93.0317	3,363.28	93.1305	3,363.28	92.3849	3,363.28	93.3326	3,363.28	91.5753	3,363.28	92.3033	3,363.28	90.8584	3,363.28	91.2209	3,363.28	89.0278	3,363.28	90.0387	3,363.28	87.2993	3,363.28	88.3981	3,363.28	86.234	3,363.28	86.7645	3,363.28	83.478	3,363.28	85.6187	3,363.28	82.2543	3,363.28	83.2964	3,363.28	81.8124	3,363.28	81.6271	3,363.28	79.2492	3,363.28	81.4532	3,363.28	78.4584	3,363.28	79.9348	3,363.28	78.4122	3,363.28	80.7188	3,363.28	75.9331	3,363.28	77.5454	3,363.28	78.2698	3,363.28	78.8946	3,363.28	73.6071	3,363.28	80.3476	3,363.28	73.5625	3,363.28	75.9221	3,363.28	75.0049
3,481.93	93.2384	3,481.93	93.139	3,481.93	92.944	3,481.93	93.046	3,481.93	92.671	3,481.93	92.379	3,481.93	92.205	3,481.93	91.2753	3,481.93	91.0385	3,481.93	89.614	3,481.93	89.9239	3,481.93	87.6711	3,481.93	88.7926	3,481.93	86.0141	3,481.93	87.1328	3,481.93	84.4848	3,481.93	85.4325	3,481.93	82.5732	3,481.93	82.8099	3,481.93	81.2014	3,481.93	80.506	3,481.93	81.2019	3,481.93	79.6055	3,481.93	79.2523	3,481.93	78.3354	3,481.93	79.059	3,481.93	78.924	3,481.93	77.4755	3,481.93	77.6957	3,481.93	78.6928	3,481.93	78.4307	3,481.93	74.2211	3,481.93	79.2545	3,481.93	75.2414	3,481.93	77.5819	3,481.93	75.6849
3,604.98	93.955	3,604.98	93.3723	3,604.98	94.3262	3,604.98	92.7532	3,604.98	93.5628	3,604.98	92.3742	3,604.98	93.0951	3,604.98	90.552	3,604.98	92.1771	3,604.98	89.6303	3,604.98	91.0651	3,604.98	88.2981	3,604.98	89.9932	3,604.98	84.808	3,604.98	87.9225	3,604.98	84.1245	3,604.98	85.4011	3,604.98	81.433	3,604.98	83.9343	3,604.98	81	3,604.98	81.3985	3,604.98	79.701	3,604.98	80.5911	3,604.98	78.1451	3,604.98	80.0548	3,604.98	79.8221	3,604.98	80.2715	3,604.98	77.7609	3,604.98	79.8506	3,604.98	78.757	3,604.98	78.5387	3,604.98	74.7558	3,604.98	79.7057	3,604.98	74.0482	3,604.98	77.3216	3,604.98	74.7085
3,732.42	93.8438	3,732.42	93.5339	3,732.42	94.2413	3,732.42	93.4452	3,732.42	93.7339	3,732.42	93.0416	3,732.42	93.6232	3,732.42	91.8798	3,732.42	92.4875	3,732.42	90.7535	3,732.42	91.0058	3,732.42	89.304	3,732.42	89.4526	3,732.42	86.6764	3,732.42	87.1094	3,732.42	84.8597	3,732.42	84.8554	3,732.42	82.1073	3,732.42	82.9072	3,732.42	81.2478	3,732.42	80.341	3,732.42	79.8542	3,732.42	80.4832	3,732.42	78.0116	3,732.42	79.0918	3,732.42	79.2855	3,732.42	80.8103	3,732.42	78.2323	3,732.42	79.8326	3,732.42	79.201	3,732.42	77.5222	3,732.42	74.8976	3,732.42	80.0372	3,732.42	73.1111	3,732.42	76.8129	3,732.42	74.0018
3,864.26	91.3533	3,864.26	91.054	3,864.26	91.5244	3,864.26	91.5332	3,864.26	91.5627	3,864.26	91.4773	3,864.26	91.7741	3,864.26	90.9034	3,864.26	91.2464	3,864.26	90.0203	3,864.26	89.9694	3,864.26	88.3836	3,864.26	87.9199	3,864.26	86.3394	3,864.26	85.9014	3,864.26	84.4179	3,864.26	82.515	3,864.26	82.7728	3,864.26	81.6185	3,864.26	80.8625	3,864.26	78.9807	3,864.26	80.3114	3,864.26	79.2461	3,864.26	78.0239	3,864.26	76.4225	3,864.26	79.6798	3,864.26	78.634	3,864.26	78.5131	3,864.26	78.2611	3,864.26	78.6092	3,864.26	74.872	3,864.26	75.5525	3,864.26	78.329	3,864.26	72.5177	3,864.26	72.7289	3,864.26	71.8047
4,000.49	90.5967	4,000.49	91.0699	4,000.49	90.6626	4,000.49	91.5695	4,000.49	91.3857	4,000.49	91.5201	4,000.49	92.0723	4,000.49	90.9312	4,000.49	91.5651	4,000.49	89.4211	4,000.49	90.2076	4,000.49	87.444	4,000.49	88.0574	4,000.49	86.1916	4,000.49	86.3615	4,000.49	82.3719	4,000.49	84.5312	4,000.49	81.9486	4,000.49	82.0589	4,000.49	78.9147	4,000.49	80.1395	4,000.49	78.7008	4,000.49	78.2301	4,000.49	77.014	4,000.49	77.3335	4,000.49	77.5546	4,000.49	79.3317	4,000.49	76.4939	4,000.49	78.9806	4,000.49	78.1383	4,000.49	77.0399	4,000.49	74.6901	4,000.49	78.5996	4,000.49	66.7137	4,000.49	72.8231	4,000.49	69.7204
4,141.11	91.0242	4,141.11	91.9492	4,141.11	90.5199	4,141.11	92.2347	4,141.11	91.6646	4,141.11	92.1459	4,141.11	92.0753	4,141.11	92.4324	4,141.11	91.8333	4,141.11	90.3558	4,141.11	90.329	4,141.11	88.015	4,141.11	88.0137	4,141.11	85.4386	4,141.11	85.9445	4,141.11	82.4948	4,141.11	83.7333	4,141.11	81.5654	4,141.11	81.3283	4,141.11	77.977	4,141.11	80.534	4,141.11	77.3885	4,141.11	78.1224	4,141.11	76.673	4,141.11	77.5655	4,141.11	76.3889	4,141.11	77.9507	4,141.11	76.139	4,141.11	78.7085	4,141.11	78.0637	4,141.11	76.8587	4,141.11	75.6505	4,141.11	78.3848	4,141.11	67.9966	4,141.11	74.4027	4,141.11	69.6658
4,287.6	91.2287	4,287.6	91.9181	4,287.6	91.3189	4,287.6	92.5312	4,287.6	91.2633	4,287.6	91.7124	4,287.6	91.788	4,287.6	91.0379	4,287.6	90.585	4,287.6	88.9274	4,287.6	89.5048	4,287.6	85.9218	4,287.6	87.3055	4,287.6	83.9576	4,287.6	85.4083	4,287.6	81.5272	4,287.6	83.6476	4,287.6	79.1545	4,287.6	80.8216	4,287.6	76.7862	4,287.6	79.8981	4,287.6	76.3646	4,287.6	77.4828	4,287.6	77.3838	4,287.6	77.6925	4,287.6	76.4151	4,287.6	75.8936	4,287.6	77.0131	4,287.6	78.5408	4,287.6	75.0655	4,287.6	75.791	4,287.6	74.0161	4,287.6	77.3309	4,287.6	67.548	4,287.6	73.5185	4,287.6	69.7465
4,438.48	92.0762	4,438.48	92.2486	4,438.48	91.8103	4,438.48	92.6446	4,438.48	91.8298	4,438.48	91.6406	4,438.48	91.5097	4,438.48	89.3601	4,438.48	90.6091	4,438.48	87.3049	4,438.48	88.9333	4,438.48	84.9911	4,438.48	86.7412	4,438.48	83.3808	4,438.48	84.1015	4,438.48	80.4085	4,438.48	82.6334	4,438.48	78.5604	4,438.48	80.3965	4,438.48	75.333	4,438.48	78.9854	4,438.48	76.5987	4,438.48	76.8543	4,438.48	76.2813	4,438.48	76.3388	4,438.48	75.6755	4,438.48	75.6249	4,438.48	77.1561	4,438.48	76.6425	4,438.48	76.0002	4,438.48	75.7629	4,438.48	74.908	4,438.48	77.8285	4,438.48	68.395	4,438.48	73.9899	4,438.48	66.2539
4,595.21	91.7766	4,595.21	91.6352	4,595.21	91.1511	4,595.21	91.2002	4,595.21	91.5519	4,595.21	90.7588	4,595.21	90.6493	4,595.21	88.8107	4,595.21	90.2765	4,595.21	86.5127	4,595.21	88.9752	4,595.21	84.4722	4,595.21	86.4334	4,595.21	82.5228	4,595.21	83.5879	4,595.21	80.5076	4,595.21	81.9857	4,595.21	78.8004	4,595.21	79.5576	4,595.21	76.6583	4,595.21	77.9162	4,595.21	75.7171	4,595.21	76.479	4,595.21	75.8906	4,595.21	76.0963	4,595.21	73.9989	4,595.21	74.51	4,595.21	75.2375	4,595.21	77.3338	4,595.21	74.4083	4,595.21	75.7021	4,595.21	74.1674	4,595.21	77.6369	4,595.21	63.8622	4,595.21	72.6877	4,595.21	67.6829
4,756.35	92.0187	4,756.35	92.3763	4,756.35	92.3071	4,756.35	91.9311	4,756.35	92.4168	4,756.35	91.5419	4,756.35	91.957	4,756.35	90.2943	4,756.35	90.9498	4,756.35	87.7707	4,756.35	89.239	4,756.35	84.742	4,756.35	86.4336	4,756.35	81.2439	4,756.35	83.4762	4,756.35	79.6745	4,756.35	81.3423	4,756.35	76.6799	4,756.35	79.7463	4,756.35	79.0503	4,756.35	78.3486	4,756.35	75.6222	4,756.35	78.1293	4,756.35	75.6859	4,756.35	75.4411	4,756.35	75.3369	4,756.35	74.3499	4,756.35	74.7737	4,756.35	75.8599	4,756.35	75.0295	4,756.35	76.6083	4,756.35	73.2024	4,756.35	77.7055	4,756.35	59.6555	4,756.35	73.3917	4,756.35	67.7623
4,924.8	92.4104	4,924.8	92.7631	4,924.8	92.8554	4,924.8	93.3259	4,924.8	92.3252	4,924.8	92.4305	4,924.8	92.4674	4,924.8	90.842	4,924.8	90.723	4,924.8	88.7223	4,924.8	88.2153	4,924.8	85.9339	4,924.8	85.4896	4,924.8	83.237	4,924.8	83.3107	4,924.8	81.5435	4,924.8	81.6708	4,924.8	79.4326	4,924.8	78.8474	4,924.8	77.638	4,924.8	77.6056	4,924.8	74.9036	4,924.8	76.6893	4,924.8	76.6809	4,924.8	76.1062	4,924.8	76.409	4,924.8	73.8308	4,924.8	75.8925	4,924.8	75.6319	4,924.8	76.412	4,924.8	75.9112	4,924.8	73.9765	4,924.8	76.7146	4,924.8	63.2753	4,924.8	72.4157	4,924.8	68.5139
5,097.66	92.6343	5,097.66	92.5113	5,097.66	92.4843	5,097.66	92.8395	5,097.66	92.8149	5,097.66	92.0933	5,097.66	91.9494	5,097.66	89.8239	5,097.66	90.7728	5,097.66	87.7683	5,097.66	88.5441	5,097.66	85.5744	5,097.66	85.6014	5,097.66	83.3882	5,097.66	82.8226	5,097.66	81.6239	5,097.66	82.6065	5,097.66	80.0422	5,097.66	78.909	5,097.66	75.3437	5,097.66	77.4683	5,097.66	76.511	5,097.66	75.8178	5,097.66	76.5519	5,097.66	76.1952	5,097.66	75.8688	5,097.66	74.2153	5,097.66	76.2226	5,097.66	72.9772	5,097.66	75.883	5,097.66	73.5807	5,097.66	73.97	5,097.66	76.0769	5,097.66	58.3293	5,097.66	72.6826	5,097.66	66.2399
5,277.83	92.6366	5,277.83	93.0775	5,277.83	92.4625	5,277.83	92.5714	5,277.83	92.9319	5,277.83	92.1915	5,277.83	92.1495	5,277.83	90.1236	5,277.83	90.691	5,277.83	88.0747	5,277.83	88.9401	5,277.83	86.0944	5,277.83	85.6125	5,277.83	84.8007	5,277.83	83.4506	5,277.83	80.4851	5,277.83	82.3611	5,277.83	78.6764	5,277.83	78.7537	5,277.83	77.9412	5,277.83	77.8573	5,277.83	76.0921	5,277.83	76.2087	5,277.83	74.9771	5,277.83	75.5187	5,277.83	72.5	5,277.83	74.2522	5,277.83	74.5687	5,277.83	74.2354	5,277.83	73.0862	5,277.83	75.8438	5,277.83	73.9612	5,277.83	76.1125	5,277.83	57.2055	5,277.83	72.0223	5,277.83	55.5782
5,463.87	92.753	5,463.87	93.175	5,463.87	93.5106	5,463.87	92.3688	5,463.87	92.9316	5,463.87	91.4029	5,463.87	92.6274	5,463.87	90.2957	5,463.87	90.8871	5,463.87	87.8308	5,463.87	88.4128	5,463.87	85.4819	5,463.87	85.8699	5,463.87	82.3117	5,463.87	83.6398	5,463.87	79.3831	5,463.87	80.4958	5,463.87	75.9594	5,463.87	79.4637	5,463.87	78.0892	5,463.87	76.433	5,463.87	76.2425	5,463.87	76.1369	5,463.87	75.1607	5,463.87	75.2438	5,463.87	75.0105	5,463.87	75.2561	5,463.87	75.0658	5,463.87	74.3636	5,463.87	75.1257	5,463.87	75.9448	5,463.87	72.6135	5,463.87	76.032	5,463.87	56.1813	5,463.87	72.7203	5,463.87	59.4871
5,657.23	93.0545	5,657.23	93.1873	5,657.23	93.4097	5,657.23	92.9181	5,657.23	92.6136	5,657.23	91.8216	5,657.23	92.2475	5,657.23	90.5281	5,657.23	90.5245	5,657.23	87.9804	5,657.23	88.1631	5,657.23	86.0962	5,657.23	85.4267	5,657.23	81.5368	5,657.23	82.7	5,657.23	81.1423	5,657.23	80.9657	5,657.23	76.5945	5,657.23	78.0883	5,657.23	75.4021	5,657.23	77.9207	5,657.23	73.4878	5,657.23	74.3564	5,657.23	75.3038	5,657.23	73.6942	5,657.23	74.3915	5,657.23	73.2927	5,657.23	71.9795	5,657.23	72.7703	5,657.23	72.3276	5,657.23	74.7146	5,657.23	72.8343	5,657.23	74.4071	5,657.23	60.3245	5,657.23	74.14	5,657.23	57.3805
5,856.45	92.4759	5,856.45	92.5787	5,856.45	92.1677	5,856.45	91.6842	5,856.45	92.7757	5,856.45	90.6237	5,856.45	91.1429	5,856.45	88.3976	5,856.45	89.8452	5,856.45	86.5803	5,856.45	87.97	5,856.45	84.672	5,856.45	85.5056	5,856.45	81.9529	5,856.45	82.1295	5,856.45	80.511	5,856.45	82.3871	5,856.45	77.6145	5,856.45	77.842	5,856.45	74.7121	5,856.45	77.3276	5,856.45	74.4668	5,856.45	73.4564	5,856.45	74.9264	5,856.45	73.1963	5,856.45	74.963	5,856.45	72.0801	5,856.45	75.0885	5,856.45	74.2718	5,856.45	73.5551	5,856.45	75.3518	5,856.45	71.5826	5,856.45	75.7318	5,856.45	51.6955	5,856.45	73.4459	5,856.45	60.595
6,062.99	91.3914	6,062.99	91.1908	6,062.99	91.9514	6,062.99	90.9661	6,062.99	91.9953	6,062.99	90.4838	6,062.99	90.9619	6,062.99	88.9287	6,062.99	89.271	6,062.99	87.7122	6,062.99	87.3401	6,062.99	84.7625	6,062.99	85.7316	6,062.99	83.6986	6,062.99	84.3335	6,062.99	79.5394	6,062.99	81.3841	6,062.99	77.9363	6,062.99	78.1012	6,062.99	76.524	6,062.99	76.664	6,062.99	74.5149	6,062.99	73.9651	6,062.99	73.7373	6,062.99	73.6168	6,062.99	74.3936	6,062.99	73.3722	6,062.99	75.264	6,062.99	75.7369	6,062.99	72.7276	6,062.99	76.474	6,062.99	70.1763	6,062.99	75.9063	6,062.99	47.809	6,062.99	73.2156	6,062.99	63.338
6,276.86	91.0833	6,276.86	91.1585	6,276.86	91.3569	6,276.86	91.0156	6,276.86	90.2241	6,276.86	89.558	6,276.86	90.5664	6,276.86	88.7076	6,276.86	88.7166	6,276.86	86.2634	6,276.86	86.8475	6,276.86	83.9076	6,276.86	84.644	6,276.86	80.1785	6,276.86	83.5716	6,276.86	78.5934	6,276.86	79.3277	6,276.86	76.9626	6,276.86	76.8846	6,276.86	76.2999	6,276.86	76.661	6,276.86	75.2169	6,276.86	72.9173	6,276.86	75.6505	6,276.86	71.8247	6,276.86	74.8376	6,276.86	71.6221	6,276.86	72.6934	6,276.86	72.4857	6,276.86	72.3306	6,276.86	74.9023	6,276.86	70.8757	6,276.86	75.3014	6,276.86	59.5678	6,276.86	72.8985	6,276.86	66.1262
6,498.05	91.272	6,498.05	90.9597	6,498.05	90.5202	6,498.05	90.2858	6,498.05	90.5426	6,498.05	88.4869	6,498.05	88.9524	6,498.05	87.6389	6,498.05	88.4517	6,498.05	85.1131	6,498.05	87.2375	6,498.05	84.3145	6,498.05	84.4377	6,498.05	78.9591	6,498.05	81.8932	6,498.05	78.5937	6,498.05	79.8185	6,498.05	75.4348	6,498.05	76.7651	6,498.05	72.7115	6,498.05	74.7091	6,498.05	74.1014	6,498.05	72.1976	6,498.05	72.8532	6,498.05	73.6574	6,498.05	72.3756	6,498.05	71.0925	6,498.05	72.9042	6,498.05	71.0219	6,498.05	73.1192	6,498.05	74.4537	6,498.05	68.8807	6,498.05	74.7238	6,498.05	61.9438	6,498.05	71.296	6,498.05	59.4876
6,726.56	91.196	6,726.56	90.9495	6,726.56	91.4108	6,726.56	90.4088	6,726.56	90.6076	6,726.56	89.1262	6,726.56	88.9541	6,726.56	87.1771	6,726.56	88.2183	6,726.56	87.4492	6,726.56	86.8834	6,726.56	83.0112	6,726.56	84.4771	6,726.56	80.6782	6,726.56	82.1967	6,726.56	78.6909	6,726.56	78.9874	6,726.56	76.1683	6,726.56	76.7143	6,726.56	73.3138	6,726.56	73.1979	6,726.56	73.9606	6,726.56	72.6865	6,726.56	71.0009	6,726.56	70.8195	6,726.56	69.5757	6,726.56	68.8036	6,726.56	73.3242	6,726.56	71.5411	6,726.56	71.6045	6,726.56	75.3979	6,726.56	68.0048	6,726.56	75.0364	6,726.56	62.9557	6,726.56	71.9278	6,726.56	60.4543
6,963.87	91.338	6,963.87	90.6244	6,963.87	91.3147	6,963.87	89.9457	6,963.87	89.9313	6,963.87	88.8655	6,963.87	89.3934	6,963.87	88.3697	6,963.87	87.6717	6,963.87	84.9802	6,963.87	86.3287	6,963.87	82.5807	6,963.87	84.1111	6,963.87	81.1651	6,963.87	81.5405	6,963.87	78.158	6,963.87	78.5067	6,963.87	74.4222	6,963.87	76.9185	6,963.87	73.9026	6,963.87	72.1142	6,963.87	70.8424	6,963.87	71.7094	6,963.87	68.2482	6,963.87	70.5072	6,963.87	71.6406	6,963.87	70.3699	6,963.87	71.4075	6,963.87	70.9988	6,963.87	73.0505	6,963.87	74.7457	6,963.87	69.1726	6,963.87	74.0831	6,963.87	61.8214	6,963.87	70.6094	6,963.87	63.4049
7,209.96	92.2807	7,209.96	91.1146	7,209.96	91.779	7,209.96	89.8421	7,209.96	90.3052	7,209.96	89.2827	7,209.96	89.4376	7,209.96	88.2095	7,209.96	88.4463	7,209.96	84.4074	7,209.96	87.5441	7,209.96	83.7189	7,209.96	84.4946	7,209.96	80.92	7,209.96	79.8822	7,209.96	77.838	7,209.96	80.3602	7,209.96	74.0669	7,209.96	76.963	7,209.96	70.5067	7,209.96	74.5558	7,209.96	71.555	7,209.96	72.9108	7,209.96	70.4282	7,209.96	69.5037	7,209.96	71.8546	7,209.96	72.5071	7,209.96	72.2713	7,209.96	72.7512	7,209.96	74.2481	7,209.96	73.5492	7,209.96	69.4594	7,209.96	75.9465	7,209.96	63.4914	7,209.96	71.579	7,209.96	62.1305
7,464.84	92.0303	7,464.84	90.7001	7,464.84	91.5537	7,464.84	89.5613	7,464.84	89.8461	7,464.84	89.1183	7,464.84	88.2195	7,464.84	87.8097	7,464.84	87.32	7,464.84	86.466	7,464.84	86.6388	7,464.84	82.9824	7,464.84	83.4977	7,464.84	79.8738	7,464.84	79.842	7,464.84	77.3394	7,464.84	79.053	7,464.84	75.478	7,464.84	75.8137	7,464.84	74.0274	7,464.84	73.1729	7,464.84	71.9049	7,464.84	72.5139	7,464.84	70.2267	7,464.84	67.5192	7,464.84	73.7383	7,464.84	69.5604	7,464.84	72.7463	7,464.84	73.2244	7,464.84	73.6682	7,464.84	74.5392	7,464.84	67.5078	7,464.84	75.452	7,464.84	64.6876	7,464.84	72.6523	7,464.84	57.8864
7,727.05	92.316	7,727.05	91.1168	7,727.05	91.5364	7,727.05	89.5327	7,727.05	90.4252	7,727.05	88.546	7,727.05	89.3392	7,727.05	88.2713	7,727.05	88.0965	7,727.05	85.5973	7,727.05	86.1288	7,727.05	82.4037	7,727.05	83.6864	7,727.05	80.7334	7,727.05	80.9563	7,727.05	77.2137	7,727.05	79.9423	7,727.05	75.8854	7,727.05	77.4876	7,727.05	73.9203	7,727.05	75.1507	7,727.05	70.3587	7,727.05	72.3461	7,727.05	70.4256	7,727.05	70.2614	7,727.05	74.3479	7,727.05	71.5643	7,727.05	74.1436	7,727.05	73.4371	7,727.05	73.7742	7,727.05	74.7924	7,727.05	68.8797	7,727.05	75.7934	7,727.05	62.5379	7,727.05	73.5621	7,727.05	61.2734
7,999.51	91.8341	7,999.51	90.884	7,999.51	91.0152	7,999.51	88.8276	7,999.51	89.4405	7,999.51	88.8843	7,999.51	88.3138	7,999.51	87.5114	7,999.51	88.2258	7,999.51	84.4991	7,999.51	86.543	7,999.51	83.8927	7,999.51	84.0996	7,999.51	82.135	7,999.51	80.5371	7,999.51	78.1153	7,999.51	80.6227	7,999.51	76.2974	7,999.51	77.7599	7,999.51	73.6653	7,999.51	74.2052	7,999.51	71.4346	7,999.51	73.1887	7,999.51	71.7307	7,999.51	70.599	7,999.51	73.1972	7,999.51	69.8144	7,999.51	72.3809	7,999.51	73.9296	7,999.51	73.7529	7,999.51	73.8345	7,999.51	67.303	7,999.51	76.0137	7,999.51	59.2787	7,999.51	72.727	7,999.51	62.5075
8,282.23	91.7868	8,282.23	89.9265	8,282.23	90.936	8,282.23	88.9447	8,282.23	89.4554	8,282.23	87.3672	8,282.23	88.3173	8,282.23	86.483	8,282.23	87.2793	8,282.23	85.7419	8,282.23	85.8271	8,282.23	83.1239	8,282.23	83.6391	8,282.23	81.1986	8,282.23	81.6659	8,282.23	78.8701	8,282.23	81.3199	8,282.23	77.3928	8,282.23	78.1263	8,282.23	74.1035	8,282.23	74.2046	8,282.23	73.8554	8,282.23	72.6689	8,282.23	73.8865	8,282.23	66.8123	8,282.23	73.2899	8,282.23	71.4706	8,282.23	72.6099	8,282.23	73.3224	8,282.23	73.5703	8,282.23	74.8171	8,282.23	67.0029	8,282.23	74.4008	8,282.23	61.1006	8,282.23	71.4523	8,282.23	65.1123
8,573.73	91.2989	8,573.73	89.8682	8,573.73	91.0316	8,573.73	88.458	8,573.73	88.5041	8,573.73	88.3239	8,573.73	87.3289	8,573.73	86.8496	8,573.73	86.8032	8,573.73	85.4854	8,573.73	84.5723	8,573.73	84.8709	8,573.73	84.0372	8,573.73	81.2124	8,573.73	81.4723	8,573.73	78.4179	8,573.73	81.848	8,573.73	77.3839	8,573.73	76.7876	8,573.73	74.8103	8,573.73	74.071	8,573.73	73.2997	8,573.73	70.2322	8,573.73	72.4222	8,573.73	70.9571	8,573.73	73.4832	8,573.73	70.6472	8,573.73	70.2653	8,573.73	72.8039	8,573.73	72.4983	8,573.73	74.0096	8,573.73	65.4612	8,573.73	74.9117	8,573.73	53.9614	8,573.73	69.3381	8,573.73	65.3473
8,876.95	90.7885	8,876.95	89.9032	8,876.95	90.4544	8,876.95	88.8656	8,876.95	88.974	8,876.95	86.9247	8,876.95	86.6169	8,876.95	86.2434	8,876.95	84.556	8,876.95	85.9803	8,876.95	84.9917	8,876.95	84.2907	8,876.95	83.3142	8,876.95	79.7187	8,876.95	82.2753	8,876.95	79.0083	8,876.95	78.1304	8,876.95	72.779	8,876.95	76.0466	8,876.95	73.0873	8,876.95	71.4408	8,876.95	72.0232	8,876.95	72.0254	8,876.95	72.5982	8,876.95	69.1507	8,876.95	72.9939	8,876.95	63.7616	8,876.95	69.8867	8,876.95	71.6916	8,876.95	72.1517	8,876.95	73.415	8,876.95	64.3463	8,876.95	74.0004	8,876.95	63.0657	8,876.95	67.8873	8,876.95	65.0614
9,188.96	91.122	9,188.96	90.4214	9,188.96	90.9071	9,188.96	88.3994	9,188.96	88.9893	9,188.96	87.2519	9,188.96	87.1759	9,188.96	86.4564	9,188.96	84.4596	9,188.96	85.6441	9,188.96	84.4357	9,188.96	83.5801	9,188.96	83.0113	9,188.96	80.7527	9,188.96	80.2059	9,188.96	76.9643	9,188.96	79.0969	9,188.96	74.8529	9,188.96	75.2306	9,188.96	74.0269	9,188.96	69.6505	9,188.96	72.1744	9,188.96	70.8575	9,188.96	68.2332	9,188.96	66.8238	9,188.96	69.0465	9,188.96	69.8983	9,188.96	69.0313	9,188.96	69.8857	9,188.96	72.2145	9,188.96	72.6089	9,188.96	65.6142	9,188.96	73.1098	9,188.96	48.6804	9,188.96	66.8443	9,188.96	64.2363
9,514.16	91.0586	9,514.16	90.361	9,514.16	90.6388	9,514.16	88.9994	9,514.16	89.1704	9,514.16	87.0407	9,514.16	86.2565	9,514.16	86.5431	9,514.16	84.5322	9,514.16	85.7913	9,514.16	85.4739	9,514.16	83.5516	9,514.16	82.7383	9,514.16	79.6644	9,514.16	80.1105	9,514.16	77.2245	9,514.16	76.5788	9,514.16	72.3387	9,514.16	74.8491	9,514.16	71.1827	9,514.16	68.3075	9,514.16	65.9915	9,514.16	70.3537	9,514.16	65.4195	9,514.16	64.4006	9,514.16	68.8482	9,514.16	68.2583	9,514.16	70.2017	9,514.16	69.624	9,514.16	71.5255	9,514.16	72.5287	9,514.16	63.5879	9,514.16	72.6919	9,514.16	55.6318	9,514.16	62.9394	9,514.16	63.6757
9,849.61	91.4195	9,849.61	91.1661	9,849.61	91.2148	9,849.61	89.5681	9,849.61	89.7633	9,849.61	87.5769	9,849.61	87.4645	9,849.61	86.5636	9,849.61	85.0378	9,849.61	85.9613	9,849.61	85.3601	9,849.61	82.8155	9,849.61	82.1572	9,849.61	79.6574	9,849.61	77.7502	9,849.61	75.6786	9,849.61	76.7223	9,849.61	75.3939	9,849.61	74.7547	9,849.61	72.2045	9,849.61	68.531	9,849.61	65.6327	9,849.61	68.4974	9,849.61	62.7483	9,849.61	64.4685	9,849.61	68.8618	9,849.61	68.9035	9,849.61	68.9758	9,849.61	71.3039	9,849.61	70.4553	9,849.61	72.1654	9,849.61	58.0583	9,849.61	72.0199	9,849.61	52.4142	9,849.61	62.3958	9,849.61	60.8169
10,196.8	91.7496	10,196.8	91.5671	10,196.8	91.8237	10,196.8	90.0112	10,196.8	90.4261	10,196.8	87.9901	10,196.8	87.2754	10,196.8	86.7782	10,196.8	85.3412	10,196.8	84.7626	10,196.8	85.2044	10,196.8	82.3143	10,196.8	82.7189	10,196.8	77.7255	10,196.8	78.8603	10,196.8	76.221	10,196.8	76.3011	10,196.8	73.6674	10,196.8	74.1378	10,196.8	69.5601	10,196.8	69.0192	10,196.8	63.9627	10,196.8	68.1605	10,196.8	66.5282	10,196.8	63.175	10,196.8	68.487	10,196.8	68.6579	10,196.8	67.1834	10,196.8	70.9289	10,196.8	70.085	10,196.8	71.3193	10,196.8	61.1748	10,196.8	72.4574	10,196.8	44.497	10,196.8	61.0103	10,196.8	63.1516
10,555.7	92.2783	10,555.7	92.1664	10,555.7	92.1131	10,555.7	89.9658	10,555.7	90.872	10,555.7	87.6938	10,555.7	87.6713	10,555.7	86.4654	10,555.7	86.0931	10,555.7	84.7633	10,555.7	84.7002	10,555.7	81.7663	10,555.7	82.1635	10,555.7	77.3397	10,555.7	78.0676	10,555.7	76.5588	10,555.7	77.1388	10,555.7	72.4121	10,555.7	73.6369	10,555.7	69.9995	10,555.7	69.8792	10,555.7	66.9885	10,555.7	68.3203	10,555.7	66.9521	10,555.7	65.8556	10,555.7	69.5722	10,555.7	66.3336	10,555.7	68.0719	10,555.7	70.1661	10,555.7	69.0881	10,555.7	71.0939	10,555.7	62.7034	10,555.7	73.1907	10,555.7	48.5501	10,555.7	61.2342	10,555.7	62.726
10,927.7	92.4923	10,927.7	91.8502	10,927.7	92.4368	10,927.7	90.1028	10,927.7	90.6464	10,927.7	87.4276	10,927.7	87.8047	10,927.7	86.6152	10,927.7	85.4012	10,927.7	84.186	10,927.7	84.808	10,927.7	81.79	10,927.7	82.883	10,927.7	78.8684	10,927.7	79.0601	10,927.7	76.2585	10,927.7	77.2982	10,927.7	71.5631	10,927.7	73.6643	10,927.7	69.4742	10,927.7	70.8709	10,927.7	68.2136	10,927.7	67.9186	10,927.7	68.6862	10,927.7	66.4342	10,927.7	66.7758	10,927.7	66.1118	10,927.7	67.7011	10,927.7	69.0499	10,927.7	67.9586	10,927.7	70.935	10,927.7	60.8031	10,927.7	72.6076	10,927.7	55.0392	10,927.7	58.9557	10,927.7	63.8957
11,313	92.1693	11,313	91.7964	11,313	91.978	11,313	89.468	11,313	90.5592	11,313	87.9967	11,313	88.1134	11,313	86.2149	11,313	85.9131	11,313	84.2154	11,313	84.5444	11,313	82.1719	11,313	82.6156	11,313	79.3902	11,313	79.7074	11,313	75.5612	11,313	77.27	11,313	71.9273	11,313	73.7322	11,313	68.5902	11,313	68.8446	11,313	68.273	11,313	67.3417	11,313	66.617	11,313	66.5506	11,313	66.0047	11,313	65.505	11,313	68.378	11,313	67.6234	11,313	66.769	11,313	69.9468	11,313	59.9616	11,313	71.9669	11,313	52.2666	11,313	58.6552	11,313	64.0185
11,712.9	91.9224	11,712.9	91.2281	11,712.9	91.767	11,712.9	89.6402	11,712.9	90.2119	11,712.9	87.6554	11,712.9	88.2586	11,712.9	86.1801	11,712.9	85.6164	11,712.9	84.6647	11,712.9	84.8487	11,712.9	82.1794	11,712.9	83.2232	11,712.9	79.1928	11,712.9	79.624	11,712.9	75.1804	11,712.9	76.6992	11,712.9	70.9136	11,712.9	73.3595	11,712.9	67.6554	11,712.9	68.9356	11,712.9	66.3368	11,712.9	67.2655	11,712.9	67.4632	11,712.9	65.9827	11,712.9	66.9211	11,712.9	65.1311	11,712.9	68.1926	11,712.9	65.1498	11,712.9	65.3723	11,712.9	69.9557	11,712.9	53.7121	11,712.9	71.3079	11,712.9	48.1639	11,712.9	58.805	11,712.9	62.8494
12,126	91.8434	12,126	91.3883	12,126	91.5686	12,126	89.7073	12,126	90.3272	12,126	88.0796	12,126	88.7517	12,126	85.8869	12,126	86.0556	12,126	84.7406	12,126	85.4759	12,126	81.3538	12,126	82.8385	12,126	77.768	12,126	78.5509	12,126	73.3144	12,126	75.2006	12,126	71.2454	12,126	72.369	12,126	68.6609	12,126	65.5959	12,126	67.204	12,126	67.3324	12,126	67.7807	12,126	63.4057	12,126	66.158	12,126	68.2266	12,126	66.6571	12,126	67.0793	12,126	64.086	12,126	68.8815	12,126	50.7119	12,126	69.6262	12,126	60.233	12,126	59.9745	12,126	61.8658
12,553.7	92.0642	12,553.7	91.2493	12,553.7	91.6961	12,553.7	90.1275	12,553.7	90.5897	12,553.7	88.1735	12,553.7	89.1282	12,553.7	86.1076	12,553.7	85.9853	12,553.7	83.9882	12,553.7	84.9703	12,553.7	80.7051	12,553.7	81.8416	12,553.7	76.5087	12,553.7	76.9355	12,553.7	73.321	12,553.7	75.1216	12,553.7	70.9973	12,553.7	72.2932	12,553.7	64.9485	12,553.7	66.3055	12,553.7	66.9048	12,553.7	67.9695	12,553.7	67.5732	12,553.7	62.0973	12,553.7	65.7358	12,553.7	67.6445	12,553.7	66.8821	12,553.7	66.1175	12,553.7	60.1906	12,553.7	67.9752	12,553.7	49.9155	12,553.7	67.5372	12,553.7	60.6514	12,553.7	61.2669	12,553.7	62.1818
12,996.1	92.3271	12,996.1	91.3829	12,996.1	91.6938	12,996.1	90.1968	12,996.1	90.8522	12,996.1	87.705	12,996.1	89.2806	12,996.1	86.1578	12,996.1	85.7544	12,996.1	83.5203	12,996.1	84.4638	12,996.1	79.7356	12,996.1	81.173	12,996.1	76.0521	12,996.1	76.9058	12,996.1	71.5278	12,996.1	73.391	12,996.1	70.0716	12,996.1	71.179	12,996.1	66.2848	12,996.1	65.022	12,996.1	65.6094	12,996.1	66.3412	12,996.1	66.8619	12,996.1	61.6541	12,996.1	63.7616	12,996.1	67.042	12,996.1	64.7311	12,996.1	65.3446	12,996.1	59.6848	12,996.1	65.8091	12,996.1	54.2157	12,996.1	66.2806	12,996.1	61.384	12,996.1	59.6675	12,996.1	61.467
13,454.6	92.559	13,454.6	91.7692	13,454.6	92.1524	13,454.6	90.2534	13,454.6	91.2059	13,454.6	88.0743	13,454.6	89.2729	13,454.6	85.6057	13,454.6	85.7203	13,454.6	82.1525	13,454.6	83.3888	13,454.6	78.3748	13,454.6	79.2089	13,454.6	76.1488	13,454.6	76.3935	13,454.6	71.2622	13,454.6	72.4048	13,454.6	69.6421	13,454.6	69.9902	13,454.6	64.7464	13,454.6	63.3307	13,454.6	62.0928	13,454.6	64.1179	13,454.6	64.9876	13,454.6	61.3274	13,454.6	60.5226	13,454.6	66.2908	13,454.6	64.0457	13,454.6	62.5796	13,454.6	59.2903	13,454.6	63.742	13,454.6	47.3666	13,454.6	67.4295	13,454.6	62.2139	13,454.6	55.5877	13,454.6	62.5264
13,929.2	92.8179	13,929.2	91.7724	13,929.2	92.3887	13,929.2	90.1009	13,929.2	91.2998	13,929.2	87.7375	13,929.2	89.2495	13,929.2	84.4336	13,929.2	85.0186	13,929.2	80.7495	13,929.2	82.1916	13,929.2	77.5704	13,929.2	77.5072	13,929.2	73.8356	13,929.2	75.0654	13,929.2	69.9899	13,929.2	71.5066	13,929.2	68.8386	13,929.2	69.3354	13,929.2	62.6726	13,929.2	63.7946	13,929.2	60.7893	13,929.2	65.8442	13,929.2	61.2978	13,929.2	62.1747	13,929.2	58.8805	13,929.2	64.8237	13,929.2	63.0824	13,929.2	61.9676	13,929.2	53.4313	13,929.2	63.4938	13,929.2	51.0086	13,929.2	66.4563	13,929.2	61.2548	13,929.2	56.1331	13,929.2	61.4153
14,419.9	92.745	14,419.9	91.6289	14,419.9	92.4252	14,419.9	89.8049	14,419.9	90.9919	14,419.9	87.0926	14,419.9	88.8965	14,419.9	84.0664	14,419.9	84.6036	14,419.9	79.8407	14,419.9	81.8269	14,419.9	77.2855	14,419.9	78.8692	14,419.9	73.5506	14,419.9	75.3147	14,419.9	69.321	14,419.9	72.8129	14,419.9	68.461	14,419.9	70.061	14,419.9	61.4072	14,419.9	65.1855	14,419.9	60.377	14,419.9	65.7891	14,419.9	58.3855	14,419.9	62.8384	14,419.9	53.7315	14,419.9	66.6842	14,419.9	58.0781	14,419.9	60.2753	14,419.9	53.4392	14,419.9	63.235	14,419.9	54.4888	14,419.9	64.8812	14,419.9	56.137	14,419.9	53.6324	14,419.9	62.0221
14,928.2	92.5326	14,928.2	91.6352	14,928.2	92.2504	14,928.2	89.5505	14,928.2	90.6183	14,928.2	86.9668	14,928.2	88.7628	14,928.2	84.1095	14,928.2	84.315	14,928.2	80.0028	14,928.2	82.2314	14,928.2	78.0994	14,928.2	79.4591	14,928.2	73.9429	14,928.2	76.9854	14,928.2	71.0409	14,928.2	73.8481	14,928.2	67.8774	14,928.2	71.3565	14,928.2	64.5246	14,928.2	65.5679	14,928.2	56.388	14,928.2	67.4767	14,928.2	57.3217	14,928.2	63.9534	14,928.2	48.1245	14,928.2	66.8177	14,928.2	56.6425	14,928.2	61.959	14,928.2	50.361	14,928.2	62.5887	14,928.2	54.0659	14,928.2	62.3069	14,928.2	55.379	14,928.2	58.193	14,928.2	62.2943
15,455.6	91.7343	15,455.6	91.1867	15,455.6	91.6113	15,455.6	89.0163	15,455.6	90.3965	15,455.6	86.9336	15,455.6	88.8714	15,455.6	83.8444	15,455.6	84.2574	15,455.6	80.574	15,455.6	82.6931	15,455.6	78.4327	15,455.6	78.9436	15,455.6	73.4534	15,455.6	76.0283	15,455.6	72.1416	15,455.6	73.7567	15,455.6	67.5073	15,455.6	71.1876	15,455.6	64.9811	15,455.6	66.0587	15,455.6	60.0326	15,455.6	67.1806	15,455.6	59.0316	15,455.6	63.9261	15,455.6	54.8277	15,455.6	67.142	15,455.6	56.1177	15,455.6	61.678	15,455.6	53.3705	15,455.6	61.6532	15,455.6	55.367	15,455.6	56.0914	15,455.6	53.4559	15,455.6	58.785	15,455.6	61.382
16,000.5	91.0924	16,000.5	90.8445	16,000.5	91.2628	16,000.5	89.3255	16,000.5	90.0057	16,000.5	87.2939	16,000.5	88.9634	16,000.5	84.0196	16,000.5	84.5802	16,000.5	80.5211	16,000.5	82.3479	16,000.5	78.3207	16,000.5	78.8485	16,000.5	73.6137	16,000.5	76.3434	16,000.5	71.4097	16,000.5	73.715	16,000.5	67.5915	16,000.5	71.1724	16,000.5	63.6448	16,000.5	66.6591	16,000.5	59.5454	16,000.5	65.2957	16,000.5	58.4346	16,000.5	63.3329	16,000.5	52.9979	16,000.5	68.8965	16,000.5	54.3489	16,000.5	61.3309	16,000.5	56.5737	16,000.5	60.2751	16,000.5	56.9143	16,000.5	42.1514	16,000.5	57.1995	16,000.5	58.296	16,000.5	59.5476
16,564.5	90.8088	16,564.5	90.776	16,564.5	91.0215	16,564.5	89.7601	16,564.5	89.8908	16,564.5	87.1765	16,564.5	88.9075	16,564.5	84.0209	16,564.5	84.7396	16,564.5	80.044	16,564.5	81.7492	16,564.5	78.1133	16,564.5	78.5314	16,564.5	73.4169	16,564.5	76.2314	16,564.5	70.5449	16,564.5	72.9731	16,564.5	67.1562	16,564.5	70.3621	16,564.5	63.9432	16,564.5	65.1231	16,564.5	54.8806	16,564.5	62.9264	16,564.5	53.3779	16,564.5	62.2026	16,564.5	55.7207	16,564.5	68.1486	16,564.5	51.7713	16,564.5	60.1545	16,564.5	56.8965	16,564.5	57.671	16,564.5	56.6312	16,564.5	50.2541	16,564.5	57.1624	16,564.5	58.6232	16,564.5	55.6696
17,148.9	90.7275	17,148.9	90.948	17,148.9	91.0116	17,148.9	90.0898	17,148.9	90.1254	17,148.9	87.2447	17,148.9	89.0141	17,148.9	84.2346	17,148.9	84.2182	17,148.9	79.0828	17,148.9	80.7412	17,148.9	76.6268	17,148.9	77.399	17,148.9	72.3716	17,148.9	74.2857	17,148.9	69.3105	17,148.9	71.653	17,148.9	66.07	17,148.9	68.4786	17,148.9	60.164	17,148.9	62.2942	17,148.9	52.9615	17,148.9	61.7982	17,148.9	47.1339	17,148.9	61.1988	17,148.9	46.8305	17,148.9	66.7436	17,148.9	43.0094	17,148.9	59.2046	17,148.9	58.9301	17,148.9	59.3725	17,148.9	57.6174	17,148.9	55.6276	17,148.9	54.7698	17,148.9	60.1342	17,148.9	51.029
17,752.4	90.555	17,752.4	90.9513	17,752.4	90.9887	17,752.4	90.091	17,752.4	90.5511	17,752.4	87.1394	17,752.4	89.2528	17,752.4	83.0618	17,752.4	83.5043	17,752.4	77.9142	17,752.4	79.5306	17,752.4	73.5007	17,752.4	76.0049	17,752.4	69.8386	17,752.4	73.356	17,752.4	67.5003	17,752.4	70.6204	17,752.4	64.1127	17,752.4	68.2154	17,752.4	59.7183	17,752.4	64.2099	17,752.4	55.5887	17,752.4	61.9069	17,752.4	48.2127	17,752.4	60.8926	17,752.4	50.6056	17,752.4	66.1132	17,752.4	38.9829	17,752.4	58.173	17,752.4	57.028	17,752.4	60.1492	17,752.4	57.969	17,752.4	58.2896	17,752.4	55.9565	17,752.4	59.0599	17,752.4	30.0883
18,379.4	90.2966	18,379.4	90.6977	18,379.4	90.919	18,379.4	89.775	18,379.4	90.4177	18,379.4	86.1024	18,379.4	88.5164	18,379.4	80.7111	18,379.4	82.3676	18,379.4	75.9718	18,379.4	78.2503	18,379.4	71.5538	18,379.4	75.1072	18,379.4	69.5754	18,379.4	72.8306	18,379.4	67.1547	18,379.4	70.8614	18,379.4	64.4889	18,379.4	67.8375	18,379.4	59.2458	18,379.4	62.8273	18,379.4	58.0034	18,379.4	60.4228	18,379.4	45.6965	18,379.4	61.9183	18,379.4	50.8884	18,379.4	65.3732	18,379.4	35.2385	18,379.4	56.3825	18,379.4	59.4636	18,379.4	57.3362	18,379.4	57.991	18,379.4	57.6835	18,379.4	53.5776	18,379.4	58.4176	18,379.4	39.5584
19,026.9	89.9431	19,026.9	90.3449	19,026.9	90.5447	19,026.9	88.8847	19,026.9	89.9509	19,026.9	84.5371	19,026.9	87.4554	19,026.9	78.8961	19,026.9	80.8395	19,026.9	73.0539	19,026.9	76.7994	19,026.9	70.7701	19,026.9	73.9054	19,026.9	70.0165	19,026.9	72.3399	19,026.9	66.6545	19,026.9	69.988	19,026.9	63.3877	19,026.9	66.4716	19,026.9	58.0389	19,026.9	61.5985	19,026.9	54.2446	19,026.9	57.8573	19,026.9	39.107	19,026.9	59.4876	19,026.9	49.741	19,026.9	63.7313	19,026.9	41.0188	19,026.9	53.5127	19,026.9	58.0006	19,026.9	57.0315	19,026.9	54.3968	19,026.9	58.433	19,026.9	48.6691	19,026.9	56.4652	19,026.9	51.189
19,697.8	89.3652	19,697.8	89.6865	19,697.8	89.6639	19,697.8	87.7397	19,697.8	88.9469	19,697.8	82.3296	19,697.8	86.0078	19,697.8	75.5026	19,697.8	79.2414	19,697.8	70.8521	19,697.8	75.2967	19,697.8	71.2195	19,697.8	73.9094	19,697.8	68.2616	19,697.8	72.4535	19,697.8	65.8879	19,697.8	68.4691	19,697.8	62.6472	19,697.8	65.8268	19,697.8	57.2256	19,697.8	62.2247	19,697.8	55.5965	19,697.8	57.7664	19,697.8	49.3457	19,697.8	60.0202	19,697.8	41.4317	19,697.8	61.8977	19,697.8	40.7383	19,697.8	52.7731	19,697.8	53.0293	19,697.8	56.1917	19,697.8	50.8396	19,697.8	57.0086	19,697.8	47.6335	19,697.8	52.9628	19,697.8	50.4247
19,999.5	89.0032	19,999.5	89.4388	19,999.5	89.4476	19,999.5	87.2531	19,999.5	88.2959	19,999.5	80.7282	19,999.5	85.4111	19,999.5	73.2764	19,999.5	78.4956	19,999.5	70.7827	19,999.5	75.1609	19,999.5	71.9968	19,999.5	74.0042	19,999.5	68.8376	19,999.5	71.9491	19,999.5	66.5166	19,999.5	69.9354	19,999.5	62.8847	19,999.5	65.4133	19,999.5	56.6363	19,999.5	60.9898	19,999.5	53.0573	19,999.5	60.6337	19,999.5	55.3258	19,999.5	60.2832	19,999.5	55.4842	19,999.5	62.296	19,999.5	59.342	19,999.5	51.3486	19,999.5	46.8844	19,999.5	61.5849	19,999.5	53.5117	19,999.5	58.098	19,999.5	46.4681	19,999.5	51.5264	19,999.5	46.9795
