"SPL Vertical"
"On-Axis"		"10°"		"-10°"		"20°"		"-20°"		"30°"		"-30°"		"40°"		"-40°"		"50°"		"-50°"		"60°"		"-60°"		"70°"		"-70°"		"80°"		"-80°"		"90°"		"-90°"		"100°"		"-100°"		"110°"		"-110°"		"120°"		"-120°"		"130°"		"-130°"		"140°"		"-140°"		"150°"		"-150°"		"160°"		"-160°"		"170°"		"-170°"		"180°"
"Frequency [Hz]"	"Sound Pessure Level [dB]  / [2.83V 1m] "	"Frequency [Hz]"	"Sound Pessure Level [dB]  / [2.83V 1m] "	"Frequency [Hz]"	"Sound Pessure Level [dB]  / [2.83V 1m] "	"Frequency [Hz]"	"Sound Pessure Level [dB]  / [2.83V 1m] "	"Frequency [Hz]"	"Sound Pessure Level [dB]  / [2.83V 1m] "	"Frequency [Hz]"	"Sound Pessure Level [dB]  / [2.83V 1m] "	"Frequency [Hz]"	"Sound Pessure Level [dB]  / [2.83V 1m] "	"Frequency [Hz]"	"Sound Pessure Level [dB]  / [2.83V 1m] "	"Frequency [Hz]"	"Sound Pessure Level [dB]  / [2.83V 1m] "	"Frequency [Hz]"	"Sound Pessure Level [dB]  / [2.83V 1m] "	"Frequency [Hz]"	"Sound Pessure Level [dB]  / [2.83V 1m] "	"Frequency [Hz]"	"Sound Pessure Level [dB]  / [2.83V 1m] "	"Frequency [Hz]"	"Sound Pessure Level [dB]  / [2.83V 1m] "	"Frequency [Hz]"	"Sound Pessure Level [dB]  / [2.83V 1m] "	"Frequency [Hz]"	"Sound Pessure Level [dB]  / [2.83V 1m] "	"Frequency [Hz]"	"Sound Pessure Level [dB]  / [2.83V 1m] "	"Frequency [Hz]"	"Sound Pessure Level [dB]  / [2.83V 1m] "	"Frequency [Hz]"	"Sound Pessure Level [dB]  / [2.83V 1m] "	"Frequency [Hz]"	"Sound Pessure Level [dB]  / [2.83V 1m] "	"Frequency [Hz]"	"Sound Pessure Level [dB]  / [2.83V 1m] "	"Frequency [Hz]"	"Sound Pessure Level [dB]  / [2.83V 1m] "	"Frequency [Hz]"	"Sound Pessure Level [dB]  / [2.83V 1m] "	"Frequency [Hz]"	"Sound Pessure Level [dB]  / [2.83V 1m] "	"Frequency [Hz]"	"Sound Pessure Level [dB]  / [2.83V 1m] "	"Frequency [Hz]"	"Sound Pessure Level [dB]  / [2.83V 1m] "	"Frequency [Hz]"	"Sound Pessure Level [dB]  / [2.83V 1m] "	"Frequency [Hz]"	"Sound Pessure Level [dB]  / [2.83V 1m] "	"Frequency [Hz]"	"Sound Pessure Level [dB]  / [2.83V 1m] "	"Frequency [Hz]"	"Sound Pessure Level [dB]  / [2.83V 1m] "	"Frequency [Hz]"	"Sound Pessure Level [dB]  / [2.83V 1m] "	"Frequency [Hz]"	"Sound Pessure Level [dB]  / [2.83V 1m] "	"Frequency [Hz]"	"Sound Pessure Level [dB]  / [2.83V 1m] "	"Frequency [Hz]"	"Sound Pessure Level [dB]  / [2.83V 1m] "	"Frequency [Hz]"	"Sound Pessure Level [dB]  / [2.83V 1m] "	"Frequency [Hz]"	"Sound Pessure Level [dB]  / [2.83V 1m] "	"Frequency [Hz]"	"Sound Pessure Level [dB]  / [2.83V 1m] "
20.5078	44.9624	20.5078	44.4409	20.5078	45.297	20.5078	43.8854	20.5078	45.3766	20.5078	43.5834	20.5078	45.1798	20.5078	43.8848	20.5078	44.7359	20.5078	44.9083	20.5078	44.1879	20.5078	46.4128	20.5078	43.9119	20.5078	48.0719	20.5078	44.4534	20.5078	49.6824	20.5078	45.9517	20.5078	51.1583	20.5078	47.9374	20.5078	52.4736	20.5078	49.9352	20.5078	53.6253	20.5078	51.7272	20.5078	54.6172	20.5078	53.2519	20.5078	55.4537	20.5078	54.5063	20.5078	56.1367	20.5078	55.5052	20.5078	56.6658	20.5078	56.2663	20.5078	57.0377	20.5078	56.8068	20.5078	57.2465	20.5078	57.1417	20.5078	57.2844
21.9727	49.1355	21.9727	48.4719	21.9727	49.5355	21.9727	47.581	21.9727	49.6572	21.9727	46.5726	21.9727	49.4889	21.9727	45.7321	21.9727	49.0224	21.9727	45.5551	21.9727	48.2747	21.9727	46.3659	21.9727	47.3586	21.9727	47.8911	21.9727	46.6399	21.9727	49.639	21.9727	46.7764	21.9727	51.318	21.9727	48.0581	21.9727	52.8229	21.9727	49.9563	21.9727	54.1304	21.9727	51.8833	21.9727	55.2438	21.9727	53.5834	21.9727	56.1716	21.9727	54.9936	21.9727	56.9207	21.9727	56.1168	21.9727	57.494	21.9727	56.9726	21.9727	57.8908	21.9727	57.5822	21.9727	58.1069	21.9727	57.9643	21.9727	58.1348
23.4375	48.9629	23.4375	48.1069	23.4375	49.4433	23.4375	46.8757	23.4375	49.5496	23.4375	45.3584	23.4375	49.2633	23.4375	44.0169	23.4375	48.5391	23.4375	43.9526	23.4375	47.3129	23.4375	45.6123	23.4375	45.586	23.4375	47.9608	23.4375	43.8957	23.4375	50.213	23.4375	44.1231	23.4375	52.1664	23.4375	46.7117	23.4375	53.8188	23.4375	49.6773	23.4375	55.2062	23.4375	52.1951	23.4375	56.3617	23.4375	54.2115	23.4375	57.3096	23.4375	55.8004	23.4375	58.0649	23.4375	57.032	23.4375	58.6353	23.4375	57.9581	23.4375	59.0226	23.4375	58.6162	23.4375	59.2236	23.4375	59.0337	23.4375	59.231
24.9023	50.6246	24.9023	50.0019	24.9023	50.9929	24.9023	49.204	24.9023	51.0733	24.9023	48.4278	24.9023	50.8476	24.9023	48.0593	24.9023	50.3115	24.9023	48.5093	24.9023	49.511	24.9023	49.7699	24.9023	48.6577	24.9023	51.4354	24.9023	48.3095	24.9023	53.1469	24.9023	49.1155	24.9023	54.7353	24.9023	50.9215	24.9023	56.1464	24.9023	53.0201	24.9023	57.372	24.9023	54.9745	24.9023	58.4175	24.9023	56.6478	24.9023	59.2899	24.9023	58.0235	24.9023	59.9943	24.9023	59.1182	24.9023	60.532	24.9023	59.9548	24.9023	60.9012	24.9023	60.5543	24.9023	61.0969	24.9023	60.9349	24.9023	61.1115
26.3672	52.7527	26.3672	52.1396	26.3672	53.1108	26.3672	51.3209	26.3672	53.1925	26.3672	50.4278	26.3672	52.9829	26.3672	49.7622	26.3672	52.4733	26.3672	49.7745	26.3672	51.6852	26.3672	50.6823	26.3672	50.7533	26.3672	52.1944	26.3672	50.0971	26.3672	53.8838	26.3672	50.4046	26.3672	55.5018	26.3672	51.8573	26.3672	56.955	26.3672	53.8393	26.3672	58.2206	26.3672	55.7914	26.3672	59.3	26.3672	57.4951	26.3672	60.1994	26.3672	58.9041	26.3672	60.9244	26.3672	60.0272	26.3672	61.4769	26.3672	60.8853	26.3672	61.8558	26.3672	61.5001	26.3672	62.0565	26.3672	61.8902	26.3672	62.0714
27.832	54.4049	27.832	53.8936	27.832	54.71	27.832	53.2392	27.832	54.7792	27.832	52.5776	27.832	54.5977	27.832	52.1585	27.832	54.1661	27.832	52.2874	27.832	53.5249	27.832	53.0876	27.832	52.8221	27.832	54.3703	27.832	52.4138	27.832	55.8393	27.832	52.7826	27.832	57.29	27.832	54.0379	27.832	58.6249	27.832	55.7616	27.832	59.8079	27.832	57.5185	27.832	60.8287	27.832	59.0953	27.832	61.6863	27.832	60.4245	27.832	62.3811	27.832	61.4974	27.832	62.9122	27.832	62.3244	27.832	63.2764	27.832	62.9207	27.832	63.4683	27.832	63.3013	27.832	63.4798
29.2969	56.2938	29.2969	55.8472	29.2969	56.5593	29.2969	55.2732	29.2969	56.6165	29.2969	54.6785	29.2969	56.4519	29.2969	54.2513	29.2969	56.0674	29.2969	54.235	29.2969	55.4994	29.2969	54.7806	29.2969	54.8688	29.2969	55.8089	29.2969	54.4533	29.2969	57.0929	29.2969	54.6472	29.2969	58.4292	29.2969	55.6224	29.2969	59.6983	29.2969	57.1104	29.2969	60.8446	29.2969	58.7212	29.2969	61.8458	29.2969	60.2164	29.2969	62.6933	29.2969	61.5002	29.2969	63.3837	29.2969	62.5467	29.2969	63.9137	29.2969	63.3574	29.2969	64.2791	29.2969	63.9429	29.2969	64.4735	29.2969	64.316	29.2969	64.4891
30.7617	58.5862	30.7617	58.1682	30.7617	58.8312	30.7617	57.6157	30.7617	58.8827	30.7617	57.0042	30.7617	58.7307	30.7617	56.4721	30.7617	58.3765	30.7617	56.2235	30.7617	57.8472	30.7617	56.4484	30.7617	57.2297	30.7617	57.1776	30.7617	56.725	30.7617	58.2568	30.7617	56.6534	30.7617	59.4793	30.7617	57.2554	30.7617	60.6937	30.7617	58.4304	30.7617	61.8171	30.7617	59.8518	30.7617	62.8106	30.7617	61.2499	30.7617	63.6572	30.7617	62.4878	30.7617	64.3486	30.7617	63.5144	30.7617	64.8797	30.7617	64.3181	30.7617	65.2453	30.7617	64.9025	30.7617	65.4388	30.7617	65.2772	30.7617	65.4525
32.2266	59.2619	32.2266	58.8354	32.2266	59.517	32.2266	58.2792	32.2266	59.5796	32.2266	57.6756	32.2266	59.4401	32.2266	57.1741	32.2266	59.1019	32.2266	56.9874	32.2266	58.5954	32.2266	57.296	32.2266	58.0128	32.2266	58.1023	32.2266	57.56	32.2266	59.232	32.2266	57.5507	32.2266	60.4789	32.2266	58.2026	32.2266	61.7009	32.2266	59.3999	32.2266	62.8228	32.2266	60.8237	32.2266	63.8107	32.2266	62.2168	32.2266	64.6499	32.2266	63.4492	32.2266	65.3337	32.2266	64.4719	32.2266	65.8574	32.2266	65.2737	32.2266	66.2163	32.2266	65.8583	32.2266	66.4041	32.2266	66.2347	32.2266	66.4133
33.6914	60.9633	33.6914	60.6321	33.6914	61.1791	33.6914	60.2302	33.6914	61.2546	33.6914	59.8329	33.6914	61.1788	33.6914	59.5522	33.6914	60.9558	33.6914	59.521	33.6914	60.6142	33.6914	59.8359	33.6914	60.2281	33.6914	60.496	33.6914	59.9413	33.6914	61.4041	33.6914	59.9566	33.6914	62.4311	33.6914	60.4314	33.6914	63.47	33.6914	61.3416	33.6914	64.4508	33.6914	62.5005	33.6914	65.3329	33.6914	63.705	33.6914	66.0934	33.6914	64.8192	33.6914	66.7182	33.6914	65.774	33.6914	67.1974	33.6914	66.5406	33.6914	67.5224	33.6914	67.1112	33.6914	67.6848	33.6914	67.4876	33.6914	67.6761
35.1562	62.9096	35.1562	62.6163	35.1562	63.1028	35.1562	62.262	35.1562	63.1735	35.1562	61.9093	35.1562	63.1119	35.1562	61.6486	35.1562	62.9226	35.1562	61.5865	35.1562	62.6319	35.1562	61.8083	35.1562	62.3031	35.1562	62.3315	35.1562	62.0532	35.1562	63.0948	35.1562	62.0439	35.1562	63.9963	35.1562	62.4104	35.1562	64.9385	35.1562	63.1593	35.1562	65.8496	35.1562	64.1589	35.1562	66.6833	35.1562	65.237	35.1562	67.4109	35.1562	66.2612	35.1562	68.0144	35.1562	67.1545	35.1562	68.4808	35.1562	67.8796	35.1562	68.7997	35.1562	68.4224	35.1562	68.9618	35.1562	68.7807	35.1562	68.9582
36.6211	64.5087	36.6211	64.2264	36.6211	64.6941	36.6211	63.8816	36.6211	64.7629	36.6211	63.5283	36.6211	64.7063	36.6211	63.2452	36.6211	64.5276	36.6211	63.1285	36.6211	64.2491	36.6211	63.2635	36.6211	63.925	36.6211	63.6829	36.6211	63.6554	36.6211	64.3473	36.6211	63.5838	36.6211	65.1691	36.6211	63.8437	36.6211	66.0537	36.6211	64.4681	36.6211	66.9257	36.6211	65.3587	36.6211	67.7337	36.6211	66.3583	36.6211	68.4447	36.6211	67.3321	36.6211	69.0372	36.6211	68.1951	36.6211	69.4964	36.6211	68.9027	36.6211	69.8107	36.6211	69.4359	36.6211	69.9701	36.6211	69.7896	36.6211	69.9657
38.0859	66.026	38.0859	65.7637	38.0859	66.2008	38.0859	65.4454	38.0859	66.2696	38.0859	65.1198	38.0859	66.2243	38.0859	64.8562	38.0859	66.0688	38.0859	64.7382	38.0859	65.8243	38.0859	64.8417	38.0859	65.5398	38.0859	65.2013	38.0859	65.3032	38.0859	65.791	38.0859	65.2376	38.0859	66.5388	38.0859	65.459	38.0859	67.3602	38.0859	66.0046	38.0859	68.1829	38.0859	66.8013	38.0859	68.9543	38.0859	67.7155	38.0859	69.6392	38.0859	68.6224	38.0859	70.2139	38.0859	69.4368	38.0859	70.6618	38.0859	70.1106	38.0859	70.9702	38.0859	70.621	38.0859	71.1284	38.0859	70.9599	38.0859	71.1274
39.5508	67.3998	39.5508	67.1504	39.5508	67.5666	39.5508	66.8475	39.5508	67.6331	39.5508	66.5359	39.5508	67.5919	39.5508	66.2785	39.5508	67.4467	39.5508	66.151	39.5508	67.2176	39.5508	66.2237	39.5508	66.9495	39.5508	66.533	39.5508	66.7223	39.5508	67.0624	39.5508	66.6468	39.5508	67.7512	39.5508	66.83	39.5508	68.5219	39.5508	67.3134	39.5508	69.3046	39.5508	68.0404	39.5508	70.0462	39.5508	68.8926	39.5508	70.7096	39.5508	69.7514	39.5508	71.2694	39.5508	70.5313	39.5508	71.7076	39.5508	71.1814	39.5508	72.0103	39.5508	71.6761	39.5508	72.1666	39.5508	72.005	39.5508	72.1672
41.0156	68.6995	41.0156	68.4699	41.0156	68.8557	41.0156	68.1948	41.0156	68.9224	41.0156	67.9167	41.0156	68.8939	41.0156	67.6934	41.0156	68.776	41.0156	67.5932	41.0156	68.5905	41.0156	67.6781	41.0156	68.3818	41.0156	67.9796	41.0156	68.2227	41.0156	68.4836	41.0156	68.207	41.0156	69.1369	41.0156	68.4193	41.0156	69.8703	41.0156	68.8884	41.0156	70.6189	41.0156	69.5654	41.0156	71.3322	41.0156	70.3522	41.0156	71.9735	41.0156	71.1472	41.0156	72.5172	41.0156	71.8734	41.0156	72.9449	41.0156	72.482	41.0156	73.2424	41.0156	72.9467	41.0156	73.3987	41.0156	73.2553	41.0156	73.4051
42.4805	70.1932	42.4805	69.9879	42.4805	70.3379	42.4805	69.7471	42.4805	70.4068	42.4805	69.5073	42.4805	70.3933	42.4805	69.3166	42.4805	70.3014	42.4805	69.2299	42.4805	70.1483	42.4805	69.2975	42.4805	69.9698	42.4805	69.5474	42.4805	69.8249	42.4805	69.9733	42.4805	69.7913	42.4805	70.5371	42.4805	69.9437	42.4805	71.1832	42.4805	70.3182	42.4805	71.8553	42.4805	70.8881	42.4805	72.5055	42.4805	71.577	42.4805	73.097	42.4805	72.2948	42.4805	73.6025	42.4805	72.9656	42.4805	74.0018	42.4805	73.5375	42.4805	74.2794	42.4805	73.9798	42.4805	74.4233	42.4805	74.2771	42.4805	74.4245
43.9453	71.3862	43.9453	71.1919	43.9453	71.5256	43.9453	70.9669	43.9453	71.5955	43.9453	70.7461	43.9453	71.5899	43.9453	70.5743	43.9453	71.5131	43.9453	70.502	43.9453	71.3822	43.9453	70.5747	43.9453	71.2316	43.9453	70.8172	43.9453	71.1157	43.9453	71.2242	43.9453	71.1043	43.9453	71.7613	43.9453	71.263	43.9453	72.3779	43.9453	71.6228	43.9453	73.0216	43.9453	72.1605	43.9453	73.6469	43.9453	72.8088	43.9453	74.2179	43.9453	73.4864	43.9453	74.7077	43.9453	74.1224	43.9453	75.096	43.9453	74.6669	43.9453	75.367	43.9453	75.0891	43.9453	75.5088	43.9453	75.373	43.9453	75.5126
45.4102	72.7156	45.4102	72.5433	45.4102	72.8424	45.4102	72.3473	45.4102	72.9103	45.4102	72.1577	45.4102	72.9139	45.4102	72.0125	45.4102	72.8569	45.4102	71.954	45.4102	72.7545	45.4102	72.0197	45.4102	72.6364	45.4102	72.2318	45.4102	72.549	45.4102	72.5885	45.4102	72.5505	45.4102	73.0642	45.4102	72.6957	45.4102	73.6178	45.4102	73.0129	45.4102	74.2039	45.4102	73.4871	45.4102	74.7806	45.4102	74.065	45.4102	75.3131	45.4102	74.677	45.4102	75.7741	45.4102	75.2586	45.4102	76.1424	45.4102	75.7613	45.4102	76.4015	45.4102	76.1534	45.4102	76.5391	45.4102	76.4174	45.4102	76.546
46.875	73.9235	46.875	73.7672	46.875	74.041	46.875	73.5914	46.875	74.1073	46.875	73.4227	46.875	74.1176	46.875	73.2941	46.875	74.075	46.875	73.2417	46.875	73.9929	46.875	73.2981	46.875	73.8974	46.875	73.4836	46.875	73.8283	46.875	73.799	46.875	73.8354	46.875	74.2246	46.875	73.9662	46.875	74.7265	46.875	74.2468	46.875	75.2644	46.875	74.668	46.875	75.7996	46.875	75.1868	46.875	76.2986	46.875	75.7429	46.875	76.734	46.875	76.2773	46.875	77.0842	46.875	76.7433	46.875	77.3322	46.875	77.1089	46.875	77.4654	46.875	77.3555	46.875	77.4746
48.3398	74.9822	48.3398	74.8248	48.3398	75.1004	48.3398	74.6466	48.3398	75.1675	48.3398	74.4728	48.3398	75.1787	48.3398	74.3346	48.3398	75.1365	48.3398	74.2664	48.3398	75.0531	48.3398	74.2997	48.3398	74.9528	48.3398	74.4556	48.3398	74.8727	48.3398	74.737	48.3398	74.8599	48.3398	75.1277	48.3398	74.9604	48.3398	75.5967	48.3398	75.2024	48.3398	76.1057	48.3398	75.5813	48.3398	76.6169	48.3398	76.0595	48.3398	77.0969	48.3398	76.5809	48.3398	77.5177	48.3398	77.0879	48.3398	77.8575	48.3398	77.5337	48.3398	78.0989	48.3398	77.8854	48.3398	78.2288	48.3398	78.1235	48.3398	78.2384
51.2695	76.8166	51.2695	76.6866	51.2695	76.9182	51.2695	76.5434	51.2695	76.9814	51.2695	76.4072	51.2695	77.0021	51.2695	76.3026	51.2695	76.9826	51.2695	76.2556	51.2695	76.9332	51.2695	76.2904	51.2695	76.8734	51.2695	76.4231	51.2695	76.8319	51.2695	76.6579	51.2695	76.8442	51.2695	76.9846	51.2695	76.9446	51.2695	77.3809	51.2695	77.1543	51.2695	77.8174	51.2695	77.4719	51.2695	78.2626	51.2695	77.8714	51.2695	78.6867	51.2695	78.3103	51.2695	79.0637	51.2695	78.7419	51.2695	79.3719	51.2695	79.1253	51.2695	79.594	51.2695	79.4297	51.2695	79.7168	51.2695	79.6352	51.2695	79.7318
52.7344	77.6686	52.7344	77.5459	52.7344	77.7661	52.7344	77.4119	52.7344	77.8294	52.7344	77.285	52.7344	77.8545	52.7344	77.1871	52.7344	77.8432	52.7344	77.1414	52.7344	77.8044	52.7344	77.1696	52.7344	77.7553	52.7344	77.2869	52.7344	77.7211	52.7344	77.4978	52.7344	77.7331	52.7344	77.7945	52.7344	77.8219	52.7344	78.1582	52.7344	78.0079	52.7344	78.5625	52.7344	78.2918	52.7344	78.9785	52.7344	78.6527	52.7344	79.3777	52.7344	79.0535	52.7344	79.7347	52.7344	79.4517	52.7344	80.0283	52.7344	79.8082	52.7344	80.2408	52.7344	80.0929	52.7344	80.3594	52.7344	80.2856	52.7344	80.3754
54.1992	78.4651	54.1992	78.3512	54.1992	78.5574	54.1992	78.2285	54.1992	78.6195	54.1992	78.1136	54.1992	78.6476	54.1992	78.0262	54.1992	78.6432	54.1992	77.9872	54.1992	78.6142	54.1992	78.0158	54.1992	78.5759	54.1992	78.1256	54.1992	78.551	54.1992	78.3213	54.1992	78.5675	54.1992	78.5965	54.1992	78.6529	54.1992	78.9348	54.1992	78.826	54.1992	79.3128	54.1992	79.0886	54.1992	79.7038	54.1992	79.4227	54.1992	80.081	54.1992	79.7953	54.1992	80.42	54.1992	80.1673	54.1992	80.7	54.1992	80.5019	54.1992	80.9037	54.1992	80.7698	54.1992	81.0182	54.1992	80.9512	54.1992	81.0351
55.6641	79.2516	55.6641	79.1411	55.6641	79.3409	55.6641	79.0213	55.6641	79.401	55.6641	78.9076	55.6641	79.4283	55.6641	78.8183	55.6641	79.4242	55.6641	78.7729	55.6641	79.3962	55.6641	78.7897	55.6641	79.3585	55.6641	78.8822	55.6641	79.3322	55.6641	79.0558	55.6641	79.3434	55.6641	79.3059	55.6641	79.4181	55.6641	79.6184	55.6641	79.5741	55.6641	79.9719	55.6641	79.8141	55.6641	80.3412	55.6641	80.1225	55.6641	80.7006	55.6641	80.4691	55.6641	81.026	55.6641	80.817	55.6641	81.2967	55.6641	81.1311	55.6641	81.4953	55.6641	81.3829	55.6641	81.6088	55.6641	81.5525	55.6641	81.6289
58.5938	80.5809	58.5938	80.4843	58.5938	80.6637	58.5938	80.3841	58.5938	80.7255	58.5938	80.2935	58.5938	80.7632	58.5938	80.2275	58.5938	80.7775	58.5938	80.2017	58.5938	80.7746	58.5938	80.2303	58.5938	80.766	58.5938	80.3234	58.5938	80.7683	58.5938	80.4852	58.5938	80.8019	58.5938	80.7118	58.5938	80.8864	58.5938	80.9918	58.5938	81.0354	58.5938	81.3078	58.5938	81.2508	58.5938	81.6388	58.5938	81.5208	58.5938	81.9627	58.5938	81.8215	58.5938	82.258	58.5938	82.123	58.5938	82.5056	58.5938	82.3953	58.5938	82.6895	58.5938	82.6133	58.5938	82.7974	58.5938	82.7589	58.5938	82.8214
60.0586	81.2252	60.0586	81.1405	60.0586	81.2982	60.0586	81.0525	60.0586	81.354	60.0586	80.9719	60.0586	81.3904	60.0586	80.9116	60.0586	81.4084	60.0586	80.8854	60.0586	81.4131	60.0586	80.9061	60.0586	81.4138	60.0586	80.984	60.0586	81.4241	60.0586	81.1237	60.0586	81.4606	60.0586	81.3235	60.0586	81.5396	60.0586	81.5745	60.0586	81.6729	60.0586	81.8615	60.0586	81.8634	60.0586	82.1657	60.0586	82.1022	60.0586	82.466	60.0586	82.3699	60.0586	82.7419	60.0586	82.6405	60.0586	82.9746	60.0586	82.8871	60.0586	83.1484	60.0586	83.0859	60.0586	83.2511	60.0586	83.2189	60.0586	83.2753
62.9883	82.3638	62.9883	82.2891	62.9883	82.431	62.9883	82.2136	62.9883	82.486	62.9883	82.146	62.9883	82.5271	62.9883	82.0965	62.9883	82.5548	62.9883	82.0761	62.9883	82.5731	62.9883	82.0954	62.9883	82.589	62.9883	82.1627	62.9883	82.6131	62.9883	82.2825	62.9883	82.6577	62.9883	82.454	62.9883	82.7356	62.9883	82.6707	62.9883	82.8559	62.9883	82.9208	62.9883	83.0213	62.9883	83.1886	62.9883	83.2251	62.9883	83.4561	62.9883	83.4523	62.9883	83.7048	62.9883	83.6817	62.9883	83.9175	62.9883	83.8904	62.9883	84.0794	62.9883	84.0575	62.9883	84.1788	62.9883	84.167	62.9883	84.2087
64.4531	82.839	64.4531	82.7689	64.4531	82.904	64.4531	82.6998	64.4531	82.9597	64.4531	82.6395	64.4531	83.0044	64.4531	82.5972	64.4531	83.0385	64.4531	82.5827	64.4531	83.0652	64.4531	82.6052	64.4531	83.0908	64.4531	82.6722	64.4531	83.1241	64.4531	82.7876	64.4531	83.1762	64.4531	82.9509	64.4531	83.2577	64.4531	83.1563	64.4531	83.3768	64.4531	83.3932	64.4531	83.5352	64.4531	83.6472	64.4531	83.7273	64.4531	83.9016	64.4531	83.9393	64.4531	84.1393	64.4531	84.1522	64.4531	84.3438	64.4531	84.345	64.4531	84.5008	64.4531	84.4984	64.4531	84.5992	64.4531	84.5972	64.4531	84.632
67.3828	83.6866	67.3828	83.6238	67.3828	83.7484	67.3828	83.5651	67.3828	83.8058	67.3828	83.5166	67.3828	83.8571	67.3828	83.4856	67.3828	83.9026	67.3828	83.4798	67.3828	83.9444	67.3828	83.5065	67.3828	83.987	67.3828	83.5714	67.3828	84.0369	67.3828	83.6778	67.3828	84.1017	67.3828	83.8252	67.3828	84.1892	67.3828	84.0091	67.3828	84.3047	67.3828	84.2209	67.3828	84.4494	67.3828	84.4487	67.3828	84.6184	67.3828	84.6784	67.3828	84.8008	67.3828	84.8949	67.3828	84.9812	67.3828	85.0835	67.3828	85.1425	67.3828	85.2312	67.3828	85.2683	67.3828	85.3277	67.3828	85.3457	67.3828	85.3666
68.8477	84.1826	68.8477	84.1242	68.8477	84.2427	68.8477	84.0717	68.8477	84.3014	68.8477	84.0305	68.8477	84.3571	68.8477	84.0066	68.8477	84.4095	68.8477	84.0066	68.8477	84.4603	68.8477	84.0365	68.8477	84.5126	68.8477	84.1012	68.8477	84.5712	68.8477	84.2031	68.8477	84.6421	68.8477	84.3421	68.8477	84.7313	68.8477	84.514	68.8477	84.8431	68.8477	84.7116	68.8477	84.9783	68.8477	84.9241	68.8477	85.133	68.8477	85.1389	68.8477	85.2979	68.8477	85.3421	68.8477	85.4599	68.8477	85.5203	68.8477	85.6037	68.8477	85.6612	68.8477	85.7149	68.8477	85.7551	68.8477	85.7814	68.8477	85.7958
71.7773	85.2963	71.7773	85.2441	71.7773	85.3525	71.7773	85.1992	71.7773	85.4104	71.7773	85.1654	71.7773	85.4684	71.7773	85.1468	71.7773	85.5257	71.7773	85.1481	71.7773	85.5826	71.7773	85.1738	71.7773	85.6406	71.7773	85.2274	71.7773	85.7023	71.7773	85.3113	71.7773	85.7713	71.7773	85.4255	71.7773	85.8516	71.7773	85.5675	71.7773	85.9464	71.7773	85.7319	71.7773	86.0567	71.7773	85.9108	71.7773	86.18	71.7773	86.0938	71.7773	86.3098	71.7773	86.2693	71.7773	86.4364	71.7773	86.4257	71.7773	86.5479	71.7773	86.5521	71.7773	86.6322	71.7773	86.6396	71.7773	86.6793	71.7773	86.6826
74.707	85.985	74.707	85.9391	74.707	86.0372	74.707	85.9016	74.707	86.0937	74.707	85.8751	74.707	86.153	74.707	85.8627	74.707	86.214	74.707	85.8673	74.707	86.2761	74.707	85.8922	74.707	86.3395	74.707	85.9399	74.707	86.4053	74.707	86.0123	74.707	86.4753	74.707	86.1096	74.707	86.5518	74.707	86.2302	74.707	86.6367	74.707	86.3701	74.707	86.7308	74.707	86.5231	74.707	86.8325	74.707	86.681	74.707	86.937	74.707	86.8341	74.707	87.0371	74.707	86.9725	74.707	87.1235	74.707	87.0865	74.707	87.1866	74.707	87.1683	74.707	87.2183	74.707	87.2128
77.6367	86.6112	77.6367	86.57	77.6367	86.6606	77.6367	86.5382	77.6367	86.7166	77.6367	86.5177	77.6367	86.7777	77.6367	86.51	77.6367	86.8426	77.6367	86.5172	77.6367	86.9099	77.6367	86.5412	77.6367	86.9788	77.6367	86.5839	77.6367	87.049	77.6367	86.6467	77.6367	87.1206	77.6367	86.7298	77.6367	87.1947	77.6367	86.8323	77.6367	87.272	77.6367	86.9514	77.6367	87.3531	77.6367	87.0826	77.6367	87.4366	77.6367	87.2193	77.6367	87.5196	77.6367	87.3536	77.6367	87.5965	77.6367	87.4771	77.6367	87.6606	77.6367	87.5814	77.6367	87.7043	77.6367	87.6595	77.6367	87.7212	77.6367	87.7067
79.1016	87.1161	79.1016	87.0764	79.1016	87.1644	79.1016	87.0465	79.1016	87.2202	79.1016	87.0276	79.1016	87.2821	79.1016	87.021	79.1016	87.3484	79.1016	87.028	79.1016	87.4175	79.1016	87.0501	79.1016	87.4882	79.1016	87.089	79.1016	87.5592	79.1016	87.1457	79.1016	87.6305	79.1016	87.2208	79.1016	87.702	79.1016	87.3135	79.1016	87.7744	79.1016	87.4217	79.1016	87.8479	79.1016	87.5416	79.1016	87.9216	79.1016	87.6674	79.1016	87.993	79.1016	87.7922	79.1016	88.0578	79.1016	87.9082	79.1016	88.1101	79.1016	88.0078	79.1016	88.1436	79.1016	88.0842	79.1016	88.1525	79.1016	88.1331
82.0312	87.9187	82.0312	87.8812	82.0312	87.9658	82.0312	87.8537	82.0312	88.0215	82.0312	87.8366	82.0312	88.0845	82.0312	87.8305	82.0312	88.153	82.0312	87.836	82.0312	88.2251	82.0312	87.8539	82.0312	88.2985	82.0312	87.8853	82.0312	88.3712	82.0312	87.9311	82.0312	88.4418	82.0312	87.992	82.0312	88.5094	82.0312	88.0677	82.0312	88.5737	82.0312	88.1571	82.0312	88.6345	82.0312	88.2576	82.0312	88.6914	82.0312	88.365	82.0312	88.7429	82.0312	88.4736	82.0312	88.7861	82.0312	88.5772	82.0312	88.8173	82.0312	88.6692	82.0312	88.8319	82.0312	88.7438	82.0312	88.8259	82.0312	88.7966
84.9609	88.2025	84.9609	88.1678	84.9609	88.2495	84.9609	88.1456	84.9609	88.308	84.9609	88.1357	84.9609	88.3768	84.9609	88.138	84.9609	88.454	84.9609	88.1522	84.9609	88.537	84.9609	88.1784	84.9609	88.623	84.9609	88.2167	84.9609	88.7089	84.9609	88.2671	84.9609	88.7922	84.9609	88.3298	84.9609	88.8705	84.9609	88.4043	84.9609	88.9421	84.9609	88.4897	84.9609	89.006	84.9609	88.584	84.9609	89.0609	84.9609	88.6839	84.9609	89.1058	84.9609	88.7854	84.9609	89.1388	84.9609	88.8833	84.9609	89.1576	84.9609	88.9722	84.9609	89.1595	84.9609	89.0474	84.9609	89.1423	84.9609	89.1048
87.8906	88.8551	87.8906	88.8299	87.8906	88.8962	87.8906	88.8197	87.8906	88.9532	87.8906	88.8228	87.8906	89.025	87.8906	88.8374	87.8906	89.1091	87.8906	88.8618	87.8906	89.202	87.8906	88.8944	87.8906	89.2993	87.8906	88.9343	87.8906	89.3962	87.8906	88.981	87.8906	89.4881	87.8906	89.0345	87.8906	89.571	87.8906	89.0949	87.8906	89.642	87.8906	89.1621	87.8906	89.6991	87.8906	89.2359	87.8906	89.7417	87.8906	89.3148	87.8906	89.7696	87.8906	89.3968	87.8906	89.7827	87.8906	89.4786	87.8906	89.7811	87.8906	89.5566	87.8906	89.7645	87.8906	89.627	87.8906	89.7328	87.8906	89.6865
90.8203	89.5779	90.8203	89.5535	90.8203	89.6176	90.8203	89.5431	90.8203	89.6731	90.8203	89.5444	90.8203	89.7434	90.8203	89.555	90.8203	89.8259	90.8203	89.5726	90.8203	89.9166	90.8203	89.5952	90.8203	90.0105	90.8203	89.6218	90.8203	90.1022	90.8203	89.6518	90.8203	90.1861	90.8203	89.6856	90.8203	90.2577	90.8203	89.7237	90.8203	90.3136	90.8203	89.7672	90.8203	90.3519	90.8203	89.8168	90.8203	90.3723	90.8203	89.8726	90.8203	90.3755	90.8203	89.934	90.8203	90.3632	90.8203	89.9994	90.8203	90.3372	90.8203	90.0666	90.8203	90.2994	90.8203	90.1328	90.8203	90.2515	90.8203	90.1953
95.2148	90.2591	95.2148	90.2345	95.2148	90.297	95.2148	90.2215	95.2148	90.349	95.2148	90.2179	95.2148	90.414	95.2148	90.2209	95.2148	90.4899	95.2148	90.2281	95.2148	90.5725	95.2148	90.2374	95.2148	90.6569	95.2148	90.2476	95.2148	90.7373	95.2148	90.2581	95.2148	90.8077	95.2148	90.2694	95.2148	90.8632	95.2148	90.2827	95.2148	90.8999	95.2148	90.2995	95.2148	90.9158	95.2148	90.3216	95.2148	90.911	95.2148	90.3507	95.2148	90.8873	95.2148	90.3878	95.2148	90.8477	95.2148	90.4331	95.2148	90.7962	95.2148	90.486	95.2148	90.7367	95.2148	90.545	95.2148	90.673	95.2148	90.6081
98.1445	90.6881	98.1445	90.6628	98.1445	90.7257	98.1445	90.6483	98.1445	90.7761	98.1445	90.6425	98.1445	90.8389	98.1445	90.6429	98.1445	90.9118	98.1445	90.6473	98.1445	90.9915	98.1445	90.6536	98.1445	91.0732	98.1445	90.6604	98.1445	91.1513	98.1445	90.6671	98.1445	91.2199	98.1445	90.6736	98.1445	91.2735	98.1445	90.6809	98.1445	91.3077	98.1445	90.6908	98.1445	91.3202	98.1445	90.705	98.1445	91.3102	98.1445	90.7258	98.1445	91.2797	98.1445	90.755	98.1445	91.232	98.1445	90.7936	98.1445	91.1717	98.1445	90.8419	98.1445	91.1038	98.1445	90.8991	98.1445	91.0331	98.1445	90.9637
101.074	91.2221	101.074	91.1937	101.074	91.2632	101.074	91.1766	101.074	91.3177	101.074	91.1681	101.074	91.3845	101.074	91.1657	101.074	91.4613	101.074	91.1666	101.074	91.5439	101.074	91.1683	101.074	91.627	101.074	91.1692	101.074	91.7043	101.074	91.1681	101.074	91.7694	101.074	91.1651	101.074	91.8163	101.074	91.1614	101.074	91.8406	101.074	91.1587	101.074	91.84	101.074	91.1598	101.074	91.8145	101.074	91.1675	101.074	91.7666	101.074	91.1849	101.074	91.7009	101.074	91.214	101.074	91.6232	101.074	91.2564	101.074	91.5399	101.074	91.312	101.074	91.457	101.074	91.3797
105.469	91.546	105.469	91.5237	105.469	91.5835	105.469	91.5145	105.469	91.6368	105.469	91.5152	105.469	91.7053	105.469	91.5222	105.469	91.786	105.469	91.5318	105.469	91.8744	105.469	91.5406	105.469	91.9645	105.469	91.5462	105.469	92.0493	105.469	91.5468	105.469	92.1215	105.469	91.5421	105.469	92.1745	105.469	91.5331	105.469	92.2029	105.469	91.5222	105.469	92.2037	105.469	91.5127	105.469	92.1765	105.469	91.5088	105.469	92.1237	105.469	91.5147	105.469	92.0502	105.469	91.5343	105.469	91.9627	105.469	91.5703	105.469	91.8692	105.469	91.6238	105.469	91.7773	105.469	91.6938
108.398	91.8005	108.398	91.7839	108.398	91.8317	108.398	91.7793	108.398	91.8787	108.398	91.7832	108.398	91.941	108.398	91.7915	108.398	92.016	108.398	91.8002	108.398	92.0995	108.398	91.8057	108.398	92.1853	108.398	91.8053	108.398	92.2662	108.398	91.7974	108.398	92.3347	108.398	91.7817	108.398	92.3836	108.398	91.7596	108.398	92.407	108.398	91.734	108.398	92.4016	108.398	91.7088	108.398	92.3665	108.398	91.6893	108.398	92.3043	108.398	91.6807	108.398	92.2204	108.398	91.688	108.398	92.1225	108.398	91.7151	108.398	92.0195	108.398	91.7637	108.398	91.9204	108.398	91.8332
112.793	92.1551	112.793	92.1374	112.793	92.1867	112.793	92.1307	112.793	92.2333	112.793	92.1316	112.793	92.2943	112.793	92.1358	112.793	92.3672	112.793	92.1391	112.793	92.4476	112.793	92.1379	112.793	92.5294	112.793	92.1293	112.793	92.6053	112.793	92.1117	112.793	92.6676	112.793	92.0849	112.793	92.7092	112.793	92.0504	112.793	92.724	112.793	92.0114	112.793	92.7085	112.793	91.9725	112.793	92.662	112.793	91.9397	112.793	92.5871	112.793	91.9193	112.793	92.4896	112.793	91.9174	112.793	92.378	112.793	91.9387	112.793	92.2623	112.793	91.9859	112.793	92.1528	112.793	92.0584
117.188	92.2992	117.188	92.2865	117.188	92.3261	117.188	92.2847	117.188	92.3689	117.188	92.2895	117.188	92.4279	117.188	92.2963	117.188	92.5009	117.188	92.3005	117.188	92.5839	117.188	92.298	117.188	92.6705	117.188	92.2859	117.188	92.7532	117.188	92.2623	117.188	92.8232	117.188	92.2272	117.188	92.872	117.188	92.1826	117.188	92.8925	117.188	92.1321	117.188	92.8796	117.188	92.0814	117.188	92.8317	117.188	92.0375	117.188	92.751	117.188	92.0082	117.188	92.6433	117.188	92.0008	117.188	92.5181	117.188	92.0213	117.188	92.387	117.188	92.0727	117.188	92.2621	117.188	92.1546
120.117	92.4608	120.117	92.4442	120.117	92.489	120.117	92.4361	120.117	92.5304	120.117	92.4324	120.117	92.5847	120.117	92.4285	120.117	92.6496	120.117	92.4196	120.117	92.7206	120.117	92.4016	120.117	92.7913	120.117	92.3714	120.117	92.8541	120.117	92.3273	120.117	92.9007	120.117	92.2695	120.117	92.9232	120.117	92.2	120.117	92.9152	120.117	92.1232	120.117	92.8725	120.117	92.0454	120.117	92.7948	120.117	91.9746	120.117	92.6852	120.117	91.92	120.117	92.5513	120.117	91.8903	120.117	92.4039	120.117	91.8931	120.117	92.2558	120.117	91.9329	120.117	92.1206	120.117	92.0101
124.512	92.5169	124.512	92.4939	124.512	92.549	124.512	92.4777	124.512	92.5913	124.512	92.4649	124.512	92.6434	124.512	92.4514	124.512	92.703	124.512	92.433	124.512	92.7661	124.512	92.4061	124.512	92.8272	124.512	92.3675	124.512	92.8793	124.512	92.3157	124.512	92.9149	124.512	92.2505	124.512	92.9265	124.512	92.1739	124.512	92.908	124.512	92.09	124.512	92.8553	124.512	92.0049	124.512	92.7678	124.512	91.9269	124.512	92.6488	124.512	91.8653	124.512	92.5059	124.512	91.8294	124.512	92.3501	124.512	91.8275	124.512	92.1951	124.512	91.8646	124.512	92.0549	124.512	91.9418
128.906	92.3591	128.906	92.3387	128.906	92.391	128.906	92.3276	128.906	92.4351	128.906	92.3225	128.906	92.4909	128.906	92.3194	128.906	92.5561	128.906	92.3138	128.906	92.6269	128.906	92.3013	128.906	92.6977	128.906	92.2782	128.906	92.7618	128.906	92.2419	128.906	92.8111	128.906	92.1915	128.906	92.8379	128.906	92.1282	128.906	92.8349	128.906	92.0555	128.906	92.7973	128.906	91.9793	128.906	92.7235	128.906	91.9079	128.906	92.6162	128.906	91.8506	128.906	92.4823	128.906	91.8175	128.906	92.333	128.906	91.817	128.906	92.1821	128.906	91.8548	128.906	92.0441	128.906	91.9319
133.301	92.2402	133.301	92.2202	133.301	92.272	133.301	92.2092	133.301	92.3166	133.301	92.2036	133.301	92.3738	133.301	92.1989	133.301	92.4412	133.301	92.1902	133.301	92.5146	133.301	92.1729	133.301	92.5881	133.301	92.143	133.301	92.6538	133.301	92.0978	133.301	92.7032	133.301	92.0365	133.301	92.7272	133.301	91.9604	133.301	92.7182	133.301	91.8735	133.301	92.6709	133.301	91.7824	133.301	92.5837	133.301	91.6962	133.301	92.4598	133.301	91.6256	133.301	92.3072	133.301	91.5819	133.301	92.1386	133.301	91.575	133.301	91.9695	133.301	91.6118	133.301	91.8164	133.301	91.6937
139.16	91.9641	139.16	91.949	139.16	91.9939	139.16	91.9451	139.16	92.04	139.16	91.948	139.16	92.1024	139.16	91.9525	139.16	92.1789	139.16	91.9531	139.16	92.265	139.16	91.9445	139.16	92.3541	139.16	91.9225	139.16	92.4373	139.16	91.884	139.16	92.5047	139.16	91.8281	139.16	92.5461	139.16	91.7562	139.16	92.5523	139.16	91.6724	139.16	92.517	139.16	91.5838	139.16	92.4378	139.16	91.4998	139.16	92.3177	139.16	91.4319	139.16	92.1647	139.16	91.3919	139.16	91.9921	139.16	91.3902	139.16	91.8163	139.16	91.4336	139.16	91.6549	139.16	91.5236
143.555	91.8801	143.555	91.8636	143.555	91.9112	143.555	91.8581	143.555	91.9587	143.555	91.8591	143.555	92.0225	143.555	91.8611	143.555	92.1005	143.555	91.8583	143.555	92.188	143.555	91.8454	143.555	92.2784	143.555	91.818	143.555	92.3626	143.555	91.773	143.555	92.4304	143.555	91.7097	143.555	92.4714	143.555	91.63	143.555	92.476	143.555	91.5383	143.555	92.4377	143.555	91.4424	143.555	92.354	143.555	91.3526	143.555	92.2274	143.555	91.2808	143.555	92.0663	143.555	91.2396	143.555	91.8842	143.555	91.2398	143.555	91.6981	143.555	91.2881	143.555	91.5263	143.555	91.3856
147.949	91.683	147.949	91.6632	147.949	91.7165	147.949	91.654	147.949	91.7654	147.949	91.6513	147.949	91.8299	147.949	91.6503	147.949	91.9083	147.949	91.6457	147.949	91.9969	147.949	91.6323	147.949	92.0894	147.949	91.6057	147.949	92.1772	147.949	91.5627	147.949	92.2499	147.949	91.5023	147.949	92.2962	147.949	91.4257	147.949	92.306	147.949	91.3372	147.949	92.2715	147.949	91.2441	147.949	92.1898	147.949	91.1565	147.949	92.0629	147.949	91.0865	147.949	91.8994	147.949	91.0469	147.949	91.7132	147.949	91.0488	147.949	91.5221	147.949	91.0995	147.949	91.3454	147.949	91.2003
153.809	91.4726	153.809	91.4517	153.809	91.5043	153.809	91.4385	153.809	91.5487	153.809	91.429	153.809	91.6059	153.809	91.4181	153.809	91.6745	153.809	91.4007	153.809	91.751	153.809	91.3717	153.809	91.8298	153.809	91.3269	153.809	91.9028	153.809	91.2636	153.809	91.9603	153.809	91.1813	153.809	91.9916	153.809	91.0822	153.809	91.9868	153.809	90.9714	153.809	91.9382	153.809	90.8575	153.809	91.8426	153.809	90.7518	153.809	91.7018	153.809	90.6675	153.809	91.5242	153.809	90.6183	153.809	91.3238	153.809	90.616	153.809	91.119	153.809	90.668	153.809	90.9298	153.809	90.7749
159.668	91.2887	159.668	91.2639	159.668	91.3226	159.668	91.2457	159.668	91.3674	159.668	91.2303	159.668	91.4235	159.668	91.2135	159.668	91.4899	159.668	91.1904	159.668	91.5636	159.668	91.1562	159.668	91.6394	159.668	91.1068	159.668	91.7097	159.668	91.0394	159.668	91.7646	159.668	90.9534	159.668	91.7934	159.668	90.8508	159.668	91.7859	159.668	90.7368	159.668	91.7341	159.668	90.6198	159.668	91.6347	159.668	90.5113	159.668	91.4895	159.668	90.4251	159.668	91.307	159.668	90.3751	159.668	91.1013	159.668	90.3734	159.668	90.8912	159.668	90.4274	159.668	90.697	159.668	90.5377
165.527	91.1051	165.527	91.078	165.527	91.1428	165.527	91.0593	165.527	91.192	165.527	91.0457	165.527	91.2525	165.527	91.0329	165.527	91.3229	165.527	91.016	165.527	91.3999	165.527	90.9895	165.527	91.4779	165.527	90.9486	165.527	91.5489	165.527	90.8896	165.527	91.6029	165.527	90.8109	165.527	91.6291	165.527	90.7137	165.527	91.6171	165.527	90.6025	165.527	91.5596	165.527	90.4854	165.527	91.4536	165.527	90.3737	165.527	91.3022	165.527	90.2812	165.527	91.1147	165.527	90.2226	165.527	90.9065	165.527	90.2107	165.527	90.6971	165.527	90.2542	165.527	90.507	165.527	90.3549
171.387	90.8551	171.387	90.8357	171.387	90.8837	171.387	90.8229	171.387	90.9232	171.387	90.8131	171.387	90.9746	171.387	90.8018	171.387	91.0374	171.387	90.7842	171.387	91.1095	171.387	90.7548	171.387	91.186	171.387	90.709	171.387	91.259	171.387	90.6434	171.387	91.318	171.387	90.5567	171.387	91.3509	171.387	90.4508	171.387	91.346	171.387	90.3306	171.387	91.2944	171.387	90.205	171.387	91.192	171.387	90.0862	171.387	91.0412	171.387	89.9886	171.387	90.8515	171.387	89.9274	171.387	90.6387	171.387	89.9157	171.387	90.423	171.387	89.9619	171.387	90.226	171.387	90.0676
177.246	90.7015	177.246	90.6665	177.246	90.743	177.246	90.6365	177.246	90.7917	177.246	90.6092	177.246	90.8482	177.246	90.5814	177.246	90.9119	177.246	90.549	177.246	90.9811	177.246	90.5072	177.246	91.0518	177.246	90.4517	177.246	91.1171	177.246	90.3792	177.246	91.1675	177.246	90.2881	177.246	91.1915	177.246	90.18	177.246	91.1777	177.246	90.0596	177.246	91.1171	177.246	89.9354	177.246	91.0057	177.246	89.8192	177.246	90.8457	177.246	89.7255	177.246	90.6468	177.246	89.6691	177.246	90.4248	177.246	89.6631	177.246	90.2002	177.246	89.7158	177.246	89.9949	177.246	89.8287
183.105	90.5147	183.105	90.4762	183.105	90.5597	183.105	90.4429	183.105	90.6118	183.105	90.4126	183.105	90.6717	183.105	90.3823	183.105	90.7388	183.105	90.348	183.105	90.8115	183.105	90.3049	183.105	90.8853	183.105	90.2484	183.105	90.9526	183.105	90.1746	183.105	91.0029	183.105	90.0817	183.105	91.0239	183.105	89.9706	183.105	91.0035	183.105	89.8457	183.105	90.9329	183.105	89.7153	183.105	90.8087	183.105	89.5916	183.105	90.6345	183.105	89.4896	183.105	90.4212	183.105	89.425	183.105	90.1863	183.105	89.412	183.105	89.9516	183.105	89.46	183.105	89.7399	183.105	89.5714
188.965	90.2663	188.965	90.238	188.965	90.2976	188.965	90.2118	188.965	90.3328	188.965	90.1858	188.965	90.3728	188.965	90.1574	188.965	90.419	188.965	90.1227	188.965	90.4718	188.965	90.077	188.965	90.53	188.965	90.016	188.965	90.5889	188.965	89.9364	188.965	90.6399	188.965	89.8368	188.965	90.6711	188.965	89.719	188.965	90.6691	188.965	89.5884	188.965	90.6223	188.965	89.4544	188.965	90.5235	188.965	89.3297	188.965	90.3727	188.965	89.2297	188.965	90.178	188.965	89.1701	188.965	89.9551	188.965	89.1642	188.965	89.7256	188.965	89.2204	188.965	89.5131	188.965	89.3394
196.289	90.171	196.289	90.1463	196.289	90.1921	196.289	90.1162	196.289	90.2114	196.289	90.0789	196.289	90.2311	196.289	90.0317	196.289	90.2539	196.289	89.9715	196.289	90.2818	196.289	89.8948	196.289	90.3146	196.289	89.7988	196.289	90.3486	196.289	89.6822	196.289	90.376	196.289	89.5461	196.289	90.385	196.289	89.3944	196.289	90.3628	196.289	89.2348	196.289	90.2978	196.289	89.0783	196.289	90.1835	196.289	88.9388	196.289	90.0201	196.289	88.8314	196.289	89.8157	196.289	88.7708	196.289	89.5859	196.289	88.7684	196.289	89.3512	196.289	88.8302	196.289	89.134	196.289	88.955
203.613	90.0118	203.613	89.9799	203.613	90.0369	203.613	89.9409	203.613	90.0561	203.613	89.8944	203.613	90.0714	203.613	89.8391	203.613	90.0856	203.613	89.7732	203.613	90.1017	203.613	89.6937	203.613	90.1205	203.613	89.5979	203.613	90.1399	203.613	89.4841	203.613	90.1534	203.613	89.3524	203.613	90.1509	203.613	89.2061	203.613	90.1207	203.613	89.0524	203.613	90.0527	203.613	88.902	203.613	89.9411	203.613	88.7688	203.613	89.7863	203.613	88.6677	203.613	89.5957	203.613	88.6129	203.613	89.383	203.613	88.6144	203.613	89.166	203.613	88.6764	203.613	88.9643	203.613	88.7961
210.938	89.8973	210.938	89.8677	210.938	89.9212	210.938	89.8319	210.938	89.94	210.938	89.789	210.938	89.9551	210.938	89.7371	210.938	89.969	210.938	89.6729	210.938	89.9837	210.938	89.5926	210.938	89.9998	210.938	89.4925	210.938	90.0146	210.938	89.3702	210.938	90.021	210.938	89.2255	210.938	90.0081	210.938	89.062	210.938	89.9638	210.938	88.8871	210.938	89.8778	210.938	88.7124	210.938	89.7446	210.938	88.5531	210.938	89.5659	210.938	88.4261	210.938	89.3509	210.938	88.3476	210.938	89.1157	210.938	88.3299	210.938	88.8804	210.938	88.3794	210.938	88.6668	210.938	88.4946
218.262	89.5395	218.262	89.5048	218.262	89.5665	218.262	89.4633	218.262	89.5865	218.262	89.416	218.262	89.602	218.262	89.3627	218.262	89.6171	218.262	89.3021	218.262	89.6365	218.262	89.2311	218.262	89.6625	218.262	89.1461	218.262	89.6929	218.262	89.044	218.262	89.7197	218.262	88.9235	218.262	89.7301	218.262	88.7865	218.262	89.7096	218.262	88.6389	218.262	89.6461	218.262	88.4912	218.262	89.5334	218.262	88.3571	218.262	89.3731	218.262	88.2526	218.262	89.1749	218.262	88.1926	218.262	88.9549	218.262	88.1885	218.262	88.7328	218.262	88.2455	218.262	88.529	218.262	88.3618
225.586	89.5005	225.586	89.4543	225.586	89.5308	225.586	89.3945	225.586	89.5451	225.586	89.3242	225.586	89.5462	225.586	89.2459	225.586	89.5398	225.586	89.161	225.586	89.5337	225.586	89.0692	225.586	89.5344	225.586	88.9689	225.586	89.5443	225.586	88.8584	225.586	89.5587	225.586	88.7367	225.586	89.5658	225.586	88.605	225.586	89.5497	225.586	88.4674	225.586	89.495	225.586	88.3321	225.586	89.3919	225.586	88.2103	225.586	89.2394	225.586	88.116	225.586	89.0458	225.586	88.0628	225.586	88.8275	225.586	88.0619	225.586	88.6056	225.586	88.1195	225.586	88.4018	225.586	88.2352
232.91	89.4396	232.91	89.3873	232.91	89.4724	232.91	89.3183	232.91	89.4845	232.91	89.2353	232.91	89.4767	232.91	89.1404	232.91	89.4528	232.91	89.034	232.91	89.4185	232.91	88.9157	232.91	89.3801	232.91	88.7844	232.91	89.3413	232.91	88.6398	232.91	89.3015	232.91	88.4835	232.91	89.2545	232.91	88.32	232.91	89.1905	232.91	88.1567	232.91	89.0996	232.91	88.0043	232.91	88.9753	232.91	87.8753	232.91	88.8173	232.91	87.782	232.91	88.6326	232.91	87.7346	232.91	88.4334	232.91	87.7391	232.91	88.2354	232.91	87.7969	232.91	88.0544	232.91	87.9046
241.699	89.2358	241.699	89.1662	241.699	89.2851	241.699	89.0802	241.699	89.3124	241.699	88.9817	241.699	89.3186	241.699	88.8741	241.699	89.3071	241.699	88.759	241.699	89.2834	241.699	88.6359	241.699	89.2522	241.699	88.5032	241.699	89.2151	241.699	88.359	241.699	89.169	241.699	88.2028	241.699	89.1061	241.699	88.0372	241.699	89.0164	241.699	87.8684	241.699	88.892	241.699	87.7069	241.699	88.7302	241.699	87.5663	241.699	88.5358	241.699	87.4607	241.699	88.3201	241.699	87.4022	241.699	88.0986	241.699	87.3978	241.699	87.8878	241.699	87.4492	241.699	87.702	241.699	87.5528
250.488	89.0778	250.488	88.9776	250.488	89.1468	250.488	88.8499	250.488	89.1842	250.488	88.7002	250.488	89.1935	250.488	88.5347	250.488	89.1821	250.488	88.359	250.488	89.1598	250.488	88.1778	250.488	89.1351	250.488	87.9942	250.488	89.1115	250.488	87.8109	250.488	89.0844	250.488	87.6306	250.488	89.0414	250.488	87.457	250.488	88.9665	250.488	87.2962	250.488	88.8457	250.488	87.1569	250.488	88.6728	250.488	87.0494	250.488	88.4524	250.488	86.9843	250.488	88.1989	250.488	86.9699	250.488	87.9329	250.488	87.0102	250.488	87.6756	250.488	87.1053	250.488	87.4446	250.488	87.2519
259.277	89.0966	259.277	89.0076	259.277	89.1514	259.277	88.8885	259.277	89.1706	259.277	88.7448	259.277	89.1567	259.277	88.5818	259.277	89.1171	259.277	88.4044	259.277	89.0625	259.277	88.2163	259.277	89.0044	259.277	88.0213	259.277	88.9507	259.277	87.8234	259.277	88.9019	259.277	87.6276	259.277	88.8498	259.277	87.4405	259.277	88.7799	259.277	87.2704	259.277	88.6772	259.277	87.1268	259.277	88.5314	259.277	87.0195	259.277	88.3418	259.277	86.9571	259.277	88.1175	259.277	86.9457	259.277	87.8751	259.277	86.9878	259.277	87.6344	259.277	87.0827	259.277	87.4137	259.277	87.2267
268.066	88.9617	268.066	88.856	268.066	89.0285	268.066	88.7142	268.066	89.0565	268.066	88.5413	268.066	89.0504	268.066	88.3429	268.066	89.0191	268.066	88.1251	268.066	88.9753	268.066	87.8936	268.066	88.9311	268.066	87.6548	268.066	88.8943	268.066	87.4158	268.066	88.8631	268.066	87.1847	268.066	88.8255	268.066	86.9715	268.066	88.7625	268.066	86.7866	268.066	88.6547	268.066	86.6411	268.066	88.4901	268.066	86.5444	268.066	88.2678	268.066	86.5035	268.066	87.9998	268.066	86.5215	268.066	87.7075	268.066	86.5979	268.066	87.4157	268.066	86.7303	268.066	87.1464	268.066	86.9149
276.855	88.8353	276.855	88.7503	276.855	88.885	276.855	88.6336	276.855	88.898	276.855	88.489	276.855	88.8765	276.855	88.3196	276.855	88.8272	276.855	88.127	276.855	88.7607	276.855	87.9121	276.855	88.6898	276.855	87.6768	276.855	88.6252	276.855	87.4255	276.855	88.5719	276.855	87.1675	276.855	88.5269	276.855	86.9181	276.855	88.4796	276.855	86.6982	276.855	88.4156	276.855	86.5313	276.855	88.3213	276.855	86.4378	276.855	88.1877	276.855	86.429	276.855	88.0132	276.855	86.5034	276.855	87.8032	276.855	86.6484	276.855	87.5681	276.855	86.8454	276.855	87.3209	276.855	87.0752
287.109	88.6866	287.109	88.6219	287.109	88.7163	287.109	88.5274	287.109	88.7091	287.109	88.4091	287.109	88.6683	287.109	88.2714	287.109	88.6031	287.109	88.1157	287.109	88.5273	287.109	87.9405	287.109	88.4548	287.109	87.7427	287.109	88.3946	287.109	87.5209	287.109	88.3469	287.109	87.2788	287.109	88.3027	287.109	87.0279	287.109	88.248	287.109	86.7891	287.109	88.1701	287.109	86.5902	287.109	88.0618	287.109	86.4592	287.109	87.9227	287.109	86.4151	287.109	87.7573	287.109	86.4604	287.109	87.5719	287.109	86.5811	287.109	87.3726	287.109	86.7538	287.109	87.1645	287.109	86.9544
297.363	88.7901	297.363	88.694	297.363	88.8222	297.363	88.5431	297.363	88.7869	297.363	88.3512	297.363	88.6899	297.363	88.1338	297.363	88.5463	297.363	87.9058	297.363	88.3806	297.363	87.6788	297.363	88.2211	297.363	87.459	297.363	88.0906	297.363	87.2457	297.363	87.9965	297.363	87.0337	297.363	87.9265	297.363	86.8165	297.363	87.8557	297.363	86.5932	297.363	87.7584	297.363	86.3732	297.363	87.6191	297.363	86.1782	297.363	87.437	297.363	86.0381	297.363	87.2222	297.363	85.9794	297.363	86.9896	297.363	86.0133	297.363	86.7524	297.363	86.1305	297.363	86.5213	297.363	86.308
307.617	88.7719	307.617	88.6768	307.617	88.8137	307.617	88.5346	307.617	88.7982	307.617	88.3527	307.617	88.7261	307.617	88.1379	307.617	88.6048	307.617	87.897	307.617	88.4489	307.617	87.6367	307.617	88.2785	307.617	87.3654	307.617	88.1141	307.617	87.0932	307.617	87.9693	307.617	86.8323	307.617	87.8452	307.617	86.596	307.617	87.7304	307.617	86.3968	307.617	87.608	307.617	86.2446	307.617	87.4645	307.617	86.1455	307.617	87.296	307.617	86.1012	307.617	87.1089	307.617	86.1102	307.617	86.9152	307.617	86.1674	307.617	86.7267	307.617	86.2654	307.617	86.5517	307.617	86.396
319.336	88.6853	319.336	88.5794	319.336	88.73	319.336	88.4214	319.336	88.708	319.336	88.2211	319.336	88.6199	319.336	87.9877	319.336	88.4739	319.336	87.7287	319.336	88.2864	319.336	87.4505	319.336	88.0796	319.336	87.1594	319.336	87.8767	319.336	86.8643	319.336	87.6955	319.336	86.5779	319.336	87.5434	319.336	86.3182	319.336	87.4167	319.336	86.1069	319.336	87.305	319.336	85.9654	319.336	87.1979	319.336	85.9075	319.336	87.0894	319.336	85.9339	319.336	86.9783	319.336	86.0298	319.336	86.865	319.336	86.17	319.336	86.7478	319.336	86.3274	319.336	86.6216	319.336	86.4813
329.59	88.2615	329.59	88.149	329.59	88.3211	329.59	87.9948	329.59	88.3206	329.59	87.8105	329.59	88.2597	329.59	87.6053	329.59	88.1459	329.59	87.3839	329.59	87.9941	329.59	87.1464	329.59	87.8222	329.59	86.89	329.59	87.6451	329.59	86.6123	329.59	87.4691	329.59	86.3152	329.59	87.2903	329.59	86.0091	329.59	87.1004	329.59	85.7153	329.59	86.8939	329.59	85.4652	329.59	86.6752	329.59	85.2925	329.59	86.4583	329.59	85.2205	329.59	86.2601	329.59	85.2496	329.59	86.0897	329.59	85.3561	329.59	85.9426	329.59	85.5032	329.59	85.8036	329.59	85.6579
341.309	88.5344	341.309	88.3896	341.309	88.6007	341.309	88.1784	341.309	88.5828	341.309	87.9171	341.309	88.4847	341.309	87.6231	341.309	88.3216	341.309	87.3131	341.309	88.1204	341.309	87.0005	341.309	87.9142	341.309	86.6944	341.309	87.732	341.309	86.4009	341.309	87.5862	341.309	86.1256	341.309	87.4681	341.309	85.877	341.309	87.3546	341.309	85.6698	341.309	87.2235	341.309	85.5239	341.309	87.066	341.309	85.4592	341.309	86.8907	341.309	85.4855	341.309	86.7161	341.309	85.5944	341.309	86.5575	341.309	85.7589	341.309	86.4151	341.309	85.9439	341.309	86.2751	341.309	86.1201
353.027	88.3727	353.027	88.2097	353.027	88.4548	353.027	87.9807	353.027	88.4478	353.027	87.704	353.027	88.3537	353.027	87.3977	353.027	88.1873	353.027	87.0773	353.027	87.9762	353.027	86.7529	353.027	87.7552	353.027	86.4287	353.027	87.5546	353.027	86.1042	353.027	87.3875	353.027	85.7784	353.027	87.2434	353.027	85.4557	353.027	87.0956	353.027	85.1518	353.027	86.9174	353.027	84.8961	353.027	86.6974	353.027	84.7258	353.027	86.4451	353.027	84.6706	353.027	86.1851	353.027	84.7345	353.027	85.941	353.027	84.8908	353.027	85.7215	353.027	85.0955	353.027	85.5167	353.027	85.3099
366.211	88.3451	366.211	88.2072	366.211	88.4033	366.211	88.0004	366.211	88.3737	366.211	87.7366	366.211	88.2533	366.211	87.4281	366.211	88.0481	366.211	87.0877	366.211	87.7773	366.211	86.7296	366.211	87.4755	366.211	86.3694	366.211	87.1898	366.211	86.0226	366.211	86.964	366.211	85.7031	366.211	86.8168	366.211	85.4202	366.211	86.7299	366.211	85.1793	366.211	86.6588	366.211	84.9844	366.211	86.5583	366.211	84.8428	366.211	86.4023	366.211	84.7657	366.211	86.1902	366.211	84.764	366.211	85.9402	366.211	84.8409	366.211	85.6769	366.211	84.9874	366.211	85.4208	366.211	85.1864
379.395	88.6512	379.395	88.5047	379.395	88.7131	379.395	88.2886	379.395	88.68	379.395	88.0187	379.395	88.5498	379.395	87.708	379.395	88.3314	379.395	87.3654	379.395	88.0456	379.395	86.9965	379.395	87.7212	379.395	86.6069	379.395	87.3894	379.395	86.2066	379.395	87.075	379.395	85.8146	379.395	86.7926	379.395	85.4607	379.395	86.5486	379.395	85.1834	379.395	86.3479	379.395	85.0197	379.395	86.1986	379.395	84.9913	379.395	86.1075	379.395	85.0911	379.395	86.0708	379.395	85.2837	379.395	86.0672	379.395	85.517	379.395	86.0618	379.395	85.7394	379.395	86.0184	379.395	85.9125
392.578	88.4097	392.578	88.2226	392.578	88.5143	392.578	87.9689	392.578	88.5252	392.578	87.6668	392.578	88.4391	392.578	87.3335	392.578	88.2626	392.578	86.9817	392.578	88.0145	392.578	86.6176	392.578	87.7231	392.578	86.241	392.578	87.4195	392.578	85.8492	392.578	87.1267	392.578	85.4433	392.578	86.851	392.578	85.036	392.578	86.5849	392.578	84.6598	392.578	86.3204	392.578	84.3673	392.578	86.0621	392.578	84.2159	392.578	85.8312	392.578	84.2376	392.578	85.6519	392.578	84.4131	392.578	85.5301	392.578	84.6778	392.578	85.4409	392.578	84.9534	392.578	85.3385	392.578	85.1811
405.762	88.1058	405.762	87.9281	405.762	88.1962	405.762	87.6818	405.762	88.1861	405.762	87.388	405.762	88.0723	405.762	87.0675	405.762	87.8666	405.762	86.7377	405.762	87.5983	405.762	86.4098	405.762	87.3115	405.762	86.0878	405.762	87.0511	405.762	85.7684	405.762	86.8424	405.762	85.4455	405.762	86.6776	405.762	85.117	405.762	86.5223	405.762	84.7931	405.762	86.3398	405.762	84.5039	405.762	86.1151	405.762	84.2962	405.762	85.8633	405.762	84.2162	405.762	85.6198	405.762	84.2801	405.762	85.4143	405.762	84.4574	405.762	85.2473	405.762	84.6858	405.762	85.0893	405.762	84.9058
420.41	88.3113	420.41	88.1404	420.41	88.3784	420.41	87.886	420.41	88.3307	420.41	87.5743	420.41	88.1693	420.41	87.2336	420.41	87.91	420.41	86.889	420.41	87.5854	420.41	86.5574	420.41	87.2414	420.41	86.2453	420.41	86.9249	420.41	85.9503	420.41	86.6656	420.41	85.6671	420.41	86.4627	420.41	85.3953	420.41	86.2906	420.41	85.1461	420.41	86.1226	420.41	84.9435	420.41	85.951	420.41	84.8188	420.41	85.7911	420.41	84.7952	420.41	85.6652	420.41	84.8725	420.41	85.5815	420.41	85.0213	420.41	85.5224	420.41	85.194	420.41	85.4535	420.41	85.3459
435.059	88.3817	435.059	88.167	435.059	88.4739	435.059	87.8502	435.059	88.4302	435.059	87.4574	435.059	88.2461	435.059	87.0187	435.059	87.9284	435.059	86.565	435.059	87.5007	435.059	86.1247	435.059	87.0096	435.059	85.7225	435.059	86.5247	435.059	85.3788	435.059	86.1212	435.059	85.1098	435.059	85.8474	435.059	84.9268	435.059	85.7018	435.059	84.8338	435.059	85.6469	435.059	84.8277	435.059	85.6415	435.059	84.8997	435.059	85.6632	435.059	85.0364	435.059	85.7049	435.059	85.2186	435.059	85.7584	435.059	85.4188	435.059	85.8012	435.059	85.6026	435.059	85.802	435.059	85.7368
451.172	88.9201	451.172	88.6554	451.172	89.0497	451.172	88.2695	451.172	89.0336	451.172	87.7794	451.172	88.8653	451.172	87.2058	451.172	88.5464	451.172	86.5719	451.172	88.0923	451.172	85.9011	451.172	87.5389	451.172	85.2152	451.172	86.9433	451.172	84.5367	451.172	86.3738	451.172	83.896	451.172	85.886	451.172	83.3434	451.172	85.4984	451.172	82.9536	451.172	85.1921	451.172	82.8045	451.172	84.9404	451.172	82.9264	451.172	84.7399	451.172	83.2658	451.172	84.614	451.172	83.7065	451.172	84.5809	451.172	84.1273	451.172	84.6169	451.172	84.4422	451.172	84.6541	451.172	84.614
465.82	88.7054	465.82	88.4531	465.82	88.8354	465.82	88.0954	465.82	88.8284	465.82	87.6498	465.82	88.6765	465.82	87.1327	465.82	88.3825	465.82	86.5603	465.82	87.9635	465.82	85.9493	465.82	87.451	465.82	85.3182	465.82	86.8861	465.82	84.6898	465.82	86.3141	465.82	84.0949	465.82	85.781	465.82	83.5784	465.82	85.334	465.82	83.2036	465.82	85.0183	465.82	83.0416	465.82	84.862	465.82	83.1368	465.82	84.8571	465.82	83.4655	465.82	84.9564	465.82	83.9336	465.82	85.0923	465.82	84.4202	465.82	85.1967	465.82	84.8261	465.82	85.2117	465.82	85.0946
483.398	88.4393	483.398	88.2645	483.398	88.5047	483.398	87.9848	483.398	88.4568	483.398	87.6056	483.398	88.2964	483.398	87.1351	483.398	88.0364	483.398	86.5856	483.398	87.7069	483.398	85.9727	483.398	87.351	483.398	85.3128	483.398	87.0079	483.398	84.6204	483.398	86.6882	483.398	83.9112	483.398	86.3635	483.398	83.2155	483.398	85.9874	483.398	82.5996	483.398	85.5418	483.398	82.1812	483.398	85.0773	483.398	82.0943	483.398	84.7113	483.398	82.3899	483.398	84.5525	483.398	82.9667	483.398	84.5965	483.398	83.6315	483.398	84.7147	483.398	84.209	483.398	84.7493	483.398	84.5928
499.512	88.3914	499.512	88.2007	499.512	88.466	499.512	87.904	499.512	88.4203	499.512	87.5162	499.512	88.2569	499.512	87.0551	499.512	87.9867	499.512	86.5392	499.512	87.6295	499.512	85.9874	499.512	87.2147	499.512	85.4171	499.512	86.7768	499.512	84.8438	499.512	86.3468	499.512	84.2799	499.512	85.9426	499.512	83.7412	499.512	85.5669	499.512	83.2598	499.512	85.2177	499.512	82.8969	499.512	84.9064	499.512	82.7357	499.512	84.6653	499.512	82.8346	499.512	84.5309	499.512	83.167	499.512	84.5041	499.512	83.618	499.512	84.5267	499.512	84.0477	499.512	84.5041	499.512	84.3549
517.09	88.3446	517.09	88.0805	517.09	88.4475	517.09	87.6878	517.09	88.3735	517.09	87.2093	517.09	88.1307	517.09	86.6894	517.09	87.7575	517.09	86.1642	517.09	87.3239	517.09	85.6531	517.09	86.9138	517.09	85.1565	517.09	86.5864	517.09	84.6596	517.09	86.3394	517.09	84.1407	517.09	86.11	517.09	83.5853	517.09	85.8172	517.09	83.007	517.09	85.4116	517.09	82.475	517.09	84.9116	517.09	82.1269	517.09	84.4175	517.09	82.1121	517.09	84.0758	517.09	82.4576	517.09	83.9682	517.09	83.0102	517.09	84.0196	517.09	83.5493	517.09	84.0524	517.09	83.9145
536.133	89.9677	536.133	89.6909	536.133	90.0144	536.133	89.2192	536.133	89.8026	536.133	88.5918	536.133	89.3206	536.133	87.8523	536.133	88.592	536.133	87.047	536.133	87.7026	536.133	86.2194	536.133	86.8202	536.133	85.4037	536.133	86.165	536.133	84.6243	536.133	85.8823	536.133	83.9064	536.133	85.9136	536.133	83.292	536.133	86.0585	536.133	82.8481	536.133	86.1456	536.133	82.6499	536.133	86.1152	536.133	82.7433	536.133	86.0046	536.133	83.113	536.133	85.8908	536.133	83.6785	536.133	85.8197	536.133	84.3187	536.133	85.7622	536.133	84.9095	536.133	85.6349	536.133	85.36
555.176	89.661	555.176	89.3904	555.176	89.7679	555.176	88.979	555.176	89.6872	555.176	88.4508	555.176	89.4001	555.176	87.8344	555.176	88.9012	555.176	87.165	555.176	88.2078	555.176	86.4792	555.176	87.3648	555.176	85.8041	555.176	86.4554	555.176	85.1464	555.176	85.6135	555.176	84.4963	555.176	85.0032	555.176	83.8583	555.176	84.7299	555.176	83.2942	555.176	84.7657	555.176	82.9359	555.176	84.9895	555.176	82.9162	555.176	85.2785	555.176	83.2543	555.176	85.5496	555.176	83.8328	555.176	85.7494	555.176	84.4851	555.176	85.8352	555.176	85.0738	555.176	85.7663	555.176	85.5134
574.219	89.6646	574.219	89.3478	574.219	89.7964	574.219	88.8745	574.219	89.7215	574.219	88.283	574.219	89.4285	574.219	87.6236	574.219	88.9285	574.219	86.9537	574.219	88.2673	574.219	86.3204	574.219	87.5266	574.219	85.7404	574.219	86.7985	574.219	85.1883	574.219	86.139	574.219	84.6065	574.219	85.5339	574.219	83.9353	574.219	84.9309	574.219	83.1656	574.219	84.3428	574.219	82.4203	574.219	83.9336	574.219	82.0131	574.219	83.9357	574.219	82.2701	574.219	84.3786	574.219	83.1265	574.219	85.0093	574.219	84.1729	574.219	85.5294	574.219	85.055	574.219	85.7533	574.219	85.5998
594.727	89.0555	594.727	88.6611	594.727	89.2717	594.727	88.1367	594.727	89.268	594.727	87.53	594.727	89.022	594.727	86.8838	594.727	88.5495	594.727	86.2299	594.727	87.9189	594.727	85.5832	594.727	87.2453	594.727	84.9423	594.727	86.6506	594.727	84.2992	594.727	86.1941	594.727	83.658	594.727	85.82	594.727	83.0457	594.727	85.3914	594.727	82.5088	594.727	84.8113	594.727	82.1088	594.727	84.1439	594.727	81.9338	594.727	83.6603	594.727	82.0939	594.727	83.6566	594.727	82.6288	594.727	84.0851	594.727	83.4038	594.727	84.5815	594.727	84.1649	594.727	84.8259	594.727	84.6825
615.234	89.0759	615.234	88.7972	615.234	89.1641	615.234	88.3564	615.234	89.0463	615.234	87.7963	615.234	88.7217	615.234	87.1724	615.234	88.2127	615.234	86.5377	615.234	87.5714	615.234	85.9173	615.234	86.8757	615.234	85.2886	615.234	86.212	615.234	84.5911	615.234	85.6441	615.234	83.7671	615.234	85.1767	615.234	82.8142	615.234	84.7601	615.234	81.8308	615.234	84.3557	615.234	81.04	615.234	83.9997	615.234	80.7316	615.234	83.796	615.234	81.063	615.234	83.8318	615.234	81.8896	615.234	84.0736	615.234	82.8803	615.234	84.3564	615.234	83.7381	615.234	84.4773	615.234	84.2886
637.207	88.6261	637.207	88.2261	637.207	88.8578	637.207	87.7231	637.207	88.8764	637.207	87.1918	637.207	88.6631	637.207	86.6984	637.207	88.2331	637.207	86.276	637.207	87.6381	637.207	85.9091	637.207	86.9585	637.207	85.5406	637.207	86.2801	637.207	85.0967	637.207	85.6583	637.207	84.51	637.207	85.0806	637.207	83.7373	637.207	84.4687	637.207	82.7827	637.207	83.7634	637.207	81.7549	637.207	83.0525	637.207	80.9553	637.207	82.6354	637.207	80.8238	637.207	82.8019	637.207	81.49	637.207	83.417	637.207	82.5527	637.207	84.0378	637.207	83.5339	637.207	84.3303	637.207	84.1623
659.18	88.6124	659.18	88.2154	659.18	88.8286	659.18	87.6991	659.18	88.8192	659.18	87.1392	659.18	88.5591	659.18	86.6131	659.18	88.0587	659.18	86.1718	659.18	87.3875	659.18	85.815	659.18	86.6875	659.18	85.4906	659.18	86.134	659.18	85.1215	659.18	85.8161	659.18	84.641	659.18	85.6321	659.18	84.0165	659.18	85.3566	659.18	83.258	659.18	84.8214	659.18	82.4337	659.18	84.0684	659.18	81.7278	659.18	83.4367	659.18	81.4831	659.18	83.3761	659.18	81.9612	659.18	83.8848	659.18	82.9495	659.18	84.493	659.18	83.9542	659.18	84.7954	659.18	84.6183
682.617	89.1358	682.617	88.5793	682.617	89.4305	682.617	87.8527	682.617	89.4144	682.617	87.0891	682.617	89.0835	682.617	86.4331	682.617	88.4873	682.617	85.9765	682.617	87.7367	682.617	85.7008	682.617	86.9959	682.617	85.4875	682.617	86.4578	682.617	85.1879	682.617	86.2395	682.617	84.6919	682.617	86.2109	682.617	83.9695	682.617	86.0711	682.617	83.1065	682.617	85.6199	682.617	82.3486	682.617	84.8842	682.617	82.0665	682.617	84.147	682.617	82.4773	682.617	83.8859	682.617	83.388	682.617	84.3115	682.617	84.4034	682.617	85.033	682.617	85.2092	682.617	85.55	682.617	85.6199
707.52	89.3883	707.52	88.823	707.52	89.7244	707.52	88.0882	707.52	89.7998	707.52	87.2897	707.52	89.5957	707.52	86.575	707.52	89.1055	707.52	86.0776	707.52	88.3471	707.52	85.8267	707.52	87.3885	707.52	85.7104	707.52	86.3866	707.52	85.5396	707.52	85.5801	707.52	85.1465	707.52	85.1066	707.52	84.4386	707.52	84.8004	707.52	83.4023	707.52	84.3338	707.52	82.1071	707.52	83.5043	707.52	80.8063	707.52	82.4726	707.52	80.1524	707.52	81.9896	707.52	80.8051	707.52	82.6615	707.52	82.3066	707.52	83.7979	707.52	83.7066	707.52	84.5205	707.52	84.4987
732.422	89.1887	732.422	88.6477	732.422	89.4702	732.422	87.9178	732.422	89.4591	732.422	87.1272	732.422	89.1407	732.422	86.4418	732.422	88.5205	732.422	85.9872	732.422	87.6449	732.422	85.7608	732.422	86.6242	732.422	85.6294	732.422	85.6611	732.422	85.4189	732.422	85.039	732.422	85.0031	732.422	84.8988	732.422	84.3422	732.422	85.0119	732.422	83.4774	732.422	85.0024	732.422	82.5141	732.422	84.6396	732.422	81.6331	732.422	83.9365	732.422	81.1484	732.422	83.2532	732.422	81.4011	732.422	83.1567	732.422	82.3141	732.422	83.6422	732.422	83.3473	732.422	84.0787	732.422	84.0075
757.324	89.815	757.324	89.1241	757.324	90.1866	757.324	88.2072	757.324	90.1827	757.324	87.2054	757.324	89.7834	757.324	86.3009	757.324	89.0182	757.324	85.6665	757.324	87.9819	757.324	85.3628	757.324	86.8358	757.324	85.2648	757.324	85.8202	757.324	85.1356	757.324	85.222	757.324	84.7784	757.324	85.1066	757.324	84.1092	757.324	85.1778	757.324	83.1476	757.324	85.1109	757.324	82.0119	757.324	84.7739	757.324	81.0012	757.324	84.2153	757.324	80.6794	757.324	83.6977	757.324	81.4083	757.324	83.6329	757.324	82.7173	757.324	84.0702	757.324	83.8835	757.324	84.5194	757.324	84.514
785.156	89.9804	785.156	89.4246	785.156	90.2942	785.156	88.6828	785.156	90.3329	785.156	87.8378	785.156	90.0799	785.156	86.9975	785.156	89.5272	785.156	86.2875	785.156	88.6674	785.156	85.809	785.156	87.4969	785.156	85.5468	785.156	86.0981	785.156	85.3461	785.156	84.8249	785.156	85.0316	785.156	84.2202	785.156	84.5205	785.156	84.3097	785.156	83.8228	785.156	84.5296	785.156	82.971	785.156	84.4195	785.156	81.973	785.156	83.8431	785.156	80.9025	785.156	82.9969	785.156	80.1628	785.156	82.3983	785.156	80.375	785.156	82.3689	785.156	81.3399	785.156	82.4923	785.156	82.1956
811.523	90.485	811.523	90.0869	811.523	90.6801	811.523	89.5295	811.523	90.641	811.523	88.8806	811.523	90.3347	811.523	88.215	811.523	89.7383	811.523	87.5766	811.523	88.8647	811.523	86.9551	811.523	87.7612	811.523	86.2981	811.523	86.4874	811.523	85.5486	811.523	85.1823	811.523	84.6865	811.523	84.1908	811.523	83.7539	811.523	83.8445	811.523	82.8407	811.523	84.0026	811.523	82.0507	811.523	84.2402	811.523	81.5155	811.523	84.2951	811.523	81.4309	811.523	84.2009	811.523	81.9421	811.523	84.2166	811.523	82.8967	811.523	84.469	811.523	83.8836	811.523	84.6901	811.523	84.5328
840.82	90.7334	840.82	90.4193	840.82	90.8819	840.82	89.9436	840.82	90.8577	840.82	89.3243	840.82	90.6348	840.82	88.6054	840.82	90.1776	840.82	87.8727	840.82	89.4678	840.82	87.2467	840.82	88.5218	840.82	86.7771	840.82	87.4176	840.82	86.3329	840.82	86.3353	840.82	85.714	840.82	85.4347	840.82	84.8582	840.82	84.5991	840.82	83.9122	840.82	83.5674	840.82	83.1522	840.82	82.4129	840.82	82.7836	840.82	81.8637	840.82	82.7791	840.82	82.4521	840.82	83.0077	840.82	83.489	840.82	83.4214	840.82	84.2559	840.82	83.9566	840.82	84.5547	840.82	84.4106
870.117	91.1205	870.117	90.8169	870.117	91.106	870.117	90.2114	870.117	90.8172	870.117	89.3778	870.117	90.3332	870.117	88.4357	870.117	89.7192	870.117	87.5393	870.117	88.9751	870.117	86.8275	870.117	88.0054	870.117	86.3213	870.117	86.7245	870.117	85.903	870.117	85.3825	870.117	85.4381	870.117	84.6251	870.117	84.8508	870.117	84.5639	870.117	84.0728	870.117	84.5415	870.117	83.024	870.117	84.0602	870.117	81.8539	870.117	83.1891	870.117	81.4122	870.117	82.8176	870.117	82.4893	870.117	83.7344	870.117	84.2266	870.117	85.1286	870.117	85.5922	870.117	86.0612	870.117	86.2284
900.879	91.7205	900.879	91.4015	900.879	91.6951	900.879	90.7523	900.879	91.3671	900.879	89.8389	900.879	90.8009	900.879	88.7518	900.879	90.0297	900.879	87.5928	900.879	89.0316	900.879	86.4886	900.879	87.7734	900.879	85.5556	900.879	86.3075	900.879	84.8038	900.879	84.8942	900.879	84.1643	900.879	83.9894	900.879	83.6136	900.879	83.7222	900.879	83.165	900.879	83.5817	900.879	82.7806	900.879	83.0445	900.879	82.3889	900.879	82.1135	900.879	82.0703	900.879	81.6819	900.879	82.2407	900.879	82.6727	900.879	83.1912	900.879	84.1919	900.879	84.415	900.879	85.1399	900.879	85.1906
933.105	92.1496	933.105	91.7816	933.105	92.0913	933.105	91.0677	933.105	91.5825	933.105	90.097	933.105	90.6733	933.105	88.917	933.105	89.4878	933.105	87.5453	933.105	88.1912	933.105	86.0673	933.105	86.912	933.105	84.7161	933.105	85.7236	933.105	83.7755	933.105	84.8457	933.105	83.3592	933.105	84.6602	933.105	83.3519	933.105	85.0262	933.105	83.4583	933.105	85.2806	933.105	83.2864	933.105	84.9196	933.105	82.5371	933.105	83.7413	933.105	81.3683	933.105	82.2646	933.105	81.1329	933.105	82.5114	933.105	82.8716	933.105	84.4454	933.105	84.9215	933.105	85.8594	933.105	86.0225
965.332	92.7234	965.332	92.455	965.332	92.6614	965.332	91.8675	965.332	92.2731	965.332	90.9612	965.332	91.5872	965.332	89.7203	965.332	90.6484	965.332	88.1807	965.332	89.4863	965.332	86.5487	965.332	88.0498	965.332	85.1791	965.332	86.2104	965.332	84.2816	965.332	84.14	965.332	83.7549	965.332	82.9223	965.332	83.3617	965.332	83.1738	965.332	83.0248	965.332	83.7318	965.332	82.9118	965.332	83.727	965.332	82.9787	965.332	82.912	965.332	82.9032	965.332	81.6323	965.332	82.7492	965.332	81.5497	965.332	83.1273	965.332	83.194	965.332	84.1136	965.332	84.5832	965.332	84.8394
1,000.49	93.5586	1,000.49	93.466	1,000.49	93.3444	1,000.49	93.0456	1,000.49	92.8331	1,000.49	92.221	1,000.49	92.0794	1,000.49	90.9027	1,000.49	91.1693	1,000.49	89.1237	1,000.49	90.1292	1,000.49	87.2117	1,000.49	88.8528	1,000.49	85.7638	1,000.49	87.1434	1,000.49	85.1324	1,000.49	84.9292	1,000.49	85.035	1,000.49	82.9964	1,000.49	84.9068	1,000.49	83.2123	1,000.49	84.5004	1,000.49	84.7504	1,000.49	84.0382	1,000.49	85.65	1,000.49	83.6578	1,000.49	85.2984	1,000.49	83.1054	1,000.49	83.7706	1,000.49	82.5047	1,000.49	82.5896	1,000.49	82.9409	1,000.49	83.828	1,000.49	84.4852	1,000.49	85.3715	1,000.49	85.5922
1,035.64	93.6635	1,035.64	93.6431	1,035.64	93.3453	1,035.64	93.1934	1,035.64	92.7828	1,035.64	92.2319	1,035.64	92.0593	1,035.64	90.7069	1,035.64	91.198	1,035.64	88.654	1,035.64	90.1285	1,035.64	86.3072	1,035.64	88.7524	1,035.64	84.237	1,035.64	87.0526	1,035.64	83.1881	1,035.64	85.2023	1,035.64	83.1883	1,035.64	83.7532	1,035.64	83.4462	1,035.64	83.334	1,035.64	83.5537	1,035.64	83.7208	1,035.64	83.747	1,035.64	84.2418	1,035.64	84.1753	1,035.64	84.3647	1,035.64	84.4957	1,035.64	83.7412	1,035.64	84.4251	1,035.64	82.884	1,035.64	84.3195	1,035.64	83.4482	1,035.64	84.7659	1,035.64	84.7899	1,035.64	85.2412
1,072.27	93.0706	1,072.27	93.156	1,072.27	92.6747	1,072.27	92.8279	1,072.27	92.1116	1,072.27	92.0075	1,072.27	91.535	1,072.27	90.6586	1,072.27	90.9575	1,072.27	88.8391	1,072.27	90.1431	1,072.27	86.7485	1,072.27	88.8078	1,072.27	84.7647	1,072.27	86.917	1,072.27	83.5756	1,072.27	84.6496	1,072.27	83.7455	1,072.27	82.7097	1,072.27	84.3638	1,072.27	82.788	1,072.27	84.1834	1,072.27	84.0531	1,072.27	82.8144	1,072.27	84.8408	1,072.27	81.0168	1,072.27	84.764	1,072.27	81.1953	1,072.27	83.7183	1,072.27	82.9695	1,072.27	82.499	1,072.27	84.3711	1,072.27	83.2413	1,072.27	85.2193	1,072.27	84.8463	1,072.27	85.5082
1,108.89	93.1321	1,108.89	93.1905	1,108.89	92.7259	1,108.89	92.893	1,108.89	92.0492	1,108.89	92.1777	1,108.89	91.3	1,108.89	90.9075	1,108.89	90.6161	1,108.89	89.0236	1,108.89	89.8296	1,108.89	86.8046	1,108.89	88.6078	1,108.89	84.953	1,108.89	86.7836	1,108.89	83.9318	1,108.89	84.441	1,108.89	83.585	1,108.89	82.5096	1,108.89	83.6881	1,108.89	82.1579	1,108.89	83.601	1,108.89	82.3035	1,108.89	82.777	1,108.89	82.5655	1,108.89	81.7348	1,108.89	83.3009	1,108.89	81.7499	1,108.89	83.7617	1,108.89	82.7065	1,108.89	83.3549	1,108.89	83.6881	1,108.89	83.3544	1,108.89	84.5314	1,108.89	84.4251	1,108.89	84.9588
1,148.44	92.546	1,148.44	92.5288	1,148.44	92.2643	1,148.44	92.2265	1,148.44	91.6932	1,148.44	91.5461	1,148.44	90.9817	1,148.44	90.3847	1,148.44	90.2811	1,148.44	88.8784	1,148.44	89.4765	1,148.44	87.372	1,148.44	88.2817	1,148.44	85.9962	1,148.44	86.6074	1,148.44	84.7385	1,148.44	84.4695	1,148.44	83.8692	1,148.44	81.9397	1,148.44	83.7336	1,148.44	80.0738	1,148.44	83.9435	1,148.44	80.8103	1,148.44	83.6616	1,148.44	83.09	1,148.44	82.5084	1,148.44	84.5035	1,148.44	81.417	1,148.44	84.2973	1,148.44	82.1098	1,148.44	83.2793	1,148.44	83.4502	1,148.44	83.2489	1,148.44	84.2168	1,148.44	84.0009	1,148.44	84.3926
1,189.45	92.2624	1,189.45	92.057	1,189.45	92.1865	1,189.45	91.5923	1,189.45	91.7576	1,189.45	90.8128	1,189.45	90.9328	1,189.45	89.7075	1,189.45	89.7654	1,189.45	88.5244	1,189.45	88.4297	1,189.45	87.6613	1,189.45	87.164	1,189.45	87.136	1,189.45	85.9181	1,189.45	86.4745	1,189.45	84.1405	1,189.45	85.2947	1,189.45	82.0365	1,189.45	84.0477	1,189.45	80.7735	1,189.45	83.4006	1,189.45	80.721	1,189.45	82.7224	1,189.45	82.1027	1,189.45	80.8334	1,189.45	83.9894	1,189.45	77.0616	1,189.45	84.4761	1,189.45	76.3808	1,189.45	83.266	1,189.45	80.2619	1,189.45	82.4377	1,189.45	82.5247	1,189.45	83.082	1,189.45	83.3351
1,230.47	93.1395	1,230.47	92.9016	1,230.47	92.794	1,230.47	92.1621	1,230.47	91.8801	1,230.47	91.0777	1,230.47	90.5723	1,230.47	89.869	1,230.47	89.2015	1,230.47	88.7484	1,230.47	87.9623	1,230.47	87.7261	1,230.47	86.6314	1,230.47	86.5561	1,230.47	84.9466	1,230.47	85.075	1,230.47	83.0619	1,230.47	83.7152	1,230.47	81.2994	1,230.47	83.3618	1,230.47	79.7454	1,230.47	83.7616	1,230.47	78.6789	1,230.47	83.7802	1,230.47	80.0054	1,230.47	82.6893	1,230.47	82.208	1,230.47	80.9566	1,230.47	82.6998	1,230.47	81.1652	1,230.47	81.6395	1,230.47	82.7609	1,230.47	81.2632	1,230.47	83.4568	1,230.47	82.2724	1,230.47	83.1668
1,274.41	93.2188	1,274.41	92.926	1,274.41	92.8694	1,274.41	92.2101	1,274.41	91.783	1,274.41	91.2236	1,274.41	90.1571	1,274.41	90.0427	1,274.41	88.4114	1,274.41	88.7595	1,274.41	86.8138	1,274.41	87.4641	1,274.41	85.3157	1,274.41	86.0538	1,274.41	83.93	1,274.41	84.3076	1,274.41	82.8078	1,274.41	82.3652	1,274.41	81.8279	1,274.41	81.3963	1,274.41	80.5201	1,274.41	82.3226	1,274.41	79.6076	1,274.41	83.7451	1,274.41	80.9139	1,274.41	84.0961	1,274.41	82.5003	1,274.41	82.663	1,274.41	82.7572	1,274.41	80.4308	1,274.41	82.4495	1,274.41	81.0056	1,274.41	82.6907	1,274.41	82.7312	1,274.41	83.2217	1,274.41	83.4011
1,319.82	93.3159	1,319.82	93.2537	1,319.82	92.8408	1,319.82	92.5857	1,319.82	91.77	1,319.82	91.2228	1,319.82	90.2046	1,319.82	89.4901	1,319.82	88.523	1,319.82	88.1088	1,319.82	86.915	1,319.82	87.1387	1,319.82	85.2014	1,319.82	85.8158	1,319.82	83.5168	1,319.82	83.7877	1,319.82	82.0271	1,319.82	80.8956	1,319.82	80.0802	1,319.82	78.0359	1,319.82	78.2484	1,319.82	79.4213	1,319.82	78.1863	1,319.82	83.0532	1,319.82	78.313	1,319.82	84.2695	1,319.82	78.9812	1,319.82	82.4441	1,319.82	79.9883	1,319.82	77.9217	1,319.82	80.182	1,319.82	79.2968	1,319.82	81.599	1,319.82	83.4152	1,319.82	83.8397	1,319.82	84.7237
1,366.7	92.8204	1,366.7	92.9317	1,366.7	92.2953	1,366.7	92.353	1,366.7	91.3892	1,366.7	90.8287	1,366.7	90.1099	1,366.7	88.7447	1,366.7	88.4766	1,366.7	87.1049	1,366.7	86.427	1,366.7	85.9551	1,366.7	84.1769	1,366.7	84.0728	1,366.7	82.4408	1,366.7	81.1451	1,366.7	81.355	1,366.7	78.8495	1,366.7	80.0519	1,366.7	77.7852	1,366.7	77.4869	1,366.7	76.7218	1,366.7	74.5359	1,366.7	78.6319	1,366.7	75.6177	1,366.7	81.5198	1,366.7	78.6827	1,366.7	82.5818	1,366.7	79.5861	1,366.7	81.5988	1,366.7	78.2535	1,366.7	80.3874	1,366.7	80.0151	1,366.7	82.667	1,366.7	83.2765	1,366.7	84.2224
1,413.57	92.0443	1,413.57	92.2599	1,413.57	91.6541	1,413.57	91.955	1,413.57	91.0468	1,413.57	90.7999	1,413.57	89.9724	1,413.57	89.033	1,413.57	88.0829	1,413.57	86.5584	1,413.57	85.2662	1,413.57	82.8606	1,413.57	82.6417	1,413.57	79.3609	1,413.57	81.3891	1,413.57	77.0604	1,413.57	80.2659	1,413.57	77.358	1,413.57	78.5245	1,413.57	77.5483	1,413.57	77.7663	1,413.57	76.1168	1,413.57	78.6562	1,413.57	77.418	1,413.57	79.593	1,413.57	81.4435	1,413.57	78.9434	1,413.57	82.7706	1,413.57	77.5694	1,413.57	80.8106	1,413.57	80.5485	1,413.57	78.4696	1,413.57	82.422	1,413.57	79.6721	1,413.57	81.9324	1,413.57	80.9308
1,463.38	91.6713	1,463.38	91.6509	1,463.38	90.9868	1,463.38	90.6978	1,463.38	89.9132	1,463.38	89.2302	1,463.38	88.6416	1,463.38	88.1651	1,463.38	87.0454	1,463.38	86.9646	1,463.38	85.0871	1,463.38	84.0101	1,463.38	83.4921	1,463.38	79.7649	1,463.38	82.1179	1,463.38	79.0171	1,463.38	80.89	1,463.38	78.3036	1,463.38	79.5274	1,463.38	73.4172	1,463.38	78.3808	1,463.38	66.6942	1,463.38	78.3593	1,463.38	64.311	1,463.38	75.8983	1,463.38	72.7412	1,463.38	73.1485	1,463.38	77.4632	1,463.38	79.4312	1,463.38	78.5166	1,463.38	80.317	1,463.38	78.0299	1,463.38	79.6413	1,463.38	80.5352	1,463.38	81.7719	1,463.38	82.5156
1,516.11	90.4135	1,516.11	90.5319	1,516.11	89.9361	1,516.11	89.9795	1,516.11	89.389	1,516.11	89.0861	1,516.11	88.3975	1,516.11	87.9857	1,516.11	86.3475	1,516.11	85.5365	1,516.11	83.7192	1,516.11	81.2836	1,516.11	82.079	1,516.11	79.2811	1,516.11	79.1169	1,516.11	81.2294	1,516.11	76.2308	1,516.11	81.1242	1,516.11	76.9822	1,516.11	78.5864	1,516.11	76.6787	1,516.11	76.8441	1,516.11	77.6857	1,516.11	74.5739	1,516.11	77.8302	1,516.11	74.6027	1,516.11	73.0902	1,516.11	79.1996	1,516.11	75.0298	1,516.11	79.3905	1,516.11	79.0854	1,516.11	77.6424	1,516.11	79.6331	1,516.11	78.9341	1,516.11	80.0505	1,516.11	80.2152
1,568.85	90.1567	1,568.85	89.4481	1,568.85	90.0197	1,568.85	88.4291	1,568.85	88.8542	1,568.85	87.8558	1,568.85	86.7144	1,568.85	87.3966	1,568.85	84.4204	1,568.85	85.7747	1,568.85	83.6513	1,568.85	83.0628	1,568.85	83.7886	1,568.85	80.4635	1,568.85	82.1054	1,568.85	77.8925	1,568.85	79.202	1,568.85	76.7397	1,568.85	77.8809	1,568.85	73.4373	1,568.85	76.6901	1,568.85	71.8039	1,568.85	76.6211	1,568.85	72.5842	1,568.85	75.4715	1,568.85	70.7877	1,568.85	64.1749	1,568.85	74.5632	1,568.85	76.3089	1,568.85	78.4358	1,568.85	79.3889	1,568.85	77.9165	1,568.85	79.1947	1,568.85	78.6014	1,568.85	79.773	1,568.85	80.2341
1,624.51	90.7703	1,624.51	90.3833	1,624.51	89.6542	1,624.51	89.2014	1,624.51	87.5969	1,624.51	88.0439	1,624.51	85.8202	1,624.51	86.7734	1,624.51	83.6618	1,624.51	85.08	1,624.51	80.8303	1,624.51	82.8288	1,624.51	81.1764	1,624.51	80.12	1,624.51	81.4505	1,624.51	78.5349	1,624.51	80.2391	1,624.51	78.6495	1,624.51	78.4144	1,624.51	76.3223	1,624.51	75.2987	1,624.51	71.7533	1,624.51	75.136	1,624.51	72.6238	1,624.51	75.1347	1,624.51	73.8507	1,624.51	70.6215	1,624.51	75.9185	1,624.51	66.3005	1,624.51	77.6502	1,624.51	76.2131	1,624.51	75.759	1,624.51	78.4678	1,624.51	73.3252	1,624.51	78.775	1,624.51	77.1512
1,681.64	90.6823	1,681.64	90.1258	1,681.64	90.0294	1,681.64	89.4551	1,681.64	87.6998	1,681.64	88.7535	1,681.64	84.0912	1,681.64	87.2191	1,681.64	80.0981	1,681.64	84.7899	1,681.64	77.8685	1,681.64	82.1847	1,681.64	78.7199	1,681.64	80.6893	1,681.64	80.7696	1,681.64	78.4747	1,681.64	81.6572	1,681.64	74.4	1,681.64	79.3714	1,681.64	71.1395	1,681.64	69.9255	1,681.64	57.316	1,681.64	77.3737	1,681.64	74.1064	1,681.64	80.3956	1,681.64	77.0413	1,681.64	78.8207	1,681.64	78.1825	1,681.64	70.0159	1,681.64	81.0141	1,681.64	77.9615	1,681.64	81.5426	1,681.64	83.0947	1,681.64	80.5976	1,681.64	83.8759	1,681.64	82.1858
1,741.7	91.9802	1,741.7	91.4389	1,741.7	91.7564	1,741.7	90.3405	1,741.7	90.2692	1,741.7	88.7395	1,741.7	87.3409	1,741.7	87.3567	1,741.7	83.2571	1,741.7	85.8122	1,741.7	80.3266	1,741.7	81.7261	1,741.7	79.1377	1,741.7	73.4923	1,741.7	77.6807	1,741.7	71.6775	1,741.7	80.5173	1,741.7	78.3173	1,741.7	82.0689	1,741.7	80.0475	1,741.7	78.0454	1,741.7	76.3445	1,741.7	70.542	1,741.7	68.1547	1,741.7	81.6532	1,741.7	74.5623	1,741.7	83.5	1,741.7	80.0272	1,741.7	79.8199	1,741.7	83.6547	1,741.7	78.6201	1,741.7	84.8845	1,741.7	85.7021	1,741.7	85.6817	1,741.7	88.0089	1,741.7	87.5621
1,803.22	92.3645	1,803.22	92.585	1,803.22	91.3257	1,803.22	91.7772	1,803.22	89.6213	1,803.22	89.0929	1,803.22	87.1664	1,803.22	85.6069	1,803.22	83.4315	1,803.22	84.5272	1,803.22	82.0046	1,803.22	83.2085	1,803.22	81.9522	1,803.22	79.6235	1,803.22	79.562	1,803.22	75.2951	1,803.22	76.9444	1,803.22	79.0702	1,803.22	80.5057	1,803.22	82.2475	1,803.22	80.9436	1,803.22	80.87	1,803.22	72.7339	1,803.22	72.6736	1,803.22	76.0413	1,803.22	65.4694	1,803.22	82.1866	1,803.22	75.7646	1,803.22	81.9797	1,803.22	81.8474	1,803.22	78.0172	1,803.22	83.9477	1,803.22	82.4782	1,803.22	84.8241	1,803.22	86.6814	1,803.22	87.0679
1,866.21	91.2332	1,866.21	91.9923	1,866.21	90.1343	1,866.21	92.0602	1,866.21	87.9456	1,866.21	89.9631	1,866.21	84.7262	1,866.21	86.4138	1,866.21	80.6713	1,866.21	83.5514	1,866.21	81.1372	1,866.21	80.6883	1,866.21	82.551	1,866.21	79.1586	1,866.21	82.3504	1,866.21	77.4883	1,866.21	79.8061	1,866.21	65.5203	1,866.21	77.497	1,866.21	75.1631	1,866.21	80.3214	1,866.21	78.1454	1,866.21	77.8009	1,866.21	74.1417	1,866.21	60.2561	1,866.21	45.4098	1,866.21	78.236	1,866.21	61.9837	1,866.21	81.2674	1,866.21	76.5532	1,866.21	77.9714	1,866.21	81.1116	1,866.21	72.9247	1,866.21	81.4075	1,866.21	82.0069	1,866.21	83.236
1,932.13	90.7901	1,932.13	91.9947	1,932.13	89.5229	1,932.13	91.7223	1,932.13	87.1002	1,932.13	89.0902	1,932.13	82.5714	1,932.13	86.0205	1,932.13	77.6543	1,932.13	82.9189	1,932.13	79.1648	1,932.13	80.1103	1,932.13	81.2444	1,932.13	79.1534	1,932.13	82.0534	1,932.13	73.6917	1,932.13	80.8781	1,932.13	66.417	1,932.13	77.959	1,932.13	67.5516	1,932.13	80.079	1,932.13	73.7459	1,932.13	79.3029	1,932.13	71.2907	1,932.13	69.6329	1,932.13	57.3937	1,932.13	76.2687	1,932.13	64.6709	1,932.13	80.9084	1,932.13	69.0705	1,932.13	77.6065	1,932.13	77.4904	1,932.13	61.8799	1,932.13	79.6565	1,932.13	79.0334	1,932.13	80.9825
1,999.51	91.5688	1,999.51	92.0676	1,999.51	89.8907	1,999.51	90.4724	1,999.51	86.8759	1,999.51	87.7185	1,999.51	81.793	1,999.51	85.8463	1,999.51	74.8665	1,999.51	82.2492	1,999.51	78.1497	1,999.51	80.4795	1,999.51	80.8188	1,999.51	81.3466	1,999.51	82.1868	1,999.51	75.4655	1,999.51	81.6791	1,999.51	62.5133	1,999.51	78.3455	1,999.51	72.899	1,999.51	78.779	1,999.51	77.6634	1,999.51	80.1728	1,999.51	74.86	1,999.51	74.7762	1,999.51	60.8011	1,999.51	74.8846	1,999.51	68.944	1,999.51	80.435	1,999.51	68.6143	1,999.51	77.4708	1,999.51	75.3596	1,999.51	66.2261	1,999.51	78.0867	1,999.51	80.121	1,999.51	81.1951
2,069.82	91.954	2,069.82	92.2622	2,069.82	90.4596	2,069.82	90.1972	2,069.82	88.394	2,069.82	87.98	2,069.82	83.4622	2,069.82	85.7281	2,069.82	74.7975	2,069.82	80.9307	2,069.82	77.3287	2,069.82	78.3583	2,069.82	79.8457	2,069.82	76.9938	2,069.82	82.3461	2,069.82	69.5199	2,069.82	82.2342	2,069.82	72.9733	2,069.82	80.0347	2,069.82	61.5476	2,069.82	80.548	2,069.82	75.0787	2,069.82	81.3419	2,069.82	76.1385	2,069.82	78.4156	2,069.82	72.4355	2,069.82	69.416	2,069.82	65.3019	2,069.82	80.539	2,069.82	72.478	2,069.82	78.9778	2,069.82	75.2319	2,069.82	65.3559	2,069.82	78.2301	2,069.82	80.2481	2,069.82	81.2175
2,143.07	91.8493	2,143.07	91.6364	2,143.07	90.1486	2,143.07	90.0909	2,143.07	88.2735	2,143.07	89.6539	2,143.07	83.367	2,143.07	86.7632	2,143.07	73.5556	2,143.07	80.4265	2,143.07	78.2747	2,143.07	73.8387	2,143.07	79.3421	2,143.07	70.7272	2,143.07	81.0967	2,143.07	69.5596	2,143.07	82.4159	2,143.07	62.7075	2,143.07	81.1794	2,143.07	70.4463	2,143.07	79.5748	2,143.07	73.6949	2,143.07	80.9536	2,143.07	73.8588	2,143.07	80.8424	2,143.07	70.3233	2,143.07	71.8694	2,143.07	59.3494	2,143.07	76.4489	2,143.07	67.864	2,143.07	79.0753	2,143.07	71.785	2,143.07	69.1919	2,143.07	75.3386	2,143.07	75.8991	2,143.07	79.3398
2,219.24	91.3368	2,219.24	91.2618	2,219.24	89.4445	2,219.24	90.2873	2,219.24	87.466	2,219.24	88.7301	2,219.24	81.6934	2,219.24	84.5645	2,219.24	73.5102	2,219.24	81.8494	2,219.24	80.5061	2,219.24	77.2845	2,219.24	81.9948	2,219.24	72.4671	2,219.24	80.7807	2,219.24	68.0558	2,219.24	80.0316	2,219.24	65.6266	2,219.24	80.9862	2,219.24	70.4559	2,219.24	80.9778	2,219.24	72.7113	2,219.24	81.3819	2,219.24	67.5694	2,219.24	80.1655	2,219.24	54.7068	2,219.24	78.6682	2,219.24	58.5121	2,219.24	58.6291	2,219.24	57.4967	2,219.24	74.0729	2,219.24	65.6663	2,219.24	77.2316	2,219.24	62.1513	2,219.24	73.7654	2,219.24	65.8537
2,296.88	91.3466	2,296.88	91.0005	2,296.88	88.7129	2,296.88	90.4911	2,296.88	83.6396	2,296.88	88.2277	2,296.88	76.6193	2,296.88	82.7481	2,296.88	76.0891	2,296.88	80.9238	2,296.88	82.8415	2,296.88	77.4819	2,296.88	83.43	2,296.88	76.154	2,296.88	81.0978	2,296.88	71.177	2,296.88	80.0338	2,296.88	65.0259	2,296.88	80.9927	2,296.88	62.8571	2,296.88	79.0734	2,296.88	73.8958	2,296.88	81.4407	2,296.88	71.7394	2,296.88	79.8981	2,296.88	51.7254	2,296.88	78.2093	2,296.88	60.2088	2,296.88	73.4671	2,296.88	66.5184	2,296.88	61.9876	2,296.88	73.5314	2,296.88	76.756	2,296.88	73.0865	2,296.88	77.357	2,296.88	71.9754
2,378.91	92.4892	2,378.91	91.9723	2,378.91	90.4036	2,378.91	90.0149	2,378.91	83.7224	2,378.91	85.4921	2,378.91	75.0318	2,378.91	83.2863	2,378.91	75.4334	2,378.91	81.7038	2,378.91	83.9569	2,378.91	75.2564	2,378.91	84.4412	2,378.91	67.6046	2,378.91	84.0243	2,378.91	68.053	2,378.91	83.847	2,378.91	75.0172	2,378.91	83.3268	2,378.91	70.4783	2,378.91	81.303	2,378.91	63.2419	2,378.91	79.1634	2,378.91	71.4623	2,378.91	77.7173	2,378.91	67.8865	2,378.91	78.2674	2,378.91	58.6221	2,378.91	76.1285	2,378.91	56.8484	2,378.91	69.0444	2,378.91	69.8764	2,378.91	74.2045	2,378.91	72.7383	2,378.91	76.4027	2,378.91	72.0843
2,462.4	93.5965	2,462.4	92.9231	2,462.4	92.2215	2,462.4	89.8571	2,462.4	86.2183	2,462.4	85.4525	2,462.4	62.0527	2,462.4	84.304	2,462.4	80.0679	2,462.4	78.407	2,462.4	84.0047	2,462.4	41.7323	2,462.4	85.4213	2,462.4	69.3458	2,462.4	84.3529	2,462.4	59.1932	2,462.4	82.4306	2,462.4	69.7509	2,462.4	82.3275	2,462.4	53.0888	2,462.4	81.1833	2,462.4	63.2243	2,462.4	81.5266	2,462.4	53.2626	2,462.4	76.689	2,462.4	68.2564	2,462.4	78.8882	2,462.4	63.3125	2,462.4	76.3307	2,462.4	48.5284	2,462.4	69.6023	2,462.4	70.5294	2,462.4	72.4603	2,462.4	75.1554	2,462.4	76.8898	2,462.4	74.6302
2,548.83	93.1931	2,548.83	92.9889	2,548.83	91.8523	2,548.83	90.5715	2,548.83	88.1064	2,548.83	88.4479	2,548.83	67.397	2,548.83	82.5836	2,548.83	82.1185	2,548.83	64.0698	2,548.83	84.2507	2,548.83	69.9082	2,548.83	85.8852	2,548.83	73.8208	2,548.83	83.5013	2,548.83	73.9823	2,548.83	83.6172	2,548.83	70.8555	2,548.83	84.4824	2,548.83	71.8171	2,548.83	79.8671	2,548.83	71.8057	2,548.83	80.1138	2,548.83	60.7489	2,548.83	80.3066	2,548.83	68.5606	2,548.83	77.6207	2,548.83	64.6135	2,548.83	78.2515	2,548.83	63.0357	2,548.83	72.6912	2,548.83	63.6246	2,548.83	69.2121	2,548.83	72.6713	2,548.83	78.882	2,548.83	76.5286
2,639.65	92.5466	2,639.65	91.7397	2,639.65	91.0733	2,639.65	90.6003	2,639.65	87.763	2,639.65	87.9592	2,639.65	74.9872	2,639.65	77.9251	2,639.65	84.0331	2,639.65	75.2254	2,639.65	85.5584	2,639.65	74.2608	2,639.65	86.4316	2,639.65	72.8781	2,639.65	86.5012	2,639.65	70.3455	2,639.65	85.8148	2,639.65	75.4087	2,639.65	85.208	2,639.65	71.5497	2,639.65	81.4093	2,639.65	76.249	2,639.65	78.8788	2,639.65	72.2174	2,639.65	81.3562	2,639.65	62.1683	2,639.65	77.2439	2,639.65	70.1001	2,639.65	78.7904	2,639.65	55.2114	2,639.65	74.7507	2,639.65	65.9457	2,639.65	74.9534	2,639.65	72.759	2,639.65	79.4048	2,639.65	72.6539
2,731.93	91.9581	2,731.93	91.0671	2,731.93	90.1466	2,731.93	89.9111	2,731.93	85.0943	2,731.93	84.5155	2,731.93	78.8877	2,731.93	79.0076	2,731.93	85.0804	2,731.93	78.6559	2,731.93	86.5188	2,731.93	75.0889	2,731.93	87.1907	2,731.93	74.6002	2,731.93	87.1951	2,731.93	76.5641	2,731.93	85.0438	2,731.93	77.2743	2,731.93	84.0793	2,731.93	76.3814	2,731.93	79.4854	2,731.93	72.494	2,731.93	81.4122	2,731.93	70.7072	2,731.93	81.2595	2,731.93	67.8227	2,731.93	79.6727	2,731.93	69.055	2,731.93	76.7172	2,731.93	65.3606	2,731.93	70.7759	2,731.93	62.2924	2,731.93	75.4006	2,731.93	72.4521	2,731.93	78.6702	2,731.93	74.121
2,828.61	91.8593	2,828.61	91.3904	2,828.61	90.6385	2,828.61	88.5085	2,828.61	83.9493	2,828.61	82.014	2,828.61	78.788	2,828.61	80.96	2,828.61	84.7309	2,828.61	75.045	2,828.61	87.1368	2,828.61	74.0953	2,828.61	86.7001	2,828.61	72.1964	2,828.61	87.216	2,828.61	74.103	2,828.61	85.1276	2,828.61	72.0631	2,828.61	82.2672	2,828.61	52.2907	2,828.61	75.278	2,828.61	64.3372	2,828.61	79.5667	2,828.61	73.6004	2,828.61	82.7745	2,828.61	65.5988	2,828.61	78.4052	2,828.61	69.8645	2,828.61	78.9959	2,828.61	61.578	2,828.61	68.8103	2,828.61	56.953	2,828.61	74.2744	2,828.61	71.2053	2,828.61	77.939	2,828.61	73.1471
2,928.22	92.5525	2,928.22	92.724	2,928.22	90.8371	2,928.22	89.659	2,928.22	83.5443	2,928.22	85.0238	2,928.22	81.0485	2,928.22	79.3901	2,928.22	85.297	2,928.22	74.3126	2,928.22	87.3785	2,928.22	75.467	2,928.22	87.5781	2,928.22	73.7256	2,928.22	87.3154	2,928.22	71.4289	2,928.22	85.0682	2,928.22	71.7488	2,928.22	76.7255	2,928.22	73.9771	2,928.22	73.2312	2,928.22	75.2346	2,928.22	69.5011	2,928.22	71.1965	2,928.22	81.983	2,928.22	74.9053	2,928.22	77.797	2,928.22	65.4566	2,928.22	78.1376	2,928.22	67.9199	2,928.22	70.3167	2,928.22	60.27	2,928.22	76.1731	2,928.22	69.9912	2,928.22	77.3326	2,928.22	72.3024
3,030.76	92.84	3,030.76	92.5473	3,030.76	91.4388	3,030.76	89.5405	3,030.76	85.5131	3,030.76	85.5141	3,030.76	79.1647	3,030.76	78.8903	3,030.76	86.691	3,030.76	75.678	3,030.76	88.1666	3,030.76	74.1824	3,030.76	87.7803	3,030.76	72.1027	3,030.76	87.472	3,030.76	76.9165	3,030.76	84.7264	3,030.76	79.7754	3,030.76	55.7443	3,030.76	77.567	3,030.76	61.264	3,030.76	73.9815	3,030.76	75.4648	3,030.76	73.4845	3,030.76	79.9369	3,030.76	72.4446	3,030.76	80.2327	3,030.76	72.4576	3,030.76	75.0129	3,030.76	68.3186	3,030.76	66.7853	3,030.76	55.4449	3,030.76	75.5697	3,030.76	67.112	3,030.76	76.8901	3,030.76	68.9414
3,137.7	93.3741	3,137.7	92.7357	3,137.7	91.5913	3,137.7	88.5367	3,137.7	87.0089	3,137.7	83.4407	3,137.7	79.1066	3,137.7	77.5554	3,137.7	88.0128	3,137.7	76.317	3,137.7	88.9432	3,137.7	70.8801	3,137.7	88.1349	3,137.7	81.5203	3,137.7	86.962	3,137.7	81.6867	3,137.7	82.1628	3,137.7	77.0844	3,137.7	66.9922	3,137.7	73.4603	3,137.7	72.9367	3,137.7	72.4023	3,137.7	73.0897	3,137.7	77.2681	3,137.7	80.888	3,137.7	75.7457	3,137.7	79.1285	3,137.7	75.6882	3,137.7	77.548	3,137.7	71.3457	3,137.7	72.0691	3,137.7	68.8528	3,137.7	75.5775	3,137.7	63.9498	3,137.7	75.9939	3,137.7	65.9126
3,249.02	93.7476	3,249.02	91.9618	3,249.02	91.3558	3,249.02	87.2257	3,249.02	87.6702	3,249.02	83.3216	3,249.02	83.5965	3,249.02	74.6466	3,249.02	88.6034	3,249.02	74.8017	3,249.02	89.7737	3,249.02	82.3615	3,249.02	89.6799	3,249.02	84.2267	3,249.02	88.4434	3,249.02	79.7887	3,249.02	79.2327	3,249.02	77.4914	3,249.02	78.877	3,249.02	78.958	3,249.02	74.6806	3,249.02	77.5326	3,249.02	80.8134	3,249.02	75.8476	3,249.02	78.6196	3,249.02	78.9836	3,249.02	82.0787	3,249.02	77.905	3,249.02	77.295	3,249.02	75.7532	3,249.02	73.802	3,249.02	68.7659	3,249.02	78.1142	3,249.02	68.0506	3,249.02	76.1745	3,249.02	70.4876
3,363.28	93.5901	3,363.28	91.7598	3,363.28	91.6056	3,363.28	87.912	3,363.28	86.5384	3,363.28	80.8425	3,363.28	86.3419	3,363.28	76.6829	3,363.28	89.8813	3,363.28	81.8186	3,363.28	89.8097	3,363.28	85.3612	3,363.28	90.7243	3,363.28	83.9175	3,363.28	89.0093	3,363.28	83.4718	3,363.28	81.898	3,363.28	83.7998	3,363.28	84.7574	3,363.28	79.6977	3,363.28	81.256	3,363.28	78.1736	3,363.28	79.5876	3,363.28	75.732	3,363.28	77.9403	3,363.28	78.5655	3,363.28	81.8243	3,363.28	79.3424	3,363.28	77.3338	3,363.28	76.798	3,363.28	74.9978	3,363.28	72.2583	3,363.28	78.9273	3,363.28	66.782	3,363.28	77.4836	3,363.28	75.0049
3,481.93	93.2384	3,481.93	91.6081	3,481.93	90.9796	3,481.93	88.1859	3,481.93	86.4016	3,481.93	81.6516	3,481.93	84.6337	3,481.93	81.5515	3,481.93	89.8201	3,481.93	86.1992	3,481.93	88.9823	3,481.93	86.858	3,481.93	90.6166	3,481.93	86.0714	3,481.93	88.5719	3,481.93	85.2894	3,481.93	83.0605	3,481.93	81.528	3,481.93	84.3626	3,481.93	77.6851	3,481.93	82.4673	3,481.93	78.4091	3,481.93	80.008	3,481.93	77.3867	3,481.93	77.6435	3,481.93	76.2793	3,481.93	80.4421	3,481.93	79.0528	3,481.93	75.2113	3,481.93	77.7703	3,481.93	72.5205	3,481.93	73.5587	3,481.93	78.6686	3,481.93	62.4034	3,481.93	77.3584	3,481.93	75.6849
3,604.98	93.955	3,604.98	91.357	3,604.98	91.0805	3,604.98	87.4236	3,604.98	84.8786	3,604.98	80.0769	3,604.98	85.2173	3,604.98	85.2177	3,604.98	88.238	3,604.98	88.0786	3,604.98	89.2364	3,604.98	87.3371	3,604.98	90.1257	3,604.98	85.9202	3,604.98	85.6466	3,604.98	82.8424	3,604.98	81.2636	3,604.98	78.237	3,604.98	83.2975	3,604.98	77.24	3,604.98	80.7224	3,604.98	75.6135	3,604.98	80.9051	3,604.98	74.2773	3,604.98	74.0203	3,604.98	76.5647	3,604.98	78.3303	3,604.98	75.2769	3,604.98	73.7714	3,604.98	77.7498	3,604.98	68.9624	3,604.98	72.3548	3,604.98	78.5698	3,604.98	52.5857	3,604.98	75.0327	3,604.98	74.7085
3,732.42	93.8438	3,732.42	91.2112	3,732.42	93.2664	3,732.42	87.4833	3,732.42	84.8945	3,732.42	83.2886	3,732.42	86.1761	3,732.42	87.2488	3,732.42	85.7294	3,732.42	88.3497	3,732.42	89.0248	3,732.42	86.4256	3,732.42	89.4792	3,732.42	83.2189	3,732.42	84.6345	3,732.42	81.268	3,732.42	80.7586	3,732.42	78.0698	3,732.42	80.324	3,732.42	75.0838	3,732.42	78.4904	3,732.42	74.3089	3,732.42	77.7122	3,732.42	74.023	3,732.42	72.4728	3,732.42	75.2505	3,732.42	76.2915	3,732.42	74.3812	3,732.42	75.4044	3,732.42	75.2275	3,732.42	65.3021	3,732.42	70.7626	3,732.42	77.6084	3,732.42	62.9229	3,732.42	73.1839	3,732.42	74.0018
3,864.26	91.3533	3,864.26	89.8645	3,864.26	92.1898	3,864.26	86.9128	3,864.26	87.9203	3,864.26	85.329	3,864.26	82.8556	3,864.26	88.2253	3,864.26	85.7588	3,864.26	87.3082	3,864.26	88.6152	3,864.26	84.7865	3,864.26	88.2755	3,864.26	81.3254	3,864.26	80.8529	3,864.26	80.5732	3,864.26	77.076	3,864.26	76.9157	3,864.26	76.0435	3,864.26	75.7986	3,864.26	71.0297	3,864.26	71.1893	3,864.26	72.6274	3,864.26	71.2855	3,864.26	70.4822	3,864.26	71.3045	3,864.26	77.648	3,864.26	75.0287	3,864.26	73.3084	3,864.26	73.2632	3,864.26	70.6476	3,864.26	72.0538	3,864.26	77.6386	3,864.26	62.1659	3,864.26	74.4197	3,864.26	71.8047
4,000.49	90.5967	4,000.49	90.3236	4,000.49	90.6649	4,000.49	85.5039	4,000.49	88.0438	4,000.49	86.2836	4,000.49	85.2552	4,000.49	87.4239	4,000.49	84.1967	4,000.49	85.0415	4,000.49	88.5232	4,000.49	81.5714	4,000.49	85.8417	4,000.49	81.9681	4,000.49	78.2801	4,000.49	79.1473	4,000.49	76.2624	4,000.49	76.1443	4,000.49	78.3821	4,000.49	72.7847	4,000.49	65.3698	4,000.49	73.9555	4,000.49	69.5787	4,000.49	73.7422	4,000.49	68.8471	4,000.49	68.7442	4,000.49	76.4372	4,000.49	73.8891	4,000.49	71.3007	4,000.49	72.4463	4,000.49	68.7668	4,000.49	72.0033	4,000.49	76.2706	4,000.49	63.5846	4,000.49	74.0865	4,000.49	69.7204
4,141.11	91.0242	4,141.11	91.0305	4,141.11	91.1475	4,141.11	86.9357	4,141.11	88.197	4,141.11	87.6721	4,141.11	85.8252	4,141.11	86.8778	4,141.11	86.1301	4,141.11	84.7129	4,141.11	87.2419	4,141.11	83.0135	4,141.11	81.9301	4,141.11	82.5535	4,141.11	77.4349	4,141.11	79.6638	4,141.11	79.8064	4,141.11	80.6399	4,141.11	73.6829	4,141.11	76.3001	4,141.11	56.2466	4,141.11	74.1049	4,141.11	72.3496	4,141.11	74.2826	4,141.11	72.854	4,141.11	73.3303	4,141.11	72.3503	4,141.11	72.5074	4,141.11	72.595	4,141.11	74.9127	4,141.11	70.2417	4,141.11	71.5421	4,141.11	76.3403	4,141.11	61.935	4,141.11	73.8191	4,141.11	69.6658
4,287.6	91.2287	4,287.6	90.3514	4,287.6	89.5632	4,287.6	88.0422	4,287.6	88.2124	4,287.6	87.0751	4,287.6	84.0137	4,287.6	85.9804	4,287.6	87.1678	4,287.6	85.5978	4,287.6	86.9544	4,287.6	84.1845	4,287.6	80.8944	4,287.6	83.6009	4,287.6	81.7025	4,287.6	82.4078	4,287.6	79.8525	4,287.6	76.9482	4,287.6	73.7353	4,287.6	74.495	4,287.6	66.4599	4,287.6	73.2542	4,287.6	66.6862	4,287.6	74.148	4,287.6	74.3022	4,287.6	74.2309	4,287.6	72.1181	4,287.6	71.3876	4,287.6	69.7443	4,287.6	73.7987	4,287.6	71.4788	4,287.6	69.5386	4,287.6	75.0938	4,287.6	59.9904	4,287.6	74.1353	4,287.6	69.7465
4,438.48	92.0762	4,438.48	90.9322	4,438.48	90.048	4,438.48	87.6707	4,438.48	89.101	4,438.48	85.5627	4,438.48	84.9556	4,438.48	87.6187	4,438.48	87.2166	4,438.48	87.2978	4,438.48	86.1196	4,438.48	85.4948	4,438.48	80.8118	4,438.48	84.5491	4,438.48	82.9799	4,438.48	79.4639	4,438.48	75.2603	4,438.48	78.34	4,438.48	54.0796	4,438.48	76.6714	4,438.48	59.7677	4,438.48	72.1475	4,438.48	63.4453	4,438.48	71.8736	4,438.48	74.9485	4,438.48	74.4782	4,438.48	73.0136	4,438.48	71.0565	4,438.48	68.3412	4,438.48	74.9369	4,438.48	68.121	4,438.48	69.9263	4,438.48	73.4801	4,438.48	63.4868	4,438.48	73.6318	4,438.48	66.2539
4,595.21	91.7766	4,595.21	90.7817	4,595.21	88.5049	4,595.21	87.9942	4,595.21	88.8065	4,595.21	86.2452	4,595.21	87.2026	4,595.21	87.3043	4,595.21	87.0558	4,595.21	87.3975	4,595.21	85.749	4,595.21	85.1514	4,595.21	83.4614	4,595.21	80.6268	4,595.21	83.7335	4,595.21	79.7807	4,595.21	76.4916	4,595.21	76.0024	4,595.21	73.272	4,595.21	72.2509	4,595.21	65.895	4,595.21	71.4484	4,595.21	67.9761	4,595.21	70.4603	4,595.21	74.2802	4,595.21	73.368	4,595.21	73.2305	4,595.21	70.0654	4,595.21	66.6143	4,595.21	74.4244	4,595.21	67.6085	4,595.21	66.8743	4,595.21	74.8853	4,595.21	64.058	4,595.21	69.9553	4,595.21	67.6829
4,756.35	92.0187	4,756.35	90.3223	4,756.35	89.1221	4,756.35	87.4411	4,756.35	88.4773	4,756.35	87.1763	4,756.35	88.8905	4,756.35	88.3991	4,756.35	87.7589	4,756.35	87.3893	4,756.35	85.7029	4,756.35	82.905	4,756.35	84.1892	4,756.35	81.0097	4,756.35	82.5957	4,756.35	76.1813	4,756.35	76.4101	4,756.35	73.9215	4,756.35	78.2897	4,756.35	72.9912	4,756.35	71.8987	4,756.35	71.3824	4,756.35	65.6372	4,756.35	68.8506	4,756.35	72.9517	4,756.35	68.9585	4,756.35	73.0896	4,756.35	70.5051	4,756.35	60.1384	4,756.35	74.8347	4,756.35	66.2969	4,756.35	70.5973	4,756.35	75.323	4,756.35	63.3821	4,756.35	69.1744	4,756.35	67.7623
4,924.8	92.4104	4,924.8	90.723	4,924.8	89.908	4,924.8	88.3824	4,924.8	88.6656	4,924.8	87.1594	4,924.8	89.9931	4,924.8	88.5961	4,924.8	87.9157	4,924.8	85.9937	4,924.8	85.6878	4,924.8	82.2057	4,924.8	85.4938	4,924.8	77.3425	4,924.8	80.0464	4,924.8	78.1298	4,924.8	78.0681	4,924.8	74.8303	4,924.8	77.1411	4,924.8	70.1213	4,924.8	70.6412	4,924.8	67.9293	4,924.8	69.3345	4,924.8	70.0248	4,924.8	74.9025	4,924.8	69.0052	4,924.8	75.1418	4,924.8	72.2068	4,924.8	62.6291	4,924.8	73.375	4,924.8	60.3604	4,924.8	71.5449	4,924.8	74.4927	4,924.8	61.2532	4,924.8	69.3157	4,924.8	68.5139
5,097.66	92.6343	5,097.66	90.8794	5,097.66	90.2637	5,097.66	87.3845	5,097.66	88.5832	5,097.66	88.6734	5,097.66	90.2013	5,097.66	88.3755	5,097.66	87.696	5,097.66	85.3344	5,097.66	85.7336	5,097.66	80.9249	5,097.66	84.4415	5,097.66	79.9235	5,097.66	83.2725	5,097.66	77.7995	5,097.66	78.9962	5,097.66	73.9016	5,097.66	74.0263	5,097.66	69.6614	5,097.66	73.7736	5,097.66	69.5999	5,097.66	70.3422	5,097.66	71.5865	5,097.66	73.5963	5,097.66	67.2662	5,097.66	72.6694	5,097.66	72.9142	5,097.66	64.2457	5,097.66	71.5681	5,097.66	53.5969	5,097.66	73.1927	5,097.66	74.6957	5,097.66	65.8727	5,097.66	70.6939	5,097.66	66.2399
5,277.83	92.6366	5,277.83	90.8476	5,277.83	89.9954	5,277.83	87.5682	5,277.83	87.5831	5,277.83	89.1228	5,277.83	90.2653	5,277.83	87.6939	5,277.83	87.0602	5,277.83	84.1495	5,277.83	84.2509	5,277.83	81.6075	5,277.83	83.2467	5,277.83	78.5329	5,277.83	85.0942	5,277.83	77.3259	5,277.83	81.8461	5,277.83	75.6295	5,277.83	80.6726	5,277.83	70.0818	5,277.83	76.6459	5,277.83	66.3855	5,277.83	68.5085	5,277.83	69.7001	5,277.83	72.1136	5,277.83	73.4905	5,277.83	69.0688	5,277.83	69.4053	5,277.83	48.0179	5,277.83	72.7866	5,277.83	63.55	5,277.83	72.2181	5,277.83	74.2955	5,277.83	61.585	5,277.83	67.7648	5,277.83	55.5782
5,463.87	92.753	5,463.87	89.9911	5,463.87	90.5653	5,463.87	87.7263	5,463.87	86.5135	5,463.87	89.9018	5,463.87	90.6836	5,463.87	87.2363	5,463.87	86.5225	5,463.87	84.445	5,463.87	82.8151	5,463.87	79.8016	5,463.87	84.357	5,463.87	79.3336	5,463.87	84.8949	5,463.87	76.3476	5,463.87	82.6292	5,463.87	73.8334	5,463.87	82.0514	5,463.87	68.1842	5,463.87	77.0271	5,463.87	64.3937	5,463.87	68.8391	5,463.87	67.1493	5,463.87	72.3349	5,463.87	72.737	5,463.87	70.4403	5,463.87	70.2124	5,463.87	65.2563	5,463.87	72.1067	5,463.87	58.2762	5,463.87	71.0834	5,463.87	74.3091	5,463.87	59.7812	5,463.87	69.6607	5,463.87	59.4871
5,657.23	93.0545	5,657.23	89.2873	5,657.23	92.6948	5,657.23	89.1514	5,657.23	87.648	5,657.23	90.2519	5,657.23	89.8338	5,657.23	86.6819	5,657.23	85.3214	5,657.23	83.0191	5,657.23	82.0245	5,657.23	80.2385	5,657.23	85.907	5,657.23	76.1127	5,657.23	85.553	5,657.23	76.0998	5,657.23	82.3073	5,657.23	74.6802	5,657.23	79.2068	5,657.23	69.1002	5,657.23	71.1233	5,657.23	60.5615	5,657.23	60.1651	5,657.23	62.2753	5,657.23	73.1493	5,657.23	72.1203	5,657.23	64.3312	5,657.23	69.3199	5,657.23	65.0601	5,657.23	72.6886	5,657.23	57.5097	5,657.23	70.1818	5,657.23	73.0721	5,657.23	61.9282	5,657.23	65.3426	5,657.23	57.3805
5,856.45	92.4759	5,856.45	88.8624	5,856.45	92.5619	5,856.45	90.3046	5,856.45	87.4269	5,856.45	89.4119	5,856.45	89.618	5,856.45	86.1267	5,856.45	85.085	5,856.45	82.9399	5,856.45	82.3953	5,856.45	78.5638	5,856.45	86.4818	5,856.45	78.2767	5,856.45	85.4253	5,856.45	74.9343	5,856.45	77.7614	5,856.45	72.1955	5,856.45	75.6509	5,856.45	68.8999	5,856.45	50.1605	5,856.45	52.2769	5,856.45	58.6819	5,856.45	55.6475	5,856.45	68.386	5,856.45	70.8521	5,856.45	59.3908	5,856.45	70.8913	5,856.45	69.1388	5,856.45	72.6675	5,856.45	63.4759	5,856.45	70.3271	5,856.45	72.2326	5,856.45	64.4854	5,856.45	64.2644	5,856.45	60.595
6,062.99	91.3914	6,062.99	89.8531	6,062.99	92.3515	6,062.99	91.2583	6,062.99	85.2013	6,062.99	89.0121	6,062.99	89.8063	6,062.99	85.8204	6,062.99	85.0202	6,062.99	81.4503	6,062.99	84.2287	6,062.99	79.9411	6,062.99	85.8977	6,062.99	76.5371	6,062.99	82.0132	6,062.99	77.3944	6,062.99	74.96	6,062.99	74.5917	6,062.99	76.9229	6,062.99	70.4749	6,062.99	70.1496	6,062.99	59.4457	6,062.99	68.2765	6,062.99	58.4071	6,062.99	51.3123	6,062.99	68.8134	6,062.99	64.4889	6,062.99	69.5261	6,062.99	71.0906	6,062.99	71.3715	6,062.99	63.2588	6,062.99	71.3276	6,062.99	72.6506	6,062.99	63.4457	6,062.99	59.7535	6,062.99	63.338
6,276.86	91.0833	6,276.86	91.267	6,276.86	92.4781	6,276.86	91.1769	6,276.86	88.2193	6,276.86	88.1158	6,276.86	88.6465	6,276.86	85.9271	6,276.86	85.6045	6,276.86	80.8483	6,276.86	84.4135	6,276.86	80.5017	6,276.86	85.1065	6,276.86	78.6902	6,276.86	77.5289	6,276.86	75.4389	6,276.86	77.3806	6,276.86	73.7536	6,276.86	75.2568	6,276.86	69.5758	6,276.86	69.5889	6,276.86	65.9967	6,276.86	67.7871	6,276.86	58.5988	6,276.86	52.0169	6,276.86	69.1963	6,276.86	68.3509	6,276.86	70.5219	6,276.86	66.3494	6,276.86	71.2336	6,276.86	51.7639	6,276.86	71.8225	6,276.86	72.2261	6,276.86	65.1247	6,276.86	63.4435	6,276.86	66.1262
6,498.05	91.272	6,498.05	92.1422	6,498.05	92.7315	6,498.05	90.2628	6,498.05	90.5999	6,498.05	88.0562	6,498.05	88.2842	6,498.05	85.6521	6,498.05	86.6062	6,498.05	82.131	6,498.05	84.4452	6,498.05	80.9089	6,498.05	83.9456	6,498.05	77.1301	6,498.05	81.057	6,498.05	76.84	6,498.05	78.4268	6,498.05	73.4176	6,498.05	74.4551	6,498.05	70.7713	6,498.05	65.7319	6,498.05	68.212	6,498.05	54.2495	6,498.05	52.1353	6,498.05	58.7771	6,498.05	69.4697	6,498.05	64.8976	6,498.05	67.9284	6,498.05	64.1559	6,498.05	70.4062	6,498.05	54.7603	6,498.05	72.4247	6,498.05	70.8799	6,498.05	63.4209	6,498.05	60.5202	6,498.05	59.4876
6,726.56	91.196	6,726.56	92.1375	6,726.56	93.1583	6,726.56	90.1634	6,726.56	90.3287	6,726.56	88.6776	6,726.56	88.0549	6,726.56	85.0939	6,726.56	87.4115	6,726.56	82.2076	6,726.56	83.7976	6,726.56	79.793	6,726.56	81.3073	6,726.56	76.6162	6,726.56	80.9387	6,726.56	75.0413	6,726.56	79.4076	6,726.56	73.3413	6,726.56	76.8359	6,726.56	69.4496	6,726.56	68.3273	6,726.56	69.8229	6,726.56	57.6608	6,726.56	59.5023	6,726.56	63.9082	6,726.56	69.6494	6,726.56	65.7124	6,726.56	67.1663	6,726.56	52.8037	6,726.56	71.5034	6,726.56	57.2826	6,726.56	70.7985	6,726.56	68.8532	6,726.56	65.0581	6,726.56	60.9662	6,726.56	60.4543
6,963.87	91.338	6,963.87	91.9021	6,963.87	91.8481	6,963.87	89.5765	6,963.87	90.0525	6,963.87	87.7903	6,963.87	87.8084	6,963.87	85.1875	6,963.87	88.1136	6,963.87	82.1364	6,963.87	81.6063	6,963.87	79.0799	6,963.87	81.5618	6,963.87	79.0781	6,963.87	79.9351	6,963.87	76.7381	6,963.87	80.0273	6,963.87	72.4321	6,963.87	73.2533	6,963.87	71.0557	6,963.87	67.7044	6,963.87	68.2678	6,963.87	56.8109	6,963.87	63.0306	6,963.87	60.9444	6,963.87	69.6621	6,963.87	66.801	6,963.87	65.294	6,963.87	60.4442	6,963.87	71.3255	6,963.87	59.2437	6,963.87	70.4167	6,963.87	70.1407	6,963.87	63.5538	6,963.87	62.3352	6,963.87	63.4049
7,209.96	92.2807	7,209.96	92.1444	7,209.96	91.5511	7,209.96	90.3819	7,209.96	89.9616	7,209.96	87.9722	7,209.96	89.2038	7,209.96	85.3271	7,209.96	87.6511	7,209.96	81.1761	7,209.96	76.7019	7,209.96	80.2211	7,209.96	83.0046	7,209.96	77.7116	7,209.96	80.0881	7,209.96	77.2001	7,209.96	78.0117	7,209.96	73.1193	7,209.96	72.9798	7,209.96	71.8445	7,209.96	72.0498	7,209.96	69.0068	7,209.96	69.2547	7,209.96	61.2784	7,209.96	65.7092	7,209.96	66.9894	7,209.96	65.2841	7,209.96	66.5573	7,209.96	61.6575	7,209.96	70.1581	7,209.96	54.907	7,209.96	70.4417	7,209.96	71.0058	7,209.96	66.512	7,209.96	60.4179	7,209.96	62.1305
7,464.84	92.0303	7,464.84	91.4309	7,464.84	92.4663	7,464.84	89.6635	7,464.84	90.3468	7,464.84	87.4025	7,464.84	89.9581	7,464.84	85.1464	7,464.84	86.9985	7,464.84	81.7208	7,464.84	72.3009	7,464.84	80.2794	7,464.84	82.8397	7,464.84	76.8646	7,464.84	76.1932	7,464.84	74.7087	7,464.84	76.6559	7,464.84	69.6787	7,464.84	74.735	7,464.84	69.7696	7,464.84	74.0602	7,464.84	69.3909	7,464.84	72.7519	7,464.84	57.5062	7,464.84	56.8462	7,464.84	60.9939	7,464.84	64.0055	7,464.84	67.6809	7,464.84	61.8836	7,464.84	68.8785	7,464.84	61.1148	7,464.84	68.8448	7,464.84	68.2935	7,464.84	68.5208	7,464.84	64.6528	7,464.84	57.8864
7,727.05	92.316	7,727.05	92.1306	7,727.05	91.8917	7,727.05	89.9413	7,727.05	90.9166	7,727.05	87.1919	7,727.05	90.0587	7,727.05	84.7804	7,727.05	85.9849	7,727.05	82.194	7,727.05	74.9407	7,727.05	78.7923	7,727.05	81.2406	7,727.05	76.4026	7,727.05	76.769	7,727.05	74.0364	7,727.05	76.1771	7,727.05	70.9891	7,727.05	74.7015	7,727.05	69.4333	7,727.05	71.7101	7,727.05	68.4437	7,727.05	71.4862	7,727.05	63.7053	7,727.05	54.1492	7,727.05	58.8282	7,727.05	64.2219	7,727.05	66.1805	7,727.05	63.0536	7,727.05	66.5912	7,727.05	55.409	7,727.05	70.4369	7,727.05	62.3222	7,727.05	67.1448	7,727.05	64.6193	7,727.05	61.2734
7,999.51	91.8341	7,999.51	91.6074	7,999.51	91.1033	7,999.51	89.68	7,999.51	90.7555	7,999.51	86.9787	7,999.51	88.9188	7,999.51	84.1808	7,999.51	86.2701	7,999.51	82.375	7,999.51	79.5849	7,999.51	78.0645	7,999.51	77.9913	7,999.51	76.3588	7,999.51	81.9085	7,999.51	75.8142	7,999.51	78.8716	7,999.51	72.2742	7,999.51	74.6365	7,999.51	70.961	7,999.51	73.7183	7,999.51	67.8655	7,999.51	71.1527	7,999.51	65.0136	7,999.51	61.016	7,999.51	60.8419	7,999.51	65.3533	7,999.51	63.801	7,999.51	67.2799	7,999.51	67.2156	7,999.51	58.4352	7,999.51	71.0298	7,999.51	67.996	7,999.51	66.3288	7,999.51	64.2105	7,999.51	62.5075
8,282.23	91.7868	8,282.23	91.6883	8,282.23	91.2633	8,282.23	89.4446	8,282.23	89.9782	8,282.23	86.6725	8,282.23	86.6249	8,282.23	84.0917	8,282.23	86.2383	8,282.23	82.1478	8,282.23	81.5337	8,282.23	78.8103	8,282.23	77.2821	8,282.23	77.1013	8,282.23	83.2229	8,282.23	74.9212	8,282.23	78.3244	8,282.23	72.5153	8,282.23	74.3073	8,282.23	70.257	8,282.23	71.934	8,282.23	66.6684	8,282.23	68.4288	8,282.23	65.1708	8,282.23	63.6269	8,282.23	55.3766	8,282.23	64.9162	8,282.23	63.7531	8,282.23	68.4066	8,282.23	66.678	8,282.23	62.6743	8,282.23	71.7107	8,282.23	63.4397	8,282.23	64.8438	8,282.23	59.9775	8,282.23	65.1123
8,573.73	91.2989	8,573.73	91.4122	8,573.73	91.512	8,573.73	89.0699	8,573.73	90.0081	8,573.73	86.5318	8,573.73	84.9543	8,573.73	84.6397	8,573.73	85.939	8,573.73	82.246	8,573.73	83.8626	8,573.73	80.0077	8,573.73	77.0322	8,573.73	76.2451	8,573.73	83.9604	8,573.73	72.9956	8,573.73	76.8729	8,573.73	72.8167	8,573.73	74.4481	8,573.73	68.9323	8,573.73	71.0011	8,573.73	67.4642	8,573.73	66.8552	8,573.73	62.3946	8,573.73	62.6903	8,573.73	55.4587	8,573.73	65.6478	8,573.73	63.8593	8,573.73	67.5708	8,573.73	67.0218	8,573.73	60.1742	8,573.73	69.9025	8,573.73	62.4138	8,573.73	67.727	8,573.73	63.591	8,573.73	65.3473
8,876.95	90.7885	8,876.95	91.261	8,876.95	90.6867	8,876.95	88.3907	8,876.95	91.6602	8,876.95	87.2883	8,876.95	87.5368	8,876.95	85.041	8,876.95	86.4331	8,876.95	83.2997	8,876.95	84.5479	8,876.95	78.9762	8,876.95	79.9552	8,876.95	76.3417	8,876.95	82.5301	8,876.95	73.5711	8,876.95	72.4007	8,876.95	72.9322	8,876.95	70.3633	8,876.95	69.171	8,876.95	69.2141	8,876.95	65.8313	8,876.95	63.3962	8,876.95	66.1762	8,876.95	63.7426	8,876.95	53.0789	8,876.95	64.8966	8,876.95	61.315	8,876.95	59.3961	8,876.95	66.8867	8,876.95	63.3261	8,876.95	70.5246	8,876.95	63.2689	8,876.95	63.9881	8,876.95	63.8198	8,876.95	65.0614
9,188.96	91.122	9,188.96	91.0277	9,188.96	90.5873	9,188.96	88.4582	9,188.96	91.6926	9,188.96	87.938	9,188.96	89.9311	9,188.96	85.0387	9,188.96	86.4648	9,188.96	83.6798	9,188.96	84.7893	9,188.96	79.6514	9,188.96	78.6795	9,188.96	77.3566	9,188.96	80.2729	9,188.96	73.3743	9,188.96	71.3825	9,188.96	73.0341	9,188.96	74.2366	9,188.96	68.0853	9,188.96	70.9838	9,188.96	63.4941	9,188.96	65.4855	9,188.96	63.5736	9,188.96	41.3034	9,188.96	58.3294	9,188.96	56.9384	9,188.96	63.0694	9,188.96	61.5977	9,188.96	66.8035	9,188.96	61.9993	9,188.96	68.5373	9,188.96	58.2092	9,188.96	67.9598	9,188.96	57.8448	9,188.96	64.2363
9,514.16	91.0586	9,514.16	91.2849	9,514.16	90.2758	9,514.16	88.9186	9,514.16	89.4734	9,514.16	87.9233	9,514.16	90.3794	9,514.16	85.1613	9,514.16	86.0402	9,514.16	83.4467	9,514.16	84.3446	9,514.16	80.3226	9,514.16	76.1467	9,514.16	76.5098	9,514.16	79.4932	9,514.16	73.3453	9,514.16	75.1081	9,514.16	72.2495	9,514.16	74.2189	9,514.16	66.2328	9,514.16	70.1908	9,514.16	63.9358	9,514.16	68.7229	9,514.16	61.705	9,514.16	61.8456	9,514.16	57.3828	9,514.16	57.3943	9,514.16	63.9175	9,514.16	65.0939	9,514.16	64.6671	9,514.16	63.3281	9,514.16	68.5324	9,514.16	55.1251	9,514.16	64.977	9,514.16	61.0644	9,514.16	63.6757
9,849.61	91.4195	9,849.61	91.578	9,849.61	91.0404	9,849.61	89.1459	9,849.61	88.7211	9,849.61	87.5158	9,849.61	89.2936	9,849.61	85.3077	9,849.61	84.9783	9,849.61	83.1997	9,849.61	86.5339	9,849.61	79.8889	9,849.61	71.4704	9,849.61	76.023	9,849.61	81.038	9,849.61	71.7893	9,849.61	77.7009	9,849.61	71.2818	9,849.61	74.8411	9,849.61	65.1419	9,849.61	69.1464	9,849.61	63.1177	9,849.61	67.9837	9,849.61	64.1462	9,849.61	62.6216	9,849.61	57.5951	9,849.61	60.5089	9,849.61	64.5503	9,849.61	64.3708	9,849.61	62.2244	9,849.61	58.9582	9,849.61	67.2449	9,849.61	60.273	9,849.61	64.6413	9,849.61	56.9573	9,849.61	60.8169
10,196.8	91.7496	10,196.8	91.9848	10,196.8	91.8991	10,196.8	89.1798	10,196.8	90.5266	10,196.8	87.4303	10,196.8	87.8752	10,196.8	85.1776	10,196.8	85.7259	10,196.8	83.0427	10,196.8	86.655	10,196.8	78.9881	10,196.8	75.2168	10,196.8	75.2249	10,196.8	81.3344	10,196.8	69.1184	10,196.8	75.5292	10,196.8	70.3948	10,196.8	70.0811	10,196.8	62.0737	10,196.8	69.7662	10,196.8	59.2918	10,196.8	67.7442	10,196.8	60.5918	10,196.8	62.0116	10,196.8	57.3504	10,196.8	54.8893	10,196.8	63.1057	10,196.8	62.7481	10,196.8	63.2212	10,196.8	55.6511	10,196.8	66.1707	10,196.8	56.3511	10,196.8	64.3755	10,196.8	57.2468	10,196.8	63.1516
10,555.7	92.2783	10,555.7	92.0103	10,555.7	91.4111	10,555.7	89.4741	10,555.7	90.6025	10,555.7	87.4552	10,555.7	87.2391	10,555.7	84.8517	10,555.7	85.4906	10,555.7	82.6315	10,555.7	86.0575	10,555.7	77.4345	10,555.7	77.3871	10,555.7	75.2212	10,555.7	80.2617	10,555.7	68.9804	10,555.7	70.351	10,555.7	70.7912	10,555.7	68.0299	10,555.7	60.1537	10,555.7	68.3406	10,555.7	54.0756	10,555.7	62.3987	10,555.7	58.3705	10,555.7	63.0996	10,555.7	57.3934	10,555.7	59.7936	10,555.7	60.8117	10,555.7	63.5301	10,555.7	63.3827	10,555.7	52.8484	10,555.7	65.9238	10,555.7	57.8136	10,555.7	64.371	10,555.7	54.7065	10,555.7	62.726
10,927.7	92.4923	10,927.7	92.1404	10,927.7	91.7222	10,927.7	89.2211	10,927.7	90.5065	10,927.7	87.3655	10,927.7	87.7989	10,927.7	84.6138	10,927.7	84.7248	10,927.7	81.7299	10,927.7	82.6633	10,927.7	77.3483	10,927.7	79.3686	10,927.7	74.857	10,927.7	77.9276	10,927.7	67.6122	10,927.7	72.4281	10,927.7	68.8631	10,927.7	68.4158	10,927.7	59.1749	10,927.7	66.8169	10,927.7	49.9564	10,927.7	64.5214	10,927.7	61.539	10,927.7	60.5652	10,927.7	57.6134	10,927.7	58.6445	10,927.7	58.3664	10,927.7	62.8022	10,927.7	62.4531	10,927.7	56.518	10,927.7	65.9755	10,927.7	58.5826	10,927.7	65.0215	10,927.7	43.6713	10,927.7	63.8957
11,313	92.1693	11,313	92.1536	11,313	91.8467	11,313	88.8248	11,313	90.5356	11,313	87.1412	11,313	87.7151	11,313	84.4227	11,313	84.1504	11,313	80.6953	11,313	79.3246	11,313	76.8475	11,313	78.9603	11,313	74.253	11,313	73.689	11,313	69.2095	11,313	75.4877	11,313	68.0481	11,313	71.3587	11,313	58.7879	11,313	68.5656	11,313	48.4884	11,313	63.2257	11,313	58.9571	11,313	59.8797	11,313	55.3521	11,313	59.4655	11,313	59.778	11,313	63.0792	11,313	61.3458	11,313	58.6119	11,313	63.6884	11,313	51.8996	11,313	63.5659	11,313	58.8308	11,313	64.0185
11,712.9	91.9224	11,712.9	91.8882	11,712.9	91.3786	11,712.9	88.2288	11,712.9	89.2621	11,712.9	87.2789	11,712.9	88.3346	11,712.9	83.855	11,712.9	81.8304	11,712.9	80.2151	11,712.9	79.5988	11,712.9	76.6065	11,712.9	79.5444	11,712.9	74.7605	11,712.9	72.3438	11,712.9	69.1285	11,712.9	71.4379	11,712.9	66.2152	11,712.9	67.4008	11,712.9	57.1874	11,712.9	67.2911	11,712.9	36.7741	11,712.9	64.8396	11,712.9	54.7589	11,712.9	58.1015	11,712.9	58.8727	11,712.9	53.6253	11,712.9	56.9731	11,712.9	61.5235	11,712.9	60.3986	11,712.9	60.4019	11,712.9	62.1054	11,712.9	56.0631	11,712.9	65.2725	11,712.9	58.8211	11,712.9	62.8494
12,126	91.8434	12,126	91.6245	12,126	91.6844	12,126	88.3226	12,126	89.135	12,126	87.0665	12,126	87.1683	12,126	83.4548	12,126	81.9422	12,126	79.8232	12,126	80.8349	12,126	75.9951	12,126	78.4031	12,126	73.702	12,126	69.6476	12,126	67.8233	12,126	69.3677	12,126	63.5129	12,126	58.1341	12,126	56.4657	12,126	65.2363	12,126	46.991	12,126	65.4702	12,126	50.4976	12,126	60.4441	12,126	57.9517	12,126	57.2618	12,126	57.0873	12,126	58.5476	12,126	59.9959	12,126	59.6759	12,126	63.9537	12,126	55.0144	12,126	64.9356	12,126	58.857	12,126	61.8658
12,553.7	92.0642	12,553.7	91.619	12,553.7	91.2773	12,553.7	88.3163	12,553.7	89.0304	12,553.7	86.8667	12,553.7	85.8815	12,553.7	83.5987	12,553.7	82.7073	12,553.7	78.8727	12,553.7	81.5688	12,553.7	75.7573	12,553.7	76.7705	12,553.7	72.8687	12,553.7	67.4512	12,553.7	68.9288	12,553.7	69.5629	12,553.7	62.5103	12,553.7	53.2638	12,553.7	59.6623	12,553.7	67.1476	12,553.7	32.9318	12,553.7	64.6488	12,553.7	43.3043	12,553.7	57.7434	12,553.7	55.2116	12,553.7	57.6537	12,553.7	58.8262	12,553.7	55.7405	12,553.7	60.046	12,553.7	55.2755	12,553.7	61.9754	12,553.7	53.3071	12,553.7	60.8405	12,553.7	62.5722	12,553.7	62.1818
12,996.1	92.3271	12,996.1	91.862	12,996.1	91.8823	12,996.1	88.7295	12,996.1	89.5825	12,996.1	87.2287	12,996.1	86.3842	12,996.1	83.7855	12,996.1	83.4352	12,996.1	78.7721	12,996.1	80.3184	12,996.1	76.1349	12,996.1	76.1221	12,996.1	73.7762	12,996.1	65.2245	12,996.1	68.733	12,996.1	69.264	12,996.1	62.1683	12,996.1	55.5882	12,996.1	58.3001	12,996.1	66.5131	12,996.1	44.9182	12,996.1	63.7975	12,996.1	46.799	12,996.1	55.0316	12,996.1	55.232	12,996.1	49.5634	12,996.1	56.3642	12,996.1	58.7337	12,996.1	62.1241	12,996.1	56.0753	12,996.1	64.0842	12,996.1	51.3675	12,996.1	60.9374	12,996.1	62.5541	12,996.1	61.467
13,454.6	92.559	13,454.6	92.1339	13,454.6	91.7382	13,454.6	89.2832	13,454.6	89.6754	13,454.6	87.7514	13,454.6	87.9777	13,454.6	84.029	13,454.6	83.4723	13,454.6	78.6763	13,454.6	78.5648	13,454.6	76.5335	13,454.6	76.3476	13,454.6	73.5986	13,454.6	55.6209	13,454.6	68.8952	13,454.6	65.8227	13,454.6	59.8776	13,454.6	47.8076	13,454.6	60.1346	13,454.6	65.4735	13,454.6	50.4744	13,454.6	62.5057	13,454.6	47.3288	13,454.6	55.5644	13,454.6	54.2788	13,454.6	54.198	13,454.6	59.4765	13,454.6	57.4053	13,454.6	61.7543	13,454.6	52.8411	13,454.6	64.7487	13,454.6	50.278	13,454.6	61.7387	13,454.6	63.0403	13,454.6	62.5264
13,929.2	92.8179	13,929.2	92.2073	13,929.2	92.0185	13,929.2	89.6733	13,929.2	90.2382	13,929.2	88.0826	13,929.2	89.072	13,929.2	84.551	13,929.2	83.3163	13,929.2	78.0942	13,929.2	77.937	13,929.2	76.7384	13,929.2	74.5403	13,929.2	73.5856	13,929.2	59.9577	13,929.2	69.4938	13,929.2	69.5143	13,929.2	60.2993	13,929.2	61.9221	13,929.2	61.2957	13,929.2	64.21	13,929.2	51.6057	13,929.2	63.5454	13,929.2	51.656	13,929.2	58.7038	13,929.2	55.5502	13,929.2	56.4236	13,929.2	58.692	13,929.2	56.4788	13,929.2	62.3801	13,929.2	54.6265	13,929.2	63.9453	13,929.2	55.1616	13,929.2	60.4834	13,929.2	61.6904	13,929.2	61.4153
14,419.9	92.745	14,419.9	92.1833	14,419.9	91.9057	14,419.9	89.6703	14,419.9	89.5849	14,419.9	88.3648	14,419.9	89.1429	14,419.9	84.2661	14,419.9	82.9779	14,419.9	78.435	14,419.9	79.3571	14,419.9	76.651	14,419.9	72.3002	14,419.9	73.4883	14,419.9	63.0933	14,419.9	70.0365	14,419.9	70.3145	14,419.9	61.8686	14,419.9	59.0924	14,419.9	62.6558	14,419.9	63.6564	14,419.9	48.4351	14,419.9	60.6396	14,419.9	54.0477	14,419.9	58.8493	14,419.9	51.6539	14,419.9	56.1536	14,419.9	54.7849	14,419.9	57.8148	14,419.9	61.9232	14,419.9	57.0045	14,419.9	63.7018	14,419.9	56.0691	14,419.9	61.5442	14,419.9	61.7602	14,419.9	62.0221
14,928.2	92.5326	14,928.2	92.2791	14,928.2	92.2754	14,928.2	89.569	14,928.2	89.7677	14,928.2	88.1914	14,928.2	88.2553	14,928.2	84.3672	14,928.2	83.0072	14,928.2	77.6003	14,928.2	77.5764	14,928.2	77.0065	14,928.2	74.4996	14,928.2	72.3309	14,928.2	68.8071	14,928.2	69.6279	14,928.2	68.7238	14,928.2	60.9706	14,928.2	59.8921	14,928.2	62.2017	14,928.2	64.8936	14,928.2	54.9013	14,928.2	61.3961	14,928.2	46.8328	14,928.2	50.0282	14,928.2	32.0676	14,928.2	50.8594	14,928.2	54.8244	14,928.2	54.9666	14,928.2	60.83	14,928.2	58.4756	14,928.2	63.9714	14,928.2	55.3448	14,928.2	61.5003	14,928.2	57.8653	14,928.2	62.2943
15,455.6	91.7343	15,455.6	91.8518	15,455.6	91.7577	15,455.6	89.1839	15,455.6	89.9114	15,455.6	87.7786	15,455.6	87.2676	15,455.6	83.9114	15,455.6	83.0618	15,455.6	76.758	15,455.6	78.0581	15,455.6	76.3809	15,455.6	72.9741	15,455.6	71.8966	15,455.6	69.5086	15,455.6	68.1089	15,455.6	66.6354	15,455.6	58.8276	15,455.6	55.1856	15,455.6	60.6922	15,455.6	67.3436	15,455.6	50.8239	15,455.6	59.1435	15,455.6	50.0523	15,455.6	52.7844	15,455.6	34.0924	15,455.6	37.7908	15,455.6	51.3468	15,455.6	54.8377	15,455.6	60.731	15,455.6	53.8029	15,455.6	62.663	15,455.6	53.4705	15,455.6	59.0736	15,455.6	55.1692	15,455.6	61.382
16,000.5	91.0924	16,000.5	91.3949	16,000.5	91.106	16,000.5	88.7308	16,000.5	89.251	16,000.5	87.5069	16,000.5	87.4813	16,000.5	82.9018	16,000.5	82.5292	16,000.5	76.2303	16,000.5	78.7749	16,000.5	75.7882	16,000.5	71.3894	16,000.5	69.6116	16,000.5	70.4363	16,000.5	66.1662	16,000.5	61.2573	16,000.5	56.3455	16,000.5	57.633	16,000.5	57.6745	16,000.5	67.0165	16,000.5	47.4738	16,000.5	59.8793	16,000.5	45.1239	16,000.5	47.8589	16,000.5	43.9097	16,000.5	48.7328	16,000.5	47.8218	16,000.5	45.5004	16,000.5	58.0268	16,000.5	52.5314	16,000.5	61.3736	16,000.5	52.6746	16,000.5	58.0778	16,000.5	52.4708	16,000.5	59.5476
16,564.5	90.8088	16,564.5	91.2404	16,564.5	90.5228	16,564.5	88.7902	16,564.5	89.533	16,564.5	87.3409	16,564.5	87.1688	16,564.5	82.3054	16,564.5	80.865	16,564.5	75.775	16,564.5	76.6021	16,564.5	74.4668	16,564.5	72.5048	16,564.5	67.1348	16,564.5	68.8255	16,564.5	64.1564	16,564.5	62.4684	16,564.5	54.569	16,564.5	51.995	16,564.5	56.3527	16,564.5	67.0058	16,564.5	43.3021	16,564.5	60.6616	16,564.5	36.8361	16,564.5	44.0275	16,564.5	42.811	16,564.5	47.9956	16,564.5	37.43	16,564.5	50.5922	16,564.5	55.5646	16,564.5	53.3906	16,564.5	58.9465	16,564.5	51.9115	16,564.5	51.4205	16,564.5	51.5387	16,564.5	55.6696
17,148.9	90.7275	17,148.9	91.4971	17,148.9	90.1509	17,148.9	88.8758	17,148.9	88.6087	17,148.9	86.9443	17,148.9	86.4907	17,148.9	81.7502	17,148.9	81.0472	17,148.9	74.8333	17,148.9	77.3549	17,148.9	72.8417	17,148.9	70.2767	17,148.9	64.4648	17,148.9	68.9795	17,148.9	62.0554	17,148.9	60.1986	17,148.9	52.5766	17,148.9	53.0703	17,148.9	50.9329	17,148.9	66.7954	17,148.9	45.5048	17,148.9	62.7521	17,148.9	35.1067	17,148.9	45.2099	17,148.9	46.8349	17,148.9	48.5978	17,148.9	46.0076	17,148.9	53.0017	17,148.9	52.7161	17,148.9	56.1013	17,148.9	53.7292	17,148.9	54.9398	17,148.9	54.2177	17,148.9	52.6228	17,148.9	51.029
17,752.4	90.555	17,752.4	91.3152	17,752.4	90.3174	17,752.4	88.8152	17,752.4	88.673	17,752.4	86.2596	17,752.4	85.6968	17,752.4	80.9594	17,752.4	80.0666	17,752.4	72.2118	17,752.4	74.0685	17,752.4	70.7506	17,752.4	69.3433	17,752.4	62.4528	17,752.4	68.8758	17,752.4	58.6214	17,752.4	60.6353	17,752.4	50.2324	17,752.4	55.1814	17,752.4	47.8904	17,752.4	66.3182	17,752.4	44.7751	17,752.4	60.9057	17,752.4	44.8115	17,752.4	46.0356	17,752.4	43.3799	17,752.4	44.9667	17,752.4	45.8816	17,752.4	52.3634	17,752.4	50.1799	17,752.4	53.7206	17,752.4	51.815	17,752.4	54.5076	17,752.4	49.594	17,752.4	56.2603	17,752.4	30.0883
18,379.4	90.2966	18,379.4	91.1323	18,379.4	90.043	18,379.4	88.2769	18,379.4	88.3049	18,379.4	85.27	18,379.4	85.1463	18,379.4	78.9826	18,379.4	78.6248	18,379.4	67.2423	18,379.4	72.2458	18,379.4	67.2517	18,379.4	68.9188	18,379.4	59.8734	18,379.4	66.7005	18,379.4	57.6044	18,379.4	59.4548	18,379.4	54.38	18,379.4	38.6979	18,379.4	51.7796	18,379.4	67.2422	18,379.4	46.9802	18,379.4	60.3454	18,379.4	44.5944	18,379.4	44.8594	18,379.4	44.4833	18,379.4	35.0637	18,379.4	46.5018	18,379.4	47.6219	18,379.4	47.7435	18,379.4	53.1463	18,379.4	49.7536	18,379.4	51.6716	18,379.4	53.7484	18,379.4	58.0112	18,379.4	39.5584
19,026.9	89.9431	19,026.9	90.6546	19,026.9	89.5081	19,026.9	87.4178	19,026.9	87.7432	19,026.9	84.0795	19,026.9	83.9669	19,026.9	76.2871	19,026.9	76.566	19,026.9	65.6939	19,026.9	71.7624	19,026.9	65.0707	19,026.9	66.3671	19,026.9	59.6187	19,026.9	66.047	19,026.9	55.1839	19,026.9	58.5192	19,026.9	54.3321	19,026.9	51.8278	19,026.9	53.6199	19,026.9	66.1352	19,026.9	46.929	19,026.9	58.9466	19,026.9	47.0856	19,026.9	49.8518	19,026.9	43.9543	19,026.9	45.0627	19,026.9	49.0539	19,026.9	49.6054	19,026.9	48.1609	19,026.9	54.0218	19,026.9	51.5743	19,026.9	42.7809	19,026.9	50.0732	19,026.9	57.6453	19,026.9	51.189
19,697.8	89.3652	19,697.8	90.0213	19,697.8	88.8011	19,697.8	86.2299	19,697.8	86.675	19,697.8	82.1499	19,697.8	81.9696	19,697.8	72.8366	19,697.8	75.2243	19,697.8	62.1669	19,697.8	70.6176	19,697.8	62.4391	19,697.8	66.6036	19,697.8	59.5421	19,697.8	64.0727	19,697.8	55.1515	19,697.8	59.6222	19,697.8	54.2369	19,697.8	52.5727	19,697.8	51.7616	19,697.8	63.8269	19,697.8	47.7465	19,697.8	58.5716	19,697.8	45.6541	19,697.8	46.8513	19,697.8	43.9001	19,697.8	46.1735	19,697.8	50.3218	19,697.8	40.0312	19,697.8	46.3087	19,697.8	51.658	19,697.8	50.8355	19,697.8	35.6446	19,697.8	50.3856	19,697.8	56.4256	19,697.8	50.4247
19,999.5	89.0032	19,999.5	89.7417	19,999.5	88.4528	19,999.5	85.7733	19,999.5	85.8265	19,999.5	81.3447	19,999.5	81.1822	19,999.5	71.0319	19,999.5	74.3987	19,999.5	61.89	19,999.5	70.3231	19,999.5	63.2456	19,999.5	64.4848	19,999.5	58.3251	19,999.5	65.7836	19,999.5	55.9262	19,999.5	59.9962	19,999.5	54.2839	19,999.5	54.9389	19,999.5	48.4538	19,999.5	64.346	19,999.5	51.5621	19,999.5	60.4859	19,999.5	52.5531	19,999.5	49.0088	19,999.5	54.498	19,999.5	56.6561	19,999.5	54.9472	19,999.5	51.4486	19,999.5	57.9164	19,999.5	54.9247	19,999.5	61.5455	19,999.5	55.7074	19,999.5	54.631	19,999.5	48.0135	19,999.5	46.9795
