"SPL Horizontal"
"On-Axis"		"10°"		"-10°"		"20°"		"-20°"		"30°"		"-30°"		"40°"		"-40°"		"50°"		"-50°"		"60°"		"-60°"		"70°"		"-70°"		"80°"		"-80°"		"90°"		"-90°"		"100°"		"-100°"		"110°"		"-110°"		"120°"		"-120°"		"130°"		"-130°"		"140°"		"-140°"		"150°"		"-150°"		"160°"		"-160°"		"170°"		"-170°"		"180°"
"Frequency / Hz"	"Sound Pressure Level / dB (re 20 µPa/V)  [2.83  V @ 1. m]"	"Frequency / Hz"	"Sound Pressure Level / dB (re 20 µPa/V)  [2.83  V @ 1. m]"	"Frequency / Hz"	"Sound Pressure Level / dB (re 20 µPa/V)  [2.83  V @ 1. m]"	"Frequency / Hz"	"Sound Pressure Level / dB (re 20 µPa/V)  [2.83  V @ 1. m]"	"Frequency / Hz"	"Sound Pressure Level / dB (re 20 µPa/V)  [2.83  V @ 1. m]"	"Frequency / Hz"	"Sound Pressure Level / dB (re 20 µPa/V)  [2.83  V @ 1. m]"	"Frequency / Hz"	"Sound Pressure Level / dB (re 20 µPa/V)  [2.83  V @ 1. m]"	"Frequency / Hz"	"Sound Pressure Level / dB (re 20 µPa/V)  [2.83  V @ 1. m]"	"Frequency / Hz"	"Sound Pressure Level / dB (re 20 µPa/V)  [2.83  V @ 1. m]"	"Frequency / Hz"	"Sound Pressure Level / dB (re 20 µPa/V)  [2.83  V @ 1. m]"	"Frequency / Hz"	"Sound Pressure Level / dB (re 20 µPa/V)  [2.83  V @ 1. m]"	"Frequency / Hz"	"Sound Pressure Level / dB (re 20 µPa/V)  [2.83  V @ 1. m]"	"Frequency / Hz"	"Sound Pressure Level / dB (re 20 µPa/V)  [2.83  V @ 1. m]"	"Frequency / Hz"	"Sound Pressure Level / dB (re 20 µPa/V)  [2.83  V @ 1. m]"	"Frequency / Hz"	"Sound Pressure Level / dB (re 20 µPa/V)  [2.83  V @ 1. m]"	"Frequency / Hz"	"Sound Pressure Level / dB (re 20 µPa/V)  [2.83  V @ 1. m]"	"Frequency / Hz"	"Sound Pressure Level / dB (re 20 µPa/V)  [2.83  V @ 1. m]"	"Frequency / Hz"	"Sound Pressure Level / dB (re 20 µPa/V)  [2.83  V @ 1. m]"	"Frequency / Hz"	"Sound Pressure Level / dB (re 20 µPa/V)  [2.83  V @ 1. m]"	"Frequency / Hz"	"Sound Pressure Level / dB (re 20 µPa/V)  [2.83  V @ 1. m]"	"Frequency / Hz"	"Sound Pressure Level / dB (re 20 µPa/V)  [2.83  V @ 1. m]"	"Frequency / Hz"	"Sound Pressure Level / dB (re 20 µPa/V)  [2.83  V @ 1. m]"	"Frequency / Hz"	"Sound Pressure Level / dB (re 20 µPa/V)  [2.83  V @ 1. m]"	"Frequency / Hz"	"Sound Pressure Level / dB (re 20 µPa/V)  [2.83  V @ 1. m]"	"Frequency / Hz"	"Sound Pressure Level / dB (re 20 µPa/V)  [2.83  V @ 1. m]"	"Frequency / Hz"	"Sound Pressure Level / dB (re 20 µPa/V)  [2.83  V @ 1. m]"	"Frequency / Hz"	"Sound Pressure Level / dB (re 20 µPa/V)  [2.83  V @ 1. m]"	"Frequency / Hz"	"Sound Pressure Level / dB (re 20 µPa/V)  [2.83  V @ 1. m]"	"Frequency / Hz"	"Sound Pressure Level / dB (re 20 µPa/V)  [2.83  V @ 1. m]"	"Frequency / Hz"	"Sound Pressure Level / dB (re 20 µPa/V)  [2.83  V @ 1. m]"	"Frequency / Hz"	"Sound Pressure Level / dB (re 20 µPa/V)  [2.83  V @ 1. m]"	"Frequency / Hz"	"Sound Pressure Level / dB (re 20 µPa/V)  [2.83  V @ 1. m]"	"Frequency / Hz"	"Sound Pressure Level / dB (re 20 µPa/V)  [2.83  V @ 1. m]"	"Frequency / Hz"	"Sound Pressure Level / dB (re 20 µPa/V)  [2.83  V @ 1. m]"	"Frequency / Hz"	"Sound Pressure Level / dB (re 20 µPa/V)  [2.83  V @ 1. m]"	"Frequency / Hz"	"Sound Pressure Level / dB (re 20 µPa/V)  [2.83  V @ 1. m]"
20.5078	64.0677	20.5078	63.9592	20.5078	63.836	20.5078	63.5047	20.5078	63.2348	20.5078	62.6629	20.5078	62.2009	20.5078	61.3611	20.5078	60.657	20.5078	59.5611	20.5078	58.6824	20.5078	57.6886	20.5078	57.3622	20.5078	57.6831	20.5078	58.8834	20.5078	60.3849	20.5078	62.1219	20.5078	63.6123	20.5078	65.2002	20.5078	66.3972	20.5078	67.7581	20.5078	68.6826	20.5078	69.8481	20.5078	70.5509	20.5078	71.5505	20.5078	72.0741	20.5078	72.9221	20.5078	73.3001	20.5078	73.9976	20.5078	74.258	20.5078	74.7974	20.5078	74.9637	20.5078	75.3331	20.5078	75.4244	20.5078	75.6125	20.5078	75.6414
21.9727	63.6292	21.9727	63.4855	21.9727	63.7732	21.9727	63.3617	21.9727	63.9471	21.9727	63.3363	21.9727	64.2201	21.9727	63.5424	21.9727	64.6827	21.9727	64.1184	21.9727	65.4083	21.9727	65.1137	21.9727	66.4103	21.9727	66.4424	21.9727	67.6306	21.9727	67.9465	21.9727	68.9729	21.9727	69.4829	21.9727	70.3431	21.9727	70.9574	21.9727	71.67	21.9727	72.317	21.9727	72.9055	21.9727	73.5335	21.9727	74.018	21.9727	74.5912	21.9727	74.9859	21.9727	75.4796	21.9727	75.7929	21.9727	76.1903	21.9727	76.4258	21.9727	76.7159	21.9727	76.8741	21.9727	77.0504	21.9727	77.13	21.9727	77.1891
23.4375	68.3845	23.4375	68.3071	23.4375	68.3424	23.4375	68.1207	23.4375	68.192	23.4375	67.8645	23.4375	67.9711	23.4375	67.6215	23.4375	67.7564	23.4375	67.5313	23.4375	67.6751	23.4375	67.7659	23.4375	67.8876	23.4375	68.4374	23.4375	68.5103	23.4375	69.5087	23.4375	69.5296	23.4375	70.8245	23.4375	70.812	23.4375	72.2181	23.4375	72.1958	23.4375	73.5711	23.4375	73.5566	23.4375	74.8143	23.4375	74.8165	23.4375	75.9094	23.4375	75.9295	23.4375	76.8338	23.4375	76.8672	23.4375	77.5723	23.4375	77.6104	23.4375	78.1131	23.4375	78.1461	23.4375	78.4467	23.4375	78.4658	23.4375	78.5658
24.9023	70.7506	24.9023	70.705	24.9023	70.7242	24.9023	70.5962	24.9023	70.6367	24.9023	70.4557	24.9023	70.5212	24.9023	70.3434	24.9023	70.4385	24.9023	70.3502	24.9023	70.4773	24.9023	70.5818	24.9023	70.7373	24.9023	71.1152	24.9023	71.2874	24.9023	71.9507	24.9023	72.1243	24.9023	73.0103	24.9023	73.1729	24.9023	74.1822	24.9023	74.3278	24.9023	75.3652	24.9023	75.4926	24.9023	76.4854	24.9023	76.5956	24.9023	77.493	24.9023	77.5873	24.9023	78.3552	24.9023	78.4339	24.9023	79.0494	24.9023	79.1114	24.9023	79.5598	24.9023	79.6031	24.9023	79.8752	24.9023	79.8976	24.9023	79.9888
26.3672	73.6995	26.3672	73.6785	26.3672	73.6608	26.3672	73.6076	26.3672	73.5653	26.3672	73.51	26.3672	73.4302	26.3672	73.4255	26.3672	73.2913	26.3672	73.4118	26.3672	73.207	26.3672	73.5384	26.3672	73.2558	26.3672	73.8679	26.3672	73.5181	26.3672	74.4282	26.3672	74.0414	26.3672	75.1963	26.3672	74.8115	26.3672	76.1075	26.3672	75.7579	26.3672	77.0811	26.3672	76.7861	26.3672	78.0428	26.3672	77.8085	26.3672	78.9336	26.3672	78.7572	26.3672	79.7099	26.3672	79.5841	26.3672	80.3403	26.3672	80.2561	26.3672	80.8025	26.3672	80.7519	26.3672	81.0817	26.3672	81.0581	26.3672	81.1683
27.832	75.4885	27.832	75.465	27.832	75.4428	27.832	75.3764	27.832	75.335	27.832	75.2394	27.832	75.1856	27.832	75.0867	27.832	75.0323	27.832	74.9714	27.832	74.9338	27.832	74.9671	27.832	74.9667	27.832	75.1535	27.832	75.2076	27.832	75.5861	27.832	75.7001	27.832	76.2652	27.832	76.4292	27.832	77.1327	27.832	77.3272	27.832	78.0994	27.832	78.3038	27.832	79.0776	27.832	79.275	27.832	79.9967	27.832	80.1753	27.832	80.8058	27.832	80.9575	27.832	81.47	27.832	81.5889	27.832	81.9656	27.832	82.0474	27.832	82.2773	27.832	82.319	27.832	82.3963
29.2969	76.381	29.2969	76.3622	29.2969	76.3771	29.2969	76.3281	29.2969	76.3554	29.2969	76.2989	29.2969	76.3338	29.2969	76.3081	29.2969	76.3433	29.2969	76.3996	29.2969	76.4266	29.2969	76.6206	29.2969	76.6314	29.2969	77.0075	29.2969	76.9965	29.2969	77.5705	29.2969	77.5368	29.2969	78.2873	29.2969	78.2348	29.2969	79.1097	29.2969	79.0453	29.2969	79.9786	29.2969	79.9099	29.2969	80.8368	29.2969	80.7702	29.2969	81.635	29.2969	81.5753	29.2969	82.334	29.2969	82.2845	29.2969	82.9041	29.2969	82.8664	29.2969	83.3239	29.2969	83.2987	29.2969	83.5787	29.2969	83.5662	29.2969	83.6605
30.7617	78.5257	30.7617	78.5227	30.7617	78.5112	30.7617	78.5074	30.7617	78.4825	30.7617	78.4936	30.7617	78.4518	30.7617	78.5036	30.7617	78.4413	30.7617	78.5674	30.7617	78.4818	30.7617	78.7189	30.7617	78.6103	30.7617	78.9883	30.7617	78.8612	30.7617	79.3929	30.7617	79.2563	30.7617	79.9291	30.7617	79.7942	30.7617	80.5718	30.7617	80.449	30.7617	81.2797	30.7617	81.1764	30.7617	82.0051	30.7617	81.9245	30.7617	82.701	30.7617	82.6426	30.7617	83.326	30.7617	83.2868	30.7617	83.846	30.7617	83.822	30.7617	84.2352	30.7617	84.2221	30.7617	84.4751	30.7617	84.4696	30.7617	84.5547
32.2266	79.5662	32.2266	79.5707	32.2266	79.5557	32.2266	79.5725	32.2266	79.5428	32.2266	79.582	32.2266	79.5383	32.2266	79.616	32.2266	79.5604	32.2266	79.6968	32.2266	79.6331	32.2266	79.8499	32.2266	79.7836	32.2266	80.0987	32.2266	80.0366	32.2266	80.4577	32.2266	80.4067	32.2266	80.9276	32.2266	80.8925	32.2266	81.492	32.2266	81.4748	32.2266	82.1204	32.2266	82.1198	32.2266	82.7733	32.2266	82.7856	32.2266	83.4085	32.2266	83.4288	32.2266	83.9864	32.2266	84.0096	32.2266	84.4728	32.2266	84.4943	32.2266	84.8406	32.2266	84.857	32.2266	85.0709	32.2266	85.0797	32.2266	85.152
33.6914	80.6411	33.6914	80.636	33.6914	80.6487	33.6914	80.6364	33.6914	80.6614	33.6914	80.6504	33.6914	80.6874	33.6914	80.6916	33.6914	80.74	33.6914	80.7773	33.6914	80.8366	33.6914	80.927	33.6914	80.9967	33.6914	81.1585	33.6914	81.2378	33.6914	81.4837	33.6914	81.5711	33.6914	81.9039	33.6914	81.9968	33.6914	82.4075	33.6914	82.5027	33.6914	82.9707	33.6914	83.0644	33.6914	83.5607	33.6914	83.649	33.6914	84.1406	33.6914	84.2196	33.6914	84.6734	33.6914	84.7401	33.6914	85.1259	33.6914	85.1779	33.6914	85.4713	33.6914	85.5068	33.6914	85.69	33.6914	85.7081	33.6914	85.7703
35.1562	81.218	35.1562	81.1988	35.1562	81.2371	35.1562	81.1837	35.1562	81.2575	35.1562	81.1821	35.1562	81.2854	35.1562	81.2085	35.1562	81.3329	35.1562	81.2814	35.1562	81.4162	35.1562	81.4216	35.1562	81.555	35.1562	81.6478	35.1562	81.7688	35.1562	81.972	35.1562	82.0719	35.1562	82.395	35.1562	82.469	35.1562	82.9037	35.1562	82.9514	35.1562	83.473	35.1562	83.4976	35.1562	84.0689	35.1562	84.076	35.1562	84.6539	35.1562	84.6496	35.1562	85.1908	35.1562	85.1808	35.1562	85.6459	35.1562	85.6348	35.1562	85.9913	35.1562	85.9822	35.1562	86.2059	35.1562	86.201	35.1562	86.2772
36.6211	82.1347	36.6211	82.1333	36.6211	82.1397	36.6211	82.1392	36.6211	82.1489	36.6211	82.1601	36.6211	82.1676	36.6211	82.2074	36.6211	82.2055	36.6211	82.2952	36.6211	82.2765	36.6211	82.439	36.6211	82.3971	36.6211	82.6526	36.6211	82.5845	36.6211	82.9453	36.6211	82.8518	36.6211	83.3183	36.6211	83.2043	36.6211	83.7628	36.6211	83.6363	36.6211	84.2599	36.6211	84.1302	36.6211	84.7827	36.6211	84.6587	36.6211	85.2996	36.6211	85.1883	36.6211	85.7773	36.6211	85.6838	36.6211	86.1839	36.6211	86.1115	36.6211	86.4921	36.6211	86.4428	36.6211	86.6807	36.6211	86.6558	36.6211	86.7367
38.0859	83.0183	38.0859	83.018	38.0859	83.0282	38.0859	83.0299	38.0859	83.0485	38.0859	83.0597	38.0859	83.0833	38.0859	83.116	38.0859	83.1401	38.0859	83.2095	38.0859	83.2293	38.0859	83.3518	38.0859	83.3627	38.0859	83.5537	38.0859	83.5522	38.0859	83.8227	38.0859	83.8068	38.0859	84.1601	38.0859	84.1299	38.0859	84.5596	38.0859	84.5168	38.0859	85.0063	38.0859	84.9545	38.0859	85.4779	38.0859	85.4215	38.0859	85.947	38.0859	85.8907	38.0859	86.3833	38.0859	86.3317	38.0859	86.7571	38.0859	86.7144	38.0859	87.0422	38.0859	87.0118	38.0859	87.2185	38.0859	87.2026	38.0859	87.2732
39.5508	83.7048	39.5508	83.707	39.5508	83.7138	39.5508	83.7228	39.5508	83.7345	39.5508	83.7571	39.5508	83.77	39.5508	83.8171	39.5508	83.8263	39.5508	83.9117	39.5508	83.9117	39.5508	84.0505	39.5508	84.036	39.5508	84.2425	39.5508	84.2092	39.5508	84.4936	39.5508	84.4396	39.5508	84.8051	39.5508	84.7309	39.5508	85.1715	39.5508	85.0807	39.5508	85.5802	39.5508	85.4786	39.5508	86.0116	39.5508	85.9066	39.5508	86.4412	39.5508	86.3406	39.5508	86.8417	39.5508	86.7524	39.5508	87.1852	39.5508	87.1132	39.5508	87.4469	39.5508	87.3965	39.5508	87.6069	39.5508	87.581	39.5508	87.6529
41.0156	84.1924	41.0156	84.2035	41.0156	84.2001	41.0156	84.2356	41.0156	84.2265	41.0156	84.2922	41.0156	84.2732	41.0156	84.3783	41.0156	84.3437	41.0156	84.4996	41.0156	84.4434	41.0156	84.6617	41.0156	84.5786	41.0156	84.8695	41.0156	84.7559	41.0156	85.1257	41.0156	84.9808	41.0156	85.429	41.0156	85.2558	41.0156	85.7739	41.0156	85.5791	41.0156	86.1494	41.0156	85.9431	41.0156	86.5394	41.0156	86.3337	41.0156	86.9237	41.0156	86.731	41.0156	87.279	41.0156	87.111	41.0156	87.5815	41.0156	87.4474	41.0156	87.8089	41.0156	87.7158	41.0156	87.9432	41.0156	87.8955	41.0156	87.9731
42.4805	84.7332	42.4805	84.7604	42.4805	84.7253	42.4805	84.8077	42.4805	84.7371	42.4805	84.8774	42.4805	84.7702	42.4805	84.9726	42.4805	84.828	42.4805	85.0971	42.4805	84.9148	42.4805	85.2553	42.4805	85.0361	42.4805	85.4507	42.4805	85.1974	42.4805	85.6857	42.4805	85.4034	42.4805	85.9601	42.4805	85.6568	42.4805	86.2699	42.4805	85.9563	42.4805	86.6069	42.4805	86.2955	42.4805	86.9583	42.4805	86.6621	42.4805	87.3064	42.4805	87.038	42.4805	87.63	42.4805	87.4003	42.4805	87.9058	42.4805	87.7244	42.4805	88.1118	42.4805	87.9861	42.4805	88.2298	42.4805	88.1655	42.4805	88.2486
43.9453	85.4873	43.9453	85.5164	43.9453	85.4775	43.9453	85.5651	43.9453	85.4875	43.9453	85.6347	43.9453	85.5191	43.9453	85.7274	43.9453	85.5749	43.9453	85.8457	43.9453	85.6586	43.9453	85.9926	43.9453	85.7748	43.9453	86.1709	43.9453	85.9278	43.9453	86.3824	43.9453	86.1215	43.9453	86.6272	43.9453	86.3577	43.9453	86.9025	43.9453	86.635	43.9453	87.2023	43.9453	86.9474	43.9453	87.516	43.9453	87.2836	43.9453	87.8291	43.9453	87.6269	43.9453	88.1228	43.9453	87.9565	43.9453	88.3764	43.9453	88.2495	43.9453	88.5693	43.9453	88.4838	43.9453	88.6841	43.9453	88.641	43.9453	88.7093
45.4102	85.9524	45.4102	85.9737	45.4102	85.9547	45.4102	86.0188	45.4102	85.9808	45.4102	86.0887	45.4102	86.0317	45.4102	86.1848	45.4102	86.1089	45.4102	86.309	45.4102	86.2145	45.4102	86.4633	45.4102	86.3509	45.4102	86.6493	45.4102	86.5205	45.4102	86.8678	45.4102	86.7253	45.4102	87.1176	45.4102	86.9654	45.4102	87.3952	45.4102	87.2386	45.4102	87.6939	45.4102	87.5392	45.4102	88.0031	45.4102	87.857	45.4102	88.3089	45.4102	88.1776	45.4102	88.5941	45.4102	88.4828	45.4102	88.8395	45.4102	88.7525	45.4102	89.0266	45.4102	88.9668	45.4102	89.1395	45.4102	89.1091	45.4102	89.1681
46.875	86.4706	46.875	86.4918	46.875	86.4763	46.875	86.5402	46.875	86.5091	46.875	86.6163	46.875	86.5692	46.875	86.7208	46.875	86.6572	46.875	86.8544	46.875	86.774	46.875	87.0175	46.875	86.9203	46.875	87.2102	46.875	87.0969	46.875	87.4312	46.875	87.3037	46.875	87.678	46.875	87.5398	46.875	87.9463	46.875	87.8023	46.875	88.2294	46.875	88.0856	46.875	88.5181	46.875	88.3811	46.875	88.8005	46.875	88.6766	46.875	89.0619	46.875	88.9566	46.875	89.2862	46.875	89.2037	46.875	89.4567	46.875	89.4001	46.875	89.5596	46.875	89.5308	46.875	89.5852
48.3398	86.9889	48.3398	87.0155	48.3398	86.9928	48.3398	87.0726	48.3398	87.0269	48.3398	87.1597	48.3398	87.0907	48.3398	87.2759	48.3398	87.1835	48.3398	87.4203	48.3398	87.3047	48.3398	87.591	48.3398	87.4532	48.3398	87.7862	48.3398	87.6282	48.3398	88.0029	48.3398	87.8284	48.3398	88.238	48.3398	88.052	48.3398	88.4868	48.3398	88.2961	48.3398	88.7436	48.3398	88.5559	48.3398	89.0011	48.3398	88.8245	48.3398	89.2498	48.3398	89.0918	48.3398	89.4781	48.3398	89.3451	48.3398	89.6725	48.3398	89.5693	48.3398	89.8191	48.3398	89.7488	48.3398	89.9056	48.3398	89.8701	48.3398	89.9235
51.2695	87.8183	51.2695	87.8518	51.2695	87.8151	51.2695	87.9151	51.2695	87.8423	51.2695	88.0071	51.2695	87.8988	51.2695	88.1259	51.2695	87.9836	51.2695	88.2693	51.2695	88.095	51.2695	88.4344	51.2695	88.2311	51.2695	88.6184	51.2695	88.3904	51.2695	88.8184	51.2695	88.571	51.2695	89.0312	51.2695	88.7713	51.2695	89.2532	51.2695	88.9891	51.2695	89.4801	51.2695	89.2211	51.2695	89.706	51.2695	89.462	51.2695	89.9233	51.2695	89.7039	51.2695	90.1219	51.2695	89.9357	51.2695	90.2898	51.2695	90.144	51.2695	90.4144	51.2695	90.3142	51.2695	90.4841	51.2695	90.4332	51.2695	90.4911
52.7344	88.285	52.7344	88.3218	52.7344	88.2783	52.7344	88.3879	52.7344	88.3016	52.7344	88.4816	52.7344	88.3543	52.7344	88.6007	52.7344	88.4348	52.7344	88.7424	52.7344	88.5413	52.7344	88.9035	52.7344	88.6717	52.7344	89.0809	52.7344	88.8236	52.7344	89.2711	52.7344	88.995	52.7344	89.471	52.7344	89.1838	52.7344	89.6772	52.7344	89.3878	52.7344	89.8857	52.7344	89.6038	52.7344	90.0913	52.7344	89.8271	52.7344	90.2873	52.7344	90.0507	52.7344	90.4651	52.7344	90.265	52.7344	90.6143	52.7344	90.4578	52.7344	90.7236	52.7344	90.6162	52.7344	90.7829	52.7344	90.7282	52.7344	90.785
54.1992	88.8459	54.1992	88.882	54.1992	88.8393	54.1992	88.9468	54.1992	88.8623	54.1992	89.0387	54.1992	88.914	54.1992	89.1553	54.1992	88.993	54.1992	89.2936	54.1992	89.097	54.1992	89.4503	54.1992	89.2238	54.1992	89.6219	54.1992	89.3709	54.1992	89.8049	54.1992	89.5357	54.1992	89.9957	54.1992	89.716	54.1992	90.1906	54.1992	89.9092	54.1992	90.3856	54.1992	90.1122	54.1992	90.576	54.1992	90.3206	54.1992	90.7557	54.1992	90.5281	54.1992	90.9175	54.1992	90.7259	54.1992	91.0523	54.1992	90.9033	54.1992	91.1506	54.1992	91.0488	54.1992	91.2033	54.1992	91.1517	54.1992	91.2043
55.6641	89.4825	55.6641	89.5168	55.6641	89.4778	55.6641	89.58	55.6641	89.5028	55.6641	89.6702	55.6641	89.5565	55.6641	89.7848	55.6641	89.6373	55.6641	89.9205	55.6641	89.7428	55.6641	90.0737	55.6641	89.87	55.6641	90.2404	55.6641	90.016	55.6641	90.4166	55.6641	90.1775	55.6641	90.5982	55.6641	90.3515	55.6641	90.7813	55.6641	90.5351	55.6641	90.9617	55.6641	90.7249	55.6641	91.1351	55.6641	90.9167	55.6641	91.2968	55.6641	91.105	55.6641	91.441	55.6641	91.2822	55.6641	91.5609	55.6641	91.4394	55.6641	91.6487	55.6641	91.5668	55.6641	91.6969	55.6641	91.6558	55.6641	91.6999
58.5938	90.0294	58.5938	90.0616	58.5938	90.029	58.5938	90.1242	58.5938	90.0602	58.5938	90.2147	58.5938	90.1213	58.5938	90.3293	58.5938	90.2095	58.5938	90.4631	58.5938	90.3209	58.5938	90.6109	58.5938	90.4508	58.5938	90.7669	58.5938	90.5943	58.5938	90.9256	58.5938	90.7465	58.5938	91.082	58.5938	90.9029	58.5938	91.232	58.5938	91.0594	58.5938	91.3723	58.5938	91.2126	58.5938	91.5008	58.5938	91.3593	58.5938	91.6157	58.5938	91.4964	58.5938	91.7151	58.5938	91.6205	58.5938	91.7965	58.5938	91.7271	58.5938	91.8563	58.5938	91.8114	58.5938	91.8904	58.5938	91.8685	58.5938	91.8951
60.0586	90.2518	60.0586	90.272	60.0586	90.2612	60.0586	90.321	60.0586	90.2999	60.0586	90.3964	60.0586	90.366	60.0586	90.4946	60.0586	90.4563	60.0586	90.6111	60.0586	90.5666	60.0586	90.7406	60.0586	90.692	60.0586	90.8776	60.0586	90.8272	60.0586	91.0167	60.0586	90.9672	60.0586	91.1532	60.0586	91.1072	60.0586	91.2832	60.0586	91.2432	60.0586	91.4039	60.0586	91.3721	60.0586	91.5138	60.0586	91.4913	60.0586	91.612	60.0586	91.5989	60.0586	91.6977	60.0586	91.6928	60.0586	91.7695	60.0586	91.7703	60.0586	91.825	60.0586	91.8283	60.0586	91.8612	60.0586	91.8638	60.0586	91.8748
62.9883	90.6291	62.9883	90.6347	62.9883	90.6509	62.9883	90.6671	62.9883	90.699	62.9883	90.7246	62.9883	90.7711	62.9883	90.8041	62.9883	90.8637	62.9883	90.9012	62.9883	90.9722	62.9883	91.0108	62.9883	91.0915	62.9883	91.1274	62.9883	91.2159	62.9883	91.2454	62.9883	91.3402	62.9883	91.3599	62.9883	91.4593	62.9883	91.4669	62.9883	91.5692	62.9883	91.5639	62.9883	91.6671	62.9883	91.6499	62.9883	91.7512	62.9883	91.7248	62.9883	91.8207	62.9883	91.7894	62.9883	91.8756	62.9883	91.8443	62.9883	91.9157	62.9883	91.8895	62.9883	91.9408	62.9883	91.9234	62.9883	91.9504	62.9883	91.9443
64.4531	90.7335	64.4531	90.7362	64.4531	90.7569	64.4531	90.7647	64.4531	90.8053	64.4531	90.8174	64.4531	90.8764	64.4531	90.8912	64.4531	90.9666	64.4531	90.9821	64.4531	91.0713	64.4531	91.0849	64.4531	91.1853	64.4531	91.1941	64.4531	91.303	64.4531	91.304	64.4531	91.4189	64.4531	91.4095	64.4531	91.528	64.4531	91.5066	64.4531	91.6263	64.4531	91.5926	64.4531	91.7111	64.4531	91.6666	64.4531	91.7808	64.4531	91.7291	64.4531	91.8353	64.4531	91.7813	64.4531	91.8753	64.4531	91.825	64.4531	91.9018	64.4531	91.8611	64.4531	91.9158	64.4531	91.8893	64.4531	91.9178	64.4531	91.9086
67.3828	90.8841	67.3828	90.8743	67.3828	90.9188	67.3828	90.8895	67.3828	90.977	67.3828	90.9286	67.3828	91.0563	67.3828	90.9889	67.3828	91.1528	67.3828	91.0668	67.3828	91.2617	67.3828	91.1575	67.3828	91.3776	67.3828	91.2555	67.3828	91.4942	67.3828	91.3551	67.3828	91.6056	67.3828	91.451	67.3828	91.706	67.3828	91.5384	67.3828	91.7908	67.3828	91.6143	67.3828	91.8568	67.3828	91.6771	67.3828	91.9027	67.3828	91.7274	67.3828	91.929	67.3828	91.7671	67.3828	91.938	67.3828	91.7991	67.3828	91.9333	67.3828	91.8266	67.3828	91.9191	67.3828	91.8518	67.3828	91.899	67.3828	91.876
68.8477	90.9651	68.8477	90.9481	68.8477	91.0052	68.8477	90.9544	68.8477	91.0669	68.8477	90.9828	68.8477	91.1479	68.8477	91.0314	68.8477	91.2445	68.8477	91.0966	68.8477	91.3519	68.8477	91.1741	68.8477	91.4646	68.8477	91.2588	68.8477	91.5765	68.8477	91.3451	68.8477	91.6811	68.8477	91.4278	68.8477	91.7727	68.8477	91.5022	68.8477	91.8463	68.8477	91.5653	68.8477	91.8985	68.8477	91.6159	68.8477	91.9278	68.8477	91.6548	68.8477	91.9351	68.8477	91.6847	68.8477	91.9236	68.8477	91.7097	68.8477	91.8981	68.8477	91.7338	68.8477	91.8641	68.8477	91.7607	68.8477	91.8273	68.8477	91.792
71.7773	91.0791	71.7773	91.0515	71.7773	91.123	71.7773	91.0403	71.7773	91.1819	71.7773	91.0449	71.7773	91.2536	71.7773	91.0636	71.7773	91.335	71.7773	91.0937	71.7773	91.4218	71.7773	91.1316	71.7773	91.5089	71.7773	91.1732	71.7773	91.5906	71.7773	91.2139	71.7773	91.6607	71.7773	91.2493	71.7773	91.7137	71.7773	91.2758	71.7773	91.7449	71.7773	91.2913	71.7773	91.7511	71.7773	91.296	71.7773	91.7315	71.7773	91.2923	71.7773	91.6881	71.7773	91.285	71.7773	91.6257	71.7773	91.2808	71.7773	91.5517	71.7773	91.2864	71.7773	91.475	71.7773	91.3075	71.7773	91.4043	71.7773	91.3471
74.707	91.0996	74.707	91.0846	74.707	91.1284	74.707	91.083	74.707	91.1707	74.707	91.0935	74.707	91.225	74.707	91.114	74.707	91.2887	74.707	91.1416	74.707	91.358	74.707	91.1726	74.707	91.4281	74.707	91.2027	74.707	91.4933	74.707	91.2274	74.707	91.5473	74.707	91.2425	74.707	91.584	74.707	91.2446	74.707	91.5983	74.707	91.232	74.707	91.5865	74.707	91.2054	74.707	91.5479	74.707	91.1684	74.707	91.4847	74.707	91.1273	74.707	91.403	74.707	91.0907	74.707	91.3121	74.707	91.0682	74.707	91.2231	74.707	91.0676	74.707	91.1474	74.707	91.094
77.6367	90.8962	77.6367	90.8918	77.6367	90.9143	77.6367	90.9001	77.6367	90.9459	77.6367	90.9197	77.6367	90.9903	77.6367	90.9484	77.6367	91.0455	77.6367	90.9833	77.6367	91.1082	77.6367	91.0206	77.6367	91.1741	77.6367	91.056	77.6367	91.2374	77.6367	91.0846	77.6367	91.2918	77.6367	91.1021	77.6367	91.3308	77.6367	91.1046	77.6367	91.3487	77.6367	91.0902	77.6367	91.3414	77.6367	91.0593	77.6367	91.3074	77.6367	91.0154	77.6367	91.2489	77.6367	90.9652	77.6367	91.1719	77.6367	90.9178	77.6367	91.0859	77.6367	90.8838	77.6367	91.0026	77.6367	90.8721	77.6367	90.9337	77.6367	90.8886
79.1016	90.8078	79.1016	90.8104	79.1016	90.8171	79.1016	90.8239	79.1016	90.8386	79.1016	90.8469	79.1016	90.8718	79.1016	90.8773	79.1016	90.9156	79.1016	90.9121	79.1016	90.9671	79.1016	90.9478	79.1016	91.0226	79.1016	90.9801	79.1016	91.0768	79.1016	91.0043	79.1016	91.1237	79.1016	91.0158	79.1016	91.157	79.1016	91.0111	79.1016	91.1708	79.1016	90.9882	79.1016	91.161	79.1016	90.9476	79.1016	91.126	79.1016	90.8932	79.1016	91.0678	79.1016	90.8322	79.1016	90.9921	79.1016	90.7745	79.1016	90.9081	79.1016	90.7311	79.1016	90.8276	79.1016	90.7116	79.1016	90.7623	79.1016	90.7219
82.0312	90.6966	82.0312	90.7047	82.0312	90.6945	82.0312	90.718	82.0312	90.6988	82.0312	90.7355	82.0312	90.7097	82.0312	90.7554	82.0312	90.7265	82.0312	90.7756	82.0312	90.7479	82.0312	90.7929	82.0312	90.7711	82.0312	90.8033	82.0312	90.7919	82.0312	90.8025	82.0312	90.8055	82.0312	90.786	82.0312	90.806	82.0312	90.7504	82.0312	90.7885	82.0312	90.6939	82.0312	90.749	82.0312	90.6174	82.0312	90.6863	82.0312	90.5257	82.0312	90.6027	82.0312	90.4273	82.0312	90.505	82.0312	90.334	82.0312	90.4037	82.0312	90.2593	82.0312	90.312	82.0312	90.2152	82.0312	90.2437	82.0312	90.2096
84.9609	90.6104	84.9609	90.6187	84.9609	90.6014	84.9609	90.6257	84.9609	90.5925	84.9609	90.6308	84.9609	90.5842	84.9609	90.633	84.9609	90.5768	84.9609	90.6311	84.9609	90.5696	84.9609	90.6231	84.9609	90.561	84.9609	90.6061	84.9609	90.5479	84.9609	90.5767	84.9609	90.5261	84.9609	90.5311	84.9609	90.4909	84.9609	90.4658	84.9609	90.4374	84.9609	90.3792	84.9609	90.3624	84.9609	90.2719	84.9609	90.2652	84.9609	90.1483	84.9609	90.1492	84.9609	90.0172	84.9609	90.0225	84.9609	89.8911	84.9609	89.898	84.9609	89.7856	84.9609	89.7915	84.9609	89.7156	84.9609	89.7189	84.9609	89.692
87.8906	90.3096	87.8906	90.3172	87.8906	90.3001	87.8906	90.3224	87.8906	90.2892	87.8906	90.3247	87.8906	90.2774	87.8906	90.3237	87.8906	90.2649	87.8906	90.318	87.8906	90.2512	87.8906	90.3058	87.8906	90.2349	87.8906	90.2841	87.8906	90.2133	87.8906	90.2495	87.8906	90.1825	87.8906	90.198	87.8906	90.1382	87.8906	90.1261	87.8906	90.076	87.8906	90.0319	87.8906	89.9928	87.8906	89.9164	87.8906	89.8884	87.8906	89.7843	87.8906	89.7664	87.8906	89.6449	87.8906	89.6352	87.8906	89.5116	87.8906	89.5076	87.8906	89.4003	87.8906	89.3994	87.8906	89.3262	87.8906	89.3264	87.8906	89.3004
90.8203	90.0339	90.8203	90.0437	90.8203	90.0181	90.8203	90.0475	90.8203	89.997	90.8203	90.0449	90.8203	89.9718	90.8203	90.0362	90.8203	89.9431	90.8203	90.0208	90.8203	89.9117	90.8203	89.9976	90.8203	89.877	90.8203	89.9646	90.8203	89.8374	90.8203	89.9188	90.8203	89.7902	90.8203	89.8566	90.8203	89.7316	90.8203	89.7748	90.8203	89.658	90.8203	89.6718	90.8203	89.5666	90.8203	89.5481	90.8203	89.4571	90.8203	89.4085	90.8203	89.3331	90.8203	89.262	90.8203	89.2025	90.8203	89.1217	90.8203	89.078	90.8203	89.0033	90.8203	88.9747	90.8203	88.922	90.8203	88.9079	90.8203	88.8888
95.2148	89.4952	95.2148	89.5015	95.2148	89.4782	95.2148	89.4971	95.2148	89.4514	95.2148	89.4823	95.2148	89.4162	95.2148	89.4578	95.2148	89.3744	95.2148	89.4241	95.2148	89.3276	95.2148	89.3813	95.2148	89.2766	95.2148	89.3284	95.2148	89.2215	95.2148	89.2638	95.2148	89.1607	95.2148	89.1853	95.2148	89.0918	95.2148	89.0909	95.2148	89.012	95.2148	88.9798	95.2148	88.919	95.2148	88.8535	95.2148	88.8122	95.2148	88.7171	95.2148	88.6943	95.2148	88.5793	95.2148	88.5717	95.2148	88.4523	95.2148	88.4546	95.2148	88.3497	95.2148	88.3558	95.2148	88.2838	95.2148	88.2884	95.2148	88.2627
98.1445	89.1751	98.1445	89.1932	98.1445	89.1396	98.1445	89.1938	98.1445	89.0877	98.1445	89.1775	98.1445	89.0215	98.1445	89.1453	98.1445	88.9434	98.1445	89.0981	98.1445	88.8564	98.1445	89.0368	98.1445	88.7631	98.1445	88.961	98.1445	88.6653	98.1445	88.8699	98.1445	88.564	98.1445	88.7621	98.1445	88.4589	98.1445	88.6365	98.1445	88.3487	98.1445	88.4932	98.1445	88.2327	98.1445	88.3347	98.1445	88.1108	98.1445	88.1672	98.1445	87.9858	98.1445	88.0005	98.1445	87.8633	98.1445	87.8477	98.1445	87.7523	98.1445	87.7225	98.1445	87.6639	98.1445	87.6372	98.1445	87.6097	98.1445	87.5992
101.074	88.9283	101.074	88.9507	101.074	88.882	101.074	88.9503	101.074	88.8118	101.074	88.929	101.074	88.7186	101.074	88.8891	101.074	88.6045	101.074	88.8324	101.074	88.4724	101.074	88.7604	101.074	88.326	101.074	88.6731	101.074	88.1689	101.074	88.5698	101.074	88.005	101.074	88.4484	101.074	87.8378	101.074	88.3072	101.074	87.6707	101.074	88.1451	101.074	87.5074	101.074	87.9636	101.074	87.3525	101.074	87.768	101.074	87.2115	101.074	87.5673	101.074	87.0915	101.074	87.3743	101.074	87.0005	101.074	87.2034	101.074	86.9468	101.074	87.0681	101.074	86.9378	101.074	86.978
105.469	89.1011	105.469	89.0663	105.469	89.099	105.469	88.9963	105.469	89.0595	105.469	88.8935	105.469	88.983	105.469	88.7616	105.469	88.8704	105.469	88.6047	105.469	88.7232	105.469	88.4274	105.469	88.543	105.469	88.2343	105.469	88.3319	105.469	88.0294	105.469	88.0925	105.469	87.8163	105.469	87.8285	105.469	87.5982	105.469	87.5462	105.469	87.3777	105.469	87.2546	105.469	87.1581	105.469	86.9667	105.469	86.9433	105.469	86.699	105.469	86.7386	105.469	86.4694	105.469	86.5504	105.469	86.2942	105.469	86.3867	105.469	86.1851	105.469	86.2571	105.469	86.1459	105.469	86.173
108.398	89.6396	108.398	89.6094	108.398	89.6308	108.398	89.5404	108.398	89.5838	108.398	89.4334	108.398	89.4998	108.398	89.2897	108.398	89.3808	108.398	89.1112	108.398	89.2291	108.398	88.8997	108.398	89.047	108.398	88.6575	108.398	88.8367	108.398	88.3873	108.398	88.6002	108.398	88.0927	108.398	88.3395	108.398	87.7793	108.398	88.0573	108.398	87.4555	108.398	87.758	108.398	87.1337	108.398	87.4488	108.398	86.8299	108.398	87.1407	108.398	86.5622	108.398	86.8479	108.398	86.3482	108.398	86.5868	108.398	86.2017	108.398	86.3732	108.398	86.1308	108.398	86.2204	108.398	86.1377
112.793	89.6125	112.793	89.6055	112.793	89.5811	112.793	89.5606	112.793	89.5117	112.793	89.4788	112.793	89.4055	112.793	89.3614	112.793	89.2642	112.793	89.2103	112.793	89.0898	112.793	89.027	112.793	88.8845	112.793	88.8129	112.793	88.6506	112.793	88.5692	112.793	88.3901	112.793	88.2974	112.793	88.106	112.793	88.0005	112.793	87.8022	112.793	87.6837	112.793	87.4853	112.793	87.3562	112.793	87.1654	112.793	87.0316	112.793	86.8568	112.793	86.7271	112.793	86.5766	112.793	86.4618	112.793	86.3429	112.793	86.2532	112.793	86.1714	112.793	86.1145	112.793	86.0729	112.793	86.0535
117.188	89.336	117.188	89.316	117.188	89.3149	117.188	89.2562	117.188	89.2524	117.188	89.1586	117.188	89.1488	117.188	89.0256	117.188	89.005	117.188	88.8595	117.188	88.8229	117.188	88.6629	117.188	88.6046	117.188	88.4375	117.188	88.3526	117.188	88.1852	117.188	88.0705	117.188	87.9078	117.188	87.763	117.188	87.6085	117.188	87.4372	117.188	87.293	117.188	87.1031	117.188	86.9708	117.188	86.7745	117.188	86.6557	117.188	86.4675	117.188	86.3646	117.188	86.1994	117.188	86.1153	117.188	85.9847	117.188	85.9225	117.188	85.8335	117.188	85.7954	117.188	85.7507	117.188	85.7379
120.117	89.3688	120.117	89.3426	120.117	89.3494	120.117	89.2725	120.117	89.2834	120.117	89.1609	120.117	89.1703	120.117	89.0107	120.117	89.0105	120.117	88.8247	120.117	88.8043	120.117	88.6057	120.117	88.553	120.117	88.3565	120.117	88.2582	120.117	88.0794	120.117	87.9228	120.117	87.7769	120.117	87.5518	120.117	87.4521	120.117	87.1541	120.117	87.1102	120.117	86.7438	120.117	86.7595	120.117	86.3408	120.117	86.412	120.117	85.9703	120.117	86.0832	120.117	85.658	120.117	85.7902	120.117	85.4249	120.117	85.5485	120.117	85.2818	120.117	85.3693	120.117	85.229	120.117	85.2606
124.512	89.8967	124.512	89.8384	124.512	89.9091	124.512	89.7352	124.512	89.8753	124.512	89.5891	124.512	89.7957	124.512	89.4031	124.512	89.6712	124.512	89.181	124.512	89.5026	124.512	88.9272	124.512	89.2908	124.512	88.6466	124.512	89.0363	124.512	88.3445	124.512	88.7399	124.512	88.0266	124.512	88.4035	124.512	87.6995	124.512	88.0316	124.512	87.371	124.512	87.633	124.512	87.05	124.512	87.2233	124.512	86.7464	124.512	86.8248	124.512	86.4705	124.512	86.4651	124.512	86.2321	124.512	86.1719	124.512	86.0407	124.512	85.9663	124.512	85.9064	124.512	85.857	124.512	85.8407
128.906	89.7207	128.906	89.6625	128.906	89.7321	128.906	89.5564	128.906	89.6987	128.906	89.4019	128.906	89.6227	128.906	89.1993	128.906	89.5061	128.906	88.9503	128.906	89.3508	128.906	88.6578	128.906	89.1576	128.906	88.3263	128.906	88.9269	128.906	87.9629	128.906	88.6587	128.906	87.5779	128.906	88.3537	128.906	87.1858	128.906	88.0149	128.906	86.8055	128.906	87.6495	128.906	86.4587	128.906	87.2704	128.906	86.1661	128.906	86.8965	128.906	85.9428	128.906	86.5502	128.906	85.7941	128.906	86.2526	128.906	85.7167	128.906	86.0181	128.906	85.7029	128.906	85.8508	128.906	85.7474
133.301	89.6917	133.301	89.6823	133.301	89.6536	133.301	89.6226	133.301	89.5716	133.301	89.5109	133.301	89.4499	133.301	89.3457	133.301	89.2932	133.301	89.1262	133.301	89.1062	133.301	88.8521	133.301	88.8925	133.301	88.524	133.301	88.6547	133.301	88.1444	133.301	88.394	133.301	87.72	133.301	88.1107	133.301	87.2639	133.301	87.8056	133.301	86.7986	133.301	87.4823	133.301	86.3561	133.301	87.1483	133.301	85.9746	133.301	86.8156	133.301	85.6888	133.301	86.4991	133.301	85.5179	133.301	86.2125	133.301	85.4599	133.301	85.9651	133.301	85.4956	133.301	85.7606	133.301	85.6015
139.16	89.4228	139.16	89.4433	139.16	89.3549	139.16	89.4176	139.16	89.239	139.16	89.3469	139.16	89.0757	139.16	89.2324	139.16	88.8669	139.16	89.0741	139.16	88.6153	139.16	88.8704	139.16	88.3244	139.16	88.6184	139.16	87.9987	139.16	88.3147	139.16	87.6434	139.16	87.9566	139.16	87.2654	139.16	87.5456	139.16	86.874	139.16	87.0906	139.16	86.4825	139.16	86.6113	139.16	86.108	139.16	86.1394	139.16	85.7698	139.16	85.7145	139.16	85.4849	139.16	85.374	139.16	85.263	139.16	85.1398	139.16	85.1056	139.16	85.0121	139.16	85.0094	139.16	84.9748
143.555	88.9883	143.555	88.976	143.555	88.9522	143.555	88.9179	143.555	88.8665	143.555	88.8177	143.555	88.7314	143.555	88.6796	143.555	88.5482	143.555	88.5073	143.555	88.3187	143.555	88.3034	143.555	88.0456	143.555	88.0687	143.555	87.7315	143.555	87.8022	143.555	87.3798	143.555	87.5019	143.555	86.9961	143.555	87.1676	143.555	86.5894	143.555	86.8033	143.555	86.1751	143.555	86.4199	143.555	85.7757	143.555	86.0367	143.555	85.419	143.555	85.6782	143.555	85.1317	143.555	85.3685	143.555	84.9318	143.555	85.1236	143.555	84.8225	143.555	84.948	143.555	84.7954	143.555	84.8391
147.949	88.4689	147.949	88.4209	147.949	88.4654	147.949	88.3239	147.949	88.41	147.949	88.182	147.949	88.3035	147.949	88.0007	147.949	88.1477	147.949	87.786	147.949	87.9451	147.949	87.5436	147.949	87.6979	147.949	87.2778	147.949	87.4086	147.949	86.9912	147.949	87.0801	147.949	86.6854	147.949	86.717	147.949	86.3628	147.949	86.3285	147.949	86.0299	147.949	85.9301	147.949	85.6992	147.949	85.545	147.949	85.3888	147.949	85.2017	147.949	85.1191	147.949	84.9266	147.949	84.905	147.949	84.7353	147.949	84.7511	147.949	84.6264	147.949	84.6515	147.949	84.586	147.949	84.5973
153.809	88.592	153.809	88.5434	153.809	88.5688	153.809	88.424	153.809	88.4746	153.809	88.2374	153.809	88.312	153.809	87.9887	153.809	88.0847	153.809	87.6852	153.809	87.7977	153.809	87.335	153.809	87.4563	153.809	86.9471	153.809	87.0664	153.809	86.5311	153.809	86.6352	153.809	86.0981	153.809	86.173	153.809	85.6621	153.809	85.6957	153.809	85.2426	153.809	85.2274	153.809	84.8642	153.809	84.8009	153.809	84.5525	153.809	84.4519	153.809	84.3256	153.809	84.2072	153.809	84.1844	153.809	84.0715	153.809	84.1102	153.809	84.0236	153.809	84.0735	153.809	84.0269	153.809	84.0484
159.668	89.0427	159.668	88.9966	159.668	89.0145	159.668	88.8758	159.668	88.9137	159.668	88.682	159.668	88.7431	159.668	88.4179	159.668	88.5061	159.668	88.0879	159.668	88.2058	159.668	87.6965	159.668	87.8446	159.668	87.2485	159.668	87.4236	159.668	86.7487	159.668	86.9433	159.668	86.2035	159.668	86.4055	159.668	85.624	159.668	85.8173	159.668	85.0306	159.668	85.197	159.668	84.4569	159.668	84.5792	159.668	83.9482	159.668	84.0156	159.668	83.5487	159.668	83.5625	159.668	83.2812	159.668	83.2572	159.668	83.1326	159.668	83.096	159.668	83.0636	159.668	83.0383	159.668	83.0359
165.527	89.0941	165.527	89.0649	165.527	89.0346	165.527	88.9472	165.527	88.8891	165.527	88.7441	165.527	88.663	165.527	88.4608	165.527	88.3642	165.527	88.1046	165.527	88.0019	165.527	87.6833	165.527	87.5859	165.527	87.2041	165.527	87.1243	165.527	86.6719	165.527	86.622	165.527	86.0896	165.527	86.0805	165.527	85.4609	165.527	85.5005	165.527	84.7962	165.527	84.8877	165.527	84.1218	165.527	84.2609	165.527	83.4857	165.527	83.6579	165.527	82.951	165.527	83.1315	165.527	82.5706	165.527	82.73	165.527	82.3556	165.527	82.4704	165.527	82.2712	165.527	82.3301	165.527	82.2699
171.387	89.884	171.387	89.8056	171.387	89.8513	171.387	89.6176	171.387	89.7069	171.387	89.3225	171.387	89.4508	171.387	88.9251	171.387	89.0846	171.387	88.4336	171.387	88.6118	171.387	87.8612	171.387	88.0384	171.387	87.2259	171.387	87.373	171.387	86.5492	171.387	86.6268	171.387	85.8504	171.387	85.8124	171.387	85.1399	171.387	84.9425	171.387	84.4138	171.387	84.0294	171.387	83.6567	171.387	83.0885	171.387	82.8541	171.387	82.1447	171.387	82.0105	171.387	81.2427	171.387	81.1667	171.387	80.4514	171.387	80.4036	171.387	79.8548	171.387	79.8243	171.387	79.5284	171.387	79.5173
177.246	90.2221	177.246	90.1549	177.246	90.2156	177.246	90.0111	177.246	90.1381	177.246	89.7871	177.246	89.9912	177.246	89.4797	177.246	89.7764	177.246	89.0865	177.246	89.4949	177.246	88.6076	177.246	89.1489	177.246	88.0484	177.246	88.7429	177.246	87.4232	177.246	88.2848	177.246	86.7593	177.246	87.787	177.246	86.0986	177.246	87.2667	177.246	85.4932	177.246	86.7443	177.246	84.9914	177.246	86.2399	177.246	84.6196	177.246	85.7702	177.246	84.3752	177.246	85.3471	177.246	84.2356	177.246	84.9791	177.246	84.1784	177.246	84.6737	177.246	84.1924	177.246	84.4383	177.246	84.2779
183.105	88.9564	183.105	88.9784	183.105	88.8671	183.105	88.9327	183.105	88.7114	183.105	88.8184	183.105	88.4907	183.105	88.6344	183.105	88.2084	183.105	88.3793	183.105	87.8707	183.105	88.0525	183.105	87.4882	183.105	87.6562	183.105	87.0771	183.105	87.1985	183.105	86.6605	183.105	86.6969	183.105	86.2683	183.105	86.1823	183.105	85.9327	183.105	85.6994	183.105	85.6806	183.105	85.2998	183.105	85.5225	183.105	85.0266	183.105	85.4476	183.105	84.8969	183.105	85.4259	183.105	84.8949	183.105	85.4199	183.105	84.9809	183.105	85.3969	183.105	85.1083	183.105	85.3369	183.105	85.2364
188.965	89.4525	188.965	89.4128	188.965	89.409	188.965	89.2924	188.965	89.2784	188.965	89.0922	188.965	89.0548	188.965	88.8123	188.965	88.7312	188.965	88.4522	188.965	88.2995	188.965	88.0128	188.965	87.7526	188.965	87.4995	188.965	87.0883	188.965	86.927	188.965	86.3178	188.965	86.3255	188.965	85.4789	188.965	85.7453	188.965	84.653	188.965	85.2542	188.965	83.9715	188.965	84.9174	188.965	83.5773	188.965	84.7658	188.965	83.5355	188.965	84.7749	188.965	83.778	188.965	84.8761	188.965	84.157	188.965	84.9886	188.965	84.5354	188.965	85.0447	188.965	84.8282	188.965	84.9988
196.289	90.495	196.289	90.4579	196.289	90.4629	196.289	90.3476	196.289	90.3635	196.289	90.158	196.289	90.1964	196.289	89.8811	196.289	89.9586	196.289	89.5063	196.289	89.6443	196.289	89.0214	196.289	89.2451	196.289	88.4136	196.289	88.7514	196.289	87.6732	196.289	88.1544	196.289	86.8016	196.289	87.4511	196.289	85.8257	196.289	86.653	196.289	84.819	196.289	85.7975	196.289	83.9159	196.289	84.9599	196.289	83.2811	196.289	84.2489	196.289	83.0093	196.289	83.7661	196.289	83.0435	196.289	83.5398	196.289	83.2256	196.289	83.4994	196.289	83.4086	196.289	83.5245	196.289	83.5116
203.613	90.1242	203.613	90.0881	203.613	90.097	203.613	89.9919	203.613	90.0021	203.613	89.8364	203.613	89.8332	203.613	89.6198	203.613	89.5832	203.613	89.3369	203.613	89.2433	203.613	88.9797	203.613	88.8037	203.613	88.5375	203.613	88.254	203.613	87.9998	203.613	87.5867	203.613	87.3603	203.613	86.8038	203.613	86.6243	203.613	85.9295	203.613	85.8204	203.613	85.0261	203.613	85.0127	203.613	84.2032	203.613	84.3011	203.613	83.5924	203.613	83.7877	203.613	83.2739	203.613	83.5156	203.613	83.214	203.613	83.4359	203.613	83.2945	203.613	83.4451	203.613	83.3955	203.613	83.4482
210.938	89.2138	210.938	89.1444	210.938	89.225	210.938	89.0152	210.938	89.1778	210.938	88.8236	210.938	89.0696	210.938	88.5671	210.938	88.8949	210.938	88.2437	210.938	88.6455	210.938	87.8532	210.938	88.3114	210.938	87.3999	210.938	87.8829	210.938	86.8956	210.938	87.3547	210.938	86.3645	210.938	86.7319	210.938	85.846	210.938	86.04	210.938	85.3916	210.938	85.3369	210.938	85.0514	210.938	84.7168	210.938	84.8529	210.938	84.2877	210.938	84.7856	210.938	84.115	210.938	84.8026	210.938	84.1743	210.938	84.8394	210.938	84.3682	210.938	84.8362	210.938	84.5873	210.938	84.7544
218.262	89.5796	218.262	89.5334	218.262	89.5629	218.262	89.4193	218.262	89.4866	218.262	89.2305	218.262	89.3503	218.262	88.9574	218.262	89.1486	218.262	88.5871	218.262	88.8695	218.262	88.1027	218.262	88.4947	218.262	87.4845	218.262	88.0022	218.262	86.7156	218.262	87.372	218.262	85.7932	218.262	86.5953	218.262	84.7529	218.262	85.6897	218.262	83.7076	218.262	84.7228	218.262	82.8727	218.262	83.8355	218.262	82.4855	218.262	83.2218	218.262	82.5969	218.262	83.0148	218.262	83.0065	218.262	83.1631	218.262	83.4526	218.262	83.4722	218.262	83.7621	218.262	83.7464	218.262	83.8614
225.586	89.4161	225.586	89.4009	225.586	89.3744	225.586	89.3246	225.586	89.2802	225.586	89.1823	225.586	89.1373	225.586	88.9674	225.586	88.9478	225.586	88.6703	225.586	88.7107	225.586	88.2779	225.586	88.4203	225.586	87.7746	225.586	88.0664	225.586	87.1468	225.586	87.636	225.586	86.3905	225.586	87.1184	225.586	85.526	225.586	86.5128	225.586	84.6171	225.586	85.8399	225.586	83.7869	225.586	85.1521	225.586	83.1953	225.586	84.5341	225.586	82.9481	225.586	84.0749	225.586	83.008	225.586	83.8154	225.586	83.2268	225.586	83.7151	225.586	83.4551	225.586	83.6779	225.586	83.6088
232.91	88.93	232.91	88.9997	232.91	88.8032	232.91	89.0078	232.91	88.6233	232.91	88.9487	232.91	88.3933	232.91	88.8151	232.91	88.114	232.91	88.5955	232.91	87.7832	232.91	88.2744	232.91	87.3969	232.91	87.8327	232.91	86.9531	232.91	87.2526	232.91	86.4598	232.91	86.5281	232.91	85.9445	232.91	85.6837	232.91	85.4602	232.91	84.8039	232.91	85.0761	232.91	84.0542	232.91	84.8495	232.91	83.6351	232.91	84.792	232.91	83.636	232.91	84.8603	232.91	83.9471	232.91	84.9803	232.91	84.3657	232.91	85.0771	232.91	84.7359	232.91	85.0912	232.91	84.9832
241.699	87.2624	241.699	87.243	241.699	87.2643	241.699	87.2182	241.699	87.2313	241.699	87.1923	241.699	87.1437	241.699	87.1596	241.699	86.9819	241.699	87.1047	241.699	86.7265	241.699	87.0049	241.699	86.358	241.699	86.8344	241.699	85.8568	241.699	86.5715	241.699	85.2089	241.699	86.2079	241.699	84.4254	241.699	85.7614	241.699	83.5846	241.699	85.2883	241.699	82.8862	241.699	84.8851	241.699	82.621	241.699	84.6607	241.699	82.9331	241.699	84.6733	241.699	83.6348	241.699	84.8836	241.699	84.4042	241.699	85.1761	241.699	85.0209	241.699	85.4217	241.699	85.3953	241.699	85.5174
250.488	87.9886	250.488	87.8366	250.488	88.0112	250.488	87.5548	250.488	87.9121	250.488	87.15	250.488	87.7038	250.488	86.635	250.488	87.3983	250.488	86.0264	250.488	87.0009	250.488	85.3427	250.488	86.5036	250.488	84.6071	250.488	85.8848	250.488	83.8618	250.488	85.1188	250.488	83.2001	250.488	84.2073	250.488	82.7972	250.488	83.246	250.488	82.8596	250.488	82.524	250.488	83.4496	250.488	82.4759	250.488	84.3906	250.488	83.2398	250.488	85.4138	250.488	84.4381	250.488	86.3167	250.488	85.6247	250.488	86.9874	250.488	86.5632	250.488	87.371	250.488	87.1725	250.488	87.4387
259.277	90.3569	259.277	90.288	259.277	90.3203	259.277	90.1104	259.277	90.1787	259.277	89.8168	259.277	89.9285	259.277	89.393	259.277	89.5604	259.277	88.8132	259.277	89.0554	259.277	88.0354	259.277	88.3825	259.277	86.9953	259.277	87.4948	259.277	85.6007	259.277	86.328	259.277	83.7299	259.277	84.8008	259.277	81.2791	259.277	82.8397	259.277	78.5486	259.277	80.5322	259.277	77.494	259.277	78.7136	259.277	79.3643	259.277	79.0172	259.277	81.7652	259.277	80.9206	259.277	83.5752	259.277	82.8265	259.277	84.7386	259.277	84.2261	259.277	85.3443	259.277	85.0887	259.277	85.4547
268.066	90.3492	268.066	90.3429	268.066	90.3279	268.066	90.3009	268.066	90.2792	268.066	90.2074	268.066	90.1946	268.066	90.0372	268.066	90.0554	268.066	89.7544	268.066	89.8318	268.066	89.3114	268.066	89.4822	268.066	88.6464	268.066	88.9545	268.066	87.6799	268.066	88.1853	268.066	86.3068	268.066	87.0984	268.066	84.3812	268.066	85.6035	268.066	81.7067	268.066	83.6067	268.066	78.1906	268.066	81.1019	268.066	75.3415	268.066	78.6259	268.066	76.6777	268.066	77.893	268.066	79.3385	268.066	79.2342	268.066	81.1728	268.066	80.8495	268.066	82.1343	268.066	81.9303	268.066	82.3638
276.855	88.5967	276.855	88.6609	276.855	88.5414	276.855	88.7365	276.855	88.5002	276.855	88.8275	276.855	88.4813	276.855	88.9273	276.855	88.4817	276.855	89.0068	276.855	88.4739	276.855	89.0107	276.855	88.401	276.855	88.8633	276.855	88.1858	276.855	88.4751	276.855	87.7425	276.855	87.7467	276.855	86.9878	276.855	86.5673	276.855	85.8541	276.855	84.819	276.855	84.3338	276.855	82.4494	276.855	82.6326	276.855	79.9258	276.855	81.4492	276.855	79.1672	276.855	81.5845	276.855	80.7738	276.855	82.6509	276.855	82.6456	276.855	83.7298	276.855	83.8929	276.855	84.3747	276.855	84.4499
287.109	89.2226	287.109	89.1742	287.109	89.1089	287.109	88.9809	287.109	88.8417	287.109	88.6852	287.109	88.4583	287.109	88.3523	287.109	88.0247	287.109	88.0525	287.109	87.6214	287.109	87.8231	287.109	87.3021	287.109	87.6307	287.109	87.0437	287.109	87.3671	287.109	86.7329	287.109	86.8837	287.109	86.2045	287.109	86.0329	287.109	85.2957	287.109	84.7207	287.109	83.9212	287.109	83.0746	287.109	82.3198	287.109	81.9209	287.109	81.5843	287.109	82.5037	287.109	82.7139	287.109	84.2624	287.109	84.6267	287.109	85.908	287.109	86.1964	287.109	86.9705	287.109	87.1213	287.109	87.3763
297.363	90.75	297.363	90.6532	297.363	90.699	297.363	90.413	297.363	90.4998	297.363	90.04	297.363	90.1563	297.363	89.5523	297.363	89.6769	297.363	88.9737	297.363	89.0763	297.363	88.3283	297.363	88.372	297.363	87.6251	297.363	87.5739	297.363	86.8379	297.363	86.6621	297.363	85.8831	297.363	85.5616	297.363	84.6028	297.363	84.1205	297.363	82.7442	297.363	82.0898	297.363	79.939	297.363	79.1231	297.363	76.0739	297.363	75.3829	297.363	75.0122	297.363	75.2367	297.363	78.7044	297.363	78.9158	297.363	81.6783	297.363	81.736	297.363	83.3045	297.363	83.3087	297.363	83.8145
307.617	91.7361	307.617	91.603	307.617	91.7465	307.617	91.3519	307.617	91.6366	307.617	90.9928	307.617	91.4147	307.617	90.5381	307.617	91.0931	307.617	89.9989	307.617	90.6816	307.617	89.3793	307.617	90.1789	307.617	88.6689	307.617	89.5628	307.617	87.8348	307.617	88.7807	307.617	86.813	307.617	87.7441	307.617	85.5001	307.617	86.3203	307.617	83.7438	307.617	84.3094	307.617	81.3456	307.617	81.3862	307.617	78.2315	307.617	77.0509	307.617	75.7358	307.617	72.6245	307.617	76.8473	307.617	75.3241	307.617	79.2651	307.617	78.8496	307.617	80.832	307.617	80.7266	307.617	81.325
319.336	90.3368	319.336	90.3283	319.336	90.293	319.336	90.2613	319.336	90.205	319.336	90.132	319.336	90.0784	319.336	89.937	319.336	89.9119	319.336	89.6665	319.336	89.6926	319.336	89.2958	319.336	89.3941	319.336	88.7793	319.336	88.9762	319.336	88.0515	319.336	88.387	319.336	87.0329	319.336	87.5639	319.336	85.641	319.336	86.4316	319.336	83.8148	319.336	84.9006	319.336	81.601	319.336	82.8874	319.336	79.4377	319.336	80.4489	319.336	78.4369	319.336	78.308	319.336	79.0492	319.336	78.0234	319.336	80.1718	319.336	79.2882	319.336	80.9424	319.336	80.5064	319.336	81.0796
329.59	90.5444	329.59	90.5599	329.59	90.438	329.59	90.4946	329.59	90.242	329.59	90.3649	329.59	89.9731	329.59	90.1893	329.59	89.6652	329.59	89.9788	329.59	89.3584	329.59	89.7235	329.59	89.0742	329.59	89.3803	329.59	88.79	329.59	88.8697	329.59	88.4338	329.59	88.0792	329.59	87.906	329.59	86.8672	329.59	87.106	329.59	85.0563	329.59	85.9514	329.59	82.4302	329.59	84.4016	329.59	78.8933	329.59	82.5399	329.59	75.9458	329.59	80.798	329.59	77.042	329.59	80.0226	329.59	79.3895	329.59	80.4157	329.59	80.8458	329.59	81.1021	329.59	81.3533
341.309	90.4355	341.309	90.353	341.309	90.4346	341.309	90.209	341.309	90.3489	341.309	90.0419	341.309	90.1942	341.309	89.8977	341.309	89.9931	341.309	89.8094	341.309	89.7581	341.309	89.7665	341.309	89.4754	341.309	89.6959	341.309	89.0966	341.309	89.4732	341.309	88.5395	341.309	88.9527	341.309	87.6971	341.309	87.9874	341.309	86.454	341.309	86.4282	341.309	84.7235	341.309	84.1269	341.309	82.5855	341.309	81.1179	341.309	80.7262	341.309	78.7861	341.309	80.4907	341.309	79.7085	341.309	81.7053	341.309	81.8663	341.309	83.0181	341.309	83.3453	341.309	83.8215	341.309	83.9619
353.027	91.364	353.027	91.2818	353.027	91.3176	353.027	91.0836	353.027	91.1459	353.027	90.7955	353.027	90.8687	353.027	90.451	353.027	90.519	353.027	90.0815	353.027	90.1332	353.027	89.704	353.027	89.7297	353.027	89.308	353.027	89.2822	353.027	88.8427	353.027	88.7036	353.027	88.2087	353.027	87.8466	353.027	87.2537	353.027	86.5045	353.027	85.7656	353.027	84.3823	353.027	83.4556	353.027	81.0108	353.027	80.0535	353.027	76.0434	353.027	76.9146	353.027	75.3342	353.027	78.596	353.027	79.7407	353.027	81.6135	353.027	82.5699	353.027	83.4711	353.027	83.9404	353.027	84.2104
366.211	91.1315	366.211	90.9293	366.211	91.1985	366.211	90.6109	366.211	91.1355	366.211	90.2237	366.211	90.9688	366.211	89.8424	366.211	90.7395	366.211	89.5493	366.211	90.4872	366.211	89.3825	366.211	90.2224	366.211	89.2865	366.211	89.9049	366.211	89.1196	366.211	89.4481	366.211	88.71	366.211	88.7392	366.211	87.8956	366.211	87.6468	366.211	86.5219	366.211	86.0002	366.211	84.4179	366.211	83.5362	366.211	81.4292	366.211	79.8309	366.211	78.0467	366.211	74.9736	366.211	77.3486	366.211	75.0228	366.211	79.4765	366.211	78.6988	366.211	81.144	366.211	80.8876	366.211	81.6353
379.395	90.4997	379.395	90.4526	379.395	90.365	379.395	90.2195	379.395	90.0712	379.395	89.8236	379.395	89.6561	379.395	89.3201	379.395	89.1773	379.395	88.7843	379.395	88.7124	379.395	88.2784	379.395	88.3363	379.395	87.8122	379.395	88.0707	379.395	87.324	379.395	87.849	379.395	86.6932	379.395	87.5294	379.395	85.7651	379.395	86.9357	379.395	84.3675	379.395	85.8781	379.395	82.3097	379.395	84.1461	379.395	79.428	379.395	81.5059	379.395	76.2283	379.395	77.9795	379.395	75.7492	379.395	75.8206	379.395	78.0069	379.395	77.5542	379.395	79.7592	379.395	79.5332	379.395	80.2854
392.578	90.4037	392.578	90.3023	392.578	90.3577	392.578	90.0737	392.578	90.1568	392.578	89.7444	392.578	89.8163	392.578	89.3449	392.578	89.3845	392.578	88.9105	392.578	88.9406	392.578	88.4723	392.578	88.5659	392.578	88.0375	392.578	88.2839	392.578	87.5662	392.578	88.0179	392.578	86.9626	392.578	87.6115	392.578	86.0854	392.578	86.8813	392.578	84.7652	392.578	85.6422	392.578	82.8231	392.578	83.6961	392.578	80.1814	392.578	80.8516	392.578	77.6063	392.578	77.4654	392.578	77.5986	392.578	76.5728	392.578	79.5398	392.578	78.83	392.578	81.018	392.578	80.7183	392.578	81.4386
405.762	90.2602	405.762	90.2141	405.762	90.1014	405.762	89.981	405.762	89.749	405.762	89.605	405.762	89.2527	405.762	89.1627	405.762	88.7032	405.762	88.7571	405.762	88.2214	405.762	88.4712	405.762	87.9191	405.762	88.2976	405.762	87.8283	405.762	88.1261	405.762	87.8475	405.762	87.7953	405.762	87.7731	405.762	87.1344	405.762	87.3831	405.762	85.9591	405.762	86.4882	405.762	84.0545	405.762	84.9481	405.762	81.2332	405.762	82.7545	405.762	78.0068	405.762	80.455	405.762	77.3648	405.762	79.634	405.762	79.392	405.762	80.5368	405.762	81.0581	405.762	81.5081	405.762	81.744
420.41	91.0631	420.41	90.9155	420.41	90.9391	420.41	90.4853	420.41	90.5778	420.41	89.7957	420.41	90.0336	420.41	88.9295	420.41	89.3759	420.41	88.0539	420.41	88.6755	420.41	87.3907	420.41	87.9792	420.41	87.0692	420.41	87.2824	420.41	86.984	420.41	86.5139	420.41	86.8617	420.41	85.5444	420.41	86.4236	420.41	84.21	420.41	85.4442	420.41	82.3506	420.41	83.7329	420.41	79.982	420.41	81.2236	420.41	78.1374	420.41	78.812	420.41	78.9699	420.41	79.1675	420.41	81.2767	420.41	81.3866	420.41	83.0953	420.41	83.1519	420.41	84.0109	420.41	84.0257
435.059	91.4849	435.059	91.3408	435.059	91.3497	435.059	90.9156	435.059	90.9502	435.059	90.2204	435.059	90.3292	435.059	89.3	435.059	89.5767	435.059	88.2797	435.059	88.8385	435.059	87.3956	435.059	88.2749	435.059	86.8753	435.059	87.9495	435.059	86.6749	435.059	87.7432	435.059	86.464	435.059	87.3981	435.059	85.8712	435.059	86.6116	435.059	84.5875	435.059	85.0579	435.059	82.3083	435.059	82.3137	435.059	78.8479	435.059	77.7495	435.059	76.3452	435.059	73.432	435.059	78.7796	435.059	77.2909	435.059	81.6049	435.059	80.8385	435.059	83.1025	435.059	82.7157	435.059	83.4286
451.172	90.9931	451.172	90.9694	451.172	90.8031	451.172	90.7467	451.172	90.3752	451.172	90.3469	451.172	89.6974	451.172	89.8295	451.172	88.843	451.172	89.3066	451.172	88.0599	451.172	88.9079	451.172	87.7125	451.172	88.6868	451.172	87.905	451.172	88.5379	451.172	88.3001	451.172	88.2246	451.172	88.4731	451.172	87.4646	451.172	88.1433	451.172	85.9508	451.172	87.1137	451.172	83.2495	451.172	85.13	451.172	78.419	451.172	81.6634	451.172	69.2965	451.172	75.1131	451.172	74.044	451.172	65.0128	451.172	79.0262	451.172	75.6759	451.172	80.9296	451.172	79.6149	451.172	81.0744
465.82	91.1099	465.82	90.8661	465.82	91.0062	465.82	90.2968	465.82	90.532	465.82	89.4151	465.82	89.6712	465.82	88.2522	465.82	88.425	465.82	86.9695	465.82	86.8659	465.82	86.0231	465.82	85.3128	465.82	85.9311	465.82	84.4725	465.82	86.5181	465.82	84.7247	465.82	87.1023	465.82	85.3971	465.82	87.1854	465.82	85.6994	465.82	86.4781	465.82	85.2442	465.82	84.6798	465.82	83.8491	465.82	81.1956	465.82	81.4349	465.82	74.4753	465.82	78.65	465.82	72.5899	465.82	78.5022	465.82	79.1462	465.82	80.808	465.82	82.089	465.82	82.5482	465.82	83.0341
483.398	90.1409	483.398	90.0251	483.398	89.9797	483.398	89.5642	483.398	89.5806	483.398	88.7025	483.398	88.9365	483.398	87.4474	483.398	88.0177	483.398	85.9255	483.398	86.8506	483.398	84.4392	483.398	85.6426	483.398	83.4294	483.398	84.7959	483.398	83.1664	483.398	84.5072	483.398	83.4404	483.398	84.4438	483.398	83.7439	483.398	84.1342	483.398	83.5825	483.398	83.2347	483.398	82.5514	483.398	81.3524	483.398	80.2458	483.398	77.6273	483.398	76.2045	483.398	69.2621	483.398	73.4371	483.398	71.884	483.398	77.5686	483.398	78.6661	483.398	80.7846	483.398	81.4138	483.398	82.0022
499.512	89.4779	499.512	89.3372	499.512	89.3354	499.512	88.9619	499.512	88.8457	499.512	88.3645	499.512	87.9621	499.512	87.5239	499.512	86.7095	499.512	86.4382	499.512	85.2786	499.512	85.2397	499.512	84.1305	499.512	84.2748	499.512	83.7966	499.512	83.8372	499.512	84.2229	499.512	83.7092	499.512	84.7821	499.512	83.3617	499.512	84.8954	499.512	82.3682	499.512	84.1705	499.512	80.3234	499.512	82.2106	499.512	76.3395	499.512	78.2459	499.512	67.0776	499.512	69.2097	499.512	69.9058	499.512	65.9286	499.512	76.476	499.512	75.0722	499.512	78.8408	499.512	78.1302	499.512	79.2241
517.09	89.6753	517.09	89.4968	517.09	89.5503	517.09	88.9712	517.09	89.1365	517.09	88.0375	517.09	88.3939	517.09	86.6087	517.09	87.218	517.09	84.602	517.09	85.4615	517.09	82.1629	517.09	83.029	517.09	80.4624	517.09	80.399	517.09	81.1522	517.09	79.6757	517.09	82.8683	517.09	81.2223	517.09	83.9807	517.09	82.6851	517.09	84.0756	517.09	83.2108	517.09	83.0123	517.09	82.6634	517.09	80.3976	517.09	80.8259	517.09	74.6914	517.09	77.0928	517.09	56.1655	517.09	70.9401	517.09	74.2847	517.09	72.9608	517.09	78.3683	517.09	77.4236	517.09	79.0867
536.133	90.8932	536.133	90.7952	536.133	90.8069	536.133	90.5229	536.133	90.5085	536.133	90.0417	536.133	89.9558	536.133	89.2534	536.133	89.0672	536.133	88.0147	536.133	87.7055	536.133	86.1787	536.133	85.7204	536.133	83.7539	536.133	83.2104	536.133	81.6688	536.133	81.4294	536.133	81.8779	536.133	82.1374	536.133	83.3373	536.133	83.7804	536.133	84.0971	536.133	84.6239	536.133	83.5529	536.133	84.0965	536.133	81.3533	536.133	81.717	536.133	76.6868	536.133	76.1397	536.133	69.2973	536.133	62.9859	536.133	74.3676	536.133	74.9709	536.133	78.5118	536.133	79.0171	536.133	79.879
555.176	89.982	555.176	89.9083	555.176	90.0146	555.176	89.767	555.176	89.9507	555.176	89.4753	555.176	89.6903	555.176	88.9303	555.176	89.1377	555.176	88.0031	555.176	88.2158	555.176	86.5493	555.176	86.8707	555.176	84.5719	555.176	85.1443	555.176	82.7039	555.176	83.4515	555.176	82.2067	555.176	82.7321	555.176	82.7836	555.176	83.0606	555.176	83.0336	555.176	83.2115	555.176	82.2491	555.176	82.2471	555.176	79.9125	555.176	79.4642	555.176	74.457	555.176	72.9427	555.176	51.4586	555.176	59.9583	555.176	74.4765	555.176	75.0936	555.176	78.9008	555.176	78.9992	555.176	80.0461
574.219	89.8443	574.219	89.7405	574.219	89.754	574.219	89.4039	574.219	89.5129	574.219	88.8344	574.219	89.0924	574.219	88.0205	574.219	88.3722	574.219	86.8725	574.219	87.1949	574.219	85.2236	574.219	85.4323	574.219	82.9609	574.219	83.0702	574.219	80.6414	574.219	80.6234	574.219	80.3337	574.219	80.0228	574.219	81.9899	574.219	81.6941	574.219	83.3677	574.219	83.2446	574.219	83.5672	574.219	83.5675	574.219	82.2126	574.219	82.3747	574.219	78.889	574.219	79.2857	574.219	74.2988	574.219	73.787	574.219	76.0264	574.219	74.5001	574.219	79.3831	574.219	78.9546	574.219	80.4138
594.727	89.1248	594.727	89.0583	594.727	88.9995	594.727	88.8208	594.727	88.655	594.727	88.3774	594.727	88.1011	594.727	87.6308	594.727	87.3551	594.727	86.444	594.727	86.3689	594.727	84.6925	594.727	85.0412	594.727	82.4285	594.727	83.3782	594.727	80.331	594.727	81.8006	594.727	79.8312	594.727	81.1901	594.727	80.8256	594.727	81.6052	594.727	81.6716	594.727	82.025	594.727	81.4284	594.727	81.6788	594.727	79.6086	594.727	80.0719	594.727	75.2778	594.727	76.6624	594.727	65.2573	594.727	72.093	594.727	69.799	594.727	72.4466	594.727	74.4441	594.727	74.681	594.727	75.4711
615.234	90.2071	615.234	90.1994	615.234	90.2231	615.234	90.1786	615.234	90.2681	615.234	90.0876	615.234	90.2934	615.234	89.8034	615.234	90.1175	615.234	89.1767	615.234	89.4891	615.234	88.0259	615.234	88.1489	615.234	86.0395	615.234	85.7586	615.234	82.6813	615.234	81.9269	615.234	78.3823	615.234	78.8059	615.234	79.7747	615.234	81.2671	615.234	82.8776	615.234	83.5516	615.234	83.7405	615.234	83.8565	615.234	82.2863	615.234	81.9703	615.234	77.6089	615.234	76.5133	615.234	64.2615	615.234	66.1921	615.234	76.0683	615.234	77.5767	615.234	80.8452	615.234	81.4011	615.234	82.2485
637.207	91.4628	637.207	91.3898	637.207	91.3338	637.207	91.076	637.207	91.0203	637.207	90.5305	637.207	90.5518	637.207	89.8339	637.207	90.0206	637.207	89.0252	637.207	89.4549	637.207	87.9838	637.207	88.6368	637.207	86.4611	637.207	87.1521	637.207	84.2121	637.207	84.5765	637.207	81.3527	637.207	81.0509	637.207	79.7988	637.207	80.0421	637.207	81.0442	637.207	82.248	637.207	82.2051	637.207	83.2779	637.207	81.7288	637.207	82.2448	637.207	78.9464	637.207	78.8704	637.207	73.9002	637.207	72.8511	637.207	74.1399	637.207	72.839	637.207	77.0799	637.207	76.7561	637.207	77.9966
659.18	90.6282	659.18	90.4079	659.18	90.4433	659.18	89.8441	659.18	89.924	659.18	89.1349	659.18	89.2332	659.18	88.5209	659.18	88.5172	659.18	88.002	659.18	87.7703	659.18	87.2608	659.18	86.7918	659.18	85.8953	659.18	85.2901	659.18	83.5223	659.18	83.0136	659.18	79.9638	659.18	79.9852	659.18	77.599	659.18	78.1098	659.18	79.9829	659.18	79.846	659.18	82.1356	659.18	81.5007	659.18	82.0033	659.18	81.1017	659.18	78.9318	659.18	78.0618	659.18	69.8597	659.18	69.4646	659.18	68.619	659.18	69.2577	659.18	77.0591	659.18	77.2269	659.18	78.9713
682.617	90.3591	682.617	90.1898	682.617	90.159	682.617	89.6255	682.617	89.6261	682.617	88.7507	682.617	88.8426	682.617	87.8191	682.617	88.0107	682.617	87.0665	682.617	87.2892	682.617	86.3914	682.617	86.5431	682.617	85.3585	682.617	85.3648	682.617	83.4007	682.617	83.2006	682.617	80.214	682.617	79.8401	682.617	78.5299	682.617	78.7397	682.617	81.0376	682.617	81.1314	682.617	82.688	682.617	82.2346	682.617	81.9131	682.617	81.213	682.617	78.1475	682.617	77.2755	682.617	68.0238	682.617	67.0017	682.617	70.7074	682.617	74.4007	682.617	77.9865	682.617	79.2487	682.617	80.1626
707.52	90.2021	707.52	89.8608	707.52	90.0445	707.52	89.1007	707.52	89.3145	707.52	87.9956	707.52	88.1061	707.52	86.7596	707.52	86.8368	707.52	85.8268	707.52	85.9872	707.52	85.4227	707.52	85.4703	707.52	85.1301	707.52	84.7743	707.52	84.2524	707.52	83.3388	707.52	82.165	707.52	80.5616	707.52	78.7003	707.52	76.5885	707.52	76.7535	707.52	76.2947	707.52	78.2789	707.52	78.6638	707.52	78.8111	707.52	78.8518	707.52	76.7063	707.52	75.8143	707.52	70.5306	707.52	68.16	707.52	72.3522	707.52	72.2536	707.52	77.7025	707.52	77.2256	707.52	78.9218
732.422	89.4628	732.422	89.2455	732.422	89.2473	732.422	88.6257	732.422	88.638	732.422	87.67	732.422	87.7528	732.422	86.5378	732.422	86.7135	732.422	85.4708	732.422	85.5709	732.422	84.4975	732.422	84.2966	732.422	83.2942	732.422	82.7439	732.422	81.4196	732.422	80.7021	732.422	78.3518	732.422	78.1716	732.422	74.046	732.422	76.1253	732.422	74.3146	732.422	77.0736	732.422	77.2542	732.422	79.1947	732.422	77.6555	732.422	79.6234	732.422	74.9769	732.422	77.7204	732.422	66.02	732.422	72.369	732.422	65.1028	732.422	52.3531	732.422	72.7469	732.422	70.7191	732.422	73.8729
757.324	88.5105	757.324	88.332	757.324	88.4729	757.324	87.9015	757.324	88.1075	757.324	87.2103	757.324	87.2933	757.324	86.3509	757.324	86.0843	757.324	85.3298	757.324	84.6933	757.324	84.0744	757.324	83.4082	757.324	82.6499	757.324	82.2011	757.324	81.19	757.324	80.4189	757.324	79.537	757.324	77.2854	757.324	77.3774	757.324	73.7239	757.324	75.8287	757.324	74.3038	757.324	76.8439	757.324	75.0544	757.324	77.7964	757.324	74.0321	757.324	76.404	757.324	71.4799	757.324	72.0567	757.324	66.1407	757.324	65.2192	757.324	55.2921	757.324	69.6946	757.324	68.515	757.324	72.0508
785.156	89.8455	785.156	89.6784	785.156	89.5629	785.156	89.0047	785.156	88.7913	785.156	87.771	785.156	87.4983	785.156	86.1531	785.156	85.7844	785.156	84.5807	785.156	83.9976	785.156	83.3932	785.156	82.8559	785.156	82.4657	785.156	82.5073	785.156	81.1124	785.156	81.8077	785.156	78.2246	785.156	79.8728	785.156	71.8462	785.156	77.3102	785.156	70.5859	785.156	77.5061	785.156	77.795	785.156	79.4489	785.156	79.4851	785.156	79.129	785.156	76.6615	785.156	75.5142	785.156	65.8937	785.156	67.7768	785.156	70.9583	785.156	67.6054	785.156	76.4448	785.156	74.7	785.156	77.2773
811.523	88.3313	811.523	87.9065	811.523	88.4442	811.523	87.2386	811.523	87.9645	811.523	86.0656	811.523	86.8139	811.523	84.1953	811.523	85.2092	811.523	81.9523	811.523	83.4692	811.523	80.554	811.523	82.0853	811.523	80.6725	811.523	81.7377	811.523	81.0522	811.523	82.1353	811.523	80.5875	811.523	81.7909	811.523	77.9578	811.523	78.9627	811.523	70.3357	811.523	71.6515	811.523	67.9622	811.523	68.2262	811.523	75.2037	811.523	72.959	811.523	76.8525	811.523	73.7189	811.523	74.502	811.523	71.8813	811.523	67.9101	811.523	68.3218	811.523	66.3573	811.523	68.1424	811.523	68.9393
840.82	89.0936	840.82	88.9639	840.82	88.8036	840.82	88.2004	840.82	88.2644	840.82	86.8821	840.82	87.2566	840.82	85.2555	840.82	85.4907	840.82	83.5385	840.82	83.3536	840.82	81.857	840.82	81.6855	840.82	80.412	840.82	80.5425	840.82	79.0198	840.82	79.3728	840.82	76.3232	840.82	77.743	840.82	71.0822	840.82	75.5499	840.82	70.8861	840.82	73.3253	840.82	75.7894	840.82	73.0351	840.82	77.2231	840.82	73.7088	840.82	75.127	840.82	73.3987	840.82	69.4417	840.82	72.224	840.82	45.0429	840.82	66.2738	840.82	68.4098	840.82	62.5421	840.82	70.7986
870.117	89.9704	870.117	89.4314	870.117	89.9063	870.117	88.4907	870.117	89.3372	870.117	87.4111	870.117	88.5651	870.117	86.1659	870.117	87.5808	870.117	84.6237	870.117	85.9035	870.117	82.8453	870.117	83.3382	870.117	80.9517	870.117	81.1191	870.117	79.504	870.117	80.6142	870.117	79.1974	870.117	80.0376	870.117	78.6558	870.117	77.5024	870.117	75.6788	870.117	74.4111	870.117	70.7679	870.117	74.609	870.117	69.1085	870.117	75.1969	870.117	68.6158	870.117	74.233	870.117	63.5602	870.117	70.9791	870.117	60.2743	870.117	68.5961	870.117	71.8389	870.117	73.0056	870.117	74.8144
900.879	90.297	900.879	90.2802	900.879	90.1157	900.879	89.9531	900.879	89.6341	900.879	89.209	900.879	88.4993	900.879	87.9351	900.879	86.5819	900.879	86.1198	900.879	84.5275	900.879	84.021	900.879	82.9987	900.879	81.9883	900.879	81.458	900.879	80.452	900.879	79.3815	900.879	78.7255	900.879	76.8211	900.879	74.6488	900.879	74.3671	900.879	68.0693	900.879	75.0827	900.879	73.105	900.879	77.2739	900.879	77.5766	900.879	77.4522	900.879	76.3416	900.879	75.0542	900.879	65.224	900.879	68.7285	900.879	69.9428	900.879	65.429	900.879	77.0831	900.879	76.3737	900.879	78.9673
933.105	90.7754	933.105	90.1343	933.105	90.7878	933.105	89.1736	933.105	89.953	933.105	88.0738	933.105	88.5144	933.105	86.8105	933.105	87.1958	933.105	85.3957	933.105	86.0587	933.105	83.8589	933.105	84.1272	933.105	81.9349	933.105	81.5649	933.105	79.9748	933.105	80.8202	933.105	78.737	933.105	81.044	933.105	77.3579	933.105	79.4641	933.105	76.6616	933.105	74.2208	933.105	77.4034	933.105	69.3493	933.105	75.4836	933.105	72.9117	933.105	74.7428	933.105	74.1687	933.105	74.9704	933.105	71.9537	933.105	73.3886	933.105	71.1916	933.105	74.5753	933.105	74.2602	933.105	75.7629
965.332	90.3307	965.332	90.2417	965.332	89.8168	965.332	89.867	965.332	88.9925	965.332	89.2811	965.332	87.9562	965.332	88.1041	965.332	86.188	965.332	86.2801	965.332	84.1872	965.332	84.2311	965.332	82.8016	965.332	82.4456	965.332	80.9407	965.332	81.6167	965.332	78.229	965.332	81.2755	965.332	76.9958	965.332	79.7458	965.332	77.3039	965.332	75.7727	965.332	75.3045	965.332	74.7659	965.332	70.3057	965.332	75.5963	965.332	72.7905	965.332	75.0294	965.332	72.4727	965.332	74.4831	965.332	72.7199	965.332	72.5403	965.332	73.2522	965.332	70.6795	965.332	69.99	965.332	69.4064
1,000.49	90.6709	1,000.49	91.011	1,000.49	90.5472	1,000.49	90.6785	1,000.49	90.1124	1,000.49	89.0943	1,000.49	88.7241	1,000.49	87.0986	1,000.49	86.8005	1,000.49	85.9645	1,000.49	85.0815	1,000.49	85.1687	1,000.49	83.3844	1,000.49	83.3954	1,000.49	81.3503	1,000.49	81.2892	1,000.49	80.1252	1,000.49	81.2125	1,000.49	79.7991	1,000.49	80.6341	1,000.49	77.4258	1,000.49	76.2784	1,000.49	72.1385	1,000.49	71.6001	1,000.49	71.743	1,000.49	74.8009	1,000.49	76.2408	1,000.49	74.6367	1,000.49	75.7421	1,000.49	66.9413	1,000.49	66.3135	1,000.49	70.7115	1,000.49	71.687	1,000.49	77.0925	1,000.49	77.8583	1,000.49	79.2768
1,035.64	91.4543	1,035.64	91.2586	1,035.64	90.873	1,035.64	90.2324	1,035.64	89.6298	1,035.64	88.6043	1,035.64	88.1473	1,035.64	87.3388	1,035.64	87.1263	1,035.64	86.0083	1,035.64	85.9662	1,035.64	83.4234	1,035.64	83.6314	1,035.64	80.8735	1,035.64	81.1714	1,035.64	79.8139	1,035.64	80.1403	1,035.64	79.4056	1,035.64	78.7113	1,035.64	79.2192	1,035.64	77.754	1,035.64	78.6586	1,035.64	77.2988	1,035.64	75.9025	1,035.64	73.581	1,035.64	74.8488	1,035.64	73.18	1,035.64	76.3019	1,035.64	74.5242	1,035.64	73.46	1,035.64	74.1312	1,035.64	67.9818	1,035.64	71.2614	1,035.64	68.1826	1,035.64	59.9301	1,035.64	69.0444
1,072.27	90.9872	1,072.27	90.4189	1,072.27	90.6389	1,072.27	89.4611	1,072.27	89.6524	1,072.27	88.4945	1,072.27	88.5665	1,072.27	86.8638	1,072.27	87.2315	1,072.27	84.8175	1,072.27	85.1531	1,072.27	83.6708	1,072.27	83.1537	1,072.27	82.9609	1,072.27	82.1255	1,072.27	81.4607	1,072.27	80.3338	1,072.27	79.0578	1,072.27	79.0205	1,072.27	80.3175	1,072.27	79.2919	1,072.27	81.9311	1,072.27	77.6217	1,072.27	78.0827	1,072.27	74.5838	1,072.27	77.6172	1,072.27	75.5922	1,072.27	78.8764	1,072.27	77.2326	1,072.27	76.6568	1,072.27	74.4834	1,072.27	67.7268	1,072.27	65.4228	1,072.27	71.501	1,072.27	71.6882	1,072.27	71.8909
1,108.89	89.7253	1,108.89	89.7007	1,108.89	89.7777	1,108.89	89.8513	1,108.89	88.7597	1,108.89	88.5213	1,108.89	87.1322	1,108.89	85.6298	1,108.89	85.719	1,108.89	83.5562	1,108.89	83.7815	1,108.89	82.844	1,108.89	81.8032	1,108.89	81.4888	1,108.89	80.5294	1,108.89	79.2917	1,108.89	78.6754	1,108.89	78.8598	1,108.89	77.2688	1,108.89	78.1812	1,108.89	77.136	1,108.89	72.5099	1,108.89	78.8357	1,108.89	69.4395	1,108.89	78.9337	1,108.89	71.2192	1,108.89	73.8551	1,108.89	74.7422	1,108.89	72.7842	1,108.89	72.3805	1,108.89	75.9985	1,108.89	66.1616	1,108.89	76.0006	1,108.89	73.5654	1,108.89	74.1879	1,108.89	75.7662
1,148.44	89.7643	1,148.44	89.7818	1,148.44	89.3432	1,148.44	88.7511	1,148.44	88.2314	1,148.44	86.9085	1,148.44	86.9873	1,148.44	85.6745	1,148.44	86.3503	1,148.44	84.8745	1,148.44	84.7815	1,148.44	83.1783	1,148.44	82.5945	1,148.44	81.0655	1,148.44	81.0822	1,148.44	80.9603	1,148.44	79.3144	1,148.44	78.7812	1,148.44	76.3989	1,148.44	75.4695	1,148.44	73.3635	1,148.44	76.8757	1,148.44	74.8275	1,148.44	75.3878	1,148.44	75.9505	1,148.44	67.8741	1,148.44	70.2906	1,148.44	72.3348	1,148.44	72.6161	1,148.44	69.883	1,148.44	74.7984	1,148.44	68.8066	1,148.44	72.2877	1,148.44	71.6149	1,148.44	69.0189	1,148.44	70.4682
1,189.45	90.1436	1,189.45	89.6712	1,189.45	89.806	1,189.45	88.7309	1,189.45	88.498	1,189.45	87.5161	1,189.45	86.694	1,189.45	85.7211	1,189.45	85.1642	1,189.45	82.0457	1,189.45	83.3368	1,189.45	78.2242	1,189.45	81.6455	1,189.45	78.4169	1,189.45	80.0536	1,189.45	77.6739	1,189.45	78.0588	1,189.45	76.4689	1,189.45	78.4882	1,189.45	72.9348	1,189.45	76.8484	1,189.45	76.6988	1,189.45	72.9181	1,189.45	76.796	1,189.45	74.1079	1,189.45	71.3872	1,189.45	69.6866	1,189.45	73.9136	1,189.45	64.5961	1,189.45	71.8341	1,189.45	67.4636	1,189.45	69.6671	1,189.45	65.8501	1,189.45	74.05	1,189.45	69.8441	1,189.45	75.8565
1,230.47	89.5955	1,230.47	89.1504	1,230.47	89.1548	1,230.47	88.061	1,230.47	88.4007	1,230.47	86.444	1,230.47	85.9685	1,230.47	84.1057	1,230.47	82.1802	1,230.47	82.2443	1,230.47	80.9811	1,230.47	81.5002	1,230.47	82.0055	1,230.47	81.6408	1,230.47	82.1114	1,230.47	79.9531	1,230.47	79.6203	1,230.47	78.1673	1,230.47	74.1526	1,230.47	78.6321	1,230.47	77.1868	1,230.47	75.8681	1,230.47	79.497	1,230.47	74.3817	1,230.47	77.4076	1,230.47	72.1586	1,230.47	75.4444	1,230.47	70.493	1,230.47	73.4038	1,230.47	72.5374	1,230.47	76.0911	1,230.47	69.9558	1,230.47	71.1154	1,230.47	76.7736	1,230.47	77.729	1,230.47	77.9158
1,274.41	89.0937	1,274.41	89.1109	1,274.41	88.8576	1,274.41	88.3009	1,274.41	88.1088	1,274.41	85.1336	1,274.41	86.2784	1,274.41	82.7811	1,274.41	83.3031	1,274.41	82.1005	1,274.41	82.2761	1,274.41	81.4586	1,274.41	80.6987	1,274.41	81.9718	1,274.41	78.5351	1,274.41	80.5528	1,274.41	76.9732	1,274.41	77.6278	1,274.41	74.575	1,274.41	75.3576	1,274.41	68.9057	1,274.41	75.4543	1,274.41	74.9944	1,274.41	74.592	1,274.41	73.195	1,274.41	73.2447	1,274.41	71.3074	1,274.41	72.1156	1,274.41	75.9346	1,274.41	69.7996	1,274.41	71.1439	1,274.41	61.7781	1,274.41	62.2992	1,274.41	65.6897	1,274.41	72.2555	1,274.41	73.9641
1,319.82	90.6724	1,319.82	89.9325	1,319.82	89.7811	1,319.82	88.757	1,319.82	87.5075	1,319.82	88.1625	1,319.82	85.8965	1,319.82	85.7399	1,319.82	86.7579	1,319.82	83.341	1,319.82	84.9287	1,319.82	83.0311	1,319.82	80.5139	1,319.82	80.4529	1,319.82	79.7065	1,319.82	80.7001	1,319.82	78.2417	1,319.82	81.9313	1,319.82	80.487	1,319.82	76.3991	1,319.82	78.6306	1,319.82	74.5718	1,319.82	76.9898	1,319.82	69.5905	1,319.82	77.3073	1,319.82	65.8364	1,319.82	78.3947	1,319.82	74.0835	1,319.82	69.3898	1,319.82	68.2406	1,319.82	71.9613	1,319.82	72.929	1,319.82	73.9259	1,319.82	77.3214	1,319.82	72.8426	1,319.82	77.6167
1,366.7	91.073	1,366.7	91.1137	1,366.7	91.5303	1,366.7	90.4156	1,366.7	89.6024	1,366.7	87.925	1,366.7	86.8384	1,366.7	86.3691	1,366.7	86.1051	1,366.7	85.2633	1,366.7	84.5198	1,366.7	83.135	1,366.7	84.4216	1,366.7	83.0056	1,366.7	83.644	1,366.7	81.8048	1,366.7	82.3695	1,366.7	78.3139	1,366.7	80.1259	1,366.7	76.9461	1,366.7	75.8714	1,366.7	78.5257	1,366.7	76.5596	1,366.7	77.658	1,366.7	78.2842	1,366.7	73.027	1,366.7	71.3382	1,366.7	69.6674	1,366.7	72.2002	1,366.7	72.1134	1,366.7	76.0716	1,366.7	73.3114	1,366.7	59.33	1,366.7	71.6568	1,366.7	75.6779	1,366.7	77.3473
1,413.57	92.688	1,413.57	91.9821	1,413.57	91.3103	1,413.57	90.0495	1,413.57	90.0142	1,413.57	88.9684	1,413.57	88.5439	1,413.57	86.9403	1,413.57	87.5501	1,413.57	86.4333	1,413.57	84.9463	1,413.57	86.4226	1,413.57	83.6055	1,413.57	83.7555	1,413.57	82.1833	1,413.57	80.6668	1,413.57	82.7601	1,413.57	78.1338	1,413.57	82.8703	1,413.57	78.3676	1,413.57	82.1009	1,413.57	77.5605	1,413.57	79.5735	1,413.57	80.0996	1,413.57	78.9502	1,413.57	75.0374	1,413.57	76.9627	1,413.57	69.3578	1,413.57	79.5067	1,413.57	76.5192	1,413.57	77.7386	1,413.57	73.3608	1,413.57	79.5312	1,413.57	56.8388	1,413.57	73.6956	1,413.57	67.7697
1,463.38	92.6153	1,463.38	92.6987	1,463.38	93.4524	1,463.38	91.3111	1,463.38	91.289	1,463.38	89.0819	1,463.38	88.4069	1,463.38	88.5627	1,463.38	87.1764	1,463.38	87.9549	1,463.38	87.0506	1,463.38	87.8664	1,463.38	85.5622	1,463.38	85.4112	1,463.38	82.6522	1,463.38	84.4585	1,463.38	81.7627	1,463.38	83.7061	1,463.38	79.4351	1,463.38	79.5686	1,463.38	77.3767	1,463.38	77.5271	1,463.38	69.4513	1,463.38	76.4483	1,463.38	77.1854	1,463.38	65.1423	1,463.38	75.8271	1,463.38	69.7428	1,463.38	69.9156	1,463.38	80.8792	1,463.38	76.548	1,463.38	80.7737	1,463.38	76.2406	1,463.38	70.5818	1,463.38	70.8138	1,463.38	76.4466
1,516.11	92.8035	1,516.11	91.9993	1,516.11	91.6319	1,516.11	91.4341	1,516.11	91.0034	1,516.11	90.2885	1,516.11	90.0296	1,516.11	88.4573	1,516.11	88.6079	1,516.11	87.5059	1,516.11	86.8481	1,516.11	86.7712	1,516.11	86.4583	1,516.11	85.3629	1,516.11	85.8801	1,516.11	81.1468	1,516.11	82.4175	1,516.11	79.3079	1,516.11	81.2181	1,516.11	77.9728	1,516.11	81.1025	1,516.11	78.6627	1,516.11	76.1096	1,516.11	76.1682	1,516.11	78.8214	1,516.11	78.859	1,516.11	77.1219	1,516.11	67.3268	1,516.11	68.1819	1,516.11	74.3592	1,516.11	81.3656	1,516.11	82.479	1,516.11	81.2971	1,516.11	75.55	1,516.11	76.9855	1,516.11	67.0155
1,568.85	92.8033	1,568.85	92.599	1,568.85	92.614	1,568.85	91.4	1,568.85	91.0735	1,568.85	90.6503	1,568.85	89.8125	1,568.85	88.6772	1,568.85	88.5254	1,568.85	87.6986	1,568.85	87.5673	1,568.85	86.3464	1,568.85	86.5645	1,568.85	84.81	1,568.85	84.3823	1,568.85	83.9892	1,568.85	82.68	1,568.85	82.1867	1,568.85	81.4688	1,568.85	79.4553	1,568.85	77.797	1,568.85	76.5876	1,568.85	78.8432	1,568.85	79.8161	1,568.85	76.3528	1,568.85	71.2792	1,568.85	77.8567	1,568.85	75.4801	1,568.85	79.0016	1,568.85	79.3817	1,568.85	76.8171	1,568.85	76.4938	1,568.85	78.2232	1,568.85	77.9622	1,568.85	78.2132	1,568.85	75.7044
1,624.51	91.6261	1,624.51	91.0427	1,624.51	90.8526	1,624.51	90.2245	1,624.51	90.6669	1,624.51	88.7195	1,624.51	89.153	1,624.51	88.3106	1,624.51	88.3396	1,624.51	88.048	1,624.51	87.6964	1,624.51	85.9615	1,624.51	85.1788	1,624.51	84.2214	1,624.51	84.7034	1,624.51	82.2634	1,624.51	82.2872	1,624.51	81.2065	1,624.51	80.6275	1,624.51	78.1107	1,624.51	79.2837	1,624.51	78.7316	1,624.51	76.8271	1,624.51	74.493	1,624.51	75.1287	1,624.51	72.978	1,624.51	76.2489	1,624.51	71.6997	1,624.51	65.1669	1,624.51	75.0777	1,624.51	78.9839	1,624.51	81.4751	1,624.51	78.8388	1,624.51	78.874	1,624.51	77.0405	1,624.51	76.6352
1,681.64	90.7009	1,681.64	90.1839	1,681.64	90.3265	1,681.64	89.0234	1,681.64	88.8459	1,681.64	88.6304	1,681.64	88.4139	1,681.64	88.418	1,681.64	88.1814	1,681.64	86.0818	1,681.64	86.2155	1,681.64	84.6923	1,681.64	85.1151	1,681.64	84.1983	1,681.64	84.4573	1,681.64	82.1585	1,681.64	81.0159	1,681.64	78.0569	1,681.64	78.1279	1,681.64	78.0822	1,681.64	78.2081	1,681.64	77.9805	1,681.64	74.2179	1,681.64	75.1445	1,681.64	75.5386	1,681.64	75.0581	1,681.64	71.3709	1,681.64	73.1334	1,681.64	75.3296	1,681.64	74.6759	1,681.64	68.7588	1,681.64	77.0117	1,681.64	77.402	1,681.64	78.2245	1,681.64	79.4085	1,681.64	79.0906
1,741.7	90.2255	1,741.7	90.1147	1,741.7	90.1602	1,741.7	89.5836	1,741.7	89.7597	1,741.7	89.033	1,741.7	89.319	1,741.7	87.153	1,741.7	87.7626	1,741.7	87.0598	1,741.7	87.7713	1,741.7	85.4134	1,741.7	85.6848	1,741.7	82.7213	1,741.7	82.98	1,741.7	79.8331	1,741.7	81.7398	1,741.7	78.2747	1,741.7	79.8766	1,741.7	76.5239	1,741.7	77.3531	1,741.7	74.0272	1,741.7	77.2982	1,741.7	76.1725	1,741.7	74.1302	1,741.7	74.2122	1,741.7	70.9782	1,741.7	68.4093	1,741.7	64.4504	1,741.7	72.8224	1,741.7	74.3616	1,741.7	79.2748	1,741.7	76.5574	1,741.7	78.6013	1,741.7	76.5063	1,741.7	78.0739
1,803.22	90.3334	1,803.22	89.9742	1,803.22	90.239	1,803.22	90.2718	1,803.22	89.8697	1,803.22	89.6977	1,803.22	89.5516	1,803.22	89.8735	1,803.22	89.215	1,803.22	88.19	1,803.22	87.7707	1,803.22	85.9242	1,803.22	85.8359	1,803.22	84.1972	1,803.22	84.8887	1,803.22	83.1706	1,803.22	81.6624	1,803.22	79.5129	1,803.22	78.9185	1,803.22	75.7128	1,803.22	75.2552	1,803.22	77.9212	1,803.22	76.7968	1,803.22	72.8199	1,803.22	76.4538	1,803.22	75.8055	1,803.22	69.1211	1,803.22	67.739	1,803.22	72.4422	1,803.22	68.8947	1,803.22	69.8941	1,803.22	71.1894	1,803.22	75.0306	1,803.22	76.8442	1,803.22	79.3485	1,803.22	83.2963
1,866.21	90.3696	1,866.21	90.4462	1,866.21	89.6394	1,866.21	89.2782	1,866.21	89.4561	1,866.21	89.6414	1,866.21	89.617	1,866.21	87.9191	1,866.21	88.4654	1,866.21	86.9425	1,866.21	86.6115	1,866.21	86.269	1,866.21	85.1349	1,866.21	83.1062	1,866.21	81.6886	1,866.21	79.05	1,866.21	81.0031	1,866.21	79.5165	1,866.21	79.7308	1,866.21	76.4667	1,866.21	75.3579	1,866.21	76.3732	1,866.21	76.1817	1,866.21	73.3051	1,866.21	70.018	1,866.21	73.0776	1,866.21	71.6441	1,866.21	73.051	1,866.21	59.919	1,866.21	67.0079	1,866.21	61.5075	1,866.21	77.4387	1,866.21	77.6294	1,866.21	75.12	1,866.21	73.8862	1,866.21	80.4592
1,932.13	88.1251	1,932.13	87.7469	1,932.13	88.3266	1,932.13	88.5874	1,932.13	88.8397	1,932.13	87.8235	1,932.13	88.3442	1,932.13	88.3119	1,932.13	87.6443	1,932.13	86.7524	1,932.13	86.7065	1,932.13	83.4917	1,932.13	83.7229	1,932.13	81.4359	1,932.13	81.6661	1,932.13	81.7738	1,932.13	80.4042	1,932.13	75.618	1,932.13	74.8978	1,932.13	75.3078	1,932.13	74.8631	1,932.13	73.294	1,932.13	67.063	1,932.13	74.3288	1,932.13	73.6912	1,932.13	69.3228	1,932.13	61.8973	1,932.13	65.3234	1,932.13	58.0776	1,932.13	69.8702	1,932.13	70.4701	1,932.13	68.7983	1,932.13	73.2694	1,932.13	74.2626	1,932.13	75.2171	1,932.13	80.8648
1,999.51	88.2426	1,999.51	88.8162	1,999.51	88.9082	1,999.51	88.4384	1,999.51	88.4701	1,999.51	88.6231	1,999.51	88.4572	1,999.51	86.8237	1,999.51	87.9646	1,999.51	84.9355	1,999.51	85.1733	1,999.51	83.5635	1,999.51	82.7805	1,999.51	82.7697	1,999.51	81.1655	1,999.51	76.9072	1,999.51	78.6745	1,999.51	77.6649	1,999.51	77.4537	1,999.51	73.5553	1,999.51	72.2637	1,999.51	74.0006	1,999.51	75.2242	1,999.51	67.7667	1,999.51	68.5791	1,999.51	65.1459	1,999.51	69.338	1,999.51	59.2514	1,999.51	61.635	1,999.51	49.2645	1,999.51	68.8227	1,999.51	64.1901	1,999.51	63.1323	1,999.51	69.6372	1,999.51	66.9691	1,999.51	71.7063
2,069.82	88.2074	2,069.82	88.382	2,069.82	88.3393	2,069.82	88.9083	2,069.82	88.9819	2,069.82	88.4733	2,069.82	88.6242	2,069.82	87.5494	2,069.82	87.1858	2,069.82	86.3846	2,069.82	86.4389	2,069.82	84.8697	2,069.82	84.7223	2,069.82	79.4779	2,069.82	80.9297	2,069.82	78.9113	2,069.82	79.5904	2,069.82	73.8851	2,069.82	75.5048	2,069.82	73.5918	2,069.82	74.1196	2,069.82	72.6601	2,069.82	72.0462	2,069.82	73.0932	2,069.82	71.9945	2,069.82	72.3429	2,069.82	63.5612	2,069.82	69.0824	2,069.82	69.9013	2,069.82	63.5907	2,069.82	61.2733	2,069.82	71.3745	2,069.82	70.5285	2,069.82	70.6481	2,069.82	69.1829	2,069.82	74.6674
2,143.07	89.3445	2,143.07	89.2064	2,143.07	89.2012	2,143.07	90.1146	2,143.07	89.697	2,143.07	89.9135	2,143.07	89.5835	2,143.07	88.4935	2,143.07	88.6719	2,143.07	86.2609	2,143.07	85.2529	2,143.07	83.3534	2,143.07	83.026	2,143.07	82.9699	2,143.07	81.6676	2,143.07	80.3498	2,143.07	78.2065	2,143.07	79.3587	2,143.07	78.9057	2,143.07	73.2726	2,143.07	75.138	2,143.07	70.1077	2,143.07	61.0654	2,143.07	66.7338	2,143.07	67.0706	2,143.07	64.0706	2,143.07	69.5627	2,143.07	71.2544	2,143.07	65.8523	2,143.07	73.5685	2,143.07	65.9347	2,143.07	67.4862	2,143.07	60.5407	2,143.07	68.6081	2,143.07	67.5928	2,143.07	75.9284
2,219.24	88.566	2,219.24	89.8752	2,219.24	89.6082	2,219.24	88.9646	2,219.24	89.2885	2,219.24	88.6265	2,219.24	88.324	2,219.24	87.8405	2,219.24	87.4774	2,219.24	85.5848	2,219.24	86.6853	2,219.24	84.6489	2,219.24	83.3176	2,219.24	81.6919	2,219.24	81.1304	2,219.24	76.9369	2,219.24	79.7458	2,219.24	73.9128	2,219.24	74.252	2,219.24	74.2593	2,219.24	73.6382	2,219.24	75.3725	2,219.24	74.6611	2,219.24	73.8869	2,219.24	65.8018	2,219.24	67.5038	2,219.24	71.684	2,219.24	55.1235	2,219.24	64.781	2,219.24	64.8012	2,219.24	65.3471	2,219.24	67.1242	2,219.24	60.8889	2,219.24	72.4179	2,219.24	66.6305	2,219.24	71.0039
2,296.88	88.1226	2,296.88	87.752	2,296.88	88.571	2,296.88	89.8794	2,296.88	89.7187	2,296.88	88.9629	2,296.88	89.4077	2,296.88	86.7233	2,296.88	87.2673	2,296.88	84.5127	2,296.88	83.5244	2,296.88	82.139	2,296.88	81.5507	2,296.88	80.3277	2,296.88	79.8186	2,296.88	79.1861	2,296.88	78.8475	2,296.88	77.0594	2,296.88	75.7892	2,296.88	71.0819	2,296.88	70.3701	2,296.88	71.1013	2,296.88	73.6787	2,296.88	71.3109	2,296.88	72.866	2,296.88	69.4383	2,296.88	66.3954	2,296.88	62.1922	2,296.88	70.5261	2,296.88	63.528	2,296.88	64.9134	2,296.88	70.7466	2,296.88	70.1276	2,296.88	72.1072	2,296.88	71.7489	2,296.88	78.297
2,378.91	89.8277	2,378.91	90.4984	2,378.91	89.9124	2,378.91	90.2358	2,378.91	89.8716	2,378.91	89.0407	2,378.91	89.4557	2,378.91	88.2883	2,378.91	87.9836	2,378.91	86.0553	2,378.91	87.1066	2,378.91	83.6068	2,378.91	84.6176	2,378.91	82.9371	2,378.91	83.9681	2,378.91	78.8885	2,378.91	78.7698	2,378.91	76.1614	2,378.91	77.2975	2,378.91	76.0345	2,378.91	75.7925	2,378.91	72.8947	2,378.91	67.8007	2,378.91	65.7721	2,378.91	66.0309	2,378.91	71.7877	2,378.91	64.7583	2,378.91	69.7664	2,378.91	65.1295	2,378.91	67.4313	2,378.91	59.9095	2,378.91	51.687	2,378.91	64.4192	2,378.91	69.5062	2,378.91	66.3263	2,378.91	78.2963
2,462.4	88.8195	2,462.4	90.1679	2,462.4	90.3318	2,462.4	90.4447	2,462.4	90.6432	2,462.4	90.7123	2,462.4	90.0698	2,462.4	88.0629	2,462.4	88.69	2,462.4	86.0146	2,462.4	85.8671	2,462.4	85.4111	2,462.4	83.7489	2,462.4	81.5437	2,462.4	80.7442	2,462.4	77.3756	2,462.4	81.7383	2,462.4	76.5511	2,462.4	75.7688	2,462.4	72.6797	2,462.4	71.1214	2,462.4	70.0114	2,462.4	69.8049	2,462.4	75.0247	2,462.4	67.9889	2,462.4	65.1359	2,462.4	70.8765	2,462.4	68.1733	2,462.4	52.881	2,462.4	64.5395	2,462.4	64.6661	2,462.4	57.9989	2,462.4	64.7813	2,462.4	69.6421	2,462.4	62.3239	2,462.4	78.6346
2,548.83	89.8689	2,548.83	89.8167	2,548.83	90.16	2,548.83	90.869	2,548.83	90.9469	2,548.83	89.251	2,548.83	89.7298	2,548.83	87.8608	2,548.83	88.0754	2,548.83	85.7946	2,548.83	85.7145	2,548.83	82.4563	2,548.83	84.2592	2,548.83	84.183	2,548.83	82.2815	2,548.83	83.0199	2,548.83	78.4541	2,548.83	77.7388	2,548.83	75.9336	2,548.83	72.8312	2,548.83	70.6383	2,548.83	71.9981	2,548.83	69.0406	2,548.83	71.1338	2,548.83	70.1392	2,548.83	55.6997	2,548.83	70.0606	2,548.83	61.8025	2,548.83	70.0708	2,548.83	67.4416	2,548.83	64.9671	2,548.83	63.5108	2,548.83	68.3137	2,548.83	64.1005	2,548.83	63.1812	2,548.83	81.0307
2,639.65	90.1965	2,639.65	89.9095	2,639.65	89.7722	2,639.65	90.9458	2,639.65	90.2867	2,639.65	89.7714	2,639.65	90.1697	2,639.65	88.5083	2,639.65	87.4919	2,639.65	85.7148	2,639.65	86.1652	2,639.65	86.3135	2,639.65	84.8837	2,639.65	83.4923	2,639.65	83.8772	2,639.65	77.0076	2,639.65	80.8213	2,639.65	73.9341	2,639.65	75.102	2,639.65	74.7958	2,639.65	75.4962	2,639.65	68.8183	2,639.65	68.6507	2,639.65	67.4048	2,639.65	62.3963	2,639.65	69.0553	2,639.65	63.5238	2,639.65	62.0984	2,639.65	56.4986	2,639.65	68.4982	2,639.65	56.7185	2,639.65	62.2315	2,639.65	70.6923	2,639.65	59.5735	2,639.65	53.1662	2,639.65	79.7653
2,731.93	89.6638	2,731.93	91.3733	2,731.93	91.0016	2,731.93	91.2664	2,731.93	90.9511	2,731.93	90.3154	2,731.93	89.2639	2,731.93	88.5375	2,731.93	89.2206	2,731.93	87.3614	2,731.93	86.394	2,731.93	84.6788	2,731.93	84.1329	2,731.93	82.0002	2,731.93	82.266	2,731.93	79.8276	2,731.93	82.2434	2,731.93	79.062	2,731.93	79.6399	2,731.93	73.8856	2,731.93	75.0158	2,731.93	70.4053	2,731.93	74.0925	2,731.93	70.8817	2,731.93	68.8056	2,731.93	69.5641	2,731.93	66.9853	2,731.93	61.6628	2,731.93	61.0268	2,731.93	64.3331	2,731.93	58.4998	2,731.93	56.0115	2,731.93	68.2361	2,731.93	68.5526	2,731.93	56.6302	2,731.93	79.5648
2,828.61	90.4104	2,828.61	91.0247	2,828.61	90.7319	2,828.61	91.571	2,828.61	91.7767	2,828.61	91.0117	2,828.61	90.8056	2,828.61	89.0145	2,828.61	87.744	2,828.61	87.9087	2,828.61	87.5175	2,828.61	85.4646	2,828.61	85.9101	2,828.61	83.6362	2,828.61	85.0654	2,828.61	83.2048	2,828.61	78.6963	2,828.61	79.2685	2,828.61	73.4848	2,828.61	74.1486	2,828.61	75.3811	2,828.61	72.344	2,828.61	73.9528	2,828.61	66.5647	2,828.61	65.32	2,828.61	64.4973	2,828.61	71.2539	2,828.61	56.5784	2,828.61	67.6617	2,828.61	59.9318	2,828.61	53.6953	2,828.61	62.9982	2,828.61	67.6854	2,828.61	70.0151	2,828.61	46.4119	2,828.61	78.3367
2,928.22	89.9854	2,928.22	91.032	2,928.22	91.3863	2,928.22	90.7652	2,928.22	90.0846	2,928.22	90.3796	2,928.22	89.8957	2,928.22	89.5138	2,928.22	89.6454	2,928.22	86.8923	2,928.22	86.7488	2,928.22	86.3199	2,928.22	85.7317	2,928.22	85.2388	2,928.22	82.1009	2,928.22	77.8878	2,928.22	80.743	2,928.22	74.8703	2,928.22	72.391	2,928.22	72.5537	2,928.22	70.8674	2,928.22	73.0138	2,928.22	72.2244	2,928.22	75.1294	2,928.22	68.1055	2,928.22	70.1221	2,928.22	71.7643	2,928.22	60.5357	2,928.22	61.4158	2,928.22	67.2076	2,928.22	67.2974	2,928.22	61.5749	2,928.22	65.924	2,928.22	72.4618	2,928.22	62.7413	2,928.22	78.9715
3,030.76	90.671	3,030.76	91.1935	3,030.76	91.3819	3,030.76	92.5	3,030.76	92.0383	3,030.76	89.6649	3,030.76	90.754	3,030.76	88.8504	3,030.76	88.3594	3,030.76	87.8668	3,030.76	87.5122	3,030.76	84.7989	3,030.76	84.8087	3,030.76	82.723	3,030.76	81.4217	3,030.76	75.4041	3,030.76	77.728	3,030.76	73.1283	3,030.76	75.5477	3,030.76	67.4834	3,030.76	75.1768	3,030.76	68.9084	3,030.76	67.9722	3,030.76	72.3855	3,030.76	61.9746	3,030.76	68.7848	3,030.76	69.8828	3,030.76	65.4411	3,030.76	62.5853	3,030.76	64.1486	3,030.76	65.8561	3,030.76	62.7741	3,030.76	60.8135	3,030.76	73.7299	3,030.76	62.2034	3,030.76	80.6821
3,137.7	89.5923	3,137.7	90.633	3,137.7	91.091	3,137.7	91.2779	3,137.7	90.9168	3,137.7	91.1994	3,137.7	90.2815	3,137.7	89.1274	3,137.7	88.978	3,137.7	88.2585	3,137.7	87.9511	3,137.7	85.4202	3,137.7	83.8569	3,137.7	81.7691	3,137.7	81.0257	3,137.7	79.0466	3,137.7	81.7207	3,137.7	75.2165	3,137.7	76.6783	3,137.7	69.0908	3,137.7	74.4808	3,137.7	65.7897	3,137.7	71.5464	3,137.7	75.9242	3,137.7	62.216	3,137.7	67.0332	3,137.7	69.148	3,137.7	64.8399	3,137.7	63.767	3,137.7	68.5357	3,137.7	62.8035	3,137.7	55.6995	3,137.7	59.0428	3,137.7	73.7482	3,137.7	54.7659	3,137.7	80.9662
3,249.02	91.1842	3,249.02	91.7638	3,249.02	91.9431	3,249.02	91.8634	3,249.02	91.3216	3,249.02	90.1612	3,249.02	90.7749	3,249.02	90.7502	3,249.02	89.9889	3,249.02	87.4518	3,249.02	88.3279	3,249.02	85.4781	3,249.02	85.5594	3,249.02	82.3235	3,249.02	84.2314	3,249.02	82.1715	3,249.02	79.7685	3,249.02	78.3188	3,249.02	75.4786	3,249.02	76.8584	3,249.02	76.1438	3,249.02	63.0308	3,249.02	72.6993	3,249.02	73.2411	3,249.02	65.9894	3,249.02	67.3672	3,249.02	63.2914	3,249.02	61.8603	3,249.02	72.3249	3,249.02	57.6083	3,249.02	65.7235	3,249.02	54.7829	3,249.02	64.8926	3,249.02	72.438	3,249.02	57.0976	3,249.02	79.305
3,363.28	90.0626	3,363.28	91.0966	3,363.28	91.3753	3,363.28	91.1875	3,363.28	91.35	3,363.28	90.6069	3,363.28	89.5884	3,363.28	89.467	3,363.28	90.7479	3,363.28	89.5467	3,363.28	87.4543	3,363.28	85.2144	3,363.28	85.8747	3,363.28	83.4012	3,363.28	82.607	3,363.28	81.4068	3,363.28	81.1795	3,363.28	77.7899	3,363.28	71.7621	3,363.28	74.645	3,363.28	74.4369	3,363.28	52.9007	3,363.28	72.7168	3,363.28	69.6682	3,363.28	58.9237	3,363.28	56.2364	3,363.28	71.4826	3,363.28	51.9769	3,363.28	69.5317	3,363.28	64.169	3,363.28	67.6335	3,363.28	59.211	3,363.28	68.7891	3,363.28	68.7489	3,363.28	63.9256	3,363.28	76.7628
3,481.93	90.7078	3,481.93	90.2789	3,481.93	90.0357	3,481.93	90.3432	3,481.93	90.2244	3,481.93	91.0422	3,481.93	91.396	3,481.93	90.6475	3,481.93	90.1475	3,481.93	88.6022	3,481.93	88.0777	3,481.93	85.1562	3,481.93	84.8835	3,481.93	83.33	3,481.93	83.9589	3,481.93	81.8787	3,481.93	79.2406	3,481.93	75.9332	3,481.93	71.9111	3,481.93	75.8285	3,481.93	68.2837	3,481.93	70.7108	3,481.93	72.0218	3,481.93	41.99	3,481.93	55.8917	3,481.93	62.9219	3,481.93	68.4076	3,481.93	59.2624	3,481.93	66.9425	3,481.93	64.3032	3,481.93	67.608	3,481.93	59.3756	3,481.93	67.2927	3,481.93	69.3439	3,481.93	65.5209	3,481.93	74.2978
3,604.98	90.6237	3,604.98	90.455	3,604.98	90.9667	3,604.98	89.9174	3,604.98	89.9445	3,604.98	91.1383	3,604.98	90.6661	3,604.98	91.2197	3,604.98	90.9408	3,604.98	88.6835	3,604.98	87.5372	3,604.98	85.7589	3,604.98	85.4414	3,604.98	82.6268	3,604.98	82.8392	3,604.98	79.779	3,604.98	79.778	3,604.98	75.4588	3,604.98	74.842	3,604.98	71.189	3,604.98	65.2447	3,604.98	68.3016	3,604.98	72.52	3,604.98	52.1756	3,604.98	61.0855	3,604.98	57.0614	3,604.98	71.1989	3,604.98	65.2196	3,604.98	68.3119	3,604.98	60.3811	3,604.98	68.5452	3,604.98	68.8893	3,604.98	65.9098	3,604.98	64.5805	3,604.98	64.5476	3,604.98	72.8384
3,732.42	90.9924	3,732.42	90.4296	3,732.42	90.1926	3,732.42	90.3589	3,732.42	90.191	3,732.42	90.4286	3,732.42	90.7808	3,732.42	90.6754	3,732.42	90.7246	3,732.42	87.4405	3,732.42	86.9904	3,732.42	84.8508	3,732.42	85.5445	3,732.42	82.4027	3,732.42	83.6799	3,732.42	80.6732	3,732.42	78.2088	3,732.42	71.9369	3,732.42	74.9156	3,732.42	74.4201	3,732.42	63.5495	3,732.42	65.9394	3,732.42	64.536	3,732.42	65.0373	3,732.42	58.1436	3,732.42	63.5931	3,732.42	73.1022	3,732.42	66.5747	3,732.42	67.1239	3,732.42	56.3992	3,732.42	68.0916	3,732.42	71.0887	3,732.42	65.0236	3,732.42	67.3894	3,732.42	63.584	3,732.42	73.645
3,864.26	91.1134	3,864.26	90.4574	3,864.26	90.5196	3,864.26	90.761	3,864.26	90.5856	3,864.26	91.4765	3,864.26	90.7332	3,864.26	90.0551	3,864.26	90.468	3,864.26	87.6295	3,864.26	87.1861	3,864.26	85.2264	3,864.26	86.2677	3,864.26	83.7175	3,864.26	83.0968	3,864.26	78.8094	3,864.26	79.6971	3,864.26	72.3242	3,864.26	76.8363	3,864.26	68.1353	3,864.26	73.0985	3,864.26	61.0266	3,864.26	61.2291	3,864.26	69.7353	3,864.26	61.2137	3,864.26	65.7704	3,864.26	71.5586	3,864.26	70.4545	3,864.26	72.3242	3,864.26	60.1915	3,864.26	66.0061	3,864.26	68.9467	3,864.26	58.3218	3,864.26	68.7751	3,864.26	60.8286	3,864.26	72.6878
4,000.49	91.3627	4,000.49	90.4062	4,000.49	89.912	4,000.49	89.9233	4,000.49	90.0897	4,000.49	91.0653	4,000.49	90.8962	4,000.49	89.3506	4,000.49	89.6513	4,000.49	87.3123	4,000.49	87.2644	4,000.49	84.8565	4,000.49	85.894	4,000.49	83.5788	4,000.49	82.0814	4,000.49	78.6756	4,000.49	78.0176	4,000.49	69.1572	4,000.49	72.0597	4,000.49	68.939	4,000.49	72.5835	4,000.49	58.5365	4,000.49	65.2643	4,000.49	41.7667	4,000.49	65.1324	4,000.49	70.9818	4,000.49	73.2088	4,000.49	69.1046	4,000.49	72.2278	4,000.49	63.4064	4,000.49	62.0204	4,000.49	63.1115	4,000.49	58.4797	4,000.49	68.8288	4,000.49	67.8951	4,000.49	70.5759
4,141.11	91.5338	4,141.11	90.2317	4,141.11	90.2951	4,141.11	89.5259	4,141.11	89.2136	4,141.11	90.5668	4,141.11	90.3854	4,141.11	88.7431	4,141.11	88.6617	4,141.11	86.6025	4,141.11	87.0872	4,141.11	84.9454	4,141.11	85.3512	4,141.11	83.0016	4,141.11	81.9207	4,141.11	78.0315	4,141.11	78.0121	4,141.11	71.9653	4,141.11	71.8108	4,141.11	70.8766	4,141.11	65.8482	4,141.11	64.943	4,141.11	63.898	4,141.11	58.1583	4,141.11	65.6117	4,141.11	68.0726	4,141.11	64.5748	4,141.11	68.598	4,141.11	69.1888	4,141.11	62.3311	4,141.11	62.5632	4,141.11	65.235	4,141.11	67.84	4,141.11	68.3976	4,141.11	68.2639	4,141.11	68.4201
4,287.6	92.0514	4,287.6	91.1643	4,287.6	91.0634	4,287.6	90.2954	4,287.6	90.7469	4,287.6	90.6046	4,287.6	90.8178	4,287.6	89.4865	4,287.6	89.1755	4,287.6	87.6461	4,287.6	87.7331	4,287.6	86.1963	4,287.6	85.6673	4,287.6	82.8116	4,287.6	82.4133	4,287.6	78.5038	4,287.6	78.3352	4,287.6	73.7763	4,287.6	73.0472	4,287.6	72.9477	4,287.6	63.6207	4,287.6	65.2742	4,287.6	65.9429	4,287.6	54.4024	4,287.6	65.4282	4,287.6	61.162	4,287.6	60.6693	4,287.6	67.5958	4,287.6	69.3863	4,287.6	66.0303	4,287.6	64.7755	4,287.6	67.0824	4,287.6	66.7724	4,287.6	69.8491	4,287.6	64.4274	4,287.6	65.8153
4,438.48	91.6225	4,438.48	90.8338	4,438.48	90.5739	4,438.48	90.0702	4,438.48	89.8354	4,438.48	89.9605	4,438.48	90.0504	4,438.48	89.52	4,438.48	89.5209	4,438.48	88.1528	4,438.48	88.113	4,438.48	84.5025	4,438.48	84.901	4,438.48	81.4311	4,438.48	81.6398	4,438.48	78.6651	4,438.48	77.5571	4,438.48	73.8101	4,438.48	74.4639	4,438.48	73.5025	4,438.48	66.1959	4,438.48	67.3825	4,438.48	73.1435	4,438.48	64.6046	4,438.48	66.9049	4,438.48	63.7915	4,438.48	71.4354	4,438.48	61.1123	4,438.48	72.2691	4,438.48	64.4424	4,438.48	66.1828	4,438.48	67.0894	4,438.48	62.8045	4,438.48	66.831	4,438.48	59.043	4,438.48	68.1149
4,595.21	91.6876	4,595.21	90.976	4,595.21	91.242	4,595.21	91.0667	4,595.21	90.9395	4,595.21	90.7664	4,595.21	90.4793	4,595.21	90.0342	4,595.21	90.2841	4,595.21	88.799	4,595.21	88.7558	4,595.21	85.5452	4,595.21	85.1098	4,595.21	81.8915	4,595.21	82.1104	4,595.21	77.837	4,595.21	80.2333	4,595.21	77.3879	4,595.21	75.7531	4,595.21	71.6903	4,595.21	66.932	4,595.21	59.2493	4,595.21	67.5738	4,595.21	65.6437	4,595.21	68.0439	4,595.21	69.0093	4,595.21	68.6466	4,595.21	67.7759	4,595.21	69.1184	4,595.21	68.9045	4,595.21	59.7445	4,595.21	68.3393	4,595.21	55.9526	4,595.21	68.997	4,595.21	60.2638	4,595.21	67.4717
4,756.35	90.8945	4,756.35	90.8661	4,756.35	90.7781	4,756.35	90.5937	4,756.35	90.5349	4,756.35	90.1691	4,756.35	89.8219	4,756.35	90.4116	4,756.35	90.591	4,756.35	88.0106	4,756.35	87.7166	4,756.35	84.8706	4,756.35	84.438	4,756.35	81.3447	4,756.35	81.0661	4,756.35	77.4697	4,756.35	80.5418	4,756.35	73.4387	4,756.35	77.5276	4,756.35	68.7639	4,756.35	72.97	4,756.35	68.1764	4,756.35	67.5943	4,756.35	54.9959	4,756.35	52.8735	4,756.35	46.0012	4,756.35	67.1413	4,756.35	70.0755	4,756.35	67.4615	4,756.35	72.2278	4,756.35	67.6747	4,756.35	64.2883	4,756.35	64.4086	4,756.35	62.3257	4,756.35	63.3031	4,756.35	59.4465
4,924.8	91.7643	4,924.8	91.5549	4,924.8	91.6379	4,924.8	91.2328	4,924.8	91.0207	4,924.8	90.899	4,924.8	90.7925	4,924.8	91.0881	4,924.8	90.8609	4,924.8	88.897	4,924.8	88.4528	4,924.8	85.6247	4,924.8	85.1954	4,924.8	82.1561	4,924.8	82.3412	4,924.8	78.4136	4,924.8	79.2787	4,924.8	74.9807	4,924.8	74.5382	4,924.8	70.4854	4,924.8	58.7019	4,924.8	63.4176	4,924.8	67.1187	4,924.8	66.3715	4,924.8	59.83	4,924.8	65.0414	4,924.8	67.8835	4,924.8	60.9058	4,924.8	71.6908	4,924.8	62.607	4,924.8	55.8237	4,924.8	54.5217	4,924.8	48.8672	4,924.8	51.9698	4,924.8	63.184	4,924.8	54.2607
5,097.66	90.9114	5,097.66	91.1363	5,097.66	91.4303	5,097.66	90.8076	5,097.66	90.6806	5,097.66	90.3619	5,097.66	90.3924	5,097.66	90.3099	5,097.66	90.3235	5,097.66	87.5012	5,097.66	87.3586	5,097.66	84.9053	5,097.66	85.1763	5,097.66	82.798	5,097.66	83.271	5,097.66	80.393	5,097.66	77.8374	5,097.66	75.7961	5,097.66	73.2973	5,097.66	72.1642	5,097.66	69.0524	5,097.66	63.9181	5,097.66	62.4073	5,097.66	64.0362	5,097.66	69.3137	5,097.66	71.0026	5,097.66	59.8573	5,097.66	42.6124	5,097.66	66.1068	5,097.66	67.079	5,097.66	63.4039	5,097.66	61.2013	5,097.66	63.6022	5,097.66	59.5824	5,097.66	51.8505	5,097.66	59.2959
5,277.83	91.3494	5,277.83	92.1649	5,277.83	92.176	5,277.83	91.6345	5,277.83	91.5131	5,277.83	91.4334	5,277.83	91.3306	5,277.83	91.4409	5,277.83	91.0183	5,277.83	88.6937	5,277.83	88.1916	5,277.83	86.1295	5,277.83	85.8773	5,277.83	83.6748	5,277.83	81.6402	5,277.83	79.3545	5,277.83	79.7869	5,277.83	73.8655	5,277.83	75.9855	5,277.83	70.3084	5,277.83	50.7053	5,277.83	47.0987	5,277.83	71.4352	5,277.83	70.8816	5,277.83	58.0855	5,277.83	65.6773	5,277.83	69.5229	5,277.83	67.4395	5,277.83	71.1561	5,277.83	62.6379	5,277.83	49.3942	5,277.83	66.5663	5,277.83	52.4445	5,277.83	64.629	5,277.83	62.4739	5,277.83	61.7375
5,463.87	90.5548	5,463.87	91.8848	5,463.87	91.8762	5,463.87	91.3561	5,463.87	91.167	5,463.87	91.3656	5,463.87	91.3127	5,463.87	90.8076	5,463.87	91.0648	5,463.87	88.6187	5,463.87	88.6692	5,463.87	86.2098	5,463.87	86.0494	5,463.87	82.3104	5,463.87	81.8008	5,463.87	74.7225	5,463.87	76.8831	5,463.87	70.8257	5,463.87	71.5424	5,463.87	70.6467	5,463.87	66.4051	5,463.87	69.1667	5,463.87	63.3258	5,463.87	66.0481	5,463.87	70.0235	5,463.87	61.3002	5,463.87	61.7334	5,463.87	64.1367	5,463.87	67.0812	5,463.87	64.1447	5,463.87	65.4792	5,463.87	52.292	5,463.87	62.6531	5,463.87	60.795	5,463.87	65.9047	5,463.87	45.3478
5,657.23	90.3282	5,657.23	91.8656	5,657.23	91.7707	5,657.23	91.3933	5,657.23	90.8784	5,657.23	91.5866	5,657.23	91.7087	5,657.23	91.0856	5,657.23	91.1439	5,657.23	88.5724	5,657.23	89.3445	5,657.23	85.5641	5,657.23	85.8811	5,657.23	81.4768	5,657.23	81.7782	5,657.23	79.5822	5,657.23	79.2661	5,657.23	76.6109	5,657.23	75.2333	5,657.23	71.7383	5,657.23	62.9215	5,657.23	65.8867	5,657.23	70.5397	5,657.23	66.7828	5,657.23	68.2055	5,657.23	65.3419	5,657.23	65.026	5,657.23	65.3186	5,657.23	61.2407	5,657.23	65.2425	5,657.23	68.8428	5,657.23	57.3097	5,657.23	64.1551	5,657.23	67.3852	5,657.23	59.322	5,657.23	60.4949
5,856.45	90.1289	5,856.45	91.6643	5,856.45	91.9534	5,856.45	91.1615	5,856.45	90.9266	5,856.45	91.3224	5,856.45	91.0971	5,856.45	90.6273	5,856.45	90.5769	5,856.45	88.7372	5,856.45	88.1248	5,856.45	85.8677	5,856.45	84.9036	5,856.45	82.7387	5,856.45	81.4498	5,856.45	78.2666	5,856.45	79.2132	5,856.45	74.2635	5,856.45	74.6193	5,856.45	71.41	5,856.45	67.1497	5,856.45	55.2955	5,856.45	65.5696	5,856.45	63.3284	5,856.45	69.7638	5,856.45	70.7456	5,856.45	67.2173	5,856.45	60.5488	5,856.45	65.9436	5,856.45	61.2512	5,856.45	55.4348	5,856.45	62.5688	5,856.45	52.2932	5,856.45	63.3918	5,856.45	65.6893	5,856.45	59.6251
6,062.99	91.0725	6,062.99	91.6734	6,062.99	91.7902	6,062.99	90.9828	6,062.99	90.9518	6,062.99	90.6735	6,062.99	90.4038	6,062.99	90.1783	6,062.99	89.9463	6,062.99	88.4701	6,062.99	88.1213	6,062.99	85.4932	6,062.99	85.3895	6,062.99	81.8288	6,062.99	81.5943	6,062.99	79.5722	6,062.99	78.4286	6,062.99	77.2356	6,062.99	76.9435	6,062.99	69.8446	6,062.99	65.2355	6,062.99	68.9747	6,062.99	52.1961	6,062.99	56.0096	6,062.99	73.4049	6,062.99	71.9847	6,062.99	65.2368	6,062.99	60.2945	6,062.99	70.7712	6,062.99	54.5316	6,062.99	60.0996	6,062.99	61.025	6,062.99	63.4621	6,062.99	59.6435	6,062.99	68.8478	6,062.99	55.6505
6,276.86	91.4259	6,276.86	91.3926	6,276.86	91.4801	6,276.86	91.1428	6,276.86	91.0161	6,276.86	90.2267	6,276.86	89.9635	6,276.86	89.7781	6,276.86	89.5013	6,276.86	87.4743	6,276.86	87.5983	6,276.86	84.8399	6,276.86	84.8549	6,276.86	82.0444	6,276.86	82.7681	6,276.86	75.6679	6,276.86	77.8547	6,276.86	70.24	6,276.86	72.6162	6,276.86	67.2476	6,276.86	67.6503	6,276.86	69.9967	6,276.86	60.0482	6,276.86	60.7422	6,276.86	73.7069	6,276.86	56.254	6,276.86	63.0074	6,276.86	66.1892	6,276.86	69.2387	6,276.86	51.4501	6,276.86	62.3906	6,276.86	44.9661	6,276.86	63.5491	6,276.86	58.4965	6,276.86	65.1015	6,276.86	53.8824
6,498.05	91.147	6,498.05	90.9238	6,498.05	91.0891	6,498.05	90.9285	6,498.05	90.5413	6,498.05	89.3053	6,498.05	88.8881	6,498.05	89.488	6,498.05	89.2999	6,498.05	87.321	6,498.05	87.1993	6,498.05	84.8752	6,498.05	84.2261	6,498.05	80.1502	6,498.05	79.072	6,498.05	76.2232	6,498.05	76.8708	6,498.05	73.6709	6,498.05	69.7042	6,498.05	66.7071	6,498.05	68.7393	6,498.05	57.6333	6,498.05	66.1194	6,498.05	59.2048	6,498.05	74.9224	6,498.05	65.2694	6,498.05	66.0466	6,498.05	65.2353	6,498.05	64.6678	6,498.05	54.1599	6,498.05	59.6687	6,498.05	51.2093	6,498.05	66.8212	6,498.05	41.8474	6,498.05	60.5721	6,498.05	53.234
6,726.56	91.5273	6,726.56	91.0378	6,726.56	91.1951	6,726.56	90.9491	6,726.56	90.6519	6,726.56	89.6587	6,726.56	89.6159	6,726.56	89.9757	6,726.56	89.599	6,726.56	87.3783	6,726.56	87.704	6,726.56	84.4422	6,726.56	84.605	6,726.56	80.4689	6,726.56	79.454	6,726.56	76.1937	6,726.56	76.6272	6,726.56	72.6435	6,726.56	69.4801	6,726.56	68.4854	6,726.56	65.923	6,726.56	61.3897	6,726.56	60.4101	6,726.56	70.1351	6,726.56	74.4952	6,726.56	68.3646	6,726.56	69.7432	6,726.56	61.0615	6,726.56	65.6542	6,726.56	50.9183	6,726.56	63.5297	6,726.56	38.8797	6,726.56	67.7864	6,726.56	62.5827	6,726.56	67.6946	6,726.56	57.1204
6,963.87	91.6005	6,963.87	90.6947	6,963.87	90.7575	6,963.87	91.3695	6,963.87	90.8923	6,963.87	89.6559	6,963.87	89.7756	6,963.87	89.4667	6,963.87	89.3969	6,963.87	87.7531	6,963.87	87.6807	6,963.87	84.4782	6,963.87	83.6641	6,963.87	79.766	6,963.87	78.9114	6,963.87	76.2957	6,963.87	77.0316	6,963.87	68.6984	6,963.87	70.5592	6,963.87	69.6703	6,963.87	60.7128	6,963.87	56.3793	6,963.87	62.8879	6,963.87	70.9893	6,963.87	73.3337	6,963.87	58.2597	6,963.87	65.7931	6,963.87	63.0606	6,963.87	64.693	6,963.87	56.4133	6,963.87	59.9362	6,963.87	55.7996	6,963.87	69.4692	6,963.87	61.8546	6,963.87	65.4671	6,963.87	52.0054
7,209.96	91.7582	7,209.96	90.7615	7,209.96	91.3972	7,209.96	91.4726	7,209.96	91.1049	7,209.96	90.043	7,209.96	90.551	7,209.96	89.1951	7,209.96	88.9951	7,209.96	87.6359	7,209.96	87.3897	7,209.96	84.0463	7,209.96	83.9563	7,209.96	79.8891	7,209.96	78.7697	7,209.96	75.1062	7,209.96	76.8084	7,209.96	67.4915	7,209.96	70.8223	7,209.96	71.3679	7,209.96	62.5079	7,209.96	56.9909	7,209.96	67.2647	7,209.96	64.8601	7,209.96	71.7072	7,209.96	59.5521	7,209.96	64.8317	7,209.96	63.1459	7,209.96	62.5529	7,209.96	65.3737	7,209.96	62.8091	7,209.96	59.2741	7,209.96	69.2999	7,209.96	62.5985	7,209.96	65.4307	7,209.96	54.7929
7,464.84	92.1401	7,464.84	91.2688	7,464.84	91.3984	7,464.84	91.8667	7,464.84	91.381	7,464.84	90.8514	7,464.84	90.9688	7,464.84	89.9165	7,464.84	89.517	7,464.84	87.8932	7,464.84	87.7379	7,464.84	84.4269	7,464.84	84.5244	7,464.84	80.5164	7,464.84	79.5499	7,464.84	75.7175	7,464.84	76.4846	7,464.84	69.6414	7,464.84	72.3126	7,464.84	72.1085	7,464.84	66.0964	7,464.84	58.394	7,464.84	65.8417	7,464.84	67.3748	7,464.84	63.2383	7,464.84	62.0672	7,464.84	68.8753	7,464.84	66.3206	7,464.84	63.506	7,464.84	66.4971	7,464.84	68.8769	7,464.84	52.418	7,464.84	66.6877	7,464.84	59.9445	7,464.84	65.8346	7,464.84	54.7405
7,727.05	92.7908	7,727.05	92.3347	7,727.05	92.6374	7,727.05	92.4776	7,727.05	92.226	7,727.05	91.788	7,727.05	91.8763	7,727.05	90.5636	7,727.05	90.5138	7,727.05	88.6006	7,727.05	88.4316	7,727.05	85.712	7,727.05	85.5386	7,727.05	80.8704	7,727.05	80.6076	7,727.05	76.7111	7,727.05	76.8682	7,727.05	72.4448	7,727.05	74.0969	7,727.05	71.9809	7,727.05	64.1204	7,727.05	68.447	7,727.05	69.1158	7,727.05	65.9021	7,727.05	54.2789	7,727.05	55.2381	7,727.05	74.702	7,727.05	66.551	7,727.05	65.369	7,727.05	66.794	7,727.05	65.8397	7,727.05	61.6955	7,727.05	69.9805	7,727.05	58.5154	7,727.05	61.773	7,727.05	50.4692
7,999.51	93.2378	7,999.51	92.7569	7,999.51	92.9575	7,999.51	92.9383	7,999.51	92.6716	7,999.51	91.9998	7,999.51	91.7585	7,999.51	90.8073	7,999.51	90.5256	7,999.51	88.1826	7,999.51	88.3082	7,999.51	85.7772	7,999.51	84.7632	7,999.51	81.4196	7,999.51	80.2608	7,999.51	75.8926	7,999.51	77.6068	7,999.51	73.4558	7,999.51	74.0768	7,999.51	67.9718	7,999.51	68.3071	7,999.51	65.4178	7,999.51	67.3507	7,999.51	67.1447	7,999.51	65.8625	7,999.51	65.747	7,999.51	74.5608	7,999.51	65.3196	7,999.51	65.4072	7,999.51	68.5522	7,999.51	69.3492	7,999.51	64.4363	7,999.51	64.793	7,999.51	65.4432	7,999.51	61.5257	7,999.51	57.356
8,282.23	93.3933	8,282.23	93.0601	8,282.23	93.2464	8,282.23	92.8841	8,282.23	92.6897	8,282.23	91.982	8,282.23	91.9599	8,282.23	90.8098	8,282.23	90.3855	8,282.23	88.1919	8,282.23	88.6199	8,282.23	85.3576	8,282.23	85.2963	8,282.23	81.6497	8,282.23	80.5488	8,282.23	76.7142	8,282.23	74.4899	8,282.23	71.6649	8,282.23	74.2308	8,282.23	63.9922	8,282.23	59.812	8,282.23	60.4108	8,282.23	60.3719	8,282.23	73.7745	8,282.23	63.4288	8,282.23	65.9981	8,282.23	74.5223	8,282.23	61.8564	8,282.23	67.2905	8,282.23	63.4002	8,282.23	70.9273	8,282.23	59.6828	8,282.23	62.5548	8,282.23	63.9199	8,282.23	51.556	8,282.23	63.009
8,573.73	91.0095	8,573.73	90.8636	8,573.73	91.0453	8,573.73	90.8923	8,573.73	90.6672	8,573.73	89.9595	8,573.73	89.9693	8,573.73	88.7975	8,573.73	88.4182	8,573.73	86.5013	8,573.73	86.6313	8,573.73	82.6996	8,573.73	83.274	8,573.73	79.0068	8,573.73	77.8754	8,573.73	73.0227	8,573.73	71.022	8,573.73	65.4723	8,573.73	68.9564	8,573.73	67.3428	8,573.73	65.1065	8,573.73	70.6861	8,573.73	59.9761	8,573.73	57.8652	8,573.73	48.9259	8,573.73	57.3201	8,573.73	72.61	8,573.73	66.3717	8,573.73	67.8275	8,573.73	63.8421	8,573.73	68.3989	8,573.73	64.4155	8,573.73	60.6811	8,573.73	65.0228	8,573.73	62.2084	8,573.73	58.8774
8,876.95	90.2816	8,876.95	90.0658	8,876.95	90.2538	8,876.95	89.8388	8,876.95	89.6132	8,876.95	88.8	8,876.95	88.7166	8,876.95	87.655	8,876.95	87.0479	8,876.95	85.077	8,876.95	85.0082	8,876.95	82.2567	8,876.95	82.4215	8,876.95	78.2279	8,876.95	76.9629	8,876.95	72.1131	8,876.95	73.0465	8,876.95	70.437	8,876.95	70.7382	8,876.95	69.4404	8,876.95	58.5757	8,876.95	65.5392	8,876.95	61.3844	8,876.95	66.3711	8,876.95	67.0061	8,876.95	52.0577	8,876.95	65.3481	8,876.95	64.6736	8,876.95	65.4159	8,876.95	50.471	8,876.95	67.9043	8,876.95	60.9225	8,876.95	56.8217	8,876.95	62.1065	8,876.95	60.6105	8,876.95	47.1298
9,188.96	92.1586	9,188.96	91.9885	9,188.96	92.1692	9,188.96	91.542	9,188.96	91.2846	9,188.96	90.4844	9,188.96	90.1965	9,188.96	89.0933	9,188.96	88.8287	9,188.96	86.4634	9,188.96	86.688	9,188.96	83.3065	9,188.96	82.9241	9,188.96	79.2838	9,188.96	78.7108	9,188.96	74.4753	9,188.96	72.0356	9,188.96	72.8787	9,188.96	71.6161	9,188.96	64.0655	9,188.96	65.3606	9,188.96	64.7174	9,188.96	63.3324	9,188.96	53.9449	9,188.96	66.1997	9,188.96	67.4738	9,188.96	66.3805	9,188.96	64.1491	9,188.96	69.3803	9,188.96	61.4637	9,188.96	66.5322	9,188.96	63.9639	9,188.96	67.0992	9,188.96	53.7407	9,188.96	53.3605	9,188.96	52.6943
9,514.16	92.8651	9,514.16	92.6278	9,514.16	92.9416	9,514.16	92.0369	9,514.16	92.0916	9,514.16	90.9864	9,514.16	90.984	9,514.16	89.6272	9,514.16	89.3761	9,514.16	86.8994	9,514.16	87.2248	9,514.16	83.4453	9,514.16	84.3415	9,514.16	79.6102	9,514.16	79.6719	9,514.16	73.7598	9,514.16	72.1124	9,514.16	70.2122	9,514.16	71.4236	9,514.16	63.3236	9,514.16	61.4247	9,514.16	66.3934	9,514.16	56.5197	9,514.16	71.5487	9,514.16	63.981	9,514.16	64.3309	9,514.16	63.9272	9,514.16	69.1437	9,514.16	67.9703	9,514.16	62.2317	9,514.16	66.7763	9,514.16	59.3343	9,514.16	59.0806	9,514.16	64.4267	9,514.16	62.6456	9,514.16	55.5522
9,849.61	93.251	9,849.61	92.928	9,849.61	93.1532	9,849.61	92.2145	9,849.61	92.3153	9,849.61	91.0763	9,849.61	91.2962	9,849.61	89.8619	9,849.61	89.466	9,849.61	87.073	9,849.61	87.1209	9,849.61	83.2999	9,849.61	84.3016	9,849.61	78.8745	9,849.61	78.8248	9,849.61	74.4691	9,849.61	73.9794	9,849.61	73.2709	9,849.61	72.129	9,849.61	67.4711	9,849.61	66.3289	9,849.61	65.5073	9,849.61	62.8064	9,849.61	68.2599	9,849.61	64.4501	9,849.61	60.6347	9,849.61	62.9601	9,849.61	70.7719	9,849.61	70.7729	9,849.61	57.3433	9,849.61	62.7195	9,849.61	67.1896	9,849.61	62.8873	9,849.61	66.1945	9,849.61	57.7959	9,849.61	59.661
10,196.8	93.261	10,196.8	92.9983	10,196.8	93.0448	10,196.8	92.0838	10,196.8	91.9282	10,196.8	91.1097	10,196.8	91.323	10,196.8	89.8246	10,196.8	89.3707	10,196.8	87.1328	10,196.8	86.8878	10,196.8	83.4992	10,196.8	84.0502	10,196.8	78.3835	10,196.8	79.2499	10,196.8	72.5885	10,196.8	72.8335	10,196.8	70.6318	10,196.8	73.4105	10,196.8	68.8216	10,196.8	69.8763	10,196.8	62.1156	10,196.8	67.4778	10,196.8	69.3272	10,196.8	67.8725	10,196.8	58.4605	10,196.8	65.5145	10,196.8	69.6902	10,196.8	67.5865	10,196.8	51.4991	10,196.8	70.1418	10,196.8	66.4215	10,196.8	43.7594	10,196.8	49.8877	10,196.8	58.2376	10,196.8	56.6834
10,555.7	93.5693	10,555.7	93.0841	10,555.7	93.4042	10,555.7	92.0663	10,555.7	92.0746	10,555.7	91.06	10,555.7	91.5058	10,555.7	89.4744	10,555.7	89.3616	10,555.7	86.3075	10,555.7	87.0241	10,555.7	83.2733	10,555.7	84.3942	10,555.7	78.143	10,555.7	79.1497	10,555.7	75.3509	10,555.7	71.8242	10,555.7	69.7105	10,555.7	71.1217	10,555.7	68.8753	10,555.7	72.9112	10,555.7	65.7305	10,555.7	67.1743	10,555.7	66.8637	10,555.7	65.008	10,555.7	66.7419	10,555.7	69.2603	10,555.7	70.3484	10,555.7	68.2524	10,555.7	57.3042	10,555.7	69.0725	10,555.7	61.6221	10,555.7	61.9898	10,555.7	68.706	10,555.7	60.9285	10,555.7	57.8483
10,927.7	93.8116	10,927.7	93.0549	10,927.7	93.5708	10,927.7	91.8868	10,927.7	92.381	10,927.7	91.0405	10,927.7	92.1321	10,927.7	89.5121	10,927.7	89.7599	10,927.7	85.9703	10,927.7	87.2659	10,927.7	82.8459	10,927.7	84.5599	10,927.7	78.7435	10,927.7	80.1945	10,927.7	72.5049	10,927.7	69.9408	10,927.7	72.1221	10,927.7	70.9171	10,927.7	65.5865	10,927.7	70.0404	10,927.7	66.7313	10,927.7	64.6866	10,927.7	65.8541	10,927.7	58.2127	10,927.7	67.8969	10,927.7	70.0382	10,927.7	66.2758	10,927.7	63.9066	10,927.7	59.8132	10,927.7	72.2024	10,927.7	65.4614	10,927.7	55.1455	10,927.7	63.1701	10,927.7	49.249	10,927.7	56.2587
11,313	93.8385	11,313	93.4813	11,313	93.4243	11,313	92.4479	11,313	92.2134	11,313	91.8473	11,313	91.8144	11,313	90.3755	11,313	89.3253	11,313	87.1531	11,313	86.179	11,313	84.0817	11,313	83.2461	11,313	79.9273	11,313	79.0438	11,313	74.529	11,313	69.8791	11,313	70.3918	11,313	69.5323	11,313	68.0141	11,313	71.9456	11,313	67.1181	11,313	57.843	11,313	65.088	11,313	56.0551	11,313	69.6864	11,313	63.8743	11,313	66.9286	11,313	65.0044	11,313	65.1622	11,313	69.5956	11,313	59.0292	11,313	54.7549	11,313	65.8404	11,313	61.3771	11,313	58.9159
11,712.9	94.1236	11,712.9	93.6406	11,712.9	93.4933	11,712.9	92.4621	11,712.9	92.4028	11,712.9	92.1565	11,712.9	92.0596	11,712.9	90.6552	11,712.9	88.9592	11,712.9	87.0393	11,712.9	86.2803	11,712.9	84.0654	11,712.9	83.6464	11,712.9	79.2427	11,712.9	78.44	11,712.9	74.3547	11,712.9	72.9829	11,712.9	64.2406	11,712.9	63.4802	11,712.9	70.3264	11,712.9	66.4156	11,712.9	70.8727	11,712.9	52.0865	11,712.9	58.0532	11,712.9	60.5522	11,712.9	59.0079	11,712.9	69.8247	11,712.9	50.5241	11,712.9	67.3192	11,712.9	63.9289	11,712.9	58.7216	11,712.9	65.7873	11,712.9	55.535	11,712.9	63.4923	11,712.9	63.6744	11,712.9	51.7302
12,126	93.975	12,126	93.2552	12,126	93.1261	12,126	92.3249	12,126	92.4461	12,126	92.0148	12,126	92.1633	12,126	90.1743	12,126	89.0552	12,126	86.2368	12,126	85.5315	12,126	83.4246	12,126	83.387	12,126	79.1141	12,126	79.8806	12,126	72.9153	12,126	73.2638	12,126	66.5251	12,126	67.9915	12,126	64.0415	12,126	68.6665	12,126	71.2621	12,126	66.9455	12,126	65.0453	12,126	67.0695	12,126	65.3298	12,126	48.5555	12,126	63.865	12,126	66.7012	12,126	67.8582	12,126	74.3493	12,126	65.7182	12,126	67.687	12,126	58.964	12,126	63.3464	12,126	53.5416
12,553.7	93.2662	12,553.7	92.2879	12,553.7	92.2853	12,553.7	91.6738	12,553.7	92.4029	12,553.7	91.1712	12,553.7	91.8428	12,553.7	89.4776	12,553.7	88.664	12,553.7	85.1759	12,553.7	85.1021	12,553.7	82.2649	12,553.7	83.2826	12,553.7	78.0453	12,553.7	77.5813	12,553.7	75.0808	12,553.7	73.4474	12,553.7	67.974	12,553.7	65.0659	12,553.7	64.2951	12,553.7	69.3903	12,553.7	68.8394	12,553.7	56.5331	12,553.7	58.2876	12,553.7	67.8179	12,553.7	69.9445	12,553.7	61.4136	12,553.7	60.4232	12,553.7	71.278	12,553.7	68.9008	12,553.7	70.4668	12,553.7	61.9489	12,553.7	60.7322	12,553.7	60.503	12,553.7	61.0403	12,553.7	61.4238
12,996.1	92.5229	12,996.1	91.4076	12,996.1	91.4451	12,996.1	91.2268	12,996.1	92.1241	12,996.1	90.5472	12,996.1	91.0491	12,996.1	88.715	12,996.1	87.6591	12,996.1	83.7891	12,996.1	83.5366	12,996.1	81.6171	12,996.1	82.5674	12,996.1	78.0011	12,996.1	78.6682	12,996.1	72.8611	12,996.1	75.5684	12,996.1	58.4298	12,996.1	58.4893	12,996.1	64.5008	12,996.1	60.9288	12,996.1	71.0934	12,996.1	62.328	12,996.1	60.13	12,996.1	65.1748	12,996.1	63.3343	12,996.1	60.2163	12,996.1	58.156	12,996.1	70.2148	12,996.1	70.5442	12,996.1	73.0185	12,996.1	65.877	12,996.1	70.2833	12,996.1	58.6157	12,996.1	60.8185	12,996.1	57.8112
13,454.6	91.9248	13,454.6	91.1537	13,454.6	91.0256	13,454.6	91.4043	13,454.6	91.9211	13,454.6	90.319	13,454.6	90.1777	13,454.6	88.4039	13,454.6	86.5889	13,454.6	83.0835	13,454.6	82.04	13,454.6	80.9091	13,454.6	81.0679	13,454.6	77.0436	13,454.6	76.9826	13,454.6	73.4786	13,454.6	74.1259	13,454.6	64.7785	13,454.6	54.5207	13,454.6	68.3683	13,454.6	69.5457	13,454.6	64.2024	13,454.6	57.9193	13,454.6	58.8793	13,454.6	65.7943	13,454.6	65.3394	13,454.6	60.9667	13,454.6	49.7347	13,454.6	68.3479	13,454.6	69.9969	13,454.6	72.141	13,454.6	68.526	13,454.6	69.7198	13,454.6	59.2338	13,454.6	59.0184	13,454.6	55.4063
13,929.2	91.2745	13,929.2	90.2383	13,929.2	90.5907	13,929.2	91.0522	13,929.2	91.8415	13,929.2	89.3681	13,929.2	89.6957	13,929.2	87.2938	13,929.2	86.0675	13,929.2	81.7563	13,929.2	80.9381	13,929.2	79.7079	13,929.2	80.8423	13,929.2	75.331	13,929.2	77.2681	13,929.2	73.2782	13,929.2	72.7919	13,929.2	63.3085	13,929.2	59.2136	13,929.2	60.4612	13,929.2	70.7954	13,929.2	51.471	13,929.2	57.4882	13,929.2	65.6313	13,929.2	59.9385	13,929.2	64.8095	13,929.2	68.7069	13,929.2	60.0755	13,929.2	71.8871	13,929.2	64.7983	13,929.2	72.4281	13,929.2	70.0178	13,929.2	73.3037	13,929.2	64.9168	13,929.2	66.2142	13,929.2	54.0637
14,419.9	90.1064	14,419.9	88.7006	14,419.9	90.0877	14,419.9	90.1561	14,419.9	91.4604	14,419.9	87.634	14,419.9	88.974	14,419.9	85.0525	14,419.9	85.3622	14,419.9	79.2592	14,419.9	79.8447	14,419.9	77.4366	14,419.9	80.5564	14,419.9	73.4931	14,419.9	76.6919	14,419.9	69.5636	14,419.9	73.8994	14,419.9	64.4895	14,419.9	61.5557	14,419.9	63.7339	14,419.9	68.9109	14,419.9	60.1201	14,419.9	52.9848	14,419.9	62.7348	14,419.9	58.6852	14,419.9	62.5704	14,419.9	67.6968	14,419.9	66.305	14,419.9	69.2176	14,419.9	66.6402	14,419.9	68.732	14,419.9	64.5648	14,419.9	70.0174	14,419.9	54.6216	14,419.9	68.4872	14,419.9	64.8719
14,928.2	89.1454	14,928.2	87.4264	14,928.2	89.4813	14,928.2	89.6013	14,928.2	91.1166	14,928.2	86.4842	14,928.2	88.0636	14,928.2	83.764	14,928.2	84.3527	14,928.2	77.9789	14,928.2	77.8464	14,928.2	75.8486	14,928.2	78.8359	14,928.2	70.0541	14,928.2	75.8859	14,928.2	69.3296	14,928.2	73.5141	14,928.2	64.9142	14,928.2	63.9168	14,928.2	63.8731	14,928.2	68.5803	14,928.2	56.4376	14,928.2	59.1891	14,928.2	63.6253	14,928.2	59.4079	14,928.2	61.0639	14,928.2	66.2878	14,928.2	61.5802	14,928.2	64.7166	14,928.2	70.8285	14,928.2	72.393	14,928.2	64.962	14,928.2	72.832	14,928.2	70.3053	14,928.2	67.9005	14,928.2	63.8171
15,455.6	86.7566	15,455.6	85.887	15,455.6	87.5428	15,455.6	88.4114	15,455.6	88.6157	15,455.6	84.8765	15,455.6	84.7112	15,455.6	82.3877	15,455.6	80.8891	15,455.6	76.5355	15,455.6	73.6621	15,455.6	74.0618	15,455.6	75.4171	15,455.6	69.8981	15,455.6	73.1459	15,455.6	66.4869	15,455.6	70.2724	15,455.6	64.2838	15,455.6	63.9246	15,455.6	63.8378	15,455.6	69.2353	15,455.6	59.8466	15,455.6	60.5669	15,455.6	58.4108	15,455.6	64.5354	15,455.6	50.722	15,455.6	71.2613	15,455.6	56.0561	15,455.6	63.7313	15,455.6	62.382	15,455.6	67.8239	15,455.6	62.6011	15,455.6	69.9168	15,455.6	60.7679	15,455.6	66.5267	15,455.6	63.9955
16,000.5	84.8247	16,000.5	83.045	16,000.5	83.799	16,000.5	83.334	16,000.5	85.1247	16,000.5	78.5172	16,000.5	82.3322	16,000.5	75.9591	16,000.5	78.4173	16,000.5	70.596	16,000.5	73.9904	16,000.5	65.9864	16,000.5	74.2912	16,000.5	61.1142	16,000.5	68.2572	16,000.5	56.718	16,000.5	70.9848	16,000.5	60.5102	16,000.5	65.5297	16,000.5	52.6985	16,000.5	67.223	16,000.5	51.6128	16,000.5	51.4485	16,000.5	45.7686	16,000.5	65.0617	16,000.5	56.7512	16,000.5	69.9528	16,000.5	63.1273	16,000.5	67.6768	16,000.5	49.2506	16,000.5	68.4985	16,000.5	64.8988	16,000.5	63.4442	16,000.5	66.7989	16,000.5	66.7725	16,000.5	56.4925
16,564.5	86.1724	16,564.5	85.0091	16,564.5	85.9245	16,564.5	84.8506	16,564.5	85.7362	16,564.5	78.7998	16,564.5	83.2698	16,564.5	78.0993	16,564.5	78.147	16,564.5	71.5362	16,564.5	75.0555	16,564.5	69.5399	16,564.5	74.6232	16,564.5	58.2105	16,564.5	47.5116	16,564.5	65.2744	16,564.5	69.1452	16,564.5	62.155	16,564.5	65.1916	16,564.5	64.3456	16,564.5	67.0064	16,564.5	57.1155	16,564.5	65.0182	16,564.5	59.3531	16,564.5	62.1357	16,564.5	63.1568	16,564.5	65.2104	16,564.5	59.6836	16,564.5	66.2045	16,564.5	52.9521	16,564.5	66.7678	16,564.5	65.4033	16,564.5	66.9045	16,564.5	66.6209	16,564.5	66.4381	16,564.5	58.4253
17,148.9	85.6179	17,148.9	83.1734	17,148.9	85.9222	17,148.9	85.1264	17,148.9	82.9413	17,148.9	81.568	17,148.9	79.1326	17,148.9	78.691	17,148.9	73.3953	17,148.9	72.8581	17,148.9	68.5995	17,148.9	69.205	17,148.9	68.1104	17,148.9	60.4736	17,148.9	63.4764	17,148.9	67.3041	17,148.9	67.2359	17,148.9	67.7812	17,148.9	65.2386	17,148.9	65.2657	17,148.9	63.9965	17,148.9	60.3248	17,148.9	51.9711	17,148.9	58.3331	17,148.9	56.6864	17,148.9	40.5612	17,148.9	63.1776	17,148.9	59.9428	17,148.9	61.4245	17,148.9	58.4886	17,148.9	60.4189	17,148.9	58.7806	17,148.9	58.6693	17,148.9	55.2405	17,148.9	66.659	17,148.9	63.0887
17,752.4	87.077	17,752.4	86.2745	17,752.4	87.8914	17,752.4	85.9914	17,752.4	84.3028	17,752.4	81.6315	17,752.4	79.262	17,752.4	77.1178	17,752.4	73.681	17,752.4	71.8686	17,752.4	67.0017	17,752.4	64.3004	17,752.4	69.5291	17,752.4	53.9547	17,752.4	63.244	17,752.4	65.3158	17,752.4	68.3171	17,752.4	68.2788	17,752.4	67.5715	17,752.4	61.4213	17,752.4	64.2777	17,752.4	58.4089	17,752.4	44.283	17,752.4	57.8918	17,752.4	63.2281	17,752.4	49.2689	17,752.4	65.2812	17,752.4	64.213	17,752.4	53.8079	17,752.4	60.4341	17,752.4	65.9835	17,752.4	52.3677	17,752.4	62.7521	17,752.4	57.3046	17,752.4	63.1808	17,752.4	64.3884
18,379.4	85.7079	18,379.4	85.851	18,379.4	86.662	18,379.4	84.6745	18,379.4	82.1896	18,379.4	79.0839	18,379.4	77.1012	18,379.4	74.6449	18,379.4	70.9397	18,379.4	70.0822	18,379.4	68.2319	18,379.4	61.5719	18,379.4	69.0087	18,379.4	58.3237	18,379.4	57.8234	18,379.4	63.0537	18,379.4	65.9425	18,379.4	66.931	18,379.4	64.7054	18,379.4	54.2516	18,379.4	64.972	18,379.4	59.4828	18,379.4	43.7357	18,379.4	60.5291	18,379.4	58.9309	18,379.4	58.8337	18,379.4	60.5777	18,379.4	60.8943	18,379.4	63.939	18,379.4	47.7124	18,379.4	62.0172	18,379.4	58.1944	18,379.4	63.3259	18,379.4	61.7573	18,379.4	60.595	18,379.4	52.8406
19,026.9	82.1109	19,026.9	82.3308	19,026.9	83.8089	19,026.9	80.423	19,026.9	78.8315	19,026.9	74.0924	19,026.9	73.8536	19,026.9	68.5496	19,026.9	67.5855	19,026.9	63.8783	19,026.9	66.1932	19,026.9	53.2994	19,026.9	65.8151	19,026.9	61.3163	19,026.9	59.8424	19,026.9	53.028	19,026.9	60.0835	19,026.9	61.7659	19,026.9	59.9108	19,026.9	59.4541	19,026.9	53.2883	19,026.9	57.3002	19,026.9	53.8672	19,026.9	57.8729	19,026.9	51.6267	19,026.9	60.4167	19,026.9	65.3346	19,026.9	61.0644	19,026.9	50.0394	19,026.9	52.9522	19,026.9	63.2457	19,026.9	52.3711	19,026.9	56.0465	19,026.9	56.7709	19,026.9	58.6293	19,026.9	55.4936
19,697.8	74.6236	19,697.8	71.93	19,697.8	77.1955	19,697.8	67.6141	19,697.8	72.563	19,697.8	59.8422	19,697.8	65.7651	19,697.8	50.7892	19,697.8	59.8236	19,697.8	51.8984	19,697.8	55.5184	19,697.8	55.3904	19,697.8	55.4949	19,697.8	55.0602	19,697.8	57.6069	19,697.8	50.8624	19,697.8	57.7947	19,697.8	52.4219	19,697.8	53.7262	19,697.8	52.142	19,697.8	52.7773	19,697.8	47.2997	19,697.8	51.9808	19,697.8	46.0383	19,697.8	46.7771	19,697.8	49.3965	19,697.8	55.7684	19,697.8	49.2792	19,697.8	33.6774	19,697.8	49.4145	19,697.8	53.4392	19,697.8	50.5275	19,697.8	42.5415	19,697.8	57.3864	19,697.8	45.5706	19,697.8	45.9842
19,999.5	66.1675	19,999.5	68.7761	19,999.5	70.6783	19,999.5	66.3668	19,999.5	66.0391	19,999.5	63.1512	19,999.5	54.5411	19,999.5	64.6668	19,999.5	54.2249	19,999.5	61.8897	19,999.5	58.0517	19,999.5	55.9052	19,999.5	57.6921	19,999.5	51.7694	19,999.5	59.7876	19,999.5	56.9026	19,999.5	57.1015	19,999.5	58.5422	19,999.5	53.4124	19,999.5	52.9244	19,999.5	50.9747	19,999.5	50.1147	19,999.5	44.366	19,999.5	48.9028	19,999.5	32.8271	19,999.5	45.3849	19,999.5	50.7299	19,999.5	42.8763	19,999.5	47.1975	19,999.5	44.0363	19,999.5	50.0294	19,999.5	48.0623	19,999.5	53.5905	19,999.5	56.3174	19,999.5	46.187	19,999.5	43.5803
