"SPL Vertical"
"On-Axis"		"10°"		"-10°"		"20°"		"-20°"		"30°"		"-30°"		"40°"		"-40°"		"50°"		"-50°"		"60°"		"-60°"		"70°"		"-70°"		"80°"		"-80°"		"90°"		"-90°"		"100°"		"-100°"		"110°"		"-110°"		"120°"		"-120°"		"130°"		"-130°"		"140°"		"-140°"		"150°"		"-150°"		"160°"		"-160°"		"170°"		"-170°"		"180°"
"Frequency / Hz"	"Sound Pressure Level / dB (re 20 µPa/V)  [2.83  V @ 1. m]"	"Frequency / Hz"	"Sound Pressure Level / dB (re 20 µPa/V)  [2.83  V @ 1. m]"	"Frequency / Hz"	"Sound Pressure Level / dB (re 20 µPa/V)  [2.83  V @ 1. m]"	"Frequency / Hz"	"Sound Pressure Level / dB (re 20 µPa/V)  [2.83  V @ 1. m]"	"Frequency / Hz"	"Sound Pressure Level / dB (re 20 µPa/V)  [2.83  V @ 1. m]"	"Frequency / Hz"	"Sound Pressure Level / dB (re 20 µPa/V)  [2.83  V @ 1. m]"	"Frequency / Hz"	"Sound Pressure Level / dB (re 20 µPa/V)  [2.83  V @ 1. m]"	"Frequency / Hz"	"Sound Pressure Level / dB (re 20 µPa/V)  [2.83  V @ 1. m]"	"Frequency / Hz"	"Sound Pressure Level / dB (re 20 µPa/V)  [2.83  V @ 1. m]"	"Frequency / Hz"	"Sound Pressure Level / dB (re 20 µPa/V)  [2.83  V @ 1. m]"	"Frequency / Hz"	"Sound Pressure Level / dB (re 20 µPa/V)  [2.83  V @ 1. m]"	"Frequency / Hz"	"Sound Pressure Level / dB (re 20 µPa/V)  [2.83  V @ 1. m]"	"Frequency / Hz"	"Sound Pressure Level / dB (re 20 µPa/V)  [2.83  V @ 1. m]"	"Frequency / Hz"	"Sound Pressure Level / dB (re 20 µPa/V)  [2.83  V @ 1. m]"	"Frequency / Hz"	"Sound Pressure Level / dB (re 20 µPa/V)  [2.83  V @ 1. m]"	"Frequency / Hz"	"Sound Pressure Level / dB (re 20 µPa/V)  [2.83  V @ 1. m]"	"Frequency / Hz"	"Sound Pressure Level / dB (re 20 µPa/V)  [2.83  V @ 1. m]"	"Frequency / Hz"	"Sound Pressure Level / dB (re 20 µPa/V)  [2.83  V @ 1. m]"	"Frequency / Hz"	"Sound Pressure Level / dB (re 20 µPa/V)  [2.83  V @ 1. m]"	"Frequency / Hz"	"Sound Pressure Level / dB (re 20 µPa/V)  [2.83  V @ 1. m]"	"Frequency / Hz"	"Sound Pressure Level / dB (re 20 µPa/V)  [2.83  V @ 1. m]"	"Frequency / Hz"	"Sound Pressure Level / dB (re 20 µPa/V)  [2.83  V @ 1. m]"	"Frequency / Hz"	"Sound Pressure Level / dB (re 20 µPa/V)  [2.83  V @ 1. m]"	"Frequency / Hz"	"Sound Pressure Level / dB (re 20 µPa/V)  [2.83  V @ 1. m]"	"Frequency / Hz"	"Sound Pressure Level / dB (re 20 µPa/V)  [2.83  V @ 1. m]"	"Frequency / Hz"	"Sound Pressure Level / dB (re 20 µPa/V)  [2.83  V @ 1. m]"	"Frequency / Hz"	"Sound Pressure Level / dB (re 20 µPa/V)  [2.83  V @ 1. m]"	"Frequency / Hz"	"Sound Pressure Level / dB (re 20 µPa/V)  [2.83  V @ 1. m]"	"Frequency / Hz"	"Sound Pressure Level / dB (re 20 µPa/V)  [2.83  V @ 1. m]"	"Frequency / Hz"	"Sound Pressure Level / dB (re 20 µPa/V)  [2.83  V @ 1. m]"	"Frequency / Hz"	"Sound Pressure Level / dB (re 20 µPa/V)  [2.83  V @ 1. m]"	"Frequency / Hz"	"Sound Pressure Level / dB (re 20 µPa/V)  [2.83  V @ 1. m]"	"Frequency / Hz"	"Sound Pressure Level / dB (re 20 µPa/V)  [2.83  V @ 1. m]"	"Frequency / Hz"	"Sound Pressure Level / dB (re 20 µPa/V)  [2.83  V @ 1. m]"	"Frequency / Hz"	"Sound Pressure Level / dB (re 20 µPa/V)  [2.83  V @ 1. m]"	"Frequency / Hz"	"Sound Pressure Level / dB (re 20 µPa/V)  [2.83  V @ 1. m]"
20.5078	64.0677	20.5078	63.6229	20.5078	64.1751	20.5078	62.8785	20.5078	63.8576	20.5078	61.8316	20.5078	62.9609	20.5078	60.444	20.5078	61.272	20.5078	58.6684	20.5078	59.0402	20.5078	56.6085	20.5078	59.7028	20.5078	55.1752	20.5078	64.1863	20.5078	56.1869	20.5078	68.3861	20.5078	59.0074	20.5078	71.6108	20.5078	61.9383	20.5078	74.0211	20.5078	64.5106	20.5078	75.7641	20.5078	66.7299	20.5078	76.9376	20.5078	68.6677	20.5078	77.6138	20.5078	70.3844	20.5078	77.8552	20.5078	71.9224	20.5078	77.7214	20.5078	73.3073	20.5078	77.2714	20.5078	74.5491	20.5078	76.5615	20.5078	75.6414
21.9727	63.6292	21.9727	63.767	21.9727	63.4652	21.9727	63.8509	21.9727	63.4178	21.9727	63.9064	21.9727	63.8151	21.9727	63.9836	21.9727	65.0472	21.9727	64.1441	21.9727	67.1386	21.9727	64.4496	21.9727	69.675	21.9727	64.9463	21.9727	72.2246	21.9727	65.6506	21.9727	74.5352	21.9727	66.5455	21.9727	76.4857	21.9727	67.5905	21.9727	78.0221	21.9727	68.7388	21.9727	79.1278	21.9727	69.9499	21.9727	79.8104	21.9727	71.1934	21.9727	80.096	21.9727	72.4477	21.9727	80.0245	21.9727	73.6949	21.9727	79.6453	21.9727	74.9167	21.9727	79.0117	21.9727	76.0908	21.9727	78.1768	21.9727	77.1891
23.4375	68.3845	23.4375	68.3442	23.4375	68.3007	23.4375	68.1964	23.4375	68.1001	23.4375	67.9676	23.4375	67.8633	23.4375	67.6931	23.4375	67.8486	23.4375	67.4223	23.4375	68.5428	23.4375	67.225	23.4375	70.2563	23.4375	67.1898	23.4375	72.6368	23.4375	67.4061	23.4375	75.0921	23.4375	67.9299	23.4375	77.2621	23.4375	68.7554	23.4375	79.001	23.4375	69.8209	23.4375	80.2666	23.4375	71.0428	23.4375	81.0641	23.4375	72.345	23.4375	81.4243	23.4375	73.6709	23.4375	81.3946	23.4375	74.9814	23.4375	81.0331	23.4375	76.2489	23.4375	80.4025	23.4375	77.4513	23.4375	79.5628	23.4375	78.5658
24.9023	70.7506	24.9023	70.698	24.9023	70.7267	24.9023	70.5765	24.9023	70.645	24.9023	70.4056	24.9023	70.5879	24.9023	70.2127	24.9023	70.7612	24.9023	70.0345	24.9023	71.4923	24.9023	69.9184	24.9023	72.9814	24.9023	69.9211	24.9023	75.0194	24.9023	70.1007	24.9023	77.1812	24.9023	70.5008	24.9023	79.1434	24.9023	71.1352	24.9023	80.7408	24.9023	71.983	24.9023	81.9086	24.9023	72.9986	24.9023	82.6359	24.9023	74.1276	24.9023	82.9438	24.9023	75.3196	24.9023	82.8741	24.9023	76.5327	24.9023	82.4824	24.9023	77.7338	24.9023	81.8311	24.9023	78.895	24.9023	80.9819	24.9023	79.9888
26.3672	73.6995	26.3672	73.577	26.3672	73.7659	26.3672	73.4009	26.3672	73.7924	26.3672	73.1836	26.3672	73.8345	26.3672	72.9441	26.3672	74.0183	26.3672	72.7093	26.3672	74.5481	26.3672	72.5149	26.3672	75.6032	26.3672	72.4069	26.3672	77.1494	26.3672	72.4371	26.3672	78.9258	26.3672	72.6543	26.3672	80.6382	26.3672	73.09	26.3672	82.0863	26.3672	73.7464	26.3672	83.1678	26.3672	74.5963	26.3672	83.8463	26.3672	75.5932	26.3672	84.1269	26.3672	76.6851	26.3672	84.0424	26.3672	77.8249	26.3672	83.6437	26.3672	78.9735	26.3672	82.9915	26.3672	80.0983	26.3672	82.1478	26.3672	81.1683
27.832	75.4885	27.832	75.3414	27.832	75.5778	27.832	75.1429	27.832	75.6156	27.832	74.906	27.832	75.6358	27.832	74.6491	27.832	75.729	27.832	74.3975	27.832	76.0696	27.832	74.1848	27.832	76.8705	27.832	74.0539	27.832	78.2018	27.832	74.054	27.832	79.8698	27.832	74.2323	27.832	81.5628	27.832	74.6212	27.832	83.0373	27.832	75.2268	27.832	84.1609	27.832	76.0265	27.832	84.8833	27.832	76.9773	27.832	85.2046	27.832	78.0293	27.832	85.1563	27.832	79.1349	27.832	84.7899	27.832	80.2538	27.832	84.1669	27.832	81.3518	27.832	83.3501	27.832	82.3963
29.2969	76.381	29.2969	76.2609	29.2969	76.4827	29.2969	76.1222	29.2969	76.5842	29.2969	75.9746	29.2969	76.7372	29.2969	75.8339	29.2969	77.0451	29.2969	75.7206	29.2969	77.6583	29.2969	75.6593	29.2969	78.6968	29.2969	75.6782	29.2969	80.1272	29.2969	75.8059	29.2969	81.7492	29.2969	76.0684	29.2969	83.3198	29.2969	76.4832	29.2969	84.6563	29.2969	77.0555	29.2969	85.6558	29.2969	77.7766	29.2969	86.2775	29.2969	78.625	29.2969	86.5233	29.2969	79.5709	29.2969	86.4236	29.2969	80.5808	29.2969	86.0279	29.2969	81.621	29.2969	85.3958	29.2969	82.6587	29.2969	84.5882	29.2969	83.6605
30.7617	78.5257	30.7617	78.3678	30.7617	78.6799	30.7617	78.2019	30.7617	78.8476	30.7617	78.0319	30.7617	79.0671	30.7617	77.8673	30.7617	79.4062	30.7617	77.7226	30.7617	79.9593	30.7617	77.6169	30.7617	80.8084	30.7617	77.5737	30.7617	81.953	30.7617	77.6195	30.7617	83.2767	30.7617	77.7814	30.7617	84.5988	30.7617	78.0822	30.7617	85.7532	30.7617	78.5351	30.7617	86.6284	30.7617	79.1399	30.7617	87.1693	30.7617	79.8817	30.7617	87.366	30.7617	80.7334	30.7617	87.2415	30.7617	81.6612	30.7617	86.8408	30.7617	82.6299	30.7617	86.221	30.7617	83.6055	30.7617	85.4412	30.7617	84.5547
32.2266	79.5662	32.2266	79.3886	32.2266	79.7537	32.2266	79.2167	32.2266	79.9654	32.2266	79.0529	32.2266	80.2318	32.2266	78.9045	32.2266	80.605	32.2266	78.7827	32.2266	81.156	32.2266	78.7026	32.2266	81.9485	32.2266	78.6823	32.2266	82.9871	32.2266	78.7422	32.2266	84.1854	32.2266	78.9027	32.2266	85.3932	32.2266	79.1818	32.2266	86.459	32.2266	79.5911	32.2266	87.2715	32.2266	80.1328	32.2266	87.7708	32.2266	80.7984	32.2266	87.9412	32.2266	81.5693	32.2266	87.8016	32.2266	82.4201	32.2266	87.3951	32.2266	83.3213	32.2266	86.7786	32.2266	84.2426	32.2266	86.0125	32.2266	85.152
33.6914	80.6411	33.6914	80.4419	33.6914	80.8588	33.6914	80.2573	33.6914	81.1074	33.6914	80.089	33.6914	81.4116	33.6914	79.9428	33.6914	81.8126	33.6914	79.8277	33.6914	82.3648	33.6914	79.7555	33.6914	83.1165	33.6914	79.7405	33.6914	84.0714	33.6914	79.7985	33.6914	85.1613	33.6914	79.9457	33.6914	86.2608	33.6914	80.197	33.6914	87.2345	33.6914	80.5634	33.6914	87.9765	33.6914	81.0497	33.6914	88.4256	33.6914	81.6526	33.6914	88.5625	33.6914	82.3601	33.6914	88.403	33.6914	83.1525	33.6914	87.9875	33.6914	84.0046	33.6914	87.3711	33.6914	84.888	33.6914	86.6136	33.6914	85.7703
35.1562	81.218	35.1562	80.9935	35.1562	81.4598	35.1562	80.7869	35.1562	81.7238	35.1562	80.6022	35.1562	82.0244	35.1562	80.4458	35.1562	82.3909	35.1562	80.3258	35.1562	82.8711	35.1562	80.2528	35.1562	83.5234	35.1562	80.2388	35.1562	84.3849	35.1562	80.2978	35.1562	85.4268	35.1562	80.4438	35.1562	86.5402	35.1562	80.6901	35.1562	87.5749	35.1562	81.0469	35.1562	88.3969	35.1562	81.5198	35.1562	88.92	35.1562	82.1085	35.1562	89.1106	35.1562	82.8056	35.1562	88.9792	35.1562	83.5966	35.1562	88.5678	35.1562	84.4593	35.1562	87.9367	35.1562	85.3648	35.1562	87.1523	35.1562	86.2772
36.6211	82.1347	36.6211	81.9052	36.6211	82.3854	36.6211	81.6971	36.6211	82.6615	36.6211	81.5137	36.6211	82.9748	36.6211	81.36	36.6211	83.349	36.6211	81.2429	36.6211	83.8222	36.6211	81.171	36.6211	84.4416	36.6211	81.1541	36.6211	85.2387	36.6211	81.2036	36.6211	86.192	36.6211	81.3313	36.6211	87.21	36.6211	81.5487	36.6211	88.1588	36.6211	81.8655	36.6211	88.9126	36.6211	82.2887	36.6211	89.3863	36.6211	82.8207	36.6211	89.5446	36.6211	83.4582	36.6211	89.3954	36.6211	84.1907	36.6211	88.9788	36.6211	85.0002	36.6211	88.3537	36.6211	85.8604	36.6211	87.5856	36.6211	86.7367
38.0859	83.0183	38.0859	82.7717	38.0859	83.2946	38.0859	82.5548	38.0859	83.6038	38.0859	82.3698	38.0859	83.9549	38.0859	82.2203	38.0859	84.3648	38.0859	82.1113	38.0859	84.86	38.0859	82.0491	38.0859	85.4723	38.0859	82.0411	38.0859	86.2217	38.0859	82.0956	38.0859	87.0891	38.0859	82.2219	38.0859	88.001	38.0859	82.429	38.0859	88.846	38.0859	82.7251	38.0859	89.5127	38.0859	83.1167	38.0859	89.9219	38.0859	83.607	38.0859	90.0381	38.0859	84.1953	38.0859	89.867	38.0859	84.8745	38.0859	89.446	38.0859	85.6304	38.0859	88.8317	38.0859	86.4405	38.0859	88.0874	38.0859	87.2732
39.5508	83.7048	39.5508	83.4542	39.5508	83.9853	39.5508	83.2343	39.5508	84.2978	39.5508	83.0477	39.5508	84.6488	39.5508	82.8979	39.5508	85.0519	39.5508	82.7892	39.5508	85.5294	39.5508	82.7271	39.5508	86.1093	39.5508	82.7177	39.5508	86.811	39.5508	82.768	39.5508	87.6208	39.5508	82.8855	39.5508	88.4742	39.5508	83.0779	39.5508	89.2679	39.5508	83.3526	39.5508	89.8947	39.5508	83.7159	39.5508	90.2757	39.5508	84.1719	39.5508	90.3743	39.5508	84.7215	39.5508	90.1951	39.5508	85.3604	39.5508	89.7749	39.5508	86.077	39.5508	89.1698	39.5508	86.8511	39.5508	88.4426	39.5508	87.6529
41.0156	84.1924	41.0156	83.9391	41.0156	84.4833	41.0156	83.7235	41.0156	84.8139	41.0156	83.5468	41.0156	85.1892	41.0156	83.4108	41.0156	85.619	41.0156	83.3182	41.0156	86.1187	41.0156	83.2724	41.0156	86.7068	41.0156	83.2775	41.0156	87.3936	41.0156	83.3384	41.0156	88.1629	41.0156	83.4606	41.0156	88.9579	41.0156	83.6499	41.0156	89.6885	41.0156	83.9126	41.0156	90.2593	41.0156	84.2544	41.0156	90.5972	41.0156	84.6803	41.0156	90.667	41.0156	85.193	41.0156	90.4724	41.0156	85.7912	41.0156	90.0484	41.0156	86.4668	41.0156	89.4498	41.0156	87.2031	41.0156	88.7385	41.0156	87.9731
42.4805	84.7332	42.4805	84.4777	42.4805	85.0283	42.4805	84.2618	42.4805	85.3641	42.4805	84.0863	42.4805	85.7439	42.4805	83.9528	42.4805	86.1742	42.4805	83.8631	42.4805	86.6659	42.4805	83.8199	42.4805	87.2321	42.4805	83.8262	42.4805	87.8796	42.4805	83.8859	42.4805	88.5938	42.4805	84.0034	42.4805	89.3256	42.4805	84.1836	42.4805	89.9954	42.4805	84.4316	42.4805	90.5154	42.4805	84.7525	42.4805	90.8165	42.4805	85.1512	42.4805	90.8643	42.4805	85.6307	42.4805	90.6618	42.4805	86.1907	42.4805	90.2433	42.4805	86.8249	42.4805	89.6622	42.4805	87.519	42.4805	88.9785	42.4805	88.2486
43.9453	85.4873	43.9453	85.2218	43.9453	85.7938	43.9453	84.9976	43.9453	86.1414	43.9453	84.8155	43.9453	86.5314	43.9453	84.6762	43.9453	86.9674	43.9453	84.5812	43.9453	87.4557	43.9453	84.5322	43.9453	88.0049	43.9453	84.5315	43.9453	88.619	43.9453	84.582	43.9453	89.2847	43.9453	84.6871	43.9453	89.9592	43.9453	84.8511	43.9453	90.5716	43.9453	85.0786	43.9453	91.0417	43.9453	85.3748	43.9453	91.3042	43.9453	85.7453	43.9453	91.3253	43.9453	86.1945	43.9453	91.1071	43.9453	86.7239	43.9453	90.6818	43.9453	87.3297	43.9453	90.1016	43.9453	87.9991	43.9453	89.4255	43.9453	88.7093
45.4102	85.9524	45.4102	85.6842	45.4102	86.2668	45.4102	85.4631	45.4102	86.6266	45.4102	85.2894	45.4102	87.0316	45.4102	85.1632	45.4102	87.4831	45.4102	85.0848	45.4102	87.9851	45.4102	85.0545	45.4102	88.5425	45.4102	85.0727	45.4102	89.1561	45.4102	85.1409	45.4102	89.8105	45.4102	85.2607	45.4102	90.4639	45.4102	85.435	45.4102	91.0494	45.4102	85.6672	45.4102	91.4922	45.4102	85.9616	45.4102	91.7316	45.4102	86.3231	45.4102	91.7368	45.4102	86.7565	45.4102	91.5115	45.4102	87.2642	45.4102	91.0882	45.4102	87.8438	45.4102	90.5186	45.4102	88.4852	45.4102	89.8606	45.4102	89.1681
46.875	86.4706	46.875	86.19	46.875	86.8025	46.875	85.9614	46.875	87.1842	46.875	85.7847	46.875	87.6139	46.875	85.6593	46.875	88.0896	46.875	85.5844	46.875	88.6105	46.875	85.5591	46.875	89.1754	46.875	85.5833	46.875	89.7794	46.875	85.657	46.875	90.4047	46.875	85.7815	46.875	91.0131	46.875	85.9586	46.875	91.5465	46.875	86.1909	46.875	91.9396	46.875	86.4822	46.875	92.1388	46.875	86.8367	46.875	92.1171	46.875	87.2584	46.875	91.8785	46.875	87.7498	46.875	91.4547	46.875	88.3089	46.875	90.8952	46.875	88.9268	46.875	90.255	46.875	89.5852
48.3398	86.9889	48.3398	86.6978	48.3398	87.333	48.3398	86.4618	48.3398	87.727	48.3398	86.2817	48.3398	88.1669	48.3398	86.1568	48.3398	88.6484	48.3398	86.086	48.3398	89.1678	48.3398	86.0676	48.3398	89.721	48.3398	86.0998	48.3398	90.3008	48.3398	86.1814	48.3398	90.8896	48.3398	86.3119	48.3398	91.4527	48.3398	86.4914	48.3398	91.9381	48.3398	86.7212	48.3398	92.2869	48.3398	87.0035	48.3398	92.4504	48.3398	87.3414	48.3398	92.404	48.3398	87.7387	48.3398	92.153	48.3398	88.1986	48.3398	91.7291	48.3398	88.7212	48.3398	91.1811	48.3398	89.301	48.3398	90.5629	48.3398	89.9235
51.2695	87.8183	51.2695	87.5312	51.2695	88.1582	51.2695	87.2997	51.2695	88.5461	51.2695	87.1242	51.2695	88.9745	51.2695	87.0042	51.2695	89.4341	51.2695	86.9382	51.2695	89.915	51.2695	86.924	51.2695	90.4093	51.2695	86.9595	51.2695	90.912	51.2695	87.0426	51.2695	91.4172	51.2695	87.1713	51.2695	91.9087	51.2695	87.3444	51.2695	92.35	51.2695	87.5617	51.2695	92.6859	51.2695	87.8238	51.2695	92.8597	51.2695	88.133	51.2695	92.8347	51.2695	88.493	51.2695	92.6071	51.2695	88.9081	51.2695	92.2061	51.2695	89.3818	51.2695	91.6825	51.2695	89.9128	51.2695	91.0937	51.2695	90.4911
52.7344	88.285	52.7344	87.9998	52.7344	88.623	52.7344	87.7703	52.7344	89.0083	52.7344	87.5972	52.7344	89.4325	52.7344	87.4796	52.7344	89.8847	52.7344	87.4155	52.7344	90.3538	52.7344	87.4023	52.7344	90.8304	52.7344	87.4374	52.7344	91.3085	52.7344	87.5181	52.7344	91.7832	52.7344	87.6418	52.7344	92.2407	52.7344	87.8068	52.7344	92.6488	52.7344	88.0124	52.7344	92.9567	52.7344	88.2591	52.7344	93.1105	52.7344	88.5492	52.7344	93.0744	52.7344	88.8868	52.7344	92.8447	52.7344	89.2773	52.7344	92.4493	52.7344	89.7252	52.7344	91.9377	52.7344	90.2307	52.7344	91.3663	52.7344	90.785
54.1992	88.8459	54.1992	88.5647	54.1992	89.1807	54.1992	88.3404	54.1992	89.5626	54.1992	88.1736	54.1992	89.9818	54.1992	88.0629	54.1992	90.426	54.1992	88.0055	54.1992	90.8827	54.1992	87.9981	54.1992	91.3419	54.1992	88.0369	54.1992	91.7979	54.1992	88.1183	54.1992	92.2465	54.1992	88.2394	54.1992	92.6758	54.1992	88.3976	54.1992	93.0557	54.1992	88.592	54.1992	93.3382	54.1992	88.8232	54.1992	93.4723	54.1992	89.094	54.1992	93.4248	54.1992	89.4094	54.1992	93.1931	54.1992	89.7754	54.1992	92.8054	54.1992	90.1976	54.1992	92.3099	54.1992	90.6765	54.1992	91.7603	54.1992	91.2043
55.6641	89.4825	55.6641	89.1951	55.6641	89.8256	55.6641	88.9677	55.6641	90.2168	55.6641	88.8011	55.6641	90.6447	55.6641	88.6935	55.6641	91.0963	55.6641	88.6412	55.6641	91.5581	55.6641	88.6395	55.6641	92.0194	55.6641	88.6834	55.6641	92.4727	55.6641	88.7679	55.6641	92.9107	55.6641	88.8889	55.6641	93.3184	55.6641	89.0434	55.6641	93.6646	55.6641	89.2301	55.6641	93.9047	55.6641	89.4499	55.6641	93.9943	55.6641	89.706	55.6641	93.9083	55.6641	90.0036	55.6641	93.6505	55.6641	90.349	55.6641	93.2526	55.6641	90.7473	55.6641	92.7625	55.6641	91.1998	55.6641	92.2308	55.6641	91.6999
58.5938	90.0294	58.5938	89.7128	58.5938	90.4	58.5938	89.4555	58.5938	90.8167	58.5938	89.2599	58.5938	91.2688	58.5938	89.1258	58.5938	91.7435	58.5938	89.0509	58.5938	92.2265	58.5938	89.0312	58.5938	92.7024	58.5938	89.0618	58.5938	93.1559	58.5938	89.1377	58.5938	93.5703	58.5938	89.2539	58.5938	93.9248	58.5938	89.4064	58.5938	94.1915	58.5938	89.5923	58.5938	94.3371	58.5938	89.8101	58.5938	94.3323	58.5938	90.0599	58.5938	94.1641	58.5938	90.3437	58.5938	93.8445	58.5938	90.6648	58.5938	93.4099	58.5938	91.028	58.5938	92.9098	58.5938	91.4378	58.5938	92.3927	58.5938	91.8951
60.0586	90.2518	60.0586	89.9318	60.0586	90.6238	60.0586	89.6692	60.0586	91.0398	60.0586	89.4668	60.0586	91.4888	60.0586	89.3247	60.0586	91.9569	60.0586	89.2411	60.0586	92.4282	60.0586	89.2125	60.0586	92.8853	60.0586	89.2344	60.0586	93.3109	60.0586	89.3015	60.0586	93.6881	60.0586	89.4089	60.0586	93.9986	60.0586	89.5519	60.0586	94.2197	60.0586	89.7268	60.0586	94.3242	60.0586	89.9313	60.0586	94.2878	60.0586	90.1645	60.0586	94.0998	60.0586	90.4277	60.0586	93.7722	60.0586	90.7247	60.0586	93.3396	60.0586	91.0613	60.0586	92.8497	60.0586	91.4435	60.0586	92.3498	60.0586	91.8748
62.9883	90.6291	62.9883	90.3038	62.9883	91.0057	62.9883	90.0359	62.9883	91.4246	62.9883	89.8283	62.9883	91.8733	62.9883	89.6815	62.9883	92.3363	62.9883	89.5936	62.9883	92.7955	62.9883	89.561	62.9883	93.231	62.9883	89.5784	62.9883	93.6239	62.9883	89.6402	62.9883	93.9567	62.9883	89.7403	62.9883	94.2131	62.9883	89.8729	62.9883	94.3753	62.9883	90.0333	62.9883	94.4233	62.9883	90.2181	62.9883	94.3393	62.9883	90.4258	62.9883	94.1171	62.9883	90.6575	62.9883	93.7712	62.9883	90.9175	62.9883	93.3363	62.9883	91.2132	62.9883	92.8593	62.9883	91.5533	62.9883	92.3847	62.9883	91.9443
64.4531	90.7335	64.4531	90.4055	64.4531	91.1123	64.4531	90.1344	64.4531	91.5326	64.4531	89.9233	64.4531	91.9816	64.4531	89.7727	64.4531	92.4431	64.4531	89.6807	64.4531	92.8979	64.4531	89.6437	64.4531	93.3254	64.4531	89.6564	64.4531	93.7055	64.4531	89.7129	64.4531	94.0201	64.4531	89.8069	64.4531	94.2535	64.4531	89.9326	64.4531	94.3898	64.4531	90.085	64.4531	94.4122	64.4531	90.2604	64.4531	94.306	64.4531	90.4573	64.4531	94.0677	64.4531	90.6769	64.4531	93.7126	64.4531	90.9237	64.4531	93.2757	64.4531	91.2054	64.4531	92.8028	64.4531	91.5313	64.4531	92.337	64.4531	91.9086
67.3828	90.8841	67.3828	90.548	67.3828	91.2713	67.3828	90.2704	67.3828	91.6985	67.3828	90.0552	67.3828	92.1512	67.3828	89.903	67.3828	92.6115	67.3828	89.8114	67.3828	93.0589	67.3828	89.7761	67.3828	93.472	67.3828	89.7909	67.3828	93.8301	67.3828	89.8488	67.3828	94.1152	67.3828	89.9428	67.3828	94.312	67.3828	90.0659	67.3828	94.4068	67.3828	90.2124	67.3828	94.3865	67.3828	90.3779	67.3828	94.2421	67.3828	90.5606	67.3828	93.9754	67.3828	90.7613	67.3828	93.6059	67.3828	90.9844	67.3828	93.1701	67.3828	91.2379	67.3828	92.7124	67.3828	91.5321	67.3828	92.2726	67.3828	91.876
68.8477	90.9651	68.8477	90.6221	68.8477	91.3573	68.8477	90.3366	68.8477	91.7869	68.8477	90.1134	68.8477	92.2389	68.8477	89.9541	68.8477	92.6954	68.8477	89.8568	68.8477	93.1361	68.8477	89.8171	68.8477	93.5394	68.8477	89.8289	68.8477	93.8841	68.8477	89.8847	68.8477	94.1511	68.8477	89.9765	68.8477	94.3242	68.8477	90.0967	68.8477	94.3898	68.8477	90.2388	68.8477	94.3368	68.8477	90.3978	68.8477	94.1603	68.8477	90.5712	68.8477	93.867	68.8477	90.7593	68.8477	93.4808	68.8477	90.9663	68.8477	93.0402	68.8477	91.2002	68.8477	92.5898	68.8477	91.4718	68.8477	92.1665	68.8477	91.792
71.7773	91.0791	71.7773	90.7242	71.7773	91.4771	71.7773	90.4216	71.7773	91.9056	71.7773	90.1772	71.7773	92.3493	71.7773	89.9935	71.7773	92.7897	71.7773	89.87	71.7773	93.2059	71.7773	89.8032	71.7773	93.5751	71.7773	89.7874	71.7773	93.8744	71.7773	89.8151	71.7773	94.0835	71.7773	89.8784	71.7773	94.1866	71.7773	89.9693	71.7773	94.1733	71.7773	90.0804	71.7773	94.0391	71.7773	90.2062	71.7773	93.787	71.7773	90.3432	71.7773	93.4318	71.7773	90.4916	71.7773	93.0026	71.7773	90.6554	71.7773	92.541	71.7773	90.8436	71.7773	92.0913	71.7773	91.0693	71.7773	91.6877	71.7773	91.3471
74.707	91.0996	74.707	90.7368	74.707	91.5027	74.707	90.4244	74.707	91.9334	74.707	90.1688	74.707	92.3758	74.707	89.9733	74.707	92.8113	74.707	89.8375	74.707	93.2185	74.707	89.758	74.707	93.5738	74.707	89.729	74.707	93.853	74.707	89.7428	74.707	94.0345	74.707	89.7912	74.707	94.1019	74.707	89.8658	74.707	94.046	74.707	89.9595	74.707	93.866	74.707	90.0666	74.707	93.5707	74.707	90.1844	74.707	93.1804	74.707	90.3131	74.707	92.7285	74.707	90.4576	74.707	92.2579	74.707	90.6268	74.707	91.8111	74.707	90.834	74.707	91.4188	74.707	91.094
77.6367	90.8962	77.6367	90.5225	77.6367	91.3103	77.6367	90.2001	77.6367	91.751	77.6367	89.9367	77.6367	92.202	77.6367	89.7365	77.6367	92.6443	77.6367	89.5998	77.6367	93.056	77.6367	89.5231	77.6367	93.4127	77.6367	89.5004	77.6367	93.6885	77.6367	89.5236	77.6367	93.8599	77.6367	89.5834	77.6367	93.9087	77.6367	89.6709	77.6367	93.826	77.6367	89.7779	77.6367	93.614	77.6367	89.8977	77.6367	93.2873	77.6367	90.0261	77.6367	92.8741	77.6367	90.1618	77.6367	92.4147	77.6367	90.3069	77.6367	91.9549	77.6367	90.4683	77.6367	91.5348	77.6367	90.6572	77.6367	91.1779	77.6367	90.8886
79.1016	90.8078	79.1016	90.4271	79.1016	91.2263	79.1016	90.0962	79.1016	91.6684	79.1016	89.8241	79.1016	92.1177	79.1016	89.6161	79.1016	92.5556	79.1016	89.4737	79.1016	92.9602	79.1016	89.3942	79.1016	93.3073	79.1016	89.3718	79.1016	93.5708	79.1016	89.3981	79.1016	93.7267	79.1016	89.4632	79.1016	93.7568	79.1016	89.5573	79.1016	93.6527	79.1016	89.6709	79.1016	93.418	79.1016	89.7961	79.1016	93.0703	79.1016	89.9273	79.1016	92.6415	79.1016	90.0615	79.1016	92.1757	79.1016	90.1996	79.1016	91.7209	79.1016	90.3473	79.1016	91.3169	79.1016	90.5159	79.1016	90.9841	79.1016	90.7219
82.0312	90.6966	82.0312	90.3134	82.0312	91.1095	82.0312	89.9722	82.0312	91.5386	82.0312	89.6831	82.0312	91.9683	82.0312	89.4538	82.0312	92.3809	82.0312	89.2879	82.0312	92.7558	82.0312	89.1855	82.0312	93.0689	82.0312	89.1422	82.0312	93.295	82.0312	89.1503	82.0312	93.4103	82.0312	89.2002	82.0312	93.3974	82.0312	89.2806	82.0312	93.2486	82.0312	89.3807	82.0312	92.9691	82.0312	89.4905	82.0312	92.5786	82.0312	89.6019	82.0312	92.1122	82.0312	89.7101	82.0312	91.618	82.0312	89.8149	82.0312	91.1489	82.0312	89.9224	82.0312	90.7481	82.0312	90.0468	82.0312	90.4364	82.0312	90.2096
84.9609	90.6104	84.9609	90.229	84.9609	91.0186	84.9609	89.8861	84.9609	91.4399	84.9609	89.5909	84.9609	91.8588	84.9609	89.3501	84.9609	92.2569	84.9609	89.167	84.9609	92.613	84.9609	89.0412	84.9609	92.9031	84.9609	88.9689	84.9609	93.1015	84.9609	88.9429	84.9609	93.1843	84.9609	88.9544	84.9609	93.1339	84.9609	88.9935	84.9609	92.9432	84.9609	89.0506	84.9609	92.6191	84.9609	89.1174	84.9609	92.1852	84.9609	89.1876	84.9609	91.6804	84.9609	89.2588	84.9609	91.1558	84.9609	89.3331	84.9609	90.6644	84.9609	89.4188	84.9609	90.2474	84.9609	89.5314	84.9609	89.9245	84.9609	89.692
87.8906	90.3096	87.8906	89.9139	87.8906	90.7314	87.8906	89.5571	87.8906	91.1645	87.8906	89.25	87.8906	91.5927	87.8906	89.0005	87.8906	91.9975	87.8906	88.8127	87.8906	92.3571	87.8906	88.6866	87.8906	92.6465	87.8906	88.6177	87.8906	92.8385	87.8906	88.5981	87.8906	92.907	87.8906	88.6175	87.8906	92.8328	87.8906	88.6645	87.8906	92.6092	87.8906	88.728	87.8906	92.2462	87.8906	88.7984	87.8906	91.7733	87.8906	88.8686	87.8906	91.2372	87.8906	88.9353	87.8906	90.6957	87.8906	89.0004	87.8906	90.2048	87.8906	89.0717	87.8906	89.8037	87.8906	89.1644	87.8906	89.5057	87.8906	89.3004
90.8203	90.0339	90.8203	89.6395	90.8203	90.4515	90.8203	89.2817	90.8203	90.8776	90.8203	88.9717	90.8203	91.2959	90.8203	88.7179	90.8203	91.6879	90.8203	88.525	90.8203	92.0319	90.8203	88.3929	90.8203	92.3028	90.8203	88.3175	90.8203	92.4735	90.8203	88.291	90.8203	92.5181	90.8203	88.303	90.8203	92.4179	90.8203	88.3425	90.8203	92.1673	90.8203	88.3986	90.8203	91.7785	90.8203	88.4618	90.8203	91.2842	90.8203	88.5249	90.8203	90.7354	90.8203	88.5841	90.8203	90.1936	90.8203	88.64	90.8203	89.7156	90.8203	88.6992	90.8203	89.3377	90.8203	88.7751	90.8203	89.0674	90.8203	88.8888
95.2148	89.4952	95.2148	89.077	95.2148	89.933	95.2148	88.6948	95.2148	90.3734	95.2148	88.3628	95.2148	90.7981	95.2148	88.0921	95.2148	91.188	95.2148	87.8893	95.2148	91.5218	95.2148	87.7552	95.2148	91.7754	95.2148	87.6852	95.2148	91.9231	95.2148	87.67	95.2148	91.9405	95.2148	87.6975	95.2148	91.8096	95.2148	87.754	95.2148	91.5256	95.2148	87.8266	95.2148	91.1027	95.2148	87.9034	95.2148	90.5772	95.2148	87.9753	95.2148	90.006	95.2148	88.0367	95.2148	89.4566	95.2148	88.0866	95.2148	88.9892	95.2148	88.1306	95.2148	88.6379	95.2148	88.1818	95.2148	88.4037	95.2148	88.2627
98.1445	89.1751	98.1445	88.7413	98.1445	89.6198	98.1445	88.3364	98.1445	90.0578	98.1445	87.9769	98.1445	90.4712	98.1445	87.677	98.1445	90.8417	98.1445	87.446	98.1445	91.1493	98.1445	87.287	98.1445	91.3718	98.1445	87.1968	98.1445	91.4846	98.1445	87.1662	98.1445	91.4642	98.1445	87.1822	98.1445	91.2937	98.1445	87.2299	98.1445	90.9688	98.1445	87.2944	98.1445	90.505	98.1445	87.3622	98.1445	89.9408	98.1445	87.4225	98.1445	89.3366	98.1445	87.4686	98.1445	88.7638	98.1445	87.499	98.1445	88.2858	98.1445	87.5193	98.1445	87.9374	98.1445	87.5444	98.1445	87.7177	98.1445	87.5992
101.074	88.9283	101.074	88.484	101.074	89.3751	101.074	88.0619	101.074	89.8057	101.074	87.6806	101.074	90.2019	101.074	87.3567	101.074	90.5457	101.074	87.1016	101.074	90.818	101.074	86.9199	101.074	90.9979	101.074	86.8087	101.074	91.0632	101.074	86.7589	101.074	90.9933	101.074	86.7567	101.074	90.7741	101.074	86.7864	101.074	90.405	101.074	86.8323	101.074	89.9039	101.074	86.8805	101.074	89.3113	101.074	86.9196	101.074	88.6884	101.074	86.9428	101.074	88.1064	101.074	86.9488	101.074	87.6276	101.074	86.9442	101.074	87.2858	101.074	86.945	101.074	87.0787	101.074	86.978
105.469	89.1011	105.469	88.6327	105.469	89.5463	105.469	88.1625	105.469	89.9493	105.469	87.7138	105.469	90.2927	105.469	87.3094	105.469	90.56	105.469	86.9689	105.469	90.7344	105.469	86.705	105.469	90.7986	105.469	86.5201	105.469	90.7353	105.469	86.4071	105.469	90.5315	105.469	86.3507	105.469	90.1826	105.469	86.3318	105.469	89.6981	105.469	86.3309	105.469	89.105	105.469	86.3311	105.469	88.45	105.469	86.3206	105.469	87.7959	105.469	86.2935	105.469	87.2104	105.469	86.2514	105.469	86.7473	105.469	86.204	105.469	86.4295	105.469	86.1692	105.469	86.248	105.469	86.173
108.398	89.6396	108.398	89.1731	108.398	90.0727	108.398	88.693	108.398	90.4544	108.398	88.2209	108.398	90.7676	108.398	87.779	108.398	90.9955	108.398	87.3882	108.398	91.1207	108.398	87.0645	108.398	91.1251	108.398	86.8164	108.398	90.9917	108.398	86.6429	108.398	90.7088	108.398	86.534	108.398	90.2762	108.398	86.4735	108.398	89.7099	108.398	86.4421	108.398	89.0451	108.398	86.4213	108.398	88.3354	108.398	86.396	108.398	87.648	108.398	86.3565	108.398	87.0519	108.398	86.3004	108.398	86.6002	108.398	86.2334	108.398	86.3119	108.398	86.1707	108.398	86.1706	108.398	86.1377
112.793	89.6125	112.793	89.1404	112.793	90.0548	112.793	88.657	112.793	90.4502	112.793	88.1823	112.793	90.7819	112.793	87.736	112.793	91.0335	112.793	87.3365	112.793	91.1867	112.793	86.9977	112.793	91.2215	112.793	86.7276	112.793	91.1175	112.793	86.5263	112.793	90.8585	112.793	86.3867	112.793	90.4399	112.793	86.2966	112.793	89.8756	112.793	86.2406	112.793	89.2022	112.793	86.2035	112.793	88.4773	112.793	86.1724	112.793	87.7707	112.793	86.1389	112.793	87.1503	112.793	86.1004	112.793	86.665	112.793	86.0623	112.793	86.3323	112.793	86.0387	112.793	86.139	112.793	86.0535
117.188	89.336	117.188	88.8683	117.188	89.7719	117.188	88.3871	117.188	90.159	117.188	87.9115	117.188	90.4806	117.188	87.4606	117.188	90.7196	117.188	87.0521	117.188	90.8575	117.188	86.7004	117.188	90.8738	117.188	86.4141	117.188	90.7478	117.188	86.1957	117.188	90.4636	117.188	86.0408	117.188	90.0179	117.188	85.9398	117.188	89.4278	117.188	85.8794	117.188	88.7346	117.188	85.8452	117.188	88.0018	117.188	85.8234	117.188	87.3038	117.188	85.8034	117.188	86.7089	117.188	85.7791	117.188	86.2599	117.188	85.7516	117.188	85.9651	117.188	85.7309	117.188	85.8033	117.188	85.7379
120.117	89.3688	120.117	88.8923	120.117	89.8083	120.117	88.3998	120.117	90.1905	120.117	87.9122	120.117	90.4957	120.117	87.4492	120.117	90.7045	120.117	87.0276	120.117	90.7969	120.117	86.6597	120.117	90.7526	120.117	86.352	120.117	90.5533	120.117	86.1053	120.117	90.1882	120.117	85.9153	120.117	89.6619	120.117	85.7736	120.117	89.0008	120.117	85.6694	120.117	88.2542	120.117	85.5904	120.117	87.4893	120.117	85.5249	120.117	86.7782	120.117	85.4628	120.117	86.1827	120.117	85.3986	120.117	85.7395	120.117	85.3341	120.117	85.4542	120.117	85.2806	120.117	85.3061	120.117	85.2606
124.512	89.8967	124.512	89.3929	124.512	90.3549	124.512	88.8662	124.512	90.747	124.512	88.3411	124.512	91.0544	124.512	87.8421	124.512	91.2592	124.512	87.3913	124.512	91.3432	124.512	87.0052	124.512	91.2869	124.512	86.6924	124.512	91.0719	124.512	86.4528	124.512	90.6868	124.512	86.279	124.512	90.1371	124.512	86.1584	124.512	89.4542	124.512	86.0763	124.512	88.6979	124.512	86.0181	124.512	87.9459	124.512	85.9714	124.512	87.2725	124.512	85.928	124.512	86.7275	124.512	85.8854	124.512	86.3278	124.512	85.848	124.512	86.0637	124.512	85.8273	124.512	85.9108	124.512	85.8407
128.906	89.7207	128.906	89.2237	128.906	90.1762	128.906	88.7071	128.906	90.5701	128.906	88.1934	128.906	90.8835	128.906	87.7052	128.906	91.0975	128.906	87.2621	128.906	91.1921	128.906	86.8792	128.906	91.1453	128.906	86.5649	128.906	90.9349	128.906	86.3206	128.906	90.5448	128.906	86.1414	128.906	89.9762	128.906	86.0176	128.906	89.2604	128.906	85.9368	128.906	88.4639	128.906	85.8854	128.906	87.6794	128.906	85.8509	128.906	86.9973	128.906	85.823	128.906	86.4729	128.906	85.7957	128.906	86.115	128.906	85.7686	128.906	85.8991	128.906	85.7479	128.906	85.7882	128.906	85.7474
133.301	89.6917	133.301	89.1867	133.301	90.1529	133.301	88.6612	133.301	90.5495	133.301	88.1402	133.301	90.8627	133.301	87.6481	133.301	91.0747	133.301	87.2061	133.301	91.1664	133.301	86.8288	133.301	91.1161	133.301	86.5229	133.301	90.9006	133.301	86.2872	133.301	90.5008	133.301	86.1143	133.301	89.9138	133.301	85.9926	133.301	89.1676	133.301	85.9087	133.301	88.3312	133.301	85.8491	133.301	87.5069	133.301	85.8018	133.301	86.7978	133.301	85.7574	133.301	86.2659	133.301	85.7109	133.301	85.9162	133.301	85.6633	133.301	85.7161	133.301	85.6219	133.301	85.6234	133.301	85.6015
139.16	89.4228	139.16	88.9376	139.16	89.869	139.16	88.4357	139.16	90.2566	139.16	87.9418	139.16	90.5687	139.16	87.4794	139.16	90.7888	139.16	87.0678	139.16	90.8982	139.16	86.7186	139.16	90.8732	139.16	86.4344	139.16	90.6849	139.16	86.2097	139.16	90.3046	139.16	86.0334	139.16	89.7158	139.16	85.8915	139.16	88.933	139.16	85.7698	139.16	88.0183	139.16	85.6558	139.16	87.0835	139.16	85.5401	139.16	86.2599	139.16	85.4177	139.16	85.641	139.16	85.2893	139.16	85.2454	139.16	85.1623	139.16	85.0352	139.16	85.0509	139.16	84.9591	139.16	84.9748
143.555	88.9883	143.555	88.4807	143.555	89.4629	143.555	87.9648	143.555	89.8834	143.555	87.4684	143.555	90.2318	143.555	87.0184	143.555	90.4903	143.555	86.6362	143.555	90.639	143.555	86.3334	143.555	90.6527	143.555	86.1094	143.555	90.5011	143.555	85.9533	143.555	90.1527	143.555	85.8478	143.555	89.5872	143.555	85.7729	143.555	88.8126	143.555	85.7091	143.555	87.8834	143.555	85.6396	143.555	86.9088	143.555	85.5516	143.555	86.0315	143.555	85.4376	143.555	85.3699	143.555	85.2971	143.555	84.9648	143.555	85.1379	143.555	84.7822	143.555	84.9767	143.555	84.7594	143.555	84.8391
147.949	88.4689	147.949	87.9367	147.949	88.9632	147.949	87.3954	147.949	89.3966	147.949	86.8779	147.949	89.7509	147.949	86.4166	147.949	90.0108	147.949	86.0375	147.949	90.1603	147.949	85.7534	147.949	90.1804	147.949	85.5625	147.949	90.0467	147.949	85.4503	147.949	89.7324	147.949	85.3951	147.949	89.218	147.949	85.3727	147.949	88.5066	147.949	85.3601	147.949	87.6398	147.949	85.3374	147.949	86.7089	147.949	85.2887	147.949	85.8422	147.949	85.2035	147.949	85.1613	147.949	85.0791	147.949	84.727	147.949	84.9221	147.949	84.5264	147.949	84.7511	147.949	84.5041	147.949	84.5973
153.809	88.592	153.809	88.0255	153.809	89.0858	153.809	87.4176	153.809	89.4842	153.809	86.8093	153.809	89.7714	153.809	86.2474	153.809	89.9349	153.809	85.7755	153.809	89.9635	153.809	85.4218	153.809	89.8452	153.809	85.1912	153.809	89.5668	153.809	85.0666	153.809	89.1172	153.809	85.0168	153.809	88.4946	153.809	85.0074	153.809	87.7162	153.809	85.0066	153.809	86.8271	153.809	84.9886	153.809	85.9077	153.809	84.9341	153.809	85.0687	153.809	84.8312	153.809	84.4197	153.809	84.677	153.809	84.022	153.809	84.4792	153.809	83.8665	153.809	84.2582	153.809	83.8978	153.809	84.0484
159.668	89.0427	159.668	88.3918	159.668	89.5955	159.668	87.672	159.668	90.0288	159.668	86.9229	159.668	90.3261	159.668	86.1955	159.668	90.4738	159.668	85.546	159.668	90.4594	159.668	85.0232	159.668	90.2705	159.668	84.6523	159.668	89.8957	159.668	84.4255	159.668	89.3308	159.668	84.3076	159.668	88.5879	159.668	84.2511	159.668	87.7029	159.668	84.2103	159.668	86.7329	159.668	84.1498	159.668	85.7477	159.668	84.0465	159.668	84.8234	159.668	83.8903	159.668	84.0369	159.668	83.6844	159.668	83.4525	159.668	83.447	159.668	83.1027	159.668	83.2134	159.668	82.9783	159.668	83.0359
165.527	89.0941	165.527	88.435	165.527	89.6489	165.527	87.6928	165.527	90.0812	165.527	86.8938	165.527	90.3741	165.527	86.0715	165.527	90.5113	165.527	85.2685	165.527	90.4769	165.527	84.5329	165.527	90.2545	165.527	83.9104	165.527	89.8294	165.527	83.431	165.527	89.1964	165.527	83.099	165.527	88.3723	165.527	82.8917	165.527	87.4057	165.527	82.77	165.527	86.3733	165.527	82.6912	165.527	85.3599	165.527	82.6209	165.527	84.4384	165.527	82.5387	165.527	83.6608	165.527	82.4411	165.527	83.0567	165.527	82.3421	165.527	82.633	165.527	82.2716	165.527	82.3787	165.527	82.2699
171.387	89.884	171.387	89.1954	171.387	90.4654	171.387	88.4345	171.387	90.9089	171.387	87.6375	171.387	91.1898	171.387	86.8364	171.387	91.2881	171.387	86.0544	171.387	91.1861	171.387	85.3032	171.387	90.8656	171.387	84.5849	171.387	90.3086	171.387	83.8975	171.387	89.5044	171.387	83.2389	171.387	88.4652	171.387	82.6102	171.387	87.2427	171.387	82.0154	171.387	85.9267	171.387	81.4587	171.387	84.6155	171.387	80.9434	171.387	83.375	171.387	80.4725	171.387	82.2336	171.387	80.0552	171.387	81.2175	171.387	79.7178	171.387	80.3821	171.387	79.513	171.387	79.8005	171.387	79.5173
177.246	90.2221	177.246	89.542	177.246	90.7841	177.246	88.7776	177.246	91.205	177.246	87.9738	177.246	91.4702	177.246	87.184	177.246	91.5708	177.246	86.4623	177.246	91.5009	177.246	85.8503	177.246	91.2541	177.246	85.3665	177.246	90.8225	177.246	85.0051	177.246	90.2029	177.246	84.7441	177.246	89.4128	177.246	84.5575	177.246	88.5092	177.246	84.4227	177.246	87.5899	177.246	84.3223	177.246	86.7596	177.246	84.244	177.246	86.0774	177.246	84.1815	177.246	85.539	177.246	84.1369	177.246	85.108	177.246	84.1235	177.246	84.756	177.246	84.1634	177.246	84.4768	177.246	84.2779
183.105	88.9564	183.105	88.2843	183.105	89.5121	183.105	87.5282	183.105	89.9323	183.105	86.7345	183.105	90.208	183.105	85.9608	183.105	90.3374	183.105	85.2665	183.105	90.3211	183.105	84.6995	183.105	90.1582	183.105	84.2841	183.105	89.844	183.105	84.0206	183.105	89.3751	183.105	83.8928	183.105	88.7646	183.105	83.8788	183.105	88.0598	183.105	83.9557	183.105	87.3482	183.105	84.0994	183.105	86.7319	183.105	84.2847	183.105	86.2752	183.105	84.4874	183.105	85.9705	183.105	84.6886	183.105	85.7594	183.105	84.8793	183.105	85.5832	183.105	85.0601	183.105	85.411	183.105	85.2364
188.965	89.4525	188.965	88.7558	188.965	89.9902	188.965	87.9287	188.965	90.353	188.965	87.0167	188.965	90.5341	188.965	86.0841	188.965	90.5333	188.965	85.2096	188.965	90.3545	188.965	84.472	188.965	90.0039	188.965	83.9273	188.965	89.491	188.965	83.5928	188.965	88.8367	188.965	83.4491	188.965	88.0874	188.965	83.4569	188.965	87.3196	188.965	83.5735	188.965	86.6203	188.965	83.7605	188.965	86.0561	188.965	83.9857	188.965	85.6578	188.965	84.2232	188.965	85.4169	188.965	84.4537	188.965	85.2867	188.965	84.6644	188.965	85.2032	188.965	84.8478	188.965	85.1155	188.965	84.9988
196.289	90.495	196.289	89.8187	196.289	91.0001	196.289	88.9949	196.289	91.3217	196.289	88.0643	196.289	91.4542	196.289	87.0872	196.289	91.3947	196.289	86.1413	196.289	91.1393	196.289	85.3089	196.289	90.6803	196.289	84.6536	196.289	90.0068	196.289	84.2009	196.289	89.1179	196.289	83.9345	196.289	88.0507	196.289	83.8112	196.289	86.908	196.289	83.7795	196.289	85.8443	196.289	83.7907	196.289	84.9917	196.289	83.8045	196.289	84.3914	196.289	83.7918	196.289	84.0026	196.289	83.7398	196.289	83.7568	196.289	83.6557	196.289	83.602	196.289	83.5669	196.289	83.5202	196.289	83.5116
203.613	90.1242	203.613	89.559	203.613	90.5309	203.613	88.8482	203.613	90.7725	203.613	88.0148	203.613	90.8459	203.613	87.0963	203.613	90.7496	203.613	86.1485	203.613	90.4801	203.613	85.2446	203.613	90.0288	203.613	84.4655	203.613	89.3836	203.613	83.8789	203.613	88.5483	203.613	83.5157	203.613	87.5773	203.613	83.3597	203.613	86.592	203.613	83.3572	203.613	85.7231	203.613	83.4391	203.613	85.0149	203.613	83.5407	203.613	84.4343	203.613	83.6134	203.613	83.9659	203.613	83.6319	203.613	83.6366	203.613	83.5948	203.613	83.4609	203.613	83.5222	203.613	83.413	203.613	83.4482
210.938	89.2138	210.938	88.6222	210.938	89.6905	210.938	87.9406	210.938	90.0331	210.938	87.201	210.938	90.2265	210.938	86.4412	210.938	90.257	210.938	85.7027	210.938	90.1105	210.938	85.0259	210.938	89.7703	210.938	84.4472	210.938	89.2188	210.938	83.9978	210.938	88.4536	210.938	83.7017	210.938	87.5254	210.938	83.5718	210.938	86.5774	210.938	83.6021	210.938	85.813	210.938	83.7622	210.938	85.3485	210.938	84.0003	210.938	85.1204	210.938	84.2561	210.938	84.9949	210.938	84.4776	210.938	84.8978	210.938	84.6332	210.938	84.8223	210.938	84.7184	210.938	84.7781	210.938	84.7544
218.262	89.5796	218.262	88.9217	218.262	90.0976	218.262	88.1577	218.262	90.4468	218.262	87.3239	218.262	90.605	218.262	86.4604	218.262	90.5581	218.262	85.6123	218.262	90.2968	218.262	84.8307	218.262	89.8111	218.262	84.1679	218.262	89.0876	218.262	83.6678	218.262	88.1281	218.262	83.3524	218.262	86.9985	218.262	83.2135	218.262	85.8787	218.262	83.2144	218.262	85.0057	218.262	83.3039	218.262	84.4756	218.262	83.4328	218.262	84.1839	218.262	83.5658	218.262	84.0065	218.262	83.6829	218.262	83.9022	218.262	83.7746	218.262	83.8628	218.262	83.835	218.262	83.8619	218.262	83.8614
225.586	89.4161	225.586	88.7811	225.586	89.8927	225.586	88.0248	225.586	90.1902	225.586	87.199	225.586	90.3016	225.586	86.3642	225.586	90.2288	225.586	85.578	225.586	89.977	225.586	84.8834	225.586	89.5483	225.586	84.3041	225.586	88.9399	225.586	83.8495	225.586	88.1594	225.586	83.5233	225.586	87.2652	225.586	83.3276	225.586	86.3949	225.586	83.259	225.586	85.7036	225.586	83.2992	225.586	85.2276	225.586	83.4102	225.586	84.8665	225.586	83.5392	225.586	84.517	225.586	83.6342	225.586	84.1608	225.586	83.6639	225.586	83.853	225.586	83.6367	225.586	83.6629	225.586	83.6088
232.91	88.93	232.91	88.2503	232.91	89.4532	232.91	87.4435	232.91	89.8056	232.91	86.5602	232.91	89.9818	232.91	85.673	232.91	89.9811	232.91	84.8651	232.91	89.8037	232.91	84.2094	232.91	89.4469	232.91	83.746	232.91	88.9052	232.91	83.476	232.91	88.1936	232.91	83.3731	232.91	87.3989	232.91	83.402	232.91	86.699	232.91	83.5284	232.91	86.2506	232.91	83.7206	232.91	86.0349	232.91	83.9482	232.91	85.9141	232.91	84.1822	232.91	85.7891	232.91	84.4009	232.91	85.628	232.91	84.5975	232.91	85.4278	232.91	84.7843	232.91	85.2034	232.91	84.9832
241.699	87.2624	241.699	86.2073	241.699	88.1594	241.699	85.0589	241.699	88.8506	241.699	83.8919	241.699	89.3078	241.699	82.7737	241.699	89.5206	241.699	81.7496	241.699	89.4927	241.699	80.8451	241.699	89.2376	241.699	80.0958	241.699	88.7825	241.699	79.5823	241.699	88.1916	241.699	79.4242	241.699	87.5999	241.699	79.7	241.699	87.185	241.699	80.363	241.699	87.0242	241.699	81.2636	241.699	87.0068	241.699	82.2417	241.699	86.9581	241.699	83.1781	241.699	86.785	241.699	83.9963	241.699	86.4974	241.699	84.6543	241.699	86.1613	241.699	85.148	241.699	85.835	241.699	85.5174
250.488	87.9886	250.488	87.2634	250.488	88.4134	250.488	86.28	250.488	88.5209	250.488	85.1133	250.488	88.315	250.488	83.8721	250.488	87.8214	250.488	82.6719	250.488	87.0916	250.488	81.5768	250.488	86.2101	250.488	80.5583	250.488	85.3299	250.488	79.5266	250.488	84.7638	250.488	78.4192	250.488	84.9475	250.488	77.3279	250.488	85.9328	250.488	76.7007	250.488	87.1853	250.488	77.2793	250.488	88.1898	250.488	79.1153	250.488	88.7519	250.488	81.3993	250.488	88.9046	250.488	83.5115	250.488	88.7777	250.488	85.23	250.488	88.4874	250.488	86.5235	250.488	88.0612	250.488	87.4387
259.277	90.3569	259.277	89.64	259.277	90.7752	259.277	88.6716	259.277	90.868	259.277	87.5221	259.277	90.6262	259.277	86.2859	259.277	90.0513	259.277	85.0725	259.277	89.133	259.277	83.976	259.277	87.812	259.277	83.0354	259.277	85.9622	259.277	82.2171	259.277	83.5577	259.277	81.4361	259.277	81.6546	259.277	80.5957	259.277	82.5522	259.277	79.639	259.277	84.8249	259.277	78.6716	259.277	86.5429	259.277	78.1915	259.277	87.4672	259.277	78.9017	259.277	87.7554	259.277	80.6367	259.277	87.5827	259.277	82.5641	259.277	87.0977	259.277	84.2017	259.277	86.3912	259.277	85.4547
268.066	90.3492	268.066	89.7513	268.066	90.64	268.066	88.8979	268.066	90.607	268.066	87.8811	268.066	90.2623	268.066	86.8303	268.066	89.6345	268.066	85.883	268.066	88.7363	268.066	85.1287	268.066	87.4997	268.066	84.5689	268.066	85.6845	268.066	84.134	268.066	82.7893	268.066	83.7305	268.066	78.4131	268.066	83.2684	268.066	77.7662	268.066	82.6654	268.066	82.0315	268.066	81.8556	268.066	84.723	268.066	80.8427	268.066	85.8678	268.066	79.843	268.066	85.9742	268.066	79.4146	268.066	85.4195	268.066	79.9765	268.066	84.5124	268.066	81.1447	268.066	83.4741	268.066	82.3638
276.855	88.5967	276.855	88.0632	276.855	88.863	276.855	87.2858	276.855	88.9041	276.855	86.3669	276.855	88.8082	276.855	85.4921	276.855	88.6606	276.855	84.8774	276.855	88.4623	276.855	84.6398	276.855	88.0663	276.855	84.7187	276.855	87.171	276.855	84.9552	276.855	85.2923	276.855	85.205	276.855	81.4792	276.855	85.3713	276.855	72.5574	276.855	85.3882	276.855	75.0069	276.855	85.211	276.855	81.9282	276.855	84.8317	276.855	84.8009	276.855	84.3202	276.855	85.9592	276.855	83.8568	276.855	86.1576	276.855	83.6772	276.855	85.7932	276.855	83.9011	276.855	85.1473	276.855	84.4499
287.109	89.2226	287.109	88.0888	287.109	90.0795	287.109	86.6188	287.109	90.721	287.109	84.8112	287.109	91.1845	287.109	82.8658	287.109	91.4701	287.109	81.4255	287.109	91.5388	287.109	81.2744	287.109	91.3129	287.109	82.1989	287.109	90.6608	287.109	83.4062	287.109	89.3578	287.109	84.4848	287.109	86.9948	287.109	85.3357	287.109	82.6248	287.109	85.9536	287.109	72.2502	287.109	86.3535	287.109	76.0011	287.109	86.5694	287.109	82.9211	287.109	86.6691	287.109	85.8065	287.109	86.7492	287.109	87.102	287.109	86.8922	287.109	87.5609	287.109	87.1176	287.109	87.573	287.109	87.3763
297.363	90.75	297.363	89.5851	297.363	91.6286	297.363	88.1249	297.363	92.2314	297.363	86.3526	297.363	92.5735	297.363	84.2266	297.363	92.6694	297.363	81.6572	297.363	92.5277	297.363	78.4745	297.363	92.1413	297.363	74.4741	297.363	91.4714	297.363	70.6608	297.363	90.4348	297.363	71.7006	297.363	88.9212	297.363	75.0074	297.363	86.8372	297.363	77.5349	297.363	84.1529	297.363	79.2988	297.363	81.0844	297.363	80.5858	297.363	78.9436	297.363	81.61	297.363	79.501	297.363	82.4817	297.363	81.2436	297.363	83.1996	297.363	82.6569	297.363	83.6812	297.363	83.499	297.363	83.8145
307.617	91.7361	307.617	90.955	307.617	92.1756	307.617	89.8197	307.617	92.3126	307.617	88.35	307.617	92.2046	307.617	86.6054	307.617	91.9143	307.617	84.6938	307.617	91.4872	307.617	82.7704	307.617	90.9187	307.617	81.0128	307.617	90.1208	307.617	79.5716	307.617	88.931	307.617	78.5367	307.617	87.2054	307.617	77.9313	307.617	85.0582	307.617	77.6894	307.617	83.2272	307.617	77.6564	307.617	82.5071	307.617	77.6882	307.617	82.3373	307.617	77.8182	307.617	81.9763	307.617	78.3106	307.617	81.5703	307.617	79.3133	307.617	81.5206	307.617	80.4844	307.617	81.6094	307.617	81.325
319.336	90.3368	319.336	89.8005	319.336	90.6585	319.336	89.016	319.336	90.7823	319.336	87.9593	319.336	90.7014	319.336	86.6412	319.336	90.4066	319.336	85.1202	319.336	89.8982	319.336	83.5144	319.336	89.1515	319.336	82.0117	319.336	88.0673	319.336	80.845	319.336	86.5224	319.336	80.179	319.336	84.6696	319.336	79.975	319.336	83.4085	319.336	80.0207	319.336	83.4783	319.336	80.0909	319.336	84.0258	319.336	80.07	319.336	84.2526	319.336	79.9977	319.336	84.0391	319.336	80.0242	319.336	83.451	319.336	80.2459	319.336	82.6065	319.336	80.6106	319.336	81.7426	319.336	81.0796
329.59	90.5444	329.59	89.9111	329.59	90.8925	329.59	88.9874	329.59	90.9946	329.59	87.8023	329.59	90.9118	329.59	86.4144	329.59	90.6946	329.59	84.8991	329.59	90.3328	329.59	83.3231	329.59	89.7157	329.59	81.7286	329.59	88.6103	329.59	80.1688	329.59	86.639	329.59	78.8215	329.59	83.3047	329.59	78.0632	329.59	79.3441	329.59	78.1619	329.59	80.6607	329.59	78.8545	329.59	83.7056	329.59	79.6556	329.59	85.1424	329.59	80.292	329.59	85.2231	329.59	80.7144	329.59	84.3596	329.59	80.9746	329.59	83.0425	329.59	81.1427	329.59	81.916	329.59	81.3533
341.309	90.4355	341.309	89.6953	341.309	90.8838	341.309	88.6592	341.309	91.0894	341.309	87.3952	341.309	91.1228	341.309	86.0591	341.309	91.047	341.309	84.8482	341.309	90.8719	341.309	83.8688	341.309	90.511	341.309	83.0529	341.309	89.7727	341.309	82.2489	341.309	88.3701	341.309	81.3554	341.309	85.9072	341.309	80.3739	341.309	81.9093	341.309	79.4223	341.309	77.7909	341.309	78.7625	341.309	80.0026	341.309	78.7516	341.309	83.2345	341.309	79.5213	341.309	85.0691	341.309	80.7363	341.309	85.796	341.309	81.9507	341.309	85.6561	341.309	82.9929	341.309	84.9244	341.309	83.9619
353.027	91.364	353.027	90.6947	353.027	91.7958	353.027	89.7242	353.027	92.0145	353.027	88.3896	353.027	92.0026	353.027	86.6851	353.027	91.7333	353.027	84.7442	353.027	91.1952	353.027	82.9511	353.027	90.3715	353.027	81.8538	353.027	89.18	353.027	81.5851	353.027	87.4331	353.027	81.668	353.027	84.9426	353.027	81.5911	353.027	82.0743	353.027	81.0824	353.027	80.8757	353.027	80.1096	353.027	82.2494	353.027	79.075	353.027	84.0162	353.027	79.0243	353.027	85.1209	353.027	80.3522	353.027	85.455	353.027	82.0362	353.027	85.2443	353.027	83.35	353.027	84.7934	353.027	84.2104
366.211	91.1315	366.211	90.478	366.211	91.4484	366.211	89.4677	366.211	91.4613	366.211	88.1031	366.211	91.2283	366.211	86.442	366.211	90.8376	366.211	84.634	366.211	90.357	366.211	82.9214	366.211	89.7497	366.211	81.536	366.211	88.8531	366.211	80.5431	366.211	87.451	366.211	79.8526	366.211	85.4375	366.211	79.3661	366.211	83.1628	366.211	79.0203	366.211	81.6173	366.211	78.723	366.211	81.2209	366.211	78.3724	366.211	81.425	366.211	78.0544	366.211	81.8945	366.211	78.1969	366.211	82.3811	366.211	79.1176	366.211	82.6024	366.211	80.4513	366.211	82.3756	366.211	81.6353
379.395	90.4997	379.395	90.0384	379.395	90.6595	379.395	89.2386	379.395	90.5683	379.395	88.0726	379.395	90.3152	379.395	86.5478	379.395	89.9994	379.395	84.7475	379.395	89.628	379.395	82.8897	379.395	89.0732	379.395	81.3767	379.395	88.1481	379.395	80.6356	379.395	86.6714	379.395	80.672	379.395	84.5256	379.395	81.0174	379.395	81.934	379.395	81.1745	379.395	80.1296	379.395	80.8558	379.395	80.5224	379.395	80.0547	379.395	81.9706	379.395	79.203	379.395	82.9384	379.395	79.0237	379.395	82.9365	379.395	79.4987	379.395	82.0851	379.395	79.959	379.395	80.97	379.395	80.2854
392.578	90.4037	392.578	89.973	392.578	90.5079	392.578	89.1555	392.578	90.4052	392.578	87.9567	392.578	90.2302	392.578	86.4504	392.578	90.0324	392.578	84.7741	392.578	89.7194	392.578	83.1027	392.578	89.1218	392.578	81.6005	392.578	88.0441	392.578	80.3879	392.578	86.2296	392.578	79.5303	392.578	83.4997	392.578	78.9948	392.578	80.9483	392.578	78.6102	392.578	81.3001	392.578	78.1608	392.578	82.7889	392.578	77.5862	392.578	83.5635	392.578	77.1703	392.578	83.7241	392.578	77.4872	392.578	83.5509	392.578	78.6756	392.578	83.1133	392.578	80.1564	392.578	82.4124	392.578	81.4386
405.762	90.2602	405.762	89.8411	405.762	90.3038	405.762	88.9318	405.762	90.1471	405.762	87.4975	405.762	89.9655	405.762	85.6226	405.762	89.8001	405.762	83.5795	405.762	89.5058	405.762	81.8057	405.762	88.8874	405.762	80.5964	405.762	87.8187	405.762	79.8559	405.762	86.2296	405.762	79.3651	405.762	84.1452	405.762	79.0417	405.762	82.037	405.762	78.8863	405.762	81.3189	405.762	78.854	405.762	82.6385	405.762	78.8732	405.762	84.2105	405.762	79.0157	405.762	84.7761	405.762	79.5069	405.762	84.2405	405.762	80.3422	405.762	83.1551	405.762	81.1662	405.762	82.2719	405.762	81.744
420.41	91.0631	420.41	90.4055	420.41	91.4651	420.41	89.3199	420.41	91.7469	420.41	87.6779	420.41	91.9124	420.41	85.4572	420.41	91.8236	420.41	82.8332	420.41	91.3059	420.41	80.3458	420.41	90.2331	420.41	78.8796	420.41	88.4695	420.41	78.8298	420.41	85.7523	420.41	79.6124	420.41	82.2415	420.41	80.4997	420.41	81.0644	420.41	81.0289	420.41	82.8311	420.41	80.9231	420.41	84.6383	420.41	80.0746	420.41	86.3323	420.41	78.8287	420.41	87.4346	420.41	78.6166	420.41	87.5087	420.41	80.2829	420.41	86.694	420.41	82.3546	420.41	85.4325	420.41	84.0257
435.059	91.4849	435.059	90.6764	435.059	91.9781	435.059	89.4651	435.059	92.199	435.059	87.7568	435.059	92.1699	435.059	85.548	435.059	91.8996	435.059	83.0652	435.059	91.3483	435.059	80.8754	435.059	90.4364	435.059	79.5657	435.059	89.0663	435.059	79.0757	435.059	87.0313	435.059	78.946	435.059	83.9576	435.059	78.9101	435.059	80.0343	435.059	78.8954	435.059	78.8193	435.059	78.8034	435.059	81.1098	435.059	78.4885	435.059	83.4291	435.059	78.0942	435.059	84.9991	435.059	78.4369	435.059	85.5953	435.059	80.0179	435.059	85.3084	435.059	81.9324	435.059	84.5082	435.059	83.4286
451.172	90.9931	451.172	90.2426	451.172	91.3659	451.172	89.0339	451.172	91.4529	451.172	87.293	451.172	91.3016	451.172	84.9404	451.172	90.8402	451.172	81.903	451.172	89.9038	451.172	78.1729	451.172	88.3228	451.172	74.3054	451.172	85.8744	451.172	73.2843	451.172	81.9386	451.172	75.7921	451.172	76.0787	451.172	78.2768	451.172	78.0466	451.172	79.7393	451.172	81.5437	451.172	80.1608	451.172	82.1722	451.172	79.7663	451.172	81.5855	451.172	79.1818	451.172	81.945	451.172	79.2681	451.172	82.937	451.172	79.9226	451.172	83.0683	451.172	80.4633	451.172	82.175	451.172	81.0744
465.82	91.1099	465.82	90.5987	465.82	91.0273	465.82	89.3863	465.82	90.5408	465.82	87.4414	465.82	89.8813	465.82	84.8379	465.82	89.1598	465.82	81.838	465.82	88.2698	465.82	78.9557	465.82	87.0913	465.82	76.8044	465.82	85.7055	465.82	75.8368	465.82	84.2446	465.82	76.279	465.82	82.6208	465.82	77.6219	465.82	80.2998	465.82	78.7315	465.82	76.4467	465.82	78.867	465.82	77.6002	465.82	77.8835	465.82	81.9835	465.82	76.5065	465.82	83.4203	465.82	76.9536	465.82	82.9067	465.82	79.4086	465.82	82.5842	465.82	81.7347	465.82	83.1211	465.82	83.0341
483.398	90.1409	483.398	89.8404	483.398	90.3581	483.398	89.144	483.398	90.6564	483.398	87.8315	483.398	90.835	483.398	85.8422	483.398	90.5505	483.398	83.2863	483.398	89.6847	483.398	80.387	483.398	88.4429	483.398	77.4437	483.398	87.0002	483.398	75.7756	483.398	84.9539	483.398	77.145	483.398	81.6717	483.398	79.266	483.398	78.2938	483.398	80.3067	483.398	79.3647	483.398	79.9558	483.398	82.7449	483.398	78.1315	483.398	85.2823	483.398	74.7644	483.398	86.3466	483.398	73.8947	483.398	85.928	483.398	78.3557	483.398	84.2553	483.398	81.1883	483.398	82.4933	483.398	82.0022
499.512	89.4779	499.512	89.3104	499.512	89.5856	499.512	88.6166	499.512	89.9163	499.512	87.1339	499.512	90.3398	499.512	84.8614	499.512	90.5786	499.512	82.0199	499.512	90.3442	499.512	78.9657	499.512	89.4031	499.512	75.7554	499.512	87.6696	499.512	71.2086	499.512	85.005	499.512	62.6445	499.512	80.7435	499.512	70.9452	499.512	74.8089	499.512	76.4724	499.512	78.0229	499.512	78.93	499.512	83.2487	499.512	79.5548	499.512	86.0829	499.512	78.6236	499.512	86.8133	499.512	76.9234	499.512	85.6796	499.512	77.1446	499.512	83.0611	499.512	78.6182	499.512	80.258	499.512	79.2241
517.09	89.6753	517.09	88.8917	517.09	90.6154	517.09	88.0863	517.09	91.4708	517.09	86.9724	517.09	91.8373	517.09	85.4393	517.09	91.4706	517.09	83.4811	517.09	90.3171	517.09	81	517.09	88.4508	517.09	77.6128	517.09	86.0416	517.09	72.4406	517.09	83.3107	517.09	66.1709	517.09	80.2388	517.09	70.9571	517.09	75.793	517.09	75.0573	517.09	74.974	517.09	76.5061	517.09	81.9087	517.09	75.6627	517.09	85.9379	517.09	72.906	517.09	87.8118	517.09	72.4395	517.09	87.827	517.09	75.5867	517.09	85.8634	517.09	77.6703	517.09	82.2393	517.09	79.0867
536.133	90.8932	536.133	89.2187	536.133	92.0916	536.133	87.404	536.133	92.6385	536.133	85.6895	536.133	92.4464	536.133	84.1245	536.133	91.3786	536.133	82.8317	536.133	89.3688	536.133	81.9133	536.133	86.596	536.133	81.0848	536.133	83.3482	536.133	79.6701	536.133	80.2074	536.133	76.697	536.133	78.6899	536.133	71.0317	536.133	77.2001	536.133	71.2436	536.133	71.7959	536.133	75.6409	536.133	76.008	536.133	76.7089	536.133	82.5458	536.133	75.0077	536.133	86.0659	536.133	70.2734	536.133	87.5405	536.133	55.3034	536.133	87.1025	536.133	70.7311	536.133	84.715	536.133	79.879
555.176	89.982	555.176	89.1586	555.176	90.3577	555.176	87.8082	555.176	90.5168	555.176	86.1094	555.176	90.4535	555.176	84.3042	555.176	89.8108	555.176	82.5188	555.176	88.2694	555.176	81.0267	555.176	85.5718	555.176	80.1411	555.176	81.0277	555.176	79.5371	555.176	74.9355	555.176	78.6914	555.176	78.7729	555.176	77.7526	555.176	81.3609	555.176	77.7822	555.176	78.6107	555.176	79.0352	555.176	74.2429	555.176	80.2654	555.176	78.8613	555.176	80.5095	555.176	79.9209	555.176	79.2825	555.176	80.4233	555.176	77.3025	555.176	81.1123	555.176	77.9235	555.176	81.1111	555.176	80.0461
574.219	89.8443	574.219	89.3418	574.219	90.246	574.219	88.5459	574.219	90.7825	574.219	87.3979	574.219	91.2906	574.219	85.7759	574.219	91.2901	574.219	83.4283	574.219	90.4187	574.219	80.1052	574.219	88.3939	574.219	75.7156	574.219	84.6701	574.219	70.6136	574.219	77.1138	574.219	66.4788	574.219	71.3851	574.219	65.4417	574.219	80.6887	574.219	67.7675	574.219	82.5303	574.219	71.7802	574.219	83.1954	574.219	74.8353	574.219	84.6164	574.219	76.2782	574.219	84.7532	574.219	76.5006	574.219	83.5142	574.219	76.7554	574.219	82.3611	574.219	78.2894	574.219	81.7474	574.219	80.4138
594.727	89.1248	594.727	88.5007	594.727	89.8991	594.727	87.6792	594.727	90.7712	594.727	86.4438	594.727	91.2744	594.727	84.8318	594.727	91.0769	594.727	82.9331	594.727	90.1018	594.727	80.7534	594.727	88.3104	594.727	78.063	594.727	85.539	594.727	73.8806	594.727	80.7755	594.727	68.1151	594.727	66.7126	594.727	72.8761	594.727	76.1835	594.727	76.9301	594.727	81.1931	594.727	78.0108	594.727	82.3983	594.727	76.3825	594.727	82.8335	594.727	70.4604	594.727	83.8844	594.727	61.5874	594.727	84.0174	594.727	70.9334	594.727	82.2371	594.727	73.3714	594.727	78.8932	594.727	75.4711
615.234	90.2071	615.234	89.1044	615.234	91.5799	615.234	88.3524	615.234	92.4375	615.234	87.3669	615.234	92.3864	615.234	85.8776	615.234	91.4451	615.234	83.9621	615.234	89.5784	615.234	81.92	615.234	86.7017	615.234	80.2211	615.234	83.1317	615.234	78.8376	615.234	79.8579	615.234	76.6759	615.234	77.7469	615.234	71.3131	615.234	75.3815	615.234	64.2013	615.234	70.1162	615.234	75.2819	615.234	77.3423	615.234	79.4942	615.234	81.9635	615.234	80.7234	615.234	83.0617	615.234	79.0959	615.234	83.365	615.234	75.9114	615.234	83.6669	615.234	79.6157	615.234	83.0913	615.234	82.2485
637.207	91.4628	637.207	90.0168	637.207	92.4539	637.207	88.4316	637.207	92.7144	637.207	86.7797	637.207	92.1022	637.207	84.8475	637.207	90.6221	637.207	82.5539	637.207	88.4771	637.207	80.3939	637.207	85.9289	637.207	79.1337	637.207	82.8498	637.207	78.4579	637.207	79.1563	637.207	77.2084	637.207	76.8558	637.207	74.5808	637.207	75.5683	637.207	71.3152	637.207	63.9397	637.207	72.0721	637.207	77.9805	637.207	75.3126	637.207	83.3495	637.207	77.4483	637.207	83.985	637.207	77.5393	637.207	85.0572	637.207	75.7253	637.207	85.8949	637.207	74.432	637.207	83.6082	637.207	77.9966
659.18	90.6282	659.18	89.9995	659.18	91.0186	659.18	88.6439	659.18	91.6448	659.18	86.4581	659.18	92.1257	659.18	83.5353	659.18	91.77	659.18	80.0506	659.18	90.3309	659.18	76.2915	659.18	87.6764	659.18	72.6322	659.18	82.99	659.18	70.557	659.18	74.5341	659.18	71.5705	659.18	77.0061	659.18	72.644	659.18	79.5669	659.18	73.1046	659.18	75.2313	659.18	74.0537	659.18	80.7868	659.18	75.462	659.18	84.947	659.18	76.5544	659.18	84.3828	659.18	76.4473	659.18	81.2541	659.18	75.4023	659.18	80.6286	659.18	76.0299	659.18	80.9699	659.18	78.9713
682.617	90.3591	682.617	89.1237	682.617	91.2792	682.617	87.3895	682.617	91.733	682.617	85.2429	682.617	91.4314	682.617	83.031	682.617	90.3601	682.617	80.8469	682.617	88.4582	682.617	78.643	682.617	85.6249	682.617	76.4397	682.617	81.7508	682.617	73.6591	682.617	75.5746	682.617	68.5092	682.617	64.3365	682.617	54.557	682.617	63.8907	682.617	66.0868	682.617	71.1269	682.617	72.5475	682.617	79.1557	682.617	75.0683	682.617	83.2967	682.617	74.6305	682.617	84.944	682.617	71.7133	682.617	84.7522	682.617	70.4249	682.617	83.7098	682.617	75.2447	682.617	82.6434	682.617	80.1626
707.52	90.2021	707.52	89.1214	707.52	90.9963	707.52	87.3375	707.52	91.6525	707.52	85.1403	707.52	91.3294	707.52	82.9915	707.52	89.5593	707.52	80.8753	707.52	86.8868	707.52	78.4723	707.52	84.118	707.52	75.5171	707.52	81.1249	707.52	72.2318	707.52	76.8027	707.52	70.0221	707.52	71.3661	707.52	68.9738	707.52	71.4482	707.52	68.1571	707.52	66.8031	707.52	69.0598	707.52	74.925	707.52	71.9918	707.52	78.5061	707.52	74.5318	707.52	78.1891	707.52	75.0456	707.52	79.4073	707.52	75.3138	707.52	80.3006	707.52	78.2083	707.52	78.48	707.52	78.9218
732.422	89.4628	732.422	87.8854	732.422	90.7502	732.422	86.5513	732.422	91.2484	732.422	85.2115	732.422	90.6948	732.422	83.3531	732.422	89.3907	732.422	81.2189	732.422	87.8574	732.422	79.6639	732.422	85.5267	732.422	78.7553	732.422	81.7094	732.422	77.5108	732.422	76.3465	732.422	75.1533	732.422	74.1048	732.422	72.0414	732.422	74.0567	732.422	70.6702	732.422	67.6234	732.422	72.6641	732.422	77.007	732.422	75.6284	732.422	81.9675	732.422	76.9601	732.422	81.6881	732.422	76.4697	732.422	78.1238	732.422	76.2154	732.422	76.5998	732.422	75.8333	732.422	74.9556	732.422	73.8729
757.324	88.5105	757.324	87.1124	757.324	90.6571	757.324	86.956	757.324	91.5668	757.324	86.1713	757.324	91.1173	757.324	84.298	757.324	89.7171	757.324	81.7676	757.324	87.3199	757.324	79.1544	757.324	83.9343	757.324	76.6549	757.324	79.6261	757.324	74.5201	757.324	73.5023	757.324	72.7769	757.324	60.3114	757.324	69.9975	757.324	70.2316	757.324	67.1493	757.324	75.0647	757.324	75.6883	757.324	78.7389	757.324	79.9371	757.324	83.0405	757.324	79.7527	757.324	84.9319	757.324	75.0818	757.324	83.9923	757.324	65.7911	757.324	82.5569	757.324	58.5931	757.324	80.0423	757.324	72.0508
785.156	89.8455	785.156	87.9763	785.156	90.8328	785.156	86.7738	785.156	89.883	785.156	85.3755	785.156	87.7142	785.156	82.7333	785.156	85.4314	785.156	79.5054	785.156	82.9814	785.156	77.3464	785.156	81.002	785.156	76.8714	785.156	79.0325	785.156	76.7941	785.156	74.7803	785.156	75.8865	785.156	66.4326	785.156	73.5925	785.156	74.2359	785.156	70.305	785.156	74.2559	785.156	70.4606	785.156	77.6869	785.156	74.2424	785.156	78.0993	785.156	76.3949	785.156	76.7866	785.156	73.1692	785.156	78.8182	785.156	66.1298	785.156	79.9164	785.156	68.2741	785.156	80.0132	785.156	77.2773
811.523	88.3313	811.523	87.8007	811.523	89.4301	811.523	86.8438	811.523	90.4441	811.523	86.0397	811.523	89.6167	811.523	84.8932	811.523	87.9264	811.523	82.5657	811.523	86.3988	811.523	79.0827	811.523	83.4741	811.523	74.7817	811.523	78.29	811.523	71.8074	811.523	72.4984	811.523	71.8773	811.523	73.7755	811.523	69.7405	811.523	70.8398	811.523	66.8297	811.523	69.5263	811.523	70.3946	811.523	78.3332	811.523	73.3567	811.523	80.4779	811.523	75.3863	811.523	76.3064	811.523	76.5899	811.523	73.5059	811.523	77.2094	811.523	72.7688	811.523	75.6371	811.523	69.1449	811.523	68.9393
840.82	89.0936	840.82	87.3986	840.82	89.6227	840.82	85.8233	840.82	89.1278	840.82	84.947	840.82	88.0859	840.82	83.8106	840.82	86.0892	840.82	81.9423	840.82	83.2001	840.82	79.6465	840.82	81.0243	840.82	77.7811	840.82	78.9128	840.82	76.3769	840.82	72.4789	840.82	74.7523	840.82	72.697	840.82	73.8471	840.82	75.4845	840.82	73.4929	840.82	69.2329	840.82	73.992	840.82	75.3356	840.82	76.9957	840.82	79.0371	840.82	75.619	840.82	79.0465	840.82	69.2022	840.82	77.7532	840.82	65.3669	840.82	77.4505	840.82	71.2914	840.82	75.1622	840.82	70.7986
870.117	89.9704	870.117	87.2504	870.117	91.4173	870.117	86.4044	870.117	90.7963	870.117	85.5442	870.117	88.7735	870.117	82.6308	870.117	85.8262	870.117	79.6473	870.117	82.1429	870.117	77.7146	870.117	80.431	870.117	75.1903	870.117	80.5806	870.117	72.101	870.117	77.687	870.117	71.1393	870.117	72.8608	870.117	72.3267	870.117	77.0598	870.117	74.3455	870.117	78.1073	870.117	75.6691	870.117	77.3893	870.117	75.8286	870.117	72.8872	870.117	77.1158	870.117	73.8971	870.117	76.1455	870.117	78.9006	870.117	59.7703	870.117	80.4094	870.117	68.9712	870.117	80.7746	870.117	74.8144
900.879	90.297	900.879	88.3174	900.879	89.6685	900.879	86.37	900.879	89.3723	900.879	86.0525	900.879	89.0252	900.879	84.9777	900.879	86.1711	900.879	82.5315	900.879	84.1556	900.879	79.5136	900.879	83.0338	900.879	76.6007	900.879	81.4768	900.879	73.0019	900.879	79.3336	900.879	68.188	900.879	76.3305	900.879	64.4512	900.879	76.8082	900.879	66.2361	900.879	76.779	900.879	67.5227	900.879	61.8993	900.879	73.7467	900.879	62.4313	900.879	72.001	900.879	75.2616	900.879	65.3282	900.879	75.6629	900.879	46.8217	900.879	70.1925	900.879	74.0685	900.879	78.0455	900.879	78.9673
933.105	90.7754	933.105	87.884	933.105	91.9148	933.105	85.8641	933.105	89.6477	933.105	84.6656	933.105	86.2443	933.105	83.5092	933.105	80.9015	933.105	82.4743	933.105	77.2788	933.105	81.3485	933.105	81.7492	933.105	78.283	933.105	82.785	933.105	72.7054	933.105	79.2569	933.105	72.9108	933.105	67.6119	933.105	73.5069	933.105	76.6101	933.105	68.5398	933.105	80.2745	933.105	63.0195	933.105	80.3721	933.105	70.9679	933.105	67.8996	933.105	74.1783	933.105	74.5063	933.105	76.6422	933.105	79.1281	933.105	77.7476	933.105	80.0083	933.105	69.8857	933.105	75.5479	933.105	75.7629
965.332	90.3307	965.332	87.0502	965.332	92.2652	965.332	86.1977	965.332	91.3778	965.332	85.7233	965.332	88.6432	965.332	83.9519	965.332	84.5524	965.332	81.8819	965.332	81.3541	965.332	78.6084	965.332	82.1545	965.332	74.0116	965.332	84.5732	965.332	70.8329	965.332	84.9832	965.332	68.5496	965.332	77.1809	965.332	70.1128	965.332	71.5333	965.332	72.665	965.332	77.6052	965.332	70.89	965.332	74.7483	965.332	72.0281	965.332	72.5619	965.332	74.4172	965.332	72.5994	965.332	75.2719	965.332	76.9267	965.332	71.5907	965.332	80.254	965.332	73.1269	965.332	76.018	965.332	69.4064
1,000.49	90.6709	1,000.49	89.0322	1,000.49	89.9254	1,000.49	86.7463	1,000.49	89.8109	1,000.49	85.4629	1,000.49	88.2952	1,000.49	82.8542	1,000.49	81.7299	1,000.49	79.1683	1,000.49	79.881	1,000.49	77.6897	1,000.49	85.2585	1,000.49	78.8456	1,000.49	86.0274	1,000.49	79.335	1,000.49	82.8633	1,000.49	77.7592	1,000.49	79.2798	1,000.49	73.3925	1,000.49	69.5955	1,000.49	62.8559	1,000.49	77.7547	1,000.49	71.2768	1,000.49	76.7349	1,000.49	69.6391	1,000.49	67.1943	1,000.49	67.5138	1,000.49	74.1429	1,000.49	63.9272	1,000.49	75.5722	1,000.49	71.2365	1,000.49	60.5424	1,000.49	72.0015	1,000.49	78.4054	1,000.49	79.2768
1,035.64	91.4543	1,035.64	88.7699	1,035.64	92.0243	1,035.64	86.5268	1,035.64	88.7847	1,035.64	84.6528	1,035.64	86.3338	1,035.64	83.4259	1,035.64	80.0483	1,035.64	80.4988	1,035.64	78.8697	1,035.64	79.5005	1,035.64	84.0978	1,035.64	77.6257	1,035.64	86.0557	1,035.64	65.4296	1,035.64	84.97	1,035.64	69.4764	1,035.64	76.356	1,035.64	73.2557	1,035.64	80.0759	1,035.64	74.8335	1,035.64	77.9285	1,035.64	75.0704	1,035.64	79.6122	1,035.64	64.7394	1,035.64	68.7889	1,035.64	74.581	1,035.64	74.5231	1,035.64	74.4444	1,035.64	73.7039	1,035.64	68.8523	1,035.64	77.0939	1,035.64	73.5907	1,035.64	67.651	1,035.64	69.0444
1,072.27	90.9872	1,072.27	88.4344	1,072.27	92.1128	1,072.27	85.9901	1,072.27	90.3455	1,072.27	84.0838	1,072.27	85.7802	1,072.27	83.3178	1,072.27	77.9244	1,072.27	82.1789	1,072.27	81.0805	1,072.27	79.8973	1,072.27	87.4013	1,072.27	79.0396	1,072.27	87.8095	1,072.27	79.8086	1,072.27	85.5538	1,072.27	79.2764	1,072.27	81.108	1,072.27	76.6068	1,072.27	73.5854	1,072.27	68.346	1,072.27	78.7159	1,072.27	72.2116	1,072.27	81.1252	1,072.27	72.5628	1,072.27	76.1245	1,072.27	65.2742	1,072.27	76.9435	1,072.27	65.2379	1,072.27	74.7271	1,072.27	66.7292	1,072.27	76.9259	1,072.27	70.7364	1,072.27	75.2653	1,072.27	71.8909
1,108.89	89.7253	1,108.89	87.8889	1,108.89	90.4585	1,108.89	85.5671	1,108.89	90.5217	1,108.89	83.6125	1,108.89	86.34	1,108.89	81.7231	1,108.89	77.8891	1,108.89	80.3295	1,108.89	81.1669	1,108.89	76.8025	1,108.89	85.2152	1,108.89	72.977	1,108.89	86.41	1,108.89	74.5123	1,108.89	86.3643	1,108.89	77.5514	1,108.89	82.3454	1,108.89	73.16	1,108.89	70.6139	1,108.89	63.7301	1,108.89	81.2953	1,108.89	72.9314	1,108.89	80.9023	1,108.89	73.3695	1,108.89	71.1748	1,108.89	78.2072	1,108.89	66.2743	1,108.89	73.7815	1,108.89	71.8535	1,108.89	69.5761	1,108.89	71.3409	1,108.89	70.9307	1,108.89	71.0469	1,108.89	75.7662
1,148.44	89.7643	1,148.44	87.3934	1,148.44	90.2105	1,148.44	83.8085	1,148.44	89.1477	1,148.44	84.6399	1,148.44	84.2413	1,148.44	83.565	1,148.44	64.2377	1,148.44	77.781	1,148.44	81.5883	1,148.44	77.3432	1,148.44	85.7108	1,148.44	80.6603	1,148.44	87.5808	1,148.44	77.9942	1,148.44	87.5544	1,148.44	74.3943	1,148.44	80.9195	1,148.44	76.288	1,148.44	68.9263	1,148.44	74.7021	1,148.44	76.4096	1,148.44	70.7507	1,148.44	73.7018	1,148.44	65.2407	1,148.44	56.0435	1,148.44	74.8176	1,148.44	73.6414	1,148.44	76.4292	1,148.44	65.6384	1,148.44	71.3277	1,148.44	61.912	1,148.44	76.9743	1,148.44	72.9463	1,148.44	70.4682
1,189.45	90.1436	1,189.45	84.5514	1,189.45	90.0982	1,189.45	85.1412	1,189.45	87.7324	1,189.45	83.9913	1,189.45	80.475	1,189.45	81.3073	1,189.45	63.8941	1,189.45	78.6223	1,189.45	82.1344	1,189.45	80.2218	1,189.45	86.2411	1,189.45	77.9393	1,189.45	86.7115	1,189.45	76.6445	1,189.45	88.5033	1,189.45	75.0479	1,189.45	84.2452	1,189.45	67.6482	1,189.45	67.9909	1,189.45	76.4929	1,189.45	82.3845	1,189.45	74.6214	1,189.45	77.4523	1,189.45	68.7537	1,189.45	68.0956	1,189.45	59.278	1,189.45	54.9518	1,189.45	60.7729	1,189.45	72.3192	1,189.45	74.0869	1,189.45	71.4399	1,189.45	70.4718	1,189.45	70.4591	1,189.45	75.8565
1,230.47	89.5955	1,230.47	83.7778	1,230.47	91.0142	1,230.47	83.8877	1,230.47	87.4857	1,230.47	83.2978	1,230.47	69.2985	1,230.47	79.8181	1,230.47	77.2121	1,230.47	81.197	1,230.47	79.7341	1,230.47	81.7505	1,230.47	85.3682	1,230.47	78.7656	1,230.47	88.2233	1,230.47	76.6464	1,230.47	88.085	1,230.47	77.0752	1,230.47	81.8344	1,230.47	74.6176	1,230.47	69.3917	1,230.47	66.318	1,230.47	76.315	1,230.47	68.9684	1,230.47	74.2311	1,230.47	66.6507	1,230.47	64.7558	1,230.47	70.5703	1,230.47	72.0926	1,230.47	63.525	1,230.47	71.0368	1,230.47	72.343	1,230.47	67.1624	1,230.47	61.7661	1,230.47	63.5725	1,230.47	77.9158
1,274.41	89.0937	1,274.41	80.2217	1,274.41	91.2118	1,274.41	82.9131	1,274.41	86.4822	1,274.41	85.5983	1,274.41	71.5105	1,274.41	82.454	1,274.41	76.3223	1,274.41	78.3265	1,274.41	78.3636	1,274.41	78.2787	1,274.41	86.7946	1,274.41	77.2612	1,274.41	89.5867	1,274.41	75.7494	1,274.41	88.2008	1,274.41	64.2444	1,274.41	79.0348	1,274.41	75.6598	1,274.41	82.0615	1,274.41	74.6293	1,274.41	72.9192	1,274.41	65.1098	1,274.41	70.2703	1,274.41	72.5838	1,274.41	78.8828	1,274.41	68.5216	1,274.41	77.5427	1,274.41	69.2341	1,274.41	65.3007	1,274.41	67.1424	1,274.41	73.7123	1,274.41	71.607	1,274.41	67.494	1,274.41	73.9641
1,319.82	90.6724	1,319.82	81.1695	1,319.82	90.8988	1,319.82	82.5321	1,319.82	85.4477	1,319.82	86.5639	1,319.82	80.3261	1,319.82	84.6862	1,319.82	77.6398	1,319.82	85.5366	1,319.82	83.2639	1,319.82	84.0029	1,319.82	85.6951	1,319.82	81.0231	1,319.82	89.2617	1,319.82	77.1479	1,319.82	88.8768	1,319.82	77.6892	1,319.82	81.5777	1,319.82	79.5309	1,319.82	71.817	1,319.82	70.1515	1,319.82	73.6978	1,319.82	82.3716	1,319.82	69.9237	1,319.82	76.7739	1,319.82	77.6046	1,319.82	67.0928	1,319.82	78.4897	1,319.82	66.4004	1,319.82	71.2057	1,319.82	73.949	1,319.82	76.2454	1,319.82	72.0127	1,319.82	71.3146	1,319.82	77.6167
1,366.7	91.073	1,366.7	83.4732	1,366.7	89.9329	1,366.7	85.0588	1,366.7	81.1903	1,366.7	87.0187	1,366.7	80.7993	1,366.7	84.8034	1,366.7	79.5133	1,366.7	85.3655	1,366.7	85.4081	1,366.7	85.1947	1,366.7	90.517	1,366.7	79.2301	1,366.7	89.2773	1,366.7	71.3541	1,366.7	86.7327	1,366.7	57.7908	1,366.7	83.5301	1,366.7	61.0913	1,366.7	73.5258	1,366.7	72.2448	1,366.7	77.9705	1,366.7	72.9905	1,366.7	77.1074	1,366.7	71.5786	1,366.7	72.6395	1,366.7	75.5443	1,366.7	69.212	1,366.7	72.7643	1,366.7	71.8454	1,366.7	64.8288	1,366.7	64.4883	1,366.7	74.0678	1,366.7	66.2887	1,366.7	77.3473
1,413.57	92.688	1,413.57	84.6913	1,413.57	89.9634	1,413.57	84.4556	1,413.57	77.6012	1,413.57	87.3781	1,413.57	84.5807	1,413.57	86.9785	1,413.57	80.8996	1,413.57	85.0448	1,413.57	89.8105	1,413.57	83.8364	1,413.57	89.6673	1,413.57	81.2697	1,413.57	88.8446	1,413.57	80.8951	1,413.57	82.0354	1,413.57	78.9951	1,413.57	73.041	1,413.57	80.5982	1,413.57	73.9719	1,413.57	72.7129	1,413.57	75.399	1,413.57	72.8191	1,413.57	73.9655	1,413.57	70.7273	1,413.57	79.8452	1,413.57	77.7165	1,413.57	82.1729	1,413.57	77.1011	1,413.57	79.0624	1,413.57	76.1005	1,413.57	78.2341	1,413.57	68.6192	1,413.57	76.484	1,413.57	67.7697
1,463.38	92.6153	1,463.38	88.3585	1,463.38	87.7696	1,463.38	86.1857	1,463.38	76.7619	1,463.38	87.805	1,463.38	83.132	1,463.38	86.8747	1,463.38	83.5577	1,463.38	86.9872	1,463.38	88.8922	1,463.38	87.8295	1,463.38	88.5568	1,463.38	83.7879	1,463.38	84.75	1,463.38	76.4977	1,463.38	59.5737	1,463.38	76.1457	1,463.38	67.7753	1,463.38	69.526	1,463.38	78.2575	1,463.38	70.135	1,463.38	70.2677	1,463.38	70.5339	1,463.38	78.291	1,463.38	77.5577	1,463.38	77.4542	1,463.38	80.2374	1,463.38	67.8652	1,463.38	78.7859	1,463.38	73.9713	1,463.38	80.5716	1,463.38	65.3585	1,463.38	65.3385	1,463.38	82.0479	1,463.38	76.4466
1,516.11	92.8035	1,516.11	86.2355	1,516.11	88.7826	1,516.11	84.4853	1,516.11	81.3074	1,516.11	87.6613	1,516.11	87.6206	1,516.11	86.2642	1,516.11	84.5983	1,516.11	87.545	1,516.11	90.2793	1,516.11	88.0102	1,516.11	83.0941	1,516.11	85.2309	1,516.11	76.5237	1,516.11	79.644	1,516.11	74.8396	1,516.11	76.7805	1,516.11	75.2558	1,516.11	77.7078	1,516.11	46.1905	1,516.11	61.9715	1,516.11	74.3669	1,516.11	78.9084	1,516.11	50.4523	1,516.11	68.6262	1,516.11	77.8058	1,516.11	72.8553	1,516.11	78.0639	1,516.11	79.7784	1,516.11	74.7909	1,516.11	75.5771	1,516.11	77.2881	1,516.11	81.1284	1,516.11	74.543	1,516.11	67.0155
1,568.85	92.8033	1,568.85	87.7123	1,568.85	86.4975	1,568.85	84.9088	1,568.85	85.9745	1,568.85	87.3739	1,568.85	86.6131	1,568.85	87.0978	1,568.85	85.9	1,568.85	88.1906	1,568.85	90.0072	1,568.85	85.685	1,568.85	84.6406	1,568.85	79.7572	1,568.85	79.3363	1,568.85	76.9996	1,568.85	81.454	1,568.85	73.7784	1,568.85	78.7092	1,568.85	58.4583	1,568.85	58.6124	1,568.85	75.4917	1,568.85	67.2514	1,568.85	71.93	1,568.85	70.2067	1,568.85	60.6684	1,568.85	59.3196	1,568.85	76.8293	1,568.85	77.8403	1,568.85	76.686	1,568.85	73.79	1,568.85	71.9611	1,568.85	70.8752	1,568.85	66.9615	1,568.85	78.2275	1,568.85	75.7044
1,624.51	91.6261	1,624.51	86.1196	1,624.51	86.0685	1,624.51	85.3123	1,624.51	86.7504	1,624.51	88.1151	1,624.51	87.876	1,624.51	85.9613	1,624.51	87.3338	1,624.51	86.2982	1,624.51	87.1393	1,624.51	85.5116	1,624.51	77.5555	1,624.51	82.5622	1,624.51	83.4582	1,624.51	78.7201	1,624.51	83.0094	1,624.51	67.4637	1,624.51	80.7329	1,624.51	75.1507	1,624.51	70.7933	1,624.51	61.5887	1,624.51	59.8326	1,624.51	69.2017	1,624.51	68.9561	1,624.51	71.3837	1,624.51	79.9602	1,624.51	73.1526	1,624.51	73.8251	1,624.51	64.2589	1,624.51	78.1459	1,624.51	77.5654	1,624.51	77.9795	1,624.51	81.0162	1,624.51	75.483	1,624.51	76.6352
1,681.64	90.7009	1,681.64	87.098	1,681.64	81.6269	1,681.64	86.391	1,681.64	87.2861	1,681.64	87.4212	1,681.64	87.5465	1,681.64	86.0637	1,681.64	87.944	1,681.64	88.3075	1,681.64	88.6771	1,681.64	86.7153	1,681.64	64.549	1,681.64	78.2162	1,681.64	84.5939	1,681.64	70.3865	1,681.64	86.7837	1,681.64	72.8446	1,681.64	80.9542	1,681.64	67.7871	1,681.64	71.7632	1,681.64	70.8382	1,681.64	59.3793	1,681.64	69.5413	1,681.64	67.1971	1,681.64	67.8411	1,681.64	62.048	1,681.64	77.5577	1,681.64	73.5357	1,681.64	75.9745	1,681.64	74.4093	1,681.64	67.9546	1,681.64	70.97	1,681.64	69.7863	1,681.64	77.4276	1,681.64	79.0906
1,741.7	90.2255	1,741.7	84.7795	1,741.7	85.2664	1,741.7	85.8985	1,741.7	87.7806	1,741.7	87.482	1,741.7	87.6057	1,741.7	85.9826	1,741.7	88.441	1,741.7	87.5571	1,741.7	85.8303	1,741.7	84.706	1,741.7	75.6744	1,741.7	81.0561	1,741.7	87.3653	1,741.7	76.6905	1,741.7	86.5892	1,741.7	69.2195	1,741.7	82.3972	1,741.7	56.2496	1,741.7	71.3243	1,741.7	64.1062	1,741.7	64.2449	1,741.7	63.4833	1,741.7	72.9841	1,741.7	74.2493	1,741.7	72.2635	1,741.7	74.5282	1,741.7	70.794	1,741.7	67.7986	1,741.7	72.6378	1,741.7	77.2646	1,741.7	78.963	1,741.7	81.2965	1,741.7	73.9651	1,741.7	78.0739
1,803.22	90.3334	1,803.22	87.0173	1,803.22	84.2556	1,803.22	88.243	1,803.22	88.8064	1,803.22	87.7153	1,803.22	87.4671	1,803.22	88.2004	1,803.22	88.2052	1,803.22	85.8992	1,803.22	83.135	1,803.22	84.4365	1,803.22	80.5617	1,803.22	76.087	1,803.22	88.3891	1,803.22	61.3703	1,803.22	86.5285	1,803.22	74.0312	1,803.22	79.271	1,803.22	71.6437	1,803.22	71.2029	1,803.22	71.386	1,803.22	64.9108	1,803.22	64.3646	1,803.22	64.9883	1,803.22	70.9827	1,803.22	67.473	1,803.22	73.201	1,803.22	67.4594	1,803.22	78.5329	1,803.22	79.882	1,803.22	70.2628	1,803.22	75.8409	1,803.22	79.1778	1,803.22	73.5749	1,803.22	83.2963
1,866.21	90.3696	1,866.21	86.3493	1,866.21	86.0152	1,866.21	87.962	1,866.21	90.2008	1,866.21	88.2624	1,866.21	88.4628	1,866.21	88.4574	1,866.21	88.2675	1,866.21	87.4699	1,866.21	80.9959	1,866.21	82.4618	1,866.21	85.0598	1,866.21	80.0313	1,866.21	87.1029	1,866.21	74.1076	1,866.21	86.524	1,866.21	75.297	1,866.21	75.3472	1,866.21	74.4989	1,866.21	80.0063	1,866.21	73.3989	1,866.21	60.5884	1,866.21	70.343	1,866.21	72.6012	1,866.21	75.1559	1,866.21	64.4978	1,866.21	73.2478	1,866.21	64.7879	1,866.21	78.8094	1,866.21	79.1052	1,866.21	80.2286	1,866.21	75.1593	1,866.21	81.3234	1,866.21	74.1311	1,866.21	80.4592
1,932.13	88.1251	1,932.13	86.8117	1,932.13	84.9355	1,932.13	89.7635	1,932.13	89.9988	1,932.13	87.4421	1,932.13	88.4674	1,932.13	88.5227	1,932.13	86.4501	1,932.13	88.0188	1,932.13	80.7768	1,932.13	83.905	1,932.13	86.6683	1,932.13	79.7883	1,932.13	88.8842	1,932.13	75.742	1,932.13	82.7379	1,932.13	70.3301	1,932.13	80.5871	1,932.13	72.8479	1,932.13	74.9762	1,932.13	70.9617	1,932.13	69.0098	1,932.13	64.7892	1,932.13	70.8996	1,932.13	69.9056	1,932.13	68.8141	1,932.13	74.4615	1,932.13	74.6081	1,932.13	74.8281	1,932.13	76.9892	1,932.13	73.8613	1,932.13	77.2947	1,932.13	79.893	1,932.13	64.1455	1,932.13	80.8648
1,999.51	88.2426	1,999.51	86.9599	1,999.51	86.3608	1,999.51	89.4386	1,999.51	89.9102	1,999.51	88.6262	1,999.51	89.294	1,999.51	89.4372	1,999.51	86.3253	1,999.51	88.4276	1,999.51	81.988	1,999.51	85.2135	1,999.51	88.9334	1,999.51	80.5827	1,999.51	83.8973	1,999.51	80.8438	1,999.51	85.8795	1,999.51	82.7843	1,999.51	78.1743	1,999.51	77.029	1,999.51	75.7031	1,999.51	74.3286	1,999.51	75.3995	1,999.51	71.1501	1,999.51	64.0707	1,999.51	71.9531	1,999.51	69.5895	1,999.51	64.9032	1,999.51	65.9166	1,999.51	78.3415	1,999.51	75.9154	1,999.51	78.4885	1,999.51	70.3576	1,999.51	73.8299	1,999.51	45.2506	1,999.51	71.7063
2,069.82	88.2074	2,069.82	87.2255	2,069.82	87.9613	2,069.82	89.8466	2,069.82	89.9604	2,069.82	88.7946	2,069.82	89.0817	2,069.82	91.1391	2,069.82	87.3457	2,069.82	90.0858	2,069.82	85.1545	2,069.82	83.493	2,069.82	88.1236	2,069.82	84.3067	2,069.82	83.3032	2,069.82	80.069	2,069.82	86.2792	2,069.82	72.7513	2,069.82	72.1598	2,069.82	74.1846	2,069.82	81.2561	2,069.82	72.8145	2,069.82	79.2915	2,069.82	71.2176	2,069.82	64.1382	2,069.82	73.6648	2,069.82	65.2985	2,069.82	57.0978	2,069.82	68.8493	2,069.82	71.3453	2,069.82	70.8705	2,069.82	79.1597	2,069.82	69.1021	2,069.82	78.8695	2,069.82	70.4596	2,069.82	74.6674
2,143.07	89.3445	2,143.07	89.111	2,143.07	88.9119	2,143.07	88.9022	2,143.07	90.1449	2,143.07	88.6316	2,143.07	88.4254	2,143.07	91.3426	2,143.07	85.1183	2,143.07	88.2904	2,143.07	87.1565	2,143.07	85.5322	2,143.07	88.2058	2,143.07	84.5723	2,143.07	85.5877	2,143.07	75.8477	2,143.07	84.9689	2,143.07	75.4068	2,143.07	80.9214	2,143.07	66.3218	2,143.07	65.4171	2,143.07	73.1849	2,143.07	77.3634	2,143.07	62.4518	2,143.07	61.6088	2,143.07	68.3106	2,143.07	71.2218	2,143.07	71.2816	2,143.07	73.5542	2,143.07	69.5948	2,143.07	64.4883	2,143.07	70.5171	2,143.07	74.4144	2,143.07	76.3237	2,143.07	66.062	2,143.07	75.9284
2,219.24	88.566	2,219.24	89.253	2,219.24	89.0836	2,219.24	90.3194	2,219.24	90.8993	2,219.24	89.2435	2,219.24	88.0931	2,219.24	90.4912	2,219.24	87.9828	2,219.24	88.9867	2,219.24	87.0805	2,219.24	86.1898	2,219.24	88.3696	2,219.24	85.2257	2,219.24	81.1318	2,219.24	80.3787	2,219.24	88.6485	2,219.24	79.9279	2,219.24	76.6943	2,219.24	74.6115	2,219.24	75.7672	2,219.24	77.1841	2,219.24	73.5732	2,219.24	72.5221	2,219.24	62.8912	2,219.24	72.433	2,219.24	73.4647	2,219.24	62.7199	2,219.24	73.1195	2,219.24	76.1563	2,219.24	59.1968	2,219.24	79.7689	2,219.24	73.9863	2,219.24	77.5357	2,219.24	57.3909	2,219.24	71.0039
2,296.88	88.1226	2,296.88	87.9483	2,296.88	88.663	2,296.88	89.0144	2,296.88	89.4907	2,296.88	89.3956	2,296.88	88.6862	2,296.88	91.049	2,296.88	88.0325	2,296.88	89.1119	2,296.88	88.2974	2,296.88	88.5526	2,296.88	84.4262	2,296.88	83.6336	2,296.88	87.8	2,296.88	80.3567	2,296.88	81.2528	2,296.88	77.8044	2,296.88	77.8127	2,296.88	68.8538	2,296.88	73.079	2,296.88	71.0763	2,296.88	64.0458	2,296.88	71.1198	2,296.88	65.6804	2,296.88	66.9926	2,296.88	62.8385	2,296.88	70.6704	2,296.88	72.3882	2,296.88	70.8684	2,296.88	70.4441	2,296.88	77.1558	2,296.88	73.741	2,296.88	78.2333	2,296.88	50.3561	2,296.88	78.297
2,378.91	89.8277	2,378.91	89.5689	2,378.91	89.9678	2,378.91	88.9195	2,378.91	89.6114	2,378.91	89.5837	2,378.91	88.3144	2,378.91	91.6056	2,378.91	90.2205	2,378.91	90.0428	2,378.91	84.9107	2,378.91	84.1255	2,378.91	84.789	2,378.91	86.8411	2,378.91	82.18	2,378.91	82.5026	2,378.91	85.8098	2,378.91	74.7285	2,378.91	63.5975	2,378.91	77.0462	2,378.91	73.6832	2,378.91	60.7121	2,378.91	71.3614	2,378.91	58.1348	2,378.91	64.9258	2,378.91	70.9726	2,378.91	72.3008	2,378.91	61.6742	2,378.91	72.7105	2,378.91	59.3078	2,378.91	67.876	2,378.91	68.6333	2,378.91	70.4072	2,378.91	75.2756	2,378.91	69.4967	2,378.91	78.2963
2,462.4	88.8195	2,462.4	89.1739	2,462.4	89.483	2,462.4	88.4019	2,462.4	89.682	2,462.4	89.3332	2,462.4	88.2327	2,462.4	91.0457	2,462.4	90.5401	2,462.4	89.6616	2,462.4	84.7127	2,462.4	88.4837	2,462.4	78.5664	2,462.4	83.1908	2,462.4	85.3758	2,462.4	75.0244	2,462.4	79.522	2,462.4	74.3912	2,462.4	79.8827	2,462.4	64.8236	2,462.4	72.245	2,462.4	76.6925	2,462.4	59.1391	2,462.4	65.999	2,462.4	58.2045	2,462.4	68.1072	2,462.4	66.2018	2,462.4	68.1702	2,462.4	64.7662	2,462.4	66.7298	2,462.4	75.5361	2,462.4	74.5382	2,462.4	64.5283	2,462.4	76.9857	2,462.4	73.6176	2,462.4	78.6346
2,548.83	89.8689	2,548.83	90.221	2,548.83	89.2706	2,548.83	89.8351	2,548.83	88.9215	2,548.83	89.7684	2,548.83	88.2721	2,548.83	90.9441	2,548.83	90.9194	2,548.83	88.628	2,548.83	85.1302	2,548.83	87.0036	2,548.83	80.7857	2,548.83	83.2222	2,548.83	79.7977	2,548.83	81.5072	2,548.83	82.2332	2,548.83	77.3522	2,548.83	81.4062	2,548.83	68.7041	2,548.83	64.5218	2,548.83	68.197	2,548.83	72.0553	2,548.83	62.461	2,548.83	69.3372	2,548.83	73.133	2,548.83	69.954	2,548.83	69.0492	2,548.83	65.5	2,548.83	59.3268	2,548.83	73.7307	2,548.83	71.9884	2,548.83	67.3783	2,548.83	79.3762	2,548.83	70.6041	2,548.83	81.0307
2,639.65	90.1965	2,639.65	87.579	2,639.65	89.2111	2,639.65	87.3179	2,639.65	87.965	2,639.65	89.5989	2,639.65	88.8287	2,639.65	90.6459	2,639.65	90.56	2,639.65	89.6604	2,639.65	84.2715	2,639.65	84.4213	2,639.65	78.0109	2,639.65	85.8107	2,639.65	85.8875	2,639.65	81.8381	2,639.65	83.7796	2,639.65	76.4959	2,639.65	84.0248	2,639.65	78.9402	2,639.65	75.0301	2,639.65	74.8833	2,639.65	66.8458	2,639.65	45.6653	2,639.65	64.1502	2,639.65	75.6411	2,639.65	69.4394	2,639.65	66.2888	2,639.65	63.1345	2,639.65	70.0518	2,639.65	75.6954	2,639.65	71.9142	2,639.65	68.7819	2,639.65	77.9324	2,639.65	68.4702	2,639.65	79.7653
2,731.93	89.6638	2,731.93	90.1466	2,731.93	90.1409	2,731.93	87.9532	2,731.93	88.1469	2,731.93	89.559	2,731.93	88.3917	2,731.93	90.716	2,731.93	89.828	2,731.93	89.1156	2,731.93	83.3176	2,731.93	87.6022	2,731.93	82.334	2,731.93	86.6566	2,731.93	82.0771	2,731.93	73.3832	2,731.93	86.701	2,731.93	74.6465	2,731.93	79.2529	2,731.93	72.0577	2,731.93	66.4177	2,731.93	72.2572	2,731.93	65.1022	2,731.93	64.4509	2,731.93	64.1875	2,731.93	63.8807	2,731.93	67.9053	2,731.93	54.6899	2,731.93	66.2096	2,731.93	74.7638	2,731.93	71.3809	2,731.93	75.9758	2,731.93	71.8369	2,731.93	78.3171	2,731.93	63.0301	2,731.93	79.5648
2,828.61	90.4104	2,828.61	89.7709	2,828.61	89.5915	2,828.61	88.4496	2,828.61	87.1617	2,828.61	89.9127	2,828.61	89.4438	2,828.61	90.4204	2,828.61	89.8609	2,828.61	87.5617	2,828.61	86.7159	2,828.61	88.3615	2,828.61	79.0951	2,828.61	83.3633	2,828.61	85.5713	2,828.61	82.1485	2,828.61	83.313	2,828.61	80.9145	2,828.61	76.9826	2,828.61	80.5093	2,828.61	69.5571	2,828.61	58.0574	2,828.61	65.4124	2,828.61	63.2411	2,828.61	68.363	2,828.61	73.761	2,828.61	67.4551	2,828.61	69.2658	2,828.61	67.4698	2,828.61	75.0493	2,828.61	69.5492	2,828.61	78.3764	2,828.61	72.3088	2,828.61	78.5701	2,828.61	64.2633	2,828.61	78.3367
2,928.22	89.9854	2,928.22	90.9264	2,928.22	90.7287	2,928.22	89.0516	2,928.22	88.4007	2,928.22	90.0201	2,928.22	88.9255	2,928.22	88.3318	2,928.22	87.6154	2,928.22	90.3185	2,928.22	87.2343	2,928.22	86.2216	2,928.22	84.4018	2,928.22	86.8615	2,928.22	80.7709	2,928.22	80.4005	2,928.22	84.8774	2,928.22	71.9809	2,928.22	62.8145	2,928.22	62.6728	2,928.22	55.7274	2,928.22	73.3937	2,928.22	66.4019	2,928.22	66.547	2,928.22	62.8775	2,928.22	75.0144	2,928.22	68.4078	2,928.22	63.4236	2,928.22	62.8578	2,928.22	76.0735	2,928.22	66.2272	2,928.22	79.37	2,928.22	71.7406	2,928.22	79.9945	2,928.22	68.4178	2,928.22	78.9715
3,030.76	90.671	3,030.76	91.3838	3,030.76	91.0296	3,030.76	88.2524	3,030.76	88.4086	3,030.76	89.2781	3,030.76	89.2567	3,030.76	88.9153	3,030.76	87.646	3,030.76	89.5453	3,030.76	88.954	3,030.76	86.9792	3,030.76	83.3216	3,030.76	84.1349	3,030.76	83.0235	3,030.76	77.5769	3,030.76	81.6808	3,030.76	76.5789	3,030.76	78.1262	3,030.76	73.6632	3,030.76	66.8135	3,030.76	74.019	3,030.76	60.1349	3,030.76	70.4377	3,030.76	67.5716	3,030.76	74.7479	3,030.76	72.7226	3,030.76	69.9425	3,030.76	67.1113	3,030.76	76.5507	3,030.76	67.5388	3,030.76	77.3757	3,030.76	69.295	3,030.76	80.0109	3,030.76	68.8794	3,030.76	80.6821
3,137.7	89.5923	3,137.7	91.3422	3,137.7	91.3288	3,137.7	89.3884	3,137.7	89.0115	3,137.7	90.5073	3,137.7	89.01	3,137.7	91.1027	3,137.7	87.8398	3,137.7	88.902	3,137.7	87.5951	3,137.7	87.3344	3,137.7	83.4013	3,137.7	82.8503	3,137.7	80.3797	3,137.7	82.174	3,137.7	81.8426	3,137.7	70.8272	3,137.7	76.5441	3,137.7	64.6664	3,137.7	58.2362	3,137.7	74.9009	3,137.7	63.0078	3,137.7	70.2534	3,137.7	45.371	3,137.7	76.5016	3,137.7	68.3489	3,137.7	43.6048	3,137.7	66.2759	3,137.7	75.7134	3,137.7	67.2028	3,137.7	78.5003	3,137.7	67.7093	3,137.7	80.5697	3,137.7	71.9008	3,137.7	80.9662
3,249.02	91.1842	3,249.02	92.6502	3,249.02	92.4805	3,249.02	91.0039	3,249.02	89.4578	3,249.02	89.7135	3,249.02	89.058	3,249.02	88.3485	3,249.02	87.9928	3,249.02	90.4671	3,249.02	88.4327	3,249.02	85.0735	3,249.02	82.6457	3,249.02	85.4376	3,249.02	75.7734	3,249.02	72.0621	3,249.02	84.6853	3,249.02	70.6395	3,249.02	76.7327	3,249.02	72.1153	3,249.02	48.2053	3,249.02	74.3186	3,249.02	66.0489	3,249.02	72.4999	3,249.02	63.1823	3,249.02	73.4097	3,249.02	64.6295	3,249.02	68.6941	3,249.02	66.6437	3,249.02	71.1686	3,249.02	70.0173	3,249.02	75.2969	3,249.02	66.7328	3,249.02	78.1906	3,249.02	68.311	3,249.02	79.305
3,363.28	90.0626	3,363.28	91.7347	3,363.28	91.9949	3,363.28	90.1832	3,363.28	89.6552	3,363.28	89.9423	3,363.28	88.8644	3,363.28	89.1538	3,363.28	88.3914	3,363.28	87.8816	3,363.28	87.1415	3,363.28	86.7563	3,363.28	81.8348	3,363.28	80.4804	3,363.28	81.498	3,363.28	82.3119	3,363.28	81.8545	3,363.28	72.9716	3,363.28	76.5	3,363.28	58.1785	3,363.28	68.6043	3,363.28	76.3831	3,363.28	67.936	3,363.28	71.9766	3,363.28	52.2608	3,363.28	75.0264	3,363.28	71.5199	3,363.28	62.3586	3,363.28	72.7036	3,363.28	69.3917	3,363.28	71.2573	3,363.28	73.6491	3,363.28	71.493	3,363.28	75.8437	3,363.28	68.9221	3,363.28	76.7628
3,481.93	90.7078	3,481.93	92.6555	3,481.93	92.3308	3,481.93	91.4085	3,481.93	89.1179	3,481.93	89.4085	3,481.93	89.5656	3,481.93	90.7738	3,481.93	87.4178	3,481.93	86.8009	3,481.93	85.3604	3,481.93	84.8487	3,481.93	83.2998	3,481.93	84.9006	3,481.93	84.7766	3,481.93	79.1748	3,481.93	81.7692	3,481.93	71.6481	3,481.93	74.5366	3,481.93	66.6208	3,481.93	70.7574	3,481.93	66.6025	3,481.93	63.7693	3,481.93	68.2754	3,481.93	59.4492	3,481.93	67.1927	3,481.93	73.4817	3,481.93	67.1282	3,481.93	74.9261	3,481.93	68.1296	3,481.93	64.048	3,481.93	74.0861	3,481.93	71.4634	3,481.93	65.8079	3,481.93	65.6556	3,481.93	74.2978
3,604.98	90.6237	3,604.98	92.8091	3,604.98	92.5883	3,604.98	90.6356	3,604.98	89.1093	3,604.98	89.2693	3,604.98	89.0022	3,604.98	88.9665	3,604.98	87.7861	3,604.98	89.0234	3,604.98	86.2631	3,604.98	83.3044	3,604.98	84.1559	3,604.98	83.5009	3,604.98	83.4421	3,604.98	81.5803	3,604.98	83.2375	3,604.98	76.906	3,604.98	69.3045	3,604.98	66.7387	3,604.98	59.78	3,604.98	73.7635	3,604.98	42.2923	3,604.98	62.9839	3,604.98	61.572	3,604.98	74.2757	3,604.98	73.3222	3,604.98	67.6676	3,604.98	72.829	3,604.98	71.6124	3,604.98	62.2606	3,604.98	70.6293	3,604.98	69.6726	3,604.98	68.4272	3,604.98	68.6341	3,604.98	72.8384
3,732.42	90.9924	3,732.42	92.4983	3,732.42	92.5672	3,732.42	90.5619	3,732.42	90.018	3,732.42	89.0525	3,732.42	89.0457	3,732.42	89.2135	3,732.42	87.5457	3,732.42	87.5975	3,732.42	85.8027	3,732.42	84.1658	3,732.42	83.9661	3,732.42	81.7967	3,732.42	83.5627	3,732.42	82.1488	3,732.42	81.6446	3,732.42	68.3837	3,732.42	75.1207	3,732.42	72.3234	3,732.42	59.9857	3,732.42	71.9702	3,732.42	61.1366	3,732.42	59.7676	3,732.42	63.6065	3,732.42	74.9894	3,732.42	71.0318	3,732.42	70.4851	3,732.42	70.9144	3,732.42	72.2287	3,732.42	63.9226	3,732.42	69.0546	3,732.42	70.8542	3,732.42	67.9306	3,732.42	69.4053	3,732.42	73.645
3,864.26	91.1134	3,864.26	91.8282	3,864.26	91.9618	3,864.26	91.6497	3,864.26	89.8463	3,864.26	89.3424	3,864.26	88.9194	3,864.26	88.1021	3,864.26	87.5283	3,864.26	87.0429	3,864.26	86.1833	3,864.26	83.0644	3,864.26	83.0983	3,864.26	79.6431	3,864.26	78.2433	3,864.26	72.5943	3,864.26	81.3296	3,864.26	77.9026	3,864.26	72.6185	3,864.26	69.6739	3,864.26	64.9018	3,864.26	73.4223	3,864.26	63.9417	3,864.26	65.7935	3,864.26	65.358	3,864.26	78.1983	3,864.26	67.5092	3,864.26	59.8717	3,864.26	67.6035	3,864.26	72.2971	3,864.26	58.9229	3,864.26	65.3551	3,864.26	71.8835	3,864.26	65.9666	3,864.26	66.6328	3,864.26	72.6878
4,000.49	91.3627	4,000.49	92.3821	4,000.49	91.8962	4,000.49	90.9994	4,000.49	90.43	4,000.49	89.1018	4,000.49	89.4335	4,000.49	88.4809	4,000.49	88.2513	4,000.49	85.537	4,000.49	85.9764	4,000.49	83.8732	4,000.49	80.5441	4,000.49	78.2046	4,000.49	79.0726	4,000.49	72.9264	4,000.49	72.9563	4,000.49	74.2191	4,000.49	77.2066	4,000.49	70.712	4,000.49	51.2957	4,000.49	73.1723	4,000.49	66.9618	4,000.49	72.7527	4,000.49	61.0066	4,000.49	76.3246	4,000.49	61.1252	4,000.49	59.5601	4,000.49	64.0772	4,000.49	68.8001	4,000.49	67.8283	4,000.49	69.9372	4,000.49	66.7997	4,000.49	61.077	4,000.49	53.2706	4,000.49	70.5759
4,141.11	91.5338	4,141.11	91.4425	4,141.11	91.6321	4,141.11	90.9397	4,141.11	90.4329	4,141.11	89.3453	4,141.11	88.6514	4,141.11	88.0748	4,141.11	87.8494	4,141.11	85.7471	4,141.11	87.373	4,141.11	80.5495	4,141.11	81.1322	4,141.11	78.1399	4,141.11	72.9321	4,141.11	72.9355	4,141.11	71.0408	4,141.11	66.1465	4,141.11	79.0867	4,141.11	70.7927	4,141.11	52.6361	4,141.11	74.5121	4,141.11	58.4098	4,141.11	76.6785	4,141.11	58.3719	4,141.11	71.9158	4,141.11	60.8021	4,141.11	59.998	4,141.11	61.2696	4,141.11	66.7939	4,141.11	66.6068	4,141.11	72.3073	4,141.11	64.9442	4,141.11	43.4372	4,141.11	56.6225	4,141.11	68.4201
4,287.6	92.0514	4,287.6	91.7843	4,287.6	91.1763	4,287.6	90.9215	4,287.6	90.1672	4,287.6	88.5148	4,287.6	88.4013	4,287.6	87.1213	4,287.6	88.1498	4,287.6	85.1776	4,287.6	85.9923	4,287.6	80.4045	4,287.6	81.804	4,287.6	76.0104	4,287.6	65.4068	4,287.6	76.6133	4,287.6	75.5066	4,287.6	71.0937	4,287.6	77.0918	4,287.6	65.565	4,287.6	50.063	4,287.6	74.437	4,287.6	61.9408	4,287.6	76.6443	4,287.6	64.6641	4,287.6	71.4014	4,287.6	63.7173	4,287.6	69.8385	4,287.6	66.1626	4,287.6	67.5119	4,287.6	63.1924	4,287.6	71.7153	4,287.6	64.8194	4,287.6	58.0799	4,287.6	62.7758	4,287.6	65.8153
4,438.48	91.6225	4,438.48	90.2116	4,438.48	90.9602	4,438.48	90.981	4,438.48	90.5612	4,438.48	89.3661	4,438.48	88.7908	4,438.48	87.4625	4,438.48	87.1129	4,438.48	84.0781	4,438.48	85.3681	4,438.48	80.3337	4,438.48	80.2476	4,438.48	75.6282	4,438.48	73.9089	4,438.48	72.8991	4,438.48	78.5912	4,438.48	74.8966	4,438.48	76.6949	4,438.48	53.7954	4,438.48	62.9545	4,438.48	71.9395	4,438.48	56.7735	4,438.48	74.6165	4,438.48	61.9983	4,438.48	70.6044	4,438.48	62.4791	4,438.48	72.5935	4,438.48	66.5361	4,438.48	68.4874	4,438.48	60.3564	4,438.48	67.3887	4,438.48	65.5208	4,438.48	65.7693	4,438.48	64.4153	4,438.48	68.1149
4,595.21	91.6876	4,595.21	91.1897	4,595.21	90.4869	4,595.21	90.9827	4,595.21	89.8163	4,595.21	88.4386	4,595.21	88.9977	4,595.21	87.2217	4,595.21	86.4855	4,595.21	82.7409	4,595.21	84.4929	4,595.21	78.6349	4,595.21	80.515	4,595.21	75.9166	4,595.21	76.8635	4,595.21	68.6972	4,595.21	78.1554	4,595.21	71.5124	4,595.21	75.399	4,595.21	58.713	4,595.21	60.6938	4,595.21	71.0036	4,595.21	60.3299	4,595.21	70.9843	4,595.21	58.2122	4,595.21	69.1916	4,595.21	64.326	4,595.21	66.7235	4,595.21	65.0346	4,595.21	68.2123	4,595.21	61.9481	4,595.21	68.2554	4,595.21	60.139	4,595.21	64.6392	4,595.21	63.4471	4,595.21	67.4717
4,756.35	90.8945	4,756.35	90.2849	4,756.35	90.8891	4,756.35	90.9954	4,756.35	90.2904	4,756.35	88.6069	4,756.35	88.0728	4,756.35	87.3543	4,756.35	87.2186	4,756.35	82.7978	4,756.35	84.3541	4,756.35	80.2587	4,756.35	81.3871	4,756.35	75.2222	4,756.35	71.8192	4,756.35	73.6685	4,756.35	76.2344	4,756.35	70.1572	4,756.35	68.9356	4,756.35	62.4611	4,756.35	58.3801	4,756.35	73.9986	4,756.35	64.4707	4,756.35	69.325	4,756.35	59.2115	4,756.35	74.4348	4,756.35	60.4449	4,756.35	58.4605	4,756.35	53.2751	4,756.35	72.2203	4,756.35	61.8538	4,756.35	70.5909	4,756.35	64.0615	4,756.35	58.7913	4,756.35	63.3973	4,756.35	59.4465
4,924.8	91.7643	4,924.8	90.9727	4,924.8	90.0786	4,924.8	90.9159	4,924.8	89.9394	4,924.8	88.1137	4,924.8	88.735	4,924.8	85.6925	4,924.8	86.2439	4,924.8	83.9595	4,924.8	84.5106	4,924.8	82.3032	4,924.8	81.1358	4,924.8	77.1827	4,924.8	74.0476	4,924.8	69.2005	4,924.8	71.289	4,924.8	75.5599	4,924.8	71.5047	4,924.8	64.3819	4,924.8	62.2643	4,924.8	71.8335	4,924.8	60.9303	4,924.8	70.9913	4,924.8	51.7962	4,924.8	75.4872	4,924.8	43.4434	4,924.8	71.4296	4,924.8	63.7485	4,924.8	69.6915	4,924.8	63.7068	4,924.8	73.062	4,924.8	62.5041	4,924.8	66.9419	4,924.8	65.8948	4,924.8	54.2607
5,097.66	90.9114	5,097.66	90.6839	5,097.66	90.7874	5,097.66	90.9124	5,097.66	90.1208	5,097.66	88.9679	5,097.66	87.6211	5,097.66	85.9907	5,097.66	85.9845	5,097.66	82.7559	5,097.66	84.5535	5,097.66	79.7837	5,097.66	80.3211	5,097.66	77.2165	5,097.66	70.1649	5,097.66	74.9421	5,097.66	71.0333	5,097.66	70.0159	5,097.66	72.4291	5,097.66	66.5574	5,097.66	54.206	5,097.66	69.9144	5,097.66	60.2947	5,097.66	74.6633	5,097.66	60.5899	5,097.66	77.4555	5,097.66	61.1561	5,097.66	66.2523	5,097.66	61.4821	5,097.66	66.0631	5,097.66	63.9465	5,097.66	69.6738	5,097.66	66.7569	5,097.66	60.3896	5,097.66	63.3282	5,097.66	59.2959
5,277.83	91.3494	5,277.83	91.2327	5,277.83	90.8936	5,277.83	91.0191	5,277.83	89.5476	5,277.83	87.8845	5,277.83	87.643	5,277.83	85.7357	5,277.83	84.6612	5,277.83	84.1638	5,277.83	85.4568	5,277.83	81.8352	5,277.83	81.3882	5,277.83	78.0628	5,277.83	74.0875	5,277.83	69.9544	5,277.83	70.5542	5,277.83	74.0063	5,277.83	69.917	5,277.83	69.8648	5,277.83	55.6683	5,277.83	68.6768	5,277.83	43.3871	5,277.83	73.2638	5,277.83	59.5077	5,277.83	75.8259	5,277.83	63.5363	5,277.83	70.534	5,277.83	67.0815	5,277.83	57.6507	5,277.83	62.5943	5,277.83	64.4268	5,277.83	62.6258	5,277.83	65.3534	5,277.83	66.0429	5,277.83	61.7375
5,463.87	90.5548	5,463.87	90.7298	5,463.87	90.1967	5,463.87	90.7031	5,463.87	89.6802	5,463.87	88.1935	5,463.87	87.2667	5,463.87	85.6211	5,463.87	85.3421	5,463.87	83.7608	5,463.87	83.7231	5,463.87	82.1312	5,463.87	80.2726	5,463.87	75.6446	5,463.87	73.7428	5,463.87	73.4976	5,463.87	66.9963	5,463.87	66.2303	5,463.87	69.5648	5,463.87	67.5632	5,463.87	57.662	5,463.87	66.4084	5,463.87	24.1898	5,463.87	72.1029	5,463.87	56.9305	5,463.87	75.7389	5,463.87	63.8707	5,463.87	71.2881	5,463.87	65.634	5,463.87	68.9137	5,463.87	66.7682	5,463.87	59.6754	5,463.87	55.3907	5,463.87	61.4498	5,463.87	61.5808	5,463.87	45.3478
5,657.23	90.3282	5,657.23	90.8572	5,657.23	90.2976	5,657.23	91.2731	5,657.23	89.0832	5,657.23	87.6145	5,657.23	87.4296	5,657.23	86.1109	5,657.23	86.3388	5,657.23	84.5506	5,657.23	83.7062	5,657.23	82.4165	5,657.23	81.137	5,657.23	77.0327	5,657.23	76.5682	5,657.23	71.8389	5,657.23	72.8224	5,657.23	69.4823	5,657.23	72.0774	5,657.23	70.8302	5,657.23	62.6521	5,657.23	58.6352	5,657.23	63.4885	5,657.23	68.0565	5,657.23	64.1853	5,657.23	75.0128	5,657.23	59.0885	5,657.23	74.7206	5,657.23	62.9758	5,657.23	69.1618	5,657.23	57.3878	5,657.23	69.5407	5,657.23	59.6969	5,657.23	61.9244	5,657.23	61.7679	5,657.23	60.4949
5,856.45	90.1289	5,856.45	91.1696	5,856.45	89.4941	5,856.45	90.1746	5,856.45	89.3525	5,856.45	85.5628	5,856.45	87.6779	5,856.45	85.8777	5,856.45	85.5869	5,856.45	85.3631	5,856.45	82.9274	5,856.45	80.6455	5,856.45	79.6346	5,856.45	78.5013	5,856.45	77.6168	5,856.45	73.5146	5,856.45	66.7382	5,856.45	75.2695	5,856.45	59.765	5,856.45	67.7977	5,856.45	63.6838	5,856.45	55.9451	5,856.45	60.1486	5,856.45	70.5179	5,856.45	62.8394	5,856.45	75.1698	5,856.45	66.9689	5,856.45	74.6802	5,856.45	65.9377	5,856.45	68.7862	5,856.45	62.3085	5,856.45	75.4693	5,856.45	48.6269	5,856.45	67.7012	5,856.45	53.7421	5,856.45	59.6251
6,062.99	91.0725	6,062.99	91.1009	6,062.99	88.8557	6,062.99	89.1189	6,062.99	88.7448	6,062.99	85.7427	6,062.99	87.5903	6,062.99	84.9545	6,062.99	85.72	6,062.99	82.2444	6,062.99	82.2064	6,062.99	82.2842	6,062.99	78.1443	6,062.99	81.3539	6,062.99	78.3266	6,062.99	78.086	6,062.99	68.0807	6,062.99	73.93	6,062.99	68.2011	6,062.99	69.8178	6,062.99	57.105	6,062.99	58.865	6,062.99	57.7457	6,062.99	71.7338	6,062.99	60.6153	6,062.99	78.4281	6,062.99	55.4076	6,062.99	73.6203	6,062.99	66.359	6,062.99	65.3857	6,062.99	62.2255	6,062.99	73.9792	6,062.99	58.4477	6,062.99	68.6518	6,062.99	53.163	6,062.99	55.6505
6,276.86	91.4259	6,276.86	91.0099	6,276.86	88.512	6,276.86	88.8631	6,276.86	88.3334	6,276.86	86.2216	6,276.86	87.1243	6,276.86	83.083	6,276.86	85.9198	6,276.86	81.812	6,276.86	84.058	6,276.86	84.4767	6,276.86	79.4957	6,276.86	81.2338	6,276.86	74.5394	6,276.86	75.0275	6,276.86	64.7282	6,276.86	66.9775	6,276.86	69.4269	6,276.86	73.8178	6,276.86	57.756	6,276.86	67.8486	6,276.86	56.2263	6,276.86	69.9948	6,276.86	48.0185	6,276.86	79.7575	6,276.86	61.3995	6,276.86	70.1426	6,276.86	58.9809	6,276.86	63.3166	6,276.86	60.9955	6,276.86	65.6402	6,276.86	63.1011	6,276.86	64.9048	6,276.86	48.3671	6,276.86	53.8824
6,498.05	91.147	6,498.05	90.0635	6,498.05	88.8869	6,498.05	88.9754	6,498.05	87.892	6,498.05	85.9451	6,498.05	86.4952	6,498.05	80.8609	6,498.05	84.8573	6,498.05	82.834	6,498.05	82.4858	6,498.05	83.9618	6,498.05	80.4411	6,498.05	79.3962	6,498.05	77.4067	6,498.05	71.2616	6,498.05	70.0802	6,498.05	63.6142	6,498.05	66.5871	6,498.05	72.8209	6,498.05	55.4621	6,498.05	67.1042	6,498.05	45.39	6,498.05	61.0392	6,498.05	42.7471	6,498.05	78.3451	6,498.05	59.6125	6,498.05	72.9123	6,498.05	62.3441	6,498.05	69.1836	6,498.05	61.2704	6,498.05	65.9309	6,498.05	60.5285	6,498.05	59.1472	6,498.05	59.308	6,498.05	53.234
6,726.56	91.5273	6,726.56	90.0531	6,726.56	89.3433	6,726.56	88.9488	6,726.56	87.3722	6,726.56	85.2968	6,726.56	86.0246	6,726.56	81.2905	6,726.56	84.3904	6,726.56	83.698	6,726.56	81.4576	6,726.56	83.9467	6,726.56	79.6725	6,726.56	79.1415	6,726.56	78.9786	6,726.56	70.7265	6,726.56	67.3035	6,726.56	66.1776	6,726.56	62.8731	6,726.56	72.8918	6,726.56	64.0378	6,726.56	64.7246	6,726.56	48.6998	6,726.56	57.087	6,726.56	52.0827	6,726.56	76.6937	6,726.56	54.4546	6,726.56	74.1519	6,726.56	63.4389	6,726.56	69.371	6,726.56	50.0846	6,726.56	70.0641	6,726.56	54.8253	6,726.56	55.2983	6,726.56	55.1195	6,726.56	57.1204
6,963.87	91.6005	6,963.87	90.5001	6,963.87	89.3177	6,963.87	89.3521	6,963.87	87.6343	6,963.87	84.6828	6,963.87	85.5573	6,963.87	81.4819	6,963.87	83.1295	6,963.87	83.2398	6,963.87	81.8315	6,963.87	83.1342	6,963.87	79.151	6,963.87	78.122	6,963.87	78.5102	6,963.87	71.6921	6,963.87	63.4912	6,963.87	69.4716	6,963.87	57.3626	6,963.87	75.71	6,963.87	61.5194	6,963.87	71.7655	6,963.87	58.3225	6,963.87	56.4301	6,963.87	60.7037	6,963.87	76.0133	6,963.87	55.6771	6,963.87	73.6054	6,963.87	63.6697	6,963.87	65.4842	6,963.87	55.1904	6,963.87	71.1449	6,963.87	58.6031	6,963.87	62.295	6,963.87	56.3323	6,963.87	52.0054
7,209.96	91.7582	7,209.96	90.786	7,209.96	89.7034	7,209.96	89.8858	7,209.96	87.9386	7,209.96	84.1309	7,209.96	84.9944	7,209.96	82.6026	7,209.96	82.5077	7,209.96	82.3325	7,209.96	81.3292	7,209.96	82.4326	7,209.96	78.5026	7,209.96	77.1238	7,209.96	75.9485	7,209.96	70.6306	7,209.96	69.692	7,209.96	65.2054	7,209.96	63.7276	7,209.96	73.9811	7,209.96	60.0317	7,209.96	74.668	7,209.96	46.0823	7,209.96	64.5927	7,209.96	57.3776	7,209.96	74.6101	7,209.96	54.7064	7,209.96	73.0706	7,209.96	61.6219	7,209.96	61.459	7,209.96	60.6781	7,209.96	68.8517	7,209.96	55.6215	7,209.96	59.977	7,209.96	56.3948	7,209.96	54.7929
7,464.84	92.1401	7,464.84	91.3978	7,464.84	90.4341	7,464.84	89.6822	7,464.84	87.4723	7,464.84	83.6656	7,464.84	85.2819	7,464.84	82.3692	7,464.84	83.0213	7,464.84	83.3049	7,464.84	81.6148	7,464.84	82.4447	7,464.84	80.1448	7,464.84	76.9424	7,464.84	71.4813	7,464.84	70.1025	7,464.84	73.5154	7,464.84	59.8791	7,464.84	64.4896	7,464.84	67.9452	7,464.84	61.0465	7,464.84	72.2036	7,464.84	54.7526	7,464.84	64.006	7,464.84	52.5576	7,464.84	73.5659	7,464.84	45.7644	7,464.84	73.802	7,464.84	53.19	7,464.84	68.5404	7,464.84	51.1161	7,464.84	71.1992	7,464.84	54.8285	7,464.84	54.6459	7,464.84	57.5073	7,464.84	54.7405
7,727.05	92.7908	7,727.05	91.8511	7,727.05	90.7737	7,727.05	89.5256	7,727.05	86.964	7,727.05	84.3082	7,727.05	84.337	7,727.05	84.8471	7,727.05	83.4475	7,727.05	81.3627	7,727.05	81.9334	7,727.05	80.4923	7,727.05	79.5005	7,727.05	76.2795	7,727.05	77.0938	7,727.05	69.5057	7,727.05	70.3079	7,727.05	68.6156	7,727.05	65.0202	7,727.05	64.0736	7,727.05	60.8813	7,727.05	71.8347	7,727.05	57.7324	7,727.05	60.0071	7,727.05	44.4823	7,727.05	74.3477	7,727.05	45.3426	7,727.05	75.2827	7,727.05	57.2157	7,727.05	65.3659	7,727.05	44.8243	7,727.05	72.6111	7,727.05	57.5479	7,727.05	62.1189	7,727.05	60.4184	7,727.05	50.4692
7,999.51	93.2378	7,999.51	92.3491	7,999.51	91.2955	7,999.51	88.9964	7,999.51	87.605	7,999.51	84.6403	7,999.51	84.2425	7,999.51	85.6609	7,999.51	83.0138	7,999.51	82.4454	7,999.51	82.8796	7,999.51	77.5987	7,999.51	80.4007	7,999.51	67.8169	7,999.51	79.3175	7,999.51	65.4081	7,999.51	67.5658	7,999.51	64.2485	7,999.51	60.1559	7,999.51	66.1099	7,999.51	52.1048	7,999.51	77.7474	7,999.51	62.9766	7,999.51	70.9353	7,999.51	63.1087	7,999.51	68.5561	7,999.51	58.8661	7,999.51	77.5347	7,999.51	63.3978	7,999.51	59.643	7,999.51	53.4544	7,999.51	68.6101	7,999.51	52.0717	7,999.51	66.2956	7,999.51	58.402	7,999.51	57.356
8,282.23	93.3933	8,282.23	92.2831	8,282.23	91.405	8,282.23	89.2573	8,282.23	88.0716	8,282.23	86.9725	8,282.23	84.3641	8,282.23	86.2158	8,282.23	83.8292	8,282.23	82.7298	8,282.23	83.3093	8,282.23	77.7834	8,282.23	81.2139	8,282.23	73.9015	8,282.23	78.3107	8,282.23	69.8865	8,282.23	69.8422	8,282.23	57.7549	8,282.23	47.4269	8,282.23	68.0386	8,282.23	65.1157	8,282.23	76.7867	8,282.23	61.1379	8,282.23	74.0001	8,282.23	55.0973	8,282.23	56.2211	8,282.23	56.4487	8,282.23	77.5478	8,282.23	58.1245	8,282.23	56.8716	8,282.23	60.7178	8,282.23	70.9187	8,282.23	61.3574	8,282.23	63.4813	8,282.23	60.856	8,282.23	63.009
8,573.73	91.0095	8,573.73	90.3362	8,573.73	89.3904	8,573.73	87.3489	8,573.73	86.198	8,573.73	85.2231	8,573.73	82.6153	8,573.73	84.6236	8,573.73	81.2304	8,573.73	80.2308	8,573.73	80.0271	8,573.73	74.0693	8,573.73	77.787	8,573.73	68.469	8,573.73	70.3553	8,573.73	68.4496	8,573.73	67.5736	8,573.73	68.1388	8,573.73	56.0549	8,573.73	70.409	8,573.73	50.5324	8,573.73	74.4532	8,573.73	59.291	8,573.73	66.5064	8,573.73	65.2372	8,573.73	65.5409	8,573.73	66.0521	8,573.73	76.4143	8,573.73	59.6579	8,573.73	62.2817	8,573.73	59.9162	8,573.73	71.9234	8,573.73	55.2558	8,573.73	64.3765	8,573.73	51.6883	8,573.73	58.8774
8,876.95	90.2816	8,876.95	89.2064	8,876.95	88.7529	8,876.95	86.2763	8,876.95	85.4212	8,876.95	84.5672	8,876.95	81.7126	8,876.95	83.4966	8,876.95	80.2629	8,876.95	78.9932	8,876.95	78.836	8,876.95	75.0508	8,876.95	74.4261	8,876.95	75.8922	8,876.95	72.8973	8,876.95	71.9732	8,876.95	69.2489	8,876.95	48.0829	8,876.95	60.6729	8,876.95	67.7397	8,876.95	55.8552	8,876.95	69.3349	8,876.95	52.6156	8,876.95	66.9096	8,876.95	57.6911	8,876.95	63.9895	8,876.95	55.5568	8,876.95	74.3551	8,876.95	49.484	8,876.95	50.1755	8,876.95	45.8871	8,876.95	64.1723	8,876.95	26.3162	8,876.95	54.318	8,876.95	55.7505	8,876.95	47.1298
9,188.96	92.1586	9,188.96	90.7834	9,188.96	90.8223	9,188.96	87.6338	9,188.96	87.533	9,188.96	86.1642	9,188.96	83.2749	9,188.96	84.6408	9,188.96	81.4833	9,188.96	79.4967	9,188.96	78.9983	9,188.96	78.268	9,188.96	76.778	9,188.96	77.0806	9,188.96	74.1607	9,188.96	69.7602	9,188.96	72.4989	9,188.96	72.1015	9,188.96	57.8836	9,188.96	60.8893	9,188.96	55.1171	9,188.96	76.5316	9,188.96	57.55	9,188.96	72.1939	9,188.96	62.8226	9,188.96	68.4131	9,188.96	61.5811	9,188.96	76.0916	9,188.96	62.5807	9,188.96	68.5273	9,188.96	58.1026	9,188.96	72.0317	9,188.96	54.7623	9,188.96	57.6962	9,188.96	57.1749	9,188.96	52.6943
9,514.16	92.8651	9,514.16	90.9372	9,514.16	91.8621	9,514.16	87.7707	9,514.16	88.5417	9,514.16	86.4118	9,514.16	84.3894	9,514.16	84.0948	9,514.16	81.1975	9,514.16	78.4417	9,514.16	79.1576	9,514.16	79.7083	9,514.16	77.5307	9,514.16	78.2207	9,514.16	74.771	9,514.16	74.1833	9,514.16	69.2844	9,514.16	69.2615	9,514.16	62.3729	9,514.16	59.4659	9,514.16	53.4169	9,514.16	77.1867	9,514.16	57.6248	9,514.16	70.078	9,514.16	63.4503	9,514.16	61.8813	9,514.16	62.8704	9,514.16	74.3342	9,514.16	55.8152	9,514.16	68.8982	9,514.16	54.7409	9,514.16	75.9546	9,514.16	48.3309	9,514.16	63.0364	9,514.16	62.8402	9,514.16	55.5522
9,849.61	93.251	9,849.61	90.4919	9,849.61	92.6389	9,849.61	87.256	9,849.61	89.5831	9,849.61	85.7309	9,849.61	85.6014	9,849.61	82.5756	9,849.61	82.1187	9,849.61	77.6579	9,849.61	80.3358	9,849.61	80.8991	9,849.61	78.4995	9,849.61	78.3768	9,849.61	73.1019	9,849.61	72.6063	9,849.61	63.9594	9,849.61	58.0556	9,849.61	59.501	9,849.61	65.0451	9,849.61	63.3914	9,849.61	71.8782	9,849.61	63.1544	9,849.61	70.4312	9,849.61	66.5918	9,849.61	54.8212	9,849.61	56.0544	9,849.61	77.7444	9,849.61	49.2194	9,849.61	65.8849	9,849.61	59.7811	9,849.61	68.5938	9,849.61	56.3891	9,849.61	58.1692	9,849.61	59.6039	9,849.61	59.661
10,196.8	93.261	10,196.8	90.1623	10,196.8	92.6337	10,196.8	88.1249	10,196.8	89.3973	10,196.8	86.2171	10,196.8	84.9766	10,196.8	81.916	10,196.8	81.0812	10,196.8	79.9971	10,196.8	79.1008	10,196.8	81.6928	10,196.8	77.291	10,196.8	78.7519	10,196.8	75.7156	10,196.8	71.5926	10,196.8	71.1273	10,196.8	59.8468	10,196.8	55.0889	10,196.8	62.4413	10,196.8	64.051	10,196.8	66.1413	10,196.8	61.472	10,196.8	73.6111	10,196.8	63.5278	10,196.8	69.7561	10,196.8	56.3442	10,196.8	76.7596	10,196.8	51.6716	10,196.8	68.752	10,196.8	49.0061	10,196.8	69.7104	10,196.8	48.2301	10,196.8	61.5462	10,196.8	55.7413	10,196.8	56.6834
10,555.7	93.5693	10,555.7	90.3555	10,555.7	92.4139	10,555.7	88.9063	10,555.7	89.1399	10,555.7	86.7311	10,555.7	84.6434	10,555.7	80.7369	10,555.7	81.5918	10,555.7	81.8207	10,555.7	79.2759	10,555.7	81.7724	10,555.7	77.6899	10,555.7	77.4758	10,555.7	73.5714	10,555.7	67.9255	10,555.7	71.1839	10,555.7	67.0725	10,555.7	52.6963	10,555.7	57.8886	10,555.7	63.7844	10,555.7	73.4081	10,555.7	53.7342	10,555.7	76.8675	10,555.7	60.3283	10,555.7	71.4612	10,555.7	54.8226	10,555.7	72.1909	10,555.7	54.9922	10,555.7	71.8266	10,555.7	56.4275	10,555.7	66.8621	10,555.7	50.611	10,555.7	64.571	10,555.7	48.5727	10,555.7	57.8483
10,927.7	93.8116	10,927.7	90.5902	10,927.7	92.5652	10,927.7	89.7208	10,927.7	89.6689	10,927.7	86.9448	10,927.7	85.4172	10,927.7	81.4778	10,927.7	82.3942	10,927.7	83.101	10,927.7	78.6372	10,927.7	80.7509	10,927.7	76.2193	10,927.7	75.297	10,927.7	73.5744	10,927.7	63.5389	10,927.7	71.7542	10,927.7	68.4708	10,927.7	57.1116	10,927.7	52.7594	10,927.7	63.4889	10,927.7	72.3329	10,927.7	54.6941	10,927.7	73.7173	10,927.7	61.1283	10,927.7	69.0938	10,927.7	57.0914	10,927.7	72.3277	10,927.7	56.3667	10,927.7	70.6531	10,927.7	49.3163	10,927.7	63.3693	10,927.7	58.9823	10,927.7	65.1518	10,927.7	60.541	10,927.7	56.2587
11,313	93.8385	11,313	90.8555	11,313	93.1303	11,313	90.6574	11,313	90.8522	11,313	87.5126	11,313	86.0575	11,313	84.5259	11,313	81.0558	11,313	83.9059	11,313	78.3177	11,313	79.3612	11,313	75.7482	11,313	71.7213	11,313	73.7286	11,313	57.6015	11,313	72.6002	11,313	55.4563	11,313	52.3052	11,313	66.9039	11,313	63.3923	11,313	65.1482	11,313	57.7699	11,313	77.1692	11,313	58.24	11,313	72.6029	11,313	48.8135	11,313	76.0299	11,313	47.7542	11,313	70.1978	11,313	55.8851	11,313	67.7325	11,313	64.4322	11,313	64.4802	11,313	60.2352	11,313	58.9159
11,712.9	94.1236	11,712.9	91.2224	11,712.9	93.4859	11,712.9	91.3037	11,712.9	91.5232	11,712.9	87.6507	11,712.9	86.3506	11,712.9	85.9632	11,712.9	81.7399	11,712.9	84.9472	11,712.9	77.619	11,712.9	79.1724	11,712.9	76.1474	11,712.9	73.5996	11,712.9	74.0948	11,712.9	71.0284	11,712.9	71.885	11,712.9	59.4794	11,712.9	62.3278	11,712.9	71.4194	11,712.9	65.2891	11,712.9	70.1589	11,712.9	57.1994	11,712.9	74.934	11,712.9	54.4404	11,712.9	64.7459	11,712.9	61.7976	11,712.9	70.7252	11,712.9	58.705	11,712.9	76.4572	11,712.9	57.223	11,712.9	61.6677	11,712.9	62.8623	11,712.9	68.8634	11,712.9	57.8994	11,712.9	51.7302
12,126	93.975	12,126	91.1596	12,126	93.6809	12,126	91.8394	12,126	91.6222	12,126	88.2456	12,126	86.2094	12,126	87.0858	12,126	80.9871	12,126	84.9036	12,126	78.493	12,126	79.3284	12,126	75.8614	12,126	77.4075	12,126	72.8407	12,126	72.7333	12,126	73.7595	12,126	67.4665	12,126	61.4278	12,126	65.5847	12,126	65.5244	12,126	69.6924	12,126	50.5641	12,126	70.7492	12,126	58.9283	12,126	67.4907	12,126	59.877	12,126	72.184	12,126	55.76	12,126	71.6091	12,126	55.9756	12,126	64.5801	12,126	65.0329	12,126	70.0249	12,126	55.8624	12,126	53.5416
12,553.7	93.2662	12,553.7	91.0959	12,553.7	93.4582	12,553.7	91.6357	12,553.7	91.7484	12,553.7	87.9724	12,553.7	86.5365	12,553.7	87.3753	12,553.7	82.1463	12,553.7	84.5035	12,553.7	79.0605	12,553.7	79.3615	12,553.7	76.5677	12,553.7	78.9131	12,553.7	76.3068	12,553.7	73.4578	12,553.7	73.9003	12,553.7	68.2732	12,553.7	62.841	12,553.7	69.5887	12,553.7	64.1161	12,553.7	63.3379	12,553.7	53.8657	12,553.7	75.2203	12,553.7	64.549	12,553.7	73.0733	12,553.7	68.1024	12,553.7	65.2194	12,553.7	62.8399	12,553.7	68.0291	12,553.7	62.4659	12,553.7	67.5729	12,553.7	66.434	12,553.7	69.5242	12,553.7	53.5447	12,553.7	61.4238
12,996.1	92.5229	12,996.1	91.0133	12,996.1	93.2803	12,996.1	91.4633	12,996.1	91.4133	12,996.1	87.915	12,996.1	87.1566	12,996.1	87.325	12,996.1	83.6248	12,996.1	83.4446	12,996.1	78.1761	12,996.1	79.7484	12,996.1	77.9963	12,996.1	80.7561	12,996.1	76.9324	12,996.1	75.9063	12,996.1	75.0953	12,996.1	71.4056	12,996.1	65.9111	12,996.1	68.7068	12,996.1	62.0569	12,996.1	72.4473	12,996.1	62.7021	12,996.1	68.3254	12,996.1	67.3823	12,996.1	71.9548	12,996.1	69.1917	12,996.1	68.8791	12,996.1	67.1527	12,996.1	69.2295	12,996.1	64.2003	12,996.1	71.011	12,996.1	69.2965	12,996.1	72.1808	12,996.1	60.7239	12,996.1	57.8112
13,454.6	91.9248	13,454.6	91.6363	13,454.6	92.8616	13,454.6	91.5107	13,454.6	91.1026	13,454.6	88.0273	13,454.6	87.4261	13,454.6	86.9625	13,454.6	82.92	13,454.6	82.6083	13,454.6	77.8861	13,454.6	80.5179	13,454.6	78.7872	13,454.6	81.325	13,454.6	77.3429	13,454.6	76.4819	13,454.6	73.3007	13,454.6	70.8266	13,454.6	66.9061	13,454.6	65.5649	13,454.6	63.1726	13,454.6	76.8858	13,454.6	63.9248	13,454.6	71.424	13,454.6	69.0364	13,454.6	71.8155	13,454.6	69.9763	13,454.6	70.1367	13,454.6	66.1321	13,454.6	69.8193	13,454.6	67.7265	13,454.6	61.101	13,454.6	69.2162	13,454.6	70.6151	13,454.6	55.3489	13,454.6	55.4063
13,929.2	91.2745	13,929.2	92.1426	13,929.2	92.829	13,929.2	91.9438	13,929.2	91.0877	13,929.2	88.4226	13,929.2	87.4159	13,929.2	86.9702	13,929.2	82.415	13,929.2	81.6976	13,929.2	78.6082	13,929.2	80.4286	13,929.2	79.8728	13,929.2	81.1329	13,929.2	77.2424	13,929.2	75.9849	13,929.2	76.9423	13,929.2	73.5566	13,929.2	67.4812	13,929.2	64.2848	13,929.2	62.1416	13,929.2	77.1214	13,929.2	63.0637	13,929.2	72.7246	13,929.2	70.9341	13,929.2	76.6032	13,929.2	71.0648	13,929.2	57.8038	13,929.2	69.0523	13,929.2	68.3211	13,929.2	67.7811	13,929.2	68.2715	13,929.2	71.0555	13,929.2	68.9526	13,929.2	62.3466	13,929.2	54.0637
14,419.9	90.1064	14,419.9	92.6339	14,419.9	93.016	14,419.9	91.8483	14,419.9	91.6404	14,419.9	88.6495	14,419.9	88.1472	14,419.9	86.012	14,419.9	82.9976	14,419.9	81.0205	14,419.9	79.5907	14,419.9	79.9867	14,419.9	81.0964	14,419.9	81.1511	14,419.9	78.5092	14,419.9	75.762	14,419.9	76.0589	14,419.9	75.3856	14,419.9	70.3982	14,419.9	68.3943	14,419.9	62.7688	14,419.9	75.5976	14,419.9	65.382	14,419.9	76.106	14,419.9	71.1106	14,419.9	74.2049	14,419.9	71.3068	14,419.9	77.2214	14,419.9	68.9485	14,419.9	76.958	14,419.9	67.4186	14,419.9	76.0848	14,419.9	70.0591	14,419.9	68.6635	14,419.9	58.8485	14,419.9	64.8719
14,928.2	89.1454	14,928.2	93.3332	14,928.2	93.0901	14,928.2	92.0549	14,928.2	91.4437	14,928.2	89.0616	14,928.2	88.991	14,928.2	85.0819	14,928.2	83.814	14,928.2	81.0486	14,928.2	80.4352	14,928.2	78.3645	14,928.2	82.6456	14,928.2	81.4221	14,928.2	79.5976	14,928.2	75.3916	14,928.2	74.9789	14,928.2	76.2352	14,928.2	71.7546	14,928.2	64.9697	14,928.2	62.9774	14,928.2	73.8631	14,928.2	68.8915	14,928.2	67.3791	14,928.2	73.7564	14,928.2	73.8454	14,928.2	72.7891	14,928.2	75.6766	14,928.2	71.485	14,928.2	66.6081	14,928.2	69.1065	14,928.2	73.5224	14,928.2	72.2779	14,928.2	75.1503	14,928.2	64.5278	14,928.2	63.8171
15,455.6	86.7566	15,455.6	92.3899	15,455.6	91.8234	15,455.6	90.8041	15,455.6	91.1073	15,455.6	87.6959	15,455.6	88.967	15,455.6	82.6195	15,455.6	82.8824	15,455.6	79.1248	15,455.6	80.2792	15,455.6	73.873	15,455.6	82.5659	15,455.6	80.3423	15,455.6	77.7268	15,455.6	73.3669	15,455.6	76.2316	15,455.6	77.7969	15,455.6	71.1416	15,455.6	70.6444	15,455.6	61.5655	15,455.6	77.3943	15,455.6	68.9979	15,455.6	74.9419	15,455.6	73.0806	15,455.6	76.565	15,455.6	71.555	15,455.6	76.4109	15,455.6	71.2759	15,455.6	75.8445	15,455.6	67.3976	15,455.6	74.6975	15,455.6	70.0109	15,455.6	74.6577	15,455.6	59.4014	15,455.6	63.9955
16,000.5	84.8247	16,000.5	88.3923	16,000.5	88.1002	16,000.5	87.6944	16,000.5	88.4099	16,000.5	82.3218	16,000.5	86.4673	16,000.5	77.6323	16,000.5	79.8307	16,000.5	72.2378	16,000.5	77.1038	16,000.5	66.0458	16,000.5	78.7219	16,000.5	75.6563	16,000.5	73.1406	16,000.5	69.0686	16,000.5	73.9677	16,000.5	73.9229	16,000.5	69.5228	16,000.5	58.98	16,000.5	49.5899	16,000.5	71.6087	16,000.5	61.6937	16,000.5	67.2493	16,000.5	68.2134	16,000.5	74.9607	16,000.5	67.6509	16,000.5	69.898	16,000.5	68.2178	16,000.5	72.3013	16,000.5	64.3669	16,000.5	69.4449	16,000.5	68.4695	16,000.5	71.0634	16,000.5	64.6987	16,000.5	56.4925
16,564.5	86.1724	16,564.5	86.658	16,564.5	85.5513	16,564.5	84.0811	16,564.5	83.5033	16,564.5	75.6787	16,564.5	79.3278	16,564.5	69.4757	16,564.5	69.4429	16,564.5	64.1249	16,564.5	66.7868	16,564.5	62.1285	16,564.5	71.4561	16,564.5	66.5671	16,564.5	64.4168	16,564.5	60.7025	16,564.5	69.4596	16,564.5	65.8005	16,564.5	65.2875	16,564.5	54.9627	16,564.5	53.3273	16,564.5	60.4898	16,564.5	54.2648	16,564.5	60.9295	16,564.5	58.7103	16,564.5	68.6533	16,564.5	60.6547	16,564.5	63.0985	16,564.5	57.0342	16,564.5	66.0163	16,564.5	56.8671	16,564.5	55.826	16,564.5	59.5575	16,564.5	66.3866	16,564.5	60.1955	16,564.5	58.4253
17,148.9	85.6179	17,148.9	84.1727	17,148.9	85.8676	17,148.9	82.2989	17,148.9	84.882	17,148.9	70.8757	17,148.9	80.1535	17,148.9	66.3139	17,148.9	74.04	17,148.9	64.3238	17,148.9	68.1148	17,148.9	64.2609	17,148.9	74.2306	17,148.9	68.844	17,148.9	63.853	17,148.9	54.8268	17,148.9	67.3439	17,148.9	60.6295	17,148.9	63.1284	17,148.9	57.1019	17,148.9	28.1852	17,148.9	64.9297	17,148.9	52.6468	17,148.9	65.4768	17,148.9	59.398	17,148.9	68.6041	17,148.9	56.4749	17,148.9	62.6983	17,148.9	61.9647	17,148.9	60.2594	17,148.9	54.6288	17,148.9	66.9212	17,148.9	61.14	17,148.9	65.893	17,148.9	60.2149	17,148.9	63.0887
17,752.4	87.077	17,752.4	85.9815	17,752.4	87.3252	17,752.4	85.0027	17,752.4	87.7341	17,752.4	71.4386	17,752.4	83.1917	17,752.4	68.0281	17,752.4	75.22	17,752.4	69.2688	17,752.4	70.7818	17,752.4	64.7916	17,752.4	75.368	17,752.4	69.4036	17,752.4	63.0907	17,752.4	52.5942	17,752.4	69.8694	17,752.4	62.2849	17,752.4	67.5293	17,752.4	62.2164	17,752.4	44.3651	17,752.4	66.8901	17,752.4	59.6102	17,752.4	69.0034	17,752.4	56.6488	17,752.4	68.1839	17,752.4	57.1552	17,752.4	66.4586	17,752.4	63.367	17,752.4	65.152	17,752.4	58.4256	17,752.4	65.7857	17,752.4	63.8124	17,752.4	66.2882	17,752.4	57.1046	17,752.4	64.3884
18,379.4	85.7079	18,379.4	84.1597	18,379.4	85.1886	18,379.4	82.306	18,379.4	84.058	18,379.4	69.926	18,379.4	77.8788	18,379.4	57.9256	18,379.4	70.4449	18,379.4	65.7559	18,379.4	66.7245	18,379.4	63.5307	18,379.4	69.2265	18,379.4	61.8758	18,379.4	58.1024	18,379.4	42.0188	18,379.4	64.7717	18,379.4	52.0333	18,379.4	63.2431	18,379.4	59.0949	18,379.4	43.3545	18,379.4	64.0702	18,379.4	55.1657	18,379.4	63.2259	18,379.4	50.0192	18,379.4	61.6378	18,379.4	48.4582	18,379.4	67.3942	18,379.4	57.2084	18,379.4	60.4746	18,379.4	56.146	18,379.4	65.5192	18,379.4	60.3308	18,379.4	61.2144	18,379.4	51.5294	18,379.4	52.8406
19,026.9	82.1109	19,026.9	80.1061	19,026.9	82.5737	19,026.9	78.7953	19,026.9	82.399	19,026.9	68.3515	19,026.9	76.3442	19,026.9	64.6719	19,026.9	68.8934	19,026.9	67.559	19,026.9	66.3071	19,026.9	59.5729	19,026.9	66.4678	19,026.9	52.7344	19,026.9	60.5646	19,026.9	44.6087	19,026.9	64.5773	19,026.9	48.7115	19,026.9	61.3979	19,026.9	42.7062	19,026.9	53.7516	19,026.9	57.2107	19,026.9	55.6638	19,026.9	62.0529	19,026.9	45.8198	19,026.9	50.2254	19,026.9	39.9861	19,026.9	59.6384	19,026.9	54.0462	19,026.9	60.874	19,026.9	48.9265	19,026.9	61.7585	19,026.9	56.7347	19,026.9	58.1856	19,026.9	52.9804	19,026.9	55.4936
19,697.8	74.6236	19,697.8	72.3685	19,697.8	74.6281	19,697.8	73.6583	19,697.8	76.8303	19,697.8	63.5729	19,697.8	71.6592	19,697.8	61.2648	19,697.8	64.8066	19,697.8	67.3027	19,697.8	61.8836	19,697.8	58.1824	19,697.8	58.0478	19,697.8	55.7909	19,697.8	57.0162	19,697.8	50.1926	19,697.8	60.1583	19,697.8	49.6555	19,697.8	57.4617	19,697.8	38.4911	19,697.8	50.3916	19,697.8	51.6428	19,697.8	50.8904	19,697.8	51.5132	19,697.8	48.4322	19,697.8	53.039	19,697.8	46.4106	19,697.8	54.9146	19,697.8	52.0574	19,697.8	58.4267	19,697.8	48.5838	19,697.8	57.3015	19,697.8	53.7202	19,697.8	52.0392	19,697.8	50.2499	19,697.8	45.9842
19,999.5	66.1675	19,999.5	66.1384	19,999.5	67.9876	19,999.5	69.871	19,999.5	71.6149	19,999.5	59.7456	19,999.5	66.4758	19,999.5	58.504	19,999.5	60.4385	19,999.5	66.384	19,999.5	57.5438	19,999.5	56.4157	19,999.5	46.3366	19,999.5	56.4784	19,999.5	46.8299	19,999.5	48.7208	19,999.5	58.2113	19,999.5	46.3044	19,999.5	47.5001	19,999.5	45.7018	19,999.5	44.0943	19,999.5	47.5823	19,999.5	40.8113	19,999.5	49.7096	19,999.5	44.1217	19,999.5	45.4016	19,999.5	43.3085	19,999.5	52.5748	19,999.5	52.1385	19,999.5	44.6626	19,999.5	48.6774	19,999.5	48.4028	19,999.5	47.8204	19,999.5	47.9751	19,999.5	47.5483	19,999.5	43.5803
