"SPL Vertical"
"On-Axis"		"10°"		"-10°"		"20°"		"-20°"		"30°"		"-30°"		"40°"		"-40°"		"50°"		"-50°"		"60°"		"-60°"		"70°"		"-70°"		"80°"		"-80°"		"90°"		"-90°"		"100°"		"-100°"		"110°"		"-110°"		"120°"		"-120°"		"130°"		"-130°"		"140°"		"-140°"		"150°"		"-150°"		"160°"		"-160°"		"170°"		"-170°"		"180°"
"Frequency / Hz"	"Sound Pressure Level / dB (re 20 µPa/V)  [2.83  V @ 1. m]"	"Frequency / Hz"	"Sound Pressure Level / dB (re 20 µPa/V)  [2.83  V @ 1. m]"	"Frequency / Hz"	"Sound Pressure Level / dB (re 20 µPa/V)  [2.83  V @ 1. m]"	"Frequency / Hz"	"Sound Pressure Level / dB (re 20 µPa/V)  [2.83  V @ 1. m]"	"Frequency / Hz"	"Sound Pressure Level / dB (re 20 µPa/V)  [2.83  V @ 1. m]"	"Frequency / Hz"	"Sound Pressure Level / dB (re 20 µPa/V)  [2.83  V @ 1. m]"	"Frequency / Hz"	"Sound Pressure Level / dB (re 20 µPa/V)  [2.83  V @ 1. m]"	"Frequency / Hz"	"Sound Pressure Level / dB (re 20 µPa/V)  [2.83  V @ 1. m]"	"Frequency / Hz"	"Sound Pressure Level / dB (re 20 µPa/V)  [2.83  V @ 1. m]"	"Frequency / Hz"	"Sound Pressure Level / dB (re 20 µPa/V)  [2.83  V @ 1. m]"	"Frequency / Hz"	"Sound Pressure Level / dB (re 20 µPa/V)  [2.83  V @ 1. m]"	"Frequency / Hz"	"Sound Pressure Level / dB (re 20 µPa/V)  [2.83  V @ 1. m]"	"Frequency / Hz"	"Sound Pressure Level / dB (re 20 µPa/V)  [2.83  V @ 1. m]"	"Frequency / Hz"	"Sound Pressure Level / dB (re 20 µPa/V)  [2.83  V @ 1. m]"	"Frequency / Hz"	"Sound Pressure Level / dB (re 20 µPa/V)  [2.83  V @ 1. m]"	"Frequency / Hz"	"Sound Pressure Level / dB (re 20 µPa/V)  [2.83  V @ 1. m]"	"Frequency / Hz"	"Sound Pressure Level / dB (re 20 µPa/V)  [2.83  V @ 1. m]"	"Frequency / Hz"	"Sound Pressure Level / dB (re 20 µPa/V)  [2.83  V @ 1. m]"	"Frequency / Hz"	"Sound Pressure Level / dB (re 20 µPa/V)  [2.83  V @ 1. m]"	"Frequency / Hz"	"Sound Pressure Level / dB (re 20 µPa/V)  [2.83  V @ 1. m]"	"Frequency / Hz"	"Sound Pressure Level / dB (re 20 µPa/V)  [2.83  V @ 1. m]"	"Frequency / Hz"	"Sound Pressure Level / dB (re 20 µPa/V)  [2.83  V @ 1. m]"	"Frequency / Hz"	"Sound Pressure Level / dB (re 20 µPa/V)  [2.83  V @ 1. m]"	"Frequency / Hz"	"Sound Pressure Level / dB (re 20 µPa/V)  [2.83  V @ 1. m]"	"Frequency / Hz"	"Sound Pressure Level / dB (re 20 µPa/V)  [2.83  V @ 1. m]"	"Frequency / Hz"	"Sound Pressure Level / dB (re 20 µPa/V)  [2.83  V @ 1. m]"	"Frequency / Hz"	"Sound Pressure Level / dB (re 20 µPa/V)  [2.83  V @ 1. m]"	"Frequency / Hz"	"Sound Pressure Level / dB (re 20 µPa/V)  [2.83  V @ 1. m]"	"Frequency / Hz"	"Sound Pressure Level / dB (re 20 µPa/V)  [2.83  V @ 1. m]"	"Frequency / Hz"	"Sound Pressure Level / dB (re 20 µPa/V)  [2.83  V @ 1. m]"	"Frequency / Hz"	"Sound Pressure Level / dB (re 20 µPa/V)  [2.83  V @ 1. m]"	"Frequency / Hz"	"Sound Pressure Level / dB (re 20 µPa/V)  [2.83  V @ 1. m]"	"Frequency / Hz"	"Sound Pressure Level / dB (re 20 µPa/V)  [2.83  V @ 1. m]"	"Frequency / Hz"	"Sound Pressure Level / dB (re 20 µPa/V)  [2.83  V @ 1. m]"	"Frequency / Hz"	"Sound Pressure Level / dB (re 20 µPa/V)  [2.83  V @ 1. m]"	"Frequency / Hz"	"Sound Pressure Level / dB (re 20 µPa/V)  [2.83  V @ 1. m]"
20.5078	41.8751	20.5078	41.6968	20.5078	41.9196	20.5078	41.3535	20.5078	41.9017	20.5078	40.8481	20.5078	41.9456	20.5078	40.2313	20.5078	42.2188	20.5078	39.6458	20.5078	42.8628	20.5078	39.3745	20.5078	43.8936	20.5078	39.7573	20.5078	45.191	20.5078	40.8864	20.5078	46.5905	20.5078	42.4959	20.5078	47.9618	20.5078	44.2505	20.5078	49.2258	20.5078	45.9452	20.5078	50.3396	20.5078	47.4917	20.5078	51.2809	20.5078	48.8599	20.5078	52.0376	20.5078	50.0418	20.5078	52.6023	20.5078	51.0362	20.5078	52.9706	20.5078	51.8424	20.5078	53.1401	20.5078	52.4587	20.5078	53.1103	20.5078	52.8823
21.9727	46.1714	21.9727	46.3097	21.9727	45.8375	21.9727	46.2532	21.9727	45.3203	21.9727	46.0066	21.9727	44.6675	21.9727	45.5796	21.9727	44.0094	21.9727	44.9965	21.9727	43.6128	21.9727	44.3218	21.9727	43.8197	21.9727	43.7079	21.9727	44.7557	21.9727	43.4305	21.9727	46.1797	21.9727	43.7846	21.9727	47.7499	21.9727	44.812	21.9727	49.246	21.9727	46.2495	21.9727	50.5683	21.9727	47.7925	21.9727	51.6797	21.9727	49.2541	21.9727	52.5689	21.9727	50.5494	21.9727	53.2331	21.9727	51.6453	21.9727	53.6724	21.9727	52.5299	21.9727	53.8875	21.9727	53.1987	21.9727	53.8793	21.9727	53.6491
23.4375	45.9444	23.4375	45.9797	23.4375	45.7228	23.4375	45.8142	23.4375	45.3509	23.4375	45.4442	23.4375	44.9122	23.4375	44.8809	23.4375	44.5759	23.4375	44.1719	23.4375	44.6	23.4375	43.4549	23.4375	45.1997	23.4375	43.0268	23.4375	46.3466	23.4375	43.2786	23.4375	47.7981	23.4375	44.3411	23.4375	49.3071	23.4375	45.9199	23.4375	50.7221	23.4375	47.6362	23.4375	51.9712	23.4375	49.2677	23.4375	53.0243	23.4375	50.724	23.4375	53.8698	23.4375	51.9773	23.4375	54.5036	23.4375	53.0222	23.4375	54.9242	23.4375	53.8594	23.4375	55.1319	23.4375	54.4898	23.4375	55.1277	23.4375	54.913
24.9023	48.4028	24.9023	48.5152	24.9023	48.09	24.9023	48.4269	24.9023	47.5849	24.9023	48.1396	24.9023	46.9215	24.9023	47.6583	24.9023	46.2002	24.9023	47.002	24.9023	45.6515	24.9023	46.2306	24.9023	45.6308	24.9023	45.4986	24.9023	46.3684	24.9023	45.1072	24.9023	47.701	24.9023	45.3995	24.9023	49.2638	24.9023	46.4327	24.9023	50.7881	24.9023	47.9058	24.9023	52.1461	24.9023	49.4798	24.9023	53.2897	24.9023	50.9587	24.9023	54.2044	24.9023	52.2601	24.9023	54.8878	24.9023	53.3552	24.9023	55.3411	24.9023	54.2355	24.9023	55.5664	24.9023	54.8986	24.9023	55.5661	24.9023	55.3428
26.3672	48.6253	26.3672	48.7305	26.3672	48.3574	26.3672	48.6618	26.3672	47.9605	26.3672	48.4214	26.3672	47.5141	26.3672	48.0259	26.3672	47.1753	26.3672	47.5214	26.3672	47.1775	26.3672	47.012	26.3672	47.7154	26.3672	46.6916	26.3672	48.7717	26.3672	46.8129	26.3672	50.1329	26.3672	47.5219	26.3672	51.5681	26.3672	48.7133	26.3672	52.9272	26.3672	50.1368	26.3672	54.1345	26.3672	51.5802	26.3672	55.156	26.3672	52.923	26.3672	55.9773	26.3672	54.1092	26.3672	56.5923	26.3672	55.1152	26.3672	56.9989	26.3672	55.9306	26.3672	57.1966	26.3672	56.5501	26.3672	57.1862	26.3672	56.9698
27.832	50.4889	27.832	50.585	27.832	50.2424	27.832	50.5202	27.832	49.8756	27.832	50.2963	27.832	49.4565	27.832	49.9291	27.832	49.1157	27.832	49.4599	27.832	49.0502	27.832	48.9787	27.832	49.445	27.832	48.6505	27.832	50.3287	27.832	48.6952	27.832	51.5445	27.832	49.2644	27.832	52.8812	27.832	50.3051	27.832	54.1814	27.832	51.6095	27.832	55.3562	27.832	52.9724	27.832	56.3615	27.832	54.2635	27.832	57.177	27.832	55.4157	27.832	57.7927	27.832	56.3978	27.832	58.2043	27.832	57.1948	27.832	58.41	27.832	57.799	27.832	58.4098	27.832	58.2053
29.2969	52.0796	29.2969	52.1616	29.2969	51.853	29.2969	52.0908	29.2969	51.5051	29.2969	51.8685	29.2969	51.0889	29.2969	51.5066	29.2969	50.7082	29.2969	51.0371	29.2969	50.5303	29.2969	50.5314	29.2969	50.7404	29.2969	50.125	29.2969	51.4206	29.2969	50.017	29.2969	52.4743	29.2969	50.3838	29.2969	53.7081	29.2969	51.238	29.2969	54.9509	29.2969	52.4144	29.2969	56.095	29.2969	53.7052	29.2969	57.0836	29.2969	54.9603	29.2969	57.8886	29.2969	56.0963	29.2969	58.4966	29.2969	57.0723	29.2969	58.9014	29.2969	57.8685	29.2969	59.1007	29.2969	58.4748	29.2969	59.0946	29.2969	58.885
30.7617	53.352	30.7617	53.4612	30.7617	53.1047	30.7617	53.4265	30.7617	52.7407	30.7617	53.2522	30.7617	52.3107	30.7617	52.9543	30.7617	51.9162	30.7617	52.5686	30.7617	51.7223	30.7617	52.1662	30.7617	51.9146	30.7617	51.8688	30.7617	52.5785	30.7617	51.8398	30.7617	53.621	30.7617	52.2135	30.7617	54.8491	30.7617	52.9978	30.7617	56.0905	30.7617	54.0655	30.7617	57.2364	30.7617	55.248	30.7617	58.2292	30.7617	56.4125	30.7617	59.0409	30.7617	57.478	30.7617	59.658	30.7617	58.4	30.7617	60.0746	30.7617	59.1546	30.7617	60.2885	30.7617	59.7282	30.7617	60.3002	30.7617	60.1121
32.2266	55.6157	32.2266	55.698	32.2266	55.4217	32.2266	55.6604	32.2266	55.1362	32.2266	55.5035	32.2266	54.7992	32.2266	55.2372	32.2266	54.4817	32.2266	54.885	32.2266	54.291	32.2266	54.4941	32.2266	54.3516	32.2266	54.1469	32.2266	54.7476	32.2266	53.9635	32.2266	55.4643	32.2266	54.0724	32.2266	56.3955	32.2266	54.5419	32.2266	57.4073	32.2266	55.3286	32.2266	58.3897	32.2266	56.3077	32.2266	59.2697	32.2266	57.3443	32.2266	60.0035	32.2266	58.3368	32.2266	60.5663	32.2266	59.2211	32.2266	60.9443	32.2266	59.9597	32.2266	61.1305	32.2266	60.5307	32.2266	61.1223	32.2266	60.9209
33.6914	56.0823	33.6914	56.1473	33.6914	55.9123	33.6914	56.0981	33.6914	55.6611	33.6914	55.9367	33.6914	55.3757	33.6914	55.6772	33.6914	55.1358	33.6914	55.3514	33.6914	55.0546	33.6914	55.019	33.6914	55.249	33.6914	54.7757	33.6914	55.7778	33.6914	54.7453	33.6914	56.5981	33.6914	55.0338	33.6914	57.593	33.6914	55.6644	33.6914	58.6353	33.6914	56.5592	33.6914	59.6275	33.6914	57.5899	33.6914	60.5064	33.6914	58.6385	33.6914	61.235	33.6914	59.6223	33.6914	61.7921	33.6914	60.4902	33.6914	62.1657	33.6914	61.2118	33.6914	62.3502	33.6914	61.7685	33.6914	62.3439	33.6914	62.1485
35.1562	57.3949	35.1562	57.4782	35.1562	57.2203	35.1562	57.4624	35.1562	56.9768	35.1562	57.3511	35.1562	56.7091	35.1562	57.1597	35.1562	56.4918	35.1562	56.9196	35.1562	56.4288	35.1562	56.6845	35.1562	56.6251	35.1562	56.5343	35.1562	57.133	35.1562	56.5656	35.1562	57.9151	35.1562	56.858	35.1562	58.8663	35.1562	57.431	35.1562	59.869	35.1562	58.2291	35.1562	60.8301	35.1562	59.1539	35.1562	61.6874	35.1562	60.1067	35.1562	62.4031	35.1562	61.0113	35.1562	62.955	35.1562	61.8163	35.1562	63.3305	35.1562	62.4887	35.1562	63.5234	35.1562	63.0073	35.1562	63.532	35.1562	63.3582
36.6211	59.0436	36.6211	59.095	36.6211	58.9242	36.6211	59.0695	36.6211	58.759	36.6211	58.9694	36.6211	58.5875	36.6211	58.8085	36.6211	58.4693	36.6211	58.6151	36.6211	58.4802	36.6211	58.4357	36.6211	58.6919	36.6211	58.336	36.6211	59.1407	36.6211	58.3918	36.6211	59.8048	36.6211	58.6645	36.6211	60.6142	36.6211	59.1714	36.6211	61.4813	36.6211	59.8739	36.6211	62.3281	36.6211	60.6968	36.6211	63.0959	36.6211	61.5576	36.6211	63.7447	36.6211	62.3874	36.6211	64.2488	36.6211	63.1357	36.6211	64.5922	36.6211	63.7677	36.6211	64.766	36.6211	64.2598	36.6211	64.767	36.6211	64.5964
38.0859	60.2776	38.0859	60.3289	38.0859	60.1638	38.0859	60.3092	38.0859	60.0079	38.0859	60.2206	38.0859	59.8462	38.0859	60.0757	38.0859	59.7331	38.0859	59.8998	38.0859	59.7374	38.0859	59.7338	38.0859	59.9253	38.0859	59.6355	38.0859	60.3328	38.0859	59.6721	38.0859	60.945	38.0859	59.901	38.0859	61.7009	38.0859	60.3447	38.0859	62.5202	38.0859	60.9772	38.0859	63.3273	38.0859	61.7353	38.0859	64.0639	38.0859	62.5436	38.0859	64.6886	38.0859	63.3349	38.0859	65.1742	38.0859	64.0569	38.0859	65.5038	38.0859	64.6727	38.0859	65.6679	38.0859	65.1563	38.0859	65.6628	38.0859	65.4902
39.5508	61.6925	39.5508	61.7332	39.5508	61.5991	39.5508	61.7135	39.5508	61.4717	39.5508	61.6347	39.5508	61.3417	39.5508	61.5077	39.5508	61.2552	39.5508	61.3543	39.5508	61.2694	39.5508	61.2098	39.5508	61.4394	39.5508	61.1231	39.5508	61.7978	39.5508	61.1513	39.5508	62.3373	39.5508	61.3453	39.5508	63.0117	39.5508	61.729	39.5508	63.7534	39.5508	62.287	39.5508	64.4945	39.5508	62.9695	39.5508	65.1785	39.5508	63.7109	39.5508	65.7634	39.5508	64.4481	39.5508	66.2204	39.5508	65.1295	39.5508	66.5307	39.5508	65.7163	39.5508	66.6834	39.5508	66.181	39.5508	66.6742	39.5508	66.5045
41.0156	62.8305	41.0156	62.8648	41.0156	62.7501	41.0156	62.8452	41.0156	62.6415	41.0156	62.7731	41.0156	62.5347	41.0156	62.6594	41.0156	62.4724	41.0156	62.5252	41.0156	62.5062	41.0156	62.4043	41.0156	62.6853	41.0156	62.3423	41.0156	63.0379	41.0156	62.3908	41.0156	63.5575	41.0156	62.5947	41.0156	64.2028	41.0156	62.9743	41.0156	64.9128	41.0156	63.5146	41.0156	65.6242	41.0156	64.1705	41.0156	66.2834	41.0156	64.882	41.0156	66.8493	41.0156	65.5904	41.0156	67.2929	41.0156	66.2465	41.0156	67.5952	41.0156	66.8128	41.0156	67.745	41.0156	67.2618	41.0156	67.7376	41.0156	67.5742
42.4805	64.1345	42.4805	64.1468	42.4805	64.088	42.4805	64.1183	42.4805	64.0231	42.4805	64.0511	42.4805	63.9659	42.4805	63.9557	42.4805	63.9521	42.4805	63.8525	42.4805	64.0237	42.4805	63.7718	42.4805	64.2191	42.4805	63.7528	42.4805	64.5602	42.4805	63.8377	42.4805	65.0417	42.4805	64.0611	42.4805	65.6314	42.4805	64.4366	42.4805	66.2793	42.4805	64.95	42.4805	66.9317	42.4805	65.5629	42.4805	67.54	42.4805	66.2247	42.4805	68.0656	42.4805	66.884	42.4805	68.4799	42.4805	67.4965	42.4805	68.7634	42.4805	68.0269	42.4805	68.9041	42.4805	68.4488	42.4805	68.897	42.4805	68.743
43.9453	65.5	43.9453	65.5223	43.9453	65.4484	43.9453	65.5096	43.9453	65.3814	43.9453	65.4638	43.9453	65.3215	43.9453	65.3942	43.9453	65.3004	43.9453	65.3181	43.9453	65.3549	43.9453	65.2611	43.9453	65.5199	43.9453	65.2555	43.9453	65.8172	43.9453	65.3365	43.9453	66.2457	43.9453	65.5335	43.9453	66.7796	43.9453	65.8603	43.9453	67.3756	43.9453	66.3087	43.9453	67.9839	43.9453	66.8495	43.9453	68.5579	43.9453	67.4405	43.9453	69.0589	43.9453	68.0362	43.9453	69.4579	43.9453	68.5949	43.9453	69.7344	43.9453	69.0819	43.9453	69.876	43.9453	69.4702	43.9453	69.8775	43.9453	69.7398
45.4102	66.6759	45.4102	66.6908	45.4102	66.6386	45.4102	66.6776	45.4102	66.592	45.4102	66.6379	45.4102	66.5565	45.4102	66.5797	45.4102	66.5597	45.4102	66.5185	45.4102	66.6331	45.4102	66.477	45.4102	66.8054	45.4102	66.4838	45.4102	67.0944	45.4102	66.5692	45.4102	67.4985	45.4102	66.759	45.4102	67.9961	45.4102	67.0655	45.4102	68.5496	45.4102	67.4826	45.4102	69.1151	45.4102	67.9857	45.4102	69.6499	45.4102	68.5379	45.4102	70.1176	45.4102	69.0982	45.4102	70.4896	45.4102	69.6275	45.4102	70.7457	45.4102	70.0925	45.4102	70.8736	45.4102	70.4665	45.4102	70.8677	45.4102	70.7295
46.875	67.9455	46.875	67.9525	46.875	67.9297	46.875	67.9455	46.875	67.9157	46.875	67.9246	46.875	67.9191	46.875	67.895	46.875	67.9604	46.875	67.8678	46.875	68.0621	46.875	67.859	46.875	68.2442	46.875	67.8895	46.875	68.519	46.875	67.9819	46.875	68.8854	46.875	68.1563	46.875	69.3271	46.875	68.4242	46.875	69.8156	46.875	68.7841	46.875	70.3152	46.875	69.22	46.875	70.7894	46.875	69.7044	46.875	71.2052	46.875	70.2038	46.875	71.5356	46.875	70.6834	46.875	71.7606	46.875	71.1116	46.875	71.8677	46.875	71.4619	46.875	71.8514	46.875	71.7134
48.3398	69.2126	48.3398	69.216	48.3398	69.1889	48.3398	69.1947	48.3398	69.1549	48.3398	69.1499	48.3398	69.1265	48.3398	69.0882	48.3398	69.125	48.3398	69.0222	48.3398	69.1749	48.3398	68.97	48.3398	69.3001	48.3398	68.9545	48.3398	69.5175	48.3398	69.0008	48.3398	69.831	48.3398	69.1317	48.3398	70.2282	48.3398	69.361	48.3398	70.6823	48.3398	69.6887	48.3398	71.1576	48.3398	70.0996	48.3398	71.6159	48.3398	70.5653	48.3398	72.0223	48.3398	71.0509	48.3398	72.3481	48.3398	71.5204	48.3398	72.5718	48.3398	71.9411	48.3398	72.6799	48.3398	72.2854	48.3398	72.6662	48.3398	72.532
51.2695	71.4077	51.2695	71.4054	51.2695	71.3995	51.2695	71.3891	51.2695	71.3885	51.2695	71.3599	51.2695	71.3872	51.2695	71.3231	51.2695	71.4114	51.2695	71.2882	51.2695	71.4796	51.2695	71.269	51.2695	71.6091	51.2695	71.2824	51.2695	71.8122	51.2695	71.3466	51.2695	72.0917	51.2695	71.4778	51.2695	72.4388	51.2695	71.6863	51.2695	72.833	51.2695	71.9728	51.2695	73.246	51.2695	72.3266	51.2695	73.6464	51.2695	72.7271	51.2695	74.0035	51.2695	73.1469	51.2695	74.2913	51.2695	73.5561	51.2695	74.4895	51.2695	73.9259	51.2695	74.585	51.2695	74.231	51.2695	74.5718	51.2695	74.4511
52.7344	72.5386	52.7344	72.5373	52.7344	72.5327	52.7344	72.5252	52.7344	72.527	52.7344	72.5028	52.7344	72.5325	52.7344	72.4743	52.7344	72.5633	52.7344	72.4475	52.7344	72.6349	52.7344	72.4343	52.7344	72.7621	52.7344	72.4494	52.7344	72.955	52.7344	72.509	52.7344	73.2161	52.7344	72.6281	52.7344	73.5376	52.7344	72.8166	52.7344	73.9019	52.7344	73.0767	52.7344	74.284	52.7344	73.4001	52.7344	74.6554	52.7344	73.7693	52.7344	74.9875	52.7344	74.1597	52.7344	75.2555	52.7344	74.5433	52.7344	75.4396	52.7344	74.8927	52.7344	75.5269	52.7344	75.183	52.7344	75.5114	52.7344	75.394
54.1992	73.5872	54.1992	73.5783	54.1992	73.591	54.1992	73.5613	54.1992	73.596	54.1992	73.5366	54.1992	73.6118	54.1992	73.5083	54.1992	73.6505	54.1992	73.4839	54.1992	73.7252	54.1992	73.4743	54.1992	73.8487	54.1992	73.493	54.1992	74.03	54.1992	73.5546	54.1992	74.2718	54.1992	73.6723	54.1992	74.5682	54.1992	73.8548	54.1992	74.9044	54.1992	74.1036	54.1992	75.2584	54.1992	74.411	54.1992	75.6043	54.1992	74.761	54.1992	75.9154	54.1992	75.1306	54.1992	76.1678	54.1992	75.4941	54.1992	76.3421	54.1992	75.8252	54.1992	76.4254	54.1992	76.1004	54.1992	76.4112	54.1992	76.3004
55.6641	74.525	55.6641	74.5125	55.6641	74.5351	55.6641	74.4952	55.6641	74.5484	55.6641	74.4737	55.6641	74.5728	55.6641	74.4518	55.6641	74.6187	55.6641	74.4365	55.6641	74.6979	55.6641	74.4373	55.6641	74.8213	55.6641	74.4662	55.6641	74.9969	55.6641	74.5358	55.6641	75.2275	55.6641	74.6575	55.6641	75.5079	55.6641	74.8385	55.6641	75.8251	55.6641	75.0796	55.6641	76.1593	55.6641	75.3738	55.6641	76.4867	55.6641	75.7062	55.6641	76.7823	55.6641	76.0561	55.6641	77.0232	55.6641	76.3994	55.6641	77.1909	55.6641	76.7118	55.6641	77.2725	55.6641	76.9711	55.6641	77.2616	55.6641	77.1588
58.5938	76.2624	58.5938	76.2437	58.5938	76.284	58.5938	76.2266	58.5938	76.3119	58.5938	76.2118	58.5938	76.3516	58.5938	76.2025	58.5938	76.4103	58.5938	76.2036	58.5938	76.4958	58.5938	76.2219	58.5938	76.6159	58.5938	76.2655	58.5938	76.7761	58.5938	76.3428	58.5938	76.9785	58.5938	76.4611	58.5938	77.2195	58.5938	76.6251	58.5938	77.4896	58.5938	76.8355	58.5938	77.7736	58.5938	77.0872	58.5938	78.0521	58.5938	77.3694	58.5938	78.3043	58.5938	77.6665	58.5938	78.5102	58.5938	77.9594	58.5938	78.653	58.5938	78.2279	58.5938	78.7212	58.5938	78.4527	58.5938	78.709	58.5938	78.6172
60.0586	77.0798	60.0586	77.0617	60.0586	77.1013	60.0586	77.0458	60.0586	77.1294	60.0586	77.0327	60.0586	77.1691	60.0586	77.0253	60.0586	77.2269	60.0586	77.0281	60.0586	77.3101	60.0586	77.0471	60.0586	77.4256	60.0586	77.0898	60.0586	77.5786	60.0586	77.1639	60.0586	77.7708	60.0586	77.2762	60.0586	77.9992	60.0586	77.4313	60.0586	78.2549	60.0586	77.6298	60.0586	78.5239	60.0586	77.8675	60.0586	78.7881	60.0586	78.1345	60.0586	79.0278	60.0586	78.4163	60.0586	79.2238	60.0586	78.695	60.0586	79.3598	60.0586	78.9513	60.0586	79.4246	60.0586	79.1664	60.0586	79.4125	60.0586	79.3242
62.9883	78.4236	62.9883	78.4023	62.9883	78.4523	62.9883	78.3879	62.9883	78.4903	62.9883	78.3814	62.9883	78.541	62.9883	78.3852	62.9883	78.6086	62.9883	78.4025	62.9883	78.6983	62.9883	78.4378	62.9883	78.8146	62.9883	78.4959	62.9883	78.961	62.9883	78.5817	62.9883	79.1385	62.9883	78.6993	62.9883	79.3444	62.9883	78.8511	62.9883	79.5719	62.9883	79.0366	62.9883	79.8097	62.9883	79.252	62.9883	80.0429	62.9883	79.4893	62.9883	80.255	62.9883	79.737	62.9883	80.4292	62.9883	79.9805	62.9883	80.5512	62.9883	80.2037	62.9883	80.6108	62.9883	80.3907	62.9883	80.6026	62.9883	80.5272
64.4531	78.9207	64.4531	78.9005	64.4531	78.951	64.4531	78.89	64.4531	78.9929	64.4531	78.8897	64.4531	79.049	64.4531	78.9015	64.4531	79.1225	64.4531	78.9275	64.4531	79.2172	64.4531	78.9711	64.4531	79.3363	64.4531	79.0357	64.4531	79.4824	64.4531	79.1248	64.4531	79.6554	64.4531	79.2417	64.4531	79.8526	64.4531	79.3879	64.4531	80.0677	64.4531	79.5632	64.4531	80.2904	64.4531	79.7643	64.4531	80.5076	64.4531	79.9846	64.4531	80.7042	64.4531	80.2139	64.4531	80.865	64.4531	80.4396	64.4531	80.977	64.4531	80.647	64.4531	81.0307	64.4531	80.8214	64.4531	81.0213	64.4531	80.9496
67.3828	79.7214	67.3828	79.6947	67.3828	79.7606	67.3828	79.6806	67.3828	79.8129	67.3828	79.6796	67.3828	79.8789	67.3828	79.6925	67.3828	79.9598	67.3828	79.7206	67.3828	80.057	67.3828	79.7656	67.3828	80.1718	67.3828	79.8294	67.3828	80.3051	67.3828	79.9141	67.3828	80.4567	67.3828	80.0213	67.3828	80.6244	67.3828	80.1519	67.3828	80.8037	67.3828	80.3054	67.3828	80.9873	67.3828	80.4793	67.3828	81.1651	67.3828	80.6685	67.3828	81.3253	67.3828	80.8653	67.3828	81.4555	67.3828	81.0594	67.3828	81.5447	67.3828	81.2388	67.3828	81.5846	67.3828	81.3911	67.3828	81.5711	67.3828	81.5049
68.8477	79.9892	68.8477	79.9612	68.8477	80.0305	68.8477	79.9467	68.8477	80.085	68.8477	79.9463	68.8477	80.1531	68.8477	79.9608	68.8477	80.2352	68.8477	79.9911	68.8477	80.3322	68.8477	80.0385	68.8477	80.4448	68.8477	80.1042	68.8477	80.5734	68.8477	80.1897	68.8477	80.7176	68.8477	80.2958	68.8477	80.8754	68.8477	80.4229	68.8477	81.0428	68.8477	80.5701	68.8477	81.2134	68.8477	80.735	68.8477	81.3782	68.8477	80.913	68.8477	81.5265	68.8477	81.097	68.8477	81.647	68.8477	81.2779	68.8477	81.7296	68.8477	81.4448	68.8477	81.7665	68.8477	81.5865	68.8477	81.7539	68.8477	81.6923
71.7773	80.5136	71.7773	80.4841	71.7773	80.558	71.7773	80.47	71.7773	80.6161	71.7773	80.4718	71.7773	80.6873	71.7773	80.4899	71.7773	80.7706	71.7773	80.5242	71.7773	80.8654	71.7773	80.5749	71.7773	80.971	71.7773	80.6417	71.7773	81.0868	71.7773	80.7245	71.7773	81.2121	71.7773	80.8231	71.7773	81.3452	71.7773	80.937	71.7773	81.4833	71.7773	81.0651	71.7773	81.6219	71.7773	81.2054	71.7773	81.7546	71.7773	81.3545	71.7773	81.8735	71.7773	81.5073	71.7773	81.9699	71.7773	81.6568	71.7773	82.0355	71.7773	81.7947	71.7773	82.064	71.7773	81.912	71.7773	82.0521	71.7773	82.0001
74.707	80.8254	74.707	80.7947	74.707	80.8709	74.707	80.7799	74.707	80.9299	74.707	80.7815	74.707	81.0008	74.707	80.7994	74.707	81.082	74.707	80.8334	74.707	81.1718	74.707	80.8828	74.707	81.269	74.707	80.9466	74.707	81.3722	74.707	81.0239	74.707	81.4805	74.707	81.1137	74.707	81.5924	74.707	81.2148	74.707	81.7058	74.707	81.326	74.707	81.8178	74.707	81.4454	74.707	81.9236	74.707	81.5704	74.707	82.0176	74.707	81.6973	74.707	82.0931	74.707	81.8209	74.707	82.1435	74.707	81.935	74.707	82.1637	74.707	82.0324	74.707	82.1512	74.707	82.1064
77.6367	80.9307	77.6367	80.899	77.6367	80.9781	77.6367	80.8844	77.6367	81.0394	77.6367	80.8872	77.6367	81.1122	77.6367	80.9076	77.6367	81.1941	77.6367	80.9445	77.6367	81.2828	77.6367	80.9967	77.6367	81.3761	77.6367	81.0625	77.6367	81.4721	77.6367	81.1398	77.6367	81.5692	77.6367	81.2268	77.6367	81.6661	77.6367	81.3215	77.6367	81.7612	77.6367	81.4222	77.6367	81.8526	77.6367	81.527	77.6367	81.9372	77.6367	81.6338	77.6367	82.0111	77.6367	81.7399	77.6367	82.0696	77.6367	81.8416	77.6367	82.1081	77.6367	81.9346	77.6367	82.1226	77.6367	82.0138	77.6367	82.1111	77.6367	82.074
79.1016	80.9736	79.1016	80.9416	79.1016	81.0217	79.1016	80.9272	79.1016	81.084	79.1016	80.931	79.1016	81.1577	79.1016	80.9528	79.1016	81.2401	79.1016	80.9914	79.1016	81.3285	79.1016	81.0453	79.1016	81.4202	79.1016	81.1122	79.1016	81.5131	79.1016	81.1897	79.1016	81.6053	79.1016	81.2755	79.1016	81.6955	79.1016	81.3673	79.1016	81.7822	79.1016	81.463	79.1016	81.864	79.1016	81.5608	79.1016	81.9385	79.1016	81.6588	79.1016	82.0028	79.1016	81.7548	79.1016	82.0531	79.1016	81.8459	79.1016	82.0856	79.1016	81.9286	79.1016	82.0971	79.1016	81.9989	79.1016	82.086	79.1016	82.0526
82.0312	81.0713	82.0312	81.0376	82.0312	81.1224	82.0312	81.0227	82.0312	81.1883	82.0312	81.0275	82.0312	81.2658	82.0312	81.0514	82.0312	81.3513	82.0312	81.093	82.0312	81.4412	82.0312	81.1499	82.0312	81.5321	82.0312	81.2194	82.0312	81.6211	82.0312	81.298	82.0312	81.7059	82.0312	81.3827	82.0312	81.785	82.0312	81.4703	82.0312	81.8574	82.0312	81.5584	82.0312	81.9222	82.0312	81.6451	82.0312	81.9785	82.0312	81.7288	82.0312	82.025	82.0312	81.808	82.0312	82.0598	82.0312	81.8814	82.0312	82.0806	82.0312	81.9471	82.0312	82.0856	82.0312	82.0027	82.0312	82.0738	82.0312	82.0457
84.9609	81.0971	84.9609	81.0634	84.9609	81.149	84.9609	81.0496	84.9609	81.2164	84.9609	81.0563	84.9609	81.2956	84.9609	81.0829	84.9609	81.3827	84.9609	81.1275	84.9609	81.4736	84.9609	81.1873	84.9609	81.5643	84.9609	81.259	84.9609	81.6515	84.9609	81.3387	84.9609	81.7324	84.9609	81.4226	84.9609	81.8053	84.9609	81.5074	84.9609	81.8691	84.9609	81.5903	84.9609	81.9234	84.9609	81.6692	84.9609	81.9682	84.9609	81.7429	84.9609	82.0031	84.9609	81.8105	84.9609	82.0276	84.9609	81.8715	84.9609	82.0407	84.9609	81.9251	84.9609	82.0415	84.9609	81.9703	84.9609	82.0298	84.9609	82.0057
87.8906	81.083	87.8906	81.0479	87.8906	81.1376	87.8906	81.0342	87.8906	81.2085	87.8906	81.0424	87.8906	81.2916	87.8906	81.0716	87.8906	81.3824	87.8906	81.1193	87.8906	81.4759	87.8906	81.1822	87.8906	81.5673	87.8906	81.256	87.8906	81.6525	87.8906	81.3361	87.8906	81.728	87.8906	81.4182	87.8906	81.7918	87.8906	81.4981	87.8906	81.8428	87.8906	81.5729	87.8906	81.8812	87.8906	81.6405	87.8906	81.908	87.8906	81.7	87.8906	81.9244	87.8906	81.7514	87.8906	81.932	87.8906	81.7954	87.8906	81.9318	87.8906	81.8329	87.8906	81.9243	87.8906	81.8644	87.8906	81.9104	87.8906	81.8902
90.8203	81.1772	90.8203	81.1413	90.8203	81.2318	90.8203	81.1257	90.8203	81.3016	90.8203	81.1308	90.8203	81.3824	90.8203	81.1554	90.8203	81.4691	90.8203	81.197	90.8203	81.5563	90.8203	81.252	90.8203	81.6386	90.8203	81.316	90.8203	81.7115	90.8203	81.3847	90.8203	81.7714	90.8203	81.4536	90.8203	81.8163	90.8203	81.519	90.8203	81.8458	90.8203	81.5778	90.8203	81.861	90.8203	81.6283	90.8203	81.8642	90.8203	81.67	90.8203	81.8586	90.8203	81.7032	90.8203	81.8471	90.8203	81.7295	90.8203	81.8326	90.8203	81.7506	90.8203	81.8168	90.8203	81.7686	90.8203	81.8008	90.8203	81.7849
95.2148	81.2557	95.2148	81.2154	95.2148	81.3127	95.2148	81.1942	95.2148	81.3833	95.2148	81.1931	95.2148	81.463	95.2148	81.2116	95.2148	81.5471	95.2148	81.2481	95.2148	81.63	95.2148	81.2994	95.2148	81.7066	95.2148	81.3614	95.2148	81.772	95.2148	81.429	95.2148	81.8224	95.2148	81.497	95.2148	81.8555	95.2148	81.5603	95.2148	81.8708	95.2148	81.6148	95.2148	81.8697	95.2148	81.6578	95.2148	81.8552	95.2148	81.6883	95.2148	81.8319	95.2148	81.707	95.2148	81.8045	95.2148	81.7165	95.2148	81.7776	95.2148	81.7205	95.2148	81.7548	95.2148	81.723	95.2148	81.7381	95.2148	81.728
98.1445	81.2231	98.1445	81.1836	98.1445	81.2817	98.1445	81.1656	98.1445	81.3555	98.1445	81.1698	98.1445	81.4396	98.1445	81.1954	98.1445	81.5282	98.1445	81.2397	98.1445	81.615	98.1445	81.2987	98.1445	81.6941	98.1445	81.3673	98.1445	81.7601	98.1445	81.4399	98.1445	81.8086	98.1445	81.5105	98.1445	81.8372	98.1445	81.574	98.1445	81.8455	98.1445	81.6261	98.1445	81.8354	98.1445	81.664	98.1445	81.8112	98.1445	81.687	98.1445	81.7782	98.1445	81.6961	98.1445	81.743	98.1445	81.6943	98.1445	81.7113	98.1445	81.6862	98.1445	81.6876	98.1445	81.6769	98.1445	81.6744	98.1445	81.6716
101.074	81.1541	101.074	81.1142	101.074	81.2146	101.074	81.0973	101.074	81.2922	101.074	81.1042	101.074	81.3819	101.074	81.134	101.074	81.4777	101.074	81.1843	101.074	81.5733	101.074	81.2514	101.074	81.6621	101.074	81.3302	101.074	81.7381	101.074	81.4147	101.074	81.7966	101.074	81.4986	101.074	81.8345	101.074	81.5757	101.074	81.8513	101.074	81.6409	101.074	81.8487	101.074	81.6905	101.074	81.8307	101.074	81.7231	101.074	81.8032	101.074	81.7391	101.074	81.7727	101.074	81.7415	101.074	81.7454	101.074	81.7349	101.074	81.7259	101.074	81.7248	101.074	81.7166	101.074	81.7172
105.469	81.2847	105.469	81.2426	105.469	81.3476	105.469	81.2241	105.469	81.4267	105.469	81.2301	105.469	81.516	105.469	81.2596	105.469	81.6089	105.469	81.3095	105.469	81.6979	105.469	81.3751	105.469	81.7764	105.469	81.4505	105.469	81.838	105.469	81.529	105.469	81.8783	105.469	81.6039	105.469	81.8948	105.469	81.6688	105.469	81.8875	105.469	81.7187	105.469	81.8593	105.469	81.75	105.469	81.8159	105.469	81.7617	105.469	81.7648	105.469	81.755	105.469	81.7148	105.469	81.7339	105.469	81.6739	105.469	81.7045	105.469	81.6482	105.469	81.6742	105.469	81.6407	105.469	81.6507
108.398	81.4733	108.398	81.4379	108.398	81.5245	108.398	81.4209	108.398	81.588	108.398	81.4235	108.398	81.6589	108.398	81.4453	108.398	81.7318	108.398	81.4844	108.398	81.8007	108.398	81.5373	108.398	81.8596	108.398	81.5989	108.398	81.9032	108.398	81.6632	108.398	81.927	108.398	81.7237	108.398	81.9289	108.398	81.774	108.398	81.9086	108.398	81.8088	108.398	81.8692	108.398	81.8246	108.398	81.816	108.398	81.8202	108.398	81.7568	108.398	81.7974	108.398	81.7005	108.398	81.7606	108.398	81.6559	108.398	81.7167	108.398	81.6294	108.398	81.6739	108.398	81.6246	108.398	81.6408
112.793	81.7305	112.793	81.7058	112.793	81.7752	112.793	81.703	112.793	81.8358	112.793	81.7224	112.793	81.9069	112.793	81.762	112.793	81.982	112.793	81.8179	112.793	82.0537	112.793	81.8846	112.793	82.1149	112.793	81.9554	112.793	82.1587	112.793	82.023	112.793	82.1801	112.793	82.0801	112.793	82.176	112.793	82.1204	112.793	82.1463	112.793	82.1392	112.793	82.094	112.793	82.1338	112.793	82.0256	112.793	82.1045	112.793	81.9503	112.793	82.0548	112.793	81.8792	112.793	81.991	112.793	81.8229	112.793	81.9221	112.793	81.7902	112.793	81.8584	112.793	81.7859	112.793	81.8103
117.188	81.8371	117.188	81.7982	117.188	81.8906	117.188	81.7766	117.188	81.9549	117.188	81.7731	117.188	82.0249	117.188	81.7874	117.188	82.0947	117.188	81.8175	117.188	82.1575	117.188	81.86	117.188	82.2068	117.188	81.9104	117.188	82.2367	117.188	81.9628	117.188	82.2424	117.188	82.0113	117.188	82.2216	117.188	82.0495	117.188	82.1749	117.188	82.072	117.188	82.1062	117.188	82.0747	117.188	82.0232	117.188	82.056	117.188	81.936	117.188	82.0169	117.188	81.8566	117.188	81.9619	117.188	81.7961	117.188	81.8985	117.188	81.7629	117.188	81.8367	117.188	81.7606	117.188	81.7874
120.117	81.9995	120.117	81.9631	120.117	82.049	120.117	81.9418	120.117	82.108	120.117	81.9364	120.117	82.1714	120.117	81.9461	120.117	82.2329	120.117	81.9686	120.117	82.2858	120.117	82.0004	120.117	82.3229	120.117	82.0371	120.117	82.338	120.117	82.0731	120.117	82.3263	120.117	82.1025	120.117	82.2856	120.117	82.1196	120.117	82.2167	120.117	82.1195	120.117	82.1243	120.117	82.0988	120.117	82.0169	120.117	82.0566	120.117	81.9063	120.117	81.9948	120.117	81.8059	120.117	81.919	120.117	81.7284	120.117	81.8379	120.117	81.6838	120.117	81.7626	120.117	81.6766	120.117	81.7052
124.512	82.1534	124.512	82.1147	124.512	82.2024	124.512	82.0888	124.512	82.2579	124.512	82.0766	124.512	82.3147	124.512	82.0775	124.512	82.3667	124.512	82.0896	124.512	82.4073	124.512	82.1094	124.512	82.4301	124.512	82.1324	124.512	82.429	124.512	82.1531	124.512	82.3998	124.512	82.1657	124.512	82.3404	124.512	82.1643	124.512	82.2517	124.512	82.1442	124.512	82.1388	124.512	82.1026	124.512	82.0103	124.512	82.0392	124.512	81.8789	124.512	81.957	124.512	81.7588	124.512	81.8629	124.512	81.6644	124.512	81.7668	124.512	81.6069	124.512	81.6813	124.512	81.5921	124.512	81.6193
128.906	82.1631	128.906	82.1254	128.906	82.213	128.906	82.1026	128.906	82.2718	128.906	82.0964	128.906	82.3353	128.906	82.1075	128.906	82.3983	128.906	82.1351	128.906	82.4547	128.906	82.1762	128.906	82.4976	128.906	82.226	128.906	82.5204	128.906	82.2776	128.906	82.5172	128.906	82.3231	128.906	82.4844	128.906	82.3542	128.906	82.4213	128.906	82.3639	128.906	82.3314	128.906	82.3473	128.906	82.2225	128.906	82.3027	128.906	82.1066	128.906	82.2327	128.906	81.9985	128.906	82.1441	128.906	81.9135	128.906	82.0481	128.906	81.8638	128.906	81.9586	128.906	81.8563	128.906	81.8904
133.301	82.2226	133.301	82.1824	133.301	82.2787	133.301	82.1608	133.301	82.3465	133.301	82.1592	133.301	82.4207	133.301	82.1774	133.301	82.4947	133.301	82.2132	133.301	82.5611	133.301	82.2626	133.301	82.612	133.301	82.3194	133.301	82.6402	133.301	82.3762	133.301	82.6397	133.301	82.4247	133.301	82.6068	133.301	82.4566	133.301	82.5413	133.301	82.4653	133.301	82.447	133.301	82.446	133.301	82.3323	133.301	82.3976	133.301	82.2098	133.301	82.3231	133.301	82.0948	133.301	82.2299	133.301	82.003	133.301	82.1298	133.301	81.9477	133.301	82.0376	133.301	81.9363	133.301	81.9688
139.16	82.4207	139.16	82.3809	139.16	82.4729	139.16	82.3564	139.16	82.5334	139.16	82.3486	139.16	82.5968	139.16	82.3573	139.16	82.657	139.16	82.3804	139.16	82.7071	139.16	82.4144	139.16	82.7402	139.16	82.4537	139.16	82.7497	139.16	82.4917	139.16	82.7305	139.16	82.5212	139.16	82.6798	139.16	82.5349	139.16	82.5979	139.16	82.5268	139.16	82.4895	139.16	82.493	139.16	82.3633	139.16	82.4329	139.16	82.2325	139.16	82.3497	139.16	82.1123	139.16	82.2509	139.16	82.0181	139.16	82.1475	139.16	81.9622	139.16	82.0538	139.16	81.9511	139.16	81.9842
143.555	82.5475	143.555	82.5042	143.555	82.5994	143.555	82.4726	143.555	82.6562	143.555	82.4552	143.555	82.7139	143.555	82.4531	143.555	82.7676	143.555	82.4661	143.555	82.8117	143.555	82.4919	143.555	82.8404	143.555	82.526	143.555	82.8475	143.555	82.5618	143.555	82.8277	143.555	82.5913	143.555	82.7772	143.555	82.6062	143.555	82.6954	143.555	82.5993	143.555	82.5857	143.555	82.5654	143.555	82.456	143.555	82.5031	143.555	82.3188	143.555	82.4157	143.555	82.19	143.555	82.3111	143.555	82.086	143.555	82.2019	143.555	82.0209	143.555	82.104	143.555	82.0032	143.555	82.0333
147.949	82.6142	147.949	82.577	147.949	82.6571	147.949	82.5473	147.949	82.7042	147.949	82.5267	147.949	82.7534	147.949	82.5169	147.949	82.8014	147.949	82.5186	147.949	82.8437	147.949	82.5312	147.949	82.8746	147.949	82.5522	147.949	82.8873	147.949	82.5771	147.949	82.8757	147.949	82.5994	147.949	82.8352	147.949	82.6121	147.949	82.7641	147.949	82.608	147.949	82.6653	147.949	82.5819	147.949	82.5461	147.949	82.5316	147.949	82.4184	147.949	82.459	147.949	82.2972	147.949	82.3708	147.949	82.1982	147.949	82.2781	147.949	82.1343	147.949	82.1948	147.949	82.1134	147.949	82.1359
153.809	82.7193	153.809	82.6782	153.809	82.7675	153.809	82.6461	153.809	82.8205	153.809	82.6248	153.809	82.8754	153.809	82.6156	153.809	82.928	153.809	82.6189	153.809	82.9732	153.809	82.6338	153.809	83.0046	153.809	82.657	153.809	83.0156	153.809	82.6836	153.809	83.0002	153.809	82.7069	153.809	82.9543	153.809	82.7192	153.809	82.8771	153.809	82.7136	153.809	82.7722	153.809	82.6851	153.809	82.6475	153.809	82.6317	153.809	82.5156	153.809	82.5561	153.809	82.3915	153.809	82.4652	153.809	82.2908	153.809	82.3706	153.809	82.2261	153.809	82.2864	153.809	82.2048	153.809	82.2272
159.668	82.8425	159.668	82.8047	159.668	82.8883	159.668	82.7776	159.668	82.9392	159.668	82.7635	159.668	82.9918	159.668	82.7639	159.668	83.0418	159.668	82.7788	159.668	83.084	159.668	82.8062	159.668	83.1118	159.668	82.8419	159.668	83.1184	159.668	82.8793	159.668	83.0976	159.668	82.9105	159.668	83.0455	159.668	82.9274	159.668	82.9615	159.668	82.9225	159.668	82.8499	159.668	82.8908	159.668	82.72	159.668	82.8306	159.668	82.5857	159.668	82.7447	159.668	82.4634	159.668	82.6406	159.668	82.3693	159.668	82.53	159.668	82.316	159.668	82.428	159.668	82.31	159.668	82.3502
165.527	83.05	165.527	83.0214	165.527	83.0869	165.527	83.0032	165.527	83.1299	165.527	82.9976	165.527	83.1766	165.527	83.0064	165.527	83.2231	165.527	83.0302	165.527	83.2646	165.527	83.0677	165.527	83.2946	165.527	83.1149	165.527	83.3064	165.527	83.1652	165.527	83.2933	165.527	83.2096	165.527	83.2513	165.527	83.2389	165.527	83.1794	165.527	83.2442	165.527	83.0816	165.527	83.2195	165.527	82.9664	165.527	83.1629	165.527	82.8469	165.527	83.0772	165.527	82.7387	165.527	82.9705	165.527	82.6571	165.527	82.8556	165.527	82.6144	165.527	82.7482	165.527	82.617	165.527	82.6642
171.387	83.2159	171.387	83.183	171.387	83.2515	171.387	83.1548	171.387	83.288	171.387	83.1331	171.387	83.3232	171.387	83.1203	171.387	83.3536	171.387	83.1179	171.387	83.3748	171.387	83.1264	171.387	83.3811	171.387	83.1443	171.387	83.3663	171.387	83.1672	171.387	83.3252	171.387	83.1886	171.387	83.2551	171.387	83.2002	171.387	83.1568	171.387	83.1939	171.387	83.0361	171.387	83.1629	171.387	82.9034	171.387	83.104	171.387	82.7728	171.387	83.0186	171.387	82.6601	171.387	82.9131	171.387	82.5797	171.387	82.7988	171.387	82.5418	171.387	82.6903	171.387	82.5505	171.387	82.603
177.246	83.4694	177.246	83.4306	177.246	83.5024	177.246	83.3878	177.246	83.5283	177.246	83.3433	177.246	83.5455	177.246	83.3	177.246	83.552	177.246	83.2607	177.246	83.5441	177.246	83.2274	177.246	83.5173	177.246	83.2001	177.246	83.4662	177.246	83.1767	177.246	83.3863	177.246	83.1527	177.246	83.2751	177.246	83.122	177.246	83.1343	177.246	83.0779	177.246	82.9706	177.246	83.0152	177.246	82.7961	177.246	82.9308	177.246	82.6275	177.246	82.8259	177.246	82.483	177.246	82.7062	177.246	82.3788	177.246	82.5821	177.246	82.3256	177.246	82.4674	177.246	82.3267	177.246	82.3775
183.105	83.302	183.105	83.2736	183.105	83.3277	183.105	83.2433	183.105	83.3511	183.105	83.2135	183.105	83.3729	183.105	83.1878	183.105	83.3933	183.105	83.1693	183.105	83.4106	183.105	83.16	183.105	83.4208	183.105	83.159	183.105	83.4177	183.105	83.1621	183.105	83.3938	183.105	83.1624	183.105	83.3424	183.105	83.1514	183.105	83.2596	183.105	83.1211	183.105	83.1463	183.105	83.0661	183.105	83.009	183.105	82.9853	183.105	82.8602	183.105	82.8827	183.105	82.7166	183.105	82.7678	183.105	82.5959	183.105	82.6546	183.105	82.5137	183.105	82.5591	183.105	82.48	183.105	82.4969
188.965	83.3885	188.965	83.3518	188.965	83.4169	188.965	83.3083	188.965	83.4367	188.965	83.2614	188.965	83.4488	188.965	83.2162	188.965	83.4534	188.965	83.178	188.965	83.4496	188.965	83.1508	188.965	83.4343	188.965	83.1363	188.965	83.4033	188.965	83.1321	188.965	83.3516	188.965	83.1323	188.965	83.2763	188.965	83.1284	188.965	83.1771	188.965	83.111	188.965	83.0587	188.965	83.0727	188.965	82.9295	188.965	83.0103	188.965	82.8017	188.965	82.9258	188.965	82.6884	188.965	82.8266	188.965	82.6017	188.965	82.725	188.965	82.5507	188.965	82.635	188.965	82.5402	188.965	82.57
196.289	83.622	196.289	83.6073	196.289	83.6261	196.289	83.5821	196.289	83.6207	196.289	83.5482	196.289	83.6073	196.289	83.5085	196.289	83.5865	196.289	83.4668	196.289	83.5574	196.289	83.4263	196.289	83.5165	196.289	83.3886	196.289	83.4588	196.289	83.3525	196.289	83.379	196.289	83.3141	196.289	83.2731	196.289	83.267	196.289	83.1415	196.289	83.2041	196.289	82.9894	196.289	83.1199	196.289	82.8274	196.289	83.0126	196.289	82.6702	196.289	82.8854	196.289	82.5336	196.289	82.7474	196.289	82.4318	196.289	82.6119	196.289	82.3747	196.289	82.4944	196.289	82.3674	196.289	82.4092
203.613	83.6815	203.613	83.6542	203.613	83.6857	203.613	83.6048	203.613	83.668	203.613	83.5377	203.613	83.6317	203.613	83.4594	203.613	83.5807	203.613	83.3779	203.613	83.5177	203.613	83.3008	203.613	83.4435	203.613	83.2339	203.613	83.3564	203.613	83.1794	203.613	83.2536	203.613	83.1354	203.613	83.1332	203.613	83.0961	203.613	82.9962	203.613	83.0532	203.613	82.8484	203.613	82.9985	203.613	82.7004	203.613	82.9261	203.613	82.5659	203.613	82.8349	203.613	82.4586	203.613	82.7292	203.613	82.3886	203.613	82.6184	203.613	82.3613	203.613	82.5146	203.613	82.3767	203.613	82.4304
210.938	83.8501	210.938	83.8359	210.938	83.8463	210.938	83.803	210.938	83.8271	210.938	83.7534	210.938	83.7961	210.938	83.6911	210.938	83.7563	210.938	83.6215	210.938	83.7087	210.938	83.5496	210.938	83.6514	210.938	83.4787	210.938	83.5795	210.938	83.4091	210.938	83.4867	210.938	83.3379	210.938	83.3676	210.938	83.2604	210.938	83.2203	210.938	83.1711	210.938	83.049	210.938	83.0665	210.938	82.865	210.938	82.946	210.938	82.6849	210.938	82.8134	210.938	82.5276	210.938	82.6769	210.938	82.4097	210.938	82.5476	210.938	82.3415	210.938	82.4382	210.938	82.3262	210.938	82.3609
218.262	83.7631	218.262	83.7498	218.262	83.7594	218.262	83.7206	218.262	83.7397	218.262	83.6787	218.262	83.7066	218.262	83.6293	218.262	83.6629	218.262	83.578	218.262	83.6107	218.262	83.5296	218.262	83.55	218.262	83.4867	218.262	83.4793	218.262	83.4484	218.262	83.3955	218.262	83.4103	218.262	83.2963	218.262	83.3658	218.262	83.1817	218.262	83.3073	218.262	83.0554	218.262	83.2293	218.262	82.9252	218.262	83.1306	218.262	82.8017	218.262	83.0152	218.262	82.6962	218.262	82.8924	218.262	82.6185	218.262	82.7748	218.262	82.5756	218.262	82.6756	218.262	82.5711	218.262	82.6054
225.586	83.8161	225.586	83.8083	225.586	83.8036	225.586	83.7825	225.586	83.7709	225.586	83.7439	225.586	83.7208	225.586	83.6986	225.586	83.657	225.586	83.6531	225.586	83.583	225.586	83.6115	225.586	83.5009	225.586	83.5751	225.586	83.4105	225.586	83.5418	225.586	83.3107	225.586	83.5063	225.586	83.2007	225.586	83.4619	225.586	83.0827	225.586	83.4027	225.586	82.9624	225.586	83.325	225.586	82.8494	225.586	83.2294	225.586	82.7544	225.586	83.1208	225.586	82.6867	225.586	83.0074	225.586	82.6511	225.586	82.8987	225.586	82.6477	225.586	82.8033	225.586	82.6742	225.586	82.7271
232.91	83.9513	232.91	83.9483	232.91	83.922	232.91	83.916	232.91	83.8613	232.91	83.8607	232.91	83.7734	232.91	83.7905	232.91	83.6647	232.91	83.7138	232.91	83.5416	232.91	83.6372	232.91	83.4086	232.91	83.5639	232.91	83.2679	232.91	83.494	232.91	83.1199	232.91	83.4239	232.91	82.9655	232.91	83.3487	232.91	82.8089	232.91	83.2633	232.91	82.6589	232.91	83.1645	232.91	82.5282	232.91	83.0524	232.91	82.4295	232.91	82.9307	232.91	82.3712	232.91	82.8065	232.91	82.3542	232.91	82.6879	232.91	82.3734	232.91	82.5816	232.91	82.4213	232.91	82.4919
241.699	83.9147	241.699	83.9021	241.699	83.8934	241.699	83.8593	241.699	83.8385	241.699	83.7938	241.699	83.7534	241.699	83.7164	241.699	83.6435	241.699	83.6387	241.699	83.5143	241.699	83.5704	241.699	83.3699	241.699	83.5159	241.699	83.2119	241.699	83.4731	241.699	83.041	241.699	83.4335	241.699	82.8588	241.699	83.3853	241.699	82.6707	241.699	83.3168	241.699	82.4881	241.699	83.2205	241.699	82.3273	241.699	83.0949	241.699	82.2055	241.699	82.9455	241.699	82.1352	241.699	82.7832	241.699	82.1199	241.699	82.6206	241.699	82.1546	241.699	82.4691	241.699	82.2298	241.699	82.3369
250.488	83.8847	250.488	83.8417	250.488	83.8927	250.488	83.7676	250.488	83.8659	250.488	83.6703	250.488	83.8076	250.488	83.5615	250.488	83.723	250.488	83.4542	250.488	83.6173	250.488	83.3598	250.488	83.4934	250.488	83.2851	250.488	83.3516	250.488	83.229	250.488	83.1902	250.488	83.1833	250.488	83.0076	250.488	83.1343	250.488	82.8063	250.488	83.0681	250.488	82.5953	250.488	82.9748	250.488	82.3907	250.488	82.8514	250.488	82.2133	250.488	82.7034	250.488	82.0823	250.488	82.5423	250.488	82.0094	250.488	82.3828	250.488	81.9961	250.488	82.2384	250.488	82.0361	250.488	82.1199
259.277	84.3507	259.277	84.317	259.277	84.3404	259.277	84.2438	259.277	84.2861	259.277	84.1401	259.277	84.192	259.277	84.0182	259.277	84.0653	259.277	83.8922	259.277	83.9136	259.277	83.7745	259.277	83.7431	259.277	83.6728	259.277	83.5567	259.277	83.5873	259.277	83.3544	259.277	83.5099	259.277	83.1359	259.277	83.4271	259.277	82.9043	259.277	83.3243	259.277	82.6694	259.277	83.1912	259.277	82.4477	259.277	83.0255	259.277	82.2593	259.277	82.8349	259.277	82.1216	259.277	82.6348	259.277	82.0441	259.277	82.4441	259.277	82.0271	259.277	82.2791	259.277	82.0648	259.277	82.1506
268.066	84.1814	268.066	84.1469	268.066	84.1656	268.066	84.0634	268.066	84.1035	268.066	83.9372	268.066	84.0032	268.066	83.7802	268.066	83.8749	268.066	83.6089	268.066	83.729	268.066	83.4415	268.066	83.5733	268.066	83.2941	268.066	83.4119	268.066	83.1752	268.066	83.2447	268.066	83.0827	268.066	83.0701	268.066	83.0049	268.066	82.8881	268.066	82.9254	268.066	82.7025	268.066	82.8297	268.066	82.5219	268.066	82.7108	268.066	82.3578	268.066	82.5716	268.066	82.2222	268.066	82.424	268.066	82.1239	268.066	82.2849	268.066	82.0684	268.066	82.1706	268.066	82.058	268.066	82.0929
276.855	83.988	276.855	83.9438	276.855	83.998	276.855	83.8673	276.855	83.9739	276.855	83.7622	276.855	83.9176	276.855	83.6331	276.855	83.8323	276.855	83.4859	276.855	83.7214	276.855	83.3273	276.855	83.5867	276.855	83.1643	276.855	83.4279	276.855	83.004	276.855	83.2441	276.855	82.8519	276.855	83.0366	276.855	82.71	276.855	82.8128	276.855	82.5756	276.855	82.5877	276.855	82.4433	276.855	82.3817	276.855	82.3102	276.855	82.213	276.855	82.1802	276.855	82.0903	276.855	82.0651	276.855	82.0092	276.855	81.9788	276.855	81.958	276.855	81.9293	276.855	81.9269	276.855	81.9149
287.109	84.0859	287.109	84.1101	287.109	84.0124	287.109	84.0818	287.109	83.9001	287.109	84.0059	287.109	83.7642	287.109	83.8945	287.109	83.621	287.109	83.7638	287.109	83.4836	287.109	83.6289	287.109	83.3584	287.109	83.4983	287.109	83.2438	287.109	83.3711	287.109	83.1321	287.109	83.2386	287.109	83.0132	287.109	83.0898	287.109	82.88	287.109	82.9179	287.109	82.7315	287.109	82.7239	287.109	82.5732	287.109	82.5184	287.109	82.4152	287.109	82.319	287.109	82.2682	287.109	82.1464	287.109	82.1405	287.109	82.0192	287.109	82.0379	287.109	81.9478	287.109	81.9659	287.109	81.9326
297.363	83.8662	297.363	83.8971	297.363	83.7894	297.363	83.8835	297.363	83.6724	297.363	83.8327	297.363	83.5279	297.363	83.7552	297.363	83.3726	297.363	83.662	297.363	83.2227	297.363	83.5611	297.363	83.0879	297.363	83.4551	297.363	82.9684	297.363	83.3407	297.363	82.8566	297.363	83.2112	297.363	82.744	297.363	83.0605	297.363	82.6277	297.363	82.8878	297.363	82.5143	297.363	82.7009	297.363	82.4168	297.363	82.5159	297.363	82.3461	297.363	82.3544	297.363	82.3031	297.363	82.2363	297.363	82.2769	297.363	82.1727	297.363	82.2523	297.363	82.1606	297.363	82.2198	297.363	82.1836
307.617	83.732	307.617	83.7294	307.617	83.6823	307.617	83.6802	307.617	83.5839	307.617	83.5987	307.617	83.4496	307.617	83.5054	307.617	83.2984	307.617	83.4234	307.617	83.1509	307.617	83.3721	307.617	83.0213	307.617	83.3596	307.617	82.912	307.617	83.3774	307.617	82.8114	307.617	83.4002	307.617	82.6997	307.617	83.3925	307.617	82.5577	307.617	83.3192	307.617	82.3768	307.617	83.1573	307.617	82.1653	307.617	82.905	307.617	81.948	307.617	82.5865	307.617	81.7572	307.617	82.2493	307.617	81.619	307.617	81.9484	307.617	81.5442	307.617	81.7244	307.617	81.5332	307.617	81.5892
319.336	82.8453	319.336	82.8092	319.336	82.7753	319.336	82.6766	319.336	82.6108	319.336	82.4787	319.336	82.3852	319.336	82.2673	319.336	82.1509	319.336	82.1078	319.336	81.9705	319.336	82.0608	319.336	81.8979	319.336	82.1566	319.336	81.9551	319.336	82.3804	319.336	82.124	319.336	82.6808	319.336	82.3566	319.336	82.9932	319.336	82.5983	319.336	83.2613	319.336	82.8044	319.336	83.4468	319.336	82.948	319.336	83.5321	319.336	83.0213	319.336	83.5191	319.336	83.0341	319.336	83.4278	319.336	83.011	319.336	83.2923	319.336	82.9853	319.336	83.1529	319.336	82.9898	319.336	83.0453
329.59	84.1658	329.59	84.1446	329.59	84.0462	329.59	83.9818	329.59	83.7903	329.59	83.6824	329.59	83.408	329.59	83.2613	329.59	82.9191	329.59	82.7525	329.59	82.3591	329.59	82.2174	329.59	81.7851	329.59	81.7472	329.59	81.2776	329.59	81.4446	329.59	80.9284	329.59	81.3793	329.59	80.8097	329.59	81.5465	329.59	80.9388	329.59	81.8713	329.59	81.2693	329.59	82.2562	329.59	81.7162	329.59	82.6236	329.59	82.1916	329.59	82.9307	329.59	82.6265	329.59	83.1632	329.59	82.9782	329.59	83.3226	329.59	83.2284	329.59	83.4132	329.59	83.3769	329.59	83.4342
341.309	84.4488	341.309	84.3899	341.309	84.3898	341.309	84.2159	341.309	84.2138	341.309	83.9349	341.309	83.9257	341.309	83.5629	341.309	83.5359	341.309	83.1267	341.309	83.0636	341.309	82.6649	341.309	82.5388	341.309	82.2257	341.309	82.0044	341.309	81.8597	341.309	81.5173	341.309	81.6082	341.309	81.1426	341.309	81.4901	341.309	80.9389	341.309	81.4962	341.309	80.9331	341.309	81.5962	341.309	81.1042	341.309	81.7527	341.309	81.3907	341.309	81.9331	341.309	81.7171	341.309	82.1124	341.309	82.0182	341.309	82.2698	341.309	82.2497	341.309	82.3833	341.309	82.3884	341.309	82.4294
353.027	84.1475	353.027	84.1071	353.027	84.0751	353.027	83.9565	353.027	83.8913	353.027	83.7016	353.027	83.6035	353.027	83.3526	353.027	83.2265	353.027	82.9274	353.027	82.7819	353.027	82.4563	353.027	82.2954	353.027	81.9871	353.027	81.7946	353.027	81.5829	353.027	81.31	353.027	81.3045	353.027	80.8812	353.027	81.179	353.027	80.5617	353.027	81.1806	353.027	80.4089	353.027	81.2494	353.027	80.4509	353.027	81.3306	353.027	80.6561	353.027	81.3993	353.027	80.9427	353.027	81.4575	353.027	81.2212	353.027	81.5134	353.027	81.4308	353.027	81.5629	353.027	81.5493	353.027	81.5848
366.211	84.7184	366.211	84.7674	366.211	84.5497	366.211	84.6952	366.211	84.2717	366.211	84.5085	366.211	83.9023	366.211	84.2221	366.211	83.4667	366.211	83.8559	366.211	82.9958	366.211	83.4313	366.211	82.5236	366.211	82.9686	366.211	82.0838	366.211	82.4899	366.211	81.707	366.211	82.0265	366.211	81.4196	366.211	81.6248	366.211	81.2451	366.211	81.3375	366.211	81.1985	366.211	81.1993	366.211	81.2763	366.211	81.2063	366.211	81.4477	366.211	81.3211	366.211	81.6603	366.211	81.4963	366.211	81.8569	366.211	81.6897	366.211	81.9911	366.211	81.8652	366.211	82.0369	366.211	81.9901
379.395	85.295	379.395	85.2823	379.395	85.1903	379.395	85.1644	379.395	84.9584	379.395	84.9536	379.395	84.5954	379.395	84.661	379.395	84.1064	379.395	84.2987	379.395	83.5085	379.395	83.8823	379.395	82.8333	379.395	83.4335	379.395	82.1293	379.395	82.9812	379.395	81.4629	379.395	82.5582	379.395	80.9165	379.395	82.1966	379.395	80.5761	379.395	81.9221	379.395	80.5046	379.395	81.7503	379.395	80.704	379.395	81.6873	379.395	81.1002	379.395	81.7295	379.395	81.5698	379.395	81.8615	379.395	81.9921	379.395	82.0506	379.395	82.2846	379.395	82.2463	379.395	82.4131	379.395	82.3867
392.578	84.9242	392.578	84.8574	392.578	84.8941	392.578	84.6993	392.578	84.7609	392.578	84.4557	392.578	84.5185	392.578	84.135	392.578	84.1636	392.578	83.75	392.578	83.6997	392.578	83.3184	392.578	83.1406	392.578	82.8617	392.578	82.5119	392.578	82.4044	392.578	81.8519	392.578	81.975	392.578	81.2152	392.578	81.6061	392.578	80.6795	392.578	81.3327	392.578	80.3414	392.578	81.1838	392.578	80.2814	392.578	81.172	392.578	80.5049	392.578	81.2855	392.578	80.9178	392.578	81.4885	392.578	81.3766	392.578	81.7251	392.578	81.7553	392.578	81.9281	392.578	81.9801	392.578	82.0303
405.762	84.689	405.762	84.6274	405.762	84.6406	405.762	84.4618	405.762	84.4757	405.762	84.1971	405.762	84.1918	405.762	83.8395	405.762	83.7947	405.762	83.3996	405.762	83.3028	405.762	82.8976	405.762	82.7443	405.762	82.3686	405.762	82.1515	405.762	81.8611	405.762	81.556	405.762	81.4252	405.762	80.9941	405.762	81.0921	405.762	80.5215	405.762	80.8638	405.762	80.2172	405.762	80.7261	405.762	80.1524	405.762	80.6724	405.762	80.3317	405.762	80.7136	405.762	80.6714	405.762	80.8577	405.762	81.0444	405.762	81.079	405.762	81.3385	405.762	81.3102	405.762	81.486	405.762	81.4677
420.41	85.2611	420.41	85.1948	420.41	85.194	420.41	85.0078	420.41	84.9841	420.41	84.7124	420.41	84.6296	420.41	84.3209	420.41	84.1386	420.41	83.8472	420.41	83.5291	420.41	83.3107	420.41	82.8264	420.41	82.7381	420.41	82.0632	420.41	82.1628	420.41	81.2867	420.41	81.6226	420.41	80.5698	420.41	81.1542	420.41	80.0166	420.41	80.7875	420.41	79.7346	420.41	80.541	420.41	79.7705	420.41	80.4248	420.41	80.0627	420.41	80.4445	420.41	80.4753	420.41	80.592	420.41	80.8716	420.41	80.8268	420.41	81.1577	420.41	81.074	420.41	81.2861	420.41	81.2486
435.059	84.3362	435.059	84.3041	435.059	84.2666	435.059	84.1741	435.059	84.0921	435.059	83.9498	435.059	83.8127	435.059	83.6368	435.059	83.4336	435.059	83.2456	435.059	82.9646	435.059	82.7937	435.059	82.4184	435.059	82.3045	435.059	81.8106	435.059	81.8073	435.059	81.1649	435.059	81.3388	435.059	80.526	435.059	80.9389	435.059	79.9741	435.059	80.6393	435.059	79.6221	435.059	80.4535	435.059	79.5682	435.059	80.382	435.059	79.817	435.059	80.4255	435.059	80.2544	435.059	80.5812	435.059	80.7169	435.059	80.8185	435.059	81.0718	435.059	81.0664	435.059	81.2485	435.059	81.2346
451.172	85.0744	451.172	85.0115	451.172	85.0171	451.172	84.8238	451.172	84.8361	451.172	84.5028	451.172	84.5216	451.172	84.0444	451.172	84.0635	451.172	83.4569	451.172	83.4595	451.172	82.7629	451.172	82.7203	451.172	81.9961	451.172	81.8715	451.172	81.1964	451.172	80.9565	451.172	80.4151	451.172	80.0506	451.172	79.7327	451.172	79.2871	451.172	79.2622	451.172	78.8571	451.172	79.0958	451.172	78.9089	451.172	79.2327	451.172	79.3982	451.172	79.5888	451.172	80.1004	451.172	80.0665	451.172	80.7705	451.172	80.5815	451.172	81.2434	451.172	81.0451	451.172	81.4422	451.172	81.3602
465.82	84.8256	465.82	84.7431	465.82	84.7814	465.82	84.5394	465.82	84.6027	465.82	84.2215	465.82	84.2839	465.82	83.8059	465.82	83.8301	465.82	83.3247	465.82	83.2594	465.82	82.8181	465.82	82.5956	465.82	82.3153	465.82	81.857	465.82	81.8158	465.82	81.0561	465.82	81.2918	465.82	80.2199	465.82	80.7161	465.82	79.422	465.82	80.0991	465.82	78.7966	465.82	79.5144	465.82	78.4877	465.82	79.0868	465.82	78.5416	465.82	78.9301	465.82	78.8593	465.82	79.0597	465.82	79.2734	465.82	79.3655	465.82	79.6372	465.82	79.6804	465.82	79.8519	465.82	79.8658
483.398	84.8145	483.398	84.7679	483.398	84.7217	483.398	84.5819	483.398	84.4975	483.398	84.264	483.398	84.1591	483.398	83.8328	483.398	83.7309	483.398	83.3205	483.398	83.2341	483.398	82.7669	483.398	82.6733	483.398	82.2025	483.398	82.0304	483.398	81.6347	483.398	81.2795	483.398	81.0498	483.398	80.4265	483.398	80.4336	483.398	79.5723	483.398	79.7998	483.398	78.953	483.398	79.2127	483.398	78.8289	483.398	78.7979	483.398	79.2137	483.398	78.7077	483.398	79.8385	483.398	79.0075	483.398	80.4144	483.398	79.5794	483.398	80.7771	483.398	80.1944	483.398	80.862	483.398	80.6569
499.512	84.3861	499.512	84.3385	499.512	84.2922	499.512	84.1528	499.512	84.0569	499.512	83.8382	499.512	83.6864	499.512	83.4166	499.512	83.1989	499.512	82.9269	499.512	82.6247	499.512	82.4178	499.512	81.996	499.512	81.9313	499.512	81.3303	499.512	81.4832	499.512	80.6225	499.512	81.0574	499.512	79.8642	499.512	80.6195	499.512	79.1008	499.512	80.1448	499.512	78.5026	499.512	79.6452	499.512	78.343	499.512	79.1922	499.512	78.7488	499.512	78.9237	499.512	79.4986	499.512	78.9856	499.512	80.2293	499.512	79.3976	499.512	80.6907	499.512	79.9898	499.512	80.783	499.512	80.5159
517.09	84.7355	517.09	84.5653	517.09	84.7615	517.09	84.2671	517.09	84.6371	517.09	83.8676	517.09	84.365	517.09	83.4046	517.09	83.9532	517.09	82.9231	517.09	83.4085	517.09	82.4642	517.09	82.7331	517.09	82.0493	517.09	81.9277	517.09	81.6719	517.09	80.9983	517.09	81.3047	517.09	79.9651	517.09	80.9162	517.09	78.8954	517.09	80.4833	517.09	77.9897	517.09	80.0088	517.09	77.633	517.09	79.5579	517.09	78.0833	517.09	79.2868	517.09	79.0566	517.09	79.3728	517.09	80.0421	517.09	79.8241	517.09	80.7266	517.09	80.4165	517.09	81.0022	517.09	80.8712
536.133	84.3144	536.133	84.1807	536.133	84.2224	536.133	83.8338	536.133	83.9147	536.133	83.316	536.133	83.4231	536.133	82.7096	536.133	82.803	536.133	82.1249	536.133	82.1263	536.133	81.6504	536.133	81.4613	536.133	81.2934	536.133	80.845	536.133	80.98	536.133	80.2644	536.133	80.6308	536.133	79.6637	536.133	80.231	536.133	78.9895	536.133	79.8302	536.133	78.2842	536.133	79.484	536.133	77.7946	536.133	79.2154	536.133	77.8772	536.133	79.0551	536.133	78.5547	536.133	79.0913	536.133	79.4233	536.133	79.3946	536.133	80.0917	536.133	79.8677	536.133	80.3795	536.133	80.2691
555.176	84.5652	555.176	84.4103	555.176	84.517	555.176	84.0564	555.176	84.2667	555.176	83.5172	555.176	83.8267	555.176	82.8298	555.176	83.2344	555.176	82.0648	555.176	82.5555	555.176	81.3171	555.176	81.8593	555.176	80.6658	555.176	81.1749	555.176	80.1281	555.176	80.4685	555.176	79.6572	555.176	79.6751	555.176	79.1939	555.176	78.7728	555.176	78.7174	555.176	77.868	555.176	78.2551	555.176	77.2445	555.176	77.8775	555.176	77.2199	555.176	77.7124	555.176	77.7898	555.176	77.9101	555.176	78.5964	555.176	78.463	555.176	79.2757	555.176	79.1141	555.176	79.6221	555.176	79.5579
574.219	84.7289	574.219	84.5938	574.219	84.6809	574.219	84.2726	574.219	84.4614	574.219	83.7791	574.219	84.0846	574.219	83.1492	574.219	83.5673	574.219	82.4435	574.219	82.9328	574.219	81.7477	574.219	82.2104	574.219	81.1507	574.219	81.4263	574.219	80.6816	574.219	80.5929	574.219	80.262	574.219	79.7085	574.219	79.7506	574.219	78.787	574.219	79.0464	574.219	77.9392	574.219	78.1871	574.219	77.4552	574.219	77.4128	574.219	77.6378	574.219	77.081	574.219	78.3761	574.219	77.368	574.219	79.2099	574.219	78.101	574.219	79.7714	574.219	78.9433	574.219	79.9075	574.219	79.605
594.727	83.8959	594.727	83.6959	594.727	83.9301	594.727	83.3437	594.727	83.7823	594.727	82.8359	594.727	83.4598	594.727	82.1676	594.727	83.0088	594.727	81.3772	594.727	82.4939	594.727	80.5845	594.727	81.9447	594.727	79.9691	594.727	81.3177	594.727	79.6614	594.727	80.526	594.727	79.6077	594.727	79.5247	594.727	79.5782	594.727	78.3917	594.727	79.3432	594.727	77.3688	594.727	78.8157	594.727	76.8235	594.727	78.0928	594.727	77.0419	594.727	77.4681	594.727	77.9122	594.727	77.3428	594.727	78.9483	594.727	77.8727	594.727	79.6835	594.727	78.7516	594.727	79.8839	594.727	79.5263
615.234	84.2722	615.234	84.0386	615.234	84.2709	615.234	83.5754	615.234	84.0346	615.234	82.9124	615.234	83.5757	615.234	82.1329	615.234	82.9406	615.234	81.3608	615.234	82.2129	615.234	80.679	615.234	81.4869	615.234	80.0915	615.234	80.8276	615.234	79.6482	615.234	80.2353	615.234	79.4931	615.234	79.6392	615.234	79.6068	615.234	78.9438	615.234	79.7128	615.234	78.1109	615.234	79.5356	615.234	77.2437	615.234	78.9742	615.234	76.6152	615.234	78.1694	615.234	76.5214	615.234	77.5383	615.234	76.9911	615.234	77.5001	615.234	77.6999	615.234	77.9257	615.234	78.2189	615.234	78.2855
637.207	84.8768	637.207	84.6718	637.207	84.8304	637.207	84.2343	637.207	84.5347	637.207	83.6066	637.207	84.0251	637.207	82.8679	637.207	83.3622	637.207	82.1088	637.207	82.5877	637.207	81.3468	637.207	81.7141	637.207	80.5033	637.207	80.7926	637.207	79.5446	637.207	79.9386	637.207	78.6267	637.207	79.2219	637.207	77.9947	637.207	78.5992	637.207	77.6895	637.207	78.0599	637.207	77.502	637.207	77.7943	637.207	77.2698	637.207	78.0412	637.207	77.137	637.207	78.7121	637.207	77.4307	637.207	79.4529	637.207	78.1942	637.207	79.9672	637.207	79.0964	637.207	80.098	637.207	79.7922
659.18	84.8331	659.18	84.4472	659.18	85.0267	659.18	83.9027	659.18	84.9957	659.18	83.2541	659.18	84.7214	659.18	82.5888	659.18	84.2086	659.18	81.9669	659.18	83.4814	659.18	81.3575	659.18	82.575	659.18	80.6876	659.18	81.5161	659.18	79.9649	659.18	80.3155	659.18	79.3349	659.18	79.0297	659.18	78.9707	659.18	77.803	659.18	78.8309	659.18	76.7718	659.18	78.5991	659.18	76.1554	659.18	78.004	659.18	76.5525	659.18	77.192	659.18	77.9952	659.18	76.8683	659.18	79.4531	659.18	77.5562	659.18	80.253	659.18	78.7465	659.18	80.3163	659.18	79.7651
682.617	85.2173	682.617	85.2007	682.617	85.0786	682.617	85.0006	682.617	84.8257	682.617	84.6141	682.617	84.4978	682.617	84.0737	682.617	84.12	682.617	83.4513	682.617	83.6877	682.617	82.8308	682.617	83.1522	682.617	82.2463	682.617	82.4452	682.617	81.658	682.617	81.5456	682.617	81.0355	682.617	80.5226	682.617	80.444	682.617	79.5275	682.617	79.9826	682.617	78.7373	682.617	79.6332	682.617	78.2367	682.617	79.2496	682.617	78.0405	682.617	78.786	682.617	78.3912	682.617	78.6086	682.617	79.4766	682.617	79.2597	682.617	80.7406	682.617	80.4489	682.617	81.4643	682.617	81.3434
707.52	85.8711	707.52	85.6318	707.52	85.781	707.52	85.1208	707.52	85.3759	707.52	84.4171	707.52	84.7671	707.52	83.5931	707.52	84.1348	707.52	82.756	707.52	83.6051	707.52	82.0891	707.52	83.0969	707.52	81.7896	707.52	82.3766	707.52	81.787	707.52	81.3619	707.52	81.5474	707.52	80.3447	707.52	80.7013	707.52	79.6557	707.52	79.6402	707.52	79.1086	707.52	79.0665	707.52	78.5544	707.52	78.7121	707.52	78.7386	707.52	77.8537	707.52	79.9729	707.52	77.1138	707.52	81.2242	707.52	78.166	707.52	81.9039	707.52	80.069	707.52	81.9758	707.52	81.405
732.422	85.4715	732.422	85.0741	732.422	85.5997	732.422	84.4894	732.422	85.4008	732.422	83.8302	732.422	84.908	732.422	83.2828	732.422	84.2674	732.422	82.9813	732.422	83.6027	732.422	82.7561	732.422	82.8242	732.422	82.2293	732.422	81.7017	732.422	81.3528	732.422	80.2458	732.422	80.6585	732.422	78.9355	732.422	80.4148	732.422	78.1271	732.422	80.1691	732.422	77.3825	732.422	79.4812	732.422	76.3645	732.422	78.3223	732.422	76.0839	732.422	77.0654	732.422	77.3118	732.422	76.2718	732.422	78.7757	732.422	76.5844	732.422	79.6658	732.422	77.9007	732.422	79.8264	732.422	79.1981
757.324	84.83	757.324	84.5764	757.324	84.9469	757.324	84.322	757.324	84.8092	757.324	84.1206	757.324	84.3857	757.324	83.854	757.324	83.7081	757.324	83.2445	757.324	82.8133	757.324	82.0836	757.324	81.7745	757.324	80.4911	757.324	80.7515	757.324	78.9078	757.324	79.8742	757.324	77.8829	757.324	79.0616	757.324	77.7276	757.324	78.0966	757.324	78.0772	757.324	76.9166	757.324	78.1906	757.324	75.8996	757.324	77.7167	757.324	75.8584	757.324	77.0354	757.324	76.9193	757.324	77.0006	757.324	78.1649	757.324	77.8187	757.324	79.0189	757.324	78.7983	757.324	79.428	757.324	79.3782
785.156	85.4615	785.156	85.1784	785.156	85.322	785.156	84.6137	785.156	84.8123	785.156	83.9858	785.156	84.1261	785.156	83.3564	785.156	83.478	785.156	82.5448	785.156	82.9838	785.156	81.3133	785.156	82.4966	785.156	79.6593	785.156	81.6709	785.156	78.0993	785.156	80.4289	785.156	77.4245	785.156	79.2487	785.156	77.4356	785.156	78.3562	785.156	77.2895	785.156	77.1967	785.156	77.0356	785.156	76.0305	785.156	76.834	785.156	76.3321	785.156	75.6524	785.156	77.764	785.156	73.1889	785.156	79.2442	785.156	73.8299	785.156	80.3333	785.156	77.4378	785.156	80.6201	785.156	79.7605
811.523	84.7184	811.523	84.4678	811.523	84.748	811.523	83.986	811.523	84.5566	811.523	83.2789	811.523	84.1105	811.523	82.3544	811.523	83.3544	811.523	81.2691	811.523	82.2419	811.523	80.2333	811.523	80.8715	811.523	79.4727	811.523	79.5025	811.523	78.9329	811.523	78.219	811.523	78.5778	811.523	77.0207	811.523	78.6695	811.523	76.0546	811.523	78.9716	811.523	75.3571	811.523	78.7974	811.523	74.8308	811.523	78.1662	811.523	74.616	811.523	77.6046	811.523	75.5744	811.523	77.0128	811.523	77.6124	811.523	76.3776	811.523	79.104	811.523	76.9091	811.523	79.3403	811.523	78.4025
840.82	85.6983	840.82	85.6078	840.82	85.3862	840.82	85.091	840.82	84.8239	840.82	84.2439	840.82	84.2006	840.82	83.1488	840.82	83.5869	840.82	81.7843	840.82	82.8874	840.82	80.2441	840.82	81.9879	840.82	79.0285	840.82	80.9329	840.82	78.4022	840.82	79.9307	840.82	77.7589	840.82	78.9884	840.82	76.9002	840.82	77.8294	840.82	76.5953	840.82	76.5562	840.82	76.7193	840.82	75.945	840.82	75.9311	840.82	75.8796	840.82	74.0415	840.82	75.988	840.82	73.073	840.82	77.065	840.82	74.86	840.82	78.4362	840.82	77.051	840.82	78.9392	840.82	78.4386
870.117	86.8746	870.117	86.3594	870.117	86.8103	870.117	85.4219	870.117	86.1423	870.117	84.2717	870.117	85.0403	870.117	83.0897	870.117	83.7963	870.117	81.951	870.117	82.676	870.117	80.8883	870.117	81.7902	870.117	79.92	870.117	80.9015	870.117	79.0621	870.117	79.8429	870.117	78.4966	870.117	79.0996	870.117	78.0211	870.117	78.969	870.117	77.1237	870.117	78.2443	870.117	76.2625	870.117	75.7908	870.117	76.3472	870.117	74.3807	870.117	76.4655	870.117	76.7884	870.117	75.7334	870.117	78.6935	870.117	74.9732	870.117	79.4764	870.117	75.9097	870.117	79.2154	870.117	77.8631
900.879	88.1885	900.879	87.7579	900.879	87.9892	900.879	86.7675	900.879	87.3553	900.879	85.5416	900.879	86.483	900.879	84.4295	900.879	85.2551	900.879	83.46	900.879	83.5201	900.879	82.2928	900.879	81.6029	900.879	80.5826	900.879	80.2419	900.879	78.7543	900.879	79.619	900.879	78.1636	900.879	79.1865	900.879	78.6207	900.879	78.5492	900.879	78.8278	900.879	78.1533	900.879	78.7471	900.879	78.2391	900.879	78.7646	900.879	77.4175	900.879	78.0885	900.879	75.8204	900.879	76.2161	900.879	77.0153	900.879	76.4932	900.879	79.4956	900.879	79.1755	900.879	80.7356	900.879	80.6656
933.105	87.9635	933.105	87.5053	933.105	88.0116	933.105	86.6912	933.105	87.6979	933.105	85.7448	933.105	87.0209	933.105	84.8383	933.105	85.9069	933.105	83.8551	933.105	84.4417	933.105	82.7321	933.105	83.0251	933.105	81.7018	933.105	81.8051	933.105	80.8206	933.105	80.3892	933.105	80.1903	933.105	79.0128	933.105	80.0381	933.105	78.4676	933.105	79.5028	933.105	77.6275	933.105	78.058	933.105	75.7171	933.105	77.0948	933.105	75.5388	933.105	77.3574	933.105	77.054	933.105	76.7899	933.105	78.3315	933.105	75.3725	933.105	79.2704	933.105	76.2563	933.105	79.2955	933.105	78.1961
965.332	88.3528	965.332	88.2705	965.332	87.9262	965.332	87.4196	965.332	87.422	965.332	85.9765	965.332	86.9721	965.332	84.4582	965.332	86.2698	965.332	83.2088	965.332	84.9671	965.332	82.0526	965.332	82.9874	965.332	80.6761	965.332	80.6719	965.332	79.3276	965.332	79.0252	965.332	78.3991	965.332	78.7093	965.332	78.295	965.332	78.2963	965.332	78.8896	965.332	76.8581	965.332	79.3643	965.332	75.8069	965.332	79.1492	965.332	75.9277	965.332	77.8941	965.332	74.9941	965.332	75.3987	965.332	76.4927	965.332	73.7284	965.332	79.8807	965.332	76.6796	965.332	80.8782	965.332	79.6591
1,000.49	87.9127	1,000.49	87.4703	1,000.49	87.89	1,000.49	86.7213	1,000.49	87.4396	1,000.49	85.8441	1,000.49	86.7794	1,000.49	84.7163	1,000.49	85.9668	1,000.49	82.8543	1,000.49	84.8221	1,000.49	80.2007	1,000.49	83.2393	1,000.49	78.1263	1,000.49	81.0151	1,000.49	76.9358	1,000.49	77.6734	1,000.49	74.2482	1,000.49	73.9563	1,000.49	71.5928	1,000.49	74.3562	1,000.49	76.0126	1,000.49	75.933	1,000.49	77.5111	1,000.49	75.2737	1,000.49	76.9214	1,000.49	74.9975	1,000.49	77.4534	1,000.49	76.5398	1,000.49	77.8364	1,000.49	77.9309	1,000.49	76.3383	1,000.49	79.4595	1,000.49	76.4017	1,000.49	80.0817	1,000.49	78.9514
1,035.64	87.3742	1,035.64	87.1104	1,035.64	87.5326	1,035.64	86.7026	1,035.64	87.4546	1,035.64	85.9684	1,035.64	86.9214	1,035.64	84.8344	1,035.64	85.6912	1,035.64	83.6073	1,035.64	83.7465	1,035.64	82.4682	1,035.64	81.7667	1,035.64	80.8554	1,035.64	80.5606	1,035.64	79.0238	1,035.64	79.5412	1,035.64	78.5398	1,035.64	78.3596	1,035.64	77.7708	1,035.64	78.32	1,035.64	75.0888	1,035.64	78.589	1,035.64	73.5341	1,035.64	77.9995	1,035.64	74.9556	1,035.64	78.4679	1,035.64	76.093	1,035.64	78.4246	1,035.64	75.9305	1,035.64	77.267	1,035.64	75.2044	1,035.64	78.6328	1,035.64	75.0762	1,035.64	78.5852	1,035.64	76.66
1,072.27	87.0928	1,072.27	87.2095	1,072.27	86.8948	1,072.27	86.7472	1,072.27	86.9958	1,072.27	85.5503	1,072.27	86.9692	1,072.27	83.9974	1,072.27	86.0115	1,072.27	82.7788	1,072.27	84.0814	1,072.27	81.8886	1,072.27	81.9551	1,072.27	80.653	1,072.27	80.1317	1,072.27	79.1916	1,072.27	78.1811	1,072.27	78.311	1,072.27	75.8148	1,072.27	78.2756	1,072.27	75.5839	1,072.27	77.904	1,072.27	77.0772	1,072.27	76.1381	1,072.27	76.1043	1,072.27	74.692	1,072.27	75.3998	1,072.27	75.3802	1,072.27	77.2389	1,072.27	74.7491	1,072.27	78.0169	1,072.27	72.74	1,072.27	78.8333	1,072.27	73.9687	1,072.27	78.7976	1,072.27	76.9323
1,108.89	86.7959	1,108.89	86.5774	1,108.89	87.1147	1,108.89	86.3422	1,108.89	87.3703	1,108.89	85.8805	1,108.89	87.1578	1,108.89	84.7775	1,108.89	86.2569	1,108.89	83.0734	1,108.89	84.5287	1,108.89	81.1658	1,108.89	81.594	1,108.89	78.7711	1,108.89	78.6176	1,108.89	76.8859	1,108.89	78.1725	1,108.89	76.3122	1,108.89	77.6501	1,108.89	75.5211	1,108.89	75.7823	1,108.89	77.2498	1,108.89	78.6177	1,108.89	78.874	1,108.89	79.1065	1,108.89	78.4089	1,108.89	76.506	1,108.89	78.4311	1,108.89	76.6592	1,108.89	77.9005	1,108.89	77.2333	1,108.89	74.8099	1,108.89	78.4533	1,108.89	75.5418	1,108.89	79.3529	1,108.89	78.3174
1,148.44	86.9122	1,148.44	86.6852	1,148.44	86.9192	1,148.44	86.2337	1,148.44	86.7401	1,148.44	85.1582	1,148.44	86.5074	1,148.44	83.2514	1,148.44	86.1527	1,148.44	81.6148	1,148.44	85.3298	1,148.44	80.85	1,148.44	83.5642	1,148.44	79.6608	1,148.44	80.7458	1,148.44	77.6519	1,148.44	78.6466	1,148.44	76.5039	1,148.44	77.6049	1,148.44	75.799	1,148.44	76.4855	1,148.44	76.4241	1,148.44	77.3175	1,148.44	78.1909	1,148.44	77.5225	1,148.44	77.4242	1,148.44	75.4341	1,148.44	75.2576	1,148.44	74.9159	1,148.44	75.851	1,148.44	77.803	1,148.44	74.5214	1,148.44	79.8116	1,148.44	73.0533	1,148.44	79.6557	1,148.44	76.9368
1,189.45	86.9559	1,189.45	86.4876	1,189.45	86.8782	1,189.45	85.4753	1,189.45	86.4716	1,189.45	84.1916	1,189.45	86.0604	1,189.45	83.1447	1,189.45	85.8007	1,189.45	82.1817	1,189.45	85.4234	1,189.45	80.3881	1,189.45	84.1784	1,189.45	78.0378	1,189.45	81.4095	1,189.45	75.341	1,189.45	78.247	1,189.45	74.265	1,189.45	77.288	1,189.45	73.2805	1,189.45	75.8825	1,189.45	73.6624	1,189.45	75.9315	1,189.45	78.5715	1,189.45	77.5477	1,189.45	79.6371	1,189.45	77.111	1,189.45	77.2755	1,189.45	76.1004	1,189.45	76.9498	1,189.45	76.5711	1,189.45	75.5332	1,189.45	79.7103	1,189.45	71.6057	1,189.45	79.9099	1,189.45	75.9721
1,230.47	87.077	1,230.47	86.2606	1,230.47	87.1837	1,230.47	85.3197	1,230.47	86.5097	1,230.47	84.6979	1,230.47	85.7205	1,230.47	84.5387	1,230.47	85.2465	1,230.47	84.1476	1,230.47	84.8544	1,230.47	82.5778	1,230.47	84.0423	1,230.47	80.448	1,230.47	82.0052	1,230.47	78.0698	1,230.47	78.3359	1,230.47	75.1805	1,230.47	75.3362	1,230.47	73.1589	1,230.47	76.1817	1,230.47	66.659	1,230.47	77.1748	1,230.47	74.1646	1,230.47	77.5782	1,230.47	78.3786	1,230.47	77.6737	1,230.47	77.2167	1,230.47	77.1414	1,230.47	74.5052	1,230.47	75.2141	1,230.47	74.9621	1,230.47	77.0902	1,230.47	74.0601	1,230.47	77.1858	1,230.47	74.1678
1,274.41	88.3078	1,274.41	87.588	1,274.41	88.4881	1,274.41	86.637	1,274.41	87.9187	1,274.41	85.7654	1,274.41	86.7083	1,274.41	85.2433	1,274.41	85.3636	1,274.41	84.5782	1,274.41	84.77	1,274.41	83.0273	1,274.41	84.4912	1,274.41	80.664	1,274.41	82.8501	1,274.41	78.7749	1,274.41	79.7202	1,274.41	78.725	1,274.41	77.1729	1,274.41	79.4848	1,274.41	74.8701	1,274.41	77.8728	1,274.41	74.8268	1,274.41	73.2893	1,274.41	77.3236	1,274.41	75.1818	1,274.41	77.8995	1,274.41	76.1227	1,274.41	77.8769	1,274.41	76.1283	1,274.41	77.8009	1,274.41	76.3375	1,274.41	78.9446	1,274.41	73.6705	1,274.41	77.8221	1,274.41	73.6156
1,319.82	89.1278	1,319.82	88.5124	1,319.82	89.3158	1,319.82	87.3671	1,319.82	89.0597	1,319.82	85.9199	1,319.82	88.0101	1,319.82	85.1973	1,319.82	86.0978	1,319.82	85.0968	1,319.82	84.5303	1,319.82	83.693	1,319.82	83.6298	1,319.82	80.0227	1,319.82	82.6929	1,319.82	75.5935	1,319.82	81.6944	1,319.82	72.9957	1,319.82	78.6662	1,319.82	75.4331	1,319.82	73.841	1,319.82	76.9793	1,319.82	75.2904	1,319.82	75.3426	1,319.82	78.3088	1,319.82	73.556	1,319.82	79.1288	1,319.82	77.2043	1,319.82	77.6115	1,319.82	78.6886	1,319.82	75.0088	1,319.82	78.1238	1,319.82	77.8014	1,319.82	76.8381	1,319.82	78.5934	1,319.82	76.8726
1,366.7	89.0742	1,366.7	88.9815	1,366.7	89.1585	1,366.7	87.935	1,366.7	89.3437	1,366.7	85.9114	1,366.7	89.0874	1,366.7	85.311	1,366.7	87.5805	1,366.7	85.8659	1,366.7	84.9251	1,366.7	84.7598	1,366.7	82.2677	1,366.7	82.7502	1,366.7	80.9483	1,366.7	81.6804	1,366.7	80.9145	1,366.7	79.8168	1,366.7	79.8057	1,366.7	78.9494	1,366.7	72.7914	1,366.7	79.2495	1,366.7	72.0111	1,366.7	77.2796	1,366.7	77.2947	1,366.7	69.4398	1,366.7	77.7763	1,366.7	74.7816	1,366.7	77.7181	1,366.7	78.9161	1,366.7	77.8785	1,366.7	79.2574	1,366.7	76.7931	1,366.7	77.7171	1,366.7	76.519	1,366.7	76.3051
1,413.57	89.2863	1,413.57	88.7875	1,413.57	88.768	1,413.57	86.7858	1,413.57	88.4168	1,413.57	85.8928	1,413.57	88.0722	1,413.57	86.032	1,413.57	87.1429	1,413.57	84.4034	1,413.57	85.6276	1,413.57	82.5329	1,413.57	83.2946	1,413.57	83.2526	1,413.57	81.377	1,413.57	80.8903	1,413.57	80.4408	1,413.57	73.8299	1,413.57	78.9973	1,413.57	74.736	1,413.57	75.3391	1,413.57	79.9712	1,413.57	64.9874	1,413.57	80.0922	1,413.57	75.4968	1,413.57	76.1531	1,413.57	77.4855	1,413.57	59.477	1,413.57	78.6911	1,413.57	76.0247	1,413.57	77.2296	1,413.57	80.0868	1,413.57	75.3536	1,413.57	79.4259	1,413.57	75.3768	1,413.57	76.4073
1,463.38	88.03	1,463.38	87.7122	1,463.38	87.4953	1,463.38	86.5534	1,463.38	87.3449	1,463.38	86.0773	1,463.38	87.2533	1,463.38	84.0209	1,463.38	86.4114	1,463.38	79.6393	1,463.38	85.2212	1,463.38	79.446	1,463.38	83.3571	1,463.38	79.9397	1,463.38	80.6167	1,463.38	75.1509	1,463.38	79.3689	1,463.38	68.1166	1,463.38	78.4825	1,463.38	73.2975	1,463.38	75.2342	1,463.38	79.7186	1,463.38	62.9795	1,463.38	81.5639	1,463.38	72.6666	1,463.38	81.3428	1,463.38	78.7122	1,463.38	74.3334	1,463.38	79.0953	1,463.38	70.5848	1,463.38	77.8115	1,463.38	78.6141	1,463.38	77.9855	1,463.38	79.4164	1,463.38	77.6713	1,463.38	78.113
1,516.11	87.4912	1,516.11	87.2136	1,516.11	87.3612	1,516.11	87.3323	1,516.11	86.6499	1,516.11	87.0766	1,516.11	85.4115	1,516.11	83.9418	1,516.11	84.7777	1,516.11	81.1816	1,516.11	84.6146	1,516.11	81.506	1,516.11	82.9063	1,516.11	78.5461	1,516.11	80.2288	1,516.11	78.0533	1,516.11	77.4665	1,516.11	79.0587	1,516.11	77.4084	1,516.11	73.6544	1,516.11	77.5547	1,516.11	68.6048	1,516.11	74.6093	1,516.11	80.9979	1,516.11	60.435	1,516.11	82.7914	1,516.11	74.5441	1,516.11	80.2295	1,516.11	78.5801	1,516.11	71.532	1,516.11	79.7386	1,516.11	75.6926	1,516.11	79.5697	1,516.11	79.6633	1,516.11	79.5439	1,516.11	79.763
1,568.85	86.189	1,568.85	85.4069	1,568.85	86.7062	1,568.85	85.7015	1,568.85	86.0326	1,568.85	85.6869	1,568.85	84.4816	1,568.85	84.6625	1,568.85	83.3872	1,568.85	84.5684	1,568.85	82.8325	1,568.85	82.7235	1,568.85	80.9414	1,568.85	78.6105	1,568.85	78.1101	1,568.85	79.1221	1,568.85	77.0289	1,568.85	81.1291	1,568.85	78.1097	1,568.85	79.4138	1,568.85	77.3383	1,568.85	71.5268	1,568.85	74.6282	1,568.85	70.7853	1,568.85	68.3827	1,568.85	78.8241	1,568.85	70.5049	1,568.85	79.1585	1,568.85	78.4791	1,568.85	73.4926	1,568.85	78.5642	1,568.85	63.1675	1,568.85	78.2633	1,568.85	75.3373	1,568.85	77.9377	1,568.85	77.2231
1,624.51	86.0603	1,624.51	85.7358	1,624.51	86.218	1,624.51	85.4735	1,624.51	85.8104	1,624.51	84.7814	1,624.51	84.5002	1,624.51	83.7237	1,624.51	82.91	1,624.51	83.6266	1,624.51	81.3893	1,624.51	82.4817	1,624.51	80.1813	1,624.51	79.6723	1,624.51	79.8895	1,624.51	77.7679	1,624.51	78.3576	1,624.51	77.3882	1,624.51	74.8692	1,624.51	77.0186	1,624.51	75.1298	1,624.51	75.2529	1,624.51	74.4942	1,624.51	64.5731	1,624.51	63.2464	1,624.51	74.3301	1,624.51	70.1818	1,624.51	78.0622	1,624.51	74.0273	1,624.51	76.7468	1,624.51	74.5949	1,624.51	67.49	1,624.51	76.5431	1,624.51	67.1949	1,624.51	77.0822	1,624.51	74.4721
1,681.64	86.0237	1,681.64	86.1659	1,681.64	85.7798	1,681.64	85.4833	1,681.64	85.4117	1,681.64	83.7616	1,681.64	84.4569	1,681.64	82.888	1,681.64	83.1435	1,681.64	84.0256	1,681.64	81.0782	1,681.64	82.7892	1,681.64	78.0833	1,681.64	78.9036	1,681.64	76.1563	1,681.64	76.1395	1,681.64	73.078	1,681.64	74.7298	1,681.64	69.0103	1,681.64	76.476	1,681.64	71.6431	1,681.64	73.1752	1,681.64	73.0238	1,681.64	65.3544	1,681.64	70.1602	1,681.64	70.8204	1,681.64	65.5305	1,681.64	77.2438	1,681.64	74.8872	1,681.64	74.031	1,681.64	75.6912	1,681.64	61.3822	1,681.64	74.6359	1,681.64	71.31	1,681.64	75.6389	1,681.64	75.8241
1,741.7	86.3547	1,741.7	86.156	1,741.7	86.1902	1,741.7	85.3619	1,741.7	85.4446	1,741.7	83.4445	1,741.7	84.7467	1,741.7	83.3958	1,741.7	83.1811	1,741.7	83.3994	1,741.7	79.9249	1,741.7	79.5187	1,741.7	78.6275	1,741.7	77.862	1,741.7	77.435	1,741.7	77.9711	1,741.7	75.4883	1,741.7	72.2568	1,741.7	74.8153	1,741.7	75.5838	1,741.7	70.0306	1,741.7	75.7788	1,741.7	73.52	1,741.7	72.451	1,741.7	71.4817	1,741.7	72.4835	1,741.7	68.3298	1,741.7	75.2344	1,741.7	63.6043	1,741.7	74.6822	1,741.7	70.8863	1,741.7	69.5851	1,741.7	76.9914	1,741.7	66.0169	1,741.7	77.9895	1,741.7	71.7231
1,803.22	86.5144	1,803.22	87.3557	1,803.22	85.6226	1,803.22	86.4938	1,803.22	85.2485	1,803.22	84.6652	1,803.22	84.1214	1,803.22	83.3199	1,803.22	82.671	1,803.22	81.7929	1,803.22	80.1246	1,803.22	80.3908	1,803.22	77.3784	1,803.22	79.3323	1,803.22	75.1545	1,803.22	74.6597	1,803.22	74.0849	1,803.22	75.0246	1,803.22	74.1475	1,803.22	75.4641	1,803.22	69.8649	1,803.22	74.4473	1,803.22	69.6829	1,803.22	73.1817	1,803.22	68.7377	1,803.22	69.4117	1,803.22	63.2679	1,803.22	74.1649	1,803.22	46.8768	1,803.22	69.1134	1,803.22	71.3551	1,803.22	69.221	1,803.22	76.8379	1,803.22	71.3152	1,803.22	76.3313	1,803.22	71.1861
1,866.21	85.6115	1,866.21	86.5593	1,866.21	85.3434	1,866.21	85.8464	1,866.21	85.5933	1,866.21	84.5408	1,866.21	84.3314	1,866.21	83.9256	1,866.21	82.7599	1,866.21	82.6929	1,866.21	80.7193	1,866.21	80.7521	1,866.21	78.4918	1,866.21	79.5602	1,866.21	72.7013	1,866.21	76.2201	1,866.21	69.7003	1,866.21	71.3523	1,866.21	69.5827	1,866.21	71.2193	1,866.21	70.1102	1,866.21	69.3161	1,866.21	69.5585	1,866.21	71.0049	1,866.21	69.0757	1,866.21	66.5842	1,866.21	65.6686	1,866.21	74.4948	1,866.21	71.1152	1,866.21	74.8215	1,866.21	69.3621	1,866.21	63.2399	1,866.21	73.0796	1,866.21	71.8446	1,866.21	73.6228	1,866.21	71.0572
1,932.13	85.0324	1,932.13	84.9717	1,932.13	84.7808	1,932.13	85.4017	1,932.13	84.4339	1,932.13	86.1979	1,932.13	84.3542	1,932.13	83.2172	1,932.13	83.3233	1,932.13	81.0504	1,932.13	81.8893	1,932.13	80.8756	1,932.13	78.4857	1,932.13	77.2215	1,932.13	76.6901	1,932.13	77.8067	1,932.13	74.4668	1,932.13	74.2931	1,932.13	55.9639	1,932.13	67.1206	1,932.13	67.5828	1,932.13	72.039	1,932.13	71.1127	1,932.13	70.4671	1,932.13	71.7529	1,932.13	74.3664	1,932.13	72.9631	1,932.13	72.2848	1,932.13	71.3728	1,932.13	73.5725	1,932.13	59.3024	1,932.13	73.4113	1,932.13	68.4511	1,932.13	68.614	1,932.13	69.9921	1,932.13	68.6345
1,999.51	84.9161	1,999.51	84.0397	1,999.51	85.061	1,999.51	85.4717	1,999.51	84.2711	1,999.51	85.6496	1,999.51	84.416	1,999.51	83.6186	1,999.51	83.0746	1,999.51	81.9565	1,999.51	81.9272	1,999.51	78.2237	1,999.51	80.1559	1,999.51	78.587	1,999.51	77.1501	1,999.51	75.5915	1,999.51	75.2074	1,999.51	74.1668	1,999.51	68.5578	1,999.51	73.7069	1,999.51	68.9288	1,999.51	68.1258	1,999.51	70.1559	1,999.51	69.2776	1,999.51	67.796	1,999.51	73.8989	1,999.51	70.7832	1,999.51	71.1235	1,999.51	72.0795	1,999.51	69.0472	1,999.51	67.428	1,999.51	71.2686	1,999.51	63.6923	1,999.51	70.5174	1,999.51	65.9194	1,999.51	66.3721
2,069.82	84.2594	2,069.82	84.2418	2,069.82	84.285	2,069.82	83.9757	2,069.82	83.3702	2,069.82	83.3321	2,069.82	82.4947	2,069.82	83.2026	2,069.82	82.5159	2,069.82	80.8956	2,069.82	82.3871	2,069.82	78.0262	2,069.82	79.9892	2,069.82	76.9683	2,069.82	77.1879	2,069.82	73.6275	2,069.82	72.6258	2,069.82	69.7013	2,069.82	70.235	2,069.82	65.6389	2,069.82	69.3918	2,069.82	70.1514	2,069.82	70.6525	2,069.82	63.3844	2,069.82	66.7388	2,069.82	70.5768	2,069.82	65.8552	2,069.82	71.6985	2,069.82	68.8904	2,069.82	64.2963	2,069.82	67.4162	2,069.82	66.583	2,069.82	65.6269	2,069.82	69.1577	2,069.82	65.1335	2,069.82	66.6156
2,143.07	84.7393	2,143.07	85.0213	2,143.07	84.8743	2,143.07	83.1981	2,143.07	84.3951	2,143.07	82.0996	2,143.07	82.4059	2,143.07	82.7881	2,143.07	81.5354	2,143.07	81.6167	2,143.07	82.0047	2,143.07	77.8623	2,143.07	80.222	2,143.07	72.6592	2,143.07	78.3374	2,143.07	74.8163	2,143.07	76.5102	2,143.07	71.213	2,143.07	74.7687	2,143.07	68.4218	2,143.07	70.1395	2,143.07	66.3176	2,143.07	67.4282	2,143.07	67.7746	2,143.07	63.5949	2,143.07	63.9762	2,143.07	63.7306	2,143.07	70.8646	2,143.07	64.0216	2,143.07	65.9646	2,143.07	66.3613	2,143.07	64.2407	2,143.07	63.8716	2,143.07	68.7541	2,143.07	62.4115	2,143.07	66.2193
2,219.24	84.7243	2,219.24	84.7333	2,219.24	84.5917	2,219.24	84.1574	2,219.24	84.9225	2,219.24	82.7043	2,219.24	83.6213	2,219.24	81.6623	2,219.24	82.132	2,219.24	80.8675	2,219.24	81.5217	2,219.24	77.3921	2,219.24	78.9006	2,219.24	74.6196	2,219.24	78.2204	2,219.24	67.9262	2,219.24	75.0992	2,219.24	68.44	2,219.24	72.7808	2,219.24	65.3766	2,219.24	71.592	2,219.24	64.9358	2,219.24	69.3248	2,219.24	66.1154	2,219.24	64.6639	2,219.24	60.0859	2,219.24	60.767	2,219.24	67.193	2,219.24	66.3646	2,219.24	65.562	2,219.24	68.4107	2,219.24	61.6241	2,219.24	62.1731	2,219.24	67.1955	2,219.24	62.6837	2,219.24	66.0359
2,296.88	84.1541	2,296.88	84.7579	2,296.88	83.6694	2,296.88	85.3838	2,296.88	84.6113	2,296.88	84.0292	2,296.88	84.1688	2,296.88	80.872	2,296.88	82.814	2,296.88	79.2373	2,296.88	80.4403	2,296.88	77.8304	2,296.88	78.3412	2,296.88	74.3134	2,296.88	75.6484	2,296.88	73.1254	2,296.88	72.1297	2,296.88	70.5004	2,296.88	73.598	2,296.88	67.1313	2,296.88	73.6315	2,296.88	61.0553	2,296.88	70.445	2,296.88	63.9656	2,296.88	67.6816	2,296.88	65.6148	2,296.88	61.9437	2,296.88	65.9355	2,296.88	67.2143	2,296.88	66.42	2,296.88	66.5639	2,296.88	61.8816	2,296.88	61.5756	2,296.88	64.349	2,296.88	59.1423	2,296.88	61.9354
2,378.91	84.3169	2,378.91	84.5086	2,378.91	83.3329	2,378.91	85.0311	2,378.91	83.1825	2,378.91	84.2003	2,378.91	84.0736	2,378.91	82.3378	2,378.91	83.302	2,378.91	79.9786	2,378.91	80.4596	2,378.91	79.2057	2,378.91	77.4932	2,378.91	76.2284	2,378.91	76.0567	2,378.91	70.8485	2,378.91	72.8429	2,378.91	65.5578	2,378.91	73.8136	2,378.91	65.2138	2,378.91	73.575	2,378.91	66.1929	2,378.91	69.8743	2,378.91	61.8775	2,378.91	65.855	2,378.91	66.5753	2,378.91	63.7644	2,378.91	65.5309	2,378.91	66.7428	2,378.91	66.2338	2,378.91	66.7892	2,378.91	63.2988	2,378.91	60.8669	2,378.91	65.8249	2,378.91	60.1443	2,378.91	64.8596
2,462.4	85.8015	2,462.4	86.0018	2,462.4	84.5366	2,462.4	84.9047	2,462.4	82.4354	2,462.4	83.9967	2,462.4	82.587	2,462.4	82.874	2,462.4	83.2133	2,462.4	80.2883	2,462.4	80.844	2,462.4	78.9841	2,462.4	78.042	2,462.4	73.7328	2,462.4	75.2657	2,462.4	74.1037	2,462.4	69.1283	2,462.4	68.6898	2,462.4	68.8002	2,462.4	66.5955	2,462.4	71.301	2,462.4	64.307	2,462.4	70.141	2,462.4	63.9732	2,462.4	63.6253	2,462.4	64.0594	2,462.4	64.5775	2,462.4	64.3703	2,462.4	66.2082	2,462.4	65.3399	2,462.4	64.8644	2,462.4	63.3252	2,462.4	59.6384	2,462.4	65.0863	2,462.4	59.7024	2,462.4	64.6615
2,548.83	86.956	2,548.83	87.215	2,548.83	86.5759	2,548.83	85.8053	2,548.83	84.5914	2,548.83	84.4476	2,548.83	81.7415	2,548.83	83.5831	2,548.83	81.9759	2,548.83	81.7233	2,548.83	79.8494	2,548.83	77.5292	2,548.83	77.2809	2,548.83	75.7665	2,548.83	72.7441	2,548.83	72.4415	2,548.83	67.9055	2,548.83	68.0859	2,548.83	62.9134	2,548.83	67.1614	2,548.83	66.2183	2,548.83	64.7894	2,548.83	65.0942	2,548.83	61.6287	2,548.83	64.7673	2,548.83	63.6927	2,548.83	62.1313	2,548.83	65.0343	2,548.83	64.301	2,548.83	63.7338	2,548.83	62.438	2,548.83	64.4185	2,548.83	58.145	2,548.83	64.7036	2,548.83	55.3996	2,548.83	62.2525
2,639.65	87.1275	2,639.65	87.3888	2,639.65	87.2804	2,639.65	87.0133	2,639.65	86.5027	2,639.65	85.6476	2,639.65	84.8905	2,639.65	84.2841	2,639.65	82.6721	2,639.65	81.9323	2,639.65	79.8938	2,639.65	77.6311	2,639.65	78.0274	2,639.65	76.3514	2,639.65	74.2303	2,639.65	74.9769	2,639.65	72.9871	2,639.65	71.2762	2,639.65	66.2304	2,639.65	66.3351	2,639.65	52.1615	2,639.65	60.5885	2,639.65	57.984	2,639.65	62.0064	2,639.65	61.2501	2,639.65	63.4536	2,639.65	61.5933	2,639.65	65.4329	2,639.65	60.2821	2,639.65	62.499	2,639.65	60.6751	2,639.65	63.7319	2,639.65	58.0932	2,639.65	64.4422	2,639.65	56.0471	2,639.65	60.321
2,731.93	86.9441	2,731.93	86.6332	2,731.93	86.7197	2,731.93	86.6246	2,731.93	86.622	2,731.93	85.2342	2,731.93	86.2393	2,731.93	82.5284	2,731.93	83.7207	2,731.93	81.8847	2,731.93	80.8067	2,731.93	78.6066	2,731.93	78.6456	2,731.93	75.4141	2,731.93	73.1752	2,731.93	71.9171	2,731.93	72.262	2,731.93	69.0891	2,731.93	67.9951	2,731.93	65.1879	2,731.93	56.4932	2,731.93	64.8245	2,731.93	61.3684	2,731.93	59.7933	2,731.93	55.3253	2,731.93	64.0722	2,731.93	63.8909	2,731.93	65.548	2,731.93	63.5465	2,731.93	60.9524	2,731.93	57.293	2,731.93	62.166	2,731.93	56.5164	2,731.93	62.1813	2,731.93	54.6707	2,731.93	55.1218
2,828.61	86.9067	2,828.61	86.3971	2,828.61	86.3393	2,828.61	85.6079	2,828.61	85.3372	2,828.61	84.5637	2,828.61	85.4265	2,828.61	82.9802	2,828.61	83.1389	2,828.61	81.0216	2,828.61	80.5512	2,828.61	79.1105	2,828.61	77.4792	2,828.61	74.2876	2,828.61	72.8737	2,828.61	70.5592	2,828.61	73.5757	2,828.61	67.1089	2,828.61	67.406	2,828.61	66.2458	2,828.61	64.8693	2,828.61	64.9144	2,828.61	65.7965	2,828.61	63.4795	2,828.61	62.3318	2,828.61	61.5456	2,828.61	63.8207	2,828.61	65.9115	2,828.61	62.5747	2,828.61	56.2749	2,828.61	52.0205	2,828.61	60.7514	2,828.61	52.913	2,828.61	58.5363	2,828.61	52.8805	2,828.61	57.593
2,928.22	86.6629	2,928.22	86.6197	2,928.22	86.2885	2,928.22	85.0997	2,928.22	85.0273	2,928.22	83.3255	2,928.22	83.3757	2,928.22	82.495	2,928.22	81.8468	2,928.22	80.0884	2,928.22	80.1415	2,928.22	77.5969	2,928.22	76.5902	2,928.22	72.8495	2,928.22	73.0525	2,928.22	70.9812	2,928.22	70.0607	2,928.22	68.1063	2,928.22	44.0767	2,928.22	61.6645	2,928.22	67.6071	2,928.22	62.1988	2,928.22	67.5796	2,928.22	60.6471	2,928.22	59.1079	2,928.22	59.9274	2,928.22	61.7319	2,928.22	63.8425	2,928.22	62.1293	2,928.22	58.4947	2,928.22	54.8645	2,928.22	58.9776	2,928.22	52.8601	2,928.22	55.8911	2,928.22	52.322	2,928.22	58.9092
3,030.76	86.2999	3,030.76	86.1605	3,030.76	86.0454	3,030.76	84.9691	3,030.76	84.5414	3,030.76	83.052	3,030.76	82.0671	3,030.76	81.6426	3,030.76	81.2897	3,030.76	79.4691	3,030.76	78.9514	3,030.76	76.0479	3,030.76	74.7598	3,030.76	74.2821	3,030.76	72.335	3,030.76	70.5631	3,030.76	62.9448	3,030.76	63.383	3,030.76	61.3387	3,030.76	60.3081	3,030.76	67.196	3,030.76	59.8791	3,030.76	64.7561	3,030.76	62.1927	3,030.76	57.404	3,030.76	54.3013	3,030.76	58.5783	3,030.76	63.4809	3,030.76	58.2748	3,030.76	58.7931	3,030.76	55.3898	3,030.76	58.8955	3,030.76	55.7908	3,030.76	58.4715	3,030.76	55.1005	3,030.76	53.4098
3,137.7	86.107	3,137.7	85.7773	3,137.7	85.9614	3,137.7	85.1652	3,137.7	84.8204	3,137.7	83.2549	3,137.7	82.4808	3,137.7	81.4767	3,137.7	80.9297	3,137.7	79.9949	3,137.7	78.7134	3,137.7	76.4746	3,137.7	72.6733	3,137.7	73.9989	3,137.7	70.9845	3,137.7	69.4427	3,137.7	61.7123	3,137.7	62.4172	3,137.7	64.5967	3,137.7	65.194	3,137.7	65.1227	3,137.7	55.5084	3,137.7	61.3207	3,137.7	62.5964	3,137.7	49.3603	3,137.7	56.7218	3,137.7	56.703	3,137.7	62.2838	3,137.7	60.2526	3,137.7	61.4742	3,137.7	59.066	3,137.7	56.1657	3,137.7	58.4006	3,137.7	61.0822	3,137.7	57.939	3,137.7	60.5873
3,249.02	85.935	3,249.02	85.4134	3,249.02	86.1573	3,249.02	84.8246	3,249.02	85.2328	3,249.02	84.383	3,249.02	83.4701	3,249.02	82.4228	3,249.02	81.2794	3,249.02	80.6321	3,249.02	78.3567	3,249.02	76.1108	3,249.02	74.7827	3,249.02	72.0405	3,249.02	72.916	3,249.02	69.9913	3,249.02	69.0399	3,249.02	68.4817	3,249.02	67.2962	3,249.02	62.1735	3,249.02	58.3714	3,249.02	61.9918	3,249.02	58.3782	3,249.02	49.4953	3,249.02	49.7268	3,249.02	62.417	3,249.02	51.0528	3,249.02	57.9494	3,249.02	57.9273	3,249.02	63.0973	3,249.02	62.1163	3,249.02	56.1228	3,249.02	51.682	3,249.02	58.0521	3,249.02	52.3932	3,249.02	63.2363
3,363.28	86.1492	3,363.28	85.0704	3,363.28	86.0404	3,363.28	84.2322	3,363.28	84.8545	3,363.28	83.9712	3,363.28	83.5862	3,363.28	82.0773	3,363.28	81.5077	3,363.28	79.6424	3,363.28	77.5005	3,363.28	76.946	3,363.28	76.5834	3,363.28	73.8179	3,363.28	75.1639	3,363.28	72.1653	3,363.28	71.1472	3,363.28	66.8205	3,363.28	68.981	3,363.28	60.7922	3,363.28	58.0571	3,363.28	59.8945	3,363.28	53.946	3,363.28	62.714	3,363.28	58.6202	3,363.28	59.8638	3,363.28	55.0298	3,363.28	60.2054	3,363.28	54.2538	3,363.28	60.1605	3,363.28	60.7688	3,363.28	58.001	3,363.28	47.2352	3,363.28	51.0879	3,363.28	48.965	3,363.28	61.548
3,481.93	86.3608	3,481.93	86.259	3,481.93	86.1199	3,481.93	85.4378	3,481.93	85.0702	3,481.93	83.1785	3,481.93	82.4957	3,481.93	82.1975	3,481.93	80.0168	3,481.93	79.93	3,481.93	77.0456	3,481.93	77.178	3,481.93	76.9756	3,481.93	75.8974	3,481.93	74.9509	3,481.93	70.4969	3,481.93	73.904	3,481.93	66.9173	3,481.93	67.5906	3,481.93	64.0266	3,481.93	55.791	3,481.93	61.6368	3,481.93	61.958	3,481.93	62.5012	3,481.93	60.4304	3,481.93	60.1956	3,481.93	58.0542	3,481.93	62.6819	3,481.93	58.2205	3,481.93	60.5275	3,481.93	58.0723	3,481.93	59.02	3,481.93	43.3545	3,481.93	58.329	3,481.93	44.4498	3,481.93	59.5868
3,604.98	86.1027	3,604.98	86.0557	3,604.98	85.5154	3,604.98	85.8331	3,604.98	84.7322	3,604.98	83.6959	3,604.98	82.779	3,604.98	81.9011	3,604.98	78.6677	3,604.98	80.6981	3,604.98	77.1346	3,604.98	78.1595	3,604.98	77.1331	3,604.98	75.294	3,604.98	74.0309	3,604.98	71.9089	3,604.98	72.5803	3,604.98	68.6761	3,604.98	59.1762	3,604.98	65.1925	3,604.98	55.2391	3,604.98	64.2555	3,604.98	62.9335	3,604.98	61.4767	3,604.98	62.4021	3,604.98	62.104	3,604.98	57.9021	3,604.98	63.5521	3,604.98	59.4614	3,604.98	62.868	3,604.98	62.8683	3,604.98	60.1963	3,604.98	50.9958	3,604.98	61.8589	3,604.98	51.0478	3,604.98	62.2067
3,732.42	86.2288	3,732.42	85.5325	3,732.42	85.8051	3,732.42	84.5167	3,732.42	83.0397	3,732.42	82.9978	3,732.42	81.3447	3,732.42	81.206	3,732.42	77.7938	3,732.42	80.8291	3,732.42	76.4378	3,732.42	78.0289	3,732.42	76.9712	3,732.42	75.8652	3,732.42	72.8586	3,732.42	73.2956	3,732.42	67.1197	3,732.42	68.453	3,732.42	58.0015	3,732.42	66.7784	3,732.42	43.9453	3,732.42	63.3438	3,732.42	59.846	3,732.42	63.4577	3,732.42	60.7002	3,732.42	59.8899	3,732.42	52.1521	3,732.42	65.6996	3,732.42	58.2756	3,732.42	63.408	3,732.42	62.1903	3,732.42	62.3533	3,732.42	56.2441	3,732.42	62.1985	3,732.42	56.3254	3,732.42	64.1963
3,864.26	86.44	3,864.26	85.9448	3,864.26	86.6164	3,864.26	84.3636	3,864.26	84.557	3,864.26	82.6153	3,864.26	79.5632	3,864.26	82.2272	3,864.26	76.6652	3,864.26	81.2082	3,864.26	75.6385	3,864.26	78.7594	3,864.26	73.9244	3,864.26	77.2386	3,864.26	72.9893	3,864.26	72.4981	3,864.26	67.67	3,864.26	69.2432	3,864.26	65.0504	3,864.26	64.9466	3,864.26	47.0235	3,864.26	62.8427	3,864.26	50.8979	3,864.26	64.8002	3,864.26	60.1194	3,864.26	61.1751	3,864.26	59.2453	3,864.26	66.6039	3,864.26	58.2254	3,864.26	64.0768	3,864.26	62.3096	3,864.26	63.9678	3,864.26	58.1726	3,864.26	63.9415	3,864.26	53.2783	3,864.26	64.0773
4,000.49	86.237	4,000.49	85.8436	4,000.49	85.696	4,000.49	84.4488	4,000.49	85.0539	4,000.49	81.6136	4,000.49	82.3076	4,000.49	81.3044	4,000.49	76.3575	4,000.49	80.0101	4,000.49	77.2362	4,000.49	78.6148	4,000.49	75.0932	4,000.49	76.3489	4,000.49	71.6989	4,000.49	72.248	4,000.49	66.7312	4,000.49	70.6781	4,000.49	63.276	4,000.49	64.6111	4,000.49	59.6758	4,000.49	64.058	4,000.49	57.9611	4,000.49	64.9222	4,000.49	59.333	4,000.49	63.1482	4,000.49	55.3679	4,000.49	66.7564	4,000.49	61.5328	4,000.49	64.0757	4,000.49	60.3262	4,000.49	63.2445	4,000.49	58.1133	4,000.49	63.9184	4,000.49	50.2714	4,000.49	64.5579
4,141.11	87.6637	4,141.11	87.3128	4,141.11	86.7236	4,141.11	84.8199	4,141.11	84.7678	4,141.11	82.7091	4,141.11	83.1317	4,141.11	80.2091	4,141.11	78.4432	4,141.11	80.0755	4,141.11	77.4263	4,141.11	76.8409	4,141.11	75.8802	4,141.11	74.9921	4,141.11	68.3257	4,141.11	74.1518	4,141.11	67.7443	4,141.11	68.7382	4,141.11	67.8972	4,141.11	65.954	4,141.11	63.8617	4,141.11	64.522	4,141.11	63.1843	4,141.11	64.2586	4,141.11	59.5758	4,141.11	63.1035	4,141.11	47.7741	4,141.11	65.9625	4,141.11	62.6531	4,141.11	63.8446	4,141.11	61.1618	4,141.11	65.103	4,141.11	59.1597	4,141.11	64.2878	4,141.11	56.7791	4,141.11	64.7023
4,287.6	88.6597	4,287.6	88.5897	4,287.6	88.2404	4,287.6	85.2801	4,287.6	86.4605	4,287.6	82.1536	4,287.6	83.4962	4,287.6	79.3561	4,287.6	80.9572	4,287.6	78.2355	4,287.6	78.2567	4,287.6	75.5788	4,287.6	74.8433	4,287.6	75.0849	4,287.6	70.3299	4,287.6	69.4094	4,287.6	69.1279	4,287.6	68.6662	4,287.6	69.8275	4,287.6	64.2037	4,287.6	59.1801	4,287.6	62.2939	4,287.6	62.6779	4,287.6	60.9322	4,287.6	55.9661	4,287.6	62.3769	4,287.6	56.6957	4,287.6	63.0947	4,287.6	60.8515	4,287.6	63.4994	4,287.6	59.7928	4,287.6	65.091	4,287.6	58.8649	4,287.6	64.1366	4,287.6	55.533	4,287.6	63.1865
4,438.48	89.7462	4,438.48	88.5161	4,438.48	89.3449	4,438.48	87.4982	4,438.48	88.1369	4,438.48	84.158	4,438.48	84.6479	4,438.48	81.0218	4,438.48	82.642	4,438.48	76.7189	4,438.48	78.3841	4,438.48	75.9295	4,438.48	68.4256	4,438.48	72.954	4,438.48	71.9944	4,438.48	71.2185	4,438.48	72.1363	4,438.48	68.6471	4,438.48	67.9456	4,438.48	62.9882	4,438.48	59.9172	4,438.48	60.729	4,438.48	56.5131	4,438.48	60.8587	4,438.48	49.7983	4,438.48	62.1373	4,438.48	55.9861	4,438.48	60.9388	4,438.48	55.1494	4,438.48	62.7219	4,438.48	52.8904	4,438.48	60.0197	4,438.48	53.8227	4,438.48	62.5862	4,438.48	51.4984	4,438.48	61.202
4,595.21	89.9489	4,595.21	88.9051	4,595.21	89.87	4,595.21	86.8127	4,595.21	88.7718	4,595.21	84.9872	4,595.21	86.2924	4,595.21	80.2887	4,595.21	84.3242	4,595.21	77.8641	4,595.21	78.5279	4,595.21	72.1915	4,595.21	72.13	4,595.21	71.7451	4,595.21	71.2012	4,595.21	69.4308	4,595.21	69.919	4,595.21	61.3865	4,595.21	61.3778	4,595.21	59.9	4,595.21	61.4087	4,595.21	55.1935	4,595.21	52.4995	4,595.21	59.7065	4,595.21	44.7308	4,595.21	57.5117	4,595.21	52.4457	4,595.21	59.0328	4,595.21	53.8941	4,595.21	55.3768	4,595.21	52.0462	4,595.21	52.987	4,595.21	45.1053	4,595.21	59.2322	4,595.21	47.2812	4,595.21	57.2847
4,756.35	89.0248	4,756.35	88.7503	4,756.35	87.9008	4,756.35	87.2641	4,756.35	87.9762	4,756.35	83.0327	4,756.35	85.6493	4,756.35	80.7105	4,756.35	84.0788	4,756.35	78.1601	4,756.35	77.9693	4,756.35	75.2658	4,756.35	77.1354	4,756.35	71.4541	4,756.35	74.1696	4,756.35	65.9286	4,756.35	68.6759	4,756.35	63.9541	4,756.35	55.6953	4,756.35	56.4703	4,756.35	58.7206	4,756.35	61.4897	4,756.35	59.6736	4,756.35	32.0405	4,756.35	49.5839	4,756.35	54.2414	4,756.35	50.5285	4,756.35	57.3979	4,756.35	57.0905	4,756.35	56.3037	4,756.35	52.2051	4,756.35	59.4069	4,756.35	47.3249	4,756.35	58.1746	4,756.35	54.1226	4,756.35	46.6036
4,924.8	86.8075	4,924.8	85.5066	4,924.8	85.5245	4,924.8	84.2442	4,924.8	84.1326	4,924.8	82.1968	4,924.8	83.7024	4,924.8	80.622	4,924.8	82.2803	4,924.8	78.9975	4,924.8	75.9907	4,924.8	76.6571	4,924.8	80.1956	4,924.8	74.6978	4,924.8	76.0263	4,924.8	72.1462	4,924.8	71.3283	4,924.8	65.8761	4,924.8	66.3732	4,924.8	65.3706	4,924.8	43.9029	4,924.8	39.5163	4,924.8	58.051	4,924.8	61.2126	4,924.8	57.6859	4,924.8	60.6883	4,924.8	56.446	4,924.8	61.1462	4,924.8	62.0981	4,924.8	60.6516	4,924.8	59.9483	4,924.8	63.0672	4,924.8	51.8787	4,924.8	64.0861	4,924.8	60.2267	4,924.8	60.3682
5,097.66	85.386	5,097.66	84.953	5,097.66	84.942	5,097.66	84.0322	5,097.66	84.3779	5,097.66	82.254	5,097.66	82.8214	5,097.66	79.2551	5,097.66	79.5709	5,097.66	79.4042	5,097.66	75.6319	5,097.66	76.6583	5,097.66	80.2122	5,097.66	76.4088	5,097.66	75.1179	5,097.66	70.0348	5,097.66	71.0514	5,097.66	69.6027	5,097.66	66.6923	5,097.66	59.6508	5,097.66	57.1904	5,097.66	63.4936	5,097.66	60.1273	5,097.66	63.8346	5,097.66	65.0138	5,097.66	56.6929	5,097.66	56.1942	5,097.66	60.9045	5,097.66	61.0615	5,097.66	63.0544	5,097.66	63.2944	5,097.66	64.8914	5,097.66	55.1091	5,097.66	63.7573	5,097.66	62.1103	5,097.66	62.4629
5,277.83	86.0511	5,277.83	85.9855	5,277.83	85.5971	5,277.83	85.0868	5,277.83	84.3275	5,277.83	80.7338	5,277.83	84.4064	5,277.83	79.945	5,277.83	77.7912	5,277.83	78.7819	5,277.83	78.4844	5,277.83	77.3551	5,277.83	78.7611	5,277.83	73.8122	5,277.83	73.7522	5,277.83	73.1571	5,277.83	69.7284	5,277.83	68.3857	5,277.83	69.407	5,277.83	63.3599	5,277.83	61.4373	5,277.83	62.279	5,277.83	60.6571	5,277.83	60.236	5,277.83	60.0342	5,277.83	60.5557	5,277.83	40.6725	5,277.83	60.2663	5,277.83	62.2469	5,277.83	62.0473	5,277.83	61.7657	5,277.83	65.1267	5,277.83	59.1196	5,277.83	61.7831	5,277.83	62.2702	5,277.83	61.3088
5,463.87	86.6321	5,463.87	87.2565	5,463.87	86.3981	5,463.87	85.2815	5,463.87	84.2236	5,463.87	83.5187	5,463.87	84.8362	5,463.87	80.0754	5,463.87	77.8092	5,463.87	78.123	5,463.87	78.5409	5,463.87	76.2412	5,463.87	75.8298	5,463.87	76.3403	5,463.87	72.8077	5,463.87	70.6775	5,463.87	71.8747	5,463.87	68.6811	5,463.87	71.6703	5,463.87	63.2451	5,463.87	65.2686	5,463.87	62.4314	5,463.87	59.9425	5,463.87	60.0061	5,463.87	54.8015	5,463.87	62.205	5,463.87	58.0131	5,463.87	58.9324	5,463.87	58.1409	5,463.87	63.0079	5,463.87	57.0512	5,463.87	64.2797	5,463.87	56.6509	5,463.87	65.0688	5,463.87	61.0072	5,463.87	56.3368
5,657.23	86.9579	5,657.23	87.0769	5,657.23	86.8626	5,657.23	86.0431	5,657.23	85.2411	5,657.23	82.8384	5,657.23	83.4965	5,657.23	79.4427	5,657.23	79.8616	5,657.23	77.6579	5,657.23	75.2618	5,657.23	76.3522	5,657.23	73.9548	5,657.23	73.349	5,657.23	72.1812	5,657.23	71.8317	5,657.23	71.6848	5,657.23	66.9412	5,657.23	70.0424	5,657.23	63.1977	5,657.23	60.4239	5,657.23	62.5821	5,657.23	56.8042	5,657.23	59.0665	5,657.23	54.0444	5,657.23	59.8011	5,657.23	59.5589	5,657.23	59.095	5,657.23	61.5765	5,657.23	62.034	5,657.23	56.0829	5,657.23	64.8577	5,657.23	36.2584	5,657.23	65.8013	5,657.23	59.7006	5,657.23	57.3533
5,856.45	87.3076	5,856.45	87.485	5,856.45	87.067	5,856.45	86.108	5,856.45	85.8126	5,856.45	83.2598	5,856.45	81.8488	5,856.45	80.3473	5,856.45	78.5267	5,856.45	76.9803	5,856.45	72.4636	5,856.45	75.3221	5,856.45	72.415	5,856.45	74.0641	5,856.45	70.762	5,856.45	69.7855	5,856.45	70.2567	5,856.45	66.5782	5,856.45	67.022	5,856.45	61.8351	5,856.45	60.3781	5,856.45	58.3895	5,856.45	55.6646	5,856.45	59.8529	5,856.45	49.9988	5,856.45	58.7519	5,856.45	55.6406	5,856.45	56.0717	5,856.45	60.7924	5,856.45	58.5283	5,856.45	60.4577	5,856.45	60.9154	5,856.45	50.6319	5,856.45	61.8723	5,856.45	59.8008	5,856.45	56.9771
6,062.99	88.2199	6,062.99	87.7105	6,062.99	87.369	6,062.99	86.9515	6,062.99	85.2999	6,062.99	83.5876	6,062.99	81.664	6,062.99	80.3496	6,062.99	78.4767	6,062.99	77.5532	6,062.99	71.454	6,062.99	75.4218	6,062.99	70.8319	6,062.99	72.9803	6,062.99	70.7022	6,062.99	70.3429	6,062.99	70.8568	6,062.99	66.5855	6,062.99	67.4078	6,062.99	61.7409	6,062.99	63.8454	6,062.99	60.4781	6,062.99	59.3785	6,062.99	58.2233	6,062.99	48.8141	6,062.99	53.5234	6,062.99	56.7045	6,062.99	49.9648	6,062.99	58.111	6,062.99	57.1219	6,062.99	59.8289	6,062.99	62.385	6,062.99	55.9439	6,062.99	63.0518	6,062.99	56.2856	6,062.99	52.4487
6,276.86	87.7447	6,276.86	87.5359	6,276.86	88.3462	6,276.86	85.9445	6,276.86	85.5814	6,276.86	83.7173	6,276.86	81.4643	6,276.86	80.1604	6,276.86	80.6187	6,276.86	77.719	6,276.86	72.7929	6,276.86	75.8993	6,276.86	71.5444	6,276.86	74.3063	6,276.86	70.8648	6,276.86	69.8913	6,276.86	70.2214	6,276.86	66.8299	6,276.86	67.7701	6,276.86	61.6834	6,276.86	65.5844	6,276.86	55.6954	6,276.86	57.7421	6,276.86	60.2135	6,276.86	51.6952	6,276.86	58.6884	6,276.86	44.1374	6,276.86	55.0416	6,276.86	59.9417	6,276.86	58.4456	6,276.86	53.581	6,276.86	58.9124	6,276.86	51.0626	6,276.86	61.1129	6,276.86	55.4008	6,276.86	55.2887
6,498.05	87.1784	6,498.05	86.5269	6,498.05	87.024	6,498.05	85.8019	6,498.05	85.4325	6,498.05	82.7338	6,498.05	82.3677	6,498.05	80.3423	6,498.05	80.2738	6,498.05	77.1348	6,498.05	75.7629	6,498.05	76.6286	6,498.05	73.6355	6,498.05	74.1064	6,498.05	74.2389	6,498.05	71.6426	6,498.05	68.9398	6,498.05	67.8722	6,498.05	63.2037	6,498.05	63.6191	6,498.05	63.3787	6,498.05	60.7229	6,498.05	55.2288	6,498.05	60.882	6,498.05	48.7825	6,498.05	59.2513	6,498.05	55.257	6,498.05	56.4777	6,498.05	55.2663	6,498.05	59.6081	6,498.05	56.1559	6,498.05	60.0545	6,498.05	31.9502	6,498.05	62.0546	6,498.05	58.619	6,498.05	52.7619
6,726.56	88.4676	6,726.56	87.3445	6,726.56	87.7059	6,726.56	85.8423	6,726.56	86.1757	6,726.56	82.5462	6,726.56	81.8863	6,726.56	79.1065	6,726.56	80.2539	6,726.56	77.4067	6,726.56	75.2693	6,726.56	75.9545	6,726.56	75.6512	6,726.56	74.7887	6,726.56	74.8475	6,726.56	71.2438	6,726.56	65.9243	6,726.56	68.6107	6,726.56	70.7309	6,726.56	61.1362	6,726.56	66.7567	6,726.56	59.6835	6,726.56	62.7881	6,726.56	59.5079	6,726.56	55.5016	6,726.56	57.4468	6,726.56	60.3213	6,726.56	48.2048	6,726.56	60.2078	6,726.56	60.1472	6,726.56	53.8145	6,726.56	61.3804	6,726.56	27.7493	6,726.56	63.0641	6,726.56	62.4769	6,726.56	53.9752
6,963.87	88.8364	6,963.87	87.6805	6,963.87	88.5227	6,963.87	85.9891	6,963.87	86.2599	6,963.87	82.9015	6,963.87	81.4297	6,963.87	79.6299	6,963.87	80.7667	6,963.87	76.456	6,963.87	73.9627	6,963.87	75.6956	6,963.87	75.4873	6,963.87	74.1422	6,963.87	68.6961	6,963.87	70.8249	6,963.87	69.0661	6,963.87	65.506	6,963.87	69.5106	6,963.87	63.6316	6,963.87	66.0253	6,963.87	59.254	6,963.87	65.3365	6,963.87	60.6264	6,963.87	55.4961	6,963.87	59.7294	6,963.87	49.5573	6,963.87	51.8129	6,963.87	52.3408	6,963.87	58.5065	6,963.87	52.9568	6,963.87	59.6163	6,963.87	52.6941	6,963.87	61.3854	6,963.87	61.0174	6,963.87	54.1522
7,209.96	89.2109	7,209.96	87.9977	7,209.96	87.6187	7,209.96	86.1268	7,209.96	85.1645	7,209.96	82.7995	7,209.96	81.9042	7,209.96	79.561	7,209.96	80.824	7,209.96	77.5052	7,209.96	74.7845	7,209.96	75.5676	7,209.96	74.7914	7,209.96	74.1623	7,209.96	67.9763	7,209.96	70.7775	7,209.96	70.0625	7,209.96	67.9201	7,209.96	66.6385	7,209.96	61.9831	7,209.96	70.2591	7,209.96	55.9092	7,209.96	60.1943	7,209.96	61.068	7,209.96	51.4821	7,209.96	61.9688	7,209.96	54.8695	7,209.96	45.1566	7,209.96	54.5552	7,209.96	54.5343	7,209.96	55.6476	7,209.96	56.7104	7,209.96	57.954	7,209.96	62.1423	7,209.96	60.4907	7,209.96	53.4871
7,464.84	89.0764	7,464.84	87.89	7,464.84	87.0518	7,464.84	85.8401	7,464.84	83.7613	7,464.84	83.0072	7,464.84	81.9293	7,464.84	79.9963	7,464.84	79.1745	7,464.84	77.2166	7,464.84	75.9344	7,464.84	75.7278	7,464.84	72.3722	7,464.84	73.5669	7,464.84	74.9055	7,464.84	68.8451	7,464.84	73.0437	7,464.84	63.7461	7,464.84	70.5677	7,464.84	59.116	7,464.84	69.6819	7,464.84	56.6126	7,464.84	59.6904	7,464.84	60.4795	7,464.84	48.9852	7,464.84	54.0821	7,464.84	54.0068	7,464.84	51.9086	7,464.84	57.7469	7,464.84	39.4242	7,464.84	54.9909	7,464.84	58.9571	7,464.84	55.5721	7,464.84	60.8554	7,464.84	59.7791	7,464.84	52.0816
7,727.05	88.3736	7,727.05	87.0677	7,727.05	86.3542	7,727.05	85.6219	7,727.05	84.3711	7,727.05	82.9512	7,727.05	82.4673	7,727.05	80.3187	7,727.05	78.3455	7,727.05	77.2166	7,727.05	77.0015	7,727.05	75.4509	7,727.05	67.5845	7,727.05	72.5048	7,727.05	76.2552	7,727.05	70.163	7,727.05	70.4814	7,727.05	65.8647	7,727.05	70.4877	7,727.05	60.2217	7,727.05	68.4624	7,727.05	57.9521	7,727.05	63.9373	7,727.05	58.5168	7,727.05	56.0439	7,727.05	54.9886	7,727.05	51.6194	7,727.05	52.5436	7,727.05	61.2016	7,727.05	42.3988	7,727.05	58.8968	7,727.05	54.04	7,727.05	52.533	7,727.05	59.4847	7,727.05	61.3791	7,727.05	54.5936
7,999.51	87.994	7,999.51	87.0793	7,999.51	86.8913	7,999.51	84.8859	7,999.51	84.5973	7,999.51	83.3964	7,999.51	82.6664	7,999.51	80.004	7,999.51	79.0821	7,999.51	77.5658	7,999.51	76.5628	7,999.51	74.3257	7,999.51	72.086	7,999.51	72.6384	7,999.51	73.8039	7,999.51	69.0634	7,999.51	62.8806	7,999.51	64.635	7,999.51	64.757	7,999.51	60.2726	7,999.51	66.5644	7,999.51	57.2346	7,999.51	62.1347	7,999.51	58.4619	7,999.51	56.0698	7,999.51	51.6464	7,999.51	39.0293	7,999.51	52.6209	7,999.51	55.7799	7,999.51	43.5316	7,999.51	59.2813	7,999.51	58.1545	7,999.51	57.4258	7,999.51	59.5052	7,999.51	59.6011	7,999.51	51.8147
8,282.23	86.7735	8,282.23	85.7593	8,282.23	85.8488	8,282.23	84.5899	8,282.23	85.3261	8,282.23	82.7087	8,282.23	82.9329	8,282.23	80.236	8,282.23	80.3234	8,282.23	76.6492	8,282.23	74.0992	8,282.23	74.9626	8,282.23	73.7125	8,282.23	72.3879	8,282.23	62.7169	8,282.23	70.3492	8,282.23	64.753	8,282.23	63.9658	8,282.23	58.503	8,282.23	63.2287	8,282.23	65.8174	8,282.23	54.6345	8,282.23	61.8144	8,282.23	58.0819	8,282.23	54.3419	8,282.23	58.4181	8,282.23	38.138	8,282.23	55.8007	8,282.23	52.0723	8,282.23	48.6865	8,282.23	51.0046	8,282.23	52.491	8,282.23	56.6783	8,282.23	57.3367	8,282.23	56.6974	8,282.23	53.1888
8,573.73	85.297	8,573.73	84.8177	8,573.73	84.4458	8,573.73	84.3265	8,573.73	84.4929	8,573.73	83.1979	8,573.73	82.0193	8,573.73	80.4196	8,573.73	80.8701	8,573.73	75.9467	8,573.73	74.5586	8,573.73	74.6871	8,573.73	73.799	8,573.73	70.9871	8,573.73	68.3349	8,573.73	67.337	8,573.73	68.5872	8,573.73	61.5354	8,573.73	68.3577	8,573.73	58.7314	8,573.73	64.3733	8,573.73	51.2729	8,573.73	60.096	8,573.73	57.5889	8,573.73	56.6872	8,573.73	57.2921	8,573.73	42.374	8,573.73	56.3921	8,573.73	52.7725	8,573.73	44.1049	8,573.73	51.3269	8,573.73	51.9658	8,573.73	49.701	8,573.73	55.2503	8,573.73	53.6643	8,573.73	52.0754
8,876.95	83.7173	8,876.95	83.6841	8,876.95	83.9383	8,876.95	84.6509	8,876.95	83.8167	8,876.95	83.7061	8,876.95	81.77	8,876.95	80.2781	8,876.95	81.0363	8,876.95	75.9115	8,876.95	76.3038	8,876.95	73.5089	8,876.95	71.3646	8,876.95	71.1349	8,876.95	74.9073	8,876.95	67.9542	8,876.95	69.6393	8,876.95	65.0021	8,876.95	69.1726	8,876.95	57.5759	8,876.95	60.5511	8,876.95	53.5958	8,876.95	56.9481	8,876.95	56.8791	8,876.95	54.0313	8,876.95	59.5332	8,876.95	45.5222	8,876.95	58.601	8,876.95	50.4245	8,876.95	47.3137	8,876.95	54.8246	8,876.95	49.9396	8,876.95	49.7633	8,876.95	58.7543	8,876.95	57.0596	8,876.95	51.7909
9,188.96	81.6168	9,188.96	83.4881	9,188.96	82.3545	9,188.96	84.8461	9,188.96	84.7352	9,188.96	83.6709	9,188.96	83.3886	9,188.96	79.6372	9,188.96	81.0169	9,188.96	75.6123	9,188.96	77.0543	9,188.96	73.302	9,188.96	67.7188	9,188.96	72.2331	9,188.96	75.8791	9,188.96	69.3521	9,188.96	66.8106	9,188.96	65.4181	9,188.96	66.9625	9,188.96	60.0764	9,188.96	59.8539	9,188.96	54.9681	9,188.96	60.7774	9,188.96	57.1205	9,188.96	49.9802	9,188.96	58.482	9,188.96	50.3424	9,188.96	56.7828	9,188.96	47.5231	9,188.96	46.07	9,188.96	52.09	9,188.96	52.9383	9,188.96	51.7205	9,188.96	52.1525	9,188.96	56.37	9,188.96	49.4515
9,514.16	79.4236	9,514.16	82.6285	9,514.16	82.0505	9,514.16	84.943	9,514.16	85.3418	9,514.16	83.4877	9,514.16	83.8143	9,514.16	80.0379	9,514.16	80.3205	9,514.16	74.5047	9,514.16	74.5639	9,514.16	74.0658	9,514.16	71.5079	9,514.16	71.0697	9,514.16	73.4263	9,514.16	68.2473	9,514.16	70.2296	9,514.16	64.377	9,514.16	65.3652	9,514.16	57.4203	9,514.16	63.7889	9,514.16	53.8222	9,514.16	62.1566	9,514.16	58.6427	9,514.16	56.9741	9,514.16	58.5539	9,514.16	50.8455	9,514.16	56.7747	9,514.16	50.8699	9,514.16	28.0507	9,514.16	44.9264	9,514.16	51.2898	9,514.16	49.1557	9,514.16	54.5633	9,514.16	53.886	9,514.16	47.9302
9,849.61	79.0267	9,849.61	82.3243	9,849.61	81.993	9,849.61	84.7565	9,849.61	84.9109	9,849.61	83.3489	9,849.61	84.3031	9,849.61	79.524	9,849.61	78.0137	9,849.61	74.7532	9,849.61	74.8215	9,849.61	74.0875	9,849.61	72.5112	9,849.61	71.288	9,849.61	71.5088	9,849.61	69.3043	9,849.61	67.8985	9,849.61	63.2176	9,849.61	67.3312	9,849.61	60.9976	9,849.61	53.397	9,849.61	48.8252	9,849.61	57.7108	9,849.61	54.8972	9,849.61	59.5264	9,849.61	59.4599	9,849.61	54.0853	9,849.61	57.4651	9,849.61	51.0995	9,849.61	47.9676	9,849.61	36.7653	9,849.61	38.9985	9,849.61	39.4481	9,849.61	55.7458	9,849.61	52.233	9,849.61	49.9346
10,196.8	80.1169	10,196.8	82.5073	10,196.8	82.2476	10,196.8	84.7204	10,196.8	84.0293	10,196.8	82.9384	10,196.8	83.7231	10,196.8	79.3905	10,196.8	78.0017	10,196.8	74.8519	10,196.8	76.2845	10,196.8	74.107	10,196.8	72.6213	10,196.8	72.3506	10,196.8	70.3816	10,196.8	68.8992	10,196.8	69.8125	10,196.8	64.6421	10,196.8	65.9747	10,196.8	58.1418	10,196.8	62.5299	10,196.8	56.3686	10,196.8	52.6942	10,196.8	57.4335	10,196.8	54.3117	10,196.8	58.3882	10,196.8	56.5547	10,196.8	56.9747	10,196.8	48.8346	10,196.8	52.1361	10,196.8	45.5481	10,196.8	36.4057	10,196.8	52.5733	10,196.8	54.8388	10,196.8	51.9831	10,196.8	47.4964
10,555.7	82.0455	10,555.7	82.9963	10,555.7	82.1894	10,555.7	84.7228	10,555.7	83.6141	10,555.7	82.8654	10,555.7	81.3783	10,555.7	79.5703	10,555.7	80.8235	10,555.7	74.5076	10,555.7	75.8362	10,555.7	73.4242	10,555.7	70.1701	10,555.7	71.7923	10,555.7	69.6016	10,555.7	68.7564	10,555.7	69.9913	10,555.7	65.0404	10,555.7	66.9918	10,555.7	57.3333	10,555.7	61.0748	10,555.7	50.6738	10,555.7	33.0363	10,555.7	54.7558	10,555.7	58.8186	10,555.7	57.8241	10,555.7	53.5437	10,555.7	58.2768	10,555.7	40.2225	10,555.7	54.4438	10,555.7	49.7847	10,555.7	45.2497	10,555.7	51.0819	10,555.7	55.2185	10,555.7	51.6514	10,555.7	49.0692
10,927.7	84.2792	10,927.7	82.7974	10,927.7	82.5287	10,927.7	84.0322	10,927.7	82.9455	10,927.7	82.6295	10,927.7	80.4123	10,927.7	80.3551	10,927.7	81.3721	10,927.7	73.6915	10,927.7	75.1655	10,927.7	72.2397	10,927.7	66.5228	10,927.7	71.2882	10,927.7	70.9206	10,927.7	70.454	10,927.7	67.8411	10,927.7	66.2791	10,927.7	66.3652	10,927.7	62.1016	10,927.7	66.6119	10,927.7	56.1996	10,927.7	59.5013	10,927.7	58.575	10,927.7	57.0674	10,927.7	59.7864	10,927.7	46.3843	10,927.7	59.4438	10,927.7	49.4888	10,927.7	53.702	10,927.7	48.8252	10,927.7	51.7908	10,927.7	53.0885	10,927.7	58.243	10,927.7	55.2649	10,927.7	45.122
11,313	87.784	11,313	83.6417	11,313	83.745	11,313	82.0157	11,313	81.285	11,313	81.8732	11,313	81.2661	11,313	80.7682	11,313	80.522	11,313	73.7373	11,313	74.4002	11,313	71.9539	11,313	68.763	11,313	72.2906	11,313	69.2951	11,313	71.7477	11,313	69.9019	11,313	67.47	11,313	68.9299	11,313	59.0335	11,313	68.1576	11,313	56.0464	11,313	62.0096	11,313	58.9945	11,313	52.8753	11,313	60.8277	11,313	49.3548	11,313	58.941	11,313	45.3359	11,313	49.2969	11,313	49.3656	11,313	55.7959	11,313	54.6422	11,313	56.1447	11,313	55.4988	11,313	43.331
11,712.9	89.7413	11,712.9	85.3085	11,712.9	85.8254	11,712.9	79.076	11,712.9	79.5473	11,712.9	80.5095	11,712.9	80.6139	11,712.9	80.8452	11,712.9	77.6162	11,712.9	76.8697	11,712.9	76.916	11,712.9	75.2724	11,712.9	72.7523	11,712.9	73.8813	11,712.9	71.6692	11,712.9	72.0895	11,712.9	73.7548	11,712.9	68.7505	11,712.9	70.8642	11,712.9	61.7486	11,712.9	65.5159	11,712.9	55.8999	11,712.9	58.045	11,712.9	59.3876	11,712.9	49.6115	11,712.9	60.328	11,712.9	53.3103	11,712.9	57.234	11,712.9	51.4822	11,712.9	49.1833	11,712.9	54.8921	11,712.9	56.4721	11,712.9	63.1939	11,712.9	58.9669	11,712.9	58.491	11,712.9	45.8412
12,126	89.0745	12,126	85.8781	12,126	85.8796	12,126	80.9124	12,126	79.6483	12,126	79.7528	12,126	79.4512	12,126	81.5959	12,126	76.5091	12,126	79.4157	12,126	79.2517	12,126	76.8914	12,126	74.3192	12,126	73.7035	12,126	70.6576	12,126	70.2464	12,126	71.843	12,126	65.696	12,126	62.4842	12,126	60.5539	12,126	55.7866	12,126	52.3367	12,126	52.4965	12,126	54.3146	12,126	47.2093	12,126	55.6284	12,126	52.745	12,126	51.517	12,126	50.9734	12,126	46.9888	12,126	47.4676	12,126	55.8561	12,126	54.7739	12,126	51.8389	12,126	53.2083	12,126	49.1408
12,553.7	88.4172	12,553.7	86.4708	12,553.7	86.1508	12,553.7	82.6364	12,553.7	81.4999	12,553.7	81.0415	12,553.7	78.9703	12,553.7	82.0861	12,553.7	79.8803	12,553.7	79.8904	12,553.7	79.0803	12,553.7	76.7125	12,553.7	76.1214	12,553.7	72.5763	12,553.7	70.5119	12,553.7	67.5939	12,553.7	67.1898	12,553.7	62.4803	12,553.7	65.1539	12,553.7	49.55	12,553.7	61.9413	12,553.7	46.2677	12,553.7	52.9754	12,553.7	48.154	12,553.7	50.7956	12,553.7	40.0977	12,553.7	48.5637	12,553.7	41.1335	12,553.7	32.6493	12,553.7	39.6839	12,553.7	51.3174	12,553.7	49.206	12,553.7	51.4184	12,553.7	49.3559	12,553.7	52.561	12,553.7	45.321
12,996.1	87.5577	12,996.1	86.4167	12,996.1	85.9777	12,996.1	84.2843	12,996.1	82.5031	12,996.1	82.3584	12,996.1	78.7714	12,996.1	82.3437	12,996.1	81.1394	12,996.1	79.185	12,996.1	79.4434	12,996.1	76.1141	12,996.1	73.709	12,996.1	71.4215	12,996.1	69.3286	12,996.1	66.8228	12,996.1	66.9504	12,996.1	63.1532	12,996.1	64.1589	12,996.1	54.3792	12,996.1	64.394	12,996.1	48.2618	12,996.1	56.8839	12,996.1	49.8182	12,996.1	56.7555	12,996.1	48.6929	12,996.1	43.8137	12,996.1	36.1004	12,996.1	45.3356	12,996.1	38.9174	12,996.1	42.5986	12,996.1	53.5768	12,996.1	51.5742	12,996.1	38.3729	12,996.1	50.0154	12,996.1	40.4965
13,454.6	85.6896	13,454.6	85.8306	13,454.6	84.5324	13,454.6	85.1534	13,454.6	83.5213	13,454.6	82.9341	13,454.6	80.3625	13,454.6	82.6512	13,454.6	81.6914	13,454.6	78.9676	13,454.6	78.0045	13,454.6	75.3742	13,454.6	71.0645	13,454.6	69.9852	13,454.6	67.3549	13,454.6	65.8844	13,454.6	64.5851	13,454.6	61.833	13,454.6	61.0833	13,454.6	57.1632	13,454.6	66.5001	13,454.6	48.7443	13,454.6	60.4105	13,454.6	47.6205	13,454.6	59.683	13,454.6	43.3066	13,454.6	45.8562	13,454.6	43.7151	13,454.6	46.6624	13,454.6	46.6565	13,454.6	44.5864	13,454.6	51.7461	13,454.6	51.1215	13,454.6	45.5679	13,454.6	49.605	13,454.6	28.1966
13,929.2	83.7286	13,929.2	84.8646	13,929.2	83.4082	13,929.2	84.8744	13,929.2	82.8031	13,929.2	83.2404	13,929.2	82.0048	13,929.2	82.615	13,929.2	80.7237	13,929.2	78.3891	13,929.2	76.48	13,929.2	73.7711	13,929.2	70.0321	13,929.2	68.056	13,929.2	64.8679	13,929.2	64.1293	13,929.2	62.479	13,929.2	60.1923	13,929.2	63.2965	13,929.2	52.0059	13,929.2	68.4686	13,929.2	48.3898	13,929.2	62.9482	13,929.2	44.4691	13,929.2	61.1371	13,929.2	33.2078	13,929.2	28.0466	13,929.2	46.1875	13,929.2	39.1521	13,929.2	47.7697	13,929.2	40.6546	13,929.2	47.6467	13,929.2	48.1319	13,929.2	44.7853	13,929.2	48.3729	13,929.2	43.2569
14,419.9	83.0959	14,419.9	84.3626	14,419.9	82.973	14,419.9	84.8548	14,419.9	83.1549	14,419.9	83.938	14,419.9	82.9547	14,419.9	83.0205	14,419.9	80.3696	14,419.9	78.43	14,419.9	76.9852	14,419.9	74.3349	14,419.9	69.031	14,419.9	68.6365	14,419.9	68.076	14,419.9	65.5453	14,419.9	59.4326	14,419.9	59.4352	14,419.9	64.5063	14,419.9	48.5221	14,419.9	70.6822	14,419.9	50.2576	14,419.9	65.8165	14,419.9	44.4415	14,419.9	63.9416	14,419.9	39.9153	14,419.9	40.8492	14,419.9	45.9927	14,419.9	43.8489	14,419.9	44.9413	14,419.9	44.835	14,419.9	48.1259	14,419.9	51.2788	14,419.9	48.4592	14,419.9	50.1098	14,419.9	43.9576
14,928.2	82.6639	14,928.2	84.3363	14,928.2	83.0963	14,928.2	85.2083	14,928.2	82.5995	14,928.2	84.1555	14,928.2	80.8361	14,928.2	82.7279	14,928.2	80.1922	14,928.2	78.1473	14,928.2	76.3362	14,928.2	75.1067	14,928.2	72.3657	14,928.2	69.3744	14,928.2	67.0195	14,928.2	65.7503	14,928.2	66.2886	14,928.2	57.9471	14,928.2	66.327	14,928.2	52.2225	14,928.2	70.7561	14,928.2	41.6725	14,928.2	67.1009	14,928.2	39.4658	14,928.2	64.7523	14,928.2	40.3092	14,928.2	16.3157	14,928.2	45.5058	14,928.2	44.7212	14,928.2	28.2359	14,928.2	44.6386	14,928.2	48.9885	14,928.2	49.9164	14,928.2	42.8028	14,928.2	45.147	14,928.2	40.5554
15,455.6	82.7974	15,455.6	84.6943	15,455.6	83.1623	15,455.6	85.7543	15,455.6	83.6284	15,455.6	84.0411	15,455.6	80.9736	15,455.6	81.808	15,455.6	78.2373	15,455.6	77.6255	15,455.6	74.5948	15,455.6	74.9885	15,455.6	72.1286	15,455.6	69.0878	15,455.6	67.7945	15,455.6	65.193	15,455.6	60.5933	15,455.6	59.2756	15,455.6	64.0877	15,455.6	52.0573	15,455.6	70.7774	15,455.6	50.8839	15,455.6	67.2445	15,455.6	42.2464	15,455.6	63.8212	15,455.6	47.0533	15,455.6	41.5128	15,455.6	50.3884	15,455.6	44.0658	15,455.6	35.6436	15,455.6	38.2685	15,455.6	46.627	15,455.6	46.0595	15,455.6	47.1538	15,455.6	45.8016	15,455.6	44.8303
16,000.5	84.2397	16,000.5	85.2854	16,000.5	84.1935	16,000.5	86.159	16,000.5	84.6847	16,000.5	83.8775	16,000.5	81.697	16,000.5	80.7316	16,000.5	77.7928	16,000.5	76.7153	16,000.5	74.6326	16,000.5	73.6533	16,000.5	69.6663	16,000.5	67.414	16,000.5	65.1087	16,000.5	63.5567	16,000.5	62.0989	16,000.5	56.2696	16,000.5	63.6194	16,000.5	48.4642	16,000.5	70.7711	16,000.5	50.7172	16,000.5	67.7239	16,000.5	42.5729	16,000.5	64.5306	16,000.5	48.3775	16,000.5	44.2135	16,000.5	48.7187	16,000.5	41.2422	16,000.5	36.5531	16,000.5	40.6244	16,000.5	42.2221	16,000.5	48.3538	16,000.5	46.5913	16,000.5	50.6695	16,000.5	48.4527
16,564.5	85.7543	16,564.5	86.1499	16,564.5	84.5696	16,564.5	86.242	16,564.5	83.8067	16,564.5	83.5413	16,564.5	81.5976	16,564.5	80.0687	16,564.5	76.7261	16,564.5	75.7858	16,564.5	74.7742	16,564.5	72.6577	16,564.5	70.4363	16,564.5	65.3677	16,564.5	64.4306	16,564.5	60.553	16,564.5	61.6963	16,564.5	54.0478	16,564.5	62.9471	16,564.5	43.9157	16,564.5	70.1303	16,564.5	47.0264	16,564.5	67.9929	16,564.5	43.6286	16,564.5	64.9162	16,564.5	48.0206	16,564.5	39.2841	16,564.5	43.3303	16,564.5	42.8445	16,564.5	35.7876	16,564.5	41.4294	16,564.5	38.24	16,564.5	46.8027	16,564.5	40.6302	16,564.5	44.4836	16,564.5	42.8485
17,148.9	85.331	17,148.9	85.5317	17,148.9	84.1953	17,148.9	85.7582	17,148.9	84.6818	17,148.9	83.0083	17,148.9	81.967	17,148.9	80.1317	17,148.9	78.8126	17,148.9	75.6949	17,148.9	74.8279	17,148.9	70.5074	17,148.9	69.1107	17,148.9	61.5983	17,148.9	62.5135	17,148.9	58.4401	17,148.9	58.984	17,148.9	52.6319	17,148.9	63.4741	17,148.9	43.378	17,148.9	71.0759	17,148.9	47.9724	17,148.9	69.184	17,148.9	41.1486	17,148.9	65.1662	17,148.9	47.4984	17,148.9	39.5635	17,148.9	36.7697	17,148.9	39.6943	17,148.9	34.3516	17,148.9	41.7723	17,148.9	40.1004	17,148.9	40.1054	17,148.9	30.2289	17,148.9	48.6574	17,148.9	43.8325
17,752.4	86.0497	17,752.4	86.342	17,752.4	85.3696	17,752.4	85.5585	17,752.4	84.0241	17,752.4	82.5018	17,752.4	80.5636	17,752.4	80.1404	17,752.4	78.9754	17,752.4	73.2994	17,752.4	74.0119	17,752.4	64.8371	17,752.4	68.1778	17,752.4	52.9807	17,752.4	61.335	17,752.4	56.5589	17,752.4	60.6431	17,752.4	47.3584	17,752.4	61.5512	17,752.4	44.5982	17,752.4	70.916	17,752.4	40.9544	17,752.4	69.0394	17,752.4	41.2533	17,752.4	65.4834	17,752.4	47.902	17,752.4	45.2405	17,752.4	36.334	17,752.4	39.1578	17,752.4	40.4242	17,752.4	39.3115	17,752.4	45.5096	17,752.4	35.9907	17,752.4	43.2845	17,752.4	44.1724	17,752.4	42.7791
18,379.4	85.224	18,379.4	85.8987	18,379.4	85.4567	18,379.4	85.1157	18,379.4	84.0425	18,379.4	82.4471	18,379.4	81.8563	18,379.4	79.0411	18,379.4	79.4324	18,379.4	69.3624	18,379.4	71.8191	18,379.4	63.4921	18,379.4	65.9209	18,379.4	60.4596	18,379.4	62.8099	18,379.4	59.68	18,379.4	59.877	18,379.4	51.9074	18,379.4	61.7921	18,379.4	42.7276	18,379.4	70.6572	18,379.4	44.6326	18,379.4	69.0943	18,379.4	35.146	18,379.4	66.6212	18,379.4	46.9434	18,379.4	39.601	18,379.4	43.2878	18,379.4	46.3872	18,379.4	38.2711	18,379.4	43.4203	18,379.4	41.2569	18,379.4	42.6904	18,379.4	42.1917	18,379.4	36.139	18,379.4	39.6482
19,026.9	85.6423	19,026.9	85.6312	19,026.9	85.1364	19,026.9	84.9809	19,026.9	83.1951	19,026.9	82.4557	19,026.9	82.6964	19,026.9	76.5715	19,026.9	78.2391	19,026.9	67.4144	19,026.9	71.2669	19,026.9	66.2545	19,026.9	67.6284	19,026.9	61.8885	19,026.9	64.7109	19,026.9	60.6812	19,026.9	60.0378	19,026.9	51.4024	19,026.9	60.8612	19,026.9	45.2832	19,026.9	70.7685	19,026.9	48.1737	19,026.9	69.349	19,026.9	41.2933	19,026.9	66.6703	19,026.9	42.9323	19,026.9	43.3838	19,026.9	42.8634	19,026.9	39.7593	19,026.9	41.7296	19,026.9	38.2901	19,026.9	46.66	19,026.9	44.9117	19,026.9	46.1933	19,026.9	32.9437	19,026.9	41.4172
19,697.8	86.0823	19,697.8	85.0472	19,697.8	84.7951	19,697.8	84.9123	19,697.8	84.275	19,697.8	81.3915	19,697.8	82.5196	19,697.8	75.0328	19,697.8	76.5915	19,697.8	68.1659	19,697.8	70.4776	19,697.8	66.3713	19,697.8	67.8838	19,697.8	61.9384	19,697.8	64.4855	19,697.8	62.3811	19,697.8	57.1159	19,697.8	53.9106	19,697.8	59.2107	19,697.8	47.7267	19,697.8	69.8915	19,697.8	51.9221	19,697.8	69.4318	19,697.8	44.8015	19,697.8	66.6399	19,697.8	42.9048	19,697.8	41.8944	19,697.8	44.1288	19,697.8	37.9806	19,697.8	39.4104	19,697.8	39.4433	19,697.8	49.4041	19,697.8	40.4802	19,697.8	47.8941	19,697.8	42.4733	19,697.8	32.1437
19,999.5	86.2441	19,999.5	84.8089	19,999.5	84.8411	19,999.5	84.6936	19,999.5	85.0584	19,999.5	80.7725	19,999.5	82.2122	19,999.5	74.4858	19,999.5	76.5182	19,999.5	67.9486	19,999.5	72.5385	19,999.5	65.7666	19,999.5	67.5311	19,999.5	62.9385	19,999.5	63.5624	19,999.5	61.7132	19,999.5	59.4124	19,999.5	54.9597	19,999.5	59.4494	19,999.5	51.8288	19,999.5	70.307	19,999.5	42.7234	19,999.5	69.6921	19,999.5	45.106	19,999.5	65.8334	19,999.5	42.0828	19,999.5	39.0795	19,999.5	55.5305	19,999.5	44.9258	19,999.5	49.0736	19,999.5	44.0076	19,999.5	52.3788	19,999.5	28.4778	19,999.5	43.3276	19,999.5	35.8979	19,999.5	49.856
