"SPL Horizontal"
"On-Axis"		"10°"		"-10°"		"20°"		"-20°"		"30°"		"-30°"		"40°"		"-40°"		"50°"		"-50°"		"60°"		"-60°"		"70°"		"-70°"		"80°"		"-80°"		"90°"		"-90°"		"100°"		"-100°"		"110°"		"-110°"		"120°"		"-120°"		"130°"		"-130°"		"140°"		"-140°"		"150°"		"-150°"		"160°"		"-160°"		"170°"		"-170°"		"180°"
"Frequency / Hz"	"Sound Pressure Level / dB (re 20 µPa/V)  [2.83  V @ 1. m]"	"Frequency / Hz"	"Sound Pressure Level / dB (re 20 µPa/V)  [2.83  V @ 1. m]"	"Frequency / Hz"	"Sound Pressure Level / dB (re 20 µPa/V)  [2.83  V @ 1. m]"	"Frequency / Hz"	"Sound Pressure Level / dB (re 20 µPa/V)  [2.83  V @ 1. m]"	"Frequency / Hz"	"Sound Pressure Level / dB (re 20 µPa/V)  [2.83  V @ 1. m]"	"Frequency / Hz"	"Sound Pressure Level / dB (re 20 µPa/V)  [2.83  V @ 1. m]"	"Frequency / Hz"	"Sound Pressure Level / dB (re 20 µPa/V)  [2.83  V @ 1. m]"	"Frequency / Hz"	"Sound Pressure Level / dB (re 20 µPa/V)  [2.83  V @ 1. m]"	"Frequency / Hz"	"Sound Pressure Level / dB (re 20 µPa/V)  [2.83  V @ 1. m]"	"Frequency / Hz"	"Sound Pressure Level / dB (re 20 µPa/V)  [2.83  V @ 1. m]"	"Frequency / Hz"	"Sound Pressure Level / dB (re 20 µPa/V)  [2.83  V @ 1. m]"	"Frequency / Hz"	"Sound Pressure Level / dB (re 20 µPa/V)  [2.83  V @ 1. m]"	"Frequency / Hz"	"Sound Pressure Level / dB (re 20 µPa/V)  [2.83  V @ 1. m]"	"Frequency / Hz"	"Sound Pressure Level / dB (re 20 µPa/V)  [2.83  V @ 1. m]"	"Frequency / Hz"	"Sound Pressure Level / dB (re 20 µPa/V)  [2.83  V @ 1. m]"	"Frequency / Hz"	"Sound Pressure Level / dB (re 20 µPa/V)  [2.83  V @ 1. m]"	"Frequency / Hz"	"Sound Pressure Level / dB (re 20 µPa/V)  [2.83  V @ 1. m]"	"Frequency / Hz"	"Sound Pressure Level / dB (re 20 µPa/V)  [2.83  V @ 1. m]"	"Frequency / Hz"	"Sound Pressure Level / dB (re 20 µPa/V)  [2.83  V @ 1. m]"	"Frequency / Hz"	"Sound Pressure Level / dB (re 20 µPa/V)  [2.83  V @ 1. m]"	"Frequency / Hz"	"Sound Pressure Level / dB (re 20 µPa/V)  [2.83  V @ 1. m]"	"Frequency / Hz"	"Sound Pressure Level / dB (re 20 µPa/V)  [2.83  V @ 1. m]"	"Frequency / Hz"	"Sound Pressure Level / dB (re 20 µPa/V)  [2.83  V @ 1. m]"	"Frequency / Hz"	"Sound Pressure Level / dB (re 20 µPa/V)  [2.83  V @ 1. m]"	"Frequency / Hz"	"Sound Pressure Level / dB (re 20 µPa/V)  [2.83  V @ 1. m]"	"Frequency / Hz"	"Sound Pressure Level / dB (re 20 µPa/V)  [2.83  V @ 1. m]"	"Frequency / Hz"	"Sound Pressure Level / dB (re 20 µPa/V)  [2.83  V @ 1. m]"	"Frequency / Hz"	"Sound Pressure Level / dB (re 20 µPa/V)  [2.83  V @ 1. m]"	"Frequency / Hz"	"Sound Pressure Level / dB (re 20 µPa/V)  [2.83  V @ 1. m]"	"Frequency / Hz"	"Sound Pressure Level / dB (re 20 µPa/V)  [2.83  V @ 1. m]"	"Frequency / Hz"	"Sound Pressure Level / dB (re 20 µPa/V)  [2.83  V @ 1. m]"	"Frequency / Hz"	"Sound Pressure Level / dB (re 20 µPa/V)  [2.83  V @ 1. m]"	"Frequency / Hz"	"Sound Pressure Level / dB (re 20 µPa/V)  [2.83  V @ 1. m]"	"Frequency / Hz"	"Sound Pressure Level / dB (re 20 µPa/V)  [2.83  V @ 1. m]"	"Frequency / Hz"	"Sound Pressure Level / dB (re 20 µPa/V)  [2.83  V @ 1. m]"	"Frequency / Hz"	"Sound Pressure Level / dB (re 20 µPa/V)  [2.83  V @ 1. m]"
20.5078	41.8751	20.5078	41.9583	20.5078	41.6925	20.5078	41.8537	20.5078	41.5559	20.5078	41.5194	20.5078	41.6539	20.5078	40.9674	20.5078	42.1399	20.5078	40.3172	20.5078	43.0251	20.5078	39.9033	20.5078	44.1799	20.5078	40.244	20.5078	45.4408	20.5078	41.5383	20.5078	46.6905	20.5078	43.3824	20.5078	47.8663	20.5078	45.2973	20.5078	48.9411	20.5078	47.0438	20.5078	49.9042	20.5078	48.5492	20.5078	50.7499	20.5078	49.8075	20.5078	51.4717	20.5078	50.8324	20.5078	52.0609	20.5078	51.6407	20.5078	52.5072	20.5078	52.2456	20.5078	52.7994	20.5078	52.6572	20.5078	52.9274	20.5078	52.8823
21.9727	46.1714	21.9727	46.0731	21.9727	46.0856	21.9727	45.7647	21.9727	45.8495	21.9727	45.2282	21.9727	45.512	21.9727	44.4656	21.9727	45.1494	21.9727	43.5405	21.9727	44.8776	21.9727	42.676	21.9727	44.8439	21.9727	42.3489	21.9727	45.1739	21.9727	43.0108	21.9727	45.8923	21.9727	44.5031	21.9727	46.9054	21.9727	46.2862	21.9727	48.0672	21.9727	47.9967	21.9727	49.2487	21.9727	49.4977	21.9727	50.362	21.9727	50.7579	21.9727	51.3527	21.9727	51.7798	21.9727	52.188	21.9727	52.5732	21.9727	52.847	21.9727	53.146	21.9727	53.3158	21.9727	53.5036	21.9727	53.5852	21.9727	53.6491
23.4375	45.9444	23.4375	45.8371	23.4375	45.8543	23.4375	45.5169	23.4375	45.5963	23.4375	44.9848	23.4375	45.2251	23.4375	44.2827	23.4375	44.843	23.4375	43.5546	23.4375	44.6201	23.4375	43.1303	23.4375	44.767	23.4375	43.4445	23.4375	45.4131	23.4375	44.6071	23.4375	46.4966	23.4375	46.2561	23.4375	47.8226	23.4375	47.9873	23.4375	49.202	23.4375	49.5884	23.4375	50.5124	23.4375	50.9853	23.4375	51.6883	23.4375	52.1623	23.4375	52.698	23.4375	53.123	23.4375	53.5261	23.4375	53.8741	23.4375	54.165	23.4375	54.421	23.4375	54.6107	23.4375	54.7668	23.4375	54.8606	23.4375	54.913
24.9023	48.4028	24.9023	48.3949	24.9023	48.2108	24.9023	48.1866	24.9023	47.8237	24.9023	47.7838	24.9023	47.257	24.9023	47.2103	24.9023	46.5554	24.9023	46.5359	24.9023	45.8314	24.9023	45.9266	24.9023	45.3158	24.9023	45.6756	24.9023	45.3277	24.9023	46.073	24.9023	46.0436	24.9023	47.1228	24.9023	47.3017	24.9023	48.5361	24.9023	48.783	24.9023	50.0135	24.9023	50.2496	24.9023	51.3832	24.9023	51.5825	24.9023	52.572	24.9023	52.732	24.9023	53.5546	24.9023	53.6794	24.9023	54.3241	24.9023	54.4169	24.9023	54.8791	24.9023	54.9412	24.9023	55.2189	24.9023	55.2502	24.9023	55.3428
26.3672	48.6253	26.3672	48.5959	26.3672	48.4775	26.3672	48.3867	26.3672	48.1699	26.3672	48.0135	26.3672	47.7434	26.3672	47.5279	26.3672	47.2827	26.3672	47.0523	26.3672	46.9423	26.3672	46.8095	26.3672	46.9372	26.3672	47.0624	26.3672	47.4366	26.3672	47.9112	26.3672	48.4216	26.3672	49.1877	26.3672	49.7035	26.3672	50.6245	26.3672	51.0743	26.3672	52.0271	26.3672	52.394	26.3672	53.2968	26.3672	53.5878	26.3672	54.3924	26.3672	54.6201	26.3672	55.2992	26.3672	55.4739	26.3672	56.0123	26.3672	56.1403	26.3672	56.5295	26.3672	56.6139	26.3672	56.8491	26.3672	56.8911	26.3672	56.9698
27.832	50.4889	27.832	50.5148	27.832	50.3054	27.832	50.3859	27.832	49.9757	27.832	50.1197	27.832	49.5344	27.832	49.7588	27.832	49.0596	27.832	49.39	27.832	48.6972	27.832	49.1627	27.832	48.6538	27.832	49.266	27.832	49.0976	27.832	49.8254	27.832	50.0196	27.832	50.7977	27.832	51.2425	27.832	52.0083	27.832	52.5623	27.832	53.2757	27.832	53.8382	27.832	54.4777	27.832	54.994	27.832	55.548	27.832	55.9924	27.832	56.4541	27.832	56.8155	27.832	57.18	27.832	57.4536	27.832	57.7171	27.832	57.9004	27.832	58.0599	27.832	58.1519	27.832	58.2053
29.2969	52.0796	29.2969	52.0564	29.2969	51.948	29.2969	51.8829	29.2969	51.6678	29.2969	51.5763	29.2969	51.2608	29.2969	51.177	29.2969	50.7787	29.2969	50.767	29.2969	50.3253	29.2969	50.487	29.2969	50.0711	29.2969	50.5176	29.2969	50.211	29.2969	50.987	29.2969	50.8384	29.2969	51.8677	29.2969	51.8621	29.2969	52.9993	29.2969	53.0859	29.2969	54.204	29.2969	54.3349	29.2969	55.3563	29.2969	55.4998	29.2969	56.3855	29.2969	56.5232	29.2969	57.2556	29.2969	57.3765	29.2969	57.9488	29.2969	58.0454	29.2969	58.455	29.2969	58.5224	29.2969	58.7684	29.2969	58.8029	29.2969	58.885
30.7617	53.352	30.7617	53.3596	30.7617	53.2003	30.7617	53.2258	30.7617	52.9132	30.7617	52.9652	30.7617	52.5169	30.7617	52.6128	30.7617	52.0689	30.7617	52.2394	30.7617	51.6783	30.7617	51.9671	30.7617	51.5106	30.7617	51.96	30.7617	51.7347	30.7617	52.352	30.7617	52.4093	30.7617	53.1477	30.7617	53.4312	30.7617	54.2158	30.7617	54.6191	30.7617	55.3855	30.7617	55.818	30.7617	56.5243	30.7617	56.9308	30.7617	57.5529	30.7617	57.9056	30.7617	58.4294	30.7617	58.7161	30.7617	59.1324	30.7617	59.3485	30.7617	59.6509	30.7617	59.795	30.7617	59.9786	30.7617	60.0505	30.7617	60.1121
32.2266	55.6157	32.2266	55.6468	32.2266	55.47	32.2266	55.5681	32.2266	55.2136	32.2266	55.3938	32.2266	54.863	32.2266	55.1514	32.2266	54.4553	32.2266	54.8892	32.2266	54.0611	32.2266	54.6819	32.2266	53.792	32.2266	54.6269	32.2266	53.7835	32.2266	54.8155	32.2266	54.1326	32.2266	55.2876	32.2266	54.8297	32.2266	56.0042	32.2266	55.7637	32.2266	56.8699	32.2266	56.7933	32.2266	57.7796	32.2266	57.8047	32.2266	58.6479	32.2266	58.7237	32.2266	59.4163	32.2266	59.5072	32.2266	60.0471	32.2266	60.1303	32.2266	60.5167	32.2266	60.5784	32.2266	60.8108	32.2266	60.8434	32.2266	60.9209
33.6914	56.0823	33.6914	56.0961	33.6914	55.9545	33.6914	55.9993	33.6914	55.7206	33.6914	55.8085	33.6914	55.4045	33.6914	55.5582	33.6914	55.0536	33.6914	55.3098	33.6914	54.7501	33.6914	55.1556	33.6914	54.6119	33.6914	55.2054	33.6914	54.7619	33.6914	55.5438	33.6914	55.262	33.6914	56.1789	33.6914	56.0677	33.6914	57.0354	33.6914	57.0582	33.6914	57.9995	33.6914	58.1045	33.6914	58.9674	33.6914	59.1098	33.6914	59.8644	33.6914	60.013	33.6914	60.6435	33.6914	60.7783	33.6914	61.2759	33.6914	61.3849	33.6914	61.744	33.6914	61.82	33.6914	62.0369	33.6914	62.0759	33.6914	62.1485
35.1562	57.3949	35.1562	57.4138	35.1562	57.2788	35.1562	57.3386	35.1562	57.074	35.1562	57.1854	35.1562	56.8052	35.1562	56.9862	35.1562	56.5193	35.1562	56.795	35.1562	56.2927	35.1562	56.6897	35.1562	56.2274	35.1562	56.7605	35.1562	56.4216	35.1562	57.0785	35.1562	56.9189	35.1562	57.6565	35.1562	57.6781	35.1562	58.4394	35.1562	58.5986	35.1562	59.3337	35.1562	59.5716	35.1562	60.2462	35.1562	60.5111	35.1562	61.1046	35.1562	61.3598	35.1562	61.8593	35.1562	62.0816	35.1562	62.4788	35.1562	62.6542	35.1562	62.9426	35.1562	63.0632	35.1562	63.2382	35.1562	63.2995	35.1562	63.3582
36.6211	59.0436	36.6211	59.0514	36.6211	58.9611	36.6211	58.9873	36.6211	58.8125	36.6211	58.8659	36.6211	58.6198	36.6211	58.7156	36.6211	58.4222	36.6211	58.5819	36.6211	58.2789	36.6211	58.5273	36.6211	58.2639	36.6211	58.6213	36.6211	58.4474	36.6211	58.9178	36.6211	58.8649	36.6211	59.4287	36.6211	59.4968	36.6211	60.1159	36.6211	60.2772	36.6211	60.908	36.6211	61.1233	36.6211	61.7274	36.6211	61.9602	36.6211	62.5087	36.6211	62.7312	36.6211	63.2032	36.6211	63.3968	36.6211	63.7778	36.6211	63.9306	36.6211	64.21	36.6211	64.3151	36.6211	64.4856	36.6211	64.539	36.6211	64.5964
38.0859	60.2776	38.0859	60.2738	38.0859	60.2132	38.0859	60.2043	38.0859	60.0883	38.0859	60.0829	38.0859	59.9226	38.0859	59.9356	38.0859	59.7509	38.0859	59.8046	38.0859	59.625	38.0859	59.7467	38.0859	59.6098	38.0859	59.8255	38.0859	59.768	38.0859	60.0916	38.0859	60.1349	38.0859	60.5591	38.0859	60.6999	38.0859	61.1966	38.0859	61.4099	38.0859	61.9403	38.0859	62.1918	38.0859	62.7177	38.0859	62.9755	38.0859	63.4652	38.0859	63.7052	38.0859	64.1343	38.0859	64.3401	38.0859	64.6908	38.0859	64.8519	38.0859	65.1112	38.0859	65.2216	38.0859	65.3806	38.0859	65.4366	38.0859	65.4902
39.5508	61.6925	39.5508	61.6881	39.5508	61.6381	39.5508	61.6279	39.5508	61.5317	39.5508	61.5245	39.5508	61.3902	39.5508	61.4018	39.5508	61.2434	39.5508	61.2963	39.5508	61.135	39.5508	61.2563	39.5508	61.1193	39.5508	61.3344	39.5508	61.2498	39.5508	61.5728	39.5508	61.5607	39.5508	61.9856	39.5508	62.0502	39.5508	62.5508	39.5508	62.6794	39.5508	63.2176	39.5508	63.3874	39.5508	63.924	39.5508	64.1103	39.5508	64.6118	39.5508	64.7935	39.5508	65.2339	39.5508	65.3947	39.5508	65.7551	39.5508	65.8839	39.5508	66.1506	39.5508	66.24	39.5508	66.4036	39.5508	66.4493	39.5508	66.5045
41.0156	62.8305	41.0156	62.8282	41.0156	62.781	41.0156	62.7767	41.0156	62.6861	41.0156	62.6882	41.0156	62.5622	41.0156	62.585	41.0156	62.4371	41.0156	62.5011	41.0156	62.351	41.0156	62.4809	41.0156	62.3527	41.0156	62.5727	41.0156	62.4895	41.0156	62.8147	41.0156	62.7917	41.0156	63.2201	41.0156	63.2584	41.0156	63.7685	41.0156	63.8565	41.0156	64.413	41.0156	64.5321	41.0156	65.0951	41.0156	65.2264	41.0156	65.7592	41.0156	65.8872	41.0156	66.3595	41.0156	66.4728	41.0156	66.8617	41.0156	66.9525	41.0156	67.2412	41.0156	67.3045	41.0156	67.482	41.0156	67.5144	41.0156	67.5742
42.4805	64.1345	42.4805	64.1308	42.4805	64.0986	42.4805	64.0908	42.4805	64.0284	42.4805	64.0266	42.4805	63.938	42.4805	63.9593	42.4805	63.8516	42.4805	63.9197	42.4805	63.8028	42.4805	63.9456	42.4805	63.8319	42.4805	64.075	42.4805	63.9776	42.4805	64.3362	42.4805	64.2652	42.4805	64.7359	42.4805	64.6955	42.4805	65.2551	42.4805	65.2429	42.4805	65.8539	42.4805	65.863	42.4805	66.4829	42.4805	66.5047	42.4805	67.094	42.4805	67.1207	42.4805	67.6458	42.4805	67.6719	42.4805	68.1064	42.4805	68.1282	42.4805	68.4522	42.4805	68.4676	42.4805	68.6675	42.4805	68.6754	42.4805	68.743
43.9453	65.5	43.9453	65.5054	43.9453	65.4596	43.9453	65.4786	43.9453	65.389	43.9453	65.4298	43.9453	65.3014	43.9453	65.3774	43.9453	65.2187	43.9453	65.3478	43.9453	65.1714	43.9453	65.3729	43.9453	65.1962	43.9453	65.4855	43.9453	65.3282	43.9453	65.7105	43.9453	65.591	43.9453	66.0561	43.9453	65.9865	43.9453	66.5097	43.9453	66.4925	43.9453	67.0401	43.9453	67.0685	43.9453	67.6064	43.9453	67.6671	43.9453	68.1656	43.9453	68.243	43.9453	68.6788	43.9453	68.7584	43.9453	69.1139	43.9453	69.1838	43.9453	69.4464	43.9453	69.4976	43.9453	69.6586	43.9453	69.6856	43.9453	69.7398
45.4102	66.6759	45.4102	66.687	45.4102	66.6376	45.4102	66.6732	45.4102	66.5767	45.4102	66.6436	45.4102	66.5054	45.4102	66.6145	45.4102	66.443	45.4102	66.6086	45.4102	66.4162	45.4102	66.6533	45.4102	66.4556	45.4102	66.7762	45.4102	66.5904	45.4102	66.9981	45.4102	66.84	45.4102	67.326	45.4102	67.2063	45.4102	67.7493	45.4102	67.6718	45.4102	68.2415	45.4102	68.2027	45.4102	68.7662	45.4102	68.758	45.4102	69.2843	45.4102	69.2964	45.4102	69.7597	45.4102	69.782	45.4102	70.162	45.4102	70.1862	45.4102	70.4678	45.4102	70.4874	45.4102	70.6604	45.4102	70.6712	45.4102	70.7295
46.875	67.9455	46.875	67.9534	46.875	67.9227	46.875	67.9484	46.875	67.8888	46.875	67.9381	46.875	67.8529	46.875	67.9351	46.875	67.8301	46.875	67.9569	46.875	67.8399	46.875	68.0239	46.875	67.9048	46.875	68.1561	46.875	68.0459	46.875	68.3686	46.875	68.2774	46.875	68.6667	46.875	68.6015	46.875	69.0431	46.875	69.0064	46.875	69.4778	46.875	69.4674	46.875	69.9423	46.875	69.9524	46.875	70.4038	46.875	70.4269	46.875	70.8307	46.875	70.8592	46.875	71.1947	46.875	71.222	46.875	71.4731	46.875	71.4943	46.875	71.6495	46.875	71.6609	46.875	71.7134
48.3398	69.2126	48.3398	69.2138	48.3398	69.1886	48.3398	69.1939	48.3398	69.1454	48.3398	69.1597	48.3398	69.0921	48.3398	69.1237	48.3398	69.0434	48.3398	69.1034	48.3398	69.019	48.3398	69.1203	48.3398	69.0424	48.3398	69.1971	48.3398	69.1368	48.3398	69.353	48.3398	69.32	48.3398	69.5981	48.3398	69.598	48.3398	69.9292	48.3398	69.9619	48.3398	70.329	48.3398	70.3891	48.3398	70.7691	48.3398	70.8474	48.3398	71.216	48.3398	71.3014	48.3398	71.6358	48.3398	71.7179	48.3398	71.9985	48.3398	72.0681	48.3398	72.2797	48.3398	72.3299	48.3398	72.4612	48.3398	72.4875	48.3398	72.532
51.2695	71.4077	51.2695	71.4111	51.2695	71.3909	51.2695	71.4027	51.2695	71.3637	51.2695	71.3879	51.2695	71.3333	51.2695	71.3768	51.2695	71.3112	51.2695	71.3829	51.2695	71.3128	51.2695	71.4223	51.2695	71.3554	51.2695	71.5118	51.2695	71.456	51.2695	71.6651	51.2695	71.6276	51.2695	71.8893	51.2695	71.8749	51.2695	72.182	51.2695	72.1917	51.2695	72.5301	51.2695	72.5614	51.2695	72.9117	51.2695	72.9589	51.2695	73.2998	51.2695	73.3555	51.2695	73.6659	51.2695	73.7221	51.2695	73.9836	51.2695	74.033	51.2695	74.2306	51.2695	74.2672	51.2695	74.3901	51.2695	74.4094	51.2695	74.4511
52.7344	72.5386	52.7344	72.5461	52.7344	72.5209	52.7344	72.5448	52.7344	72.4956	52.7344	72.5394	52.7344	72.469	52.7344	72.5385	52.7344	72.4511	52.7344	72.5536	52.7344	72.455	52.7344	72.5986	52.7344	72.496	52.7344	72.6875	52.7344	72.5892	52.7344	72.8323	52.7344	72.7463	52.7344	73.0395	52.7344	72.9724	52.7344	73.3073	52.7344	73.2633	52.7344	73.6252	52.7344	73.6048	52.7344	73.9744	52.7344	73.9749	52.7344	74.3309	52.7344	74.347	52.7344	74.6687	52.7344	74.6935	52.7344	74.9629	52.7344	74.9893	52.7344	75.192	52.7344	75.2137	52.7344	75.3394	52.7344	75.3515	52.7344	75.394
54.1992	73.5872	54.1992	73.5965	54.1992	73.5704	54.1992	73.5992	54.1992	73.5483	54.1992	73.5996	54.1992	73.5268	54.1992	73.605	54.1992	73.5146	54.1992	73.6256	54.1992	73.5236	54.1992	73.6734	54.1992	73.5672	54.1992	73.7609	54.1992	73.6589	54.1992	73.8984	54.1992	73.8093	54.1992	74.0919	54.1992	74.0231	54.1992	74.3403	54.1992	74.2968	54.1992	74.6347	54.1992	74.6178	54.1992	74.9588	54.1992	74.966	54.1992	75.2913	54.1992	75.3165	54.1992	75.6083	54.1992	75.6433	54.1992	75.8862	54.1992	75.9224	54.1992	76.1043	54.1992	76.1336	54.1992	76.2461	54.1992	76.2623	54.1992	76.3004
55.6641	74.525	55.6641	74.5309	55.6641	74.5146	55.6641	74.533	55.6641	74.5019	55.6641	74.535	55.6641	74.4922	55.6641	74.5435	55.6641	74.4934	55.6641	74.5677	55.6641	74.516	55.6641	74.6183	55.6641	74.5716	55.6641	74.7065	55.6641	74.6718	55.6641	74.8416	55.6641	74.825	55.6641	75.0289	55.6641	75.0347	55.6641	75.2676	55.6641	75.2971	55.6641	75.5497	55.6641	75.6005	55.6641	75.8601	55.6641	75.9266	55.6641	76.1791	55.6641	76.2533	55.6641	76.4839	55.6641	76.5568	55.6641	76.7521	55.6641	76.8153	55.6641	76.9637	55.6641	77.0101	55.6641	77.1027	55.6641	77.1272	55.6641	77.1588
58.5938	76.2624	58.5938	76.2549	58.5938	76.2713	58.5938	76.2497	58.5938	76.2826	58.5938	76.25	58.5938	76.2997	58.5938	76.2612	58.5938	76.3277	58.5938	76.2903	58.5938	76.3731	58.5938	76.3455	58.5938	76.4432	58.5938	76.4347	58.5938	76.5452	58.5938	76.5645	58.5938	76.6845	58.5938	76.738	58.5938	76.8635	58.5938	76.9538	58.5938	77.0803	58.5938	77.2048	58.5938	77.3276	58.5938	77.4785	58.5938	77.5932	58.5938	77.7583	58.5938	77.8607	58.5938	78.0253	58.5938	78.1118	58.5938	78.2602	58.5938	78.3278	58.5938	78.4456	58.5938	78.4919	58.5938	78.5676	58.5938	78.5911	58.5938	78.6172
60.0586	77.0798	60.0586	77.0824	60.0586	77.0796	60.0586	77.0879	60.0586	77.0828	60.0586	77.0991	60.0586	77.0925	60.0586	77.1204	60.0586	77.1135	60.0586	77.1577	60.0586	77.1521	60.0586	77.2177	60.0586	77.215	60.0586	77.3075	60.0586	77.3093	60.0586	77.4325	60.0586	77.4403	60.0586	77.5958	60.0586	77.6105	60.0586	77.7965	60.0586	77.8182	60.0586	78.0285	60.0586	78.0566	60.0586	78.281	60.0586	78.3138	60.0586	78.5392	60.0586	78.5739	60.0586	78.7856	60.0586	78.8189	60.0586	79.0022	60.0586	79.0307	60.0586	79.1723	60.0586	79.1931	60.0586	79.2826	60.0586	79.2936	60.0586	79.3242
62.9883	78.4236	62.9883	78.4244	62.9883	78.4295	62.9883	78.4325	62.9883	78.4431	62.9883	78.4496	62.9883	78.4666	62.9883	78.4788	62.9883	78.5032	62.9883	78.5242	62.9883	78.5572	62.9883	78.5906	62.9883	78.6331	62.9883	78.6828	62.9883	78.7355	62.9883	78.8047	62.9883	78.8674	62.9883	78.9583	62.9883	79.03	62.9883	79.1424	62.9883	79.2212	62.9883	79.3523	62.9883	79.4351	62.9883	79.579	62.9883	79.662	62.9883	79.8103	62.9883	79.8891	62.9883	80.0315	62.9883	80.1015	62.9883	80.227	62.9883	80.2839	62.9883	80.3821	62.9883	80.4223	62.9883	80.4849	62.9883	80.5057	62.9883	80.5272
64.4531	78.9207	64.4531	78.9188	64.4531	78.9322	64.4531	78.9269	64.4531	78.9539	64.4531	78.9465	64.4531	78.9871	64.4531	78.98	64.4531	79.0343	64.4531	79.0307	64.4531	79.0983	64.4531	79.1021	64.4531	79.1821	64.4531	79.198	64.4531	79.2886	64.4531	79.3211	64.4531	79.4199	64.4531	79.4725	64.4531	79.5764	64.4531	79.6507	64.4531	79.7562	64.4531	79.8509	64.4531	79.9541	64.4531	80.0651	64.4531	80.1622	64.4531	80.2819	64.4531	80.3694	64.4531	80.4882	64.4531	80.5628	64.4531	80.6701	64.4531	80.7288	64.4531	80.8142	64.4531	80.8548	64.4531	80.9098	64.4531	80.9305	64.4531	80.9496
67.3828	79.7214	67.3828	79.7239	67.3828	79.7309	67.3828	79.7386	67.3828	79.7526	67.3828	79.7662	67.3828	79.7874	67.3828	79.8079	67.3828	79.8362	67.3828	79.8652	67.3828	79.9005	67.3828	79.9398	67.3828	79.9817	67.3828	80.0333	67.3828	80.0814	67.3828	80.147	67.3828	80.2003	67.3828	80.2808	67.3828	80.3383	67.3828	80.4334	67.3828	80.4937	67.3828	80.6011	67.3828	80.6626	67.3828	80.7782	67.3828	80.8388	67.3828	80.9564	67.3828	81.0135	67.3828	81.1257	67.3828	81.1766	67.3828	81.2752	67.3828	81.3168	67.3828	81.3939	67.3828	81.4235	67.3828	81.4726	67.3828	81.488	67.3828	81.5049
68.8477	79.9892	68.8477	79.9906	68.8477	80.0011	68.8477	80.0056	68.8477	80.0262	68.8477	80.0346	68.8477	80.0647	68.8477	80.0784	68.8477	80.117	68.8477	80.1378	68.8477	80.1836	68.8477	80.2138	68.8477	80.2655	68.8477	80.3072	68.8477	80.3633	68.8477	80.4185	68.8477	80.4778	68.8477	80.5476	68.8477	80.6086	68.8477	80.6927	68.8477	80.7542	68.8477	80.8509	68.8477	80.9113	68.8477	81.0168	68.8477	81.0745	68.8477	81.1832	68.8477	81.2362	68.8477	81.3409	68.8477	81.387	68.8477	81.4798	68.8477	81.5169	68.8477	81.5899	68.8477	81.616	68.8477	81.6627	68.8477	81.6762	68.8477	81.6923
71.7773	80.5136	71.7773	80.5129	71.7773	80.529	71.7773	80.5267	71.7773	80.5587	71.7773	80.5551	71.7773	80.6024	71.7773	80.5979	71.7773	80.6598	71.7773	80.655	71.7773	80.7303	71.7773	80.7263	71.7773	80.8133	71.7773	80.8117	71.7773	80.9083	71.7773	80.911	71.7773	81.0146	71.7773	81.0235	71.7773	81.1312	71.7773	81.148	71.7773	81.2565	71.7773	81.2819	71.7773	81.3877	71.7773	81.4215	71.7773	81.521	71.7773	81.5612	71.7773	81.6508	71.7773	81.6939	71.7773	81.7703	71.7773	81.8117	71.7773	81.8718	71.7773	81.9064	71.7773	81.9479	71.7773	81.9709	71.7773	81.992	71.7773	82.0001
74.707	80.8254	74.707	80.8261	74.707	80.8396	74.707	80.8417	74.707	80.8684	74.707	80.8717	74.707	80.9112	74.707	80.9154	74.707	80.9672	74.707	80.972	74.707	81.035	74.707	81.0404	74.707	81.1136	74.707	81.1198	74.707	81.2014	74.707	81.2091	74.707	81.2971	74.707	81.3072	74.707	81.3991	74.707	81.4128	74.707	81.5059	74.707	81.5241	74.707	81.6152	74.707	81.6381	74.707	81.7243	74.707	81.7512	74.707	81.8292	74.707	81.8581	74.707	81.925	74.707	81.953	74.707	82.006	74.707	82.0295	74.707	82.0663	74.707	82.082	74.707	82.1008	74.707	82.1064
77.6367	80.9307	77.6367	80.9349	77.6367	80.9426	77.6367	80.955	77.6367	80.9702	77.6367	80.9902	77.6367	81.0125	77.6367	81.0393	77.6367	81.068	77.6367	81.1006	77.6367	81.135	77.6367	81.1721	77.6367	81.2114	77.6367	81.2521	77.6367	81.295	77.6367	81.3386	77.6367	81.3836	77.6367	81.4298	77.6367	81.4753	77.6367	81.5243	77.6367	81.5685	77.6367	81.62	77.6367	81.6614	77.6367	81.7149	77.6367	81.7523	77.6367	81.8062	77.6367	81.8387	77.6367	81.8905	77.6367	81.9173	77.6367	81.9635	77.6367	81.9842	77.6367	82.0209	77.6367	82.0349	77.6367	82.0587	77.6367	82.0658	77.6367	82.074
79.1016	80.9736	79.1016	80.98	79.1016	80.9838	79.1016	81.0027	79.1016	81.0103	79.1016	81.0407	79.1016	81.0519	79.1016	81.0926	79.1016	81.107	79.1016	81.1561	79.1016	81.1735	79.1016	81.229	79.1016	81.249	79.1016	81.3089	79.1016	81.3308	79.1016	81.3935	79.1016	81.4166	79.1016	81.4809	79.1016	81.5043	79.1016	81.5693	79.1016	81.592	79.1016	81.657	79.1016	81.6783	79.1016	81.7422	79.1016	81.7616	79.1016	81.8229	79.1016	81.8399	79.1016	81.8964	79.1016	81.9107	79.1016	81.9594	79.1016	81.9706	79.1016	82.0085	79.1016	82.0163	79.1016	82.0403	79.1016	82.0443	79.1016	82.0526
82.0312	81.0713	82.0312	81.0804	82.0312	81.0803	82.0312	81.1071	82.0312	81.1068	82.0312	81.1499	82.0312	81.1494	82.0312	81.2067	82.0312	81.2059	82.0312	81.2747	82.0312	81.2735	82.0312	81.3505	82.0312	81.3491	82.0312	81.4311	82.0312	81.4295	82.0312	81.5133	82.0312	81.5118	82.0312	81.5947	82.0312	81.5934	82.0312	81.6731	82.0312	81.6724	82.0312	81.7473	82.0312	81.7474	82.0312	81.8162	82.0312	81.8171	82.0312	81.8787	82.0312	81.8806	82.0312	81.9338	82.0312	81.9363	82.0312	81.9799	82.0312	81.9826	82.0312	82.0152	82.0312	82.0174	82.0312	82.0376	82.0312	82.0389	82.0312	82.0457
84.9609	81.0971	84.9609	81.1034	84.9609	81.1099	84.9609	81.1285	84.9609	81.1411	84.9609	81.1708	84.9609	81.189	84.9609	81.2279	84.9609	81.2507	84.9609	81.2963	84.9609	81.323	84.9609	81.3725	84.9609	81.402	84.9609	81.4527	84.9609	81.4841	84.9609	81.5334	84.9609	81.5658	84.9609	81.6117	84.9609	81.6441	84.9609	81.6854	84.9609	81.7169	84.9609	81.753	84.9609	81.7829	84.9609	81.8138	84.9609	81.8412	84.9609	81.8672	84.9609	81.8915	84.9609	81.9128	84.9609	81.9334	84.9609	81.9502	84.9609	81.9664	84.9609	81.9787	84.9609	81.9899	84.9609	81.9974	84.9609	82.0031	84.9609	82.0057
87.8906	81.083	87.8906	81.0885	87.8906	81.0979	87.8906	81.1139	87.8906	81.1322	87.8906	81.1575	87.8906	81.1837	87.8906	81.2166	87.8906	81.2492	87.8906	81.2872	87.8906	81.3247	87.8906	81.3651	87.8906	81.4057	87.8906	81.4458	87.8906	81.4877	87.8906	81.5252	87.8906	81.5667	87.8906	81.5996	87.8906	81.6391	87.8906	81.6665	87.8906	81.7026	87.8906	81.724	87.8906	81.756	87.8906	81.7718	87.8906	81.7989	87.8906	81.8099	87.8906	81.8322	87.8906	81.8392	87.8906	81.8567	87.8906	81.8609	87.8906	81.8738	87.8906	81.8761	87.8906	81.8847	87.8906	81.8857	87.8906	81.89	87.8906	81.8902
90.8203	81.1772	90.8203	81.1866	90.8203	81.1868	90.8203	81.2142	90.8203	81.2146	90.8203	81.2581	90.8203	81.2585	90.8203	81.3152	90.8203	81.3155	90.8203	81.3816	90.8203	81.3814	90.8203	81.4528	90.8203	81.4517	90.8203	81.5243	90.8203	81.5217	90.8203	81.5918	90.8203	81.5873	90.8203	81.6518	90.8203	81.6449	90.8203	81.7016	90.8203	81.6922	90.8203	81.7398	90.8203	81.7283	90.8203	81.7665	90.8203	81.7535	90.8203	81.7826	90.8203	81.7692	90.8203	81.7902	90.8203	81.7776	90.8203	81.7919	90.8203	81.7813	90.8203	81.7902	90.8203	81.7826	90.8203	81.7874	90.8203	81.7834	90.8203	81.7849
95.2148	81.2557	95.2148	81.2602	95.2148	81.271	95.2148	81.2843	95.2148	81.3049	95.2148	81.3261	95.2148	81.3547	95.2148	81.3821	95.2148	81.4163	95.2148	81.4478	95.2148	81.4848	95.2148	81.5179	95.2148	81.555	95.2148	81.587	95.2148	81.6219	95.2148	81.6498	95.2148	81.6808	95.2148	81.7022	95.2148	81.7283	95.2148	81.7412	95.2148	81.7624	95.2148	81.7655	95.2148	81.7823	95.2148	81.7759	95.2148	81.789	95.2148	81.7745	95.2148	81.7848	95.2148	81.7651	95.2148	81.7732	95.2148	81.7518	95.2148	81.758	95.2148	81.7391	95.2148	81.7434	95.2148	81.7304	95.2148	81.7326	95.2148	81.728
98.1445	81.2231	98.1445	81.2354	98.1445	81.232	98.1445	81.2682	98.1445	81.2609	98.1445	81.3193	98.1445	81.3072	98.1445	81.3849	98.1445	81.3667	98.1445	81.4599	98.1445	81.4344	98.1445	81.5384	98.1445	81.5047	98.1445	81.6145	98.1445	81.5722	98.1445	81.6824	98.1445	81.6316	98.1445	81.7372	98.1445	81.6791	98.1445	81.7757	98.1445	81.7119	98.1445	81.7962	98.1445	81.7291	98.1445	81.7992	98.1445	81.7318	98.1445	81.7872	98.1445	81.723	98.1445	81.7644	98.1445	81.7071	98.1445	81.7362	98.1445	81.6894	98.1445	81.7082	98.1445	81.6751	98.1445	81.6855	98.1445	81.6683	98.1445	81.6716
101.074	81.1541	101.074	81.1631	101.074	81.1674	101.074	81.1942	101.074	81.2017	101.074	81.2453	101.074	81.2538	101.074	81.3128	101.074	81.3197	101.074	81.3916	101.074	81.3943	101.074	81.4757	101.074	81.4722	101.074	81.5587	101.074	81.548	101.074	81.6349	101.074	81.6168	101.074	81.6989	101.074	81.6743	101.074	81.7474	101.074	81.7175	101.074	81.7784	101.074	81.7452	101.074	81.7924	101.074	81.7577	101.074	81.7914	101.074	81.7576	101.074	81.7794	101.074	81.7486	101.074	81.7611	101.074	81.7357	101.074	81.7418	101.074	81.7236	101.074	81.7261	101.074	81.7166	101.074	81.7172
105.469	81.2847	105.469	81.3034	105.469	81.289	105.469	81.3439	105.469	81.3157	105.469	81.4033	105.469	81.362	105.469	81.4768	105.469	81.4238	105.469	81.5585	105.469	81.4955	105.469	81.6418	105.469	81.5708	105.469	81.7195	105.469	81.6432	105.469	81.7853	105.469	81.7067	105.469	81.8336	105.469	81.7564	105.469	81.861	105.469	81.7889	105.469	81.8661	105.469	81.8026	105.469	81.8505	105.469	81.7979	105.469	81.8181	105.469	81.7777	105.469	81.7752	105.469	81.7467	105.469	81.7298	105.469	81.7115	105.469	81.6897	105.469	81.6794	105.469	81.6619	105.469	81.6574	105.469	81.6507
108.398	81.4733	108.398	81.4847	108.398	81.4814	108.398	81.5143	108.398	81.5087	108.398	81.5593	108.398	81.5531	108.398	81.6154	108.398	81.611	108.398	81.6776	108.398	81.6777	108.398	81.7398	108.398	81.7472	108.398	81.7962	108.398	81.8138	108.398	81.841	108.398	81.8711	108.398	81.8697	108.398	81.9138	108.398	81.8793	108.398	81.9373	108.398	81.8688	108.398	81.9389	108.398	81.8402	108.398	81.9184	108.398	81.7977	108.398	81.8783	108.398	81.748	108.398	81.8243	108.398	81.6996	108.398	81.7645	108.398	81.661	108.398	81.7083	108.398	81.6398	108.398	81.6648	108.398	81.6408
112.793	81.7305	112.793	81.7421	112.793	81.7381	112.793	81.772	112.793	81.764	112.793	81.8177	112.793	81.8059	112.793	81.8754	112.793	81.8598	112.793	81.9403	112.793	81.9202	112.793	82.0066	112.793	81.9811	112.793	82.0681	112.793	82.0358	112.793	82.1186	112.793	82.0782	112.793	82.1529	112.793	82.1032	112.793	82.1668	112.793	82.1072	112.793	82.1581	112.793	82.0893	112.793	82.1274	112.793	82.0514	112.793	82.0776	112.793	81.9985	112.793	82.0149	112.793	81.9383	112.793	81.9474	112.793	81.8805	112.793	81.8848	112.793	81.8349	112.793	81.8366	112.793	81.8098	112.793	81.8103
117.188	81.8371	117.188	81.8524	117.188	81.8363	117.188	81.8813	117.188	81.8497	117.188	81.9219	117.188	81.8758	117.188	81.9708	117.188	81.9115	117.188	82.024	117.188	81.9528	117.188	82.0764	117.188	81.9949	117.188	82.1229	117.188	82.0327	117.188	82.158	117.188	82.0611	117.188	82.177	117.188	82.0758	117.188	82.1766	117.188	82.0738	117.188	82.1553	117.188	82.0539	117.188	82.114	117.188	82.0173	117.188	82.0563	117.188	81.9678	117.188	81.9885	117.188	81.9118	117.188	81.919	117.188	81.8576	117.188	81.8569	117.188	81.814	117.188	81.811	117.188	81.7889	117.188	81.7874
120.117	81.9995	120.117	82.0003	120.117	82.0121	120.117	82.014	120.117	82.037	120.117	82.0388	120.117	82.0721	120.117	82.0717	120.117	82.1136	120.117	82.1087	120.117	82.157	120.117	82.1446	120.117	82.1967	120.117	82.174	120.117	82.2271	120.117	82.1915	120.117	82.243	120.117	82.1923	120.117	82.2398	120.117	82.1729	120.117	82.215	120.117	82.1323	120.117	82.1678	120.117	82.0719	120.117	82.1005	120.117	81.9964	120.117	82.0182	120.117	81.9133	120.117	81.929	120.117	81.8325	120.117	81.8431	120.117	81.7648	120.117	81.7712	120.117	81.72	120.117	81.723	120.117	81.7052
124.512	82.1534	124.512	82.1679	124.512	82.1524	124.512	82.1945	124.512	82.1643	124.512	82.2307	124.512	82.1873	124.512	82.2725	124.512	82.2177	124.512	82.3147	124.512	82.2507	124.512	82.3513	124.512	82.2804	124.512	82.376	124.512	82.3004	124.512	82.3827	124.512	82.3044	124.512	82.3662	124.512	82.2872	124.512	82.3236	124.512	82.2452	124.512	82.2542	124.512	82.1777	124.512	82.1608	124.512	82.0876	124.512	82.0498	124.512	81.9815	124.512	81.9307	124.512	81.8699	124.512	81.8158	124.512	81.7656	124.512	81.7181	124.512	81.6821	124.512	81.6496	124.512	81.6308	124.512	81.6193
128.906	82.1631	128.906	82.1696	128.906	82.1732	128.906	82.1922	128.906	82.1987	128.906	82.2287	128.906	82.237	128.906	82.2755	128.906	82.284	128.906	82.3274	128.906	82.3341	128.906	82.3782	128.906	82.3809	128.906	82.4211	128.906	82.4175	128.906	82.4494	128.906	82.4377	128.906	82.4573	128.906	82.4362	128.906	82.4407	128.906	82.4101	128.906	82.3981	128.906	82.3592	128.906	82.3314	128.906	82.2867	128.906	82.2458	128.906	82.1991	128.906	82.1499	128.906	82.1056	128.906	82.0549	128.906	82.0174	128.906	81.973	128.906	81.9459	128.906	81.9154	128.906	81.9013	128.906	81.8904
133.301	82.2226	133.301	82.2318	133.301	82.2302	133.301	82.2574	133.301	82.2535	133.301	82.2977	133.301	82.29	133.301	82.3493	133.301	82.336	133.301	82.4073	133.301	82.3863	133.301	82.4654	133.301	82.4348	133.301	82.5165	133.301	82.4747	133.301	82.5533	133.301	82.4993	133.301	82.5693	133.301	82.5028	133.301	82.5594	133.301	82.4816	133.301	82.5214	133.301	82.4346	133.301	82.4559	133.301	82.3644	133.301	82.3677	133.301	82.2772	133.301	82.2656	133.301	82.1823	133.301	82.1614	133.301	82.092	133.301	82.0689	133.301	82.0191	133.301	82.0014	133.301	81.9754	133.301	81.9688
139.16	82.4207	139.16	82.4368	139.16	82.4187	139.16	82.4664	139.16	82.4305	139.16	82.5075	139.16	82.4542	139.16	82.5571	139.16	82.487	139.16	82.6106	139.16	82.5241	139.16	82.6623	139.16	82.5597	139.16	82.7051	139.16	82.5868	139.16	82.732	139.16	82.5984	139.16	82.7364	139.16	82.5885	139.16	82.7131	139.16	82.5532	139.16	82.6596	139.16	82.4917	139.16	82.577	139.16	82.4069	139.16	82.4701	139.16	82.3058	139.16	82.3484	139.16	82.1992	139.16	82.2245	139.16	82.1007	139.16	82.1133	139.16	82.0244	139.16	82.0295	139.16	81.983	139.16	81.9842
143.555	82.5475	143.555	82.5556	143.555	82.5515	143.555	82.5759	143.555	82.567	143.555	82.607	143.555	82.5922	143.555	82.6467	143.555	82.6244	143.555	82.6908	143.555	82.6596	143.555	82.734	143.555	82.6924	143.555	82.7696	143.555	82.7162	143.555	82.7903	143.555	82.7243	143.555	82.7893	143.555	82.7106	143.555	82.7614	143.555	82.6709	143.555	82.7038	143.555	82.6042	143.555	82.6175	143.555	82.513	143.555	82.5078	143.555	82.404	143.555	82.3843	143.555	82.2882	143.555	82.2604	143.555	82.1794	143.555	82.1513	143.555	82.0925	143.555	82.0719	143.555	82.0409	143.555	82.0333
147.949	82.6142	147.949	82.6145	147.949	82.6245	147.949	82.6256	147.949	82.6444	147.949	82.6465	147.949	82.6721	147.949	82.6751	147.949	82.7052	147.949	82.7075	147.949	82.74	147.949	82.7388	147.949	82.7724	147.949	82.7629	147.949	82.7969	147.949	82.7735	147.949	82.8079	147.949	82.7647	147.949	82.8001	147.949	82.7321	147.949	82.7695	147.949	82.6742	147.949	82.7141	147.949	82.5927	147.949	82.635	147.949	82.4937	147.949	82.5371	147.949	82.3869	147.949	82.4288	147.949	82.285	147.949	82.3216	147.949	82.2017	147.949	82.229	147.949	82.1492	147.949	82.1639	147.949	82.1359
153.809	82.7193	153.809	82.7211	153.809	82.7285	153.809	82.7334	153.809	82.7478	153.809	82.7547	153.809	82.7752	153.809	82.7826	153.809	82.8074	153.809	82.8131	153.809	82.8399	153.809	82.8418	153.809	82.8675	153.809	82.8629	153.809	82.8844	153.809	82.8708	153.809	82.8855	153.809	82.8601	153.809	82.8664	153.809	82.827	153.809	82.8246	153.809	82.7699	153.809	82.7599	153.809	82.6907	153.809	82.675	153.809	82.5949	153.809	82.5759	153.809	82.4913	153.809	82.4717	153.809	82.3914	153.809	82.3737	153.809	82.3072	153.809	82.2937	153.809	82.2498	153.809	82.2425	153.809	82.2272
159.668	82.8425	159.668	82.8442	159.668	82.8509	159.668	82.8563	159.668	82.8686	159.668	82.8777	159.668	82.8937	159.668	82.9063	159.668	82.9239	159.668	82.9384	159.668	82.9554	159.668	82.9688	159.668	82.9837	159.668	82.9918	159.668	83.0032	159.668	83.0013	159.668	83.0082	159.668	82.9919	159.668	82.9935	159.668	82.9597	159.668	82.9557	159.668	82.9031	159.668	82.8941	159.668	82.8237	159.668	82.811	159.668	82.7266	159.668	82.7123	159.668	82.6206	159.668	82.607	159.668	82.5176	159.668	82.5065	159.668	82.4306	159.668	82.4231	159.668	82.372	159.668	82.3683	159.668	82.3502
165.527	83.05	165.527	83.0442	165.527	83.0651	165.527	83.0488	165.527	83.0885	165.527	83.0639	165.527	83.1184	165.527	83.0885	165.527	83.1529	165.527	83.1203	165.527	83.1889	165.527	83.1548	165.527	83.2222	165.527	83.1861	165.527	83.2479	165.527	83.2075	165.527	83.2599	165.527	83.2124	165.527	83.2528	165.527	83.196	165.527	83.2224	165.527	83.1559	165.527	83.1672	165.527	83.0928	165.527	83.0893	165.527	83.0113	165.527	82.9951	165.527	82.9191	165.527	82.8944	165.527	82.8268	165.527	82.7996	165.527	82.7463	165.527	82.7233	165.527	82.6891	165.527	82.676	165.527	82.6642
171.387	83.2159	171.387	83.207	171.387	83.2278	171.387	83.2018	171.387	83.2423	171.387	83.2007	171.387	83.2589	171.387	83.2041	171.387	83.2767	171.387	83.2108	171.387	83.2942	171.387	83.2187	171.387	83.3085	171.387	83.2237	171.387	83.3158	171.387	83.2207	171.387	83.3111	171.387	83.204	171.387	83.2892	171.387	83.1692	171.387	83.2457	171.387	83.1138	171.387	83.1786	171.387	83.0384	171.387	83.0895	171.387	82.9474	171.387	82.9843	171.387	82.8489	171.387	82.8729	171.387	82.7536	171.387	82.7674	171.387	82.6739	171.387	82.6807	171.387	82.6209	171.387	82.6236	171.387	82.603
177.246	83.4694	177.246	83.4788	177.246	83.4564	177.246	83.4831	177.246	83.4414	177.246	83.4814	177.246	83.4255	177.246	83.4729	177.246	83.4092	177.246	83.4566	177.246	83.3916	177.246	83.4309	177.246	83.3705	177.246	83.3934	177.246	83.3425	177.246	83.3407	177.246	83.3034	177.246	83.27	177.246	83.2485	177.246	83.1792	177.246	83.1737	177.246	83.0689	177.246	83.0771	177.246	82.9427	177.246	82.9606	177.246	82.8076	177.246	82.8302	177.246	82.6737	177.246	82.6964	177.246	82.5527	177.246	82.572	177.246	82.4568	177.246	82.4705	177.246	82.3961	177.246	82.4032	177.246	82.3775
183.105	83.302	183.105	83.3179	183.105	83.2873	183.105	83.3341	183.105	83.2755	183.105	83.3501	183.105	83.2684	183.105	83.3652	183.105	83.2667	183.105	83.378	183.105	83.2695	183.105	83.3856	183.105	83.273	183.105	83.3837	183.105	83.2716	183.105	83.3673	183.105	83.2581	183.105	83.3317	183.105	83.2255	183.105	83.2735	183.105	83.169	183.105	83.1916	183.105	83.087	183.105	83.0882	183.105	82.9827	183.105	82.9685	183.105	82.8641	183.105	82.8415	183.105	82.7431	183.105	82.7185	183.105	82.6337	183.105	82.6124	183.105	82.5497	183.105	82.5354	183.105	82.502	183.105	82.4969
188.965	83.3885	188.965	83.4031	188.965	83.3706	188.965	83.4155	188.965	83.3491	188.965	83.4269	188.965	83.325	188.965	83.4381	188.965	83.2998	188.965	83.4482	188.965	83.2751	188.965	83.4543	188.965	83.251	188.965	83.4519	188.965	83.226	188.965	83.4348	188.965	83.1967	188.965	83.3972	188.965	83.1584	188.965	83.3352	188.965	83.1067	188.965	83.2481	188.965	83.0391	188.965	83.1393	188.965	82.9564	188.965	83.0162	188.965	82.8632	188.965	82.8896	188.965	82.7677	188.965	82.7713	188.965	82.6806	188.965	82.6729	188.965	82.6128	188.965	82.6038	188.965	82.5738	188.965	82.57
196.289	83.622	196.289	83.622	196.289	83.6137	196.289	83.6152	196.289	83.5964	196.289	83.6035	196.289	83.57	196.289	83.5888	196.289	83.535	196.289	83.572	196.289	83.4916	196.289	83.5521	196.289	83.4401	196.289	83.5262	196.289	83.38	196.289	83.4892	196.289	83.3103	196.289	83.4353	196.289	83.2294	196.289	83.3595	196.289	83.1355	196.289	83.259	196.289	83.0275	196.289	83.1345	196.289	82.9066	196.289	82.9914	196.289	82.7778	196.289	82.8392	196.289	82.6501	196.289	82.6906	196.289	82.5362	196.289	82.5604	196.289	82.4504	196.289	82.4629	196.289	82.4055	196.289	82.4092
203.613	83.6815	203.613	83.6747	203.613	83.668	203.613	83.6489	203.613	83.6355	203.613	83.6082	203.613	83.5873	203.613	83.5582	203.613	83.5277	203.613	83.5043	203.613	83.4599	203.613	83.4498	203.613	83.3859	203.613	83.3946	203.613	83.3059	203.613	83.3355	203.613	83.2187	203.613	83.2675	203.613	83.1228	203.613	83.1861	203.613	83.0178	203.613	83.0896	203.613	82.9052	203.613	82.9798	203.613	82.7892	203.613	82.8622	203.613	82.6763	203.613	82.7449	203.613	82.5749	203.613	82.6363	203.613	82.4937	203.613	82.5438	203.613	82.4401	203.613	82.4734	203.613	82.4186	203.613	82.4304
210.938	83.8501	210.938	83.816	210.938	83.8704	210.938	83.7685	210.938	83.8772	210.938	83.7088	210.938	83.8712	210.938	83.6394	210.938	83.8533	210.938	83.5633	210.938	83.8236	210.938	83.4836	210.938	83.7813	210.938	83.4017	210.938	83.7237	210.938	83.3169	210.938	83.6473	210.938	83.2258	210.938	83.5478	210.938	83.124	210.938	83.4227	210.938	83.0081	210.938	83.2733	210.938	82.8789	210.938	83.1057	210.938	82.7425	210.938	82.9306	210.938	82.6098	210.938	82.7612	210.938	82.4943	210.938	82.6103	210.938	82.4088	210.938	82.4886	210.938	82.3628	210.938	82.4038	210.938	82.3609
218.262	83.7631	218.262	83.7615	218.262	83.7513	218.262	83.7449	218.262	83.7292	218.262	83.7137	218.262	83.7012	218.262	83.6694	218.262	83.6714	218.262	83.6131	218.262	83.6417	218.262	83.5458	218.262	83.6118	218.262	83.4675	218.262	83.5788	218.262	83.3779	218.262	83.5383	218.262	83.2768	218.262	83.4852	218.262	83.1652	218.262	83.415	218.262	83.0462	218.262	83.325	218.262	82.9257	218.262	83.2163	218.262	82.812	218.262	83.094	218.262	82.7145	218.262	82.9668	218.262	82.6409	218.262	82.8452	218.262	82.5968	218.262	82.7396	218.262	82.5847	218.262	82.6579	218.262	82.6054
225.586	83.8161	225.586	83.8316	225.586	83.7847	225.586	83.8339	225.586	83.7361	225.586	83.8254	225.586	83.6721	225.586	83.8073	225.586	83.5973	225.586	83.7791	225.586	83.5177	225.586	83.7395	225.586	83.439	225.586	83.687	225.586	83.364	225.586	83.6202	225.586	83.2929	225.586	83.5373	225.586	83.2234	225.586	83.4368	225.586	83.1527	225.586	83.3191	225.586	83.0797	225.586	83.1884	225.586	83.006	225.586	83.0543	225.586	82.9356	225.586	82.9304	225.586	82.8726	225.586	82.8305	225.586	82.8194	225.586	82.7635	225.586	82.7764	225.586	82.7308	225.586	82.7446	225.586	82.7271
232.91	83.9513	232.91	83.9485	232.91	83.9353	232.91	83.9336	232.91	83.8943	232.91	83.9122	232.91	83.8247	232.91	83.8865	232.91	83.7266	232.91	83.8554	232.91	83.603	232.91	83.8151	232.91	83.4582	232.91	83.7602	232.91	83.2971	232.91	83.6858	232.91	83.1255	232.91	83.5886	232.91	82.9512	232.91	83.4682	232.91	82.7841	232.91	83.3279	232.91	82.635	232.91	83.1752	232.91	82.5133	232.91	83.021	232.91	82.4261	232.91	82.8775	232.91	82.3769	232.91	82.7532	232.91	82.365	232.91	82.6502	232.91	82.3855	232.91	82.5647	232.91	82.4306	232.91	82.4919
241.699	83.9147	241.699	83.905	241.699	83.9063	241.699	83.8757	241.699	83.8799	241.699	83.8266	241.699	83.8345	241.699	83.7589	241.699	83.7687	241.699	83.6762	241.699	83.6809	241.699	83.5827	241.699	83.5704	241.699	83.4811	241.699	83.437	241.699	83.3725	241.699	83.2815	241.699	83.2562	241.699	83.1079	241.699	83.1316	241.699	82.9249	241.699	82.9989	241.699	82.7458	241.699	82.8614	241.699	82.5866	241.699	82.7257	241.699	82.4611	241.699	82.6011	241.699	82.3766	241.699	82.4974	241.699	82.331	241.699	82.42	241.699	82.3155	241.699	82.3684	241.699	82.3195	241.699	82.3369
250.488	83.8847	250.488	83.8962	250.488	83.8438	250.488	83.8768	250.488	83.778	250.488	83.8294	250.488	83.6937	250.488	83.7605	250.488	83.5979	250.488	83.6771	250.488	83.4972	250.488	83.585	250.488	83.3968	250.488	83.4861	250.488	83.2987	250.488	83.3789	250.488	83.2007	250.488	83.2593	250.488	83.0968	250.488	83.1221	250.488	82.98	250.488	82.9646	250.488	82.8461	250.488	82.7899	250.488	82.6963	250.488	82.6093	250.488	82.54	250.488	82.4403	250.488	82.3923	250.488	82.3001	250.488	82.2696	250.488	82.1997	250.488	82.1826	250.488	82.1409	250.488	82.1334	250.488	82.1199
259.277	84.3507	259.277	84.3447	259.277	84.311	259.277	84.2858	259.277	84.2365	259.277	84.1748	259.277	84.1376	259.277	84.0201	259.277	84.0207	259.277	83.8363	259.277	83.8881	259.277	83.6391	259.277	83.7407	259.277	83.4421	259.277	83.5802	259.277	83.2554	259.277	83.4097	259.277	83.0856	259.277	83.2327	259.277	82.9361	259.277	83.0532	259.277	82.8059	259.277	82.875	259.277	82.6897	259.277	82.702	259.277	82.5801	259.277	82.539	259.277	82.472	259.277	82.3926	259.277	82.3665	259.277	82.2722	259.277	82.2706	259.277	82.1878	259.277	82.1949	259.277	82.1467	259.277	82.1506
268.066	84.1814	268.066	84.1431	268.066	84.1708	268.066	84.0641	268.066	84.1093	268.066	83.9563	268.066	84.0012	268.066	83.8319	268.066	83.8555	268.066	83.701	268.066	83.6842	268.066	83.569	268.066	83.4996	268.066	83.4349	268.066	83.3131	268.066	83.2925	268.066	83.1327	268.066	83.1348	268.066	82.9617	268.066	82.96	268.066	82.799	268.066	82.7764	268.066	82.6417	268.066	82.5996	268.066	82.4909	268.066	82.4451	268.066	82.3532	268.066	82.3214	268.066	82.2393	268.066	82.2285	268.066	82.1572	268.066	82.1619	268.066	82.1084	268.066	82.1174	268.066	82.0888	268.066	82.0929
276.855	83.988	276.855	83.9782	276.855	83.9864	276.855	83.9538	276.855	83.9733	276.855	83.9069	276.855	83.9442	276.855	83.8265	276.855	83.89	276.855	83.7023	276.855	83.7972	276.855	83.5296	276.855	83.6525	276.855	83.3152	276.855	83.4494	276.855	83.078	276.855	83.1944	276.855	82.845	276.855	82.909	276.855	82.6426	276.855	82.6235	276.855	82.4881	276.855	82.3659	276.855	82.3844	276.855	82.1508	276.855	82.3199	276.855	81.9797	276.855	82.2725	276.855	81.8526	276.855	82.2175	276.855	81.7772	276.855	82.1377	276.855	81.7648	276.855	82.0315	276.855	81.8163	276.855	81.9149
287.109	84.0859	287.109	84.0401	287.109	84.0742	287.109	83.9424	287.109	84.0091	287.109	83.8051	287.109	83.9052	287.109	83.6452	287.109	83.7853	287.109	83.4819	287.109	83.6746	287.109	83.333	287.109	83.5893	287.109	83.2085	287.109	83.5268	287.109	83.1049	287.109	83.4637	287.109	83.0048	287.109	83.3669	287.109	82.8849	287.109	83.2124	287.109	82.7288	287.109	83.0006	287.109	82.5361	287.109	82.7595	287.109	82.3264	287.109	82.5298	287.109	82.1326	287.109	82.3412	287.109	81.9873	287.109	82.1988	287.109	81.9086	287.109	82.0898	287.109	81.8955	287.109	82.0014	287.109	81.9326
297.363	83.8662	297.363	83.9136	297.363	83.7984	297.363	83.9491	297.363	83.705	297.363	83.9808	297.363	83.5843	297.363	84.0102	297.363	83.437	297.363	84.0277	297.363	83.2662	297.363	84.014	297.363	83.0793	297.363	83.9463	297.363	82.8885	297.363	83.8052	297.363	82.7064	297.363	83.5812	297.363	82.5406	297.363	83.2815	297.363	82.392	297.363	82.9387	297.363	82.2617	297.363	82.6111	297.363	82.1574	297.363	82.362	297.363	82.0915	297.363	82.2242	297.363	82.0702	297.363	82.1801	297.363	82.0862	297.363	82.1829	297.363	82.1217	297.363	82.1908	297.363	82.1584	297.363	82.1836
307.617	83.732	307.617	83.6714	307.617	83.7583	307.617	83.5824	307.617	83.7506	307.617	83.4754	307.617	83.7141	307.617	83.3649	307.617	83.6562	307.617	83.2674	307.617	83.5806	307.617	83.1998	307.617	83.4846	307.617	83.1746	307.617	83.3613	307.617	83.1927	307.617	83.204	307.617	83.2346	307.617	83.0113	307.617	83.2566	307.617	82.7873	307.617	83.2026	307.617	82.5412	307.617	83.0288	307.617	82.2872	307.617	82.73	307.617	82.0469	307.617	82.3555	307.617	81.8475	307.617	81.9974	307.617	81.71	307.617	81.7434	307.617	81.6344	307.617	81.6201	307.617	81.5997	307.617	81.5892
319.336	82.8453	319.336	82.7943	319.336	82.7846	319.336	82.6311	319.336	82.6352	319.336	82.3791	319.336	82.439	319.336	82.0843	319.336	82.2529	319.336	81.8057	319.336	82.1378	319.336	81.5999	319.336	82.1394	319.336	81.5065	319.336	82.2678	319.336	81.543	319.336	82.4916	319.336	81.7081	319.336	82.7549	319.336	81.9804	319.336	83.002	319.336	82.3147	319.336	83.1937	319.336	82.6476	319.336	83.3103	319.336	82.9174	319.336	83.3478	319.336	83.0853	319.336	83.315	319.336	83.1462	319.336	83.2334	319.336	83.1271	319.336	83.1372	319.336	83.0765	319.336	83.0654	319.336	83.0453
329.59	84.1658	329.59	84.1159	329.59	84.1079	329.59	83.9611	329.59	83.9372	329.59	83.7033	329.59	83.6506	329.59	83.348	329.59	83.2543	329.59	82.9106	329.59	82.7718	329.59	82.4218	329.59	82.2517	329.59	81.9286	329.59	81.7711	329.59	81.4923	329.59	81.4248	329.59	81.1839	329.59	81.2893	329.59	81.0733	329.59	81.3797	329.59	81.203	329.59	81.6412	329.59	81.5538	329.59	81.9891	329.59	82.039	329.59	82.3521	329.59	82.5426	329.59	82.6875	329.59	82.9676	329.59	82.9736	329.59	83.2606	329.59	83.1994	329.59	83.4105	329.59	83.357	329.59	83.4342
341.309	84.4488	341.309	84.3831	341.309	84.4072	341.309	84.2181	341.309	84.2593	341.309	83.9702	341.309	84.0131	341.309	83.6589	341.309	83.682	341.309	83.3011	341.309	83.2834	341.309	82.9069	341.309	82.84	341.309	82.4837	341.309	82.3831	341.309	82.0439	341.309	81.9579	341.309	81.6166	341.309	81.6225	341.309	81.255	341.309	81.4322	341.309	81.0312	341.309	81.4121	341.309	81.0047	341.309	81.5407	341.309	81.1774	341.309	81.7605	341.309	81.4813	341.309	82.0053	341.309	81.8192	341.309	82.2207	341.309	82.1124	341.309	82.3729	341.309	82.3196	341.309	82.4451	341.309	82.4294
353.027	84.1475	353.027	84.1802	353.027	84.0568	353.027	84.1476	353.027	83.9017	353.027	84.0278	353.027	83.6708	353.027	83.7948	353.027	83.3544	353.027	83.4387	353.027	82.9481	353.027	82.9814	353.027	82.4567	353.027	82.4762	353.027	81.9002	353.027	81.9878	353.027	81.3195	353.027	81.5645	353.027	80.7745	353.027	81.2253	353.027	80.335	353.027	80.972	353.027	80.0711	353.027	80.8087	353.027	80.0377	353.027	80.7501	353.027	80.2429	353.027	80.8109	353.027	80.6187	353.027	80.9837	353.027	81.0395	353.027	81.2221	353.027	81.382	353.027	81.4491	353.027	81.5706	353.027	81.5848
366.211	84.7184	366.211	84.6033	366.211	84.7141	366.211	84.3798	366.211	84.5911	366.211	84.0762	366.211	84.3531	366.211	83.7305	366.211	84.0035	366.211	83.3712	366.211	83.5507	366.211	83.0024	366.211	83.0153	366.211	82.6125	366.211	82.4333	366.211	82.2027	366.211	81.8551	366.211	81.8118	366.211	81.3455	366.211	81.5141	366.211	80.977	366.211	81.3816	366.211	80.8013	366.211	81.4342	366.211	80.8136	366.211	81.6179	366.211	80.9566	366.211	81.8353	366.211	81.1658	366.211	82.0032	366.211	81.3994	366.211	82.0838	366.211	81.6316	366.211	82.076	366.211	81.8366	366.211	81.9901
379.395	85.295	379.395	85.2847	379.395	85.2202	379.395	85.1699	379.395	85.0808	379.395	84.9355	379.395	84.8908	379.395	84.5715	379.395	84.6514	379.395	84.0748	379.395	84.3506	379.395	83.4541	379.395	83.9724	379.395	82.7374	379.395	83.5088	379.395	81.9784	379.395	82.9691	379.395	81.2591	379.395	82.3859	379.395	80.6808	379.395	81.8243	379.395	80.339	379.395	81.3859	379.395	80.2856	379.395	81.1776	379.395	80.5046	379.395	81.2392	379.395	80.9198	379.395	81.5036	379.395	81.4203	379.395	81.8463	379.395	81.8888	379.395	82.1553	379.395	82.2291	379.395	82.3529	379.395	82.3867
392.578	84.9242	392.578	84.9447	392.578	84.8308	392.578	84.8935	392.578	84.6573	392.578	84.7604	392.578	84.3995	392.578	84.5284	392.578	84.0629	392.578	84.184	392.578	83.6612	392.578	83.7266	392.578	83.2097	392.578	83.1722	392.578	82.7202	392.578	82.5524	392.578	82.2035	392.578	81.9105	392.578	81.681	392.578	81.3059	392.578	81.2025	392.578	80.8217	392.578	80.8555	392.578	80.5569	392.578	80.7352	392.578	80.5751	392.578	80.8704	392.578	80.8413	392.578	81.1832	392.578	81.2323	392.578	81.5421	392.578	81.6135	392.578	81.8381	392.578	81.894	392.578	82.0097	392.578	82.0303
405.762	84.689	405.762	84.5985	405.762	84.6933	405.762	84.4493	405.762	84.5962	405.762	84.268	405.762	84.3954	405.762	84.0632	405.762	84.0961	405.762	83.8146	405.762	83.7058	405.762	83.4807	405.762	83.236	405.762	83.021	405.762	82.7119	405.762	82.4251	405.762	82.177	405.762	81.7419	405.762	81.6795	405.762	81.0873	405.762	81.2507	405.762	80.5991	405.762	80.9082	405.762	80.3558	405.762	80.6864	405.762	80.3473	405.762	80.639	405.762	80.5178	405.762	80.7788	405.762	80.797	405.762	81.0334	405.762	81.1006	405.762	81.2864	405.762	81.3441	405.762	81.446	405.762	81.4677
420.41	85.2611	420.41	85.2211	420.41	85.1902	420.41	85.0751	420.41	85.016	420.41	84.8336	420.41	84.7555	420.41	84.5056	420.41	84.4234	420.41	84.0946	420.41	84.0162	420.41	83.6001	420.41	83.5066	420.41	83.0192	420.41	82.8549	420.41	82.3491	420.41	82.0363	420.41	81.5974	420.41	81.0779	420.41	80.8162	420.41	80.0928	420.41	80.1505	420.41	79.2873	420.41	79.8164	420.41	78.8886	420.41	79.9195	420.41	78.9913	420.41	80.3166	420.41	79.472	420.41	80.7634	420.41	80.0921	420.41	81.0986	420.41	80.6514	420.41	81.264	420.41	81.046	420.41	81.2486
435.059	84.3362	435.059	84.3275	435.059	84.3011	435.059	84.2547	435.059	84.2252	435.059	84.0953	435.059	84.0953	435.059	83.8425	435.059	83.8954	435.059	83.5048	435.059	83.616	435.059	83.0902	435.059	83.2535	435.059	82.5943	435.059	82.8038	435.059	82.0075	435.059	82.2597	435.059	81.3325	435.059	81.6244	435.059	80.6032	435.059	80.9384	435.059	79.8998	435.059	80.3068	435.059	79.358	435.059	79.8846	435.059	79.1462	435.059	79.7932	435.059	79.361	435.059	80.022	435.059	79.9063	435.059	80.4352	435.059	80.5363	435.059	80.8633	435.059	81.0199	435.059	81.1638	435.059	81.2346
451.172	85.0744	451.172	85.0487	451.172	85.0005	451.172	84.9178	451.172	84.8314	451.172	84.6767	451.172	84.5677	451.172	84.3247	451.172	84.2083	451.172	83.8723	451.172	83.7557	451.172	83.343	451.172	83.2135	451.172	82.7618	451.172	82.5787	451.172	82.1378	451.172	81.8502	451.172	81.4644	451.172	81.0564	451.172	80.7522	451.172	80.2779	451.172	80.0773	451.172	79.6391	451.172	79.5939	451.172	79.2727	451.172	79.4571	451.172	79.2764	451.172	79.6946	451.172	79.6519	451.172	80.1793	451.172	80.2562	451.172	80.7229	451.172	80.8583	451.172	81.1578	451.172	81.2596	451.172	81.3602
465.82	84.8256	465.82	84.7045	465.82	84.8212	465.82	84.4909	465.82	84.6913	465.82	84.2307	465.82	84.4615	465.82	83.9506	465.82	84.1573	465.82	83.6401	465.82	83.7873	465.82	83.2581	465.82	83.35	465.82	82.7569	465.82	82.8414	465.82	82.1067	465.82	82.246	465.82	81.3085	465.82	81.5307	465.82	80.4051	465.82	80.6869	465.82	79.4993	465.82	79.8221	465.82	78.7699	465.82	79.1965	465.82	78.4169	465.82	79.0234	465.82	78.5062	465.82	79.2097	465.82	78.8925	465.82	79.4976	465.82	79.3459	465.82	79.7309	465.82	79.695	465.82	79.8641	465.82	79.8658
483.398	84.8145	483.398	84.8083	483.398	84.7412	483.398	84.7276	483.398	84.5955	483.398	84.585	483.398	84.3862	483.398	84.3861	483.398	84.1131	483.398	84.1155	483.398	83.7671	483.398	83.7345	483.398	83.3369	483.398	83.1921	483.398	82.8085	483.398	82.444	483.398	82.1613	483.398	81.4804	483.398	81.3809	483.398	80.3716	483.398	80.5001	483.398	79.3269	483.398	79.6462	483.398	78.6714	483.398	79.0506	483.398	78.6064	483.398	78.9334	483.398	79.002	483.398	79.2832	483.398	79.5725	483.398	79.8382	483.398	80.1028	483.398	80.3258	483.398	80.4807	483.398	80.6086	483.398	80.6569
499.512	84.3861	499.512	84.4265	499.512	84.3126	499.512	84.4121	499.512	84.2037	499.512	84.296	499.512	84.0601	499.512	84.0426	499.512	83.8836	499.512	83.6619	499.512	83.6385	499.512	83.2073	499.512	83.2469	499.512	82.7332	499.512	82.6507	499.512	82.2411	499.512	81.8806	499.512	81.6651	499.512	81.0476	499.512	80.9218	499.512	80.2441	499.512	80.0046	499.512	79.4685	499.512	79.0939	499.512	78.73	499.512	78.5611	499.512	78.247	499.512	78.6507	499.512	78.353	499.512	79.1828	499.512	79.0168	499.512	79.8122	499.512	79.8091	499.512	80.3033	499.512	80.3568	499.512	80.5159
517.09	84.7355	517.09	84.6087	517.09	84.7732	517.09	84.4209	517.09	84.6962	517.09	84.2073	517.09	84.4845	517.09	83.9865	517.09	84.1512	517.09	83.7253	517.09	83.751	517.09	83.3478	517.09	83.3357	517.09	82.7978	517.09	82.8871	517.09	82.0913	517.09	82.3081	517.09	81.2985	517.09	81.4922	517.09	80.4583	517.09	80.4327	517.09	79.5724	517.09	79.322	517.09	78.7836	517.09	78.5243	517.09	78.4733	517.09	78.3197	517.09	78.8474	517.09	78.6932	517.09	79.5866	517.09	79.4135	517.09	80.2744	517.09	80.1656	517.09	80.7208	517.09	80.6884	517.09	80.8712
536.133	84.3144	536.133	84.2881	536.133	84.1969	536.133	84.1354	536.133	83.9577	536.133	83.8919	536.133	83.6375	536.133	83.5845	536.133	83.2597	536.133	83.2336	536.133	82.8311	536.133	82.85	536.133	82.3642	536.133	82.3989	536.133	81.8697	536.133	81.7764	536.133	81.3271	536.133	80.8686	536.133	80.6824	536.133	79.6738	536.133	79.8916	536.133	78.4252	536.133	79.0232	536.133	77.5864	536.133	78.3891	536.133	77.4994	536.133	78.3826	536.133	78.0247	536.133	78.9365	536.133	78.779	536.133	79.6066	536.133	79.4739	536.133	80.094	536.133	79.9822	536.133	80.3142	536.133	80.2691
555.176	84.5652	555.176	84.5185	555.176	84.5406	555.176	84.4047	555.176	84.4422	555.176	84.2294	555.176	84.2594	555.176	83.9808	555.176	83.9773	555.176	83.6269	555.176	83.5883	555.176	83.1502	555.176	83.0856	555.176	82.5756	555.176	82.4346	555.176	81.9263	555.176	81.5598	555.176	81.1482	555.176	80.3784	555.176	80.1092	555.176	78.879	555.176	78.7106	555.176	77.2467	555.176	77.0917	555.176	75.9797	555.176	75.8997	555.176	75.635	555.176	75.9906	555.176	76.1961	555.176	77.1797	555.176	77.1938	555.176	78.5192	555.176	78.248	555.176	79.3806	555.176	79.1131	555.176	79.5579
574.219	84.7289	574.219	84.7827	574.219	84.5963	574.219	84.7011	574.219	84.4376	574.219	84.4779	574.219	84.2711	574.219	84.1858	574.219	84.0788	574.219	83.9098	574.219	83.8322	574.219	83.6325	574.219	83.5115	574.219	83.2189	574.219	83.0887	574.219	82.5387	574.219	82.5177	574.219	81.5809	574.219	81.7464	574.219	80.4218	574.219	80.7041	574.219	79.1014	574.219	79.3083	574.219	77.7276	574.219	77.6677	574.219	76.8806	574.219	76.5396	574.219	77.1527	574.219	76.847	574.219	78.0138	574.219	77.9854	574.219	78.7902	574.219	78.9786	574.219	79.3301	574.219	79.5187	574.219	79.605
594.727	83.8959	594.727	83.8326	594.727	83.8474	594.727	83.6912	594.727	83.6785	594.727	83.5045	594.727	83.4254	594.727	83.2818	594.727	83.1522	594.727	83.0169	594.727	82.8906	594.727	82.7414	594.727	82.6131	594.727	82.5232	594.727	82.2706	594.727	82.3227	594.727	81.7875	594.727	81.9261	594.727	81.0348	594.727	81.1213	594.727	79.9094	594.727	79.8953	594.727	78.4951	594.727	78.48	594.727	77.1648	594.727	77.2817	594.727	76.5041	594.727	76.8071	594.727	76.8939	594.727	77.3328	594.727	77.8982	594.727	78.3813	594.727	78.8076	594.727	79.2161	594.727	79.3602	594.727	79.5263
615.234	84.2722	615.234	84.2451	615.234	84.2068	615.234	84.1223	615.234	84.035	615.234	83.8863	615.234	83.7392	615.234	83.5303	615.234	83.3307	615.234	83.0801	615.234	82.8704	615.234	82.5637	615.234	82.4243	615.234	81.9771	615.234	81.9889	615.234	81.3013	615.234	81.4716	615.234	80.5172	615.234	80.7538	615.234	79.5885	615.234	79.7868	615.234	78.4616	615.234	78.6421	615.234	77.1445	615.234	77.4945	615.234	75.9494	615.234	76.5566	615.234	75.6049	615.234	76.0723	615.234	76.2718	615.234	76.328	615.234	77.2219	615.234	77.2006	615.234	77.9629	615.234	78.0177	615.234	78.2855
637.207	84.8768	637.207	84.7422	637.207	84.811	637.207	84.485	637.207	84.5599	637.207	84.2161	637.207	84.1892	637.207	83.9752	637.207	83.7433	637.207	83.7242	637.207	83.2457	637.207	83.4331	637.207	82.7518	637.207	83.0935	637.207	82.3191	637.207	82.6413	637.207	81.9003	637.207	81.9512	637.207	81.3319	637.207	80.9366	637.207	80.4356	637.207	79.5908	637.207	79.1073	637.207	78.0142	637.207	77.465	637.207	76.7535	637.207	76.251	637.207	76.7416	637.207	76.4011	637.207	77.7686	637.207	77.4303	637.207	78.8993	637.207	78.508	637.207	79.6405	637.207	79.3566	637.207	79.7922
659.18	84.8331	659.18	84.7638	659.18	84.7755	659.18	84.5883	659.18	84.5897	659.18	84.355	659.18	84.3102	659.18	84.0959	659.18	84.0094	659.18	83.7708	659.18	83.7081	659.18	83.3177	659.18	83.3247	659.18	82.7394	659.18	82.7718	659.18	82.1128	659.18	82.0187	659.18	81.4736	659.18	81.0322	659.18	80.7085	659.18	79.8216	659.18	79.6807	659.18	78.496	659.18	78.468	659.18	77.1343	659.18	77.5365	659.18	76.085	659.18	77.5319	659.18	76.4825	659.18	78.2625	659.18	78.0661	659.18	78.977	659.18	79.3288	659.18	79.4515	659.18	79.8215	659.18	79.7651
682.617	85.2173	682.617	85.3302	682.617	84.9688	682.617	85.2783	682.617	84.6459	682.617	85.0152	682.617	84.3533	682.617	84.5518	682.617	84.1025	682.617	84.0238	682.617	83.7975	682.617	83.6065	682.617	83.4071	682.617	83.2733	682.617	82.9696	682.617	82.7303	682.617	82.4312	682.617	81.7783	682.617	81.6514	682.617	80.5299	682.617	80.5082	682.617	79.1196	682.617	78.9163	682.617	77.6841	682.617	77.0895	682.617	76.8982	682.617	76.1431	682.617	77.2819	682.617	76.9524	682.617	78.4896	682.617	78.5451	682.617	79.9345	682.617	80.0066	682.617	80.9894	682.617	80.9893	682.617	81.3434
707.52	85.8711	707.52	85.9007	707.52	85.6835	707.52	85.7057	707.52	85.4184	707.52	85.3691	707.52	85.0658	707.52	85.0339	707.52	84.6235	707.52	84.7228	707.52	84.1499	707.52	84.3652	707.52	83.6929	707.52	83.9781	707.52	83.3123	707.52	83.6473	707.52	82.9865	707.52	83.1761	707.52	82.3948	707.52	82.0608	707.52	81.1313	707.52	79.8838	707.52	78.995	707.52	76.5574	707.52	76.1611	707.52	73.2428	707.52	74.2297	707.52	73.9969	707.52	75.1624	707.52	77.2001	707.52	77.2854	707.52	79.6674	707.52	79.3157	707.52	81.0431	707.52	80.7926	707.52	81.405
732.422	85.4715	732.422	85.3155	732.422	85.4797	732.422	85.0737	732.422	85.2355	732.422	84.7483	732.422	84.761	732.422	84.3336	732.422	84.3116	732.422	83.8447	732.422	84.0855	732.422	83.3093	732.422	83.9417	732.422	82.7499	732.422	83.6757	732.422	82.1778	732.422	83.2285	732.422	81.599	732.422	82.5554	732.422	80.8895	732.422	81.5198	732.422	79.7351	732.422	79.8941	732.422	77.8626	732.422	77.3185	732.422	75.5777	732.422	73.978	732.422	74.6557	732.422	73.5681	732.422	75.5805	732.422	76.097	732.422	76.9005	732.422	78.1381	732.422	78.2555	732.422	79.2071	732.422	79.1981
757.324	84.83	757.324	84.7504	757.324	84.6221	757.324	84.4285	757.324	84.1954	757.324	84.0047	757.324	83.6209	757.324	83.5556	757.324	82.9538	757.324	83.086	757.324	82.353	757.324	82.7549	757.324	81.9915	757.324	82.7569	757.324	81.8259	757.324	82.8841	757.324	81.71	757.324	82.6623	757.324	81.5295	757.324	81.7635	757.324	80.9658	757.324	80.1156	757.324	79.514	757.324	77.8345	757.324	76.9378	757.324	75.436	757.324	74.0472	757.324	74.7442	757.324	73.8903	757.324	76.2121	757.324	76.0557	757.324	77.9083	757.324	77.8976	757.324	79.0167	757.324	78.9977	757.324	79.3782
785.156	85.4615	785.156	85.5002	785.156	85.2399	785.156	85.1997	785.156	84.9582	785.156	84.5667	785.156	84.6022	785.156	83.6739	785.156	84.1875	785.156	82.6996	785.156	83.7115	785.156	82.0447	785.156	83.1536	785.156	81.6992	785.156	82.6941	785.156	81.3062	785.156	82.3564	785.156	80.9704	785.156	81.762	785.156	80.8251	785.156	80.5999	785.156	80.4218	785.156	78.7823	785.156	79.019	785.156	76.3698	785.156	76.1306	785.156	73.4346	785.156	73.151	785.156	71.3491	785.156	74.2399	785.156	74.36	785.156	76.9317	785.156	77.9182	785.156	78.8516	785.156	79.5695	785.156	79.7605
811.523	84.7184	811.523	84.5446	811.523	84.7248	811.523	84.368	811.523	84.3554	811.523	83.9604	811.523	83.6977	811.523	83.1847	811.523	82.8955	811.523	82.2386	811.523	82.1019	811.523	81.3467	811.523	81.5403	811.523	80.7816	811.523	81.3163	811.523	80.5564	811.523	81.4581	811.523	80.2209	811.523	81.6382	811.523	79.4943	811.523	81.1431	811.523	78.464	811.523	79.5007	811.523	76.9359	811.523	76.6959	811.523	74.5479	811.523	73.7698	811.523	73.4364	811.523	73.1917	811.523	75.6568	811.523	74.5048	811.523	77.5908	811.523	76.1746	811.523	78.4294	811.523	77.5937	811.523	78.4025
840.82	85.6983	840.82	85.533	840.82	85.5867	840.82	84.951	840.82	85.243	840.82	84.0865	840.82	84.4743	840.82	83.1441	840.82	83.2563	840.82	82.1477	840.82	81.9113	840.82	81.1638	840.82	80.86	840.82	80.3272	840.82	80.4546	840.82	79.9242	840.82	80.7809	840.82	80.2667	840.82	81.2496	840.82	80.5467	840.82	80.9965	840.82	79.8184	840.82	79.7503	840.82	77.9779	840.82	77.7509	840.82	74.923	840.82	74.8242	840.82	70.9262	840.82	71.8873	840.82	71.7323	840.82	74.313	840.82	75.2795	840.82	77.1545	840.82	77.5016	840.82	78.3598	840.82	78.4386
870.117	86.8746	870.117	86.7851	870.117	86.7395	870.117	86.5383	870.117	86.3242	870.117	86.0772	870.117	85.5945	870.117	85.18	870.117	84.5357	870.117	83.6957	870.117	83.2338	870.117	81.9938	870.117	82.0447	870.117	80.9674	870.117	81.4108	870.117	80.5777	870.117	81.2339	870.117	79.8739	870.117	81.2554	870.117	78.9503	870.117	81.2348	870.117	78.3371	870.117	80.5507	870.117	77.0569	870.117	78.6721	870.117	74.0461	870.117	75.6939	870.117	69.6342	870.117	73.1223	870.117	70.8074	870.117	74.623	870.117	74.8113	870.117	76.9052	870.117	77.0491	870.117	77.8242	870.117	77.8631
900.879	88.1885	900.879	87.9323	900.879	87.9035	900.879	87.359	900.879	87.2856	900.879	86.6697	900.879	86.6473	900.879	85.7915	900.879	85.8499	900.879	84.6567	900.879	84.6362	900.879	83.1448	900.879	83.1486	900.879	81.2141	900.879	81.971	900.879	79.8127	900.879	81.7622	900.879	80.1916	900.879	82.0488	900.879	80.739	900.879	82.0463	900.879	80.084	900.879	81.3867	900.879	78.527	900.879	79.2022	900.879	76.0337	900.879	75.0156	900.879	72.449	900.879	71.7621	900.879	74.208	900.879	74.2273	900.879	77.9606	900.879	77.9442	900.879	80.0042	900.879	80.072	900.879	80.6656
933.105	87.9635	933.105	87.9662	933.105	87.8971	933.105	87.8483	933.105	87.5759	933.105	87.2994	933.105	87.0244	933.105	86.2043	933.105	86.3173	933.105	84.8186	933.105	85.1886	933.105	83.6091	933.105	83.6493	933.105	82.827	933.105	82.5022	933.105	82.3198	933.105	82.0621	933.105	81.8204	933.105	82.3987	933.105	81.2822	933.105	82.6395	933.105	80.8795	933.105	81.5828	933.105	80.3084	933.105	79.4412	933.105	78.4922	933.105	76.4485	933.105	74.3788	933.105	73.2269	933.105	70.2139	933.105	75.0636	933.105	75.0169	933.105	77.3204	933.105	77.8921	933.105	77.8667	933.105	78.1961
965.332	88.3528	965.332	87.9666	965.332	88.2576	965.332	87.4924	965.332	87.8444	965.332	87.2541	965.332	87.3628	965.332	86.8124	965.332	86.5953	965.332	85.7496	965.332	85.337	965.332	84.2498	965.332	83.883	965.332	82.5637	965.332	82.5039	965.332	81.0429	965.332	81.6739	965.332	80.5742	965.332	81.7235	965.332	81.2354	965.332	81.3588	965.332	81.4457	965.332	80.1595	965.332	80.3967	965.332	78.6279	965.332	77.9849	965.332	76.0961	965.332	73.1197	965.332	71.1969	965.332	73.4185	965.332	71.1033	965.332	77.9411	965.332	76.314	965.332	79.6727	965.332	78.6419	965.332	79.6591
1,000.49	87.9127	1,000.49	87.8828	1,000.49	87.7608	1,000.49	87.5234	1,000.49	87.3315	1,000.49	86.8207	1,000.49	86.4294	1,000.49	85.8798	1,000.49	85.4658	1,000.49	84.6331	1,000.49	84.6996	1,000.49	83.1809	1,000.49	83.2808	1,000.49	82.0059	1,000.49	81.0318	1,000.49	81.6924	1,000.49	79.64	1,000.49	81.4374	1,000.49	80.4264	1,000.49	80.0899	1,000.49	81.4187	1,000.49	79.2174	1,000.49	80.577	1,000.49	78.6694	1,000.49	78.1079	1,000.49	76.0919	1,000.49	75.5167	1,000.49	70.5849	1,000.49	72.6354	1,000.49	70.518	1,000.49	72.5471	1,000.49	75.3642	1,000.49	76.7704	1,000.49	78.0726	1,000.49	78.7711	1,000.49	78.9514
1,035.64	87.3742	1,035.64	87.6933	1,035.64	87.021	1,035.64	87.6109	1,035.64	86.6468	1,035.64	87.0721	1,035.64	86.1808	1,035.64	86.3436	1,035.64	85.4786	1,035.64	85.3475	1,035.64	84.2155	1,035.64	83.779	1,035.64	82.5602	1,035.64	81.9385	1,035.64	80.7104	1,035.64	79.9837	1,035.64	78.9602	1,035.64	78.1473	1,035.64	79.0697	1,035.64	77.8978	1,035.64	79.9586	1,035.64	78.4557	1,035.64	80.0524	1,035.64	77.777	1,035.64	78.6315	1,035.64	75.1739	1,035.64	75.9835	1,035.64	70.7972	1,035.64	70.7317	1,035.64	68.3263	1,035.64	70.5267	1,035.64	73.7775	1,035.64	75.6313	1,035.64	75.7846	1,035.64	77.0674	1,035.64	76.66
1,072.27	87.0928	1,072.27	86.8263	1,072.27	86.9563	1,072.27	86.6253	1,072.27	86.5214	1,072.27	86.4057	1,072.27	85.8972	1,072.27	85.7473	1,072.27	84.7923	1,072.27	84.6652	1,072.27	83.4427	1,072.27	83.4333	1,072.27	81.829	1,072.27	82.0856	1,072.27	80.1595	1,072.27	81.2712	1,072.27	78.9989	1,072.27	81.0328	1,072.27	78.1077	1,072.27	80.057	1,072.27	78.957	1,072.27	78.6395	1,072.27	79.495	1,072.27	78.1133	1,072.27	77.9371	1,072.27	76.8083	1,072.27	74.6151	1,072.27	70.793	1,072.27	69.1461	1,072.27	64.1566	1,072.27	67.3613	1,072.27	72.7436	1,072.27	73.9102	1,072.27	76.0271	1,072.27	76.541	1,072.27	76.9323
1,108.89	86.7959	1,108.89	87.0995	1,108.89	86.7137	1,108.89	87.1846	1,108.89	86.5593	1,108.89	86.5347	1,108.89	86.0099	1,108.89	85.679	1,108.89	84.9257	1,108.89	85.2318	1,108.89	83.6404	1,108.89	84.2383	1,108.89	82.6941	1,108.89	82.6168	1,108.89	81.2348	1,108.89	80.7905	1,108.89	77.8263	1,108.89	79.0289	1,108.89	73.8662	1,108.89	78.3845	1,108.89	75.2752	1,108.89	78.388	1,108.89	77.2988	1,108.89	78.3173	1,108.89	77.0616	1,108.89	76.7969	1,108.89	74.6365	1,108.89	73.1687	1,108.89	69.4458	1,108.89	67.5345	1,108.89	67.9074	1,108.89	73.3117	1,108.89	72.6892	1,108.89	76.6417	1,108.89	77.0116	1,108.89	78.3174
1,148.44	86.9122	1,148.44	86.5863	1,148.44	87.0281	1,148.44	86.4129	1,148.44	86.7294	1,148.44	86.0294	1,148.44	86.2686	1,148.44	85.3764	1,148.44	85.3738	1,148.44	84.5752	1,148.44	84.096	1,148.44	83.6051	1,148.44	83.0827	1,148.44	82.1167	1,148.44	81.8749	1,148.44	79.7145	1,148.44	79.9286	1,148.44	77.4936	1,148.44	77.8097	1,148.44	77.3746	1,148.44	77.0398	1,148.44	78.3393	1,148.44	76.8696	1,148.44	78.8019	1,148.44	76.0953	1,148.44	77.6314	1,148.44	74.6194	1,148.44	73.1695	1,148.44	71.6646	1,148.44	64.2736	1,148.44	56.6237	1,148.44	71.1258	1,148.44	72.1214	1,148.44	75.5839	1,148.44	76.1886	1,148.44	76.9368
1,189.45	86.9559	1,189.45	86.7922	1,189.45	86.716	1,189.45	86.3978	1,189.45	86.4349	1,189.45	85.9265	1,189.45	86.1422	1,189.45	84.9477	1,189.45	85.4726	1,189.45	84.1315	1,189.45	84.2905	1,189.45	83.306	1,189.45	83.0147	1,189.45	81.6799	1,189.45	81.6738	1,189.45	80.743	1,189.45	80.2756	1,189.45	80.1914	1,189.45	78.4511	1,189.45	79.9657	1,189.45	77.2188	1,189.45	78.7342	1,189.45	78.2451	1,189.45	78.4357	1,189.45	78.3063	1,189.45	77.0614	1,189.45	76.0272	1,189.45	72.1998	1,189.45	71.6144	1,189.45	64.7355	1,189.45	66.2151	1,189.45	68.8915	1,189.45	68.9374	1,189.45	74.3564	1,189.45	74.697	1,189.45	75.9721
1,230.47	87.077	1,230.47	86.6141	1,230.47	87.0903	1,230.47	85.8652	1,230.47	86.9077	1,230.47	85.2431	1,230.47	86.6303	1,230.47	84.74	1,230.47	86.1806	1,230.47	84.0029	1,230.47	85.666	1,230.47	83.2201	1,230.47	84.9122	1,230.47	82.1688	1,230.47	83.1568	1,230.47	80.19	1,230.47	81.5102	1,230.47	79.1631	1,230.47	79.7866	1,230.47	78.4509	1,230.47	78.8503	1,230.47	77.6138	1,230.47	80.0449	1,230.47	76.2251	1,230.47	79.5816	1,230.47	76.5371	1,230.47	77.5833	1,230.47	73.651	1,230.47	74.3669	1,230.47	68.2515	1,230.47	69.4371	1,230.47	65.9291	1,230.47	68.6845	1,230.47	71.3181	1,230.47	73.1003	1,230.47	74.1678
1,274.41	88.3078	1,274.41	88.3025	1,274.41	88.2533	1,274.41	87.8097	1,274.41	87.8372	1,274.41	86.8212	1,274.41	87.2581	1,274.41	86.1268	1,274.41	86.3959	1,274.41	85.3772	1,274.41	85.4835	1,274.41	84.1333	1,274.41	84.5627	1,274.41	82.3836	1,274.41	82.9131	1,274.41	80.3258	1,274.41	81.0772	1,274.41	78.5	1,274.41	79.8363	1,274.41	77.7977	1,274.41	79.1594	1,274.41	78.0402	1,274.41	80.2241	1,274.41	76.7622	1,274.41	81.1908	1,274.41	75.1289	1,274.41	79.538	1,274.41	71.0833	1,274.41	75.7079	1,274.41	63.484	1,274.41	71.1698	1,274.41	68.1171	1,274.41	70.4472	1,274.41	74.8082	1,274.41	71.7215	1,274.41	73.6156
1,319.82	89.1278	1,319.82	88.9784	1,319.82	88.8155	1,319.82	88.6432	1,319.82	88.4697	1,319.82	88.1295	1,319.82	87.9209	1,319.82	87.2802	1,319.82	87.3564	1,319.82	86.5181	1,319.82	86.2846	1,319.82	85.2734	1,319.82	85.1274	1,319.82	83.5716	1,319.82	83.672	1,319.82	80.6036	1,319.82	81.9695	1,319.82	78.0173	1,319.82	79.9554	1,319.82	77.4647	1,319.82	77.4005	1,319.82	77.0373	1,319.82	77.9511	1,319.82	76.4462	1,319.82	77.6805	1,319.82	76.1882	1,319.82	77.0459	1,319.82	74.767	1,319.82	74.7238	1,319.82	69.1835	1,319.82	70.5167	1,319.82	71.4326	1,319.82	74.639	1,319.82	75.2159	1,319.82	76.2065	1,319.82	76.8726
1,366.7	89.0742	1,366.7	89.0121	1,366.7	89.1943	1,366.7	88.8419	1,366.7	88.7754	1,366.7	88.017	1,366.7	87.8984	1,366.7	87.1987	1,366.7	87.0156	1,366.7	86.0975	1,366.7	85.8647	1,366.7	84.5348	1,366.7	84.7121	1,366.7	83.1146	1,366.7	83.3095	1,366.7	81.6501	1,366.7	81.6346	1,366.7	81.3232	1,366.7	79.8998	1,366.7	81.225	1,366.7	78.3118	1,366.7	80.6597	1,366.7	77.7446	1,366.7	78.9847	1,366.7	78.0781	1,366.7	76.6837	1,366.7	76.9269	1,366.7	73.8684	1,366.7	74.7457	1,366.7	69.1834	1,366.7	72.6953	1,366.7	70.3968	1,366.7	74.2681	1,366.7	74.4995	1,366.7	75.9381	1,366.7	76.3051
1,413.57	89.2863	1,413.57	88.9486	1,413.57	89.1946	1,413.57	88.7114	1,413.57	88.4885	1,413.57	88.1688	1,413.57	87.7107	1,413.57	87.1243	1,413.57	86.8939	1,413.57	86.1057	1,413.57	85.8701	1,413.57	85.5651	1,413.57	84.6353	1,413.57	84.2276	1,413.57	83.2083	1,413.57	81.7642	1,413.57	81.1491	1,413.57	79.9054	1,413.57	79.8928	1,413.57	79.1416	1,413.57	79.0982	1,413.57	79.4505	1,413.57	78.8049	1,413.57	79.1832	1,413.57	77.515	1,413.57	76.1587	1,413.57	75.7063	1,413.57	73.9227	1,413.57	73.7207	1,413.57	72.3932	1,413.57	72.2568	1,413.57	72.7108	1,413.57	72.5808	1,413.57	75.9845	1,413.57	74.1901	1,413.57	76.4073
1,463.38	88.03	1,463.38	88.0864	1,463.38	87.6111	1,463.38	87.6343	1,463.38	86.9015	1,463.38	86.8236	1,463.38	86.0581	1,463.38	86.1504	1,463.38	85.4102	1,463.38	85.5546	1,463.38	84.606	1,463.38	84.581	1,463.38	83.2058	1,463.38	82.5239	1,463.38	81.2814	1,463.38	80.3114	1,463.38	79.2359	1,463.38	77.3906	1,463.38	77.3547	1,463.38	78.7975	1,463.38	76.5394	1,463.38	80.471	1,463.38	77.2011	1,463.38	78.2385	1,463.38	74.1667	1,463.38	73.4773	1,463.38	72.4509	1,463.38	66.8579	1,463.38	63.6336	1,463.38	72.1452	1,463.38	73.8381	1,463.38	76.211	1,463.38	75.6015	1,463.38	77.3821	1,463.38	77.4516	1,463.38	78.113
1,516.11	87.4912	1,516.11	87.3312	1,516.11	87.3327	1,516.11	86.5019	1,516.11	86.1059	1,516.11	85.7508	1,516.11	84.8521	1,516.11	85.1423	1,516.11	84.3205	1,516.11	83.9681	1,516.11	83.2502	1,516.11	83.3483	1,516.11	82.229	1,516.11	81.097	1,516.11	80.7857	1,516.11	79.2919	1,516.11	78.02	1,516.11	76.292	1,516.11	73.9652	1,516.11	74.402	1,516.11	75.116	1,516.11	76.7124	1,516.11	77.3677	1,516.11	77.2139	1,516.11	76.8561	1,516.11	75.5739	1,516.11	74.4004	1,516.11	67.8083	1,516.11	64.8446	1,516.11	68.8724	1,516.11	71.3632	1,516.11	76.2239	1,516.11	76.2887	1,516.11	78.8742	1,516.11	78.1962	1,516.11	79.763
1,568.85	86.189	1,568.85	86.3138	1,568.85	85.9922	1,568.85	85.6298	1,568.85	85.0089	1,568.85	84.734	1,568.85	84.131	1,568.85	82.6539	1,568.85	82.4731	1,568.85	81.1578	1,568.85	80.2821	1,568.85	79.3225	1,568.85	80.0577	1,568.85	79.5092	1,568.85	79.592	1,568.85	78.4815	1,568.85	79.221	1,568.85	75.4087	1,568.85	75.4883	1,568.85	68.9281	1,568.85	71.5932	1,568.85	73.0694	1,568.85	74.3601	1,568.85	76.9635	1,568.85	75.9259	1,568.85	75.8176	1,568.85	75.1313	1,568.85	72.3994	1,568.85	72.4089	1,568.85	63.5676	1,568.85	63.9414	1,568.85	71.8089	1,568.85	72.8958	1,568.85	76.1074	1,568.85	76.1495	1,568.85	77.2231
1,624.51	86.0603	1,624.51	85.7539	1,624.51	85.8011	1,624.51	85.2927	1,624.51	85.42	1,624.51	84.5551	1,624.51	84.7857	1,624.51	83.5182	1,624.51	82.7405	1,624.51	82.1553	1,624.51	81.8477	1,624.51	80.2743	1,624.51	79.7244	1,624.51	79.822	1,624.51	78.3356	1,624.51	78.9593	1,624.51	77.4421	1,624.51	74.7958	1,624.51	74.171	1,624.51	69.8547	1,624.51	72.6994	1,624.51	69.2815	1,624.51	72.2159	1,624.51	74.449	1,624.51	76.2995	1,624.51	76.0775	1,624.51	76.0398	1,624.51	71.8518	1,624.51	72.4906	1,624.51	65.4237	1,624.51	62.3005	1,624.51	69.2947	1,624.51	64.2403	1,624.51	73.8331	1,624.51	74.5101	1,624.51	74.4721
1,681.64	86.0237	1,681.64	86.0265	1,681.64	85.7865	1,681.64	85.3619	1,681.64	85.1257	1,681.64	84.2651	1,681.64	84.3025	1,681.64	83.0813	1,681.64	83.0854	1,681.64	80.7884	1,681.64	80.8127	1,681.64	78.1372	1,681.64	79.6111	1,681.64	78.1708	1,681.64	78.6912	1,681.64	77.7457	1,681.64	76.3268	1,681.64	73.4987	1,681.64	76.8172	1,681.64	72.5735	1,681.64	72.0308	1,681.64	68.5414	1,681.64	69.5087	1,681.64	73.7933	1,681.64	74.4031	1,681.64	75.1484	1,681.64	75.9978	1,681.64	74.0757	1,681.64	73.6757	1,681.64	65.0335	1,681.64	62.6655	1,681.64	64.3758	1,681.64	66.7049	1,681.64	71.7539	1,681.64	75.0445	1,681.64	75.8241
1,741.7	86.3547	1,741.7	86.2022	1,741.7	86.1531	1,741.7	86.1712	1,741.7	85.697	1,741.7	85.4097	1,741.7	84.6468	1,741.7	83.9233	1,741.7	83.238	1,741.7	82.3461	1,741.7	80.418	1,741.7	79.3804	1,741.7	79.5307	1,741.7	78.7001	1,741.7	77.9203	1,741.7	76.4629	1,741.7	78.4422	1,741.7	77.0792	1,741.7	76.1497	1,741.7	71.8823	1,741.7	72.1844	1,741.7	71.335	1,741.7	73.5642	1,741.7	70.4613	1,741.7	71.8358	1,741.7	71.6759	1,741.7	74.9909	1,741.7	72.0605	1,741.7	70.7067	1,741.7	70.601	1,741.7	65.8395	1,741.7	64.184	1,741.7	63.7283	1,741.7	63.5616	1,741.7	72.4657	1,741.7	71.7231
1,803.22	86.5144	1,803.22	85.8621	1,803.22	85.9059	1,803.22	85.7811	1,803.22	85.5545	1,803.22	85.4182	1,803.22	84.4163	1,803.22	83.8585	1,803.22	83.4496	1,803.22	81.9986	1,803.22	81.4932	1,803.22	81.4173	1,803.22	78.2846	1,803.22	78.4632	1,803.22	76.209	1,803.22	78.3136	1,803.22	76.0441	1,803.22	76.6723	1,803.22	75.476	1,803.22	74.9858	1,803.22	72.4646	1,803.22	66.4408	1,803.22	69.8219	1,803.22	68.1357	1,803.22	70.5912	1,803.22	71.3035	1,803.22	73.8953	1,803.22	70.4489	1,803.22	72.5977	1,803.22	67.7883	1,803.22	59.3232	1,803.22	59.8474	1,803.22	60.2809	1,803.22	70.783	1,803.22	68.0251	1,803.22	71.1861
1,866.21	85.6115	1,866.21	85.2813	1,866.21	85.3544	1,866.21	84.8823	1,866.21	84.3613	1,866.21	84.0956	1,866.21	84.1569	1,866.21	82.449	1,866.21	82.0442	1,866.21	81.0486	1,866.21	80.874	1,866.21	79.8805	1,866.21	77.8642	1,866.21	76.5098	1,866.21	76.5801	1,866.21	76.2986	1,866.21	75.4687	1,866.21	75.2681	1,866.21	74.4402	1,866.21	75.0056	1,866.21	72.9261	1,866.21	69.8528	1,866.21	68.1683	1,866.21	65.3515	1,866.21	67.3708	1,866.21	70.6821	1,866.21	70.3796	1,866.21	68.9727	1,866.21	72.0703	1,866.21	64.463	1,866.21	69.138	1,866.21	59.6096	1,866.21	59.6873	1,866.21	67.3729	1,866.21	65.3404	1,866.21	71.0572
1,932.13	85.0324	1,932.13	85.0014	1,932.13	85.0516	1,932.13	84.4784	1,932.13	84.7324	1,932.13	83.65	1,932.13	83.3083	1,932.13	82.3481	1,932.13	82.2335	1,932.13	80.4842	1,932.13	80.7218	1,932.13	79.1232	1,932.13	78.8044	1,932.13	76.33	1,932.13	75.3284	1,932.13	74.9228	1,932.13	72.5728	1,932.13	74.022	1,932.13	73.8775	1,932.13	73.144	1,932.13	73.7856	1,932.13	69.5491	1,932.13	67.8347	1,932.13	65.1285	1,932.13	66.3015	1,932.13	70.5069	1,932.13	68.6361	1,932.13	71.7757	1,932.13	70.6067	1,932.13	66.4948	1,932.13	66.875	1,932.13	54.9798	1,932.13	49.4357	1,932.13	64.6472	1,932.13	61.9536	1,932.13	68.6345
1,999.51	84.9161	1,999.51	84.6315	1,999.51	84.6465	1,999.51	84.0721	1,999.51	84.5094	1,999.51	83.0771	1,999.51	83.5727	1,999.51	81.4751	1,999.51	82.9407	1,999.51	79.2843	1,999.51	80.9942	1,999.51	77.759	1,999.51	79.5116	1,999.51	75.3829	1,999.51	76.6795	1,999.51	71.8198	1,999.51	75.5513	1,999.51	69.6272	1,999.51	73.4329	1,999.51	69.8818	1,999.51	72.067	1,999.51	68.3444	1,999.51	71.6258	1,999.51	67.8185	1,999.51	67.8659	1,999.51	62.5901	1,999.51	67.1851	1,999.51	65.754	1,999.51	68.5453	1,999.51	62.8446	1,999.51	67.7138	1,999.51	59.5967	1,999.51	63.0869	1,999.51	61.3012	1,999.51	65.4156	1,999.51	66.3721
2,069.82	84.2594	2,069.82	83.8554	2,069.82	84.0734	2,069.82	83.1808	2,069.82	83.672	2,069.82	82.0588	2,069.82	83.1963	2,069.82	80.9337	2,069.82	82.0196	2,069.82	79.648	2,069.82	80.8571	2,069.82	77.2965	2,069.82	78.8297	2,069.82	74.916	2,069.82	77.159	2,069.82	72.9621	2,069.82	74.4979	2,069.82	69.9935	2,069.82	72.859	2,069.82	67.877	2,069.82	71.1621	2,069.82	67.8356	2,069.82	69.2271	2,069.82	64.6445	2,069.82	67.8615	2,069.82	61.8881	2,069.82	65.6146	2,069.82	62.8882	2,069.82	66.2454	2,069.82	59.764	2,069.82	61.4227	2,069.82	53.0609	2,069.82	63.3718	2,069.82	63.3615	2,069.82	67.5043	2,069.82	66.6156
2,143.07	84.7393	2,143.07	84.4538	2,143.07	84.3584	2,143.07	83.6686	2,143.07	83.8336	2,143.07	82.5072	2,143.07	82.8489	2,143.07	81.1171	2,143.07	81.8957	2,143.07	79.5386	2,143.07	80.5254	2,143.07	77.6026	2,143.07	78.7922	2,143.07	75.4132	2,143.07	76.7812	2,143.07	73.8813	2,143.07	74.0411	2,143.07	71.166	2,143.07	72.7898	2,143.07	68.5699	2,143.07	69.9162	2,143.07	66.3581	2,143.07	67.9424	2,143.07	65.9426	2,143.07	66.285	2,143.07	64.371	2,143.07	65.9756	2,143.07	62.4718	2,143.07	64.6234	2,143.07	60.3701	2,143.07	59.199	2,143.07	53.8462	2,143.07	63.5181	2,143.07	59.7603	2,143.07	65.1659	2,143.07	66.2193
2,219.24	84.7243	2,219.24	84.4547	2,219.24	84.3461	2,219.24	84.0805	2,219.24	83.5467	2,219.24	83.0264	2,219.24	82.4006	2,219.24	81.6749	2,219.24	80.761	2,219.24	80.5833	2,219.24	79.4173	2,219.24	78.1115	2,219.24	77.457	2,219.24	76.2324	2,219.24	75.6197	2,219.24	74.3668	2,219.24	72.722	2,219.24	71.0757	2,219.24	70.2565	2,219.24	69.5591	2,219.24	66.932	2,219.24	68.0276	2,219.24	65.2566	2,219.24	65.7308	2,219.24	63.8945	2,219.24	64.7657	2,219.24	65.099	2,219.24	65.2415	2,219.24	64.0332	2,219.24	64.6267	2,219.24	57.578	2,219.24	55.1653	2,219.24	59.2654	2,219.24	62.1602	2,219.24	64.1913	2,219.24	66.0359
2,296.88	84.1541	2,296.88	84.0468	2,296.88	83.4887	2,296.88	83.9442	2,296.88	82.5996	2,296.88	83.2007	2,296.88	81.2927	2,296.88	82.0349	2,296.88	79.3363	2,296.88	80.5308	2,296.88	77.3062	2,296.88	77.874	2,296.88	74.4159	2,296.88	75.9409	2,296.88	72.8748	2,296.88	73.1049	2,296.88	70.1157	2,296.88	72.1519	2,296.88	67.6756	2,296.88	69.8648	2,296.88	64.6633	2,296.88	67.2409	2,296.88	60.8756	2,296.88	66.0914	2,296.88	61.0422	2,296.88	66.5148	2,296.88	62.0989	2,296.88	64.7615	2,296.88	61.8584	2,296.88	60.3768	2,296.88	47.9467	2,296.88	58.4848	2,296.88	57.719	2,296.88	62.3554	2,296.88	64.647	2,296.88	61.9354
2,378.91	84.3169	2,378.91	84.5039	2,378.91	83.7787	2,378.91	83.8759	2,378.91	83.0156	2,378.91	82.8606	2,378.91	81.4966	2,378.91	81.4092	2,378.91	79.7865	2,378.91	79.6673	2,378.91	77.7413	2,378.91	77.8016	2,378.91	75.2064	2,378.91	75.7291	2,378.91	73.0713	2,378.91	73.3099	2,378.91	70.104	2,378.91	70.5692	2,378.91	68.8304	2,378.91	69.0157	2,378.91	65.1982	2,378.91	66.1066	2,378.91	61.9466	2,378.91	62.643	2,378.91	60.2646	2,378.91	63.8754	2,378.91	63.0313	2,378.91	63.6698	2,378.91	54.4827	2,378.91	61.1618	2,378.91	56.3551	2,378.91	57.2882	2,378.91	56.0592	2,378.91	59.3578	2,378.91	61.158	2,378.91	64.8596
2,462.4	85.8015	2,462.4	85.7606	2,462.4	85.3985	2,462.4	84.8959	2,462.4	84.3637	2,462.4	83.8702	2,462.4	83.2147	2,462.4	82.3767	2,462.4	81.2493	2,462.4	80.5045	2,462.4	79.4312	2,462.4	78.1658	2,462.4	76.9418	2,462.4	75.5335	2,462.4	73.9601	2,462.4	71.7952	2,462.4	71.2853	2,462.4	70.7284	2,462.4	68.3605	2,462.4	68.5062	2,462.4	65.5008	2,462.4	66.1239	2,462.4	63.8615	2,462.4	62.6592	2,462.4	63.6871	2,462.4	64.5017	2,462.4	58.3269	2,462.4	61.6206	2,462.4	57.2263	2,462.4	61.7819	2,462.4	55.6138	2,462.4	57.2556	2,462.4	47.1658	2,462.4	62.1021	2,462.4	60.7567	2,462.4	64.6615
2,548.83	86.956	2,548.83	86.9311	2,548.83	86.6815	2,548.83	86.4925	2,548.83	85.4046	2,548.83	85.2742	2,548.83	84.094	2,548.83	83.8406	2,548.83	81.9915	2,548.83	81.6361	2,548.83	79.8393	2,548.83	80.2196	2,548.83	77.5226	2,548.83	76.6423	2,548.83	74.3107	2,548.83	74.2787	2,548.83	71.4664	2,548.83	71.8184	2,548.83	69.0228	2,548.83	69.4963	2,548.83	64.31	2,548.83	65.3509	2,548.83	62.7658	2,548.83	64.7469	2,548.83	63.1135	2,548.83	63.8787	2,548.83	57.8101	2,548.83	58.7598	2,548.83	56.1943	2,548.83	57.8874	2,548.83	54.3086	2,548.83	59.5697	2,548.83	52.0963	2,548.83	57.5714	2,548.83	61.1953	2,548.83	62.2525
2,639.65	87.1275	2,639.65	87.4522	2,639.65	86.919	2,639.65	86.9017	2,639.65	85.9577	2,639.65	85.8898	2,639.65	84.4127	2,639.65	84.3989	2,639.65	82.3524	2,639.65	82.6806	2,639.65	79.9717	2,639.65	80.912	2,639.65	76.9911	2,639.65	78.068	2,639.65	74.2537	2,639.65	75.8062	2,639.65	71.2623	2,639.65	71.7318	2,639.65	69.2282	2,639.65	68.795	2,639.65	63.8254	2,639.65	64.0507	2,639.65	60.1814	2,639.65	65.7264	2,639.65	60.2615	2,639.65	62.6094	2,639.65	56.8498	2,639.65	59.2336	2,639.65	56.1778	2,639.65	60.3258	2,639.65	54.2493	2,639.65	57.964	2,639.65	47.4993	2,639.65	61.4036	2,639.65	58.2661	2,639.65	60.321
2,731.93	86.9441	2,731.93	86.9486	2,731.93	86.3621	2,731.93	86.2197	2,731.93	85.6292	2,731.93	85.1421	2,731.93	83.8512	2,731.93	83.4633	2,731.93	81.9659	2,731.93	81.4298	2,731.93	79.2006	2,731.93	79.6549	2,731.93	76.8349	2,731.93	77.2756	2,731.93	73.5446	2,731.93	74.0372	2,731.93	70.5582	2,731.93	70.611	2,731.93	66.5993	2,731.93	67.5583	2,731.93	64.916	2,731.93	60.9661	2,731.93	55.6986	2,731.93	63.6039	2,731.93	57.6298	2,731.93	63.1869	2,731.93	53.0528	2,731.93	56.6385	2,731.93	54.607	2,731.93	59.8582	2,731.93	56.8329	2,731.93	58.5644	2,731.93	55.0606	2,731.93	55.285	2,731.93	57.8525	2,731.93	55.1218
2,828.61	86.9067	2,828.61	86.5621	2,828.61	86.0562	2,828.61	85.7252	2,828.61	85.4233	2,828.61	84.9106	2,828.61	83.5495	2,828.61	82.9097	2,828.61	81.8027	2,828.61	80.2828	2,828.61	79.0848	2,828.61	77.862	2,828.61	76.688	2,828.61	76.7415	2,828.61	73.1332	2,828.61	72.1227	2,828.61	69.6657	2,828.61	69.7428	2,828.61	64.6297	2,828.61	66.4936	2,828.61	63.4674	2,828.61	64.898	2,828.61	58.8169	2,828.61	63.2678	2,828.61	52.2311	2,828.61	62.2924	2,828.61	56.071	2,828.61	56.7509	2,828.61	53.3961	2,828.61	54.1501	2,828.61	57.5269	2,828.61	56.66	2,828.61	56.3753	2,828.61	60.2235	2,828.61	52.6277	2,828.61	57.593
2,928.22	86.6629	2,928.22	86.2478	2,928.22	86.6245	2,928.22	85.5545	2,928.22	85.2403	2,928.22	83.9547	2,928.22	83.8034	2,928.22	81.9697	2,928.22	81.916	2,928.22	79.4659	2,928.22	79.4981	2,928.22	76.5275	2,928.22	76.2177	2,928.22	74.218	2,928.22	73.4745	2,928.22	71.2779	2,928.22	70.3328	2,928.22	69.4401	2,928.22	66.4518	2,928.22	67.1878	2,928.22	64.0511	2,928.22	63.4196	2,928.22	56.9566	2,928.22	61.697	2,928.22	56.6459	2,928.22	63.2893	2,928.22	56.8731	2,928.22	54.7616	2,928.22	54.9543	2,928.22	54.1582	2,928.22	50.9692	2,928.22	59.7034	2,928.22	49.0604	2,928.22	60.692	2,928.22	50.8383	2,928.22	58.9092
3,030.76	86.2999	3,030.76	85.7443	3,030.76	86.3152	3,030.76	84.9253	3,030.76	85.2145	3,030.76	83.0796	3,030.76	83.993	3,030.76	81.2177	3,030.76	82.0116	3,030.76	78.6323	3,030.76	79.4925	3,030.76	75.9409	3,030.76	76.6854	3,030.76	72.0169	3,030.76	73.9171	3,030.76	70.6452	3,030.76	70.4256	3,030.76	67.2771	3,030.76	66.828	3,030.76	65.7862	3,030.76	65.4855	3,030.76	63.5516	3,030.76	60.9924	3,030.76	61.7404	3,030.76	59.217	3,030.76	58.7388	3,030.76	58.5097	3,030.76	53.8199	3,030.76	55.1308	3,030.76	55.1543	3,030.76	44.8872	3,030.76	56.0705	3,030.76	54.8911	3,030.76	53.0148	3,030.76	47.1505	3,030.76	53.4098
3,137.7	86.107	3,137.7	85.6354	3,137.7	86.0489	3,137.7	84.5412	3,137.7	85.0899	3,137.7	82.8291	3,137.7	83.7552	3,137.7	80.5479	3,137.7	81.7148	3,137.7	78.5696	3,137.7	79.4366	3,137.7	75.4394	3,137.7	76.2809	3,137.7	71.1672	3,137.7	73.3855	3,137.7	70.3101	3,137.7	70.8373	3,137.7	65.4452	3,137.7	67.2748	3,137.7	64.9454	3,137.7	65.0511	3,137.7	63.8536	3,137.7	63.7424	3,137.7	59.7393	3,137.7	57.0567	3,137.7	62.8711	3,137.7	59.1742	3,137.7	54.7332	3,137.7	57.8898	3,137.7	54.9875	3,137.7	43.782	3,137.7	60.542	3,137.7	57.6907	3,137.7	60.9351	3,137.7	58.652	3,137.7	60.5873
3,249.02	85.935	3,249.02	85.5598	3,249.02	86.0517	3,249.02	84.379	3,249.02	85.2236	3,249.02	82.4749	3,249.02	83.6878	3,249.02	80.532	3,249.02	81.7249	3,249.02	78.0738	3,249.02	79.5116	3,249.02	75.2564	3,249.02	76.7667	3,249.02	71.5814	3,249.02	73.9023	3,249.02	68.8825	3,249.02	70.5827	3,249.02	65.9307	3,249.02	69.1618	3,249.02	61.2426	3,249.02	63.7521	3,249.02	63.1532	3,249.02	64.1737	3,249.02	52.1291	3,249.02	61.4462	3,249.02	58.3281	3,249.02	51.4854	3,249.02	57.617	3,249.02	59.7972	3,249.02	48.4523	3,249.02	53.0962	3,249.02	55.9129	3,249.02	40.5703	3,249.02	61.2759	3,249.02	56.5046	3,249.02	63.2363
3,363.28	86.1492	3,363.28	85.8236	3,363.28	86.199	3,363.28	84.4149	3,363.28	85.4751	3,363.28	82.6541	3,363.28	84.0303	3,363.28	79.9302	3,363.28	82.3276	3,363.28	77.3475	3,363.28	80.0771	3,363.28	74.0569	3,363.28	77.2958	3,363.28	71.5671	3,363.28	74.363	3,363.28	67.1535	3,363.28	71.3941	3,363.28	64.2394	3,363.28	69.6859	3,363.28	59.5986	3,363.28	65.2343	3,363.28	60.5138	3,363.28	64.0633	3,363.28	57.8427	3,363.28	62.6365	3,363.28	42.8675	3,363.28	57.5847	3,363.28	53.7053	3,363.28	59.6528	3,363.28	55.57	3,363.28	56.6723	3,363.28	40.8806	3,363.28	53.8833	3,363.28	61.4473	3,363.28	56.6477	3,363.28	61.548
3,481.93	86.3608	3,481.93	86.3153	3,481.93	85.6584	3,481.93	84.9551	3,481.93	85.4105	3,481.93	83.5593	3,481.93	83.8685	3,481.93	81.2588	3,481.93	82.5203	3,481.93	78.5119	3,481.93	80.2247	3,481.93	74.7728	3,481.93	77.587	3,481.93	72.4157	3,481.93	74.5329	3,481.93	68.0187	3,481.93	72.3498	3,481.93	66.5504	3,481.93	70.7171	3,481.93	62.4365	3,481.93	66.5997	3,481.93	58.8332	3,481.93	65.2853	3,481.93	60.1115	3,481.93	62.8136	3,481.93	52.2522	3,481.93	61.3637	3,481.93	48.0539	3,481.93	59.5082	3,481.93	50.9237	3,481.93	57.8226	3,481.93	51.3456	3,481.93	58.0352	3,481.93	57.5583	3,481.93	56.5533	3,481.93	59.5868
3,604.98	86.1027	3,604.98	85.8933	3,604.98	85.5776	3,604.98	85.1909	3,604.98	84.7046	3,604.98	83.8864	3,604.98	83.3628	3,604.98	81.9658	3,604.98	81.4685	3,604.98	78.9348	3,604.98	79.607	3,604.98	75.922	3,604.98	77.7747	3,604.98	73.3225	3,604.98	75.5632	3,604.98	69.4015	3,604.98	73.0915	3,604.98	66.8974	3,604.98	70.2013	3,604.98	64.1564	3,604.98	68.2327	3,604.98	58.0493	3,604.98	65.502	3,604.98	61.0737	3,604.98	65.0891	3,604.98	48.12	3,604.98	60.9488	3,604.98	54.8492	3,604.98	62.0338	3,604.98	48.0533	3,604.98	58.9346	3,604.98	48.6417	3,604.98	58.184	3,604.98	58.4076	3,604.98	57.2256	3,604.98	62.2067
3,732.42	86.2288	3,732.42	86.054	3,732.42	85.6662	3,732.42	85.087	3,732.42	84.4436	3,732.42	83.5443	3,732.42	83.1139	3,732.42	81.6869	3,732.42	81.4808	3,732.42	78.8974	3,732.42	79.7671	3,732.42	76.2249	3,732.42	78.1616	3,732.42	73.5362	3,732.42	76.3441	3,732.42	70.7837	3,732.42	73.5395	3,732.42	66.9904	3,732.42	70.4399	3,732.42	65.0101	3,732.42	69.1107	3,732.42	61.169	3,732.42	65.8372	3,732.42	60.8564	3,732.42	66.2683	3,732.42	59.232	3,732.42	58.2949	3,732.42	53.9066	3,732.42	61.3541	3,732.42	51.7595	3,732.42	61.8999	3,732.42	48.615	3,732.42	56.472	3,732.42	57.2212	3,732.42	60.0846	3,732.42	64.1963
3,864.26	86.44	3,864.26	86.5597	3,864.26	86.1259	3,864.26	85.5772	3,864.26	84.0031	3,864.26	84.104	3,864.26	82.1485	3,864.26	81.6708	3,864.26	80.5201	3,864.26	78.7291	3,864.26	78.9259	3,864.26	76.2783	3,864.26	77.4814	3,864.26	73.6159	3,864.26	75.3858	3,864.26	71.5333	3,864.26	73.4135	3,864.26	69.095	3,864.26	70.6615	3,864.26	67.1356	3,864.26	69.3079	3,864.26	64.3577	3,864.26	65.598	3,864.26	59.5447	3,864.26	64.6572	3,864.26	61.0456	3,864.26	62.6107	3,864.26	53.1464	3,864.26	62.0437	3,864.26	46.564	3,864.26	60.5499	3,864.26	50.5618	3,864.26	47.6124	3,864.26	53.541	3,864.26	58.8688	3,864.26	64.0773
4,000.49	86.237	4,000.49	86.1003	4,000.49	85.5813	4,000.49	84.9452	4,000.49	83.4003	4,000.49	83.5027	4,000.49	81.0795	4,000.49	80.8203	4,000.49	79.3784	4,000.49	78.7987	4,000.49	78.0023	4,000.49	76.0726	4,000.49	76.2182	4,000.49	73.0345	4,000.49	73.9984	4,000.49	71.3199	4,000.49	72.8068	4,000.49	68.1308	4,000.49	70.7297	4,000.49	67.1348	4,000.49	69.0373	4,000.49	63.7652	4,000.49	67.7187	4,000.49	61.7944	4,000.49	63.9639	4,000.49	59.8838	4,000.49	62.8552	4,000.49	57.1364	4,000.49	63.3227	4,000.49	53.5978	4,000.49	58.9273	4,000.49	52.938	4,000.49	57.9996	4,000.49	55.0192	4,000.49	56.3972	4,000.49	64.5579
4,141.11	87.6637	4,141.11	87.304	4,141.11	86.4899	4,141.11	86.1456	4,141.11	84.489	4,141.11	83.9145	4,141.11	81.7703	4,141.11	81.4186	4,141.11	79.681	4,141.11	79.6614	4,141.11	77.4475	4,141.11	77.5647	4,141.11	75.9148	4,141.11	74.9088	4,141.11	74.3493	4,141.11	72.5448	4,141.11	72.8276	4,141.11	70.1061	4,141.11	71.3996	4,141.11	66.9207	4,141.11	68.8034	4,141.11	65.4237	4,141.11	66.1792	4,141.11	61.2633	4,141.11	64.6091	4,141.11	62.5647	4,141.11	63.7692	4,141.11	57.5984	4,141.11	62.0696	4,141.11	56.1124	4,141.11	60.3622	4,141.11	57.6433	4,141.11	59.3182	4,141.11	54.8095	4,141.11	59.2479	4,141.11	64.7023
4,287.6	88.6597	4,287.6	88.6668	4,287.6	87.3101	4,287.6	87.0461	4,287.6	85.6857	4,287.6	84.5987	4,287.6	82.4307	4,287.6	82.3848	4,287.6	79.2481	4,287.6	79.856	4,287.6	77.117	4,287.6	77.6776	4,287.6	74.2055	4,287.6	75.7861	4,287.6	73.5722	4,287.6	72.9814	4,287.6	70.6236	4,287.6	71.6279	4,287.6	70.7832	4,287.6	68.1332	4,287.6	68.0615	4,287.6	66.4639	4,287.6	67.0866	4,287.6	63.4237	4,287.6	65.1947	4,287.6	63.659	4,287.6	61.0856	4,287.6	56.7993	4,287.6	58.8271	4,287.6	56.3283	4,287.6	60.8383	4,287.6	60.8464	4,287.6	60.7275	4,287.6	52.0381	4,287.6	55.0599	4,287.6	63.1865
4,438.48	89.7462	4,438.48	89.5941	4,438.48	88.8141	4,438.48	87.8091	4,438.48	86.7276	4,438.48	85.3173	4,438.48	83.6912	4,438.48	82.9677	4,438.48	79.4335	4,438.48	79.4589	4,438.48	75.5754	4,438.48	76.0587	4,438.48	73.0893	4,438.48	73.3658	4,438.48	70.9645	4,438.48	71.5311	4,438.48	70.7721	4,438.48	70.0321	4,438.48	69.2728	4,438.48	67.9733	4,438.48	67.6546	4,438.48	65.7377	4,438.48	66.1744	4,438.48	63.6537	4,438.48	63.5968	4,438.48	58.4182	4,438.48	59.6973	4,438.48	60.1873	4,438.48	60.7863	4,438.48	56.1192	4,438.48	57.091	4,438.48	60.9824	4,438.48	60.0981	4,438.48	47.8563	4,438.48	51.4353	4,438.48	61.202
4,595.21	89.9489	4,595.21	89.5193	4,595.21	89.2329	4,595.21	88.4161	4,595.21	87.0169	4,595.21	85.7736	4,595.21	84.0515	4,595.21	82.3819	4,595.21	79.9008	4,595.21	78.6433	4,595.21	75.0823	4,595.21	74.3037	4,595.21	71.0422	4,595.21	71.4324	4,595.21	67.3971	4,595.21	68.6505	4,595.21	62.4337	4,595.21	65.9649	4,595.21	61.7983	4,595.21	63.5351	4,595.21	61.1621	4,595.21	59.7818	4,595.21	59.4356	4,595.21	59.9116	4,595.21	58.6105	4,595.21	53.1881	4,595.21	58.9456	4,595.21	55.5863	4,595.21	60.3164	4,595.21	53.024	4,595.21	48.0295	4,595.21	56.5699	4,595.21	54.0238	4,595.21	46.1945	4,595.21	50.3064	4,595.21	57.2847
4,756.35	89.0248	4,756.35	88.5054	4,756.35	88.3645	4,756.35	87.3974	4,756.35	86.7773	4,756.35	84.73	4,756.35	83.8745	4,756.35	80.9645	4,756.35	81.5725	4,756.35	76.6219	4,756.35	78.3262	4,756.35	73.595	4,756.35	75.005	4,756.35	70.5156	4,756.35	70.7014	4,756.35	66.65	4,756.35	68.4535	4,756.35	59.0004	4,756.35	63.0766	4,756.35	49.847	4,756.35	58.2954	4,756.35	59.4916	4,756.35	56.8553	4,756.35	50.9996	4,756.35	50.8886	4,756.35	50.6594	4,756.35	49.442	4,756.35	42.3314	4,756.35	54.9472	4,756.35	50.5207	4,756.35	49.3223	4,756.35	53.381	4,756.35	53.7724	4,756.35	50.9291	4,756.35	48.4937	4,756.35	46.6036
4,924.8	86.8075	4,924.8	87.0038	4,924.8	86.1646	4,924.8	84.7287	4,924.8	85.4656	4,924.8	83.4847	4,924.8	82.9995	4,924.8	81.2879	4,924.8	82.3064	4,924.8	78.9264	4,924.8	80.858	4,924.8	76.8534	4,924.8	78.1629	4,924.8	75.1059	4,924.8	74.4858	4,924.8	70.6992	4,924.8	71.6713	4,924.8	69.0827	4,924.8	69.0384	4,924.8	65.7581	4,924.8	67.3639	4,924.8	63.0806	4,924.8	66.1459	4,924.8	61.1684	4,924.8	64.0137	4,924.8	60.1571	4,924.8	59.9898	4,924.8	54.554	4,924.8	59.3411	4,924.8	58.3843	4,924.8	59.5554	4,924.8	56.5487	4,924.8	55.5209	4,924.8	53.5401	4,924.8	52.9152	4,924.8	60.3682
5,097.66	85.386	5,097.66	84.8901	5,097.66	85.7378	5,097.66	83.5906	5,097.66	83.899	5,097.66	82.0857	5,097.66	83.352	5,097.66	81.3376	5,097.66	81.3172	5,097.66	80.0488	5,097.66	79.3251	5,097.66	78.4028	5,097.66	77.7247	5,097.66	75.6398	5,097.66	76.0365	5,097.66	72.2373	5,097.66	72.8984	5,097.66	70.9677	5,097.66	72.003	5,097.66	72.4872	5,097.66	68.771	5,097.66	64.8049	5,097.66	67.4751	5,097.66	65.2326	5,097.66	66.71	5,097.66	60.8195	5,097.66	63.3127	5,097.66	59.4926	5,097.66	62.1785	5,097.66	59.397	5,097.66	60.8561	5,097.66	52.7394	5,097.66	58.2345	5,097.66	49.189	5,097.66	48.6766	5,097.66	62.4629
5,277.83	86.0511	5,277.83	85.2392	5,277.83	85.5821	5,277.83	84.8858	5,277.83	83.8281	5,277.83	82.6912	5,277.83	82.3943	5,277.83	81.3876	5,277.83	80.4936	5,277.83	79.5398	5,277.83	78.5689	5,277.83	76.5382	5,277.83	76.642	5,277.83	71.7	5,277.83	75.3264	5,277.83	72.3333	5,277.83	73.3914	5,277.83	67.5341	5,277.83	71.5458	5,277.83	70.7591	5,277.83	68.4288	5,277.83	63.9235	5,277.83	64.5709	5,277.83	63.5517	5,277.83	66.3795	5,277.83	65.1432	5,277.83	64.4248	5,277.83	57.9454	5,277.83	60.3433	5,277.83	58.3837	5,277.83	59.8759	5,277.83	53.3943	5,277.83	54.039	5,277.83	50.2848	5,277.83	44.4903	5,277.83	61.3088
5,463.87	86.6321	5,463.87	86.2105	5,463.87	85.0617	5,463.87	84.6845	5,463.87	84.5255	5,463.87	83.7632	5,463.87	81.4241	5,463.87	81.2135	5,463.87	81.0965	5,463.87	79.714	5,463.87	80.2455	5,463.87	77.8765	5,463.87	77.2186	5,463.87	76.2957	5,463.87	74.4081	5,463.87	73.7445	5,463.87	73.852	5,463.87	71.3259	5,463.87	71.1236	5,463.87	64.219	5,463.87	67.8227	5,463.87	66.6937	5,463.87	67.7809	5,463.87	66.1099	5,463.87	63.9812	5,463.87	65.7768	5,463.87	63.6006	5,463.87	63.743	5,463.87	63.1623	5,463.87	62.3384	5,463.87	61.4599	5,463.87	52.4756	5,463.87	51.758	5,463.87	53.3915	5,463.87	54.5674	5,463.87	56.3368
5,657.23	86.9579	5,657.23	86.7014	5,657.23	86.3022	5,657.23	84.7617	5,657.23	84.3592	5,657.23	82.5034	5,657.23	82.7415	5,657.23	79.6277	5,657.23	80.3491	5,657.23	77.7911	5,657.23	78.749	5,657.23	75.15	5,657.23	77.3944	5,657.23	75.3884	5,657.23	75.7863	5,657.23	71.4008	5,657.23	71.205	5,657.23	71.1981	5,657.23	69.0375	5,657.23	64.5944	5,657.23	68.3534	5,657.23	66.6808	5,657.23	66.4568	5,657.23	64.1338	5,657.23	63.555	5,657.23	62.6435	5,657.23	64.7037	5,657.23	62.5218	5,657.23	64.0205	5,657.23	57.5027	5,657.23	62.567	5,657.23	51.752	5,657.23	54.8142	5,657.23	48.2981	5,657.23	55.6898	5,657.23	57.3533
5,856.45	87.3076	5,856.45	87.1543	5,856.45	86.9083	5,856.45	85.8593	5,856.45	84.4492	5,856.45	83.7996	5,856.45	82.2735	5,856.45	81.8661	5,856.45	79.6111	5,856.45	78.8787	5,856.45	76.9396	5,856.45	75.5187	5,856.45	76.6716	5,856.45	73.4272	5,856.45	74.216	5,856.45	70.7974	5,856.45	70.7682	5,856.45	67.8968	5,856.45	69.6146	5,856.45	66.9078	5,856.45	68.9567	5,856.45	61.4364	5,856.45	64.5965	5,856.45	57.4071	5,856.45	63.5836	5,856.45	56.3135	5,856.45	64.7702	5,856.45	55.2812	5,856.45	63.3911	5,856.45	59.8535	5,856.45	62.6754	5,856.45	55.7943	5,856.45	57.6166	5,856.45	53.7129	5,856.45	50.1915	5,856.45	56.9771
6,062.99	88.2199	6,062.99	87.8363	6,062.99	87.253	6,062.99	86.1256	6,062.99	85.5607	6,062.99	83.6173	6,062.99	81.9109	6,062.99	80.8376	6,062.99	79.593	6,062.99	76.7634	6,062.99	77.6579	6,062.99	74.3359	6,062.99	75.6014	6,062.99	68.5023	6,062.99	72.6609	6,062.99	68.7076	6,062.99	73.1034	6,062.99	63.7864	6,062.99	69.969	6,062.99	64.2761	6,062.99	68.3971	6,062.99	59.901	6,062.99	65.5438	6,062.99	59.6668	6,062.99	64.6561	6,062.99	58.7863	6,062.99	63.4158	6,062.99	55.4648	6,062.99	60.5171	6,062.99	60.258	6,062.99	63.3977	6,062.99	48.3619	6,062.99	57.1771	6,062.99	52.5024	6,062.99	54.3695	6,062.99	52.4487
6,276.86	87.7447	6,276.86	87.2741	6,276.86	86.9309	6,276.86	85.7414	6,276.86	85.1688	6,276.86	83.4612	6,276.86	81.6564	6,276.86	80.3873	6,276.86	78.6079	6,276.86	76.5315	6,276.86	76.4072	6,276.86	73.7275	6,276.86	73.9584	6,276.86	71.6084	6,276.86	73.1928	6,276.86	68.5003	6,276.86	70.6856	6,276.86	65.8033	6,276.86	68.8469	6,276.86	59.7512	6,276.86	66.0943	6,276.86	60.3348	6,276.86	64.6416	6,276.86	56.1661	6,276.86	62.7776	6,276.86	58.5516	6,276.86	61.3176	6,276.86	54.2947	6,276.86	60.8574	6,276.86	57.6009	6,276.86	61.1094	6,276.86	53.0408	6,276.86	55.3594	6,276.86	48.9804	6,276.86	42.9823	6,276.86	55.2887
6,498.05	87.1784	6,498.05	86.7468	6,498.05	87.2447	6,498.05	85.0748	6,498.05	84.7567	6,498.05	82.6183	6,498.05	83.22	6,498.05	79.1358	6,498.05	79.8886	6,498.05	77.3358	6,498.05	76.9678	6,498.05	74.4804	6,498.05	75.4244	6,498.05	73.793	6,498.05	73.9345	6,498.05	68.4232	6,498.05	69.8871	6,498.05	66.4392	6,498.05	68.3146	6,498.05	63.3382	6,498.05	65.0813	6,498.05	61.0245	6,498.05	62.3969	6,498.05	59.0798	6,498.05	62.7735	6,498.05	61.2996	6,498.05	56.5096	6,498.05	60.6188	6,498.05	58.9393	6,498.05	53.1252	6,498.05	61.6317	6,498.05	58.7706	6,498.05	59.1445	6,498.05	55.7347	6,498.05	52.3822	6,498.05	52.7619
6,726.56	88.4676	6,726.56	88.0628	6,726.56	87.1893	6,726.56	85.9159	6,726.56	85.4154	6,726.56	82.1194	6,726.56	82.2722	6,726.56	79.8681	6,726.56	81.442	6,726.56	77.3218	6,726.56	79.0784	6,726.56	76.2325	6,726.56	77.0513	6,726.56	74.5294	6,726.56	73.5203	6,726.56	72.4488	6,726.56	73.0395	6,726.56	69.4649	6,726.56	70.3477	6,726.56	68.5877	6,726.56	66.6777	6,726.56	65.1636	6,726.56	65.6279	6,726.56	64.1324	6,726.56	64.4891	6,726.56	63.4463	6,726.56	63.0254	6,726.56	62.8359	6,726.56	62.7787	6,726.56	59.9474	6,726.56	61.8651	6,726.56	62.5177	6,726.56	61.6469	6,726.56	53.6851	6,726.56	59.0668	6,726.56	53.9752
6,963.87	88.8364	6,963.87	88.2191	6,963.87	87.5349	6,963.87	85.6413	6,963.87	85.4138	6,963.87	80.9908	6,963.87	81.6047	6,963.87	77.5676	6,963.87	79.1262	6,963.87	75.928	6,963.87	79.1072	6,963.87	76.8035	6,963.87	77.4361	6,963.87	72.1567	6,963.87	75.5568	6,963.87	72.12	6,963.87	72.8207	6,963.87	69.1777	6,963.87	71.1449	6,963.87	65.9957	6,963.87	67.6264	6,963.87	64.4245	6,963.87	66.7012	6,963.87	64.4021	6,963.87	57.9745	6,963.87	62.4783	6,963.87	62.6582	6,963.87	57.3472	6,963.87	61.0465	6,963.87	60.5222	6,963.87	57.6911	6,963.87	60.6781	6,963.87	59.9397	6,963.87	56.8499	6,963.87	58.3301	6,963.87	54.1522
7,209.96	89.2109	7,209.96	88.6881	7,209.96	88.5276	7,209.96	85.9117	7,209.96	85.6537	7,209.96	82.4496	7,209.96	82.5626	7,209.96	78.6179	7,209.96	79.0849	7,209.96	78.3399	7,209.96	77.8691	7,209.96	76.3206	7,209.96	77.4914	7,209.96	74.849	7,209.96	75.3972	7,209.96	73.3382	7,209.96	73.6697	7,209.96	69.4947	7,209.96	70.2062	7,209.96	67.5516	7,209.96	68.731	7,209.96	64.6055	7,209.96	64.8763	7,209.96	56.3593	7,209.96	62.4434	7,209.96	61.7351	7,209.96	64.5888	7,209.96	62.0698	7,209.96	61.6611	7,209.96	60.2179	7,209.96	60.0177	7,209.96	60.632	7,209.96	60.1843	7,209.96	58.4373	7,209.96	54.603	7,209.96	53.4871
7,464.84	89.0764	7,464.84	88.0609	7,464.84	88.2567	7,464.84	85.7007	7,464.84	86.0849	7,464.84	82.1671	7,464.84	82.5935	7,464.84	79.5518	7,464.84	80.305	7,464.84	77.3015	7,464.84	78.7584	7,464.84	76.2344	7,464.84	77.7427	7,464.84	75.4057	7,464.84	74.4846	7,464.84	72.3019	7,464.84	72.8685	7,464.84	69.747	7,464.84	69.7377	7,464.84	67.5562	7,464.84	67.8325	7,464.84	63.7114	7,464.84	64.8531	7,464.84	61.4371	7,464.84	63.3248	7,464.84	60.7576	7,464.84	62.9773	7,464.84	60.5715	7,464.84	60.836	7,464.84	61.2953	7,464.84	60.5233	7,464.84	61.5117	7,464.84	60.096	7,464.84	58.5877	7,464.84	58.2949	7,464.84	52.0816
7,727.05	88.3736	7,727.05	87.2889	7,727.05	87.7304	7,727.05	84.941	7,727.05	85.6817	7,727.05	82.549	7,727.05	82.354	7,727.05	80.2226	7,727.05	79.9142	7,727.05	77.9109	7,727.05	79.0009	7,727.05	77.132	7,727.05	77.3548	7,727.05	75.3461	7,727.05	76.0018	7,727.05	71.6932	7,727.05	71.7021	7,727.05	68.5474	7,727.05	68.855	7,727.05	65.1841	7,727.05	66.673	7,727.05	62.6148	7,727.05	64.8122	7,727.05	60.8485	7,727.05	62.7951	7,727.05	60.248	7,727.05	59.6147	7,727.05	54.5158	7,727.05	59.2332	7,727.05	59.0816	7,727.05	56.1294	7,727.05	60.7145	7,727.05	58.6247	7,727.05	57.0606	7,727.05	54.8337	7,727.05	54.5936
7,999.51	87.994	7,999.51	87.2419	7,999.51	87.9308	7,999.51	85.6082	7,999.51	86.0822	7,999.51	83.9394	7,999.51	83.5863	7,999.51	81.815	7,999.51	80.4755	7,999.51	79.1691	7,999.51	77.8082	7,999.51	76.5354	7,999.51	76.7396	7,999.51	73.9782	7,999.51	76.1301	7,999.51	71.0101	7,999.51	71.4988	7,999.51	68.0445	7,999.51	69.7126	7,999.51	63.997	7,999.51	66.0165	7,999.51	62.76	7,999.51	64.9052	7,999.51	60.9336	7,999.51	62.6449	7,999.51	61.0973	7,999.51	60.8487	7,999.51	54.5901	7,999.51	57.8124	7,999.51	60.0952	7,999.51	61.3791	7,999.51	60.5972	7,999.51	60.7422	7,999.51	59.4063	7,999.51	49.3566	7,999.51	51.8147
8,282.23	86.7735	8,282.23	86.2112	8,282.23	86.7821	8,282.23	85.2714	8,282.23	85.8986	8,282.23	83.6181	8,282.23	83.7773	8,282.23	81.5635	8,282.23	81.1953	8,282.23	78.2183	8,282.23	78.3088	8,282.23	74.5849	8,282.23	76.6903	8,282.23	71.7445	8,282.23	73.4379	8,282.23	70.4445	8,282.23	72.3934	8,282.23	67.248	8,282.23	69.6728	8,282.23	65.4899	8,282.23	66.2462	8,282.23	61.9833	8,282.23	64.0909	8,282.23	60.8647	8,282.23	60.0957	8,282.23	59.6926	8,282.23	62.4167	8,282.23	55.8633	8,282.23	57.881	8,282.23	56.6167	8,282.23	59.4732	8,282.23	60.6359	8,282.23	61.9183	8,282.23	56.0022	8,282.23	55.7067	8,282.23	53.1888
8,573.73	85.297	8,573.73	85.4457	8,573.73	86.079	8,573.73	85.1149	8,573.73	85.647	8,573.73	84.739	8,573.73	84.6726	8,573.73	82.0552	8,573.73	81.7923	8,573.73	77.8879	8,573.73	79.2404	8,573.73	75.6101	8,573.73	76.6471	8,573.73	72.8993	8,573.73	74.7796	8,573.73	70.229	8,573.73	72.0313	8,573.73	67.7897	8,573.73	70.1256	8,573.73	66.4915	8,573.73	67.6802	8,573.73	62.518	8,573.73	64.7942	8,573.73	61.5599	8,573.73	62.3954	8,573.73	58.98	8,573.73	60.2992	8,573.73	58.4616	8,573.73	57.8971	8,573.73	56.314	8,573.73	58.9547	8,573.73	58.6247	8,573.73	58.4678	8,573.73	57.4045	8,573.73	53.0084	8,573.73	52.0754
8,876.95	83.7173	8,876.95	83.6932	8,876.95	84.3763	8,876.95	85.3456	8,876.95	85.7267	8,876.95	84.6418	8,876.95	84.6565	8,876.95	81.4226	8,876.95	81.4376	8,876.95	77.8425	8,876.95	78.1363	8,876.95	74.7557	8,876.95	76.0316	8,876.95	74.0354	8,876.95	72.7409	8,876.95	71.1896	8,876.95	72.9072	8,876.95	66.9158	8,876.95	69.2353	8,876.95	65.3203	8,876.95	67.3229	8,876.95	64.5931	8,876.95	63.7452	8,876.95	60.2137	8,876.95	62.2385	8,876.95	55.5752	8,876.95	61.8016	8,876.95	57.9694	8,876.95	55.8434	8,876.95	58.8781	8,876.95	58.1274	8,876.95	52.9414	8,876.95	59.9689	8,876.95	57.2256	8,876.95	51.9808	8,876.95	51.7909
9,188.96	81.6168	9,188.96	82.7509	9,188.96	84.1887	9,188.96	85.1845	9,188.96	85.8938	9,188.96	85.1202	9,188.96	84.8709	9,188.96	81.3823	9,188.96	81.1657	9,188.96	76.9977	9,188.96	78.0875	9,188.96	75.0611	9,188.96	76.4128	9,188.96	73.3197	9,188.96	74.6021	9,188.96	71.0452	9,188.96	72.6488	9,188.96	69.3197	9,188.96	68.8491	9,188.96	66.6735	9,188.96	67.414	9,188.96	64.1683	9,188.96	64.5728	9,188.96	59.1532	9,188.96	63.8723	9,188.96	56.1228	9,188.96	60.6047	9,188.96	55.1708	9,188.96	57.3845	9,188.96	59.7229	9,188.96	59.8957	9,188.96	54.155	9,188.96	61.4212	9,188.96	54.7853	9,188.96	56.6656	9,188.96	49.4515
9,514.16	79.4236	9,514.16	81.7487	9,514.16	82.8075	9,514.16	85.0207	9,514.16	86.0281	9,514.16	84.2534	9,514.16	84.9345	9,514.16	80.5075	9,514.16	80.7197	9,514.16	76.5124	9,514.16	77.4311	9,514.16	75.6307	9,514.16	76.2025	9,514.16	74.4496	9,514.16	75.3482	9,514.16	72.7253	9,514.16	72.3267	9,514.16	69.7759	9,514.16	70.325	9,514.16	65.3455	9,514.16	66.2025	9,514.16	62.959	9,514.16	63.6274	9,514.16	62.4218	9,514.16	62.2776	9,514.16	58.6306	9,514.16	59.179	9,514.16	55.1018	9,514.16	57.365	9,514.16	59.223	9,514.16	58.5818	9,514.16	58.0531	9,514.16	59.4605	9,514.16	55.4982	9,514.16	51.8943	9,514.16	47.9302
9,849.61	79.0267	9,849.61	81.2558	9,849.61	82.1771	9,849.61	84.6076	9,849.61	85.3039	9,849.61	84.0188	9,849.61	84.5169	9,849.61	80.4509	9,849.61	81.0525	9,849.61	77.1372	9,849.61	77.3336	9,849.61	75.5284	9,849.61	77.0844	9,849.61	74.5892	9,849.61	75.9133	9,849.61	72.5846	9,849.61	73.041	9,849.61	69.2764	9,849.61	69.8681	9,849.61	67.259	9,849.61	66.9617	9,849.61	65.6357	9,849.61	64.3862	9,849.61	62.2058	9,849.61	62.9351	9,849.61	60.6345	9,849.61	57.795	9,849.61	57.3686	9,849.61	56.0509	9,849.61	59.4446	9,849.61	58.2204	9,849.61	56.2139	9,849.61	57.5988	9,849.61	57.5579	9,849.61	50.4238	9,849.61	49.9346
10,196.8	80.1169	10,196.8	81.7767	10,196.8	81.5622	10,196.8	84.4119	10,196.8	84.9879	10,196.8	84.1098	10,196.8	84.2289	10,196.8	80.311	10,196.8	80.9837	10,196.8	76.4737	10,196.8	77.98	10,196.8	75.5137	10,196.8	76.3593	10,196.8	73.5413	10,196.8	75.1485	10,196.8	72.1663	10,196.8	71.7743	10,196.8	68.9977	10,196.8	69.7224	10,196.8	65.7725	10,196.8	66.5772	10,196.8	61.896	10,196.8	65.4743	10,196.8	61.6978	10,196.8	60.7316	10,196.8	58.9095	10,196.8	57.4079	10,196.8	58.841	10,196.8	56.2459	10,196.8	59.3027	10,196.8	57.6799	10,196.8	57.28	10,196.8	57.1795	10,196.8	55.5099	10,196.8	54.4252	10,196.8	47.4964
10,555.7	82.0455	10,555.7	82.5994	10,555.7	81.5173	10,555.7	84.1766	10,555.7	84.3244	10,555.7	83.4773	10,555.7	83.8955	10,555.7	81.003	10,555.7	81.66	10,555.7	76.828	10,555.7	77.7886	10,555.7	74.3328	10,555.7	76.326	10,555.7	73.1426	10,555.7	73.992	10,555.7	70.6931	10,555.7	71.6444	10,555.7	67.4264	10,555.7	69.1577	10,555.7	66.0029	10,555.7	66.7477	10,555.7	64.8295	10,555.7	64.242	10,555.7	61.1615	10,555.7	61.1303	10,555.7	60.7188	10,555.7	59.329	10,555.7	59.306	10,555.7	57.6646	10,555.7	55.771	10,555.7	57.2019	10,555.7	52.7749	10,555.7	54.2731	10,555.7	55.3076	10,555.7	48.9833	10,555.7	49.0692
10,927.7	84.2792	10,927.7	83.1778	10,927.7	81.8505	10,927.7	82.7695	10,927.7	82.8204	10,927.7	82.9268	10,927.7	83.3344	10,927.7	80.8677	10,927.7	81.39	10,927.7	75.0542	10,927.7	77.2068	10,927.7	71.6519	10,927.7	74.4311	10,927.7	71.7143	10,927.7	72.4753	10,927.7	69.5416	10,927.7	70.4579	10,927.7	68.8566	10,927.7	68.5273	10,927.7	64.4231	10,927.7	65.7523	10,927.7	62.6296	10,927.7	64.5472	10,927.7	60.6288	10,927.7	62.6923	10,927.7	56.8424	10,927.7	59.2444	10,927.7	58.989	10,927.7	58.2637	10,927.7	59.8594	10,927.7	56.4971	10,927.7	55.5186	10,927.7	58.947	10,927.7	56.7158	10,927.7	54.9199	10,927.7	45.122
11,313	87.784	11,313	85.3475	11,313	84.0297	11,313	81.0164	11,313	80.5703	11,313	81.3979	11,313	82.0752	11,313	80.2792	11,313	80.187	11,313	73.0364	11,313	75.8668	11,313	69.6966	11,313	72.7162	11,313	69.7084	11,313	72.6447	11,313	70.4238	11,313	71.7765	11,313	67.4718	11,313	68.8938	11,313	64.9545	11,313	64.8296	11,313	62.1396	11,313	64.4254	11,313	60.112	11,313	61.3887	11,313	56.5063	11,313	57.9185	11,313	56.5383	11,313	57.1553	11,313	57.5305	11,313	57.8008	11,313	57.4209	11,313	59.1314	11,313	54.575	11,313	50.6363	11,313	43.331
11,712.9	89.7413	11,712.9	87.2042	11,712.9	86.4201	11,712.9	79.625	11,712.9	79.1415	11,712.9	77.838	11,712.9	79.3835	11,712.9	77.5632	11,712.9	78.9143	11,712.9	74.8348	11,712.9	75.7535	11,712.9	72.6313	11,712.9	73.6886	11,712.9	71.6151	11,712.9	72.4368	11,712.9	69.3972	11,712.9	70.1726	11,712.9	67.6262	11,712.9	67.1508	11,712.9	64.3072	11,712.9	64.425	11,712.9	60.3427	11,712.9	61.6399	11,712.9	58.6556	11,712.9	59.3675	11,712.9	60.4122	11,712.9	54.8671	11,712.9	55.8912	11,712.9	55.8002	11,712.9	58.4028	11,712.9	57.4701	11,712.9	56.687	11,712.9	59.7645	11,712.9	57.5845	11,712.9	54.0687	11,712.9	45.8412
12,126	89.0745	12,126	87.0182	12,126	86.7372	12,126	80.8006	12,126	82.6539	12,126	78.5255	12,126	81.1384	12,126	77.5903	12,126	80.1914	12,126	75.6898	12,126	77.6704	12,126	73.9596	12,126	75.4057	12,126	71.7236	12,126	72.928	12,126	70.0709	12,126	69.3304	12,126	65.2984	12,126	65.8236	12,126	63.1872	12,126	62.5021	12,126	60.805	12,126	58.9615	12,126	56.2528	12,126	54.9312	12,126	60.3221	12,126	55.9209	12,126	48.9726	12,126	54.7989	12,126	52.0024	12,126	55.7951	12,126	54.9451	12,126	57.4304	12,126	38.844	12,126	54.0777	12,126	49.1408
12,553.7	88.4172	12,553.7	85.9592	12,553.7	86.8148	12,553.7	81.2109	12,553.7	83.8015	12,553.7	78.0981	12,553.7	81.1362	12,553.7	78.2563	12,553.7	80.9641	12,553.7	76.8561	12,553.7	78.8924	12,553.7	74.9157	12,553.7	75.6277	12,553.7	71.0357	12,553.7	71.6118	12,553.7	68.0158	12,553.7	67.7306	12,553.7	64.5115	12,553.7	64.3701	12,553.7	58.3273	12,553.7	59.6843	12,553.7	58.0525	12,553.7	57.305	12,553.7	55.3455	12,553.7	53.672	12,553.7	52.2311	12,553.7	55.192	12,553.7	48.0431	12,553.7	53.4764	12,553.7	50.1386	12,553.7	53.669	12,553.7	44.6763	12,553.7	52.635	12,553.7	42.3853	12,553.7	50.0864	12,553.7	45.321
12,996.1	87.5577	12,996.1	85.5821	12,996.1	86.4566	12,996.1	81.6178	12,996.1	83.9756	12,996.1	77.849	12,996.1	82.4336	12,996.1	78.5735	12,996.1	81.2589	12,996.1	78.071	12,996.1	78.8949	12,996.1	75.2206	12,996.1	75.2631	12,996.1	71.1423	12,996.1	71.4052	12,996.1	66.9461	12,996.1	68.4395	12,996.1	61.4792	12,996.1	64.0693	12,996.1	59.6442	12,996.1	61.3571	12,996.1	56.503	12,996.1	57.2171	12,996.1	50.8639	12,996.1	55.8442	12,996.1	53.081	12,996.1	55.5695	12,996.1	47.569	12,996.1	51.9057	12,996.1	47.8056	12,996.1	50.8019	12,996.1	49.5532	12,996.1	52.1768	12,996.1	46.8998	12,996.1	52.8396	12,996.1	40.4965
13,454.6	85.6896	13,454.6	83.8722	13,454.6	85.8389	13,454.6	82.1482	13,454.6	84.3873	13,454.6	80.054	13,454.6	82.3853	13,454.6	79.8202	13,454.6	81.8436	13,454.6	77.796	13,454.6	79.2091	13,454.6	73.442	13,454.6	75.4036	13,454.6	69.2492	13,454.6	71.9226	13,454.6	64.7705	13,454.6	67.0688	13,454.6	59.3426	13,454.6	63.295	13,454.6	54.9635	13,454.6	60.6005	13,454.6	51.753	13,454.6	56.0884	13,454.6	49.1956	13,454.6	54.9886	13,454.6	50.0364	13,454.6	56.3909	13,454.6	50.7761	13,454.6	51.5748	13,454.6	47.9787	13,454.6	49.3271	13,454.6	46.8559	13,454.6	54.0931	13,454.6	40.9615	13,454.6	47.9759	13,454.6	28.1966
13,929.2	83.7286	13,929.2	82.4413	13,929.2	84.8865	13,929.2	82.8195	13,929.2	84.187	13,929.2	80.5631	13,929.2	82.5947	13,929.2	81.3078	13,929.2	82.6944	13,929.2	78.3442	13,929.2	79.3572	13,929.2	73.0968	13,929.2	75.0573	13,929.2	68.4721	13,929.2	70.3089	13,929.2	63.5602	13,929.2	66.983	13,929.2	59.9905	13,929.2	63.2344	13,929.2	56.6451	13,929.2	58.5758	13,929.2	52.5346	13,929.2	56.8941	13,929.2	53.197	13,929.2	56.0762	13,929.2	52.6505	13,929.2	54.9274	13,929.2	40.3235	13,929.2	51.7348	13,929.2	42.6765	13,929.2	51.422	13,929.2	47.9097	13,929.2	53.5735	13,929.2	27.4058	13,929.2	48.3785	13,929.2	43.2569
14,419.9	83.0959	14,419.9	82.8415	14,419.9	84.0529	14,419.9	81.9978	14,419.9	83.6477	14,419.9	80.1828	14,419.9	82.7031	14,419.9	80.5243	14,419.9	81.857	14,419.9	76.8388	14,419.9	78.612	14,419.9	72.2098	14,419.9	73.8489	14,419.9	66.5487	14,419.9	69.5128	14,419.9	62.5969	14,419.9	66.8319	14,419.9	57.0159	14,419.9	62.2544	14,419.9	53.3502	14,419.9	57.0025	14,419.9	53.4738	14,419.9	54.411	14,419.9	48.9956	14,419.9	52.9174	14,419.9	46.4792	14,419.9	51.9552	14,419.9	38.3266	14,419.9	48.0038	14,419.9	43.6592	14,419.9	47.3777	14,419.9	46.4132	14,419.9	51.9188	14,419.9	42.8067	14,419.9	47.8605	14,419.9	43.9576
14,928.2	82.6639	14,928.2	82.781	14,928.2	83.8924	14,928.2	82.4988	14,928.2	83.9048	14,928.2	81.1017	14,928.2	82.5273	14,928.2	80.2507	14,928.2	81.7247	14,928.2	76.2913	14,928.2	78.3195	14,928.2	72.725	14,928.2	74.4361	14,928.2	68.703	14,928.2	70.9817	14,928.2	64.7626	14,928.2	67.7142	14,928.2	60.1494	14,928.2	62.9012	14,928.2	55.8998	14,928.2	60.0424	14,928.2	49.9169	14,928.2	55.0042	14,928.2	48.4789	14,928.2	54.4363	14,928.2	40.1668	14,928.2	52.5531	14,928.2	39.2121	14,928.2	49.5192	14,928.2	46.3859	14,928.2	44.7401	14,928.2	42.9803	14,928.2	52.7225	14,928.2	35.5337	14,928.2	45.5035	14,928.2	40.5554
15,455.6	82.7974	15,455.6	83.1433	15,455.6	84.4245	15,455.6	83.5086	15,455.6	84.7295	15,455.6	81.9232	15,455.6	82.9435	15,455.6	79.8335	15,455.6	81.3161	15,455.6	76.2168	15,455.6	78.1179	15,455.6	73.0683	15,455.6	75.1527	15,455.6	69.805	15,455.6	71.6526	15,455.6	63.7927	15,455.6	68.0893	15,455.6	58.5903	15,455.6	63.3017	15,455.6	55.4229	15,455.6	59.3552	15,455.6	51.8707	15,455.6	55.6078	15,455.6	50.0295	15,455.6	55.4057	15,455.6	37.2525	15,455.6	53.9108	15,455.6	43.6275	15,455.6	49.921	15,455.6	39.664	15,455.6	48.0793	15,455.6	42.809	15,455.6	51.5005	15,455.6	32.7325	15,455.6	41.1538	15,455.6	44.8303
16,000.5	84.2397	16,000.5	84.5934	16,000.5	84.9941	16,000.5	84.6465	16,000.5	85.2327	16,000.5	82.896	16,000.5	83.3349	16,000.5	79.0633	16,000.5	80.6759	16,000.5	75.268	16,000.5	77.8764	16,000.5	72.2169	16,000.5	75.1188	16,000.5	68.5398	16,000.5	72.1325	16,000.5	63.7609	16,000.5	68.3296	16,000.5	59.6242	16,000.5	63.588	16,000.5	57.0585	16,000.5	58.4776	16,000.5	48.027	16,000.5	56.2096	16,000.5	52.6412	16,000.5	55.8225	16,000.5	44.276	16,000.5	50.0106	16,000.5	42.2922	16,000.5	48.4649	16,000.5	47.9531	16,000.5	45.642	16,000.5	44.4135	16,000.5	51.0885	16,000.5	31.1438	16,000.5	41.4139	16,000.5	48.4527
16,564.5	85.7543	16,564.5	85.0297	16,564.5	85.7067	16,564.5	84.5753	16,564.5	85.6416	16,564.5	82.2362	16,564.5	82.9424	16,564.5	78.3546	16,564.5	78.8765	16,564.5	75.9199	16,564.5	76.174	16,564.5	72.3899	16,564.5	73.0911	16,564.5	67.4179	16,564.5	69.1181	16,564.5	63.1761	16,564.5	66.2631	16,564.5	61.4777	16,564.5	61.5336	16,564.5	55.0345	16,564.5	58.5468	16,564.5	52.1344	16,564.5	54.8834	16,564.5	50.8899	16,564.5	54.2008	16,564.5	39.5053	16,564.5	50.2176	16,564.5	43.0528	16,564.5	47.8659	16,564.5	43.2459	16,564.5	47.9144	16,564.5	44.23	16,564.5	46.6514	16,564.5	41.994	16,564.5	41.763	16,564.5	42.8485
17,148.9	85.331	17,148.9	84.6198	17,148.9	85.1308	17,148.9	84.8026	17,148.9	85.4106	17,148.9	82.1427	17,148.9	82.4992	17,148.9	79.5658	17,148.9	79.722	17,148.9	76.79	17,148.9	76.7788	17,148.9	71.0421	17,148.9	71.4987	17,148.9	64.3594	17,148.9	66.9143	17,148.9	64.0043	17,148.9	64.4605	17,148.9	63.4788	17,148.9	61.8368	17,148.9	56.7536	17,148.9	58.7005	17,148.9	54.3329	17,148.9	54.4048	17,148.9	54.2823	17,148.9	54.6208	17,148.9	44.7878	17,148.9	47.8513	17,148.9	43.8383	17,148.9	49.682	17,148.9	40.8723	17,148.9	49.4071	17,148.9	43.0512	17,148.9	48.9867	17,148.9	41.2607	17,148.9	43.5669	17,148.9	43.8325
17,752.4	86.0497	17,752.4	85.3884	17,752.4	86.2195	17,752.4	84.8356	17,752.4	85.5368	17,752.4	81.7729	17,752.4	81.6477	17,752.4	80.0878	17,752.4	79.479	17,752.4	75.0492	17,752.4	75.1967	17,752.4	67.4372	17,752.4	67.5397	17,752.4	68.5506	17,752.4	67.7128	17,752.4	68.1232	17,752.4	66.7181	17,752.4	65.5599	17,752.4	64.3046	17,752.4	59.5324	17,752.4	59.318	17,752.4	55.8336	17,752.4	55.9006	17,752.4	54.3482	17,752.4	56.4996	17,752.4	44.7393	17,752.4	52.5668	17,752.4	49.1568	17,752.4	49.7353	17,752.4	42.0219	17,752.4	51.4254	17,752.4	39.9935	17,752.4	44.6945	17,752.4	46.6169	17,752.4	37.9991	17,752.4	42.7791
18,379.4	85.224	18,379.4	85.4935	18,379.4	85.4725	18,379.4	84.3156	18,379.4	84.197	18,379.4	82.4917	18,379.4	81.0373	18,379.4	80.3874	18,379.4	77.9558	18,379.4	72.5886	18,379.4	72.0161	18,379.4	71.7372	18,379.4	69.7982	18,379.4	71.4898	18,379.4	70.6107	18,379.4	68.6935	18,379.4	68.1906	18,379.4	65.8084	18,379.4	65.1567	18,379.4	58.5691	18,379.4	58.8982	18,379.4	55.8735	18,379.4	57.1772	18,379.4	52.2507	18,379.4	57.3909	18,379.4	46.0527	18,379.4	51.8662	18,379.4	47.4989	18,379.4	50.1341	18,379.4	21.8751	18,379.4	51.7262	18,379.4	40.9605	18,379.4	41.2271	18,379.4	47.4987	18,379.4	43.8072	18,379.4	39.6482
19,026.9	85.6423	19,026.9	85.3579	19,026.9	84.8681	19,026.9	84.3076	19,026.9	83.4498	19,026.9	83.4332	19,026.9	81.9387	19,026.9	78.7662	19,026.9	75.9957	19,026.9	74.3751	19,026.9	72.6018	19,026.9	73.7379	19,026.9	72.9678	19,026.9	71.1546	19,026.9	71.0684	19,026.9	67.2033	19,026.9	68.2934	19,026.9	63.8064	19,026.9	63.9855	19,026.9	56.8308	19,026.9	59.5226	19,026.9	54.6728	19,026.9	56.523	19,026.9	50.3273	19,026.9	54.2213	19,026.9	39.3164	19,026.9	46.762	19,026.9	45.335	19,026.9	50.0102	19,026.9	31.4367	19,026.9	51.918	19,026.9	42.9085	19,026.9	40.9774	19,026.9	35.8689	19,026.9	42.6723	19,026.9	41.4172
19,697.8	86.0823	19,697.8	85.2422	19,697.8	84.3462	19,697.8	84.8326	19,697.8	82.7237	19,697.8	83.5926	19,697.8	80.8489	19,697.8	79.2032	19,697.8	74.7896	19,697.8	75.8241	19,697.8	73.5569	19,697.8	73.4313	19,697.8	72.5695	19,697.8	70.2341	19,697.8	70.0925	19,697.8	66.9293	19,697.8	66.5135	19,697.8	63.5324	19,697.8	61.9286	19,697.8	55.4113	19,697.8	57.7122	19,697.8	53.2347	19,697.8	52.9584	19,697.8	49.768	19,697.8	51.1342	19,697.8	48.8884	19,697.8	46.576	19,697.8	44.0781	19,697.8	44.9729	19,697.8	32.6658	19,697.8	49.3239	19,697.8	45.0806	19,697.8	41.8144	19,697.8	35.4706	19,697.8	43.8261	19,697.8	32.1437
19,999.5	86.2441	19,999.5	84.9198	19,999.5	84.335	19,999.5	85.1164	19,999.5	83.011	19,999.5	83.6603	19,999.5	80.1315	19,999.5	79.7083	19,999.5	75.0157	19,999.5	75.4037	19,999.5	74.0689	19,999.5	73.4076	19,999.5	72.0554	19,999.5	70.0435	19,999.5	69.5303	19,999.5	66.5496	19,999.5	66.6892	19,999.5	64.8071	19,999.5	59.4675	19,999.5	58.9871	19,999.5	59.1503	19,999.5	54.5423	19,999.5	54.7529	19,999.5	58.254	19,999.5	47.1203	19,999.5	54.4026	19,999.5	50.8544	19,999.5	45.0504	19,999.5	43.2749	19,999.5	34.5388	19,999.5	49.2967	19,999.5	44.7257	19,999.5	43.4079	19,999.5	40.1782	19,999.5	37.6868	19,999.5	49.856
