"SPL Horizontal"
"On-Axis"		"10°"		"-10°"		"20°"		"-20°"		"30°"		"-30°"		"40°"		"-40°"		"50°"		"-50°"		"60°"		"-60°"		"70°"		"-70°"		"80°"		"-80°"		"90°"		"-90°"		"100°"		"-100°"		"110°"		"-110°"		"120°"		"-120°"		"130°"		"-130°"		"140°"		"-140°"		"150°"		"-150°"		"160°"		"-160°"		"170°"		"-170°"		"180°"
"Frequency [Hz]"	"Sound Pessure Level [dB]  / [2.83V 1m] "	"Frequency [Hz]"	"Sound Pessure Level [dB]  / [2.83V 1m] "	"Frequency [Hz]"	"Sound Pessure Level [dB]  / [2.83V 1m] "	"Frequency [Hz]"	"Sound Pessure Level [dB]  / [2.83V 1m] "	"Frequency [Hz]"	"Sound Pessure Level [dB]  / [2.83V 1m] "	"Frequency [Hz]"	"Sound Pessure Level [dB]  / [2.83V 1m] "	"Frequency [Hz]"	"Sound Pessure Level [dB]  / [2.83V 1m] "	"Frequency [Hz]"	"Sound Pessure Level [dB]  / [2.83V 1m] "	"Frequency [Hz]"	"Sound Pessure Level [dB]  / [2.83V 1m] "	"Frequency [Hz]"	"Sound Pessure Level [dB]  / [2.83V 1m] "	"Frequency [Hz]"	"Sound Pessure Level [dB]  / [2.83V 1m] "	"Frequency [Hz]"	"Sound Pessure Level [dB]  / [2.83V 1m] "	"Frequency [Hz]"	"Sound Pessure Level [dB]  / [2.83V 1m] "	"Frequency [Hz]"	"Sound Pessure Level [dB]  / [2.83V 1m] "	"Frequency [Hz]"	"Sound Pessure Level [dB]  / [2.83V 1m] "	"Frequency [Hz]"	"Sound Pessure Level [dB]  / [2.83V 1m] "	"Frequency [Hz]"	"Sound Pessure Level [dB]  / [2.83V 1m] "	"Frequency [Hz]"	"Sound Pessure Level [dB]  / [2.83V 1m] "	"Frequency [Hz]"	"Sound Pessure Level [dB]  / [2.83V 1m] "	"Frequency [Hz]"	"Sound Pessure Level [dB]  / [2.83V 1m] "	"Frequency [Hz]"	"Sound Pessure Level [dB]  / [2.83V 1m] "	"Frequency [Hz]"	"Sound Pessure Level [dB]  / [2.83V 1m] "	"Frequency [Hz]"	"Sound Pessure Level [dB]  / [2.83V 1m] "	"Frequency [Hz]"	"Sound Pessure Level [dB]  / [2.83V 1m] "	"Frequency [Hz]"	"Sound Pessure Level [dB]  / [2.83V 1m] "	"Frequency [Hz]"	"Sound Pessure Level [dB]  / [2.83V 1m] "	"Frequency [Hz]"	"Sound Pessure Level [dB]  / [2.83V 1m] "	"Frequency [Hz]"	"Sound Pessure Level [dB]  / [2.83V 1m] "	"Frequency [Hz]"	"Sound Pessure Level [dB]  / [2.83V 1m] "	"Frequency [Hz]"	"Sound Pessure Level [dB]  / [2.83V 1m] "	"Frequency [Hz]"	"Sound Pessure Level [dB]  / [2.83V 1m] "	"Frequency [Hz]"	"Sound Pessure Level [dB]  / [2.83V 1m] "	"Frequency [Hz]"	"Sound Pessure Level [dB]  / [2.83V 1m] "	"Frequency [Hz]"	"Sound Pessure Level [dB]  / [2.83V 1m] "	"Frequency [Hz]"	"Sound Pessure Level [dB]  / [2.83V 1m] "	"Frequency [Hz]"	"Sound Pessure Level [dB]  / [2.83V 1m] "
20.5078	51.6394	20.5078	51.6236	20.5078	51.5394	20.5078	51.4908	20.5078	51.3196	20.5078	51.2341	20.5078	50.971	20.5078	50.8414	20.5078	50.4807	20.5078	50.2951	20.5078	49.8336	20.5078	49.5742	20.5078	49.0169	20.5078	48.6583	20.5078	48.0298	20.5078	47.5401	20.5078	46.9083	20.5078	46.2603	20.5078	45.7767	20.5078	44.9895	20.5078	44.91	20.5078	44.1271	20.5078	44.6661	20.5078	44.1335	20.5078	45.1583	20.5078	44.9804	20.5078	46.1027	20.5078	46.1749	20.5078	47.1293	20.5078	47.3061	20.5078	48.0102	20.5078	48.1908	20.5078	48.6443	20.5078	48.7715	20.5078	48.9921	20.5078	49.0374
21.9727	49.2211	21.9727	49.122	21.9727	49.1441	21.9727	48.8418	21.9727	48.8843	21.9727	48.3636	21.9727	48.4222	21.9727	47.6566	21.9727	47.7226	21.9727	46.6713	21.9727	46.7277	21.9727	45.3317	21.9727	45.3445	21.9727	43.5279	21.9727	43.4214	21.9727	41.1454	21.9727	40.7206	21.9727	38.4189	21.9727	37.1294	21.9727	37.3973	21.9727	35.1982	21.9727	39.7296	21.9727	38.4602	21.9727	42.7282	21.9727	42.1313	21.9727	45.1522	21.9727	44.8364	21.9727	46.9659	21.9727	46.7809	21.9727	48.2747	21.9727	48.1613	21.9727	49.1588	21.9727	49.0917	21.9727	49.6666	21.9727	49.6351	21.9727	49.8232
23.4375	47.9426	23.4375	47.8561	23.4375	47.8209	23.4375	47.5765	23.4375	47.4793	23.4375	47.1313	23.4375	46.9127	23.4375	46.5834	23.4375	46.1429	23.4375	46.0733	23.4375	45.2764	23.4375	45.8524	23.4375	44.6154	23.4375	46.2007	23.4375	44.6726	23.4375	47.1868	23.4375	45.7221	23.4375	48.5894	23.4375	47.4158	23.4375	50.1181	23.4375	49.2514	23.4375	51.581	23.4375	50.9554	23.4375	52.8864	23.4375	52.4348	23.4375	53.9985	23.4375	53.6714	23.4375	54.9053	23.4375	54.6703	23.4375	55.6044	23.4375	55.4412	23.4375	56.0962	23.4375	55.9927	23.4375	56.3812	23.4375	56.3309	23.4375	56.4597
24.9023	49.7424	24.9023	49.7146	24.9023	49.5306	24.9023	49.4463	24.9023	49.0716	24.9023	48.9296	24.9023	48.353	24.9023	48.1598	24.9023	47.3738	24.9023	47.1673	24.9023	46.2007	24.9023	46.1073	24.9023	45.1169	24.9023	45.4214	24.9023	44.7836	24.9023	45.7502	24.9023	45.7442	24.9023	47.1707	24.9023	47.59	24.9023	49.0716	24.9023	49.6081	24.9023	50.9462	24.9023	51.4499	24.9023	52.5968	24.9023	53.0215	24.9023	53.9772	24.9023	54.3165	24.9023	55.0893	24.9023	55.3485	24.9023	55.9452	24.9023	56.132	24.9023	56.5565	24.9023	56.6772	24.9023	56.9315	24.9023	56.9907	24.9023	57.0754
26.3672	51.3294	26.3672	51.2713	26.3672	51.2717	26.3672	51.1074	26.3672	51.1068	26.3672	50.8712	26.3672	50.8667	26.3672	50.6311	26.3672	50.6173	26.3672	50.5009	26.3672	50.4703	26.3672	50.6257	26.3672	50.5708	26.3672	51.1175	26.3672	51.0353	26.3672	51.9753	26.3672	51.87	26.3672	53.0839	26.3672	52.9645	26.3672	54.2931	26.3672	54.1685	26.3672	55.4824	26.3672	55.3599	26.3672	56.5764	26.3672	56.4614	26.3672	57.533	26.3672	57.4301	26.3672	58.3298	26.3672	58.2427	26.3672	58.955	26.3672	58.8867	26.3672	59.4016	26.3672	59.3547	26.3672	59.6659	26.3672	59.642	26.3672	59.7462
27.832	56.1928	27.832	56.1365	27.832	56.1559	27.832	55.9905	27.832	56.0283	27.832	55.7648	27.832	55.8188	27.832	55.48	27.832	55.5459	27.832	55.1726	27.832	55.2425	27.832	54.9013	27.832	54.9629	27.832	54.7471	27.832	54.7841	27.832	54.7974	27.832	54.7936	27.832	55.1086	27.832	55.0558	27.832	55.671	27.832	55.5736	27.832	56.4108	27.832	56.2833	27.832	57.2266	27.832	57.0866	27.832	58.0261	27.832	57.889	27.832	58.741	27.832	58.6188	27.832	59.3264	27.832	59.2278	27.832	59.7546	27.832	59.6856	27.832	60.0095	27.832	59.9741	27.832	60.0833
29.2969	56.8029	29.2969	56.731	29.2969	56.7599	29.2969	56.5474	29.2969	56.6032	29.2969	56.2619	29.2969	56.3396	29.2969	55.896	29.2969	55.9863	29.2969	55.4933	29.2969	55.5793	29.2969	55.1315	29.2969	55.1859	29.2969	54.927	29.2969	54.9138	29.2969	55.0065	29.2969	54.8947	29.2969	55.4391	29.2969	55.2239	29.2969	56.1826	29.2969	55.8928	29.2969	57.1106	29.2969	56.7906	29.2969	58.0855	29.2969	57.7743	29.2969	59.0036	29.2969	58.7269	29.2969	59.8	29.2969	59.5718	29.2969	60.4376	29.2969	60.2645	29.2969	60.8957	29.2969	60.7801	29.2969	61.163	29.2969	61.1052	29.2969	61.2334
30.7617	57.0089	30.7617	56.9649	30.7617	56.9543	30.7617	56.8303	30.7617	56.8032	30.7617	56.6255	30.7617	56.5688	30.7617	56.3891	30.7617	56.2806	30.7617	56.1844	30.7617	55.9918	30.7617	56.0996	30.7617	55.7862	30.7617	56.2296	30.7617	55.7702	30.7617	56.6344	30.7617	56.0369	30.7617	57.3014	30.7617	56.6126	30.7617	58.1511	30.7617	57.4363	30.7617	59.0791	30.7617	58.3959	30.7617	59.9935	30.7617	59.3804	30.7617	60.8286	30.7617	60.3066	30.7617	61.5414	30.7617	61.1205	30.7617	62.1051	30.7617	61.7889	30.7617	62.5029	30.7617	62.2923	30.7617	62.7245	30.7617	62.6193	30.7617	62.7639
32.2266	57.3073	32.2266	57.2703	32.2266	57.2789	32.2266	57.174	32.2266	57.192	32.2266	57.0401	32.2266	57.0675	32.2266	56.9087	32.2266	56.9422	32.2266	56.841	32.2266	56.8706	32.2266	56.9118	32.2266	56.9208	32.2266	57.1878	32.2266	57.1578	32.2266	57.6966	32.2266	57.6173	32.2266	58.4095	32.2266	58.2845	32.2266	59.2553	32.2266	59.0999	32.2266	60.151	32.2266	59.9841	32.2266	61.0249	32.2266	60.8631	32.2266	61.8239	32.2266	61.6788	32.2266	62.5116	32.2266	62.3905	32.2266	63.0635	32.2266	62.9705	32.2266	63.4634	32.2266	63.4007	32.2266	63.701	32.2266	63.6694	32.2266	63.7703
33.6914	60.1386	33.6914	60.0903	33.6914	60.1454	33.6914	60.0077	33.6914	60.1128	33.6914	59.9088	33.6914	60.0525	33.6914	59.8233	33.6914	59.986	33.6914	59.7919	33.6914	59.9456	33.6914	59.8621	33.6914	59.9721	33.6914	60.0756	33.6914	60.1088	33.6914	60.4539	33.6914	60.3893	33.6914	60.9866	33.6914	60.8242	33.6914	61.6344	33.6914	61.394	33.6914	62.342	33.6914	62.0549	33.6914	63.0531	33.6914	62.7522	33.6914	63.7189	33.6914	63.4326	33.6914	64.3014	33.6914	64.0511	33.6914	64.7721	33.6914	64.5732	33.6914	65.111	33.6914	64.9734	33.6914	65.3049	33.6914	65.2347	33.6914	65.3467
35.1562	62.3249	35.1562	62.2833	35.1562	62.3234	35.1562	62.2065	35.1562	62.278	35.1562	62.1102	35.1562	62.1954	35.1562	62.0187	35.1562	62.0909	35.1562	61.9645	35.1562	61.9896	35.1562	61.9857	35.1562	61.9268	35.1562	62.1184	35.1562	61.9453	35.1562	62.3861	35.1562	62.0864	35.1562	62.7895	35.1562	62.376	35.1562	63.3045	35.1562	62.8126	35.1562	63.8892	35.1562	63.3652	35.1562	64.4946	35.1562	63.9835	35.1562	65.0743	35.1562	64.6116	35.1562	65.5887	35.1562	65.199	35.1562	66.007	35.1562	65.7056	35.1562	66.3064	35.1562	66.1018	35.1562	66.4712	35.1562	66.368	35.1562	66.4925
36.6211	63.2404	36.6211	63.2534	36.6211	63.1912	36.6211	63.235	36.6211	63.1085	36.6211	63.1968	36.6211	63.0022	36.6211	63.1578	36.6211	62.8907	36.6211	63.1444	36.6211	62.8014	36.6211	63.1876	36.6211	62.7703	36.6211	63.3182	36.6211	62.8369	36.6211	63.5585	36.6211	63.0346	36.6211	63.9147	36.6211	63.3781	36.6211	64.3726	36.6211	63.8554	36.6211	64.9008	36.6211	64.4301	36.6211	65.4584	36.6211	65.0515	36.6211	66.0029	36.6211	65.6678	36.6211	66.4958	36.6211	66.2337	36.6211	66.9053	36.6211	66.7134	36.6211	67.2067	36.6211	67.0814	36.6211	67.3825	36.6211	67.3207	36.6211	67.4219
38.0859	64.3764	38.0859	64.3651	38.0859	64.3559	38.0859	64.3264	38.0859	64.3057	38.0859	64.2718	38.0859	64.2345	38.0859	64.2199	38.0859	64.1586	38.0859	64.1964	38.0859	64.1016	38.0859	64.2315	38.0859	64.0942	38.0859	64.3555	38.0859	64.1694	38.0859	64.5898	38.0859	64.3553	38.0859	64.9397	38.0859	64.6652	38.0859	65.39	38.0859	65.0911	38.0859	65.9089	38.0859	65.6044	38.0859	66.4552	38.0859	66.1634	38.0859	66.9866	38.0859	66.7231	38.0859	67.4656	38.0859	67.2423	38.0859	67.8613	38.0859	67.687	38.0859	68.1508	38.0859	68.0314	38.0859	68.3182	38.0859	68.2576	38.0859	68.3546
39.5508	65.7579	39.5508	65.731	39.5508	65.7562	39.5508	65.6791	39.5508	65.7281	39.5508	65.6121	39.5508	65.6815	39.5508	65.5465	39.5508	65.6305	39.5508	65.5052	39.5508	65.5953	39.5508	65.516	39.5508	65.6009	39.5508	65.607	39.5508	65.6742	39.5508	65.8002	39.5508	65.8379	39.5508	66.1034	39.5508	66.1041	39.5508	66.506	39.5508	66.4686	39.5508	66.9804	39.5508	66.9105	39.5508	67.4889	39.5508	67.3967	39.5508	67.9909	39.5508	67.889	39.5508	68.449	39.5508	68.3501	39.5508	68.8323	39.5508	68.7476	39.5508	69.117	39.5508	69.0555	39.5508	69.2872	39.5508	69.2548	39.5508	69.3337
41.0156	67.3665	41.0156	67.3505	41.0156	67.3664	41.0156	67.3225	41.0156	67.3508	41.0156	67.2917	41.0156	67.3252	41.0156	67.2722	41.0156	67.2997	41.0156	67.2823	41.0156	67.2893	41.0156	67.3424	41.0156	67.3128	41.0156	67.4715	41.0156	67.3905	41.0156	67.6828	41.0156	67.5409	41.0156	67.9784	41.0156	67.7751	41.0156	68.3479	41.0156	68.093	41.0156	68.7693	41.0156	68.4812	41.0156	69.2131	41.0156	68.9148	41.0156	69.6473	41.0156	69.3621	41.0156	70.041	41.0156	69.7894	41.0156	70.3674	41.0156	70.1657	41.0156	70.6053	41.0156	70.4648	41.0156	70.7392	41.0156	70.6672	41.0156	70.7604
42.4805	68.6024	42.4805	68.6124	42.4805	68.5696	42.4805	68.603	42.4805	68.5145	42.4805	68.5818	42.4805	68.4423	42.4805	68.5604	42.4805	68.3627	42.4805	68.5538	42.4805	68.2904	42.4805	68.579	42.4805	68.2447	42.4805	68.6533	42.4805	68.248	42.4805	68.7905	42.4805	68.322	42.4805	68.9975	42.4805	68.4828	42.4805	69.2714	42.4805	68.7349	42.4805	69.5988	42.4805	69.0684	42.4805	69.9572	42.4805	69.4597	42.4805	70.3186	42.4805	69.8765	42.4805	70.6536	42.4805	70.2838	42.4805	70.9345	42.4805	70.6488	42.4805	71.1382	42.4805	70.944	42.4805	71.2475	42.4805	71.1494	42.4805	71.2521
43.9453	69.5687	43.9453	69.5714	43.9453	69.5474	43.9453	69.558	43.9453	69.509	43.9453	69.535	43.9453	69.4587	43.9453	69.5126	43.9453	69.4064	43.9453	69.5046	43.9453	69.3656	43.9453	69.5275	43.9453	69.3538	43.9453	69.5985	43.9453	69.3902	43.9453	69.7325	43.9453	69.4926	43.9453	69.9378	43.9453	69.673	43.9453	70.2129	43.9453	69.9334	43.9453	70.5448	43.9453	70.2632	43.9453	70.9107	43.9453	70.6408	43.9453	71.2821	43.9453	71.0368	43.9453	71.6289	43.9453	71.4194	43.9453	71.9231	43.9453	71.7584	43.9453	72.1417	43.9453	72.0284	43.9453	72.2678	43.9453	72.2101	43.9453	72.2915
45.4102	70.7603	45.4102	70.7692	45.4102	70.7342	45.4102	70.7627	45.4102	70.6927	45.4102	70.7467	45.4102	70.6412	45.4102	70.7303	45.4102	70.5891	45.4102	70.7263	45.4102	70.5494	45.4102	70.7504	45.4102	70.5382	45.4102	70.8188	45.4102	70.5732	45.4102	70.9461	45.4102	70.6708	45.4102	71.1404	45.4102	70.8421	45.4102	71.401	45.4102	71.089	45.4102	71.7158	45.4102	71.4024	45.4102	72.0634	45.4102	71.7622	45.4102	72.4164	45.4102	72.1414	45.4102	72.7458	45.4102	72.5096	45.4102	73.0244	45.4102	72.8378	45.4102	73.2301	45.4102	73.1012	45.4102	73.3464	45.4102	73.2806	45.4102	73.364
46.875	71.8185	46.875	71.8432	46.875	71.7802	46.875	71.8551	46.875	71.7306	46.875	71.8587	46.875	71.6755	46.875	71.8618	46.875	71.6239	46.875	71.8751	46.875	71.5882	46.875	71.9119	46.875	71.5831	46.875	71.9868	46.875	71.6245	46.875	72.1123	46.875	71.7267	46.875	72.2962	46.875	71.8991	46.875	72.5385	46.875	72.1429	46.875	72.8291	46.875	72.4487	46.875	73.1497	46.875	72.7977	46.875	73.4757	46.875	73.164	46.875	73.7805	46.875	73.5192	46.875	74.0388	46.875	73.8359	46.875	74.229	46.875	74.0905	46.875	74.3352	46.875	74.265	46.875	74.3481
48.3398	72.6519	48.3398	72.6573	48.3398	72.6404	48.3398	72.6571	48.3398	72.625	48.3398	72.6553	48.3398	72.6109	48.3398	72.6588	48.3398	72.6059	48.3398	72.6775	48.3398	72.6199	48.3398	72.7234	48.3398	72.6646	48.3398	72.8094	48.3398	72.7516	48.3398	72.9463	48.3398	72.8906	48.3398	73.1403	48.3398	73.0865	48.3398	73.3905	48.3398	73.3378	48.3398	73.6871	48.3398	73.6347	48.3398	74.0123	48.3398	73.9604	48.3398	74.3433	48.3398	74.2931	48.3398	74.655	48.3398	74.6089	48.3398	74.9234	48.3398	74.8845	48.3398	75.128	48.3398	75.0998	48.3398	75.2538	48.3398	75.2389	48.3398	75.2916
51.2695	74.7458	51.2695	74.7172	51.2695	74.7708	51.2695	74.6876	51.2695	74.7918	51.2695	74.6627	51.2695	74.8113	51.2695	74.6502	51.2695	74.8339	51.2695	74.6598	51.2695	74.8661	51.2695	74.7019	51.2695	74.9153	51.2695	74.786	51.2695	74.9894	51.2695	74.919	51.2695	75.0954	51.2695	75.103	51.2695	75.2382	51.2695	75.334	51.2695	75.4192	51.2695	75.6018	51.2695	75.6351	51.2695	75.8902	51.2695	75.8774	51.2695	76.1795	51.2695	76.1327	51.2695	76.4486	51.2695	76.3834	51.2695	76.6772	51.2695	76.6104	51.2695	76.8481	51.2695	76.7944	51.2695	76.9488	51.2695	76.9191	51.2695	76.9726
52.7344	75.7625	52.7344	75.7672	52.7344	75.7537	52.7344	75.7699	52.7344	75.7411	52.7344	75.7746	52.7344	75.7273	52.7344	75.7874	52.7344	75.717	52.7344	75.8157	52.7344	75.7171	52.7344	75.8673	52.7344	75.7357	52.7344	75.9499	52.7344	75.7817	52.7344	76.069	52.7344	75.8636	52.7344	76.2271	52.7344	75.9878	52.7344	76.4224	52.7344	76.1569	52.7344	76.6478	52.7344	76.3677	52.7344	76.891	52.7344	76.6113	52.7344	77.136	52.7344	76.8727	52.7344	77.3643	52.7344	77.1328	52.7344	77.5572	52.7344	77.3712	52.7344	77.6981	52.7344	77.5681	52.7344	77.7741	52.7344	77.7073	52.7344	77.7777
54.1992	76.6438	54.1992	76.6578	54.1992	76.6252	54.1992	76.668	54.1992	76.6031	54.1992	76.6776	54.1992	76.5806	54.1992	76.6913	54.1992	76.5628	54.1992	76.7153	54.1992	76.5566	54.1992	76.7568	54.1992	76.57	54.1992	76.8227	54.1992	76.6115	54.1992	76.9194	54.1992	76.6885	54.1992	77.0505	54.1992	76.8064	54.1992	77.2159	54.1992	76.9666	54.1992	77.4109	54.1992	77.1653	54.1992	77.6256	54.1992	77.393	54.1992	77.8458	54.1992	77.6356	54.1992	78.0546	54.1992	77.8752	54.1992	78.2342	54.1992	78.0929	54.1992	78.3683	54.1992	78.2708	54.1992	78.444	54.1992	78.3942	54.1992	78.4533
55.6641	77.2835	55.6641	77.2906	55.6641	77.2762	55.6641	77.2981	55.6641	77.2696	55.6641	77.3086	55.6641	77.2668	55.6641	77.3264	55.6641	77.2722	55.6641	77.357	55.6641	77.2916	55.6641	77.4067	55.6641	77.3314	55.6641	77.4816	55.6641	77.3979	55.6641	77.587	55.6641	77.4963	55.6641	77.7256	55.6641	77.6296	55.6641	77.8969	55.6641	77.7975	55.6641	78.096	55.6641	77.9957	55.6641	78.3132	55.6641	78.2152	55.6641	78.5352	55.6641	78.4434	55.6641	78.7459	55.6641	78.6648	55.6641	78.9285	55.6641	78.8627	55.6641	79.0678	55.6641	79.0213	55.6641	79.1515	55.6641	79.1274	55.6641	79.1721
58.5938	78.7659	58.5938	78.7668	58.5938	78.7664	58.5938	78.7699	58.5938	78.7687	58.5938	78.7774	58.5938	78.7745	58.5938	78.7924	58.5938	78.7866	58.5938	78.8191	58.5938	78.809	58.5938	78.8617	58.5938	78.8462	58.5938	78.9247	58.5938	78.9026	58.5938	79.0118	58.5938	78.9823	58.5938	79.1251	58.5938	79.0881	58.5938	79.2644	58.5938	79.2205	58.5938	79.4266	58.5938	79.3769	58.5938	79.6045	58.5938	79.5513	58.5938	79.7878	58.5938	79.7342	58.5938	79.9634	58.5938	79.9133	58.5938	80.1172	58.5938	80.0747	58.5938	80.2357	58.5938	80.2047	58.5938	80.3079	58.5938	80.2916	58.5938	80.3272
60.0586	79.3124	60.0586	79.3152	60.0586	79.3132	60.0586	79.3221	60.0586	79.3179	60.0586	79.3349	60.0586	79.3279	60.0586	79.3562	60.0586	79.3457	60.0586	79.3889	60.0586	79.3743	60.0586	79.4368	60.0586	79.4175	60.0586	79.503	60.0586	79.4786	60.0586	79.5906	60.0586	79.5608	60.0586	79.7011	60.0586	79.6661	60.0586	79.8343	60.0586	79.7944	60.0586	79.9873	60.0586	79.9434	60.0586	80.1539	60.0586	80.1075	60.0586	80.3248	60.0586	80.2784	60.0586	80.4883	60.0586	80.445	60.0586	80.6314	60.0586	80.5947	60.0586	80.7419	60.0586	80.7151	60.0586	80.8095	60.0586	80.7954	60.0586	80.8279
62.9883	80.396	62.9883	80.3973	62.9883	80.4003	62.9883	80.4047	62.9883	80.4104	62.9883	80.419	62.9883	80.4272	62.9883	80.442	62.9883	80.4521	62.9883	80.4755	62.9883	80.487	62.9883	80.5218	62.9883	80.5339	62.9883	80.583	62.9883	80.5949	62.9883	80.6611	62.9883	80.6716	62.9883	80.7572	62.9883	80.7651	62.9883	80.8711	62.9883	80.8751	62.9883	81.0005	62.9883	80.9998	62.9883	81.1409	62.9883	81.1351	62.9883	81.2849	62.9883	81.2748	62.9883	81.4232	62.9883	81.4104	62.9883	81.545	62.9883	81.532	62.9883	81.6399	62.9883	81.6293	62.9883	81.6993	62.9883	81.6933	62.9883	81.7176
64.4531	80.7756	64.4531	80.7779	64.4531	80.7797	64.4531	80.7872	64.4531	80.7907	64.4531	80.804	64.4531	80.809	64.4531	80.8296	64.4531	80.8359	64.4531	80.8655	64.4531	80.8725	64.4531	80.9131	64.4531	80.9206	64.4531	80.9741	64.4531	80.9814	64.4531	81.0498	64.4531	81.0562	64.4531	81.1408	64.4531	81.1455	64.4531	81.2471	64.4531	81.2489	64.4531	81.3665	64.4531	81.3648	64.4531	81.4951	64.4531	81.4894	64.4531	81.6266	64.4531	81.6175	64.4531	81.7526	64.4531	81.7413	64.4531	81.8637	64.4531	81.8523	64.4531	81.9504	64.4531	81.9411	64.4531	82.0047	64.4531	81.9994	64.4531	82.0215
67.3828	81.2331	67.3828	81.2389	67.3828	81.2359	67.3828	81.2533	67.3828	81.2475	67.3828	81.2764	67.3828	81.2681	67.3828	81.3085	67.3828	81.2983	67.3828	81.35	67.3828	81.3386	67.3828	81.4011	67.3828	81.3892	67.3828	81.4624	67.3828	81.4506	67.3828	81.534	67.3828	81.5228	67.3828	81.6162	67.3828	81.6056	67.3828	81.7084	67.3828	81.6981	67.3828	81.8093	67.3828	81.7988	67.3828	81.9161	67.3828	81.9049	67.3828	82.0241	67.3828	82.0123	67.3828	82.1272	67.3828	82.1153	67.3828	82.2179	67.3828	82.2071	67.3828	82.2888	67.3828	82.2804	67.3828	82.3332	67.3828	82.3286	67.3828	82.3469
68.8477	81.384	68.8477	81.3894	68.8477	81.388	68.8477	81.4039	68.8477	81.4013	68.8477	81.4277	68.8477	81.4241	68.8477	81.4607	68.8477	81.4565	68.8477	81.5029	68.8477	81.4986	68.8477	81.5543	68.8477	81.5503	68.8477	81.6149	68.8477	81.6114	68.8477	81.6845	68.8477	81.6817	68.8477	81.7628	68.8477	81.7604	68.8477	81.8494	68.8477	81.8467	68.8477	81.9427	68.8477	81.9391	68.8477	82.0404	68.8477	82.0353	68.8477	82.1384	68.8477	82.1318	68.8477	82.2315	68.8477	82.2239	68.8477	82.3133	68.8477	82.3057	68.8477	82.3771	68.8477	82.3709	68.8477	82.4171	68.8477	82.4137	68.8477	82.4297
71.7773	81.8303	71.7773	81.8354	71.7773	81.8357	71.7773	81.8506	71.7773	81.8514	71.7773	81.8759	71.7773	81.8773	71.7773	81.9106	71.7773	81.9128	71.7773	81.954	71.7773	81.9573	71.7773	82.0053	71.7773	82.01	71.7773	82.0635	71.7773	82.0699	71.7773	82.1277	71.7773	82.1359	71.7773	82.197	71.7773	82.2069	71.7773	82.2706	71.7773	82.2817	71.7773	82.3473	71.7773	82.3588	71.7773	82.4255	71.7773	82.4365	71.7773	82.5027	71.7773	82.5124	71.7773	82.5755	71.7773	82.5833	71.7773	82.6395	71.7773	82.6451	71.7773	82.6899	71.7773	82.6935	71.7773	82.7225	71.7773	82.7242	71.7773	82.7343
74.707	82.0753	74.707	82.0798	74.707	82.0823	74.707	82.0956	74.707	82.1006	74.707	82.1222	74.707	82.1297	74.707	82.1582	74.707	82.1684	74.707	82.2025	74.707	82.2154	74.707	82.2531	74.707	82.2689	74.707	82.3084	74.707	82.3272	74.707	82.3666	74.707	82.3882	74.707	82.4263	74.707	82.4503	74.707	82.4865	74.707	82.5121	74.707	82.5463	74.707	82.5724	74.707	82.6051	74.707	82.6301	74.707	82.6617	74.707	82.6843	74.707	82.7143	74.707	82.7333	74.707	82.7605	74.707	82.775	74.707	82.7972	74.707	82.807	74.707	82.8217	74.707	82.8265	74.707	82.8317
77.6367	82.0225	77.6367	82.0293	77.6367	82.028	77.6367	82.0479	77.6367	82.0456	77.6367	82.0776	77.6367	82.0744	77.6367	82.1167	77.6367	82.1132	77.6367	82.1634	77.6367	82.1601	77.6367	82.2154	77.6367	82.213	77.6367	82.2702	77.6367	82.2696	77.6367	82.3257	77.6367	82.3275	77.6367	82.38	77.6367	82.3847	77.6367	82.4319	77.6367	82.4395	77.6367	82.4806	77.6367	82.4908	77.6367	82.5259	77.6367	82.5378	77.6367	82.5676	77.6367	82.58	77.6367	82.6051	77.6367	82.6168	77.6367	82.6375	77.6367	82.6472	77.6367	82.663	77.6367	82.67	77.6367	82.6801	77.6367	82.6837	77.6367	82.6872
79.1016	82.0888	79.1016	82.0985	79.1016	82.093	79.1016	82.1212	79.1016	82.1107	79.1016	82.1554	79.1016	82.1408	79.1016	82.1989	79.1016	82.1816	79.1016	82.2492	79.1016	82.2306	79.1016	82.3033	79.1016	82.285	79.1016	82.3584	79.1016	82.3419	79.1016	82.4121	79.1016	82.3987	79.1016	82.4623	79.1016	82.453	79.1016	82.5079	79.1016	82.5033	79.1016	82.5484	79.1016	82.5483	79.1016	82.5839	79.1016	82.5875	79.1016	82.6149	79.1016	82.621	79.1016	82.6416	79.1016	82.6488	79.1016	82.6641	79.1016	82.6709	79.1016	82.6818	79.1016	82.6869	79.1016	82.6935	79.1016	82.6963	79.1016	82.6985
82.0312	82.3659	82.0312	82.3772	82.0312	82.368	82.0312	82.4009	82.0312	82.3834	82.0312	82.4354	82.0312	82.4107	82.0312	82.4778	82.0312	82.4478	82.0312	82.5249	82.0312	82.4919	82.0312	82.5731	82.0312	82.54	82.0312	82.6191	82.0312	82.5888	82.0312	82.6599	82.0312	82.6353	82.0312	82.6935	82.0312	82.6771	82.0312	82.719	82.0312	82.7123	82.0312	82.7366	82.0312	82.7399	82.0312	82.7478	82.0312	82.7599	82.0312	82.7546	82.0312	82.7731	82.0312	82.7591	82.0312	82.7805	82.0312	82.763	82.0312	82.7835	82.0312	82.7673	82.0312	82.7832	82.0312	82.772	82.0312	82.7807	82.0312	82.7767
84.9609	82.2197	84.9609	82.2089	84.9609	82.2456	84.9609	82.2124	84.9609	82.2862	84.9609	82.2284	84.9609	82.3399	84.9609	82.2542	84.9609	82.4038	84.9609	82.2866	84.9609	82.4744	84.9609	82.3225	84.9609	82.5477	84.9609	82.359	84.9609	82.6193	84.9609	82.3943	84.9609	82.6855	84.9609	82.4271	84.9609	82.7427	84.9609	82.4576	84.9609	82.7885	84.9609	82.4867	84.9609	82.8211	84.9609	82.5158	84.9609	82.8401	84.9609	82.5466	84.9609	82.846	84.9609	82.5801	84.9609	82.84	84.9609	82.6164	84.9609	82.8238	84.9609	82.655	84.9609	82.7993	84.9609	82.6944	84.9609	82.7684	84.9609	82.7328
87.8906	82.0752	87.8906	82.0722	87.8906	82.1004	87.8906	82.0909	87.8906	82.1466	87.8906	82.13	87.8906	82.2115	87.8906	82.1869	87.8906	82.2916	87.8906	82.258	87.8906	82.3824	87.8906	82.3392	87.8906	82.479	87.8906	82.4261	87.8906	82.576	87.8906	82.5142	87.8906	82.6686	87.8906	82.5993	87.8906	82.7524	87.8906	82.6778	87.8906	82.824	87.8906	82.7469	87.8906	82.8813	87.8906	82.805	87.8906	82.9238	87.8906	82.8519	87.8906	82.9522	87.8906	82.8881	87.8906	82.9684	87.8906	82.9152	87.8906	82.975	87.8906	82.9352	87.8906	82.9747	87.8906	82.9501	87.8906	82.9697	87.8906	82.9614
90.8203	82.3961	90.8203	82.4136	90.8203	82.3969	90.8203	82.4484	90.8203	82.4152	90.8203	82.4986	90.8203	82.4494	90.8203	82.5608	90.8203	82.4966	90.8203	82.6308	90.8203	82.5529	90.8203	82.7036	90.8203	82.6141	90.8203	82.774	90.8203	82.6755	90.8203	82.8371	90.8203	82.7328	90.8203	82.8888	90.8203	82.7821	90.8203	82.926	90.8203	82.8206	90.8203	82.9473	90.8203	82.8468	90.8203	82.9532	90.8203	82.8608	90.8203	82.9457	90.8203	82.8644	90.8203	82.9287	90.8203	82.8607	90.8203	82.9065	90.8203	82.8538	90.8203	82.8838	90.8203	82.8478	90.8203	82.8646	90.8203	82.8463	90.8203	82.8517
95.2148	82.505	95.2148	82.5182	95.2148	82.5088	95.2148	82.5476	95.2148	82.529	95.2148	82.5911	95.2148	82.5635	95.2148	82.6451	95.2148	82.6092	95.2148	82.7054	95.2148	82.6621	95.2148	82.7668	95.2148	82.7176	95.2148	82.8243	95.2148	82.7711	95.2148	82.8731	95.2148	82.8181	95.2148	82.9091	95.2148	82.8548	95.2148	82.9298	95.2148	82.8783	95.2148	82.9341	95.2148	82.8873	95.2148	82.9232	95.2148	82.8821	95.2148	82.8999	95.2148	82.865	95.2148	82.8686	95.2148	82.8403	95.2148	82.8349	95.2148	82.8133	95.2148	82.8045	95.2148	82.7897	95.2148	82.7823	95.2148	82.7748	95.2148	82.7719
98.1445	82.5696	98.1445	82.5844	98.1445	82.5725	98.1445	82.6162	98.1445	82.5922	98.1445	82.6627	98.1445	82.6265	98.1445	82.7202	98.1445	82.6719	98.1445	82.7841	98.1445	82.7242	98.1445	82.849	98.1445	82.7782	98.1445	82.9091	98.1445	82.829	98.1445	82.9587	98.1445	82.8716	98.1445	82.9933	98.1445	82.9017	98.1445	83.0092	98.1445	82.9165	98.1445	83.0052	98.1445	82.9146	98.1445	82.9819	98.1445	82.8968	98.1445	82.9427	98.1445	82.8663	98.1445	82.8931	98.1445	82.8282	98.1445	82.8405	98.1445	82.7894	98.1445	82.7926	98.1445	82.7575	98.1445	82.7568	98.1445	82.7389	98.1445	82.7382
101.074	82.7891	101.074	82.809	101.074	82.7831	101.074	82.8416	101.074	82.7905	101.074	82.8845	101.074	82.8097	101.074	82.9337	101.074	82.8377	101.074	82.9848	101.074	82.8707	101.074	83.0322	101.074	82.9041	101.074	83.0708	101.074	82.9333	101.074	83.0952	101.074	82.9537	101.074	83.1015	101.074	82.9614	101.074	83.0871	101.074	82.9539	101.074	83.0516	101.074	82.93	101.074	82.9973	101.074	82.8908	101.074	82.9288	101.074	82.8399	101.074	82.8532	101.074	82.7831	101.074	82.7794	101.074	82.7279	101.074	82.7162	101.074	82.6827	101.074	82.6716	101.074	82.6551	101.074	82.6507
105.469	82.7657	105.469	82.7751	105.469	82.7741	105.469	82.8012	105.469	82.7997	105.469	82.8417	105.469	82.8401	105.469	82.8928	105.469	82.8921	105.469	82.9498	105.469	82.9509	105.469	83.0072	105.469	83.0114	105.469	83.0596	105.469	83.0679	105.469	83.1017	105.469	83.1151	105.469	83.1291	105.469	83.1481	105.469	83.1387	105.469	83.1634	105.469	83.1292	105.469	83.159	105.469	83.1018	105.469	83.1353	105.469	83.0601	105.469	83.0953	105.469	83.0102	105.469	83.0443	105.469	82.9599	105.469	82.9897	105.469	82.9179	105.469	82.9402	105.469	82.8919	105.469	82.9038	105.469	82.8867
108.398	82.8617	108.398	82.8787	108.398	82.8619	108.398	82.9111	108.398	82.8797	108.398	82.9555	108.398	82.9134	108.398	83.0076	108.398	82.96	108.398	83.0622	108.398	83.0147	108.398	83.1137	108.398	83.0718	108.398	83.1566	108.398	83.1247	108.398	83.1859	108.398	83.1671	108.398	83.1978	108.398	83.1934	108.398	83.1897	108.398	83.1997	108.398	83.1613	108.398	83.184	108.398	83.1146	108.398	83.1472	108.398	83.0542	108.398	83.0929	108.398	82.9872	108.398	83.0273	108.398	82.9228	108.398	82.9592	108.398	82.8705	108.398	82.8982	108.398	82.8386	108.398	82.8536	108.398	82.8326
112.793	83.0544	112.793	83.0733	112.793	83.0536	112.793	83.1091	112.793	83.0703	112.793	83.159	112.793	83.1026	112.793	83.2186	112.793	83.1468	112.793	83.2826	112.793	83.198	112.793	83.3444	112.793	83.2505	112.793	83.3975	112.793	83.298	112.793	83.4355	112.793	83.3344	112.793	83.4531	112.793	83.3545	112.793	83.4469	112.793	83.3544	112.793	83.4156	112.793	83.3327	112.793	83.3613	112.793	83.2902	112.793	83.2888	112.793	83.2312	112.793	83.2065	112.793	83.1625	112.793	83.1248	112.793	83.0937	112.793	83.0548	112.793	83.0353	112.793	83.0064	112.793	82.9971	112.793	82.9865
117.188	83.2294	117.188	83.232	117.188	83.2419	117.188	83.249	117.188	83.269	117.188	83.2784	117.188	83.3086	117.188	83.3165	117.188	83.3576	117.188	83.3586	117.188	83.4117	117.188	83.399	117.188	83.4658	117.188	83.4318	117.188	83.5139	117.188	83.4511	117.188	83.5501	117.188	83.4523	117.188	83.569	117.188	83.4327	117.188	83.5661	117.188	83.3919	117.188	83.539	117.188	83.3328	117.188	83.488	117.188	83.2614	117.188	83.4163	117.188	83.1863	117.188	83.3306	117.188	83.1182	117.188	83.2404	117.188	83.0678	117.188	83.1567	117.188	83.0438	117.188	83.0908	117.188	83.0515
120.117	83.2314	120.117	83.2416	120.117	83.2367	120.117	83.2661	120.117	83.2572	120.117	83.3022	120.117	83.2912	120.117	83.3463	120.117	83.3356	120.117	83.3933	120.117	83.3861	120.117	83.4376	120.117	83.4375	120.117	83.4734	120.117	83.484	120.117	83.4951	120.117	83.5199	120.117	83.4982	120.117	83.5396	120.117	83.4803	120.117	83.5391	120.117	83.441	120.117	83.516	120.117	83.3833	120.117	83.4703	120.117	83.3126	120.117	83.4052	120.117	83.2374	120.117	83.3273	120.117	83.1676	120.117	83.2457	120.117	83.1134	120.117	83.1711	120.117	83.0837	120.117	83.1144	120.117	83.0839
124.512	83.3356	124.512	83.3576	124.512	83.3292	124.512	83.3937	124.512	83.339	124.512	83.441	124.512	83.3639	124.512	83.496	124.512	83.4018	124.512	83.554	124.512	83.4488	124.512	83.6098	124.512	83.4998	124.512	83.6578	124.512	83.5486	124.512	83.6925	124.512	83.589	124.512	83.7095	124.512	83.6151	124.512	83.7055	124.512	83.6225	124.512	83.6793	124.512	83.6088	124.512	83.6322	124.512	83.5744	124.512	83.5687	124.512	83.5229	124.512	83.4956	124.512	83.4609	124.512	83.4223	124.512	83.3975	124.512	83.359	124.512	83.3431	124.512	83.3151	124.512	83.3073	124.512	83.2971
128.906	83.6458	128.906	83.6711	128.906	83.6303	128.906	83.7051	128.906	83.6253	128.906	83.7456	128.906	83.6308	128.906	83.7901	128.906	83.6458	128.906	83.8349	128.906	83.668	128.906	83.8755	128.906	83.6939	128.906	83.9066	128.906	83.7183	128.906	83.9227	128.906	83.7353	128.906	83.9185	128.906	83.7384	128.906	83.8901	128.906	83.7226	128.906	83.8354	128.906	83.6848	128.906	83.7558	128.906	83.6249	128.906	83.6562	128.906	83.5472	128.906	83.5458	128.906	83.4595	128.906	83.4367	128.906	83.3732	128.906	83.3426	128.906	83.3013	128.906	83.2763	128.906	83.256	128.906	83.2464
133.301	83.7236	133.301	83.734	133.301	83.7246	133.301	83.7554	133.301	83.7363	133.301	83.7859	133.301	83.7573	133.301	83.8224	133.301	83.7849	133.301	83.8606	133.301	83.8156	133.301	83.8947	133.301	83.8452	133.301	83.9183	133.301	83.8688	133.301	83.9252	133.301	83.8813	133.301	83.9099	133.301	83.8779	133.301	83.8687	133.301	83.8544	133.301	83.8013	133.301	83.8084	133.301	83.7108	133.301	83.7403	133.301	83.6047	133.301	83.6532	133.301	83.4941	133.301	83.5541	133.301	83.3923	133.301	83.4532	133.301	83.3131	133.301	83.3627	133.301	83.2674	133.301	83.2952	133.301	83.2615
139.16	83.7419	139.16	83.7632	139.16	83.7339	139.16	83.7965	139.16	83.7396	139.16	83.8397	139.16	83.7584	139.16	83.8894	139.16	83.7883	139.16	83.9416	139.16	83.826	139.16	83.9911	139.16	83.8671	139.16	84.032	139.16	83.9056	139.16	84.0583	139.16	83.9353	139.16	84.0646	139.16	83.9501	139.16	84.0468	139.16	83.9449	139.16	84.0034	139.16	83.917	139.16	83.9362	139.16	83.8669	139.16	83.8506	139.16	83.7984	139.16	83.7555	139.16	83.719	139.16	83.6625	139.16	83.6392	139.16	83.5839	139.16	83.5708	139.16	83.5309	139.16	83.5251	139.16	83.5106
143.555	83.9098	143.555	83.9209	143.555	83.9085	143.555	83.9414	143.555	83.9166	143.555	83.9705	143.555	83.9334	143.555	84.0062	143.555	83.9575	143.555	84.0454	143.555	83.9864	143.555	84.0835	143.555	84.0165	143.555	84.1149	143.555	84.0431	143.555	84.1332	143.555	84.0604	143.555	84.1324	143.555	84.063	143.555	84.1078	143.555	84.0459	143.555	84.0574	143.555	84.0065	143.555	83.9827	143.555	83.945	143.555	83.8893	143.555	83.8652	143.555	83.7868	143.555	83.7748	143.555	83.6878	143.555	83.6846	143.555	83.6055	143.555	83.6068	143.555	83.5516	143.555	83.5534	143.555	83.5336
147.949	84.0742	147.949	84.0773	147.949	84.0766	147.949	84.086	147.949	84.0841	147.949	84.0998	147.949	84.0963	147.949	84.1174	147.949	84.1119	147.949	84.1366	147.949	84.129	147.949	84.1536	147.949	84.145	147.949	84.1635	147.949	84.1558	147.949	84.1609	147.949	84.157	147.949	84.1404	147.949	84.1437	147.949	84.0982	147.949	84.112	147.949	84.033	147.949	84.0597	147.949	83.9472	147.949	83.987	147.949	83.847	147.949	83.8977	147.949	83.7425	147.949	83.7988	147.949	83.6462	147.949	83.7	147.949	83.5706	147.949	83.6132	147.949	83.5262	147.949	83.5498	147.949	83.5191
153.809	84.2106	153.809	84.2169	153.809	84.2099	153.809	84.2286	153.809	84.2143	153.809	84.2448	153.809	84.223	153.809	84.2636	153.809	84.2343	153.809	84.2821	153.809	84.2459	153.809	84.2958	153.809	84.2548	153.809	84.2996	153.809	84.2569	153.809	84.2879	153.809	84.2479	153.809	84.2555	153.809	84.2232	153.809	84.1992	153.809	84.1791	153.809	84.1184	153.809	84.1136	153.809	84.0161	153.809	84.0273	153.809	83.8994	153.809	83.9243	153.809	83.779	153.809	83.8125	153.809	83.6678	153.809	83.7029	153.809	83.5795	153.809	83.6084	153.809	83.5253	153.809	83.5416	153.809	83.5122
159.668	84.2529	159.668	84.2534	159.668	84.257	159.668	84.2592	159.668	84.2653	159.668	84.2703	159.668	84.2768	159.668	84.2856	159.668	84.2904	159.668	84.3027	159.668	84.3042	159.668	84.3175	159.668	84.315	159.668	84.3246	159.668	84.3182	159.668	84.318	159.668	84.3085	159.668	84.292	159.668	84.2806	159.668	84.2426	159.668	84.2305	159.668	84.1684	159.668	84.1565	159.668	84.0716	159.668	84.0603	159.668	83.9579	159.668	83.9477	159.668	83.8373	159.668	83.8284	159.668	83.7222	159.668	83.7149	159.668	83.6264	159.668	83.6212	159.668	83.5624	159.668	83.5597	159.668	83.539
165.527	84.4449	165.527	84.4447	165.527	84.4478	165.527	84.447	165.527	84.453	165.527	84.4513	165.527	84.46	165.527	84.4566	165.527	84.4678	165.527	84.4609	165.527	84.4745	165.527	84.4613	165.527	84.4773	165.527	84.4537	165.527	84.4724	165.527	84.4336	165.527	84.4554	165.527	84.3967	165.527	84.422	165.527	84.34	165.527	84.3686	165.527	84.2625	165.527	84.2941	165.527	84.1669	165.527	84.2001	165.527	84.059	165.527	84.0919	165.527	83.9481	165.527	83.9785	165.527	83.8455	165.527	83.8709	165.527	83.7631	165.527	83.7813	165.527	83.711	165.527	83.7205	165.527	83.6961
171.387	84.4583	171.387	84.4603	171.387	84.4582	171.387	84.4641	171.387	84.4601	171.387	84.469	171.387	84.4637	171.387	84.4741	171.387	84.4685	171.387	84.477	171.387	84.473	171.387	84.4747	171.387	84.4746	171.387	84.463	171.387	84.47	171.387	84.4374	171.387	84.4544	171.387	84.3938	171.387	84.4233	171.387	84.3294	171.387	84.3725	171.387	84.2438	171.387	84.2997	171.387	84.14	171.387	84.2057	171.387	84.0245	171.387	84.0951	171.387	83.9073	171.387	83.9763	171.387	83.8006	171.387	83.8608	171.387	83.7169	171.387	83.7616	171.387	83.6671	171.387	83.6909	171.387	83.658
177.246	84.3952	177.246	84.4001	177.246	84.3957	177.246	84.4099	177.246	84.4023	177.246	84.4235	177.246	84.4147	177.246	84.4392	177.246	84.432	177.246	84.4544	177.246	84.4517	177.246	84.4653	177.246	84.47	177.246	84.4669	177.246	84.4814	177.246	84.454	177.246	84.4796	177.246	84.4216	177.246	84.4584	177.246	84.3666	177.246	84.4131	177.246	84.2884	177.246	84.3417	177.246	84.1901	177.246	84.2459	177.246	84.078	177.246	84.1319	177.246	83.962	177.246	84.0099	177.246	83.8542	177.246	83.8927	177.246	83.7674	177.246	83.7942	177.246	83.7129	177.246	83.7265	177.246	83.6984
183.105	84.4599	183.105	84.4701	183.105	84.4465	183.105	84.477	183.105	84.4307	183.105	84.4812	183.105	84.4138	183.105	84.4828	183.105	84.3976	183.105	84.4816	183.105	84.3832	183.105	84.476	183.105	84.3707	183.105	84.4631	183.105	84.3585	183.105	84.4389	183.105	84.3429	183.105	84.3995	183.105	84.3191	183.105	84.342	183.105	84.2822	183.105	84.2657	183.105	84.2287	183.105	84.1733	183.105	84.1583	183.105	84.0709	183.105	84.0742	183.105	83.9676	183.105	83.9833	183.105	83.8741	183.105	83.8951	183.105	83.8009	183.105	83.8199	183.105	83.7563	183.105	83.7674	183.105	83.745
188.965	84.4479	188.965	84.479	188.965	84.4155	188.965	84.5081	188.965	84.3826	188.965	84.5344	188.965	84.3503	188.965	84.5568	188.965	84.3198	188.965	84.5732	188.965	84.2923	188.965	84.5811	188.965	84.2686	188.965	84.5769	188.965	84.2482	188.965	84.557	188.965	84.2289	188.965	84.518	188.965	84.2071	188.965	84.4578	188.965	84.1786	188.965	84.3769	188.965	84.1394	188.965	84.2785	188.965	84.088	188.965	84.1693	188.965	84.026	188.965	84.0587	188.965	83.9585	188.965	83.9575	188.965	83.8931	188.965	83.8758	188.965	83.8391	188.965	83.8212	188.965	83.805	188.965	83.7977
196.289	84.7605	196.289	84.7642	196.289	84.7466	196.289	84.7603	196.289	84.7207	196.289	84.7513	196.289	84.6822	196.289	84.7392	196.289	84.6318	196.289	84.7242	196.289	84.5711	196.289	84.7046	196.289	84.5023	196.289	84.6773	196.289	84.4277	196.289	84.6383	196.289	84.3495	196.289	84.5843	196.289	84.2695	196.289	84.5139	196.289	84.1893	196.289	84.428	196.289	84.1104	196.289	84.3307	196.289	84.0351	196.289	84.2278	196.289	83.9665	196.289	84.1266	196.289	83.9086	196.289	84.034	196.289	83.8657	196.289	83.9557	196.289	83.8413	196.289	83.8956	196.289	83.8378	196.289	83.8559
203.613	84.6978	203.613	84.6783	203.613	84.7078	203.613	84.6513	203.613	84.7075	203.613	84.619	203.613	84.696	203.613	84.5839	203.613	84.6729	203.613	84.5476	203.613	84.6376	203.613	84.5098	203.613	84.5891	203.613	84.4676	203.613	84.5263	203.613	84.4162	203.613	84.448	203.613	84.3502	203.613	84.3533	203.613	84.2656	203.613	84.2428	203.613	84.1622	203.613	84.1196	203.613	84.0437	203.613	83.9892	203.613	83.9183	203.613	83.86	203.613	83.7966	203.613	83.7417	203.613	83.6891	203.613	83.6435	203.613	83.6045	203.613	83.5721	203.613	83.5485	203.613	83.5318	203.613	83.5239
210.938	84.568	210.938	84.5565	210.938	84.5691	210.938	84.5347	210.938	84.5604	210.938	84.5033	210.938	84.5431	210.938	84.4638	210.938	84.5183	210.938	84.4177	210.938	84.487	210.938	84.3657	210.938	84.4495	210.938	84.3071	210.938	84.4051	210.938	84.24	210.938	84.3517	210.938	84.1617	210.938	84.2867	210.938	84.0711	210.938	84.2075	210.938	83.9698	210.938	84.1132	210.938	83.863	210.938	84.0061	210.938	83.7588	210.938	83.8924	210.938	83.666	210.938	83.7808	210.938	83.5921	210.938	83.6811	210.938	83.5416	210.938	83.6012	210.938	83.5167	210.938	83.5463	210.938	83.5181
218.262	84.5548	218.262	84.5529	218.262	84.5443	218.262	84.5387	218.262	84.5219	218.262	84.5137	218.262	84.4889	218.262	84.4798	218.262	84.4468	218.262	84.4394	218.262	84.3973	218.262	84.3935	218.262	84.3418	218.262	84.3414	218.262	84.2812	218.262	84.2805	218.262	84.2158	218.262	84.2067	218.262	84.1455	218.262	84.1173	218.262	84.0703	218.262	84.0132	218.262	83.9912	218.262	83.9005	218.262	83.9105	218.262	83.7899	218.262	83.8312	218.262	83.6937	218.262	83.7574	218.262	83.6218	218.262	83.6924	218.262	83.5789	218.262	83.6386	218.262	83.5636	218.262	83.5977	218.262	83.5715
225.586	84.5143	225.586	84.526	225.586	84.483	225.586	84.5183	225.586	84.4331	225.586	84.4925	225.586	84.3668	225.586	84.451	225.586	84.2878	225.586	84.3967	225.586	84.2008	225.586	84.3331	225.586	84.1112	225.586	84.2631	225.586	84.0238	225.586	84.1883	225.586	83.9414	225.586	84.1084	225.586	83.8646	225.586	84.0224	225.586	83.7922	225.586	83.9297	225.586	83.7226	225.586	83.8323	225.586	83.6553	225.586	83.7349	225.586	83.5919	225.586	83.6445	225.586	83.536	225.586	83.5676	225.586	83.4913	225.586	83.5088	225.586	83.4609	225.586	83.4694	225.586	83.4466	225.586	83.4491
232.91	84.5518	232.91	84.5585	232.91	84.5192	232.91	84.5409	232.91	84.4605	232.91	84.5017	232.91	84.3769	232.91	84.4444	232.91	84.2713	232.91	84.3732	232.91	84.1477	232.91	84.2919	232.91	84.0116	232.91	84.2038	232.91	83.8688	232.91	84.1109	232.91	83.726	232.91	84.0133	232.91	83.5891	232.91	83.9104	232.91	83.4633	232.91	83.8025	232.91	83.3533	232.91	83.6919	232.91	83.2628	232.91	83.5835	232.91	83.1955	232.91	83.4831	232.91	83.1537	232.91	83.3948	232.91	83.1374	232.91	83.3204	232.91	83.1442	232.91	83.2587	232.91	83.1693	232.91	83.2084
241.699	84.4618	241.699	84.4527	241.699	84.4474	241.699	84.4203	241.699	84.4107	241.699	84.3653	241.699	84.3541	241.699	84.2892	241.699	84.2808	241.699	84.1947	241.699	84.1939	241.699	84.0855	241.699	84.0951	241.699	83.9669	241.699	83.9844	241.699	83.8439	241.699	83.861	241.699	83.7198	241.699	83.7249	241.699	83.5956	241.699	83.5787	241.699	83.4708	241.699	83.4285	241.699	83.3464	241.699	83.2831	241.699	83.2267	241.699	83.1528	241.699	83.1188	241.699	83.0464	241.699	83.0299	241.699	82.9688	241.699	82.964	241.699	82.9207	241.699	82.9212	241.699	82.8989	241.699	82.8997
250.488	84.4068	250.488	84.4068	250.488	84.3772	250.488	84.3801	250.488	84.316	250.488	84.3291	250.488	84.224	250.488	84.2548	250.488	84.1049	250.488	84.1573	250.488	83.9664	250.488	84.0368	250.488	83.8173	250.488	83.8952	250.488	83.6658	250.488	83.7371	250.488	83.5169	250.488	83.5687	250.488	83.3718	250.488	83.3958	250.488	83.2308	250.488	83.2229	250.488	83.0956	250.488	83.0549	250.488	82.9711	250.488	82.8994	250.488	82.8634	250.488	82.7673	250.488	82.7766	250.488	82.6696	250.488	82.7105	250.488	82.612	250.488	82.6611	250.488	82.5915	250.488	82.6239	250.488	82.5988
259.277	84.4774	259.277	84.4595	259.277	84.4653	259.277	84.4147	259.277	84.4211	259.277	84.3461	259.277	84.3448	259.277	84.2559	259.277	84.2385	259.277	84.1454	259.277	84.1068	259.277	84.0167	259.277	83.9561	259.277	83.8734	259.277	83.7937	259.277	83.7222	259.277	83.627	259.277	83.5711	259.277	83.4624	259.277	83.4269	259.277	83.305	259.277	83.2923	259.277	83.1585	259.277	83.1651	259.277	83.026	259.277	83.042	259.277	82.9099	259.277	82.923	259.277	82.8124	259.277	82.8144	259.277	82.735	259.277	82.726	259.277	82.6789	259.277	82.667	259.277	82.6464	259.277	82.641
268.066	84.3511	268.066	84.2757	268.066	84.3841	268.066	84.1704	268.066	84.3664	268.066	84.0479	268.066	84.2953	268.066	83.9166	268.066	84.1739	268.066	83.7777	268.066	84.0099	268.066	83.6271	268.066	83.8125	268.066	83.4614	268.066	83.5904	268.066	83.2851	268.066	83.35	268.066	83.1145	268.066	83.0959	268.066	82.9738	268.066	82.8351	268.066	82.8832	268.066	82.5823	268.066	82.8457	268.066	82.3618	268.066	82.8431	268.066	82.2025	268.066	82.8447	268.066	82.1262	268.066	82.8211	268.066	82.1377	268.066	82.7555	268.066	82.2229	268.066	82.6464	268.066	82.3556	268.066	82.506
276.855	84.2018	276.855	84.169	276.855	84.2007	276.855	84.105	276.855	84.1638	276.855	84.0152	276.855	84.0887	276.855	83.9077	276.855	83.9736	276.855	83.7888	276.855	83.8203	276.855	83.6583	276.855	83.6384	276.855	83.5065	276.855	83.4454	276.855	83.3194	276.855	83.2633	276.855	83.0879	276.855	83.1095	276.855	82.8188	276.855	82.9893	276.855	82.5386	276.855	82.895	276.855	82.2885	276.855	82.8133	276.855	82.1102	276.855	82.7345	276.855	82.0264	276.855	82.6552	276.855	82.032	276.855	82.5753	276.855	82.1007	276.855	82.4935	276.855	82.2006	276.855	82.4051	276.855	82.3066
287.109	84.2491	287.109	84.2583	287.109	84.2069	287.109	84.2289	287.109	84.1407	287.109	84.1617	287.109	84.0575	287.109	84.0639	287.109	83.9572	287.109	83.946	287.109	83.8298	287.109	83.815	287.109	83.6602	287.109	83.6702	287.109	83.4361	287.109	83.5033	287.109	83.1579	287.109	83.3051	287.109	82.8451	287.109	83.0759	287.109	82.5343	287.109	82.8332	287.109	82.2701	287.109	82.6093	287.109	82.089	287.109	82.4384	287.109	82.0073	287.109	82.34	287.109	82.0166	287.109	82.3086	287.109	82.0883	287.109	82.3174	287.109	82.1848	287.109	82.3314	287.109	82.2701	287.109	82.3206
297.363	84.279	297.363	84.2623	297.363	84.2408	297.363	84.1943	297.363	84.1451	297.363	84.0791	297.363	83.995	297.363	83.9224	297.363	83.8012	297.363	83.7363	297.363	83.5808	297.363	83.5415	297.363	83.352	297.363	83.3612	297.363	83.1268	297.363	83.2097	297.363	82.9083	297.363	83.0831	297.363	82.6937	297.363	82.9636	297.363	82.4822	297.363	82.8338	297.363	82.282	297.363	82.6902	297.363	82.1126	297.363	82.5447	297.363	81.9992	297.363	82.4172	297.363	81.9591	297.363	82.3235	297.363	81.9882	297.363	82.2654	297.363	82.0586	297.363	82.2291	297.363	82.1343	297.363	82.1915
307.617	84.0384	307.617	84.0417	307.617	84.0062	307.617	84.0069	307.617	83.9522	307.617	83.9264	307.617	83.8773	307.617	83.7943	307.617	83.7757	307.617	83.6075	307.617	83.6392	307.617	83.3689	307.617	83.4638	307.617	83.0924	307.617	83.254	307.617	82.8042	307.617	83.0215	307.617	82.5353	307.617	82.7797	307.617	82.3108	307.617	82.5403	307.617	82.1412	307.617	82.3132	307.617	82.0252	307.617	82.108	307.617	81.9538	307.617	81.9352	307.617	81.9132	307.617	81.8046	307.617	81.8851	307.617	81.7233	307.617	81.8521	307.617	81.693	307.617	81.8057	307.617	81.7075	307.617	81.7518
319.336	83.895	319.336	83.87	319.336	83.8649	319.336	83.7967	319.336	83.7817	319.336	83.6878	319.336	83.6524	319.336	83.5531	319.336	83.4816	319.336	83.3918	319.336	83.2683	319.336	83.1915	319.336	83.009	319.336	82.9386	319.336	82.707	319.336	82.6315	319.336	82.3798	319.336	82.2905	319.336	82.059	319.336	81.9575	319.336	81.7801	319.336	81.683	319.336	81.5703	319.336	81.5058	319.336	81.4402	319.336	81.4347	319.336	81.3855	319.336	81.4461	319.336	81.3908	319.336	81.4979	319.336	81.4339	319.336	81.5503	319.336	81.4914	319.336	81.5789	319.336	81.5434	319.336	81.5756
329.59	83.9061	329.59	83.8487	329.59	83.9266	329.59	83.7635	329.59	83.8996	329.59	83.6552	329.59	83.8171	329.59	83.5253	329.59	83.6777	329.59	83.373	329.59	83.4837	329.59	83.1948	329.59	83.2356	329.59	82.9837	329.59	82.9286	329.59	82.7317	329.59	82.5584	329.59	82.4343	329.59	82.133	329.59	82.0979	329.59	81.6842	329.59	81.7466	329.59	81.2695	329.59	81.426	329.59	80.9591	329.59	81.1957	329.59	80.809	329.59	81.1024	329.59	80.8309	329.59	81.1458	329.59	80.9824	329.59	81.2692	329.59	81.1844	329.59	81.3868	329.59	81.3521	329.59	81.4253
341.309	83.7417	341.309	83.6696	341.309	83.7354	341.309	83.5309	341.309	83.6446	341.309	83.3432	341.309	83.4712	341.309	83.1274	341.309	83.226	341.309	82.9046	341.309	82.929	341.309	82.6909	341.309	82.6056	341.309	82.493	341.309	82.281	341.309	82.3068	341.309	81.9746	341.309	82.1205	341.309	81.6978	341.309	81.9219	341.309	81.458	341.309	81.7068	341.309	81.2647	341.309	81.4869	341.309	81.1327	341.309	81.2918	341.309	81.0757	341.309	81.1596	341.309	81.0946	341.309	81.1165	341.309	81.1672	341.309	81.1555	341.309	81.2523	341.309	81.2343	341.309	81.3048	341.309	81.2971
353.027	83.7884	353.027	83.6862	353.027	83.8303	353.027	83.5293	353.027	83.8102	353.027	83.3278	353.027	83.726	353.027	83.0936	353.027	83.5717	353.027	82.8359	353.027	83.3399	353.027	82.5609	353.027	83.0268	353.027	82.2751	353.027	82.637	353.027	81.9904	353.027	82.1843	353.027	81.725	353.027	81.69	353.027	81.4985	353.027	81.1844	353.027	81.3235	353.027	80.7122	353.027	81.1995	353.027	80.3334	353.027	81.1139	353.027	80.1075	353.027	81.0494	353.027	80.0615	353.027	80.9912	353.027	80.1677	353.027	80.9271	353.027	80.3572	353.027	80.8434	353.027	80.5576	353.027	80.7237
366.211	83.6343	366.211	83.5101	366.211	83.6957	366.211	83.3251	366.211	83.6979	366.211	83.0876	366.211	83.6463	366.211	82.8094	366.211	83.5439	366.211	82.5004	366.211	83.3879	366.211	82.1652	366.211	83.1709	366.211	81.804	366.211	82.8842	366.211	81.4198	366.211	82.5223	366.211	81.0284	366.211	82.0886	366.211	80.6648	366.211	81.6006	366.211	80.3783	366.211	81.0968	366.211	80.2105	366.211	80.6362	366.211	80.1684	366.211	80.2849	366.211	80.2156	366.211	80.0866	366.211	80.2923	366.211	80.0384	366.211	80.3457	366.211	80.0951	366.211	80.3468	366.211	80.1966	366.211	80.2917
379.395	83.7482	379.395	83.6803	379.395	83.7714	379.395	83.5623	379.395	83.7506	379.395	83.3872	379.395	83.6823	379.395	83.1494	379.395	83.5601	379.395	82.8475	379.395	83.3789	379.395	82.4875	379.395	83.1381	379.395	82.0853	379.395	82.8428	379.395	81.6656	379.395	82.503	379.395	81.2582	379.395	82.1311	379.395	80.8919	379.395	81.7419	379.395	80.5919	379.395	81.357	379.395	80.3797	379.395	81.0111	379.395	80.2705	379.395	80.7499	379.395	80.2645	379.395	80.609	379.395	80.341	379.395	80.5847	379.395	80.4608	379.395	80.6264	379.395	80.5782	379.395	80.6656	379.395	80.6534
392.578	83.3325	392.578	83.3369	392.578	83.2679	392.578	83.2562	392.578	83.1651	392.578	83.0784	392.578	83.034	392.578	82.8135	392.578	82.8735	392.578	82.4884	392.578	82.6772	392.578	82.1287	392.578	82.4384	392.578	81.7451	392.578	82.1508	392.578	81.3377	392.578	81.8122	392.578	80.9153	392.578	81.432	392.578	80.5094	392.578	81.0354	392.578	80.17	392.578	80.6609	392.578	79.9461	392.578	80.3494	392.578	79.8652	392.578	80.134	392.578	79.9191	392.578	80.0357	392.578	80.0626	392.578	80.0543	392.578	80.2249	392.578	80.1566	392.578	80.336	392.578	80.2792	392.578	80.3536
405.762	83.3778	405.762	83.2239	405.762	83.4615	405.762	83.0235	405.762	83.4617	405.762	82.7949	405.762	83.3792	405.762	82.5397	405.762	83.2202	405.762	82.2484	405.762	82.9864	405.762	81.9172	405.762	82.6728	405.762	81.5573	405.762	82.2751	405.762	81.1899	405.762	81.7981	405.762	80.837	405.762	81.2629	405.762	80.5223	405.762	80.7149	405.762	80.2779	405.762	80.2308	405.762	80.1378	405.762	79.9042	405.762	80.1088	405.762	79.7879	405.762	80.1525	405.762	79.8425	405.762	80.2054	405.762	79.9652	405.762	80.2238	405.762	80.0704	405.762	80.2051	405.762	80.1327	405.762	80.1714
420.41	83.5769	420.41	83.55	420.41	83.4995	420.41	83.4122	420.41	83.3344	420.41	83.1741	420.41	83.0997	420.41	82.8578	420.41	82.8136	420.41	82.478	420.41	82.4961	420.41	82.0283	420.41	82.166	420.41	81.4904	420.41	81.8326	420.41	80.8651	420.41	81.4913	420.41	80.1994	420.41	81.1241	420.41	79.5865	420.41	80.7089	420.41	79.1293	420.41	80.2381	420.41	78.8946	420.41	79.7501	420.41	78.8912	420.41	79.3528	420.41	79.0745	420.41	79.184	420.41	79.3641	420.41	79.2916	420.41	79.6647	420.41	79.5659	420.41	79.8837	420.41	79.8281	420.41	79.9481
435.059	82.7499	435.059	82.6896	435.059	82.785	435.059	82.6155	435.059	82.7793	435.059	82.5191	435.059	82.7262	435.059	82.3717	435.059	82.6259	435.059	82.1409	435.059	82.4746	435.059	81.8065	435.059	82.2579	435.059	81.3651	435.059	81.9551	435.059	80.828	435.059	81.5546	435.059	80.2283	435.059	81.0688	435.059	79.6375	435.059	80.5425	435.059	79.1688	435.059	80.0484	435.059	78.9369	435.059	79.6728	435.059	78.9864	435.059	79.4928	435.059	79.2651	435.059	79.5456	435.059	79.665	435.059	79.7936	435.059	80.0681	435.059	80.1219	435.059	80.3669	435.059	80.3877	435.059	80.4828
451.172	83.6726	451.172	83.6529	451.172	83.6016	451.172	83.5267	451.172	83.4496	451.172	83.2862	451.172	83.2196	451.172	82.9456	451.172	82.9217	451.172	82.536	451.172	82.5797	451.172	82.0811	451.172	82.2172	451.172	81.5749	451.172	81.8341	451.172	80.9841	451.172	81.4019	451.172	80.2796	451.172	80.8886	451.172	79.4814	451.172	80.2956	451.172	78.6946	451.172	79.6837	451.172	78.1042	451.172	79.161	451.172	77.873	451.172	78.8168	451.172	77.9909	451.172	78.6611	451.172	78.2813	451.172	78.6405	451.172	78.5597	451.172	78.6909	451.172	78.732	451.172	78.7569	451.172	78.7867
465.82	83.0872	465.82	83.0351	465.82	83.1006	465.82	82.9461	465.82	83.0622	465.82	82.8077	465.82	82.9543	465.82	82.5976	465.82	82.7636	465.82	82.2953	465.82	82.4912	465.82	81.8954	465.82	82.1544	465.82	81.4128	465.82	81.7743	465.82	80.8734	465.82	81.3545	465.82	80.2982	465.82	80.8728	465.82	79.7017	465.82	80.304	465.82	79.1186	465.82	79.6681	465.82	78.6332	465.82	79.0757	465.82	78.3608	465.82	78.7089	465.82	78.3608	465.82	78.6869	465.82	78.5779	465.82	78.9311	465.82	78.8928	465.82	79.2299	465.82	79.1927	465.82	79.4052	465.82	79.3862
483.398	83.019	483.398	83.0015	483.398	82.9846	483.398	82.9286	483.398	82.9102	483.398	82.8079	483.398	82.8005	483.398	82.6455	483.398	82.6391	483.398	82.4324	483.398	82.3941	483.398	82.1413	483.398	82.0407	483.398	81.7377	483.398	81.5805	483.398	81.1933	483.398	81.0385	483.398	80.4969	483.398	80.4426	483.398	79.6669	483.398	79.8077	483.398	78.7755	483.398	79.153	483.398	77.9832	483.398	78.5464	483.398	77.527	483.398	78.1285	483.398	77.5673	483.398	78.0489	483.398	78.0123	483.398	78.318	483.398	78.5899	483.398	78.7555	483.398	79.047	483.398	79.1189	483.398	79.2369
499.512	83.1323	499.512	83.0592	499.512	83.1383	499.512	82.9427	499.512	83.0596	499.512	82.7967	499.512	82.8918	499.512	82.6103	499.512	82.6401	499.512	82.349	499.512	82.3102	499.512	81.9735	499.512	81.9034	499.512	81.4644	499.512	81.4204	499.512	80.8324	499.512	80.8709	499.512	80.1117	499.512	80.2789	499.512	79.3501	499.512	79.6818	499.512	78.6143	499.512	79.1301	499.512	78.0066	499.512	78.6934	499.512	77.6513	499.512	78.451	499.512	77.6158	499.512	78.4398	499.512	77.846	499.512	78.5984	499.512	78.2064	499.512	78.7895	499.512	78.5601	499.512	78.8815	499.512	78.8046
517.09	82.6245	517.09	82.6329	517.09	82.5455	517.09	82.5562	517.09	82.4149	517.09	82.4012	517.09	82.2421	517.09	82.1944	517.09	82.029	517.09	81.9528	517.09	81.7761	517.09	81.6518	517.09	81.4826	517.09	81.23	517.09	81.1392	517.09	80.6334	517.09	80.7264	517.09	79.8647	517.09	80.2251	517.09	79.0074	517.09	79.6349	517.09	78.2109	517.09	78.9975	517.09	77.6326	517.09	78.4184	517.09	77.3683	517.09	78.054	517.09	77.4215	517.09	78.0155	517.09	77.7156	517.09	78.2505	517.09	78.1242	517.09	78.5656	517.09	78.5083	517.09	78.7656	517.09	78.7471
536.133	82.5965	536.133	82.552	536.133	82.5095	536.133	82.3889	536.133	82.3144	536.133	82.1541	536.133	82.0457	536.133	81.8997	536.133	81.7229	536.133	81.6484	536.133	81.345	536.133	81.3811	536.133	80.9036	536.133	81.0463	536.133	80.3951	536.133	80.5756	536.133	79.8138	536.133	79.9064	536.133	79.1416	536.133	79.025	536.133	78.3655	536.133	78.0278	536.133	77.5456	536.133	77.161	536.133	76.896	536.133	76.7291	536.133	76.7273	536.133	76.8554	536.133	77.1331	536.133	77.3846	536.133	77.8387	536.133	78.0461	536.133	78.4886	536.133	78.6053	536.133	78.87	536.133	78.9062
555.176	82.8286	555.176	82.7572	555.176	82.8191	555.176	82.5863	555.176	82.7402	555.176	82.3124	555.176	82.5871	555.176	81.9607	555.176	82.3523	555.176	81.5724	555.176	82.0409	555.176	81.1767	555.176	81.6625	555.176	80.7692	555.176	81.2075	555.176	80.3104	555.176	80.6354	555.176	79.7416	555.176	79.8953	555.176	79.0169	555.176	78.9691	555.176	78.1532	555.176	77.9144	555.176	77.2815	555.176	76.8801	555.176	76.6352	555.176	76.0979	555.176	76.4003	555.176	75.832	555.176	76.5582	555.176	76.1617	555.176	76.9337	555.176	76.796	555.176	77.3125	555.176	77.3162	555.176	77.4889
574.219	82.5259	574.219	82.3996	574.219	82.5202	574.219	82.17	574.219	82.3582	574.219	81.8656	574.219	82.0488	574.219	81.5296	574.219	81.6496	574.219	81.2095	574.219	81.2401	574.219	80.9139	574.219	80.8661	574.219	80.5855	574.219	80.5036	574.219	80.1371	574.219	80.0751	574.219	79.5082	574.219	79.4977	574.219	78.6964	574.219	78.725	574.219	77.7712	574.219	77.7852	574.219	76.9025	574.219	76.8464	574.219	76.3479	574.219	76.2612	574.219	76.2806	574.219	76.3437	574.219	76.621	574.219	76.9512	574.219	77.1502	574.219	77.6188	574.219	77.6664	574.219	78.0025	574.219	77.998
594.727	82.8298	594.727	82.8016	594.727	82.7379	594.727	82.6383	594.727	82.5872	594.727	82.3697	594.727	82.4234	594.727	82.0308	594.727	82.2157	594.727	81.6365	594.727	81.8788	594.727	81.1816	594.727	81.3699	594.727	80.6446	594.727	80.7532	594.727	79.996	594.727	80.1318	594.727	79.2251	594.727	79.4964	594.727	78.3763	594.727	78.69	594.727	77.5497	594.727	77.5547	594.727	76.8557	594.727	76.1611	594.727	76.411	594.727	75.0356	594.727	76.3669	594.727	74.8835	594.727	76.7665	594.727	75.6049	594.727	77.3535	594.727	76.5447	594.727	77.7495	594.727	77.31	594.727	77.7402
615.234	83.3077	615.234	83.2159	615.234	83.2687	615.234	82.9492	615.234	83.157	615.234	82.5435	615.234	82.9793	615.234	82.1019	615.234	82.7039	615.234	81.7069	615.234	82.3129	615.234	81.354	615.234	81.821	615.234	80.9708	615.234	81.2497	615.234	80.4667	615.234	80.5931	615.234	79.754	615.234	79.8109	615.234	78.7864	615.234	78.8454	615.234	77.6713	615.234	77.6458	615.234	76.7924	615.234	76.2465	615.234	76.5541	615.234	74.959	615.234	76.7895	615.234	74.4589	615.234	77.0524	615.234	75.056	615.234	77.2095	615.234	76.1207	615.234	77.3235	615.234	76.954	615.234	77.3156
637.207	82.6675	637.207	82.4692	637.207	82.7732	637.207	82.2476	637.207	82.7037	637.207	82.0055	637.207	82.4627	637.207	81.7288	637.207	82.1477	637.207	81.4283	637.207	81.8496	637.207	81.0957	637.207	81.5527	637.207	80.6574	637.207	81.1566	637.207	80.0288	637.207	80.5795	637.207	79.1953	637.207	79.8109	637.207	78.1915	637.207	78.8819	637.207	77.0323	637.207	77.8285	637.207	75.8361	637.207	76.7232	637.207	75.1676	637.207	75.7768	637.207	75.6096	637.207	75.3834	637.207	76.6349	637.207	75.776	637.207	77.4493	637.207	76.6039	637.207	77.809	637.207	77.3423	637.207	77.757
659.18	82.2951	659.18	82.1474	659.18	82.2896	659.18	81.8801	659.18	82.1546	659.18	81.5468	659.18	81.9582	659.18	81.1876	659.18	81.7559	659.18	80.8434	659.18	81.542	659.18	80.5394	659.18	81.2526	659.18	80.2122	659.18	80.8138	659.18	79.7184	659.18	80.1951	659.18	78.957	659.18	79.4056	659.18	77.9555	659.18	78.4244	659.18	76.8157	659.18	77.1768	659.18	75.6427	659.18	75.6899	659.18	74.792	659.18	74.4669	659.18	74.978	659.18	74.4008	659.18	76.0723	659.18	75.3492	659.18	77.1052	659.18	76.3892	659.18	77.5894	659.18	77.1288	659.18	77.5471
682.617	82.7912	682.617	82.7208	682.617	82.8387	682.617	82.5826	682.617	82.8113	682.617	82.3063	682.617	82.6137	682.617	81.8904	682.617	82.246	682.617	81.4192	682.617	81.8595	682.617	80.991	682.617	81.6016	682.617	80.6001	682.617	81.4163	682.617	80.0835	682.617	81.0893	682.617	79.2122	682.617	80.4265	682.617	77.8644	682.617	79.3535	682.617	76.2379	682.617	77.9328	682.617	75.0372	682.617	76.3544	682.617	74.9461	682.617	75.0092	682.617	75.7211	682.617	74.6122	682.617	76.7876	682.617	75.5255	682.617	77.7914	682.617	76.9853	682.617	78.4784	682.617	78.1342	682.617	78.637
707.52	83.0264	707.52	82.8042	707.52	82.9892	707.52	82.4094	707.52	82.749	707.52	81.9908	707.52	82.4243	707.52	81.6164	707.52	82.0714	707.52	81.266	707.52	81.6973	707.52	80.9414	707.52	81.3606	707.52	80.6833	707.52	81.1198	707.52	80.4349	707.52	80.8526	707.52	79.9753	707.52	80.2916	707.52	79.027	707.52	79.2533	707.52	77.3987	707.52	77.7586	707.52	75.2243	707.52	75.9851	707.52	73.522	707.52	74.2738	707.52	73.7002	707.52	73.47	707.52	75.0656	707.52	74.2926	707.52	76.3499	707.52	75.7816	707.52	77.1342	707.52	76.8844	707.52	77.329
732.422	82.8331	732.422	82.7918	732.422	82.7619	732.422	82.5861	732.422	82.6127	732.422	82.2054	732.422	82.379	732.422	81.7012	732.422	82.0515	732.422	81.1535	732.422	81.6547	732.422	80.6265	732.422	81.241	732.422	80.1422	732.422	80.8535	732.422	79.6527	732.422	80.4863	732.422	79.0322	732.422	80.0587	732.422	78.1224	732.422	79.4239	732.422	76.7749	732.422	78.4118	732.422	74.8797	732.422	76.8862	732.422	72.7974	732.422	74.9134	732.422	72.4353	732.422	73.2906	732.422	74.2103	732.422	73.4517	732.422	75.8903	732.422	74.8864	732.422	76.738	732.422	76.1623	732.422	76.8031
757.324	83.3394	757.324	83.1769	757.324	83.3861	757.324	82.9082	757.324	83.248	757.324	82.5019	757.324	82.9023	757.324	81.9893	757.324	82.4468	757.324	81.4781	757.324	82.0244	757.324	81.0436	757.324	81.6732	757.324	80.6547	757.324	81.3091	757.324	80.2023	757.324	80.8545	757.324	79.525	757.324	80.2814	757.324	78.4165	757.324	79.5051	757.324	76.6707	757.324	78.3352	757.324	74.2545	757.324	76.596	757.324	72.0026	757.324	74.4174	757.324	71.9964	757.324	72.8661	757.324	73.9364	757.324	73.4837	757.324	75.9464	757.324	75.3754	757.324	77.2663	757.324	76.9562	757.324	77.6297
785.156	83.2829	785.156	83.048	785.156	83.2501	785.156	82.6856	785.156	82.9943	785.156	82.3274	785.156	82.6496	785.156	81.8871	785.156	82.2462	785.156	81.2312	785.156	81.725	785.156	80.484	785.156	81.1509	785.156	79.9966	785.156	80.7641	785.156	79.8328	785.156	80.6557	785.156	79.5986	785.156	80.5227	785.156	78.9087	785.156	79.9338	785.156	77.5967	785.156	78.6863	785.156	75.6624	785.156	76.9252	785.156	73.4749	785.156	75.0986	785.156	72.5199	785.156	73.8435	785.156	73.6641	785.156	73.7377	785.156	75.1337	785.156	74.5636	785.156	75.8974	785.156	75.4537	785.156	75.9451
811.523	83.5202	811.523	83.4454	811.523	83.4379	811.523	83.1443	811.523	83.2304	811.523	82.6721	811.523	82.8447	811.523	82.1986	811.523	82.2967	811.523	81.7989	811.523	81.7572	811.523	81.3812	811.523	81.3834	811.523	80.8957	811.523	81.1351	811.523	80.3941	811.523	80.8654	811.523	79.8024	811.523	80.4826	811.523	78.847	811.523	79.9088	811.523	77.2987	811.523	78.9624	811.523	75.2318	811.523	77.3873	811.523	73.1933	811.523	75.1334	811.523	72.3098	811.523	73.2217	811.523	73.3383	811.523	73.5881	811.523	75.1399	811.523	75.2014	811.523	76.4593	811.523	76.4381	811.523	76.895
840.82	83.8637	840.82	83.7795	840.82	83.8549	840.82	83.5564	840.82	83.7624	840.82	83.1605	840.82	83.555	840.82	82.6426	840.82	83.2034	840.82	82.1419	840.82	82.7299	840.82	81.7126	840.82	82.1933	840.82	81.2033	840.82	81.6205	840.82	80.4872	840.82	80.9852	840.82	79.688	840.82	80.2671	840.82	78.908	840.82	79.4769	840.82	77.7774	840.82	78.4867	840.82	75.7527	840.82	76.905	840.82	73.1207	840.82	74.4395	840.82	72.2548	840.82	72.2757	840.82	73.5176	840.82	72.9908	840.82	74.7236	840.82	74.7839	840.82	75.5513	840.82	75.81	840.82	75.9878
870.117	83.6644	870.117	83.5395	870.117	83.6099	870.117	83.2539	870.117	83.3352	870.117	82.7983	870.117	82.8522	870.117	82.2499	870.117	82.2612	870.117	81.8323	870.117	81.7718	870.117	81.7476	870.117	81.6245	870.117	81.9175	870.117	81.8251	870.117	82.0347	870.117	82.0515	870.117	81.7907	870.117	81.958	870.117	80.9551	870.117	81.3484	870.117	79.3883	870.117	80.1561	870.117	77.1407	870.117	78.4253	870.117	74.9113	870.117	76.3856	870.117	74.5916	870.117	74.8543	870.117	76.1915	870.117	75.0573	870.117	77.7329	870.117	76.4833	870.117	78.5223	870.117	77.8149	870.117	78.5332
900.879	84.6463	900.879	84.4537	900.879	84.4426	900.879	83.9679	900.879	83.9512	900.879	83.3992	900.879	83.3894	900.879	82.8945	900.879	82.8585	900.879	82.4113	900.879	82.3086	900.879	81.8549	900.879	81.7842	900.879	81.3143	900.879	81.5035	900.879	80.9619	900.879	81.473	900.879	80.7052	900.879	81.3549	900.879	80.1661	900.879	80.8773	900.879	78.9443	900.879	79.9349	900.879	76.7112	900.879	78.3096	900.879	73.6566	900.879	75.7535	900.879	72.9321	900.879	73.2028	900.879	75.4132	900.879	73.8007	900.879	77.47	900.879	76.2923	900.879	78.5726	900.879	78.1126	900.879	78.8281
933.105	84.3094	933.105	84.1798	933.105	84.3053	933.105	83.9093	933.105	84.0073	933.105	83.3384	933.105	83.3282	933.105	82.4637	933.105	82.357	933.105	81.58	933.105	81.2806	933.105	81.0144	933.105	80.3516	933.105	80.8	933.105	79.8938	933.105	80.7797	933.105	80.0014	933.105	80.7835	933.105	80.2849	933.105	80.4728	933.105	80.2153	933.105	79.3452	933.105	79.4156	933.105	77.0456	933.105	77.721	933.105	73.8323	933.105	75.3155	933.105	72.468	933.105	73.3811	933.105	74.8354	933.105	74.28	933.105	77.1884	933.105	76.7266	933.105	78.4985	933.105	78.3937	933.105	78.9158
965.332	84.2245	965.332	84.0147	965.332	84.1731	965.332	83.6442	965.332	83.7597	965.332	83.083	965.332	83.0232	965.332	82.2151	965.332	82.1023	965.332	81.0904	965.332	81.1213	965.332	80.1605	965.332	80.1646	965.332	79.9051	965.332	79.4678	965.332	80.1184	965.332	79.4325	965.332	80.2372	965.332	79.9079	965.332	79.8908	965.332	80.144	965.332	78.8312	965.332	79.6208	965.332	76.6336	965.332	78.027	965.332	72.7953	965.332	75.0134	965.332	70.6251	965.332	71.3929	965.332	73.6501	965.332	71.9052	965.332	76.074	965.332	74.86	965.332	77.3514	965.332	76.8938	965.332	77.6766
1,000.49	84.0802	1,000.49	83.9543	1,000.49	84.0074	1,000.49	83.5327	1,000.49	83.6779	1,000.49	82.6991	1,000.49	83.0098	1,000.49	81.5531	1,000.49	82.0027	1,000.49	80.3542	1,000.49	80.6692	1,000.49	79.3356	1,000.49	79.0626	1,000.49	78.8409	1,000.49	77.7314	1,000.49	79.0677	1,000.49	77.6225	1,000.49	79.5617	1,000.49	78.2009	1,000.49	79.6244	1,000.49	78.3844	1,000.49	78.651	1,000.49	77.9846	1,000.49	76.3052	1,000.49	77.0344	1,000.49	72.7093	1,000.49	75.2295	1,000.49	70.585	1,000.49	72.4308	1,000.49	73.2942	1,000.49	71.7575	1,000.49	76.0581	1,000.49	74.7405	1,000.49	77.5316	1,000.49	77.0479	1,000.49	77.8906
1,035.64	84.4787	1,035.64	84.2983	1,035.64	84.3353	1,035.64	83.7502	1,035.64	84.0933	1,035.64	83.042	1,035.64	83.7254	1,035.64	82.1628	1,035.64	83.0032	1,035.64	80.8885	1,035.64	81.8654	1,035.64	79.5051	1,035.64	80.4325	1,035.64	78.8075	1,035.64	78.8549	1,035.64	78.7479	1,035.64	77.5846	1,035.64	78.6095	1,035.64	77.4084	1,035.64	78.2242	1,035.64	77.9415	1,035.64	77.5534	1,035.64	77.8429	1,035.64	75.9172	1,035.64	76.2324	1,035.64	72.2352	1,035.64	72.7063	1,035.64	69.7149	1,035.64	69.7271	1,035.64	73.2383	1,035.64	72.2821	1,035.64	75.7547	1,035.64	75.1395	1,035.64	76.9664	1,035.64	76.7794	1,035.64	77.3286
1,072.27	84.2972	1,072.27	84.168	1,072.27	84.3571	1,072.27	83.8308	1,072.27	84.2412	1,072.27	83.0846	1,072.27	83.7982	1,072.27	81.9639	1,072.27	82.9857	1,072.27	80.6213	1,072.27	81.8452	1,072.27	79.0336	1,072.27	80.4492	1,072.27	77.5315	1,072.27	78.9202	1,072.27	77.3144	1,072.27	77.9052	1,072.27	78.0428	1,072.27	77.9774	1,072.27	78.1773	1,072.27	78.3083	1,072.27	77.124	1,072.27	77.9116	1,072.27	74.8446	1,072.27	75.9603	1,072.27	71.4851	1,072.27	72.1735	1,072.27	70.692	1,072.27	68.7322	1,072.27	74.4089	1,072.27	72.5073	1,072.27	77.0224	1,072.27	76.5952	1,072.27	78.2238	1,072.27	78.4031	1,072.27	78.6893
1,108.89	84.4767	1,108.89	84.2705	1,108.89	84.5596	1,108.89	83.9582	1,108.89	84.4427	1,108.89	83.4293	1,108.89	84.0514	1,108.89	82.4872	1,108.89	83.2951	1,108.89	81.0492	1,108.89	82.1105	1,108.89	79.2012	1,108.89	80.4433	1,108.89	77.4998	1,108.89	78.6896	1,108.89	77.3427	1,108.89	77.7388	1,108.89	78.3264	1,108.89	78.0669	1,108.89	78.7504	1,108.89	78.8258	1,108.89	77.6406	1,108.89	78.5794	1,108.89	74.3908	1,108.89	76.5559	1,108.89	67.2359	1,108.89	72.1143	1,108.89	65.8168	1,108.89	64.8571	1,108.89	74.3599	1,108.89	70.8609	1,108.89	77.4676	1,108.89	76.1189	1,108.89	78.6434	1,108.89	78.4504	1,108.89	79.0537
1,148.44	84.4947	1,148.44	84.4265	1,148.44	84.5709	1,148.44	84.113	1,148.44	84.7236	1,148.44	83.7631	1,148.44	84.5687	1,148.44	83.4291	1,148.44	84.0088	1,148.44	82.4291	1,148.44	83.1995	1,148.44	80.1313	1,148.44	81.8433	1,148.44	77.0864	1,148.44	79.4271	1,148.44	76.2871	1,148.44	76.6905	1,148.44	77.7382	1,148.44	77.0002	1,148.44	79.0521	1,148.44	78.8502	1,148.44	79.3194	1,148.44	79.503	1,148.44	77.736	1,148.44	78.4527	1,148.44	72.6731	1,148.44	74.952	1,148.44	53.195	1,148.44	63.9695	1,148.44	71.9178	1,148.44	68.7683	1,148.44	77.4339	1,148.44	75.9097	1,148.44	79.8067	1,148.44	78.7634	1,148.44	80.0769
1,189.45	84.4531	1,189.45	84.4298	1,189.45	84.4917	1,189.45	84.3401	1,189.45	84.4063	1,189.45	84.0333	1,189.45	84.2429	1,189.45	83.5605	1,189.45	84.0263	1,189.45	82.8465	1,189.45	83.4587	1,189.45	81.5305	1,189.45	82.3607	1,189.45	79.2426	1,189.45	80.6583	1,189.45	76.0948	1,189.45	78.1593	1,189.45	75.373	1,189.45	76.5196	1,189.45	78.1028	1,189.45	78.1681	1,189.45	79.8728	1,189.45	79.7943	1,189.45	79.4463	1,189.45	79.5737	1,189.45	76.3237	1,189.45	77.4343	1,189.45	68.2982	1,189.45	72.3809	1,189.45	64.4199	1,189.45	54.4988	1,189.45	74.2518	1,189.45	72.0606	1,189.45	77.4771	1,189.45	77.0769	1,189.45	78.3917
1,230.47	84.4748	1,230.47	84.4866	1,230.47	84.3016	1,230.47	84.1824	1,230.47	84.0898	1,230.47	83.8024	1,230.47	83.7956	1,230.47	83.5221	1,230.47	83.5099	1,230.47	82.9386	1,230.47	83.2026	1,230.47	81.6986	1,230.47	82.4751	1,230.47	79.5585	1,230.47	80.9385	1,230.47	76.4821	1,230.47	78.4583	1,230.47	75.5963	1,230.47	76.1409	1,230.47	77.7311	1,230.47	77.0206	1,230.47	79.0292	1,230.47	78.7626	1,230.47	78.9838	1,230.47	79.2211	1,230.47	76.9687	1,230.47	77.8587	1,230.47	69.8744	1,230.47	72.9921	1,230.47	62.3516	1,230.47	43.1507	1,230.47	72.6527	1,230.47	70.198	1,230.47	76.1735	1,230.47	75.1119	1,230.47	77.0536
1,274.41	84.3676	1,274.41	84.2071	1,274.41	84.1017	1,274.41	83.8134	1,274.41	83.8375	1,274.41	83.3512	1,274.41	83.5144	1,274.41	82.7561	1,274.41	82.7218	1,274.41	82.2607	1,274.41	81.9338	1,274.41	81.599	1,274.41	81.3544	1,274.41	80.0823	1,274.41	80.2224	1,274.41	77.6162	1,274.41	77.9735	1,274.41	75.6341	1,274.41	75.3574	1,274.41	76.5677	1,274.41	75.7211	1,274.41	77.986	1,274.41	77.8602	1,274.41	78.0402	1,274.41	78.4803	1,274.41	75.9413	1,274.41	77.3996	1,274.41	69.0067	1,274.41	73.4203	1,274.41	62.2937	1,274.41	60.2502	1,274.41	72.9013	1,274.41	68.8555	1,274.41	75.9393	1,274.41	75.2033	1,274.41	76.7516
1,319.82	84.1408	1,319.82	84.1426	1,319.82	83.8314	1,319.82	83.4233	1,319.82	83.3315	1,319.82	82.3225	1,319.82	82.6005	1,319.82	81.6392	1,319.82	81.829	1,319.82	81.0986	1,319.82	81.3063	1,319.82	80.3949	1,319.82	80.4743	1,319.82	79.1025	1,319.82	78.7635	1,319.82	76.6609	1,319.82	76.5812	1,319.82	74.1756	1,319.82	73.8033	1,319.82	74.7216	1,319.82	72.4874	1,319.82	76.4754	1,319.82	74.7841	1,319.82	76.965	1,319.82	76.415	1,319.82	74.8105	1,319.82	76.2978	1,319.82	68.5648	1,319.82	73.1426	1,319.82	57.8187	1,319.82	63.2606	1,319.82	71.4512	1,319.82	67.1683	1,319.82	74.0633	1,319.82	74.3302	1,319.82	75.1105
1,366.7	83.6839	1,366.7	83.4421	1,366.7	83.6405	1,366.7	83.0663	1,366.7	82.9857	1,366.7	82.2356	1,366.7	82.1745	1,366.7	81.3278	1,366.7	81.5457	1,366.7	80.6135	1,366.7	80.9264	1,366.7	79.7992	1,366.7	80.0499	1,366.7	78.7685	1,366.7	78.8295	1,366.7	76.3357	1,366.7	77.3492	1,366.7	71.9322	1,366.7	74.6849	1,366.7	72.7394	1,366.7	72.1454	1,366.7	75.7262	1,366.7	74.6715	1,366.7	76.0926	1,366.7	76.3598	1,366.7	74.149	1,366.7	76.0558	1,366.7	68.8949	1,366.7	73.0256	1,366.7	55.9073	1,366.7	63.4841	1,366.7	69.8707	1,366.7	64.6441	1,366.7	73.8769	1,366.7	72.8248	1,366.7	74.9868
1,413.57	83.5819	1,413.57	83.6118	1,413.57	82.9842	1,413.57	83.0494	1,413.57	82.8929	1,413.57	82.2067	1,413.57	82.5292	1,413.57	80.9862	1,413.57	81.2153	1,413.57	80.2963	1,413.57	80.2914	1,413.57	79.6749	1,413.57	79.3264	1,413.57	78.132	1,413.57	77.78	1,413.57	76.2002	1,413.57	76.5232	1,413.57	73.8754	1,413.57	74.8478	1,413.57	74.4688	1,413.57	72.8955	1,413.57	75.726	1,413.57	72.4904	1,413.57	76.1357	1,413.57	74.4841	1,413.57	75.0557	1,413.57	75.631	1,413.57	69.1159	1,413.57	72.8046	1,413.57	54.123	1,413.57	65.9817	1,413.57	67.9698	1,413.57	56.5036	1,413.57	72.5024	1,413.57	68.5172	1,413.57	71.9912
1,463.38	84.5488	1,463.38	83.9567	1,463.38	84.6924	1,463.38	83.23	1,463.38	84.0316	1,463.38	82.2434	1,463.38	83.0429	1,463.38	81.3027	1,463.38	82.0245	1,463.38	80.2418	1,463.38	80.9743	1,463.38	79.3039	1,463.38	79.8648	1,463.38	77.9829	1,463.38	79.1524	1,463.38	75.5099	1,463.38	78.3147	1,463.38	71.4391	1,463.38	76.2906	1,463.38	69.4343	1,463.38	72.7389	1,463.38	73.7532	1,463.38	72.2344	1,463.38	75.4919	1,463.38	75.4802	1,463.38	73.9225	1,463.38	75.9615	1,463.38	67.5251	1,463.38	73.4078	1,463.38	56.2416	1,463.38	67.8605	1,463.38	69.4765	1,463.38	57.4676	1,463.38	72.587	1,463.38	68.9459	1,463.38	72.7746
1,516.11	84.9308	1,516.11	84.4356	1,516.11	85.0891	1,516.11	83.7255	1,516.11	84.4608	1,516.11	82.6412	1,516.11	83.4402	1,516.11	81.3462	1,516.11	82.2202	1,516.11	80.0602	1,516.11	80.9895	1,516.11	78.8043	1,516.11	80.5226	1,516.11	77.9864	1,516.11	79.7417	1,516.11	76.7747	1,516.11	78.6466	1,516.11	73.4132	1,516.11	77.8633	1,516.11	69.7798	1,516.11	75.8998	1,516.11	72.0804	1,516.11	74.3693	1,516.11	74.7201	1,516.11	75.9707	1,516.11	74.2863	1,516.11	77.1337	1,516.11	68.5985	1,516.11	75.6425	1,516.11	50.9697	1,516.11	69.9939	1,516.11	67.6424	1,516.11	65.2001	1,516.11	72.8936	1,516.11	71.4718	1,516.11	73.3143
1,568.85	84.9086	1,568.85	84.8829	1,568.85	84.6786	1,568.85	84.1186	1,568.85	84.465	1,568.85	83.1798	1,568.85	83.496	1,568.85	81.3689	1,568.85	82.2209	1,568.85	79.0864	1,568.85	80.9359	1,568.85	78.6387	1,568.85	80.3288	1,568.85	79.3135	1,568.85	80.1247	1,568.85	79.0515	1,568.85	79.0459	1,568.85	76.9313	1,568.85	78.0147	1,568.85	73.2407	1,568.85	74.9137	1,568.85	72.5811	1,568.85	71.8524	1,568.85	74.7093	1,568.85	76.5263	1,568.85	73.9038	1,568.85	77.0908	1,568.85	70.7657	1,568.85	75.0711	1,568.85	55.7766	1,568.85	69.4031	1,568.85	68.5265	1,568.85	64.1485	1,568.85	73.7872	1,568.85	72.0757	1,568.85	73.9709
1,624.51	85.0128	1,624.51	84.9207	1,624.51	84.7057	1,624.51	84.1286	1,624.51	84.3407	1,624.51	82.817	1,624.51	83.7231	1,624.51	81.6765	1,624.51	82.7728	1,624.51	80.4781	1,624.51	81.1694	1,624.51	78.5263	1,624.51	78.9799	1,624.51	77.5826	1,624.51	78.2128	1,624.51	77.5387	1,624.51	77.459	1,624.51	76.4644	1,624.51	76.6376	1,624.51	73.3432	1,624.51	75.4138	1,624.51	72.5268	1,624.51	73.5543	1,624.51	74.7532	1,624.51	75.5008	1,624.51	74.0545	1,624.51	75.1519	1,624.51	70.3757	1,624.51	71.8409	1,624.51	58.3543	1,624.51	65.0769	1,624.51	69.4317	1,624.51	64.6298	1,624.51	74.8744	1,624.51	72.4932	1,624.51	74.5014
1,681.64	84.0665	1,681.64	83.7449	1,681.64	84.0469	1,681.64	83.5911	1,681.64	83.7651	1,681.64	82.5838	1,681.64	83.471	1,681.64	81.7457	1,681.64	82.3063	1,681.64	81.0405	1,681.64	81.1535	1,681.64	78.9593	1,681.64	79.2296	1,681.64	76.6404	1,681.64	76.6752	1,681.64	74.4051	1,681.64	76.9394	1,681.64	72.0974	1,681.64	75.4421	1,681.64	70.6382	1,681.64	73.3246	1,681.64	71.937	1,681.64	72.085	1,681.64	71.4924	1,681.64	73.1156	1,681.64	72.4035	1,681.64	75.0763	1,681.64	71.9379	1,681.64	71.9283	1,681.64	62.6783	1,681.64	70.3109	1,681.64	71.642	1,681.64	54.904	1,681.64	72.577	1,681.64	72.5341	1,681.64	72.5687
1,741.7	83.0373	1,741.7	82.6815	1,741.7	82.8433	1,741.7	82.1876	1,741.7	82.4474	1,741.7	81.2973	1,741.7	82.1985	1,741.7	80.4707	1,741.7	81.7517	1,741.7	78.7742	1,741.7	80.7255	1,741.7	76.7685	1,741.7	78.8545	1,741.7	76.969	1,741.7	78.4299	1,741.7	77.3537	1,741.7	77.903	1,741.7	75.8167	1,741.7	76.5242	1,741.7	73.1864	1,741.7	73.6895	1,741.7	71.1702	1,741.7	70.6791	1,741.7	73.5938	1,741.7	70.9087	1,741.7	74.3217	1,741.7	71.552	1,741.7	70.3456	1,741.7	71.814	1,741.7	62.2542	1,741.7	68.2884	1,741.7	65.573	1,741.7	57.8217	1,741.7	68.7653	1,741.7	70.0761	1,741.7	71.2127
1,803.22	83.0739	1,803.22	82.8272	1,803.22	82.725	1,803.22	81.8565	1,803.22	83.0165	1,803.22	81.3356	1,803.22	82.1476	1,803.22	79.8385	1,803.22	81.0184	1,803.22	78.6704	1,803.22	80.8978	1,803.22	78.0868	1,803.22	80.2117	1,803.22	76.86	1,803.22	78.3696	1,803.22	76.2405	1,803.22	77.0027	1,803.22	74.0072	1,803.22	76.6837	1,803.22	70.1547	1,803.22	75.5167	1,803.22	69.2032	1,803.22	72.3178	1,803.22	71.9918	1,803.22	70.7537	1,803.22	72.8578	1,803.22	72.6117	1,803.22	69.6789	1,803.22	73.4819	1,803.22	56.0464	1,803.22	69.9086	1,803.22	64.8974	1,803.22	52.3354	1,803.22	71.3127	1,803.22	65.4431	1,803.22	70.6826
1,866.21	83.8279	1,866.21	83.3771	1,866.21	83.4602	1,866.21	82.3288	1,866.21	83.1374	1,866.21	81.7811	1,866.21	82.6996	1,866.21	80.9905	1,866.21	82.0069	1,866.21	79.6988	1,866.21	80.7704	1,866.21	78.3932	1,866.21	79.6247	1,866.21	76.4491	1,866.21	78.6414	1,866.21	75.0551	1,866.21	76.6407	1,866.21	74.6153	1,866.21	75.4518	1,866.21	72.8552	1,866.21	74.3486	1,866.21	67.5786	1,866.21	71.9274	1,866.21	70.9473	1,866.21	71.0834	1,866.21	75.1776	1,866.21	74.2888	1,866.21	73.4346	1,866.21	74.8414	1,866.21	68.6557	1,866.21	71.4215	1,866.21	59.6394	1,866.21	64.103	1,866.21	65.8001	1,866.21	60.5567	1,866.21	68.0447
1,932.13	84.4984	1,932.13	83.6897	1,932.13	84.4023	1,932.13	83.1818	1,932.13	83.606	1,932.13	82.5405	1,932.13	82.6851	1,932.13	81.7135	1,932.13	81.4619	1,932.13	80.6496	1,932.13	80.666	1,932.13	79.288	1,932.13	79.8714	1,932.13	78.0307	1,932.13	78.1038	1,932.13	76.4366	1,932.13	76.7127	1,932.13	74.8176	1,932.13	76.0808	1,932.13	72.8851	1,932.13	74.3631	1,932.13	71.0866	1,932.13	71.8033	1,932.13	70.7513	1,932.13	70.5655	1,932.13	73.5118	1,932.13	73.262	1,932.13	72.554	1,932.13	73.6589	1,932.13	68.3856	1,932.13	70.9277	1,932.13	60.9883	1,932.13	66.1755	1,932.13	65.5525	1,932.13	64.0192	1,932.13	69.6581
1,999.51	84.0894	1,999.51	83.6721	1,999.51	83.6848	1,999.51	82.8864	1,999.51	83.3129	1,999.51	82.0274	1,999.51	82.3092	1,999.51	81.1894	1,999.51	81.2312	1,999.51	80.3382	1,999.51	80.2925	1,999.51	79.3676	1,999.51	78.9796	1,999.51	77.8226	1,999.51	77.4174	1,999.51	76.3054	1,999.51	75.6563	1,999.51	76.2057	1,999.51	74.4547	1,999.51	74.6954	1,999.51	74.1917	1,999.51	72.6476	1,999.51	72.4862	1,999.51	72.9416	1,999.51	69.0283	1,999.51	73.9758	1,999.51	72.6952	1,999.51	73.7596	1,999.51	74.4027	1,999.51	70.1358	1,999.51	70.9319	1,999.51	65.5401	1,999.51	65.7089	1,999.51	68.3594	1,999.51	65.8968	1,999.51	70.3334
2,069.82	83.1765	2,069.82	83.1164	2,069.82	83.6509	2,069.82	82.685	2,069.82	83.0067	2,069.82	81.7612	2,069.82	81.7889	2,069.82	80.7503	2,069.82	80.8324	2,069.82	79.1901	2,069.82	79.2569	2,069.82	77.7448	2,069.82	77.834	2,069.82	77.2842	2,069.82	75.7916	2,069.82	77.3971	2,069.82	74.0371	2,069.82	76.0283	2,069.82	73.9381	2,069.82	73.9132	2,069.82	74.3937	2,069.82	72.5202	2,069.82	72.9571	2,069.82	71.1704	2,069.82	68.4923	2,069.82	73.5495	2,069.82	70.5786	2,069.82	74.3926	2,069.82	72.1929	2,069.82	68.1055	2,069.82	69.775	2,069.82	65.0954	2,069.82	61.2553	2,069.82	71.4877	2,069.82	67.1398	2,069.82	69.6504
2,143.07	84.1298	2,143.07	84.1853	2,143.07	84.099	2,143.07	82.7808	2,143.07	83.76	2,143.07	81.725	2,143.07	82.5657	2,143.07	80.586	2,143.07	81.4279	2,143.07	78.9839	2,143.07	80.0114	2,143.07	77.9354	2,143.07	78.6509	2,143.07	76.5918	2,143.07	78.8907	2,143.07	75.6013	2,143.07	76.5954	2,143.07	76.0048	2,143.07	74.5174	2,143.07	74.3156	2,143.07	73.4661	2,143.07	69.5509	2,143.07	71.5544	2,143.07	68.33	2,143.07	71.6098	2,143.07	70.3218	2,143.07	69.9563	2,143.07	70.7398	2,143.07	72.1874	2,143.07	63.9951	2,143.07	70.0816	2,143.07	60.2831	2,143.07	65.7736	2,143.07	67.1015	2,143.07	67.6001	2,143.07	69.606
2,219.24	85.3535	2,219.24	85.241	2,219.24	84.7018	2,219.24	84.6834	2,219.24	84.7051	2,219.24	83.3463	2,219.24	84.4478	2,219.24	81.3029	2,219.24	83.6168	2,219.24	79.6739	2,219.24	82.7535	2,219.24	77.7618	2,219.24	81.5893	2,219.24	76.3673	2,219.24	79.2855	2,219.24	76.3294	2,219.24	76.5007	2,219.24	73.5544	2,219.24	76.3439	2,219.24	72.2885	2,219.24	76.0999	2,219.24	71.7052	2,219.24	73.5086	2,219.24	70.5315	2,219.24	72.341	2,219.24	72.5895	2,219.24	74.5283	2,219.24	72.9681	2,219.24	74.5816	2,219.24	69.6151	2,219.24	73.2844	2,219.24	59.6525	2,219.24	66.442	2,219.24	69.6188	2,219.24	68.1747	2,219.24	71.2903
2,296.88	84.9067	2,296.88	84.8908	2,296.88	85.2772	2,296.88	84.9746	2,296.88	85.0836	2,296.88	83.7668	2,296.88	84.1183	2,296.88	82.6391	2,296.88	82.2472	2,296.88	81.3723	2,296.88	80.7681	2,296.88	79.9737	2,296.88	78.3923	2,296.88	78.4883	2,296.88	78.0623	2,296.88	77.6565	2,296.88	77.8252	2,296.88	75.7316	2,296.88	75.84	2,296.88	73.3858	2,296.88	72.4396	2,296.88	74.104	2,296.88	74.9111	2,296.88	65.8401	2,296.88	76.1231	2,296.88	68.5925	2,296.88	73.5583	2,296.88	74.1056	2,296.88	75.1732	2,296.88	70.617	2,296.88	72.8308	2,296.88	57.1242	2,296.88	64.4208	2,296.88	61.5248	2,296.88	67.4455	2,296.88	64.6566
2,378.91	84.2392	2,378.91	84.6761	2,378.91	84.3174	2,378.91	83.8177	2,378.91	83.7836	2,378.91	82.7142	2,378.91	82.0861	2,378.91	81.4998	2,378.91	82.2756	2,378.91	80.4792	2,378.91	81.6408	2,378.91	79.8149	2,378.91	79.6124	2,378.91	78.6352	2,378.91	76.2767	2,378.91	76.3924	2,378.91	75.0931	2,378.91	77.8885	2,378.91	75.0879	2,378.91	75.0062	2,378.91	75.9065	2,378.91	75.5734	2,378.91	73.0068	2,378.91	73.4173	2,378.91	73.0354	2,378.91	73.1824	2,378.91	70.6583	2,378.91	74.7487	2,378.91	70.6334	2,378.91	72.1922	2,378.91	71.2296	2,378.91	66.8001	2,378.91	65.4347	2,378.91	67.5938	2,378.91	65.7185	2,378.91	66.0556
2,462.4	84.4901	2,462.4	84.1968	2,462.4	84.4006	2,462.4	83.499	2,462.4	84.0049	2,462.4	82.3292	2,462.4	83.4684	2,462.4	80.7769	2,462.4	82.4268	2,462.4	80.1497	2,462.4	81.4554	2,462.4	78.9348	2,462.4	80.3695	2,462.4	76.3331	2,462.4	78.7059	2,462.4	75.9814	2,462.4	76.7388	2,462.4	75.6851	2,462.4	76.7455	2,462.4	72.1382	2,462.4	75.4787	2,462.4	71.6487	2,462.4	72.2607	2,462.4	71.6994	2,462.4	72.8855	2,462.4	70.1756	2,462.4	72.5792	2,462.4	71.2621	2,462.4	69.8811	2,462.4	69.7711	2,462.4	70.4065	2,462.4	67.4071	2,462.4	68.7809	2,462.4	70.6898	2,462.4	67.8509	2,462.4	70.5685
2,548.83	86.1206	2,548.83	86.0162	2,548.83	85.6904	2,548.83	85.3748	2,548.83	86.0523	2,548.83	85.1218	2,548.83	85.3242	2,548.83	83.8242	2,548.83	84.4266	2,548.83	81.6806	2,548.83	82.9261	2,548.83	80.787	2,548.83	81.8127	2,548.83	78.9658	2,548.83	80.7492	2,548.83	75.3284	2,548.83	78.4057	2,548.83	75.5881	2,548.83	77.0627	2,548.83	74.9906	2,548.83	77.3005	2,548.83	71.6514	2,548.83	74.8405	2,548.83	71.5795	2,548.83	71.3396	2,548.83	72.4927	2,548.83	74.542	2,548.83	72.1773	2,548.83	75.1766	2,548.83	68.7338	2,548.83	72.9475	2,548.83	62.5562	2,548.83	68.3069	2,548.83	72.8529	2,548.83	69.0665	2,548.83	74.6141
2,639.65	86.5252	2,639.65	86.189	2,639.65	86.2631	2,639.65	85.8114	2,639.65	86.0132	2,639.65	85.0926	2,639.65	85.2432	2,639.65	84.3042	2,639.65	84.3231	2,639.65	82.8008	2,639.65	82.9427	2,639.65	81.4104	2,639.65	81.5981	2,639.65	80.186	2,639.65	80.2475	2,639.65	77.6888	2,639.65	78.3669	2,639.65	76.1079	2,639.65	77.2621	2,639.65	76.0044	2,639.65	76.3578	2,639.65	72.9016	2,639.65	75.1078	2,639.65	73.7839	2,639.65	72.5046	2,639.65	73.2425	2,639.65	72.2834	2,639.65	74.0393	2,639.65	74.0359	2,639.65	72.2551	2,639.65	74.2353	2,639.65	60.0377	2,639.65	68.3451	2,639.65	67.6204	2,639.65	66.6585	2,639.65	73.6637
2,731.93	85.2775	2,731.93	85.2189	2,731.93	85.5328	2,731.93	84.7738	2,731.93	84.9213	2,731.93	84.0968	2,731.93	84.1889	2,731.93	83.6541	2,731.93	83.6699	2,731.93	82.4002	2,731.93	82.7286	2,731.93	80.5781	2,731.93	81.4876	2,731.93	79.707	2,731.93	79.623	2,731.93	77.8094	2,731.93	77.6028	2,731.93	76.3463	2,731.93	76.6156	2,731.93	75.7127	2,731.93	76.0265	2,731.93	73.5551	2,731.93	73.7323	2,731.93	72.6291	2,731.93	71.235	2,731.93	72.8043	2,731.93	71.7043	2,731.93	73.852	2,731.93	73.1032	2,731.93	72.1666	2,731.93	72.9984	2,731.93	63.337	2,731.93	67.6862	2,731.93	71.057	2,731.93	63.4132	2,731.93	72.2577
2,828.61	84.7154	2,828.61	84.5646	2,828.61	85.3264	2,828.61	84.2305	2,828.61	84.2217	2,828.61	82.6616	2,828.61	83.9822	2,828.61	82.3667	2,828.61	83.5629	2,828.61	81.9313	2,828.61	83.1251	2,828.61	79.9732	2,828.61	82.1064	2,828.61	78.7875	2,828.61	80.0146	2,828.61	77.3845	2,828.61	78.1663	2,828.61	74.9036	2,828.61	75.8954	2,828.61	73.879	2,828.61	75.3175	2,828.61	72.8788	2,828.61	72.9123	2,828.61	72.2455	2,828.61	72.9054	2,828.61	69.7898	2,828.61	71.8277	2,828.61	72.9663	2,828.61	73.5595	2,828.61	72.0749	2,828.61	73.5724	2,828.61	61.5102	2,828.61	71.2258	2,828.61	64.0404	2,828.61	59.2484	2,828.61	70.0548
2,928.22	84.9566	2,928.22	84.8418	2,928.22	85.0429	2,928.22	84.5233	2,928.22	84.548	2,928.22	83.3623	2,928.22	84.4177	2,928.22	82.6546	2,928.22	83.5979	2,928.22	82.0305	2,928.22	82.9212	2,928.22	80.8403	2,928.22	82.2201	2,928.22	79.2926	2,928.22	80.8474	2,928.22	77.3939	2,928.22	79.16	2,928.22	75.8166	2,928.22	76.1638	2,928.22	73.8426	2,928.22	75.3713	2,928.22	72.7501	2,928.22	73.8497	2,928.22	70.5655	2,928.22	72.446	2,928.22	70.2041	2,928.22	73.0733	2,928.22	73.0252	2,928.22	73.9375	2,928.22	72.2289	2,928.22	75.0155	2,928.22	69.5747	2,928.22	72.308	2,928.22	69.7797	2,928.22	68.135	2,928.22	68.8482
3,030.76	84.6062	3,030.76	84.2725	3,030.76	84.6915	3,030.76	84.2075	3,030.76	84.6593	3,030.76	83.6416	3,030.76	84.6795	3,030.76	82.7337	3,030.76	84.214	3,030.76	81.9684	3,030.76	83.6245	3,030.76	80.9096	3,030.76	82.1936	3,030.76	79.5842	3,030.76	81.0881	3,030.76	78.1494	3,030.76	79.6548	3,030.76	76.115	3,030.76	77.4041	3,030.76	74.5852	3,030.76	76.1659	3,030.76	72.7341	3,030.76	74.3105	3,030.76	73.095	3,030.76	73.2135	3,030.76	70.9773	3,030.76	72.0339	3,030.76	73.463	3,030.76	73.307	3,030.76	75.2202	3,030.76	75.5768	3,030.76	70.6369	3,030.76	73.0244	3,030.76	70.8118	3,030.76	70.0424	3,030.76	71.8677
3,137.7	84.3993	3,137.7	84.6313	3,137.7	84.0242	3,137.7	83.9319	3,137.7	84.8228	3,137.7	84.0534	3,137.7	84.5833	3,137.7	83.445	3,137.7	84.2255	3,137.7	82.6306	3,137.7	83.2734	3,137.7	80.8944	3,137.7	81.6957	3,137.7	79.1993	3,137.7	80.639	3,137.7	77.6955	3,137.7	79.2847	3,137.7	75.5378	3,137.7	76.2326	3,137.7	75.1502	3,137.7	75.7274	3,137.7	72.4021	3,137.7	74.5321	3,137.7	72.8589	3,137.7	71.669	3,137.7	71.931	3,137.7	71.59	3,137.7	72.3018	3,137.7	70.0431	3,137.7	74.6336	3,137.7	74.9977	3,137.7	68.7866	3,137.7	73.3203	3,137.7	69.7995	3,137.7	68.5905	3,137.7	71.9489
3,249.02	84.3797	3,249.02	84.2973	3,249.02	84.3068	3,249.02	84.1971	3,249.02	84.6572	3,249.02	83.9422	3,249.02	84.4192	3,249.02	83.5805	3,249.02	83.8858	3,249.02	82.5583	3,249.02	83.1404	3,249.02	80.5898	3,249.02	81.7611	3,249.02	79.1119	3,249.02	79.8489	3,249.02	77.3455	3,249.02	78.6239	3,249.02	73.0936	3,249.02	76.3212	3,249.02	73.4857	3,249.02	73.9684	3,249.02	71.8147	3,249.02	75.2281	3,249.02	70.9243	3,249.02	70.5908	3,249.02	70.0113	3,249.02	71.21	3,249.02	70.0375	3,249.02	68.8497	3,249.02	73.9842	3,249.02	73.2645	3,249.02	66.7438	3,249.02	73.0264	3,249.02	63.6194	3,249.02	64.4083	3,249.02	70.2793
3,363.28	84.1791	3,363.28	84.6406	3,363.28	83.7249	3,363.28	83.8964	3,363.28	84.4474	3,363.28	83.6776	3,363.28	84.1708	3,363.28	83.0011	3,363.28	83.6225	3,363.28	82.2405	3,363.28	82.4083	3,363.28	80.5034	3,363.28	81.296	3,363.28	78.3492	3,363.28	79.0017	3,363.28	77.0585	3,363.28	77.6201	3,363.28	74.6618	3,363.28	75.8638	3,363.28	71.7563	3,363.28	72.2937	3,363.28	71.8183	3,363.28	73.5884	3,363.28	68.1668	3,363.28	69.9452	3,363.28	68.0553	3,363.28	70.1311	3,363.28	67.9197	3,363.28	69.142	3,363.28	72.5739	3,363.28	72.2408	3,363.28	69.0754	3,363.28	72.3231	3,363.28	66.646	3,363.28	64.2826	3,363.28	65.6918
3,481.93	83.5528	3,481.93	83.8476	3,481.93	83.3146	3,481.93	84.4449	3,481.93	83.1663	3,481.93	84.2995	3,481.93	83.4814	3,481.93	83.5561	3,481.93	82.7746	3,481.93	82.2802	3,481.93	81.5423	3,481.93	81.2167	3,481.93	80.7426	3,481.93	78.5612	3,481.93	79.3404	3,481.93	76.8111	3,481.93	76.9058	3,481.93	75.7613	3,481.93	75.4353	3,481.93	72.0545	3,481.93	71.6775	3,481.93	72.4696	3,481.93	71.8742	3,481.93	67.7595	3,481.93	69.5205	3,481.93	71.0473	3,481.93	66.3248	3,481.93	67.4099	3,481.93	69.106	3,481.93	71.5042	3,481.93	70.2188	3,481.93	69.2945	3,481.93	72.1244	3,481.93	67.3993	3,481.93	67.3417	3,481.93	67.6462
3,604.98	83.0963	3,604.98	83.4942	3,604.98	83.475	3,604.98	84.1141	3,604.98	83.206	3,604.98	83.7909	3,604.98	83.6912	3,604.98	83.1805	3,604.98	83.3093	3,604.98	81.3967	3,604.98	82.6131	3,604.98	79.8334	3,604.98	81.7557	3,604.98	78.0712	3,604.98	79.9142	3,604.98	75.1944	3,604.98	78.0042	3,604.98	75.0176	3,604.98	75.8615	3,604.98	72.0693	3,604.98	73.1755	3,604.98	73.0216	3,604.98	71.0215	3,604.98	69.7938	3,604.98	72.2391	3,604.98	68.9477	3,604.98	68.3035	3,604.98	67.0631	3,604.98	69.5743	3,604.98	70.6578	3,604.98	69.6355	3,604.98	67.4195	3,604.98	72.5528	3,604.98	66.0394	3,604.98	66.8751	3,604.98	66.9452
3,732.42	82.8496	3,732.42	82.4238	3,732.42	83.8186	3,732.42	83.8984	3,732.42	83.436	3,732.42	83.8293	3,732.42	83.7734	3,732.42	83.4639	3,732.42	82.9263	3,732.42	81.5321	3,732.42	82.3094	3,732.42	79.364	3,732.42	80.6062	3,732.42	78.1841	3,732.42	78.9212	3,732.42	75.5148	3,732.42	76.6134	3,732.42	73.6643	3,732.42	74.6932	3,732.42	71.033	3,732.42	71.5118	3,732.42	69.8538	3,732.42	70.0736	3,732.42	68.5277	3,732.42	71.0044	3,732.42	68.267	3,732.42	68.1901	3,732.42	67.6646	3,732.42	68.8865	3,732.42	68.9091	3,732.42	68.194	3,732.42	68.6684	3,732.42	71.1113	3,732.42	62.0056	3,732.42	66.4581	3,732.42	64.2841
3,864.26	81.1811	3,864.26	81.4469	3,864.26	81.272	3,864.26	82.316	3,864.26	82.1824	3,864.26	82.2591	3,864.26	82.389	3,864.26	81.3268	3,864.26	82.3016	3,864.26	80.4159	3,864.26	81.6192	3,864.26	78.5329	3,864.26	79.5857	3,864.26	76.5037	3,864.26	78.0801	3,864.26	75.8524	3,864.26	75.7651	3,864.26	73.0566	3,864.26	73.5789	3,864.26	70.9891	3,864.26	70.868	3,864.26	69.301	3,864.26	68.7206	3,864.26	70.3455	3,864.26	69.0598	3,864.26	67.2609	3,864.26	67.8975	3,864.26	67.5216	3,864.26	67.5863	3,864.26	69.5395	3,864.26	67.5291	3,864.26	67.9215	3,864.26	69.9949	3,864.26	61.0902	3,864.26	65.2933	3,864.26	63.7848
4,000.49	81.0513	4,000.49	82.2805	4,000.49	80.7716	4,000.49	82.0788	4,000.49	82.5286	4,000.49	81.7258	4,000.49	82.6738	4,000.49	80.9054	4,000.49	82.7401	4,000.49	80.3006	4,000.49	81.8911	4,000.49	77.8187	4,000.49	80.0443	4,000.49	74.6097	4,000.49	77.9524	4,000.49	73.1625	4,000.49	75.9835	4,000.49	71.8467	4,000.49	73.0216	4,000.49	68.6901	4,000.49	72.8562	4,000.49	68.2483	4,000.49	70.604	4,000.49	67.5797	4,000.49	68.9297	4,000.49	66.939	4,000.49	67.9947	4,000.49	66.4808	4,000.49	68.2504	4,000.49	68.5944	4,000.49	67.0246	4,000.49	67.0933	4,000.49	70.3997	4,000.49	56.9705	4,000.49	65.2639	4,000.49	60.5452
4,141.11	80.9933	4,141.11	82.0285	4,141.11	80.8816	4,141.11	81.5106	4,141.11	82.2132	4,141.11	81.8192	4,141.11	82.5316	4,141.11	81.584	4,141.11	82.0628	4,141.11	79.728	4,141.11	81.0206	4,141.11	78.1244	4,141.11	79.443	4,141.11	77.5061	4,141.11	77.127	4,141.11	73.4831	4,141.11	74.9614	4,141.11	71.552	4,141.11	71.8057	4,141.11	69.5844	4,141.11	69.8886	4,141.11	67.6294	4,141.11	67.304	4,141.11	66.928	4,141.11	68.842	4,141.11	66.9903	4,141.11	66.893	4,141.11	68.0245	4,141.11	68.1595	4,141.11	69.5206	4,141.11	64.8436	4,141.11	68.4459	4,141.11	70.0079	4,141.11	63.3489	4,141.11	64.965	4,141.11	63.0011
4,287.6	80.7457	4,287.6	80.4891	4,287.6	81.5672	4,287.6	82.0155	4,287.6	81.11	4,287.6	82.5464	4,287.6	82.0657	4,287.6	81.7046	4,287.6	81.7689	4,287.6	78.3932	4,287.6	80.1676	4,287.6	78.185	4,287.6	78.4383	4,287.6	76.8002	4,287.6	77.1807	4,287.6	73.0507	4,287.6	74.554	4,287.6	69.0552	4,287.6	72.6572	4,287.6	67.4537	4,287.6	69.8436	4,287.6	65.2127	4,287.6	68.0351	4,287.6	67.2974	4,287.6	67.4788	4,287.6	66.1241	4,287.6	67.1785	4,287.6	67.3731	4,287.6	68.3936	4,287.6	69.6789	4,287.6	66.7829	4,287.6	68.3321	4,287.6	69.7	4,287.6	62.766	4,287.6	66.3298	4,287.6	65.1801
4,438.48	81.0481	4,438.48	80.8751	4,438.48	81.0847	4,438.48	82.4926	4,438.48	80.7329	4,438.48	82.4427	4,438.48	81.3788	4,438.48	81.4205	4,438.48	80.8832	4,438.48	80.0293	4,438.48	79.7284	4,438.48	78.1533	4,438.48	77.5084	4,438.48	75.0621	4,438.48	74.9725	4,438.48	72.6076	4,438.48	72.9596	4,438.48	69.5423	4,438.48	70.8867	4,438.48	67.3192	4,438.48	68.9429	4,438.48	64.7172	4,438.48	67.5174	4,438.48	64.9522	4,438.48	64.7657	4,438.48	63.5863	4,438.48	65.8946	4,438.48	67.0919	4,438.48	67.032	4,438.48	66.4902	4,438.48	66.9718	4,438.48	68.2574	4,438.48	68.3814	4,438.48	62.3372	4,438.48	65.1734	4,438.48	65.0285
4,595.21	80.858	4,595.21	82.2834	4,595.21	80.7258	4,595.21	81.582	4,595.21	82.3128	4,595.21	79.8291	4,595.21	81.1818	4,595.21	79.5554	4,595.21	81.4556	4,595.21	79.8134	4,595.21	80.3081	4,595.21	76.3128	4,595.21	78.2326	4,595.21	73.4097	4,595.21	76.8685	4,595.21	72.4405	4,595.21	74.1572	4,595.21	69.9555	4,595.21	72.2504	4,595.21	69.9948	4,595.21	70.7322	4,595.21	67.6595	4,595.21	67.4136	4,595.21	65.5203	4,595.21	66.7045	4,595.21	64.8162	4,595.21	66.4419	4,595.21	66.8332	4,595.21	66.2531	4,595.21	67.3659	4,595.21	66.8319	4,595.21	68.2666	4,595.21	68.2448	4,595.21	61.4207	4,595.21	64.1468	4,595.21	64.0917
4,756.35	80.6918	4,756.35	81.1017	4,756.35	81.134	4,756.35	80.3242	4,756.35	81.0337	4,756.35	79.6477	4,756.35	80.753	4,756.35	79.0489	4,756.35	80.2625	4,756.35	78.054	4,756.35	78.5443	4,756.35	76.3014	4,756.35	77.2307	4,756.35	73.7792	4,756.35	76.1013	4,756.35	72.822	4,756.35	72.8685	4,756.35	69.823	4,756.35	70.2827	4,756.35	68.1169	4,756.35	68.8955	4,756.35	66.9385	4,756.35	66.0614	4,756.35	64.0785	4,756.35	63.3353	4,756.35	65.1233	4,756.35	63.4454	4,756.35	66.6921	4,756.35	66.0788	4,756.35	67.5399	4,756.35	66.4016	4,756.35	67.3006	4,756.35	66.4621	4,756.35	59.14	4,756.35	65.8274	4,756.35	61.8267
4,924.8	80.096	4,924.8	79.1506	4,924.8	80.5475	4,924.8	79.6033	4,924.8	79.6336	4,924.8	81.0068	4,924.8	80.8056	4,924.8	79.3787	4,924.8	79.1378	4,924.8	77.0286	4,924.8	77.9099	4,924.8	75.3518	4,924.8	77.1831	4,924.8	73.8333	4,924.8	74.4085	4,924.8	73.0415	4,924.8	72.927	4,924.8	69.8828	4,924.8	71.1374	4,924.8	67.2019	4,924.8	69.4868	4,924.8	64.1206	4,924.8	66.5598	4,924.8	60.3531	4,924.8	63.8855	4,924.8	62.0894	4,924.8	60.871	4,924.8	66.2297	4,924.8	66.104	4,924.8	67.2161	4,924.8	65.7954	4,924.8	65.4066	4,924.8	68.0454	4,924.8	59.603	4,924.8	64.5464	4,924.8	57.4724
5,097.66	79.6596	5,097.66	80.5279	5,097.66	79.24	5,097.66	81.2252	5,097.66	80.1777	5,097.66	80.4155	5,097.66	80.0927	5,097.66	80.04	5,097.66	79.9246	5,097.66	79.2348	5,097.66	79.7501	5,097.66	76.7504	5,097.66	77.0019	5,097.66	74.4942	5,097.66	75.2522	5,097.66	71.7815	5,097.66	73.0447	5,097.66	69.5238	5,097.66	71.1442	5,097.66	68.2499	5,097.66	68.4526	5,097.66	63.997	5,097.66	67.2233	5,097.66	60.8248	5,097.66	65.1299	5,097.66	61.4449	5,097.66	62.8529	5,097.66	65.3233	5,097.66	65.5004	5,097.66	66.1806	5,097.66	65.7402	5,097.66	67.6871	5,097.66	67.6412	5,097.66	61.1195	5,097.66	62.6205	5,097.66	60.8407
5,277.83	79.0372	5,277.83	78.9007	5,277.83	79.1232	5,277.83	79.2652	5,277.83	79.5367	5,277.83	78.387	5,277.83	79.1971	5,277.83	77.7858	5,277.83	78.9721	5,277.83	76.8025	5,277.83	78.3038	5,277.83	75.4894	5,277.83	77.4301	5,277.83	74.1237	5,277.83	76.3689	5,277.83	71.638	5,277.83	73.7738	5,277.83	69.6414	5,277.83	70.9124	5,277.83	68.3409	5,277.83	66.9495	5,277.83	66.9864	5,277.83	65.9197	5,277.83	64.4476	5,277.83	65.0633	5,277.83	62.409	5,277.83	63.5709	5,277.83	64.0853	5,277.83	64.8375	5,277.83	67.2266	5,277.83	66.1869	5,277.83	65.5464	5,277.83	66.2979	5,277.83	55.1975	5,277.83	63.2509	5,277.83	59.767
5,463.87	80.6649	5,463.87	80.1962	5,463.87	80.6759	5,463.87	80.1468	5,463.87	79.2324	5,463.87	80.1899	5,463.87	80.0113	5,463.87	79.2646	5,463.87	79.9114	5,463.87	77.5368	5,463.87	78.3774	5,463.87	76.0354	5,463.87	78.4666	5,463.87	73.7503	5,463.87	75.5522	5,463.87	68.729	5,463.87	73.7092	5,463.87	68.2945	5,463.87	70.4596	5,463.87	63.5485	5,463.87	68.0254	5,463.87	67.486	5,463.87	65.8042	5,463.87	64.0454	5,463.87	63.0134	5,463.87	58.5816	5,463.87	60.3843	5,463.87	61.5808	5,463.87	64.6421	5,463.87	64.2677	5,463.87	67.1881	5,463.87	64.5416	5,463.87	65.6326	5,463.87	58.8301	5,463.87	62.4015	5,463.87	58.3386
5,657.23	80.8933	5,657.23	80.4661	5,657.23	80.6589	5,657.23	80.1186	5,657.23	79.8559	5,657.23	79.2443	5,657.23	79.7661	5,657.23	79.8069	5,657.23	79.872	5,657.23	78.0936	5,657.23	79.8153	5,657.23	77.2776	5,657.23	77.5766	5,657.23	74.2516	5,657.23	75.4303	5,657.23	72.3776	5,657.23	72.7555	5,657.23	70.1475	5,657.23	71.2479	5,657.23	65.3128	5,657.23	68.4252	5,657.23	66.9815	5,657.23	67.2407	5,657.23	65.1514	5,657.23	63.6609	5,657.23	63.6072	5,657.23	60.3949	5,657.23	66.0702	5,657.23	63.3278	5,657.23	65.9976	5,657.23	66.5302	5,657.23	66.1828	5,657.23	65.595	5,657.23	58.9463	5,657.23	64.6176	5,657.23	57.6337
5,856.45	80.6184	5,856.45	80.1526	5,856.45	80.1737	5,856.45	79.7776	5,856.45	80.0268	5,856.45	79.2535	5,856.45	78.9075	5,856.45	79.696	5,856.45	78.2348	5,856.45	79.0077	5,856.45	78.3471	5,856.45	76.8503	5,856.45	76.8093	5,856.45	74.4913	5,856.45	75.5685	5,856.45	70.4866	5,856.45	73.0391	5,856.45	67.5383	5,856.45	70.8074	5,856.45	67.8059	5,856.45	68.1998	5,856.45	64.4252	5,856.45	65.3562	5,856.45	62.7449	5,856.45	64.8188	5,856.45	64.0187	5,856.45	61.865	5,856.45	64.9658	5,856.45	60.7953	5,856.45	65.9396	5,856.45	65.8662	5,856.45	63.0618	5,856.45	63.3121	5,856.45	56.1058	5,856.45	62.9882	5,856.45	56.1517
6,062.99	81.1786	6,062.99	79.8503	6,062.99	81.1213	6,062.99	78.5621	6,062.99	80.2007	6,062.99	78.9089	6,062.99	79.924	6,062.99	77.6491	6,062.99	79.2533	6,062.99	78.0842	6,062.99	77.9391	6,062.99	75.6997	6,062.99	77.1215	6,062.99	73.7839	6,062.99	75.0135	6,062.99	70.9215	6,062.99	73.3952	6,062.99	67.6117	6,062.99	69.5467	6,062.99	68.2708	6,062.99	67.3515	6,062.99	62.18	6,062.99	64.2613	6,062.99	62.5116	6,062.99	64.4081	6,062.99	61.5935	6,062.99	61.5678	6,062.99	63.0356	6,062.99	62.2027	6,062.99	65.7534	6,062.99	65.695	6,062.99	63.9841	6,062.99	63.6415	6,062.99	56.0127	6,062.99	62.6589	6,062.99	54.7875
6,276.86	81.3722	6,276.86	80.1915	6,276.86	81.281	6,276.86	78.8025	6,276.86	79.6955	6,276.86	79.2845	6,276.86	79.038	6,276.86	78.466	6,276.86	78.901	6,276.86	77.4651	6,276.86	78.1507	6,276.86	75.8454	6,276.86	76.423	6,276.86	72.6698	6,276.86	74.324	6,276.86	69.6388	6,276.86	71.0295	6,276.86	67.8396	6,276.86	69.1205	6,276.86	66.6437	6,276.86	66.255	6,276.86	61.328	6,276.86	62.682	6,276.86	57.2752	6,276.86	63.6825	6,276.86	56.663	6,276.86	56.5877	6,276.86	62.769	6,276.86	63.2017	6,276.86	63.3218	6,276.86	65.0871	6,276.86	63.2544	6,276.86	65.6143	6,276.86	57.959	6,276.86	62.8565	6,276.86	57.2975
6,498.05	81.4495	6,498.05	80.1191	6,498.05	81.0278	6,498.05	78.6551	6,498.05	79.7732	6,498.05	77.4103	6,498.05	78.4636	6,498.05	77.6709	6,498.05	78.0015	6,498.05	76.3007	6,498.05	77.8216	6,498.05	74.3507	6,498.05	76.4018	6,498.05	72.0568	6,498.05	74.8475	6,498.05	69.9602	6,498.05	72.0798	6,498.05	68.6621	6,498.05	69.4767	6,498.05	66.4156	6,498.05	65.6392	6,498.05	60.8094	6,498.05	63.4339	6,498.05	59.3905	6,498.05	61.193	6,498.05	58.519	6,498.05	61.0397	6,498.05	61.8249	6,498.05	55.0541	6,498.05	63.3138	6,498.05	63.6422	6,498.05	64.2067	6,498.05	65.0404	6,498.05	53.7939	6,498.05	64.1012	6,498.05	54.004
6,726.56	81.7328	6,726.56	80.4129	6,726.56	81.0221	6,726.56	79.2066	6,726.56	79.6308	6,726.56	78.7484	6,726.56	79.0173	6,726.56	78.3872	6,726.56	78.2427	6,726.56	77.6086	6,726.56	77.9473	6,726.56	75.4067	6,726.56	76.4731	6,726.56	73.2561	6,726.56	73.6651	6,726.56	71.8169	6,726.56	71.896	6,726.56	70.1762	6,726.56	69.0902	6,726.56	66.548	6,726.56	67.8534	6,726.56	62.1221	6,726.56	63.4001	6,726.56	59.208	6,726.56	64.9069	6,726.56	59.8007	6,726.56	58.4989	6,726.56	60.7112	6,726.56	55.7757	6,726.56	65.3325	6,726.56	63.6687	6,726.56	65.0223	6,726.56	63.9153	6,726.56	59.925	6,726.56	63.6667	6,726.56	46.0465
6,963.87	80.7374	6,963.87	79.7419	6,963.87	80.8234	6,963.87	78.6128	6,963.87	79.6353	6,963.87	78.1188	6,963.87	78.6113	6,963.87	77.8008	6,963.87	78.599	6,963.87	77.1291	6,963.87	77.908	6,963.87	75.0014	6,963.87	76.3392	6,963.87	71.5839	6,963.87	73.9028	6,963.87	70.0868	6,963.87	70.9775	6,963.87	66.7707	6,963.87	68.927	6,963.87	64.1966	6,963.87	66.245	6,963.87	63.9451	6,963.87	64.9633	6,963.87	58.2487	6,963.87	61.54	6,963.87	59.6083	6,963.87	61.4515	6,963.87	59.0247	6,963.87	56.5144	6,963.87	63.4697	6,963.87	62.9647	6,963.87	63.1924	6,963.87	63.8574	6,963.87	58.641	6,963.87	62.1764	6,963.87	45.1232
7,209.96	80.0896	7,209.96	79.2523	7,209.96	80.743	7,209.96	78.3124	7,209.96	79.4584	7,209.96	77.7271	7,209.96	78.3548	7,209.96	78.1211	7,209.96	78.4118	7,209.96	76.0858	7,209.96	77.9566	7,209.96	74.9225	7,209.96	76.2803	7,209.96	73.0387	7,209.96	74.3249	7,209.96	70.8831	7,209.96	72.1024	7,209.96	68.7758	7,209.96	69.1977	7,209.96	64.7855	7,209.96	67.0248	7,209.96	64.2351	7,209.96	65.7179	7,209.96	62.3894	7,209.96	61.5423	7,209.96	57.621	7,209.96	60.6815	7,209.96	59.2207	7,209.96	60.8075	7,209.96	64.9657	7,209.96	60.5817	7,209.96	63.1884	7,209.96	63.1162	7,209.96	59.2803	7,209.96	59.0946	7,209.96	43.0576
7,464.84	79.8389	7,464.84	78.9423	7,464.84	79.5113	7,464.84	78.4335	7,464.84	78.2095	7,464.84	78.1091	7,464.84	77.9587	7,464.84	78.0019	7,464.84	77.3886	7,464.84	75.5788	7,464.84	77.2337	7,464.84	74.5337	7,464.84	75.8717	7,464.84	72.9878	7,464.84	73.559	7,464.84	68.9014	7,464.84	72.19	7,464.84	66.3804	7,464.84	69.1358	7,464.84	65.3821	7,464.84	66.5658	7,464.84	62.9295	7,464.84	64.2381	7,464.84	61.3725	7,464.84	60.3423	7,464.84	60.8643	7,464.84	58.1768	7,464.84	58.3899	7,464.84	59.6599	7,464.84	64.4705	7,464.84	61.7738	7,464.84	63.3309	7,464.84	62.7057	7,464.84	54.5806	7,464.84	60.2046	7,464.84	44.5438
7,727.05	79.9421	7,727.05	79.2826	7,727.05	79.817	7,727.05	78.8593	7,727.05	79.1635	7,727.05	78.0583	7,727.05	78.3263	7,727.05	77.4382	7,727.05	77.7506	7,727.05	76.645	7,727.05	76.7519	7,727.05	75.384	7,727.05	75.531	7,727.05	73.0595	7,727.05	73.8775	7,727.05	70.046	7,727.05	71.7226	7,727.05	66.6776	7,727.05	67.8239	7,727.05	64.3753	7,727.05	67.1221	7,727.05	63.0673	7,727.05	63.2109	7,727.05	60.5353	7,727.05	60.5017	7,727.05	60.963	7,727.05	60.2531	7,727.05	58.9683	7,727.05	59.3867	7,727.05	62.9725	7,727.05	60.7951	7,727.05	61.6357	7,727.05	61.7674	7,727.05	60.2249	7,727.05	61.0848	7,727.05	45.203
7,999.51	79.7354	7,999.51	79.382	7,999.51	79.9592	7,999.51	77.9632	7,999.51	79.1605	7,999.51	77.4345	7,999.51	77.5376	7,999.51	76.2359	7,999.51	77.1065	7,999.51	75.0415	7,999.51	76.3638	7,999.51	74.922	7,999.51	75.1237	7,999.51	72.0421	7,999.51	74.2783	7,999.51	69.7699	7,999.51	70.9958	7,999.51	66.0895	7,999.51	68.261	7,999.51	64.4748	7,999.51	65.6833	7,999.51	63.1552	7,999.51	64.0406	7,999.51	61.2923	7,999.51	62.9748	7,999.51	57.3628	7,999.51	57.1731	7,999.51	59.8742	7,999.51	60.6576	7,999.51	63.3536	7,999.51	60.3304	7,999.51	59.8391	7,999.51	61.7759	7,999.51	57.2581	7,999.51	58.9452	7,999.51	40.8522
8,282.23	79.6194	8,282.23	79.237	8,282.23	79.5005	8,282.23	78.627	8,282.23	79.2478	8,282.23	76.7268	8,282.23	78.0563	8,282.23	76.1671	8,282.23	76.6829	8,282.23	75.9013	8,282.23	76.2789	8,282.23	74.5361	8,282.23	75.6766	8,282.23	72.8211	8,282.23	73.3811	8,282.23	69.3556	8,282.23	70.566	8,282.23	66.8081	8,282.23	68.9801	8,282.23	65.1142	8,282.23	65.9007	8,282.23	60.3299	8,282.23	62.3234	8,282.23	60.3095	8,282.23	63.0867	8,282.23	56.5169	8,282.23	55.6152	8,282.23	57.9047	8,282.23	57.7812	8,282.23	61.8747	8,282.23	59.1714	8,282.23	61.8726	8,282.23	62.3446	8,282.23	55.4338	8,282.23	62.3008	8,282.23	45.0155
8,573.73	79.2833	8,573.73	79.1679	8,573.73	79.6818	8,573.73	77.91	8,573.73	78.9787	8,573.73	76.2721	8,573.73	77.4695	8,573.73	75.6038	8,573.73	76.4662	8,573.73	76.3483	8,573.73	75.5129	8,573.73	74.8908	8,573.73	74.9503	8,573.73	71.4241	8,573.73	73.0786	8,573.73	68.6717	8,573.73	71.2051	8,573.73	66.0284	8,573.73	68.462	8,573.73	64.7671	8,573.73	66.1611	8,573.73	60.7446	8,573.73	63.5334	8,573.73	60.1295	8,573.73	61.7435	8,573.73	55.7888	8,573.73	57.7622	8,573.73	57.0528	8,573.73	57.938	8,573.73	61.9845	8,573.73	59.5285	8,573.73	61.5747	8,573.73	62.959	8,573.73	56.8963	8,573.73	60.9041	8,573.73	48.9393
8,876.95	78.4597	8,876.95	78.7523	8,876.95	78.9605	8,876.95	78.0572	8,876.95	79.0478	8,876.95	75.5481	8,876.95	77.2279	8,876.95	75.4884	8,876.95	75.0064	8,876.95	75.4841	8,876.95	75.7711	8,876.95	74.1387	8,876.95	75.0304	8,876.95	72.1309	8,876.95	73.0602	8,876.95	69.0387	8,876.95	71.1589	8,876.95	67.0141	8,876.95	67.0526	8,876.95	62.4713	8,876.95	65.0651	8,876.95	59.6528	8,876.95	62.4755	8,876.95	59.0645	8,876.95	58.0525	8,876.95	54.7999	8,876.95	58.0428	8,876.95	57.6056	8,876.95	55.4602	8,876.95	61.8432	8,876.95	59.3212	8,876.95	60.9728	8,876.95	61.2929	8,876.95	53.9513	8,876.95	60.1661	8,876.95	45.0326
9,188.96	78.8322	9,188.96	79.0766	9,188.96	79.136	9,188.96	77.9544	9,188.96	78.6655	9,188.96	75.7387	9,188.96	77.1718	9,188.96	75.124	9,188.96	76.1341	9,188.96	75.847	9,188.96	75.4697	9,188.96	74.6405	9,188.96	74.7883	9,188.96	72.0293	9,188.96	73.4025	9,188.96	69.7823	9,188.96	70.8602	9,188.96	66.5706	9,188.96	68.616	9,188.96	64.5443	9,188.96	64.8192	9,188.96	59.9226	9,188.96	62.6805	9,188.96	57.6531	9,188.96	59.3325	9,188.96	53.3676	9,188.96	58.2943	9,188.96	57.2687	9,188.96	53.7952	9,188.96	60.7234	9,188.96	56.1932	9,188.96	59.3408	9,188.96	61.0051	9,188.96	55.8087	9,188.96	61.2236	9,188.96	47.6876
9,514.16	78.9357	9,514.16	78.8414	9,514.16	79.3162	9,514.16	77.9984	9,514.16	78.8988	9,514.16	75.8598	9,514.16	76.9802	9,514.16	75.2506	9,514.16	74.8012	9,514.16	74.5152	9,514.16	75.4147	9,514.16	73.9462	9,514.16	74.5963	9,514.16	72.5138	9,514.16	73.1735	9,514.16	69.6099	9,514.16	71.3274	9,514.16	66.6917	9,514.16	67.6104	9,514.16	63.3585	9,514.16	65.1502	9,514.16	59.3848	9,514.16	62.291	9,514.16	57.601	9,514.16	55.5241	9,514.16	52.0155	9,514.16	58.2784	9,514.16	57.1709	9,514.16	56.1793	9,514.16	61.1084	9,514.16	57.2083	9,514.16	60.5199	9,514.16	58.7681	9,514.16	55.7299	9,514.16	60.6282	9,514.16	42.0841
9,849.61	79.0912	9,849.61	79.0097	9,849.61	79.2472	9,849.61	78.0761	9,849.61	78.7925	9,849.61	76.2906	9,849.61	77.8344	9,849.61	75.2433	9,849.61	76.3388	9,849.61	74.4101	9,849.61	75.0994	9,849.61	73.6378	9,849.61	74.316	9,849.61	72.0331	9,849.61	73.4872	9,849.61	69.2345	9,849.61	71.2514	9,849.61	66.9827	9,849.61	67.459	9,849.61	63.1327	9,849.61	65.0173	9,849.61	60.5114	9,849.61	61.9496	9,849.61	52.8516	9,849.61	56.6283	9,849.61	48.1027	9,849.61	54.6961	9,849.61	55.97	9,849.61	56.6449	9,849.61	61.5597	9,849.61	55.9593	9,849.61	58.0455	9,849.61	59.3417	9,849.61	52.6347	9,849.61	59.5043	9,849.61	47.5709
10,196.8	79.5649	10,196.8	78.8767	10,196.8	79.5835	10,196.8	78.2767	10,196.8	79.3807	10,196.8	76.9465	10,196.8	77.976	10,196.8	75.3961	10,196.8	76.1266	10,196.8	74.5637	10,196.8	75.9708	10,196.8	72.883	10,196.8	74.6955	10,196.8	71.0867	10,196.8	72.996	10,196.8	67.6073	10,196.8	69.4672	10,196.8	64.598	10,196.8	66.3915	10,196.8	62.5751	10,196.8	64.3566	10,196.8	58.6491	10,196.8	61.2838	10,196.8	55.1649	10,196.8	57.8118	10,196.8	47.7069	10,196.8	53.8025	10,196.8	54.9729	10,196.8	54.2177	10,196.8	58.4273	10,196.8	57.2549	10,196.8	58.5309	10,196.8	58.6842	10,196.8	46.8094	10,196.8	56.4595	10,196.8	48.7364
10,555.7	80.2376	10,555.7	79.3735	10,555.7	80.1134	10,555.7	78.6629	10,555.7	79.1947	10,555.7	77.172	10,555.7	78.8095	10,555.7	75.0231	10,555.7	77.4358	10,555.7	73.4223	10,555.7	75.5692	10,555.7	71.9208	10,555.7	74.0616	10,555.7	69.2705	10,555.7	71.8751	10,555.7	64.9033	10,555.7	69.6697	10,555.7	62.4477	10,555.7	66.369	10,555.7	60.3532	10,555.7	62.7015	10,555.7	56.299	10,555.7	60.2093	10,555.7	51.4494	10,555.7	58.0035	10,555.7	44.0501	10,555.7	52.8689	10,555.7	51.7207	10,555.7	53.2896	10,555.7	56.4831	10,555.7	54.5556	10,555.7	54.8172	10,555.7	57.3702	10,555.7	38.3503	10,555.7	52.5737	10,555.7	47.1871
10,927.7	80.8086	10,927.7	80.1837	10,927.7	80.9426	10,927.7	79.4554	10,927.7	80.2967	10,927.7	77.3778	10,927.7	79.1307	10,927.7	74.9742	10,927.7	77.134	10,927.7	72.7282	10,927.7	75.7305	10,927.7	70.8349	10,927.7	73.6082	10,927.7	67.6767	10,927.7	71.6111	10,927.7	64.1909	10,927.7	67.8255	10,927.7	61.1239	10,927.7	64.5879	10,927.7	56.6211	10,927.7	61.105	10,927.7	54.718	10,927.7	57.6835	10,927.7	51.0809	10,927.7	55.8434	10,927.7	47.2378	10,927.7	51.8876	10,927.7	50.9512	10,927.7	49.6406	10,927.7	53.1975	10,927.7	52.6847	10,927.7	53.1284	10,927.7	56.1155	10,927.7	32.0043	10,927.7	52.5546	10,927.7	48.3526
11,313	81.8292	11,313	81.1801	11,313	81.6434	11,313	80.0104	11,313	80.5289	11,313	78.3099	11,313	79.4836	11,313	75.4999	11,313	77.5788	11,313	72.8161	11,313	74.6581	11,313	70.3865	11,313	72.2933	11,313	66.9967	11,313	69.5738	11,313	61.4304	11,313	66.5943	11,313	57.6056	11,313	61.9904	11,313	56.2234	11,313	58.5612	11,313	53.604	11,313	55.8401	11,313	50.4172	11,313	47.8256	11,313	45.606	11,313	48.8929	11,313	48.7507	11,313	45.5622	11,313	51.8589	11,313	49.0866	11,313	49.6827	11,313	53.8977	11,313	36.1222	11,313	47.6923	11,313	45.7827
11,712.9	82.4382	11,712.9	81.5734	11,712.9	82.3344	11,712.9	80.7092	11,712.9	81.218	11,712.9	78.5338	11,712.9	79.8698	11,712.9	75.8392	11,712.9	77.2302	11,712.9	72.504	11,712.9	74.521	11,712.9	69.0979	11,712.9	71.109	11,712.9	65.2811	11,712.9	68.1044	11,712.9	60.5456	11,712.9	63.9939	11,712.9	57.4016	11,712.9	59.1716	11,712.9	55.4931	11,712.9	56.5561	11,712.9	51.4593	11,712.9	51.7691	11,712.9	49.6874	11,712.9	48.7021	11,712.9	45.4199	11,712.9	47.5378	11,712.9	46.6328	11,712.9	41.8523	11,712.9	50.8435	11,712.9	48.5285	11,712.9	49.5332	11,712.9	51.2659	11,712.9	32.6269	11,712.9	46.9663	11,712.9	42.6061
12,126	82.8667	12,126	82.0125	12,126	82.6348	12,126	80.9192	12,126	81.3929	12,126	78.5697	12,126	79.7785	12,126	75.659	12,126	76.9532	12,126	72.4244	12,126	74.1488	12,126	68.4314	12,126	70.2448	12,126	64.9453	12,126	66.3776	12,126	60.1232	12,126	62.1642	12,126	57.2255	12,126	56.9524	12,126	54.0926	12,126	54.0544	12,126	53.1684	12,126	51.7733	12,126	50.3617	12,126	50.6412	12,126	47.9574	12,126	41.886	12,126	45.8646	12,126	43.1985	12,126	48.518	12,126	45.8866	12,126	50.1806	12,126	47.9578	12,126	31.1587	12,126	45.8418	12,126	38.4486
12,553.7	82.8727	12,553.7	81.9604	12,553.7	82.6449	12,553.7	80.757	12,553.7	81.3891	12,553.7	78.343	12,553.7	79.5116	12,553.7	75.3676	12,553.7	76.6144	12,553.7	72.0843	12,553.7	73.5226	12,553.7	67.9425	12,553.7	69.5401	12,553.7	63.9042	12,553.7	64.546	12,553.7	60.2682	12,553.7	61.4579	12,553.7	57.8098	12,553.7	57.5889	12,553.7	53.8598	12,553.7	55.6839	12,553.7	50.1926	12,553.7	51.3726	12,553.7	49.3327	12,553.7	48.1559	12,553.7	47.4668	12,553.7	45.0043	12,553.7	46.3674	12,553.7	44.3673	12,553.7	47.5932	12,553.7	47.9797	12,553.7	47.3637	12,553.7	50.546	12,553.7	29.1425	12,553.7	47.8391	12,553.7	42.5183
12,996.1	82.6727	12,996.1	81.6889	12,996.1	82.3111	12,996.1	80.6068	12,996.1	81.1123	12,996.1	77.5416	12,996.1	79.2872	12,996.1	74.5745	12,996.1	76.2304	12,996.1	70.7054	12,996.1	72.7011	12,996.1	67.2951	12,996.1	68.886	12,996.1	63.8424	12,996.1	64.6421	12,996.1	60.4271	12,996.1	61.5971	12,996.1	56.9671	12,996.1	58.5203	12,996.1	55.8891	12,996.1	55.1942	12,996.1	51.7627	12,996.1	52.4108	12,996.1	49.8058	12,996.1	50.6663	12,996.1	49.0255	12,996.1	45.2933	12,996.1	47.625	12,996.1	44.7247	12,996.1	48.14	12,996.1	48.7382	12,996.1	48.1958	12,996.1	51.157	12,996.1	33.7898	12,996.1	45.267	12,996.1	44.2798
13,454.6	82.1474	13,454.6	81.3966	13,454.6	81.8718	13,454.6	80.0327	13,454.6	80.5119	13,454.6	77.2989	13,454.6	78.7965	13,454.6	74.3296	13,454.6	75.5768	13,454.6	70.6141	13,454.6	71.9971	13,454.6	67.6285	13,454.6	67.8064	13,454.6	64.6253	13,454.6	65.4085	13,454.6	61.287	13,454.6	62.4328	13,454.6	58.443	13,454.6	58.9868	13,454.6	56.5699	13,454.6	55.5489	13,454.6	51.4563	13,454.6	52.9199	13,454.6	49.4103	13,454.6	49.5763	13,454.6	48.0084	13,454.6	48.6079	13,454.6	48.0308	13,454.6	43.134	13,454.6	48.7124	13,454.6	49.7459	13,454.6	51.0828	13,454.6	49.7174	13,454.6	36.8191	13,454.6	47.1138	13,454.6	41.6278
13,929.2	81.5922	13,929.2	81.0609	13,929.2	81.3373	13,929.2	79.747	13,929.2	80.2856	13,929.2	77.1553	13,929.2	78.4364	13,929.2	73.757	13,929.2	75.4514	13,929.2	70.3305	13,929.2	72.0153	13,929.2	68.0071	13,929.2	68.4976	13,929.2	65.5472	13,929.2	66.4765	13,929.2	63.0662	13,929.2	62.8981	13,929.2	59.697	13,929.2	60.4128	13,929.2	55.8633	13,929.2	56.4281	13,929.2	53.7195	13,929.2	53.2692	13,929.2	53.5829	13,929.2	51.8035	13,929.2	50.0653	13,929.2	46.5444	13,929.2	48.5305	13,929.2	47.1036	13,929.2	44.4832	13,929.2	50.8326	13,929.2	50.406	13,929.2	50.558	13,929.2	35.8659	13,929.2	44.6344	13,929.2	43.6145
14,419.9	81.3797	14,419.9	80.5869	14,419.9	81.0793	14,419.9	79.5421	14,419.9	80.0401	14,419.9	77.2063	14,419.9	78.2868	14,419.9	73.5219	14,419.9	75.5478	14,419.9	70.3016	14,419.9	72.0749	14,419.9	68.5617	14,419.9	69.4827	14,419.9	65.5806	14,419.9	66.9332	14,419.9	62.1594	14,419.9	64.1048	14,419.9	59.5515	14,419.9	61.6604	14,419.9	56.1256	14,419.9	57.1457	14,419.9	54.0278	14,419.9	55.0914	14,419.9	50.7557	14,419.9	50.2207	14,419.9	51.3882	14,419.9	44.9563	14,419.9	47.1594	14,419.9	46.2112	14,419.9	45.1509	14,419.9	50.3914	14,419.9	50.3596	14,419.9	48.6357	14,419.9	33.5464	14,419.9	43.7573	14,419.9	44.8063
14,928.2	81.141	14,928.2	80.4995	14,928.2	80.9269	14,928.2	79.5672	14,928.2	79.832	14,928.2	76.8488	14,928.2	78.3445	14,928.2	73.6562	14,928.2	75.5565	14,928.2	70.8946	14,928.2	72.2163	14,928.2	69.2706	14,928.2	69.9833	14,928.2	65.7823	14,928.2	67.6818	14,928.2	63.0372	14,928.2	64.6672	14,928.2	59.833	14,928.2	61.6644	14,928.2	57.1892	14,928.2	56.4231	14,928.2	53.2532	14,928.2	54.0226	14,928.2	51.9931	14,928.2	49.3097	14,928.2	50.637	14,928.2	47.0023	14,928.2	47.0506	14,928.2	46.0278	14,928.2	47.0481	14,928.2	50.5844	14,928.2	49.4911	14,928.2	48.6729	14,928.2	39.5945	14,928.2	42.853	14,928.2	45.4822
15,455.6	80.7855	15,455.6	80.5084	15,455.6	80.683	15,455.6	79.3158	15,455.6	79.7297	15,455.6	76.8454	15,455.6	78.2246	15,455.6	73.9061	15,455.6	75.7921	15,455.6	71.286	15,455.6	72.6853	15,455.6	69.1667	15,455.6	69.8703	15,455.6	66.7087	15,455.6	68.0887	15,455.6	63.1413	15,455.6	64.2312	15,455.6	59.7048	15,455.6	60.7603	15,455.6	56.6189	15,455.6	55.6016	15,455.6	53.5245	15,455.6	53.5189	15,455.6	51.4148	15,455.6	48.8427	15,455.6	49.1563	15,455.6	47.8575	15,455.6	46.6901	15,455.6	44.919	15,455.6	45.0395	15,455.6	50.7871	15,455.6	48.773	15,455.6	49.5319	15,455.6	43.1476	15,455.6	41.7781	15,455.6	48.1796
16,000.5	80.2934	16,000.5	80.0715	16,000.5	80.1763	16,000.5	78.9928	16,000.5	79.4545	16,000.5	76.8895	16,000.5	78.0362	16,000.5	73.6244	16,000.5	75.5157	16,000.5	70.8548	16,000.5	72.5838	16,000.5	69.0342	16,000.5	69.6943	16,000.5	67.217	16,000.5	67.2375	16,000.5	63.4984	16,000.5	63.4806	16,000.5	59.7457	16,000.5	60.4618	16,000.5	55.9295	16,000.5	56.0008	16,000.5	54.3588	16,000.5	52.986	16,000.5	52.7249	16,000.5	47.8502	16,000.5	48.5651	16,000.5	45.7921	16,000.5	47.8726	16,000.5	45.076	16,000.5	46.4895	16,000.5	47.7021	16,000.5	47.9642	16,000.5	47.3497	16,000.5	43.2241	16,000.5	40.7872	16,000.5	47.3298
16,564.5	79.8502	16,564.5	79.2806	16,564.5	79.8499	16,564.5	78.4691	16,564.5	79.1072	16,564.5	76.4126	16,564.5	77.6564	16,564.5	73.3438	16,564.5	74.8773	16,564.5	70.3399	16,564.5	72.1526	16,564.5	68.8193	16,564.5	68.9191	16,564.5	66.4171	16,564.5	65.6905	16,564.5	62.2655	16,564.5	62.9537	16,564.5	60.2542	16,564.5	59.4061	16,564.5	56.4103	16,564.5	55.1302	16,564.5	53.037	16,564.5	51.2163	16,564.5	52.1933	16,564.5	45.2611	16,564.5	47.0621	16,564.5	48.5865	16,564.5	45.8941	16,564.5	43.2382	16,564.5	45.779	16,564.5	44.4799	16,564.5	49.0731	16,564.5	44.2767	16,564.5	42.0186	16,564.5	44.959	16,564.5	46.1665
17,148.9	79.1978	17,148.9	78.6111	17,148.9	79.284	17,148.9	77.92	17,148.9	78.406	17,148.9	75.869	17,148.9	76.9497	17,148.9	73.3844	17,148.9	74.2317	17,148.9	70.028	17,148.9	71.0392	17,148.9	68.3167	17,148.9	67.4797	17,148.9	66.0617	17,148.9	64.6182	17,148.9	62.8615	17,148.9	61.564	17,148.9	59.4311	17,148.9	59.1192	17,148.9	56.0531	17,148.9	54.2275	17,148.9	52.469	17,148.9	49.3147	17,148.9	49.2739	17,148.9	49.2026	17,148.9	45.5718	17,148.9	47.5761	17,148.9	45.093	17,148.9	44.2725	17,148.9	43.6998	17,148.9	45.9157	17,148.9	47.3504	17,148.9	44.7868	17,148.9	42.662	17,148.9	43.1149	17,148.9	44.3557
17,752.4	78.6052	17,752.4	77.9572	17,752.4	78.6143	17,752.4	77.1973	17,752.4	77.6902	17,752.4	75.3866	17,752.4	76.1339	17,752.4	72.6562	17,752.4	73.6911	17,752.4	69.536	17,752.4	69.9598	17,752.4	67.3212	17,752.4	66.4134	17,752.4	65.8035	17,752.4	63.7135	17,752.4	62.1514	17,752.4	61.3946	17,752.4	58.6883	17,752.4	59.2356	17,752.4	55.4189	17,752.4	53.5991	17,752.4	52.8341	17,752.4	49.7404	17,752.4	46.9916	17,752.4	47.913	17,752.4	43.1339	17,752.4	47.7231	17,752.4	45.2873	17,752.4	43.7103	17,752.4	44.0236	17,752.4	43.7851	17,752.4	45.3309	17,752.4	43.0778	17,752.4	42.9169	17,752.4	40.1046	17,752.4	39.9643
18,379.4	78.3227	18,379.4	77.3696	18,379.4	78.2835	18,379.4	76.5651	18,379.4	77.2781	18,379.4	74.7544	18,379.4	75.6023	18,379.4	71.8041	18,379.4	73.1593	18,379.4	68.3372	18,379.4	69.353	18,379.4	66.2541	18,379.4	65.6332	18,379.4	64.8137	18,379.4	62.9889	18,379.4	61.6026	18,379.4	60.4403	18,379.4	57.4146	18,379.4	58.7673	18,379.4	54.8699	18,379.4	52.9419	18,379.4	51.9631	18,379.4	48.1734	18,379.4	49.0503	18,379.4	47.5692	18,379.4	38.9242	18,379.4	46.8454	18,379.4	42.3207	18,379.4	42.5634	18,379.4	43.5083	18,379.4	35.2935	18,379.4	42.6278	18,379.4	43.4833	18,379.4	42.8614	18,379.4	42.308	18,379.4	41.6486
19,026.9	79.5068	19,026.9	78.2949	19,026.9	79.4308	19,026.9	77.0439	19,026.9	78.0639	19,026.9	74.8615	19,026.9	76.2266	19,026.9	71.8527	19,026.9	73.1122	19,026.9	67.5828	19,026.9	68.8033	19,026.9	65.3368	19,026.9	64.8381	19,026.9	63.3285	19,026.9	62.3474	19,026.9	60.0879	19,026.9	59.8994	19,026.9	55.9299	19,026.9	57.3906	19,026.9	52.8803	19,026.9	51.7497	19,026.9	51.2689	19,026.9	47.2053	19,026.9	46.3487	19,026.9	48.2067	19,026.9	41.8316	19,026.9	45.8036	19,026.9	38.7314	19,026.9	41.2876	19,026.9	42.3168	19,026.9	35.5417	19,026.9	40.6217	19,026.9	42.6422	19,026.9	38.5711	19,026.9	44.5217	19,026.9	41.5052
19,697.8	80.4165	19,697.8	79.169	19,697.8	80.3748	19,697.8	77.8926	19,697.8	78.9294	19,697.8	75.3379	19,697.8	77.0033	19,697.8	72.0787	19,697.8	73.6003	19,697.8	67.2931	19,697.8	68.7275	19,697.8	63.9824	19,697.8	64.5946	19,697.8	62.0024	19,697.8	62.6313	19,697.8	58.7221	19,697.8	60.3927	19,697.8	54.0495	19,697.8	58.3566	19,697.8	51.6508	19,697.8	51.3561	19,697.8	51.3917	19,697.8	48.2418	19,697.8	43.9501	19,697.8	47.9363	19,697.8	42.3922	19,697.8	44.8795	19,697.8	40.2111	19,697.8	42.3958	19,697.8	43.7735	19,697.8	32.236	19,697.8	34.3459	19,697.8	41.9205	19,697.8	37.3504	19,697.8	43.6963	19,697.8	40.2167
19,999.5	80.6254	19,999.5	79.6502	19,999.5	80.6468	19,999.5	78.2271	19,999.5	79.2569	19,999.5	75.5443	19,999.5	77.3413	19,999.5	72.094	19,999.5	73.825	19,999.5	65.7965	19,999.5	69.0832	19,999.5	63.2622	19,999.5	64.5374	19,999.5	62.6222	19,999.5	63.8812	19,999.5	58.5295	19,999.5	61.4182	19,999.5	53.3103	19,999.5	58.7773	19,999.5	53.4941	19,999.5	52.08	19,999.5	47.1907	19,999.5	47.4793	19,999.5	45.7284	19,999.5	49.0698	19,999.5	44.2517	19,999.5	45.75	19,999.5	30.9057	19,999.5	43.2801	19,999.5	45.1691	19,999.5	48.6875	19,999.5	38.3911	19,999.5	39.5664	19,999.5	46.9951	19,999.5	44.5793	19,999.5	39.7858
