"SPL Vertical"
"On-Axis"		"10°"		"-10°"		"20°"		"-20°"		"30°"		"-30°"		"40°"		"-40°"		"50°"		"-50°"		"60°"		"-60°"		"70°"		"-70°"		"80°"		"-80°"		"90°"		"-90°"		"100°"		"-100°"		"110°"		"-110°"		"120°"		"-120°"		"130°"		"-130°"		"140°"		"-140°"		"150°"		"-150°"		"160°"		"-160°"		"170°"		"-170°"		"180°"
"Frequency [Hz]"	"Sound Pessure Level [dB]  / [2.83V 1m] "	"Frequency [Hz]"	"Sound Pessure Level [dB]  / [2.83V 1m] "	"Frequency [Hz]"	"Sound Pessure Level [dB]  / [2.83V 1m] "	"Frequency [Hz]"	"Sound Pessure Level [dB]  / [2.83V 1m] "	"Frequency [Hz]"	"Sound Pessure Level [dB]  / [2.83V 1m] "	"Frequency [Hz]"	"Sound Pessure Level [dB]  / [2.83V 1m] "	"Frequency [Hz]"	"Sound Pessure Level [dB]  / [2.83V 1m] "	"Frequency [Hz]"	"Sound Pessure Level [dB]  / [2.83V 1m] "	"Frequency [Hz]"	"Sound Pessure Level [dB]  / [2.83V 1m] "	"Frequency [Hz]"	"Sound Pessure Level [dB]  / [2.83V 1m] "	"Frequency [Hz]"	"Sound Pessure Level [dB]  / [2.83V 1m] "	"Frequency [Hz]"	"Sound Pessure Level [dB]  / [2.83V 1m] "	"Frequency [Hz]"	"Sound Pessure Level [dB]  / [2.83V 1m] "	"Frequency [Hz]"	"Sound Pessure Level [dB]  / [2.83V 1m] "	"Frequency [Hz]"	"Sound Pessure Level [dB]  / [2.83V 1m] "	"Frequency [Hz]"	"Sound Pessure Level [dB]  / [2.83V 1m] "	"Frequency [Hz]"	"Sound Pessure Level [dB]  / [2.83V 1m] "	"Frequency [Hz]"	"Sound Pessure Level [dB]  / [2.83V 1m] "	"Frequency [Hz]"	"Sound Pessure Level [dB]  / [2.83V 1m] "	"Frequency [Hz]"	"Sound Pessure Level [dB]  / [2.83V 1m] "	"Frequency [Hz]"	"Sound Pessure Level [dB]  / [2.83V 1m] "	"Frequency [Hz]"	"Sound Pessure Level [dB]  / [2.83V 1m] "	"Frequency [Hz]"	"Sound Pessure Level [dB]  / [2.83V 1m] "	"Frequency [Hz]"	"Sound Pessure Level [dB]  / [2.83V 1m] "	"Frequency [Hz]"	"Sound Pessure Level [dB]  / [2.83V 1m] "	"Frequency [Hz]"	"Sound Pessure Level [dB]  / [2.83V 1m] "	"Frequency [Hz]"	"Sound Pessure Level [dB]  / [2.83V 1m] "	"Frequency [Hz]"	"Sound Pessure Level [dB]  / [2.83V 1m] "	"Frequency [Hz]"	"Sound Pessure Level [dB]  / [2.83V 1m] "	"Frequency [Hz]"	"Sound Pessure Level [dB]  / [2.83V 1m] "	"Frequency [Hz]"	"Sound Pessure Level [dB]  / [2.83V 1m] "	"Frequency [Hz]"	"Sound Pessure Level [dB]  / [2.83V 1m] "	"Frequency [Hz]"	"Sound Pessure Level [dB]  / [2.83V 1m] "	"Frequency [Hz]"	"Sound Pessure Level [dB]  / [2.83V 1m] "	"Frequency [Hz]"	"Sound Pessure Level [dB]  / [2.83V 1m] "	"Frequency [Hz]"	"Sound Pessure Level [dB]  / [2.83V 1m] "
20.5078	51.6394	20.5078	51.2901	20.5078	51.8597	20.5078	50.8092	20.5078	51.9488	20.5078	50.1887	20.5078	51.8994	20.5078	49.4167	20.5078	51.6994	20.5078	48.479	20.5078	51.3326	20.5078	47.3663	20.5078	50.7794	20.5078	46.0929	20.5078	50.0203	20.5078	44.7462	20.5078	49.0434	20.5078	43.5802	20.5078	47.8668	20.5078	43.047	20.5078	46.5927	20.5078	43.4515	20.5078	45.5004	20.5078	44.5414	20.5078	45.0365	20.5078	45.8314	20.5078	45.4251	20.5078	47.012	20.5078	46.3584	20.5078	47.9547	20.5078	47.3804	20.5078	48.6155	20.5078	48.2235	20.5078	48.979	20.5078	48.785	20.5078	49.0374
21.9727	49.2211	21.9727	48.5329	21.9727	49.7074	21.9727	47.6187	21.9727	50.001	21.9727	46.4363	21.9727	50.0991	21.9727	44.9202	21.9727	49.9868	21.9727	42.984	21.9727	49.6362	21.9727	40.588	21.9727	49.002	21.9727	38.1861	21.9727	48.0114	21.9727	37.735	21.9727	46.5426	21.9727	39.9495	21.9727	44.3716	21.9727	42.6585	21.9727	41.0278	21.9727	44.9342	21.9727	35.4898	21.9727	46.7174	21.9727	32.63	21.9727	48.0792	21.9727	39.1759	21.9727	49.0785	21.9727	43.4501	21.9727	49.7491	21.9727	46.1521	21.9727	50.1035	21.9727	47.9445	21.9727	50.1359	21.9727	49.1195	21.9727	49.8232
23.4375	47.9426	23.4375	47.3361	23.4375	48.351	23.4375	46.58	23.4375	48.5372	23.4375	45.7869	23.4375	48.483	23.4375	45.1901	23.4375	48.1715	23.4375	45.1288	23.4375	47.5944	23.4375	45.8113	23.4375	46.7829	23.4375	47.0838	23.4375	45.8948	23.4375	48.6106	23.4375	45.3626	23.4375	50.1416	23.4375	45.7881	23.4375	51.5562	23.4375	47.2315	23.4375	52.8088	23.4375	49.1149	23.4375	53.8855	23.4375	50.9535	23.4375	54.7831	23.4375	52.5532	23.4375	55.4998	23.4375	53.8671	23.4375	56.0325	23.4375	54.8986	23.4375	56.3758	23.4375	55.6632	23.4375	56.5215	23.4375	56.1783	23.4375	56.4597
24.9023	49.7424	24.9023	49.1046	24.9023	50.1375	24.9023	48.2358	24.9023	50.2815	24.9023	47.1789	24.9023	50.1579	24.9023	46.0806	24.9023	49.7383	24.9023	45.3109	24.9023	48.9815	24.9023	45.4064	24.9023	47.8442	24.9023	46.5177	24.9023	46.3431	24.9023	48.1928	24.9023	44.8188	24.9023	49.9578	24.9023	44.4197	24.9023	51.5877	24.9023	45.9977	24.9023	53.0132	24.9023	48.4536	24.9023	54.2226	24.9023	50.7701	24.9023	55.2201	24.9023	52.6881	24.9023	56.0109	24.9023	54.206	24.9023	56.5965	24.9023	55.367	24.9023	56.9744	24.9023	56.212	24.9023	57.1376	24.9023	56.7733	24.9023	57.0754
26.3672	51.3294	26.3672	51.0503	26.3672	51.52	26.3672	50.7446	26.3672	51.5852	26.3672	50.5065	26.3672	51.5071	26.3672	50.4571	26.3672	51.2882	26.3672	50.708	26.3672	50.9642	26.3672	51.301	26.3672	50.6303	26.3672	52.1811	26.3672	50.4665	26.3672	53.2346	26.3672	50.7027	26.3672	54.3482	26.3672	51.465	26.3672	55.4386	26.3672	52.6507	26.3672	56.4537	26.3672	54.0246	26.3672	57.3621	26.3672	55.3846	26.3672	58.1446	26.3672	56.6129	26.3672	58.7875	26.3672	57.6552	26.3672	59.2797	26.3672	58.4906	26.3672	59.6104	26.3672	59.1148	26.3672	59.7694	26.3672	59.531	26.3672	59.7462
27.832	56.1928	27.832	55.9352	27.832	56.3616	27.832	55.6063	27.832	56.4314	27.832	55.2354	27.832	56.3967	27.832	54.8695	27.832	56.2569	27.832	54.577	27.832	56.0193	27.832	54.4415	27.832	55.7053	27.832	54.5387	27.832	55.3617	27.832	54.8999	27.832	55.0721	27.832	55.4934	27.832	54.9548	27.832	56.2401	27.832	55.1236	27.832	57.0494	27.832	55.6173	27.832	57.8443	27.832	56.3648	27.832	58.5679	27.832	57.231	27.832	59.1813	27.832	58.0861	27.832	59.657	27.832	58.8393	27.832	59.9752	27.832	59.4379	27.832	60.121	27.832	59.8557	27.832	60.0833
29.2969	56.8029	29.2969	56.467	29.2969	57.022	29.2969	56.0315	29.2969	57.1151	29.2969	55.529	29.2969	57.0777	29.2969	55.0183	29.2969	56.9103	29.2969	54.5955	29.2969	56.6218	29.2969	54.389	29.2969	56.2393	29.2969	54.5156	29.2969	55.8234	29.2969	55.0099	29.2969	55.4855	29.2969	55.7975	29.2969	55.3826	29.2969	56.7459	29.2969	55.6516	29.2969	57.7308	29.2969	56.3064	29.2969	58.6646	29.2969	57.2207	29.2969	59.4932	29.2969	58.2194	29.2969	60.1843	29.2969	59.1629	29.2969	60.7171	29.2969	59.9674	29.2969	61.0769	29.2969	60.5903	29.2969	61.2522	29.2969	61.0138	29.2969	61.2334
30.7617	57.0089	30.7617	56.7261	30.7617	57.2024	30.7617	56.3854	30.7617	57.289	30.7617	56.0386	30.7617	57.2616	30.7617	55.7625	30.7617	57.124	30.7617	55.6531	30.7617	56.8953	30.7617	55.7982	30.7617	56.6202	30.7617	56.2344	30.7617	56.3814	30.7617	56.9248	30.7617	56.3017	30.7617	57.781	30.7617	56.5089	30.7617	58.7057	30.7617	57.0612	30.7617	59.6199	30.7617	57.8994	30.7617	60.4687	30.7617	58.8864	30.7617	61.2162	30.7617	59.8843	30.7617	61.838	30.7617	60.7946	30.7617	62.3165	30.7617	61.5594	30.7617	62.6379	30.7617	62.1492	30.7617	62.7903	30.7617	62.5514	30.7617	62.7639
32.2266	57.3073	32.2266	57.1281	32.2266	57.4372	32.2266	56.9324	32.2266	57.5	32.2266	56.7708	32.2266	57.4912	32.2266	56.7091	32.2266	57.4195	32.2266	56.816	32.2266	57.3102	32.2266	57.1388	32.2266	57.2108	32.2266	57.6806	32.2266	57.1938	32.2266	58.3986	32.2266	57.3467	32.2266	59.2239	32.2266	57.7392	32.2266	60.0861	32.2266	58.3823	32.2266	60.9274	32.2266	59.2166	32.2266	61.7052	32.2266	60.1429	32.2266	62.389	32.2266	61.0635	32.2266	62.9568	32.2266	61.9042	32.2266	63.3915	32.2266	62.6166	32.2266	63.6791	32.2266	63.1728	32.2266	63.8084	32.2266	63.5589	32.2266	63.7703
33.6914	60.1386	33.6914	59.9771	33.6914	60.2718	33.6914	59.814	33.6914	60.3599	33.6914	59.6861	33.6914	60.3956	33.6914	59.6374	33.6914	60.3815	33.6914	59.7117	33.6914	60.3322	33.6914	59.9407	33.6914	60.2772	33.6914	60.3318	33.6914	60.263	33.6914	60.8648	33.6914	60.3481	33.6914	61.499	33.6914	60.5882	33.6914	62.1853	33.6914	61.0111	33.6914	62.8766	33.6914	61.5997	33.6914	63.5331	33.6914	62.2969	33.6914	64.1228	33.6914	63.0282	33.6914	64.6206	33.6914	63.7243	33.6914	65.0062	33.6914	64.3325	33.6914	65.2636	33.6914	64.8175	33.6914	65.3801	33.6914	65.1587	33.6914	65.3467
35.1562	62.3249	35.1562	62.1928	35.1562	62.4209	35.1562	62.0414	35.1562	62.4711	35.1562	61.8958	35.1562	62.4729	35.1562	61.789	35.1562	62.4309	35.1562	61.759	35.1562	62.3589	35.1562	61.8419	35.1562	62.2822	35.1562	62.062	35.1562	62.2392	35.1562	62.4227	35.1562	62.2784	35.1562	62.9043	35.1562	62.4474	35.1562	63.4694	35.1562	62.7742	35.1562	64.0735	35.1562	63.2513	35.1562	64.673	35.1562	63.8359	35.1562	65.2299	35.1562	64.4651	35.1562	65.7132	35.1562	65.0749	35.1562	66.0981	35.1562	65.6129	35.1562	66.3651	35.1562	66.0419	35.1562	66.4998	35.1562	66.339	35.1562	66.4925
36.6211	63.2404	36.6211	63.0781	36.6211	63.3749	36.6211	62.9068	36.6211	63.4705	36.6211	62.7534	36.6211	63.5232	36.6211	62.652	36.6211	63.536	36.6211	62.6397	36.6211	63.5199	36.6211	62.7496	36.6211	63.4957	36.6211	62.9997	36.6211	63.4947	36.6211	63.3867	36.6211	63.5567	36.6211	63.8861	36.6211	63.7214	36.6211	64.4589	36.6211	64.0153	36.6211	65.0616	36.6211	64.4381	36.6211	65.6532	36.6211	64.9595	36.6211	66.1986	36.6211	65.5283	36.6211	66.6692	36.6211	66.0881	36.6211	67.0423	36.6211	66.5887	36.6211	67.3001	36.6211	66.9925	36.6211	67.4294	36.6211	67.2748	36.6211	67.4219
38.0859	64.3764	38.0859	64.2474	38.0859	64.4817	38.0859	64.1126	38.0859	64.5518	38.0859	63.9964	38.0859	64.582	38.0859	63.9285	38.0859	64.5742	38.0859	63.9405	38.0859	64.5386	38.0859	64.0594	38.0859	64.4954	38.0859	64.3002	38.0859	64.4757	38.0859	64.6604	38.0859	64.5198	38.0859	65.1198	38.0859	64.6683	38.0859	65.6458	38.0859	64.9485	38.0859	66.2006	38.0859	65.3606	38.0859	66.7471	38.0859	65.8745	38.0859	67.2524	38.0859	66.4388	38.0859	67.6885	38.0859	66.9968	38.0859	68.0326	38.0859	67.4987	38.0859	68.2667	38.0859	67.9068	38.0859	68.3769	38.0859	68.1965	38.0859	68.3546
39.5508	65.7579	39.5508	65.6407	39.5508	65.8537	39.5508	65.5173	39.5508	65.9186	39.5508	65.4086	39.5508	65.9489	39.5508	65.3402	39.5508	65.9469	39.5508	65.3397	39.5508	65.9218	39.5508	65.4313	39.5508	65.8913	39.5508	65.6303	39.5508	65.8817	39.5508	65.9376	39.5508	65.926	39.5508	66.3388	39.5508	66.058	39.5508	66.8072	39.5508	66.3012	39.5508	67.3097	39.5508	66.6584	39.5508	67.8117	39.5508	67.1069	39.5508	68.2813	39.5508	67.6052	39.5508	68.6908	39.5508	68.1038	39.5508	69.0168	39.5508	68.5568	39.5508	69.2409	39.5508	68.9277	39.5508	69.3494	39.5508	69.1915	39.5508	69.3337
41.0156	67.3665	41.0156	67.2712	41.0156	67.4517	41.0156	67.1779	41.0156	67.5188	41.0156	67.1031	41.0156	67.5648	41.0156	67.0665	41.0156	67.5912	41.0156	67.0885	41.0156	67.6055	41.0156	67.1873	41.0156	67.621	41.0156	67.3742	41.0156	67.6576	41.0156	67.6505	41.0156	67.7394	41.0156	68.006	41.0156	67.8905	41.0156	68.4209	41.0156	68.1273	41.0156	68.8687	41.0156	68.4514	41.0156	69.3207	41.0156	68.8458	41.0156	69.7485	41.0156	69.2786	41.0156	70.1266	41.0156	69.7103	41.0156	70.4327	41.0156	70.1021	41.0156	70.6486	41.0156	70.4217	41.0156	70.7606	41.0156	70.6457	41.0156	70.7604
42.4805	68.6024	42.4805	68.4956	42.4805	68.69	42.4805	68.3811	42.4805	68.7507	42.4805	68.2746	42.4805	68.7812	42.4805	68.1951	42.4805	68.7824	42.4805	68.1633	42.4805	68.7605	42.4805	68.1987	42.4805	68.7278	42.4805	68.3158	42.4805	68.7028	42.4805	68.5202	42.4805	68.7102	42.4805	68.8063	42.4805	68.7767	42.4805	69.1578	42.4805	68.9242	42.4805	69.5503	42.4805	69.1621	42.4805	69.9555	42.4805	69.4811	42.4805	70.3447	42.4805	69.854	42.4805	70.691	42.4805	70.2429	42.4805	70.9713	42.4805	70.6076	42.4805	71.1665	42.4805	70.913	42.4805	71.2628	42.4805	71.1333	42.4805	71.2521
43.9453	69.5687	43.9453	69.4781	43.9453	69.6442	43.9453	69.3831	43.9453	69.6977	43.9453	69.2981	43.9453	69.7264	43.9453	69.2404	43.9453	69.7315	43.9453	69.2285	43.9453	69.719	43.9453	69.28	43.9453	69.701	43.9453	69.4075	43.9453	69.695	43.9453	69.6159	43.9453	69.7236	43.9453	69.8999	43.9453	69.811	43.9453	70.2446	43.9453	69.9762	43.9453	70.6274	43.9453	70.2259	43.9453	71.0221	43.9453	70.5499	43.9453	71.4013	43.9453	70.922	43.9453	71.7393	43.9453	71.3059	43.9453	72.0135	43.9453	71.6636	43.9453	72.2051	43.9453	71.9621	43.9453	72.3005	43.9453	72.1765	43.9453	72.2915
45.4102	70.7603	45.4102	70.676	45.4102	70.8306	45.4102	70.5872	45.4102	70.8812	45.4102	70.5065	45.4102	70.9098	45.4102	70.4497	45.4102	70.9184	45.4102	70.4341	45.4102	70.9129	45.4102	70.4762	45.4102	70.9045	45.4102	70.5888	45.4102	70.9094	45.4102	70.7778	45.4102	70.9478	45.4102	71.0398	45.4102	71.0408	45.4102	71.362	45.4102	71.2048	45.4102	71.7243	45.4102	71.445	45.4102	72.1018	45.4102	71.7518	45.4102	72.468	45.4102	72.1011	45.4102	72.7978	45.4102	72.4597	45.4102	73.0685	45.4102	72.7926	45.4102	73.2614	45.4102	73.0686	45.4102	73.3627	45.4102	73.264	45.4102	73.364
46.875	71.8185	46.875	71.7321	46.875	71.8935	46.875	71.6426	46.875	71.9519	46.875	71.5617	46.875	71.9921	46.875	71.5041	46.875	72.0158	46.875	71.4859	46.875	72.0285	46.875	71.5229	46.875	72.0399	46.875	71.6275	46.875	72.0639	46.875	71.8057	46.875	72.1175	46.875	72.0549	46.875	72.2185	46.875	72.3636	46.875	72.3804	46.875	72.7128	46.875	72.6077	46.875	73.0789	46.875	72.8921	46.875	73.4365	46.875	73.2126	46.875	73.7609	46.875	73.5402	46.875	74.0302	46.875	73.843	46.875	74.2259	46.875	74.0921	46.875	74.3345	46.875	74.2652	46.875	74.3481
48.3398	72.6519	48.3398	72.5734	48.3398	72.7274	48.3398	72.5003	48.3398	72.7944	48.3398	72.4433	48.3398	72.8505	48.3398	72.4155	48.3398	72.8966	48.3398	72.4302	48.3398	72.9366	48.3398	72.4995	48.3398	72.9786	48.3398	72.632	48.3398	73.0338	48.3398	72.8301	48.3398	73.1162	48.3398	73.0892	48.3398	73.2398	48.3398	73.3977	48.3398	73.4152	48.3398	73.7382	48.3398	73.6452	48.3398	74.0898	48.3398	73.9219	48.3398	74.43	48.3398	74.2273	48.3398	74.7371	48.3398	74.5359	48.3398	74.9912	48.3398	74.8196	48.3398	75.1758	48.3398	75.0526	48.3398	75.2783	48.3398	75.2143	48.3398	75.2916
51.2695	74.7458	51.2695	74.6784	51.2695	74.8131	51.2695	74.6183	51.2695	74.875	51.2695	74.5744	51.2695	74.9289	51.2695	74.5568	51.2695	74.9746	51.2695	74.5753	51.2695	75.0153	51.2695	74.6386	51.2695	75.0566	51.2695	74.7524	51.2695	75.1073	51.2695	74.9184	51.2695	75.1778	51.2695	75.1333	51.2695	75.2789	51.2695	75.3885	51.2695	75.4191	51.2695	75.6711	51.2695	75.6018	51.2695	75.9644	51.2695	75.8231	51.2695	76.2501	51.2695	76.0705	51.2695	76.5093	51.2695	76.3246	51.2695	76.7244	51.2695	76.5625	51.2695	76.8801	51.2695	76.7616	51.2695	76.965	51.2695	76.9027	51.2695	76.9726
52.7344	75.7625	52.7344	75.6974	52.7344	75.8266	52.7344	75.6379	52.7344	75.8851	52.7344	75.5923	52.7344	75.9354	52.7344	75.5696	52.7344	75.9775	52.7344	75.5788	52.7344	76.0142	52.7344	75.6282	52.7344	76.0509	52.7344	75.7236	52.7344	76.0954	52.7344	75.8674	52.7344	76.1574	52.7344	76.0575	52.7344	76.2469	52.7344	76.287	52.7344	76.3719	52.7344	76.5446	52.7344	76.536	52.7344	76.8152	52.7344	76.7357	52.7344	77.0817	52.7344	76.9601	52.7344	77.326	52.7344	77.1915	52.7344	77.5308	52.7344	77.4085	52.7344	77.6811	52.7344	77.5898	52.7344	77.7655	52.7344	77.717	52.7344	77.7777
54.1992	76.6438	54.1992	76.5761	54.1992	76.7095	54.1992	76.5127	54.1992	76.7687	54.1992	76.4612	54.1992	76.8189	54.1992	76.4303	54.1992	76.8602	54.1992	76.4288	54.1992	76.8947	54.1992	76.4646	54.1992	76.9274	54.1992	76.5438	54.1992	76.9654	54.1992	76.669	54.1992	77.0173	54.1992	76.8391	54.1992	77.0927	54.1992	77.0482	54.1992	77.1993	54.1992	77.2857	54.1992	77.3412	54.1992	77.5378	54.1992	77.5163	54.1992	77.7879	54.1992	77.7154	54.1992	78.0186	54.1992	77.9229	54.1992	78.2132	54.1992	78.1191	54.1992	78.357	54.1992	78.2839	54.1992	78.4391	54.1992	78.3995	54.1992	78.4533
55.6641	77.2835	55.6641	77.2226	55.6641	77.3463	55.6641	77.1695	55.6641	77.4068	55.6641	77.1311	55.6641	77.4625	55.6641	77.1151	55.6641	77.5133	55.6641	77.1291	55.6641	77.561	55.6641	77.1796	55.6641	77.6096	55.6641	77.2711	55.6641	77.6653	55.6641	77.4055	55.6641	77.7353	55.6641	77.5808	55.6641	77.8271	55.6641	77.7909	55.6641	77.9468	55.6641	78.026	55.6641	78.0969	55.6641	78.2732	55.6641	78.2748	55.6641	78.5172	55.6641	78.4715	55.6641	78.7419	55.6641	78.6727	55.6641	78.9317	55.6641	78.8604	55.6641	79.0728	55.6641	79.0162	55.6641	79.1549	55.6641	79.1239	55.6641	79.1721
58.5938	78.7659	58.5938	78.7136	58.5938	78.8212	58.5938	78.6684	58.5938	78.8764	58.5938	78.6356	58.5938	78.9295	58.5938	78.6205	58.5938	78.98	58.5938	78.6288	58.5938	79.0289	58.5938	78.6656	58.5938	79.0787	58.5938	78.7347	58.5938	79.1332	58.5938	78.8382	58.5938	79.1972	58.5938	78.9756	58.5938	79.276	58.5938	79.1433	58.5938	79.374	58.5938	79.3342	58.5938	79.4935	58.5938	79.5385	58.5938	79.6331	58.5938	79.7437	58.5938	79.787	58.5938	79.936	58.5938	79.9445	58.5938	80.1014	58.5938	80.0916	58.5938	80.2275	58.5938	80.213	58.5938	80.3046	58.5938	80.2949	58.5938	80.3272
60.0586	79.3124	60.0586	79.2618	60.0586	79.368	60.0586	79.2199	60.0586	79.4257	60.0586	79.1913	60.0586	79.4836	60.0586	79.1805	60.0586	79.5408	60.0586	79.1925	60.0586	79.5979	60.0586	79.2313	60.0586	79.6564	60.0586	79.3002	60.0586	79.7192	60.0586	79.4007	60.0586	79.7897	60.0586	79.5323	60.0586	79.872	60.0586	79.6915	60.0586	79.9694	60.0586	79.8722	60.0586	80.0836	60.0586	80.0654	60.0586	80.2135	60.0586	80.2598	60.0586	80.354	60.0586	80.4428	60.0586	80.4959	60.0586	80.6013	60.0586	80.6271	60.0586	80.7238	60.0586	80.7339	60.0586	80.801	60.0586	80.8039	60.0586	80.8279
62.9883	80.396	62.9883	80.3511	62.9883	80.4475	62.9883	80.3156	62.9883	80.5034	62.9883	80.2927	62.9883	80.5618	62.9883	80.2858	62.9883	80.6219	62.9883	80.298	62.9883	80.6834	62.9883	80.3325	62.9883	80.7467	62.9883	80.3915	62.9883	80.813	62.9883	80.4763	62.9883	80.8843	62.9883	80.5865	62.9883	80.9625	62.9883	80.7199	62.9883	81.0497	62.9883	80.872	62.9883	81.1469	62.9883	81.0358	62.9883	81.2534	62.9883	81.2024	62.9883	81.3655	62.9883	81.3611	62.9883	81.4767	62.9883	81.5011	62.9883	81.5776	62.9883	81.612	62.9883	81.6577	62.9883	81.6858	62.9883	81.7069	62.9883	81.7176
64.4531	80.7756	64.4531	80.7328	64.4531	80.8257	64.4531	80.7	64.4531	80.8813	64.4531	80.6796	64.4531	80.9406	64.4531	80.6744	64.4531	81.0027	64.4531	80.6873	64.4531	81.0668	64.4531	80.7205	64.4531	81.1331	64.4531	80.776	64.4531	81.202	64.4531	80.8549	64.4531	81.2746	64.4531	80.9569	64.4531	81.3521	64.4531	81.0801	64.4531	81.4359	64.4531	81.2206	64.4531	81.5266	64.4531	81.3724	64.4531	81.6236	64.4531	81.5274	64.4531	81.7238	64.4531	81.676	64.4531	81.8217	64.4531	81.8082	64.4531	81.9093	64.4531	81.9145	64.4531	81.9775	64.4531	81.9871	64.4531	82.0172	64.4531	82.0215
67.3828	81.2331	67.3828	81.1943	67.3828	81.2811	67.3828	81.1665	67.3828	81.3368	67.3828	81.1513	67.3828	81.3986	67.3828	81.1503	67.3828	81.4653	67.3828	81.1651	67.3828	81.5355	67.3828	81.197	67.3828	81.6082	67.3828	81.2472	67.3828	81.6826	67.3828	81.3164	67.3828	81.7582	67.3828	81.4042	67.3828	81.8349	67.3828	81.5094	67.3828	81.9128	67.3828	81.6291	67.3828	81.9919	67.3828	81.7589	67.3828	82.0716	67.3828	81.8925	67.3828	82.1501	67.3828	82.0223	67.3828	82.2237	67.3828	82.1399	67.3828	82.2868	67.3828	82.2372	67.3828	82.3326	67.3828	82.3076	67.3828	82.3544	67.3828	82.3469
68.8477	81.384	68.8477	81.3476	68.8477	81.4304	68.8477	81.3223	68.8477	81.4852	68.8477	81.3095	68.8477	81.5472	68.8477	81.3102	68.8477	81.6148	68.8477	81.3256	68.8477	81.6866	68.8477	81.3565	68.8477	81.7612	68.8477	81.4038	68.8477	81.8372	68.8477	81.4678	68.8477	81.9135	68.8477	81.5484	68.8477	81.9894	68.8477	81.6445	68.8477	82.0644	68.8477	81.7538	68.8477	82.1384	68.8477	81.8727	68.8477	82.2105	68.8477	81.9957	68.8477	82.2794	68.8477	82.1161	68.8477	82.3419	68.8477	82.2263	68.8477	82.3938	68.8477	82.3191	68.8477	82.4293	68.8477	82.3882	68.8477	82.4427	68.8477	82.4297
71.7773	81.8303	71.7773	81.797	71.7773	81.8744	71.7773	81.7749	71.7773	81.9281	71.7773	81.7648	71.7773	81.9903	71.7773	81.767	71.7773	82.0595	71.7773	81.7818	71.7773	82.1339	71.7773	81.8093	71.7773	82.2113	71.7773	81.8499	71.7773	82.2895	71.7773	81.9035	71.7773	82.3664	71.7773	81.9701	71.7773	82.44	71.7773	82.0489	71.7773	82.5089	71.7773	82.1386	71.7773	82.5721	71.7773	82.2366	71.7773	82.6287	71.7773	82.3392	71.7773	82.678	71.7773	82.4414	71.7773	82.7184	71.7773	82.5374	71.7773	82.7476	71.7773	82.6214	71.7773	82.7621	71.7773	82.6881	71.7773	82.7586	71.7773	82.7343
74.707	82.0753	74.707	82.045	74.707	82.117	74.707	82.0263	74.707	82.1694	74.707	82.0192	74.707	82.2314	74.707	82.023	74.707	82.3013	74.707	82.0375	74.707	82.3767	74.707	82.062	74.707	82.455	74.707	82.0961	74.707	82.5331	74.707	82.1396	74.707	82.6079	74.707	82.1923	74.707	82.6766	74.707	82.2539	74.707	82.7371	74.707	82.3238	74.707	82.7879	74.707	82.4008	74.707	82.8285	74.707	82.4825	74.707	82.8587	74.707	82.5658	74.707	82.8784	74.707	82.6465	74.707	82.8869	74.707	82.7203	74.707	82.8829	74.707	82.783	74.707	82.8649	74.707	82.8317
77.6367	82.0225	77.6367	81.9943	77.6367	82.0629	77.6367	81.978	77.6367	82.1151	77.6367	81.973	77.6367	82.178	77.6367	81.9785	77.6367	82.2497	77.6367	81.9932	77.6367	82.3279	77.6367	82.0161	77.6367	82.4092	77.6367	82.0463	77.6367	82.49	77.6367	82.0834	77.6367	82.5664	77.6367	82.1269	77.6367	82.6349	77.6367	82.1769	77.6367	82.6924	77.6367	82.2332	77.6367	82.7369	77.6367	82.2955	77.6367	82.7678	77.6367	82.3628	77.6367	82.7849	77.6367	82.4332	77.6367	82.7891	77.6367	82.504	77.6367	82.7811	77.6367	82.572	77.6367	82.7613	77.6367	82.6339	77.6367	82.7299	77.6367	82.6872
79.1016	82.0888	79.1016	82.0651	79.1016	82.126	79.1016	82.054	79.1016	82.1766	79.1016	82.0542	79.1016	82.2396	79.1016	82.0639	79.1016	82.313	79.1016	82.0812	79.1016	82.3937	79.1016	82.1046	79.1016	82.4779	79.1016	82.1329	79.1016	82.5613	79.1016	82.1654	79.1016	82.6395	79.1016	82.202	79.1016	82.7083	79.1016	82.243	79.1016	82.7642	79.1016	82.2889	79.1016	82.8051	79.1016	82.34	79.1016	82.8299	79.1016	82.3963	79.1016	82.8389	79.1016	82.4569	79.1016	82.8336	79.1016	82.5199	79.1016	82.8153	79.1016	82.583	79.1016	82.7859	79.1016	82.6433	79.1016	82.7466	79.1016	82.6985
82.0312	82.3659	82.0312	82.3418	82.0312	82.4026	82.0312	82.3291	82.0312	82.452	82.0312	82.3262	82.0312	82.5131	82.0312	82.331	82.0312	82.5838	82.0312	82.3413	82.0312	82.6609	82.0312	82.3553	82.0312	82.7402	82.0312	82.3715	82.0312	82.8171	82.0312	82.3892	82.0312	82.8866	82.0312	82.4084	82.0312	82.9441	82.0312	82.4298	82.0312	82.986	82.0312	82.4547	82.0312	83.0098	82.0312	82.4842	82.0312	83.0151	82.0312	82.5196	82.0312	83.0028	82.0312	82.5614	82.0312	82.9753	82.0312	82.6094	82.0312	82.9358	82.0312	82.6625	82.0312	82.8876	82.0312	82.7189	82.0312	82.8337	82.0312	82.7767
84.9609	82.2197	84.9609	82.1977	84.9609	82.2548	84.9609	82.1876	84.9609	82.3034	84.9609	82.1878	84.9609	82.3649	84.9609	82.1962	84.9609	82.4376	84.9609	82.2107	84.9609	82.5185	84.9609	82.2296	84.9609	82.6039	84.9609	82.2516	84.9609	82.6891	84.9609	82.2758	84.9609	82.769	84.9609	82.3022	84.9609	82.8386	84.9609	82.3312	84.9609	82.8936	84.9609	82.3638	84.9609	82.9307	84.9609	82.4012	84.9609	82.9484	84.9609	82.4444	84.9609	82.9467	84.9609	82.4936	84.9609	82.9274	84.9609	82.5487	84.9609	82.8931	84.9609	82.6082	84.9609	82.8471	84.9609	82.6704	84.9609	82.7926	84.9609	82.7328
87.8906	82.0752	87.8906	82.0608	87.8906	82.1124	87.8906	82.0677	87.8906	82.1727	87.8906	82.0931	87.8906	82.2548	87.8906	82.1333	87.8906	82.3557	87.8906	82.1846	87.8906	82.471	87.8906	82.2428	87.8906	82.5951	87.8906	82.3043	87.8906	82.7212	87.8906	82.3662	87.8906	82.8423	87.8906	82.4265	87.8906	82.9513	87.8906	82.4844	87.8906	83.042	87.8906	82.54	87.8906	83.1097	87.8906	82.5944	87.8906	83.1516	87.8906	82.6492	87.8906	83.1674	87.8906	82.7059	87.8906	83.1587	87.8906	82.7657	87.8906	83.129	87.8906	82.829	87.8906	83.0829	87.8906	82.8949	87.8906	83.0254	87.8906	82.9614
90.8203	82.3961	90.8203	82.3885	90.8203	82.422	90.8203	82.3967	90.8203	82.467	90.8203	82.4174	90.8203	82.5306	90.8203	82.4465	90.8203	82.6108	90.8203	82.4798	90.8203	82.7037	90.8203	82.5132	90.8203	82.8041	90.8203	82.5436	90.8203	82.9056	90.8203	82.5686	90.8203	83.0012	90.8203	82.5875	90.8203	83.0837	90.8203	82.6006	90.8203	83.1466	90.8203	82.6102	90.8203	83.185	90.8203	82.6192	90.8203	83.1961	90.8203	82.6316	90.8203	83.18	90.8203	82.6515	90.8203	83.1392	90.8203	82.6822	90.8203	83.0789	90.8203	82.726	90.8203	83.0061	90.8203	82.7831	90.8203	82.928	90.8203	82.8517
95.2148	82.505	95.2148	82.4984	95.2148	82.5273	95.2148	82.5046	95.2148	82.5669	95.2148	82.5201	95.2148	82.6241	95.2148	82.541	95.2148	82.6975	95.2148	82.5632	95.2148	82.7838	95.2148	82.5831	95.2148	82.878	95.2148	82.598	95.2148	82.9737	95.2148	82.6059	95.2148	83.0634	95.2148	82.6064	95.2148	83.1391	95.2148	82.6005	95.2148	83.1936	95.2148	82.5907	95.2148	83.2212	95.2148	82.581	95.2148	83.2187	95.2148	82.5762	95.2148	83.1861	95.2148	82.5814	95.2148	83.1266	95.2148	82.6014	95.2148	83.0467	95.2148	82.6395	95.2148	82.9548	95.2148	82.6969	95.2148	82.8603	95.2148	82.7719
98.1445	82.5696	98.1445	82.5659	98.1445	82.5904	98.1445	82.5761	98.1445	82.6302	98.1445	82.5959	98.1445	82.6891	98.1445	82.6206	98.1445	82.7653	98.1445	82.6456	98.1445	82.8549	98.1445	82.6666	98.1445	82.952	98.1445	82.6801	98.1445	83.0492	98.1445	82.6838	98.1445	83.138	98.1445	82.6769	98.1445	83.21	98.1445	82.6606	98.1445	83.2577	98.1445	82.6376	98.1445	83.2752	98.1445	82.6124	98.1445	83.2599	98.1445	82.5909	98.1445	83.2123	98.1445	82.5798	98.1445	83.137	98.1445	82.5853	98.1445	83.0415	98.1445	82.6124	98.1445	82.9361	98.1445	82.6637	98.1445	82.8316	98.1445	82.7382
101.074	82.7891	101.074	82.778	101.074	82.8135	101.074	82.7773	101.074	82.8524	101.074	82.7835	101.074	82.9055	101.074	82.7923	101.074	82.9706	101.074	82.7993	101.074	83.0439	101.074	82.8007	101.074	83.1198	101.074	82.7932	101.074	83.1917	101.074	82.775	101.074	83.2524	101.074	82.7456	101.074	83.2945	101.074	82.7064	101.074	83.3117	101.074	82.6605	101.074	83.2995	101.074	82.6129	101.074	83.2561	101.074	82.57	101.074	83.1831	101.074	82.539	101.074	83.086	101.074	82.5271	101.074	82.9732	101.074	82.5399	101.074	82.8556	101.074	82.5812	101.074	82.7447	101.074	82.6507
105.469	82.7657	105.469	82.7611	105.469	82.7862	105.469	82.7699	105.469	82.8234	105.469	82.7888	105.469	82.8773	105.469	82.8138	105.469	82.9459	105.469	82.8404	105.469	83.0258	105.469	82.8643	105.469	83.1121	105.469	82.8816	105.469	83.1984	105.469	82.8895	105.469	83.2773	105.469	82.8862	105.469	83.341	105.469	82.872	105.469	83.3825	105.469	82.8489	105.469	83.3962	105.469	82.8209	105.469	83.3791	105.469	82.7937	105.469	83.3318	105.469	82.774	105.469	83.2585	105.469	82.7688	105.469	83.167	105.469	82.784	105.469	83.0673	105.469	82.8233	105.469	82.9706	105.469	82.8867
108.398	82.8617	108.398	82.8557	108.398	82.8832	108.398	82.8626	108.398	82.9215	108.398	82.8788	108.398	82.9762	108.398	82.8999	108.398	83.0455	108.398	82.9211	108.398	83.1258	108.398	82.9377	108.398	83.2116	108.398	82.9455	108.398	83.2959	108.398	82.9415	108.398	83.371	108.398	82.9241	108.398	83.4285	108.398	82.8938	108.398	83.4609	108.398	82.8532	108.398	83.4625	108.398	82.8072	108.398	83.4305	108.398	82.7629	108.398	83.3657	108.398	82.7285	108.398	83.273	108.398	82.7125	108.398	83.1614	108.398	82.7223	108.398	83.0425	108.398	82.7623	108.398	82.929	108.398	82.8326
112.793	83.0544	112.793	83.0545	112.793	83.0715	112.793	83.0684	112.793	83.1078	112.793	83.0915	112.793	83.1633	112.793	83.1184	112.793	83.2359	112.793	83.1434	112.793	83.3215	112.793	83.1613	112.793	83.4141	112.793	83.1674	112.793	83.5057	112.793	83.1586	112.793	83.5875	112.793	83.1337	112.793	83.6501	112.793	83.0934	112.793	83.6853	112.793	83.0413	112.793	83.6866	112.793	82.9832	112.793	83.6507	112.793	82.9274	112.793	83.5785	112.793	82.8832	112.793	83.4754	112.793	82.8607	112.793	83.3513	112.793	82.8679	112.793	83.219	112.793	82.9097	112.793	83.093	112.793	82.9865
117.188	83.2294	117.188	83.2212	117.188	83.2525	117.188	83.2249	117.188	83.292	117.188	83.2366	117.188	83.3477	117.188	83.2514	117.188	83.4178	117.188	83.2641	117.188	83.4986	117.188	83.27	117.188	83.5844	117.188	83.2646	117.188	83.668	117.188	83.2453	117.188	83.7412	117.188	83.2109	117.188	83.7951	117.188	83.1625	117.188	83.8215	117.188	83.1036	117.188	83.8139	117.188	83.0403	117.188	83.7691	117.188	82.9809	117.188	83.6879	117.188	82.9351	117.188	83.5755	117.188	82.9128	117.188	83.4419	117.188	82.9223	117.188	83.3004	117.188	82.9685	117.188	83.1656	117.188	83.0515
120.117	83.2314	120.117	83.2262	120.117	83.2496	120.117	83.231	120.117	83.2826	120.117	83.2423	120.117	83.3309	120.117	83.2557	120.117	83.3937	120.117	83.2667	120.117	83.4685	120.117	83.2708	120.117	83.5508	120.117	83.2644	120.117	83.6341	120.117	83.2447	120.117	83.7106	120.117	83.2108	120.117	83.7712	120.117	83.1638	120.117	83.8069	120.117	83.1071	120.117	83.8103	120.117	83.0467	120.117	83.7769	120.117	82.9909	120.117	83.7061	120.117	82.9492	120.117	83.6022	120.117	82.9315	120.117	83.4744	120.117	82.9459	120.117	83.3355	120.117	82.9968	120.117	83.2005	120.117	83.0839
124.512	83.3356	124.512	83.3291	124.512	83.3572	124.512	83.3353	124.512	83.3953	124.512	83.3508	124.512	83.4502	124.512	83.3715	124.512	83.5208	124.512	83.3924	124.512	83.6043	124.512	83.4088	124.512	83.6963	124.512	83.4159	124.512	83.7898	124.512	83.4101	124.512	83.8765	124.512	83.3895	124.512	83.9468	124.512	83.3542	124.512	83.9915	124.512	83.3072	124.512	84.0026	124.512	83.254	124.512	83.9754	124.512	83.2028	124.512	83.9095	124.512	83.1637	124.512	83.8091	124.512	83.1468	124.512	83.6836	124.512	83.1609	124.512	83.5464	124.512	83.2111	124.512	83.4127	124.512	83.2971
128.906	83.6458	128.906	83.6334	128.906	83.6701	128.906	83.631	128.906	83.7072	128.906	83.6354	128.906	83.7568	128.906	83.6422	128.906	83.8171	128.906	83.6466	128.906	83.8853	128.906	83.6432	128.906	83.9568	128.906	83.6275	128.906	84.0254	128.906	83.5959	128.906	84.0837	128.906	83.5465	128.906	84.1231	128.906	83.4803	128.906	84.1353	128.906	83.4008	128.906	84.1134	128.906	83.315	128.906	84.0536	128.906	83.2324	128.906	83.9561	128.906	83.1648	128.906	83.8266	128.906	83.1242	128.906	83.6754	128.906	83.1211	128.906	83.5174	128.906	83.1617	128.906	83.3691	128.906	83.2464
133.301	83.7236	133.301	83.7112	133.301	83.7461	133.301	83.7068	133.301	83.78	133.301	83.7073	133.301	83.8256	133.301	83.7085	133.301	83.882	133.301	83.7059	133.301	83.9468	133.301	83.6948	133.301	84.0161	133.301	83.6709	133.301	84.0837	133.301	83.6311	133.301	84.142	133.301	83.574	133.301	84.182	133.301	83.5007	133.301	84.1945	133.301	83.4151	133.301	84.172	133.301	83.3242	133.301	84.1101	133.301	83.2379	133.301	84.0087	133.301	83.1682	133.301	83.8732	133.301	83.1273	133.301	83.7147	133.301	83.126	133.301	83.5483	133.301	83.1707	133.301	83.3917	133.301	83.2615
139.16	83.7419	139.16	83.7309	139.16	83.7665	139.16	83.7312	139.16	83.806	139.16	83.7396	139.16	83.8607	139.16	83.7518	139.16	83.9297	139.16	83.7629	139.16	84.0105	139.16	83.7678	139.16	84.0988	139.16	83.7615	139.16	84.188	139.16	83.7404	139.16	84.2694	139.16	83.7022	139.16	84.333	139.16	83.6476	139.16	84.3684	139.16	83.58	139.16	84.3671	139.16	83.506	139.16	84.3236	139.16	83.4354	139.16	84.2373	139.16	83.3799	139.16	84.1133	139.16	83.3516	139.16	83.9624	139.16	83.3609	139.16	83.8	139.16	83.414	139.16	83.6437	139.16	83.5106
143.555	83.9098	143.555	83.8951	143.555	83.9357	143.555	83.8898	143.555	83.9737	143.555	83.8909	143.555	84.0238	143.555	83.8944	143.555	84.0849	143.555	83.8955	143.555	84.1551	143.555	83.8892	143.555	84.2306	143.555	83.8706	143.555	84.3057	143.555	83.836	143.555	84.3729	143.555	83.784	143.555	84.4229	143.555	83.7154	143.555	84.4463	143.555	83.6343	143.555	84.4345	143.555	83.5483	143.555	84.3822	143.555	83.4677	143.555	84.2883	143.555	83.4048	143.555	84.1576	143.555	83.3721	143.555	84.0006	143.555	83.3799	143.555	83.8325	143.555	83.434	143.555	83.671	143.555	83.5336
147.949	84.0742	147.949	84.0563	147.949	84.0995	147.949	84.0441	147.949	84.1331	147.949	84.0352	147.949	84.1752	147.949	84.026	147.949	84.2254	147.949	84.0123	147.949	84.2825	147.949	83.9894	147.949	84.3436	147.949	83.9533	147.949	84.404	147.949	83.9009	147.949	84.457	147.949	83.8312	147.949	84.4938	147.949	83.7458	147.949	84.505	147.949	83.6496	147.949	84.4822	147.949	83.5504	147.949	84.4195	147.949	83.4594	147.949	84.3158	147.949	83.389	147.949	84.1756	147.949	83.3521	147.949	84.0093	147.949	83.3589	147.949	83.8324	147.949	83.415	147.949	83.6631	147.949	83.5191
153.809	84.2106	153.809	84.1921	153.809	84.2341	153.809	84.1771	153.809	84.2629	153.809	84.1637	153.809	84.2973	153.809	84.1484	153.809	84.337	153.809	84.1273	153.809	84.3811	153.809	84.0958	153.809	84.4277	153.809	84.0498	153.809	84.473	153.809	83.9865	153.809	84.5111	153.809	83.9048	153.809	84.5342	153.809	83.8067	153.809	84.5334	153.809	83.6974	153.809	84.5005	153.809	83.5855	153.809	84.4297	153.809	83.4826	153.809	84.3198	153.809	83.4019	153.809	84.175	153.809	83.3567	153.809	84.0055	153.809	83.3576	153.809	83.8264	153.809	83.4099	153.809	83.656	153.809	83.5122
159.668	84.2529	159.668	84.2271	159.668	84.2813	159.668	84.2027	159.668	84.3135	159.668	84.1779	159.668	84.3506	159.668	84.1504	159.668	84.3937	159.668	84.1167	159.668	84.443	159.668	84.0733	159.668	84.4971	159.668	84.0167	159.668	84.5521	159.668	83.9445	159.668	84.6013	159.668	83.8561	159.668	84.6352	159.668	83.7537	159.668	84.6433	159.668	83.6429	159.668	84.6156	159.668	83.5326	159.668	84.5454	159.668	83.4346	159.668	84.4306	159.668	83.3624	159.668	84.2756	159.668	83.3294	159.668	84.0914	159.668	83.3458	159.668	83.8943	159.668	83.4165	159.668	83.7036	159.668	83.539
165.527	84.4449	165.527	84.4215	165.527	84.4696	165.527	84.3986	165.527	84.4962	165.527	84.3746	165.527	84.5257	165.527	84.3474	165.527	84.559	165.527	84.3139	165.527	84.5969	165.527	84.2702	165.527	84.639	165.527	84.213	165.527	84.6824	165.527	84.1396	165.527	84.7218	165.527	84.0493	165.527	84.7486	165.527	83.9445	165.527	84.7528	165.527	83.8306	165.527	84.7248	165.527	83.7167	165.527	84.6573	165.527	83.6149	165.527	84.5478	165.527	83.5389	165.527	84.4001	165.527	83.5019	165.527	84.2243	165.527	83.514	165.527	84.0358	165.527	83.5796	165.527	83.8534	165.527	83.6961
171.387	84.4583	171.387	84.428	171.387	84.4894	171.387	84.3987	171.387	84.5213	171.387	84.3697	171.387	84.5546	171.387	84.3395	171.387	84.5898	171.387	84.3052	171.387	84.6277	171.387	84.263	171.387	84.6678	171.387	84.2088	171.387	84.7073	171.387	84.1392	171.387	84.7408	171.387	84.0526	171.387	84.76	171.387	83.9502	171.387	84.755	171.387	83.8369	171.387	84.7166	171.387	83.7213	171.387	84.6383	171.387	83.6154	171.387	84.5187	171.387	83.5333	171.387	84.3626	171.387	83.4885	171.387	84.1812	171.387	83.492	171.387	83.9907	171.387	83.549	171.387	83.8102	171.387	83.658
177.246	84.3952	177.246	84.3692	177.246	84.4272	177.246	84.3489	177.246	84.4655	177.246	84.3329	177.246	84.5101	177.246	84.3184	177.246	84.561	177.246	84.3011	177.246	84.6177	177.246	84.276	177.246	84.6783	177.246	84.2375	177.246	84.7385	177.246	84.1811	177.246	84.7912	177.246	84.1045	177.246	84.8266	177.246	84.0083	177.246	84.8335	177.246	83.8975	177.246	84.8017	177.246	83.7811	177.246	84.7247	177.246	83.6717	177.246	84.6012	177.246	83.5844	177.246	84.4373	177.246	83.534	177.246	84.2458	177.246	83.5329	177.246	84.045	177.246	83.5879	177.246	83.8559	177.246	83.6984
183.105	84.4599	183.105	84.4197	183.105	84.5007	183.105	84.3808	183.105	84.5409	183.105	84.3432	183.105	84.5802	183.105	84.3056	183.105	84.6187	183.105	84.2649	183.105	84.6574	183.105	84.2175	183.105	84.6971	183.105	84.1593	183.105	84.7369	183.105	84.0871	183.105	84.7731	183.105	84	183.105	84.7987	183.105	83.9001	183.105	84.8041	183.105	83.793	183.105	84.7789	183.105	83.6883	183.105	84.7148	183.105	83.5982	183.105	84.6084	183.105	83.536	183.105	84.4625	183.105	83.5139	183.105	84.2866	183.105	83.5404	183.105	84.096	183.105	83.6186	183.105	83.9093	183.105	83.745
188.965	84.4479	188.965	84.4084	188.965	84.4837	188.965	84.3675	188.965	84.5141	188.965	84.3269	188.965	84.5392	188.965	84.2868	188.965	84.5609	188.965	84.2457	188.965	84.5828	188.965	84.2008	188.965	84.6087	188.965	84.1482	188.965	84.6403	188.965	84.0847	188.965	84.6754	188.965	84.0086	188.965	84.7069	188.965	83.9213	188.965	84.724	188.965	83.8274	188.965	84.7146	188.965	83.735	188.965	84.6687	188.965	83.6553	188.965	84.5812	188.965	83.6004	188.965	84.4538	188.965	83.5817	188.965	84.2957	188.965	83.6073	188.965	84.1216	188.965	83.6804	188.965	83.9497	188.965	83.7977
196.289	84.7605	196.289	84.7288	196.289	84.7844	196.289	84.6908	196.289	84.7991	196.289	84.6473	196.289	84.8049	196.289	84.5978	196.289	84.8035	196.289	84.5401	196.289	84.7982	196.289	84.4709	196.289	84.7928	196.289	84.3873	196.289	84.7898	196.289	84.2873	196.289	84.7889	196.289	84.172	196.289	84.7862	196.289	84.0461	196.289	84.774	196.289	83.9183	196.289	84.7431	196.289	83.8002	196.289	84.6849	196.289	83.705	196.289	84.5946	196.289	83.6448	196.289	84.4727	196.289	83.6287	196.289	84.3254	196.289	83.6603	196.289	84.1638	196.289	83.7383	196.289	84.0024	196.289	83.8559
203.613	84.6978	203.613	84.6684	203.613	84.7155	203.613	84.6297	203.613	84.7198	203.613	84.5838	203.613	84.711	203.613	84.5309	203.613	84.6917	203.613	84.4694	203.613	84.6668	203.613	84.3961	203.613	84.6416	203.613	84.3071	203.613	84.6199	203.613	84.1993	203.613	84.6016	203.613	84.0721	203.613	84.582	203.613	83.9289	203.613	84.5523	203.613	83.7774	203.613	84.5022	203.613	83.6296	203.613	84.4231	203.613	83.5006	203.613	84.3111	203.613	83.4055	203.613	84.1688	203.613	83.3565	203.613	84.0046	203.613	83.3607	203.613	83.8319	203.613	83.4184	203.613	83.6664	203.613	83.5239
210.938	84.568	210.938	84.533	210.938	84.5912	210.938	84.4893	210.938	84.6005	210.938	84.4396	210.938	84.5958	210.938	84.3852	210.938	84.5793	210.938	84.3254	210.938	84.5554	210.938	84.2579	210.938	84.5294	210.938	84.1791	210.938	84.5058	210.938	84.0861	210.938	84.4858	210.938	83.9776	210.938	84.4662	210.938	83.8559	210.938	84.4393	210.938	83.7274	210.938	84.3954	210.938	83.602	210.938	84.3256	210.938	83.4925	210.938	84.2257	210.938	83.4117	210.938	84.0974	210.938	83.3703	210.938	83.949	210.938	83.3745	210.938	83.7932	210.938	83.4252	210.938	83.6448	210.938	83.5181
218.262	84.5548	218.262	84.5141	218.262	84.5846	218.262	84.4659	218.262	84.6009	218.262	84.413	218.262	84.6033	218.262	84.3567	218.262	84.5938	218.262	84.2961	218.262	84.5767	218.262	84.2285	218.262	84.557	218.262	84.1502	218.262	84.5385	218.262	84.0585	218.262	84.5215	218.262	83.9528	218.262	84.502	218.262	83.8362	218.262	84.4721	218.262	83.7159	218.262	84.423	218.262	83.6022	218.262	84.3476	218.262	83.5074	218.262	84.2441	218.262	83.4424	218.262	84.1162	218.262	83.4152	218.262	83.9731	218.262	83.4289	218.262	83.8267	218.262	83.4825	218.262	83.6892	218.262	83.5715
225.586	84.5143	225.586	84.47	225.586	84.5404	225.586	84.4116	225.586	84.5457	225.586	84.3431	225.586	84.5305	225.586	84.2672	225.586	84.4985	225.586	84.1848	225.586	84.4565	225.586	84.0949	225.586	84.4135	225.586	83.9956	225.586	84.3769	225.586	83.8855	225.586	84.3501	225.586	83.7655	225.586	84.3302	225.586	83.6397	225.586	84.3079	225.586	83.516	225.586	84.2711	225.586	83.4052	225.586	84.2092	225.586	83.3189	225.586	84.1172	225.586	83.267	225.586	83.9973	225.586	83.2551	225.586	83.8583	225.586	83.2841	225.586	83.7125	225.586	83.3506	225.586	83.5726	225.586	83.4491
232.91	84.5518	232.91	84.4998	232.91	84.5808	232.91	84.4303	232.91	84.5821	232.91	84.3489	232.91	84.554	232.91	84.2589	232.91	84.4985	232.91	84.1613	232.91	84.4216	232.91	84.0545	232.91	84.3328	232.91	83.936	232.91	84.2427	232.91	83.8039	232.91	84.16	232.91	83.6589	232.91	84.0883	232.91	83.506	232.91	84.0247	232.91	83.3553	232.91	83.9613	232.91	83.2199	232.91	83.8884	232.91	83.114	232.91	83.7992	232.91	83.0487	232.91	83.6921	232.91	83.0292	232.91	83.5712	232.91	83.054	232.91	83.4443	232.91	83.1166	232.91	83.3204	232.91	83.2084
241.699	84.4618	241.699	84.3842	241.699	84.52	241.699	84.2951	241.699	84.5522	241.699	84.2013	241.699	84.5545	241.699	84.1074	241.699	84.5266	241.699	84.0139	241.699	84.472	241.699	83.9181	241.699	84.397	241.699	83.8144	241.699	84.3089	241.699	83.697	241.699	84.2132	241.699	83.5626	241.699	84.1118	241.699	83.4121	241.699	84.0026	241.699	83.2528	241.699	83.8815	241.699	83.0973	241.699	83.745	241.699	82.9616	241.699	83.5942	241.699	82.8605	241.699	83.4349	241.699	82.8039	241.699	83.2766	241.699	82.7945	241.699	83.1295	241.699	82.8285	241.699	83.0019	241.699	82.8997
250.488	84.4068	250.488	84.2945	250.488	84.4873	250.488	84.159	250.488	84.53	250.488	84.0091	250.488	84.5329	250.488	83.853	250.488	84.4985	250.488	83.6961	250.488	84.4339	250.488	83.5408	250.488	84.3495	250.488	83.3872	250.488	84.2554	250.488	83.2342	250.488	84.1584	250.488	83.081	250.488	84.059	250.488	82.9295	250.488	83.951	250.488	82.7844	250.488	83.8248	250.488	82.654	250.488	83.6725	250.488	82.5482	250.488	83.4929	250.488	82.4761	250.488	83.2934	250.488	82.4439	250.488	83.0889	250.488	82.4541	250.488	82.8964	250.488	82.5062	250.488	82.7302	250.488	82.5988
259.277	84.4774	259.277	84.3652	259.277	84.5585	259.277	84.2294	259.277	84.6028	259.277	84.0771	259.277	84.6072	259.277	83.9139	259.277	84.5727	259.277	83.7436	259.277	84.5048	259.277	83.5679	259.277	84.4125	259.277	83.3878	259.277	84.3068	259.277	83.2048	259.277	84.1966	259.277	83.0224	259.277	84.0863	259.277	82.8472	259.277	83.973	259.277	82.6885	259.277	83.8491	259.277	82.557	259.277	83.7058	259.277	82.4626	259.277	83.5388	259.277	82.4121	259.277	83.3513	259.277	82.4076	259.277	83.1543	259.277	82.447	259.277	82.9621	259.277	82.5261	259.277	82.788	259.277	82.641
268.066	84.3511	268.066	84.2168	268.066	84.4459	268.066	84.0528	268.066	84.4941	268.066	83.8699	268.066	84.4926	268.066	83.6773	268.066	84.4437	268.066	83.4816	268.066	84.3549	268.066	83.286	268.066	84.2383	268.066	83.0917	268.066	84.1082	268.066	82.8996	268.066	83.9777	268.066	82.7133	268.066	83.8547	268.066	82.5401	268.066	83.7394	268.066	82.3908	268.066	83.6247	268.066	82.2771	268.066	83.5002	268.066	82.2081	268.066	83.3572	268.066	82.1872	268.066	83.1936	268.066	82.2124	268.066	83.0152	268.066	82.2777	268.066	82.8331	268.066	82.3771	268.066	82.66	268.066	82.506
276.855	84.2018	276.855	84.0703	276.855	84.2967	276.855	83.9119	276.855	84.3471	276.855	83.7366	276.855	84.3495	276.855	83.5522	276.855	84.305	276.855	83.363	276.855	84.2199	276.855	83.1692	276.855	84.1048	276.855	82.9688	276.855	83.9721	276.855	82.7599	276.855	83.8327	276.855	82.5445	276.855	83.6935	276.855	82.3314	276.855	83.5561	276.855	82.1367	276.855	83.4179	276.855	81.9815	276.855	83.275	276.855	81.886	276.855	83.1249	276.855	81.8617	276.855	82.9677	276.855	81.9071	276.855	82.8052	276.855	82.0089	276.855	82.6395	276.855	82.148	276.855	82.4725	276.855	82.3066
287.109	84.2491	287.109	84.1498	287.109	84.3002	287.109	84.0125	287.109	84.2964	287.109	83.8475	287.109	84.2368	287.109	83.6625	287.109	84.1284	287.109	83.4615	287.109	83.9856	287.109	83.2454	287.109	83.8284	287.109	83.0145	287.109	83.6772	287.109	82.7724	287.109	83.5468	287.109	82.5286	287.109	83.4414	287.109	82.2999	287.109	83.3532	287.109	82.1077	287.109	83.2673	287.109	81.9725	287.109	83.1686	287.109	81.9067	287.109	83.0492	287.109	81.9098	287.109	82.9102	287.109	81.9694	287.109	82.7599	287.109	82.0678	287.109	82.6078	287.109	82.1883	287.109	82.4607	287.109	82.3206
297.363	84.279	297.363	84.0903	297.363	84.4076	297.363	83.8551	297.363	84.467	297.363	83.5903	297.363	84.453	297.363	83.3147	297.363	84.3661	297.363	83.0456	297.363	84.2117	297.363	82.7957	297.363	84.0006	297.363	82.5708	297.363	83.7488	297.363	82.3697	297.363	83.4786	297.363	82.1878	297.363	83.2166	297.363	82.0225	297.363	82.9887	297.363	81.8779	297.363	82.8126	297.363	81.767	297.363	82.6909	297.363	81.7072	297.363	82.6114	297.363	81.7117	297.363	82.5533	297.363	81.7812	297.363	82.495	297.363	81.9008	297.363	82.42	297.363	82.0459	297.363	82.319	297.363	82.1915
307.617	84.0384	307.617	83.8855	307.617	84.1548	307.617	83.7023	307.617	84.2294	307.617	83.4942	307.617	84.2593	307.617	83.2645	307.617	84.2443	307.617	83.0154	307.617	84.1864	307.617	82.7489	307.617	84.0887	307.617	82.4702	307.617	83.9533	307.617	82.19	307.617	83.7813	307.617	81.9251	307.617	83.5724	307.617	81.6963	307.617	83.3283	307.617	81.524	307.617	83.0559	307.617	81.4215	307.617	82.7706	307.617	81.3901	307.617	82.4958	307.617	81.4188	307.617	82.2568	307.617	81.4882	307.617	82.0697	307.617	81.5767	307.617	81.9344	307.617	81.6671	307.617	81.8355	307.617	81.7518
319.336	83.895	319.336	83.8091	319.336	83.934	319.336	83.6803	319.336	83.9263	319.336	83.5152	319.336	83.8764	319.336	83.3204	319.336	83.7913	319.336	83.1008	319.336	83.6791	319.336	82.8578	319.336	83.5462	319.336	82.592	319.336	83.3962	319.336	82.3061	319.336	83.2298	319.336	82.0102	319.336	83.0465	319.336	81.7251	319.336	82.8472	319.336	81.4801	319.336	82.6366	319.336	81.305	319.336	82.4241	319.336	81.2176	319.336	82.2226	319.336	81.2151	319.336	82.0441	319.336	81.2761	319.336	81.8952	319.336	81.3711	319.336	81.7744	319.336	81.4753	319.336	81.6722	319.336	81.5756
329.59	83.9061	329.59	83.7826	329.59	83.976	329.59	83.6145	329.59	83.9878	329.59	83.4128	329.59	83.9432	329.59	83.1874	329.59	83.8505	329.59	82.9447	329.59	83.7234	329.59	82.6864	329.59	83.5772	329.59	82.4101	329.59	83.4223	329.59	82.1136	329.59	83.2597	329.59	81.8012	329.59	83.0803	329.59	81.4903	329.59	82.8716	329.59	81.2134	329.59	82.6283	329.59	81.0118	329.59	82.3605	329.59	80.9183	329.59	82.0949	329.59	80.9376	329.59	81.8654	329.59	81.0416	329.59	81.6954	329.59	81.1833	329.59	81.5838	329.59	81.319	329.59	81.5052	329.59	81.4253
341.309	83.7417	341.309	83.5932	341.309	83.8233	341.309	83.3914	341.309	83.8304	341.309	83.1526	341.309	83.7646	341.309	82.8925	341.309	83.6379	341.309	82.6236	341.309	83.4727	341.309	82.3527	341.309	83.2965	341.309	82.0817	341.309	83.1341	341.309	81.8099	341.309	82.9968	341.309	81.5388	341.309	82.8777	341.309	81.277	341.309	82.755	341.309	81.0444	341.309	82.6046	341.309	80.8693	341.309	82.4134	341.309	80.7785	341.309	82.1886	341.309	80.7834	341.309	81.9555	341.309	80.8705	341.309	81.744	341.309	81.0069	341.309	81.5706	341.309	81.1565	341.309	81.4289	341.309	81.2971
353.027	83.7884	353.027	83.6349	353.027	83.8684	353.027	83.4186	353.027	83.8686	353.027	83.1515	353.027	83.79	353.027	82.8434	353.027	83.6422	353.027	82.5008	353.027	83.4432	353.027	82.1274	353.027	83.2164	353.027	81.7271	353.027	82.9853	353.027	81.3083	353.027	82.7665	353.027	80.8894	353.027	82.5641	353.027	80.5014	353.027	82.3696	353.027	80.1862	353.027	82.1681	353.027	79.9857	353.027	81.9482	353.027	79.9236	353.027	81.7107	353.027	79.991	353.027	81.4701	353.027	80.1495	353.027	81.247	353.027	80.3483	353.027	81.0541	353.027	80.546	353.027	80.8863	353.027	80.7237
366.211	83.6343	366.211	83.4632	366.211	83.727	366.211	83.2274	366.211	83.7332	366.211	82.9432	366.211	83.6512	366.211	82.6271	366.211	83.4875	366.211	82.2922	366.211	83.2567	366.211	81.9464	366.211	82.9818	366.211	81.593	366.211	82.6916	366.211	81.2325	366.211	82.4141	366.211	80.868	366.211	82.1666	366.211	80.5109	366.211	81.9502	366.211	80.1847	366.211	81.7519	366.211	79.9228	366.211	81.5547	366.211	79.7587	366.211	81.3481	366.211	79.7105	366.211	81.1319	366.211	79.7707	366.211	80.9137	366.211	79.9102	366.211	80.7006	366.211	80.093	366.211	80.4943	366.211	80.2917
379.395	83.7482	379.395	83.6073	379.395	83.8282	379.395	83.4168	379.395	83.8369	379.395	83.186	379.395	83.7678	379.395	82.9197	379.395	83.6208	379.395	82.6172	379.395	83.4032	379.395	82.2741	379.395	83.1305	379.395	81.8872	379.395	82.824	379.395	81.46	379.395	82.5066	379.395	81.0097	379.395	82.198	379.395	80.5705	379.395	81.9111	379.395	80.193	379.395	81.6531	379.395	79.9323	379.395	81.4285	379.395	79.8269	379.395	81.2413	379.395	79.8773	379.395	81.0933	379.395	80.0429	379.395	80.9796	379.395	80.2617	379.395	80.8849	379.395	80.4767	379.395	80.7846	379.395	80.6534
392.578	83.3325	392.578	83.1627	392.578	83.4341	392.578	82.9393	392.578	83.4538	392.578	82.674	392.578	83.3829	392.578	82.3719	392.578	83.2229	392.578	82.0301	392.578	82.9882	392.578	81.6393	392.578	82.7061	392.578	81.1907	392.578	82.4099	392.578	80.6848	392.578	82.1278	392.578	80.1434	392.578	81.8725	392.578	79.6184	392.578	81.6401	392.578	79.1916	392.578	81.4192	392.578	78.9516	392.578	81.2039	392.578	78.9475	392.578	81.0016	392.578	79.1531	392.578	80.8289	392.578	79.4811	392.578	80.6974	392.578	79.8322	392.578	80.5978	392.578	80.1337	392.578	80.4974	392.578	80.3536
405.762	83.3778	405.762	83.2746	405.762	83.3937	405.762	83.0985	405.762	83.3123	405.762	82.8632	405.762	83.1337	405.762	82.5774	405.762	82.8724	405.762	82.243	405.762	82.5586	405.762	81.8567	405.762	82.234	405.762	81.4145	405.762	81.9409	405.762	80.9181	405.762	81.7057	405.762	80.3833	405.762	81.5291	405.762	79.8472	405.762	81.39	405.762	79.3719	405.762	81.2633	405.762	79.0341	405.762	81.1349	405.762	78.896	405.762	81.0045	405.762	78.9697	405.762	80.8761	405.762	79.2085	405.762	80.7462	405.762	79.5338	405.762	80.5991	405.762	79.8712	405.762	80.4133	405.762	80.1714
420.41	83.5769	420.41	83.4828	420.41	83.5993	420.41	83.3362	420.41	83.5327	420.41	83.1518	420.41	83.3663	420.41	82.9362	420.41	83.0995	420.41	82.6851	420.41	82.7451	420.41	82.3859	420.41	82.3301	420.41	82.0223	420.41	81.8946	420.41	81.5815	420.41	81.4834	420.41	81.0626	420.41	81.1311	420.41	80.4863	420.41	80.8478	420.41	79.9051	420.41	80.6207	420.41	79.4061	420.41	80.4343	420.41	79.0891	420.41	80.289	420.41	79.0156	420.41	80.1962	420.41	79.1628	420.41	80.1546	420.41	79.4355	420.41	80.133	420.41	79.7234	420.41	80.0795	420.41	79.9481
435.059	82.7499	435.059	82.5933	435.059	82.8437	435.059	82.4018	435.059	82.8557	435.059	82.206	435.059	82.7778	435.059	82.0276	435.059	82.612	435.059	81.8674	435.059	82.3696	435.059	81.7012	435.059	82.0698	435.059	81.4894	435.059	81.7349	435.059	81.1956	435.059	81.3839	435.059	80.8086	435.059	81.0299	435.059	80.3585	435.059	80.685	435.059	79.9219	435.059	80.372	435.059	79.6034	435.059	80.1324	435.059	79.4874	435.059	80.0152	435.059	79.5858	435.059	80.0438	435.059	79.8306	435.059	80.1851	435.059	80.1183	435.059	80.3588	435.059	80.3557	435.059	80.4777	435.059	80.4828
451.172	83.6726	451.172	83.4913	451.172	83.748	451.172	83.2233	451.172	83.6996	451.172	82.8856	451.172	83.5157	451.172	82.4913	451.172	83.1988	451.172	82.0474	451.172	82.7716	451.172	81.5531	451.172	82.2776	451.172	81.0019	451.172	81.7705	451.172	80.3866	451.172	81.2933	451.172	79.7117	451.172	80.8586	451.172	79.0104	451.172	80.4432	451.172	78.3624	451.172	80.0092	451.172	77.8908	451.172	79.5415	451.172	77.7085	451.172	79.0813	451.172	77.828	451.172	78.7262	451.172	78.137	451.172	78.5673	451.172	78.4734	451.172	78.602	451.172	78.7097	451.172	78.7209	451.172	78.7867
465.82	83.0872	465.82	82.8954	465.82	83.1817	465.82	82.6285	465.82	83.1582	465.82	82.3048	465.82	83.0038	465.82	81.9361	465.82	82.7212	465.82	81.5276	465.82	82.3334	465.82	81.0803	465.82	81.8849	465.82	80.5955	465.82	81.4312	465.82	80.0784	465.82	81.0205	465.82	79.5436	465.82	80.673	465.82	79.0212	465.82	80.3769	465.82	78.5649	465.82	80.1065	465.82	78.2502	465.82	79.8507	465.82	78.148	465.82	79.6287	465.82	78.2753	465.82	79.4788	465.82	78.5684	465.82	79.4226	465.82	78.914	465.82	79.4346	465.82	79.2068	465.82	79.4473	465.82	79.3862
483.398	83.019	483.398	82.8564	483.398	83.0885	483.398	82.6164	483.398	83.0544	483.398	82.3136	483.398	82.916	483.398	81.9548	483.398	82.6862	483.398	81.536	483.398	82.3906	483.398	81.0434	483.398	82.0627	483.398	80.4607	483.398	81.731	483.398	79.78	483.398	81.4063	483.398	79.0158	483.398	81.075	483.398	78.2242	483.398	80.7067	483.398	77.5246	483.398	80.2779	483.398	77.0942	483.398	79.8044	483.398	77.0796	483.398	79.3623	483.398	77.4614	483.398	79.067	483.398	78.0509	483.398	78.9921	483.398	78.6283	483.398	79.0918	483.398	79.0443	483.398	79.2227	483.398	79.2369
499.512	83.1323	499.512	82.9575	499.512	83.2149	499.512	82.7186	499.512	83.1817	499.512	82.4372	499.512	83.021	499.512	82.1188	499.512	82.7391	499.512	81.7494	499.512	82.3627	499.512	81.3021	499.512	81.934	499.512	80.751	499.512	81.4977	499.512	80.0835	499.512	81.0831	499.512	79.308	499.512	80.6922	499.512	78.4637	499.512	80.3054	499.512	77.6392	499.512	79.9051	499.512	76.9929	499.512	79.5037	499.512	76.7174	499.512	79.156	499.512	76.8971	499.512	78.9334	499.512	77.4048	499.512	78.8652	499.512	78.0027	499.512	78.8971	499.512	78.4997	499.512	78.9147	499.512	78.8046
517.09	82.6245	517.09	82.456	517.09	82.6875	517.09	82.2248	517.09	82.6217	517.09	81.9783	517.09	82.4309	517.09	81.748	517.09	82.1467	517.09	81.5323	517.09	81.8195	517.09	81.2933	517.09	81.4982	517.09	80.9715	517.09	81.206	517.09	80.5037	517.09	80.9295	517.09	79.8404	517.09	80.628	517.09	78.9685	517.09	80.2589	517.09	77.9516	517.09	79.806	517.09	76.9892	517.09	79.3047	517.09	76.4178	517.09	78.8544	517.09	76.4839	517.09	78.5868	517.09	77.0613	517.09	78.5664	517.09	77.7941	517.09	78.7065	517.09	78.3998	517.09	78.8219	517.09	78.7471
536.133	82.5965	536.133	82.3508	536.133	82.6667	536.133	81.9764	536.133	82.537	536.133	81.538	536.133	82.2083	536.133	81.1063	536.133	81.7124	536.133	80.7369	536.133	81.118	536.133	80.4464	536.133	80.5301	536.133	80.2031	536.133	80.0617	536.133	79.9388	536.133	79.7697	536.133	79.5758	536.133	79.6083	536.133	79.0584	536.133	79.4615	536.133	78.3898	536.133	79.2297	536.133	77.6784	536.133	78.8994	536.133	77.1601	536.133	78.5687	536.133	77.0854	536.133	78.4016	536.133	77.4732	536.133	78.4869	536.133	78.0751	536.133	78.729	536.133	78.6086	536.133	78.9242	536.133	78.9062
555.176	82.8286	555.176	82.5311	555.176	82.9717	555.176	82.1215	555.176	82.9348	555.176	81.6574	555.176	82.7072	555.176	81.2007	555.176	82.295	555.176	80.7953	555.176	81.7277	555.176	80.4476	555.176	81.0637	555.176	80.1226	555.176	80.3882	555.176	79.7594	555.176	79.7906	555.176	79.2945	555.176	79.3197	555.176	78.6853	555.176	78.9452	555.176	77.9339	555.176	78.5798	555.176	77.1177	555.176	78.1575	555.176	76.4195	555.176	77.7078	555.176	76.086	555.176	77.3668	555.176	76.2343	555.176	77.2693	555.176	76.7022	555.176	77.3868	555.176	77.1927	555.176	77.5258	555.176	77.4889
574.219	82.5259	574.219	82.1245	574.219	82.7384	574.219	81.5991	574.219	82.7243	574.219	81.0392	574.219	82.4766	574.219	80.5403	574.219	82.0275	574.219	80.1658	574.219	81.4546	574.219	79.9055	574.219	80.8709	574.219	79.6748	574.219	80.3842	574.219	79.3606	574.219	80.0361	574.219	78.8802	574.219	79.766	574.219	78.2182	574.219	79.4383	574.219	77.4439	574.219	78.9271	574.219	76.7252	574.219	78.2118	574.219	76.3058	574.219	77.4586	574.219	76.3604	574.219	77.0012	574.219	76.8107	574.219	77.0591	574.219	77.3853	574.219	77.4596	574.219	77.8295	574.219	77.8502	574.219	77.998
594.727	82.8298	594.727	82.425	594.727	83.0296	594.727	81.8655	594.727	82.998	594.727	81.2216	594.727	82.7338	594.727	80.5704	594.727	82.2589	594.727	79.9731	594.727	81.6211	594.727	79.4481	594.727	80.9064	594.727	78.9622	594.727	80.26	594.727	78.4536	594.727	79.8503	594.727	77.8718	594.727	79.7204	594.727	77.2056	594.727	79.6943	594.727	76.4983	594.727	79.5096	594.727	75.8782	594.727	78.999	594.727	75.5728	594.727	78.1821	594.727	75.7738	594.727	77.3316	594.727	76.3939	594.727	76.9049	594.727	77.1064	594.727	77.079	594.727	77.6079	594.727	77.4992	594.727	77.7402
615.234	83.3077	615.234	82.9661	615.234	83.4569	615.234	82.4662	615.234	83.3997	615.234	81.8609	615.234	83.1339	615.234	81.207	615.234	82.6627	615.234	80.5449	615.234	81.9992	615.234	79.8874	615.234	81.185	615.234	79.2316	615.234	80.317	615.234	78.5829	615.234	79.5625	615.234	77.9616	615.234	79.0989	615.234	77.383	615.234	78.9486	615.234	76.8375	615.234	78.9199	615.234	76.3158	615.234	78.7847	615.234	75.8799	615.234	78.4549	615.234	75.6958	615.234	78.0184	615.234	75.9013	615.234	77.6666	615.234	76.4063	615.234	77.5139	615.234	76.9479	615.234	77.4641	615.234	77.3156
637.207	82.6675	637.207	82.2369	637.207	82.9542	637.207	81.7131	637.207	83.0571	637.207	81.1602	637.207	82.9452	637.207	80.647	637.207	82.6026	637.207	80.2147	637.207	82.0431	637.207	79.8416	637.207	81.3207	637.207	79.4423	637.207	80.5251	637.207	78.9089	637.207	79.7552	637.207	78.1585	637.207	79.0798	637.207	77.1795	637.207	78.5035	637.207	76.1104	637.207	77.9693	637.207	75.3192	637.207	77.4231	637.207	75.2081	637.207	76.9129	637.207	75.7406	637.207	76.6271	637.207	76.5128	637.207	76.736	637.207	77.1959	637.207	77.1455	637.207	77.6326	637.207	77.5639	637.207	77.757
659.18	82.2951	659.18	81.9459	659.18	82.4733	659.18	81.4578	659.18	82.4561	659.18	80.8829	659.18	82.2221	659.18	80.2976	659.18	81.7673	659.18	79.7829	659.18	81.1373	659.18	79.382	659.18	80.4475	659.18	79.067	659.18	79.8568	659.18	78.7479	659.18	79.488	659.18	78.3073	659.18	79.3263	659.18	77.6354	659.18	79.1801	659.18	76.6759	659.18	78.8064	659.18	75.5243	659.18	78.1056	659.18	74.5905	659.18	77.2472	659.18	74.4963	659.18	76.6612	659.18	75.2933	659.18	76.6781	659.18	76.3518	659.18	77.1021	659.18	77.1649	659.18	77.4887	659.18	77.5471
682.617	82.7912	682.617	82.2875	682.617	83.072	682.617	81.6128	682.617	83.1031	682.617	80.8527	682.617	82.887	682.617	80.1288	682.617	82.4626	682.617	79.5652	682.617	81.8909	682.617	79.2178	682.617	81.2227	682.617	79.0278	682.617	80.5219	682.617	78.8596	682.617	79.9443	682.617	78.5782	682.617	79.6454	682.617	78.0987	682.617	79.5142	682.617	77.4201	682.617	79.2413	682.617	76.68	682.617	78.6214	682.617	76.1983	682.617	77.7006	682.617	76.3102	682.617	76.9013	682.617	76.9831	682.617	76.8666	682.617	77.8234	682.617	77.5653	682.617	78.4486	682.617	78.3078	682.617	78.637
707.52	83.0264	707.52	82.4949	707.52	83.2808	707.52	81.717	707.52	83.2631	707.52	80.7863	707.52	82.9967	707.52	79.8835	707.52	82.5125	707.52	79.2376	707.52	81.8353	707.52	78.9781	707.52	80.9816	707.52	78.9998	707.52	79.9972	707.52	79.0226	707.52	79.0306	707.52	78.7599	707.52	78.3274	707.52	78.0209	707.52	78.0132	707.52	76.7573	707.52	77.8909	707.52	75.1709	707.52	77.6009	707.52	73.9502	707.52	76.9132	707.52	73.9941	707.52	75.9736	707.52	75.1038	707.52	75.4878	707.52	76.341	707.52	75.9862	707.52	77.1509	707.52	76.853	707.52	77.329
732.422	82.8331	732.422	82.3909	732.422	82.9552	732.422	81.6388	732.422	82.8023	732.422	80.6734	732.422	82.441	732.422	79.6907	732.422	81.9274	732.422	78.9388	732.422	81.2879	732.422	78.5878	732.422	80.5311	732.422	78.5989	732.422	79.6912	732.422	78.7315	732.422	78.8884	732.422	78.6873	732.422	78.3513	732.422	78.2402	732.422	78.248	732.422	77.2798	732.422	78.3927	732.422	75.8305	732.422	78.3619	732.422	74.2118	732.422	77.8819	732.422	73.3616	732.422	77.0344	732.422	74.0255	732.422	76.3236	732.422	75.3634	732.422	76.2716	732.422	76.3944	732.422	76.642	732.422	76.8031
757.324	83.3394	757.324	82.7006	757.324	83.655	757.324	81.8001	757.324	83.6206	757.324	80.7248	757.324	83.2451	757.324	79.5785	757.324	82.5666	757.324	78.5042	757.324	81.6484	757.324	77.7256	757.324	80.593	757.324	77.4569	757.324	79.5713	757.324	77.647	757.324	78.8184	757.324	77.9653	757.324	78.4888	757.324	78.0678	757.324	78.4586	757.324	77.7354	757.324	78.4171	757.324	76.8904	757.324	78.1329	757.324	75.685	757.324	77.5862	757.324	74.7381	757.324	77.0222	757.324	74.8961	757.324	76.8627	757.324	75.971	757.324	77.208	757.324	77.0509	757.324	77.6183	757.324	77.6297
785.156	83.2829	785.156	82.7747	785.156	83.5304	785.156	82.0369	785.156	83.5016	785.156	81.1371	785.156	83.1794	785.156	80.1785	785.156	82.5524	785.156	79.2748	785.156	81.6287	785.156	78.5301	785.156	80.4298	785.156	78.0227	785.156	78.9825	785.156	77.7426	785.156	77.4085	785.156	77.5375	785.156	76.1367	785.156	77.1864	785.156	75.721	785.156	76.5357	785.156	75.9877	785.156	75.5944	785.156	76.2141	785.156	74.6297	785.156	75.9585	785.156	74.1691	785.156	75.2643	785.156	74.505	785.156	74.7028	785.156	75.2482	785.156	74.8916	785.156	75.8333	785.156	75.5331	785.156	75.9451
811.523	83.5202	811.523	82.9726	811.523	83.8067	811.523	82.2266	811.523	83.8131	811.523	81.398	811.523	83.5476	811.523	80.6291	811.523	83.0272	811.523	80.0067	811.523	82.2679	811.523	79.4747	811.523	81.2981	811.523	78.8553	811.523	80.1719	811.523	77.998	811.523	78.9586	811.523	76.9337	811.523	77.7788	811.523	75.8649	811.523	76.8957	811.523	74.9376	811.523	76.5154	811.523	74.0935	811.523	76.4115	811.523	73.2971	811.523	76.2142	811.523	72.967	811.523	75.8963	811.523	73.7322	811.523	75.8134	811.523	75.1758	811.523	76.2117	811.523	76.3697	811.523	76.748	811.523	76.895
840.82	83.8637	840.82	83.3873	840.82	84.1563	840.82	82.8053	840.82	84.2209	840.82	82.245	840.82	84.0183	840.82	81.8303	840.82	83.5199	840.82	81.5971	840.82	82.7512	840.82	81.4687	840.82	81.8261	840.82	81.2669	840.82	80.9049	840.82	80.7818	840.82	80.0913	840.82	79.9221	840.82	79.3806	840.82	78.786	840.82	78.6747	840.82	77.5545	840.82	77.8115	840.82	76.3174	840.82	76.6112	840.82	75.0799	840.82	74.9907	840.82	74.0727	840.82	73.4079	840.82	73.9214	840.82	73.2137	840.82	74.7117	840.82	74.4315	840.82	75.6192	840.82	75.5773	840.82	75.9878
870.117	83.6644	870.117	83.3191	870.117	83.7387	870.117	82.7101	870.117	83.592	870.117	81.9121	870.117	83.2877	870.117	81.0617	870.117	82.8512	870.117	80.3717	870.117	82.2264	870.117	80.055	870.117	81.2664	870.117	80.085	870.117	79.8534	870.117	80.18	870.117	78.224	870.117	80.0927	870.117	77.2506	870.117	79.7283	870.117	77.532	870.117	79.0515	870.117	78.3623	870.117	78.0257	870.117	78.886	870.117	76.7207	870.117	78.7297	870.117	75.612	870.117	77.9624	870.117	75.606	870.117	77.2781	870.117	76.7388	870.117	77.5369	870.117	77.9588	870.117	78.2786	870.117	78.5332
900.879	84.6463	900.879	84.2679	900.879	84.7245	900.879	83.6533	900.879	84.5049	900.879	82.8853	900.879	84.0207	900.879	81.9637	900.879	83.2886	900.879	80.8212	900.879	82.3125	900.879	79.5059	900.879	81.1114	900.879	78.3142	900.879	79.7182	900.879	77.5896	900.879	78.1949	900.879	77.3783	900.879	76.7935	900.879	77.4648	900.879	76.0983	900.879	77.5496	900.879	76.382	900.879	77.3773	900.879	76.9731	900.879	76.8702	900.879	77.1625	900.879	76.2708	900.879	76.9235	900.879	76.2042	900.879	76.9788	900.879	77.032	900.879	77.806	900.879	78.1644	900.879	78.6679	900.879	78.8281
933.105	84.3094	933.105	84.0936	933.105	84.3177	933.105	83.6734	933.105	84.1235	933.105	83.0311	933.105	83.7501	933.105	82.1136	933.105	83.2245	933.105	80.8799	933.105	82.5316	933.105	79.4231	933.105	81.5592	933.105	78.1076	933.105	80.1306	933.105	77.4188	933.105	78.2601	933.105	77.3991	933.105	76.7251	933.105	77.6479	933.105	76.6921	933.105	77.7828	933.105	77.4978	933.105	77.5355	933.105	77.8962	933.105	76.8018	933.105	77.4969	933.105	75.8843	933.105	76.5899	933.105	75.7182	933.105	76.3476	933.105	76.8077	933.105	77.447	933.105	78.1921	933.105	78.6239	933.105	78.9158
965.332	84.2245	965.332	84.1796	965.332	84.0923	965.332	83.9354	965.332	83.801	965.332	83.4171	965.332	83.407	965.332	82.5231	965.332	82.9585	965.332	81.231	965.332	82.3761	965.332	79.6704	965.332	81.4645	965.332	78.0433	965.332	80.1036	965.332	76.538	965.332	78.3379	965.332	75.3977	965.332	76.2653	965.332	74.9438	965.332	74.3508	965.332	75.312	965.332	73.9507	965.332	76.0077	965.332	74.8551	965.332	76.3871	965.332	75.4645	965.332	76.2816	965.332	75.3566	965.332	76.0396	965.332	75.2907	965.332	76.2948	965.332	76.2262	965.332	77.1029	965.332	77.3664	965.332	77.6766
1,000.49	84.0802	1,000.49	84.1442	1,000.49	83.876	1,000.49	83.9475	1,000.49	83.6522	1,000.49	83.3763	1,000.49	83.462	1,000.49	82.3545	1,000.49	83.2042	1,000.49	80.9526	1,000.49	82.6865	1,000.49	79.4761	1,000.49	81.8319	1,000.49	78.2899	1,000.49	80.7407	1,000.49	77.497	1,000.49	79.4515	1,000.49	76.9309	1,000.49	77.9091	1,000.49	76.3233	1,000.49	76.4642	1,000.49	75.6348	1,000.49	75.7999	1,000.49	75.2139	1,000.49	75.7909	1,000.49	75.3168	1,000.49	75.672	1,000.49	75.7953	1,000.49	75.0944	1,000.49	76.4583	1,000.49	74.7901	1,000.49	77.2	1,000.49	75.7848	1,000.49	77.8	1,000.49	77.1755	1,000.49	77.8906
1,035.64	84.4787	1,035.64	84.4513	1,035.64	84.1434	1,035.64	84.014	1,035.64	83.5582	1,035.64	83.1446	1,035.64	82.8958	1,035.64	81.8396	1,035.64	82.2725	1,035.64	80.1761	1,035.64	81.6125	1,035.64	78.3993	1,035.64	80.6978	1,035.64	76.8734	1,035.64	79.3489	1,035.64	75.7987	1,035.64	77.6067	1,035.64	75.1185	1,035.64	76.0638	1,035.64	74.8287	1,035.64	75.5662	1,035.64	75.0259	1,035.64	75.67	1,035.64	75.5298	1,035.64	75.3448	1,035.64	75.9329	1,035.64	74.1406	1,035.64	76.04	1,035.64	72.9298	1,035.64	76.0745	1,035.64	73.8665	1,035.64	76.4131	1,035.64	75.7995	1,035.64	76.9886	1,035.64	77.0145	1,035.64	77.3286
1,072.27	84.2972	1,072.27	84.2054	1,072.27	84.0133	1,072.27	83.7514	1,072.27	83.4656	1,072.27	82.9501	1,072.27	82.914	1,072.27	81.7716	1,072.27	82.4979	1,072.27	80.2099	1,072.27	81.9773	1,072.27	78.4199	1,072.27	81.0222	1,072.27	76.807	1,072.27	79.6239	1,072.27	75.7641	1,072.27	77.862	1,072.27	75.1068	1,072.27	75.8725	1,072.27	74.282	1,072.27	74.9208	1,072.27	73.2504	1,072.27	75.4722	1,072.27	72.8722	1,072.27	75.9061	1,072.27	73.7861	1,072.27	75.2219	1,072.27	75.2877	1,072.27	73.3095	1,072.27	76.6583	1,072.27	72.984	1,072.27	77.7458	1,072.27	75.7806	1,072.27	78.5001	1,072.27	77.9153	1,072.27	78.6893
1,108.89	84.4767	1,108.89	84.1416	1,108.89	84.2947	1,108.89	83.4839	1,108.89	83.5504	1,108.89	82.6402	1,108.89	82.4549	1,108.89	81.5392	1,108.89	81.416	1,108.89	80.0627	1,108.89	80.7151	1,108.89	78.3786	1,108.89	80.1573	1,108.89	76.9136	1,108.89	79.0871	1,108.89	76.0481	1,108.89	76.8016	1,108.89	75.5121	1,108.89	73.9499	1,108.89	74.3472	1,108.89	74.1853	1,108.89	72.7202	1,108.89	75.9267	1,108.89	72.3414	1,108.89	76.2777	1,108.89	73.3307	1,108.89	74.3338	1,108.89	74.6862	1,108.89	69.7686	1,108.89	76.1409	1,108.89	71.8813	1,108.89	77.5305	1,108.89	76.4511	1,108.89	78.5968	1,108.89	78.5372	1,108.89	79.0537
1,148.44	84.4947	1,148.44	84.7215	1,148.44	83.8291	1,148.44	84.5121	1,148.44	82.8411	1,148.44	83.7948	1,148.44	81.7823	1,148.44	82.2634	1,148.44	80.9971	1,148.44	79.5743	1,148.44	80.7078	1,148.44	76.11	1,148.44	80.6557	1,148.44	74.2689	1,148.44	80.2435	1,148.44	75.4839	1,148.44	78.5458	1,148.44	76.7624	1,148.44	74.2674	1,148.44	76.0916	1,148.44	67.5134	1,148.44	73.3039	1,148.44	73.4884	1,148.44	70.3899	1,148.44	77.5653	1,148.44	71.5447	1,148.44	78.2976	1,148.44	74.439	1,148.44	75.4455	1,148.44	76.8713	1,148.44	64.647	1,148.44	78.745	1,148.44	73.1045	1,148.44	79.937	1,148.44	78.4469	1,148.44	80.0769
1,189.45	84.4531	1,189.45	84.5891	1,189.45	83.8763	1,189.45	84.3302	1,189.45	82.9187	1,189.45	83.6363	1,189.45	81.6921	1,189.45	82.2752	1,189.45	80.2535	1,189.45	80.1162	1,189.45	79.0031	1,189.45	77.7596	1,189.45	78.7379	1,189.45	76.647	1,189.45	79.1007	1,189.45	77.2201	1,189.45	78.4807	1,189.45	77.8767	1,189.45	75.6313	1,189.45	77.3199	1,189.45	70.2745	1,189.45	75.3758	1,189.45	69.9487	1,189.45	71.8574	1,189.45	75.7143	1,189.45	65.4747	1,189.45	78.1859	1,189.45	68.0251	1,189.45	77.0048	1,189.45	74.107	1,189.45	70.4424	1,189.45	77.203	1,189.45	68.7571	1,189.45	78.5542	1,189.45	76.0628	1,189.45	78.3917
1,230.47	84.4748	1,230.47	84.2834	1,230.47	84.3059	1,230.47	84.0259	1,230.47	83.5726	1,230.47	83.6664	1,230.47	82.2787	1,230.47	82.768	1,230.47	80.5826	1,230.47	81.0851	1,230.47	79.0381	1,230.47	79.1248	1,230.47	78.598	1,230.47	77.6821	1,230.47	79.027	1,230.47	77.3673	1,230.47	78.9545	1,230.47	77.5905	1,230.47	77.3923	1,230.47	77.3518	1,230.47	72.997	1,230.47	76.6781	1,230.47	66.8912	1,230.47	75.12	1,230.47	71.9213	1,230.47	71.6088	1,230.47	74.8929	1,230.47	69.8479	1,230.47	74.8729	1,230.47	73.7105	1,230.47	70.7381	1,230.47	76.4239	1,230.47	65.9064	1,230.47	77.5618	1,230.47	73.9531	1,230.47	77.0536
1,274.41	84.3676	1,274.41	84.393	1,274.41	84.1231	1,274.41	84.2174	1,274.41	83.5616	1,274.41	83.6671	1,274.41	82.5688	1,274.41	82.5405	1,274.41	81.019	1,274.41	80.8936	1,274.41	79.0674	1,274.41	79.1642	1,274.41	77.4499	1,274.41	77.4485	1,274.41	76.8941	1,274.41	76.2016	1,274.41	76.8383	1,274.41	76.0206	1,274.41	75.9269	1,274.41	75.8215	1,274.41	73.0196	1,274.41	75.2775	1,274.41	66.3561	1,274.41	74.1114	1,274.41	71.5897	1,274.41	71.3248	1,274.41	76.6878	1,274.41	68.3601	1,274.41	77.317	1,274.41	71.7207	1,274.41	73.8489	1,274.41	75.5267	1,274.41	63.797	1,274.41	77.3167	1,274.41	72.5259	1,274.41	76.7516
1,319.82	84.1408	1,319.82	84.0812	1,319.82	83.8767	1,319.82	83.6045	1,319.82	83.2644	1,319.82	82.6404	1,319.82	82.353	1,319.82	81.494	1,319.82	81.1143	1,319.82	80.5755	1,319.82	79.2483	1,319.82	79.6789	1,319.82	76.8405	1,319.82	77.4122	1,319.82	75.2231	1,319.82	73.5948	1,319.82	75.4897	1,319.82	71.4035	1,319.82	75.8983	1,319.82	70.4136	1,319.82	74.3609	1,319.82	72.1646	1,319.82	68.5423	1,319.82	74.0957	1,319.82	66.6697	1,319.82	72.8563	1,319.82	74.3997	1,319.82	66.9314	1,319.82	76.0588	1,319.82	68.8994	1,319.82	73.0878	1,319.82	73.0563	1,319.82	68.6017	1,319.82	74.7712	1,319.82	73.1457	1,319.82	75.1105
1,366.7	83.6839	1,366.7	83.987	1,366.7	83.313	1,366.7	83.7746	1,366.7	83.0919	1,366.7	82.7082	1,366.7	82.751	1,366.7	81.1634	1,366.7	81.6635	1,366.7	80.2377	1,366.7	79.7463	1,366.7	79.7958	1,366.7	77.5558	1,366.7	78.0832	1,366.7	75.6753	1,366.7	75.2629	1,366.7	74.9145	1,366.7	74.1059	1,366.7	74.7965	1,366.7	74.0403	1,366.7	73.8755	1,366.7	73.4647	1,366.7	70.8756	1,366.7	72.7169	1,366.7	60.928	1,366.7	72.0383	1,366.7	71.5097	1,366.7	70.0806	1,366.7	76.3272	1,366.7	68.4598	1,366.7	75.3792	1,366.7	73.1796	1,366.7	69.3385	1,366.7	75.5437	1,366.7	71.0137	1,366.7	74.9868
1,413.57	83.5819	1,413.57	83.8626	1,413.57	83.4448	1,413.57	83.8243	1,413.57	83.4293	1,413.57	82.9595	1,413.57	82.9885	1,413.57	81.4003	1,413.57	81.2979	1,413.57	79.7219	1,413.57	78.8739	1,413.57	77.7579	1,413.57	78.0519	1,413.57	74.19	1,413.57	78.2329	1,413.57	69.0007	1,413.57	78.7979	1,413.57	68.7913	1,413.57	78.6449	1,413.57	71.5868	1,413.57	77.7864	1,413.57	72.6748	1,413.57	75.5954	1,413.57	73.7525	1,413.57	70.2505	1,413.57	75.3042	1,413.57	70.8697	1,413.57	73.551	1,413.57	74.5138	1,413.57	66.8856	1,413.57	73.6106	1,413.57	70.1329	1,413.57	70.1745	1,413.57	73.1833	1,413.57	69.3502	1,413.57	71.9912
1,463.38	84.5488	1,463.38	83.9607	1,463.38	84.0939	1,463.38	82.9055	1,463.38	83.0086	1,463.38	82.2823	1,463.38	81.996	1,463.38	82.0438	1,463.38	80.9942	1,463.38	81.5866	1,463.38	80.4843	1,463.38	79.7314	1,463.38	80.1426	1,463.38	74.4627	1,463.38	78.2511	1,463.38	63.4247	1,463.38	76.1866	1,463.38	60.1551	1,463.38	76.2431	1,463.38	67.2303	1,463.38	76.8355	1,463.38	67.6046	1,463.38	75.2641	1,463.38	67.7723	1,463.38	68.6858	1,463.38	69.7591	1,463.38	69.4249	1,463.38	72.708	1,463.38	74.1936	1,463.38	71.3316	1,463.38	73.863	1,463.38	71.4588	1,463.38	70.094	1,463.38	74.3066	1,463.38	68.0376	1,463.38	72.7746
1,516.11	84.9308	1,516.11	84.4986	1,516.11	84.1008	1,516.11	83.1654	1,516.11	82.6443	1,516.11	82.0095	1,516.11	81.5844	1,516.11	81.5131	1,516.11	81.2355	1,516.11	80.945	1,516.11	80.7696	1,516.11	79.6468	1,516.11	78.3788	1,516.11	77.3863	1,516.11	72.9527	1,516.11	75.1966	1,516.11	69.5708	1,516.11	74.4379	1,516.11	71.8396	1,516.11	74.1591	1,516.11	72.1885	1,516.11	74.3711	1,516.11	70.0972	1,516.11	71.3107	1,516.11	68.8385	1,516.11	71.3035	1,516.11	71.4441	1,516.11	73.6398	1,516.11	73.0732	1,516.11	71.0912	1,516.11	70.5532	1,516.11	70.2823	1,516.11	66.0857	1,516.11	73.3096	1,516.11	70.2456	1,516.11	73.3143
1,568.85	84.9086	1,568.85	84.3941	1,568.85	84.5768	1,568.85	83.4171	1,568.85	83.2681	1,568.85	82.3307	1,568.85	81.1149	1,568.85	81.3609	1,568.85	79.1827	1,568.85	79.8876	1,568.85	78.8702	1,568.85	76.0433	1,568.85	78.2286	1,568.85	68.6475	1,568.85	75.55	1,568.85	64.0529	1,568.85	72.5195	1,568.85	64.6016	1,568.85	72.3075	1,568.85	72.2615	1,568.85	73.1642	1,568.85	74.2329	1,568.85	72.4227	1,568.85	73.1046	1,568.85	69.1632	1,568.85	69.6277	1,568.85	67.0574	1,568.85	72.9453	1,568.85	71.6378	1,568.85	73.222	1,568.85	70.8428	1,568.85	73.2118	1,568.85	65.6118	1,568.85	75.1548	1,568.85	68.2374	1,568.85	73.9709
1,624.51	85.0128	1,624.51	84.7863	1,624.51	84.4805	1,624.51	83.9491	1,624.51	83.0109	1,624.51	82.6227	1,624.51	80.8498	1,624.51	81.3365	1,624.51	79.2155	1,624.51	79.6128	1,624.51	79.2079	1,624.51	75.6691	1,624.51	78.5937	1,624.51	71.7674	1,624.51	75.9906	1,624.51	70.2276	1,624.51	73.6851	1,624.51	72.8222	1,624.51	73.4415	1,624.51	76.6685	1,624.51	75.115	1,624.51	77.0066	1,624.51	76.9162	1,624.51	73.2055	1,624.51	74.4092	1,624.51	64.611	1,624.51	46.6676	1,624.51	67.8522	1,624.51	70.7861	1,624.51	69.8772	1,624.51	72.1277	1,624.51	70.4706	1,624.51	66.9117	1,624.51	74.6883	1,624.51	67.1062	1,624.51	74.5014
1,681.64	84.0665	1,681.64	84.6916	1,681.64	82.9617	1,681.64	84.4425	1,681.64	82.245	1,681.64	82.7829	1,681.64	82.0637	1,681.64	80.4418	1,681.64	80.4446	1,681.64	80.1717	1,681.64	76.2284	1,681.64	80.3825	1,681.64	70.2732	1,681.64	79.433	1,681.64	73.5764	1,681.64	77.0944	1,681.64	76.2377	1,681.64	75.3819	1,681.64	76.3485	1,681.64	72.8654	1,681.64	76.0152	1,681.64	75.8576	1,681.64	74.1547	1,681.64	79.6228	1,681.64	60.1576	1,681.64	77.0625	1,681.64	71.4302	1,681.64	73.6597	1,681.64	75.0575	1,681.64	71.1131	1,681.64	73.3126	1,681.64	65.2379	1,681.64	62.1931	1,681.64	68.4298	1,681.64	70.431	1,681.64	72.5687
1,741.7	83.0373	1,741.7	83.1462	1,741.7	82.9742	1,741.7	83.1146	1,741.7	82.6111	1,741.7	82.1818	1,741.7	80.573	1,741.7	79.4229	1,741.7	77.3919	1,741.7	75.1935	1,741.7	77.8284	1,741.7	74.1181	1,741.7	77.3836	1,741.7	73.7035	1,741.7	74.2374	1,741.7	71.165	1,741.7	70.0929	1,741.7	71.8721	1,741.7	67.5991	1,741.7	74.1827	1,741.7	71.0213	1,741.7	76.0609	1,741.7	75.0595	1,741.7	74.2119	1,741.7	76.2708	1,741.7	66.5655	1,741.7	72.2076	1,741.7	65.4434	1,741.7	61.1403	1,741.7	69.7591	1,741.7	71.8751	1,741.7	70.7645	1,741.7	71.8468	1,741.7	71.591	1,741.7	67.1848	1,741.7	71.2127
1,803.22	83.0739	1,803.22	83.726	1,803.22	82.4458	1,803.22	83.4955	1,803.22	82.1503	1,803.22	82.5214	1,803.22	80.9954	1,803.22	80.3701	1,803.22	78.593	1,803.22	76.7363	1,803.22	75.0966	1,803.22	75.9816	1,803.22	74.805	1,803.22	78.0216	1,803.22	77.093	1,803.22	77.4553	1,803.22	77.1708	1,803.22	74.9393	1,803.22	76.3975	1,803.22	72.7774	1,803.22	74.6279	1,803.22	69.7085	1,803.22	72.36	1,803.22	73.8964	1,803.22	71.3175	1,803.22	72.3205	1,803.22	66.836	1,803.22	68.4279	1,803.22	66.6331	1,803.22	68.2651	1,803.22	72.5481	1,803.22	66.7937	1,803.22	69.6128	1,803.22	67.3653	1,803.22	69.2985	1,803.22	70.6826
1,866.21	83.8279	1,866.21	83.2103	1,866.21	83.4975	1,866.21	82.1778	1,866.21	81.5155	1,866.21	81.0196	1,866.21	78.3658	1,866.21	78.7211	1,866.21	76.9412	1,866.21	73.6502	1,866.21	75.4754	1,866.21	70.5099	1,866.21	72.5711	1,866.21	75.0355	1,866.21	71.5506	1,866.21	75.0913	1,866.21	66.2036	1,866.21	73.2327	1,866.21	50.0508	1,866.21	72.268	1,866.21	52.4265	1,866.21	68.6921	1,866.21	61.5257	1,866.21	69.7558	1,866.21	71.3371	1,866.21	65.49	1,866.21	72.5398	1,866.21	61.4037	1,866.21	61.9631	1,866.21	49.2389	1,866.21	67.8187	1,866.21	68.9971	1,866.21	69.9279	1,866.21	70.5166	1,866.21	66.7866	1,866.21	68.0447
1,932.13	84.4984	1,932.13	83.8939	1,932.13	83.8598	1,932.13	81.9664	1,932.13	81.9134	1,932.13	79.2592	1,932.13	79.3782	1,932.13	76.463	1,932.13	75.8772	1,932.13	72.9936	1,932.13	71.9276	1,932.13	71.2306	1,932.13	72.22	1,932.13	71.5154	1,932.13	70.2979	1,932.13	69.2841	1,932.13	70.1838	1,932.13	65.8458	1,932.13	71.4311	1,932.13	67.0028	1,932.13	71.1642	1,932.13	67.4874	1,932.13	69.1018	1,932.13	64.2418	1,932.13	63.649	1,932.13	58.9586	1,932.13	67.3988	1,932.13	54.4092	1,932.13	64.7121	1,932.13	57.8479	1,932.13	68.1923	1,932.13	66.1592	1,932.13	68.3292	1,932.13	70.4613	1,932.13	65.1509	1,932.13	69.6581
1,999.51	84.0894	1,999.51	84.1646	1,999.51	83.3774	1,999.51	82.912	1,999.51	81.9355	1,999.51	79.7706	1,999.51	79.399	1,999.51	74.4081	1,999.51	75.2694	1,999.51	67.6751	1,999.51	71.9552	1,999.51	69.0389	1,999.51	68.7584	1,999.51	72.2758	1,999.51	66.5969	1,999.51	66.8149	1,999.51	71.5822	1,999.51	59.7275	1,999.51	73.1045	1,999.51	64.5068	1,999.51	71.9016	1,999.51	53.9743	1,999.51	72.3757	1,999.51	57.4491	1,999.51	70.3573	1,999.51	63.8157	1,999.51	61.3598	1,999.51	65.9675	1,999.51	66.4625	1,999.51	67.551	1,999.51	62.9274	1,999.51	66.1412	1,999.51	66.0521	1,999.51	66.7541	1,999.51	70.6223	1,999.51	70.3334
2,069.82	83.1765	2,069.82	83.5276	2,069.82	82.5368	2,069.82	82.7226	2,069.82	81.8062	2,069.82	80.7582	2,069.82	79.4554	2,069.82	78.0342	2,069.82	74.5946	2,069.82	73.4045	2,069.82	66.403	2,069.82	59.9587	2,069.82	68.2997	2,069.82	69.8578	2,069.82	72.4006	2,069.82	72.9152	2,069.82	73.195	2,069.82	66.7383	2,069.82	73.779	2,069.82	66.5648	2,069.82	70.7634	2,069.82	68.1817	2,069.82	70.3113	2,069.82	65.24	2,069.82	69.4965	2,069.82	64.9251	2,069.82	61.4699	2,069.82	65.492	2,069.82	57.7788	2,069.82	61.1665	2,069.82	64.0545	2,069.82	63.3323	2,069.82	65.6756	2,069.82	67.5272	2,069.82	68.7261	2,069.82	69.6504
2,143.07	84.1298	2,143.07	83.5956	2,143.07	82.743	2,143.07	81.7765	2,143.07	80.8051	2,143.07	79.3282	2,143.07	77.5665	2,143.07	75.6911	2,143.07	68.0142	2,143.07	74.562	2,143.07	67.2434	2,143.07	73.8307	2,143.07	70.4401	2,143.07	67.1957	2,143.07	70.8926	2,143.07	64.9082	2,143.07	70.7058	2,143.07	68.4395	2,143.07	71.5127	2,143.07	61.2536	2,143.07	68.1679	2,143.07	65.8472	2,143.07	69.0319	2,143.07	68.0302	2,143.07	70.7905	2,143.07	64.7535	2,143.07	67.1794	2,143.07	60.0562	2,143.07	66.7616	2,143.07	48.5542	2,143.07	61.4328	2,143.07	63.4388	2,143.07	69.8485	2,143.07	69.4703	2,143.07	68.3404	2,143.07	69.606
2,219.24	85.3535	2,219.24	84.3463	2,219.24	83.9649	2,219.24	81.8484	2,219.24	80.2928	2,219.24	79.8886	2,219.24	72.8906	2,219.24	76.3271	2,219.24	61.1181	2,219.24	64.8298	2,219.24	57.0182	2,219.24	58.6945	2,219.24	71.9143	2,219.24	62.9299	2,219.24	77.0533	2,219.24	71.5892	2,219.24	74.7332	2,219.24	72.3015	2,219.24	71.8945	2,219.24	71.8491	2,219.24	70.9021	2,219.24	71.9539	2,219.24	74.9957	2,219.24	64.4791	2,219.24	77.3464	2,219.24	56.625	2,219.24	71.3005	2,219.24	67.2831	2,219.24	62.9302	2,219.24	67.0813	2,219.24	59.7995	2,219.24	61.7909	2,219.24	62.3492	2,219.24	63.6743	2,219.24	72.3664	2,219.24	71.2903
2,296.88	84.9067	2,296.88	84.3728	2,296.88	83.8903	2,296.88	82.2906	2,296.88	80.6547	2,296.88	77.894	2,296.88	71.3887	2,296.88	69.8179	2,296.88	60.1772	2,296.88	64.0082	2,296.88	67.8912	2,296.88	64.3605	2,296.88	74.2371	2,296.88	71.1999	2,296.88	76.6158	2,296.88	74.3495	2,296.88	78.1824	2,296.88	72.261	2,296.88	78.7982	2,296.88	71.911	2,296.88	78.3812	2,296.88	66.2836	2,296.88	74.3963	2,296.88	72.3876	2,296.88	74.9682	2,296.88	65.2254	2,296.88	66.364	2,296.88	59.3745	2,296.88	68.4251	2,296.88	58.8438	2,296.88	70.5247	2,296.88	66.1575	2,296.88	69.1419	2,296.88	59.1647	2,296.88	70.8229	2,296.88	64.6566
2,378.91	84.2392	2,378.91	84.2882	2,378.91	83.4454	2,378.91	83.7972	2,378.91	79.2686	2,378.91	80.8679	2,378.91	66.8355	2,378.91	72.8295	2,378.91	65.5496	2,378.91	61.9092	2,378.91	75.9449	2,378.91	60.7403	2,378.91	79.1697	2,378.91	72.1058	2,378.91	78.465	2,378.91	76.4004	2,378.91	77.6463	2,378.91	73.3325	2,378.91	77.7565	2,378.91	72.0015	2,378.91	77.9926	2,378.91	69.6268	2,378.91	77.082	2,378.91	70.4622	2,378.91	73.1445	2,378.91	67.1263	2,378.91	66.7943	2,378.91	63.2244	2,378.91	57.5205	2,378.91	66.0084	2,378.91	59.1749	2,378.91	65.1104	2,378.91	67.8062	2,378.91	60.7558	2,378.91	71.3369	2,378.91	66.0556
2,462.4	84.4901	2,462.4	84.2769	2,462.4	82.7048	2,462.4	82.0391	2,462.4	77.7311	2,462.4	77.6071	2,462.4	61.5031	2,462.4	75.2235	2,462.4	72.5241	2,462.4	73.0097	2,462.4	76.9604	2,462.4	48.8848	2,462.4	78.7224	2,462.4	67.72	2,462.4	76.6553	2,462.4	57.4802	2,462.4	75.4468	2,462.4	60.7044	2,462.4	75.9792	2,462.4	67.4945	2,462.4	72.7436	2,462.4	64.9221	2,462.4	71.6965	2,462.4	67.3776	2,462.4	70.8362	2,462.4	68.0624	2,462.4	68.669	2,462.4	64.5488	2,462.4	72.4602	2,462.4	63.3499	2,462.4	68.8519	2,462.4	65.8133	2,462.4	66.5427	2,462.4	68.1785	2,462.4	71.2499	2,462.4	70.5685
2,548.83	86.1206	2,548.83	85.494	2,548.83	83.6382	2,548.83	81.6204	2,548.83	76.967	2,548.83	77.5683	2,548.83	58.9747	2,548.83	74.8825	2,548.83	73.4843	2,548.83	70.5699	2,548.83	78.9353	2,548.83	54.0827	2,548.83	79.1751	2,548.83	68.0619	2,548.83	76.8167	2,548.83	70.9489	2,548.83	79.2771	2,548.83	69.2044	2,548.83	78.7757	2,548.83	70.503	2,548.83	72.5699	2,548.83	67.1583	2,548.83	55.0844	2,548.83	64.1337	2,548.83	70.6513	2,548.83	69.4404	2,548.83	68.945	2,548.83	69.4047	2,548.83	70.9275	2,548.83	68.6733	2,548.83	72.8061	2,548.83	70.3397	2,548.83	62.8832	2,548.83	72.6672	2,548.83	71.8033	2,548.83	74.6141
2,639.65	86.5252	2,639.65	85.5033	2,639.65	84.5471	2,639.65	82.5011	2,639.65	78.3801	2,639.65	79.2588	2,639.65	54.5408	2,639.65	71.7553	2,639.65	76.3844	2,639.65	63.4841	2,639.65	79.7173	2,639.65	66.4843	2,639.65	78.4853	2,639.65	67.2538	2,639.65	78.0979	2,639.65	67.5794	2,639.65	80.3028	2,639.65	64.8825	2,639.65	79.2369	2,639.65	68.5154	2,639.65	74.6878	2,639.65	72.7122	2,639.65	73.3765	2,639.65	68.3164	2,639.65	70.3948	2,639.65	64.6754	2,639.65	71.4023	2,639.65	68.5925	2,639.65	64.9153	2,639.65	67.7993	2,639.65	72.9238	2,639.65	67.3423	2,639.65	59.6109	2,639.65	70.5131	2,639.65	71.8668	2,639.65	73.6637
2,731.93	85.2775	2,731.93	84.6233	2,731.93	83.3512	2,731.93	82.7584	2,731.93	77.0417	2,731.93	78.3019	2,731.93	65.1496	2,731.93	65.47	2,731.93	78.2862	2,731.93	66.6898	2,731.93	81.4767	2,731.93	62.7821	2,731.93	79.8451	2,731.93	68.639	2,731.93	78.1238	2,731.93	71.9515	2,731.93	77.6962	2,731.93	72.6936	2,731.93	77.0971	2,731.93	72.6124	2,731.93	71.1124	2,731.93	71.9584	2,731.93	73.2624	2,731.93	70.0541	2,731.93	74.9983	2,731.93	67.6182	2,731.93	74.0567	2,731.93	65.0612	2,731.93	67.9936	2,731.93	64.8308	2,731.93	70.8258	2,731.93	63.7404	2,731.93	59.5992	2,731.93	67.231	2,731.93	72.5984	2,731.93	72.2577
2,828.61	84.7154	2,828.61	83.8138	2,828.61	82.6199	2,828.61	82.1562	2,828.61	74.196	2,828.61	77.4593	2,828.61	73.5671	2,828.61	68.2664	2,828.61	80.5644	2,828.61	61.5739	2,828.61	81.0148	2,828.61	67.6199	2,828.61	79.5222	2,828.61	71.049	2,828.61	80.9272	2,828.61	73.8055	2,828.61	77.1583	2,828.61	74.3142	2,828.61	73.7885	2,828.61	70.1085	2,828.61	74.6478	2,828.61	70.6205	2,828.61	74.4015	2,828.61	69.2286	2,828.61	76.1369	2,828.61	64.5844	2,828.61	73.6999	2,828.61	67.5461	2,828.61	69.2324	2,828.61	66.6884	2,828.61	69.4936	2,828.61	61.9119	2,828.61	62.2784	2,828.61	64.946	2,828.61	69.9854	2,828.61	70.0548
2,928.22	84.9566	2,928.22	84.3026	2,928.22	82.9605	2,928.22	82.0879	2,928.22	72.9315	2,928.22	77.0248	2,928.22	75.5097	2,928.22	68.3281	2,928.22	80.822	2,928.22	68.8087	2,928.22	81.1732	2,928.22	72.3239	2,928.22	80.728	2,928.22	74.9812	2,928.22	81.1408	2,928.22	74.8687	2,928.22	75.3662	2,928.22	70.0239	2,928.22	62.4358	2,928.22	69.4893	2,928.22	76.943	2,928.22	70.0774	2,928.22	75.1751	2,928.22	71.0046	2,928.22	73.4722	2,928.22	68.3678	2,928.22	72.6958	2,928.22	63.2877	2,928.22	69.4437	2,928.22	62.8647	2,928.22	66.4336	2,928.22	41.6483	2,928.22	60.7458	2,928.22	62.8681	2,928.22	70.8298	2,928.22	68.8482
3,030.76	84.6062	3,030.76	84.5144	3,030.76	82.7711	3,030.76	82.3491	3,030.76	74.3566	3,030.76	75.2976	3,030.76	74.7204	3,030.76	68.5524	3,030.76	81.3483	3,030.76	74.0544	3,030.76	81.4135	3,030.76	75.8151	3,030.76	80.3372	3,030.76	74.5026	3,030.76	79.7265	3,030.76	71.3961	3,030.76	71.7507	3,030.76	71.9674	3,030.76	71.3827	3,030.76	73.8429	3,030.76	78.4081	3,030.76	72.6663	3,030.76	74.7073	3,030.76	69.8531	3,030.76	73.2263	3,030.76	70.6665	3,030.76	73.712	3,030.76	65.3366	3,030.76	71.9388	3,030.76	64.3662	3,030.76	60.0417	3,030.76	57.5529	3,030.76	60.7323	3,030.76	67.3779	3,030.76	72.8024	3,030.76	71.8677
3,137.7	84.3993	3,137.7	84.3314	3,137.7	82.7223	3,137.7	81.1321	3,137.7	76.4632	3,137.7	74.3686	3,137.7	71.1133	3,137.7	73.3887	3,137.7	81.3336	3,137.7	74.1447	3,137.7	81.9543	3,137.7	76.4361	3,137.7	80.648	3,137.7	71.5532	3,137.7	77.4706	3,137.7	73.1984	3,137.7	64.6501	3,137.7	76.004	3,137.7	70.7295	3,137.7	72.802	3,137.7	78.5398	3,137.7	72.7284	3,137.7	72.863	3,137.7	69.9108	3,137.7	71.2777	3,137.7	67.0534	3,137.7	73.9519	3,137.7	69.6007	3,137.7	73.5308	3,137.7	63.8619	3,137.7	66.3857	3,137.7	56.7959	3,137.7	64.0645	3,137.7	63.6159	3,137.7	73.3503	3,137.7	71.9489
3,249.02	84.3797	3,249.02	84.3449	3,249.02	81.7103	3,249.02	80.9292	3,249.02	75.8068	3,249.02	75.8816	3,249.02	72.7705	3,249.02	73.1892	3,249.02	80.585	3,249.02	75.6898	3,249.02	82.1116	3,249.02	74.8128	3,249.02	81.5343	3,249.02	76.3288	3,249.02	76.826	3,249.02	77.4059	3,249.02	72.3953	3,249.02	74.5485	3,249.02	71.9447	3,249.02	71.5845	3,249.02	77.6629	3,249.02	71.9993	3,249.02	74.5415	3,249.02	71.2765	3,249.02	69.0419	3,249.02	67.0711	3,249.02	73.0242	3,249.02	68.3549	3,249.02	72.4318	3,249.02	69.8268	3,249.02	68.129	3,249.02	58.3581	3,249.02	62.8139	3,249.02	61.5466	3,249.02	72.9083	3,249.02	70.2793
3,363.28	84.1791	3,363.28	83.6789	3,363.28	81.6699	3,363.28	80.4903	3,363.28	73.9652	3,363.28	75.6904	3,363.28	75.7814	3,363.28	74.391	3,363.28	79.9736	3,363.28	74.3313	3,363.28	80.8463	3,363.28	75.7555	3,363.28	82.1518	3,363.28	77.1675	3,363.28	79.6624	3,363.28	74.2653	3,363.28	78.059	3,363.28	71.1191	3,363.28	76.6457	3,363.28	72.8556	3,363.28	77.23	3,363.28	72.065	3,363.28	73.4551	3,363.28	70.4377	3,363.28	71.0434	3,363.28	69.6702	3,363.28	72.5224	3,363.28	65.5829	3,363.28	72.8359	3,363.28	68.4849	3,363.28	66.9698	3,363.28	65.3852	3,363.28	62.2824	3,363.28	54.2132	3,363.28	70.8871	3,363.28	65.6918
3,481.93	83.5528	3,481.93	83.3891	3,481.93	80.9972	3,481.93	80.3768	3,481.93	73.1009	3,481.93	76.2455	3,481.93	76.6589	3,481.93	73.5382	3,481.93	79.7009	3,481.93	75.3355	3,481.93	79.4183	3,481.93	77.5379	3,481.93	81.5188	3,481.93	76.1464	3,481.93	79.6394	3,481.93	73.7488	3,481.93	78.6602	3,481.93	74.8656	3,481.93	77.7232	3,481.93	72.8151	3,481.93	77.323	3,481.93	71.3127	3,481.93	73.6356	3,481.93	69.9711	3,481.93	67.8743	3,481.93	69.9474	3,481.93	71.3833	3,481.93	69.4461	3,481.93	70.8664	3,481.93	68.5974	3,481.93	66.6073	3,481.93	64.4809	3,481.93	62.4802	3,481.93	57.7005	3,481.93	71.5617	3,481.93	67.6462
3,604.98	83.0963	3,604.98	82.5574	3,604.98	79.3852	3,604.98	80.5822	3,604.98	69.9784	3,604.98	77.592	3,604.98	73.9948	3,604.98	75.556	3,604.98	77.8749	3,604.98	78.258	3,604.98	79.2422	3,604.98	77.6588	3,604.98	81.1602	3,604.98	76.1377	3,604.98	79.7804	3,604.98	76.0305	3,604.98	79.1881	3,604.98	74.2313	3,604.98	77.3249	3,604.98	71.2878	3,604.98	74.7231	3,604.98	71.6263	3,604.98	70.554	3,604.98	69.3748	3,604.98	66.7941	3,604.98	69.1737	3,604.98	67.7532	3,604.98	69.692	3,604.98	67.524	3,604.98	70.387	3,604.98	65.2102	3,604.98	65.0019	3,604.98	61.597	3,604.98	60.9135	3,604.98	70.5002	3,604.98	66.9452
3,732.42	82.8496	3,732.42	82.492	3,732.42	80.3248	3,732.42	80.4272	3,732.42	68.8986	3,732.42	75.0815	3,732.42	74.7743	3,732.42	76.079	3,732.42	77.7362	3,732.42	78.6882	3,732.42	79.6754	3,732.42	78.0232	3,732.42	82.0069	3,732.42	77.1062	3,732.42	79.7515	3,732.42	73.9663	3,732.42	76.9951	3,732.42	71.3599	3,732.42	74.5495	3,732.42	70.7686	3,732.42	72.4253	3,732.42	70.6202	3,732.42	67.0354	3,732.42	67.565	3,732.42	67.496	3,732.42	65.1614	3,732.42	67.2193	3,732.42	67.5277	3,732.42	68.6889	3,732.42	68.6552	3,732.42	61.1841	3,732.42	66.1857	3,732.42	57.9091	3,732.42	59.3597	3,732.42	70.4056	3,732.42	64.2841
3,864.26	81.1811	3,864.26	81.9288	3,864.26	79.4635	3,864.26	79.9799	3,864.26	73.3962	3,864.26	73.4102	3,864.26	69.2721	3,864.26	77.1458	3,864.26	76.951	3,864.26	77.9452	3,864.26	79.968	3,864.26	77.4317	3,864.26	81.0901	3,864.26	75.6394	3,864.26	79.5159	3,864.26	70.8295	3,864.26	76.5234	3,864.26	72.5723	3,864.26	68.7864	3,864.26	70.4555	3,864.26	60.1775	3,864.26	68.1874	3,864.26	65.5323	3,864.26	67.6333	3,864.26	67.6929	3,864.26	66.9374	3,864.26	65.0941	3,864.26	67.1761	3,864.26	68.9741	3,864.26	67.4117	3,864.26	59.5991	3,864.26	65.5569	3,864.26	58.6742	3,864.26	57.8393	3,864.26	69.0846	3,864.26	63.7848
4,000.49	81.0513	4,000.49	81.6175	4,000.49	78.118	4,000.49	78.6918	4,000.49	74.2523	4,000.49	74.7365	4,000.49	70.7459	4,000.49	78.4441	4,000.49	76.2244	4,000.49	77.4194	4,000.49	81.3848	4,000.49	76.963	4,000.49	79.9419	4,000.49	74.3049	4,000.49	77.6759	4,000.49	74.2605	4,000.49	76.717	4,000.49	73.3141	4,000.49	70.5557	4,000.49	70.4194	4,000.49	69.2904	4,000.49	69.969	4,000.49	68.7914	4,000.49	66.5292	4,000.49	64.353	4,000.49	64.4261	4,000.49	65.3422	4,000.49	68.2595	4,000.49	64.7999	4,000.49	66.9283	4,000.49	63.507	4,000.49	67.1235	4,000.49	57.9627	4,000.49	59.8058	4,000.49	67.9113	4,000.49	60.5452
4,141.11	80.9933	4,141.11	82.6313	4,141.11	78.9911	4,141.11	79.2296	4,141.11	74.8637	4,141.11	77.0882	4,141.11	72.6284	4,141.11	77.8603	4,141.11	77.077	4,141.11	76.9886	4,141.11	80.721	4,141.11	75.1661	4,141.11	79.2301	4,141.11	76.4455	4,141.11	76.711	4,141.11	74.5101	4,141.11	75.8857	4,141.11	69.6502	4,141.11	63.2608	4,141.11	70.9946	4,141.11	71.1956	4,141.11	68.9184	4,141.11	72.009	4,141.11	68.7508	4,141.11	69.4943	4,141.11	62.552	4,141.11	64.1033	4,141.11	67.8738	4,141.11	66.6254	4,141.11	66.312	4,141.11	61.7977	4,141.11	65.7331	4,141.11	59.2529	4,141.11	63.7052	4,141.11	68.9776	4,141.11	63.0011
4,287.6	80.7457	4,287.6	81.5289	4,287.6	78.3327	4,287.6	77.1794	4,287.6	78.3033	4,287.6	76.7023	4,287.6	77.0554	4,287.6	78.2408	4,287.6	78.7024	4,287.6	77.201	4,287.6	80.9801	4,287.6	78.6566	4,287.6	78.7853	4,287.6	76.8182	4,287.6	76.2765	4,287.6	73.3458	4,287.6	73.9099	4,287.6	74.1973	4,287.6	65.7158	4,287.6	71.5892	4,287.6	71.1127	4,287.6	67.52	4,287.6	72.0911	4,287.6	68.09	4,287.6	69.5143	4,287.6	63.7547	4,287.6	65.1385	4,287.6	67.5808	4,287.6	67.63	4,287.6	67.8879	4,287.6	57.922	4,287.6	63.1048	4,287.6	61.565	4,287.6	62.5042	4,287.6	67.6242	4,287.6	65.1801
4,438.48	81.0481	4,438.48	80.7568	4,438.48	77.48	4,438.48	75.3842	4,438.48	79.1111	4,438.48	78.1488	4,438.48	80.0898	4,438.48	78.4757	4,438.48	79.7849	4,438.48	79.9692	4,438.48	80.517	4,438.48	77.9929	4,438.48	79.2466	4,438.48	76.4586	4,438.48	77.075	4,438.48	75.0558	4,438.48	68.8495	4,438.48	70.2846	4,438.48	65.3123	4,438.48	68.2973	4,438.48	69.7637	4,438.48	67.9251	4,438.48	67.4824	4,438.48	66.7289	4,438.48	70.1618	4,438.48	64.2201	4,438.48	67.803	4,438.48	64.4532	4,438.48	65.7972	4,438.48	66.8063	4,438.48	50.8803	4,438.48	64.959	4,438.48	61.0526	4,438.48	51.4324	4,438.48	66.3258	4,438.48	65.0285
4,595.21	80.858	4,595.21	79.4733	4,595.21	75.4424	4,595.21	79.0187	4,595.21	78.5187	4,595.21	78.4833	4,595.21	80.3214	4,595.21	78.9025	4,595.21	79.9191	4,595.21	79.7795	4,595.21	80.3442	4,595.21	77.9949	4,595.21	78.6183	4,595.21	76.5952	4,595.21	74.8426	4,595.21	69.8183	4,595.21	66.4292	4,595.21	68.8314	4,595.21	67.0847	4,595.21	68.723	4,595.21	68.8495	4,595.21	65.5941	4,595.21	53.6254	4,595.21	63.794	4,595.21	67.6491	4,595.21	63.8506	4,595.21	67.4653	4,595.21	65.5987	4,595.21	66.1539	4,595.21	63.1317	4,595.21	48.7698	4,595.21	63.4803	4,595.21	60.9889	4,595.21	49.132	4,595.21	64.5591	4,595.21	64.0917
4,756.35	80.6918	4,756.35	78.7827	4,756.35	77.7132	4,756.35	78.3296	4,756.35	75.818	4,756.35	74.9833	4,756.35	80.2804	4,756.35	79.7454	4,756.35	80.0823	4,756.35	79.5448	4,756.35	79.7095	4,756.35	76.5167	4,756.35	77.273	4,756.35	71.9387	4,756.35	72.2794	4,756.35	70.7398	4,756.35	68.564	4,756.35	68.3279	4,756.35	66.9287	4,756.35	65.869	4,756.35	66.838	4,756.35	63.99	4,756.35	53.3772	4,756.35	62.2706	4,756.35	64.9794	4,756.35	57.1291	4,756.35	63.967	4,756.35	61.9871	4,756.35	65.8674	4,756.35	62.8674	4,756.35	53.6903	4,756.35	56.3188	4,756.35	60.3888	4,756.35	50.7482	4,756.35	63.3849	4,756.35	61.8267
4,924.8	80.096	4,924.8	79.6233	4,924.8	77.5397	4,924.8	77.8779	4,924.8	75.2968	4,924.8	77.9522	4,924.8	79.8911	4,924.8	80.7575	4,924.8	80.1322	4,924.8	77.8032	4,924.8	78.6973	4,924.8	74.2464	4,924.8	75.284	4,924.8	72.587	4,924.8	68.8572	4,924.8	68.8704	4,924.8	67.4413	4,924.8	67.6532	4,924.8	65.1826	4,924.8	66.203	4,924.8	64.7173	4,924.8	64.4031	4,924.8	60.5895	4,924.8	63.303	4,924.8	63.7881	4,924.8	62.0419	4,924.8	63.7257	4,924.8	60.5052	4,924.8	64.561	4,924.8	62.7133	4,924.8	54.8344	4,924.8	59.4107	4,924.8	61.8213	4,924.8	49.0476	4,924.8	65.0356	4,924.8	57.4724
5,097.66	79.6596	5,097.66	79.6359	5,097.66	78.728	5,097.66	78.3307	5,097.66	76.6777	5,097.66	78.1128	5,097.66	80.0414	5,097.66	79.5011	5,097.66	77.6474	5,097.66	75.7708	5,097.66	76.8895	5,097.66	75.1244	5,097.66	72.5694	5,097.66	70.0879	5,097.66	74.663	5,097.66	71.1213	5,097.66	71.9994	5,097.66	68.6007	5,097.66	66.708	5,097.66	66.1193	5,097.66	67.0177	5,097.66	62.9086	5,097.66	60.5151	5,097.66	62.2469	5,097.66	50.7124	5,097.66	61.3507	5,097.66	62.6095	5,097.66	61.5883	5,097.66	63.9616	5,097.66	63.7464	5,097.66	53.3753	5,097.66	58.3751	5,097.66	60.5816	5,097.66	42.0378	5,097.66	62.9135	5,097.66	60.8407
5,277.83	79.0372	5,277.83	80.2091	5,277.83	78.3511	5,277.83	76.2585	5,277.83	77.1539	5,277.83	78.9318	5,277.83	80.3671	5,277.83	78.5338	5,277.83	77.4038	5,277.83	74.9389	5,277.83	73.2933	5,277.83	73.4398	5,277.83	72.8425	5,277.83	72.9928	5,277.83	77.6495	5,277.83	69.9865	5,277.83	75.0481	5,277.83	66.7831	5,277.83	70.1184	5,277.83	65.6306	5,277.83	69.21	5,277.83	63.6017	5,277.83	55.1208	5,277.83	63.9937	5,277.83	59.1829	5,277.83	60.5419	5,277.83	63.6792	5,277.83	59.3941	5,277.83	61.9333	5,277.83	63.9217	5,277.83	54.567	5,277.83	57.3328	5,277.83	62.2782	5,277.83	51.4542	5,277.83	62.7822	5,277.83	59.767
5,463.87	80.6649	5,463.87	80.1954	5,463.87	77.3872	5,463.87	76.8301	5,463.87	77.4238	5,463.87	79.7361	5,463.87	80.9452	5,463.87	77.6732	5,463.87	78.0993	5,463.87	75.4044	5,463.87	71.2777	5,463.87	73.956	5,463.87	74.0537	5,463.87	69.3387	5,463.87	76.6165	5,463.87	69.1188	5,463.87	71.3016	5,463.87	68.3825	5,463.87	72.7086	5,463.87	64.1352	5,463.87	71.3637	5,463.87	64.2573	5,463.87	55.4518	5,463.87	61.754	5,463.87	58.6684	5,463.87	60.7422	5,463.87	65.7028	5,463.87	61.583	5,463.87	58.4447	5,463.87	63.8839	5,463.87	57.0115	5,463.87	58.1811	5,463.87	60.6989	5,463.87	52.951	5,463.87	60.1875	5,463.87	58.3386
5,657.23	80.8933	5,657.23	80.3493	5,657.23	77.9988	5,657.23	78.4154	5,657.23	77.1239	5,657.23	78.9676	5,657.23	81.1316	5,657.23	76.4822	5,657.23	78.2767	5,657.23	76.4119	5,657.23	70.1102	5,657.23	72.9625	5,657.23	77.0902	5,657.23	72.1108	5,657.23	77.033	5,657.23	68.5049	5,657.23	69.6898	5,657.23	65.5133	5,657.23	72.4008	5,657.23	65.6328	5,657.23	70.1013	5,657.23	64.2906	5,657.23	40.0235	5,657.23	63.4449	5,657.23	55.2951	5,657.23	59.1397	5,657.23	65.2525	5,657.23	58.1087	5,657.23	61.1071	5,657.23	62.1335	5,657.23	54.9746	5,657.23	60.1364	5,657.23	60.5134	5,657.23	47.3658	5,657.23	61.802	5,657.23	57.6337
5,856.45	80.6184	5,856.45	79.8224	5,856.45	79.8959	5,856.45	78.4011	5,856.45	77.3635	5,856.45	79.1058	5,856.45	80.4271	5,856.45	77.7477	5,856.45	77.4476	5,856.45	75.3332	5,856.45	66.9506	5,856.45	73.1581	5,856.45	78.6125	5,856.45	70.8018	5,856.45	75.775	5,856.45	68.4511	5,856.45	70.9859	5,856.45	68.9655	5,856.45	67.8363	5,856.45	64.8324	5,856.45	62.8911	5,856.45	65.0756	5,856.45	53.8818	5,856.45	62.6035	5,856.45	47.1874	5,856.45	58.8863	5,856.45	62.7505	5,856.45	60.8071	5,856.45	59.0077	5,856.45	60.0324	5,856.45	55.4219	5,856.45	60.733	5,856.45	58.6585	5,856.45	52.6258	5,856.45	63.0875	5,856.45	56.1517
6,062.99	81.1786	6,062.99	80.327	6,062.99	78.516	6,062.99	78.8152	6,062.99	77.7808	6,062.99	78.7434	6,062.99	79.6443	6,062.99	77.1391	6,062.99	76.0571	6,062.99	75.6882	6,062.99	68.5205	6,062.99	72.7576	6,062.99	77.4858	6,062.99	71.3912	6,062.99	75.9652	6,062.99	66.3701	6,062.99	72.3792	6,062.99	65.4924	6,062.99	63.9959	6,062.99	64.6408	6,062.99	59.9588	6,062.99	63.4592	6,062.99	56.8107	6,062.99	61.9626	6,062.99	57.8291	6,062.99	58.5173	6,062.99	58.4798	6,062.99	59.6997	6,062.99	59.8447	6,062.99	62.9572	6,062.99	59.2942	6,062.99	60.0332	6,062.99	55.7969	6,062.99	51.09	6,062.99	62.1089	6,062.99	54.7875
6,276.86	81.3722	6,276.86	80.052	6,276.86	78.6311	6,276.86	78.4894	6,276.86	76.8172	6,276.86	78.5754	6,276.86	80.0469	6,276.86	77.7331	6,276.86	75.905	6,276.86	74.6637	6,276.86	69.1422	6,276.86	73.0894	6,276.86	76.2473	6,276.86	68.3235	6,276.86	73.2403	6,276.86	67.7154	6,276.86	71.9032	6,276.86	65.6914	6,276.86	65.1042	6,276.86	62.4615	6,276.86	63.403	6,276.86	61.0193	6,276.86	62.1107	6,276.86	61.5955	6,276.86	56.4393	6,276.86	59.3487	6,276.86	59.9131	6,276.86	57.2421	6,276.86	58.4249	6,276.86	61.4114	6,276.86	59.9641	6,276.86	62.1903	6,276.86	54.3998	6,276.86	58.6466	6,276.86	60.6715	6,276.86	57.2975
6,498.05	81.4495	6,498.05	79.6081	6,498.05	79.3967	6,498.05	78.7775	6,498.05	76.9572	6,498.05	79.0168	6,498.05	79.0672	6,498.05	77.521	6,498.05	75.2954	6,498.05	74.2328	6,498.05	70.6523	6,498.05	72.2218	6,498.05	75.621	6,498.05	68.6715	6,498.05	72.1274	6,498.05	67.1463	6,498.05	73.5365	6,498.05	66.5046	6,498.05	66.8547	6,498.05	63.5722	6,498.05	64.6553	6,498.05	62.1254	6,498.05	62.7712	6,498.05	61.2752	6,498.05	59.4614	6,498.05	61.4376	6,498.05	55.8875	6,498.05	57.5522	6,498.05	52.2469	6,498.05	61.34	6,498.05	57.4635	6,498.05	59.6329	6,498.05	53.6515	6,498.05	59.3485	6,498.05	61.0569	6,498.05	54.004
6,726.56	81.7328	6,726.56	79.1703	6,726.56	80.3993	6,726.56	78.9688	6,726.56	76.595	6,726.56	79.1481	6,726.56	79.9518	6,726.56	77.0619	6,726.56	75.7413	6,726.56	73.8205	6,726.56	69.3682	6,726.56	72.4302	6,726.56	72.6316	6,726.56	69.8102	6,726.56	73.7121	6,726.56	70.3839	6,726.56	71.8232	6,726.56	66.4296	6,726.56	66.0656	6,726.56	64.6927	6,726.56	60.7943	6,726.56	61.4667	6,726.56	57.5935	6,726.56	60.5601	6,726.56	60.0668	6,726.56	61.5694	6,726.56	48.3832	6,726.56	61.4195	6,726.56	53.3276	6,726.56	62.4526	6,726.56	52.0177	6,726.56	61.7239	6,726.56	56.2974	6,726.56	54.7456	6,726.56	59.1623	6,726.56	46.0465
6,963.87	80.7374	6,963.87	78.8003	6,963.87	79.7986	6,963.87	79.1044	6,963.87	77.4663	6,963.87	78.8414	6,963.87	79.5126	6,963.87	76.2165	6,963.87	77.2675	6,963.87	74.5838	6,963.87	70.9468	6,963.87	73.4357	6,963.87	73.8462	6,963.87	70.9634	6,963.87	75.7907	6,963.87	69.3228	6,963.87	71.0685	6,963.87	66.9164	6,963.87	64.3609	6,963.87	64.83	6,963.87	58.5919	6,963.87	63.3016	6,963.87	41.9954	6,963.87	61.2327	6,963.87	59.7956	6,963.87	60.8575	6,963.87	42.4748	6,963.87	58.3963	6,963.87	47.3646	6,963.87	62.3195	6,963.87	46.8584	6,963.87	61.5517	6,963.87	55.5417	6,963.87	58.5713	6,963.87	55.0917	6,963.87	45.1232
7,209.96	80.0896	7,209.96	78.3261	7,209.96	80.1879	7,209.96	79.0722	7,209.96	77.8127	7,209.96	77.8536	7,209.96	80.0055	7,209.96	75.7841	7,209.96	77.8019	7,209.96	75.1635	7,209.96	71.771	7,209.96	73.9252	7,209.96	72.2014	7,209.96	70.9131	7,209.96	76.2767	7,209.96	68.3501	7,209.96	70.5533	7,209.96	63.7637	7,209.96	67.7521	7,209.96	62.9628	7,209.96	64.6899	7,209.96	61.4742	7,209.96	54.5321	7,209.96	59.3683	7,209.96	58.086	7,209.96	59.2707	7,209.96	46.4043	7,209.96	57.8393	7,209.96	57.9309	7,209.96	60.1279	7,209.96	50.7874	7,209.96	60.9948	7,209.96	50.3991	7,209.96	57.3536	7,209.96	57.6837	7,209.96	43.0576
7,464.84	79.8389	7,464.84	79.0713	7,464.84	80.2205	7,464.84	78.9848	7,464.84	78.1399	7,464.84	77.5377	7,464.84	79.7934	7,464.84	75.8396	7,464.84	78.31	7,464.84	75.5089	7,464.84	71.8968	7,464.84	73.2786	7,464.84	73.0944	7,464.84	68.6745	7,464.84	74.1463	7,464.84	68.1356	7,464.84	67.1293	7,464.84	65.058	7,464.84	66.1431	7,464.84	61.7012	7,464.84	63.1966	7,464.84	60.7371	7,464.84	62.6296	7,464.84	59.4616	7,464.84	58.4959	7,464.84	58.8586	7,464.84	52.8864	7,464.84	56.3953	7,464.84	52.8214	7,464.84	59.5986	7,464.84	55.3292	7,464.84	60.0974	7,464.84	54.5378	7,464.84	57.9293	7,464.84	53.4344	7,464.84	44.5438
7,727.05	79.9421	7,727.05	78.5543	7,727.05	79.9532	7,727.05	78.5528	7,727.05	77.6759	7,727.05	77.515	7,727.05	79.3259	7,727.05	76.0979	7,727.05	77.8864	7,727.05	75.2246	7,727.05	72.5879	7,727.05	72.1962	7,727.05	71.9127	7,727.05	68.4442	7,727.05	69.0201	7,727.05	67.1116	7,727.05	63.3123	7,727.05	63.9239	7,727.05	63.9053	7,727.05	62.1587	7,727.05	64.8609	7,727.05	60.7071	7,727.05	64.5356	7,727.05	60.6373	7,727.05	58.2401	7,727.05	58.2997	7,727.05	53.0257	7,727.05	57.6856	7,727.05	51.5258	7,727.05	57.3899	7,727.05	59.9008	7,727.05	61.0059	7,727.05	51.7759	7,727.05	56.7908	7,727.05	55.9743	7,727.05	45.203
7,999.51	79.7354	7,999.51	78.7037	7,999.51	79.8633	7,999.51	78.8164	7,999.51	77.2246	7,999.51	76.8595	7,999.51	78.1557	7,999.51	76.4067	7,999.51	75.9463	7,999.51	74.7052	7,999.51	73.8836	7,999.51	72.1073	7,999.51	68.2719	7,999.51	69.2801	7,999.51	62.1967	7,999.51	68.0752	7,999.51	64.5251	7,999.51	63.2588	7,999.51	62.254	7,999.51	61.4156	7,999.51	65.172	7,999.51	60.3346	7,999.51	65.5593	7,999.51	59.0359	7,999.51	55.2274	7,999.51	58.3364	7,999.51	54.9172	7,999.51	57.3088	7,999.51	42.4002	7,999.51	56.8185	7,999.51	54.4183	7,999.51	61.8565	7,999.51	53.119	7,999.51	57.5059	7,999.51	57.9272	7,999.51	40.8522
8,282.23	79.6194	8,282.23	78.3095	8,282.23	79.8005	8,282.23	78.5197	8,282.23	77.3429	8,282.23	76.7123	8,282.23	76.7529	8,282.23	76.4094	8,282.23	75.775	8,282.23	74.351	8,282.23	75.594	8,282.23	72.1544	8,282.23	63.0377	8,282.23	68.3602	8,282.23	69.5805	8,282.23	67.1346	8,282.23	67.8835	8,282.23	62.1704	8,282.23	60.7225	8,282.23	61.2095	8,282.23	64.0147	8,282.23	60.4254	8,282.23	64.8718	8,282.23	58.4427	8,282.23	50.859	8,282.23	56.0555	8,282.23	49.0831	8,282.23	57.1521	8,282.23	37.4844	8,282.23	57.9987	8,282.23	58.0815	8,282.23	58.9839	8,282.23	43.0806	8,282.23	57.052	8,282.23	56.6979	8,282.23	45.0155
8,573.73	79.2833	8,573.73	78.8018	8,573.73	79.5231	8,573.73	78.325	8,573.73	76.9492	8,573.73	76.4835	8,573.73	75.4463	8,573.73	76.3712	8,573.73	76.7577	8,573.73	74.2332	8,573.73	74.5462	8,573.73	71.827	8,573.73	56.3254	8,573.73	67.0753	8,573.73	73.4392	8,573.73	66.1653	8,573.73	68.7594	8,573.73	61.8605	8,573.73	62.1265	8,573.73	60.416	8,573.73	60.534	8,573.73	58.0636	8,573.73	61.3471	8,573.73	58.1543	8,573.73	49.3275	8,573.73	56.053	8,573.73	47.2268	8,573.73	56.5738	8,573.73	48.9925	8,573.73	57.9541	8,573.73	58.7005	8,573.73	60.2123	8,573.73	37.9125	8,573.73	56.8109	8,573.73	55.6763	8,573.73	48.9393
8,876.95	78.4597	8,876.95	78.0379	8,876.95	79.7342	8,876.95	77.5893	8,876.95	77.3002	8,876.95	76.5496	8,876.95	76.6688	8,876.95	76.183	8,876.95	77.7001	8,876.95	73.9784	8,876.95	72.8097	8,876.95	71.0605	8,876.95	67.1972	8,876.95	67.5925	8,876.95	74.3348	8,876.95	65.5957	8,876.95	64.8613	8,876.95	63.2363	8,876.95	61.36	8,876.95	61.3745	8,876.95	62.2176	8,876.95	58.9885	8,876.95	60.1422	8,876.95	59.0318	8,876.95	51.7538	8,876.95	57.0721	8,876.95	56.8592	8,876.95	57.1743	8,876.95	48.6	8,876.95	58.3806	8,876.95	57.3368	8,876.95	59.1322	8,876.95	37.1692	8,876.95	58.4045	8,876.95	54.0628	8,876.95	45.0326
9,188.96	78.8322	9,188.96	78.1904	9,188.96	79.1101	9,188.96	77.166	9,188.96	76.6165	9,188.96	76.5091	9,188.96	77.7573	9,188.96	75.7624	9,188.96	78.072	9,188.96	73.7018	9,188.96	68.3583	9,188.96	70.1422	9,188.96	70.2681	9,188.96	69.2701	9,188.96	72.4922	9,188.96	66.7868	9,188.96	64.6043	9,188.96	63.5821	9,188.96	62.3436	9,188.96	60.5752	9,188.96	59.5954	9,188.96	59.6271	9,188.96	60.8986	9,188.96	58.5075	9,188.96	48.6481	9,188.96	57.566	9,188.96	54.2476	9,188.96	57.9634	9,188.96	45.4473	9,188.96	57.8419	9,188.96	48.4283	9,188.96	60.4234	9,188.96	40.3596	9,188.96	59.0953	9,188.96	49.1939	9,188.96	47.6876
9,514.16	78.9357	9,514.16	78.5107	9,514.16	78.7729	9,514.16	77.1313	9,514.16	77.1002	9,514.16	76.1587	9,514.16	77.9949	9,514.16	75.3029	9,514.16	77.1688	9,514.16	73.303	9,514.16	68.3785	9,514.16	70.3635	9,514.16	70.7564	9,514.16	68.9079	9,514.16	68.0772	9,514.16	66.3359	9,514.16	63.6768	9,514.16	62.2834	9,514.16	56.2752	9,514.16	57.1807	9,514.16	46.9103	9,514.16	58.6276	9,514.16	56.6917	9,514.16	56.3475	9,514.16	48.0944	9,514.16	56.0683	9,514.16	56.0496	9,514.16	55.0858	9,514.16	43.0228	9,514.16	56.046	9,514.16	53.4697	9,514.16	60.5431	9,514.16	36.0149	9,514.16	57.5637	9,514.16	49.8365	9,514.16	42.0841
9,849.61	79.0912	9,849.61	78.8221	9,849.61	79.2771	9,849.61	77.3177	9,849.61	77.5477	9,849.61	76.1028	9,849.61	75.9552	9,849.61	74.9485	9,849.61	74.8839	9,849.61	73.6736	9,849.61	72.1458	9,849.61	71.1239	9,849.61	69.789	9,849.61	67.8627	9,849.61	63.9199	9,849.61	66.4121	9,849.61	64.7187	9,849.61	62.5148	9,849.61	56.6889	9,849.61	59.3904	9,849.61	54.2631	9,849.61	57.7575	9,849.61	57.2784	9,849.61	56.381	9,849.61	53.9188	9,849.61	56.4367	9,849.61	53.6291	9,849.61	51.3359	9,849.61	44.1355	9,849.61	55.0495	9,849.61	53.2285	9,849.61	59.516	9,849.61	48.4599	9,849.61	55.6948	9,849.61	45.8249	9,849.61	47.5709
10,196.8	79.5649	10,196.8	79.4461	10,196.8	79.3737	10,196.8	77.9202	10,196.8	77.9782	10,196.8	76.3483	10,196.8	74.2354	10,196.8	74.8197	10,196.8	71.4522	10,196.8	73.5975	10,196.8	74.9184	10,196.8	71.3558	10,196.8	68.9203	10,196.8	68.326	10,196.8	62.7617	10,196.8	66.2883	10,196.8	64.7066	10,196.8	61.1444	10,196.8	60.0214	10,196.8	59.2421	10,196.8	56.4103	10,196.8	57.1285	10,196.8	54.2753	10,196.8	56.5864	10,196.8	45.7273	10,196.8	54.3927	10,196.8	55.363	10,196.8	51.4308	10,196.8	48.6456	10,196.8	52.3097	10,196.8	51.9801	10,196.8	56.6921	10,196.8	53.5139	10,196.8	56.1317	10,196.8	38.0335	10,196.8	48.7364
10,555.7	80.2376	10,555.7	80.0896	10,555.7	79.8052	10,555.7	78.8342	10,555.7	79.3223	10,555.7	76.4468	10,555.7	76.3018	10,555.7	74.8349	10,555.7	70.9944	10,555.7	73.3323	10,555.7	75.513	10,555.7	70.8318	10,555.7	67.4694	10,555.7	66.8161	10,555.7	64.7211	10,555.7	63.5477	10,555.7	63.3503	10,555.7	59.0125	10,555.7	62.5521	10,555.7	56.8199	10,555.7	57.2415	10,555.7	53.8273	10,555.7	54.4922	10,555.7	53.7079	10,555.7	49.1988	10,555.7	52.1312	10,555.7	47.5205	10,555.7	51.0541	10,555.7	44.5228	10,555.7	50.7036	10,555.7	54.2243	10,555.7	53.9165	10,555.7	48.5895	10,555.7	54.1433	10,555.7	46.3769	10,555.7	47.1871
10,927.7	80.8086	10,927.7	80.9058	10,927.7	80.2965	10,927.7	79.6794	10,927.7	80.1597	10,927.7	76.6594	10,927.7	78.4704	10,927.7	74.93	10,927.7	75.0321	10,927.7	73.129	10,927.7	74.6313	10,927.7	68.9146	10,927.7	65.9985	10,927.7	64.7514	10,927.7	64.3683	10,927.7	61.8663	10,927.7	60.5941	10,927.7	56.9155	10,927.7	59.244	10,927.7	51.684	10,927.7	57.6462	10,927.7	52.1284	10,927.7	57.191	10,927.7	48.7962	10,927.7	49.038	10,927.7	51.3586	10,927.7	38.6096	10,927.7	51.2738	10,927.7	41.3893	10,927.7	46.481	10,927.7	54.1641	10,927.7	52.0581	10,927.7	44.3642	10,927.7	52.078	10,927.7	42.4547	10,927.7	48.3526
11,313	81.8292	11,313	81.8561	11,313	80.855	11,313	80.4395	11,313	79.5393	11,313	77.5086	11,313	79.0388	11,313	75.2079	11,313	76.7886	11,313	72.6047	11,313	72.4119	11,313	67.3468	11,313	66.9227	11,313	63.9714	11,313	61.986	11,313	59.2109	11,313	59.7631	11,313	54.2578	11,313	50.0345	11,313	48.1301	11,313	56.6817	11,313	51.1113	11,313	54.5236	11,313	44.421	11,313	43.3307	11,313	50.4421	11,313	35.9398	11,313	47.32	11,313	45.2557	11,313	38.7416	11,313	48.4756	11,313	51.9776	11,313	41.2859	11,313	51.6095	11,313	33.3558	11,313	45.7827
11,712.9	82.4382	11,712.9	83.0154	11,712.9	81.758	11,712.9	80.9551	11,712.9	79.5825	11,712.9	77.9388	11,712.9	78.7331	11,712.9	75.2003	11,712.9	76.1772	11,712.9	72.217	11,712.9	70.1306	11,712.9	66.7136	11,712.9	63.9128	11,712.9	62.4756	11,712.9	59.7974	11,712.9	58.5291	11,712.9	58.3614	11,712.9	53.4809	11,712.9	52.9251	11,712.9	47.9675	11,712.9	57.1289	11,712.9	50.8335	11,712.9	52.8276	11,712.9	45.2695	11,712.9	42.6407	11,712.9	47.5228	11,712.9	39.4392	11,712.9	47.6611	11,712.9	43.7138	11,712.9	43.3035	11,712.9	40.6128	11,712.9	51.4411	11,712.9	35.5292	11,712.9	50.2034	11,712.9	40.9101	11,712.9	42.6061
12,126	82.8667	12,126	83.4944	12,126	82.0935	12,126	80.9802	12,126	79.3878	12,126	77.8369	12,126	77.7233	12,126	74.7033	12,126	75.2346	12,126	71.5276	12,126	68.5204	12,126	64.9613	12,126	63.3318	12,126	61.5305	12,126	59.5592	12,126	56.5828	12,126	53.8361	12,126	51.7047	12,126	39.9376	12,126	47.0622	12,126	56.65	12,126	48.8841	12,126	51.8029	12,126	46.0626	12,126	43.7468	12,126	46.0701	12,126	35.7649	12,126	45.5806	12,126	37.7592	12,126	42.9183	12,126	41.2542	12,126	47.6323	12,126	40.1641	12,126	47.1373	12,126	32.2717	12,126	38.4486
12,553.7	82.8727	12,553.7	83.3421	12,553.7	82.3065	12,553.7	80.6234	12,553.7	79.7152	12,553.7	77.4449	12,553.7	77.0571	12,553.7	74.1353	12,553.7	73.9011	12,553.7	70.3809	12,553.7	68.8611	12,553.7	63.1035	12,553.7	63.9232	12,553.7	60.1434	12,553.7	55.4859	12,553.7	54.5734	12,553.7	53.3489	12,553.7	51.5354	12,553.7	38.6678	12,553.7	46.7535	12,553.7	56.2868	12,553.7	47.5439	12,553.7	48.7776	12,553.7	41.3915	12,553.7	45.2007	12,553.7	46.99	12,553.7	30.1712	12,553.7	46.1141	12,553.7	35.0391	12,553.7	43.4256	12,553.7	43.7527	12,553.7	48.7207	12,553.7	37.9003	12,553.7	48.1144	12,553.7	32.5236	12,553.7	42.5183
12,996.1	82.6727	12,996.1	82.97	12,996.1	82.2095	12,996.1	80.1176	12,996.1	80.1291	12,996.1	76.8652	12,996.1	77.5495	12,996.1	73.3153	12,996.1	72.2842	12,996.1	69.3196	12,996.1	68.8182	12,996.1	61.8476	12,996.1	63.424	12,996.1	59.4029	12,996.1	55.1392	12,996.1	54.5375	12,996.1	54.9071	12,996.1	51.268	12,996.1	46.5129	12,996.1	47.1007	12,996.1	54.5347	12,996.1	47.6566	12,996.1	46.2509	12,996.1	40.7061	12,996.1	49.4974	12,996.1	46.7387	12,996.1	37.7597	12,996.1	46.1094	12,996.1	39.1349	12,996.1	40.7656	12,996.1	46.8311	12,996.1	46.6812	12,996.1	38.344	12,996.1	49.8256	12,996.1	35.3085	12,996.1	44.2798
13,454.6	82.1474	13,454.6	82.3629	13,454.6	81.6573	13,454.6	79.4692	13,454.6	79.9494	13,454.6	76.4897	13,454.6	77.7326	13,454.6	72.2229	13,454.6	71.9665	13,454.6	68.5023	13,454.6	68.5427	13,454.6	60.6403	13,454.6	62.0717	13,454.6	59.9351	13,454.6	55.3466	13,454.6	54.8856	13,454.6	59.1068	13,454.6	50.176	13,454.6	51.8194	13,454.6	46.8094	13,454.6	54.7085	13,454.6	47.2382	13,454.6	46.258	13,454.6	42.5499	13,454.6	47.642	13,454.6	46.3964	13,454.6	28.5258	13,454.6	46.1382	13,454.6	37.2454	13,454.6	40.2277	13,454.6	45.305	13,454.6	47.5343	13,454.6	31.1042	13,454.6	49.563	13,454.6	40.8903	13,454.6	41.6278
13,929.2	81.5922	13,929.2	81.9834	13,929.2	81.262	13,929.2	79.0813	13,929.2	79.6926	13,929.2	75.9659	13,929.2	76.5615	13,929.2	71.5523	13,929.2	72.5289	13,929.2	67.1957	13,929.2	66.7446	13,929.2	61.2849	13,929.2	63.0328	13,929.2	58.7329	13,929.2	54.1962	13,929.2	54.4454	13,929.2	59.8156	13,929.2	47.5912	13,929.2	53.6366	13,929.2	46.5048	13,929.2	54.2584	13,929.2	44.1069	13,929.2	51.0135	13,929.2	42.8054	13,929.2	51.5381	13,929.2	44.1474	13,929.2	44.9342	13,929.2	44.6791	13,929.2	43.2427	13,929.2	42.1112	13,929.2	39.8821	13,929.2	47.5395	13,929.2	35.8878	13,929.2	48.468	13,929.2	38.5675	13,929.2	43.6145
14,419.9	81.3797	14,419.9	81.8465	14,419.9	80.5914	14,419.9	79.1644	14,419.9	79.2809	14,419.9	75.4699	14,419.9	76.7243	14,419.9	70.8208	14,419.9	70.9672	14,419.9	67.0654	14,419.9	66.8165	14,419.9	60.8243	14,419.9	61.7387	14,419.9	58.203	14,419.9	59.1453	14,419.9	53.5522	14,419.9	58.8487	14,419.9	48.2433	14,419.9	57.0558	14,419.9	46.2697	14,419.9	53.3875	14,419.9	44.3409	14,419.9	51.07	14,419.9	43.9687	14,419.9	48.5767	14,419.9	42.1899	14,419.9	44.4322	14,419.9	43.9692	14,419.9	41.8938	14,419.9	43.0796	14,419.9	44.5117	14,419.9	46.3741	14,419.9	27.9701	14,419.9	45.3801	14,419.9	25.5559	14,419.9	44.8063
14,928.2	81.141	14,928.2	81.6178	14,928.2	80.0028	14,928.2	78.9294	14,928.2	79.1531	14,928.2	75.2771	14,928.2	76.8689	14,928.2	70.3247	14,928.2	69.5708	14,928.2	67.7007	14,928.2	67.8961	14,928.2	59.8058	14,928.2	63.2353	14,928.2	58.3743	14,928.2	59.4204	14,928.2	52.7929	14,928.2	59.3178	14,928.2	50.2878	14,928.2	54.9537	14,928.2	47.0614	14,928.2	55.3699	14,928.2	42.5284	14,928.2	53.8374	14,928.2	43.6605	14,928.2	51.0344	14,928.2	44.3693	14,928.2	27.1469	14,928.2	43.8661	14,928.2	32.7306	14,928.2	45.383	14,928.2	38.8239	14,928.2	47.6369	14,928.2	37.2086	14,928.2	46.5171	14,928.2	39.0229	14,928.2	45.4822
15,455.6	80.7855	15,455.6	81.089	15,455.6	79.9352	15,455.6	78.686	15,455.6	78.0049	15,455.6	74.8519	15,455.6	75.8811	15,455.6	70.3212	15,455.6	70.3554	15,455.6	67.7668	15,455.6	66.9686	15,455.6	59.3457	15,455.6	64.5522	15,455.6	59.7976	15,455.6	58.1576	15,455.6	56.1141	15,455.6	60.773	15,455.6	51.5864	15,455.6	52.7562	15,455.6	49.5763	15,455.6	55.6326	15,455.6	44.021	15,455.6	55.0698	15,455.6	46.4979	15,455.6	52.1716	15,455.6	44.3954	15,455.6	43.4238	15,455.6	45.2322	15,455.6	39.0751	15,455.6	46.6619	15,455.6	46.2737	15,455.6	48.3873	15,455.6	38.3138	15,455.6	46.322	15,455.6	33.543	15,455.6	48.1796
16,000.5	80.2934	16,000.5	80.6657	16,000.5	79.8251	16,000.5	78.4256	16,000.5	77.1633	16,000.5	74.4013	16,000.5	74.8427	16,000.5	70.4119	16,000.5	70.5877	16,000.5	67.5528	16,000.5	66.4189	16,000.5	60.8844	16,000.5	64.6213	16,000.5	62.0057	16,000.5	59.9878	16,000.5	56.3808	16,000.5	58.5954	16,000.5	51.7117	16,000.5	56.2453	16,000.5	48.8703	16,000.5	56.5886	16,000.5	42.9243	16,000.5	52.6624	16,000.5	47.3804	16,000.5	52.6466	16,000.5	42.5581	16,000.5	39.5586	16,000.5	43.3608	16,000.5	38.134	16,000.5	47.3306	16,000.5	44.1515	16,000.5	49.6935	16,000.5	34.9416	16,000.5	47.7758	16,000.5	26.4499	16,000.5	47.3298
16,564.5	79.8502	16,564.5	80.3135	16,564.5	79.7485	16,564.5	77.9342	16,564.5	76.7931	16,564.5	74.1758	16,564.5	74.9038	16,564.5	70.3509	16,564.5	69.1735	16,564.5	66.8021	16,564.5	65.9436	16,564.5	63.0853	16,564.5	63.3037	16,564.5	62.0593	16,564.5	57.6024	16,564.5	56.2988	16,564.5	57.5372	16,564.5	51.9378	16,564.5	56.3339	16,564.5	48.2897	16,564.5	56.6685	16,564.5	39.9965	16,564.5	52.8488	16,564.5	46.7301	16,564.5	51.1376	16,564.5	40.4024	16,564.5	40.799	16,564.5	43.7747	16,564.5	39.6808	16,564.5	46.212	16,564.5	45.5374	16,564.5	50.3466	16,564.5	39.6978	16,564.5	47.8271	16,564.5	35.9051	16,564.5	46.1665
17,148.9	79.1978	17,148.9	79.8252	17,148.9	79.2942	17,148.9	77.3783	17,148.9	76.7279	17,148.9	74.1831	17,148.9	75.0271	17,148.9	69.8365	17,148.9	68.4888	17,148.9	67.1473	17,148.9	65.8217	17,148.9	63.4715	17,148.9	62.6457	17,148.9	62.1829	17,148.9	56.8115	17,148.9	54.5018	17,148.9	59.5557	17,148.9	51.7739	17,148.9	56.9716	17,148.9	48.8111	17,148.9	55.8403	17,148.9	43.7455	17,148.9	53.8892	17,148.9	45.9826	17,148.9	51.8357	17,148.9	37.4064	17,148.9	42.4046	17,148.9	44.1842	17,148.9	41.5105	17,148.9	43.9566	17,148.9	44.9596	17,148.9	49.4806	17,148.9	38.3971	17,148.9	45.1559	17,148.9	35.5299	17,148.9	44.3557
17,752.4	78.6052	17,752.4	79.2561	17,752.4	78.3414	17,752.4	76.883	17,752.4	76.0852	17,752.4	74.4251	17,752.4	74.258	17,752.4	69.0879	17,752.4	68.6652	17,752.4	67.8961	17,752.4	65.5129	17,752.4	63.6202	17,752.4	63.4947	17,752.4	61.1594	17,752.4	59.5535	17,752.4	54.9641	17,752.4	58.347	17,752.4	52.1416	17,752.4	58.4184	17,752.4	48.2418	17,752.4	55.4989	17,752.4	42.9051	17,752.4	53.3903	17,752.4	45.7218	17,752.4	50.1947	17,752.4	29.4737	17,752.4	42.8612	17,752.4	44.88	17,752.4	27.3344	17,752.4	44.0387	17,752.4	41.2432	17,752.4	50.2723	17,752.4	41.173	17,752.4	45.6285	17,752.4	33.4699	17,752.4	39.9643
18,379.4	78.3227	18,379.4	78.9776	18,379.4	77.8714	18,379.4	76.6143	18,379.4	75.0846	18,379.4	74.5015	18,379.4	74.109	18,379.4	69.133	18,379.4	69.1096	18,379.4	68.3352	18,379.4	65.5089	18,379.4	63.4874	18,379.4	62.6773	18,379.4	61.1739	18,379.4	59.8794	18,379.4	55.6159	18,379.4	57.3687	18,379.4	53.1881	18,379.4	55.7296	18,379.4	47.7645	18,379.4	55.9994	18,379.4	45.2589	18,379.4	55.4888	18,379.4	45.6009	18,379.4	50.1491	18,379.4	19.3439	18,379.4	43.9187	18,379.4	45.2085	18,379.4	42.829	18,379.4	44.7145	18,379.4	43.9571	18,379.4	50.7128	18,379.4	41.8767	18,379.4	47.1159	18,379.4	41.598	18,379.4	41.6486
19,026.9	79.5068	19,026.9	79.8771	19,026.9	78.9297	19,026.9	77.4332	19,026.9	75.9446	19,026.9	74.706	19,026.9	74.0171	19,026.9	70.0155	19,026.9	68.6194	19,026.9	68.3196	19,026.9	62.7518	19,026.9	62.9583	19,026.9	60.5226	19,026.9	61.3909	19,026.9	57.6123	19,026.9	56.0078	19,026.9	57.0544	19,026.9	52.7429	19,026.9	53.5993	19,026.9	47.7187	19,026.9	54.5012	19,026.9	44.7054	19,026.9	55.4356	19,026.9	43.9916	19,026.9	49.6467	19,026.9	25.1442	19,026.9	44.1704	19,026.9	43.4767	19,026.9	40.888	19,026.9	44.0658	19,026.9	45.3975	19,026.9	50.6724	19,026.9	43.0752	19,026.9	46.7996	19,026.9	45.0786	19,026.9	41.5052
19,697.8	80.4165	19,697.8	80.655	19,697.8	79.8512	19,697.8	78.0445	19,697.8	77.2268	19,697.8	74.5724	19,697.8	73.8856	19,697.8	70.1731	19,697.8	66.6655	19,697.8	67.2408	19,697.8	62.5815	19,697.8	61.3317	19,697.8	56.5255	19,697.8	60.3786	19,697.8	55.8913	19,697.8	54.9142	19,697.8	49.5808	19,697.8	50.7065	19,697.8	53.3596	19,697.8	44.768	19,697.8	48.6992	19,697.8	41.9566	19,697.8	56.4698	19,697.8	41.8914	19,697.8	49.2206	19,697.8	22.8997	19,697.8	45.1787	19,697.8	40.0564	19,697.8	39.0049	19,697.8	42.0279	19,697.8	42.9753	19,697.8	49.9829	19,697.8	38.2119	19,697.8	46.6231	19,697.8	44.811	19,697.8	40.2167
19,999.5	80.6254	19,999.5	81.0321	19,999.5	80.0247	19,999.5	78.1807	19,999.5	77.3911	19,999.5	74.65	19,999.5	73.9114	19,999.5	70.0145	19,999.5	66.5133	19,999.5	66.2411	19,999.5	62.7468	19,999.5	60.701	19,999.5	56.8406	19,999.5	59.56	19,999.5	56.4265	19,999.5	53.4345	19,999.5	48.8125	19,999.5	49.3602	19,999.5	52.5519	19,999.5	41.1703	19,999.5	51.2409	19,999.5	40.398	19,999.5	54.4302	19,999.5	42.2067	19,999.5	52.055	19,999.5	33.8266	19,999.5	33.7259	19,999.5	43.8471	19,999.5	46.7432	19,999.5	45.5395	19,999.5	41.6089	19,999.5	52.8839	19,999.5	45.9384	19,999.5	50.2807	19,999.5	48.461	19,999.5	39.7858
