"SPL Vertical"
"On-Axis"		"10°"		"-10°"		"20°"		"-20°"		"30°"		"-30°"		"40°"		"-40°"		"50°"		"-50°"		"60°"		"-60°"		"70°"		"-70°"		"80°"		"-80°"		"90°"		"-90°"		"100°"		"-100°"		"110°"		"-110°"		"120°"		"-120°"		"130°"		"-130°"		"140°"		"-140°"		"150°"		"-150°"		"160°"		"-160°"		"170°"		"-170°"		"180°"
"Frequency / Hz"	"Sound Pressure Level / dB (re 20 µPa/V)  [2.83  V @ 1. m]"	"Frequency / Hz"	"Sound Pressure Level / dB (re 20 µPa/V)  [2.83  V @ 1. m]"	"Frequency / Hz"	"Sound Pressure Level / dB (re 20 µPa/V)  [2.83  V @ 1. m]"	"Frequency / Hz"	"Sound Pressure Level / dB (re 20 µPa/V)  [2.83  V @ 1. m]"	"Frequency / Hz"	"Sound Pressure Level / dB (re 20 µPa/V)  [2.83  V @ 1. m]"	"Frequency / Hz"	"Sound Pressure Level / dB (re 20 µPa/V)  [2.83  V @ 1. m]"	"Frequency / Hz"	"Sound Pressure Level / dB (re 20 µPa/V)  [2.83  V @ 1. m]"	"Frequency / Hz"	"Sound Pressure Level / dB (re 20 µPa/V)  [2.83  V @ 1. m]"	"Frequency / Hz"	"Sound Pressure Level / dB (re 20 µPa/V)  [2.83  V @ 1. m]"	"Frequency / Hz"	"Sound Pressure Level / dB (re 20 µPa/V)  [2.83  V @ 1. m]"	"Frequency / Hz"	"Sound Pressure Level / dB (re 20 µPa/V)  [2.83  V @ 1. m]"	"Frequency / Hz"	"Sound Pressure Level / dB (re 20 µPa/V)  [2.83  V @ 1. m]"	"Frequency / Hz"	"Sound Pressure Level / dB (re 20 µPa/V)  [2.83  V @ 1. m]"	"Frequency / Hz"	"Sound Pressure Level / dB (re 20 µPa/V)  [2.83  V @ 1. m]"	"Frequency / Hz"	"Sound Pressure Level / dB (re 20 µPa/V)  [2.83  V @ 1. m]"	"Frequency / Hz"	"Sound Pressure Level / dB (re 20 µPa/V)  [2.83  V @ 1. m]"	"Frequency / Hz"	"Sound Pressure Level / dB (re 20 µPa/V)  [2.83  V @ 1. m]"	"Frequency / Hz"	"Sound Pressure Level / dB (re 20 µPa/V)  [2.83  V @ 1. m]"	"Frequency / Hz"	"Sound Pressure Level / dB (re 20 µPa/V)  [2.83  V @ 1. m]"	"Frequency / Hz"	"Sound Pressure Level / dB (re 20 µPa/V)  [2.83  V @ 1. m]"	"Frequency / Hz"	"Sound Pressure Level / dB (re 20 µPa/V)  [2.83  V @ 1. m]"	"Frequency / Hz"	"Sound Pressure Level / dB (re 20 µPa/V)  [2.83  V @ 1. m]"	"Frequency / Hz"	"Sound Pressure Level / dB (re 20 µPa/V)  [2.83  V @ 1. m]"	"Frequency / Hz"	"Sound Pressure Level / dB (re 20 µPa/V)  [2.83  V @ 1. m]"	"Frequency / Hz"	"Sound Pressure Level / dB (re 20 µPa/V)  [2.83  V @ 1. m]"	"Frequency / Hz"	"Sound Pressure Level / dB (re 20 µPa/V)  [2.83  V @ 1. m]"	"Frequency / Hz"	"Sound Pressure Level / dB (re 20 µPa/V)  [2.83  V @ 1. m]"	"Frequency / Hz"	"Sound Pressure Level / dB (re 20 µPa/V)  [2.83  V @ 1. m]"	"Frequency / Hz"	"Sound Pressure Level / dB (re 20 µPa/V)  [2.83  V @ 1. m]"	"Frequency / Hz"	"Sound Pressure Level / dB (re 20 µPa/V)  [2.83  V @ 1. m]"	"Frequency / Hz"	"Sound Pressure Level / dB (re 20 µPa/V)  [2.83  V @ 1. m]"	"Frequency / Hz"	"Sound Pressure Level / dB (re 20 µPa/V)  [2.83  V @ 1. m]"	"Frequency / Hz"	"Sound Pressure Level / dB (re 20 µPa/V)  [2.83  V @ 1. m]"	"Frequency / Hz"	"Sound Pressure Level / dB (re 20 µPa/V)  [2.83  V @ 1. m]"	"Frequency / Hz"	"Sound Pressure Level / dB (re 20 µPa/V)  [2.83  V @ 1. m]"	"Frequency / Hz"	"Sound Pressure Level / dB (re 20 µPa/V)  [2.83  V @ 1. m]"
20.5078	43.0555	20.5078	42.7483	20.5078	43.3231	20.5078	42.4095	20.5078	43.5484	20.5078	42.0537	20.5078	43.7315	20.5078	41.704	20.5078	43.8737	20.5078	41.3908	20.5078	43.9765	20.5078	41.1493	20.5078	44.042	20.5078	41.0121	20.5078	44.0733	20.5078	41.0013	20.5078	44.0758	20.5078	41.1211	20.5078	44.0569	20.5078	41.3562	20.5078	44.026	20.5078	41.6764	20.5078	43.9926	20.5078	42.0448	20.5078	43.9639	20.5078	42.4254	20.5078	43.9433	20.5078	42.7879	20.5078	43.9288	20.5078	43.11	20.5078	43.9131	20.5078	43.3777	20.5078	43.8845	20.5078	43.585	20.5078	43.8291	20.5078	43.7332
21.9727	49.8944	21.9727	49.8076	21.9727	49.9908	21.9727	49.7311	21.9727	50.0951	21.9727	49.6651	21.9727	50.2039	21.9727	49.6092	21.9727	50.3128	21.9727	49.5634	21.9727	50.4164	21.9727	49.5276	21.9727	50.509	21.9727	49.5023	21.9727	50.5854	21.9727	49.4881	21.9727	50.6414	21.9727	49.486	21.9727	50.6743	21.9727	49.4968	21.9727	50.6827	21.9727	49.5215	21.9727	50.6667	21.9727	49.5606	21.9727	50.6273	21.9727	49.6144	21.9727	50.5667	21.9727	49.6825	21.9727	50.4879	21.9727	49.764	21.9727	50.3944	21.9727	49.8572	21.9727	50.2904	21.9727	49.9598	21.9727	50.1804	21.9727	50.0688
23.4375	51.3441	23.4375	51.2381	23.4375	51.446	23.4375	51.1293	23.4375	51.5417	23.4375	51.0184	23.4375	51.628	23.4375	50.9058	23.4375	51.7008	23.4375	50.7921	23.4375	51.7556	23.4375	50.6784	23.4375	51.7881	23.4375	50.5662	23.4375	51.7946	23.4375	50.4579	23.4375	51.7724	23.4375	50.3566	23.4375	51.7202	23.4375	50.2659	23.4375	51.6382	23.4375	50.1899	23.4375	51.5278	23.4375	50.1331	23.4375	51.3922	23.4375	50.1	23.4375	51.2359	23.4375	50.0949	23.4375	51.065	23.4375	50.1211	23.4375	50.887	23.4375	50.1804	23.4375	50.7102	23.4375	50.2727	23.4375	50.5435	23.4375	50.3954
24.9023	50.9524	24.9023	50.8324	24.9023	51.0668	24.9023	50.709	24.9023	51.1726	24.9023	50.5839	24.9023	51.266	24.9023	50.4585	24.9023	51.343	24.9023	50.3341	24.9023	51.3991	24.9023	50.2122	24.9023	51.4303	24.9023	50.0946	24.9023	51.4332	24.9023	49.9836	24.9023	51.4056	24.9023	49.8818	24.9023	51.3465	24.9023	49.7924	24.9023	51.2563	24.9023	49.7192	24.9023	51.1372	24.9023	49.6662	24.9023	50.9927	24.9023	49.6375	24.9023	50.8278	24.9023	49.6369	24.9023	50.6489	24.9023	49.6676	24.9023	50.4637	24.9023	49.7314	24.9023	50.2807	24.9023	49.8281	24.9023	50.1085	24.9023	49.9554
26.3672	52.1602	26.3672	52.0629	26.3672	52.2522	26.3672	51.9626	26.3672	52.3363	26.3672	51.8609	26.3672	52.4088	26.3672	51.7591	26.3672	52.4663	26.3672	51.6582	26.3672	52.5048	26.3672	51.5591	26.3672	52.5212	26.3672	51.4631	26.3672	52.5128	26.3672	51.3716	26.3672	52.4781	26.3672	51.2865	26.3672	52.4168	26.3672	51.2099	26.3672	52.33	26.3672	51.1445	26.3672	52.22	26.3672	51.0933	26.3672	52.0908	26.3672	51.0595	26.3672	51.9472	26.3672	51.0466	26.3672	51.7956	26.3672	51.0574	26.3672	51.6428	26.3672	51.0943	26.3672	51.4962	26.3672	51.1583	26.3672	51.3628	26.3672	51.2486
27.832	52.9743	27.832	52.8922	27.832	53.0527	27.832	52.8083	27.832	53.1251	27.832	52.7239	27.832	53.1889	27.832	52.6404	27.832	53.241	27.832	52.5589	27.832	53.2785	27.832	52.4805	27.832	53.2983	27.832	52.4063	27.832	53.2982	27.832	52.3376	27.832	53.2765	27.832	52.2756	27.832	53.2328	27.832	52.2219	27.832	53.1676	27.832	52.1781	27.832	53.0828	27.832	52.1461	27.832	52.9816	27.832	52.1279	27.832	52.868	27.832	52.1255	27.832	52.7472	27.832	52.1411	27.832	52.625	27.832	52.1761	27.832	52.5072	27.832	52.2313	27.832	52.3995	27.832	52.3064
29.2969	54.302	29.2969	54.2335	29.2969	54.3657	29.2969	54.1617	29.2969	54.4226	29.2969	54.0879	29.2969	54.4707	29.2969	54.0135	29.2969	54.5077	29.2969	53.9397	29.2969	54.5314	29.2969	53.8677	29.2969	54.5396	29.2969	53.7988	29.2969	54.5306	29.2969	53.7343	29.2969	54.5037	29.2969	53.6757	29.2969	54.4586	29.2969	53.6243	29.2969	54.3965	29.2969	53.582	29.2969	54.3193	29.2969	53.5503	29.2969	54.2298	29.2969	53.531	29.2969	54.1319	29.2969	53.5258	29.2969	54.0297	29.2969	53.5361	29.2969	53.9278	29.2969	53.563	29.2969	53.8308	29.2969	53.607	29.2969	53.7429	29.2969	53.6674
30.7617	55.4256	30.7617	55.3501	30.7617	55.4921	30.7617	55.268	30.7617	55.5478	30.7617	55.1818	30.7617	55.5909	30.7617	55.094	30.7617	55.6202	30.7617	55.0072	30.7617	55.6345	30.7617	54.9239	30.7617	55.6334	30.7617	54.8463	30.7617	55.6165	30.7617	54.7765	30.7617	55.5841	30.7617	54.7164	30.7617	55.5367	30.7617	54.6675	30.7617	55.4757	30.7617	54.6312	30.7617	55.4026	30.7617	54.6086	30.7617	55.3197	30.7617	54.6006	30.7617	55.2298	30.7617	54.6078	30.7617	55.1358	30.7617	54.6304	30.7617	55.0411	30.7617	54.6682	30.7617	54.9492	30.7617	54.7205	30.7617	54.8632	30.7617	54.7862
32.2266	55.5193	32.2266	55.4598	32.2266	55.5771	32.2266	55.3999	32.2266	55.6316	32.2266	55.3412	32.2266	55.6809	32.2266	55.2847	32.2266	55.7231	32.2266	55.2318	32.2266	55.7563	32.2266	55.1836	32.2266	55.7785	32.2266	55.1412	32.2266	55.7882	32.2266	55.1058	32.2266	55.7847	32.2266	55.0782	32.2266	55.7675	32.2266	55.0593	32.2266	55.7371	32.2266	55.0496	32.2266	55.6948	32.2266	55.0496	32.2266	55.6424	32.2266	55.0595	32.2266	55.582	32.2266	55.0795	32.2266	55.5163	32.2266	55.1093	32.2266	55.4479	32.2266	55.1485	32.2266	55.3795	32.2266	55.1963	32.2266	55.3134	32.2266	55.2517
33.6914	56.2287	33.6914	56.1765	33.6914	56.2781	33.6914	56.1228	33.6914	56.3233	33.6914	56.0689	33.6914	56.3628	33.6914	56.0161	33.6914	56.3952	33.6914	55.9658	33.6914	56.419	33.6914	55.9194	33.6914	56.4329	33.6914	55.878	33.6914	56.4358	33.6914	55.843	33.6914	56.4272	33.6914	55.8153	33.6914	56.4071	33.6914	55.7958	33.6914	56.3763	33.6914	55.7851	33.6914	56.3359	33.6914	55.7835	33.6914	56.2878	33.6914	55.7911	33.6914	56.234	33.6914	55.8076	33.6914	56.1767	33.6914	55.8328	33.6914	56.118	33.6914	55.866	33.6914	56.0601	33.6914	55.9063	33.6914	56.0045	33.6914	55.9528
35.1562	57.4676	35.1562	57.4168	35.1562	57.5166	35.1562	57.3658	35.1562	57.5625	35.1562	57.3159	35.1562	57.6035	35.1562	57.2684	35.1562	57.6381	35.1562	57.2243	35.1562	57.6647	35.1562	57.1849	35.1562	57.6821	35.1562	57.151	35.1562	57.6892	35.1562	57.1235	35.1562	57.6855	35.1562	57.1031	35.1562	57.6711	35.1562	57.0903	35.1562	57.6464	35.1562	57.0854	35.1562	57.6127	35.1562	57.0887	35.1562	57.5713	35.1562	57.1001	35.1562	57.524	35.1562	57.1194	35.1562	57.4727	35.1562	57.1461	35.1562	57.4194	35.1562	57.1798	35.1562	57.3659	35.1562	57.2196	35.1562	57.3138	35.1562	57.2646
36.6211	58.3584	36.6211	58.3078	36.6211	58.4057	36.6211	58.2554	36.6211	58.4479	36.6211	58.2027	36.6211	58.4837	36.6211	58.1514	36.6211	58.5115	36.6211	58.1028	36.6211	58.5302	36.6211	58.0583	36.6211	58.5387	36.6211	58.019	36.6211	58.5366	36.6211	57.986	36.6211	58.5237	36.6211	57.9599	36.6211	58.5004	36.6211	57.9414	36.6211	58.4677	36.6211	57.9309	36.6211	58.4268	36.6211	57.9285	36.6211	58.3796	36.6211	57.9342	36.6211	58.328	36.6211	57.9477	36.6211	58.2742	36.6211	57.9688	36.6211	58.22	36.6211	57.9969	36.6211	58.1673	36.6211	58.0315	36.6211	58.1176	36.6211	58.072
38.0859	59.0135	38.0859	58.9694	38.0859	59.0559	38.0859	58.925	38.0859	59.0953	38.0859	58.8817	38.0859	59.1306	38.0859	58.8408	38.0859	59.1606	38.0859	58.8037	38.0859	59.1845	38.0859	58.7716	38.0859	59.2014	38.0859	58.7455	38.0859	59.2108	38.0859	58.7263	38.0859	59.2125	38.0859	58.7145	38.0859	59.2064	38.0859	58.7105	38.0859	59.1929	38.0859	58.7144	38.0859	59.1725	38.0859	58.7259	38.0859	59.146	38.0859	58.7445	38.0859	59.1145	38.0859	58.7697	38.0859	59.0788	38.0859	58.8004	38.0859	59.0399	38.0859	58.8356	38.0859	58.999	38.0859	58.8743	38.0859	58.9571	38.0859	58.9151
39.5508	59.5157	39.5508	59.4714	39.5508	59.5575	39.5508	59.426	39.5508	59.5953	39.5508	59.3813	39.5508	59.6281	39.5508	59.3388	39.5508	59.6547	39.5508	59.3001	39.5508	59.6746	39.5508	59.2667	39.5508	59.6872	39.5508	59.2398	39.5508	59.6923	39.5508	59.2204	39.5508	59.69	39.5508	59.2091	39.5508	59.6808	39.5508	59.2061	39.5508	59.6651	39.5508	59.2114	39.5508	59.644	39.5508	59.2246	39.5508	59.6183	39.5508	59.2448	39.5508	59.589	39.5508	59.271	39.5508	59.5568	39.5508	59.302	39.5508	59.5224	39.5508	59.3366	39.5508	59.4863	39.5508	59.3733	39.5508	59.449	39.5508	59.4111
41.0156	60.1374	41.0156	60.0986	41.0156	60.1776	41.0156	60.0625	41.0156	60.218	41.0156	60.0302	41.0156	60.2573	41.0156	60.0029	41.0156	60.2944	41.0156	59.9816	41.0156	60.3281	41.0156	59.967	41.0156	60.3573	41.0156	59.9598	41.0156	60.3814	41.0156	59.9603	41.0156	60.3996	41.0156	59.9687	41.0156	60.4117	41.0156	59.9848	41.0156	60.4177	41.0156	60.008	41.0156	60.4178	41.0156	60.0376	41.0156	60.4123	41.0156	60.0725	41.0156	60.4014	41.0156	60.1112	41.0156	60.3854	41.0156	60.1523	41.0156	60.3644	41.0156	60.194	41.0156	60.3385	41.0156	60.2347	41.0156	60.3079	41.0156	60.273
42.4805	61.1671	42.4805	61.1426	42.4805	61.1874	42.4805	61.1148	42.4805	61.2027	42.4805	61.0846	42.4805	61.2123	42.4805	61.0526	42.4805	61.2151	42.4805	61.0197	42.4805	61.2103	42.4805	60.9864	42.4805	61.197	42.4805	60.9533	42.4805	61.1746	42.4805	60.9206	42.4805	61.1429	42.4805	60.8886	42.4805	61.1024	42.4805	60.8575	42.4805	61.0542	42.4805	60.8272	42.4805	61.0001	42.4805	60.7982	42.4805	60.9429	42.4805	60.771	42.4805	60.8857	42.4805	60.7465	42.4805	60.8321	42.4805	60.7261	42.4805	60.7854	42.4805	60.7116	42.4805	60.7481	42.4805	60.7049	42.4805	60.7221	42.4805	60.7079
43.9453	61.7999	43.9453	61.7659	43.9453	61.8328	43.9453	61.732	43.9453	61.8634	43.9453	61.6992	43.9453	61.8905	43.9453	61.6688	43.9453	61.9131	43.9453	61.6416	43.9453	61.9303	43.9453	61.6183	43.9453	61.9413	43.9453	61.5997	43.9453	61.9459	43.9453	61.586	43.9453	61.9437	43.9453	61.5775	43.9453	61.935	43.9453	61.5741	43.9453	61.9202	43.9453	61.5756	43.9453	61.8999	43.9453	61.5818	43.9453	61.8751	43.9453	61.5922	43.9453	61.847	43.9453	61.6064	43.9453	61.8167	43.9453	61.6241	43.9453	61.7853	43.9453	61.645	43.9453	61.7541	43.9453	61.6688	43.9453	61.7238	43.9453	61.6952
45.4102	62.2498	45.4102	62.212	45.4102	62.287	45.4102	62.1753	45.4102	62.3224	45.4102	62.1411	45.4102	62.3546	45.4102	62.1107	45.4102	62.3825	45.4102	62.0852	45.4102	62.4053	45.4102	62.0655	45.4102	62.4223	45.4102	62.0522	45.4102	62.4333	45.4102	62.0458	45.4102	62.4382	45.4102	62.0462	45.4102	62.4373	45.4102	62.0533	45.4102	62.4311	45.4102	62.0665	45.4102	62.4201	45.4102	62.0851	45.4102	62.405	45.4102	62.1083	45.4102	62.3864	45.4102	62.1351	45.4102	62.3649	45.4102	62.1643	45.4102	62.3408	45.4102	62.1949	45.4102	62.3145	45.4102	62.226	45.4102	62.2863	45.4102	62.2566
46.875	62.8125	46.875	62.7761	46.875	62.8491	46.875	62.7413	46.875	62.8841	46.875	62.7098	46.875	62.9162	46.875	62.6828	46.875	62.9443	46.875	62.6613	46.875	62.9673	46.875	62.6459	46.875	62.985	46.875	62.6371	46.875	62.997	46.875	62.6348	46.875	63.0034	46.875	62.6388	46.875	63.0046	46.875	62.6488	46.875	63.001	46.875	62.6643	46.875	62.9931	46.875	62.6844	46.875	62.9815	46.875	62.7085	46.875	62.9667	46.875	62.7355	46.875	62.949	46.875	62.7644	46.875	62.9285	46.875	62.7943	46.875	62.9056	46.875	62.8241	46.875	62.8803	46.875	62.853
48.3398	63.625	48.3398	63.6021	48.3398	63.6438	48.3398	63.5757	48.3398	63.6577	48.3398	63.5466	48.3398	63.6663	48.3398	63.5159	48.3398	63.6692	48.3398	63.4844	48.3398	63.6661	48.3398	63.4531	48.3398	63.6568	48.3398	63.423	48.3398	63.6413	48.3398	63.3947	48.3398	63.6199	48.3398	63.3691	48.3398	63.5931	48.3398	63.3465	48.3398	63.5618	48.3398	63.3276	48.3398	63.5273	48.3398	63.3125	48.3398	63.491	48.3398	63.3016	48.3398	63.4545	48.3398	63.2951	48.3398	63.4195	48.3398	63.2931	48.3398	63.3873	48.3398	63.296	48.3398	63.359	48.3398	63.3039	48.3398	63.3354	48.3398	63.317
51.2695	64.6809	51.2695	64.6475	51.2695	64.7156	51.2695	64.6164	51.2695	64.7501	51.2695	64.5888	51.2695	64.7832	51.2695	64.5655	51.2695	64.8135	51.2695	64.5471	51.2695	64.84	51.2695	64.5342	51.2695	64.8618	51.2695	64.527	51.2695	64.8782	51.2695	64.5255	51.2695	64.8887	51.2695	64.5296	51.2695	64.8934	51.2695	64.5391	51.2695	64.8922	51.2695	64.5534	51.2695	64.8855	51.2695	64.5719	51.2695	64.8737	51.2695	64.594	51.2695	64.8575	51.2695	64.6189	51.2695	64.8373	51.2695	64.6459	51.2695	64.8141	51.2695	64.6742	51.2695	64.7884	51.2695	64.7032	51.2695	64.7609	51.2695	64.7323
52.7344	64.9232	52.7344	64.8942	52.7344	64.9517	52.7344	64.866	52.7344	64.9786	52.7344	64.84	52.7344	65.0033	52.7344	64.8175	52.7344	65.025	52.7344	64.7997	52.7344	65.0436	52.7344	64.7876	52.7344	65.0593	52.7344	64.7819	52.7344	65.072	52.7344	64.7829	52.7344	65.0821	52.7344	64.7905	52.7344	65.0897	52.7344	64.8045	52.7344	65.095	52.7344	64.8241	52.7344	65.0977	52.7344	64.8484	52.7344	65.0978	52.7344	64.8763	52.7344	65.0948	52.7344	64.9064	52.7344	65.0883	52.7344	64.9373	52.7344	65.078	52.7344	64.9678	52.7344	65.0637	52.7344	64.9966	52.7344	65.0451	52.7344	65.0226
54.1992	65.2798	54.1992	65.2512	54.1992	65.3083	54.1992	65.2238	54.1992	65.3358	54.1992	65.1988	54.1992	65.3612	54.1992	65.1774	54.1992	65.3839	54.1992	65.1607	54.1992	65.4034	54.1992	65.1493	54.1992	65.4196	54.1992	65.1438	54.1992	65.4324	54.1992	65.1445	54.1992	65.4419	54.1992	65.1513	54.1992	65.4483	54.1992	65.1639	54.1992	65.4518	54.1992	65.1817	54.1992	65.4524	54.1992	65.2039	54.1992	65.4501	54.1992	65.2295	54.1992	65.4449	54.1992	65.2573	54.1992	65.4365	54.1992	65.2863	54.1992	65.4247	54.1992	65.3151	54.1992	65.4093	54.1992	65.3426	54.1992	65.3904	54.1992	65.368
55.6641	65.9384	55.6641	65.9112	55.6641	65.9656	55.6641	65.8852	55.6641	65.9917	55.6641	65.8613	55.6641	66.0155	55.6641	65.8405	55.6641	66.0361	55.6641	65.8234	55.6641	66.0526	55.6641	65.8105	55.6641	66.0645	55.6641	65.8021	55.6641	66.0715	55.6641	65.7981	55.6641	66.0735	55.6641	65.7986	55.6641	66.0709	55.6641	65.8033	55.6641	66.064	55.6641	65.8117	55.6641	66.0536	55.6641	65.8233	55.6641	66.0403	55.6641	65.8377	55.6641	66.0248	55.6641	65.8543	55.6641	66.0077	55.6641	65.8724	55.6641	65.9894	55.6641	65.8915	55.6641	65.9704	55.6641	65.9112	55.6641	65.9509	55.6641	65.9311
58.5938	67.0039	58.5938	66.9766	58.5938	67.0317	58.5938	66.9509	58.5938	67.0591	58.5938	66.9275	58.5938	67.0849	58.5938	66.9072	58.5938	67.1081	58.5938	66.8905	58.5938	67.1279	58.5938	66.8779	58.5938	67.1435	58.5938	66.8696	58.5938	67.1544	58.5938	66.8659	58.5938	67.1606	58.5938	66.8667	58.5938	67.162	58.5938	66.872	58.5938	67.1589	58.5938	66.8815	58.5938	67.1515	58.5938	66.8948	58.5938	67.1405	58.5938	66.9115	58.5938	67.1262	58.5938	66.9309	58.5938	67.1092	58.5938	66.9524	58.5938	67.0899	58.5938	66.9753	58.5938	67.0687	58.5938	66.999	58.5938	67.0462	58.5938	67.0228
60.0586	67.5524	60.0586	67.5236	60.0586	67.5792	60.0586	67.4939	60.0586	67.603	60.0586	67.4642	60.0586	67.6229	60.0586	67.4355	60.0586	67.6381	60.0586	67.4086	60.0586	67.648	60.0586	67.3845	60.0586	67.6522	60.0586	67.3635	60.0586	67.6508	60.0586	67.3465	60.0586	67.6439	60.0586	67.3336	60.0586	67.6318	60.0586	67.3252	60.0586	67.6152	60.0586	67.3214	60.0586	67.5947	60.0586	67.3221	60.0586	67.5711	60.0586	67.3273	60.0586	67.5453	60.0586	67.3368	60.0586	67.518	60.0586	67.3502	60.0586	67.4901	60.0586	67.3672	60.0586	67.4623	60.0586	67.3874	60.0586	67.4355	60.0586	67.4103
62.9883	68.2527	62.9883	68.2216	62.9883	68.2798	62.9883	68.1876	62.9883	68.3018	62.9883	68.1522	62.9883	68.3181	62.9883	68.1168	62.9883	68.3282	62.9883	68.0829	62.9883	68.3322	62.9883	68.0517	62.9883	68.3304	62.9883	68.0244	62.9883	68.3231	62.9883	68.0019	62.9883	68.311	62.9883	67.9848	62.9883	68.2948	62.9883	67.9737	62.9883	68.2753	62.9883	67.9685	62.9883	68.2532	62.9883	67.9692	62.9883	68.2291	62.9883	67.9755	62.9883	68.2035	62.9883	67.9869	62.9883	68.1769	62.9883	68.0027	62.9883	68.1497	62.9883	68.0221	62.9883	68.1224	62.9883	68.0446	62.9883	68.0953	62.9883	68.0692
64.4531	68.5661	64.4531	68.5354	64.4531	68.594	64.4531	68.503	64.4531	68.618	64.4531	68.4702	64.4531	68.6374	64.4531	68.4383	64.4531	68.6518	64.4531	68.4087	64.4531	68.6611	64.4531	68.3825	64.4531	68.6652	64.4531	68.3606	64.4531	68.6645	64.4531	68.3438	64.4531	68.6593	64.4531	68.3324	64.4531	68.65	64.4531	68.3268	64.4531	68.637	64.4531	68.327	64.4531	68.6209	64.4531	68.3326	64.4531	68.602	64.4531	68.3435	64.4531	68.5806	64.4531	68.3589	64.4531	68.5572	64.4531	68.3782	64.4531	68.5321	64.4531	68.4007	64.4531	68.5058	64.4531	68.4255	64.4531	68.4789	64.4531	68.4518
67.3828	69.357	67.3828	69.3287	67.3828	69.3842	67.3828	69.3002	67.3828	69.4093	67.3828	69.2728	67.3828	69.4316	67.3828	69.2475	67.3828	69.4504	67.3828	69.2254	67.3828	69.4655	67.3828	69.2072	67.3828	69.4767	67.3828	69.1936	67.3828	69.4839	67.3828	69.1851	67.3828	69.4874	67.3828	69.1819	67.3828	69.4871	67.3828	69.184	67.3828	69.4833	67.3828	69.1913	67.3828	69.4759	67.3828	69.2033	67.3828	69.4652	67.3828	69.2196	67.3828	69.4512	67.3828	69.2396	67.3828	69.434	67.3828	69.2625	67.3828	69.4138	67.3828	69.2876	67.3828	69.3912	67.3828	69.3138	67.3828	69.3665	67.3828	69.3404
68.8477	69.7833	68.8477	69.7546	68.8477	69.8102	68.8477	69.725	68.8477	69.8344	68.8477	69.6958	68.8477	69.8552	68.8477	69.668	68.8477	69.872	68.8477	69.6427	68.8477	69.8846	68.8477	69.6208	68.8477	69.8928	68.8477	69.603	68.8477	69.8968	68.8477	69.5898	68.8477	69.8965	68.8477	69.5818	68.8477	69.8922	68.8477	69.579	68.8477	69.8841	68.8477	69.5814	68.8477	69.8725	68.8477	69.5889	68.8477	69.8574	68.8477	69.6012	68.8477	69.8391	68.8477	69.6179	68.8477	69.818	68.8477	69.6383	68.8477	69.7943	68.8477	69.6617	68.8477	69.7687	68.8477	69.6874	68.8477	69.7417	68.8477	69.7143
71.7773	70.4769	71.7773	70.4468	71.7773	70.5055	71.7773	70.4165	71.7773	70.5319	71.7773	70.3869	71.7773	70.5552	71.7773	70.3593	71.7773	70.575	71.7773	70.3347	71.7773	70.5908	71.7773	70.3139	71.7773	70.6024	71.7773	70.2979	71.7773	70.6098	71.7773	70.2869	71.7773	70.6129	71.7773	70.2814	71.7773	70.6116	71.7773	70.2814	71.7773	70.6062	71.7773	70.2868	71.7773	70.5966	71.7773	70.2973	71.7773	70.583	71.7773	70.3125	71.7773	70.5655	71.7773	70.3319	71.7773	70.5445	71.7773	70.3548	71.7773	70.5205	71.7773	70.3805	71.7773	70.494	71.7773	70.4081	71.7773	70.4658	71.7773	70.4369
74.707	71.1907	74.707	71.1616	74.707	71.2184	74.707	71.1323	74.707	71.244	74.707	71.1039	74.707	71.2664	74.707	71.0774	74.707	71.2852	74.707	71.0539	74.707	71.3	74.707	71.0341	74.707	71.3104	74.707	71.0187	74.707	71.3166	74.707	71.008	74.707	71.3185	74.707	71.0024	74.707	71.3163	74.707	71.0019	74.707	71.3101	74.707	71.0064	74.707	71.3	74.707	71.0156	74.707	71.2862	74.707	71.0293	74.707	71.2688	74.707	71.0469	74.707	71.2483	74.707	71.068	74.707	71.2249	74.707	71.0918	74.707	71.1994	74.707	71.1177	74.707	71.1724	74.707	71.1449
77.6367	71.8284	77.6367	71.7996	77.6367	71.8565	77.6367	71.771	77.6367	71.8829	77.6367	71.7438	77.6367	71.9069	77.6367	71.7189	77.6367	71.9279	77.6367	71.6973	77.6367	71.9455	77.6367	71.6799	77.6367	71.9595	77.6367	71.6672	77.6367	71.9697	77.6367	71.6596	77.6367	71.9759	77.6367	71.6572	77.6367	71.978	77.6367	71.66	77.6367	71.9759	77.6367	71.6679	77.6367	71.9696	77.6367	71.6804	77.6367	71.959	77.6367	71.6972	77.6367	71.9443	77.6367	71.7177	77.6367	71.9256	77.6367	71.7413	77.6367	71.9035	77.6367	71.7673	77.6367	71.8785	77.6367	71.795	77.6367	71.8515	77.6367	71.8233
79.1016	72.1842	79.1016	72.1547	79.1016	72.2136	79.1016	72.126	79.1016	72.2417	79.1016	72.0991	79.1016	72.2679	79.1016	72.0752	79.1016	72.2914	79.1016	72.0552	79.1016	72.3118	79.1016	72.0397	79.1016	72.3288	79.1016	72.0294	79.1016	72.3421	79.1016	72.0245	79.1016	72.3514	79.1016	72.0252	79.1016	72.3566	79.1016	72.0313	79.1016	72.3576	79.1016	72.0425	79.1016	72.3542	79.1016	72.0584	79.1016	72.3463	79.1016	72.0785	79.1016	72.3338	79.1016	72.1021	79.1016	72.317	79.1016	72.1285	79.1016	72.2962	79.1016	72.1569	79.1016	72.2719	79.1016	72.1864	79.1016	72.2449	79.1016	72.216
82.0312	72.8958	82.0312	72.8662	82.0312	72.9241	82.0312	72.8366	82.0312	72.9502	82.0312	72.8081	82.0312	72.9733	82.0312	72.7818	82.0312	72.9931	82.0312	72.759	82.0312	73.0092	82.0312	72.7406	82.0312	73.0216	82.0312	72.7271	82.0312	73.0303	82.0312	72.7192	82.0312	73.0356	82.0312	72.717	82.0312	73.0375	82.0312	72.7205	82.0312	73.0359	82.0312	72.7295	82.0312	73.0309	82.0312	72.7437	82.0312	73.0222	82.0312	72.7624	82.0312	73.0097	82.0312	72.785	82.0312	72.9934	82.0312	72.8106	82.0312	72.9734	82.0312	72.8384	82.0312	72.9501	82.0312	72.8672	82.0312	72.9241	82.0312	72.8961
84.9609	73.5269	84.9609	73.4966	84.9609	73.5557	84.9609	73.466	84.9609	73.5821	84.9609	73.436	84.9609	73.6053	84.9609	73.4079	84.9609	73.6248	84.9609	73.3825	84.9609	73.6399	84.9609	73.3606	84.9609	73.6503	84.9609	73.3429	84.9609	73.6557	84.9609	73.3295	84.9609	73.6557	84.9609	73.3208	84.9609	73.6503	84.9609	73.3166	84.9609	73.6395	84.9609	73.3169	84.9609	73.6236	84.9609	73.3215	84.9609	73.603	84.9609	73.3303	84.9609	73.5784	84.9609	73.3432	84.9609	73.5507	84.9609	73.36	84.9609	73.5209	84.9609	73.3804	84.9609	73.4902	84.9609	73.4042	84.9609	73.4599	84.9609	73.4309
87.8906	73.9832	87.8906	73.9559	87.8906	74.0103	87.8906	73.9293	87.8906	74.0364	87.8906	73.9045	87.8906	74.0612	87.8906	73.8823	87.8906	74.0842	87.8906	73.864	87.8906	74.1054	87.8906	73.8503	87.8906	74.1248	87.8906	73.842	87.8906	74.1426	87.8906	73.8397	87.8906	74.1585	87.8906	73.8436	87.8906	74.1722	87.8906	73.8538	87.8906	74.1831	87.8906	73.8701	87.8906	74.1903	87.8906	73.892	87.8906	74.1929	87.8906	73.9187	87.8906	74.1898	87.8906	73.9492	87.8906	74.1806	87.8906	73.9825	87.8906	74.165	87.8906	74.0173	87.8906	74.1435	87.8906	74.0522	87.8906	74.1167	87.8906	74.0858
90.8203	74.5333	90.8203	74.5084	90.8203	74.5589	90.8203	74.4848	90.8203	74.5848	90.8203	74.4633	90.8203	74.6107	90.8203	74.4447	90.8203	74.6361	90.8203	74.4297	90.8203	74.661	90.8203	74.419	90.8203	74.6849	90.8203	74.4133	90.8203	74.7074	90.8203	74.4128	90.8203	74.728	90.8203	74.418	90.8203	74.746	90.8203	74.4287	90.8203	74.7606	90.8203	74.4451	90.8203	74.7706	90.8203	74.4668	90.8203	74.7753	90.8203	74.4933	90.8203	74.7737	90.8203	74.524	90.8203	74.7651	90.8203	74.558	90.8203	74.7494	90.8203	74.594	90.8203	74.727	90.8203	74.6306	90.8203	74.6988	90.8203	74.6661
95.2148	75.4991	95.2148	75.4656	95.2148	75.5314	95.2148	75.432	95.2148	75.5612	95.2148	75.3992	95.2148	75.5872	95.2148	75.3681	95.2148	75.6082	95.2148	75.3395	95.2148	75.6233	95.2148	75.3141	95.2148	75.632	95.2148	75.2925	95.2148	75.6341	95.2148	75.2754	95.2148	75.63	95.2148	75.2633	95.2148	75.6203	95.2148	75.2568	95.2148	75.6059	95.2148	75.2561	95.2148	75.5877	95.2148	75.2614	95.2148	75.5663	95.2148	75.2726	95.2148	75.5423	95.2148	75.2894	95.2148	75.516	95.2148	75.3112	95.2148	75.4878	95.2148	75.3369	95.2148	75.4581	95.2148	75.3656	95.2148	75.4272	95.2148	75.3961
98.1445	76.143	98.1445	76.11	98.1445	76.1733	98.1445	76.0754	98.1445	76.1997	98.1445	76.0404	98.1445	76.2213	98.1445	76.0061	98.1445	76.2373	98.1445	75.9737	98.1445	76.2473	98.1445	75.944	98.1445	76.2512	98.1445	75.9179	98.1445	76.249	98.1445	75.8961	98.1445	76.2411	98.1445	75.8792	98.1445	76.2279	98.1445	75.8675	98.1445	76.2098	98.1445	75.8616	98.1445	76.1875	98.1445	75.8614	98.1445	76.1614	98.1445	75.867	98.1445	76.1322	98.1445	75.8783	98.1445	76.1008	98.1445	75.8948	98.1445	76.0679	98.1445	75.9161	98.1445	76.0345	98.1445	75.9416	98.1445	76.0017	98.1445	75.9704
101.074	76.5479	101.074	76.5184	101.074	76.5754	101.074	76.488	101.074	76.6002	101.074	76.4578	101.074	76.6216	101.074	76.4292	101.074	76.6394	101.074	76.4033	101.074	76.6537	101.074	76.3811	101.074	76.6646	101.074	76.3637	101.074	76.6725	101.074	76.3517	101.074	76.6775	101.074	76.3455	101.074	76.6796	101.074	76.3456	101.074	76.6786	101.074	76.3518	101.074	76.6741	101.074	76.3641	101.074	76.6657	101.074	76.382	101.074	76.6529	101.074	76.4049	101.074	76.6355	101.074	76.4319	101.074	76.6135	101.074	76.462	101.074	76.5875	101.074	76.494	101.074	76.5581	101.074	76.5265
105.469	77.262	105.469	77.2316	105.469	77.2889	105.469	77.199	105.469	77.3117	105.469	77.1657	105.469	77.33	105.469	77.1331	105.469	77.3437	105.469	77.1028	105.469	77.3533	105.469	77.0762	105.469	77.3593	105.469	77.0544	105.469	77.3623	105.469	77.0384	105.469	77.3629	105.469	77.0287	105.469	77.3611	105.469	77.0257	105.469	77.357	105.469	77.0295	105.469	77.35	105.469	77.0398	105.469	77.3398	105.469	77.0563	105.469	77.3258	105.469	77.0781	105.469	77.3077	105.469	77.1045	105.469	77.2854	105.469	77.1342	105.469	77.2592	105.469	77.166	105.469	77.2298	105.469	77.1983
108.398	77.6283	108.398	77.5987	108.398	77.6557	108.398	77.5678	108.398	77.6799	108.398	77.5372	108.398	77.7006	108.398	77.5083	108.398	77.7178	108.398	77.4828	108.398	77.7318	108.398	77.4619	108.398	77.7429	108.398	77.4465	108.398	77.7514	108.398	77.4373	108.398	77.7576	108.398	77.4346	108.398	77.7614	108.398	77.4384	108.398	77.7625	108.398	77.4484	108.398	77.7604	108.398	77.4642	108.398	77.7546	108.398	77.4851	108.398	77.7447	108.398	77.5103	108.398	77.7302	108.398	77.5387	108.398	77.7113	108.398	77.5693	108.398	77.6882	108.398	77.6008	108.398	77.6614	108.398	77.6319
112.793	78.6626	112.793	78.6339	112.793	78.6879	112.793	78.6031	112.793	78.7087	112.793	78.5719	112.793	78.7244	112.793	78.5418	112.793	78.7347	112.793	78.5143	112.793	78.7401	112.793	78.4908	112.793	78.7414	112.793	78.4723	112.793	78.7397	112.793	78.4597	112.793	78.7361	112.793	78.4535	112.793	78.7314	112.793	78.4539	112.793	78.7262	112.793	78.4606	112.793	78.7204	112.793	78.4732	112.793	78.7136	112.793	78.491	112.793	78.7051	112.793	78.5128	112.793	78.694	112.793	78.5377	112.793	78.6797	112.793	78.5642	112.793	78.662	112.793	78.591	112.793	78.6409	112.793	78.617
117.188	79.0582	117.188	79.0273	117.188	79.0834	117.188	78.992	117.188	79.1023	117.188	78.9539	117.188	79.1149	117.188	78.9153	117.188	79.1218	117.188	78.8781	117.188	79.1237	117.188	78.8445	117.188	79.1217	117.188	78.8163	117.188	79.1169	117.188	78.7948	117.188	79.1101	117.188	78.7812	117.188	79.1019	117.188	78.7759	117.188	79.0928	117.188	78.779	117.188	79.0828	117.188	78.7899	117.188	79.0715	117.188	78.8079	117.188	79.0585	117.188	78.8316	117.188	79.0432	117.188	78.8595	117.188	79.0249	117.188	78.8897	117.188	79.0034	117.188	78.9206	117.188	78.9785	117.188	78.9506
120.117	79.439	120.117	79.4057	120.117	79.4671	120.117	79.3684	120.117	79.4894	120.117	79.3286	120.117	79.5055	120.117	79.2882	120.117	79.5154	120.117	79.2492	120.117	79.5195	120.117	79.2134	120.117	79.5182	120.117	79.1825	120.117	79.5124	120.117	79.1581	120.117	79.5027	120.117	79.1411	120.117	79.4898	120.117	79.1323	120.117	79.4746	120.117	79.1316	120.117	79.4573	120.117	79.1389	120.117	79.4384	120.117	79.1534	120.117	79.4179	120.117	79.174	120.117	79.3957	120.117	79.1992	120.117	79.3716	120.117	79.2276	120.117	79.3455	120.117	79.2577	120.117	79.3175	120.117	79.288
124.512	80.0448	124.512	80.0084	124.512	80.0764	124.512	79.9684	124.512	80.1024	124.512	79.9267	124.512	80.1223	124.512	79.8851	124.512	80.1361	124.512	79.8456	124.512	80.1443	124.512	79.8101	124.512	80.1472	124.512	79.7801	124.512	80.1456	124.512	79.7569	124.512	80.1398	124.512	79.7414	124.512	80.1302	124.512	79.7337	124.512	80.1169	124.512	79.7341	124.512	80.1	124.512	79.7419	124.512	80.0796	124.512	79.7567	124.512	80.0556	124.512	79.7774	124.512	80.0284	124.512	79.8031	124.512	79.9984	124.512	79.8326	124.512	79.9662	124.512	79.8648	124.512	79.9326	124.512	79.8985
128.906	80.5533	128.906	80.5192	128.906	80.5874	128.906	80.4863	128.906	80.6201	128.906	80.4557	128.906	80.6497	128.906	80.428	128.906	80.6748	128.906	80.4037	128.906	80.6945	128.906	80.3829	128.906	80.7079	128.906	80.366	128.906	80.715	128.906	80.3531	128.906	80.716	128.906	80.3446	128.906	80.7112	128.906	80.3407	128.906	80.701	128.906	80.3417	128.906	80.6859	128.906	80.348	128.906	80.6662	128.906	80.3596	128.906	80.6424	128.906	80.3764	128.906	80.6148	128.906	80.398	128.906	80.5843	128.906	80.4239	128.906	80.5519	128.906	80.4533	128.906	80.5184	128.906	80.4852
133.301	81.1044	133.301	81.0684	133.301	81.1346	133.301	81.028	133.301	81.1574	133.301	80.9852	133.301	81.1722	133.301	80.9415	133.301	81.1786	133.301	80.8985	133.301	81.1772	133.301	80.8579	133.301	81.1691	133.301	80.8211	133.301	81.1557	133.301	80.7893	133.301	81.1386	133.301	80.7637	133.301	81.1189	133.301	80.7452	133.301	81.0973	133.301	80.7345	133.301	81.074	133.301	80.7318	133.301	81.0486	133.301	80.737	133.301	81.021	133.301	80.7496	133.301	80.991	133.301	80.769	133.301	80.9588	133.301	80.794	133.301	80.9249	133.301	80.8235	133.301	80.8903	133.301	80.856
139.16	81.4601	139.16	81.4258	139.16	81.4864	139.16	81.3849	139.16	81.5046	139.16	81.3397	139.16	81.5159	139.16	81.2936	139.16	81.5226	139.16	81.2501	139.16	81.5271	139.16	81.2126	139.16	81.532	139.16	81.1839	139.16	81.539	139.16	81.1662	139.16	81.5489	139.16	81.1608	139.16	81.5614	139.16	81.1679	139.16	81.575	139.16	81.187	139.16	81.5876	139.16	81.2169	139.16	81.597	139.16	81.2558	139.16	81.6008	139.16	81.3011	139.16	81.5971	139.16	81.3504	139.16	81.5848	139.16	81.4009	139.16	81.5633	139.16	81.4497	139.16	81.5329	139.16	81.4945
143.555	81.9123	143.555	81.8759	143.555	81.9484	143.555	81.8404	143.555	81.9836	143.555	81.8069	143.555	82.0173	143.555	81.7765	143.555	82.0489	143.555	81.7506	143.555	82.0779	143.555	81.7302	143.555	82.1038	143.555	81.7161	143.555	82.1258	143.555	81.709	143.555	82.1433	143.555	81.7092	143.555	82.1556	143.555	81.7171	143.555	82.1621	143.555	81.7326	143.555	82.1624	143.555	81.7555	143.555	82.1563	143.555	81.7852	143.555	82.1435	143.555	81.8207	143.555	82.1241	143.555	81.8608	143.555	82.0985	143.555	81.9036	143.555	82.0671	143.555	81.9474	143.555	82.0307	143.555	81.9903
147.949	82.3635	147.949	82.324	147.949	82.3996	147.949	82.2822	147.949	82.4313	147.949	82.2393	147.949	82.4576	147.949	82.1965	147.949	82.478	147.949	82.1552	147.949	82.4922	147.949	82.1165	147.949	82.5003	147.949	82.082	147.949	82.5026	147.949	82.053	147.949	82.4998	147.949	82.031	147.949	82.4925	147.949	82.0174	147.949	82.4809	147.949	82.0133	147.949	82.4651	147.949	82.0194	147.949	82.445	147.949	82.0359	147.949	82.4203	147.949	82.062	147.949	82.3907	147.949	82.0964	147.949	82.3562	147.949	82.1372	147.949	82.317	147.949	82.182	147.949	82.2739	147.949	82.2283
153.809	82.7438	153.809	82.7058	153.809	82.7721	153.809	82.6592	153.809	82.7903	153.809	82.6062	153.809	82.799	153.809	82.5491	153.809	82.7996	153.809	82.4906	153.809	82.7941	153.809	82.4337	153.809	82.7849	153.809	82.3812	153.809	82.7737	153.809	82.3355	153.809	82.7619	153.809	82.299	153.809	82.7498	153.809	82.2735	153.809	82.7369	153.809	82.2604	153.809	82.7219	153.809	82.2604	153.809	82.7035	153.809	82.2736	153.809	82.6803	153.809	82.2989	153.809	82.6513	153.809	82.3348	153.809	82.616	153.809	82.3787	153.809	82.5747	153.809	82.4276	153.809	82.5282	153.809	82.4784
159.668	82.9599	159.668	82.9156	159.668	83.0026	159.668	82.8714	159.668	83.0425	159.668	82.829	159.668	83.0785	159.668	82.79	159.668	83.1102	159.668	82.7557	159.668	83.1371	159.668	82.7272	159.668	83.1592	159.668	82.7051	159.668	83.1766	159.668	82.6899	159.668	83.1893	159.668	82.6817	159.668	83.1968	159.668	82.6809	159.668	83.1986	159.668	82.6879	159.668	83.1937	159.668	82.7033	159.668	83.1815	159.668	82.7273	159.668	83.1613	159.668	82.76	159.668	83.133	159.668	82.8008	159.668	83.0968	159.668	82.848	159.668	83.0536	159.668	82.8995	159.668	83.0049	159.668	82.9527
165.527	83.4657	165.527	83.4256	165.527	83.4986	165.527	83.3805	165.527	83.5226	165.527	83.3333	165.527	83.5372	165.527	83.2865	165.527	83.5431	165.527	83.2425	165.527	83.5418	165.527	83.2033	165.527	83.5357	165.527	83.1701	165.527	83.5272	165.527	83.1436	165.527	83.5179	165.527	83.1244	165.527	83.5087	165.527	83.1127	165.527	83.499	165.527	83.1086	165.527	83.4878	165.527	83.1125	165.527	83.4735	165.527	83.1245	165.527	83.4546	165.527	83.1445	165.527	83.4302	165.527	83.1721	165.527	83.4002	165.527	83.2059	165.527	83.3651	165.527	83.2443	165.527	83.3261	165.527	83.2852
171.387	83.4634	171.387	83.434	171.387	83.4867	171.387	83.4	171.387	83.5037	171.387	83.3633	171.387	83.5154	171.387	83.3265	171.387	83.524	171.387	83.292	171.387	83.5319	171.387	83.262	171.387	83.5417	171.387	83.238	171.387	83.5548	171.387	83.2209	171.387	83.5714	171.387	83.2113	171.387	83.5899	171.387	83.2095	171.387	83.6076	171.387	83.2155	171.387	83.621	171.387	83.2294	171.387	83.6268	171.387	83.2513	171.387	83.6226	171.387	83.2811	171.387	83.6072	171.387	83.3179	171.387	83.5809	171.387	83.3606	171.387	83.5453	171.387	83.4073	171.387	83.5026	171.387	83.4556
177.246	83.5743	177.246	83.5417	177.246	83.6011	177.246	83.5049	177.246	83.6218	177.246	83.4663	177.246	83.6374	177.246	83.4287	177.246	83.6496	177.246	83.3949	177.246	83.6609	177.246	83.3675	177.246	83.6733	177.246	83.3482	177.246	83.6885	177.246	83.338	177.246	83.7066	177.246	83.337	177.246	83.7265	177.246	83.3452	177.246	83.746	177.246	83.3619	177.246	83.7622	177.246	83.3865	177.246	83.7721	177.246	83.4181	177.246	83.7734	177.246	83.4559	177.246	83.7648	177.246	83.4986	177.246	83.7458	177.246	83.5446	177.246	83.7173	177.246	83.5919	177.246	83.6807	177.246	83.6381
183.105	83.7117	183.105	83.6679	183.105	83.7482	183.105	83.6195	183.105	83.776	183.105	83.5695	183.105	83.7947	183.105	83.5214	183.105	83.8053	183.105	83.4785	183.105	83.81	183.105	83.4438	183.105	83.8118	183.105	83.4197	183.105	83.8139	183.105	83.4077	183.105	83.8192	183.105	83.4087	183.105	83.8292	183.105	83.4229	183.105	83.8439	183.105	83.4495	183.105	83.8616	183.105	83.4875	183.105	83.8794	183.105	83.5351	183.105	83.8936	183.105	83.5897	183.105	83.9006	183.105	83.6484	183.105	83.8974	183.105	83.7078	183.105	83.882	183.105	83.7642	183.105	83.8539	183.105	83.8139
188.965	83.8157	188.965	83.7814	188.965	83.8323	188.965	83.7314	188.965	83.8316	188.965	83.6697	188.965	83.8165	188.965	83.6016	188.965	83.792	188.965	83.5325	188.965	83.764	188.965	83.4676	188.965	83.7383	188.965	83.4111	188.965	83.719	188.965	83.3663	188.965	83.7079	188.965	83.3356	188.965	83.7045	188.965	83.3202	188.965	83.7066	188.965	83.3209	188.965	83.7112	188.965	83.3374	188.965	83.7153	188.965	83.3684	188.965	83.7165	188.965	83.4112	188.965	83.7127	188.965	83.4621	188.965	83.7021	188.965	83.5163	188.965	83.6831	188.965	83.5691	188.965	83.6545	188.965	83.6161
196.289	83.8979	196.289	83.8837	196.289	83.912	196.289	83.869	196.289	83.9264	196.289	83.853	196.289	83.9417	196.289	83.8348	196.289	83.9585	196.289	83.813	196.289	83.9771	196.289	83.7859	196.289	83.9973	196.289	83.7525	196.289	84.018	196.289	83.7123	196.289	84.0368	196.289	83.6665	196.289	84.0505	196.289	83.6179	196.289	84.055	196.289	83.5709	196.289	84.0464	196.289	83.531	196.289	84.0223	196.289	83.5038	196.289	83.982	196.289	83.4937	196.289	83.9269	196.289	83.5033	196.289	83.8605	196.289	83.5329	196.289	83.7874	196.289	83.5804	196.289	83.7127	196.289	83.6419
203.613	83.8619	203.613	83.826	203.613	83.8858	203.613	83.7799	203.613	83.8977	203.613	83.7269	203.613	83.8996	203.613	83.6711	203.613	83.8946	203.613	83.6167	203.613	83.8872	203.613	83.5678	203.613	83.8818	203.613	83.5276	203.613	83.8819	203.613	83.4981	203.613	83.8893	203.613	83.4803	203.613	83.9037	203.613	83.4746	203.613	83.9226	203.613	83.4809	203.613	83.9418	203.613	83.499	203.613	83.9566	203.613	83.5288	203.613	83.9626	203.613	83.5695	203.613	83.9563	203.613	83.6198	203.613	83.9361	203.613	83.6774	203.613	83.9018	203.613	83.7387	203.613	83.8553	203.613	83.7995
210.938	83.8732	210.938	83.848	210.938	83.8941	210.938	83.8197	210.938	83.9102	210.938	83.79	210.938	83.9219	210.938	83.7605	210.938	83.9306	210.938	83.7321	210.938	83.9382	210.938	83.7052	210.938	83.9468	210.938	83.6797	210.938	83.9576	210.938	83.6551	210.938	83.9708	210.938	83.6314	210.938	83.9846	210.938	83.6094	210.938	83.996	210.938	83.591	210.938	84.0013	210.938	83.579	210.938	83.997	210.938	83.5766	210.938	83.981	210.938	83.5867	210.938	83.9526	210.938	83.6106	210.938	83.9126	210.938	83.6477	210.938	83.8634	210.938	83.6958	210.938	83.8081	210.938	83.7507
218.262	83.7963	218.262	83.7697	218.262	83.8126	218.262	83.7354	218.262	83.8177	218.262	83.6973	218.262	83.8131	218.262	83.6594	218.262	83.802	218.262	83.6251	218.262	83.7894	218.262	83.5968	218.262	83.7805	218.262	83.5755	218.262	83.7795	218.262	83.5612	218.262	83.7887	218.262	83.553	218.262	83.8076	218.262	83.5504	218.262	83.8329	218.262	83.5534	218.262	83.8597	218.262	83.5628	218.262	83.8826	218.262	83.58	218.262	83.8968	218.262	83.6062	218.262	83.8989	218.262	83.6415	218.262	83.8874	218.262	83.6847	218.262	83.8626	218.262	83.7328	218.262	83.8262	218.262	83.7815
225.586	83.717	225.586	83.6886	225.586	83.734	225.586	83.6513	225.586	83.7386	225.586	83.6088	225.586	83.7323	225.586	83.5649	225.586	83.7184	225.586	83.5232	225.586	83.7018	225.586	83.4858	225.586	83.6878	225.586	83.454	225.586	83.6806	225.586	83.4281	225.586	83.6827	225.586	83.4083	225.586	83.6936	225.586	83.395	225.586	83.7105	225.586	83.3893	225.586	83.7291	225.586	83.3931	225.586	83.7446	225.586	83.408	225.586	83.753	225.586	83.4352	225.586	83.7512	225.586	83.474	225.586	83.7375	225.586	83.5218	225.586	83.7114	225.586	83.5745	225.586	83.6737	225.586	83.6267
232.91	83.5513	232.91	83.5265	232.91	83.5636	232.91	83.4921	232.91	83.5631	232.91	83.4523	232.91	83.5521	232.91	83.4121	232.91	83.5351	232.91	83.3758	232.91	83.5183	232.91	83.3461	232.91	83.5077	232.91	83.324	232.91	83.5079	232.91	83.309	232.91	83.5203	232.91	83.2997	232.91	83.5431	232.91	83.2947	232.91	83.5712	232.91	83.2936	232.91	83.5982	232.91	83.2974	232.91	83.6181	232.91	83.3078	232.91	83.6264	232.91	83.3268	232.91	83.6211	232.91	83.3554	232.91	83.6022	232.91	83.3932	232.91	83.5713	232.91	83.4378	232.91	83.5311	232.91	83.4852
241.699	83.454	241.699	83.4249	241.699	83.4677	241.699	83.3838	241.699	83.465	241.699	83.3354	241.699	83.4481	241.699	83.2854	241.699	83.4214	241.699	83.2387	241.699	83.3913	241.699	83.1991	241.699	83.3647	241.699	83.1684	241.699	83.3475	241.699	83.1468	241.699	83.3428	241.699	83.1336	241.699	83.3507	241.699	83.1278	241.699	83.3679	241.699	83.1291	241.699	83.3894	241.699	83.1376	241.699	83.4095	241.699	83.1545	241.699	83.4235	241.699	83.1801	241.699	83.4284	241.699	83.2142	241.699	83.4223	241.699	83.2546	241.699	83.4048	241.699	83.298	241.699	83.3768	241.699	83.3401
250.488	83.2508	250.488	83.2201	250.488	83.2655	250.488	83.1764	250.488	83.2636	250.488	83.1247	250.488	83.2477	250.488	83.0708	250.488	83.2229	250.488	83.0196	250.488	83.1962	250.488	82.9745	250.488	83.1742	250.488	82.9371	250.488	83.1623	250.488	82.9076	250.488	83.1623	250.488	82.8854	250.488	83.1729	250.488	82.8704	250.488	83.1899	250.488	82.8635	250.488	83.2077	250.488	82.8661	250.488	83.2209	250.488	82.8802	250.488	83.2256	250.488	82.9064	250.488	83.2197	250.488	82.944	250.488	83.2026	250.488	82.9903	250.488	83.1746	250.488	83.0409	250.488	83.1367	250.488	83.0911
259.277	83.1989	259.277	83.1801	259.277	83.2135	259.277	83.16	259.277	83.2229	259.277	83.142	259.277	83.2281	259.277	83.1285	259.277	83.2318	259.277	83.1197	259.277	83.2375	259.277	83.1128	259.277	83.2475	259.277	83.103	259.277	83.2625	259.277	83.0847	259.277	83.2803	259.277	83.054	259.277	83.2964	259.277	83.0102	259.277	83.305	259.277	82.9572	259.277	83.301	259.277	82.9026	259.277	83.2812	259.277	82.8562	259.277	83.2453	259.277	82.8273	259.277	83.1956	259.277	82.8218	259.277	83.1359	259.277	82.841	259.277	83.0701	259.277	82.8816	259.277	83.0024	259.277	82.9377
268.066	83.1225	268.066	83.1016	268.066	83.135	268.066	83.0745	268.066	83.1381	268.066	83.0441	268.066	83.1328	268.066	83.0131	268.066	83.1219	268.066	82.9834	268.066	83.1104	268.066	82.9555	268.066	83.1037	268.066	82.9285	268.066	83.1064	268.066	82.9007	268.066	83.1197	268.066	82.8705	268.066	83.141	268.066	82.8374	268.066	83.1633	268.066	82.8029	268.066	83.1786	268.066	82.7713	268.066	83.1798	268.066	82.7483	268.066	83.1629	268.066	82.7398	268.066	83.128	268.066	82.75	268.066	83.078	268.066	82.7798	268.066	83.0175	268.066	82.8268	268.066	82.9516	268.066	82.8861
276.855	82.9724	276.855	82.9419	276.855	82.9896	276.855	82.9021	276.855	82.991	276.855	82.8579	276.855	82.9762	276.855	82.8134	276.855	82.9477	276.855	82.7717	276.855	82.9105	276.855	82.7336	276.855	82.872	276.855	82.6978	276.855	82.8405	276.855	82.6619	276.855	82.8231	276.855	82.6232	276.855	82.8229	276.855	82.5806	276.855	82.8374	276.855	82.536	276.855	82.8587	276.855	82.4943	276.855	82.8761	276.855	82.4627	276.855	82.8792	276.855	82.4488	276.855	82.8616	276.855	82.4578	276.855	82.8216	276.855	82.4913	276.855	82.7624	276.855	82.5461	276.855	82.6908	276.855	82.6156
287.109	83.1088	287.109	83.0875	287.109	83.1175	287.109	83.0587	287.109	83.1113	287.109	83.0287	287.109	83.0918	287.109	83.0024	287.109	83.0639	287.109	82.9817	287.109	83.0345	287.109	82.9645	287.109	83.01	287.109	82.9453	287.109	82.9937	287.109	82.9168	287.109	82.9846	287.109	82.8731	287.109	82.9782	287.109	82.8118	287.109	82.9682	287.109	82.7358	287.109	82.9492	287.109	82.6534	287.109	82.9187	287.109	82.5765	287.109	82.8766	287.109	82.5177	287.109	82.8244	287.109	82.4866	287.109	82.7642	287.109	82.487	287.109	82.6985	287.109	82.5165	287.109	82.631	287.109	82.5675
297.363	82.9202	297.363	82.9006	297.363	82.9221	297.363	82.8694	297.363	82.9043	297.363	82.8343	297.363	82.8693	297.363	82.8029	297.363	82.8239	297.363	82.7797	297.363	82.778	297.363	82.765	297.363	82.742	297.363	82.7548	297.363	82.7238	297.363	82.7426	297.363	82.7263	297.363	82.722	297.363	82.7464	297.363	82.6897	297.363	82.7759	297.363	82.647	297.363	82.8051	297.363	82.6002	297.363	82.8255	297.363	82.5588	297.363	82.8316	297.363	82.533	297.363	82.8213	297.363	82.5296	297.363	82.7947	297.363	82.5504	297.363	82.7538	297.363	82.5915	297.363	82.7019	297.363	82.6451
307.617	82.6347	307.617	82.6191	307.617	82.6423	307.617	82.5995	307.617	82.6405	307.617	82.5814	307.617	82.6314	307.617	82.5698	307.617	82.6196	307.617	82.5671	307.617	82.6113	307.617	82.5721	307.617	82.6121	307.617	82.5795	307.617	82.625	307.617	82.5817	307.617	82.6482	307.617	82.5708	307.617	82.6746	307.617	82.5418	307.617	82.6945	307.617	82.4945	307.617	82.6984	307.617	82.4348	307.617	82.681	307.617	82.3734	307.617	82.6429	307.617	82.3229	307.617	82.5896	307.617	82.2938	307.617	82.5284	307.617	82.2909	307.617	82.4657	307.617	82.3126	307.617	82.406	307.617	82.3532
319.336	82.3555	319.336	82.3382	319.336	82.3566	319.336	82.3114	319.336	82.3395	319.336	82.2853	319.336	82.308	319.336	82.2699	319.336	82.2712	319.336	82.2721	319.336	82.2418	319.336	82.2934	319.336	82.2334	319.336	82.3285	319.336	82.2556	319.336	82.3672	319.336	82.31	319.336	82.3979	319.336	82.3881	319.336	82.4115	319.336	82.4733	319.336	82.4043	319.336	82.5469	319.336	82.3796	319.336	82.5941	319.336	82.3465	319.336	82.6079	319.336	82.3166	319.336	82.5898	319.336	82.3007	319.336	82.5474	319.336	82.305	319.336	82.491	319.336	82.3308	319.336	82.4305	319.336	82.3746
329.59	82.0448	329.59	82.011	329.59	82.0677	329.59	81.9753	329.59	82.0742	329.59	81.9481	329.59	82.0637	329.59	81.9382	329.59	82.0409	329.59	81.9498	329.59	82.0153	329.59	81.9812	329.59	81.9992	329.59	82.0238	329.59	82.0041	329.59	82.0648	329.59	82.0355	329.59	82.0906	329.59	82.0898	329.59	82.0912	329.59	82.1542	329.59	82.0635	329.59	82.2119	329.59	82.0129	329.59	82.247	329.59	81.9522	329.59	82.2506	329.59	81.8975	329.59	82.2213	329.59	81.8636	329.59	82.1651	329.59	81.8598	329.59	82.0919	329.59	81.8875	329.59	82.0135	329.59	81.9417
341.309	82.1708	341.309	82.1368	341.309	82.1768	341.309	82.0825	341.309	82.1533	341.309	82.0197	341.309	82.1048	341.309	81.9613	341.309	82.0417	341.309	81.9185	341.309	81.9787	341.309	81.8967	341.309	81.9316	341.309	81.8943	341.309	81.9135	341.309	81.9032	341.309	81.93	341.309	81.9122	341.309	81.9774	341.309	81.9114	341.309	82.0435	341.309	81.8964	341.309	82.1122	341.309	81.8699	341.309	82.168	341.309	81.8413	341.309	82.2001	341.309	81.8229	341.309	82.2031	341.309	81.8258	341.309	82.1768	341.309	81.8552	341.309	82.1253	341.309	81.9095	341.309	82.0564	341.309	81.9804
353.027	81.9319	353.027	81.8957	353.027	81.9412	353.027	81.8443	353.027	81.917	353.027	81.7918	353.027	81.8591	353.027	81.7515	353.027	81.7753	353.027	81.7327	353.027	81.6815	353.027	81.7385	353.027	81.5996	353.027	81.7649	353.027	81.5518	353.027	81.802	353.027	81.5525	353.027	81.8374	353.027	81.6018	353.027	81.8605	353.027	81.6855	353.027	81.8659	353.027	81.7816	353.027	81.856	353.027	81.8694	353.027	81.8395	353.027	81.9358	353.027	81.8279	353.027	81.9761	353.027	81.8307	353.027	81.9914	353.027	81.8513	353.027	81.9853	353.027	81.886	353.027	81.9617	353.027	81.926
366.211	81.8604	366.211	81.8274	366.211	81.8626	366.211	81.776	366.211	81.8276	366.211	81.7223	366.211	81.7569	366.211	81.6823	366.211	81.6621	366.211	81.6683	366.211	81.5635	366.211	81.6849	366.211	81.4871	366.211	81.7267	366.211	81.4565	366.211	81.7792	366.211	81.4834	366.211	81.8237	366.211	81.5618	366.211	81.8431	366.211	81.6706	366.211	81.8285	366.211	81.782	366.211	81.7822	366.211	81.8711	366.211	81.7173	366.211	81.9225	366.211	81.6538	366.211	81.9309	366.211	81.6115	366.211	81.9004	366.211	81.6034	366.211	81.8409	366.211	81.6324	366.211	81.7659	366.211	81.6911
379.395	81.8477	379.395	81.7888	379.395	81.8657	379.395	81.7009	379.395	81.8393	379.395	81.6025	379.395	81.7745	379.395	81.514	379.395	81.6853	379.395	81.4527	379.395	81.5922	379.395	81.4272	379.395	81.519	379.395	81.435	379.395	81.4881	379.395	81.4631	379.395	81.5117	379.395	81.4933	379.395	81.5851	379.395	81.5093	379.395	81.6875	379.395	81.5037	379.395	81.791	379.395	81.4806	379.395	81.872	379.395	81.4542	379.395	81.9178	379.395	81.4423	379.395	81.9258	379.395	81.4589	379.395	81.8998	379.395	81.5089	379.395	81.8452	379.395	81.5864	379.395	81.7684	379.395	81.6779
392.578	81.762	392.578	81.6746	392.578	81.8067	392.578	81.5582	392.578	81.801	392.578	81.4313	392.578	81.7446	392.578	81.3135	392.578	81.6459	392.578	81.2215	392.578	81.5228	392.578	81.1649	392.578	81.4033	392.578	81.1438	392.578	81.3198	392.578	81.1481	392.578	81.297	392.578	81.1612	392.578	81.3386	392.578	81.1665	392.578	81.4249	392.578	81.1539	392.578	81.5221	392.578	81.1243	392.578	81.598	392.578	81.0898	392.578	81.6331	392.578	81.0682	392.578	81.6228	392.578	81.0758	392.578	81.5734	392.578	81.1201	392.578	81.4953	392.578	81.1973	392.578	81.3989	392.578	81.2952
405.762	81.6481	405.762	81.572	405.762	81.6794	405.762	81.466	405.762	81.6564	405.762	81.3492	405.762	81.5773	405.762	81.2413	405.762	81.4494	405.762	81.1592	405.762	81.292	405.762	81.112	405.762	81.1363	405.762	81.0979	405.762	81.0192	405.762	81.1043	405.762	80.9715	405.762	81.1116	405.762	81.0027	405.762	81.1016	405.762	81.0956	405.762	81.0644	405.762	81.2142	405.762	81.0036	405.762	81.3198	405.762	80.9353	405.762	81.3846	405.762	80.8825	405.762	81.3969	405.762	80.866	405.762	81.3591	405.762	80.8961	405.762	81.2822	405.762	80.969	405.762	81.1806	405.762	81.0701
420.41	81.9804	420.41	81.9052	420.41	81.9896	420.41	81.7761	420.41	81.9267	420.41	81.6116	420.41	81.792	420.41	81.4354	420.41	81.593	420.41	81.2735	420.41	81.3478	420.41	81.1483	420.41	81.0884	420.41	81.071	420.41	80.859	420.41	81.0358	420.41	80.7031	420.41	81.0221	420.41	80.6445	420.41	81.0044	420.41	80.6751	420.41	80.9641	420.41	80.7609	420.41	80.8972	420.41	80.8585	420.41	80.8141	420.41	80.9321	420.41	80.7345	420.41	80.9618	420.41	80.6792	420.41	80.9449	420.41	80.6623	420.41	80.8913	420.41	80.6864	420.41	80.8178	420.41	80.7434
435.059	81.6732	435.059	81.5866	435.059	81.7031	435.059	81.4559	435.059	81.668	435.059	81.2972	435.059	81.565	435.059	81.1294	435.059	81.3996	435.059	80.9732	435.059	81.1906	435.059	80.8489	435.059	80.9729	435.059	80.7712	435.059	80.7939	435.059	80.7434	435.059	80.6987	435.059	80.7547	435.059	80.7112	435.059	80.7849	435.059	80.8217	435.059	80.8147	435.059	80.9926	435.059	80.8348	435.059	81.175	435.059	80.8484	435.059	81.3259	435.059	80.8681	435.059	81.4174	435.059	80.9082	435.059	81.4395	435.059	80.978	435.059	81.3976	435.059	81.0768	435.059	81.308	435.059	81.1932
451.172	81.6579	451.172	81.5908	451.172	81.6413	451.172	81.4515	451.172	81.5329	451.172	81.2534	451.172	81.3324	451.172	81.0127	451.172	81.0538	451.172	80.7516	451.172	80.7328	451.172	80.4985	451.172	80.4289	451.172	80.2844	451.172	80.2139	451.172	80.1326	451.172	80.1425	451.172	80.0496	451.172	80.2208	451.172	80.025	451.172	80.4026	451.172	80.0413	451.172	80.6182	451.172	80.0845	451.172	80.8077	451.172	80.1492	451.172	80.9375	451.172	80.2358	451.172	80.9992	451.172	80.3454	451.172	81	451.172	80.4742	451.172	80.9514	451.172	80.6127	451.172	80.8639	451.172	80.7472
465.82	81.6796	465.82	81.6105	465.82	81.6786	465.82	81.4855	465.82	81.5974	465.82	81.3208	465.82	81.4307	465.82	81.1322	465.82	81.1819	465.82	80.9342	465.82	80.8697	465.82	80.7394	465.82	80.5385	465.82	80.5591	465.82	80.2593	465.82	80.4028	465.82	80.109	465.82	80.2773	465.82	80.1275	465.82	80.1861	465.82	80.29	465.82	80.1306	465.82	80.5255	465.82	80.1129	465.82	80.7579	465.82	80.1372	465.82	80.9361	465.82	80.2072	465.82	81.0387	465.82	80.3216	465.82	81.0655	465.82	80.4706	465.82	81.0263	465.82	80.6365	465.82	80.9325	465.82	80.7972
483.398	81.7666	483.398	81.6786	483.398	81.7846	483.398	81.53	483.398	81.7233	483.398	81.3307	483.398	81.5739	483.398	81.093	483.398	81.3317	483.398	80.8331	483.398	81.0055	483.398	80.5738	483.398	80.6312	483.398	80.3418	483.398	80.2799	483.398	80.1605	483.398	80.0419	483.398	80.0398	483.398	79.9822	483.398	79.9731	483.398	80.0981	483.398	79.945	483.398	80.3223	483.398	79.9426	483.398	80.5662	483.398	79.9639	483.398	80.7602	483.398	80.0161	483.398	80.8696	483.398	80.1079	483.398	80.8897	483.398	80.2403	483.398	80.8336	483.398	80.4011	483.398	80.7201	483.398	80.5689
499.512	81.6973	499.512	81.5817	499.512	81.7386	499.512	81.4096	499.512	81.6863	499.512	81.1971	499.512	81.5215	499.512	80.959	499.512	81.2319	499.512	80.7103	499.512	80.8244	499.512	80.4681	499.512	80.341	499.512	80.2513	499.512	79.869	499.512	80.0762	499.512	79.5277	499.512	79.9491	499.512	79.4184	499.512	79.8652	499.512	79.5611	499.512	79.8148	499.512	79.8802	499.512	79.7935	499.512	80.2557	499.512	79.8069	499.512	80.583	499.512	79.8665	499.512	80.8012	499.512	79.981	499.512	80.8912	499.512	80.1479	499.512	80.8629	499.512	80.3501	499.512	80.7415	499.512	80.5592
517.09	81.9476	517.09	81.9006	517.09	81.9229	517.09	81.7918	517.09	81.8136	517.09	81.6246	517.09	81.6091	517.09	81.3945	517.09	81.3051	517.09	81.094	517.09	80.9101	517.09	80.7239	517.09	80.4548	517.09	80.3044	517.09	80.0028	517.09	79.8806	517.09	79.6479	517.09	79.5117	517.09	79.4809	517.09	79.2472	517.09	79.5347	517.09	79.1072	517.09	79.7587	517.09	79.0823	517.09	80.0519	517.09	79.1503	517.09	80.3181	517.09	79.2906	517.09	80.4968	517.09	79.4873	517.09	80.5659	517.09	79.7231	517.09	80.5293	517.09	79.9737	517.09	80.4035	517.09	80.21
536.133	81.7963	536.133	81.6695	536.133	81.8352	536.133	81.4825	536.133	81.7605	536.133	81.2569	536.133	81.5559	536.133	81.001	536.133	81.2241	536.133	80.7101	536.133	80.796	536.133	80.3775	536.133	80.3357	536.133	80.0117	536.133	79.9297	536.133	79.6483	536.133	79.6562	536.133	79.3419	536.133	79.5503	536.133	79.1386	536.133	79.5966	536.133	79.0485	536.133	79.7506	536.133	79.0449	536.133	79.9607	536.133	79.09	536.133	80.1731	536.133	79.1654	536.133	80.3343	536.133	79.2806	536.133	80.4004	536.133	79.4549	536.133	80.3494	536.133	79.6889	536.133	80.1882	536.133	79.9508
555.176	81.52	555.176	81.37	555.176	81.5982	555.176	81.1732	555.176	81.5741	555.176	80.9441	555.176	81.419	555.176	80.6837	555.176	81.1149	555.176	80.3847	555.176	80.6666	555.176	80.0443	555.176	80.1161	555.176	79.6806	555.176	79.5561	555.176	79.3411	555.176	79.1222	555.176	79.0888	555.176	78.9354	555.176	78.9672	555.176	79.0186	555.176	78.9697	555.176	79.2843	555.176	79.045	555.176	79.6071	555.176	79.136	555.176	79.8878	555.176	79.2161	555.176	80.0696	555.176	79.2971	555.176	80.1316	555.176	79.4075	555.176	80.0799	555.176	79.5637	555.176	79.9405	555.176	79.7534
574.219	81.7589	574.219	81.6058	574.219	81.8284	574.219	81.3933	574.219	81.7898	574.219	81.1431	574.219	81.6195	574.219	80.8705	574.219	81.2964	574.219	80.5796	574.219	80.8127	574.219	80.264	574.219	80.1934	574.219	79.9174	574.219	79.522	574.219	79.5531	574.219	78.9476	574.219	79.216	574.219	78.6365	574.219	78.9674	574.219	78.6652	574.219	78.8453	574.219	78.9573	574.219	78.8356	574.219	79.3477	574.219	78.888	574.219	79.6897	574.219	78.9591	574.219	79.9034	574.219	79.0411	574.219	79.9692	574.219	79.1557	574.219	79.9038	574.219	79.3226	574.219	79.7424	574.219	79.5316
594.727	81.9136	594.727	81.7366	594.727	81.9954	594.727	81.4838	594.727	81.9557	594.727	81.1682	594.727	81.7632	594.727	80.7991	594.727	81.391	594.727	80.389	594.727	80.8356	594.727	79.9594	594.727	80.1415	594.727	79.54	594.727	79.4133	594.727	79.1627	594.727	78.8018	594.727	78.8537	594.727	78.455	594.727	78.6299	594.727	78.4475	594.727	78.4984	594.727	78.7316	594.727	78.4581	594.727	79.1597	594.727	78.5015	594.727	79.5669	594.727	78.6181	594.727	79.8421	594.727	78.7961	594.727	79.9477	594.727	79.0207	594.727	79.9011	594.727	79.2716	594.727	79.7449	594.727	79.523
615.234	81.9017	615.234	81.6234	615.234	82.0741	615.234	81.2686	615.234	82.1056	615.234	80.8683	615.234	81.9561	615.234	80.458	615.234	81.592	615.234	80.0714	615.234	81.0079	615.234	79.7294	615.234	80.2447	615.234	79.436	615.234	79.3972	615.234	79.1888	615.234	78.6068	615.234	78.9931	615.234	78.0454	615.234	78.8642	615.234	77.8689	615.234	78.8109	615.234	78.1149	615.234	78.8146	615.234	78.6326	615.234	78.834	615.234	79.1746	615.234	78.8391	615.234	79.5496	615.234	78.8386	615.234	79.6856	615.234	78.8735	615.234	79.6111	615.234	78.9834	615.234	79.4092	615.234	79.1747
637.207	82.0238	637.207	81.7442	637.207	82.216	637.207	81.3806	637.207	82.3053	637.207	80.9398	637.207	82.257	637.207	80.4506	637.207	82.0246	637.207	79.9708	637.207	81.5727	637.207	79.5683	637.207	80.9096	637.207	79.2821	637.207	80.1064	637.207	79.1	637.207	79.2887	637.207	78.9763	637.207	78.611	637.207	78.8677	637.207	78.2246	637.207	78.7544	637.207	78.2181	637.207	78.6431	637.207	78.536	637.207	78.5608	637.207	78.9885	637.207	78.5434	637.207	79.377	637.207	78.6175	637.207	79.5911	637.207	78.7846	637.207	79.6151	637.207	79.0175	637.207	79.4888	637.207	79.2703
659.18	82.0929	659.18	81.8277	659.18	82.258	659.18	81.4759	659.18	82.2936	659.18	81.0373	659.18	82.1612	659.18	80.5097	659.18	81.8302	659.18	79.9106	659.18	81.3003	659.18	79.2986	659.18	80.6192	659.18	78.7735	659.18	79.8925	659.18	78.4376	659.18	79.2678	659.18	78.3303	659.18	78.866	659.18	78.3925	659.18	78.7151	659.18	78.5029	659.18	78.7883	659.18	78.5616	659.18	79.0709	659.18	78.5534	659.18	79.511	659.18	78.5524	659.18	79.9637	659.18	78.6712	659.18	80.2688	659.18	78.9697	659.18	80.3431	659.18	79.3997	659.18	80.1853	659.18	79.8434
682.617	82.2636	682.617	82.055	682.617	82.3921	682.617	81.7569	682.617	82.4232	682.617	81.3476	682.617	82.3174	682.617	80.8137	682.617	82.0383	682.617	80.1693	682.617	81.586	682.617	79.4671	682.617	81.0145	682.617	78.7969	682.617	80.4116	682.617	78.2663	682.617	79.8537	682.617	77.9583	682.617	79.3809	682.617	77.8882	682.617	79.0186	682.617	77.99	682.617	78.821	682.617	78.1496	682.617	78.849	682.617	78.2638	682.617	79.066	682.617	78.2983	682.617	79.3134	682.617	78.3101	682.617	79.4322	682.617	78.3979	682.617	79.3678	682.617	78.6045	682.617	79.1615	682.617	78.8841
707.52	82.58	707.52	82.3346	707.52	82.6891	707.52	81.9302	707.52	82.6528	707.52	81.3264	707.52	82.4393	707.52	80.5234	707.52	82.0178	707.52	79.6405	707.52	81.3908	707.52	78.9173	707.52	80.6143	707.52	78.5275	707.52	79.789	707.52	78.3729	707.52	79.0329	707.52	78.2072	707.52	78.4779	707.52	77.9614	707.52	78.2866	707.52	77.8105	707.52	78.5498	707.52	77.8549	707.52	79.0916	707.52	77.9193	707.52	79.5878	707.52	77.8095	707.52	79.8389	707.52	77.5593	707.52	79.8013	707.52	77.4163	707.52	79.4825	707.52	77.633	707.52	78.9121	707.52	78.2121
732.422	82.1691	732.422	81.8639	732.422	82.3698	732.422	81.4519	732.422	82.4413	732.422	80.9297	732.422	82.3362	732.422	80.3209	732.422	82.0252	732.422	79.6905	732.422	81.525	732.422	79.1528	732.422	80.8813	732.422	78.8523	732.422	80.1589	732.422	78.8422	732.422	79.4675	732.422	78.9563	732.422	78.9156	732.422	78.9449	732.422	78.542	732.422	78.7215	732.422	78.3822	732.422	78.4273	732.422	78.5074	732.422	78.2769	732.422	78.871	732.422	78.3453	732.422	79.2631	732.422	78.5509	732.422	79.5124	732.422	78.8002	732.422	79.5805	732.422	79.0566	732.422	79.4953	732.422	79.3023
757.324	82.9097	757.324	82.487	757.324	83.0523	757.324	81.8088	757.324	82.9332	757.324	80.9561	757.324	82.6093	757.324	80.0943	757.324	82.1347	757.324	79.432	757.324	81.4984	757.324	79.0864	757.324	80.6405	757.324	79.0125	757.324	79.5877	757.324	79.0913	757.324	78.5966	757.324	79.2236	757.324	78.0481	757.324	79.2882	757.324	78.0145	757.324	79.1509	757.324	78.1671	757.324	78.8082	757.324	78.3139	757.324	78.4216	757.324	78.6139	757.324	78.1787	757.324	79.117	757.324	78.1538	757.324	79.5402	757.324	78.3172	757.324	79.639	757.324	78.6227	757.324	79.4152	757.324	79.0221
785.156	82.0909	785.156	81.7191	785.156	82.3305	785.156	81.1757	785.156	82.4033	785.156	80.441	785.156	82.2101	785.156	79.633	785.156	81.6892	785.156	79.009	785.156	80.8959	785.156	78.7655	785.156	79.9603	785.156	78.8611	785.156	78.9579	785.156	79.0901	785.156	77.881	785.156	79.211	785.156	76.7841	785.156	79.0161	785.156	75.8803	785.156	78.4236	785.156	75.4185	785.156	77.5511	785.156	75.636	785.156	76.7559	785.156	76.6503	785.156	76.5655	785.156	78.0315	785.156	77.1826	785.156	79.1679	785.156	78.1666	785.156	79.7928	785.156	79.0425	785.156	79.9177	785.156	79.6417
811.523	82.2728	811.523	81.7694	811.523	82.7884	811.523	81.3668	811.523	83.1541	811.523	81.0758	811.523	83.1933	811.523	80.8795	811.523	82.8015	811.523	80.7014	811.523	82.0153	811.523	80.2841	811.523	80.9816	811.523	79.3067	811.523	79.8638	811.523	77.809	811.523	78.8678	811.523	76.5702	811.523	78.2622	811.523	76.3512	811.523	78.1169	811.523	76.6924	811.523	78.1386	811.523	76.9435	811.523	78.0098	811.523	77.0544	811.523	77.7902	811.523	77.3521	811.523	77.8469	811.523	78.0601	811.523	78.3147	811.523	78.9404	811.523	78.9473	811.523	79.568	811.523	79.4817	811.523	79.7366
840.82	81.5893	840.82	82.4418	840.82	81.1588	840.82	83.0198	840.82	81.7633	840.82	83.1109	840.82	82.8165	840.82	82.7012	840.82	83.4873	840.82	81.7759	840.82	83.5157	840.82	80.365	840.82	82.9662	840.82	78.696	840.82	81.9326	840.82	77.1931	840.82	80.489	840.82	76.38	840.82	79.002	840.82	76.6632	840.82	78.2405	840.82	77.8204	840.82	78.4813	840.82	79.0742	840.82	79.1765	840.82	79.8381	840.82	79.7797	840.82	79.9504	840.82	79.9767	840.82	79.5171	840.82	79.5837	840.82	78.7859	840.82	78.6634	840.82	78.0198	840.82	77.7394	840.82	77.5209
870.117	80.7235	870.117	81.2699	870.117	81.343	870.117	82.2446	870.117	82.628	870.117	82.9059	870.117	83.6015	870.117	83.0436	870.117	83.7728	870.117	82.7738	870.117	83.0417	870.117	82.3687	870.117	81.4707	870.117	82.0814	870.117	79.1296	870.117	82.0079	870.117	76.1695	870.117	82.0732	870.117	73.0231	870.117	82.1232	870.117	70.8775	870.117	82.0411	870.117	72.8989	870.117	81.701	870.117	76.6608	870.117	80.9027	870.117	79.3327	870.117	79.5349	870.117	80.7593	870.117	77.8879	870.117	81.1252	870.117	76.8191	870.117	80.6272	870.117	77.0265	870.117	79.5231	870.117	78.1596
900.879	83.2158	900.879	82.7592	900.879	83.5078	900.879	82.2277	900.879	83.3957	900.879	81.5105	900.879	82.7469	900.879	80.488	900.879	81.8647	900.879	79.4403	900.879	81.4557	900.879	79.2411	900.879	81.7201	900.879	79.9871	900.879	82.1049	900.879	80.653	900.879	82.1095	900.879	80.7232	900.879	81.5444	900.879	80.3142	900.879	80.4127	900.879	79.4708	900.879	78.5331	900.879	77.8394	900.879	75.404	900.879	75.6226	900.879	72.3597	900.879	74.6567	900.879	75.0923	900.879	75.8835	900.879	78.4417	900.879	77.7505	900.879	80.1778	900.879	79.3381	900.879	80.7104	900.879	80.3712
933.105	81.7811	933.105	82.339	933.105	82.2821	933.105	83.2489	933.105	83.4375	933.105	83.8022	933.105	84.3706	933.105	83.6339	933.105	84.7692	933.105	82.4172	933.105	84.7097	933.105	79.7096	933.105	84.238	933.105	75.2007	933.105	83.2875	933.105	70.0082	933.105	81.9953	933.105	68.5968	933.105	80.9462	933.105	71.6007	933.105	80.7254	933.105	75.08	933.105	81.2006	933.105	78.2138	933.105	81.8132	933.105	80.7887	933.105	82.2272	933.105	82.0435	933.105	82.258	933.105	81.6566	933.105	81.6315	933.105	79.8314	933.105	80.074	933.105	77.2837	933.105	77.6868	933.105	76.0045
965.332	82.806	965.332	82.1641	965.332	83.8091	965.332	82.3178	965.332	84.5841	965.332	83.0164	965.332	84.7259	965.332	83.6624	965.332	83.9837	965.332	83.8036	965.332	82.2417	965.332	83.3021	965.332	79.625	965.332	82.5461	965.332	77.0466	965.332	82.3438	965.332	76.2425	965.332	82.9227	965.332	76.4108	965.332	83.4877	965.332	75.0923	965.332	83.4285	965.332	70.0093	965.332	83.0614	965.332	62.5263	965.332	82.6121	965.332	74.4988	965.332	81.118	965.332	79.6312	965.332	77.3892	965.332	82.1757	965.332	73.2408	965.332	83.1275	965.332	77.5713	965.332	82.8456	965.332	81.211
1,000.49	82.9218	1,000.49	82.2562	1,000.49	84.009	1,000.49	82.5755	1,000.49	84.6891	1,000.49	83.2803	1,000.49	84.5983	1,000.49	83.576	1,000.49	83.8132	1,000.49	83.112	1,000.49	82.6862	1,000.49	81.7163	1,000.49	81.5129	1,000.49	79.2346	1,000.49	80.3239	1,000.49	75.6378	1,000.49	79.0127	1,000.49	72.826	1,000.49	77.8347	1,000.49	73.5852	1,000.49	77.9682	1,000.49	74.0576	1,000.49	79.1628	1,000.49	73.2503	1,000.49	79.7139	1,000.49	72.9563	1,000.49	79.1135	1,000.49	74.4955	1,000.49	77.8732	1,000.49	76.7565	1,000.49	77.1928	1,000.49	78.532	1,000.49	77.9347	1,000.49	79.5478	1,000.49	79.1605	1,000.49	79.7826
1,035.64	83.3144	1,035.64	83.309	1,035.64	83.4923	1,035.64	83.192	1,035.64	83.8321	1,035.64	82.8061	1,035.64	83.9624	1,035.64	82.262	1,035.64	83.5376	1,035.64	81.7056	1,035.64	82.5267	1,035.64	81.0066	1,035.64	81.1656	1,035.64	80.1072	1,035.64	79.7972	1,035.64	79.5474	1,035.64	78.8708	1,035.64	79.6821	1,035.64	78.204	1,035.64	80.3857	1,035.64	76.8875	1,035.64	81.3216	1,035.64	74.0261	1,035.64	81.7044	1,035.64	67.8124	1,035.64	80.9276	1,035.64	69.0741	1,035.64	78.9591	1,035.64	76.1451	1,035.64	76.4604	1,035.64	79.4268	1,035.64	75.8951	1,035.64	80.7425	1,035.64	77.9729	1,035.64	80.8344	1,035.64	79.9044
1,072.27	82.715	1,072.27	82.1732	1,072.27	83.4981	1,072.27	82.4013	1,072.27	84.0564	1,072.27	83.1725	1,072.27	84.1199	1,072.27	83.4535	1,072.27	83.5373	1,072.27	82.3186	1,072.27	82.2747	1,072.27	79.7875	1,072.27	80.6062	1,072.27	77.6065	1,072.27	79.3622	1,072.27	77.1357	1,072.27	79.0886	1,072.27	76.7679	1,072.27	79.0442	1,072.27	73.8853	1,072.27	78.5296	1,072.27	68.7866	1,072.27	78.1225	1,072.27	69.2189	1,072.27	78.444	1,072.27	72.2912	1,072.27	78.833	1,072.27	75.1349	1,072.27	78.6683	1,072.27	77.3264	1,072.27	77.9957	1,072.27	78.7569	1,072.27	77.5824	1,072.27	79.3391	1,072.27	78.1404	1,072.27	79.0265
1,108.89	83.1942	1,108.89	82.6637	1,108.89	84.0231	1,108.89	82.9863	1,108.89	84.3016	1,108.89	83.5054	1,108.89	83.5465	1,108.89	83.5661	1,108.89	81.3047	1,108.89	83.315	1,108.89	78.6386	1,108.89	83.5594	1,108.89	79.9623	1,108.89	84.2688	1,108.89	82.1864	1,108.89	84.6022	1,108.89	83.3399	1,108.89	84.7197	1,108.89	83.653	1,108.89	84.8048	1,108.89	83.1259	1,108.89	84.3973	1,108.89	81.8284	1,108.89	83.625	1,108.89	79.2026	1,108.89	82.423	1,108.89	72.1754	1,108.89	79.4956	1,108.89	69.5254	1,108.89	74.5901	1,108.89	77.9142	1,108.89	73.8218	1,108.89	80.5613	1,108.89	77.4348	1,108.89	81.0317	1,108.89	79.9799
1,148.44	84.5424	1,148.44	83.0438	1,148.44	85.2381	1,148.44	82.425	1,148.44	84.6115	1,148.44	83.3185	1,148.44	82.6227	1,148.44	84.1366	1,148.44	80.3476	1,148.44	84.4333	1,148.44	81.2663	1,148.44	84.7126	1,148.44	82.9508	1,148.44	84.7883	1,148.44	83.7396	1,148.44	84.4725	1,148.44	84.2225	1,148.44	84.2774	1,148.44	84.2225	1,148.44	83.8654	1,148.44	83.7721	1,148.44	82.1888	1,148.44	83.4076	1,148.44	78.8758	1,148.44	82.7645	1,148.44	73.5653	1,148.44	81.0356	1,148.44	67.3131	1,148.44	78.0518	1,148.44	74.9652	1,148.44	74.9703	1,148.44	79.202	1,148.44	76.2448	1,148.44	81.2219	1,148.44	79.724	1,148.44	81.4691
1,189.45	86.1274	1,189.45	83.484	1,189.45	86.7395	1,189.45	80.7936	1,189.45	84.9513	1,189.45	81.7607	1,189.45	80.4221	1,189.45	83.6305	1,189.45	77.4333	1,189.45	85.1287	1,189.45	82.8472	1,189.45	86.7248	1,189.45	86.1236	1,189.45	87.7165	1,189.45	86.874	1,189.45	87.5836	1,189.45	86.5414	1,189.45	86.8988	1,189.45	86.2615	1,189.45	86.2891	1,189.45	85.6102	1,189.45	85.0303	1,189.45	84.4491	1,189.45	82.2541	1,189.45	83.2235	1,189.45	77.9056	1,189.45	81.3464	1,189.45	73.9502	1,189.45	78.2532	1,189.45	76.2926	1,189.45	76.5612	1,189.45	78.4467	1,189.45	78.3445	1,189.45	79.7087	1,189.45	79.9602	1,189.45	80.3757
1,230.47	86.4721	1,230.47	85.7017	1,230.47	85.3214	1,230.47	83.3114	1,230.47	82.2794	1,230.47	80.0361	1,230.47	81.2482	1,230.47	79.46	1,230.47	83.9153	1,230.47	82.1256	1,230.47	86.0585	1,230.47	84.6638	1,230.47	86.3755	1,230.47	85.8047	1,230.47	84.4014	1,230.47	85.9449	1,230.47	81.6377	1,230.47	85.9768	1,230.47	81.4194	1,230.47	85.8358	1,230.47	82.2727	1,230.47	84.3822	1,230.47	83.007	1,230.47	80.7892	1,230.47	83.4771	1,230.47	74.1693	1,230.47	82.9521	1,230.47	73.2607	1,230.47	81.3077	1,230.47	78.4067	1,230.47	78.6793	1,230.47	79.7351	1,230.47	77.8823	1,230.47	80.2505	1,230.47	80.0127	1,230.47	80.8106
1,274.41	85.0793	1,274.41	84.769	1,274.41	84.3631	1,274.41	83.4753	1,274.41	83.002	1,274.41	81.7377	1,274.41	83.0794	1,274.41	81.2355	1,274.41	84.2978	1,274.41	82.3696	1,274.41	84.1335	1,274.41	83.179	1,274.41	82.1124	1,274.41	82.7	1,274.41	78.3925	1,274.41	81.3723	1,274.41	72.4005	1,274.41	79.5807	1,274.41	60.7989	1,274.41	78.1808	1,274.41	59.3198	1,274.41	77.6036	1,274.41	68.7622	1,274.41	73.5821	1,274.41	75.9788	1,274.41	67.9564	1,274.41	80.0862	1,274.41	77.0703	1,274.41	81.8565	1,274.41	80.1721	1,274.41	81.2334	1,274.41	80.0956	1,274.41	78.7851	1,274.41	78.621	1,274.41	77.6189	1,274.41	77.904
1,319.82	85.3295	1,319.82	85.8459	1,319.82	84.4214	1,319.82	85.4553	1,319.82	84.205	1,319.82	83.96	1,319.82	84.7146	1,319.82	81.4961	1,319.82	84.6274	1,319.82	80.0574	1,319.82	83.3244	1,319.82	81.0482	1,319.82	80.1586	1,319.82	81.6708	1,319.82	74.0062	1,319.82	81.5394	1,319.82	72.6461	1,319.82	80.6654	1,319.82	75.0231	1,319.82	77.9206	1,319.82	72.4755	1,319.82	73.0414	1,319.82	63.5617	1,319.82	54.332	1,319.82	63.1943	1,319.82	74.4077	1,319.82	75.0684	1,319.82	80.0381	1,319.82	80.5962	1,319.82	81.1157	1,319.82	82.4087	1,319.82	79.739	1,319.82	81.1313	1,319.82	77.3311	1,319.82	77.7855	1,319.82	75.8514
1,366.7	84.4498	1,366.7	85.2923	1,366.7	83.7355	1,366.7	85.39	1,366.7	84.0797	1,366.7	84.1879	1,366.7	84.7897	1,366.7	81.7663	1,366.7	84.2595	1,366.7	79.4982	1,366.7	81.8629	1,366.7	79.4974	1,366.7	78.3652	1,366.7	80.1124	1,366.7	78.3255	1,366.7	78.1097	1,366.7	79.8685	1,366.7	72.4703	1,366.7	79.6378	1,366.7	68.3647	1,366.7	78.4961	1,366.7	64.056	1,366.7	75.8669	1,366.7	62.4126	1,366.7	68.5221	1,366.7	74.4169	1,366.7	68.9537	1,366.7	79.0338	1,366.7	77.8697	1,366.7	80.1822	1,366.7	80.5919	1,366.7	78.9316	1,366.7	79.6798	1,366.7	76.6284	1,366.7	76.9115	1,366.7	75.3777
1,413.57	84.8952	1,413.57	84.662	1,413.57	85.2411	1,413.57	84.7584	1,413.57	85.0512	1,413.57	84.2788	1,413.57	84.4689	1,413.57	82.9075	1,413.57	83.5523	1,413.57	81.2099	1,413.57	81.7163	1,413.57	80.336	1,413.57	78.7691	1,413.57	80.9068	1,413.57	75.942	1,413.57	80.4875	1,413.57	75.5757	1,413.57	79.3521	1,413.57	75.5522	1,413.57	74.9354	1,413.57	74.1719	1,413.57	68.0992	1,413.57	73.6763	1,413.57	71.0329	1,413.57	75.9764	1,413.57	76.2265	1,413.57	75.9027	1,413.57	78.9972	1,413.57	74.6209	1,413.57	78.9925	1,413.57	77.9726	1,413.57	76.8423	1,413.57	78.9438	1,413.57	74.8064	1,413.57	77.4148	1,413.57	75.2408
1,463.38	85.0835	1,463.38	85.7236	1,463.38	84.9101	1,463.38	85.6646	1,463.38	85.4503	1,463.38	84.4662	1,463.38	85.5225	1,463.38	82.853	1,463.38	83.2852	1,463.38	80.678	1,463.38	77.4392	1,463.38	76.4445	1,463.38	77.4806	1,463.38	70.3901	1,463.38	82.5448	1,463.38	72.454	1,463.38	84.5488	1,463.38	72.4457	1,463.38	83.9845	1,463.38	66.8761	1,463.38	82.5398	1,463.38	73.3226	1,463.38	80.7944	1,463.38	74.0241	1,463.38	78.4118	1,463.38	75.1113	1,463.38	74.2583	1,463.38	79.3631	1,463.38	71.5044	1,463.38	80.5121	1,463.38	77.9459	1,463.38	78.1849	1,463.38	79.8513	1,463.38	75.8559	1,463.38	78.7965	1,463.38	76.6313
1,516.11	86.1012	1,516.11	86.0152	1,516.11	85.7353	1,516.11	85.5047	1,516.11	85.4341	1,516.11	84.7395	1,516.11	85.0651	1,516.11	83.4849	1,516.11	82.701	1,516.11	81.212	1,516.11	76.3314	1,516.11	79.9832	1,516.11	75.6422	1,516.11	81.4816	1,516.11	80.618	1,516.11	82.6863	1,516.11	82.8956	1,516.11	81.3117	1,516.11	82.5295	1,516.11	76.9754	1,516.11	80.6398	1,516.11	73.7021	1,516.11	78.7065	1,516.11	74.7954	1,516.11	75.7038	1,516.11	75.9498	1,516.11	72.6693	1,516.11	77.6279	1,516.11	75.8242	1,516.11	79.1465	1,516.11	78.3637	1,516.11	78.8717	1,516.11	78.709	1,516.11	77.6775	1,516.11	77.8236	1,516.11	77.0755
1,568.85	86.1648	1,568.85	86.0814	1,568.85	85.7344	1,568.85	85.5254	1,568.85	85.2348	1,568.85	84.9709	1,568.85	84.4046	1,568.85	84.4555	1,568.85	81.8036	1,568.85	83.1452	1,568.85	79.0929	1,568.85	82.0235	1,568.85	79.807	1,568.85	82.0402	1,568.85	80.1566	1,568.85	80.8041	1,568.85	79.4063	1,568.85	77.688	1,568.85	77.097	1,568.85	77.702	1,568.85	74.0191	1,568.85	80.0419	1,568.85	75.0404	1,568.85	80.9912	1,568.85	78.4237	1,568.85	79.9777	1,568.85	80.0132	1,568.85	78.1842	1,568.85	79.2178	1,568.85	76.8346	1,568.85	76.2181	1,568.85	78.1216	1,568.85	74.608	1,568.85	79.3661	1,568.85	77.8956	1,568.85	79.3025
1,624.51	86.1541	1,624.51	86.4068	1,624.51	85.3832	1,624.51	86.0281	1,624.51	84.8627	1,624.51	85.6259	1,624.51	84.5939	1,624.51	85.2082	1,624.51	82.7365	1,624.51	84.2453	1,624.51	78.6604	1,624.51	83.9322	1,624.51	77.8911	1,624.51	84.997	1,624.51	79.5149	1,624.51	85.0958	1,624.51	80.3169	1,624.51	83.103	1,624.51	79.5041	1,624.51	81.0232	1,624.51	76.9333	1,624.51	79.5441	1,624.51	71.6763	1,624.51	78.6802	1,624.51	68.6729	1,624.51	78.15	1,624.51	75.7413	1,624.51	77.825	1,624.51	77.193	1,624.51	77.8532	1,624.51	76.6712	1,624.51	78.8788	1,624.51	76.3056	1,624.51	78.6837	1,624.51	77.6062	1,624.51	78.5485
1,681.64	85.8665	1,681.64	85.508	1,681.64	85.1213	1,681.64	85.0259	1,681.64	84.0709	1,681.64	85.673	1,681.64	83.9655	1,681.64	86.1178	1,681.64	83.2385	1,681.64	84.913	1,681.64	81.1354	1,681.64	83.3829	1,681.64	79.6487	1,681.64	82.9954	1,681.64	78.2865	1,681.64	82.0027	1,681.64	77.4116	1,681.64	79.672	1,681.64	76.3607	1,681.64	77.1453	1,681.64	73.6653	1,681.64	71.8437	1,681.64	72.6748	1,681.64	69.8728	1,681.64	74.25	1,681.64	75.4245	1,681.64	75.4749	1,681.64	78.1191	1,681.64	76.0112	1,681.64	78.2677	1,681.64	77.2034	1,681.64	77.5472	1,681.64	78.0414	1,681.64	77.1392	1,681.64	77.5503	1,681.64	76.7365
1,741.7	87.3746	1,741.7	86.7675	1,741.7	85.4825	1,741.7	85.4228	1,741.7	82.7865	1,741.7	85.6389	1,741.7	83.7051	1,741.7	86.5436	1,741.7	84.4604	1,741.7	86.258	1,741.7	82.9504	1,741.7	84.2378	1,741.7	79.9429	1,741.7	79.8319	1,741.7	78.221	1,741.7	80.6513	1,741.7	78.8256	1,741.7	81.9378	1,741.7	79.2875	1,741.7	80.2113	1,741.7	80.1031	1,741.7	74.4116	1,741.7	79.8498	1,741.7	69.7134	1,741.7	79.4304	1,741.7	60.8305	1,741.7	78.596	1,741.7	72.7744	1,741.7	68.3202	1,741.7	77.6805	1,741.7	75.8644	1,741.7	79.0004	1,741.7	78.3604	1,741.7	78.0881	1,741.7	76.2537	1,741.7	75.7777
1,803.22	87.5422	1,803.22	87.521	1,803.22	86.5089	1,803.22	86.7655	1,803.22	84.9536	1,803.22	86.0341	1,803.22	82.8843	1,803.22	85.4535	1,803.22	81.3248	1,803.22	84.1414	1,803.22	82.0904	1,803.22	81.9344	1,803.22	80.5735	1,803.22	81.5318	1,803.22	76.6081	1,803.22	81.1248	1,803.22	74.3406	1,803.22	78.8967	1,803.22	70.3634	1,803.22	77.2629	1,803.22	67.1895	1,803.22	77.5162	1,803.22	67.1763	1,803.22	75.4806	1,803.22	68.9567	1,803.22	68.7958	1,803.22	73.1119	1,803.22	72.0028	1,803.22	73.6985	1,803.22	75.1155	1,803.22	75.6807	1,803.22	78.248	1,803.22	77.7739	1,803.22	79.5041	1,803.22	78.3296	1,803.22	78.9931
1,866.21	87.9099	1,866.21	88.4599	1,866.21	86.7249	1,866.21	88.1761	1,866.21	85.6592	1,866.21	87.0976	1,866.21	84.3054	1,866.21	85.6812	1,866.21	81.2807	1,866.21	84.2181	1,866.21	79.0392	1,866.21	84.1314	1,866.21	80.0318	1,866.21	85.0008	1,866.21	79.4896	1,866.21	84.9486	1,866.21	78.7862	1,866.21	84.4134	1,866.21	78.0515	1,866.21	82.7632	1,866.21	76.2683	1,866.21	77.2803	1,866.21	76.0989	1,866.21	71.1442	1,866.21	75.545	1,866.21	70.6934	1,866.21	76.3238	1,866.21	74.6512	1,866.21	77.086	1,866.21	77.6808	1,866.21	74.3606	1,866.21	78.8493	1,866.21	74.6794	1,866.21	79.4168	1,866.21	76.9887	1,866.21	78.7537
1,932.13	86.6692	1,932.13	87.2807	1,932.13	86.0988	1,932.13	87.6913	1,932.13	85.2491	1,932.13	87.1861	1,932.13	84.4984	1,932.13	85.809	1,932.13	82.6765	1,932.13	84.0234	1,932.13	78.8577	1,932.13	80.7254	1,932.13	72.1862	1,932.13	76.5704	1,932.13	72.1851	1,932.13	77.3988	1,932.13	67.5438	1,932.13	79.9002	1,932.13	66.8526	1,932.13	79.0095	1,932.13	69.1033	1,932.13	77.3097	1,932.13	72.7515	1,932.13	76.8943	1,932.13	68.3543	1,932.13	72.3382	1,932.13	69.1595	1,932.13	73.1659	1,932.13	72.5099	1,932.13	76.2804	1,932.13	73.9415	1,932.13	77.5931	1,932.13	75.6053	1,932.13	76.7854	1,932.13	75.34	1,932.13	75.2409
1,999.51	86.6588	1,999.51	86.7756	1,999.51	85.6779	1,999.51	86.2934	1,999.51	84.5139	1,999.51	85.8374	1,999.51	83.3853	1,999.51	85.1805	1,999.51	81.4442	1,999.51	83.4681	1,999.51	79.2297	1,999.51	81.5689	1,999.51	76.4323	1,999.51	80.2156	1,999.51	71.7469	1,999.51	78.6507	1,999.51	66.4697	1,999.51	77.3329	1,999.51	63.4834	1,999.51	76.2734	1,999.51	64.3785	1,999.51	75.7407	1,999.51	65.8714	1,999.51	74.5722	1,999.51	63.7733	1,999.51	70.4601	1,999.51	67.1782	1,999.51	69.2788	1,999.51	72.4098	1,999.51	72.9186	1,999.51	74.0034	1,999.51	75.0372	1,999.51	73.9849	1,999.51	75.6522	1,999.51	74.1699	1,999.51	75.0563
2,069.82	87.3699	2,069.82	87.022	2,069.82	86.3109	2,069.82	86.0993	2,069.82	84.5047	2,069.82	85.7213	2,069.82	82.6993	2,069.82	84.9769	2,069.82	80.9719	2,069.82	83.173	2,069.82	79.0412	2,069.82	81.262	2,069.82	75.4157	2,069.82	78.8483	2,069.82	72.3989	2,069.82	77.5573	2,069.82	68.326	2,069.82	78.0919	2,069.82	63.0584	2,069.82	76.3907	2,069.82	65.274	2,069.82	74.2479	2,069.82	62.1007	2,069.82	73.1867	2,069.82	59.5572	2,069.82	70.7361	2,069.82	65.0922	2,069.82	67.8254	2,069.82	69.3644	2,069.82	70.9986	2,069.82	72.7769	2,069.82	73.802	2,069.82	74.0713	2,069.82	75.0949	2,069.82	74.6833	2,069.82	75.4202
2,143.07	86.9755	2,143.07	87.0839	2,143.07	86.2456	2,143.07	86.4468	2,143.07	84.5914	2,143.07	85.0554	2,143.07	81.7492	2,143.07	83.6364	2,143.07	79.3796	2,143.07	82.4752	2,143.07	77.535	2,143.07	80.4598	2,143.07	72.9177	2,143.07	77.9032	2,143.07	70.0947	2,143.07	76.2888	2,143.07	68.329	2,143.07	74.4339	2,143.07	65.4099	2,143.07	73.0318	2,143.07	65.1515	2,143.07	72.249	2,143.07	58.1746	2,143.07	71.0174	2,143.07	42.873	2,143.07	69.6124	2,143.07	60.8351	2,143.07	68.8036	2,143.07	68.3166	2,143.07	70.7208	2,143.07	70.8008	2,143.07	73.2517	2,143.07	72.1868	2,143.07	74.2803	2,143.07	73.8212	2,143.07	74.5183
2,219.24	85.2612	2,219.24	85.7204	2,219.24	84.7196	2,219.24	85.319	2,219.24	83.7179	2,219.24	83.8676	2,219.24	81.7818	2,219.24	82.3885	2,219.24	79.3368	2,219.24	80.6453	2,219.24	75.8932	2,219.24	78.0822	2,219.24	71.1679	2,219.24	75.711	2,219.24	67.3654	2,219.24	73.378	2,219.24	63.117	2,219.24	70.8434	2,219.24	61.3566	2,219.24	68.9792	2,219.24	62.209	2,219.24	67.6876	2,219.24	53.3502	2,219.24	65.1926	2,219.24	40.7684	2,219.24	64.5525	2,219.24	60.9136	2,219.24	66.7659	2,219.24	66.9456	2,219.24	67.9528	2,219.24	68.6369	2,219.24	70.17	2,219.24	70.5043	2,219.24	71.6663	2,219.24	71.5455	2,219.24	71.6033
2,296.88	84.0146	2,296.88	83.6239	2,296.88	83.2896	2,296.88	82.8532	2,296.88	82.1054	2,296.88	82.1327	2,296.88	80.7493	2,296.88	80.193	2,296.88	78.5929	2,296.88	77.036	2,296.88	75.0256	2,296.88	74.0164	2,296.88	71.1863	2,296.88	70.6859	2,296.88	66.7324	2,296.88	68.1328	2,296.88	57.6269	2,296.88	65.9553	2,296.88	58.8242	2,296.88	64.1336	2,296.88	59.9707	2,296.88	62.6723	2,296.88	56.5748	2,296.88	59.4885	2,296.88	58.2422	2,296.88	54.409	2,296.88	62.8207	2,296.88	57.349	2,296.88	64.0588	2,296.88	63.2172	2,296.88	66.9011	2,296.88	65.6251	2,296.88	69.0472	2,296.88	67.5728	2,296.88	69.3369	2,296.88	68.7567
2,378.91	82.7002	2,378.91	82.012	2,378.91	82.2274	2,378.91	80.3582	2,378.91	80.909	2,378.91	78.6686	2,378.91	78.7161	2,378.91	76.6102	2,378.91	76.5011	2,378.91	73.2042	2,378.91	74.0511	2,378.91	68.7154	2,378.91	70.5204	2,378.91	65.8892	2,378.91	68.0246	2,378.91	65.9708	2,378.91	65.4109	2,378.91	65.562	2,378.91	64.1553	2,378.91	64.7112	2,378.91	59.0861	2,378.91	64.3583	2,378.91	56.2135	2,378.91	61.7119	2,378.91	58.9909	2,378.91	60.4406	2,378.91	62.613	2,378.91	53.0132	2,378.91	64.5981	2,378.91	57.7566	2,378.91	65.508	2,378.91	63.3244	2,378.91	66.841	2,378.91	65.9777	2,378.91	67.7617	2,378.91	67.8293
2,462.4	81.4787	2,462.4	81.2117	2,462.4	81.1524	2,462.4	80.1309	2,462.4	80.2402	2,462.4	78.1109	2,462.4	78.391	2,462.4	76.0139	2,462.4	76.7557	2,462.4	74.212	2,462.4	73.8711	2,462.4	72.5716	2,462.4	69.7962	2,462.4	69.2207	2,462.4	69.2069	2,462.4	66.0837	2,462.4	66.9283	2,462.4	67.2299	2,462.4	65.0699	2,462.4	67.5931	2,462.4	61.9783	2,462.4	68.587	2,462.4	54.2348	2,462.4	66.7771	2,462.4	59.6263	2,462.4	62.8579	2,462.4	64.7672	2,462.4	61.4168	2,462.4	64.7759	2,462.4	60.5439	2,462.4	64.9002	2,462.4	64.0969	2,462.4	68.164	2,462.4	64.7047	2,462.4	68.9453	2,462.4	66.8153
2,548.83	81.1214	2,548.83	80.9075	2,548.83	80.3905	2,548.83	80.1229	2,548.83	78.7578	2,548.83	78.4533	2,548.83	77.7451	2,548.83	77.2016	2,548.83	76.5166	2,548.83	75.9182	2,548.83	73.1876	2,548.83	73.4044	2,548.83	71.9522	2,548.83	71.1515	2,548.83	69.2832	2,548.83	68.1448	2,548.83	64.2046	2,548.83	64.9599	2,548.83	65.7023	2,548.83	67.4818	2,548.83	63.3624	2,548.83	69.2536	2,548.83	61.3472	2,548.83	68.5116	2,548.83	64.2945	2,548.83	64.8923	2,548.83	65.9573	2,548.83	62.091	2,548.83	64.4948	2,548.83	62.0258	2,548.83	64.5324	2,548.83	65.145	2,548.83	66.8769	2,548.83	66.0248	2,548.83	68.5548	2,548.83	66.8476
2,639.65	81.1709	2,639.65	80.7041	2,639.65	80.5021	2,639.65	79.3269	2,639.65	78.5741	2,639.65	78.7689	2,639.65	77.3207	2,639.65	78.7517	2,639.65	76.3746	2,639.65	76.7998	2,639.65	74.0356	2,639.65	73.7346	2,639.65	72.2495	2,639.65	71.1227	2,639.65	71.2978	2,639.65	68.7998	2,639.65	71.421	2,639.65	68.9694	2,639.65	68.103	2,639.65	67.0494	2,639.65	58.6134	2,639.65	67.2842	2,639.65	52.7168	2,639.65	69.1059	2,639.65	66.447	2,639.65	66.7526	2,639.65	66.4334	2,639.65	61.3265	2,639.65	65.7058	2,639.65	62.6316	2,639.65	64.9016	2,639.65	66.4374	2,639.65	67.0674	2,639.65	66.864	2,639.65	68.4919	2,639.65	66.6528
2,731.93	80.5441	2,731.93	80.4364	2,731.93	79.9421	2,731.93	79.9118	2,731.93	78.9479	2,731.93	80.4958	2,731.93	77.7246	2,731.93	79.4938	2,731.93	76.7077	2,731.93	77.3981	2,731.93	75.3605	2,731.93	74.8244	2,731.93	73.8135	2,731.93	73.5446	2,731.93	73.6897	2,731.93	70.8536	2,731.93	72.183	2,731.93	63.8146	2,731.93	65.9129	2,731.93	66.7527	2,731.93	62.7658	2,731.93	68.3497	2,731.93	62.3671	2,731.93	68.8249	2,731.93	66.3315	2,731.93	68.3074	2,731.93	67.6844	2,731.93	63.8638	2,731.93	65.9926	2,731.93	60.5325	2,731.93	62.8576	2,731.93	67.0102	2,731.93	67.5992	2,731.93	68.2186	2,731.93	68.1757	2,731.93	66.9243
2,828.61	81.0148	2,828.61	80.8443	2,828.61	79.8171	2,828.61	81.3092	2,828.61	78.6485	2,828.61	80.9629	2,828.61	78.3659	2,828.61	79.3357	2,828.61	76.986	2,828.61	77.9347	2,828.61	76.668	2,828.61	75.4754	2,828.61	74.5542	2,828.61	72.7959	2,828.61	73.3859	2,828.61	69.2693	2,828.61	73.4027	2,828.61	67.4599	2,828.61	67.1171	2,828.61	67.6205	2,828.61	71.2786	2,828.61	66.5257	2,828.61	64.9667	2,828.61	68.6249	2,828.61	68.4255	2,828.61	68.142	2,828.61	67.4698	2,828.61	64.2007	2,828.61	67.5868	2,828.61	60.0167	2,828.61	61.2834	2,828.61	67.0184	2,828.61	66.8104	2,828.61	69.1052	2,828.61	68.182	2,828.61	67.4549
2,928.22	81.3607	2,928.22	81.6614	2,928.22	80.452	2,928.22	82.1554	2,928.22	78.7468	2,928.22	81.1614	2,928.22	78.861	2,928.22	80.1072	2,928.22	78.619	2,928.22	77.9509	2,928.22	77.6481	2,928.22	74.9285	2,928.22	75.5777	2,928.22	72.9738	2,928.22	75.7965	2,928.22	69.3648	2,928.22	73.1657	2,928.22	70.7081	2,928.22	67.6872	2,928.22	66.2444	2,928.22	75.1605	2,928.22	65.0287	2,928.22	69.0698	2,928.22	67.1255	2,928.22	66.1398	2,928.22	67.2936	2,928.22	69.6274	2,928.22	65.6249	2,928.22	67.1813	2,928.22	59.4596	2,928.22	62.036	2,928.22	64.0917	2,928.22	67.6708	2,928.22	69.1694	2,928.22	67.5466	2,928.22	66.082
3,030.76	80.6656	3,030.76	81.9568	3,030.76	80.0084	3,030.76	82.0437	3,030.76	79.1624	3,030.76	81.5526	3,030.76	79.2752	3,030.76	80.1485	3,030.76	79.4611	3,030.76	76.5156	3,030.76	78.177	3,030.76	73.8504	3,030.76	76.0449	3,030.76	69.3401	3,030.76	74.3347	3,030.76	72.9768	3,030.76	69.0925	3,030.76	68.6422	3,030.76	72.6768	3,030.76	64.0737	3,030.76	75.4973	3,030.76	58.3276	3,030.76	69.5504	3,030.76	66.4713	3,030.76	65.4407	3,030.76	69.22	3,030.76	70.2453	3,030.76	64.6116	3,030.76	66.2935	3,030.76	59.4852	3,030.76	58.1087	3,030.76	61.1532	3,030.76	67.4717	3,030.76	68.5397	3,030.76	67.1176	3,030.76	67.2998
3,137.7	81.4545	3,137.7	82.2944	3,137.7	80.3299	3,137.7	82.4731	3,137.7	78.7411	3,137.7	81.2878	3,137.7	79.0919	3,137.7	78.8363	3,137.7	80.5602	3,137.7	76.15	3,137.7	79.8851	3,137.7	70.7969	3,137.7	76.7624	3,137.7	73.372	3,137.7	74.5317	3,137.7	71.1653	3,137.7	70.7382	3,137.7	70.724	3,137.7	74.8173	3,137.7	71.4244	3,137.7	74.6308	3,137.7	66.5888	3,137.7	69.6057	3,137.7	64.7706	3,137.7	67.0675	3,137.7	69.3565	3,137.7	70.7634	3,137.7	66.9757	3,137.7	67.027	3,137.7	63.8597	3,137.7	61.3111	3,137.7	58.825	3,137.7	68.1859	3,137.7	68.5354	3,137.7	65.2405	3,137.7	67.3882
3,249.02	81.1714	3,249.02	82.9663	3,249.02	80.609	3,249.02	83.3099	3,249.02	79.5366	3,249.02	81.3923	3,249.02	79.204	3,249.02	78.7604	3,249.02	81.3154	3,249.02	73.9032	3,249.02	81.3518	3,249.02	73.2198	3,249.02	79.0754	3,249.02	73.0298	3,249.02	76.2188	3,249.02	70.3872	3,249.02	76.7448	3,249.02	75.9234	3,249.02	74.8897	3,249.02	72.1231	3,249.02	72.7302	3,249.02	69.4312	3,249.02	73.1574	3,249.02	63.5141	3,249.02	70.2559	3,249.02	68.5237	3,249.02	71.5917	3,249.02	69.0297	3,249.02	69.4364	3,249.02	62.4673	3,249.02	61.3745	3,249.02	59.6911	3,249.02	68.8243	3,249.02	67.3371	3,249.02	67.9043	3,249.02	68.9074
3,363.28	81.742	3,363.28	83.4837	3,363.28	79.8031	3,363.28	83.1107	3,363.28	80.0781	3,363.28	81.0007	3,363.28	80.5226	3,363.28	77.3852	3,363.28	81.7209	3,363.28	74.5172	3,363.28	80.7669	3,363.28	74.6627	3,363.28	80.315	3,363.28	70.8766	3,363.28	79.4514	3,363.28	75.5387	3,363.28	79.4844	3,363.28	75.6905	3,363.28	74.8801	3,363.28	71.614	3,363.28	73.3196	3,363.28	71.5016	3,363.28	73.4439	3,363.28	67.0545	3,363.28	71.3657	3,363.28	67.8904	3,363.28	69.6079	3,363.28	69.8822	3,363.28	68.7875	3,363.28	65.5219	3,363.28	62.7839	3,363.28	57.5622	3,363.28	67.6515	3,363.28	66.8665	3,363.28	67.027	3,363.28	70.5518
3,481.93	82.04	3,481.93	84.1321	3,481.93	79.8954	3,481.93	83.6694	3,481.93	80.0001	3,481.93	80.665	3,481.93	81.2951	3,481.93	77.8417	3,481.93	82.4605	3,481.93	77.4713	3,481.93	80.6359	3,481.93	73.9766	3,481.93	80.9744	3,481.93	73.0937	3,481.93	80.664	3,481.93	71.8256	3,481.93	80.0566	3,481.93	68.953	3,481.93	71.6026	3,481.93	75.0982	3,481.93	72.3229	3,481.93	71.2606	3,481.93	72.7366	3,481.93	67.3572	3,481.93	71.054	3,481.93	66.3492	3,481.93	70.6049	3,481.93	71.4659	3,481.93	67.433	3,481.93	67.8665	3,481.93	65.532	3,481.93	57.5874	3,481.93	69.333	3,481.93	64.4954	3,481.93	65.5326	3,481.93	69.4519
3,604.98	82.553	3,604.98	85.0237	3,604.98	79.5971	3,604.98	83.3913	3,604.98	80.5159	3,604.98	80.0719	3,604.98	81.8015	3,604.98	78.3702	3,604.98	83.7474	3,604.98	77.1754	3,604.98	81.7156	3,604.98	76.2825	3,604.98	82.4788	3,604.98	75.3608	3,604.98	81.8419	3,604.98	66.9333	3,604.98	78.8946	3,604.98	72.215	3,604.98	64.475	3,604.98	73.758	3,604.98	70.3059	3,604.98	74.46	3,604.98	67.8769	3,604.98	69.4021	3,604.98	68.6092	3,604.98	65.8085	3,604.98	71.0329	3,604.98	70.6414	3,604.98	65.1559	3,604.98	69.9135	3,604.98	67.2257	3,604.98	61.6301	3,604.98	69.2769	3,604.98	61.1411	3,604.98	64.9807	3,604.98	68.8911
3,732.42	83.7155	3,732.42	84.9132	3,732.42	79.054	3,732.42	82.627	3,732.42	80.6167	3,732.42	79.4983	3,732.42	82.2466	3,732.42	78.8391	3,732.42	83.0738	3,732.42	77.8478	3,732.42	82.8675	3,732.42	76.8439	3,732.42	83.837	3,732.42	73.9755	3,732.42	81.5135	3,732.42	75.8313	3,732.42	72.978	3,732.42	70.9911	3,732.42	72.4299	3,732.42	70.573	3,732.42	67.1691	3,732.42	75.2381	3,732.42	47.4765	3,732.42	72.1934	3,732.42	71.4693	3,732.42	67.3615	3,732.42	72.7844	3,732.42	70.3141	3,732.42	68.813	3,732.42	70.6293	3,732.42	66.1162	3,732.42	65.2069	3,732.42	68.756	3,732.42	60.2952	3,732.42	64.8328	3,732.42	67.7985
3,864.26	84.6126	3,864.26	85.1258	3,864.26	80.4844	3,864.26	81.762	3,864.26	80.8734	3,864.26	79.8405	3,864.26	82.7246	3,864.26	79.9978	3,864.26	82.9398	3,864.26	77.2476	3,864.26	84.2602	3,864.26	76.1082	3,864.26	84.2693	3,864.26	76.1747	3,864.26	81.7709	3,864.26	75.7329	3,864.26	75.9057	3,864.26	70.4856	3,864.26	77.6061	3,864.26	69.4305	3,864.26	73.3179	3,864.26	73.5114	3,864.26	69.589	3,864.26	73.6306	3,864.26	72.5681	3,864.26	65.7801	3,864.26	70.8782	3,864.26	70.651	3,864.26	71.2704	3,864.26	71.495	3,864.26	66.657	3,864.26	66.5044	3,864.26	68.3817	3,864.26	63.5939	3,864.26	66.1782	3,864.26	67.7839
4,000.49	84.7127	4,000.49	84.3495	4,000.49	80.2221	4,000.49	81.7971	4,000.49	79.7832	4,000.49	81.7702	4,000.49	81.9481	4,000.49	79.6535	4,000.49	82.9651	4,000.49	78.7968	4,000.49	85.1052	4,000.49	77.3841	4,000.49	83.3999	4,000.49	77.1242	4,000.49	80.4394	4,000.49	74.6602	4,000.49	76.6383	4,000.49	76.1274	4,000.49	77.5947	4,000.49	70.5858	4,000.49	74.3787	4,000.49	72.4135	4,000.49	72.2423	4,000.49	74	4,000.49	68.6294	4,000.49	69.3051	4,000.49	69.4815	4,000.49	67.4362	4,000.49	69.6524	4,000.49	71.3493	4,000.49	66.7407	4,000.49	67.7463	4,000.49	67.5437	4,000.49	61.2652	4,000.49	66.6865	4,000.49	69.5196
4,141.11	85.4406	4,141.11	83.5841	4,141.11	81.2394	4,141.11	82.3539	4,141.11	78.3801	4,141.11	82.0751	4,141.11	81.3519	4,141.11	80.6135	4,141.11	82.7463	4,141.11	78.2916	4,141.11	85.8575	4,141.11	78.3188	4,141.11	84.1924	4,141.11	74.9716	4,141.11	80.144	4,141.11	76.9343	4,141.11	78.7353	4,141.11	76.3232	4,141.11	79.7485	4,141.11	72.2962	4,141.11	74.3196	4,141.11	70.2767	4,141.11	69.9298	4,141.11	73.8764	4,141.11	63.794	4,141.11	71.2029	4,141.11	71.3104	4,141.11	66.7458	4,141.11	67.127	4,141.11	71.4226	4,141.11	67.8839	4,141.11	67.4575	4,141.11	64.9405	4,141.11	63.2908	4,141.11	66.1399	4,141.11	68.292
4,287.6	85.5032	4,287.6	84.6792	4,287.6	82.1743	4,287.6	83.7574	4,287.6	79.0648	4,287.6	81.3795	4,287.6	80.4662	4,287.6	79.8964	4,287.6	83.9315	4,287.6	80.4767	4,287.6	86.654	4,287.6	79.4142	4,287.6	83.8628	4,287.6	76.9721	4,287.6	78.3397	4,287.6	76.1646	4,287.6	80.9207	4,287.6	72.7668	4,287.6	78.0588	4,287.6	74.3568	4,287.6	71.1733	4,287.6	66.7852	4,287.6	51.4562	4,287.6	73.3351	4,287.6	69.6203	4,287.6	73.955	4,287.6	73.933	4,287.6	62.32	4,287.6	70.5759	4,287.6	70.9075	4,287.6	67.3951	4,287.6	68.7338	4,287.6	64.9227	4,287.6	63.1051	4,287.6	67.6178	4,287.6	64.6369
4,438.48	84.6768	4,438.48	84.6942	4,438.48	82.9996	4,438.48	83.1832	4,438.48	79.0511	4,438.48	81.4132	4,438.48	81.3512	4,438.48	81.7319	4,438.48	83.795	4,438.48	80.7509	4,438.48	86.4724	4,438.48	78.6357	4,438.48	81.5939	4,438.48	78.1714	4,438.48	78.8293	4,438.48	74.8216	4,438.48	81.0267	4,438.48	76.635	4,438.48	71.7212	4,438.48	75.7131	4,438.48	69.6331	4,438.48	71.9861	4,438.48	68.7658	4,438.48	70.5224	4,438.48	69.257	4,438.48	73.6087	4,438.48	71.3202	4,438.48	67.0082	4,438.48	71.3146	4,438.48	69.4178	4,438.48	68.3539	4,438.48	70.3132	4,438.48	61.5828	4,438.48	60.9468	4,438.48	66.5554	4,438.48	64.2309
4,595.21	84.8395	4,595.21	83.2356	4,595.21	84.9202	4,595.21	82.1952	4,595.21	78.4394	4,595.21	82.2104	4,595.21	82.6273	4,595.21	81.1596	4,595.21	84.4782	4,595.21	79.8718	4,595.21	86.0488	4,595.21	80.593	4,595.21	77.8017	4,595.21	75.6294	4,595.21	81.49	4,595.21	75.6439	4,595.21	79.6959	4,595.21	70.1385	4,595.21	72.7448	4,595.21	74.7255	4,595.21	69.3489	4,595.21	72.2479	4,595.21	69.3397	4,595.21	66.5246	4,595.21	57.7548	4,595.21	73.1026	4,595.21	69.8417	4,595.21	69.2679	4,595.21	70.8569	4,595.21	65.4541	4,595.21	67.2352	4,595.21	71.0573	4,595.21	63.4645	4,595.21	66.834	4,595.21	65.817	4,595.21	64.3672
4,756.35	84.9842	4,756.35	84.5293	4,756.35	84.9776	4,756.35	83.0296	4,756.35	81.0524	4,756.35	82.1088	4,756.35	81.9764	4,756.35	81.1611	4,756.35	85.9653	4,756.35	81.3828	4,756.35	84.3676	4,756.35	77.6956	4,756.35	81.1657	4,756.35	77.6462	4,756.35	82.7897	4,756.35	75.0368	4,756.35	77.8524	4,756.35	73.7296	4,756.35	75.0952	4,756.35	72.7067	4,756.35	58.5602	4,756.35	75.6653	4,756.35	67.2437	4,756.35	68.3846	4,756.35	64.3718	4,756.35	71.8447	4,756.35	69.2273	4,756.35	71.8331	4,756.35	69.1861	4,756.35	64.7862	4,756.35	65.5954	4,756.35	69.8725	4,756.35	64.5462	4,756.35	65.243	4,756.35	68.1179	4,756.35	63.1034
4,924.8	85.3297	4,924.8	86.2153	4,924.8	84.3637	4,924.8	84.3306	4,924.8	80.5491	4,924.8	82.8404	4,924.8	83.0171	4,924.8	83.2743	4,924.8	85.5349	4,924.8	80.0103	4,924.8	81.798	4,924.8	78.3988	4,924.8	84.5271	4,924.8	75.2515	4,924.8	82.5605	4,924.8	74.8895	4,924.8	77.7486	4,924.8	72.2799	4,924.8	75.3376	4,924.8	71.3493	4,924.8	62.016	4,924.8	72.7693	4,924.8	64.691	4,924.8	70.6952	4,924.8	69.63	4,924.8	68.8801	4,924.8	67.4158	4,924.8	72.6131	4,924.8	71.4154	4,924.8	63.5184	4,924.8	67.5985	4,924.8	68.2626	4,924.8	60.4205	4,924.8	66.4692	4,924.8	67.9098	4,924.8	66.1469
5,097.66	83.3285	5,097.66	84.4518	5,097.66	84.4817	5,097.66	82.7705	5,097.66	81.9801	5,097.66	83.5633	5,097.66	82.605	5,097.66	82.6764	5,097.66	85.2581	5,097.66	79.6694	5,097.66	78.9209	5,097.66	77.7098	5,097.66	85.4064	5,097.66	74.1761	5,097.66	79.0967	5,097.66	76.2677	5,097.66	76.8447	5,097.66	73.3232	5,097.66	73.3575	5,097.66	70.9629	5,097.66	66.7529	5,097.66	72.574	5,097.66	65.1483	5,097.66	72.8943	5,097.66	68.0346	5,097.66	64.8441	5,097.66	69.6384	5,097.66	71.9911	5,097.66	70.5375	5,097.66	67.4641	5,097.66	65.9578	5,097.66	67.5635	5,097.66	63.2829	5,097.66	65.74	5,097.66	64.6661	5,097.66	58.8316
5,277.83	85.2982	5,277.83	84.3783	5,277.83	84.4075	5,277.83	83.5277	5,277.83	81.4799	5,277.83	84.0578	5,277.83	81.919	5,277.83	82.4397	5,277.83	84.4688	5,277.83	79.6735	5,277.83	82.0523	5,277.83	78.2048	5,277.83	84.7226	5,277.83	76.6114	5,277.83	78.1239	5,277.83	73.5495	5,277.83	76.4525	5,277.83	73.7669	5,277.83	73.4447	5,277.83	72.4438	5,277.83	62.9255	5,277.83	69.9961	5,277.83	64.7761	5,277.83	71.9379	5,277.83	62.8525	5,277.83	67.0044	5,277.83	73.0291	5,277.83	70.3337	5,277.83	71.7147	5,277.83	68.4958	5,277.83	68.4863	5,277.83	61.7394	5,277.83	65.3148	5,277.83	67.0561	5,277.83	61.4017	5,277.83	64.5122
5,463.87	84.6609	5,463.87	84.7743	5,463.87	83.8916	5,463.87	84.7687	5,463.87	80.4884	5,463.87	83.5197	5,463.87	80.8412	5,463.87	81.9221	5,463.87	81.5858	5,463.87	79.1056	5,463.87	84.5641	5,463.87	77.9714	5,463.87	81.8242	5,463.87	75.7871	5,463.87	78.6616	5,463.87	76.3586	5,463.87	75.0809	5,463.87	73.5001	5,463.87	71.7585	5,463.87	73.7393	5,463.87	64.3654	5,463.87	69.7921	5,463.87	66.0173	5,463.87	72.4647	5,463.87	61.3246	5,463.87	69.1151	5,463.87	72.7456	5,463.87	68.3772	5,463.87	72.577	5,463.87	71.4407	5,463.87	69.4001	5,463.87	63.9765	5,463.87	66.3049	5,463.87	67.1595	5,463.87	61.3642	5,463.87	64.4961
5,657.23	84.1519	5,657.23	83.8598	5,657.23	83.9223	5,657.23	84.1887	5,657.23	80.2716	5,657.23	82.6691	5,657.23	81.0321	5,657.23	82.1767	5,657.23	79.1469	5,657.23	78.6987	5,657.23	84.4076	5,657.23	77.7858	5,657.23	80.8367	5,657.23	76.0671	5,657.23	76.5269	5,657.23	74.8437	5,657.23	74.5091	5,657.23	74.4155	5,657.23	71.3426	5,657.23	73.2334	5,657.23	68.2217	5,657.23	71.1983	5,657.23	64.8643	5,657.23	71.2525	5,657.23	35.1691	5,657.23	71.7661	5,657.23	70.1949	5,657.23	66.167	5,657.23	64.5244	5,657.23	71.624	5,657.23	62.7476	5,657.23	60.2928	5,657.23	63.6537	5,657.23	66.128	5,657.23	65.5782	5,657.23	61.6175
5,856.45	83.7176	5,856.45	84.1007	5,856.45	83.2535	5,856.45	84.1015	5,856.45	82.1311	5,856.45	83.5168	5,856.45	78.1659	5,856.45	81.711	5,856.45	80.2744	5,856.45	79.1293	5,856.45	81.2714	5,856.45	78.1814	5,856.45	78.814	5,856.45	76.6531	5,856.45	76.4011	5,856.45	75.982	5,856.45	73.8479	5,856.45	72.8556	5,856.45	74.7536	5,856.45	73.1388	5,856.45	66.6088	5,856.45	71.6664	5,856.45	64.965	5,856.45	67.9529	5,856.45	60.3415	5,856.45	72.5326	5,856.45	72.1676	5,856.45	66.7557	5,856.45	66.7872	5,856.45	71.4441	5,856.45	63.0011	5,856.45	66.8988	5,856.45	57.795	5,856.45	65.4972	5,856.45	60.8245	5,856.45	64.6387
6,062.99	83.965	6,062.99	84.2245	6,062.99	84.3654	6,062.99	84.9174	6,062.99	82.5717	6,062.99	82.3555	6,062.99	73.7435	6,062.99	81.1368	6,062.99	80.4108	6,062.99	79.7048	6,062.99	79.8998	6,062.99	78.7796	6,062.99	77.6178	6,062.99	76.6937	6,062.99	75.3394	6,062.99	73.3533	6,062.99	75.1085	6,062.99	72.9056	6,062.99	73.1788	6,062.99	69.9923	6,062.99	63.83	6,062.99	71.7709	6,062.99	62.1971	6,062.99	66.3103	6,062.99	58.4273	6,062.99	71.4421	6,062.99	70.7273	6,062.99	69.0953	6,062.99	65.9687	6,062.99	68.8708	6,062.99	66.4196	6,062.99	69.7422	6,062.99	51.8933	6,062.99	55.659	6,062.99	57.671	6,062.99	65.7424
6,276.86	83.6756	6,276.86	84.7473	6,276.86	84.0595	6,276.86	84.4653	6,276.86	81.8178	6,276.86	82.2484	6,276.86	70.7842	6,276.86	81.558	6,276.86	79.7666	6,276.86	79.9182	6,276.86	78.3008	6,276.86	78.7284	6,276.86	75.6907	6,276.86	75.718	6,276.86	75.2066	6,276.86	73.978	6,276.86	74.0215	6,276.86	71.8713	6,276.86	69.7068	6,276.86	69.0883	6,276.86	68.8183	6,276.86	70.9177	6,276.86	48.6668	6,276.86	69.016	6,276.86	54.6397	6,276.86	67.4714	6,276.86	70.7079	6,276.86	70.2916	6,276.86	69.4609	6,276.86	63.4281	6,276.86	68.2405	6,276.86	70.0767	6,276.86	58.7506	6,276.86	61.4365	6,276.86	58.4859	6,276.86	66.5263
6,498.05	83.2066	6,498.05	84.3597	6,498.05	83.2214	6,498.05	84.245	6,498.05	80.8064	6,498.05	81.9607	6,498.05	72.4297	6,498.05	81.3541	6,498.05	77.7134	6,498.05	80.2508	6,498.05	77.6515	6,498.05	77.4458	6,498.05	75.9591	6,498.05	75.8651	6,498.05	75.5485	6,498.05	72.9416	6,498.05	72.6584	6,498.05	73.2314	6,498.05	72.409	6,498.05	69.7737	6,498.05	71.3039	6,498.05	69.6645	6,498.05	55.8528	6,498.05	70.2004	6,498.05	56.247	6,498.05	62.0823	6,498.05	69.8132	6,498.05	69.095	6,498.05	68.7399	6,498.05	63.2119	6,498.05	67.2527	6,498.05	69.0984	6,498.05	61.1922	6,498.05	64.5062	6,498.05	62.6797	6,498.05	66.5139
6,726.56	82.8328	6,726.56	84.4598	6,726.56	82.3773	6,726.56	84.1587	6,726.56	81.9516	6,726.56	81.6552	6,726.56	76.0134	6,726.56	81.8405	6,726.56	73.565	6,726.56	79.7068	6,726.56	75.7605	6,726.56	77.387	6,726.56	75.4772	6,726.56	75.7312	6,726.56	74.9507	6,726.56	74.354	6,726.56	66.6302	6,726.56	72.9126	6,726.56	73.2374	6,726.56	71.9269	6,726.56	69.6595	6,726.56	65.8696	6,726.56	57.8921	6,726.56	69.8664	6,726.56	56.9643	6,726.56	65.9734	6,726.56	66.7725	6,726.56	65.4553	6,726.56	66.4359	6,726.56	65.3664	6,726.56	64.4435	6,726.56	64.7604	6,726.56	61.7872	6,726.56	65.4372	6,726.56	61.378	6,726.56	63.4822
6,963.87	82.9701	6,963.87	84.7108	6,963.87	82.3483	6,963.87	83.2742	6,963.87	83.624	6,963.87	81.7906	6,963.87	77.0945	6,963.87	81.6518	6,963.87	64.6052	6,963.87	79.2536	6,963.87	73.8513	6,963.87	77.1093	6,963.87	73.841	6,963.87	76.0875	6,963.87	72.4148	6,963.87	71.73	6,963.87	68.7102	6,963.87	70.0924	6,963.87	70.7079	6,963.87	70.4015	6,963.87	65.4481	6,963.87	67.1126	6,963.87	63.9611	6,963.87	65.8537	6,963.87	54.1138	6,963.87	67.7472	6,963.87	68.3456	6,963.87	64.4202	6,963.87	64.5447	6,963.87	68.5571	6,963.87	60.386	6,963.87	61.5238	6,963.87	62.0243	6,963.87	66.033	6,963.87	61.827	6,963.87	53.2286
7,209.96	82.411	7,209.96	84.3822	7,209.96	82.0196	7,209.96	82.9016	7,209.96	83.9391	7,209.96	82.1174	7,209.96	77.886	7,209.96	81.2455	7,209.96	59.9458	7,209.96	79.0153	7,209.96	72.4203	7,209.96	76.2938	7,209.96	74.3881	7,209.96	74.6947	7,209.96	61.7558	7,209.96	69.8177	7,209.96	73.4726	7,209.96	64.5784	7,209.96	67.8703	7,209.96	65.2467	7,209.96	68.581	7,209.96	68.4378	7,209.96	64.1369	7,209.96	63.9456	7,209.96	44.2313	7,209.96	66.9488	7,209.96	67.5717	7,209.96	65.868	7,209.96	64.9625	7,209.96	67.142	7,209.96	62.5008	7,209.96	61.6508	7,209.96	59.3192	7,209.96	60.5034	7,209.96	58.6144	7,209.96	60.4391
7,464.84	82.5842	7,464.84	84.3642	7,464.84	80.7427	7,464.84	82.6638	7,464.84	82.4154	7,464.84	82.2251	7,464.84	78.651	7,464.84	80.6362	7,464.84	70.6382	7,464.84	78.9004	7,464.84	68.9674	7,464.84	75.3376	7,464.84	74.2997	7,464.84	71.7277	7,464.84	73.6623	7,464.84	70.3759	7,464.84	73.4574	7,464.84	70.5571	7,464.84	73.3548	7,464.84	67.9831	7,464.84	66.6583	7,464.84	68.4098	7,464.84	57.3227	7,464.84	68.0494	7,464.84	55.8276	7,464.84	67.4077	7,464.84	66.1363	7,464.84	67.8797	7,464.84	65.2237	7,464.84	65.2917	7,464.84	56.1741	7,464.84	66.1018	7,464.84	50.822	7,464.84	59.3827	7,464.84	58.85	7,464.84	62.8363
7,727.05	83.6734	7,727.05	84.4733	7,727.05	79.3115	7,727.05	83.2346	7,727.05	81.553	7,727.05	81.9585	7,727.05	80.7315	7,727.05	81.2421	7,727.05	69.3567	7,727.05	78.782	7,727.05	68.8044	7,727.05	74.1574	7,727.05	71.2728	7,727.05	73.8495	7,727.05	77.4877	7,727.05	71.7038	7,727.05	72.2887	7,727.05	72.8701	7,727.05	72.9656	7,727.05	70.7931	7,727.05	63.1333	7,727.05	67.8946	7,727.05	60.9014	7,727.05	68.6801	7,727.05	54.2022	7,727.05	67.4995	7,727.05	66.654	7,727.05	68.024	7,727.05	67.8353	7,727.05	66.9583	7,727.05	61.9568	7,727.05	65.3211	7,727.05	54.3282	7,727.05	66.7492	7,727.05	58.9757	7,727.05	64.099
7,999.51	84.2275	7,999.51	84.349	7,999.51	79.8395	7,999.51	83.0057	7,999.51	81.9675	7,999.51	82.1896	7,999.51	82.76	7,999.51	81.992	7,999.51	73.6766	7,999.51	78.8717	7,999.51	72.9491	7,999.51	75.2097	7,999.51	73.1186	7,999.51	75.2156	7,999.51	78.7669	7,999.51	71.6072	7,999.51	74.1176	7,999.51	67.4854	7,999.51	69.4877	7,999.51	67.7108	7,999.51	70.3931	7,999.51	66.182	7,999.51	59.7005	7,999.51	65.0144	7,999.51	47.0076	7,999.51	64.7763	7,999.51	65.8958	7,999.51	64.9987	7,999.51	68.9808	7,999.51	64.6376	7,999.51	63.7443	7,999.51	65.0848	7,999.51	56.4917	7,999.51	65.7505	7,999.51	62.0521	7,999.51	59.364
8,282.23	83.899	8,282.23	84.0369	8,282.23	80.9518	8,282.23	82.5146	8,282.23	81.6465	8,282.23	83.1558	8,282.23	83.6725	8,282.23	82.1194	8,282.23	76.9392	8,282.23	77.9482	8,282.23	70.401	8,282.23	75.3447	8,282.23	78.2111	8,282.23	73.834	8,282.23	75.6839	8,282.23	68.8281	8,282.23	74.1268	8,282.23	65.0793	8,282.23	70.6903	8,282.23	66.0748	8,282.23	71.364	8,282.23	66.9373	8,282.23	65.3968	8,282.23	67.1359	8,282.23	57.6138	8,282.23	66.2545	8,282.23	64.4698	8,282.23	67.5118	8,282.23	64.1415	8,282.23	65.5414	8,282.23	57.6582	8,282.23	66.066	8,282.23	60.8768	8,282.23	64.0442	8,282.23	58.5209	8,282.23	60.5572
8,573.73	84.5332	8,573.73	84.3077	8,573.73	80.1496	8,573.73	83.494	8,573.73	80.5044	8,573.73	83.63	8,573.73	83.0832	8,573.73	81.4222	8,573.73	79.5661	8,573.73	76.6029	8,573.73	66.4161	8,573.73	74.767	8,573.73	79.9327	8,573.73	72.5046	8,573.73	74.3975	8,573.73	70.7784	8,573.73	76.2445	8,573.73	71.9887	8,573.73	75.1758	8,573.73	70.9634	8,573.73	72.9064	8,573.73	69.5227	8,573.73	65.201	8,573.73	70.0422	8,573.73	54.309	8,573.73	69.1062	8,573.73	62.3982	8,573.73	70.1654	8,573.73	65.9009	8,573.73	69.6725	8,573.73	54.3677	8,573.73	67.1527	8,573.73	61.7493	8,573.73	62.2857	8,573.73	60.671	8,573.73	66.8877
8,876.95	84.9979	8,876.95	84.871	8,876.95	81.8245	8,876.95	84.639	8,876.95	79.5091	8,876.95	83.768	8,876.95	81.342	8,876.95	80.2081	8,876.95	79.935	8,876.95	77.5065	8,876.95	75.162	8,876.95	75.9675	8,876.95	79.073	8,876.95	75.1405	8,876.95	80.4765	8,876.95	73.2641	8,876.95	77.3742	8,876.95	72.9042	8,876.95	75.7947	8,876.95	72.5115	8,876.95	72.4706	8,876.95	70.6784	8,876.95	66.503	8,876.95	70.3627	8,876.95	55.1115	8,876.95	70.8621	8,876.95	66.9015	8,876.95	70.205	8,876.95	67.0976	8,876.95	71.6175	8,876.95	54.0081	8,876.95	66.7438	8,876.95	58.1761	8,876.95	67.6489	8,876.95	61.9143	8,876.95	65.0146
9,188.96	85.6161	9,188.96	85.8613	9,188.96	83.532	9,188.96	85.1363	9,188.96	78.3988	9,188.96	83.3504	9,188.96	79.6716	9,188.96	79.8481	9,188.96	82.1729	9,188.96	80.1839	9,188.96	79.5617	9,188.96	77.3127	9,188.96	77.8271	9,188.96	76.5401	9,188.96	81.8232	9,188.96	75.0049	9,188.96	76.4369	9,188.96	70.7214	9,188.96	74.5617	9,188.96	69.8048	9,188.96	71.6835	9,188.96	69.0452	9,188.96	63.1244	9,188.96	68.4787	9,188.96	51.0446	9,188.96	68.6634	9,188.96	67.4729	9,188.96	67.5237	9,188.96	66.3839	9,188.96	70.009	9,188.96	48.3728	9,188.96	66.6512	9,188.96	56.628	9,188.96	66.1483	9,188.96	66.6351	9,188.96	66.4639
9,514.16	84.4403	9,514.16	86.4593	9,514.16	82.6556	9,514.16	85.0112	9,514.16	79.8804	9,514.16	81.9868	9,514.16	81.198	9,514.16	81.6417	9,514.16	84.2917	9,514.16	80.6072	9,514.16	80.5453	9,514.16	77.9991	9,514.16	78.574	9,514.16	76.2458	9,514.16	80.4043	9,514.16	73.0626	9,514.16	78.9184	9,514.16	69.4406	9,514.16	74.3717	9,514.16	66.5008	9,514.16	73.3927	9,514.16	65.1849	9,514.16	61.8259	9,514.16	65.9981	9,514.16	61.6154	9,514.16	66.0558	9,514.16	53.6855	9,514.16	65.3731	9,514.16	63.6469	9,514.16	65.2743	9,514.16	48.2943	9,514.16	65.899	9,514.16	60.5989	9,514.16	66.2701	9,514.16	63.4842	9,514.16	65.26
9,849.61	85.2249	9,849.61	85.2639	9,849.61	83.2978	9,849.61	82.743	9,849.61	81.3791	9,849.61	81.7699	9,849.61	83.6816	9,849.61	82.8619	9,849.61	83.6165	9,849.61	78.8828	9,849.61	77.9483	9,849.61	77.9035	9,849.61	82.1874	9,849.61	73.1425	9,849.61	79.3999	9,849.61	68.8404	9,849.61	79.1864	9,849.61	68.9566	9,849.61	75.4204	9,849.61	69.6921	9,849.61	69.7941	9,849.61	66.9471	9,849.61	66.9501	9,849.61	66.7346	9,849.61	61.9937	9,849.61	68.7182	9,849.61	60.8385	9,849.61	68.4149	9,849.61	67.3107	9,849.61	66.3936	9,849.61	56.2262	9,849.61	65.8096	9,849.61	57.0857	9,849.61	58.5543	9,849.61	64.9324	9,849.61	66.5409
10,196.8	84.5347	10,196.8	83.7657	10,196.8	83.3222	10,196.8	81.6746	10,196.8	81.1147	10,196.8	83.4679	10,196.8	84.4586	10,196.8	82.2214	10,196.8	81.4619	10,196.8	79.0383	10,196.8	78.5457	10,196.8	76.0151	10,196.8	81.5588	10,196.8	75.4621	10,196.8	80.5115	10,196.8	73.2162	10,196.8	76.2411	10,196.8	71.8576	10,196.8	75.812	10,196.8	71.2411	10,196.8	72.0327	10,196.8	68.7975	10,196.8	64.6035	10,196.8	68.0676	10,196.8	52.1753	10,196.8	68.983	10,196.8	64.4083	10,196.8	69.4943	10,196.8	68.0513	10,196.8	68.7423	10,196.8	56.3043	10,196.8	67.5696	10,196.8	59.0399	10,196.8	62.5554	10,196.8	58.7327	10,196.8	63.7245
10,555.7	83.3504	10,555.7	84.2163	10,555.7	82.6873	10,555.7	82.8137	10,555.7	79.9032	10,555.7	84.0779	10,555.7	83.7025	10,555.7	81.2108	10,555.7	82.2375	10,555.7	79.2323	10,555.7	81.7385	10,555.7	77.6588	10,555.7	79.479	10,555.7	76.7492	10,555.7	81.2167	10,555.7	72.5529	10,555.7	79.0187	10,555.7	69.6397	10,555.7	78.7106	10,555.7	69.2362	10,555.7	73.5981	10,555.7	67.3133	10,555.7	62.3822	10,555.7	67.2438	10,555.7	61.019	10,555.7	67.4766	10,555.7	63.2406	10,555.7	68.2528	10,555.7	65.3103	10,555.7	68.2216	10,555.7	37.9306	10,555.7	67.5044	10,555.7	64.9359	10,555.7	67.2345	10,555.7	61.9254	10,555.7	61.9541
10,927.7	83.1646	10,927.7	84.5574	10,927.7	82.8908	10,927.7	82.7611	10,927.7	81.2868	10,927.7	82.6626	10,927.7	79.8395	10,927.7	80.545	10,927.7	84.3022	10,927.7	79.1838	10,927.7	81.1488	10,927.7	77.6874	10,927.7	78.4687	10,927.7	73.1668	10,927.7	82.5502	10,927.7	69.9356	10,927.7	77.5689	10,927.7	67.9272	10,927.7	75.7264	10,927.7	66.8607	10,927.7	69.204	10,927.7	64.7464	10,927.7	64.8306	10,927.7	65.4923	10,927.7	63.7084	10,927.7	68.21	10,927.7	53.4664	10,927.7	67.2192	10,927.7	65.9638	10,927.7	65.7849	10,927.7	49.1733	10,927.7	61.4452	10,927.7	62.7966	10,927.7	63.195	10,927.7	59.9241	10,927.7	59.425
11,313	84.2285	11,313	83.8225	11,313	84.5073	11,313	80.9628	11,313	82.8887	11,313	81.7127	11,313	78.6554	11,313	81.0479	11,313	84.6616	11,313	79.3165	11,313	79.8484	11,313	75.0509	11,313	78.1961	11,313	72.9826	11,313	81.2843	11,313	69.7736	11,313	71.5615	11,313	66.9393	11,313	74.827	11,313	65.036	11,313	70.6196	11,313	63.73	11,313	64.573	11,313	63.2308	11,313	63.8332	11,313	65.2508	11,313	58.7365	11,313	65.0587	11,313	66.0697	11,313	64.8206	11,313	51.613	11,313	59.6012	11,313	55.5091	11,313	59.4898	11,313	56.2768	11,313	61.8553
11,712.9	85.0768	11,712.9	83.9752	11,712.9	84.7197	11,712.9	81.4911	11,712.9	83.7988	11,712.9	82.8493	11,712.9	81.9022	11,712.9	81.3722	11,712.9	83.1878	11,712.9	76.4969	11,712.9	78.5116	11,712.9	74.215	11,712.9	78.2277	11,712.9	70.6857	11,712.9	77.4394	11,712.9	64.1493	11,712.9	75.6798	11,712.9	63.1539	11,712.9	73.667	11,712.9	65.3387	11,712.9	72.0169	11,712.9	63.8662	11,712.9	66.8125	11,712.9	63.6017	11,712.9	60.6866	11,712.9	66.202	11,712.9	54.5017	11,712.9	67.0852	11,712.9	64.1609	11,712.9	67.2011	11,712.9	41.7226	11,712.9	65.4127	11,712.9	62.3994	11,712.9	63.6055	11,712.9	46.6594	11,712.9	62.0448
12,126	85.1754	12,126	84.195	12,126	85.257	12,126	83.3328	12,126	85.6473	12,126	83.2641	12,126	81.7662	12,126	79.2799	12,126	81.9099	12,126	74.2849	12,126	77.7576	12,126	73.6532	12,126	75.2999	12,126	67.2227	12,126	76.9546	12,126	66.802	12,126	71.8432	12,126	65.4693	12,126	70.9937	12,126	66.1434	12,126	70.857	12,126	62.0431	12,126	66.3202	12,126	62.1778	12,126	64.8728	12,126	64.7341	12,126	51.9086	12,126	66.4647	12,126	61.9652	12,126	66.0373	12,126	52.2082	12,126	67.0994	12,126	56.2779	12,126	64.6033	12,126	55.5803	12,126	60.3919
12,553.7	85.5437	12,553.7	83.9238	12,553.7	84.8928	12,553.7	83.7753	12,553.7	85.3055	12,553.7	81.1578	12,553.7	82.134	12,553.7	77.569	12,553.7	79.2514	12,553.7	73.9123	12,553.7	76.7855	12,553.7	70.0607	12,553.7	70.9092	12,553.7	68.6969	12,553.7	74.7133	12,553.7	65.1917	12,553.7	70.8574	12,553.7	57.5645	12,553.7	68.0944	12,553.7	61.6592	12,553.7	73.4149	12,553.7	59.0238	12,553.7	68.4806	12,553.7	57.7882	12,553.7	65.2408	12,553.7	56.7756	12,553.7	54.3689	12,553.7	61.2166	12,553.7	57.7945	12,553.7	61.1108	12,553.7	41.2727	12,553.7	60.107	12,553.7	62.7874	12,553.7	63.3479	12,553.7	54.3139	12,553.7	57.8685
12,996.1	85.4662	12,996.1	84.7692	12,996.1	85.9266	12,996.1	82.8684	12,996.1	85.119	12,996.1	79.7304	12,996.1	81.712	12,996.1	77.0313	12,996.1	79.0507	12,996.1	71.6908	12,996.1	73.8155	12,996.1	66.7633	12,996.1	68.7423	12,996.1	65.3862	12,996.1	69.573	12,996.1	58.9673	12,996.1	67.9365	12,996.1	57.6277	12,996.1	66.4093	12,996.1	58.8457	12,996.1	72.855	12,996.1	59.9077	12,996.1	69.6045	12,996.1	60.2642	12,996.1	61.0055	12,996.1	61.058	12,996.1	48.2887	12,996.1	62.4448	12,996.1	59.826	12,996.1	63.9922	12,996.1	51.1046	12,996.1	58.1694	12,996.1	60.0042	12,996.1	60.2133	12,996.1	59.0031	12,996.1	55.8372
13,454.6	85.1277	13,454.6	85.3469	13,454.6	86.4855	13,454.6	82.2878	13,454.6	85.4225	13,454.6	80.1143	13,454.6	80.8172	13,454.6	75.8808	13,454.6	80.1065	13,454.6	68.5135	13,454.6	74.4269	13,454.6	67.4347	13,454.6	62.9189	13,454.6	58.9206	13,454.6	67.0923	13,454.6	61.1716	13,454.6	66.8574	13,454.6	58.5	13,454.6	66.0382	13,454.6	57.4158	13,454.6	73.6714	13,454.6	58.277	13,454.6	69.9093	13,454.6	59.6681	13,454.6	62.8348	13,454.6	60.598	13,454.6	51.6304	13,454.6	62.5128	13,454.6	55.7205	13,454.6	64.1025	13,454.6	42.1017	13,454.6	63.378	13,454.6	46.2803	13,454.6	62.8863	13,454.6	55.356	13,454.6	60.7481
13,929.2	85.0136	13,929.2	85.4225	13,929.2	86.3947	13,929.2	81.3886	13,929.2	85.5318	13,929.2	79.3726	13,929.2	81.1604	13,929.2	73.803	13,929.2	80.0175	13,929.2	69.7866	13,929.2	74.4406	13,929.2	66.4821	13,929.2	64.7078	13,929.2	62.1067	13,929.2	60.1505	13,929.2	61.0729	13,929.2	66.355	13,929.2	57.9517	13,929.2	66.4109	13,929.2	58.6714	13,929.2	73.2515	13,929.2	58.104	13,929.2	69.6869	13,929.2	58.3172	13,929.2	63.7012	13,929.2	58.9233	13,929.2	52.8212	13,929.2	61.1713	13,929.2	53.2652	13,929.2	62.6061	13,929.2	49.9999	13,929.2	58.9155	13,929.2	52.1765	13,929.2	64.3808	13,929.2	60.4219	13,929.2	58.4057
14,419.9	85.6736	14,419.9	84.7372	14,419.9	86.1385	14,419.9	80.4609	14,419.9	85.414	14,419.9	78.9339	14,419.9	83.0114	14,419.9	75.448	14,419.9	78.6011	14,419.9	69.9471	14,419.9	74.4068	14,419.9	68.7404	14,419.9	65.9118	14,419.9	66.264	14,419.9	54.7263	14,419.9	64.1788	14,419.9	60.6028	14,419.9	60.8651	14,419.9	63.6321	14,419.9	60.2513	14,419.9	72.9868	14,419.9	59.6009	14,419.9	69.0098	14,419.9	60.5041	14,419.9	63.1623	14,419.9	61.2982	14,419.9	35.4247	14,419.9	61.0679	14,419.9	47.1704	14,419.9	63.9785	14,419.9	41.2797	14,419.9	61.4538	14,419.9	49.6126	14,419.9	62.5253	14,419.9	61.1149	14,419.9	58.4522
14,928.2	85.5477	14,928.2	83.5263	14,928.2	85.6708	14,928.2	80.5017	14,928.2	85.4455	14,928.2	79.4062	14,928.2	83.4099	14,928.2	76.6137	14,928.2	78.221	14,928.2	71.9582	14,928.2	72.9058	14,928.2	71.1352	14,928.2	67.5719	14,928.2	68.1735	14,928.2	58.9909	14,928.2	65.3058	14,928.2	59.652	14,928.2	60.7717	14,928.2	64.1292	14,928.2	59.219	14,928.2	72.3569	14,928.2	58.5413	14,928.2	67.465	14,928.2	59.9808	14,928.2	60.5926	14,928.2	61.5766	14,928.2	50.5466	14,928.2	61.7159	14,928.2	40.1119	14,928.2	63.7342	14,928.2	52.5284	14,928.2	63.2694	14,928.2	49.9745	14,928.2	60.109	14,928.2	58.0403	14,928.2	61.3388
15,455.6	84.9549	15,455.6	83.0623	15,455.6	85.0401	15,455.6	80.7845	15,455.6	84.4009	15,455.6	79.5991	15,455.6	82.2754	15,455.6	77.3055	15,455.6	77.7002	15,455.6	73.9957	15,455.6	72.553	15,455.6	72.675	15,455.6	68.1057	15,455.6	68.6356	15,455.6	60.552	15,455.6	65.7151	15,455.6	60.2466	15,455.6	59.4851	15,455.6	63.5313	15,455.6	58.2253	15,455.6	70.7894	15,455.6	56.6388	15,455.6	65.594	15,455.6	59.0103	15,455.6	60.4733	15,455.6	60.0609	15,455.6	47.7982	15,455.6	60.743	15,455.6	33.3435	15,455.6	63.4485	15,455.6	51.6877	15,455.6	62.1984	15,455.6	51.544	15,455.6	60.8578	15,455.6	57.2066	15,455.6	60.4
16,000.5	84.5951	16,000.5	83.5884	16,000.5	84.4669	16,000.5	81.2441	16,000.5	83.4088	16,000.5	79.9411	16,000.5	81.0065	16,000.5	78.306	16,000.5	76.6767	16,000.5	75.1723	16,000.5	70.3924	16,000.5	73.1566	16,000.5	66.7616	16,000.5	68.202	16,000.5	62.8622	16,000.5	64.1792	16,000.5	61.2769	16,000.5	57.722	16,000.5	64.6796	16,000.5	57.102	16,000.5	69.4289	16,000.5	56.0873	16,000.5	64.9097	16,000.5	58.3794	16,000.5	61.4268	16,000.5	60.3661	16,000.5	52.6832	16,000.5	60.8631	16,000.5	48.282	16,000.5	62.2961	16,000.5	52.0004	16,000.5	60.9151	16,000.5	50.1642	16,000.5	59.3202	16,000.5	57.2546	16,000.5	58.4852
16,564.5	84.3262	16,564.5	83.371	16,564.5	84.0983	16,564.5	81.0793	16,564.5	83.0826	16,564.5	80.429	16,564.5	78.8261	16,564.5	78.5814	16,564.5	75.2758	16,564.5	76.0505	16,564.5	70.4465	16,564.5	73.033	16,564.5	67.592	16,564.5	66.7365	16,564.5	63.1974	16,564.5	65.3051	16,564.5	63.5069	16,564.5	59.1864	16,564.5	63.6532	16,564.5	56.2501	16,564.5	68.4047	16,564.5	55.387	16,564.5	63.5168	16,564.5	57.3277	16,564.5	61.0033	16,564.5	58.8713	16,564.5	51.6134	16,564.5	60.2453	16,564.5	49.2156	16,564.5	62.3637	16,564.5	49.437	16,564.5	61.262	16,564.5	49.6919	16,564.5	58.6522	16,564.5	56.4006	16,564.5	58.9318
17,148.9	84.1472	17,148.9	83.4668	17,148.9	83.3677	17,148.9	80.8583	17,148.9	80.0425	17,148.9	80.8593	17,148.9	75.5344	17,148.9	79.3201	17,148.9	72.2014	17,148.9	75.9847	17,148.9	70.6626	17,148.9	72.6022	17,148.9	68.1817	17,148.9	67.2929	17,148.9	66.6881	17,148.9	63.386	17,148.9	63.4825	17,148.9	55.7583	17,148.9	62.341	17,148.9	52.2629	17,148.9	65.8204	17,148.9	52.4993	17,148.9	61.0855	17,148.9	55.975	17,148.9	63.1508	17,148.9	57.651	17,148.9	47.0229	17,148.9	58.5128	17,148.9	48.4446	17,148.9	61.5182	17,148.9	49.6123	17,148.9	59.6325	17,148.9	49.6002	17,148.9	60.3611	17,148.9	53.3695	17,148.9	56.337
17,752.4	84.2838	17,752.4	83.6395	17,752.4	82.7329	17,752.4	81.1823	17,752.4	79.3348	17,752.4	81.4451	17,752.4	75.3398	17,752.4	79.9689	17,752.4	74.5775	17,752.4	76.3537	17,752.4	71.3434	17,752.4	72.7829	17,752.4	68.3717	17,752.4	66.0811	17,752.4	65.7649	17,752.4	62.4737	17,752.4	63.1951	17,752.4	55.4124	17,752.4	61.1324	17,752.4	51.0874	17,752.4	65.4722	17,752.4	49.6953	17,752.4	63.3612	17,752.4	53.7794	17,752.4	63.6544	17,752.4	56.5376	17,752.4	50.5089	17,752.4	58.1866	17,752.4	45.1969	17,752.4	60.8208	17,752.4	46.6712	17,752.4	59.7309	17,752.4	46.7761	17,752.4	59.5279	17,752.4	50.8661	17,752.4	55.7469
18,379.4	83.9543	18,379.4	83.4864	18,379.4	82.2737	18,379.4	81.5642	18,379.4	77.9531	18,379.4	82.268	18,379.4	75.3547	18,379.4	80.7362	18,379.4	75.2109	18,379.4	76.4093	18,379.4	73.087	18,379.4	72.0364	18,379.4	65.6043	18,379.4	64.5898	18,379.4	63.9364	18,379.4	60.0839	18,379.4	62.7358	18,379.4	50.5888	18,379.4	59.8063	18,379.4	46.4524	18,379.4	65.0397	18,379.4	46.4376	18,379.4	62.5966	18,379.4	52.3992	18,379.4	63.3443	18,379.4	54.2885	18,379.4	42.0132	18,379.4	57.1148	18,379.4	47.5336	18,379.4	59.9136	18,379.4	43.3486	18,379.4	58.2281	18,379.4	48.5514	18,379.4	57.9341	18,379.4	50.9421	18,379.4	53.0879
19,026.9	83.4357	19,026.9	83.301	19,026.9	82.6657	19,026.9	82.602	19,026.9	82.1542	19,026.9	84.0721	19,026.9	80.3686	19,026.9	81.9583	19,026.9	78.5767	19,026.9	77.5291	19,026.9	74.6837	19,026.9	71.9222	19,026.9	65.0386	19,026.9	61.87	19,026.9	58.4463	19,026.9	57.1196	19,026.9	61.5366	19,026.9	51.7954	19,026.9	57.4252	19,026.9	52.6543	19,026.9	65.0502	19,026.9	52.3836	19,026.9	61.9264	19,026.9	54.466	19,026.9	62.6674	19,026.9	55.4424	19,026.9	43.0785	19,026.9	57.753	19,026.9	48.0777	19,026.9	61.1904	19,026.9	30.1375	19,026.9	60.113	19,026.9	50.7558	19,026.9	56.927	19,026.9	55.5652	19,026.9	56.1197
19,697.8	83.4554	19,697.8	83.2253	19,697.8	84.7875	19,697.8	84.5214	19,697.8	85.7215	19,697.8	85.9567	19,697.8	84.7842	19,697.8	83.6695	19,697.8	81.3044	19,697.8	78.5986	19,697.8	75.848	19,697.8	71.4725	19,697.8	63.6788	19,697.8	58.7358	19,697.8	53.5177	19,697.8	57.8598	19,697.8	61.8453	19,697.8	58.8153	19,697.8	55.3866	19,697.8	56.7576	19,697.8	65.4542	19,697.8	56.3603	19,697.8	60.7791	19,697.8	59.2841	19,697.8	62.1004	19,697.8	59.1277	19,697.8	39.4428	19,697.8	59.7909	19,697.8	46.8853	19,697.8	62.7938	19,697.8	44.3526	19,697.8	59.9652	19,697.8	50.0458	19,697.8	57.0919	19,697.8	56.829	19,697.8	59.1442
19,999.5	83.9463	19,999.5	83.9316	19,999.5	86.1319	19,999.5	85.5589	19,999.5	87.1322	19,999.5	86.8265	19,999.5	85.9368	19,999.5	84.9966	19,999.5	83.0482	19,999.5	79.3607	19,999.5	76.1564	19,999.5	71.23	19,999.5	66.7747	19,999.5	62.8754	19,999.5	54.3346	19,999.5	63.1075	19,999.5	60.6474	19,999.5	57.9506	19,999.5	60.302	19,999.5	56.8916	19,999.5	66.4427	19,999.5	59.5898	19,999.5	61.7557	19,999.5	61.7517	19,999.5	59.4544	19,999.5	60.9037	19,999.5	46.9555	19,999.5	60.9768	19,999.5	53.9899	19,999.5	63.512	19,999.5	55.2744	19,999.5	58.5094	19,999.5	61.9789	19,999.5	56.1911	19,999.5	59.6912	19,999.5	63.7778
