"SPL Horizontal"
"On-Axis"		"10°"		"-10°"		"20°"		"-20°"		"30°"		"-30°"		"40°"		"-40°"		"50°"		"-50°"		"60°"		"-60°"		"70°"		"-70°"		"80°"		"-80°"		"90°"		"-90°"		"100°"		"-100°"		"110°"		"-110°"		"120°"		"-120°"		"130°"		"-130°"		"140°"		"-140°"		"150°"		"-150°"		"160°"		"-160°"		"170°"		"-170°"		"180°"
"Frequency / Hz"	"Sound Pressure Level / dB (re 20 µPa/V)  [2.83  V @ 1. m]"	"Frequency / Hz"	"Sound Pressure Level / dB (re 20 µPa/V)  [2.83  V @ 1. m]"	"Frequency / Hz"	"Sound Pressure Level / dB (re 20 µPa/V)  [2.83  V @ 1. m]"	"Frequency / Hz"	"Sound Pressure Level / dB (re 20 µPa/V)  [2.83  V @ 1. m]"	"Frequency / Hz"	"Sound Pressure Level / dB (re 20 µPa/V)  [2.83  V @ 1. m]"	"Frequency / Hz"	"Sound Pressure Level / dB (re 20 µPa/V)  [2.83  V @ 1. m]"	"Frequency / Hz"	"Sound Pressure Level / dB (re 20 µPa/V)  [2.83  V @ 1. m]"	"Frequency / Hz"	"Sound Pressure Level / dB (re 20 µPa/V)  [2.83  V @ 1. m]"	"Frequency / Hz"	"Sound Pressure Level / dB (re 20 µPa/V)  [2.83  V @ 1. m]"	"Frequency / Hz"	"Sound Pressure Level / dB (re 20 µPa/V)  [2.83  V @ 1. m]"	"Frequency / Hz"	"Sound Pressure Level / dB (re 20 µPa/V)  [2.83  V @ 1. m]"	"Frequency / Hz"	"Sound Pressure Level / dB (re 20 µPa/V)  [2.83  V @ 1. m]"	"Frequency / Hz"	"Sound Pressure Level / dB (re 20 µPa/V)  [2.83  V @ 1. m]"	"Frequency / Hz"	"Sound Pressure Level / dB (re 20 µPa/V)  [2.83  V @ 1. m]"	"Frequency / Hz"	"Sound Pressure Level / dB (re 20 µPa/V)  [2.83  V @ 1. m]"	"Frequency / Hz"	"Sound Pressure Level / dB (re 20 µPa/V)  [2.83  V @ 1. m]"	"Frequency / Hz"	"Sound Pressure Level / dB (re 20 µPa/V)  [2.83  V @ 1. m]"	"Frequency / Hz"	"Sound Pressure Level / dB (re 20 µPa/V)  [2.83  V @ 1. m]"	"Frequency / Hz"	"Sound Pressure Level / dB (re 20 µPa/V)  [2.83  V @ 1. m]"	"Frequency / Hz"	"Sound Pressure Level / dB (re 20 µPa/V)  [2.83  V @ 1. m]"	"Frequency / Hz"	"Sound Pressure Level / dB (re 20 µPa/V)  [2.83  V @ 1. m]"	"Frequency / Hz"	"Sound Pressure Level / dB (re 20 µPa/V)  [2.83  V @ 1. m]"	"Frequency / Hz"	"Sound Pressure Level / dB (re 20 µPa/V)  [2.83  V @ 1. m]"	"Frequency / Hz"	"Sound Pressure Level / dB (re 20 µPa/V)  [2.83  V @ 1. m]"	"Frequency / Hz"	"Sound Pressure Level / dB (re 20 µPa/V)  [2.83  V @ 1. m]"	"Frequency / Hz"	"Sound Pressure Level / dB (re 20 µPa/V)  [2.83  V @ 1. m]"	"Frequency / Hz"	"Sound Pressure Level / dB (re 20 µPa/V)  [2.83  V @ 1. m]"	"Frequency / Hz"	"Sound Pressure Level / dB (re 20 µPa/V)  [2.83  V @ 1. m]"	"Frequency / Hz"	"Sound Pressure Level / dB (re 20 µPa/V)  [2.83  V @ 1. m]"	"Frequency / Hz"	"Sound Pressure Level / dB (re 20 µPa/V)  [2.83  V @ 1. m]"	"Frequency / Hz"	"Sound Pressure Level / dB (re 20 µPa/V)  [2.83  V @ 1. m]"	"Frequency / Hz"	"Sound Pressure Level / dB (re 20 µPa/V)  [2.83  V @ 1. m]"	"Frequency / Hz"	"Sound Pressure Level / dB (re 20 µPa/V)  [2.83  V @ 1. m]"	"Frequency / Hz"	"Sound Pressure Level / dB (re 20 µPa/V)  [2.83  V @ 1. m]"	"Frequency / Hz"	"Sound Pressure Level / dB (re 20 µPa/V)  [2.83  V @ 1. m]"	"Frequency / Hz"	"Sound Pressure Level / dB (re 20 µPa/V)  [2.83  V @ 1. m]"
20.5078	43.0555	20.5078	43.1604	20.5078	42.9149	20.5078	43.2195	20.5078	42.7546	20.5078	43.2283	20.5078	42.5963	20.5078	43.1871	20.5078	42.4645	20.5078	43.1006	20.5078	42.3835	20.5078	42.9777	20.5078	42.3726	20.5078	42.8323	20.5078	42.4422	20.5078	42.683	20.5078	42.5923	20.5078	42.5519	20.5078	42.8114	20.5078	42.4618	20.5078	43.0778	20.5078	42.4312	20.5078	43.3624	20.5078	42.4711	20.5078	43.6325	20.5078	42.5828	20.5078	43.8562	20.5078	42.7586	20.5078	44.0077	20.5078	42.9835	20.5078	44.0706	20.5078	43.2375	20.5078	44.0399	20.5078	43.4962	20.5078	43.9221	20.5078	43.7332
21.9727	49.8944	21.9727	49.8926	21.9727	49.906	21.9727	49.8982	21.9727	49.9283	21.9727	49.9084	21.9727	49.9608	21.9727	49.9194	21.9727	50.0013	21.9727	49.9282	21.9727	50.0468	21.9727	49.9322	21.9727	50.0937	21.9727	49.9302	21.9727	50.1387	21.9727	49.9223	21.9727	50.1791	21.9727	49.9103	21.9727	50.2133	21.9727	49.897	21.9727	50.2401	21.9727	49.886	21.9727	50.2584	21.9727	49.8809	21.9727	50.2668	21.9727	49.8846	21.9727	50.2635	21.9727	49.8995	21.9727	50.2472	21.9727	49.9267	21.9727	50.2174	21.9727	49.9656	21.9727	50.1753	21.9727	50.0143	21.9727	50.1243	21.9727	50.0688
23.4375	51.3441	23.4375	51.323	23.4375	51.3573	23.4375	51.2952	23.4375	51.3607	23.4375	51.2609	23.4375	51.3518	23.4375	51.2193	23.4375	51.3282	23.4375	51.1694	23.4375	51.2884	23.4375	51.1101	23.4375	51.2318	23.4375	51.0412	23.4375	51.16	23.4375	50.9637	23.4375	51.0756	23.4375	50.8798	23.4375	50.9826	23.4375	50.7931	23.4375	50.8856	23.4375	50.7079	23.4375	50.7891	23.4375	50.6281	23.4375	50.6973	23.4375	50.5569	23.4375	50.6138	23.4375	50.4969	23.4375	50.5413	23.4375	50.4498	23.4375	50.4821	23.4375	50.4165	23.4375	50.4375	23.4375	50.3982	23.4375	50.4085	23.4375	50.3954
24.9023	50.9524	24.9023	50.9401	24.9023	50.9543	24.9023	50.9175	24.9023	50.9452	24.9023	50.8844	24.9023	50.9243	24.9023	50.8407	24.9023	50.8905	24.9023	50.786	24.9023	50.8426	24.9023	50.7207	24.9023	50.7806	24.9023	50.6456	24.9023	50.705	24.9023	50.5627	24.9023	50.618	24.9023	50.4748	24.9023	50.5224	24.9023	50.3857	24.9023	50.4224	24.9023	50.2992	24.9023	50.3223	24.9023	50.2187	24.9023	50.227	24.9023	50.1467	24.9023	50.1413	24.9023	50.0849	24.9023	50.0693	24.9023	50.0342	24.9023	50.014	24.9023	49.995	24.9023	49.9768	24.9023	49.9684	24.9023	49.9576	24.9023	49.9554
26.3672	52.1602	26.3672	52.163	26.3672	52.1477	26.3672	52.1562	26.3672	52.1254	26.3672	52.1395	26.3672	52.093	26.3672	52.1128	26.3672	52.05	26.3672	52.076	26.3672	51.9959	26.3672	52.029	26.3672	51.9309	26.3672	51.9723	26.3672	51.8555	26.3672	51.9067	26.3672	51.7717	26.3672	51.834	26.3672	51.6821	26.3672	51.7565	26.3672	51.5905	26.3672	51.6766	26.3672	51.5012	26.3672	51.597	26.3672	51.4187	26.3672	51.5199	26.3672	51.3475	26.3672	51.4477	26.3672	51.2914	26.3672	51.3823	26.3672	51.2529	26.3672	51.3259	26.3672	51.2332	26.3672	51.2806	26.3672	51.2322	26.3672	51.2486
27.832	52.9743	27.832	52.9667	27.832	52.9749	27.832	52.9515	27.832	52.9691	27.832	52.9278	27.832	52.9577	27.832	52.8955	27.832	52.9409	27.832	52.8545	27.832	52.9187	27.832	52.8053	27.832	52.8909	27.832	52.7488	27.832	52.8571	27.832	52.6869	27.832	52.8169	27.832	52.6219	27.832	52.77	27.832	52.5566	27.832	52.7167	27.832	52.494	27.832	52.6577	27.832	52.4368	27.832	52.5948	27.832	52.3872	27.832	52.5308	27.832	52.3471	27.832	52.4688	27.832	52.318	27.832	52.4126	27.832	52.301	27.832	52.3653	27.832	52.2969	27.832	52.3294	27.832	52.3064
29.2969	54.302	29.2969	54.2749	29.2969	54.3217	29.2969	54.2405	29.2969	54.3336	29.2969	54.1993	29.2969	54.3373	29.2969	54.1517	29.2969	54.3324	29.2969	54.0987	29.2969	54.318	29.2969	54.0415	29.2969	54.2935	29.2969	53.9814	29.2969	54.2583	29.2969	53.9207	29.2969	54.2126	29.2969	53.8616	29.2969	54.1574	29.2969	53.8066	29.2969	54.0944	29.2969	53.7579	29.2969	54.0263	29.2969	53.7172	29.2969	53.9565	29.2969	53.6856	29.2969	53.8885	29.2969	53.6634	29.2969	53.8259	29.2969	53.6507	29.2969	53.7714	29.2969	53.6471	29.2969	53.7265	29.2969	53.6526	29.2969	53.6919	29.2969	53.6674
30.7617	55.4256	30.7617	55.4091	30.7617	55.4317	30.7617	55.3831	30.7617	55.4273	30.7617	55.3483	30.7617	55.4125	30.7617	55.306	30.7617	55.3877	30.7617	55.2575	30.7617	55.3539	30.7617	55.2042	30.7617	55.3124	30.7617	55.148	30.7617	55.2644	30.7617	55.0905	30.7617	55.2115	30.7617	55.0339	30.7617	55.1554	30.7617	54.98	30.7617	55.0977	30.7617	54.9307	30.7617	55.0403	30.7617	54.8873	30.7617	54.985	30.7617	54.8507	30.7617	54.9337	30.7617	54.8215	30.7617	54.8883	30.7617	54.8003	30.7617	54.8501	30.7617	54.7871	30.7617	54.82	30.7617	54.7824	30.7617	54.7987	30.7617	54.7862
32.2266	55.5193	32.2266	55.5032	32.2266	55.5318	32.2266	55.4846	32.2266	55.5394	32.2266	55.4646	32.2266	55.5413	32.2266	55.444	32.2266	55.5368	32.2266	55.423	32.2266	55.526	32.2266	55.4018	32.2266	55.5091	32.2266	55.3805	32.2266	55.4871	32.2266	55.359	32.2266	55.461	32.2266	55.3377	32.2266	55.4324	32.2266	55.3173	32.2266	55.4025	32.2266	55.2984	32.2266	55.3729	32.2266	55.2818	32.2266	55.3449	32.2266	55.2683	32.2266	55.3197	32.2266	55.2581	32.2266	55.2983	32.2266	55.2516	32.2266	55.2809	32.2266	55.2484	32.2266	55.2676	32.2266	55.2485	32.2266	55.258	32.2266	55.2517
33.6914	56.2287	33.6914	56.2274	33.6914	56.2257	33.6914	56.2222	33.6914	56.2181	33.6914	56.2134	33.6914	56.206	33.6914	56.2013	33.6914	56.1894	33.6914	56.1864	33.6914	56.1689	33.6914	56.1688	33.6914	56.1449	33.6914	56.1489	33.6914	56.1186	33.6914	56.1271	33.6914	56.091	33.6914	56.1041	33.6914	56.0634	33.6914	56.0807	33.6914	56.0369	33.6914	56.0574	33.6914	56.0127	33.6914	56.0352	33.6914	55.9917	33.6914	56.0147	33.6914	55.9747	33.6914	55.9965	33.6914	55.962	33.6914	55.9811	33.6914	55.9538	33.6914	55.9686	33.6914	55.9498	33.6914	55.9592	33.6914	55.9496	33.6914	55.9528
35.1562	57.4676	35.1562	57.4767	35.1562	57.4551	35.1562	57.4824	35.1562	57.4396	35.1562	57.4845	35.1562	57.4215	35.1562	57.483	35.1562	57.4012	35.1562	57.478	35.1562	57.3794	35.1562	57.4696	35.1562	57.3568	35.1562	57.4581	35.1562	57.334	35.1562	57.4439	35.1562	57.3119	35.1562	57.4275	35.1562	57.2912	35.1562	57.4093	35.1562	57.2729	35.1562	57.39	35.1562	57.2577	35.1562	57.3702	35.1562	57.2462	35.1562	57.3504	35.1562	57.2389	35.1562	57.331	35.1562	57.2361	35.1562	57.3124	35.1562	57.2378	35.1562	57.2949	35.1562	57.2434	35.1562	57.2789	35.1562	57.2526	35.1562	57.2646
36.6211	58.3584	36.6211	58.3628	36.6211	58.3488	36.6211	58.362	36.6211	58.3341	36.6211	58.3565	36.6211	58.3145	36.6211	58.3468	36.6211	58.2906	36.6211	58.3337	36.6211	58.2634	36.6211	58.3177	36.6211	58.2337	36.6211	58.2994	36.6211	58.2028	36.6211	58.2794	36.6211	58.1719	36.6211	58.258	36.6211	58.1425	36.6211	58.2356	36.6211	58.1158	36.6211	58.2125	36.6211	58.093	36.6211	58.1892	36.6211	58.0747	36.6211	58.1661	36.6211	58.0617	36.6211	58.1438	36.6211	58.054	36.6211	58.1226	36.6211	58.0516	36.6211	58.1033	36.6211	58.0542	36.6211	58.0862	36.6211	58.0611	36.6211	58.072
38.0859	59.0135	38.0859	59.0211	38.0859	59.0037	38.0859	59.0263	38.0859	58.9922	38.0859	59.0289	38.0859	58.9795	38.0859	59.029	38.0859	58.9661	38.0859	59.0268	38.0859	58.9528	38.0859	59.0225	38.0859	58.94	38.0859	59.0164	38.0859	58.9282	38.0859	59.009	38.0859	58.9179	38.0859	59.0005	38.0859	58.9094	38.0859	58.9912	38.0859	58.9028	38.0859	58.9812	38.0859	58.8982	38.0859	58.9709	38.0859	58.8955	38.0859	58.9605	38.0859	58.8947	38.0859	58.9503	38.0859	58.8957	38.0859	58.9405	38.0859	58.8985	38.0859	58.9313	38.0859	58.9028	38.0859	58.9228	38.0859	58.9084	38.0859	58.9151
39.5508	59.5157	39.5508	59.5188	39.5508	59.5091	39.5508	59.5185	39.5508	59.499	39.5508	59.5152	39.5508	59.4857	39.5508	59.5094	39.5508	59.4699	39.5508	59.5015	39.5508	59.4526	39.5508	59.4921	39.5508	59.435	39.5508	59.4817	39.5508	59.4184	39.5508	59.4709	39.5508	59.4039	39.5508	59.4605	39.5508	59.3925	39.5508	59.4509	39.5508	59.3848	39.5508	59.4425	39.5508	59.3807	39.5508	59.4357	39.5508	59.3802	39.5508	59.4303	39.5508	59.3825	39.5508	59.4261	39.5508	59.3871	39.5508	59.4227	39.5508	59.393	39.5508	59.4194	39.5508	59.3994	39.5508	59.4157	39.5508	59.4056	39.5508	59.4111
41.0156	60.1374	41.0156	60.1465	41.0156	60.128	41.0156	60.1552	41.0156	60.1186	41.0156	60.1637	41.0156	60.1098	41.0156	60.1723	41.0156	60.1024	41.0156	60.1811	41.0156	60.0972	41.0156	60.1903	41.0156	60.0951	41.0156	60.2	41.0156	60.097	41.0156	60.2103	41.0156	60.1034	41.0156	60.221	41.0156	60.1142	41.0156	60.2319	41.0156	60.1292	41.0156	60.2427	41.0156	60.1476	41.0156	60.2531	41.0156	60.1683	41.0156	60.2625	41.0156	60.1901	41.0156	60.2706	41.0156	60.2116	41.0156	60.2764	41.0156	60.2317	41.0156	60.2792	41.0156	60.2493	41.0156	60.2783	41.0156	60.2633	41.0156	60.273
42.4805	61.1671	42.4805	61.1697	42.4805	61.1595	42.4805	61.1672	42.4805	61.1474	42.4805	61.16	42.4805	61.1312	42.4805	61.1484	42.4805	61.1112	42.4805	61.1329	42.4805	61.0878	42.4805	61.1141	42.4805	61.0611	42.4805	61.0923	42.4805	61.0308	42.4805	61.0674	42.4805	60.9967	42.4805	61.0392	42.4805	60.9587	42.4805	61.0072	42.4805	60.917	42.4805	60.9712	42.4805	60.8728	42.4805	60.9314	42.4805	60.828	42.4805	60.8886	42.4805	60.7853	42.4805	60.8444	42.4805	60.748	42.4805	60.8012	42.4805	60.7194	42.4805	60.7619	42.4805	60.7023	42.4805	60.7299	42.4805	60.6984	42.4805	60.7079
43.9453	61.7999	43.9453	61.7924	43.9453	61.8068	43.9453	61.7843	43.9453	61.8128	43.9453	61.7758	43.9453	61.8178	43.9453	61.7669	43.9453	61.8216	43.9453	61.7578	43.9453	61.8239	43.9453	61.7488	43.9453	61.8242	43.9453	61.7402	43.9453	61.8223	43.9453	61.7323	43.9453	61.8176	43.9453	61.7252	43.9453	61.8098	43.9453	61.7189	43.9453	61.799	43.9453	61.7133	43.9453	61.7853	43.9453	61.7082	43.9453	61.7696	43.9453	61.7035	43.9453	61.7529	43.9453	61.6992	43.9453	61.7366	43.9453	61.6957	43.9453	61.7218	43.9453	61.6934	43.9453	61.7096	43.9453	61.693	43.9453	61.7006	43.9453	61.6952
45.4102	62.2498	45.4102	62.246	45.4102	62.2529	45.4102	62.2414	45.4102	62.2559	45.4102	62.2359	45.4102	62.259	45.4102	62.2298	45.4102	62.2627	45.4102	62.2235	45.4102	62.2672	45.4102	62.2175	45.4102	62.2723	45.4102	62.2126	45.4102	62.2777	45.4102	62.2094	45.4102	62.2828	45.4102	62.2082	45.4102	62.2871	45.4102	62.2092	45.4102	62.29	45.4102	62.2122	45.4102	62.2911	45.4102	62.2168	45.4102	62.2902	45.4102	62.2224	45.4102	62.2875	45.4102	62.2288	45.4102	62.2831	45.4102	62.2355	45.4102	62.2774	45.4102	62.2425	45.4102	62.2708	45.4102	62.2495	45.4102	62.2638	45.4102	62.2566
46.875	62.8125	46.875	62.8146	46.875	62.8103	46.875	62.8165	46.875	62.8083	46.875	62.8181	46.875	62.807	46.875	62.8196	46.875	62.8069	46.875	62.8214	46.875	62.8085	46.875	62.8235	46.875	62.8119	46.875	62.8263	46.875	62.817	46.875	62.8297	46.875	62.8235	46.875	62.8336	46.875	62.8305	46.875	62.8378	46.875	62.8375	46.875	62.8419	46.875	62.8437	46.875	62.8454	46.875	62.8486	46.875	62.8482	46.875	62.8521	46.875	62.8501	46.875	62.854	46.875	62.8512	46.875	62.8546	46.875	62.8519	46.875	62.8544	46.875	62.8524	46.875	62.8537	46.875	62.853
48.3398	63.625	48.3398	63.6311	48.3398	63.6152	48.3398	63.6332	48.3398	63.6019	48.3398	63.6312	48.3398	63.5856	48.3398	63.625	48.3398	63.5668	48.3398	63.6145	48.3398	63.5459	48.3398	63.5999	48.3398	63.5235	48.3398	63.5815	48.3398	63.5	48.3398	63.5595	48.3398	63.4757	48.3398	63.5345	48.3398	63.4509	48.3398	63.507	48.3398	63.426	48.3398	63.478	48.3398	63.4016	48.3398	63.4481	48.3398	63.3783	48.3398	63.4186	48.3398	63.357	48.3398	63.3905	48.3398	63.3387	48.3398	63.3651	48.3398	63.3247	48.3398	63.3437	48.3398	63.3159	48.3398	63.3274	48.3398	63.3132	48.3398	63.317
51.2695	64.6809	51.2695	64.6903	51.2695	64.6729	51.2695	64.7009	51.2695	64.6664	51.2695	64.7123	51.2695	64.6616	51.2695	64.7243	51.2695	64.6584	51.2695	64.7362	51.2695	64.657	51.2695	64.7475	51.2695	64.6574	51.2695	64.7578	51.2695	64.6594	51.2695	64.7666	51.2695	64.6629	51.2695	64.7735	51.2695	64.6674	51.2695	64.7781	51.2695	64.6728	51.2695	64.7802	51.2695	64.6786	51.2695	64.7795	51.2695	64.6847	51.2695	64.7762	51.2695	64.691	51.2695	64.7704	51.2695	64.6977	51.2695	64.7625	51.2695	64.705	51.2695	64.7531	51.2695	64.7132	51.2695	64.7428	51.2695	64.7223	51.2695	64.7323
52.7344	64.9232	52.7344	64.9274	52.7344	64.9189	52.7344	64.9317	52.7344	64.9148	52.7344	64.9362	52.7344	64.9111	52.7344	64.9413	52.7344	64.9083	52.7344	64.9471	52.7344	64.907	52.7344	64.9539	52.7344	64.9078	52.7344	64.9618	52.7344	64.9111	52.7344	64.9707	52.7344	64.917	52.7344	64.9805	52.7344	64.9255	52.7344	64.9907	52.7344	64.9363	52.7344	65.0006	52.7344	64.9486	52.7344	65.0098	52.7344	64.9618	52.7344	65.0176	52.7344	64.975	52.7344	65.0234	52.7344	64.9875	52.7344	65.0269	52.7344	64.9988	52.7344	65.0279	52.7344	65.0086	52.7344	65.0264	52.7344	65.0166	52.7344	65.0226
54.1992	65.2798	54.1992	65.2767	54.1992	65.2827	54.1992	65.2733	54.1992	65.2857	54.1992	65.2697	54.1992	65.2892	54.1992	65.2661	54.1992	65.2938	54.1992	65.263	54.1992	65.3	54.1992	65.2608	54.1992	65.3082	54.1992	65.2599	54.1992	65.3184	54.1992	65.2609	54.1992	65.3305	54.1992	65.264	54.1992	65.3436	54.1992	65.2695	54.1992	65.357	54.1992	65.2774	54.1992	65.3694	54.1992	65.2875	54.1992	65.3797	54.1992	65.2995	54.1992	65.387	54.1992	65.3129	54.1992	65.3906	54.1992	65.3272	54.1992	65.3903	54.1992	65.3416	54.1992	65.3861	54.1992	65.3555	54.1992	65.3784	54.1992	65.368
55.6641	65.9384	55.6641	65.9405	55.6641	65.9354	55.6641	65.9416	55.6641	65.9317	55.6641	65.9416	55.6641	65.9278	55.6641	65.9408	55.6641	65.9243	55.6641	65.9392	55.6641	65.9217	55.6641	65.937	55.6641	65.9205	55.6641	65.9345	55.6641	65.921	55.6641	65.9317	55.6641	65.9231	55.6641	65.9291	55.6641	65.9264	55.6641	65.9266	55.6641	65.9303	55.6641	65.9246	55.6641	65.9342	55.6641	65.9232	55.6641	65.9374	55.6641	65.9225	55.6641	65.9394	55.6641	65.9227	55.6641	65.94	55.6641	65.9237	55.6641	65.9391	55.6641	65.9256	55.6641	65.937	55.6641	65.9281	55.6641	65.9342	55.6641	65.9311
58.5938	67.0039	58.5938	67.0048	58.5938	67.0027	58.5938	67.0055	58.5938	67.0015	58.5938	67.006	58.5938	67.0003	58.5938	67.0061	58.5938	66.9995	58.5938	67.006	58.5938	66.9994	58.5938	67.0054	58.5938	67.0003	58.5938	67.0047	58.5938	67.0024	58.5938	67.0038	58.5938	67.0057	58.5938	67.0031	58.5938	67.0099	58.5938	67.0027	58.5938	67.0147	58.5938	67.0029	58.5938	67.0194	58.5938	67.0038	58.5938	67.0237	58.5938	67.0056	58.5938	67.027	58.5938	67.0081	58.5938	67.0289	58.5938	67.0114	58.5938	67.0293	58.5938	67.0151	58.5938	67.0283	58.5938	67.0191	58.5938	67.026	58.5938	67.0228
60.0586	67.5524	60.0586	67.5526	60.0586	67.5497	60.0586	67.5501	60.0586	67.5449	60.0586	67.5449	60.0586	67.5383	60.0586	67.5371	60.0586	67.5306	60.0586	67.527	60.0586	67.5221	60.0586	67.5149	60.0586	67.5132	60.0586	67.5015	60.0586	67.5041	60.0586	67.4871	60.0586	67.4947	60.0586	67.4725	60.0586	67.485	60.0586	67.4583	60.0586	67.4749	60.0586	67.4451	60.0586	67.4647	60.0586	67.4335	60.0586	67.4544	60.0586	67.4238	60.0586	67.4444	60.0586	67.4165	60.0586	67.4351	60.0586	67.4115	60.0586	67.4267	60.0586	67.4089	60.0586	67.4196	60.0586	67.4085	60.0586	67.4141	60.0586	67.4103
62.9883	68.2527	62.9883	68.2521	62.9883	68.2495	62.9883	68.2478	62.9883	68.2426	62.9883	68.24	62.9883	68.2323	62.9883	68.2292	62.9883	68.2191	62.9883	68.216	62.9883	68.2034	62.9883	68.2011	62.9883	68.1862	62.9883	68.1853	62.9883	68.1682	62.9883	68.1693	62.9883	68.15	62.9883	68.1536	62.9883	68.1327	62.9883	68.1389	62.9883	68.1166	62.9883	68.1254	62.9883	68.1025	62.9883	68.1132	62.9883	68.0906	62.9883	68.1024	62.9883	68.081	62.9883	68.0931	62.9883	68.074	62.9883	68.085	62.9883	68.0695	62.9883	68.0783	62.9883	68.0672	62.9883	68.073	62.9883	68.0672	62.9883	68.0692
64.4531	68.5661	64.4531	68.5685	64.4531	68.561	64.4531	68.568	64.4531	68.5533	64.4531	68.565	64.4531	68.5432	64.4531	68.5597	64.4531	68.5313	64.4531	68.5527	64.4531	68.5182	64.4531	68.5445	64.4531	68.5044	64.4531	68.5356	64.4531	68.4908	64.4531	68.5265	64.4531	68.4778	64.4531	68.5176	64.4531	68.466	64.4531	68.5091	64.4531	68.4558	64.4531	68.5011	64.4531	68.4477	64.4531	68.4935	64.4531	68.4418	64.4531	68.4863	64.4531	68.4383	64.4531	68.4793	64.4531	68.4372	64.4531	68.4723	64.4531	68.4383	64.4531	68.4653	64.4531	68.4413	64.4531	68.4584	64.4531	68.446	64.4531	68.4518
67.3828	69.357	67.3828	69.3584	67.3828	69.354	67.3828	69.3581	67.3828	69.3497	67.3828	69.3561	67.3828	69.3445	67.3828	69.3528	67.3828	69.3388	67.3828	69.3486	67.3828	69.3332	67.3828	69.3438	67.3828	69.3281	67.3828	69.3391	67.3828	69.324	67.3828	69.3351	67.3828	69.3211	67.3828	69.3321	67.3828	69.3195	67.3828	69.3305	67.3828	69.3193	67.3828	69.3303	67.3828	69.3203	67.3828	69.3314	67.3828	69.3224	67.3828	69.3335	67.3828	69.3254	67.3828	69.336	67.3828	69.3289	67.3828	69.3384	67.3828	69.3325	67.3828	69.3402	67.3828	69.3359	67.3828	69.3409	67.3828	69.3387	67.3828	69.3404
68.8477	69.7833	68.8477	69.7842	68.8477	69.7802	68.8477	69.7827	68.8477	69.7753	68.8477	69.7788	68.8477	69.7689	68.8477	69.7728	68.8477	69.7616	68.8477	69.7651	68.8477	69.7539	68.8477	69.7563	68.8477	69.7463	68.8477	69.747	68.8477	69.7391	68.8477	69.738	68.8477	69.7326	68.8477	69.7299	68.8477	69.727	68.8477	69.7232	68.8477	69.7224	68.8477	69.7182	68.8477	69.7189	68.8477	69.7149	68.8477	69.7164	68.8477	69.7132	68.8477	69.7148	68.8477	69.7128	68.8477	69.714	68.8477	69.7131	68.8477	69.7138	68.8477	69.7136	68.8477	69.714	68.8477	69.7141	68.8477	69.7142	68.8477	69.7143
71.7773	70.4769	71.7773	70.4682	71.7773	70.4838	71.7773	70.458	71.7773	70.4887	71.7773	70.4468	71.7773	70.4919	71.7773	70.4349	71.7773	70.4933	71.7773	70.4232	71.7773	70.4932	71.7773	70.4123	71.7773	70.492	71.7773	70.4029	71.7773	70.4897	71.7773	70.3954	71.7773	70.4868	71.7773	70.3904	71.7773	70.4834	71.7773	70.3881	71.7773	70.4796	71.7773	70.3884	71.7773	70.4757	71.7773	70.3913	71.7773	70.4715	71.7773	70.3963	71.7773	70.4671	71.7773	70.4032	71.7773	70.4624	71.7773	70.4112	71.7773	70.4571	71.7773	70.4199	71.7773	70.4512	71.7773	70.4286	71.7773	70.4445	71.7773	70.4369
74.707	71.1907	74.707	71.1843	74.707	71.1955	74.707	71.1766	74.707	71.1988	74.707	71.1679	74.707	71.2005	74.707	71.1586	74.707	71.2005	74.707	71.1492	74.707	71.1992	74.707	71.1403	74.707	71.1967	74.707	71.1322	74.707	71.1932	74.707	71.1254	74.707	71.1891	74.707	71.1202	74.707	71.1848	74.707	71.1169	74.707	71.1803	74.707	71.1156	74.707	71.1761	74.707	71.1161	74.707	71.172	74.707	71.1183	74.707	71.1681	74.707	71.1221	74.707	71.1643	74.707	71.127	74.707	71.1602	74.707	71.1328	74.707	71.1556	74.707	71.1389	74.707	71.1505	74.707	71.1449
77.6367	71.8284	77.6367	71.8237	77.6367	71.832	77.6367	71.8181	77.6367	71.8345	77.6367	71.8117	77.6367	71.8358	77.6367	71.805	77.6367	71.8363	77.6367	71.7983	77.6367	71.8362	77.6367	71.792	77.6367	71.8357	77.6367	71.7866	77.6367	71.8352	77.6367	71.7825	77.6367	71.8348	77.6367	71.7799	77.6367	71.8348	77.6367	71.7792	77.6367	71.8351	77.6367	71.7805	77.6367	71.8356	77.6367	71.7837	77.6367	71.8362	77.6367	71.7886	77.6367	71.8365	77.6367	71.7949	77.6367	71.8362	77.6367	71.8021	77.6367	71.835	77.6367	71.8096	77.6367	71.8325	77.6367	71.8169	77.6367	71.8286	77.6367	71.8233
79.1016	72.1842	79.1016	72.1795	79.1016	72.1882	79.1016	72.1742	79.1016	72.1913	79.1016	72.1688	79.1016	72.1935	79.1016	72.1635	79.1016	72.195	79.1016	72.1588	79.1016	72.1961	79.1016	72.1551	79.1016	72.1971	79.1016	72.1527	79.1016	72.1983	79.1016	72.1518	79.1016	72.2	79.1016	72.1527	79.1016	72.2025	79.1016	72.1554	79.1016	72.2057	79.1016	72.16	79.1016	72.2095	79.1016	72.1663	79.1016	72.2136	79.1016	72.1741	79.1016	72.2176	79.1016	72.1829	79.1016	72.2208	79.1016	72.1923	79.1016	72.2227	79.1016	72.2013	79.1016	72.2227	79.1016	72.2095	79.1016	72.2205	79.1016	72.216
82.0312	72.8958	82.0312	72.8926	82.0312	72.8973	82.0312	72.8881	82.0312	72.897	82.0312	72.8827	82.0312	72.8951	82.0312	72.8768	82.0312	72.8918	82.0312	72.871	82.0312	72.8878	82.0312	72.8659	82.0312	72.8835	82.0312	72.8618	82.0312	72.8797	82.0312	72.859	82.0312	72.877	82.0312	72.8578	82.0312	72.8758	82.0312	72.8583	82.0312	72.8764	82.0312	72.8605	82.0312	72.8787	82.0312	72.8642	82.0312	72.8825	82.0312	72.8692	82.0312	72.8869	82.0312	72.8751	82.0312	72.8914	82.0312	72.8813	82.0312	72.8952	82.0312	72.8874	82.0312	72.8975	82.0312	72.8925	82.0312	72.8979	82.0312	72.8961
84.9609	73.5269	84.9609	73.5292	84.9609	73.5227	84.9609	73.5301	84.9609	73.5167	84.9609	73.5297	84.9609	73.5087	84.9609	73.5282	84.9609	73.4991	84.9609	73.526	84.9609	73.4882	84.9609	73.523	84.9609	73.4764	84.9609	73.5193	84.9609	73.4644	84.9609	73.5148	84.9609	73.4529	84.9609	73.5092	84.9609	73.4423	84.9609	73.5026	84.9609	73.4333	84.9609	73.4947	84.9609	73.4263	84.9609	73.4858	84.9609	73.4212	84.9609	73.4761	84.9609	73.4183	84.9609	73.466	84.9609	73.4174	84.9609	73.456	84.9609	73.4183	84.9609	73.4466	84.9609	73.421	84.9609	73.4381	84.9609	73.4252	84.9609	73.4309
87.8906	73.9832	87.8906	73.9829	87.8906	73.9832	87.8906	73.9825	87.8906	73.9825	87.8906	73.9825	87.8906	73.9812	87.8906	73.983	87.8906	73.9791	87.8906	73.9846	87.8906	73.9768	87.8906	73.9875	87.8906	73.9746	87.8906	73.9921	87.8906	73.9734	87.8906	73.9987	87.8906	73.974	87.8906	74.0074	87.8906	73.9771	87.8906	74.0183	87.8906	73.9831	87.8906	74.0308	87.8906	73.9925	87.8906	74.0444	87.8906	74.0048	87.8906	74.058	87.8906	74.0196	87.8906	74.0705	87.8906	74.0357	87.8906	74.0805	87.8906	74.0518	87.8906	74.0868	87.8906	74.0665	87.8906	74.0888	87.8906	74.0782	87.8906	74.0858
90.8203	74.5333	90.8203	74.5271	90.8203	74.5394	90.8203	74.5211	90.8203	74.5453	90.8203	74.516	90.8203	74.5509	90.8203	74.5122	90.8203	74.5565	90.8203	74.5104	90.8203	74.5624	90.8203	74.5111	90.8203	74.569	90.8203	74.5147	90.8203	74.5767	90.8203	74.5214	90.8203	74.5856	90.8203	74.5313	90.8203	74.5958	90.8203	74.5444	90.8203	74.6072	90.8203	74.56	90.8203	74.6194	90.8203	74.5775	90.8203	74.6318	90.8203	74.5961	90.8203	74.6438	90.8203	74.6147	90.8203	74.6544	90.8203	74.632	90.8203	74.6627	90.8203	74.647	90.8203	74.6679	90.8203	74.6586	90.8203	74.6692	90.8203	74.6661
95.2148	75.4991	95.2148	75.4929	95.2148	75.5027	95.2148	75.4844	95.2148	75.5035	95.2148	75.474	95.2148	75.5015	95.2148	75.4619	95.2148	75.4967	95.2148	75.4489	95.2148	75.4894	95.2148	75.4353	95.2148	75.48	95.2148	75.4218	95.2148	75.4691	95.2148	75.4092	95.2148	75.4575	95.2148	75.3982	95.2148	75.4459	95.2148	75.3896	95.2148	75.435	95.2148	75.3837	95.2148	75.4255	95.2148	75.3806	95.2148	75.4176	95.2148	75.3803	95.2148	75.4116	95.2148	75.3821	95.2148	75.4072	95.2148	75.3852	95.2148	75.404	95.2148	75.389	95.2148	75.4014	95.2148	75.3927	95.2148	75.3989	95.2148	75.3961
98.1445	76.143	98.1445	76.1478	98.1445	76.1336	98.1445	76.148	98.1445	76.1199	98.1445	76.1438	98.1445	76.1024	98.1445	76.1357	98.1445	76.0819	98.1445	76.1243	98.1445	76.0597	98.1445	76.1103	98.1445	76.0367	98.1445	76.0946	98.1445	76.0144	98.1445	76.078	98.1445	75.9939	98.1445	76.0615	98.1445	75.9763	98.1445	76.0458	98.1445	75.9624	98.1445	76.0314	98.1445	75.9525	98.1445	76.0188	98.1445	75.9469	98.1445	76.008	98.1445	75.9452	98.1445	75.9989	98.1445	75.9469	98.1445	75.9911	98.1445	75.9511	98.1445	75.984	98.1445	75.9569	98.1445	75.9772	98.1445	75.9635	98.1445	75.9704
101.074	76.5479	101.074	76.5536	101.074	76.5389	101.074	76.5558	101.074	76.5273	101.074	76.5546	101.074	76.5139	101.074	76.5501	101.074	76.4998	101.074	76.543	101.074	76.4862	101.074	76.5341	101.074	76.4743	101.074	76.5244	101.074	76.4654	101.074	76.515	101.074	76.4602	101.074	76.5068	101.074	76.4592	101.074	76.5009	101.074	76.4625	101.074	76.4978	101.074	76.4695	101.074	76.4979	101.074	76.4794	101.074	76.5009	101.074	76.4908	101.074	76.5061	101.074	76.5025	101.074	76.5127	101.074	76.5129	101.074	76.5191	101.074	76.5208	101.074	76.5241	101.074	76.5255	101.074	76.5265
105.469	77.262	105.469	77.2668	105.469	77.2536	105.469	77.2677	105.469	77.242	105.469	77.265	105.469	77.2282	105.469	77.2589	105.469	77.2128	105.469	77.25	105.469	77.1972	105.469	77.2394	105.469	77.1823	105.469	77.2279	105.469	77.1695	105.469	77.2164	105.469	77.1598	105.469	77.206	105.469	77.1541	105.469	77.1972	105.469	77.1527	105.469	77.1907	105.469	77.1554	105.469	77.1868	105.469	77.1615	105.469	77.1857	105.469	77.1698	105.469	77.1869	105.469	77.1788	105.469	77.1899	105.469	77.1871	105.469	77.1936	105.469	77.1936	105.469	77.1967	105.469	77.1974	105.469	77.1983
108.398	77.6283	108.398	77.6409	108.398	77.6127	108.398	77.6499	108.398	77.5947	108.398	77.6555	108.398	77.5751	108.398	77.6581	108.398	77.555	108.398	77.6582	108.398	77.5358	108.398	77.6566	108.398	77.5187	108.398	77.6542	108.398	77.5051	108.398	77.6519	108.398	77.4961	108.398	77.6503	108.398	77.4925	108.398	77.6497	108.398	77.495	108.398	77.6502	108.398	77.5034	108.398	77.6516	108.398	77.5172	108.398	77.6532	108.398	77.5352	108.398	77.6542	108.398	77.556	108.398	77.6534	108.398	77.5776	108.398	77.65	108.398	77.5984	108.398	77.6429	108.398	77.6169	108.398	77.6319
112.793	78.6626	112.793	78.6314	112.793	78.6874	112.793	78.595	112.793	78.7052	112.793	78.5555	112.793	78.7159	112.793	78.5151	112.793	78.7203	112.793	78.4767	112.793	78.7195	112.793	78.4429	112.793	78.7149	112.793	78.4163	112.793	78.7082	112.793	78.3989	112.793	78.7008	112.793	78.392	112.793	78.6939	112.793	78.3958	112.793	78.6882	112.793	78.4099	112.793	78.6836	112.793	78.4325	112.793	78.6799	112.793	78.4617	112.793	78.6761	112.793	78.4947	112.793	78.671	112.793	78.5288	112.793	78.6636	112.793	78.5618	112.793	78.6527	112.793	78.5916	112.793	78.6373	112.793	78.617
117.188	79.0582	117.188	79.0588	117.188	79.0516	117.188	79.0535	117.188	79.0394	117.188	79.043	117.188	79.0224	117.188	79.0283	117.188	79.0021	117.188	79.0108	117.188	78.9798	117.188	78.9922	117.188	78.9576	117.188	78.974	117.188	78.9374	117.188	78.9578	117.188	78.9209	117.188	78.9447	117.188	78.9095	117.188	78.9354	117.188	78.9038	117.188	78.9302	117.188	78.9037	117.188	78.9288	117.188	78.9084	117.188	78.9307	117.188	78.9164	117.188	78.9349	117.188	78.9262	117.188	78.9403	117.188	78.9358	117.188	78.9455	117.188	78.9437	117.188	78.9493	117.188	78.9488	117.188	78.9506
120.117	79.439	120.117	79.4428	120.117	79.4294	120.117	79.4411	120.117	79.414	120.117	79.4347	120.117	79.393	120.117	79.4245	120.117	79.3673	120.117	79.4117	120.117	79.338	120.117	79.3976	120.117	79.307	120.117	79.3835	120.117	79.2762	120.117	79.3707	120.117	79.2482	120.117	79.3598	120.117	79.2252	120.117	79.3512	120.117	79.209	120.117	79.3448	120.117	79.2007	120.117	79.3399	120.117	79.2004	120.117	79.3354	120.117	79.2071	120.117	79.3302	120.117	79.2195	120.117	79.3235	120.117	79.2356	120.117	79.3143	120.117	79.2534	120.117	79.3025	120.117	79.2713	120.117	79.288
124.512	80.0448	124.512	80.0597	124.512	80.0247	124.512	80.0693	124.512	79.9997	124.512	80.0739	124.512	79.9704	124.512	80.0742	124.512	79.9378	124.512	80.0709	124.512	79.9033	124.512	80.0652	124.512	79.8686	124.512	80.058	124.512	79.8358	124.512	80.0503	124.512	79.8068	124.512	80.0427	124.512	79.7838	124.512	80.0353	124.512	79.7683	124.512	80.0276	124.512	79.7611	124.512	80.0188	124.512	79.7624	124.512	80.0079	124.512	79.772	124.512	79.9938	124.512	79.7889	124.512	79.9757	124.512	79.8117	124.512	79.9534	124.512	79.8388	124.512	79.9274	124.512	79.8684	124.512	79.8985
128.906	80.5533	128.906	80.57	128.906	80.5349	128.906	80.5842	128.906	80.5157	128.906	80.5952	128.906	80.4964	128.906	80.6024	128.906	80.4775	128.906	80.6056	128.906	80.4595	128.906	80.6051	128.906	80.4431	128.906	80.6014	128.906	80.4287	128.906	80.5953	128.906	80.4172	128.906	80.5875	128.906	80.4092	128.906	80.5788	128.906	80.405	128.906	80.5695	128.906	80.4049	128.906	80.5599	128.906	80.4087	128.906	80.5499	128.906	80.4161	128.906	80.5391	128.906	80.4266	128.906	80.5274	128.906	80.4395	128.906	80.5145	128.906	80.4541	128.906	80.5003	128.906	80.4696	128.906	80.4852
133.301	81.1044	133.301	81.1115	133.301	81.0902	133.301	81.1111	133.301	81.0698	133.301	81.1033	133.301	81.0446	133.301	81.0891	133.301	81.0159	133.301	81.0699	133.301	80.9855	133.301	81.0475	133.301	80.9547	133.301	81.0238	133.301	80.925	133.301	81.0005	133.301	80.8975	133.301	80.9791	133.301	80.8732	133.301	80.9602	133.301	80.853	133.301	80.9441	133.301	80.8373	133.301	80.9302	133.301	80.8266	133.301	80.918	133.301	80.821	133.301	80.9064	133.301	80.8204	133.301	80.8946	133.301	80.8245	133.301	80.8823	133.301	80.8325	133.301	80.8693	133.301	80.8434	133.301	80.856
139.16	81.4601	139.16	81.4529	139.16	81.4607	139.16	81.4397	139.16	81.4547	139.16	81.4218	139.16	81.4428	139.16	81.4012	139.16	81.4267	139.16	81.3803	139.16	81.4082	139.16	81.3616	139.16	81.3896	139.16	81.3474	139.16	81.373	139.16	81.3399	139.16	81.3607	139.16	81.3404	139.16	81.3541	139.16	81.3494	139.16	81.3545	139.16	81.3662	139.16	81.3623	139.16	81.3893	139.16	81.3771	139.16	81.416	139.16	81.3977	139.16	81.443	139.16	81.4217	139.16	81.4669	139.16	81.4463	139.16	81.4848	139.16	81.4686	139.16	81.4943	139.16	81.4854	139.16	81.4945
143.555	81.9123	143.555	81.8889	143.555	81.9316	143.555	81.8632	143.555	81.9459	143.555	81.8371	143.555	81.9547	143.555	81.8129	143.555	81.9582	143.555	81.7927	143.555	81.9573	143.555	81.7785	143.555	81.9533	143.555	81.7718	143.555	81.9474	143.555	81.7737	143.555	81.9412	143.555	81.7847	143.555	81.9358	143.555	81.8042	143.555	81.9325	143.555	81.8308	143.555	81.9323	143.555	81.8622	143.555	81.9359	143.555	81.8953	143.555	81.9434	143.555	81.9269	143.555	81.9541	143.555	81.954	143.555	81.9664	143.555	81.9743	143.555	81.9782	143.555	81.9864	143.555	81.987	143.555	81.9903
147.949	82.3635	147.949	82.3587	147.949	82.3607	147.949	82.3467	147.949	82.3502	147.949	82.329	147.949	82.3329	147.949	82.3072	147.949	82.3101	147.949	82.2835	147.949	82.2839	147.949	82.2598	147.949	82.2562	147.949	82.2382	147.949	82.2293	147.949	82.2205	147.949	82.205	147.949	82.208	147.949	82.1852	147.949	82.2014	147.949	82.1711	147.949	82.2005	147.949	82.1636	147.949	82.2045	147.949	82.1629	147.949	82.2117	147.949	82.1685	147.949	82.2201	147.949	82.179	147.949	82.2276	147.949	82.1925	147.949	82.2323	147.949	82.2067	147.949	82.2327	147.949	82.2193	147.949	82.2283
153.809	82.7438	153.809	82.7559	153.809	82.7206	153.809	82.7566	153.809	82.6879	153.809	82.7467	153.809	82.6479	153.809	82.7275	153.809	82.6038	153.809	82.7012	153.809	82.5588	153.809	82.6705	153.809	82.5158	153.809	82.6378	153.809	82.4772	153.809	82.6058	153.809	82.4449	153.809	82.5767	153.809	82.4199	153.809	82.552	153.809	82.403	153.809	82.5329	153.809	82.3944	153.809	82.5193	153.809	82.3939	153.809	82.5106	153.809	82.4005	153.809	82.5053	153.809	82.413	153.809	82.5012	153.809	82.4293	153.809	82.4965	153.809	82.4471	153.809	82.4892	153.809	82.4641	153.809	82.4784
159.668	82.9599	159.668	82.9567	159.668	82.9581	159.668	82.9494	159.668	82.951	159.668	82.939	159.668	82.9392	159.668	82.9266	159.668	82.9237	159.668	82.9132	159.668	82.9064	159.668	82.9	159.668	82.8896	159.668	82.8883	159.668	82.8755	159.668	82.8794	159.668	82.8657	159.668	82.8744	159.668	82.8615	159.668	82.8742	159.668	82.8631	159.668	82.8791	159.668	82.8702	159.668	82.8885	159.668	82.882	159.668	82.9015	159.668	82.8968	159.668	82.9162	159.668	82.9129	159.668	82.9305	159.668	82.9282	159.668	82.9425	159.668	82.941	159.668	82.9503	159.668	82.9495	159.668	82.9527
165.527	83.4657	165.527	83.4595	165.527	83.4606	165.527	83.4426	165.527	83.4444	165.527	83.4166	165.527	83.418	165.527	83.3839	165.527	83.3837	165.527	83.3476	165.527	83.3444	165.527	83.311	165.527	83.3039	165.527	83.2774	165.527	83.2665	165.527	83.2495	165.527	83.2362	165.527	83.2291	165.527	83.216	165.527	83.2172	165.527	83.2073	165.527	83.2134	165.527	83.2096	165.527	83.2168	165.527	83.2206	165.527	83.2258	165.527	83.2369	165.527	83.2385	165.527	83.2547	165.527	83.2529	165.527	83.2704	165.527	83.2668	165.527	83.2815	165.527	83.2781	165.527	83.2865	165.527	83.2852
171.387	83.4634	171.387	83.4523	171.387	83.4664	171.387	83.434	171.387	83.4612	171.387	83.4102	171.387	83.4487	171.387	83.3835	171.387	83.4302	171.387	83.3569	171.387	83.4082	171.387	83.3333	171.387	83.3855	171.387	83.3156	171.387	83.3652	171.387	83.3056	171.387	83.3503	171.387	83.3043	171.387	83.3429	171.387	83.3117	171.387	83.344	171.387	83.3267	171.387	83.3532	171.387	83.3475	171.387	83.3688	171.387	83.3717	171.387	83.3885	171.387	83.3967	171.387	83.4093	171.387	83.4196	171.387	83.4285	171.387	83.4382	171.387	83.4437	171.387	83.4505	171.387	83.4531	171.387	83.4556
177.246	83.5743	177.246	83.5661	177.246	83.5725	177.246	83.5497	177.246	83.5607	177.246	83.5279	177.246	83.54	177.246	83.5041	177.246	83.513	177.246	83.4822	177.246	83.4831	177.246	83.4655	177.246	83.4545	177.246	83.4569	177.246	83.4311	177.246	83.4582	177.246	83.4163	177.246	83.4697	177.246	83.412	177.246	83.4905	177.246	83.4189	177.246	83.5183	177.246	83.4361	177.246	83.55	177.246	83.4618	177.246	83.582	177.246	83.4932	177.246	83.6104	177.246	83.5276	177.246	83.6321	177.246	83.5621	177.246	83.6446	177.246	83.5937	177.246	83.6466	177.246	83.6198	177.246	83.6381
183.105	83.7117	183.105	83.7098	183.105	83.7026	183.105	83.6977	183.105	83.6833	183.105	83.677	183.105	83.6558	183.105	83.6506	183.105	83.6232	183.105	83.6219	183.105	83.5895	183.105	83.5952	183.105	83.559	183.105	83.5746	183.105	83.5359	183.105	83.5641	183.105	83.5235	183.105	83.5664	183.105	83.5244	183.105	83.5826	183.105	83.5394	183.105	83.6115	183.105	83.5673	183.105	83.6497	183.105	83.6056	183.105	83.6926	183.105	83.6502	183.105	83.7349	183.105	83.6964	183.105	83.7715	183.105	83.7395	183.105	83.7985	183.105	83.7754	183.105	83.813	183.105	83.801	183.105	83.8139
188.965	83.8157	188.965	83.8211	188.965	83.7925	188.965	83.8086	188.965	83.7527	188.965	83.7798	188.965	83.6989	188.965	83.7373	188.965	83.635	188.965	83.6848	188.965	83.5654	188.965	83.6266	188.965	83.4956	188.965	83.5677	188.965	83.4315	188.965	83.5135	188.965	83.379	188.965	83.4692	188.965	83.344	188.965	83.4395	188.965	83.3308	188.965	83.4276	188.965	83.341	188.965	83.4345	188.965	83.3732	188.965	83.4582	188.965	83.4219	188.965	83.4943	188.965	83.4788	188.965	83.5358	188.965	83.5344	188.965	83.5749	188.965	83.5798	188.965	83.6038	188.965	83.6082	188.965	83.6161
196.289	83.8979	196.289	83.8971	196.289	83.8932	196.289	83.8905	196.289	83.8834	196.289	83.8781	196.289	83.8686	196.289	83.8605	196.289	83.8489	196.289	83.8391	196.289	83.8245	196.289	83.8155	196.289	83.7962	196.289	83.7917	196.289	83.7655	196.289	83.7691	196.289	83.7342	196.289	83.7487	196.289	83.7044	196.289	83.7309	196.289	83.6783	196.289	83.7156	196.289	83.6571	196.289	83.7023	196.289	83.6418	196.289	83.6906	196.289	83.6321	196.289	83.6798	196.289	83.6275	196.289	83.6696	196.289	83.627	196.289	83.6597	196.289	83.6297	196.289	83.6504	196.289	83.6349	196.289	83.6419
203.613	83.8619	203.613	83.8559	203.613	83.853	203.613	83.8359	203.613	83.8299	203.613	83.8035	203.613	83.7944	203.613	83.7622	203.613	83.7495	203.613	83.7163	203.613	83.6996	203.613	83.6712	203.613	83.6501	203.613	83.6325	203.613	83.607	203.613	83.605	203.613	83.576	203.613	83.5918	203.613	83.5612	203.613	83.5942	203.613	83.5645	203.613	83.6109	203.613	83.5848	203.613	83.6389	203.613	83.6184	203.613	83.6741	203.613	83.6599	203.613	83.7116	203.613	83.7031	203.613	83.7466	203.613	83.7423	203.613	83.7749	203.613	83.7732	203.613	83.7933	203.613	83.7928	203.613	83.7995
210.938	83.8732	210.938	83.8768	210.938	83.8573	210.938	83.8671	210.938	83.8316	210.938	83.8441	210.938	83.7987	210.938	83.8101	210.938	83.7616	210.938	83.7686	210.938	83.7229	210.938	83.7244	210.938	83.6855	210.938	83.6824	210.938	83.6523	210.938	83.6473	210.938	83.6261	210.938	83.6227	210.938	83.6099	210.938	83.6104	210.938	83.6053	210.938	83.6108	210.938	83.6128	210.938	83.6224	210.938	83.631	210.938	83.6429	210.938	83.6568	210.938	83.6691	210.938	83.6859	210.938	83.697	210.938	83.7137	210.938	83.7224	210.938	83.7358	210.938	83.7414	210.938	83.7488	210.938	83.7507
218.262	83.7963	218.262	83.7947	218.262	83.7797	218.262	83.7763	218.262	83.7464	218.262	83.7448	218.262	83.7007	218.262	83.7051	218.262	83.6489	218.262	83.6624	218.262	83.5975	218.262	83.6219	218.262	83.5522	218.262	83.5881	218.262	83.5166	218.262	83.5652	218.262	83.4931	218.262	83.5566	218.262	83.4825	218.262	83.5639	218.262	83.4854	218.262	83.5869	218.262	83.502	218.262	83.6225	218.262	83.5318	218.262	83.6658	218.262	83.5728	218.262	83.7103	218.262	83.6213	218.262	83.7493	218.262	83.6722	218.262	83.7767	218.262	83.7196	218.262	83.788	218.262	83.7576	218.262	83.7815
225.586	83.717	225.586	83.6995	225.586	83.717	225.586	83.6688	225.586	83.6969	225.586	83.6299	225.586	83.657	225.586	83.5877	225.586	83.6001	225.586	83.5461	225.586	83.532	225.586	83.5088	225.586	83.46	225.586	83.4788	225.586	83.3917	225.586	83.4592	225.586	83.3344	225.586	83.4524	225.586	83.2943	225.586	83.46	225.586	83.2755	225.586	83.4811	225.586	83.2803	225.586	83.513	225.586	83.308	225.586	83.5507	225.586	83.3551	225.586	83.5884	225.586	83.4153	225.586	83.6197	225.586	83.4804	225.586	83.6391	225.586	83.5419	225.586	83.6423	225.586	83.5924	225.586	83.6267
232.91	83.5513	232.91	83.5371	232.91	83.5502	232.91	83.5093	232.91	83.5339	232.91	83.4711	232.91	83.5034	232.91	83.4268	232.91	83.4612	232.91	83.3817	232.91	83.411	232.91	83.3411	232.91	83.3577	232.91	83.3093	232.91	83.307	232.91	83.2899	232.91	83.2647	232.91	83.2849	232.91	83.2358	232.91	83.2948	232.91	83.2236	232.91	83.3186	232.91	83.2289	232.91	83.3533	232.91	83.2504	232.91	83.394	232.91	83.2849	232.91	83.4345	232.91	83.3282	232.91	83.4684	232.91	83.3753	232.91	83.4901	232.91	83.4206	232.91	83.4961	232.91	83.4589	232.91	83.4852
241.699	83.454	241.699	83.4587	241.699	83.4267	241.699	83.4401	241.699	83.3796	241.699	83.4003	241.699	83.3167	241.699	83.3438	241.699	83.2434	241.699	83.2778	241.699	83.1658	241.699	83.2108	241.699	83.0909	241.699	83.1511	241.699	83.0256	241.699	83.106	241.699	82.9766	241.699	83.0808	241.699	82.949	241.699	83.0782	241.699	82.9457	241.699	83.098	241.699	82.967	241.699	83.1369	241.699	83.0098	241.699	83.1884	241.699	83.0686	241.699	83.2438	241.699	83.136	241.699	83.2938	241.699	83.2039	241.699	83.3299	241.699	83.2648	241.699	83.3462	241.699	83.3119	241.699	83.3401
250.488	83.2508	250.488	83.2568	250.488	83.2234	250.488	83.2414	250.488	83.1758	250.488	83.2062	250.488	83.111	250.488	83.1545	250.488	83.0339	250.488	83.0915	250.488	82.9512	250.488	83.0241	250.488	82.8709	250.488	82.9606	250.488	82.8016	250.488	82.9095	250.488	82.7508	250.488	82.878	250.488	82.7238	250.488	82.8705	250.488	82.7231	250.488	82.8871	250.488	82.7474	250.488	82.9233	250.488	82.7923	250.488	82.9707	250.488	82.8506	250.488	83.0194	250.488	82.9142	250.488	83.0605	250.488	82.9753	250.488	83.0878	250.488	83.0276	250.488	83.0982	250.488	83.0671	250.488	83.0911
259.277	83.1989	259.277	83.1764	259.277	83.2062	259.277	83.142	259.277	83.1954	259.277	83.0986	259.277	83.165	259.277	83.0484	259.277	83.1161	259.277	82.9939	259.277	83.0533	259.277	82.938	259.277	82.9835	259.277	82.8842	259.277	82.9151	259.277	82.8369	259.277	82.8562	259.277	82.8004	259.277	82.8131	259.277	82.7783	259.277	82.7896	259.277	82.773	259.277	82.7863	259.277	82.7841	259.277	82.8006	259.277	82.8087	259.277	82.8277	259.277	82.8414	259.277	82.8609	259.277	82.8757	259.277	82.8935	259.277	82.9059	259.277	82.9195	259.277	82.9275	259.277	82.9349	259.277	82.9377
268.066	83.1225	268.066	83.0935	268.066	83.1264	268.066	83.0443	268.066	83.1025	268.066	82.9817	268.066	83.0514	268.066	82.9136	268.066	82.9772	268.066	82.849	268.066	82.8881	268.066	82.7957	268.066	82.795	268.066	82.759	268.066	82.7099	268.066	82.7402	268.066	82.6431	268.066	82.7369	268.066	82.6014	268.066	82.7448	268.066	82.5876	268.066	82.7601	268.066	82.6002	268.066	82.7804	268.066	82.6342	268.066	82.8044	268.066	82.6827	268.066	82.8303	268.066	82.7378	268.066	82.8556	268.066	82.7914	268.066	82.8762	268.066	82.8368	268.066	82.8876	268.066	82.8692	268.066	82.8861
276.855	82.9724	276.855	82.9396	276.855	82.9833	276.855	82.8778	276.855	82.9791	276.855	82.7849	276.855	82.9623	276.855	82.6654	276.855	82.9288	276.855	82.5314	276.855	82.8706	276.855	82.4003	276.855	82.7822	276.855	82.2921	276.855	82.6665	276.855	82.2239	276.855	82.5382	276.855	82.2049	276.855	82.4202	276.855	82.233	276.855	82.3357	276.855	82.2963	276.855	82.2988	276.855	82.3778	276.855	82.3095	276.855	82.4604	276.855	82.3561	276.855	82.531	276.855	82.4211	276.855	82.5826	276.855	82.4884	276.855	82.6132	276.855	82.5466	276.855	82.6236	276.855	82.5897	276.855	82.6156
287.109	83.1088	287.109	83.0715	287.109	83.1075	287.109	83.0106	287.109	83.0582	287.109	82.9398	287.109	82.9622	287.109	82.8669	287.109	82.8336	287.109	82.794	287.109	82.694	287.109	82.7211	287.109	82.5639	287.109	82.6508	287.109	82.456	287.109	82.5903	287.109	82.3723	287.109	82.5489	287.109	82.309	287.109	82.5329	287.109	82.2636	287.109	82.5412	287.109	82.2385	287.109	82.5651	287.109	82.2387	287.109	82.5933	287.109	82.2666	287.109	82.6159	287.109	82.3183	287.109	82.6268	287.109	82.3842	287.109	82.6231	287.109	82.4534	287.109	82.6034	287.109	82.5165	287.109	82.5675
297.363	82.9202	297.363	82.9232	297.363	82.8807	297.363	82.8818	297.363	82.8146	297.363	82.7939	297.363	82.7297	297.363	82.6664	297.363	82.6317	297.363	82.5149	297.363	82.5249	297.363	82.36	297.363	82.4146	297.363	82.222	297.363	82.3084	297.363	82.1173	297.363	82.2152	297.363	82.0579	297.363	82.1443	297.363	82.0506	297.363	82.1038	297.363	82.0961	297.363	82.0997	297.363	82.1864	297.363	82.1347	297.363	82.3048	297.363	82.2059	297.363	82.4294	297.363	82.3037	297.363	82.5387	297.363	82.4128	297.363	82.6161	297.363	82.5158	297.363	82.6524	297.363	82.5972	297.363	82.6451
307.617	82.6347	307.617	82.5702	307.617	82.6719	307.617	82.4835	307.617	82.6787	307.617	82.381	307.617	82.6541	307.617	82.2706	307.617	82.5995	307.617	82.1614	307.617	82.5196	307.617	82.063	307.617	82.4232	307.617	81.9848	307.617	82.3231	307.617	81.9341	307.617	82.2332	307.617	81.915	307.617	82.1652	307.617	81.9273	307.617	82.1243	307.617	81.9679	307.617	82.1096	307.617	82.0315	307.617	82.1162	307.617	82.111	307.617	82.1394	307.617	82.1964	307.617	82.1755	307.617	82.2747	307.617	82.2218	307.617	82.3321	307.617	82.2731	307.617	82.3589	307.617	82.3208	307.617	82.3532
319.336	82.3555	319.336	82.3157	319.336	82.3569	319.336	82.2417	319.336	82.3206	319.336	82.1426	319.336	82.2518	319.336	82.0309	319.336	82.159	319.336	81.9195	319.336	82.053	319.336	81.8199	319.336	81.946	319.336	81.74	319.336	81.8512	319.336	81.6859	319.336	81.7817	319.336	81.6628	319.336	81.7489	319.336	81.6762	319.336	81.7591	319.336	81.7284	319.336	81.8121	319.336	81.8161	319.336	81.9004	319.336	81.9292	319.336	82.0108	319.336	82.0527	319.336	82.1276	319.336	82.1712	319.336	82.2347	319.336	82.2711	319.336	82.3179	319.336	82.3415	319.336	82.3665	319.336	82.3746
329.59	82.0448	329.59	82.0195	329.59	82.0606	329.59	81.9852	329.59	82.064	329.59	81.9391	329.59	82.0518	329.59	81.8773	329.59	82.023	329.59	81.7995	329.59	81.9784	329.59	81.7125	329.59	81.9213	329.59	81.6301	329.59	81.8573	329.59	81.5675	329.59	81.7958	329.59	81.5358	329.59	81.7485	329.59	81.5386	329.59	81.7261	329.59	81.5722	329.59	81.7329	329.59	81.6285	329.59	81.764	329.59	81.6976	329.59	81.8087	329.59	81.7695	329.59	81.8552	329.59	81.8354	329.59	81.8955	329.59	81.8885	329.59	81.925	329.59	81.9244	329.59	81.9412	329.59	81.9417
341.309	82.1708	341.309	82.115	341.309	82.1675	341.309	82.0016	341.309	82.1134	341.309	81.8422	341.309	82.0234	341.309	81.655	341.309	81.9145	341.309	81.4615	341.309	81.8013	341.309	81.283	341.309	81.6929	341.309	81.1391	341.309	81.5938	341.309	81.0459	341.309	81.5078	341.309	81.0132	341.309	81.443	341.309	81.0412	341.309	81.4138	341.309	81.121	341.309	81.4355	341.309	81.2374	341.309	81.5139	341.309	81.3743	341.309	81.6373	341.309	81.5186	341.309	81.7782	341.309	81.6605	341.309	81.9031	341.309	81.7919	341.309	81.9853	341.309	81.9028	341.309	82.0111	341.309	81.9804
353.027	81.9319	353.027	81.9042	353.027	81.915	353.027	81.8349	353.027	81.8541	353.027	81.728	353.027	81.756	353.027	81.5885	353.027	81.6344	353.027	81.4225	353.027	81.5091	353.027	81.2397	353.027	81.4007	353.027	81.0562	353.027	81.3256	353.027	80.8971	353.027	81.2906	353.027	80.7943	353.027	81.2927	353.027	80.7768	353.027	81.3227	353.027	80.8565	353.027	81.3724	353.027	81.0207	353.027	81.4389	353.027	81.2364	353.027	81.5224	353.027	81.4626	353.027	81.6213	353.027	81.663	353.027	81.727	353.027	81.8129	353.027	81.8245	353.027	81.9008	353.027	81.8963	353.027	81.926
366.211	81.8604	366.211	81.8359	366.211	81.8385	366.211	81.753	366.211	81.7836	366.211	81.6074	366.211	81.7058	366.211	81.4074	366.211	81.6104	366.211	81.1743	366.211	81.5017	366.211	80.9406	366.211	81.3862	366.211	80.7432	366.211	81.2727	366.211	80.6147	366.211	81.1703	366.211	80.5744	366.211	81.088	366.211	80.6245	366.211	81.0361	366.211	80.7513	366.211	81.0262	366.211	80.9303	366.211	81.067	366.211	81.1321	366.211	81.1578	366.211	81.328	366.211	81.2851	366.211	81.4942	366.211	81.4254	366.211	81.6147	366.211	81.5529	366.211	81.6812	366.211	81.6461	366.211	81.6911
379.395	81.8477	379.395	81.8019	379.395	81.8367	379.395	81.7167	379.395	81.7581	379.395	81.6083	379.395	81.6159	379.395	81.4873	379.395	81.4296	379.395	81.3599	379.395	81.2294	379.395	81.232	379.395	81.0475	379.395	81.1116	379.395	80.9119	379.395	81.0097	379.395	80.8425	379.395	80.9394	379.395	80.8475	379.395	80.913	379.395	80.9217	379.395	80.9373	379.395	81.0472	379.395	81.0098	379.395	81.1999	379.395	81.1193	379.395	81.3559	379.395	81.25	379.395	81.496	379.395	81.3856	379.395	81.6062	379.395	81.5108	379.395	81.6763	379.395	81.612	379.395	81.7006	379.395	81.6779
392.578	81.762	392.578	81.778	392.578	81.7018	392.578	81.7469	392.578	81.5977	392.578	81.6646	392.578	81.4496	392.578	81.5287	392.578	81.2609	392.578	81.3421	392.578	81.0446	392.578	81.1166	392.578	80.8248	392.578	80.8766	392.578	80.6328	392.578	80.6588	392.578	80.4979	392.578	80.5054	392.578	80.4371	392.578	80.4487	392.578	80.4513	392.578	80.4961	392.578	80.5278	392.578	80.626	392.578	80.6471	392.578	80.7992	392.578	80.7881	392.578	80.9757	392.578	80.9326	392.578	81.1256	392.578	81.0659	392.578	81.2322	392.578	81.1766	392.578	81.2887	392.578	81.2557	392.578	81.2952
405.762	81.6481	405.762	81.6178	405.762	81.6438	405.762	81.5537	405.762	81.5938	405.762	81.4481	405.762	81.4834	405.762	81.2928	405.762	81.3051	405.762	81.0882	405.762	81.067	405.762	80.8484	405.762	80.7951	405.762	80.6019	405.762	80.5284	405.762	80.3882	405.762	80.3098	405.762	80.2486	405.762	80.1759	405.762	80.2108	405.762	80.1475	405.762	80.2755	405.762	80.2224	405.762	80.4143	405.762	80.3739	405.762	80.5847	405.762	80.5607	405.762	80.7488	405.762	80.7421	405.762	80.8847	405.762	80.8909	405.762	80.9842	405.762	80.9954	405.762	81.0462	405.762	81.0542	405.762	81.0701
420.41	81.9804	420.41	81.9695	420.41	81.8859	420.41	81.8552	420.41	81.7025	420.41	81.6585	420.41	81.457	420.41	81.4107	420.41	81.1756	420.41	81.1412	420.41	80.8774	420.41	80.8681	420.41	80.5782	420.41	80.5981	420.41	80.2977	420.41	80.3384	420.41	80.063	420.41	80.1129	420.41	79.9011	420.41	79.9679	420.41	79.8246	420.41	79.9495	420.41	79.828	420.41	80.0643	420.41	79.8962	420.41	80.2639	420.41	80.0157	420.41	80.475	420.41	80.174	420.41	80.6415	420.41	80.3519	420.41	80.7403	420.41	80.5221	420.41	80.7721	420.41	80.6581	420.41	80.7434
435.059	81.6732	435.059	81.6203	435.059	81.6338	435.059	81.4817	435.059	81.5103	435.059	81.2796	435.059	81.3201	435.059	81.0477	435.059	81.0816	435.059	80.8222	435.059	80.81	435.059	80.6328	435.059	80.5169	435.059	80.4945	435.059	80.218	435.059	80.4027	435.059	79.942	435.059	80.3406	435.059	79.7362	435.059	80.2967	435.059	79.655	435.059	80.2811	435.059	79.7318	435.059	80.3205	435.059	79.9543	435.059	80.4334	435.059	80.2668	435.059	80.6081	435.059	80.5962	435.059	80.8076	435.059	80.8794	435.059	80.9902	435.059	81.0785	435.059	81.1251	435.059	81.1814	435.059	81.1932
451.172	81.6579	451.172	81.7019	451.172	81.5268	451.172	81.6533	451.172	81.3227	451.172	81.5103	451.172	81.0724	451.172	81.2754	451.172	80.8113	451.172	80.9633	451.172	80.5705	451.172	80.6082	451.172	80.3641	451.172	80.2622	451.172	80.1887	451.172	79.9811	451.172	80.0357	451.172	79.8052	451.172	79.9066	451.172	79.7478	451.172	79.8167	451.172	79.8015	451.172	79.7855	451.172	79.9492	451.172	79.8239	451.172	80.1662	451.172	79.9276	451.172	80.4127	451.172	80.079	451.172	80.6337	451.172	80.2564	451.172	80.7761	451.172	80.4403	451.172	80.8118	451.172	80.6123	451.172	80.7472
465.82	81.6796	465.82	81.6115	465.82	81.6723	465.82	81.4764	465.82	81.5743	465.82	81.2771	465.82	81.3713	465.82	81.0168	465.82	81.0646	465.82	80.7065	465.82	80.6799	465.82	80.3671	465.82	80.2657	465.82	80.0331	465.82	79.8808	465.82	79.7559	465.82	79.5787	465.82	79.594	465.82	79.3968	465.82	79.5818	465.82	79.3512	465.82	79.7001	465.82	79.4347	465.82	79.8887	465.82	79.6203	465.82	80.0898	465.82	79.8711	465.82	80.2774	465.82	80.1488	465.82	80.4513	465.82	80.4149	465.82	80.6107	465.82	80.6312	465.82	80.7368	465.82	80.7643	465.82	80.7972
483.398	81.7666	483.398	81.67	483.398	81.7527	483.398	81.4826	483.398	81.6158	483.398	81.2277	483.398	81.3525	483.398	80.9242	483.398	80.971	483.398	80.5806	483.398	80.4967	483.398	80.1971	483.398	79.9778	483.398	79.7804	483.398	79.484	483.398	79.3638	483.398	79.0942	483.398	79.0218	483.398	78.8727	483.398	78.8566	483.398	78.8484	483.398	78.9391	483.398	79.0059	483.398	79.2427	483.398	79.2916	483.398	79.6516	483.398	79.6309	483.398	80.039	483.398	79.9529	483.398	80.3284	483.398	80.2117	483.398	80.5007	483.398	80.3942	483.398	80.572	483.398	80.5092	483.398	80.5689
499.512	81.6973	499.512	81.6376	499.512	81.6678	499.512	81.4914	499.512	81.5575	499.512	81.2758	499.512	81.3747	499.512	81.0168	499.512	81.118	499.512	80.7384	499.512	80.7787	499.512	80.4521	499.512	80.3553	499.512	80.1559	499.512	79.8708	499.512	79.8459	499.512	79.3833	499.512	79.5377	499.512	78.9833	499.512	79.2812	499.512	78.7652	499.512	79.1511	499.512	78.7746	499.512	79.2038	499.512	78.9751	499.512	79.4342	499.512	79.2792	499.512	79.7735	499.512	79.6102	499.512	80.1252	499.512	79.9276	499.512	80.4037	499.512	80.2104	499.512	80.5543	499.512	80.4331	499.512	80.5592
517.09	81.9476	517.09	81.9786	517.09	81.8385	517.09	81.9122	517.09	81.6648	517.09	81.7201	517.09	81.4429	517.09	81.376	517.09	81.191	517.09	80.8794	517.09	80.9143	517.09	80.2745	517.09	80.596	517.09	79.6479	517.09	80.213	517.09	79.0996	517.09	79.7679	517.09	78.7099	517.09	79.3116	517.09	78.5272	517.09	78.9305	517.09	78.5678	517.09	78.708	517.09	78.8055	517.09	78.6902	517.09	79.165	517.09	78.873	517.09	79.5471	517.09	79.1978	517.09	79.8701	517.09	79.5674	517.09	80.0921	517.09	79.8884	517.09	80.2044	517.09	80.1067	517.09	80.21
536.133	81.7963	536.133	81.6813	536.133	81.7927	536.133	81.4768	536.133	81.6502	536.133	81.2114	536.133	81.3692	536.133	80.9074	536.133	80.9793	536.133	80.5758	536.133	80.5338	536.133	80.2118	536.133	80.0875	536.133	79.8023	536.133	79.667	536.133	79.3488	536.133	79.264	536.133	78.8912	536.133	78.874	536.133	78.5092	536.133	78.5441	536.133	78.2922	536.133	78.3645	536.133	78.291	536.133	78.3901	536.133	78.4924	536.133	78.5882	536.133	78.8373	536.133	78.8827	536.133	79.2461	536.133	79.2173	536.133	79.6262	536.133	79.551	536.133	79.8832	536.133	79.8221	536.133	79.9508
555.176	81.52	555.176	81.3958	555.176	81.5691	555.176	81.2328	555.176	81.504	555.176	81.0362	555.176	81.3045	555.176	80.7786	555.176	80.9678	555.176	80.4318	555.176	80.5	555.176	79.9949	555.176	79.9209	555.176	79.4927	555.176	79.2834	555.176	78.9646	555.176	78.6865	555.176	78.4775	555.176	78.2563	555.176	78.1413	555.176	78.0857	555.176	78.0615	555.176	78.1741	555.176	78.2492	555.176	78.4354	555.176	78.6069	555.176	78.7631	555.176	79.0068	555.176	79.0813	555.176	79.3543	555.176	79.3513	555.176	79.5993	555.176	79.5572	555.176	79.7284	555.176	79.6927	555.176	79.7534
574.219	81.7589	574.219	81.7409	574.219	81.6511	574.219	81.578	574.219	81.4616	574.219	81.289	574.219	81.2264	574.219	80.9179	574.219	80.9495	574.219	80.5062	574.219	80.6106	574.219	80.0685	574.219	80.192	574.219	79.5902	574.219	79.6892	574.219	79.0595	574.219	79.1101	574.219	78.5098	574.219	78.4903	574.219	78.0379	574.219	77.9309	574.219	77.7815	574.219	77.599	574.219	77.8352	574.219	77.623	574.219	78.16	574.219	77.9609	574.219	78.6099	574.219	78.4313	574.219	79.0404	574.219	78.8667	574.219	79.3591	574.219	79.1955	574.219	79.5227	574.219	79.4154	574.219	79.5316
594.727	81.9136	594.727	81.847	594.727	81.8564	594.727	81.6383	594.727	81.7001	594.727	81.3064	594.727	81.4511	594.727	80.8985	594.727	81.1109	594.727	80.4509	594.727	80.6976	594.727	79.9628	594.727	80.2307	594.727	79.4116	594.727	79.7075	594.727	78.8213	594.727	79.1218	594.727	78.3088	594.727	78.5133	594.727	78.0026	594.727	77.9839	594.727	77.9034	594.727	77.6604	594.727	77.9195	594.727	77.6239	594.727	78.025	594.727	77.8637	594.727	78.2632	594.727	78.299	594.727	78.6181	594.727	78.8111	594.727	79.001	594.727	79.2571	594.727	79.3275	594.727	79.5114	594.727	79.523
615.234	81.9017	615.234	81.817	615.234	81.9393	615.234	81.72	615.234	81.8473	615.234	81.5556	615.234	81.5935	615.234	81.2321	615.234	81.2345	615.234	80.7181	615.234	80.8407	615.234	80.0985	615.234	80.4037	615.234	79.5117	615.234	79.8668	615.234	78.9971	615.234	79.2426	615.234	78.4704	615.234	78.6455	615.234	77.9135	615.234	78.1927	615.234	77.5136	615.234	77.9164	615.234	77.4703	615.234	77.8175	615.234	77.7303	615.234	77.9267	615.234	78.1218	615.234	78.2124	615.234	78.5501	615.234	78.5361	615.234	78.9372	615.234	78.8033	615.234	79.1661	615.234	79.0221	615.234	79.1747
637.207	82.0238	637.207	81.9992	637.207	82.0509	637.207	81.963	637.207	82.0278	637.207	81.8328	637.207	81.8773	637.207	81.5184	637.207	81.5516	637.207	81.0056	637.207	81.0602	637.207	80.367	637.207	80.4654	637.207	79.7037	637.207	79.8339	637.207	79.0894	637.207	79.2005	637.207	78.553	637.207	78.618	637.207	78.1082	637.207	78.1914	637.207	77.8108	637.207	77.9798	637.207	77.7542	637.207	77.9426	637.207	77.944	637.207	78.0538	637.207	78.2482	637.207	78.3405	637.207	78.5408	637.207	78.7599	637.207	78.8007	637.207	79.1467	637.207	79.0553	637.207	79.3311	637.207	79.2703
659.18	82.0929	659.18	82.0864	659.18	81.9247	659.18	81.8563	659.18	81.6944	659.18	81.4687	659.18	81.4549	659.18	81.0311	659.18	81.1737	659.18	80.5941	659.18	80.8052	659.18	80.1267	659.18	80.324	659.18	79.5646	659.18	79.7098	659.18	78.8675	659.18	78.9629	659.18	78.091	659.18	78.1605	659.18	77.4442	659.18	77.4995	659.18	77.1795	659.18	77.2166	659.18	77.338	659.18	77.3426	659.18	77.7378	659.18	77.666	659.18	78.2194	659.18	78.0367	659.18	78.7455	659.18	78.497	659.18	79.2867	659.18	79.0722	659.18	79.7128	659.18	79.5968	659.18	79.8434
682.617	82.2636	682.617	82.0961	682.617	82.2908	682.617	81.8629	682.617	82.1339	682.617	81.609	682.617	81.8419	682.617	81.3342	682.617	81.5035	682.617	80.9896	682.617	81.1229	682.617	80.5014	682.617	80.6193	682.617	79.8229	682.617	79.9535	682.617	78.956	682.617	79.1773	682.617	77.9672	682.617	78.3675	682.617	77.0305	682.617	77.6171	682.617	76.4225	682.617	77.0959	682.617	76.3748	682.617	76.9539	682.617	76.8267	682.617	77.1593	682.617	77.4438	682.617	77.5619	682.617	77.9773	682.617	78.0134	682.617	78.4123	682.617	78.4256	682.617	78.7516	682.617	78.7481	682.617	78.8841
707.52	82.58	707.52	82.5783	707.52	82.5689	707.52	82.5122	707.52	82.5548	707.52	82.3235	707.52	82.4154	707.52	81.9426	707.52	81.9952	707.52	81.3727	707.52	81.3062	707.52	80.7279	707.52	80.543	707.52	80.107	707.52	79.912	707.52	79.4967	707.52	79.4355	707.52	78.8331	707.52	78.8942	707.52	78.1181	707.52	78.0868	707.52	77.4408	707.52	77.1692	707.52	76.933	707.52	76.6133	707.52	76.8104	707.52	76.6834	707.52	77.1866	707.52	77.2607	707.52	77.7087	707.52	78.0557	707.52	77.9446	707.52	78.6004	707.52	77.9835	707.52	78.5807	707.52	78.2121
732.422	82.1691	732.422	82.0723	732.422	82.2052	732.422	81.9307	732.422	82.0919	732.422	81.6412	732.422	81.8673	732.422	81.2047	732.422	81.6489	732.422	80.7987	732.422	81.4087	732.422	80.4856	732.422	80.9869	732.422	80.0471	732.422	80.3529	732.422	79.3278	732.422	79.6821	732.422	78.5564	732.422	79.0634	732.422	78.0418	732.422	78.3662	732.422	77.7048	732.422	77.6699	732.422	77.4033	732.422	77.3885	732.422	77.2861	732.422	77.537	732.422	77.4816	732.422	77.7048	732.422	77.9252	732.422	77.858	732.422	78.5601	732.422	78.27	732.422	79.1521	732.422	78.8968	732.422	79.3023
757.324	82.9097	757.324	82.7792	757.324	82.7511	757.324	82.4698	757.324	82.4871	757.324	82.2126	757.324	82.3117	757.324	81.9814	757.324	82.1639	757.324	81.621	757.324	81.8905	757.324	81.182	757.324	81.491	757.324	80.6798	757.324	80.9947	757.324	79.8873	757.324	80.2872	757.324	78.8191	757.324	79.3423	757.324	77.9573	757.324	78.464	757.324	77.4838	757.324	77.9746	757.324	77.0672	757.324	77.8088	757.324	76.8219	757.324	77.7092	757.324	77.155	757.324	77.6252	757.324	77.8322	757.324	77.8367	757.324	78.3816	757.324	78.4365	757.324	78.7629	757.324	78.9518	757.324	79.0221
785.156	82.0909	785.156	82.2303	785.156	81.992	785.156	82.1709	785.156	82.0111	785.156	81.8431	785.156	81.9495	785.156	81.3828	785.156	81.5792	785.156	80.9	785.156	80.9183	785.156	80.4826	785.156	80.3253	785.156	80.2076	785.156	80.1064	785.156	79.9151	785.156	80.0334	785.156	79.3517	785.156	79.7301	785.156	78.6388	785.156	79.2844	785.156	78.1755	785.156	79.0961	785.156	78.1087	785.156	79.0575	785.156	78.2625	785.156	78.9982	785.156	78.4535	785.156	79.2017	785.156	78.6224	785.156	79.6222	785.156	78.8737	785.156	79.8679	785.156	79.2681	785.156	79.85	785.156	79.6417
811.523	82.2728	811.523	82.1785	811.523	82.2251	811.523	81.9986	811.523	82.0477	811.523	81.8453	811.523	81.8445	811.523	81.715	811.523	81.6662	811.523	81.4474	811.523	81.3605	811.523	81.0025	811.523	80.748	811.523	80.3946	811.523	79.9214	811.523	79.5753	811.523	79.2456	811.523	78.707	811.523	78.6622	811.523	77.9936	811.523	77.8154	811.523	77.3313	811.523	77.1473	811.523	76.9399	811.523	77.3737	811.523	77.4149	811.523	77.806	811.523	78.2729	811.523	77.9807	811.523	78.5282	811.523	78.4169	811.523	78.4734	811.523	79.2013	811.523	79.0081	811.523	79.8052	811.523	79.7366
840.82	81.5893	840.82	81.3766	840.82	81.6787	840.82	81.231	840.82	81.2752	840.82	80.9798	840.82	80.3454	840.82	80.5564	840.82	79.3803	840.82	80.0159	840.82	78.8893	840.82	79.2795	840.82	78.5281	840.82	78.5799	840.82	77.778	840.82	77.9891	840.82	77.0047	840.82	76.8975	840.82	76.7903	840.82	75.4356	840.82	76.6629	840.82	74.6337	840.82	76.0391	840.82	74.4636	840.82	75.4378	840.82	74.5629	840.82	75.9214	840.82	74.9468	840.82	76.8995	840.82	75.9518	840.82	77.4538	840.82	77.327	840.82	77.4771	840.82	77.8743	840.82	77.3098	840.82	77.5209
870.117	80.7235	870.117	80.5684	870.117	80.9612	870.117	80.54	870.117	81.0728	870.117	80.3161	870.117	80.9274	870.117	79.7938	870.117	80.4309	870.117	79.2685	870.117	79.7207	870.117	78.8873	870.117	79.0553	870.117	78.6182	870.117	78.5316	870.117	78.3361	870.117	78.3195	870.117	77.5693	870.117	78.2954	870.117	76.3762	870.117	78.0263	870.117	75.7126	870.117	77.8651	870.117	75.502	870.117	77.8003	870.117	75.3839	870.117	77.0535	870.117	75.8796	870.117	76.5383	870.117	76.7006	870.117	77.2888	870.117	77.4199	870.117	78.034	870.117	77.9498	870.117	78.2102	870.117	78.1596
900.879	83.2158	900.879	83.0375	900.879	83.2974	900.879	82.8834	900.879	83.2234	900.879	82.813	900.879	82.9879	900.879	82.829	900.879	82.6062	900.879	82.9709	900.879	82.0621	900.879	82.9266	900.879	81.4249	900.879	82.3514	900.879	80.7837	900.879	81.6197	900.879	80.1907	900.879	81.2556	900.879	79.7856	900.879	80.8424	900.879	79.2356	900.879	80.087	900.879	78.325	900.879	79.7633	900.879	78.1154	900.879	80.0434	900.879	78.8688	900.879	80.2912	900.879	79.356	900.879	80.2568	900.879	79.5572	900.879	79.8889	900.879	80.2727	900.879	79.7181	900.879	80.8128	900.879	80.3712
933.105	81.7811	933.105	81.747	933.105	81.6304	933.105	81.7919	933.105	81.3263	933.105	82.2287	933.105	80.8855	933.105	82.4303	933.105	80.5351	933.105	81.8568	933.105	80.4328	933.105	81.1764	933.105	80.2773	933.105	80.9092	933.105	79.9228	933.105	80.0689	933.105	79.3579	933.105	78.2318	933.105	78.6046	933.105	76.5524	933.105	78.3354	933.105	75.1182	933.105	78.292	933.105	72.883	933.105	76.7683	933.105	72.7018	933.105	73.7926	933.105	74.5785	933.105	72.8262	933.105	75.4691	933.105	73.2141	933.105	75.9016	933.105	73.4864	933.105	76.2116	933.105	74.817	933.105	76.0045
965.332	82.806	965.332	82.334	965.332	82.9936	965.332	82.1952	965.332	82.8856	965.332	82.0555	965.332	82.7859	965.332	81.3039	965.332	82.2639	965.332	80.3843	965.332	81.1459	965.332	79.4138	965.332	80.2352	965.332	78.4355	965.332	79.6487	965.332	78.2003	965.332	78.9953	965.332	78.2112	965.332	78.2027	965.332	77.8643	965.332	77.1776	965.332	77.9278	965.332	77.431	965.332	77.622	965.332	78.5963	965.332	76.7487	965.332	79.0616	965.332	77.4521	965.332	79.8889	965.332	78.6063	965.332	81.136	965.332	79.1225	965.332	81.7221	965.332	80.0149	965.332	81.795	965.332	81.211
1,000.49	82.9218	1,000.49	83.2682	1,000.49	82.7129	1,000.49	83.2316	1,000.49	82.767	1,000.49	82.626	1,000.49	82.5194	1,000.49	81.7204	1,000.49	81.8008	1,000.49	81.0915	1,000.49	81.1601	1,000.49	80.9229	1,000.49	80.8053	1,000.49	80.926	1,000.49	80.2502	1,000.49	80.7791	1,000.49	79.3724	1,000.49	79.9952	1,000.49	78.4868	1,000.49	78.6722	1,000.49	77.5096	1,000.49	77.5056	1,000.49	76.9665	1,000.49	76.2891	1,000.49	77.242	1,000.49	75.708	1,000.49	76.5675	1,000.49	76.8276	1,000.49	76.2473	1,000.49	78.2513	1,000.49	77.9108	1,000.49	78.9288	1,000.49	79.5464	1,000.49	79.1255	1,000.49	80.2313	1,000.49	79.7826
1,035.64	83.3144	1,035.64	83.0091	1,035.64	83.3273	1,035.64	82.686	1,035.64	83.2903	1,035.64	82.7524	1,035.64	83.302	1,035.64	82.7807	1,035.64	82.9697	1,035.64	82.185	1,035.64	82.1124	1,035.64	81.06	1,035.64	81.1453	1,035.64	80.1908	1,035.64	80.3422	1,035.64	80.1627	1,035.64	79.9235	1,035.64	79.9481	1,035.64	80.007	1,035.64	79.1682	1,035.64	79.7521	1,035.64	78.6302	1,035.64	78.89	1,035.64	77.9197	1,035.64	78.2325	1,035.64	77.0881	1,035.64	77.74	1,035.64	77.2075	1,035.64	77.9616	1,035.64	77.484	1,035.64	78.6285	1,035.64	78.0391	1,035.64	78.4119	1,035.64	79.4163	1,035.64	78.8698	1,035.64	79.9044
1,072.27	82.715	1,072.27	82.8734	1,072.27	82.2578	1,072.27	82.7062	1,072.27	81.9542	1,072.27	82.1747	1,072.27	81.7044	1,072.27	81.3223	1,072.27	81.3124	1,072.27	80.7173	1,072.27	81.1526	1,072.27	80.1792	1,072.27	81.1275	1,072.27	79.4808	1,072.27	80.9618	1,072.27	78.8363	1,072.27	80.5304	1,072.27	77.7388	1,072.27	79.5848	1,072.27	76.4428	1,072.27	78.3061	1,072.27	75.9603	1,072.27	77.383	1,072.27	74.8719	1,072.27	76.7654	1,072.27	74.2402	1,072.27	75.7172	1,072.27	75.2135	1,072.27	74.7586	1,072.27	75.5697	1,072.27	75.8579	1,072.27	77.3069	1,072.27	77.8421	1,072.27	78.663	1,072.27	78.9465	1,072.27	79.0265
1,108.89	83.1942	1,108.89	83.09	1,108.89	83.3945	1,108.89	82.2826	1,108.89	83.5371	1,108.89	81.5895	1,108.89	83.322	1,108.89	81.1052	1,108.89	83.3902	1,108.89	80.2975	1,108.89	83.2318	1,108.89	80.1726	1,108.89	82.5363	1,108.89	79.5869	1,108.89	82.0863	1,108.89	78.282	1,108.89	81.9248	1,108.89	79.1586	1,108.89	81.3977	1,108.89	79.6011	1,108.89	80.3411	1,108.89	78.6157	1,108.89	79.2646	1,108.89	78.0195	1,108.89	79.2098	1,108.89	76.9375	1,108.89	78.4697	1,108.89	77.3118	1,108.89	78.0793	1,108.89	78.6435	1,108.89	79.1604	1,108.89	78.222	1,108.89	78.9947	1,108.89	78.7652	1,108.89	79.3802	1,108.89	79.9799
1,148.44	84.5424	1,148.44	84.7472	1,148.44	84.4738	1,148.44	84.8571	1,148.44	84.1652	1,148.44	83.9943	1,148.44	83.8345	1,148.44	82.6133	1,148.44	83.4624	1,148.44	81.7811	1,148.44	83.2198	1,148.44	81.3329	1,148.44	83.2297	1,148.44	80.9263	1,148.44	82.4517	1,148.44	79.7575	1,148.44	81.1702	1,148.44	78.3168	1,148.44	80.5399	1,148.44	77.9399	1,148.44	79.0598	1,148.44	77.7367	1,148.44	77.985	1,148.44	76.7962	1,148.44	78.9196	1,148.44	76.1368	1,148.44	79.2433	1,148.44	77.1235	1,148.44	78.8853	1,148.44	78.2849	1,148.44	79.6936	1,148.44	78.4263	1,148.44	80.6874	1,148.44	79.7526	1,148.44	81.4461	1,148.44	81.4691
1,189.45	86.1274	1,189.45	86.3741	1,189.45	86.1291	1,189.45	86.2766	1,189.45	85.6072	1,189.45	85.8085	1,189.45	84.7712	1,189.45	85.4196	1,189.45	84.7789	1,189.45	84.6237	1,189.45	84.9383	1,189.45	84.0775	1,189.45	84.4079	1,189.45	84.2041	1,189.45	83.4735	1,189.45	83.104	1,189.45	82.202	1,189.45	81.3316	1,189.45	80.6191	1,189.45	80.2503	1,189.45	79.3667	1,189.45	78.3471	1,189.45	76.8731	1,189.45	76.9481	1,189.45	75.4863	1,189.45	76.791	1,189.45	76.6421	1,189.45	77.9895	1,189.45	76.3291	1,189.45	79.1529	1,189.45	78.5506	1,189.45	78.874	1,189.45	79.6447	1,189.45	79.3988	1,189.45	80.0689	1,189.45	80.3757
1,230.47	86.4721	1,230.47	86.2607	1,230.47	86.1021	1,230.47	86.2977	1,230.47	84.8757	1,230.47	85.9726	1,230.47	83.9357	1,230.47	84.9836	1,230.47	83.675	1,230.47	84.1898	1,230.47	82.9885	1,230.47	83.5464	1,230.47	82.0512	1,230.47	83.3988	1,230.47	81.267	1,230.47	82.6621	1,230.47	79.1918	1,230.47	80.4808	1,230.47	76.8862	1,230.47	79.5406	1,230.47	75.4095	1,230.47	78.534	1,230.47	72.5052	1,230.47	75.483	1,230.47	70.9378	1,230.47	74.356	1,230.47	73.6716	1,230.47	75.7107	1,230.47	74.4248	1,230.47	78.3263	1,230.47	77.0389	1,230.47	79.0737	1,230.47	79.5428	1,230.47	79.8682	1,230.47	80.4848	1,230.47	80.8106
1,274.41	85.0793	1,274.41	85.3167	1,274.41	85.069	1,274.41	85.2145	1,274.41	84.6005	1,274.41	84.462	1,274.41	84.1429	1,274.41	83.9258	1,274.41	83.9775	1,274.41	83.0507	1,274.41	83.5191	1,274.41	82.1086	1,274.41	82.6497	1,274.41	81.7344	1,274.41	81.7645	1,274.41	81.2827	1,274.41	80.8608	1,274.41	80.3869	1,274.41	79.8686	1,274.41	78.6973	1,274.41	78.9457	1,274.41	76.2196	1,274.41	77.3844	1,274.41	73.0855	1,274.41	75.6378	1,274.41	71.6331	1,274.41	75.5388	1,274.41	72.4116	1,274.41	75.1172	1,274.41	74.4011	1,274.41	76.6652	1,274.41	75.9382	1,274.41	77.4215	1,274.41	76.5082	1,274.41	77.5529	1,274.41	77.904
1,319.82	85.3295	1,319.82	84.7394	1,319.82	84.8321	1,319.82	84.2899	1,319.82	84.6115	1,319.82	84.6989	1,319.82	84.2106	1,319.82	84.4788	1,319.82	82.7335	1,319.82	83.8606	1,319.82	81.7246	1,319.82	82.559	1,319.82	81.1011	1,319.82	81.6798	1,319.82	80.9179	1,319.82	81.7356	1,319.82	81.0526	1,319.82	80.7725	1,319.82	79.5303	1,319.82	79.8533	1,319.82	77.6672	1,319.82	77.9053	1,319.82	76.8201	1,319.82	74.9814	1,319.82	73.9245	1,319.82	73.4903	1,319.82	68.5768	1,319.82	72.244	1,319.82	69.9049	1,319.82	73.5583	1,319.82	68.319	1,319.82	74.8897	1,319.82	71.3439	1,319.82	76.6421	1,319.82	73.4725	1,319.82	75.8514
1,366.7	84.4498	1,366.7	84.254	1,366.7	84.2536	1,366.7	83.9243	1,366.7	84.1558	1,366.7	83.7496	1,366.7	83.3841	1,366.7	83.2286	1,366.7	82.1185	1,366.7	82.6038	1,366.7	81.0019	1,366.7	81.5381	1,366.7	81.0792	1,366.7	81.2947	1,366.7	81.2675	1,366.7	81.151	1,366.7	80.4063	1,366.7	80.5418	1,366.7	80.3843	1,366.7	80.0416	1,366.7	80.0317	1,366.7	78.3242	1,366.7	77.8874	1,366.7	77.2809	1,366.7	74.7827	1,366.7	76.6344	1,366.7	69.9995	1,366.7	75.3077	1,366.7	69.4437	1,366.7	74.4542	1,366.7	69.1111	1,366.7	76.0129	1,366.7	70.8396	1,366.7	76.3044	1,366.7	74.0932	1,366.7	75.3777
1,413.57	84.8952	1,413.57	84.5773	1,413.57	84.9132	1,413.57	84.5721	1,413.57	84.6946	1,413.57	84.1046	1,413.57	84.3532	1,413.57	83.3695	1,413.57	83.1949	1,413.57	82.7352	1,413.57	82.6594	1,413.57	82.1521	1,413.57	82.3259	1,413.57	82.0202	1,413.57	82.0565	1,413.57	81.6473	1,413.57	82.4022	1,413.57	80.2993	1,413.57	81.4367	1,413.57	80.3532	1,413.57	80.6185	1,413.57	79.3766	1,413.57	80.0107	1,413.57	77.8774	1,413.57	79.3261	1,413.57	76.9735	1,413.57	78.1927	1,413.57	74.7347	1,413.57	74.934	1,413.57	71.7082	1,413.57	73.5827	1,413.57	73.7952	1,413.57	74.5487	1,413.57	75.5873	1,413.57	75.7797	1,413.57	75.2408
1,463.38	85.0835	1,463.38	85.0509	1,463.38	84.6424	1,463.38	84.8915	1,463.38	84.6342	1,463.38	84.2929	1,463.38	84.3579	1,463.38	83.5411	1,463.38	83.5147	1,463.38	82.8092	1,463.38	82.5295	1,463.38	81.7253	1,463.38	82.1169	1,463.38	80.6039	1,463.38	81.592	1,463.38	80.5798	1,463.38	81.7432	1,463.38	80.4256	1,463.38	81.4871	1,463.38	80.5646	1,463.38	81.3026	1,463.38	79.4332	1,463.38	80.3701	1,463.38	78.1637	1,463.38	78.8754	1,463.38	78.0991	1,463.38	77.4009	1,463.38	76.0019	1,463.38	76.3648	1,463.38	75.7639	1,463.38	76.3105	1,463.38	76.226	1,463.38	75.3839	1,463.38	76.5527	1,463.38	76.4929	1,463.38	76.6313
1,516.11	86.1012	1,516.11	86.0706	1,516.11	85.703	1,516.11	85.6771	1,516.11	85.2989	1,516.11	85.1186	1,516.11	84.4786	1,516.11	83.749	1,516.11	84.0232	1,516.11	82.3607	1,516.11	83.2085	1,516.11	81.3566	1,516.11	82.1218	1,516.11	79.7047	1,516.11	82.0104	1,516.11	79.1124	1,516.11	81.6737	1,516.11	79.2153	1,516.11	81.3636	1,516.11	78.6872	1,516.11	80.9261	1,516.11	78.1449	1,516.11	80.1263	1,516.11	77.3853	1,516.11	79.1116	1,516.11	76.1896	1,516.11	77.9136	1,516.11	75.266	1,516.11	75.9368	1,516.11	73.9971	1,516.11	76.5038	1,516.11	75.6214	1,516.11	77.8623	1,516.11	77.477	1,516.11	78.3435	1,516.11	77.0755
1,568.85	86.1648	1,568.85	86.1667	1,568.85	86.0407	1,568.85	86.0903	1,568.85	85.6806	1,568.85	85.3368	1,568.85	85.3717	1,568.85	84.3096	1,568.85	84.6873	1,568.85	83.0239	1,568.85	83.5037	1,568.85	81.7675	1,568.85	82.498	1,568.85	80.1788	1,568.85	82.1031	1,568.85	78.6341	1,568.85	81.4661	1,568.85	78.2688	1,568.85	80.4727	1,568.85	78.4727	1,568.85	80.1939	1,568.85	78.3258	1,568.85	79.2441	1,568.85	76.7709	1,568.85	78.6462	1,568.85	76.8307	1,568.85	77.0669	1,568.85	76.1443	1,568.85	76.378	1,568.85	76.2593	1,568.85	76.9314	1,568.85	77.9909	1,568.85	78.5515	1,568.85	78.5378	1,568.85	79.2401	1,568.85	79.3025
1,624.51	86.1541	1,624.51	86.0873	1,624.51	85.7768	1,624.51	85.7629	1,624.51	85.0918	1,624.51	84.9944	1,624.51	84.5624	1,624.51	83.8138	1,624.51	83.388	1,624.51	82.5163	1,624.51	82.451	1,624.51	81.4353	1,624.51	81.7269	1,624.51	79.7482	1,624.51	80.7729	1,624.51	78.2121	1,624.51	79.3842	1,624.51	77.3937	1,624.51	77.8871	1,624.51	76.2142	1,624.51	79.282	1,624.51	77.3484	1,624.51	79.6406	1,624.51	76.7939	1,624.51	78.7801	1,624.51	76.1236	1,624.51	78.7379	1,624.51	77.1585	1,624.51	76.805	1,624.51	73.9407	1,624.51	74.8702	1,624.51	75.6489	1,624.51	76.7393	1,624.51	77.4477	1,624.51	78.1629	1,624.51	78.5485
1,681.64	85.8665	1,681.64	85.6375	1,681.64	85.9584	1,681.64	84.9648	1,681.64	84.6928	1,681.64	84.4116	1,681.64	83.998	1,681.64	83.1818	1,681.64	83.4729	1,681.64	82.1209	1,681.64	82.5406	1,681.64	81.6488	1,681.64	81.0021	1,681.64	79.6811	1,681.64	79.2745	1,681.64	77.8058	1,681.64	78.4901	1,681.64	78.5821	1,681.64	78.9197	1,681.64	78.1265	1,681.64	79.7919	1,681.64	78.7574	1,681.64	78.9832	1,681.64	77.6458	1,681.64	78.296	1,681.64	76.4196	1,681.64	77.9206	1,681.64	76.4702	1,681.64	76.3728	1,681.64	75.6664	1,681.64	74.9274	1,681.64	75.4225	1,681.64	75.7982	1,681.64	77.3162	1,681.64	76.3914	1,681.64	76.7365
1,741.7	87.3746	1,741.7	86.6594	1,741.7	87.3995	1,741.7	84.9108	1,741.7	86.4953	1,741.7	84.226	1,741.7	84.9803	1,741.7	84.4237	1,741.7	83.6845	1,741.7	83.0623	1,741.7	83.1442	1,741.7	81.7459	1,741.7	80.7616	1,741.7	81.1795	1,741.7	77.9436	1,741.7	79.9466	1,741.7	79.0602	1,741.7	79.7802	1,741.7	78.7136	1,741.7	79.3031	1,741.7	79.9591	1,741.7	77.9199	1,741.7	80.4405	1,741.7	75.5201	1,741.7	77.9979	1,741.7	75.268	1,741.7	77.1273	1,741.7	74.009	1,741.7	74.9864	1,741.7	75.9207	1,741.7	73.9038	1,741.7	75.1628	1,741.7	75.4865	1,741.7	77.1073	1,741.7	75.8621	1,741.7	75.7777
1,803.22	87.5422	1,803.22	86.9401	1,803.22	87.5574	1,803.22	86.2436	1,803.22	86.493	1,803.22	85.2545	1,803.22	85.6427	1,803.22	84.23	1,803.22	85.3627	1,803.22	82.9898	1,803.22	83.5495	1,803.22	80.8715	1,803.22	81.8088	1,803.22	80.0119	1,803.22	80.6851	1,803.22	79.1252	1,803.22	80.5412	1,803.22	77.0405	1,803.22	80.0998	1,803.22	77.6178	1,803.22	77.6842	1,803.22	75.3815	1,803.22	77.5378	1,803.22	73.4592	1,803.22	77.2327	1,803.22	74.1407	1,803.22	74.3599	1,803.22	72.6928	1,803.22	74.7056	1,803.22	75.8466	1,803.22	76.8159	1,803.22	75.2851	1,803.22	77.8576	1,803.22	78.0597	1,803.22	78.3539	1,803.22	78.9931
1,866.21	87.9099	1,866.21	87.3043	1,866.21	87.4069	1,866.21	87.2455	1,866.21	86.5935	1,866.21	86.0584	1,866.21	85.8323	1,866.21	84.531	1,866.21	84.3981	1,866.21	83.3441	1,866.21	82.6999	1,866.21	81.6355	1,866.21	81.771	1,866.21	80.8422	1,866.21	80.4782	1,866.21	80.1269	1,866.21	80.4642	1,866.21	79.7565	1,866.21	77.8201	1,866.21	78.5436	1,866.21	78.397	1,866.21	77.1255	1,866.21	79.5028	1,866.21	77.9899	1,866.21	78.4207	1,866.21	75.7993	1,866.21	77.0495	1,866.21	74.0902	1,866.21	76.8312	1,866.21	76.1563	1,866.21	75.9118	1,866.21	77.0655	1,866.21	78.0452	1,866.21	77.3453	1,866.21	78.7048	1,866.21	78.7537
1,932.13	86.6692	1,932.13	86.49	1,932.13	87.2084	1,932.13	86.3986	1,932.13	86.5619	1,932.13	84.8369	1,932.13	85.8147	1,932.13	83.3057	1,932.13	84.0625	1,932.13	81.9237	1,932.13	82.3854	1,932.13	80.0775	1,932.13	80.9232	1,932.13	79.0601	1,932.13	80.3557	1,932.13	78.7326	1,932.13	79.7342	1,932.13	77.7481	1,932.13	77.2907	1,932.13	75.8461	1,932.13	77.2007	1,932.13	75.3783	1,932.13	75.5629	1,932.13	76.521	1,932.13	75.4602	1,932.13	74.9569	1,932.13	74.9133	1,932.13	72.1117	1,932.13	71.4913	1,932.13	71.0991	1,932.13	70.5686	1,932.13	72.4417	1,932.13	75.3185	1,932.13	74.3619	1,932.13	74.309	1,932.13	75.2409
1,999.51	86.6588	1,999.51	86.3568	1,999.51	86.5948	1,999.51	85.5908	1,999.51	86.1834	1,999.51	84.4384	1,999.51	85.2751	1,999.51	82.9685	1,999.51	84.0977	1,999.51	81.361	1,999.51	82.7659	1,999.51	79.8248	1,999.51	81.2854	1,999.51	78.0215	1,999.51	79.407	1,999.51	76.786	1,999.51	78.1429	1,999.51	76.4319	1,999.51	77.2554	1,999.51	74.5837	1,999.51	76.8314	1,999.51	74.0992	1,999.51	75.5272	1,999.51	73.5197	1,999.51	75.235	1,999.51	72.7641	1,999.51	74.1508	1,999.51	71.6586	1,999.51	72.9899	1,999.51	71.515	1,999.51	72.9439	1,999.51	72.4426	1,999.51	73.7481	1,999.51	73.9526	1,999.51	75.0786	1,999.51	75.0563
2,069.82	87.3699	2,069.82	87.0955	2,069.82	87.3244	2,069.82	86.4037	2,069.82	86.9336	2,069.82	85.3294	2,069.82	86.0548	2,069.82	83.8615	2,069.82	85.0595	2,069.82	82.2354	2,069.82	83.5792	2,069.82	80.5393	2,069.82	82.01	2,069.82	78.6117	2,069.82	80.1255	2,069.82	76.9331	2,069.82	78.8503	2,069.82	75.6062	2,069.82	77.6231	2,069.82	75.1297	2,069.82	76.8779	2,069.82	74.6823	2,069.82	76.309	2,069.82	73.9107	2,069.82	75.5443	2,069.82	72.85	2,069.82	74.3398	2,069.82	70.9744	2,069.82	73.6484	2,069.82	70.1094	2,069.82	73.3585	2,069.82	72.1772	2,069.82	74.5439	2,069.82	74.6909	2,069.82	74.9978	2,069.82	75.4202
2,143.07	86.9755	2,143.07	86.7041	2,143.07	86.9343	2,143.07	86.1068	2,143.07	86.3762	2,143.07	85.0649	2,143.07	85.6548	2,143.07	83.7336	2,143.07	84.2658	2,143.07	82.1527	2,143.07	82.9733	2,143.07	80.6246	2,143.07	81.3273	2,143.07	78.7444	2,143.07	79.6803	2,143.07	77.1266	2,143.07	78.0762	2,143.07	76.0214	2,143.07	77.0247	2,143.07	75.3747	2,143.07	76.0996	2,143.07	75.0256	2,143.07	75.0793	2,143.07	74.2524	2,143.07	73.9758	2,143.07	72.5782	2,143.07	72.5354	2,143.07	70.7731	2,143.07	71.6368	2,143.07	69.9744	2,143.07	71.6487	2,143.07	71.8087	2,143.07	73.2404	2,143.07	72.734	2,143.07	74.2408	2,143.07	74.5183
2,219.24	85.2612	2,219.24	84.9302	2,219.24	85.1662	2,219.24	84.207	2,219.24	84.6758	2,219.24	83.0812	2,219.24	83.7674	2,219.24	81.8805	2,219.24	82.3953	2,219.24	80.394	2,219.24	81.0364	2,219.24	79.0244	2,219.24	79.3314	2,219.24	77.3973	2,219.24	77.4838	2,219.24	76.412	2,219.24	75.9984	2,219.24	74.5457	2,219.24	74.9185	2,219.24	73.9721	2,219.24	74.0631	2,219.24	73.6493	2,219.24	73.0539	2,219.24	73.048	2,219.24	72.0333	2,219.24	72.6023	2,219.24	70.7635	2,219.24	70.7551	2,219.24	68.7696	2,219.24	68.4074	2,219.24	66.5769	2,219.24	68.4916	2,219.24	69.6196	2,219.24	71.1762	2,219.24	71.4952	2,219.24	71.6033
2,296.88	84.0146	2,296.88	83.7028	2,296.88	83.812	2,296.88	83.0377	2,296.88	83.2364	2,296.88	81.9469	2,296.88	82.1546	2,296.88	80.406	2,296.88	80.8759	2,296.88	79.1041	2,296.88	79.0843	2,296.88	77.5911	2,296.88	77.1785	2,296.88	76.317	2,296.88	75.165	2,296.88	74.7492	2,296.88	73.7284	2,296.88	73.8176	2,296.88	72.1361	2,296.88	73.2625	2,296.88	71.6912	2,296.88	72.7482	2,296.88	71.7019	2,296.88	72.1462	2,296.88	70.9318	2,296.88	71.1787	2,296.88	69.5143	2,296.88	69.5503	2,296.88	66.8927	2,296.88	67.6382	2,296.88	63.8836	2,296.88	66.6385	2,296.88	65.1074	2,296.88	67.7291	2,296.88	66.9339	2,296.88	68.7567
2,378.91	82.7002	2,378.91	82.6551	2,378.91	82.353	2,378.91	82.2312	2,378.91	81.4075	2,378.91	81.2419	2,378.91	80.3138	2,378.91	80.2151	2,378.91	78.8999	2,378.91	78.8577	2,378.91	77.3736	2,378.91	77.4271	2,378.91	75.7401	2,378.91	76.3102	2,378.91	74.42	2,378.91	74.7817	2,378.91	72.9367	2,378.91	73.9018	2,378.91	71.7424	2,378.91	73.5215	2,378.91	70.9741	2,378.91	73.248	2,378.91	70.8433	2,378.91	72.981	2,378.91	70.8696	2,378.91	72.2061	2,378.91	70.7265	2,378.91	70.5192	2,378.91	69.2493	2,378.91	68.619	2,378.91	67.3119	2,378.91	67.3706	2,378.91	65.1599	2,378.91	67.4703	2,378.91	66.4451	2,378.91	67.8293
2,462.4	81.4787	2,462.4	81.0863	2,462.4	81.1942	2,462.4	80.4897	2,462.4	80.6075	2,462.4	79.6747	2,462.4	79.8299	2,462.4	78.525	2,462.4	78.565	2,462.4	77.3333	2,462.4	77.3109	2,462.4	75.4117	2,462.4	75.9094	2,462.4	74.5645	2,462.4	74.5385	2,462.4	73.3612	2,462.4	73.0285	2,462.4	72.6929	2,462.4	72.0907	2,462.4	72.2539	2,462.4	71.4469	2,462.4	71.6987	2,462.4	71.3274	2,462.4	71.883	2,462.4	71.2576	2,462.4	71.2776	2,462.4	70.9407	2,462.4	69.7604	2,462.4	69.5232	2,462.4	68.0175	2,462.4	67.5159	2,462.4	67.6091	2,462.4	66.4069	2,462.4	67.6945	2,462.4	67.0411	2,462.4	66.8153
2,548.83	81.1214	2,548.83	80.5561	2,548.83	81.0409	2,548.83	80.0501	2,548.83	80.3198	2,548.83	78.9431	2,548.83	79.6392	2,548.83	78.1234	2,548.83	78.217	2,548.83	76.7701	2,548.83	77.0995	2,548.83	75.6784	2,548.83	76.0496	2,548.83	74.2436	2,548.83	74.5484	2,548.83	73.6856	2,548.83	73.0794	2,548.83	72.5177	2,548.83	72.1554	2,548.83	71.8176	2,548.83	71.4208	2,548.83	71.2414	2,548.83	71.6634	2,548.83	71.522	2,548.83	71.6262	2,548.83	70.8622	2,548.83	71.7175	2,548.83	69.7216	2,548.83	70.4638	2,548.83	67.8993	2,548.83	68.3002	2,548.83	64.3413	2,548.83	67.1347	2,548.83	66.8012	2,548.83	66.9653	2,548.83	66.8476
2,639.65	81.1709	2,639.65	81.2141	2,639.65	81.0407	2,639.65	80.4168	2,639.65	80.5527	2,639.65	79.5328	2,639.65	79.5007	2,639.65	78.3568	2,639.65	78.5235	2,639.65	77.5996	2,639.65	77.4035	2,639.65	76.9693	2,639.65	76.2843	2,639.65	75.8486	2,639.65	74.76	2,639.65	74.4449	2,639.65	73.8244	2,639.65	73.0657	2,639.65	72.3129	2,639.65	71.9303	2,639.65	71.7376	2,639.65	71.1496	2,639.65	71.297	2,639.65	72.005	2,639.65	71.4083	2,639.65	71.9116	2,639.65	71.5441	2,639.65	71.2482	2,639.65	70.3388	2,639.65	68.7282	2,639.65	68.0281	2,639.65	67.2374	2,639.65	65.4975	2,639.65	66.24	2,639.65	65.677	2,639.65	66.6528
2,731.93	80.5441	2,731.93	80.7378	2,731.93	80.475	2,731.93	79.8164	2,731.93	79.8539	2,731.93	79.3648	2,731.93	78.7913	2,731.93	78.0457	2,731.93	77.6669	2,731.93	77.3279	2,731.93	76.7587	2,731.93	76.4561	2,731.93	75.9494	2,731.93	75.6104	2,731.93	74.8241	2,731.93	73.8013	2,731.93	73.4197	2,731.93	73.5247	2,731.93	72.0642	2,731.93	71.4019	2,731.93	70.7542	2,731.93	71.4615	2,731.93	70.5467	2,731.93	71.006	2,731.93	69.4544	2,731.93	71.2	2,731.93	71.1345	2,731.93	70.921	2,731.93	69.9671	2,731.93	69.4713	2,731.93	68.2329	2,731.93	66.8612	2,731.93	67.3097	2,731.93	66.3081	2,731.93	65.7499	2,731.93	66.9243
2,828.61	81.0148	2,828.61	80.8712	2,828.61	80.6433	2,828.61	80.1412	2,828.61	80.3474	2,828.61	79.5611	2,828.61	79.1899	2,828.61	78.3515	2,828.61	78.2649	2,828.61	77.235	2,828.61	77.0661	2,828.61	76.3188	2,828.61	76.4948	2,828.61	75.6939	2,828.61	75.6734	2,828.61	73.8947	2,828.61	74.3608	2,828.61	72.5633	2,828.61	73.0894	2,828.61	72.173	2,828.61	72.2557	2,828.61	72.028	2,828.61	70.8407	2,828.61	70.6744	2,828.61	70.5339	2,828.61	70.6123	2,828.61	70.8355	2,828.61	70.3511	2,828.61	70.6905	2,828.61	68.8539	2,828.61	69.3527	2,828.61	68.136	2,828.61	67.9544	2,828.61	65.9108	2,828.61	67.1565	2,828.61	67.4549
2,928.22	81.3607	2,928.22	80.9389	2,928.22	80.9115	2,928.22	80.6536	2,928.22	80.1854	2,928.22	79.7126	2,928.22	79.287	2,928.22	78.8545	2,928.22	78.5018	2,928.22	77.7376	2,928.22	77.5726	2,928.22	76.4781	2,928.22	76.3746	2,928.22	75.8095	2,928.22	75.7977	2,928.22	74.5112	2,928.22	75.0402	2,928.22	73.8274	2,928.22	74.3198	2,928.22	73.184	2,928.22	72.4692	2,928.22	72.003	2,928.22	71.0652	2,928.22	71.5083	2,928.22	71.7485	2,928.22	71.436	2,928.22	71.2019	2,928.22	70.8825	2,928.22	72.2042	2,928.22	70.3293	2,928.22	71.1758	2,928.22	68.1169	2,928.22	68.8531	2,928.22	67.6124	2,928.22	67.1376	2,928.22	66.082
3,030.76	80.6656	3,030.76	80.3625	3,030.76	80.123	3,030.76	80.0525	3,030.76	79.7593	3,030.76	79.1918	3,030.76	79.1268	3,030.76	78.636	3,030.76	78.1178	3,030.76	77.2153	3,030.76	77.0323	3,030.76	76.1612	3,030.76	76.3123	3,030.76	75.0314	3,030.76	75.4581	3,030.76	74.9141	3,030.76	74.763	3,030.76	73.5557	3,030.76	73.2488	3,030.76	73.1028	3,030.76	73.017	3,030.76	72.2786	3,030.76	72.2158	3,030.76	71.29	3,030.76	71.4247	3,030.76	70.74	3,030.76	71.077	3,030.76	71.1903	3,030.76	71.2383	3,030.76	70.6119	3,030.76	70.6893	3,030.76	69.7183	3,030.76	69.8437	3,030.76	68.6624	3,030.76	67.7348	3,030.76	67.2998
3,137.7	81.4545	3,137.7	80.8691	3,137.7	81.805	3,137.7	81.0293	3,137.7	80.3625	3,137.7	80.124	3,137.7	80.2569	3,137.7	78.9677	3,137.7	79	3,137.7	78.4999	3,137.7	78.3262	3,137.7	76.5329	3,137.7	76.9979	3,137.7	75.2481	3,137.7	76.3996	3,137.7	75.7657	3,137.7	75.6518	3,137.7	73.823	3,137.7	75.0531	3,137.7	73.3668	3,137.7	73.3985	3,137.7	72.4373	3,137.7	72.3571	3,137.7	72.0676	3,137.7	72.0458	3,137.7	71.1237	3,137.7	71.0134	3,137.7	71.7224	3,137.7	71.7182	3,137.7	72.6046	3,137.7	72.2659	3,137.7	70.7446	3,137.7	71.3626	3,137.7	68.466	3,137.7	69.9363	3,137.7	67.3882
3,249.02	81.1714	3,249.02	81.0244	3,249.02	81.6681	3,249.02	80.6329	3,249.02	80.7551	3,249.02	80.1651	3,249.02	80.5055	3,249.02	79.0885	3,249.02	79.9424	3,249.02	79.7765	3,249.02	78.6697	3,249.02	77.812	3,249.02	77.142	3,249.02	77.2077	3,249.02	75.964	3,249.02	76.2543	3,249.02	75.0706	3,249.02	74.4502	3,249.02	74.7648	3,249.02	73.581	3,249.02	73.5753	3,249.02	72.7088	3,249.02	72.3567	3,249.02	72.6149	3,249.02	71.3095	3,249.02	72.3494	3,249.02	70.5443	3,249.02	71.3213	3,249.02	71.0368	3,249.02	71.0449	3,249.02	71.3387	3,249.02	70.5022	3,249.02	71.2187	3,249.02	69.3368	3,249.02	69.6579	3,249.02	68.9074
3,363.28	81.742	3,363.28	82.0006	3,363.28	81.5988	3,363.28	81.5393	3,363.28	81.5772	3,363.28	80.9941	3,363.28	80.8725	3,363.28	80.4599	3,363.28	80.2675	3,363.28	79.237	3,363.28	78.8073	3,363.28	78.462	3,363.28	77.5932	3,363.28	77.7109	3,363.28	76.5075	3,363.28	75.3877	3,363.28	74.8346	3,363.28	74.5293	3,363.28	74.6912	3,363.28	73.4515	3,363.28	73.6326	3,363.28	72.5368	3,363.28	73.1321	3,363.28	71.3751	3,363.28	70.9145	3,363.28	70.3204	3,363.28	71.7926	3,363.28	70.1019	3,363.28	69.6131	3,363.28	70.5029	3,363.28	69.6398	3,363.28	70.1969	3,363.28	68.7934	3,363.28	69.6459	3,363.28	68.0821	3,363.28	70.5518
3,481.93	82.04	3,481.93	82.4095	3,481.93	81.7084	3,481.93	81.7878	3,481.93	82.4425	3,481.93	81.8289	3,481.93	81.5304	3,481.93	81.3162	3,481.93	81.4498	3,481.93	80.1732	3,481.93	79.9126	3,481.93	78.7617	3,481.93	78.5641	3,481.93	77.8793	3,481.93	76.7821	3,481.93	75.9883	3,481.93	75.6256	3,481.93	75.2846	3,481.93	74.8628	3,481.93	73.5926	3,481.93	73.9544	3,481.93	71.8721	3,481.93	73.2667	3,481.93	72.8237	3,481.93	72.7962	3,481.93	72.2149	3,481.93	71.7662	3,481.93	70.0355	3,481.93	70.502	3,481.93	69.5379	3,481.93	70.288	3,481.93	69.2293	3,481.93	69.1181	3,481.93	68.9905	3,481.93	69.3887	3,481.93	69.4519
3,604.98	82.553	3,604.98	83.1553	3,604.98	81.8865	3,604.98	82.7893	3,604.98	82.6981	3,604.98	82.6304	3,604.98	81.9347	3,604.98	82.3355	3,604.98	81.1672	3,604.98	79.493	3,604.98	79.8924	3,604.98	79.4494	3,604.98	79.2709	3,604.98	78.0381	3,604.98	77.3337	3,604.98	76.4578	3,604.98	76.232	3,604.98	75.5825	3,604.98	74.276	3,604.98	74.2028	3,604.98	73.7669	3,604.98	72.2808	3,604.98	72.767	3,604.98	72.9832	3,604.98	72.9988	3,604.98	72.8402	3,604.98	70.9655	3,604.98	71.1792	3,604.98	70.7884	3,604.98	69.4569	3,604.98	69.6136	3,604.98	69.3247	3,604.98	68.1153	3,604.98	69.4405	3,604.98	69.512	3,604.98	68.8911
3,732.42	83.7155	3,732.42	83.5195	3,732.42	83.4719	3,732.42	83.5263	3,732.42	83.2311	3,732.42	82.9467	3,732.42	82.6418	3,732.42	81.9743	3,732.42	81.6992	3,732.42	79.6601	3,732.42	80.5564	3,732.42	78.7421	3,732.42	79.1423	3,732.42	77.0595	3,732.42	78.1852	3,732.42	75.2109	3,732.42	75.7426	3,732.42	75.094	3,732.42	75.2581	3,732.42	74.0968	3,732.42	73.9828	3,732.42	72.7855	3,732.42	73.0781	3,732.42	71.1618	3,732.42	72.1803	3,732.42	71.2687	3,732.42	72.4269	3,732.42	71.4801	3,732.42	72.2034	3,732.42	68.4007	3,732.42	70.3354	3,732.42	68.5591	3,732.42	69.4014	3,732.42	68.5292	3,732.42	67.4984	3,732.42	67.7985
3,864.26	84.6126	3,864.26	84.4641	3,864.26	84.7063	3,864.26	84.3215	3,864.26	83.7492	3,864.26	83.944	3,864.26	83.6246	3,864.26	82.9149	3,864.26	82.406	3,864.26	81.1754	3,864.26	81.4869	3,864.26	79.4081	3,864.26	80.107	3,864.26	76.9589	3,864.26	78.0143	3,864.26	76.57	3,864.26	75.8119	3,864.26	75.2841	3,864.26	75.4622	3,864.26	75.272	3,864.26	74.6813	3,864.26	72.6518	3,864.26	73.5517	3,864.26	71.5996	3,864.26	71.5049	3,864.26	70.0636	3,864.26	71.1872	3,864.26	71.5337	3,864.26	70.6414	3,864.26	70.8654	3,864.26	69.9543	3,864.26	70.2626	3,864.26	70.4251	3,864.26	68.9016	3,864.26	68.0858	3,864.26	67.7839
4,000.49	84.7127	4,000.49	84.7163	4,000.49	85.4447	4,000.49	84.2867	4,000.49	84.0313	4,000.49	84.16	4,000.49	83.6894	4,000.49	82.0806	4,000.49	82.5213	4,000.49	81.338	4,000.49	81.7693	4,000.49	78.6508	4,000.49	79.9913	4,000.49	77.4772	4,000.49	78.6166	4,000.49	75.8455	4,000.49	75.3749	4,000.49	74.5525	4,000.49	75.0648	4,000.49	74.8732	4,000.49	73.7018	4,000.49	73.5356	4,000.49	72.0753	4,000.49	71.7274	4,000.49	71.55	4,000.49	71.2018	4,000.49	70.6334	4,000.49	70.7381	4,000.49	68.8484	4,000.49	69.5694	4,000.49	69.6134	4,000.49	69.7094	4,000.49	69.6982	4,000.49	69.4027	4,000.49	68.1343	4,000.49	69.5196
4,141.11	85.4406	4,141.11	84.6603	4,141.11	85.7095	4,141.11	84.7023	4,141.11	84.6404	4,141.11	84.101	4,141.11	84.1352	4,141.11	82.2393	4,141.11	83.3167	4,141.11	82.1924	4,141.11	81.5638	4,141.11	79.8848	4,141.11	80.3289	4,141.11	78.4625	4,141.11	78.2231	4,141.11	75.9881	4,141.11	75.3621	4,141.11	75.5026	4,141.11	74.6615	4,141.11	74.3792	4,141.11	73.5361	4,141.11	74.1003	4,141.11	71.9305	4,141.11	71.8292	4,141.11	72.1456	4,141.11	70.2175	4,141.11	69.0978	4,141.11	67.3407	4,141.11	68.205	4,141.11	68.8572	4,141.11	69.3437	4,141.11	67.6532	4,141.11	69.612	4,141.11	67.895	4,141.11	66.7958	4,141.11	68.292
4,287.6	85.5032	4,287.6	84.9484	4,287.6	85.1441	4,287.6	84.9169	4,287.6	85.3395	4,287.6	83.4168	4,287.6	84.4901	4,287.6	82.7844	4,287.6	83.9691	4,287.6	81.4712	4,287.6	82.3289	4,287.6	80.2267	4,287.6	79.7638	4,287.6	78.4566	4,287.6	77.4766	4,287.6	74.9447	4,287.6	76.6211	4,287.6	74.314	4,287.6	74.7649	4,287.6	73.5636	4,287.6	74.3299	4,287.6	74.6438	4,287.6	74.4965	4,287.6	71.9481	4,287.6	72.2572	4,287.6	68.1917	4,287.6	72.8007	4,287.6	68.5773	4,287.6	71.5599	4,287.6	67.8914	4,287.6	69.0842	4,287.6	66.5352	4,287.6	68.3371	4,287.6	64.5173	4,287.6	65.4031	4,287.6	64.6369
4,438.48	84.6768	4,438.48	85.6803	4,438.48	84.101	4,438.48	84.2078	4,438.48	85.2332	4,438.48	83.852	4,438.48	84.5717	4,438.48	84.0947	4,438.48	83.0022	4,438.48	81.4616	4,438.48	81.6172	4,438.48	79.9495	4,438.48	79.0538	4,438.48	77.9607	4,438.48	76.651	4,438.48	75.9472	4,438.48	76.1853	4,438.48	74.3928	4,438.48	73.6589	4,438.48	73.9843	4,438.48	72.6106	4,438.48	72.714	4,438.48	72.8811	4,438.48	73.223	4,438.48	71.6556	4,438.48	69.812	4,438.48	72.0505	4,438.48	71.2766	4,438.48	68.241	4,438.48	68.4515	4,438.48	68.7309	4,438.48	65.8554	4,438.48	67.1352	4,438.48	64.522	4,438.48	67.3388	4,438.48	64.2309
4,595.21	84.8395	4,595.21	85.5712	4,595.21	85.5409	4,595.21	85.1555	4,595.21	85.4612	4,595.21	84.9578	4,595.21	85.6434	4,595.21	84.5727	4,595.21	83.4817	4,595.21	82.1889	4,595.21	80.2198	4,595.21	79.344	4,595.21	80.626	4,595.21	76.9477	4,595.21	79.3416	4,595.21	77.2859	4,595.21	75.5233	4,595.21	73.4536	4,595.21	75.1528	4,595.21	72.6108	4,595.21	74.6244	4,595.21	72.5288	4,595.21	74.7227	4,595.21	72.9947	4,595.21	73.9004	4,595.21	72.5384	4,595.21	71.2385	4,595.21	71.382	4,595.21	69.5076	4,595.21	68.6035	4,595.21	65.8035	4,595.21	64.4326	4,595.21	67.4021	4,595.21	62.0858	4,595.21	65.5697	4,595.21	64.3672
4,756.35	84.9842	4,756.35	84.1921	4,756.35	84.8718	4,756.35	86.0422	4,756.35	84.0756	4,756.35	84.3147	4,756.35	83.6096	4,756.35	82.3463	4,756.35	82.6105	4,756.35	81.1006	4,756.35	80.8613	4,756.35	79.5769	4,756.35	79.2889	4,756.35	78.7159	4,756.35	78.6643	4,756.35	76.936	4,756.35	77.4556	4,756.35	73.576	4,756.35	75.0738	4,756.35	71.6124	4,756.35	72.1038	4,756.35	74.9397	4,756.35	73.153	4,756.35	74.1484	4,756.35	73.525	4,756.35	72.9173	4,756.35	71.7271	4,756.35	71.4095	4,756.35	70.463	4,756.35	65.0996	4,756.35	65.9144	4,756.35	67.2135	4,756.35	65.3416	4,756.35	62.2201	4,756.35	62.4216	4,756.35	63.1034
4,924.8	85.3297	4,924.8	85.491	4,924.8	84.4599	4,924.8	85.153	4,924.8	85.2681	4,924.8	84.3031	4,924.8	83.5979	4,924.8	82.3682	4,924.8	84.0021	4,924.8	81.1292	4,924.8	83.2688	4,924.8	80.8121	4,924.8	80.8965	4,924.8	79.017	4,924.8	77.5795	4,924.8	76.4118	4,924.8	77.8059	4,924.8	76.6843	4,924.8	75.7622	4,924.8	74.7147	4,924.8	72.9895	4,924.8	72.2641	4,924.8	73.9369	4,924.8	72.8273	4,924.8	71.1768	4,924.8	70.1994	4,924.8	73.243	4,924.8	69.7951	4,924.8	70.7803	4,924.8	68.9074	4,924.8	68.4952	4,924.8	67.3298	4,924.8	63.2946	4,924.8	66.4479	4,924.8	65.1573	4,924.8	66.1469
5,097.66	83.3285	5,097.66	84.677	5,097.66	84.2315	5,097.66	81.8617	5,097.66	84.352	5,097.66	82.9909	5,097.66	83.2762	5,097.66	82.553	5,097.66	82.9035	5,097.66	81.3958	5,097.66	81.8473	5,097.66	80.1255	5,097.66	80.1038	5,097.66	77.5479	5,097.66	77.2527	5,097.66	75.499	5,097.66	75.0834	5,097.66	75.2756	5,097.66	75.9818	5,097.66	76.9657	5,097.66	71.6289	5,097.66	72.8506	5,097.66	69.8848	5,097.66	69.5198	5,097.66	72.2774	5,097.66	74.1991	5,097.66	70.9588	5,097.66	68.1092	5,097.66	68.1289	5,097.66	71.0681	5,097.66	66.3503	5,097.66	62.9225	5,097.66	63.9441	5,097.66	65.9812	5,097.66	65.7137	5,097.66	58.8316
5,277.83	85.2982	5,277.83	84.4178	5,277.83	86.5339	5,277.83	85.0225	5,277.83	84.2983	5,277.83	84.1202	5,277.83	84.6776	5,277.83	84.5928	5,277.83	82.309	5,277.83	83.2141	5,277.83	80.7912	5,277.83	82.0974	5,277.83	79.9957	5,277.83	78.1587	5,277.83	79.1774	5,277.83	79.0118	5,277.83	76.9004	5,277.83	75.2956	5,277.83	74.4338	5,277.83	76.5327	5,277.83	74.2262	5,277.83	72.9661	5,277.83	71.6726	5,277.83	72.5695	5,277.83	71.269	5,277.83	74.2576	5,277.83	71.2162	5,277.83	73.0901	5,277.83	71.0514	5,277.83	67.7488	5,277.83	69.1183	5,277.83	69.0758	5,277.83	67.5587	5,277.83	61.3817	5,277.83	63.0496	5,277.83	64.5122
5,463.87	84.6609	5,463.87	83.8232	5,463.87	84.6565	5,463.87	85.2997	5,463.87	84.1951	5,463.87	83.7868	5,463.87	83.6645	5,463.87	83.4765	5,463.87	82.6262	5,463.87	81.9947	5,463.87	81.6367	5,463.87	80.1445	5,463.87	79.8683	5,463.87	78.3884	5,463.87	77.4139	5,463.87	78.2679	5,463.87	78.6849	5,463.87	74.815	5,463.87	73.9587	5,463.87	69.2876	5,463.87	73.9498	5,463.87	71.2258	5,463.87	72.413	5,463.87	69.8668	5,463.87	70.7653	5,463.87	70.5454	5,463.87	70.1718	5,463.87	69.5299	5,463.87	70.793	5,463.87	67.4729	5,463.87	71.0931	5,463.87	67.4348	5,463.87	66.76	5,463.87	61.0528	5,463.87	62.2397	5,463.87	64.4961
5,657.23	84.1519	5,657.23	84.2038	5,657.23	82.9831	5,657.23	83.9123	5,657.23	83.9192	5,657.23	84.2075	5,657.23	82.294	5,657.23	82.6481	5,657.23	83.0717	5,657.23	81.6567	5,657.23	82.6418	5,657.23	80.3015	5,657.23	80.8336	5,657.23	80.8432	5,657.23	79.5552	5,657.23	77.5519	5,657.23	77.2339	5,657.23	77.1663	5,657.23	74.2045	5,657.23	73.4323	5,657.23	73.3145	5,657.23	71.5311	5,657.23	73.2953	5,657.23	72.2288	5,657.23	72.1367	5,657.23	69.6443	5,657.23	69.7405	5,657.23	70.605	5,657.23	70.2655	5,657.23	71.6638	5,657.23	69.9444	5,657.23	67.4923	5,657.23	67.3388	5,657.23	64.8641	5,657.23	63.2789	5,657.23	61.6175
5,856.45	83.7176	5,856.45	83.9236	5,856.45	83.6305	5,856.45	83.3777	5,856.45	82.8105	5,856.45	83.128	5,856.45	83.575	5,856.45	82.1109	5,856.45	82.2574	5,856.45	81.2002	5,856.45	80.9967	5,856.45	79.9253	5,856.45	80.9062	5,856.45	79.3068	5,856.45	79.7255	5,856.45	75.3936	5,856.45	72.1521	5,856.45	74.5295	5,856.45	74.4063	5,856.45	75.6689	5,856.45	72.2709	5,856.45	72.0429	5,856.45	70.4404	5,856.45	72.7161	5,856.45	69.7713	5,856.45	67.9354	5,856.45	69.9941	5,856.45	68.8504	5,856.45	67.985	5,856.45	68.6598	5,856.45	66.2803	5,856.45	67.483	5,856.45	68.7184	5,856.45	67.2039	5,856.45	64.3799	5,856.45	64.6387
6,062.99	83.965	6,062.99	84.0212	6,062.99	84.0539	6,062.99	83.9457	6,062.99	83.1799	6,062.99	82.9048	6,062.99	83.4266	6,062.99	83.0184	6,062.99	82.5676	6,062.99	80.5658	6,062.99	80.3439	6,062.99	78.6385	6,062.99	79.8251	6,062.99	73.4136	6,062.99	75.9247	6,062.99	74.6687	6,062.99	74.7751	6,062.99	70.4123	6,062.99	74.2016	6,062.99	73.0257	6,062.99	69.7991	6,062.99	72.6847	6,062.99	70.7392	6,062.99	70.671	6,062.99	68.2612	6,062.99	70.4021	6,062.99	70.4607	6,062.99	68.7909	6,062.99	69.306	6,062.99	68.405	6,062.99	69.4042	6,062.99	68.3163	6,062.99	68.5041	6,062.99	68.0566	6,062.99	68.309	6,062.99	65.7424
6,276.86	83.6756	6,276.86	83.8612	6,276.86	83.2088	6,276.86	83.4846	6,276.86	84.1614	6,276.86	83.4877	6,276.86	82.4242	6,276.86	83.0666	6,276.86	82.9156	6,276.86	80.8111	6,276.86	81.6628	6,276.86	79.4417	6,276.86	78.5722	6,276.86	77.5176	6,276.86	76.8731	6,276.86	75.3737	6,276.86	75.564	6,276.86	74.3475	6,276.86	72.9693	6,276.86	70.7711	6,276.86	72.0086	6,276.86	71.8858	6,276.86	70.9769	6,276.86	70.3856	6,276.86	68.7354	6,276.86	68.825	6,276.86	69.5735	6,276.86	69.7541	6,276.86	69.7096	6,276.86	68.4115	6,276.86	67.8661	6,276.86	68.4557	6,276.86	67.6025	6,276.86	66.2491	6,276.86	67.2451	6,276.86	66.5263
6,498.05	83.2066	6,498.05	82.9029	6,498.05	83.3842	6,498.05	82.7645	6,498.05	83.0981	6,498.05	83.3128	6,498.05	82.5355	6,498.05	82.4381	6,498.05	81.2624	6,498.05	81.3523	6,498.05	80.4005	6,498.05	79.6912	6,498.05	78.591	6,498.05	79.9442	6,498.05	77.7096	6,498.05	75.8025	6,498.05	73.7381	6,498.05	74.7293	6,498.05	73.4032	6,498.05	73.0625	6,498.05	70.9597	6,498.05	71.4825	6,498.05	70.4566	6,498.05	69.6592	6,498.05	70.0846	6,498.05	69.084	6,498.05	70.4973	6,498.05	68.0851	6,498.05	66.688	6,498.05	66.2896	6,498.05	66.5422	6,498.05	68.7499	6,498.05	64.5482	6,498.05	66.9055	6,498.05	64.2859	6,498.05	66.5139
6,726.56	82.8328	6,726.56	83.1227	6,726.56	83.6464	6,726.56	83.5232	6,726.56	82.2935	6,726.56	83.8509	6,726.56	83.5869	6,726.56	82.9858	6,726.56	81.9751	6,726.56	81.7964	6,726.56	80.1992	6,726.56	80.2437	6,726.56	78.6114	6,726.56	78.6146	6,726.56	75.2606	6,726.56	76.8758	6,726.56	75.6665	6,726.56	74.4164	6,726.56	73.4241	6,726.56	74.2912	6,726.56	72.9822	6,726.56	73.3454	6,726.56	71.0446	6,726.56	71.3096	6,726.56	70.8256	6,726.56	72.4714	6,726.56	68.1562	6,726.56	68.1356	6,726.56	67.155	6,726.56	67.9953	6,726.56	67.7369	6,726.56	65.719	6,726.56	64.9232	6,726.56	64.7455	6,726.56	64.5963	6,726.56	63.4822
6,963.87	82.9701	6,963.87	83.25	6,963.87	82.5631	6,963.87	83.6133	6,963.87	83.1656	6,963.87	83.0864	6,963.87	82.8468	6,963.87	83.2318	6,963.87	83.5954	6,963.87	80.1692	6,963.87	82.1423	6,963.87	81.1511	6,963.87	79.7095	6,963.87	77.4108	6,963.87	77.4493	6,963.87	76.8752	6,963.87	75.4228	6,963.87	75.8275	6,963.87	75.0718	6,963.87	73.1461	6,963.87	74.0663	6,963.87	72.8838	6,963.87	73.0394	6,963.87	71.6064	6,963.87	70.4644	6,963.87	71.4136	6,963.87	70.5524	6,963.87	69.8212	6,963.87	68.4273	6,963.87	67.7806	6,963.87	68.5568	6,963.87	62.6802	6,963.87	61.6894	6,963.87	60.7419	6,963.87	58.7075	6,963.87	53.2286
7,209.96	82.411	7,209.96	83.0076	7,209.96	82.4964	7,209.96	82.8224	7,209.96	82.8343	7,209.96	82.6995	7,209.96	83.2781	7,209.96	82.2345	7,209.96	82.5875	7,209.96	81.9316	7,209.96	82.205	7,209.96	80.6911	7,209.96	80.3432	7,209.96	78.6699	7,209.96	78.4159	7,209.96	76.2405	7,209.96	77.002	7,209.96	75.2085	7,209.96	74.7349	7,209.96	73.6754	7,209.96	74.163	7,209.96	72.6413	7,209.96	73.0448	7,209.96	71.6877	7,209.96	72.2793	7,209.96	69.4745	7,209.96	70.8049	7,209.96	68.1575	7,209.96	66.4058	7,209.96	64.7789	7,209.96	63.3644	7,209.96	61.7918	7,209.96	63.13	7,209.96	55.1714	7,209.96	58.3761	7,209.96	60.4391
7,464.84	82.5842	7,464.84	83.3356	7,464.84	82.9479	7,464.84	83.1385	7,464.84	82.8917	7,464.84	83.6103	7,464.84	83.9976	7,464.84	83.112	7,464.84	82.918	7,464.84	83.3208	7,464.84	81.9433	7,464.84	80.311	7,464.84	80.776	7,464.84	78.2291	7,464.84	77.9869	7,464.84	77.5325	7,464.84	75.9966	7,464.84	74.3436	7,464.84	74.3979	7,464.84	73.5457	7,464.84	71.9373	7,464.84	72.35	7,464.84	72.7223	7,464.84	71.4677	7,464.84	71.5711	7,464.84	70.3275	7,464.84	71.2627	7,464.84	67.4668	7,464.84	67.931	7,464.84	65.7708	7,464.84	67.0751	7,464.84	61.4189	7,464.84	63.3856	7,464.84	59.8134	7,464.84	64.6696	7,464.84	62.8363
7,727.05	83.6734	7,727.05	83.4578	7,727.05	83.5274	7,727.05	83.5414	7,727.05	83.8273	7,727.05	83.7999	7,727.05	84.0213	7,727.05	83.7579	7,727.05	83.9486	7,727.05	82.2465	7,727.05	82.9015	7,727.05	81.7836	7,727.05	81.2579	7,727.05	78.7455	7,727.05	79.1454	7,727.05	76.4531	7,727.05	76.3828	7,727.05	72.9075	7,727.05	74.7097	7,727.05	72.1855	7,727.05	72.0913	7,727.05	70.1659	7,727.05	72.3492	7,727.05	69.0607	7,727.05	70.8348	7,727.05	70.3262	7,727.05	70.9873	7,727.05	67.6457	7,727.05	68.2316	7,727.05	64.686	7,727.05	66.5829	7,727.05	62.098	7,727.05	63.2866	7,727.05	64.6189	7,727.05	64.506	7,727.05	64.099
7,999.51	84.2275	7,999.51	83.6095	7,999.51	83.7666	7,999.51	83.5586	7,999.51	83.9287	7,999.51	84.0628	7,999.51	83.251	7,999.51	83.852	7,999.51	84.1797	7,999.51	82.539	7,999.51	83.8781	7,999.51	81.4153	7,999.51	82.0316	7,999.51	78.3072	7,999.51	80.855	7,999.51	75.6836	7,999.51	76.4814	7,999.51	72.4382	7,999.51	75.0363	7,999.51	70.5511	7,999.51	72.9239	7,999.51	69.4917	7,999.51	72.0397	7,999.51	65.7347	7,999.51	68.5279	7,999.51	67.3053	7,999.51	70.1122	7,999.51	68.1777	7,999.51	67.243	7,999.51	65.4346	7,999.51	65.5047	7,999.51	62.9857	7,999.51	60.9372	7,999.51	65.0751	7,999.51	62.0331	7,999.51	59.364
8,282.23	83.899	8,282.23	83.4119	8,282.23	84.4665	8,282.23	83.6681	8,282.23	83.7764	8,282.23	83.5022	8,282.23	83.7986	8,282.23	83.2566	8,282.23	83.5301	8,282.23	82.3931	8,282.23	83.14	8,282.23	79.6225	8,282.23	81.6044	8,282.23	77.3816	8,282.23	79.9991	8,282.23	75.5045	8,282.23	77.2357	8,282.23	74.624	8,282.23	74.3978	8,282.23	71.5753	8,282.23	72.3164	8,282.23	69.573	8,282.23	69.0795	8,282.23	70.3256	8,282.23	71.1535	8,282.23	69.5824	8,282.23	68.0328	8,282.23	67.8839	8,282.23	68.7098	8,282.23	67.0351	8,282.23	67.047	8,282.23	62.7078	8,282.23	62.735	8,282.23	62.4183	8,282.23	62.7812	8,282.23	60.5572
8,573.73	84.5332	8,573.73	83.8157	8,573.73	84.3963	8,573.73	83.7952	8,573.73	83.6191	8,573.73	83.2794	8,573.73	83.3704	8,573.73	83.3511	8,573.73	83.9918	8,573.73	81.0019	8,573.73	82.8673	8,573.73	79.2882	8,573.73	81.5932	8,573.73	76.1987	8,573.73	77.7489	8,573.73	73.7816	8,573.73	74.8919	8,573.73	73.4907	8,573.73	73.7634	8,573.73	70.0544	8,573.73	72.0696	8,573.73	70.0089	8,573.73	70.5899	8,573.73	71.2769	8,573.73	65.5743	8,573.73	70.5338	8,573.73	70.4006	8,573.73	69.1284	8,573.73	67.9055	8,573.73	66.2769	8,573.73	66.4427	8,573.73	65.9824	8,573.73	63.7653	8,573.73	63.5996	8,573.73	60.157	8,573.73	66.8877
8,876.95	84.9979	8,876.95	84.7763	8,876.95	84.8926	8,876.95	83.6551	8,876.95	84.0931	8,876.95	83.6934	8,876.95	83.7909	8,876.95	82.9918	8,876.95	83.9076	8,876.95	80.577	8,876.95	82.7216	8,876.95	79.2334	8,876.95	80.5	8,876.95	77.9199	8,876.95	77.4612	8,876.95	74.0999	8,876.95	75.3921	8,876.95	72.6594	8,876.95	74.0741	8,876.95	72.5419	8,876.95	72.0197	8,876.95	70.863	8,876.95	70.5929	8,876.95	70.2549	8,876.95	70.82	8,876.95	69.9659	8,876.95	68.7077	8,876.95	67.6505	8,876.95	66.4752	8,876.95	63.8212	8,876.95	65.1095	8,876.95	63.3304	8,876.95	62.3853	8,876.95	63.2656	8,876.95	64.5453	8,876.95	65.0146
9,188.96	85.6161	9,188.96	84.9697	9,188.96	84.7597	9,188.96	84.3141	9,188.96	84.6504	9,188.96	83.3843	9,188.96	84.0007	9,188.96	82.6034	9,188.96	83.624	9,188.96	80.2033	9,188.96	81.7599	9,188.96	78.4694	9,188.96	79.7543	9,188.96	76.9715	9,188.96	77.2344	9,188.96	75.9133	9,188.96	76.0717	9,188.96	74.7598	9,188.96	74.9047	9,188.96	73.2924	9,188.96	73.7064	9,188.96	73.3366	9,188.96	72.6904	9,188.96	69.1984	9,188.96	71.3163	9,188.96	67.208	9,188.96	67.1966	9,188.96	63.351	9,188.96	67.643	9,188.96	63.913	9,188.96	65.3436	9,188.96	66.9864	9,188.96	65.0581	9,188.96	64.1013	9,188.96	64.2451	9,188.96	66.4639
9,514.16	84.4403	9,514.16	84.422	9,514.16	84.8079	9,514.16	83.3261	9,514.16	83.5304	9,514.16	83.0647	9,514.16	83.2036	9,514.16	81.2787	9,514.16	82.4799	9,514.16	79.4377	9,514.16	81.6467	9,514.16	80.4583	9,514.16	79.8452	9,514.16	78.7538	9,514.16	78.7727	9,514.16	78.071	9,514.16	77.0653	9,514.16	75.2514	9,514.16	75.7122	9,514.16	73.8684	9,514.16	73.8122	9,514.16	70.3582	9,514.16	72.8727	9,514.16	71.0516	9,514.16	70.9243	9,514.16	69.1176	9,514.16	71.4238	9,514.16	66.7828	9,514.16	64.219	9,514.16	65.6388	9,514.16	66.4536	9,514.16	65.7172	9,514.16	61.7794	9,514.16	65.8531	9,514.16	64.8204	9,514.16	65.26
9,849.61	85.2249	9,849.61	84.7321	9,849.61	84.7773	9,849.61	83.5931	9,849.61	84.204	9,849.61	81.7638	9,849.61	81.9049	9,849.61	80.7957	9,849.61	80.8008	9,849.61	81.0426	9,849.61	81.1519	9,849.61	80.9768	9,849.61	80.1618	9,849.61	79.1792	9,849.61	79.3747	9,849.61	77.3392	9,849.61	78.4367	9,849.61	75.1346	9,849.61	75.7181	9,849.61	73.4674	9,849.61	72.8221	9,849.61	71.4415	9,849.61	71.4649	9,849.61	70.8083	9,849.61	71.2904	9,849.61	69.2825	9,849.61	67.0089	9,849.61	68.9147	9,849.61	67.15	9,849.61	66.745	9,849.61	64.7026	9,849.61	66.0907	9,849.61	63.684	9,849.61	65.4002	9,849.61	62.9132	9,849.61	66.5409
10,196.8	84.5347	10,196.8	84.1289	10,196.8	84.4744	10,196.8	82.5188	10,196.8	82.8873	10,196.8	81.5047	10,196.8	81.7458	10,196.8	82.1991	10,196.8	81.5371	10,196.8	82.3374	10,196.8	81.5362	10,196.8	81.5504	10,196.8	81.046	10,196.8	78.7257	10,196.8	79.5308	10,196.8	75.8716	10,196.8	75.4815	10,196.8	74.6598	10,196.8	74.6218	10,196.8	71.9149	10,196.8	73.7549	10,196.8	69.8882	10,196.8	71.0608	10,196.8	72.1276	10,196.8	70.1599	10,196.8	71.4731	10,196.8	71.6549	10,196.8	71.0083	10,196.8	70.4706	10,196.8	65.3247	10,196.8	62.9879	10,196.8	62.9236	10,196.8	64.3747	10,196.8	65.035	10,196.8	66.692	10,196.8	63.7245
10,555.7	83.3504	10,555.7	83.4507	10,555.7	83.5819	10,555.7	83.9396	10,555.7	83.3574	10,555.7	82.8933	10,555.7	82.0604	10,555.7	83.6205	10,555.7	82.288	10,555.7	82.6078	10,555.7	82.1916	10,555.7	81.502	10,555.7	81.2195	10,555.7	78.8254	10,555.7	78.776	10,555.7	76.903	10,555.7	75.4894	10,555.7	75.3536	10,555.7	74.646	10,555.7	73.4319	10,555.7	72.6499	10,555.7	72.6556	10,555.7	71.4389	10,555.7	71.127	10,555.7	70.9416	10,555.7	71.5725	10,555.7	71.7034	10,555.7	69.4435	10,555.7	68.0231	10,555.7	63.3658	10,555.7	63.3252	10,555.7	66.3531	10,555.7	64.5112	10,555.7	66.4539	10,555.7	66.329	10,555.7	61.9541
10,927.7	83.1646	10,927.7	83.5856	10,927.7	83.4745	10,927.7	84.1148	10,927.7	83.9902	10,927.7	83.1183	10,927.7	83.4912	10,927.7	83.5295	10,927.7	82.9333	10,927.7	82.9145	10,927.7	82.5948	10,927.7	81.8146	10,927.7	81.6494	10,927.7	79.8069	10,927.7	79.0366	10,927.7	77.7632	10,927.7	76.2879	10,927.7	75.3555	10,927.7	75.1973	10,927.7	73.5357	10,927.7	72.4252	10,927.7	71.3276	10,927.7	71.1403	10,927.7	70.5348	10,927.7	70.2409	10,927.7	70.6661	10,927.7	69.8916	10,927.7	64.8994	10,927.7	65.759	10,927.7	64.4623	10,927.7	65.3328	10,927.7	67.8046	10,927.7	63.0273	10,927.7	65.2754	10,927.7	61.4649	10,927.7	59.425
11,313	84.2285	11,313	83.7964	11,313	84.265	11,313	83.5169	11,313	83.8669	11,313	82.9489	11,313	82.8324	11,313	83.0555	11,313	82.5229	11,313	81.7312	11,313	81.9517	11,313	81.0922	11,313	80.6023	11,313	78.8976	11,313	78.2854	11,313	76.558	11,313	76.2504	11,313	75.175	11,313	74.2205	11,313	72.4896	11,313	72.8161	11,313	70.2317	11,313	70.004	11,313	70.8688	11,313	68.5718	11,313	69.2409	11,313	66.9154	11,313	66.5052	11,313	62.4177	11,313	66.57	11,313	64.7304	11,313	66.9066	11,313	62.127	11,313	60.0133	11,313	61.7698	11,313	61.8553
11,712.9	85.0768	11,712.9	84.4559	11,712.9	84.4821	11,712.9	83.2493	11,712.9	83.7298	11,712.9	82.9667	11,712.9	82.5192	11,712.9	82.426	11,712.9	81.7768	11,712.9	81.0745	11,712.9	81.6492	11,712.9	79.6768	11,712.9	78.8117	11,712.9	77.8425	11,712.9	76.3936	11,712.9	75.2803	11,712.9	74.5149	11,712.9	73.8613	11,712.9	73.6677	11,712.9	71.3652	11,712.9	71.2765	11,712.9	69.1915	11,712.9	69.5036	11,712.9	67.9118	11,712.9	67.2291	11,712.9	65.9323	11,712.9	63.6383	11,712.9	68.0597	11,712.9	64.2024	11,712.9	66.7111	11,712.9	63.3014	11,712.9	65.0215	11,712.9	62.1994	11,712.9	61.7162	11,712.9	60.8104	11,712.9	62.0448
12,126	85.1754	12,126	83.991	12,126	84.0769	12,126	83.7139	12,126	83.3171	12,126	81.6003	12,126	81.557	12,126	82.7829	12,126	81.0865	12,126	80.5679	12,126	79.8351	12,126	79.4288	12,126	78.0855	12,126	77.1719	12,126	77.1192	12,126	75.0745	12,126	74.1894	12,126	71.5235	12,126	72.7486	12,126	71.3987	12,126	70.8961	12,126	69.7556	12,126	66.6739	12,126	66.7184	12,126	66.3953	12,126	66.8561	12,126	63.2599	12,126	66.0638	12,126	61.81	12,126	66.046	12,126	64.1299	12,126	62.959	12,126	60.5027	12,126	59.2746	12,126	61.8306	12,126	60.3919
12,553.7	85.5437	12,553.7	84.5887	12,553.7	84.1869	12,553.7	82.9023	12,553.7	83.1934	12,553.7	81.4316	12,553.7	81.933	12,553.7	81.1641	12,553.7	80.137	12,553.7	79.6234	12,553.7	78.4665	12,553.7	78.0314	12,553.7	76.862	12,553.7	75.5688	12,553.7	75.3797	12,553.7	73.1026	12,553.7	72.132	12,553.7	71.4764	12,553.7	71.0487	12,553.7	69.4152	12,553.7	68.8399	12,553.7	67.2997	12,553.7	66.9931	12,553.7	65.938	12,553.7	66.7284	12,553.7	63.9986	12,553.7	57.1102	12,553.7	63.3558	12,553.7	60.7903	12,553.7	63.3609	12,553.7	62.2001	12,553.7	59.8697	12,553.7	60.5153	12,553.7	56.6737	12,553.7	53.1559	12,553.7	57.8685
12,996.1	85.4662	12,996.1	84.1487	12,996.1	84.5038	12,996.1	82.6799	12,996.1	82.5739	12,996.1	81.0717	12,996.1	79.9878	12,996.1	80.37	12,996.1	78.5657	12,996.1	77.8585	12,996.1	76.1757	12,996.1	77.262	12,996.1	75.178	12,996.1	73.4678	12,996.1	72.5635	12,996.1	72.4529	12,996.1	70.0331	12,996.1	69.8815	12,996.1	68.5087	12,996.1	66.735	12,996.1	66.7428	12,996.1	65.6833	12,996.1	64.9189	12,996.1	66.1986	12,996.1	63.0797	12,996.1	65.3121	12,996.1	60.7453	12,996.1	64.489	12,996.1	61.5108	12,996.1	62.2478	12,996.1	63.8361	12,996.1	59.4761	12,996.1	58.4114	12,996.1	54.03	12,996.1	50.6337	12,996.1	55.8372
13,454.6	85.1277	13,454.6	84.3792	13,454.6	84.0367	13,454.6	82.6599	13,454.6	81.8957	13,454.6	80.2429	13,454.6	79.7496	13,454.6	79.5285	13,454.6	77.1325	13,454.6	77.9985	13,454.6	74.6997	13,454.6	77.2882	13,454.6	73.8683	13,454.6	74.9416	13,454.6	71.2191	13,454.6	69.3634	13,454.6	68.7599	13,454.6	68.9312	13,454.6	66.4352	13,454.6	65.3849	13,454.6	65.9946	13,454.6	64.5408	13,454.6	62.729	13,454.6	65.0532	13,454.6	64.101	13,454.6	65.3252	13,454.6	59.0489	13,454.6	61.2334	13,454.6	61.29	13,454.6	61.9782	13,454.6	61.5515	13,454.6	56.6598	13,454.6	59.7659	13,454.6	58.2256	13,454.6	55.6138	13,454.6	60.7481
13,929.2	85.0136	13,929.2	84.8411	13,929.2	84.4624	13,929.2	83.0473	13,929.2	82.1033	13,929.2	80.9155	13,929.2	78.4325	13,929.2	78.8075	13,929.2	75.9407	13,929.2	77.4601	13,929.2	74.6473	13,929.2	76.961	13,929.2	73.1507	13,929.2	75.0179	13,929.2	70.7745	13,929.2	71.0958	13,929.2	68.7544	13,929.2	65.914	13,929.2	64.3795	13,929.2	66.3067	13,929.2	61.8136	13,929.2	62.327	13,929.2	60.955	13,929.2	62.0528	13,929.2	62.4393	13,929.2	63.8756	13,929.2	60.8881	13,929.2	61.6714	13,929.2	60.5908	13,929.2	60.9886	13,929.2	59.775	13,929.2	57.8369	13,929.2	59.507	13,929.2	54.7776	13,929.2	54.0918	13,929.2	58.4057
14,419.9	85.6736	14,419.9	85.1572	14,419.9	85.0392	14,419.9	83.723	14,419.9	82.8841	14,419.9	80.3677	14,419.9	78.9743	14,419.9	78.6684	14,419.9	76.1767	14,419.9	76.8386	14,419.9	74.6933	14,419.9	75.7791	14,419.9	72.7315	14,419.9	72.4504	14,419.9	69.2796	14,419.9	69.2027	14,419.9	67.6913	14,419.9	66.8971	14,419.9	62.9582	14,419.9	59.7872	14,419.9	58.9056	14,419.9	58.8278	14,419.9	59.1362	14,419.9	61.737	14,419.9	59.6301	14,419.9	60.9078	14,419.9	62.3891	14,419.9	61.1318	14,419.9	59.7065	14,419.9	59.6671	14,419.9	61.0141	14,419.9	57.1868	14,419.9	56.9517	14,419.9	57.4626	14,419.9	56.879	14,419.9	58.4522
14,928.2	85.5477	14,928.2	85.3359	14,928.2	84.8789	14,928.2	83.9473	14,928.2	83.3707	14,928.2	80.7201	14,928.2	80.0603	14,928.2	78.8039	14,928.2	76.6892	14,928.2	75.8576	14,928.2	74.3346	14,928.2	74.6866	14,928.2	71.9252	14,928.2	70.5881	14,928.2	66.9049	14,928.2	67.3565	14,928.2	65.6492	14,928.2	64.1991	14,928.2	62.4879	14,928.2	59.4695	14,928.2	59.3961	14,928.2	56.3419	14,928.2	57.7828	14,928.2	60.1612	14,928.2	58.4393	14,928.2	60.193	14,928.2	60.8362	14,928.2	61.0794	14,928.2	59.0882	14,928.2	57.0675	14,928.2	59.8314	14,928.2	55.3993	14,928.2	56.4387	14,928.2	59.458	14,928.2	58.8112	14,928.2	61.3388
15,455.6	84.9549	15,455.6	85.2071	15,455.6	84.5015	15,455.6	84.4754	15,455.6	83.43	15,455.6	81.5445	15,455.6	80.9273	15,455.6	78.6339	15,455.6	76.7281	15,455.6	74.948	15,455.6	73.8964	15,455.6	73.9301	15,455.6	70.2212	15,455.6	69.3632	15,455.6	65.5824	15,455.6	65.4031	15,455.6	63.6895	15,455.6	62.7531	15,455.6	60.4337	15,455.6	55.3122	15,455.6	60.0936	15,455.6	57.8298	15,455.6	55.4158	15,455.6	58.6225	15,455.6	56.034	15,455.6	60.8571	15,455.6	62.1993	15,455.6	57.7067	15,455.6	59.2647	15,455.6	56.7207	15,455.6	58.3734	15,455.6	54.5226	15,455.6	59.9712	15,455.6	59.0418	15,455.6	59.4078	15,455.6	60.4
16,000.5	84.5951	16,000.5	84.8044	16,000.5	84.0974	16,000.5	84.3953	16,000.5	83.194	16,000.5	82.0786	16,000.5	81.2011	16,000.5	78.9645	16,000.5	77.1057	16,000.5	74.5406	16,000.5	73.5446	16,000.5	72.7024	16,000.5	69.1092	16,000.5	67.7014	16,000.5	65.745	16,000.5	63.7395	16,000.5	63.3177	16,000.5	62.2758	16,000.5	61.0244	16,000.5	56.2086	16,000.5	57.999	16,000.5	57.1718	16,000.5	55.9018	16,000.5	55.2522	16,000.5	57.6919	16,000.5	58.1429	16,000.5	60.1687	16,000.5	56.3468	16,000.5	57.907	16,000.5	57.7568	16,000.5	59.8588	16,000.5	56.2793	16,000.5	60.3426	16,000.5	58.5729	16,000.5	60.1283	16,000.5	58.4852
16,564.5	84.3262	16,564.5	84.1803	16,564.5	83.7272	16,564.5	84.2036	16,564.5	82.6257	16,564.5	82.4255	16,564.5	81.4074	16,564.5	79.7474	16,564.5	77.832	16,564.5	73.8272	16,564.5	73.3589	16,564.5	71.392	16,564.5	69.0147	16,564.5	67.4289	16,564.5	66.096	16,564.5	62.721	16,564.5	63.8027	16,564.5	61.3692	16,564.5	62.1317	16,564.5	55.4543	16,564.5	56.6774	16,564.5	51.9501	16,564.5	56.9581	16,564.5	53.2586	16,564.5	53.5104	16,564.5	54.5726	16,564.5	59.9543	16,564.5	54.2738	16,564.5	56.8788	16,564.5	56.2059	16,564.5	59.9108	16,564.5	56.3805	16,564.5	58.4084	16,564.5	57.4094	16,564.5	59.8068	16,564.5	58.9318
17,148.9	84.1472	17,148.9	84.0112	17,148.9	83.3553	17,148.9	84.3615	17,148.9	82.7721	17,148.9	82.4185	17,148.9	81.8538	17,148.9	80.4664	17,148.9	78.6275	17,148.9	73.8599	17,148.9	73.6595	17,148.9	70.589	17,148.9	68.9326	17,148.9	67.3677	17,148.9	66.0804	17,148.9	63.0467	17,148.9	63.2124	17,148.9	59.9136	17,148.9	59.6411	17,148.9	56.3341	17,148.9	57.6711	17,148.9	47.8529	17,148.9	56.318	17,148.9	54.3312	17,148.9	52.5773	17,148.9	53.6791	17,148.9	59.4756	17,148.9	55.5374	17,148.9	56.0033	17,148.9	54.6328	17,148.9	57.4229	17,148.9	54.9978	17,148.9	57.3261	17,148.9	57.8181	17,148.9	58.8357	17,148.9	56.337
17,752.4	84.2838	17,752.4	84.2295	17,752.4	83.517	17,752.4	84.363	17,752.4	83.0824	17,752.4	83.1434	17,752.4	82.4847	17,752.4	81.3061	17,752.4	79.1644	17,752.4	74.5698	17,752.4	74.0621	17,752.4	70.9561	17,752.4	68.5855	17,752.4	66.5693	17,752.4	62.6326	17,752.4	62.721	17,752.4	60.8586	17,752.4	61.2064	17,752.4	57.1628	17,752.4	55.6759	17,752.4	54.2863	17,752.4	52.72	17,752.4	55.7332	17,752.4	53.108	17,752.4	49.4262	17,752.4	53.9943	17,752.4	59.0762	17,752.4	55.461	17,752.4	55.4654	17,752.4	53.5333	17,752.4	58.9366	17,752.4	56.5635	17,752.4	57.2634	17,752.4	57.3165	17,752.4	60.0171	17,752.4	55.7469
18,379.4	83.9543	18,379.4	84.6412	18,379.4	83.6087	18,379.4	84.7747	18,379.4	83.7291	18,379.4	84.193	18,379.4	83.0977	18,379.4	81.6541	18,379.4	79.7976	18,379.4	75.2641	18,379.4	75.3703	18,379.4	71.1428	18,379.4	69.2132	18,379.4	66.0667	18,379.4	61.834	18,379.4	61.3838	18,379.4	53.9203	18,379.4	60.393	18,379.4	52.2231	18,379.4	57.0506	18,379.4	51.0354	18,379.4	55.5916	18,379.4	53.1623	18,379.4	52.8296	18,379.4	47.6187	18,379.4	53.811	18,379.4	55.5808	18,379.4	54.8628	18,379.4	56.5665	18,379.4	54.9206	18,379.4	58.6849	18,379.4	57.4047	18,379.4	58.6129	18,379.4	57.1379	18,379.4	60.0919	18,379.4	53.0879
19,026.9	83.4357	19,026.9	84.739	19,026.9	83.3524	19,026.9	85.4769	19,026.9	84.4212	19,026.9	84.9449	19,026.9	83.6547	19,026.9	82.551	19,026.9	81.0102	19,026.9	77.0457	19,026.9	77.4675	19,026.9	72.7897	19,026.9	71.4117	19,026.9	68.3792	19,026.9	66.1254	19,026.9	62.9478	19,026.9	60.0184	19,026.9	59.6842	19,026.9	55.1453	19,026.9	58.9768	19,026.9	46.8699	19,026.9	56.232	19,026.9	47.1264	19,026.9	56.2093	19,026.9	53.3317	19,026.9	51.4922	19,026.9	52.7105	19,026.9	53.5953	19,026.9	58.4617	19,026.9	55.0442	19,026.9	58.198	19,026.9	60.8986	19,026.9	60.3628	19,026.9	56.0947	19,026.9	60.8121	19,026.9	56.1197
19,697.8	83.4554	19,697.8	85.2546	19,697.8	83.8857	19,697.8	86.3669	19,697.8	85.4183	19,697.8	85.8739	19,697.8	84.6468	19,697.8	84.3227	19,697.8	83.3134	19,697.8	79.6712	19,697.8	80.557	19,697.8	75.6786	19,697.8	75.9164	19,697.8	71.221	19,697.8	72.329	19,697.8	66.5833	19,697.8	68.4668	19,697.8	61.9751	19,697.8	63.5009	19,697.8	60.5235	19,697.8	58.1467	19,697.8	55.0391	19,697.8	51.5315	19,697.8	61.4205	19,697.8	56.8145	19,697.8	56.19	19,697.8	49.9173	19,697.8	56.8104	19,697.8	60.7304	19,697.8	56.6279	19,697.8	57.3686	19,697.8	63.6508	19,697.8	65.0545	19,697.8	55.7326	19,697.8	60.2366	19,697.8	59.1442
19,999.5	83.9463	19,999.5	85.219	19,999.5	84.8066	19,999.5	86.8556	19,999.5	86.1669	19,999.5	86.7182	19,999.5	85.5898	19,999.5	85.4242	19,999.5	84.5295	19,999.5	81.2487	19,999.5	81.8821	19,999.5	77.1604	19,999.5	77.6191	19,999.5	73.077	19,999.5	73.2253	19,999.5	68.8072	19,999.5	70.9012	19,999.5	65.9464	19,999.5	64.6603	19,999.5	59.2126	19,999.5	63.1912	19,999.5	61.4894	19,999.5	59.6142	19,999.5	66.7407	19,999.5	62.719	19,999.5	64.5227	19,999.5	62.5515	19,999.5	62.3687	19,999.5	59.5139	19,999.5	57.4698	19,999.5	58.8715	19,999.5	66.604	19,999.5	68.303	19,999.5	57.9964	19,999.5	64.0289	19,999.5	63.7778
