"SPL Vertical"
"On-Axis"		"10°"		"-10°"		"20°"		"-20°"		"30°"		"-30°"		"40°"		"-40°"		"50°"		"-50°"		"60°"		"-60°"		"70°"		"-70°"		"80°"		"-80°"		"90°"		"-90°"		"100°"		"-100°"		"110°"		"-110°"		"120°"		"-120°"		"130°"		"-130°"		"140°"		"-140°"		"150°"		"-150°"		"160°"		"-160°"		"170°"		"-170°"		"180°"
"Frequency / Hz"	"Sound Pressure Level / dB (re 20 µPa/V)  [2.83  V @ 1. m]"	"Frequency / Hz"	"Sound Pressure Level / dB (re 20 µPa/V)  [2.83  V @ 1. m]"	"Frequency / Hz"	"Sound Pressure Level / dB (re 20 µPa/V)  [2.83  V @ 1. m]"	"Frequency / Hz"	"Sound Pressure Level / dB (re 20 µPa/V)  [2.83  V @ 1. m]"	"Frequency / Hz"	"Sound Pressure Level / dB (re 20 µPa/V)  [2.83  V @ 1. m]"	"Frequency / Hz"	"Sound Pressure Level / dB (re 20 µPa/V)  [2.83  V @ 1. m]"	"Frequency / Hz"	"Sound Pressure Level / dB (re 20 µPa/V)  [2.83  V @ 1. m]"	"Frequency / Hz"	"Sound Pressure Level / dB (re 20 µPa/V)  [2.83  V @ 1. m]"	"Frequency / Hz"	"Sound Pressure Level / dB (re 20 µPa/V)  [2.83  V @ 1. m]"	"Frequency / Hz"	"Sound Pressure Level / dB (re 20 µPa/V)  [2.83  V @ 1. m]"	"Frequency / Hz"	"Sound Pressure Level / dB (re 20 µPa/V)  [2.83  V @ 1. m]"	"Frequency / Hz"	"Sound Pressure Level / dB (re 20 µPa/V)  [2.83  V @ 1. m]"	"Frequency / Hz"	"Sound Pressure Level / dB (re 20 µPa/V)  [2.83  V @ 1. m]"	"Frequency / Hz"	"Sound Pressure Level / dB (re 20 µPa/V)  [2.83  V @ 1. m]"	"Frequency / Hz"	"Sound Pressure Level / dB (re 20 µPa/V)  [2.83  V @ 1. m]"	"Frequency / Hz"	"Sound Pressure Level / dB (re 20 µPa/V)  [2.83  V @ 1. m]"	"Frequency / Hz"	"Sound Pressure Level / dB (re 20 µPa/V)  [2.83  V @ 1. m]"	"Frequency / Hz"	"Sound Pressure Level / dB (re 20 µPa/V)  [2.83  V @ 1. m]"	"Frequency / Hz"	"Sound Pressure Level / dB (re 20 µPa/V)  [2.83  V @ 1. m]"	"Frequency / Hz"	"Sound Pressure Level / dB (re 20 µPa/V)  [2.83  V @ 1. m]"	"Frequency / Hz"	"Sound Pressure Level / dB (re 20 µPa/V)  [2.83  V @ 1. m]"	"Frequency / Hz"	"Sound Pressure Level / dB (re 20 µPa/V)  [2.83  V @ 1. m]"	"Frequency / Hz"	"Sound Pressure Level / dB (re 20 µPa/V)  [2.83  V @ 1. m]"	"Frequency / Hz"	"Sound Pressure Level / dB (re 20 µPa/V)  [2.83  V @ 1. m]"	"Frequency / Hz"	"Sound Pressure Level / dB (re 20 µPa/V)  [2.83  V @ 1. m]"	"Frequency / Hz"	"Sound Pressure Level / dB (re 20 µPa/V)  [2.83  V @ 1. m]"	"Frequency / Hz"	"Sound Pressure Level / dB (re 20 µPa/V)  [2.83  V @ 1. m]"	"Frequency / Hz"	"Sound Pressure Level / dB (re 20 µPa/V)  [2.83  V @ 1. m]"	"Frequency / Hz"	"Sound Pressure Level / dB (re 20 µPa/V)  [2.83  V @ 1. m]"	"Frequency / Hz"	"Sound Pressure Level / dB (re 20 µPa/V)  [2.83  V @ 1. m]"	"Frequency / Hz"	"Sound Pressure Level / dB (re 20 µPa/V)  [2.83  V @ 1. m]"	"Frequency / Hz"	"Sound Pressure Level / dB (re 20 µPa/V)  [2.83  V @ 1. m]"	"Frequency / Hz"	"Sound Pressure Level / dB (re 20 µPa/V)  [2.83  V @ 1. m]"	"Frequency / Hz"	"Sound Pressure Level / dB (re 20 µPa/V)  [2.83  V @ 1. m]"	"Frequency / Hz"	"Sound Pressure Level / dB (re 20 µPa/V)  [2.83  V @ 1. m]"	"Frequency / Hz"	"Sound Pressure Level / dB (re 20 µPa/V)  [2.83  V @ 1. m]"
20.5078	56.6602	20.5078	56.5647	20.5078	56.7429	20.5078	56.4676	20.5078	56.8037	20.5078	56.3801	20.5078	56.8382	20.5078	56.311	20.5078	56.8465	20.5078	56.2656	20.5078	56.8328	20.5078	56.246	20.5078	56.8033	20.5078	56.2516	20.5078	56.7651	20.5078	56.2803	20.5078	56.7246	20.5078	56.3289	20.5078	56.6875	20.5078	56.3937	20.5078	56.6585	20.5078	56.4703	20.5078	56.6413	20.5078	56.5531	20.5078	56.6383	20.5078	56.6357	20.5078	56.6506	20.5078	56.7108	20.5078	56.677	20.5078	56.7713	20.5078	56.714	20.5078	56.8112	20.5078	56.7556	20.5078	56.8274	20.5078	56.7939	20.5078	56.8202
21.9727	51.1685	21.9727	51.0268	21.9727	51.2767	21.9727	50.8685	21.9727	51.3415	21.9727	50.7139	21.9727	51.3613	21.9727	50.5826	21.9727	51.3428	21.9727	50.4909	21.9727	51.2988	21.9727	50.4496	21.9727	51.2449	21.9727	50.4638	21.9727	51.1964	21.9727	50.5331	21.9727	51.1658	21.9727	50.6527	21.9727	51.1616	21.9727	50.8141	21.9727	51.1878	21.9727	51.0056	21.9727	51.2449	21.9727	51.2129	21.9727	51.33	21.9727	51.4199	21.9727	51.4375	21.9727	51.6099	21.9727	51.5592	21.9727	51.7669	21.9727	51.6841	21.9727	51.8779	21.9727	51.7985	21.9727	51.935	21.9727	51.8874	21.9727	51.9364
23.4375	52.7851	23.4375	52.7759	23.4375	52.7352	23.4375	52.7165	23.4375	52.623	23.4375	52.6185	23.4375	52.4518	23.4375	52.4945	23.4375	52.2313	23.4375	52.3557	23.4375	51.9759	23.4375	52.211	23.4375	51.7022	23.4375	52.0666	23.4375	51.4265	23.4375	51.9262	23.4375	51.1631	23.4375	51.7916	23.4375	50.9233	23.4375	51.6629	23.4375	50.7159	23.4375	51.5389	23.4375	50.5469	23.4375	51.4171	23.4375	50.4208	23.4375	51.2944	23.4375	50.3408	23.4375	51.1675	23.4375	50.309	23.4375	51.034	23.4375	50.3252	23.4375	50.8937	23.4375	50.3863	23.4375	50.7499	23.4375	50.4848	23.4375	50.6101
24.9023	53.1034	24.9023	53.0147	24.9023	53.1891	24.9023	52.9302	24.9023	53.2646	24.9023	52.8554	24.9023	53.3244	24.9023	52.7934	24.9023	53.3656	24.9023	52.7455	24.9023	53.3881	24.9023	52.711	24.9023	53.394	24.9023	52.6892	24.9023	53.3862	24.9023	52.679	24.9023	53.3679	24.9023	52.6799	24.9023	53.3417	24.9023	52.6917	24.9023	53.3097	24.9023	52.7138	24.9023	53.2736	24.9023	52.7454	24.9023	53.2351	24.9023	52.7849	24.9023	53.1959	24.9023	52.83	24.9023	53.1573	24.9023	52.8777	24.9023	53.1201	24.9023	52.9249	24.9023	53.0842	24.9023	52.9695	24.9023	53.0482	24.9023	53.0105
26.3672	52.4826	26.3672	52.3658	26.3672	52.5855	26.3672	52.2428	26.3672	52.668	26.3672	52.121	26.3672	52.7256	26.3672	52.0064	26.3672	52.7561	26.3672	51.9039	26.3672	52.7603	26.3672	51.8166	26.3672	52.7406	26.3672	51.7463	26.3672	52.7014	26.3672	51.6941	26.3672	52.6473	26.3672	51.6606	26.3672	52.5834	26.3672	51.6458	26.3672	52.5143	26.3672	51.6494	26.3672	52.4438	26.3672	51.6706	26.3672	52.375	26.3672	51.7075	26.3672	52.3097	26.3672	51.7574	26.3672	52.2481	26.3672	51.8166	26.3672	52.1894	26.3672	51.8811	26.3672	52.1317	26.3672	51.947	26.3672	52.0729	26.3672	52.0114
27.832	52.2214	27.832	52.1521	27.832	52.2837	27.832	52.0824	27.832	52.3322	27.832	52.018	27.832	52.3624	27.832	51.9625	27.832	52.3722	27.832	51.9175	27.832	52.3626	27.832	51.8826	27.832	52.3364	27.832	51.8568	27.832	52.2975	27.832	51.8382	27.832	52.2497	27.832	51.8252	27.832	52.1961	27.832	51.8163	27.832	52.1393	27.832	51.8104	27.832	52.0811	27.832	51.8064	27.832	52.0235	27.832	51.8037	27.832	51.9686	27.832	51.8018	27.832	51.919	27.832	51.8006	27.832	51.8772	27.832	51.8006	27.832	51.845	27.832	51.8028	27.832	51.8227	27.832	51.8094
29.2969	51.5491	29.2969	51.5499	29.2969	51.5352	29.2969	51.5438	29.2969	51.5011	29.2969	51.5342	29.2969	51.4407	29.2969	51.5217	29.2969	51.3505	29.2969	51.504	29.2969	51.2311	29.2969	51.4775	29.2969	51.0867	29.2969	51.4385	29.2969	50.9245	29.2969	51.3841	29.2969	50.7535	29.2969	51.3127	29.2969	50.5835	29.2969	51.224	29.2969	50.4236	29.2969	51.1192	29.2969	50.2818	29.2969	51	29.2969	50.1648	29.2969	50.8689	29.2969	50.0779	29.2969	50.7292	29.2969	50.0253	29.2969	50.5847	29.2969	50.0101	29.2969	50.4412	29.2969	50.0334	29.2969	50.3058	29.2969	50.0939	29.2969	50.1871
30.7617	52.1399	30.7617	52.1525	30.7617	52.1039	30.7617	52.1447	30.7617	52.0427	30.7617	52.1197	30.7617	51.9562	30.7617	52.0806	30.7617	51.8466	30.7617	52.0304	30.7617	51.7181	30.7617	51.9714	30.7617	51.5767	30.7617	51.9058	30.7617	51.4295	30.7617	51.8354	30.7617	51.2838	30.7617	51.7615	30.7617	51.1468	30.7617	51.6854	30.7617	51.0252	30.7617	51.6074	30.7617	50.9249	30.7617	51.5276	30.7617	50.8505	30.7617	51.4456	30.7617	50.8052	30.7617	51.3604	30.7617	50.7907	30.7617	51.2715	30.7617	50.8063	30.7617	51.1794	30.7617	50.8492	30.7617	51.0861	30.7617	50.9146	30.7617	50.9958
32.2266	52.4166	32.2266	52.3505	32.2266	52.4734	32.2266	52.281	32.2266	52.5152	32.2266	52.2138	32.2266	52.5381	32.2266	52.1535	32.2266	52.5403	32.2266	52.1031	32.2266	52.5227	32.2266	52.0645	32.2266	52.4886	32.2266	52.0387	32.2266	52.4429	32.2266	52.0259	32.2266	52.3918	32.2266	52.0256	32.2266	52.3417	32.2266	52.0369	32.2266	52.2981	32.2266	52.0585	32.2266	52.2653	32.2266	52.0883	32.2266	52.2453	32.2266	52.1235	32.2266	52.2379	32.2266	52.1608	32.2266	52.2404	32.2266	52.1963	32.2266	52.2488	32.2266	52.2264	32.2266	52.2579	32.2266	52.2484	32.2266	52.263	32.2266	52.2605
33.6914	53.053	33.6914	52.9998	33.6914	53.0926	33.6914	52.9383	33.6914	53.1137	33.6914	52.8734	33.6914	53.1133	33.6914	52.8086	33.6914	53.0901	33.6914	52.7464	33.6914	53.0455	33.6914	52.6881	33.6914	52.9824	33.6914	52.6342	33.6914	52.905	33.6914	52.585	33.6914	52.8178	33.6914	52.5405	33.6914	52.7257	33.6914	52.5007	33.6914	52.6334	33.6914	52.4655	33.6914	52.5452	33.6914	52.4341	33.6914	52.4654	33.6914	52.4058	33.6914	52.3976	33.6914	52.3796	33.6914	52.3447	33.6914	52.3546	33.6914	52.3084	33.6914	52.3307	33.6914	52.2889	33.6914	52.3093	33.6914	52.2847	33.6914	52.2927
35.1562	54.1664	35.1562	54.1101	35.1562	54.2183	35.1562	54.0531	35.1562	54.2626	35.1562	53.9991	35.1562	54.2974	35.1562	53.9512	35.1562	54.3219	35.1562	53.912	35.1562	54.3365	35.1562	53.8832	35.1562	54.3428	35.1562	53.8659	35.1562	54.3431	35.1562	53.8608	35.1562	54.3398	35.1562	53.8684	35.1562	54.3356	35.1562	53.8884	35.1562	54.3327	35.1562	53.9206	35.1562	54.3324	35.1562	53.9636	35.1562	54.335	35.1562	54.0156	35.1562	54.3394	35.1562	54.0736	35.1562	54.3433	35.1562	54.1339	35.1562	54.3431	35.1562	54.1921	35.1562	54.3353	35.1562	54.2442	35.1562	54.317	35.1562	54.2865
36.6211	54.4681	36.6211	54.4069	36.6211	54.5133	36.6211	54.3338	36.6211	54.5391	36.6211	54.2531	36.6211	54.5437	36.6211	54.169	36.6211	54.5265	36.6211	54.0847	36.6211	54.4888	36.6211	54.0031	36.6211	54.4331	36.6211	53.9261	36.6211	54.3627	36.6211	53.8554	36.6211	54.282	36.6211	53.7922	36.6211	54.1953	36.6211	53.7375	36.6211	54.1074	36.6211	53.6922	36.6211	54.0225	36.6211	53.6569	36.6211	53.9439	36.6211	53.6318	36.6211	53.8738	36.6211	53.6171	36.6211	53.8129	36.6211	53.6125	36.6211	53.7612	36.6211	53.6175	36.6211	53.7178	36.6211	53.6312	36.6211	53.6818	36.6211	53.6528
38.0859	55.261	38.0859	55.1707	38.0859	55.3428	38.0859	55.0764	38.0859	55.4118	38.0859	54.982	38.0859	55.4647	38.0859	54.8911	38.0859	55.4994	38.0859	54.8063	38.0859	55.5153	38.0859	54.7293	38.0859	55.513	38.0859	54.6614	38.0859	55.4937	38.0859	54.6033	38.0859	55.4594	38.0859	54.5558	38.0859	55.412	38.0859	54.5193	38.0859	55.3533	38.0859	54.4944	38.0859	55.2851	38.0859	54.4817	38.0859	55.209	38.0859	54.4819	38.0859	55.1264	38.0859	54.4957	38.0859	55.039	38.0859	54.5239	38.0859	54.949	38.0859	54.5665	38.0859	54.859	38.0859	54.6233	38.0859	54.7724	38.0859	54.6928
39.5508	54.1675	39.5508	54.0601	39.5508	54.282	39.5508	53.9637	39.5508	54.3991	39.5508	53.8818	39.5508	54.5146	39.5508	53.8172	39.5508	54.6248	39.5508	53.7719	39.5508	54.7271	39.5508	53.7472	39.5508	54.8197	39.5508	53.7441	39.5508	54.9017	39.5508	53.7627	39.5508	54.9731	39.5508	53.8025	39.5508	55.0336	39.5508	53.8626	39.5508	55.0826	39.5508	53.9412	39.5508	55.1186	39.5508	54.0365	39.5508	55.1392	39.5508	54.146	39.5508	55.1408	39.5508	54.2671	39.5508	55.1198	39.5508	54.3966	39.5508	55.0738	39.5508	54.5308	39.5508	55.002	39.5508	54.6646	39.5508	54.9066	39.5508	54.7921
41.0156	56.9827	41.0156	56.9442	41.0156	56.9874	41.0156	56.876	41.0156	56.9543	41.0156	56.7826	41.0156	56.8805	41.0156	56.6679	41.0156	56.7639	41.0156	56.536	41.0156	56.6045	41.0156	56.3903	41.0156	56.4043	41.0156	56.2338	41.0156	56.1679	41.0156	56.0693	41.0156	55.9025	41.0156	55.899	41.0156	55.6184	41.0156	55.7247	41.0156	55.3285	41.0156	55.5482	41.0156	55.0483	41.0156	55.371	41.0156	54.7949	41.0156	55.1947	41.0156	54.5846	41.0156	55.0214	41.0156	54.4311	41.0156	54.8536	41.0156	54.3421	41.0156	54.6956	41.0156	54.3182	41.0156	54.5533	41.0156	54.3529	41.0156	54.4354
42.4805	56.8783	42.4805	56.8203	42.4805	56.918	42.4805	56.746	42.4805	56.9379	42.4805	56.6581	42.4805	56.9372	42.4805	56.5597	42.4805	56.916	42.4805	56.4546	42.4805	56.875	42.4805	56.347	42.4805	56.8162	42.4805	56.2411	42.4805	56.7431	42.4805	56.1414	42.4805	56.6599	42.4805	56.0523	42.4805	56.572	42.4805	55.9776	42.4805	56.4849	42.4805	55.9206	42.4805	56.4034	42.4805	55.8839	42.4805	56.3312	42.4805	55.8684	42.4805	56.2695	42.4805	55.8737	42.4805	56.2171	42.4805	55.8974	42.4805	56.1707	42.4805	55.9352	42.4805	56.1262	42.4805	55.9817	42.4805	56.0802	42.4805	56.0314
43.9453	57.643	43.9453	57.5526	43.9453	57.728	43.9453	57.4589	43.9453	57.8045	43.9453	57.364	43.9453	57.8698	43.9453	57.2697	43.9453	57.9206	43.9453	57.178	43.9453	57.9544	43.9453	57.0907	43.9453	57.9694	43.9453	57.01	43.9453	57.9645	43.9453	56.9381	43.9453	57.9401	43.9453	56.877	43.9453	57.8972	43.9453	56.829	43.9453	57.8378	43.9453	56.7959	43.9453	57.7642	43.9453	56.7797	43.9453	57.6789	43.9453	56.7817	43.9453	57.5844	43.9453	56.803	43.9453	57.4833	43.9453	56.8438	43.9453	57.3781	43.9453	56.9031	43.9453	57.2716	43.9453	56.9789	43.9453	57.167	43.9453	57.0681
45.4102	58.4289	45.4102	58.358	45.4102	58.4936	45.4102	58.2833	45.4102	58.5497	45.4102	58.2074	45.4102	58.5948	45.4102	58.1326	45.4102	58.6272	45.4102	58.0614	45.4102	58.6455	45.4102	57.996	45.4102	58.6493	45.4102	57.9383	45.4102	58.6389	45.4102	57.8903	45.4102	58.6157	45.4102	57.8537	45.4102	58.582	45.4102	57.8298	45.4102	58.5403	45.4102	57.8195	45.4102	58.4932	45.4102	57.8236	45.4102	58.4427	45.4102	57.8419	45.4102	58.3903	45.4102	57.8738	45.4102	58.3361	45.4102	57.9178	45.4102	58.2797	45.4102	57.9714	45.4102	58.2207	45.4102	58.0317	45.4102	58.1589	45.4102	58.0951
46.875	58.9668	46.875	58.899	46.875	59.0308	46.875	58.8285	46.875	59.0895	46.875	58.7564	46.875	59.1406	46.875	58.6841	46.875	59.1815	46.875	58.613	46.875	59.2097	46.875	58.5451	46.875	59.2228	46.875	58.4827	46.875	59.2194	46.875	58.4278	46.875	59.1992	46.875	58.3826	46.875	59.163	46.875	58.3486	46.875	59.1129	46.875	58.3272	46.875	59.0516	46.875	58.3193	46.875	58.9823	46.875	58.3253	46.875	58.9082	46.875	58.345	46.875	58.832	46.875	58.3778	46.875	58.7555	46.875	58.4223	46.875	58.6804	46.875	58.477	46.875	58.6079	46.875	58.5395
48.3398	59.7467	48.3398	59.6675	48.3398	59.8062	48.3398	59.5712	48.3398	59.844	48.3398	59.4604	48.3398	59.8583	48.3398	59.3384	48.3398	59.848	48.3398	59.2083	48.3398	59.8127	48.3398	59.0738	48.3398	59.7526	48.3398	58.9385	48.3398	59.6692	48.3398	58.8058	48.3398	59.5644	48.3398	58.679	48.3398	59.4415	48.3398	58.5612	48.3398	59.3039	48.3398	58.4551	48.3398	59.1561	48.3398	58.3634	48.3398	59.0029	48.3398	58.289	48.3398	58.8495	48.3398	58.2347	48.3398	58.7015	48.3398	58.2034	48.3398	58.5644	48.3398	58.1975	48.3398	58.4435	48.3398	58.2187	48.3398	58.3433	48.3398	58.2676
51.2695	60.9725	51.2695	60.9099	51.2695	61.0274	51.2695	60.8412	51.2695	61.0729	51.2695	60.7682	51.2695	61.1069	51.2695	60.6928	51.2695	61.1276	51.2695	60.6166	51.2695	61.1333	51.2695	60.5419	51.2695	61.1227	51.2695	60.4704	51.2695	61.0955	51.2695	60.4041	51.2695	61.0521	51.2695	60.3445	51.2695	60.9939	51.2695	60.2929	51.2695	60.9231	51.2695	60.2505	51.2695	60.8426	51.2695	60.2181	51.2695	60.7557	51.2695	60.1968	51.2695	60.6657	51.2695	60.1875	51.2695	60.5761	51.2695	60.1911	51.2695	60.4904	51.2695	60.2083	51.2695	60.4115	51.2695	60.2394	51.2695	60.3421	51.2695	60.2843
52.7344	61.1134	52.7344	61.0397	52.7344	61.1821	52.7344	60.9628	52.7344	61.2433	52.7344	60.8847	52.7344	61.2942	52.7344	60.8068	52.7344	61.3319	52.7344	60.7308	52.7344	61.3537	52.7344	60.6584	52.7344	61.3575	52.7344	60.5912	52.7344	61.3423	52.7344	60.5308	52.7344	61.3086	52.7344	60.4786	52.7344	61.2576	52.7344	60.4356	52.7344	61.192	52.7344	60.4029	52.7344	61.1147	52.7344	60.3815	52.7344	61.0293	52.7344	60.372	52.7344	60.939	52.7344	60.3753	52.7344	60.8472	52.7344	60.392	52.7344	60.757	52.7344	60.4226	52.7344	60.6714	52.7344	60.4669	52.7344	60.5929	52.7344	60.5241
54.1992	61.399	54.1992	61.3206	54.1992	61.4713	54.1992	61.2378	54.1992	61.5349	54.1992	61.1521	54.1992	61.5868	54.1992	61.0651	54.1992	61.6239	54.1992	60.9782	54.1992	61.6431	54.1992	60.8934	54.1992	61.6423	54.1992	60.8129	54.1992	61.6209	54.1992	60.7389	54.1992	61.5793	54.1992	60.6737	54.1992	61.5197	54.1992	60.6192	54.1992	61.4451	54.1992	60.5771	54.1992	61.3592	54.1992	60.5489	54.1992	61.2655	54.1992	60.5358	54.1992	61.1676	54.1992	60.5387	54.1992	61.0685	54.1992	60.5582	54.1992	60.9708	54.1992	60.5942	54.1992	60.8771	54.1992	60.6461	54.1992	60.7899	54.1992	60.7121
55.6641	62.4014	55.6641	62.3056	55.6641	62.4867	55.6641	62.2028	55.6641	62.5578	55.6641	62.096	55.6641	62.6106	55.6641	61.9878	55.6641	62.6416	55.6641	61.8807	55.6641	62.6483	55.6641	61.7773	55.6641	62.6295	55.6641	61.6801	55.6641	62.586	55.6641	61.5917	55.6641	62.52	55.6641	61.5142	55.6641	62.435	55.6641	61.4497	55.6641	62.3355	55.6641	61.3996	55.6641	62.2263	55.6641	61.3653	55.6641	62.112	55.6641	61.3478	55.6641	61.997	55.6641	61.3474	55.6641	61.8849	55.6641	61.3644	55.6641	61.7784	55.6641	61.3984	55.6641	61.6797	55.6641	61.4484	55.6641	61.5907	55.6641	61.5131
58.5938	63.0991	58.5938	63.0143	58.5938	63.1753	58.5938	62.9234	58.5938	63.24	58.5938	62.8287	58.5938	63.2905	58.5938	62.7321	58.5938	63.3242	58.5938	62.6352	58.5938	63.3393	58.5938	62.5399	58.5938	63.3347	58.5938	62.4477	58.5938	63.3102	58.5938	62.3605	58.5938	63.2664	58.5938	62.2804	58.5938	63.2044	58.5938	62.2094	58.5938	63.1261	58.5938	62.1498	58.5938	63.0334	58.5938	62.1041	58.5938	62.9288	58.5938	62.0751	58.5938	62.8151	58.5938	62.0653	58.5938	62.6956	58.5938	62.0771	58.5938	62.5743	58.5938	62.1118	58.5938	62.4559	58.5938	62.1695	58.5938	62.3456	58.5938	62.2486
60.0586	63.9743	60.0586	63.9303	60.0586	64.0068	60.0586	63.8768	60.0586	64.0266	60.0586	63.817	60.0586	64.0334	60.0586	63.7542	60.0586	64.0278	60.0586	63.6921	60.0586	64.0112	60.0586	63.6338	60.0586	63.9851	60.0586	63.5822	60.0586	63.9518	60.0586	63.5392	60.0586	63.9137	60.0586	63.5061	60.0586	63.873	60.0586	63.4833	60.0586	63.8321	60.0586	63.4707	60.0586	63.7926	60.0586	63.4675	60.0586	63.7556	60.0586	63.4727	60.0586	63.7214	60.0586	63.4849	60.0586	63.6896	60.0586	63.5027	60.0586	63.6598	60.0586	63.5247	60.0586	63.6312	60.0586	63.5495	60.0586	63.6032	60.0586	63.5759
62.9883	64.3832	62.9883	64.3193	62.9883	64.4337	62.9883	64.2437	62.9883	64.4692	62.9883	64.1587	62.9883	64.4884	62.9883	64.0667	62.9883	64.49	62.9883	63.971	62.9883	64.4733	62.9883	63.8747	62.9883	64.4383	62.9883	63.7815	62.9883	64.3862	62.9883	63.6947	62.9883	64.3193	62.9883	63.6172	62.9883	64.2408	62.9883	63.5519	62.9883	64.1549	62.9883	63.5006	62.9883	64.0657	62.9883	63.4648	62.9883	63.9771	62.9883	63.4452	62.9883	63.8921	62.9883	63.4415	62.9883	63.8126	62.9883	63.4528	62.9883	63.7394	62.9883	63.4775	62.9883	63.6727	62.9883	63.5136	62.9883	63.6125	62.9883	63.5592
64.4531	65.0571	64.4531	64.9737	64.4531	65.1182	64.4531	64.8711	64.4531	65.1549	64.4531	64.7527	64.4531	65.1654	64.4531	64.6224	64.4531	65.1488	64.4531	64.4844	64.4531	65.1051	64.4531	64.3428	64.4531	65.035	64.4531	64.2021	64.4531	64.9406	64.4531	64.0661	64.4531	64.8251	64.4531	63.9387	64.4531	64.6926	64.4531	63.823	64.4531	64.5481	64.4531	63.7221	64.4531	64.3971	64.4531	63.6384	64.4531	64.2453	64.4531	63.5741	64.4531	64.0984	64.4531	63.5306	64.4531	63.9613	64.4531	63.509	64.4531	63.8382	64.4531	63.5099	64.4531	63.732	64.4531	63.5331	64.4531	63.6449	64.4531	63.5783
67.3828	65.6521	67.3828	65.5788	67.3828	65.7157	67.3828	65.4985	67.3828	65.7671	67.3828	65.4145	67.3828	65.8046	67.3828	65.3299	67.3828	65.8269	67.3828	65.2476	67.3828	65.8338	67.3828	65.1702	67.3828	65.8253	67.3828	65.1	67.3828	65.8021	67.3828	65.0384	67.3828	65.7654	67.3828	64.9867	67.3828	65.7164	67.3828	64.9453	67.3828	65.6565	67.3828	64.9147	67.3828	65.5873	67.3828	64.8952	67.3828	65.5105	67.3828	64.8871	67.3828	65.4281	67.3828	64.8907	67.3828	65.3427	67.3828	64.9067	67.3828	65.2571	67.3828	64.9356	67.3828	65.1747	67.3828	64.9776	67.3828	65.0988	67.3828	65.0324
68.8477	65.8903	68.8477	65.822	68.8477	65.9516	68.8477	65.7494	68.8477	66.0038	68.8477	65.6752	68.8477	66.0452	68.8477	65.6025	68.8477	66.0747	68.8477	65.534	68.8477	66.0921	68.8477	65.4722	68.8477	66.0973	68.8477	65.4191	68.8477	66.0911	68.8477	65.3761	68.8477	66.0744	68.8477	65.3443	68.8477	66.0483	68.8477	65.3241	68.8477	66.0138	68.8477	65.3154	68.8477	65.9717	68.8477	65.3181	68.8477	65.9227	68.8477	65.3317	68.8477	65.8675	68.8477	65.3559	68.8477	65.8069	68.8477	65.3901	68.8477	65.7421	68.8477	65.4336	68.8477	65.6752	68.8477	65.4855	68.8477	65.6084	68.8477	65.5444
71.7773	66.7029	71.7773	66.6337	71.7773	66.7563	71.7773	66.5512	71.7773	66.792	71.7773	66.4589	71.7773	66.8089	71.7773	66.3607	71.7773	66.807	71.7773	66.2604	71.7773	66.7874	71.7773	66.1623	71.7773	66.7516	71.7773	66.0702	71.7773	66.7022	71.7773	65.9877	71.7773	66.6416	71.7773	65.9175	71.7773	66.5729	71.7773	65.8621	71.7773	66.4988	71.7773	65.8226	71.7773	66.4218	71.7773	65.7997	71.7773	66.3441	71.7773	65.7927	71.7773	66.2676	71.7773	65.8006	71.7773	66.1936	71.7773	65.8214	71.7773	66.1234	71.7773	65.8531	71.7773	66.0577	71.7773	65.894	71.7773	65.9972	71.7773	65.9424
74.707	67.227	74.707	67.158	74.707	67.286	74.707	67.0813	74.707	67.3334	74.707	66.9995	74.707	67.368	74.707	66.9159	74.707	67.3891	74.707	66.8337	74.707	67.3964	74.707	66.756	74.707	67.3898	74.707	66.6855	74.707	67.3696	74.707	66.6243	74.707	67.3364	74.707	66.5741	74.707	67.2913	74.707	66.536	74.707	67.2358	74.707	66.5106	74.707	67.1719	74.707	66.498	74.707	67.1016	74.707	66.4981	74.707	67.0271	74.707	66.5107	74.707	66.9509	74.707	66.535	74.707	66.8751	74.707	66.5705	74.707	66.8019	74.707	66.6161	74.707	66.7332	74.707	66.6707
77.6367	68.0127	77.6367	67.9353	77.6367	68.0837	77.6367	67.8544	77.6367	68.1455	77.6367	67.773	77.6367	68.1958	77.6367	67.6942	77.6367	68.2325	77.6367	67.6207	77.6367	68.2542	77.6367	67.5551	77.6367	68.2601	77.6367	67.4993	77.6367	68.2503	77.6367	67.4549	77.6367	68.2256	77.6367	67.4228	77.6367	68.1878	77.6367	67.4035	77.6367	68.1388	77.6367	67.3966	77.6367	68.0812	77.6367	67.4017	77.6367	68.0175	77.6367	67.4178	77.6367	67.9503	77.6367	67.4439	77.6367	67.8817	77.6367	67.4787	77.6367	67.8135	77.6367	67.5211	77.6367	67.7472	77.6367	67.5701	77.6367	67.684	77.6367	67.6247
79.1016	68.5374	79.1016	68.4589	79.1016	68.6069	79.1016	68.3746	79.1016	68.6645	79.1016	68.2874	79.1016	68.7075	79.1016	68.2006	79.1016	68.7339	79.1016	68.117	79.1016	68.7424	79.1016	68.0393	79.1016	68.7325	79.1016	67.9699	79.1016	68.7049	79.1016	67.9108	79.1016	68.6613	79.1016	67.8636	79.1016	68.6044	79.1016	67.8294	79.1016	68.5374	79.1016	67.8084	79.1016	68.4639	79.1016	67.8008	79.1016	68.3872	79.1016	67.8058	79.1016	68.3104	79.1016	67.8226	79.1016	68.2357	79.1016	67.8498	79.1016	68.1647	79.1016	67.8861	79.1016	68.0982	79.1016	67.93	79.1016	68.0367	79.1016	67.9805
82.0312	69.4276	82.0312	69.3274	82.0312	69.5107	82.0312	69.2152	82.0312	69.5719	82.0312	69.0958	82.0312	69.6066	82.0312	68.9736	82.0312	69.6113	82.0312	68.8528	82.0312	69.5841	82.0312	68.7369	82.0312	69.5252	82.0312	68.6293	82.0312	69.4367	82.0312	68.533	82.0312	69.3234	82.0312	68.4501	82.0312	69.1917	82.0312	68.3825	82.0312	69.0497	82.0312	68.331	82.0312	68.9062	82.0312	68.2955	82.0312	68.7699	82.0312	68.2749	82.0312	68.6481	82.0312	68.2674	82.0312	68.5456	82.0312	68.2706	82.0312	68.4643	82.0312	68.2819	82.0312	68.4028	82.0312	68.2999	82.0312	68.3576	82.0312	68.3245
84.9609	69.2168	84.9609	69.0978	84.9609	69.3348	84.9609	68.9861	84.9609	69.4431	84.9609	68.8889	84.9609	69.5341	84.9609	68.8114	84.9609	69.6024	84.9609	68.7565	84.9609	69.6457	84.9609	68.7251	84.9609	69.6646	84.9609	68.716	84.9609	69.6616	84.9609	68.7266	84.9609	69.6403	84.9609	68.7533	84.9609	69.6041	84.9609	68.7914	84.9609	69.5558	84.9609	68.8358	84.9609	69.4973	84.9609	68.8817	84.9609	69.4305	84.9609	68.9245	84.9609	69.358	84.9609	68.961	84.9609	69.2838	84.9609	68.9904	84.9609	69.2129	84.9609	69.0141	84.9609	69.1507	84.9609	69.0367	84.9609	69.1008	84.9609	69.0637
87.8906	69.278	87.8906	69.3396	87.8906	69.2095	87.8906	69.3839	87.8906	69.1476	87.8906	69.4055	87.8906	69.1072	87.8906	69.4035	87.8906	69.1022	87.8906	69.3819	87.8906	69.1435	87.8906	69.3483	87.8906	69.2372	87.8906	69.3134	87.8906	69.3846	87.8906	69.289	87.8906	69.5809	87.8906	69.2874	87.8906	69.8159	87.8906	69.3193	87.8906	70.0738	87.8906	69.3923	87.8906	70.3343	87.8906	69.5101	87.8906	70.5752	87.8906	69.671	87.8906	70.7747	87.8906	69.8684	87.8906	70.9144	87.8906	70.0909	87.8906	70.9818	87.8906	70.3229	87.8906	70.9721	87.8906	70.5463	87.8906	70.8884	87.8906	70.7411
90.8203	72.3109	90.8203	72.1747	90.8203	72.3928	90.8203	71.9909	90.8203	72.4154	90.8203	71.7671	90.8203	72.3758	90.8203	71.5119	90.8203	72.273	90.8203	71.2339	90.8203	72.1083	90.8203	70.941	90.8203	71.8851	90.8203	70.6408	90.8203	71.6095	90.8203	70.3398	90.8203	71.2898	90.8203	70.0436	90.8203	70.9373	90.8203	69.7577	90.8203	70.5658	90.8203	69.4872	90.8203	70.1915	90.8203	69.2381	90.8203	69.8313	90.8203	69.0174	90.8203	69.501	90.8203	68.8327	90.8203	69.213	90.8203	68.6918	90.8203	68.9749	90.8203	68.6011	90.8203	68.7903	90.8203	68.5648	90.8203	68.66	90.8203	68.5846
95.2148	71.2538	95.2148	71.1574	95.2148	71.3623	95.2148	71.0795	95.2148	71.477	95.2148	71.0257	95.2148	71.5926	95.2148	71	95.2148	71.7047	95.2148	71.0043	95.2148	71.8094	95.2148	71.0378	95.2148	71.903	95.2148	71.0972	95.2148	71.9823	95.2148	71.1775	95.2148	72.0444	95.2148	71.2721	95.2148	72.0875	95.2148	71.3738	95.2148	72.1112	95.2148	71.4756	95.2148	72.1163	95.2148	71.5716	95.2148	72.1056	95.2148	71.6573	95.2148	72.0825	95.2148	71.7301	95.2148	72.0514	95.2148	71.7897	95.2148	72.0164	95.2148	71.8377	95.2148	71.9808	95.2148	71.8774	95.2148	71.9462	95.2148	71.9124
98.1445	71.9174	98.1445	71.8303	98.1445	72.0112	98.1445	71.7521	98.1445	72.109	98.1445	71.6846	98.1445	72.2072	98.1445	71.6292	98.1445	72.3015	98.1445	71.5873	98.1445	72.3873	98.1445	71.5602	98.1445	72.4599	98.1445	71.5489	98.1445	72.5157	98.1445	71.554	98.1445	72.5521	98.1445	71.5755	98.1445	72.5681	98.1445	71.6122	98.1445	72.5644	98.1445	71.6625	98.1445	72.5433	98.1445	71.7238	98.1445	72.5079	98.1445	71.793	98.1445	72.4619	98.1445	71.8669	98.1445	72.4088	98.1445	71.9425	98.1445	72.3511	98.1445	72.0175	98.1445	72.2901	98.1445	72.0902	98.1445	72.2265	98.1445	72.1599
101.074	72.412	101.074	72.3448	101.074	72.4833	101.074	72.2838	101.074	72.5573	101.074	72.2314	101.074	72.6325	101.074	72.1904	101.074	72.708	101.074	72.1643	101.074	72.7834	101.074	72.1566	101.074	72.8588	101.074	72.1704	101.074	72.9347	101.074	72.2078	101.074	73.0112	101.074	72.2691	101.074	73.0876	101.074	72.3529	101.074	73.1621	101.074	72.4557	101.074	73.2312	101.074	72.5725	101.074	73.2907	101.074	72.6975	101.074	73.3361	101.074	72.8244	101.074	73.3632	101.074	72.9476	101.074	73.3688	101.074	73.0619	101.074	73.3512	101.074	73.1627	101.074	73.31	101.074	73.2464
105.469	74.1601	105.469	74.0821	105.469	74.2067	105.469	73.9756	105.469	74.22	105.469	73.8445	105.469	74.199	105.469	73.6933	105.469	74.1444	105.469	73.5278	105.469	74.0584	105.469	73.3545	105.469	73.9453	105.469	73.181	105.469	73.8113	105.469	73.0159	105.469	73.6647	105.469	72.8678	105.469	73.5154	105.469	72.7448	105.469	73.3733	105.469	72.6536	105.469	73.2472	105.469	72.5977	105.469	73.1428	105.469	72.5775	105.469	73.0613	105.469	72.5894	105.469	72.9991	105.469	72.6265	105.469	72.9494	105.469	72.6802	105.469	72.9038	105.469	72.7409	105.469	72.8555	105.469	72.801
108.398	74.6661	108.398	74.5886	108.398	74.7209	108.398	74.4922	108.398	74.75	108.398	74.3809	108.398	74.7509	108.398	74.259	108.398	74.7228	108.398	74.1304	108.398	74.6657	108.398	73.9994	108.398	74.5817	108.398	73.8699	108.398	74.4739	108.398	73.746	108.398	74.3474	108.398	73.6316	108.398	74.2082	108.398	73.5304	108.398	74.0636	108.398	73.4458	108.398	73.9212	108.398	73.38	108.398	73.7885	108.398	73.3341	108.398	73.6712	108.398	73.3077	108.398	73.5729	108.398	73.2989	108.398	73.4941	108.398	73.3047	108.398	73.4328	108.398	73.3223	108.398	73.3856	108.398	73.3494
112.793	75.1503	112.793	75.0764	112.793	75.1988	112.793	74.98	112.793	75.2205	112.793	74.8646	112.793	75.2148	112.793	74.7347	112.793	75.1823	112.793	74.5957	112.793	75.1247	112.793	74.453	112.793	75.0445	112.793	74.3128	112.793	74.9453	112.793	74.181	112.793	74.832	112.793	74.0633	112.793	74.7103	112.793	73.9647	112.793	74.5865	112.793	73.889	112.793	74.4672	112.793	73.8385	112.793	74.358	112.793	73.8135	112.793	74.2625	112.793	73.812	112.793	74.1818	112.793	73.8301	112.793	74.1139	112.793	73.863	112.793	74.0554	112.793	73.9052	112.793	74.0024	112.793	73.9524
117.188	75.9062	117.188	75.8136	117.188	75.9771	117.188	75.7031	117.188	76.0228	117.188	75.5786	117.188	76.0406	117.188	75.444	117.188	76.0283	117.188	75.3037	117.188	75.9854	117.188	75.1619	117.188	75.9126	117.188	75.023	117.188	75.8123	117.188	74.8916	117.188	75.6881	117.188	74.7718	117.188	75.5455	117.188	74.6672	117.188	75.3912	117.188	74.5808	117.188	75.2327	117.188	74.5145	117.188	75.0783	117.188	74.4689	117.188	74.9354	117.188	74.4433	117.188	74.8099	117.188	74.436	117.188	74.7047	117.188	74.4448	117.188	74.62	117.188	74.4678	117.188	74.554	117.188	74.504
120.117	76.3159	120.117	76.2337	120.117	76.3781	120.117	76.1359	120.117	76.4166	120.117	76.0265	120.117	76.4283	120.117	75.9092	120.117	76.4112	120.117	75.7874	120.117	76.3647	120.117	75.6638	120.117	76.2894	120.117	75.5409	120.117	76.1876	120.117	75.4209	120.117	76.0625	120.117	75.306	120.117	75.9187	120.117	75.1986	120.117	75.762	120.117	75.1012	120.117	75.5993	120.117	75.0164	120.117	75.4386	120.117	74.9464	120.117	75.2881	120.117	74.8929	120.117	75.1549	120.117	74.8569	120.117	75.0441	120.117	74.8387	120.117	74.958	120.117	74.8386	120.117	74.8963	120.117	74.8573
124.512	76.8222	124.512	76.7421	124.512	76.8855	124.512	76.6493	124.512	76.9295	124.512	76.5485	124.512	76.9526	124.512	76.4443	124.512	76.955	124.512	76.3413	124.512	76.9379	124.512	76.2431	124.512	76.903	124.512	76.1527	124.512	76.8522	124.512	76.0718	124.512	76.7868	124.512	76.0014	124.512	76.708	124.512	75.9416	124.512	76.6168	124.512	75.8926	124.512	76.5148	124.512	75.8542	124.512	76.4052	124.512	75.8264	124.512	76.2927	124.512	75.8095	124.512	76.1829	124.512	75.8043	124.512	76.0819	124.512	75.8116	124.512	75.9943	124.512	75.8329	124.512	75.9233	124.512	75.8697
128.906	77.5296	128.906	77.4603	128.906	77.5895	128.906	77.3846	128.906	77.6382	128.906	77.3059	128.906	77.6745	128.906	77.2279	128.906	77.6982	128.906	77.1541	128.906	77.7098	128.906	77.0876	128.906	77.7103	128.906	77.0307	128.906	77.7004	128.906	76.9844	128.906	77.6807	128.906	76.9491	128.906	77.6509	128.906	76.9242	128.906	77.6104	128.906	76.9087	128.906	77.5585	128.906	76.9016	128.906	77.495	128.906	76.9021	128.906	77.4212	128.906	76.9102	128.906	77.3402	128.906	76.9265	128.906	77.2564	128.906	76.9524	128.906	77.1753	128.906	76.9895	128.906	77.1017	128.906	77.0392
133.301	78.268	133.301	78.197	133.301	78.3243	133.301	78.1151	133.301	78.3633	133.301	78.0265	133.301	78.3837	133.301	77.9354	133.301	78.3858	133.301	77.8463	133.301	78.3713	133.301	77.7631	133.301	78.3432	133.301	77.689	133.301	78.3055	133.301	77.6268	133.301	78.2619	133.301	77.5783	133.301	78.2157	133.301	77.5446	133.301	78.169	133.301	77.526	133.301	78.1225	133.301	77.5225	133.301	78.0758	133.301	77.5331	133.301	78.0277	133.301	77.5568	133.301	77.9768	133.301	77.5918	133.301	77.9224	133.301	77.6364	133.301	77.8648	133.301	77.6884	133.301	77.8051	133.301	77.7455
139.16	79.1122	139.16	79.0457	139.16	79.1596	139.16	78.9636	139.16	79.186	139.16	78.8707	139.16	79.1917	139.16	78.7726	139.16	79.1788	139.16	78.6749	139.16	79.1509	139.16	78.5828	139.16	79.1124	139.16	78.5005	139.16	79.0677	139.16	78.431	139.16	79.0204	139.16	78.3763	139.16	78.9728	139.16	78.3373	139.16	78.9258	139.16	78.314	139.16	78.8793	139.16	78.3058	139.16	78.8322	139.16	78.3118	139.16	78.7835	139.16	78.3309	139.16	78.732	139.16	78.3617	139.16	78.6777	139.16	78.4024	139.16	78.6208	139.16	78.451	139.16	78.5626	139.16	78.5053
143.555	79.6774	143.555	79.6032	143.555	79.7342	143.555	79.5151	143.555	79.7717	143.555	79.4181	143.555	79.79	143.555	79.3183	143.555	79.7906	143.555	79.222	143.555	79.7762	143.555	79.1348	143.555	79.7498	143.555	79.0613	143.555	79.7147	143.555	79.0043	143.555	79.6738	143.555	78.9651	143.555	79.6297	143.555	78.9433	143.555	79.584	143.555	78.9378	143.555	79.5379	143.555	78.9464	143.555	79.4918	143.555	78.9671	143.555	79.4453	143.555	78.9981	143.555	79.3976	143.555	79.0373	143.555	79.3481	143.555	79.0833	143.555	79.2962	143.555	79.1341	143.555	79.2424	143.555	79.1878
147.949	80.3432	147.949	80.2663	147.949	80.4037	147.949	80.1771	147.949	80.4454	147.949	80.0808	147.949	80.4676	147.949	79.9832	147.949	80.4712	147.949	79.89	147.949	80.4587	147.949	79.8066	147.949	80.4334	147.949	79.7368	147.949	80.399	147.949	79.6833	147.949	80.3587	147.949	79.6469	147.949	80.3148	147.949	79.6268	147.949	80.2686	147.949	79.6216	147.949	80.2203	147.949	79.6288	147.949	80.1699	147.949	79.6463	147.949	80.1173	147.949	79.6722	147.949	80.0623	147.949	79.7051	147.949	80.0058	147.949	79.7443	147.949	79.9487	147.949	79.7892	147.949	79.8925	147.949	79.8389
153.809	81.0424	153.809	80.972	153.809	81.092	153.809	80.8849	153.809	81.1191	153.809	80.787	153.809	81.1246	153.809	80.6856	153.809	81.1117	153.809	80.588	153.809	81.0856	153.809	80.5016	153.809	81.0522	153.809	80.4324	153.809	81.0173	153.809	80.3848	153.809	80.9855	153.809	80.3612	153.809	80.9595	153.809	80.3614	153.809	80.9401	153.809	80.3831	153.809	80.9262	153.809	80.4222	153.809	80.9152	153.809	80.4735	153.809	80.9039	153.809	80.5321	153.809	80.8891	153.809	80.5933	153.809	80.8685	153.809	80.6533	153.809	80.8404	153.809	80.7097	153.809	80.8043	153.809	80.7605
159.668	81.6323	159.668	81.5682	159.668	81.6792	159.668	81.491	159.668	81.7068	159.668	81.406	159.668	81.7153	159.668	81.3191	159.668	81.7068	159.668	81.2363	159.668	81.6846	159.668	81.1625	159.668	81.6533	159.668	81.1016	159.668	81.6172	159.668	81.0566	159.668	81.5804	159.668	81.0289	159.668	81.5462	159.668	81.019	159.668	81.5165	159.668	81.0262	159.668	81.4921	159.668	81.0485	159.668	81.472	159.668	81.0832	159.668	81.4542	159.668	81.1266	159.668	81.436	159.668	81.175	159.668	81.4147	159.668	81.2247	159.668	81.3883	159.668	81.2728	159.668	81.3558	159.668	81.317
165.527	82.383	165.527	82.3061	165.527	82.4427	165.527	82.2168	165.527	82.4823	165.527	82.1212	165.527	82.5007	165.527	82.0261	165.527	82.499	165.527	81.9381	165.527	82.4802	165.527	81.8633	165.527	82.4487	165.527	81.8066	165.527	82.4099	165.527	81.7713	165.527	82.3695	165.527	81.7587	165.527	82.3327	165.527	81.7683	165.527	82.303	165.527	81.7978	165.527	82.2821	165.527	81.8429	165.527	82.2693	165.527	81.8986	165.527	82.2617	165.527	81.9596	165.527	82.2553	165.527	82.0209	165.527	82.2458	165.527	82.0784	165.527	82.2301	165.527	82.1295	165.527	82.2058	165.527	82.1723
171.387	83.4736	171.387	83.4086	171.387	83.5123	171.387	83.3206	171.387	83.5226	171.387	83.2137	171.387	83.5042	171.387	83.0925	171.387	83.4586	171.387	82.9624	171.387	83.3892	171.387	82.8289	171.387	83.3008	171.387	82.6983	171.387	83.1994	171.387	82.5771	171.387	83.0916	171.387	82.472	171.387	82.984	171.387	82.3892	171.387	82.883	171.387	82.3332	171.387	82.794	171.387	82.3061	171.387	82.7205	171.387	82.3065	171.387	82.6638	171.387	82.3295	171.387	82.6218	171.387	82.368	171.387	82.5902	171.387	82.4138	171.387	82.5629	171.387	82.4596	171.387	82.5344	171.387	82.5004
177.246	83.9955	177.246	83.9377	177.246	84.0281	177.246	83.8567	177.246	84.0363	177.246	83.7566	177.246	84.023	177.246	83.6431	177.246	83.9929	177.246	83.5229	177.246	83.9515	177.246	83.4025	177.246	83.9032	177.246	83.2882	177.246	83.8512	177.246	83.1854	177.246	83.7963	177.246	83.0988	177.246	83.7379	177.246	83.0317	177.246	83.6748	177.246	82.9859	177.246	83.6063	177.246	82.9615	177.246	83.533	177.246	82.9571	177.246	83.457	177.246	82.9697	177.246	83.381	177.246	82.9956	177.246	83.3082	177.246	83.0314	177.246	83.2405	177.246	83.0746	177.246	83.1791	177.246	83.1239
183.105	84.3355	183.105	84.278	183.105	84.3732	183.105	84.2048	183.105	84.3897	183.105	84.1219	183.105	84.3867	183.105	84.0364	183.105	84.3689	183.105	83.955	183.105	84.3433	183.105	83.8829	183.105	84.3176	183.105	83.8232	183.105	84.2991	183.105	83.7766	183.105	84.2921	183.105	83.7424	183.105	84.297	183.105	83.7197	183.105	84.31	183.105	83.7079	183.105	84.3235	183.105	83.7077	183.105	84.3289	183.105	83.7207	183.105	84.3184	183.105	83.7484	183.105	84.2874	183.105	83.7917	183.105	84.2355	183.105	83.8501	183.105	84.1661	183.105	83.9215	183.105	84.0858	183.105	84.0019
188.965	84.9553	188.965	84.8778	188.965	85.0033	188.965	84.7773	188.965	85.0184	188.965	84.6625	188.965	85.0003	188.965	84.5438	188.965	84.9519	188.965	84.4321	188.965	84.8786	188.965	84.3374	188.965	84.7884	188.965	84.2672	188.965	84.691	188.965	84.2254	188.965	84.5973	188.965	84.2117	188.965	84.5182	188.965	84.2215	188.965	84.4626	188.965	84.2479	188.965	84.4351	188.965	84.2835	188.965	84.4344	188.965	84.3222	188.965	84.4526	188.965	84.3603	188.965	84.4784	188.965	84.3963	188.965	84.5001	188.965	84.4301	188.965	84.5099	188.965	84.4613	188.965	84.5051	188.965	84.4875
196.289	85.6283	196.289	85.5687	196.289	85.6604	196.289	85.4865	196.289	85.6633	196.289	85.3887	196.289	85.6388	196.289	85.2835	196.289	85.5922	196.289	85.1791	196.289	85.5309	196.289	85.0823	196.289	85.4628	196.289	84.9982	196.289	85.3954	196.289	84.9298	196.289	85.3336	196.289	84.8786	196.289	85.2801	196.289	84.8446	196.289	85.2348	196.289	84.8271	196.289	85.1963	196.289	84.8242	196.289	85.1623	196.289	84.8338	196.289	85.1307	196.289	84.853	196.289	85.0998	196.289	84.8789	196.289	85.0688	196.289	84.9088	196.289	85.0373	196.289	84.9405	196.289	85.0053	196.289	84.9729
203.613	86.1079	203.613	86.0384	203.613	86.1412	203.613	85.9386	203.613	86.1364	203.613	85.8177	203.613	86.0958	203.613	85.6868	203.613	86.0259	203.613	85.5574	203.613	85.9362	203.613	85.4403	203.613	85.8383	203.613	85.3436	203.613	85.7436	203.613	85.2726	203.613	85.6617	203.613	85.229	203.613	85.5992	203.613	85.2116	203.613	85.5588	203.613	85.2169	203.613	85.5392	203.613	85.2403	203.613	85.5359	203.613	85.2764	203.613	85.5419	203.613	85.3204	203.613	85.5494	203.613	85.3678	203.613	85.5518	203.613	85.4151	203.613	85.5445	203.613	85.459	203.613	85.526	203.613	85.4968
210.938	86.3856	210.938	86.3184	210.938	86.4178	210.938	86.2206	210.938	86.4149	210.938	86.1005	210.938	86.3808	210.938	85.9689	210.938	86.3234	210.938	85.8385	210.938	86.2526	210.938	85.7213	210.938	86.1791	210.938	85.6276	210.938	86.1119	210.938	85.5639	210.938	86.0569	210.938	85.5322	210.938	86.0166	210.938	85.5303	210.938	85.9904	210.938	85.5529	210.938	85.9756	210.938	85.5928	210.938	85.9688	210.938	85.6431	210.938	85.9657	210.938	85.6976	210.938	85.9624	210.938	85.7518	210.938	85.9551	210.938	85.8027	210.938	85.941	210.938	85.8484	210.938	85.9185	210.938	85.8874
218.262	86.6477	218.262	86.5643	218.262	86.6959	218.262	86.4511	218.262	86.7076	218.262	86.3171	218.262	86.6853	218.262	86.1742	218.262	86.6352	218.262	86.0364	218.262	86.5661	218.262	85.9178	218.262	86.4891	218.262	85.8312	218.262	86.4157	218.262	85.7854	218.262	86.3572	218.262	85.784	218.262	86.322	218.262	85.8243	218.262	86.3149	218.262	85.8981	218.262	86.335	218.262	85.9938	218.262	86.3757	218.262	86.0992	218.262	86.4261	218.262	86.2035	218.262	86.4739	218.262	86.2987	218.262	86.5089	218.262	86.38	218.262	86.5246	218.262	86.4448	218.262	86.5186	218.262	86.4915
225.586	87.1048	225.586	87.0368	225.586	87.1315	225.586	86.9328	225.586	87.1153	225.586	86.8015	225.586	87.0587	225.586	86.6542	225.586	86.9688	225.586	86.5043	225.586	86.8562	225.586	86.3665	225.586	86.7351	225.586	86.2549	225.586	86.6209	225.586	86.1813	225.586	86.5286	225.586	86.1522	225.586	86.4706	225.586	86.1677	225.586	86.4538	225.586	86.2214	225.586	86.4776	225.586	86.302	225.586	86.5329	225.586	86.3963	225.586	86.6044	225.586	86.4922	225.586	86.675	225.586	86.5804	225.586	86.7305	225.586	86.6551	225.586	86.7627	225.586	86.713	225.586	86.7693	225.586	86.7519
232.91	87.4019	232.91	87.3458	232.91	87.4121	232.91	87.2462	232.91	87.3779	232.91	87.1084	232.91	87.3038	232.91	86.941	232.91	87.1974	232.91	86.7552	232.91	87.0677	232.91	86.5649	232.91	86.9247	232.91	86.3856	232.91	86.7786	232.91	86.2336	232.91	86.6401	232.91	86.1233	232.91	86.5212	232.91	86.0644	232.91	86.4348	232.91	86.0592	232.91	86.3913	232.91	86.1022	232.91	86.3938	232.91	86.1811	232.91	86.435	232.91	86.2802	232.91	86.4974	232.91	86.3838	232.91	86.5601	232.91	86.4786	232.91	86.6048	232.91	86.5542	232.91	86.6205	232.91	86.6031
241.699	87.3409	241.699	87.254	241.699	87.3822	241.699	87.1259	241.699	87.3785	241.699	86.9662	241.699	87.3355	241.699	86.7885	241.699	87.263	241.699	86.6088	241.699	87.1727	241.699	86.4431	241.699	87.0763	241.699	86.3051	241.699	86.9832	241.699	86.2046	241.699	86.8994	241.699	86.1459	241.699	86.8272	241.699	86.1283	241.699	86.7671	241.699	86.1466	241.699	86.719	241.699	86.1927	241.699	86.6827	241.699	86.2569	241.699	86.6576	241.699	86.3297	241.699	86.6414	241.699	86.4025	241.699	86.6297	241.699	86.4689	241.699	86.6169	241.699	86.5246	241.699	86.5976	241.699	86.5675
250.488	87.6026	250.488	87.4801	250.488	87.6621	250.488	87.3016	250.488	87.6574	250.488	87.0802	250.488	87.5935	250.488	86.8351	250.488	87.4806	250.488	86.5898	250.488	87.3343	250.488	86.3697	250.488	87.1739	250.488	86.1979	250.488	87.0201	250.488	86.0899	250.488	86.8921	250.488	86.0507	250.488	86.8042	250.488	86.0743	250.488	86.7631	250.488	86.1467	250.488	86.7653	250.488	86.2503	250.488	86.7983	250.488	86.3683	250.488	86.8442	250.488	86.487	250.488	86.8851	250.488	86.5974	250.488	86.9083	250.488	86.6943	250.488	86.908	250.488	86.7752	250.488	86.8841	250.488	86.839
259.277	87.7555	259.277	87.6465	259.277	87.8132	259.277	87.4894	259.277	87.8186	259.277	87.2897	259.277	87.7735	259.277	87.0557	259.277	87.6831	259.277	86.8002	259.277	87.5558	259.277	86.5426	259.277	87.4029	259.277	86.3101	259.277	87.2379	259.277	86.1346	259.277	87.0752	259.277	86.0442	259.277	86.9304	259.277	86.0519	259.277	86.8192	259.277	86.1483	259.277	86.755	259.277	86.305	259.277	86.7438	259.277	86.4864	259.277	86.7803	259.277	86.661	259.277	86.8475	259.277	86.8085	259.277	86.9228	259.277	86.9192	259.277	86.9855	259.277	86.9908	259.277	87.0216	259.277	87.0243
268.066	87.7223	268.066	87.6281	268.066	87.7567	268.066	87.4799	268.066	87.7299	268.066	87.2858	268.066	87.6469	268.066	87.0553	268.066	87.5204	268.066	86.7989	268.066	87.3695	268.066	86.5294	268.066	87.2173	268.066	86.2642	268.066	87.0853	268.066	86.0265	268.066	86.9882	268.066	85.8444	268.066	86.9312	268.066	85.7447	268.066	86.9102	268.066	85.7426	268.066	86.9145	268.066	85.8338	268.066	86.931	268.066	85.9945	268.066	86.9471	268.066	86.1898	268.066	86.9537	268.066	86.3862	268.066	86.9454	268.066	86.5596	268.066	86.9194	268.066	86.6983	268.066	86.8728	268.066	86.8011
276.855	87.6856	276.855	87.5702	276.855	87.7373	276.855	87.3943	276.855	87.7279	276.855	87.1675	276.855	87.6653	276.855	86.9057	276.855	87.561	276.855	86.6294	276.855	87.429	276.855	86.3616	276.855	87.2847	276.855	86.1252	276.855	87.1446	276.855	85.9415	276.855	87.0267	276.855	85.8281	276.855	86.9498	276.855	85.7976	276.855	86.9294	276.855	85.8539	276.855	86.9694	276.855	85.9894	276.855	87.0571	276.855	86.1843	276.855	87.1648	276.855	86.4112	276.855	87.2599	276.855	86.6421	276.855	87.3169	276.855	86.855	276.855	87.3225	276.855	87.036	276.855	87.2747	276.855	87.1776
287.109	87.1421	287.109	87.0808	287.109	87.1578	287.109	86.9728	287.109	87.1351	287.109	86.8217	287.109	87.0861	287.109	86.635	287.109	87.0256	287.109	86.4224	287.109	86.9658	287.109	86.1969	287.109	86.9117	287.109	85.9753	287.109	86.8601	287.109	85.7799	287.109	86.8026	287.109	85.6377	287.109	86.7338	287.109	85.5741	287.109	86.6587	287.109	85.6044	287.109	86.594	287.109	85.7247	287.109	86.5622	287.109	85.9125	287.109	86.5777	287.109	86.1339	287.109	86.6363	287.109	86.355	287.109	86.715	287.109	86.5481	287.109	86.7822	287.109	86.6944	287.109	86.8104	287.109	86.783
297.363	87.5229	297.363	87.478	297.363	87.4897	297.363	87.3564	297.363	87.3813	297.363	87.1632	297.363	87.2068	297.363	86.9078	297.363	86.9838	297.363	86.6057	297.363	86.7386	297.363	86.2787	297.363	86.503	297.363	85.9545	297.363	86.3093	297.363	85.6643	297.363	86.184	297.363	85.4382	297.363	86.1428	297.363	85.2992	297.363	86.1861	297.363	85.2584	297.363	86.2969	297.363	85.3124	297.363	86.4427	297.363	85.4449	297.363	86.5836	297.363	85.6318	297.363	86.6841	297.363	85.847	297.363	86.7221	297.363	86.0675	297.363	86.6919	297.363	86.2752	297.363	86.5994	297.363	86.4564
307.617	86.7115	307.617	86.5945	307.617	86.7608	307.617	86.427	307.617	86.7324	307.617	86.229	307.617	86.6268	307.617	86.0186	307.617	86.4569	307.617	85.8088	307.617	86.2462	307.617	85.6072	307.617	86.0244	307.617	85.4179	307.617	85.8212	307.617	85.2467	307.617	85.6602	307.617	85.1056	307.617	85.5572	307.617	85.0149	307.617	85.5207	307.617	84.9969	307.617	85.5525	307.617	85.0646	307.617	85.6454	307.617	85.2117	307.617	85.7806	307.617	85.4126	307.617	85.9288	307.617	85.6321	307.617	86.0574	307.617	85.8373	307.617	86.1399	307.617	86.0033	307.617	86.1605	307.617	86.114
319.336	86.6206	319.336	86.528	319.336	86.6317	319.336	86.3561	319.336	86.565	319.336	86.1134	319.336	86.4304	319.336	85.8147	319.336	86.2428	319.336	85.4813	319.336	86.0195	319.336	85.1411	319.336	85.777	319.336	84.8265	319.336	85.5314	319.336	84.5707	319.336	85.3028	319.336	84.4007	319.336	85.1223	319.336	84.3317	319.336	85.0329	319.336	84.3643	319.336	85.0732	319.336	84.4869	319.336	85.248	319.336	84.6807	319.336	85.5118	319.336	84.9246	319.336	85.7865	319.336	85.1972	319.336	85.9971	319.336	85.476	319.336	86.0977	319.336	85.7354	319.336	86.076	319.336	85.946
329.59	86.0624	329.59	86.0149	329.59	86.0309	329.59	85.9008	329.59	85.9147	329.59	85.7339	329.59	85.7213	329.59	85.5231	329.59	85.4725	329.59	85.2716	329.59	85.2013	329.59	84.9788	329.59	84.9422	329.59	84.6475	329.59	84.7212	329.59	84.292	329.59	84.5502	329.59	83.9453	329.59	84.4314	329.59	83.6582	329.59	84.3661	329.59	83.4866	329.59	84.3602	329.59	83.4684	329.59	84.421	329.59	83.604	329.59	84.5451	329.59	83.8558	329.59	84.7085	329.59	84.1661	329.59	84.8689	329.59	84.4767	329.59	84.979	329.59	84.7401	329.59	85.0024	329.59	84.9219
341.309	86.5194	341.309	86.3752	341.309	86.5595	341.309	86.1456	341.309	86.4907	341.309	85.8569	341.309	86.3256	341.309	85.5372	341.309	86.0936	341.309	85.2127	341.309	85.8328	341.309	84.9058	341.309	85.5758	341.309	84.6354	341.309	85.3385	341.309	84.4175	341.309	85.1206	341.309	84.2661	341.309	84.9204	341.309	84.1919	341.309	84.753	341.309	84.2003	341.309	84.6552	341.309	84.2884	341.309	84.6658	341.309	84.4434	341.309	84.7916	341.309	84.6441	341.309	84.9922	341.309	84.8647	341.309	85.1994	341.309	85.0784	341.309	85.3513	341.309	85.2582	341.309	85.4129	341.309	85.3775
353.027	86.6513	353.027	86.5438	353.027	86.6409	353.027	86.3335	353.027	86.5167	353.027	86.0509	353.027	86.3037	353.027	85.7367	353.027	86.0448	353.027	85.4329	353.027	85.7908	353.027	85.1726	353.027	85.5832	353.027	84.9713	353.027	85.4382	353.027	84.8274	353.027	85.3429	353.027	84.7296	353.027	85.271	353.027	84.669	353.027	85.2046	353.027	84.6447	353.027	85.1491	353.027	84.6624	353.027	85.1281	353.027	84.7276	353.027	85.1617	353.027	84.8385	353.027	85.2453	353.027	84.9837	353.027	85.3469	353.027	85.1429	353.027	85.4243	353.027	85.29	353.027	85.4453	353.027	85.3979
366.211	86.7496	366.211	86.7125	366.211	86.6762	366.211	86.5783	366.211	86.4968	366.211	86.3703	366.211	86.2387	366.211	86.1133	366.211	85.9497	366.211	85.8289	366.211	85.6871	366.211	85.5354	366.211	85.4983	366.211	85.2522	366.211	85.4018	366.211	85.0064	366.211	85.3835	366.211	84.8351	366.211	85.4123	366.211	84.7768	366.211	85.4668	366.211	84.8534	366.211	85.5483	366.211	85.0533	366.211	85.6699	366.211	85.3317	366.211	85.8328	366.211	85.6293	366.211	86.013	366.211	85.8959	366.211	86.173	366.211	86.1023	366.211	86.2826	366.211	86.241	366.211	86.3299	366.211	86.3156
379.395	87.0894	379.395	86.8899	379.395	87.1835	379.395	86.6143	379.395	87.1591	379.395	86.3024	379.395	87.0204	379.395	85.9943	379.395	86.7889	379.395	85.7184	379.395	86.5001	379.395	85.4838	379.395	86.1961	379.395	85.2845	379.395	85.9127	379.395	85.1132	379.395	85.6675	379.395	84.9762	379.395	85.4613	379.395	84.8972	379.395	85.2938	379.395	84.9077	379.395	85.1832	379.395	85.0256	379.395	85.1681	379.395	85.2387	379.395	85.2811	379.395	85.5076	379.395	85.5108	379.395	85.7827	379.395	85.7934	379.395	86.0202	379.395	86.0468	379.395	86.1862	379.395	86.2094	379.395	86.2551
392.578	87.529	392.578	87.334	392.578	87.6055	392.578	87.0405	392.578	87.5534	392.578	86.6783	392.578	87.3728	392.578	86.285	392.578	87.077	392.578	85.9005	392.578	86.695	392.578	85.5578	392.578	86.2713	392.578	85.2763	392.578	85.8587	392.578	85.0624	392.578	85.5063	392.578	84.9174	392.578	85.2458	392.578	84.844	392.578	85.0857	392.578	84.8459	392.578	85.0141	392.578	84.9194	392.578	85.01	392.578	85.0461	392.578	85.0544	392.578	85.1954	392.578	85.1335	392.578	85.334	392.578	85.2347	392.578	85.4362	392.578	85.3411	392.578	85.4876	392.578	85.431	392.578	85.4843
405.762	87.8984	405.762	87.6941	405.762	87.9408	405.762	87.3561	405.762	87.8115	405.762	86.9291	405.762	87.5234	405.762	86.4704	405.762	87.1136	405.762	86.0389	405.762	86.6393	405.762	85.6779	405.762	86.1641	405.762	85.4009	405.762	85.7402	405.762	85.1928	405.762	85.401	405.762	85.0303	405.762	85.1716	405.762	84.9042	405.762	85.0789	405.762	84.829	405.762	85.1353	405.762	84.8321	405.762	85.3072	405.762	84.9285	405.762	85.5173	405.762	85.1011	405.762	85.6887	405.762	85.3051	405.762	85.7847	405.762	85.4929	405.762	85.8105	405.762	85.6362	405.762	85.7884	405.762	85.7316
420.41	87.281	420.41	87.1561	420.41	87.2169	420.41	86.8676	420.41	86.9674	420.41	86.4635	420.41	86.573	420.41	86.0082	420.41	86.1119	420.41	85.5718	420.41	85.6819	420.41	85.2129	420.41	85.3587	420.41	84.9627	420.41	85.1531	420.41	84.8205	420.41	85.0108	420.41	84.7667	420.41	84.8642	420.41	84.7807	420.41	84.6988	420.41	84.8502	420.41	84.5827	420.41	84.9687	420.41	84.6202	420.41	85.1263	420.41	84.8471	420.41	85.3046	420.41	85.1827	420.41	85.4808	420.41	85.5015	420.41	85.6349	420.41	85.7201	420.41	85.7528	420.41	85.8199	420.41	85.8213
435.059	86.8934	435.059	86.9491	435.059	86.6632	435.059	86.8361	435.059	86.2796	435.059	86.5762	435.059	85.7989	435.059	86.2012	435.059	85.3131	435.059	85.7537	435.059	84.9319	435.059	85.294	435.059	84.7366	435.059	84.903	435.059	84.7162	435.059	84.6642	435.059	84.7541	435.059	84.6222	435.059	84.7036	435.059	84.7504	435.059	84.4912	435.059	84.966	435.059	84.1823	435.059	85.1793	435.059	83.9781	435.059	85.3324	435.059	84.0757	435.059	85.4127	435.059	84.4592	435.059	85.4439	435.059	84.922	435.059	85.463	435.059	85.2775	435.059	85.4912	435.059	85.4625	435.059	85.5103
451.172	87.8992	451.172	87.6457	451.172	87.9433	451.172	87.2123	451.172	87.7714	451.172	86.6562	451.172	87.3923	451.172	86.0561	451.172	86.8289	451.172	85.4896	451.172	86.1247	451.172	85.0032	451.172	85.3602	451.172	84.6038	451.172	84.662	451.172	84.2849	451.172	84.1667	451.172	84.0668	451.172	83.9304	451.172	84.0162	451.172	83.875	451.172	84.2123	451.172	83.8596	451.172	84.6585	451.172	83.7965	451.172	85.2355	451.172	83.7098	451.172	85.7676	451.172	83.7215	451.172	86.1148	451.172	83.9613	451.172	86.2063	451.172	84.4441	451.172	86.0305	451.172	85.0504	451.172	85.6203
465.82	88.0648	465.82	87.7906	465.82	88.1127	465.82	87.3208	465.82	87.9283	465.82	86.7088	465.82	87.5352	465.82	86.0306	465.82	86.9917	465.82	85.3779	465.82	86.3842	465.82	84.8355	465.82	85.802	465.82	84.4487	465.82	85.3023	465.82	84.2055	465.82	84.8965	465.82	84.057	465.82	84.5734	465.82	83.9685	465.82	84.3394	465.82	83.9614	465.82	84.236	465.82	84.1001	465.82	84.3113	465.82	84.4188	465.82	84.5665	465.82	84.8647	465.82	84.9369	465.82	85.3272	465.82	85.3292	465.82	85.7039	465.82	85.667	465.82	85.934	465.82	85.9007	465.82	85.9972
483.398	87.7958	483.398	87.5559	483.398	87.7865	483.398	87.1108	483.398	87.5147	483.398	86.5389	483.398	87.0011	483.398	85.9492	483.398	86.3082	483.398	85.4553	483.398	85.5466	483.398	85.1274	483.398	84.8609	483.398	84.9587	483.398	84.3893	483.398	84.8806	483.398	84.2055	483.398	84.8175	483.398	84.2805	483.398	84.7428	483.398	84.5025	483.398	84.7	483.398	84.7486	483.398	84.7642	483.398	84.9479	483.398	84.967	483.398	85.0974	483.398	85.2597	483.398	85.2358	483.398	85.5505	483.398	85.3967	483.398	85.7627	483.398	85.5759	483.398	85.8608	483.398	85.7391	483.398	85.8454
499.512	87.1548	499.512	86.8283	499.512	87.2111	499.512	86.2721	499.512	86.9936	499.512	85.562	499.512	86.5448	499.512	84.8167	499.512	85.9568	499.512	84.1948	499.512	85.3487	499.512	83.8479	499.512	84.8171	499.512	83.8354	499.512	84.3948	499.512	84.0815	499.512	84.0627	499.512	84.4336	499.512	83.8074	499.512	84.7624	499.512	83.6661	499.512	85.0168	499.512	83.7107	499.512	85.2194	499.512	83.9813	499.512	85.4247	499.512	84.4376	499.512	85.6669	499.512	84.9782	499.512	85.9314	499.512	85.4966	499.512	86.1659	499.512	85.9172	499.512	86.3129	499.512	86.2002	499.512	86.3311
517.09	87.4378	517.09	87.0442	517.09	87.5535	517.09	86.4034	517.09	87.4002	517.09	85.5832	517.09	87.0306	517.09	84.689	517.09	86.537	517.09	83.8649	517.09	86.0329	517.09	83.278	517.09	85.621	517.09	83.0568	517.09	85.3449	517.09	83.201	517.09	85.1473	517.09	83.5757	517.09	84.8955	517.09	84.0211	517.09	84.4782	517.09	84.446	517.09	83.8991	517.09	84.8272	517.09	83.3279	517.09	85.1618	517.09	83.0528	517.09	85.4299	517.09	83.2465	517.09	85.596	517.09	83.7772	517.09	85.6308	517.09	84.3834	517.09	85.5252	517.09	84.9011	517.09	85.2821
536.133	87.2215	536.133	86.6046	536.133	87.5086	536.133	85.7107	536.133	87.4608	536.133	84.6368	536.133	87.1196	536.133	83.5133	536.133	86.5667	536.133	82.4865	536.133	85.9093	536.133	81.7145	536.133	85.2648	536.133	81.3615	536.133	84.7536	536.133	81.5067	536.133	84.4895	536.133	82.0294	536.133	84.5241	536.133	82.6983	536.133	84.7649	536.133	83.352	536.133	84.9965	536.133	83.9488	536.133	85.0358	536.133	84.518	536.133	84.8807	536.133	85.083	536.133	84.7488	536.133	85.6089	536.133	84.9029	536.133	86.0135	536.133	85.3461	536.133	86.213	536.133	85.836	536.133	86.1545
555.176	87.469	555.176	87.2585	555.176	87.2876	555.176	86.6883	555.176	86.7465	555.176	85.8352	555.176	85.9578	555.176	84.7969	555.176	85.1011	555.176	83.6634	555.176	84.3649	555.176	82.5213	555.176	83.8669	555.176	81.5307	555.176	83.6079	555.176	80.9791	555.176	83.5245	555.176	81.0902	555.176	83.6012	555.176	81.7606	555.176	83.8856	555.176	82.6861	555.176	84.3662	555.176	83.6301	555.176	84.8907	555.176	84.4854	555.176	85.2811	555.176	85.2082	555.176	85.4925	555.176	85.7628	555.176	85.626	555.176	86.1162	555.176	85.7991	555.176	86.2562	555.176	86.0203	555.176	86.2041
574.219	87.132	574.219	86.5094	574.219	87.4085	574.219	85.5915	574.219	87.3423	574.219	84.4758	574.219	86.9774	574.219	83.2807	574.219	86.3688	574.219	82.1174	574.219	85.5745	574.219	81.0943	574.219	84.7007	574.219	80.3616	574.219	83.9312	574.219	80.1186	574.219	83.4372	574.219	80.478	574.219	83.2668	574.219	81.2943	574.219	83.3668	574.219	82.2637	574.219	83.6462	574.219	83.181	574.219	84.0048	574.219	84.0054	574.219	84.3731	574.219	84.7539	574.219	84.7465	574.219	85.4019	574.219	85.1512	574.219	85.8814	574.219	85.571	574.219	86.1328	574.219	85.9302	574.219	86.1393
594.727	86.5265	594.727	85.6501	594.727	87.0091	594.727	84.4283	594.727	87.123	594.727	83.0227	594.727	86.9253	594.727	81.7186	594.727	86.472	594.727	80.8253	594.727	85.8161	594.727	80.4362	594.727	85.0387	594.727	80.3135	594.727	84.2879	594.727	80.1178	594.727	83.7697	594.727	79.7819	594.727	83.6444	594.727	79.8146	594.727	83.8807	594.727	80.8595	594.727	84.1971	594.727	82.5659	594.727	84.2796	594.727	84.1914	594.727	84.1031	594.727	85.4312	594.727	84.0264	594.727	86.262	594.727	84.445	594.727	86.7237	594.727	85.26	594.727	86.8432	594.727	86.0713	594.727	86.624
615.234	86.3681	615.234	85.996	615.234	86.4093	615.234	85.3986	615.234	86.0764	615.234	84.7107	615.234	85.3936	615.234	84.0107	615.234	84.4822	615.234	83.2641	615.234	83.6249	615.234	82.4255	615.234	83.2254	615.234	81.6547	615.234	83.4677	615.234	81.2638	615.234	84.07	615.234	81.1836	615.234	84.6043	615.234	80.9682	615.234	84.8926	615.234	80.5093	615.234	85.0979	615.234	80.4748	615.234	85.484	615.234	81.7261	615.234	86.0493	615.234	83.796	615.234	86.5805	615.234	85.6968	615.234	86.9778	615.234	87.0079	615.234	87.3145	615.234	87.6851	615.234	87.6392	615.234	87.8336
637.207	86.9055	637.207	86.8201	637.207	86.7027	637.207	86.4821	637.207	86.2491	637.207	85.9595	637.207	85.6523	637.207	85.3178	637.207	84.965	637.207	84.5836	637.207	84.0629	637.207	83.7169	637.207	82.7958	637.207	82.6834	637.207	81.4876	637.207	81.6731	637.207	81.3354	637.207	81.149	637.207	82.6857	637.207	81.2767	637.207	84.1429	637.207	81.5685	637.207	84.8496	637.207	81.5402	637.207	84.9325	637.207	81.3401	637.207	85.0769	637.207	81.7605	637.207	85.6814	637.207	83.0977	637.207	86.3698	637.207	84.6344	637.207	86.746	637.207	85.7974	637.207	86.7684	637.207	86.4769
659.18	88.5354	659.18	88.3195	659.18	88.3451	659.18	87.6988	659.18	87.8315	659.18	86.7859	659.18	87.0692	659.18	85.7258	659.18	86.0827	659.18	84.5852	659.18	84.9191	659.18	83.3602	659.18	83.6849	659.18	82.095	659.18	82.4771	659.18	81.0031	659.18	81.4651	659.18	80.493	659.18	81.1948	659.18	80.8354	659.18	82.174	659.18	81.6834	659.18	83.62	659.18	82.4413	659.18	84.4921	659.18	82.873	659.18	84.6432	659.18	83.1793	659.18	84.7364	659.18	83.7561	659.18	85.3803	659.18	84.6859	659.18	86.1574	659.18	85.6381	659.18	86.5017	659.18	86.2986
682.617	88.8121	682.617	88.3877	682.617	88.7717	682.617	87.6445	682.617	88.2005	682.617	86.731	682.617	87.1042	682.617	85.6781	682.617	85.4908	682.617	84.4075	682.617	83.4272	682.617	82.9675	682.617	81.46	682.617	81.713	682.617	80.7696	682.617	81.0484	682.617	81.4943	682.617	80.9745	682.617	82.3951	682.617	81.2533	682.617	82.9323	682.617	81.7697	682.617	83.6531	682.617	82.4437	682.617	84.8244	682.617	83.1519	682.617	85.7739	682.617	83.8751	682.617	86.1531	682.617	84.7013	682.617	86.3294	682.617	85.6136	682.617	86.6665	682.617	86.4169	682.617	86.9612	682.617	86.9015
707.52	88.1909	707.52	87.75	707.52	88.6237	707.52	87.3838	707.52	88.8749	707.52	87.066	707.52	88.6695	707.52	86.5875	707.52	87.7644	707.52	85.6756	707.52	86.11	707.52	84.2565	707.52	83.9278	707.52	82.6454	707.52	81.8984	707.52	81.4249	707.52	81.4124	707.52	80.8895	707.52	82.559	707.52	80.9823	707.52	83.5689	707.52	81.8303	707.52	83.797	707.52	83.2427	707.52	84.1558	707.52	84.4966	707.52	85.3891	707.52	85.1518	707.52	86.4332	707.52	85.2791	707.52	86.4987	707.52	85.2322	707.52	85.8507	707.52	85.211	707.52	85.2855	707.52	85.1728
732.422	90.4646	732.422	89.9651	732.422	90.6449	732.422	89.2977	732.422	90.4127	732.422	88.5564	732.422	89.7103	732.422	87.6259	732.422	88.4633	732.422	86.3135	732.422	86.6284	732.422	84.6674	732.422	84.3852	732.422	83.108	732.422	82.1426	732.422	82.1425	732.422	80.2676	732.422	81.8487	732.422	79.9175	732.422	81.9254	732.422	81.7464	732.422	82.2085	732.422	83.3712	732.422	82.8242	732.422	83.6173	732.422	83.8596	732.422	83.0511	732.422	85.0683	732.422	83.564	732.422	86.0662	732.422	85.0477	732.422	86.6318	732.422	86.0344	732.422	86.7663	732.422	86.4349	732.422	86.6409
757.324	91.4237	757.324	91.1338	757.324	91.3791	757.324	90.5619	757.324	90.9854	757.324	89.7209	757.324	90.2583	757.324	88.5192	757.324	89.1803	757.324	86.9121	757.324	87.6637	757.324	85.0947	757.324	85.6754	757.324	83.4184	757.324	83.4262	757.324	82.1315	757.324	81.3721	757.324	81.2457	757.324	80.1014	757.324	80.7193	757.324	80.2988	757.324	80.8853	757.324	82.2151	757.324	82.2576	757.324	84.7302	757.324	84.1829	757.324	86.5595	757.324	85.5722	757.324	87.3907	757.324	86.2464	757.324	87.7226	757.324	86.7188	757.324	88.0816	757.324	87.3606	757.324	88.2724	757.324	87.9934
785.156	91.6852	785.156	91.0167	785.156	91.807	785.156	90.0454	785.156	91.4552	785.156	89.1764	785.156	90.787	785.156	88.5614	785.156	89.5826	785.156	87.899	785.156	87.639	785.156	87.0453	785.156	85.6812	785.156	86.2028	785.156	84.6535	785.156	85.4301	785.156	84.0566	785.156	84.7175	785.156	83.2601	785.156	84.4361	785.156	81.8315	785.156	84.6073	785.156	79.6234	785.156	84.7051	785.156	79.1907	785.156	85.2	785.156	82.0307	785.156	86.1604	785.156	84.8356	785.156	86.7428	785.156	86.5493	785.156	86.896	785.156	87.2556	785.156	86.9919	785.156	87.3315	785.156	87.1674
811.523	91.5182	811.523	91.0996	811.523	91.7906	811.523	90.6973	811.523	91.579	811.523	90.149	811.523	90.6248	811.523	89.2126	811.523	88.9969	811.523	87.9136	811.523	87.4199	811.523	86.4126	811.523	86.6229	811.523	84.7808	811.523	85.901	811.523	83.3216	811.523	84.3565	811.523	82.5916	811.523	82.6452	811.523	82.2156	811.523	82.4541	811.523	81.3164	811.523	83.2884	811.523	81.106	811.523	83.9659	811.523	82.4039	811.523	84.2686	811.523	83.5694	811.523	84.4529	811.523	84.2466	811.523	84.8888	811.523	85.2939	811.523	86.0348	811.523	86.6978	811.523	87.2381	811.523	87.5247
840.82	92.7233	840.82	92.2023	840.82	92.7916	840.82	91.4676	840.82	92.3653	840.82	90.7134	840.82	91.4853	840.82	89.7463	840.82	90.0901	840.82	88.3458	840.82	88.0806	840.82	86.9183	840.82	85.6186	840.82	85.9802	840.82	83.377	840.82	85.0309	840.82	81.8213	840.82	83.3179	840.82	79.5303	840.82	81.7738	840.82	73.5939	840.82	82.4386	840.82	75.51	840.82	83.4942	840.82	81.0689	840.82	84.7706	840.82	84.5816	840.82	86.6446	840.82	87.1356	840.82	87.6612	840.82	88.0549	840.82	87.82	840.82	87.6833	840.82	87.7121	840.82	87.3011	840.82	87.4807
870.117	93.5233	870.117	92.593	870.117	93.3312	870.117	90.86	870.117	92.0144	870.117	89.0811	870.117	89.8808	870.117	88.3053	870.117	87.7829	870.117	88.5061	870.117	87.2794	870.117	88.8502	870.117	88.3364	870.117	89.1176	870.117	89.062	870.117	89.1372	870.117	88.7911	870.117	88.4813	870.117	88.1797	870.117	86.696	870.117	87.2755	870.117	84.0106	870.117	85.3505	870.117	82.3062	870.117	83.0832	870.117	82.4416	870.117	80.9151	870.117	83.1545	870.117	79.3724	870.117	84.2072	870.117	84.0374	870.117	85.538	870.117	87.0111	870.117	86.7361	870.117	87.7669	870.117	87.5018
900.879	92.6669	900.879	92.5327	900.879	92.4725	900.879	91.933	900.879	92.197	900.879	90.8382	900.879	91.6994	900.879	89.218	900.879	90.5464	900.879	87.2633	900.879	88.622	900.879	85.5616	900.879	86.3777	900.879	84.8762	900.879	84.5647	900.879	85.0879	900.879	83.5598	900.879	85.1655	900.879	83.4657	900.879	84.424	900.879	83.855	900.879	82.6977	900.879	83.3674	900.879	81.388	900.879	82.7204	900.879	83.1958	900.879	84.1539	900.879	84.7095	900.879	84.9178	900.879	84.943	900.879	84.9039	900.879	85.3566	900.879	86.0461	900.879	86.4322	900.879	87.1819	900.879	87.2711
933.105	92.685	933.105	92.039	933.105	93.0349	933.105	91.4566	933.105	92.6924	933.105	90.871	933.105	91.3935	933.105	89.7564	933.105	89.3169	933.105	87.9446	933.105	87.4541	933.105	86.4157	933.105	86.1287	933.105	86.0574	933.105	84.5267	933.105	86.0814	933.105	82.8339	933.105	85.7873	933.105	81.6198	933.105	85.6482	933.105	81.4798	933.105	85.2513	933.105	83.2197	933.105	83.3435	933.105	84.1306	933.105	81.4306	933.105	81.114	933.105	82.1607	933.105	75.8494	933.105	83.0667	933.105	82.3029	933.105	84.6653	933.105	85.3976	933.105	86.6008	933.105	86.8942	933.105	87.4577
965.332	92.9151	965.332	92.2706	965.332	92.7331	965.332	91.0255	965.332	91.5695	965.332	89.4604	965.332	89.7933	965.332	88.1806	965.332	88.6464	965.332	87.5552	965.332	88.178	965.332	87.4447	965.332	87.1767	965.332	87.2662	965.332	85.8323	965.332	86.6294	965.332	84.6965	965.332	85.3262	965.332	84.1166	965.332	84.1181	965.332	83.936	965.332	84.1219	965.332	82.2068	965.332	82.2482	965.332	81.6369	965.332	77.6464	965.332	84.4893	965.332	76.6286	965.332	84.5366	965.332	79.9328	965.332	81.9198	965.332	83.4238	965.332	82.6885	965.332	85.4392	965.332	84.988	965.332	85.9368
1,000.49	91.9893	1,000.49	92.1201	1,000.49	91.5529	1,000.49	91.7242	1,000.49	91.0938	1,000.49	90.4659	1,000.49	90.4569	1,000.49	88.2855	1,000.49	89.0265	1,000.49	86.1351	1,000.49	86.774	1,000.49	84.7423	1,000.49	84.1533	1,000.49	83.6819	1,000.49	80.6009	1,000.49	83.2686	1,000.49	75.8007	1,000.49	82.3465	1,000.49	71.7858	1,000.49	78.8298	1,000.49	68.0108	1,000.49	74.1513	1,000.49	69.9641	1,000.49	72.7546	1,000.49	74.0742	1,000.49	75.1778	1,000.49	75.9094	1,000.49	78.8679	1,000.49	79.1918	1,000.49	82.5685	1,000.49	81.6334	1,000.49	84.8282	1,000.49	81.8043	1,000.49	85.5593	1,000.49	82.647	1,000.49	84.7158
1,035.64	91.2489	1,035.64	91.2407	1,035.64	91.1554	1,035.64	90.8963	1,035.64	90.7868	1,035.64	89.7807	1,035.64	89.7632	1,035.64	88.184	1,035.64	88.1758	1,035.64	87.1162	1,035.64	86.4975	1,035.64	86.2625	1,035.64	84.1889	1,035.64	84.5987	1,035.64	81.6825	1,035.64	82.482	1,035.64	80.86	1,035.64	80.7671	1,035.64	80.3222	1,035.64	79.8112	1,035.64	79.4227	1,035.64	79.2793	1,035.64	79.0386	1,035.64	77.6051	1,035.64	78.0185	1,035.64	74.8285	1,035.64	80.987	1,035.64	77.979	1,035.64	82.5377	1,035.64	82.05	1,035.64	82.641	1,035.64	84.1349	1,035.64	82.8923	1,035.64	84.9044	1,035.64	83.0413	1,035.64	84.1379
1,072.27	90.8889	1,072.27	91.1973	1,072.27	90.1445	1,072.27	90.7287	1,072.27	89.6672	1,072.27	89.353	1,072.27	89.3101	1,072.27	87.7036	1,072.27	88.0266	1,072.27	87.0852	1,072.27	85.7748	1,072.27	87.3774	1,072.27	83.5993	1,072.27	87.6814	1,072.27	81.5766	1,072.27	87.3446	1,072.27	79.4494	1,072.27	86.0486	1,072.27	80.3347	1,072.27	84.7005	1,072.27	81.6627	1,072.27	84.2764	1,072.27	81.0752	1,072.27	83.1681	1,072.27	80.8722	1,072.27	80.3619	1,072.27	79.5294	1,072.27	79.6375	1,072.27	71.663	1,072.27	81.4646	1,072.27	78.9418	1,072.27	82.7546	1,072.27	82.1318	1,072.27	83.0641	1,072.27	82.1434	1,072.27	82.5064
1,108.89	88.9924	1,108.89	89.0497	1,108.89	90.1144	1,108.89	90.0597	1,108.89	90.3182	1,108.89	90.0389	1,108.89	88.426	1,108.89	88.263	1,108.89	85.2523	1,108.89	85.3913	1,108.89	83.6318	1,108.89	83.159	1,108.89	82.0328	1,108.89	81.7156	1,108.89	78.3243	1,108.89	79.9949	1,108.89	76.5882	1,108.89	79.6747	1,108.89	77.1622	1,108.89	78.5755	1,108.89	75.5813	1,108.89	77.0201	1,108.89	76.5654	1,108.89	76.9987	1,108.89	72.5273	1,108.89	77.6477	1,108.89	75.0763	1,108.89	77.9102	1,108.89	78.6603	1,108.89	80.8924	1,108.89	78.6904	1,108.89	81.6888	1,108.89	80.2597	1,108.89	80.7058	1,108.89	80.0131	1,108.89	79.3119
1,148.44	88.9574	1,148.44	89.1414	1,148.44	88.8757	1,148.44	89.095	1,148.44	88.4432	1,148.44	88.4248	1,148.44	86.7107	1,148.44	87.2555	1,148.44	83.9256	1,148.44	85.9878	1,148.44	82.1978	1,148.44	84.3614	1,148.44	80.7322	1,148.44	81.7371	1,148.44	78.2527	1,148.44	79.925	1,148.44	75.6247	1,148.44	81.1845	1,148.44	76.3166	1,148.44	81.7869	1,148.44	76.3939	1,148.44	81.3926	1,148.44	75.6157	1,148.44	82.3068	1,148.44	79.5607	1,148.44	80.9442	1,148.44	80.7936	1,148.44	78.22	1,148.44	73.5298	1,148.44	79.8026	1,148.44	74.5977	1,148.44	80.0277	1,148.44	80.0113	1,148.44	78.9805	1,148.44	80.3215	1,148.44	79.156
1,189.45	88.6194	1,189.45	88.361	1,189.45	88.602	1,189.45	88.3189	1,189.45	87.2063	1,189.45	88.0064	1,189.45	84.2344	1,189.45	87.2846	1,189.45	82.9623	1,189.45	86.043	1,189.45	82.8324	1,189.45	83.7815	1,189.45	80.9147	1,189.45	81.4744	1,189.45	76.6593	1,189.45	80.2069	1,189.45	69.316	1,189.45	79.798	1,189.45	67.9875	1,189.45	79.5687	1,189.45	68.7907	1,189.45	78.1884	1,189.45	73.1498	1,189.45	78.2796	1,189.45	73.3455	1,189.45	78.7422	1,189.45	71.031	1,189.45	77.1024	1,189.45	73.3836	1,189.45	77.2564	1,189.45	69.8607	1,189.45	78.7151	1,189.45	72.7966	1,189.45	79.2973	1,189.45	78.4839	1,189.45	79.8081
1,230.47	88.8501	1,230.47	88.4486	1,230.47	88.1889	1,230.47	87.4867	1,230.47	86.1976	1,230.47	86.9142	1,230.47	83.0417	1,230.47	86.4937	1,230.47	80.8655	1,230.47	85.0645	1,230.47	79.2059	1,230.47	82.8492	1,230.47	73.9054	1,230.47	81.443	1,230.47	69.7262	1,230.47	80.6838	1,230.47	74.3838	1,230.47	80.7653	1,230.47	73.5589	1,230.47	82.3811	1,230.47	69.5201	1,230.47	82.4277	1,230.47	66.9693	1,230.47	82.0117	1,230.47	68.0176	1,230.47	80.7513	1,230.47	76.2185	1,230.47	76.1453	1,230.47	74.5259	1,230.47	76.6434	1,230.47	67.3173	1,230.47	78.2637	1,230.47	74.5754	1,230.47	77.5995	1,230.47	77.3243	1,230.47	77.379
1,274.41	88.3271	1,274.41	88.4596	1,274.41	86.7612	1,274.41	87.4302	1,274.41	84.3532	1,274.41	86.0613	1,274.41	82.7439	1,274.41	85.3214	1,274.41	80.1233	1,274.41	85.1175	1,274.41	72.3566	1,274.41	84.6586	1,274.41	64.6479	1,274.41	84.5523	1,274.41	74.4774	1,274.41	84.1526	1,274.41	76.8548	1,274.41	82.056	1,274.41	76.1713	1,274.41	80.3256	1,274.41	75.5125	1,274.41	79.4695	1,274.41	74.262	1,274.41	75.8752	1,274.41	73.2081	1,274.41	75.5839	1,274.41	72.846	1,274.41	77.6493	1,274.41	66.0228	1,274.41	77.3731	1,274.41	71.5437	1,274.41	78.4205	1,274.41	74.2102	1,274.41	78.7417	1,274.41	77.2237	1,274.41	78.6008
1,319.82	87.9152	1,319.82	88.2908	1,319.82	86.2222	1,319.82	87.4822	1,319.82	83.3988	1,319.82	86.3251	1,319.82	80.3459	1,319.82	85.7202	1,319.82	78.0027	1,319.82	84.9111	1,319.82	75.4946	1,319.82	82.9164	1,319.82	73.0141	1,319.82	79.8743	1,319.82	72.3626	1,319.82	76.6848	1,319.82	66.4654	1,319.82	73.2741	1,319.82	68.281	1,319.82	75.1336	1,319.82	69.3784	1,319.82	77.502	1,319.82	72.4973	1,319.82	77.1196	1,319.82	72.5507	1,319.82	77.0199	1,319.82	65.8238	1,319.82	75.6778	1,319.82	68.0156	1,319.82	75.383	1,319.82	66.2373	1,319.82	77.7272	1,319.82	71.592	1,319.82	77.6321	1,319.82	76.2206	1,319.82	77.131
1,366.7	86.8969	1,366.7	88.0432	1,366.7	84.9933	1,366.7	87.7603	1,366.7	82.7576	1,366.7	86.6123	1,366.7	77.9086	1,366.7	85.2213	1,366.7	67.9408	1,366.7	83.7551	1,366.7	73.9856	1,366.7	82.6503	1,366.7	74.4702	1,366.7	82.1986	1,366.7	71.1724	1,366.7	81.227	1,366.7	68.5653	1,366.7	79.0972	1,366.7	62.2824	1,366.7	77.3244	1,366.7	67.9067	1,366.7	77.1678	1,366.7	73.2996	1,366.7	78.3113	1,366.7	71.5421	1,366.7	79.1204	1,366.7	73.7893	1,366.7	77.8119	1,366.7	72.4672	1,366.7	75.6415	1,366.7	58.4774	1,366.7	77.2125	1,366.7	64.2151	1,366.7	79.1657	1,366.7	73.7869	1,366.7	78.3698
1,413.57	86.1484	1,413.57	87.0988	1,413.57	84.5956	1,413.57	87.3446	1,413.57	81.8415	1,413.57	86.7988	1,413.57	76.4225	1,413.57	85.3838	1,413.57	64.3033	1,413.57	83.2935	1,413.57	69.7484	1,413.57	81.5981	1,413.57	71.2906	1,413.57	80.8193	1,413.57	71.3331	1,413.57	79.7191	1,413.57	70.0742	1,413.57	78.4712	1,413.57	56.3117	1,413.57	77.6059	1,413.57	55.2252	1,413.57	76.7613	1,413.57	60.3828	1,413.57	76.3542	1,413.57	71.3078	1,413.57	77.6616	1,413.57	74.2064	1,413.57	76.6136	1,413.57	64.906	1,413.57	73.1537	1,413.57	67.4266	1,413.57	77.0406	1,413.57	61.5828	1,413.57	78.3265	1,413.57	73.1399	1,413.57	76.3007
1,463.38	84.985	1,463.38	86.1942	1,463.38	82.6618	1,463.38	86.9461	1,463.38	78.8496	1,463.38	87.2493	1,463.38	71.928	1,463.38	85.9199	1,463.38	68.414	1,463.38	83.7704	1,463.38	73.0795	1,463.38	81.8963	1,463.38	76.4576	1,463.38	77.2841	1,463.38	77.3504	1,463.38	70.4251	1,463.38	77.4798	1,463.38	69.7477	1,463.38	76.8396	1,463.38	66.165	1,463.38	72.8698	1,463.38	72.8523	1,463.38	70.6459	1,463.38	75.0336	1,463.38	64.2725	1,463.38	75.9455	1,463.38	66.6735	1,463.38	76.5911	1,463.38	71.3254	1,463.38	74.0658	1,463.38	68.4084	1,463.38	76.0998	1,463.38	65.2837	1,463.38	76.9841	1,463.38	69.883	1,463.38	74.004
1,516.11	84.2209	1,516.11	85.3524	1,516.11	81.5467	1,516.11	86.4497	1,516.11	75.5231	1,516.11	86.9901	1,516.11	60.058	1,516.11	85.7712	1,516.11	72.0774	1,516.11	83.9072	1,516.11	77.0188	1,516.11	81.6931	1,516.11	79.0919	1,516.11	77.973	1,516.11	79.1554	1,516.11	74.3633	1,516.11	76.4571	1,516.11	73.5619	1,516.11	74.3766	1,516.11	72.9951	1,516.11	73.9954	1,516.11	71.9882	1,516.11	72.2502	1,516.11	76.6411	1,516.11	72.4656	1,516.11	75.4343	1,516.11	75.1197	1,516.11	73.6438	1,516.11	75.4228	1,516.11	73.4014	1,516.11	69.2241	1,516.11	76.1212	1,516.11	61.392	1,516.11	79.034	1,516.11	53.5748	1,516.11	74.1192
1,568.85	83.5363	1,568.85	84.8528	1,568.85	80.8472	1,568.85	85.9027	1,568.85	74.5276	1,568.85	86.0016	1,568.85	60.134	1,568.85	84.9453	1,568.85	76.1203	1,568.85	83.8798	1,568.85	80.6901	1,568.85	82.3204	1,568.85	80.3832	1,568.85	79.3052	1,568.85	76.6417	1,568.85	77.0598	1,568.85	76.5761	1,568.85	76.1535	1,568.85	77.4992	1,568.85	74.7656	1,568.85	73.6579	1,568.85	72.9302	1,568.85	76.9896	1,568.85	73.4428	1,568.85	77.2947	1,568.85	76.548	1,568.85	71.8781	1,568.85	78.331	1,568.85	69.3818	1,568.85	74.4663	1,568.85	73.2029	1,568.85	72.0058	1,568.85	71.717	1,568.85	75.1015	1,568.85	72.1667	1,568.85	75.0275
1,624.51	83.8926	1,624.51	84.8213	1,624.51	81.5745	1,624.51	86.7364	1,624.51	65.6741	1,624.51	86.9005	1,624.51	76.6504	1,624.51	84.6201	1,624.51	79.5645	1,624.51	82.9922	1,624.51	80.3487	1,624.51	82.4008	1,624.51	78.8325	1,624.51	81.3148	1,624.51	77.7457	1,624.51	79.6309	1,624.51	76.5841	1,624.51	76.0535	1,624.51	75.1496	1,624.51	71.4873	1,624.51	74.5975	1,624.51	72.8802	1,624.51	76.4078	1,624.51	74.6075	1,624.51	74.851	1,624.51	76.2242	1,624.51	72.7823	1,624.51	76.8022	1,624.51	74.7412	1,624.51	76.734	1,624.51	73.9189	1,624.51	72.5433	1,624.51	62.0978	1,624.51	74.9213	1,624.51	70.8606	1,624.51	74.6721
1,681.64	84.2726	1,681.64	86.8051	1,681.64	80.5409	1,681.64	87.6384	1,681.64	71.8588	1,681.64	86.6699	1,681.64	75.0424	1,681.64	86.209	1,681.64	79.7022	1,681.64	84.4076	1,681.64	81.7329	1,681.64	81.6307	1,681.64	82.0433	1,681.64	79.1838	1,681.64	79.7685	1,681.64	73.7985	1,681.64	73.1732	1,681.64	76.1592	1,681.64	75.849	1,681.64	72.2891	1,681.64	73.5157	1,681.64	65.1752	1,681.64	70.7927	1,681.64	71.0568	1,681.64	76.3894	1,681.64	77.6442	1,681.64	72.548	1,681.64	79.9921	1,681.64	67.8092	1,681.64	78.3529	1,681.64	75.7514	1,681.64	74.6331	1,681.64	66.0899	1,681.64	75.436	1,681.64	71.2826	1,681.64	72.5699
1,741.7	84.1948	1,741.7	87.666	1,741.7	80.05	1,741.7	87.6872	1,741.7	75.4967	1,741.7	85.6508	1,741.7	74.7576	1,741.7	85.6138	1,741.7	81.6124	1,741.7	84.6655	1,741.7	82.4345	1,741.7	84.108	1,741.7	80.9245	1,741.7	82.7775	1,741.7	78.5652	1,741.7	77.9693	1,741.7	74.8797	1,741.7	75.2617	1,741.7	76.3943	1,741.7	76.4738	1,741.7	69.6663	1,741.7	77.7253	1,741.7	67.6176	1,741.7	74.9604	1,741.7	71.5527	1,741.7	78.3344	1,741.7	77.7562	1,741.7	77.4034	1,741.7	76.6379	1,741.7	77.6788	1,741.7	71.6641	1,741.7	75.3607	1,741.7	70.1871	1,741.7	77.8667	1,741.7	67.4137	1,741.7	74.3802
1,803.22	85.1592	1,803.22	88.6432	1,803.22	82.6566	1,803.22	89.0839	1,803.22	75.1929	1,803.22	87.0963	1,803.22	78.2373	1,803.22	85.8802	1,803.22	81.5989	1,803.22	84.3478	1,803.22	81.5431	1,803.22	83.2748	1,803.22	81.6662	1,803.22	81.758	1,803.22	81.1828	1,803.22	78.137	1,803.22	76.5119	1,803.22	75.2339	1,803.22	74.4531	1,803.22	80.1914	1,803.22	78.2612	1,803.22	80.0529	1,803.22	76.5675	1,803.22	76.5971	1,803.22	67.1021	1,803.22	78.215	1,803.22	75.4164	1,803.22	79.2522	1,803.22	79.2973	1,803.22	79.0802	1,803.22	72.8305	1,803.22	74.0146	1,803.22	65.6116	1,803.22	73.8743	1,803.22	73.1823	1,803.22	77.2554
1,866.21	86.6587	1,866.21	88.7594	1,866.21	80.7585	1,866.21	88.8415	1,866.21	75.1245	1,866.21	88.5793	1,866.21	72.8117	1,866.21	86.6737	1,866.21	80.9769	1,866.21	81.743	1,866.21	84.6348	1,866.21	78.1178	1,866.21	82.7611	1,866.21	80.6007	1,866.21	77.274	1,866.21	76.2566	1,866.21	76.1751	1,866.21	74.7774	1,866.21	75.457	1,866.21	78.7325	1,866.21	73.7159	1,866.21	77.2243	1,866.21	65.2032	1,866.21	74.8796	1,866.21	78.0375	1,866.21	68.6168	1,866.21	74.2261	1,866.21	79.8623	1,866.21	76.943	1,866.21	77.4367	1,866.21	72.7731	1,866.21	68.1018	1,866.21	69.5593	1,866.21	69.4413	1,866.21	75.1599	1,866.21	75.1546
1,932.13	87.3284	1,932.13	88.8041	1,932.13	83.2469	1,932.13	89.9049	1,932.13	76.0165	1,932.13	89.5676	1,932.13	70.1143	1,932.13	87.3513	1,932.13	80.4754	1,932.13	84.1672	1,932.13	82.9946	1,932.13	81.6481	1,932.13	81.0779	1,932.13	80.1828	1,932.13	80.5125	1,932.13	77.7441	1,932.13	74.5277	1,932.13	76.6811	1,932.13	70.439	1,932.13	75.4336	1,932.13	74.4824	1,932.13	77.4537	1,932.13	74.4042	1,932.13	75.5722	1,932.13	71.5116	1,932.13	64.883	1,932.13	74.5623	1,932.13	75.3005	1,932.13	69.6982	1,932.13	78.8918	1,932.13	69.0714	1,932.13	73.5509	1,932.13	67.7002	1,932.13	74.8777	1,932.13	68.0551	1,932.13	74.1121
1,999.51	88.0922	1,999.51	88.7564	1,999.51	84.4356	1,999.51	89.0489	1,999.51	77.0836	1,999.51	87.9684	1,999.51	71.8847	1,999.51	86.3581	1,999.51	79.8922	1,999.51	84.2406	1,999.51	82.6362	1,999.51	82.3306	1,999.51	82.1449	1,999.51	77.5424	1,999.51	80.2176	1,999.51	75.3213	1,999.51	75.8193	1,999.51	75.7125	1,999.51	70.3675	1,999.51	73.2838	1,999.51	73.4533	1,999.51	73.7177	1,999.51	74.5293	1,999.51	76.3788	1,999.51	71.6201	1,999.51	70.626	1,999.51	71.2139	1,999.51	73.6019	1,999.51	71.5435	1,999.51	79.3765	1,999.51	72.8439	1,999.51	74.7893	1,999.51	70.41	1,999.51	74.3832	1,999.51	72.1113	1,999.51	77.2808
2,069.82	87.9672	2,069.82	88.6406	2,069.82	85.0746	2,069.82	88.0842	2,069.82	78.7683	2,069.82	86.4614	2,069.82	79.8697	2,069.82	86.0705	2,069.82	82.8582	2,069.82	84.5332	2,069.82	84.394	2,069.82	82.2849	2,069.82	84.1841	2,069.82	79.455	2,069.82	81.2259	2,069.82	77.6675	2,069.82	77.6032	2,069.82	73.2383	2,069.82	73.013	2,069.82	72.7601	2,069.82	71.7235	2,069.82	76.1258	2,069.82	72.8582	2,069.82	75.1895	2,069.82	73.6307	2,069.82	74.2937	2,069.82	72.2615	2,069.82	65.0434	2,069.82	72.1088	2,069.82	79.6255	2,069.82	72.3402	2,069.82	77.1204	2,069.82	69.8456	2,069.82	73.7663	2,069.82	73.8708	2,069.82	78.104
2,143.07	87.4727	2,143.07	89.0686	2,143.07	84.5949	2,143.07	88.8708	2,143.07	78.3943	2,143.07	87.7533	2,143.07	82.4671	2,143.07	86.1755	2,143.07	84.2782	2,143.07	83.178	2,143.07	85.5563	2,143.07	81.9931	2,143.07	85.6508	2,143.07	78.4934	2,143.07	83.7115	2,143.07	78.1241	2,143.07	79.3474	2,143.07	75.5984	2,143.07	74.1415	2,143.07	74.1578	2,143.07	74.6161	2,143.07	75.0477	2,143.07	75.7381	2,143.07	77.0298	2,143.07	74.509	2,143.07	75.9453	2,143.07	73.8069	2,143.07	69.9792	2,143.07	71.7796	2,143.07	78.2582	2,143.07	73.058	2,143.07	78.2974	2,143.07	73.9318	2,143.07	72.3401	2,143.07	75.2194	2,143.07	78.9166
2,219.24	87.0107	2,219.24	89.3095	2,219.24	84.9476	2,219.24	89.7157	2,219.24	78.7587	2,219.24	89.2086	2,219.24	82.6842	2,219.24	85.414	2,219.24	84.061	2,219.24	84.3687	2,219.24	84.8018	2,219.24	82.5268	2,219.24	85.6258	2,219.24	81.9071	2,219.24	82.5648	2,219.24	77.525	2,219.24	77.4557	2,219.24	74.3792	2,219.24	75.2405	2,219.24	72.2143	2,219.24	76.9818	2,219.24	73.2005	2,219.24	79.098	2,219.24	77.0923	2,219.24	75.8582	2,219.24	76.9101	2,219.24	72.986	2,219.24	73.0006	2,219.24	73.1728	2,219.24	75.5412	2,219.24	73.6367	2,219.24	80.4917	2,219.24	73.5348	2,219.24	70.2159	2,219.24	76.2561	2,219.24	80.0268
2,296.88	86.9115	2,296.88	88.7464	2,296.88	85.4432	2,296.88	90.234	2,296.88	79.172	2,296.88	89.4161	2,296.88	83.0348	2,296.88	85.9015	2,296.88	84.4721	2,296.88	84.4787	2,296.88	85.3839	2,296.88	83.1312	2,296.88	84.8545	2,296.88	81.0883	2,296.88	82.4018	2,296.88	81.9356	2,296.88	79.0202	2,296.88	80.7848	2,296.88	72.5036	2,296.88	78.1308	2,296.88	71.607	2,296.88	70.1832	2,296.88	75.7009	2,296.88	76.9843	2,296.88	74.5253	2,296.88	78.4638	2,296.88	70.1689	2,296.88	75.7683	2,296.88	73.4936	2,296.88	74.1097	2,296.88	74.0033	2,296.88	80.041	2,296.88	73.9021	2,296.88	70.1766	2,296.88	76.4917	2,296.88	76.6913
2,378.91	87.6201	2,378.91	89.5055	2,378.91	86.3366	2,378.91	89.9957	2,378.91	81.329	2,378.91	88.1944	2,378.91	82.6308	2,378.91	86.2574	2,378.91	86.0121	2,378.91	83.8275	2,378.91	85.6527	2,378.91	82.4625	2,378.91	85.1765	2,378.91	82.7396	2,378.91	83.1813	2,378.91	80.2843	2,378.91	80.228	2,378.91	80.479	2,378.91	75.6532	2,378.91	77.0092	2,378.91	77.6408	2,378.91	75.8628	2,378.91	76.4246	2,378.91	70.6103	2,378.91	74.9481	2,378.91	79.3073	2,378.91	74.1533	2,378.91	76.5779	2,378.91	68.0253	2,378.91	70.5967	2,378.91	70.1507	2,378.91	79.6788	2,378.91	70.9412	2,378.91	75.5763	2,378.91	77.3661	2,378.91	76.498
2,462.4	88.7271	2,462.4	90.8038	2,462.4	87.1779	2,462.4	90.1403	2,462.4	84.0984	2,462.4	87.9996	2,462.4	81.1152	2,462.4	87.3216	2,462.4	86.8628	2,462.4	85.1026	2,462.4	86.3074	2,462.4	85.187	2,462.4	86.1402	2,462.4	82.7177	2,462.4	82.791	2,462.4	82.8571	2,462.4	77.9271	2,462.4	78.551	2,462.4	72.3304	2,462.4	79.5523	2,462.4	76.2977	2,462.4	77.9039	2,462.4	78.4456	2,462.4	73.2235	2,462.4	75.1649	2,462.4	77.1917	2,462.4	73.9144	2,462.4	79.2859	2,462.4	66.2963	2,462.4	69.0338	2,462.4	67.2692	2,462.4	79.6128	2,462.4	73.8661	2,462.4	76.7412	2,462.4	78.5712	2,462.4	77.5715
2,548.83	88.6754	2,548.83	91.1774	2,548.83	86.9377	2,548.83	90.8499	2,548.83	85.8127	2,548.83	89.39	2,548.83	82.4808	2,548.83	86.1804	2,548.83	86.4198	2,548.83	87.7327	2,548.83	87.0248	2,548.83	86.4922	2,548.83	86.1292	2,548.83	84.2116	2,548.83	83.4223	2,548.83	80.0766	2,548.83	83.4472	2,548.83	79.432	2,548.83	70.0508	2,548.83	79.1542	2,548.83	70.0788	2,548.83	79.1357	2,548.83	72.3744	2,548.83	74.6405	2,548.83	76.1785	2,548.83	75.1915	2,548.83	72.3081	2,548.83	80.2357	2,548.83	63.3866	2,548.83	70.8634	2,548.83	68.6411	2,548.83	80.1219	2,548.83	76.4619	2,548.83	78.4074	2,548.83	79.656	2,548.83	77.3303
2,639.65	87.7964	2,639.65	89.6801	2,639.65	86.292	2,639.65	90.1916	2,639.65	87.7786	2,639.65	88.999	2,639.65	85.5463	2,639.65	87.852	2,639.65	87.054	2,639.65	87.8836	2,639.65	88.7553	2,639.65	85.875	2,639.65	87.9425	2,639.65	84.1432	2,639.65	85.934	2,639.65	81.721	2,639.65	82.0234	2,639.65	78.3469	2,639.65	63.2136	2,639.65	76.866	2,639.65	73.521	2,639.65	77.1135	2,639.65	72.9891	2,639.65	75.9586	2,639.65	76.0075	2,639.65	72.1282	2,639.65	71.1902	2,639.65	79.9286	2,639.65	63.0254	2,639.65	76.2668	2,639.65	69.8134	2,639.65	78.3791	2,639.65	76.9642	2,639.65	78.2973	2,639.65	78.8327	2,639.65	78.1018
2,731.93	87.1242	2,731.93	88.7515	2,731.93	85.7027	2,731.93	89.3467	2,731.93	87.045	2,731.93	88.7905	2,731.93	86.6283	2,731.93	88.6384	2,731.93	88.0635	2,731.93	87.338	2,731.93	89.3582	2,731.93	85.9278	2,731.93	88.0332	2,731.93	82.7026	2,731.93	86.6499	2,731.93	79.5452	2,731.93	83.0918	2,731.93	76.6643	2,731.93	70.7813	2,731.93	75.2804	2,731.93	76.233	2,731.93	73.2989	2,731.93	71.4838	2,731.93	78.3141	2,731.93	77.7849	2,731.93	74.0313	2,731.93	67.4016	2,731.93	77.3021	2,731.93	70.2819	2,731.93	78.5028	2,731.93	70.456	2,731.93	74.7362	2,731.93	76.7058	2,731.93	79.6798	2,731.93	78.6401	2,731.93	75.6188
2,828.61	88.3707	2,828.61	89.5051	2,828.61	85.1699	2,828.61	89.7949	2,828.61	87.13	2,828.61	89.1225	2,828.61	86.8258	2,828.61	88.9383	2,828.61	88.7695	2,828.61	88.5767	2,828.61	88.8947	2,828.61	86.5192	2,828.61	88.6245	2,828.61	83.3301	2,828.61	87.7122	2,828.61	81.5909	2,828.61	81.0744	2,828.61	82.1969	2,828.61	79.134	2,828.61	75.5471	2,828.61	78.0314	2,828.61	75.2315	2,828.61	75.33	2,828.61	76.768	2,828.61	75.6181	2,828.61	76.8678	2,828.61	73.4721	2,828.61	75.3311	2,828.61	65.9806	2,828.61	79.3426	2,828.61	66.4741	2,828.61	73.8726	2,828.61	76.3894	2,828.61	80.4631	2,828.61	79.0425	2,828.61	75.371
2,928.22	89.4457	2,928.22	89.7575	2,928.22	84.8327	2,928.22	91.051	2,928.22	87.016	2,928.22	89.8911	2,928.22	87.6988	2,928.22	89.4584	2,928.22	88.7795	2,928.22	88.4268	2,928.22	89.3113	2,928.22	85.5537	2,928.22	88.5819	2,928.22	85.5615	2,928.22	87.6632	2,928.22	84.0942	2,928.22	81.6385	2,928.22	79.211	2,928.22	83.759	2,928.22	77.7306	2,928.22	76.6734	2,928.22	72.3879	2,928.22	76.5369	2,928.22	76.5271	2,928.22	72.6473	2,928.22	78.2732	2,928.22	74.3357	2,928.22	72.426	2,928.22	69.9608	2,928.22	80.6626	2,928.22	71.9768	2,928.22	75.4728	2,928.22	78.4637	2,928.22	82.1902	2,928.22	79.9454	2,928.22	76.5647
3,030.76	89.2451	3,030.76	89.8605	3,030.76	86.3284	3,030.76	91.292	3,030.76	86.8298	3,030.76	90.7176	3,030.76	87.6243	3,030.76	89.6015	3,030.76	88.1292	3,030.76	88.6808	3,030.76	89.9968	3,030.76	87.0714	3,030.76	87.3604	3,030.76	86.4667	3,030.76	87.2839	3,030.76	80.2058	3,030.76	82.9344	3,030.76	82.3486	3,030.76	84.0317	3,030.76	79.8603	3,030.76	75.05	3,030.76	77.8871	3,030.76	70.5772	3,030.76	70.8963	3,030.76	69.5652	3,030.76	79.0549	3,030.76	73.9982	3,030.76	74.9995	3,030.76	69.8242	3,030.76	79.2921	3,030.76	73.1472	3,030.76	78.0232	3,030.76	78.1515	3,030.76	82.0295	3,030.76	80.1561	3,030.76	78.2754
3,137.7	88.185	3,137.7	89.4335	3,137.7	87.0833	3,137.7	90.7691	3,137.7	86.3201	3,137.7	91.4456	3,137.7	89.0729	3,137.7	89.156	3,137.7	87.3762	3,137.7	88.972	3,137.7	90.0499	3,137.7	87.6798	3,137.7	87.8724	3,137.7	83.0512	3,137.7	87.7188	3,137.7	84.0449	3,137.7	87.6623	3,137.7	81.12	3,137.7	84.9858	3,137.7	75.1027	3,137.7	74.3836	3,137.7	78.0841	3,137.7	68.6827	3,137.7	71.9116	3,137.7	70.8839	3,137.7	77.1776	3,137.7	71.9263	3,137.7	77.4049	3,137.7	74.5409	3,137.7	78.25	3,137.7	72.9318	3,137.7	78.66	3,137.7	77.9174	3,137.7	81.1938	3,137.7	79.9636	3,137.7	79.7549
3,249.02	86.9178	3,249.02	88.7016	3,249.02	87.3758	3,249.02	89.7686	3,249.02	85.3028	3,249.02	91.0707	3,249.02	89.8641	3,249.02	89.7841	3,249.02	87.5163	3,249.02	89.6049	3,249.02	89.3058	3,249.02	87.5563	3,249.02	89.4744	3,249.02	85.3026	3,249.02	89.4679	3,249.02	81.5409	3,249.02	90.1308	3,249.02	74.8725	3,249.02	86.5982	3,249.02	75.957	3,249.02	78.1782	3,249.02	75.0304	3,249.02	69.5079	3,249.02	75.9196	3,249.02	73.153	3,249.02	69.8701	3,249.02	72.4288	3,249.02	79.1531	3,249.02	75.2225	3,249.02	74.6743	3,249.02	72.9634	3,249.02	80.5876	3,249.02	78.2368	3,249.02	79.1942	3,249.02	78.9583	3,249.02	78.7141
3,363.28	87.6351	3,363.28	89.2302	3,363.28	88.0126	3,363.28	90.686	3,363.28	84.6188	3,363.28	90.6497	3,363.28	89.6343	3,363.28	90.3057	3,363.28	87.952	3,363.28	89.3388	3,363.28	88.1222	3,363.28	87.1671	3,363.28	91.0689	3,363.28	83.6485	3,363.28	89.807	3,363.28	82.4989	3,363.28	90.4797	3,363.28	80.5254	3,363.28	84.3472	3,363.28	75.229	3,363.28	79.1227	3,363.28	75.7963	3,363.28	73.3446	3,363.28	75.4262	3,363.28	73.475	3,363.28	72.6404	3,363.28	73.2806	3,363.28	78.9059	3,363.28	73.4433	3,363.28	70.759	3,363.28	73.8875	3,363.28	80.9644	3,363.28	77.9061	3,363.28	78.1692	3,363.28	78.3885	3,363.28	80.143
3,481.93	87.091	3,481.93	89.6945	3,481.93	88.6213	3,481.93	91.7516	3,481.93	86.6287	3,481.93	90.707	3,481.93	89.2054	3,481.93	90.5558	3,481.93	88.1375	3,481.93	89.4082	3,481.93	88.2381	3,481.93	87.6167	3,481.93	91.4028	3,481.93	85.3972	3,481.93	90.0597	3,481.93	84.7423	3,481.93	88.7362	3,481.93	76.8815	3,481.93	78.4288	3,481.93	77.583	3,481.93	73.7237	3,481.93	70.095	3,481.93	74.3844	3,481.93	76.0183	3,481.93	76.4261	3,481.93	73.0716	3,481.93	72.7805	3,481.93	76.4031	3,481.93	76.1842	3,481.93	74.3563	3,481.93	76.0525	3,481.93	81.1784	3,481.93	76.7536	3,481.93	78.4429	3,481.93	77.9319	3,481.93	81.7528
3,604.98	87.0862	3,604.98	88.8977	3,604.98	87.7068	3,604.98	91.3553	3,604.98	87.4026	3,604.98	90.3944	3,604.98	88.653	3,604.98	90.3374	3,604.98	88.8661	3,604.98	89.0865	3,604.98	90.0758	3,604.98	86.4005	3,604.98	91.9798	3,604.98	86.0374	3,604.98	89.9153	3,604.98	79.3222	3,604.98	82.4349	3,604.98	81.399	3,604.98	77.335	3,604.98	77.8237	3,604.98	68.3541	3,604.98	74.2161	3,604.98	71.2289	3,604.98	72.1164	3,604.98	75.6975	3,604.98	77.5169	3,604.98	73.7528	3,604.98	72.3439	3,604.98	78.3317	3,604.98	77.4837	3,604.98	75.5994	3,604.98	80.461	3,604.98	76.5206	3,604.98	79.0265	3,604.98	76.6473	3,604.98	82.0105
3,732.42	87.8628	3,732.42	88.2806	3,732.42	88.9979	3,732.42	90.4314	3,732.42	89.1092	3,732.42	91.2446	3,732.42	88.005	3,732.42	91.006	3,732.42	89.5167	3,732.42	89.3312	3,732.42	89.0333	3,732.42	87.9546	3,732.42	91.2383	3,732.42	85.9391	3,732.42	87.4569	3,732.42	83.2805	3,732.42	83.5202	3,732.42	78.5902	3,732.42	79.9351	3,732.42	76.2773	3,732.42	79.0487	3,732.42	74.6151	3,732.42	63.6824	3,732.42	67.6776	3,732.42	74.7092	3,732.42	77.9658	3,732.42	74.7281	3,732.42	66.48	3,732.42	77.596	3,732.42	79.9381	3,732.42	74.1755	3,732.42	78.0756	3,732.42	76.8971	3,732.42	77.9547	3,732.42	76.3157	3,732.42	82.4228
3,864.26	86.9698	3,864.26	88.1237	3,864.26	88.2055	3,864.26	90.5147	3,864.26	90.9275	3,864.26	90.8123	3,864.26	88.8412	3,864.26	88.9247	3,864.26	90.7663	3,864.26	90.2854	3,864.26	89.2742	3,864.26	86.3604	3,864.26	91.1677	3,864.26	87.2811	3,864.26	86.6754	3,864.26	80.8278	3,864.26	84.6862	3,864.26	79.6834	3,864.26	82.3846	3,864.26	75.925	3,864.26	81.2497	3,864.26	77.4123	3,864.26	60.6537	3,864.26	73.1989	3,864.26	69.8264	3,864.26	74.3238	3,864.26	75.5078	3,864.26	73.598	3,864.26	78.0103	3,864.26	80.0624	3,864.26	74.8844	3,864.26	75.4432	3,864.26	73.8897	3,864.26	79.1847	3,864.26	75.0976	3,864.26	79.921
4,000.49	87.018	4,000.49	88.516	4,000.49	86.1417	4,000.49	90.0063	4,000.49	89.6355	4,000.49	90.6666	4,000.49	90.0979	4,000.49	90.0354	4,000.49	87.7619	4,000.49	89.9574	4,000.49	88.9696	4,000.49	88.1049	4,000.49	90.7344	4,000.49	84.6538	4,000.49	85.4594	4,000.49	82.9576	4,000.49	83.4446	4,000.49	81.3986	4,000.49	86.8733	4,000.49	75.104	4,000.49	79.1195	4,000.49	73.0721	4,000.49	71.3213	4,000.49	75.4381	4,000.49	68.8589	4,000.49	64.8775	4,000.49	76.5476	4,000.49	75.8874	4,000.49	76.5452	4,000.49	78.7519	4,000.49	75.7784	4,000.49	73.8588	4,000.49	70.7974	4,000.49	81.0695	4,000.49	75.3423	4,000.49	78.5345
4,141.11	87.9209	4,141.11	87.7078	4,141.11	89.2468	4,141.11	88.7592	4,141.11	88.9964	4,141.11	91.1925	4,141.11	90.6665	4,141.11	89.0231	4,141.11	87.6738	4,141.11	89.7644	4,141.11	89.7849	4,141.11	87.1658	4,141.11	88.9971	4,141.11	84.3062	4,141.11	83.8981	4,141.11	80.52	4,141.11	87.6178	4,141.11	77.7185	4,141.11	85.2548	4,141.11	76.892	4,141.11	75.857	4,141.11	71.6274	4,141.11	76.3472	4,141.11	73.6315	4,141.11	55.8937	4,141.11	65.5356	4,141.11	73.54	4,141.11	77.3381	4,141.11	77.2972	4,141.11	75.3299	4,141.11	76.5598	4,141.11	76.433	4,141.11	68.2166	4,141.11	81.2766	4,141.11	76.6659	4,141.11	78.1266
4,287.6	90.0119	4,287.6	87.8757	4,287.6	88.8619	4,287.6	91.1998	4,287.6	90.2814	4,287.6	88.6471	4,287.6	89.5763	4,287.6	90.5089	4,287.6	87.8421	4,287.6	89.3362	4,287.6	88.5944	4,287.6	85.2417	4,287.6	86.6686	4,287.6	82.6345	4,287.6	87.748	4,287.6	83.0537	4,287.6	89.2776	4,287.6	77.2534	4,287.6	78.0926	4,287.6	78.2732	4,287.6	82.7126	4,287.6	77.104	4,287.6	79.616	4,287.6	59.9103	4,287.6	58.359	4,287.6	74.0222	4,287.6	67.9724	4,287.6	77.0719	4,287.6	78.6373	4,287.6	70.0513	4,287.6	74.9447	4,287.6	76.8699	4,287.6	65.7252	4,287.6	80.4349	4,287.6	76.9886	4,287.6	77.1673
4,438.48	89.1558	4,438.48	88.4004	4,438.48	89.7295	4,438.48	89.4384	4,438.48	90.2254	4,438.48	89.8406	4,438.48	88.752	4,438.48	90.6948	4,438.48	86.7925	4,438.48	87.9024	4,438.48	87.0333	4,438.48	86.3783	4,438.48	82.8264	4,438.48	85.9646	4,438.48	90.6847	4,438.48	82.4685	4,438.48	87.4165	4,438.48	78.3208	4,438.48	84.1506	4,438.48	78.2037	4,438.48	80.3577	4,438.48	74.6626	4,438.48	76.4881	4,438.48	75.3481	4,438.48	69.0378	4,438.48	74.0367	4,438.48	74.5401	4,438.48	71.1688	4,438.48	76.7146	4,438.48	70.8853	4,438.48	75.9805	4,438.48	78.4617	4,438.48	68.9634	4,438.48	79.1856	4,438.48	74.7561	4,438.48	77.1628
4,595.21	88.7291	4,595.21	88.3226	4,595.21	90.0296	4,595.21	89.1074	4,595.21	91.1784	4,595.21	89.8003	4,595.21	87.6294	4,595.21	87.9632	4,595.21	87.3387	4,595.21	88.6164	4,595.21	84.0476	4,595.21	86.653	4,595.21	88.8717	4,595.21	84.7227	4,595.21	91.727	4,595.21	80.6666	4,595.21	84.3085	4,595.21	75.1488	4,595.21	84.6483	4,595.21	71.7849	4,595.21	75.8159	4,595.21	73.0177	4,595.21	72.8529	4,595.21	75.9408	4,595.21	73.7642	4,595.21	69.4206	4,595.21	75.4576	4,595.21	60.951	4,595.21	78.355	4,595.21	73.853	4,595.21	76.0431	4,595.21	77.4906	4,595.21	68.9348	4,595.21	76.4909	4,595.21	73.6098	4,595.21	77.0965
4,756.35	90.9567	4,756.35	89.9358	4,756.35	90.6855	4,756.35	89.7137	4,756.35	90.592	4,756.35	90.2062	4,756.35	86.7529	4,756.35	88.3699	4,756.35	85.1491	4,756.35	87.8384	4,756.35	82.7945	4,756.35	85.1094	4,756.35	91.6574	4,756.35	81.3087	4,756.35	90.7117	4,756.35	77.0884	4,756.35	83.3174	4,756.35	76.6488	4,756.35	79.5919	4,756.35	75.043	4,756.35	70.6032	4,756.35	71.3851	4,756.35	66.1491	4,756.35	72.9032	4,756.35	73.8252	4,756.35	56.3456	4,756.35	71.4095	4,756.35	63.489	4,756.35	79.5489	4,756.35	75.0125	4,756.35	75.0772	4,756.35	74.8049	4,756.35	65.9963	4,756.35	77.6653	4,756.35	72.5499	4,756.35	77.657
4,924.8	90.3719	4,924.8	89.4946	4,924.8	92.1121	4,924.8	88.4343	4,924.8	89.103	4,924.8	89.7907	4,924.8	87.4424	4,924.8	87.0363	4,924.8	84.9881	4,924.8	88.5561	4,924.8	82.7576	4,924.8	84.1017	4,924.8	91.8528	4,924.8	82.3319	4,924.8	88.4477	4,924.8	82.3347	4,924.8	84.5213	4,924.8	78.1015	4,924.8	81.9472	4,924.8	74.4641	4,924.8	73.1193	4,924.8	75.4519	4,924.8	72.2523	4,924.8	67.3033	4,924.8	66.1077	4,924.8	69.7751	4,924.8	65.5689	4,924.8	68.529	4,924.8	79.8604	4,924.8	72.001	4,924.8	75.0624	4,924.8	74.38	4,924.8	67.1953	4,924.8	77.2362	4,924.8	69.8668	4,924.8	77.7099
5,097.66	90.8242	5,097.66	89.0508	5,097.66	90.364	5,097.66	89.7637	5,097.66	91.747	5,097.66	88.2611	5,097.66	89.8859	5,097.66	89.0328	5,097.66	84.2713	5,097.66	85.1806	5,097.66	85.4709	5,097.66	85.2774	5,097.66	91.4082	5,097.66	84.18	5,097.66	86.0389	5,097.66	79.5424	5,097.66	84.5293	5,097.66	74.4609	5,097.66	83.2236	5,097.66	72.8397	5,097.66	78.0684	5,097.66	73.0173	5,097.66	74.1594	5,097.66	64.4085	5,097.66	70.4588	5,097.66	69.8206	5,097.66	71.1915	5,097.66	67.6128	5,097.66	79.3755	5,097.66	63.5238	5,097.66	73.5509	5,097.66	74.2978	5,097.66	69.994	5,097.66	75.9215	5,097.66	70.4347	5,097.66	74.5201
5,277.83	92.004	5,277.83	90.0794	5,277.83	91.4791	5,277.83	90.0536	5,277.83	90.7682	5,277.83	88.9083	5,277.83	90.1105	5,277.83	87.064	5,277.83	84.1329	5,277.83	85.7139	5,277.83	86.8837	5,277.83	84.5	5,277.83	87.3222	5,277.83	79.0216	5,277.83	85.1626	5,277.83	76.5186	5,277.83	84.8405	5,277.83	71.3073	5,277.83	83.0031	5,277.83	71.4526	5,277.83	78.4441	5,277.83	58.7257	5,277.83	72.4638	5,277.83	69.5639	5,277.83	63.8844	5,277.83	55.9554	5,277.83	64.5857	5,277.83	57.3494	5,277.83	72.641	5,277.83	66.8591	5,277.83	73.4635	5,277.83	72.6096	5,277.83	60.3912	5,277.83	76.1343	5,277.83	71.2461	5,277.83	73.5176
5,463.87	91.2525	5,463.87	90.1727	5,463.87	91.8317	5,463.87	90.0075	5,463.87	87.0262	5,463.87	88.7738	5,463.87	88.2311	5,463.87	85.8689	5,463.87	85.8082	5,463.87	86.3214	5,463.87	86.7957	5,463.87	81.5789	5,463.87	84.663	5,463.87	79.8071	5,463.87	86.4102	5,463.87	79.0064	5,463.87	83.7252	5,463.87	76.3931	5,463.87	84.0674	5,463.87	73.9253	5,463.87	76.052	5,463.87	72.241	5,463.87	73.5199	5,463.87	68.7477	5,463.87	70.5674	5,463.87	63.6546	5,463.87	76.5841	5,463.87	60.7781	5,463.87	75.0626	5,463.87	68.0746	5,463.87	74.1348	5,463.87	72.6476	5,463.87	70.2766	5,463.87	76.6953	5,463.87	73.0964	5,463.87	75.0825
5,657.23	91.2206	5,657.23	90.6387	5,657.23	92.5732	5,657.23	89.5269	5,657.23	89.0794	5,657.23	87.9031	5,657.23	86.8421	5,657.23	86.9181	5,657.23	86.7243	5,657.23	85.0078	5,657.23	85.056	5,657.23	81.4661	5,657.23	83.8394	5,657.23	81.5393	5,657.23	86.5007	5,657.23	77.1701	5,657.23	84.7178	5,657.23	71.9458	5,657.23	83.4526	5,657.23	68.6039	5,657.23	73.762	5,657.23	73.153	5,657.23	72.3212	5,657.23	66.9021	5,657.23	68.9977	5,657.23	69.1697	5,657.23	75.3036	5,657.23	59.5202	5,657.23	74.9684	5,657.23	66.8514	5,657.23	70.9617	5,657.23	69.5925	5,657.23	72.0002	5,657.23	74.5975	5,657.23	68.7357	5,657.23	73.5224
5,856.45	91.6882	5,856.45	91.3373	5,856.45	93.0671	5,856.45	90.2182	5,856.45	91.8323	5,856.45	87.6046	5,856.45	86.2122	5,856.45	86.6554	5,856.45	86.7118	5,856.45	83.3621	5,856.45	85.0795	5,856.45	82.7656	5,856.45	84.3576	5,856.45	78.6313	5,856.45	86.2439	5,856.45	76.9221	5,856.45	84.6752	5,856.45	73.7166	5,856.45	80.2012	5,856.45	71.5346	5,856.45	72.5761	5,856.45	65.1792	5,856.45	65.2769	5,856.45	71.8184	5,856.45	68.3593	5,856.45	68.5552	5,856.45	74.002	5,856.45	59.3964	5,856.45	73.5144	5,856.45	61.6382	5,856.45	73.1563	5,856.45	69.6577	5,856.45	65.6943	5,856.45	75.5539	5,856.45	67.6306	5,856.45	74.1321
6,062.99	91.9264	6,062.99	90.8744	6,062.99	92.6507	6,062.99	89.8872	6,062.99	90.61	6,062.99	88.5356	6,062.99	88.2346	6,062.99	85.8695	6,062.99	87.5087	6,062.99	84.585	6,062.99	83.0613	6,062.99	81.0779	6,062.99	83.1668	6,062.99	80.7649	6,062.99	85.7678	6,062.99	78.8099	6,062.99	83.5383	6,062.99	76.1569	6,062.99	76.7697	6,062.99	71.6167	6,062.99	71.1463	6,062.99	70.8155	6,062.99	64.4522	6,062.99	70.3488	6,062.99	69.4354	6,062.99	62.7854	6,062.99	72.1912	6,062.99	67.438	6,062.99	66.6293	6,062.99	47.9703	6,062.99	71.649	6,062.99	71.1499	6,062.99	68.6799	6,062.99	73.3679	6,062.99	69.4424	6,062.99	74.5399
6,276.86	92.0587	6,276.86	90.8911	6,276.86	91.3225	6,276.86	90.3317	6,276.86	89.5665	6,276.86	88.0461	6,276.86	89.6451	6,276.86	85.4678	6,276.86	86.0212	6,276.86	83.7032	6,276.86	81.0504	6,276.86	82.4474	6,276.86	81.1529	6,276.86	81.9538	6,276.86	83.9856	6,276.86	77.7592	6,276.86	82.3182	6,276.86	73.5727	6,276.86	72.18	6,276.86	68.9805	6,276.86	53.4181	6,276.86	70.0548	6,276.86	66.4118	6,276.86	68.7272	6,276.86	69.9451	6,276.86	66.0771	6,276.86	70.9533	6,276.86	65.8487	6,276.86	67.3769	6,276.86	59.8637	6,276.86	72.3029	6,276.86	68.0844	6,276.86	66.3073	6,276.86	72.7853	6,276.86	66.1638	6,276.86	73.4312
6,498.05	92.1229	6,498.05	91.1597	6,498.05	92.6295	6,498.05	90.4523	6,498.05	89.6372	6,498.05	88.2607	6,498.05	89.3521	6,498.05	85.6879	6,498.05	84.6263	6,498.05	83.241	6,498.05	83.0946	6,498.05	83.4243	6,498.05	79.8923	6,498.05	79.3555	6,498.05	83.105	6,498.05	77.609	6,498.05	76.3347	6,498.05	74.204	6,498.05	69.8255	6,498.05	71.0938	6,498.05	71.7523	6,498.05	63.14	6,498.05	65.1571	6,498.05	72.5261	6,498.05	67.7819	6,498.05	66.6942	6,498.05	69.085	6,498.05	60.6516	6,498.05	67.8873	6,498.05	59.3671	6,498.05	69.3608	6,498.05	67.7619	6,498.05	65.9762	6,498.05	72.1549	6,498.05	61.3025	6,498.05	73.1208
6,726.56	91.6134	6,726.56	90.7854	6,726.56	92.6226	6,726.56	90.4647	6,726.56	89.8404	6,726.56	87.6117	6,726.56	88.4042	6,726.56	85.2145	6,726.56	86.5398	6,726.56	84.1161	6,726.56	82.877	6,726.56	81.9922	6,726.56	79.2406	6,726.56	80.9435	6,726.56	77.1219	6,726.56	79.2737	6,726.56	75.5303	6,726.56	74.547	6,726.56	65.486	6,726.56	70.6299	6,726.56	74.2551	6,726.56	70.7337	6,726.56	64.4529	6,726.56	68.4157	6,726.56	61.4466	6,726.56	65.7407	6,726.56	66.1954	6,726.56	65.3993	6,726.56	68.4564	6,726.56	58.3771	6,726.56	71.4951	6,726.56	67.3552	6,726.56	68.6826	6,726.56	73.4226	6,726.56	66.5568	6,726.56	71.8167
6,963.87	92.0508	6,963.87	90.4567	6,963.87	91.8789	6,963.87	90.5052	6,963.87	89.5286	6,963.87	87.3221	6,963.87	88.0208	6,963.87	84.9154	6,963.87	87.5804	6,963.87	82.9546	6,963.87	82.5631	6,963.87	82.6156	6,963.87	77.8158	6,963.87	81.0257	6,963.87	75.8449	6,963.87	75.7223	6,963.87	79.4824	6,963.87	73.1826	6,963.87	70.7788	6,963.87	66.0667	6,963.87	73.2265	6,963.87	68.24	6,963.87	69.2282	6,963.87	65.965	6,963.87	62.2627	6,963.87	67.811	6,963.87	69.2686	6,963.87	63.7371	6,963.87	69.1068	6,963.87	45.2066	6,963.87	68.4059	6,963.87	65.9521	6,963.87	67.7794	6,963.87	70.7545	6,963.87	60.8996	6,963.87	70.9165
7,209.96	91.6023	7,209.96	90.5607	7,209.96	92.5949	7,209.96	90.6617	7,209.96	89.3969	7,209.96	86.962	7,209.96	88.98	7,209.96	84.3479	7,209.96	86.6393	7,209.96	82.5223	7,209.96	82.8826	7,209.96	83.1611	7,209.96	73.044	7,209.96	79.0425	7,209.96	81.403	7,209.96	78.065	7,209.96	79.2458	7,209.96	73.4951	7,209.96	76.371	7,209.96	71.2816	7,209.96	67.5459	7,209.96	64.9944	7,209.96	66.4815	7,209.96	68.8287	7,209.96	63.3641	7,209.96	66.5159	7,209.96	70.5694	7,209.96	63.2521	7,209.96	68.811	7,209.96	50.9258	7,209.96	68.966	7,209.96	63.4017	7,209.96	66.3251	7,209.96	72.465	7,209.96	62.8632	7,209.96	70.7899
7,464.84	90.8404	7,464.84	90.0419	7,464.84	91.9802	7,464.84	90.4723	7,464.84	90.1495	7,464.84	86.2644	7,464.84	89.5636	7,464.84	83.395	7,464.84	85.5455	7,464.84	82.9812	7,464.84	81.3855	7,464.84	81.4064	7,464.84	69.5073	7,464.84	80.617	7,464.84	82.2512	7,464.84	75.1336	7,464.84	78.9536	7,464.84	70.6952	7,464.84	75.6969	7,464.84	63.6641	7,464.84	56.8736	7,464.84	67.0027	7,464.84	56.4874	7,464.84	61.1563	7,464.84	61.3524	7,464.84	61.0516	7,464.84	70.5886	7,464.84	63.409	7,464.84	64.2	7,464.84	49.5338	7,464.84	68.319	7,464.84	65.1026	7,464.84	66.1122	7,464.84	69.697	7,464.84	64.8935	7,464.84	67.5932
7,727.05	91.1595	7,727.05	90.385	7,727.05	92.5168	7,727.05	90.7053	7,727.05	88.9654	7,727.05	86.0232	7,727.05	90.2703	7,727.05	83.3872	7,727.05	84.9222	7,727.05	82.4254	7,727.05	80.3363	7,727.05	82.4561	7,727.05	76.9543	7,727.05	75.6903	7,727.05	81.4559	7,727.05	74.8134	7,727.05	75.7965	7,727.05	70.4373	7,727.05	70.0496	7,727.05	66.6487	7,727.05	66.1831	7,727.05	61.6254	7,727.05	62.0561	7,727.05	66.706	7,727.05	59.5145	7,727.05	61.8473	7,727.05	67.1593	7,727.05	60.5607	7,727.05	65.4953	7,727.05	56.436	7,727.05	66.9022	7,727.05	62.3799	7,727.05	68.3852	7,727.05	65.688	7,727.05	62.0082	7,727.05	68.3491
7,999.51	89.8635	7,999.51	89.9604	7,999.51	92.4406	7,999.51	90.5862	7,999.51	88.696	7,999.51	84.3778	7,999.51	88.6764	7,999.51	83.8488	7,999.51	86.1972	7,999.51	82.9255	7,999.51	77.6319	7,999.51	80.0512	7,999.51	78.628	7,999.51	77.0588	7,999.51	74.6417	7,999.51	71.5709	7,999.51	75.1073	7,999.51	68.7791	7,999.51	56.9314	7,999.51	59.9977	7,999.51	66.9017	7,999.51	65.0512	7,999.51	65.9564	7,999.51	62.8239	7,999.51	59.1636	7,999.51	56.0279	7,999.51	61.4244	7,999.51	51.7925	7,999.51	68.458	7,999.51	55.4836	7,999.51	64.5826	7,999.51	61.2144	7,999.51	66.3495	7,999.51	68.7792	7,999.51	66.1939	7,999.51	69.025
8,282.23	89.4411	8,282.23	90.8406	8,282.23	92.3626	8,282.23	90.1133	8,282.23	88.881	8,282.23	83.7632	8,282.23	87.6576	8,282.23	84.6926	8,282.23	85.8524	8,282.23	82.2723	8,282.23	78.5252	8,282.23	79.6644	8,282.23	77.9373	8,282.23	69.7017	8,282.23	70.5409	8,282.23	70.4398	8,282.23	76.416	8,282.23	66.8565	8,282.23	71.9482	8,282.23	68.3062	8,282.23	63.2633	8,282.23	61.1256	8,282.23	67.6507	8,282.23	65.0874	8,282.23	61.3378	8,282.23	68.0377	8,282.23	63.9447	8,282.23	60.8118	8,282.23	64.575	8,282.23	55.0671	8,282.23	62.2689	8,282.23	63.3884	8,282.23	61.5577	8,282.23	67.2925	8,282.23	62.0962	8,282.23	63.8797
8,573.73	88.3161	8,573.73	91.1847	8,573.73	92.2549	8,573.73	89.1712	8,573.73	89.1139	8,573.73	84.2315	8,573.73	88.1626	8,573.73	85.1327	8,573.73	85.4679	8,573.73	81.6108	8,573.73	80.7409	8,573.73	77.002	8,573.73	69.2148	8,573.73	74.924	8,573.73	78.0926	8,573.73	72.8917	8,573.73	74.7687	8,573.73	68.1148	8,573.73	69.1985	8,573.73	60.0492	8,573.73	64.3829	8,573.73	63.5797	8,573.73	61.822	8,573.73	65.4384	8,573.73	57.2166	8,573.73	65.6997	8,573.73	60.8384	8,573.73	63.1122	8,573.73	64.3424	8,573.73	55.0561	8,573.73	53.5672	8,573.73	57.9453	8,573.73	62.8025	8,573.73	64.4115	8,573.73	59.6051	8,573.73	61.9088
8,876.95	89.1968	8,876.95	91.1167	8,876.95	91.318	8,876.95	88.7155	8,876.95	89.0396	8,876.95	84.6112	8,876.95	88.3337	8,876.95	84.8583	8,876.95	84.2336	8,876.95	80.0262	8,876.95	80.5997	8,876.95	78.3818	8,876.95	69.6638	8,876.95	73.2236	8,876.95	76.675	8,876.95	72.7046	8,876.95	72.5002	8,876.95	70.1029	8,876.95	46.1154	8,876.95	65.8769	8,876.95	71.4847	8,876.95	61.2211	8,876.95	43.6061	8,876.95	62.8694	8,876.95	58.1261	8,876.95	65.7518	8,876.95	51.6526	8,876.95	64.5152	8,876.95	68.6224	8,876.95	52.8427	8,876.95	60.0008	8,876.95	54.599	8,876.95	62.7245	8,876.95	65.6487	8,876.95	58.9786	8,876.95	61.6167
9,188.96	89.6099	9,188.96	90.7054	9,188.96	90.8123	9,188.96	88.6574	9,188.96	88.867	9,188.96	84.3495	9,188.96	87.6124	9,188.96	83.8558	9,188.96	83.6439	9,188.96	78.9954	9,188.96	79.327	9,188.96	77.6755	9,188.96	73.4559	9,188.96	75.5365	9,188.96	73.7634	9,188.96	72.6524	9,188.96	75.432	9,188.96	67.6058	9,188.96	61.8302	9,188.96	57.55	9,188.96	71.1924	9,188.96	63.867	9,188.96	59.4292	9,188.96	63.7354	9,188.96	58.2934	9,188.96	60.9416	9,188.96	56.0379	9,188.96	62.9511	9,188.96	68.3511	9,188.96	59.7285	9,188.96	61.867	9,188.96	55.3349	9,188.96	62.6937	9,188.96	66.0534	9,188.96	61.714	9,188.96	60.0864
9,514.16	90.2512	9,514.16	90.5094	9,514.16	90.5143	9,514.16	88.3637	9,514.16	88.7948	9,514.16	84.1592	9,514.16	86.9154	9,514.16	82.9419	9,514.16	83.7895	9,514.16	77.6523	9,514.16	76.8564	9,514.16	78.3297	9,514.16	73.0254	9,514.16	72.789	9,514.16	71.258	9,514.16	70.5436	9,514.16	74.4345	9,514.16	67.6189	9,514.16	67.2004	9,514.16	65.1143	9,514.16	71.6331	9,514.16	60.3318	9,514.16	56.529	9,514.16	60.0866	9,514.16	58.6107	9,514.16	61.3688	9,514.16	60.0613	9,514.16	63.4645	9,514.16	66.1616	9,514.16	58.2995	9,514.16	58.2474	9,514.16	58.7377	9,514.16	63.4867	9,514.16	63.2772	9,514.16	55.6604	9,514.16	59.8961
9,849.61	90.2624	9,849.61	89.9105	9,849.61	90.754	9,849.61	87.9352	9,849.61	88.3991	9,849.61	83.7651	9,849.61	87.0689	9,849.61	81.9275	9,849.61	83.2726	9,849.61	77.2801	9,849.61	77.6683	9,849.61	77.3548	9,849.61	73.1535	9,849.61	73.0947	9,849.61	74.0359	9,849.61	68.3021	9,849.61	71.5171	9,849.61	62.9916	9,849.61	70.9369	9,849.61	57.1876	9,849.61	73.4816	9,849.61	61.7068	9,849.61	62.488	9,849.61	61.3633	9,849.61	54.7399	9,849.61	62.9305	9,849.61	56.5791	9,849.61	62.0767	9,849.61	62.9941	9,849.61	60.1109	9,849.61	61.06	9,849.61	59.7006	9,849.61	65.1113	9,849.61	60.8642	9,849.61	54.5811	9,849.61	60.3033
10,196.8	90.443	10,196.8	89.961	10,196.8	90.5315	10,196.8	87.9933	10,196.8	88.3047	10,196.8	83.3348	10,196.8	87.036	10,196.8	81.0507	10,196.8	82.1187	10,196.8	77.4077	10,196.8	77.6509	10,196.8	77.6095	10,196.8	72.2024	10,196.8	69.8265	10,196.8	72.9297	10,196.8	67.9132	10,196.8	75.5805	10,196.8	63.5297	10,196.8	74.3178	10,196.8	63.0654	10,196.8	75.1144	10,196.8	56.6169	10,196.8	62.1873	10,196.8	61.8715	10,196.8	50.118	10,196.8	61.3823	10,196.8	55.6964	10,196.8	61.6749	10,196.8	60.504	10,196.8	61.5962	10,196.8	61.4386	10,196.8	54.9746	10,196.8	65.9176	10,196.8	62.7703	10,196.8	55.5838	10,196.8	62.5302
10,555.7	90.4169	10,555.7	89.7434	10,555.7	90.6202	10,555.7	87.7466	10,555.7	88.5358	10,555.7	82.5845	10,555.7	85.7859	10,555.7	80.1069	10,555.7	81.3952	10,555.7	77.4893	10,555.7	75.961	10,555.7	76.2724	10,555.7	70.4443	10,555.7	71.2196	10,555.7	73.2119	10,555.7	67.3643	10,555.7	74.8593	10,555.7	65.653	10,555.7	73.0233	10,555.7	60.8515	10,555.7	72.3682	10,555.7	59.3489	10,555.7	61.3891	10,555.7	59.8098	10,555.7	56.6944	10,555.7	63.0781	10,555.7	57.5271	10,555.7	62.6956	10,555.7	53.2539	10,555.7	59.7026	10,555.7	63.188	10,555.7	48.0782	10,555.7	63.6129	10,555.7	59.1703	10,555.7	60.6038	10,555.7	63.0539
10,927.7	90.4649	10,927.7	89.285	10,927.7	90.7642	10,927.7	87.6284	10,927.7	88.174	10,927.7	82.115	10,927.7	85.6591	10,927.7	79.448	10,927.7	79.7018	10,927.7	76.8025	10,927.7	74.6509	10,927.7	75.9372	10,927.7	73.5637	10,927.7	70.3005	10,927.7	69.2402	10,927.7	70.7727	10,927.7	72.6119	10,927.7	66.1717	10,927.7	74.1255	10,927.7	63.5152	10,927.7	74.8218	10,927.7	59.6918	10,927.7	67.3309	10,927.7	59.5424	10,927.7	52.4964	10,927.7	63.7864	10,927.7	53.7919	10,927.7	61.491	10,927.7	54.0225	10,927.7	61.9472	10,927.7	64.2601	10,927.7	55.3029	10,927.7	61.7141	10,927.7	61.1775	10,927.7	60.5151	10,927.7	62.9555
11,313	90.4861	11,313	89.4153	11,313	90.507	11,313	87.1788	11,313	88.0852	11,313	81.5194	11,313	85.6266	11,313	78.839	11,313	79.3841	11,313	76.315	11,313	73.6053	11,313	75.4997	11,313	73.422	11,313	71.3496	11,313	68.9537	11,313	67.4604	11,313	74.2267	11,313	67.1167	11,313	76.1429	11,313	62.637	11,313	76.4167	11,313	59.36	11,313	66.3951	11,313	58.058	11,313	55.1937	11,313	62.4246	11,313	51.0075	11,313	62.5266	11,313	54.1318	11,313	60.2942	11,313	64.4865	11,313	54.2504	11,313	60.1865	11,313	61.6869	11,313	56.4972	11,313	62.8006
11,712.9	90.2999	11,712.9	89.1554	11,712.9	90.3558	11,712.9	87.0312	11,712.9	87.6415	11,712.9	80.9726	11,712.9	84.0994	11,712.9	78.5722	11,712.9	77.3634	11,712.9	75.5785	11,712.9	74.1749	11,712.9	75.407	11,712.9	73.7202	11,712.9	73.026	11,712.9	72.4977	11,712.9	69.5662	11,712.9	73.2088	11,712.9	65.1128	11,712.9	75.4103	11,712.9	62.1687	11,712.9	76.0912	11,712.9	59.4406	11,712.9	67.4471	11,712.9	57.9373	11,712.9	55.0397	11,712.9	62.1175	11,712.9	49.8459	11,712.9	59.1502	11,712.9	57.2082	11,712.9	59.4346	11,712.9	62.6754	11,712.9	54.9921	11,712.9	63.1104	11,712.9	59.4176	11,712.9	55.3089	11,712.9	62.9235
12,126	90.0279	12,126	88.8988	12,126	89.94	12,126	86.6328	12,126	87.4443	12,126	79.9887	12,126	83.3307	12,126	78.4745	12,126	77.8342	12,126	74.6281	12,126	72.8772	12,126	75.5805	12,126	74.4653	12,126	72.8428	12,126	72.1367	12,126	70.7073	12,126	67.6937	12,126	65.8045	12,126	76.2006	12,126	62.5902	12,126	76.8402	12,126	57.5895	12,126	68.4053	12,126	58.6085	12,126	54.3933	12,126	60.3388	12,126	50.6284	12,126	56.9374	12,126	58.3288	12,126	58.0584	12,126	63.1434	12,126	52.8122	12,126	63.699	12,126	62.3398	12,126	60.3714	12,126	63.2723
12,553.7	89.5914	12,553.7	88.769	12,553.7	89.603	12,553.7	86.2694	12,553.7	87.7287	12,553.7	79.2806	12,553.7	82.6402	12,553.7	77.8794	12,553.7	77.4215	12,553.7	75.0682	12,553.7	77.0819	12,553.7	75.8786	12,553.7	75.4399	12,553.7	72.8656	12,553.7	70.8726	12,553.7	68.9129	12,553.7	70.7971	12,553.7	67.1017	12,553.7	75.9443	12,553.7	61.7477	12,553.7	76.909	12,553.7	57.2587	12,553.7	68.171	12,553.7	61.1262	12,553.7	57.5429	12,553.7	59.4847	12,553.7	52.9648	12,553.7	55.1735	12,553.7	56.0894	12,553.7	56.5102	12,553.7	62.9843	12,553.7	51.5322	12,553.7	62.6062	12,553.7	59.658	12,553.7	58.6242	12,553.7	63.2087
12,996.1	89.3983	12,996.1	88.7221	12,996.1	89.168	12,996.1	85.5846	12,996.1	86.9725	12,996.1	78.7226	12,996.1	82.2031	12,996.1	78.3848	12,996.1	76.5313	12,996.1	75.4867	12,996.1	76.2202	12,996.1	75.5038	12,996.1	74.1267	12,996.1	73.87	12,996.1	67.2312	12,996.1	65.8569	12,996.1	71.9058	12,996.1	67.4821	12,996.1	73.5029	12,996.1	60.9154	12,996.1	77.0533	12,996.1	55.5556	12,996.1	67.2879	12,996.1	60.8519	12,996.1	53.7938	12,996.1	53.2891	12,996.1	56.4383	12,996.1	49.7566	12,996.1	55.735	12,996.1	45.5632	12,996.1	54.9855	12,996.1	49.0382	12,996.1	63.5148	12,996.1	65.2452	12,996.1	54.8346	12,996.1	64.1684
13,454.6	89.0486	13,454.6	89.0238	13,454.6	88.8342	13,454.6	84.9787	13,454.6	86.5149	13,454.6	77.1139	13,454.6	82.0184	13,454.6	78.8399	13,454.6	76.8332	13,454.6	75.5318	13,454.6	76.7139	13,454.6	77.1127	13,454.6	73.2139	13,454.6	73.0018	13,454.6	63.1914	13,454.6	64.0762	13,454.6	71.3611	13,454.6	67.5066	13,454.6	72.7349	13,454.6	57.6981	13,454.6	76.9469	13,454.6	57.833	13,454.6	66.9997	13,454.6	58.6235	13,454.6	50.4975	13,454.6	55.7253	13,454.6	54.0476	13,454.6	51.2154	13,454.6	48.6096	13,454.6	44.4379	13,454.6	50.3407	13,454.6	51.1121	13,454.6	59.9637	13,454.6	57.2139	13,454.6	59.6816	13,454.6	60.8707
13,929.2	88.1898	13,929.2	88.9187	13,929.2	88.8451	13,929.2	83.8899	13,929.2	86.4013	13,929.2	75.2807	13,929.2	81.9509	13,929.2	77.6819	13,929.2	75.588	13,929.2	76.5685	13,929.2	78.7238	13,929.2	77.0122	13,929.2	71.0551	13,929.2	71.8208	13,929.2	53.2654	13,929.2	68.0689	13,929.2	70.3318	13,929.2	66.9365	13,929.2	71.7256	13,929.2	59.1993	13,929.2	76.0817	13,929.2	53.9803	13,929.2	65.0079	13,929.2	57.3969	13,929.2	57.1076	13,929.2	55.8947	13,929.2	39.617	13,929.2	58.4049	13,929.2	59.1896	13,929.2	50.3597	13,929.2	46.6856	13,929.2	51.7266	13,929.2	50.4853	13,929.2	63.713	13,929.2	57.4131	13,929.2	61.4773
14,419.9	87.8477	14,419.9	87.6629	14,419.9	88.1572	14,419.9	83.3262	14,419.9	85.0363	14,419.9	75.7445	14,419.9	80.7808	14,419.9	76.1172	14,419.9	77.6067	14,419.9	76.5938	14,419.9	77.9663	14,419.9	76.5678	14,419.9	74.4738	14,419.9	72.3917	14,419.9	61.092	14,419.9	67.5013	14,419.9	73.1438	14,419.9	65.2939	14,419.9	74.4921	14,419.9	60.2155	14,419.9	76.2318	14,419.9	48.2625	14,419.9	65.7727	14,419.9	56.4541	14,419.9	57.612	14,419.9	51.6506	14,419.9	53.1427	14,419.9	55.4907	14,419.9	48.558	14,419.9	51.3416	14,419.9	50.6535	14,419.9	50.7328	14,419.9	52.1805	14,419.9	58.4048	14,419.9	61.6809	14,419.9	55.1985
14,928.2	87.2727	14,928.2	86.5144	14,928.2	87.2333	14,928.2	82.587	14,928.2	84.1835	14,928.2	76.1082	14,928.2	81.4794	14,928.2	77.3175	14,928.2	78.147	14,928.2	76.0547	14,928.2	77.5015	14,928.2	76.6243	14,928.2	73.0958	14,928.2	70.9611	14,928.2	67.4354	14,928.2	65.3425	14,928.2	66.9924	14,928.2	63.6186	14,928.2	74.7066	14,928.2	58.4491	14,928.2	76.1166	14,928.2	51.529	14,928.2	66.7562	14,928.2	55.2061	14,928.2	54.315	14,928.2	47.8205	14,928.2	55.6487	14,928.2	55.7099	14,928.2	46.0141	14,928.2	47.2952	14,928.2	52.5917	14,928.2	51.2851	14,928.2	45.4066	14,928.2	54.2712	14,928.2	58.5815	14,928.2	53.3546
15,455.6	86.3363	15,455.6	85.5115	15,455.6	86.2066	15,455.6	81.8435	15,455.6	82.6484	15,455.6	76.5216	15,455.6	79.7969	15,455.6	78.4042	15,455.6	77.7681	15,455.6	76.7852	15,455.6	76.6505	15,455.6	75.2421	15,455.6	71.1591	15,455.6	69.8418	15,455.6	66.6636	15,455.6	63.8731	15,455.6	65.6583	15,455.6	62.017	15,455.6	74.397	15,455.6	54.9936	15,455.6	75.7608	15,455.6	53.2702	15,455.6	65.4034	15,455.6	53.5881	15,455.6	53.7091	15,455.6	48.6835	15,455.6	52.5273	15,455.6	54.078	15,455.6	45.9743	15,455.6	49.5464	15,455.6	51.5404	15,455.6	50.3899	15,455.6	40.794	15,455.6	55.4275	15,455.6	55.4575	15,455.6	53.2327
16,000.5	85.0431	16,000.5	84.3806	16,000.5	84.814	16,000.5	80.4752	16,000.5	80.8157	16,000.5	77.577	16,000.5	80.7544	16,000.5	79.1308	16,000.5	78.7724	16,000.5	76.1592	16,000.5	76.5513	16,000.5	74.1579	16,000.5	72.112	16,000.5	69.7445	16,000.5	66.7318	16,000.5	65.3045	16,000.5	60.6275	16,000.5	62.8609	16,000.5	74.1434	16,000.5	52.9108	16,000.5	75.4478	16,000.5	54.5508	16,000.5	65.5436	16,000.5	55.3648	16,000.5	51.0739	16,000.5	51.0237	16,000.5	46.6382	16,000.5	56.3271	16,000.5	47.3481	16,000.5	48.8507	16,000.5	51.9861	16,000.5	45.7061	16,000.5	47.1253	16,000.5	40.3739	16,000.5	50.1554	16,000.5	48.6391
16,564.5	83.596	16,564.5	82.964	16,564.5	83.3701	16,564.5	80.1122	16,564.5	79.5593	16,564.5	78.0882	16,564.5	80.3284	16,564.5	79.4772	16,564.5	78.3697	16,564.5	74.5225	16,564.5	75.7796	16,564.5	72.834	16,564.5	68.3557	16,564.5	70.3591	16,564.5	64.3678	16,564.5	63.9032	16,564.5	64.3829	16,564.5	61.0599	16,564.5	74.2738	16,564.5	49.8743	16,564.5	75.0643	16,564.5	54.7987	16,564.5	64.1461	16,564.5	52.1515	16,564.5	55.2227	16,564.5	51.1022	16,564.5	44.9238	16,564.5	54.4958	16,564.5	46.4232	16,564.5	53.138	16,564.5	43.0375	16,564.5	37.553	16,564.5	48.8529	16,564.5	53.5975	16,564.5	51.9057	16,564.5	52.9218
17,148.9	82.1072	17,148.9	81.7541	17,148.9	81.3382	17,148.9	80.172	17,148.9	78.2627	17,148.9	78.1741	17,148.9	80.6778	17,148.9	79.5603	17,148.9	77.7731	17,148.9	73.8718	17,148.9	75.3109	17,148.9	72.7858	17,148.9	70.1229	17,148.9	68.0115	17,148.9	63.9733	17,148.9	61.7976	17,148.9	62.1595	17,148.9	60.693	17,148.9	73.9488	17,148.9	37.6899	17,148.9	74.8225	17,148.9	57.2911	17,148.9	65.0114	17,148.9	50.339	17,148.9	49.9996	17,148.9	54.6399	17,148.9	42.2424	17,148.9	53.302	17,148.9	50.0365	17,148.9	52.2526	17,148.9	51.0415	17,148.9	38.4915	17,148.9	51.9781	17,148.9	49.262	17,148.9	47.1423	17,148.9	49.3006
17,752.4	80.4545	17,752.4	80.4225	17,752.4	79.7263	17,752.4	80.8759	17,752.4	77.8401	17,752.4	77.7705	17,752.4	80.3627	17,752.4	79.4208	17,752.4	77.8709	17,752.4	73.9375	17,752.4	74.2219	17,752.4	71.2873	17,752.4	67.6269	17,752.4	67.004	17,752.4	64.1503	17,752.4	61.9862	17,752.4	61.4976	17,752.4	59.687	17,752.4	72.8396	17,752.4	45.4763	17,752.4	74.0919	17,752.4	56.8915	17,752.4	62.5304	17,752.4	51.0135	17,752.4	44.4293	17,752.4	53.0261	17,752.4	47.7946	17,752.4	49.0935	17,752.4	51.6238	17,752.4	53.5232	17,752.4	50.8061	17,752.4	44.9217	17,752.4	49.5632	17,752.4	50.6854	17,752.4	49.4748	17,752.4	51.5611
18,379.4	78.8754	18,379.4	79.7701	18,379.4	78.8078	18,379.4	81.7344	18,379.4	78.4356	18,379.4	77.8998	18,379.4	80.5547	18,379.4	78.826	18,379.4	78.2507	18,379.4	73.9393	18,379.4	74.3934	18,379.4	69.418	18,379.4	68.9666	18,379.4	66.3983	18,379.4	61.221	18,379.4	61.7008	18,379.4	58.8879	18,379.4	57.9996	18,379.4	70.9741	18,379.4	47.0502	18,379.4	73.0955	18,379.4	56.9441	18,379.4	61.9055	18,379.4	51.3996	18,379.4	34.1302	18,379.4	52.4765	18,379.4	47.9627	18,379.4	47.8239	18,379.4	50.4494	18,379.4	53.0527	18,379.4	49.8145	18,379.4	48.5522	18,379.4	50.7221	18,379.4	49.27	18,379.4	50.3154	18,379.4	49.3979
19,026.9	77.827	19,026.9	79.9142	19,026.9	78.7445	19,026.9	82.4019	19,026.9	79.0677	19,026.9	77.9407	19,026.9	80.4872	19,026.9	78.495	19,026.9	77.4521	19,026.9	73.5738	19,026.9	73.9292	19,026.9	68.051	19,026.9	67.6453	19,026.9	64.7669	19,026.9	57.3366	19,026.9	58.8459	19,026.9	56.1923	19,026.9	53.7903	19,026.9	69.5779	19,026.9	48.2206	19,026.9	72.1753	19,026.9	55.3726	19,026.9	61.1009	19,026.9	51.5126	19,026.9	38.2816	19,026.9	50.29	19,026.9	42.6193	19,026.9	51.0403	19,026.9	51.0584	19,026.9	53.878	19,026.9	39.7263	19,026.9	50.9776	19,026.9	50.0248	19,026.9	49.8163	19,026.9	49.897	19,026.9	47.4324
19,697.8	78.0376	19,697.8	80.9113	19,697.8	79.5475	19,697.8	83.0284	19,697.8	80.1547	19,697.8	77.961	19,697.8	81.6046	19,697.8	78.2119	19,697.8	77.3848	19,697.8	72.9628	19,697.8	73.6611	19,697.8	67.2646	19,697.8	66.466	19,697.8	60.467	19,697.8	54.0297	19,697.8	57.1395	19,697.8	53.449	19,697.8	51.2872	19,697.8	67.9978	19,697.8	49.5574	19,697.8	71.4317	19,697.8	54.6821	19,697.8	60.6035	19,697.8	51.5146	19,697.8	33.6919	19,697.8	52.0751	19,697.8	34.9629	19,697.8	52.517	19,697.8	51.244	19,697.8	52.4513	19,697.8	37.6779	19,697.8	52.0958	19,697.8	46.7163	19,697.8	48.8723	19,697.8	47.764	19,697.8	45.3311
19,999.5	78.3737	19,999.5	81.221	19,999.5	80.3188	19,999.5	83.7525	19,999.5	81.0136	19,999.5	78.1456	19,999.5	81.5429	19,999.5	78.3557	19,999.5	77.4401	19,999.5	72.6525	19,999.5	73.3654	19,999.5	65.9897	19,999.5	63.7045	19,999.5	57.3094	19,999.5	47.9199	19,999.5	52.3809	19,999.5	49.1748	19,999.5	50.4059	19,999.5	68.5703	19,999.5	46.4235	19,999.5	70.9946	19,999.5	54.7356	19,999.5	60.1731	19,999.5	54.4623	19,999.5	20.0246	19,999.5	50.3828	19,999.5	47.9425	19,999.5	55.3646	19,999.5	52.4118	19,999.5	45.5953	19,999.5	55.0331	19,999.5	51.1545	19,999.5	51.2367	19,999.5	53.5156	19,999.5	45.9812	19,999.5	50.1008
