"SPL Horizontal"
"On-Axis"		"10°"		"-10°"		"20°"		"-20°"		"30°"		"-30°"		"40°"		"-40°"		"50°"		"-50°"		"60°"		"-60°"		"70°"		"-70°"		"80°"		"-80°"		"90°"		"-90°"		"100°"		"-100°"		"110°"		"-110°"		"120°"		"-120°"		"130°"		"-130°"		"140°"		"-140°"		"150°"		"-150°"		"160°"		"-160°"		"170°"		"-170°"		"180°"
"Frequency / Hz"	"Sound Pressure Level / dB (re 20 µPa/V)  [2.83  V @ 1. m]"	"Frequency / Hz"	"Sound Pressure Level / dB (re 20 µPa/V)  [2.83  V @ 1. m]"	"Frequency / Hz"	"Sound Pressure Level / dB (re 20 µPa/V)  [2.83  V @ 1. m]"	"Frequency / Hz"	"Sound Pressure Level / dB (re 20 µPa/V)  [2.83  V @ 1. m]"	"Frequency / Hz"	"Sound Pressure Level / dB (re 20 µPa/V)  [2.83  V @ 1. m]"	"Frequency / Hz"	"Sound Pressure Level / dB (re 20 µPa/V)  [2.83  V @ 1. m]"	"Frequency / Hz"	"Sound Pressure Level / dB (re 20 µPa/V)  [2.83  V @ 1. m]"	"Frequency / Hz"	"Sound Pressure Level / dB (re 20 µPa/V)  [2.83  V @ 1. m]"	"Frequency / Hz"	"Sound Pressure Level / dB (re 20 µPa/V)  [2.83  V @ 1. m]"	"Frequency / Hz"	"Sound Pressure Level / dB (re 20 µPa/V)  [2.83  V @ 1. m]"	"Frequency / Hz"	"Sound Pressure Level / dB (re 20 µPa/V)  [2.83  V @ 1. m]"	"Frequency / Hz"	"Sound Pressure Level / dB (re 20 µPa/V)  [2.83  V @ 1. m]"	"Frequency / Hz"	"Sound Pressure Level / dB (re 20 µPa/V)  [2.83  V @ 1. m]"	"Frequency / Hz"	"Sound Pressure Level / dB (re 20 µPa/V)  [2.83  V @ 1. m]"	"Frequency / Hz"	"Sound Pressure Level / dB (re 20 µPa/V)  [2.83  V @ 1. m]"	"Frequency / Hz"	"Sound Pressure Level / dB (re 20 µPa/V)  [2.83  V @ 1. m]"	"Frequency / Hz"	"Sound Pressure Level / dB (re 20 µPa/V)  [2.83  V @ 1. m]"	"Frequency / Hz"	"Sound Pressure Level / dB (re 20 µPa/V)  [2.83  V @ 1. m]"	"Frequency / Hz"	"Sound Pressure Level / dB (re 20 µPa/V)  [2.83  V @ 1. m]"	"Frequency / Hz"	"Sound Pressure Level / dB (re 20 µPa/V)  [2.83  V @ 1. m]"	"Frequency / Hz"	"Sound Pressure Level / dB (re 20 µPa/V)  [2.83  V @ 1. m]"	"Frequency / Hz"	"Sound Pressure Level / dB (re 20 µPa/V)  [2.83  V @ 1. m]"	"Frequency / Hz"	"Sound Pressure Level / dB (re 20 µPa/V)  [2.83  V @ 1. m]"	"Frequency / Hz"	"Sound Pressure Level / dB (re 20 µPa/V)  [2.83  V @ 1. m]"	"Frequency / Hz"	"Sound Pressure Level / dB (re 20 µPa/V)  [2.83  V @ 1. m]"	"Frequency / Hz"	"Sound Pressure Level / dB (re 20 µPa/V)  [2.83  V @ 1. m]"	"Frequency / Hz"	"Sound Pressure Level / dB (re 20 µPa/V)  [2.83  V @ 1. m]"	"Frequency / Hz"	"Sound Pressure Level / dB (re 20 µPa/V)  [2.83  V @ 1. m]"	"Frequency / Hz"	"Sound Pressure Level / dB (re 20 µPa/V)  [2.83  V @ 1. m]"	"Frequency / Hz"	"Sound Pressure Level / dB (re 20 µPa/V)  [2.83  V @ 1. m]"	"Frequency / Hz"	"Sound Pressure Level / dB (re 20 µPa/V)  [2.83  V @ 1. m]"	"Frequency / Hz"	"Sound Pressure Level / dB (re 20 µPa/V)  [2.83  V @ 1. m]"	"Frequency / Hz"	"Sound Pressure Level / dB (re 20 µPa/V)  [2.83  V @ 1. m]"	"Frequency / Hz"	"Sound Pressure Level / dB (re 20 µPa/V)  [2.83  V @ 1. m]"	"Frequency / Hz"	"Sound Pressure Level / dB (re 20 µPa/V)  [2.83  V @ 1. m]"	"Frequency / Hz"	"Sound Pressure Level / dB (re 20 µPa/V)  [2.83  V @ 1. m]"
20.5078	56.6602	20.5078	56.6956	20.5078	56.6285	20.5078	56.7263	20.5078	56.6094	20.5078	56.747	20.5078	56.6092	20.5078	56.7562	20.5078	56.6294	20.5078	56.7541	20.5078	56.6658	20.5078	56.7413	20.5078	56.7108	20.5078	56.7179	20.5078	56.7554	20.5078	56.6841	20.5078	56.7922	20.5078	56.6416	20.5078	56.8169	20.5078	56.5947	20.5078	56.8291	20.5078	56.5514	20.5078	56.8322	20.5078	56.523	20.5078	56.8318	20.5078	56.5205	20.5078	56.8342	20.5078	56.5501	20.5078	56.8425	20.5078	56.6092	20.5078	56.8545	20.5078	56.6854	20.5078	56.8619	20.5078	56.7612	20.5078	56.8534	20.5078	56.8202
21.9727	51.1685	21.9727	51.2832	21.9727	51.0335	21.9727	51.3731	21.9727	50.8891	21.9727	51.44	21.9727	50.7503	21.9727	51.4887	21.9727	50.6325	21.9727	51.5247	21.9727	50.548	21.9727	51.5526	21.9727	50.5044	21.9727	51.5759	21.9727	50.5052	21.9727	51.5969	21.9727	50.5494	21.9727	51.6163	21.9727	50.6333	21.9727	51.6341	21.9727	50.7516	21.9727	51.6518	21.9727	50.8984	21.9727	51.6745	21.9727	51.0678	21.9727	51.7096	21.9727	51.2524	21.9727	51.7617	21.9727	51.4421	21.9727	51.8271	21.9727	51.6223	21.9727	51.8919	21.9727	51.7751	21.9727	51.9351	21.9727	51.8833	21.9727	51.9364
23.4375	52.7851	23.4375	52.7289	23.4375	52.8038	23.4375	52.6329	23.4375	52.7927	23.4375	52.5017	23.4375	52.7618	23.4375	52.3449	23.4375	52.719	23.4375	52.174	23.4375	52.6675	23.4375	51.9982	23.4375	52.6044	23.4375	51.8215	23.4375	52.5223	23.4375	51.643	23.4375	52.4123	23.4375	51.4591	23.4375	52.2679	23.4375	51.2672	23.4375	52.0884	23.4375	51.0698	23.4375	51.8806	23.4375	50.8765	23.4375	51.6573	23.4375	50.7038	23.4375	51.4345	23.4375	50.571	23.4375	51.2255	23.4375	50.4939	23.4375	51.038	23.4375	50.4791	23.4375	50.8732	23.4375	50.522	23.4375	50.7299	23.4375	50.6101
24.9023	53.1034	24.9023	53.0927	24.9023	53.121	24.9023	53.0865	24.9023	53.1493	24.9023	53.0851	24.9023	53.1896	24.9023	53.0912	24.9023	53.2391	24.9023	53.1079	24.9023	53.29	24.9023	53.135	24.9023	53.3317	24.9023	53.1679	24.9023	53.3538	24.9023	53.1981	24.9023	53.3492	24.9023	53.2161	24.9023	53.3163	24.9023	53.215	24.9023	53.2594	24.9023	53.1931	24.9023	53.1885	24.9023	53.1552	24.9023	53.1169	24.9023	53.1106	24.9023	53.0572	24.9023	53.07	24.9023	53.0177	24.9023	53.0406	24.9023	52.9997	24.9023	53.024	24.9023	52.998	24.9023	53.0159	24.9023	53.0039	24.9023	53.0105
26.3672	52.4826	26.3672	52.4119	26.3672	52.5457	26.3672	52.3367	26.3672	52.5989	26.3672	52.2607	26.3672	52.6398	26.3672	52.1874	26.3672	52.6671	26.3672	52.1205	26.3672	52.6796	26.3672	52.0621	26.3672	52.6765	26.3672	52.0121	26.3672	52.657	26.3672	51.9687	26.3672	52.6206	26.3672	51.9291	26.3672	52.568	26.3672	51.8923	26.3672	52.5021	26.3672	51.8598	26.3672	52.4282	26.3672	51.836	26.3672	52.353	26.3672	51.8266	26.3672	52.2824	26.3672	51.8355	26.3672	52.2198	26.3672	51.8631	26.3672	52.1648	26.3672	51.9058	26.3672	52.1142	26.3672	51.9573	26.3672	52.0639	26.3672	52.0114
27.832	52.2214	27.832	52.2218	27.832	52.2296	27.832	52.2265	27.832	52.2501	27.832	52.2334	27.832	52.2839	27.832	52.2421	27.832	52.3283	27.832	52.2529	27.832	52.3763	27.832	52.2644	27.832	52.4188	27.832	52.2725	27.832	52.4456	27.832	52.2704	27.832	52.4478	27.832	52.2508	27.832	52.4196	27.832	52.209	27.832	52.3602	27.832	52.1453	27.832	52.2748	27.832	52.0659	27.832	52.1742	27.832	51.982	27.832	52.0722	27.832	51.9064	27.832	51.9818	27.832	51.8493	27.832	51.9109	27.832	51.8156	27.832	51.8609	27.832	51.8039	27.832	51.8283	27.832	51.8094
29.2969	51.5491	29.2969	51.6706	29.2969	51.4152	29.2969	51.78	29.2969	51.2681	29.2969	51.875	29.2969	51.1081	29.2969	51.9496	29.2969	50.936	29.2969	51.9943	29.2969	50.7531	29.2969	51.9992	29.2969	50.5613	29.2969	51.9576	29.2969	50.3645	29.2969	51.8693	29.2969	50.1701	29.2969	51.741	29.2969	49.9899	29.2969	51.5843	29.2969	49.8379	29.2969	51.4126	29.2969	49.7275	29.2969	51.2362	29.2969	49.6675	29.2969	51.0602	29.2969	49.66	29.2969	50.8848	29.2969	49.7009	29.2969	50.7084	29.2969	49.7821	29.2969	50.531	29.2969	49.8948	29.2969	50.3555	29.2969	50.0317	29.2969	50.1871
30.7617	52.1399	30.7617	52.1726	30.7617	52.0817	30.7617	52.1802	30.7617	52.0001	30.7617	52.1647	30.7617	51.899	30.7617	52.1287	30.7617	51.7833	30.7617	52.0746	30.7617	51.6579	30.7617	52.004	30.7617	51.5275	30.7617	51.9187	30.7617	51.397	30.7617	51.8213	30.7617	51.2716	30.7617	51.7158	30.7617	51.1572	30.7617	51.6075	30.7617	51.0599	30.7617	51.5015	30.7617	50.9844	30.7617	51.4018	30.7617	50.9329	30.7617	51.3111	30.7617	50.9049	30.7617	51.2304	30.7617	50.8972	30.7617	51.1593	30.7617	50.9057	30.7617	51.097	30.7617	50.9264	30.7617	51.0426	30.7617	50.9569	30.7617	50.9958
32.2266	52.4166	32.2266	52.3652	32.2266	52.4531	32.2266	52.3017	32.2266	52.473	32.2266	52.2303	32.2266	52.4763	32.2266	52.1551	32.2266	52.4647	32.2266	52.0807	32.2266	52.4407	32.2266	52.0118	32.2266	52.4074	32.2266	51.9534	32.2266	52.3685	32.2266	51.9103	32.2266	52.3284	32.2266	51.887	32.2266	52.2921	32.2266	51.8859	32.2266	52.2641	32.2266	51.9072	32.2266	52.2475	32.2266	51.9479	32.2266	52.2429	32.2266	52.0025	32.2266	52.2485	32.2266	52.0643	32.2266	52.2604	32.2266	52.1265	32.2266	52.2729	32.2266	52.1829	32.2266	52.2803	32.2266	52.2286	32.2266	52.2773	32.2266	52.2605
33.6914	53.053	33.6914	52.9972	33.6914	53.0865	33.6914	52.9208	33.6914	53.0976	33.6914	52.8274	33.6914	53.0877	33.6914	52.7218	33.6914	53.0594	33.6914	52.6095	33.6914	53.0155	33.6914	52.4958	33.6914	52.9594	33.6914	52.3856	33.6914	52.8946	33.6914	52.2839	33.6914	52.8249	33.6914	52.1958	33.6914	52.7542	33.6914	52.1263	33.6914	52.6864	33.6914	52.0796	33.6914	52.6243	33.6914	52.0581	33.6914	52.5694	33.6914	52.0615	33.6914	52.5214	33.6914	52.0867	33.6914	52.478	33.6914	52.1284	33.6914	52.4362	33.6914	52.1804	33.6914	52.3926	33.6914	52.2368	33.6914	52.345	33.6914	52.2927
35.1562	54.1664	35.1562	54.1255	35.1562	54.2003	35.1562	54.0769	35.1562	54.2293	35.1562	54.022	35.1562	54.2565	35.1562	53.964	35.1562	54.284	35.1562	53.9073	35.1562	54.3133	35.1562	53.8564	35.1562	54.3439	35.1562	53.8149	35.1562	54.3741	35.1562	53.7853	35.1562	54.4011	35.1562	53.77	35.1562	54.4227	35.1562	53.7711	35.1562	54.4373	35.1562	53.7912	35.1562	54.4441	35.1562	53.8318	35.1562	54.4436	35.1562	53.8921	35.1562	54.4366	35.1562	53.9682	35.1562	54.4237	35.1562	54.0536	35.1562	54.4045	35.1562	54.1399	35.1562	54.3772	35.1562	54.2194	35.1562	54.3388	35.1562	54.2865
36.6211	54.4681	36.6211	54.4628	36.6211	54.4552	36.6211	54.4364	36.6211	54.4288	36.6211	54.3889	36.6211	54.3944	36.6211	54.3226	36.6211	54.3568	36.6211	54.2417	36.6211	54.3192	36.6211	54.1509	36.6211	54.283	36.6211	54.0546	36.6211	54.2474	36.6211	53.9568	36.6211	54.2107	36.6211	53.8613	36.6211	54.1708	36.6211	53.7722	36.6211	54.126	36.6211	53.6937	36.6211	54.0756	36.6211	53.63	36.6211	54.0196	36.6211	53.5843	36.6211	53.9594	36.6211	53.559	36.6211	53.8965	36.6211	53.5551	36.6211	53.8327	36.6211	53.5716	36.6211	53.7695	36.6211	53.6056	36.6211	53.7087	36.6211	53.6528
38.0859	55.261	38.0859	55.2411	38.0859	55.2746	38.0859	55.214	38.0859	55.2828	38.0859	55.1792	38.0859	55.2869	38.0859	55.1369	38.0859	55.288	38.0859	55.0879	38.0859	55.2874	38.0859	55.0335	38.0859	55.2857	38.0859	54.9759	38.0859	55.2827	38.0859	54.9176	38.0859	55.2769	38.0859	54.8607	38.0859	55.2652	38.0859	54.8067	38.0859	55.2436	38.0859	54.7565	38.0859	55.2079	38.0859	54.711	38.0859	55.1556	38.0859	54.6719	38.0859	55.0871	38.0859	54.6422	38.0859	55.0059	38.0859	54.626	38.0859	54.9185	38.0859	54.6275	38.0859	54.8325	38.0859	54.6496	38.0859	54.7552	38.0859	54.6928
39.5508	54.1675	39.5508	54.1746	39.5508	54.1767	39.5508	54.1997	39.5508	54.2003	39.5508	54.2438	39.5508	54.2375	39.5508	54.3063	39.5508	54.2884	39.5508	54.3853	39.5508	54.3543	39.5508	54.4765	39.5508	54.4358	39.5508	54.5739	39.5508	54.531	39.5508	54.6702	39.5508	54.6343	39.5508	54.7571	39.5508	54.7364	39.5508	54.8265	39.5508	54.8262	39.5508	54.8724	39.5508	54.8936	39.5508	54.8917	39.5508	54.9318	39.5508	54.8865	39.5508	54.9396	39.5508	54.8633	39.5508	54.9215	39.5508	54.8326	39.5508	54.8867	39.5508	54.805	39.5508	54.8466	39.5508	54.7898	39.5508	54.8124	39.5508	54.7921
41.0156	56.9827	41.0156	57.0251	41.0156	56.9033	41.0156	57.0332	41.0156	56.7835	41.0156	57.0089	41.0156	56.6202	41.0156	56.9535	41.0156	56.4114	41.0156	56.8686	41.0156	56.1572	41.0156	56.7562	41.0156	55.861	41.0156	56.6194	41.0156	55.5305	41.0156	56.4624	41.0156	55.1789	41.0156	56.2896	41.0156	54.825	41.0156	56.1053	41.0156	54.492	41.0156	55.9131	41.0156	54.2057	41.0156	55.7159	41.0156	53.9902	41.0156	55.5155	41.0156	53.863	41.0156	55.3119	41.0156	53.8318	41.0156	55.1033	41.0156	53.8919	41.0156	54.8872	41.0156	54.0279	41.0156	54.663	41.0156	54.217	41.0156	54.4354
42.4805	56.8783	42.4805	56.8415	42.4805	56.8954	42.4805	56.7855	42.4805	56.8929	42.4805	56.7115	42.4805	56.872	42.4805	56.6223	42.4805	56.8343	42.4805	56.522	42.4805	56.7822	42.4805	56.4166	42.4805	56.7182	42.4805	56.3132	42.4805	56.6444	42.4805	56.2193	42.4805	56.5628	42.4805	56.1414	42.4805	56.4752	42.4805	56.0834	42.4805	56.3843	42.4805	56.0462	42.4805	56.2939	42.4805	56.0279	42.4805	56.2093	42.4805	56.0241	42.4805	56.1364	42.4805	56.0288	42.4805	56.0805	42.4805	56.0357	42.4805	56.0445	42.4805	56.0396	42.4805	56.0277	42.4805	56.0377	42.4805	56.0257	42.4805	56.0314
43.9453	57.643	43.9453	57.6354	43.9453	57.6453	43.9453	57.6232	43.9453	57.6413	43.9453	57.6071	43.9453	57.6302	43.9453	57.5878	43.9453	57.6113	43.9453	57.566	43.9453	57.5843	43.9453	57.5422	43.9453	57.5493	43.9453	57.5171	43.9453	57.5063	43.9453	57.4907	43.9453	57.4551	43.9453	57.4625	43.9453	57.3961	43.9453	57.4315	43.9453	57.3305	43.9453	57.3965	43.9453	57.2607	43.9453	57.3566	43.9453	57.191	43.9453	57.3119	43.9453	57.1271	43.9453	57.263	43.9453	57.0753	43.9453	57.2115	43.9453	57.0415	43.9453	57.1594	43.9453	57.0295	43.9453	57.1101	43.9453	57.0395	43.9453	57.0681
45.4102	58.4289	45.4102	58.3841	45.4102	58.4667	45.4102	58.3336	45.4102	58.4965	45.4102	58.2791	45.4102	58.5175	45.4102	58.2226	45.4102	58.5291	45.4102	58.1668	45.4102	58.5308	45.4102	58.1145	45.4102	58.5223	45.4102	58.0685	45.4102	58.5034	45.4102	58.0313	45.4102	58.4749	45.4102	58.0043	45.4102	58.4381	45.4102	57.9879	45.4102	58.3952	45.4102	57.9815	45.4102	58.3489	45.4102	57.9839	45.4102	58.3016	45.4102	57.9938	45.4102	58.256	45.4102	58.0093	45.4102	58.214	45.4102	58.0288	45.4102	58.177	45.4102	58.0504	45.4102	58.1456	45.4102	58.0726	45.4102	58.1189	45.4102	58.0951
46.875	58.9668	46.875	58.9658	46.875	58.9626	46.875	58.9582	46.875	58.9546	46.875	58.943	46.875	58.9437	46.875	58.9196	46.875	58.9307	46.875	58.8884	46.875	58.9159	46.875	58.8506	46.875	58.8993	46.875	58.808	46.875	58.8804	46.875	58.7628	46.875	58.8582	46.875	58.7176	46.875	58.8314	46.875	58.6747	46.875	58.7988	46.875	58.6361	46.875	58.7605	46.875	58.6034	46.875	58.7177	46.875	58.5774	46.875	58.6732	46.875	58.5583	46.875	58.6309	46.875	58.5457	46.875	58.5946	46.875	58.5387	46.875	58.5671	46.875	58.5365	46.875	58.5491	46.875	58.5395
48.3398	59.7467	48.3398	59.7507	48.3398	59.7266	48.3398	59.7376	48.3398	59.6915	48.3398	59.7067	48.3398	59.6425	48.3398	59.6572	48.3398	59.5804	48.3398	59.5889	48.3398	59.5055	48.3398	59.5022	48.3398	59.4176	48.3398	59.3985	48.3398	59.3168	48.3398	59.2806	48.3398	59.2033	48.3398	59.152	48.3398	59.0784	48.3398	59.017	48.3398	58.9453	48.3398	58.8803	48.3398	58.8091	48.3398	58.7465	48.3398	58.6767	48.3398	58.6206	48.3398	58.5553	48.3398	58.507	48.3398	58.4512	48.3398	58.4107	48.3398	58.3684	48.3398	58.3364	48.3398	58.3092	48.3398	58.288	48.3398	58.2751	48.3398	58.2676
51.2695	60.9725	51.2695	60.9648	51.2695	60.9764	51.2695	60.9534	51.2695	60.9756	51.2695	60.9381	51.2695	60.9688	51.2695	60.9178	51.2695	60.9541	51.2695	60.8913	51.2695	60.93	51.2695	60.8575	51.2695	60.8947	51.2695	60.8163	51.2695	60.847	51.2695	60.7684	51.2695	60.7868	51.2695	60.7158	51.2695	60.7151	51.2695	60.6604	51.2695	60.6351	51.2695	60.604	51.2695	60.5517	51.2695	60.5476	51.2695	60.4716	51.2695	60.4918	51.2695	60.401	51.2695	60.4376	51.2695	60.3447	51.2695	60.3867	51.2695	60.3051	51.2695	60.342	51.2695	60.2823	51.2695	60.307	51.2695	60.2757	51.2695	60.2843
52.7344	61.1134	52.7344	61.1109	52.7344	61.1161	52.7344	61.1076	52.7344	61.1187	52.7344	61.1018	52.7344	61.1198	52.7344	61.0912	52.7344	61.1171	52.7344	61.0735	52.7344	61.1079	52.7344	61.0473	52.7344	61.0895	52.7344	61.0121	52.7344	61.0595	52.7344	60.969	52.7344	61.0164	52.7344	60.9199	52.7344	60.9604	52.7344	60.8674	52.7344	60.8931	52.7344	60.8136	52.7344	60.8186	52.7344	60.7601	52.7344	60.7427	52.7344	60.7076	52.7344	60.6717	52.7344	60.6573	52.7344	60.6114	52.7344	60.6108	52.7344	60.5654	52.7344	60.571	52.7344	60.5355	52.7344	60.5411	52.7344	60.5219	52.7344	60.5241
54.1992	61.399	54.1992	61.3917	54.1992	61.4015	54.1992	61.3796	54.1992	61.3983	54.1992	61.362	54.1992	61.388	54.1992	61.3378	54.1992	61.369	54.1992	61.306	54.1992	61.3396	54.1992	61.2658	54.1992	61.2989	54.1992	61.2179	54.1992	61.2466	54.1992	61.1639	54.1992	61.1835	54.1992	61.1064	54.1992	61.1112	54.1992	61.0483	54.1992	61.0331	54.1992	60.9917	54.1992	60.9538	54.1992	60.9381	54.1992	60.879	54.1992	60.8878	54.1992	60.8142	54.1992	60.8411	54.1992	60.7633	54.1992	60.7984	54.1992	60.7283	54.1992	60.7613	54.1992	60.7089	54.1992	60.7317	54.1992	60.7039	54.1992	60.7121
55.6641	62.4014	55.6641	62.3803	55.6641	62.4144	55.6641	62.3523	55.6641	62.4179	55.6641	62.3177	55.6641	62.4102	55.6641	62.2765	55.6641	62.3893	55.6641	62.2285	55.6641	62.3537	55.6641	62.1737	55.6641	62.3024	55.6641	62.1127	55.6641	62.2352	55.6641	62.047	55.6641	62.153	55.6641	61.9787	55.6641	62.0583	55.6641	61.9097	55.6641	61.9552	55.6641	61.8421	55.6641	61.8499	55.6641	61.777	55.6641	61.7497	55.6641	61.7157	55.6641	61.662	55.6641	61.6591	55.6641	61.5924	55.6641	61.6087	55.6641	61.5437	55.6641	61.5662	55.6641	61.5157	55.6641	61.5337	55.6641	61.5063	55.6641	61.5131
58.5938	63.0991	58.5938	63.0704	58.5938	63.1181	58.5938	63.0313	58.5938	63.1278	58.5938	62.9811	58.5938	63.1278	58.5938	62.9197	58.5938	63.117	58.5938	62.8477	58.5938	63.0937	58.5938	62.7669	58.5938	63.0562	58.5938	62.6799	58.5938	63.0032	58.5938	62.5908	58.5938	62.9351	58.5938	62.5041	58.5938	62.8538	58.5938	62.4243	58.5938	62.7634	58.5938	62.3549	58.5938	62.6697	58.5938	62.2986	58.5938	62.5789	58.5938	62.2565	58.5938	62.4962	58.5938	62.2292	58.5938	62.4248	58.5938	62.216	58.5938	62.3655	58.5938	62.2159	58.5938	62.3172	58.5938	62.2273	58.5938	62.2786	58.5938	62.2486
60.0586	63.9743	60.0586	63.9883	60.0586	63.9539	60.0586	63.995	60.0586	63.9284	60.0586	63.9939	60.0586	63.8997	60.0586	63.985	60.0586	63.8699	60.0586	63.9681	60.0586	63.8403	60.0586	63.9438	60.0586	63.8119	60.0586	63.9129	60.0586	63.7848	60.0586	63.8766	60.0586	63.7586	60.0586	63.8364	60.0586	63.7332	60.0586	63.7938	60.0586	63.7083	60.0586	63.75	60.0586	63.6844	60.0586	63.7065	60.0586	63.6623	60.0586	63.6651	60.0586	63.6426	60.0586	63.6286	60.0586	63.6256	60.0586	63.5998	60.0586	63.6105	60.0586	63.5813	60.0586	63.5968	60.0586	63.5738	60.0586	63.5846	60.0586	63.5759
62.9883	64.3832	62.9883	64.3751	62.9883	64.3813	62.9883	64.3576	62.9883	64.3683	62.9883	64.3316	62.9883	64.3435	62.9883	64.2972	62.9883	64.3063	62.9883	64.2549	62.9883	64.2569	62.9883	64.2047	62.9883	64.1959	62.9883	64.1475	62.9883	64.1247	62.9883	64.0848	62.9883	64.0455	62.9883	64.0185	62.9883	63.9614	62.9883	63.9509	62.9883	63.876	62.9883	63.8841	62.9883	63.7938	62.9883	63.8197	62.9883	63.7194	62.9883	63.759	62.9883	63.6567	62.9883	63.7032	62.9883	63.6081	62.9883	63.6535	62.9883	63.5746	62.9883	63.6118	62.9883	63.5558	62.9883	63.5798	62.9883	63.5509	62.9883	63.5592
64.4531	65.0571	64.4531	65.0611	64.4531	65.0344	64.4531	65.0466	64.4531	64.9928	64.4531	65.0142	64.4531	64.9326	64.4531	64.9638	64.4531	64.8541	64.4531	64.896	64.4531	64.7588	64.4531	64.8115	64.4531	64.6485	64.4531	64.7114	64.4531	64.5258	64.4531	64.5982	64.4531	64.3942	64.4531	64.4748	64.4531	64.2576	64.4531	64.3449	64.4531	64.1209	64.4531	64.2127	64.4531	63.9894	64.4531	64.0826	64.4531	63.8688	64.4531	63.9591	64.4531	63.7643	64.4531	63.8465	64.4531	63.6802	64.4531	63.7489	64.4531	63.6188	64.4531	63.6701	64.4531	63.5813	64.4531	63.6126	64.4531	63.5678	64.4531	63.5783
67.3828	65.6521	67.3828	65.6399	67.3828	65.6567	67.3828	65.6203	67.3828	65.6535	67.3828	65.5936	67.3828	65.6426	67.3828	65.5603	67.3828	65.6236	67.3828	65.5212	67.3828	65.5967	67.3828	65.4772	67.3828	65.5619	67.3828	65.43	67.3828	65.5194	67.3828	65.3809	67.3828	65.4699	67.3828	65.3315	67.3828	65.4144	67.3828	65.2829	67.3828	65.3544	67.3828	65.2359	67.3828	65.2925	67.3828	65.1913	67.3828	65.2315	67.3828	65.1496	67.3828	65.1747	67.3828	65.1117	67.3828	65.1252	67.3828	65.0791	67.3828	65.0852	67.3828	65.0539	67.3828	65.056	67.3828	65.0378	67.3828	65.0384	67.3828	65.0324
68.8477	65.8903	68.8477	65.8694	68.8477	65.9052	68.8477	65.8431	68.8477	65.9138	68.8477	65.8124	68.8477	65.9159	68.8477	65.7786	68.8477	65.9116	68.8477	65.7429	68.8477	65.9012	68.8477	65.707	68.8477	65.8851	68.8477	65.6722	68.8477	65.864	68.8477	65.6399	68.8477	65.8385	68.8477	65.6112	68.8477	65.8093	68.8477	65.5867	68.8477	65.7775	68.8477	65.5667	68.8477	65.7437	68.8477	65.5508	68.8477	65.7091	68.8477	65.5389	68.8477	65.6748	68.8477	65.5307	68.8477	65.642	68.8477	65.5264	68.8477	65.6116	68.8477	65.5268	68.8477	65.5846	68.8477	65.5327	68.8477	65.5619	68.8477	65.5444
71.7773	66.7029	71.7773	66.7052	71.7773	66.6855	71.7773	66.6926	71.7773	66.6531	71.7773	66.6662	71.7773	66.6067	71.7773	66.6275	71.7773	66.548	71.7773	66.5782	71.7773	66.4793	71.7773	66.5206	71.7773	66.4039	71.7773	66.4571	71.7773	66.325	71.7773	66.3904	71.7773	66.2467	71.7773	66.3231	71.7773	66.1724	71.7773	66.2574	71.7773	66.1053	71.7773	66.1956	71.7773	66.0478	71.7773	66.1392	71.7773	66.0014	71.7773	66.0893	71.7773	65.9666	71.7773	66.0467	71.7773	65.9431	71.7773	66.0112	71.7773	65.9303	71.7773	65.9823	71.7773	65.9267	71.7773	65.9595	71.7773	65.9312	71.7773	65.9424
74.707	67.227	74.707	67.2067	74.707	67.2376	74.707	67.177	74.707	67.2384	74.707	67.1385	74.707	67.2298	74.707	67.0925	74.707	67.2123	74.707	67.041	74.707	67.1868	74.707	66.9858	74.707	67.1541	74.707	66.9293	74.707	67.1155	74.707	66.8734	74.707	67.0723	74.707	66.8199	74.707	67.0259	74.707	66.7707	74.707	66.9777	74.707	66.7273	74.707	66.9291	74.707	66.6913	74.707	66.8816	74.707	66.6642	74.707	66.8364	74.707	66.6469	74.707	66.7945	74.707	66.6396	74.707	66.7567	74.707	66.6419	74.707	66.7233	74.707	66.6528	74.707	66.6945	74.707	66.6707
77.6367	68.0127	77.6367	68.0041	77.6367	68.0124	77.6367	67.9868	77.6367	68.0036	77.6367	67.9616	77.6367	67.9871	77.6367	67.9298	77.6367	67.964	77.6367	67.893	77.6367	67.9359	77.6367	67.8534	77.6367	67.9045	77.6367	67.8132	77.6367	67.8713	77.6367	67.7745	77.6367	67.8377	77.6367	67.7389	77.6367	67.8051	77.6367	67.7076	77.6367	67.7742	77.6367	67.6813	77.6367	67.7456	77.6367	67.6601	77.6367	67.7195	77.6367	67.6438	77.6367	67.6961	77.6367	67.6319	77.6367	67.6755	77.6367	67.6243	77.6367	67.6578	77.6367	67.6206	77.6367	67.6433	77.6367	67.6208	77.6367	67.6322	77.6367	67.6247
79.1016	68.5374	79.1016	68.5328	79.1016	68.5298	79.1016	68.5163	79.1016	68.5101	79.1016	68.4891	79.1016	68.4795	79.1016	68.4529	79.1016	68.4393	79.1016	68.4103	79.1016	68.3917	79.1016	68.364	79.1016	68.3387	79.1016	68.3169	79.1016	68.2829	79.1016	68.2715	79.1016	68.2266	79.1016	68.2295	79.1016	68.1719	79.1016	68.1918	79.1016	68.1209	79.1016	68.1584	79.1016	68.0751	79.1016	68.1284	79.1016	68.0355	79.1016	68.1007	79.1016	68.0034	79.1016	68.0741	79.1016	67.9797	79.1016	68.0481	79.1016	67.9655	79.1016	68.0231	79.1016	67.9614	79.1016	67.9999	79.1016	67.9669	79.1016	67.9805
82.0312	69.4276	82.0312	69.3801	82.0312	69.4543	82.0312	69.3143	82.0312	69.4593	82.0312	69.233	82.0312	69.4421	82.0312	69.1402	82.0312	69.4035	82.0312	69.0401	82.0312	69.3451	82.0312	68.9371	82.0312	69.2697	82.0312	68.8346	82.0312	69.1811	82.0312	68.7357	82.0312	69.0836	82.0312	68.6425	82.0312	68.9819	82.0312	68.5572	82.0312	68.88	82.0312	68.4818	82.0312	68.7812	82.0312	68.4182	82.0312	68.6876	82.0312	68.3678	82.0312	68.6011	82.0312	68.3316	82.0312	68.5232	82.0312	68.3095	82.0312	68.4554	82.0312	68.3013	82.0312	68.3991	82.0312	68.3064	82.0312	68.3554	82.0312	68.3245
84.9609	69.2168	84.9609	69.1803	84.9609	69.2564	84.9609	69.1494	84.9609	69.2959	84.9609	69.1257	84.9609	69.3316	84.9609	69.1095	84.9609	69.3607	84.9609	69.0994	84.9609	69.3807	84.9609	69.0931	84.9609	69.3906	84.9609	69.087	84.9609	69.3909	84.9609	69.0776	84.9609	69.3828	84.9609	69.0626	84.9609	69.3683	84.9609	69.0418	84.9609	69.349	84.9609	69.0175	84.9609	69.3259	84.9609	68.9939	84.9609	69.299	84.9609	68.9759	84.9609	69.2682	84.9609	68.9681	84.9609	69.2333	84.9609	68.9734	84.9609	69.1944	84.9609	68.9926	84.9609	69.1521	84.9609	69.0239	84.9609	69.1077	84.9609	69.0637
87.8906	69.278	87.8906	69.2745	87.8906	69.2847	87.8906	69.2748	87.8906	69.2955	87.8906	69.2811	87.8906	69.3133	87.8906	69.2964	87.8906	69.3421	87.8906	69.3239	87.8906	69.3869	87.8906	69.367	87.8906	69.4524	87.8906	69.428	87.8906	69.5417	87.8906	69.5083	87.8906	69.6558	87.8906	69.6082	87.8906	69.7928	87.8906	69.7266	87.8906	69.9479	87.8906	69.8612	87.8906	70.1134	87.8906	70.0079	87.8906	70.2798	87.8906	70.1612	87.8906	70.436	87.8906	70.3136	87.8906	70.571	87.8906	70.4567	87.8906	70.675	87.8906	70.5814	87.8906	70.7403	87.8906	70.6788	87.8906	70.7625	87.8906	70.7411
90.8203	72.3109	90.8203	72.2891	90.8203	72.2823	90.8203	72.2183	90.8203	72.2031	90.8203	72.1008	90.8203	72.0742	90.8203	71.9397	90.8203	71.8984	90.8203	71.7388	90.8203	71.6802	90.8203	71.5023	90.8203	71.4262	90.8203	71.2348	90.8203	71.1446	90.8203	70.9415	90.8203	70.8443	90.8203	70.6281	90.8203	70.5347	90.8203	70.3018	90.8203	70.2244	90.8203	69.9715	90.8203	69.9212	90.8203	69.6483	90.8203	69.6316	90.8203	69.3451	90.8203	69.362	90.8203	69.0762	90.8203	69.119	90.8203	68.8557	90.8203	68.9106	90.8203	68.6957	90.8203	68.7456	90.8203	68.6044	90.8203	68.6339	90.8203	68.5846
95.2148	71.2538	95.2148	71.3167	95.2148	71.2031	95.2148	71.389	95.2148	71.1671	95.2148	71.4672	95.2148	71.147	95.2148	71.5479	95.2148	71.143	95.2148	71.6277	95.2148	71.1547	95.2148	71.7039	95.2148	71.1807	95.2148	71.7739	95.2148	71.2199	95.2148	71.8359	95.2148	71.2707	95.2148	71.8884	95.2148	71.3315	95.2148	71.9301	95.2148	71.4003	95.2148	71.9607	95.2148	71.4747	95.2148	71.9801	95.2148	71.5516	95.2148	71.9894	95.2148	71.6278	95.2148	71.9896	95.2148	71.7	95.2148	71.9818	95.2148	71.7658	95.2148	71.9666	95.2148	71.8235	95.2148	71.9436	95.2148	71.8725	95.2148	71.9124
98.1445	71.9174	98.1445	71.9392	98.1445	71.8942	98.1445	71.9589	98.1445	71.8716	98.1445	71.9768	98.1445	71.8527	98.1445	71.9941	98.1445	71.8408	98.1445	72.012	98.1445	71.8386	98.1445	72.0312	98.1445	71.8477	98.1445	72.0517	98.1445	71.8681	98.1445	72.0727	98.1445	71.8983	98.1445	72.0935	98.1445	71.9358	98.1445	72.1128	98.1445	71.977	98.1445	72.1296	98.1445	72.0181	98.1445	72.1432	98.1445	72.0558	98.1445	72.1532	98.1445	72.0876	98.1445	72.1599	98.1445	72.1127	98.1445	72.1635	98.1445	72.1314	98.1445	72.1645	98.1445	72.1447	98.1445	72.1633	98.1445	72.1539	98.1445	72.1599
101.074	72.412	101.074	72.3912	101.074	72.4268	101.074	72.3663	101.074	72.4369	101.074	72.3419	101.074	72.4461	101.074	72.324	101.074	72.4605	101.074	72.3189	101.074	72.4865	101.074	72.3316	101.074	72.5294	101.074	72.3645	101.074	72.5918	101.074	72.4176	101.074	72.6726	101.074	72.4885	101.074	72.7676	101.074	72.5732	101.074	72.8698	101.074	72.6677	101.074	72.9717	101.074	72.7678	101.074	73.0659	101.074	72.8696	101.074	73.1463	101.074	72.9685	101.074	73.2088	101.074	73.06	101.074	73.2509	101.074	73.1393	101.074	73.2713	101.074	73.2024	101.074	73.2697	101.074	73.2464
105.469	74.1601	105.469	74.0844	105.469	74.2047	105.469	73.981	105.469	74.2153	105.469	73.8542	105.469	74.1896	105.469	73.7092	105.469	74.1266	105.469	73.5526	105.469	74.028	105.469	73.3924	105.469	73.8983	105.469	73.2377	105.469	73.7457	105.469	73.0977	105.469	73.5812	105.469	72.9799	105.469	73.4176	105.469	72.8892	105.469	73.2665	105.469	72.8262	105.469	73.1371	105.469	72.7878	105.469	73.0337	105.469	72.7688	105.469	72.9564	105.469	72.7632	105.469	72.9017	105.469	72.7663	105.469	72.864	105.469	72.7748	105.469	72.8375	105.469	72.7867	105.469	72.8175	105.469	72.801
108.398	74.6661	108.398	74.6242	108.398	74.6854	108.398	74.5601	108.398	74.6821	108.398	74.4743	108.398	74.6561	108.398	74.3684	108.398	74.6077	108.398	74.2444	108.398	74.5378	108.398	74.1065	108.398	74.4481	108.398	73.9601	108.398	74.3417	108.398	73.813	108.398	74.2227	108.398	73.6738	108.398	74.0965	108.398	73.5514	108.398	73.9686	108.398	73.4526	108.398	73.845	108.398	73.3808	108.398	73.7305	108.398	73.3354	108.398	73.6292	108.398	73.3126	108.398	73.5434	108.398	73.3067	108.398	73.4741	108.398	73.3128	108.398	73.4202	108.398	73.3274	108.398	73.3795	108.398	73.3494
112.793	75.1503	112.793	75.1252	112.793	75.1533	112.793	75.0771	112.793	75.1363	112.793	75.0058	112.793	75.1014	112.793	74.9124	112.793	75.0515	112.793	74.799	112.793	74.9895	112.793	74.6694	112.793	74.9182	112.793	74.5285	112.793	74.8405	112.793	74.3827	112.793	74.7586	112.793	74.2395	112.793	74.6744	112.793	74.1071	112.793	74.5892	112.793	73.9934	112.793	74.5039	112.793	73.9052	112.793	74.4191	112.793	73.8467	112.793	74.3353	112.793	73.8194	112.793	74.2529	112.793	73.8212	112.793	74.1724	112.793	73.8477	112.793	74.0946	112.793	73.8933	112.793	74.0206	112.793	73.9524
117.188	75.9062	117.188	75.9525	117.188	75.8388	117.188	75.975	117.188	75.7537	117.188	75.9719	117.188	75.6548	117.188	75.9419	117.188	75.5462	117.188	75.8852	117.188	75.4322	117.188	75.8031	117.188	75.3167	117.188	75.6984	117.188	75.2032	117.188	75.5754	117.188	75.0941	117.188	75.4397	117.188	74.9903	117.188	75.2975	117.188	74.8923	117.188	75.1551	117.188	74.8001	117.188	75.0181	117.188	74.7147	117.188	74.8911	117.188	74.6382	117.188	74.7778	117.188	74.5739	117.188	74.6805	117.188	74.5254	117.188	74.6012	117.188	74.4962	117.188	74.5418	117.188	74.4887	117.188	74.504
120.117	76.3159	120.117	76.3934	120.117	76.2199	120.117	76.4493	120.117	76.1089	120.117	76.481	120.117	75.9865	120.117	76.4863	120.117	75.856	120.117	76.4638	120.117	75.7209	120.117	76.413	120.117	75.5847	120.117	76.334	120.117	75.4509	120.117	76.228	120.117	75.3229	120.117	76.098	120.117	75.2038	120.117	75.9485	120.117	75.0961	120.117	75.7856	120.117	75.0016	120.117	75.617	120.117	74.922	120.117	75.4502	120.117	74.8589	120.117	75.2928	120.117	74.8141	120.117	75.1509	120.117	74.7897	120.117	75.0291	120.117	74.7876	120.117	74.9306	120.117	74.8097	120.117	74.8573
124.512	76.8222	124.512	76.8529	124.512	76.7789	124.512	76.8693	124.512	76.7251	124.512	76.8701	124.512	76.6632	124.512	76.8545	124.512	76.5951	124.512	76.8226	124.512	76.5229	124.512	76.775	124.512	76.4479	124.512	76.7133	124.512	76.3715	124.512	76.6396	124.512	76.2947	124.512	76.5566	124.512	76.2186	124.512	76.4676	124.512	76.1444	124.512	76.3756	124.512	76.0737	124.512	76.2834	124.512	76.0086	124.512	76.1935	124.512	75.9512	124.512	76.108	124.512	75.904	124.512	76.0297	124.512	75.8699	124.512	75.9616	124.512	75.8514	124.512	75.9072	124.512	75.8509	124.512	75.8697
128.906	77.5296	128.906	77.5261	128.906	77.5243	128.906	77.5148	128.906	77.5097	128.906	77.4968	128.906	77.4858	128.906	77.4732	128.906	77.4532	128.906	77.4449	128.906	77.4131	128.906	77.4128	128.906	77.3672	128.906	77.378	128.906	77.3175	128.906	77.3413	128.906	77.2664	128.906	77.3037	128.906	77.2166	128.906	77.266	128.906	77.1707	128.906	77.2285	128.906	77.1309	128.906	77.1917	128.906	77.0985	128.906	77.1559	128.906	77.0735	128.906	77.1223	128.906	77.0556	128.906	77.0922	128.906	77.0436	128.906	77.0677	128.906	77.0369	128.906	77.0499	128.906	77.0352	128.906	77.0392
133.301	78.268	133.301	78.2638	133.301	78.2569	133.301	78.2451	133.301	78.2306	133.301	78.2139	133.301	78.1903	133.301	78.1728	133.301	78.1385	133.301	78.1248	133.301	78.0779	133.301	78.073	133.301	78.0124	133.301	78.0208	133.301	77.9458	133.301	77.971	133.301	77.8822	133.301	77.926	133.301	77.8256	133.301	77.8872	133.301	77.7791	133.301	77.8552	133.301	77.7447	133.301	77.8294	133.301	77.7232	133.301	77.8086	133.301	77.7133	133.301	77.7914	133.301	77.7128	133.301	77.7771	133.301	77.7184	133.301	77.7651	133.301	77.727	133.301	77.7548	133.301	77.7363	133.301	77.7455
139.16	79.1122	139.16	79.119	139.16	79.0921	139.16	79.1121	139.16	79.0597	139.16	79.092	139.16	79.0168	139.16	79.0598	139.16	78.9656	139.16	79.0175	139.16	78.9082	139.16	78.9673	139.16	78.847	139.16	78.912	139.16	78.7844	139.16	78.8544	139.16	78.7225	139.16	78.7975	139.16	78.6637	139.16	78.7438	139.16	78.6101	139.16	78.6956	139.16	78.564	139.16	78.6539	139.16	78.527	139.16	78.619	139.16	78.5004	139.16	78.5899	139.16	78.4845	139.16	78.565	139.16	78.4786	139.16	78.5429	139.16	78.4814	139.16	78.523	139.16	78.4909	139.16	78.5053
143.555	79.6774	143.555	79.6676	143.555	79.674	143.555	79.6455	143.555	79.6571	143.555	79.6125	143.555	79.6273	143.555	79.5706	143.555	79.5862	143.555	79.5225	143.555	79.536	143.555	79.4711	143.555	79.4797	143.555	79.4195	143.555	79.4212	143.555	79.3704	143.555	79.364	143.555	79.3265	143.555	79.3115	143.555	79.2893	143.555	79.2665	143.555	79.2598	143.555	79.2305	143.555	79.2382	143.555	79.2037	143.555	79.2236	143.555	79.1858	143.555	79.2143	143.555	79.1758	143.555	79.2078	143.555	79.1725	143.555	79.202	143.555	79.1745	143.555	79.1954	143.555	79.1802	143.555	79.1878
147.949	80.3432	147.949	80.3365	147.949	80.3365	147.949	80.317	147.949	80.3168	147.949	80.2859	147.949	80.2854	147.949	80.2455	147.949	80.2444	147.949	80.1982	147.949	80.1966	147.949	80.1468	147.949	80.1452	147.949	80.0942	147.949	80.0934	147.949	80.0431	147.949	80.0442	147.949	79.9954	147.949	80.0003	147.949	79.9526	147.949	79.9632	147.949	79.9155	147.949	79.9331	147.949	79.8849	147.949	79.9096	147.949	79.8614	147.949	79.8912	147.949	79.8451	147.949	79.8766	147.949	79.8359	147.949	79.8645	147.949	79.8327	147.949	79.8544	147.949	79.8342	147.949	79.8458	147.949	79.8389
153.809	81.0424	153.809	81.027	153.809	81.0434	153.809	80.9983	153.809	81.0301	153.809	80.958	153.809	81.0032	153.809	80.9088	153.809	80.9649	153.809	80.8541	153.809	80.9181	153.809	80.7982	153.809	80.8668	153.809	80.7457	153.809	80.8155	153.809	80.701	153.809	80.7691	153.809	80.6674	153.809	80.732	153.809	80.647	153.809	80.7077	153.809	80.6397	153.809	80.6976	153.809	80.6441	153.809	80.701	153.809	80.6577	153.809	80.7143	153.809	80.6777	153.809	80.7327	153.809	80.7012	153.809	80.7505	153.809	80.7251	153.809	80.7627	153.809	80.7459	153.809	80.7664	153.809	80.7605
159.668	81.6323	159.668	81.6111	159.668	81.6396	159.668	81.5772	159.668	81.6329	159.668	81.5331	159.668	81.6134	159.668	81.4825	159.668	81.5831	159.668	81.4296	159.668	81.5449	159.668	81.379	159.668	81.5025	159.668	81.3349	159.668	81.4593	159.668	81.3006	159.668	81.4187	159.668	81.2779	159.668	81.3831	159.668	81.267	159.668	81.3541	159.668	81.2664	159.668	81.3322	159.668	81.2732	159.668	81.3174	159.668	81.2841	159.668	81.309	159.668	81.2959	159.668	81.306	159.668	81.3062	159.668	81.3071	159.668	81.3134	159.668	81.3105	159.668	81.317	159.668	81.3144	159.668	81.317
165.527	82.383	165.527	82.3328	165.527	82.4145	165.527	82.2665	165.527	82.4267	165.527	82.1885	165.527	82.4207	165.527	82.1047	165.527	82.3992	165.527	82.022	165.527	82.3662	165.527	81.9476	165.527	82.3263	165.527	81.8882	165.527	82.2844	165.527	81.8491	165.527	82.2447	165.527	81.8332	165.527	82.2107	165.527	81.8409	165.527	82.1847	165.527	81.8693	165.527	82.1679	165.527	81.9135	165.527	82.1603	165.527	81.9669	165.527	82.1607	165.527	82.0227	165.527	82.1667	165.527	82.0749	165.527	82.1747	165.527	82.1189	165.527	82.1809	165.527	82.1517	165.527	82.1813	165.527	82.1723
171.387	83.4736	171.387	83.4631	171.387	83.4564	171.387	83.4254	171.387	83.4123	171.387	83.3627	171.387	83.3444	171.387	83.2786	171.387	83.2571	171.387	83.1776	171.387	83.1568	171.387	83.0654	171.387	83.051	171.387	82.9482	171.387	82.9473	171.387	82.8326	171.387	82.8525	171.387	82.7247	171.387	82.7718	171.387	82.6297	171.387	82.7079	171.387	82.5517	171.387	82.661	171.387	82.4928	171.387	82.6288	171.387	82.4539	171.387	82.6074	171.387	82.4345	171.387	82.5914	171.387	82.4331	171.387	82.5754	171.387	82.4466	171.387	82.5555	171.387	82.4708	171.387	82.53	171.387	82.5004
177.246	83.9955	177.246	84.0166	177.246	83.952	177.246	84.0139	177.246	83.8894	177.246	83.9877	177.246	83.8119	177.246	83.94	177.246	83.7244	177.246	83.8739	177.246	83.6314	177.246	83.7938	177.246	83.5367	177.246	83.7046	177.246	83.4432	177.246	83.6122	177.246	83.3527	177.246	83.5224	177.246	83.2669	177.246	83.4407	177.246	83.1881	177.246	83.3709	177.246	83.1199	177.246	83.3149	177.246	83.067	177.246	83.2718	177.246	83.0339	177.246	83.2385	177.246	83.0228	177.246	83.2108	177.246	83.0321	177.246	83.1844	177.246	83.0567	177.246	83.1559	177.246	83.0895	177.246	83.1239
183.105	84.3355	183.105	84.342	183.105	84.3152	183.105	84.3349	183.105	84.2828	183.105	84.3161	183.105	84.2413	183.105	84.2886	183.105	84.1955	183.105	84.2556	183.105	84.1505	183.105	84.2202	183.105	84.1113	183.105	84.1847	183.105	84.0819	183.105	84.1506	183.105	84.064	183.105	84.1186	183.105	84.0566	183.105	84.0892	183.105	84.0562	183.105	84.063	183.105	84.0581	183.105	84.0409	183.105	84.0578	183.105	84.0235	183.105	84.053	183.105	84.0109	183.105	84.0435	183.105	84.0029	183.105	84.0314	183.105	83.999	183.105	84.0191	183.105	83.9986	183.105	84.0089	183.105	84.0019
188.965	84.9553	188.965	84.948	188.965	84.9382	188.965	84.9176	188.965	84.8972	188.965	84.8672	188.965	84.8347	188.965	84.8022	188.965	84.7548	188.965	84.7295	188.965	84.6638	188.965	84.657	188.965	84.5702	188.965	84.5927	188.965	84.4841	188.965	84.5426	188.965	84.4156	188.965	84.5095	188.965	84.3728	188.965	84.4923	188.965	84.3587	188.965	84.4863	188.965	84.3703	188.965	84.4858	188.965	84.399	188.965	84.4859	188.965	84.4337	188.965	84.4847	188.965	84.4641	188.965	84.4827	188.965	84.484	188.965	84.4818	188.965	84.4923	188.965	84.4834	188.965	84.4919	188.965	84.4875
196.289	85.6283	196.289	85.6268	196.289	85.6014	196.289	85.5974	196.289	85.5489	196.289	85.5437	196.289	85.4758	196.289	85.4722	196.289	85.3888	196.289	85.3906	196.289	85.2946	196.289	85.307	196.289	85.1993	196.289	85.2278	196.289	85.1075	196.289	85.158	196.289	85.023	196.289	85.1012	196.289	84.9487	196.289	85.059	196.289	84.8873	196.289	85.0319	196.289	84.842	196.289	85.0181	196.289	84.8163	196.289	85.0138	196.289	84.8122	196.289	85.0141	196.289	84.8287	196.289	85.0138	196.289	84.8609	196.289	85.0087	196.289	84.9009	196.289	84.9957	196.289	84.9404	196.289	84.9729
203.613	86.1079	203.613	86.0675	203.613	86.1157	203.613	85.9959	203.613	86.0928	203.613	85.8981	203.613	86.0435	203.613	85.7828	203.613	85.9744	203.613	85.6617	203.613	85.8933	203.613	85.5475	203.613	85.8084	203.613	85.4519	203.613	85.7271	203.613	85.3827	203.613	85.655	203.613	85.3426	203.613	85.5953	203.613	85.3296	203.613	85.549	203.613	85.3379	203.613	85.5157	203.613	85.3603	203.613	85.4944	203.613	85.3901	203.613	85.4836	203.613	85.4216	203.613	85.4815	203.613	85.4505	203.613	85.4854	203.613	85.4737	203.613	85.4918	203.613	85.4894	203.613	85.4968	203.613	85.4968
210.938	86.3856	210.938	86.3465	210.938	86.4011	210.938	86.2852	210.938	86.3915	210.938	86.2037	210.938	86.3567	210.938	86.1045	210.938	86.2988	210.938	85.9924	210.938	86.2225	210.938	85.8749	210.938	86.1355	210.938	85.7621	210.938	86.0474	210.938	85.6656	210.938	85.9676	210.938	85.5958	210.938	85.9036	210.938	85.5597	210.938	85.8599	210.938	85.5588	210.938	85.8371	210.938	85.5887	210.938	85.8326	210.938	85.6405	210.938	85.8421	210.938	85.7029	210.938	85.8596	210.938	85.7655	210.938	85.8787	210.938	85.8202	210.938	85.8931	210.938	85.8616	210.938	85.8973	210.938	85.8874
218.262	86.6477	218.262	86.6252	218.262	86.6419	218.262	86.5735	218.262	86.6112	218.262	86.4946	218.262	86.5605	218.262	86.3946	218.262	86.4955	218.262	86.2832	218.262	86.4224	218.262	86.1729	218.262	86.3484	218.262	86.0773	218.262	86.2811	218.262	86.0088	218.262	86.2284	218.262	85.9765	218.262	86.1972	218.262	85.984	218.262	86.1912	218.262	86.0292	218.262	86.2103	218.262	86.104	218.262	86.2499	218.262	86.1963	218.262	86.302	218.262	86.2916	218.262	86.3582	218.262	86.3763	218.262	86.4106	218.262	86.4402	218.262	86.4533	218.262	86.4787	218.262	86.4817	218.262	86.4915
225.586	87.1048	225.586	87.1408	225.586	87.0434	225.586	87.1501	225.586	86.9585	225.586	87.1312	225.586	86.8534	225.586	87.0833	225.586	86.7342	225.586	87.0079	225.586	86.6095	225.586	86.911	225.586	86.4895	225.586	86.8041	225.586	86.3849	225.586	86.7018	225.586	86.3054	225.586	86.6179	225.586	86.2583	225.586	86.5617	225.586	86.2476	225.586	86.5355	225.586	86.2734	225.586	86.5369	225.586	86.3314	225.586	86.5609	225.586	86.4135	225.586	86.6019	225.586	86.508	225.586	86.6525	225.586	86.6013	225.586	86.7026	225.586	86.6798	225.586	86.7396	225.586	86.7321	225.586	86.7519
232.91	87.4019	232.91	87.3778	232.91	87.4009	232.91	87.3344	232.91	87.3703	232.91	87.2767	232.91	87.3074	232.91	87.2087	232.91	87.2119	232.91	87.1325	232.91	87.086	232.91	87.0494	232.91	86.9353	232.91	86.9621	232.91	86.7692	232.91	86.8755	232.91	86.601	232.91	86.7975	232.91	86.4471	232.91	86.7361	232.91	86.3245	232.91	86.6961	232.91	86.2468	232.91	86.6769	232.91	86.2203	232.91	86.6727	232.91	86.2422	232.91	86.675	232.91	86.3012	232.91	86.6753	232.91	86.3815	232.91	86.6665	232.91	86.4666	232.91	86.6437	232.91	86.5432	232.91	86.6031
241.699	87.3409	241.699	87.3159	241.699	87.337	241.699	87.2633	241.699	87.3073	241.699	87.189	241.699	87.258	241.699	87.1018	241.699	87.1972	241.699	87.0121	241.699	87.1329	241.699	86.9285	241.699	87.071	241.699	86.8568	241.699	87.0144	241.699	86.7988	241.699	86.9625	241.699	86.7535	241.699	86.9122	241.699	86.7178	241.699	86.8607	241.699	86.6884	241.699	86.8071	241.699	86.6615	241.699	86.7536	241.699	86.6349	241.699	86.704	241.699	86.6087	241.699	86.6616	241.699	86.5856	241.699	86.6274	241.699	86.5695	241.699	86.6006	241.699	86.5634	241.699	86.5805	241.699	86.5675
250.488	87.6026	250.488	87.5859	250.488	87.5751	250.488	87.5238	250.488	87.5082	250.488	87.419	250.488	87.41	250.488	87.2801	250.488	87.292	250.488	87.1219	250.488	87.1685	250.488	86.9654	250.488	87.0548	250.488	86.8332	250.488	86.9648	250.488	86.7429	250.488	86.9067	250.488	86.7001	250.488	86.881	250.488	86.6971	250.488	86.88	250.488	86.7178	250.488	86.8915	250.488	86.7449	250.488	86.9044	250.488	86.7666	250.488	86.912	250.488	86.7794	250.488	86.9121	250.488	86.7871	250.488	86.9043	250.488	86.797	250.488	86.8886	250.488	86.8144	250.488	86.8657	250.488	86.839
259.277	87.7555	259.277	87.7469	259.277	87.721	259.277	87.694	259.277	87.6469	259.277	87.5977	259.277	87.5384	259.277	87.462	259.277	87.4031	259.277	87.2947	259.277	87.2503	259.277	87.1095	259.277	87.0903	259.277	86.9269	259.277	86.9348	259.277	86.7725	259.277	86.7962	259.277	86.6705	259.277	86.6875	259.277	86.6354	259.277	86.6184	259.277	86.6653	259.277	86.5929	259.277	86.7428	259.277	86.6073	259.277	86.8429	259.277	86.6527	259.277	86.9404	259.277	86.7193	259.277	87.0157	259.277	86.7988	259.277	87.0565	259.277	86.883	259.277	87.0585	259.277	86.9621	259.277	87.0243
268.066	87.7223	268.066	87.678	268.066	87.7214	268.066	87.5875	268.066	87.6772	268.066	87.4518	268.066	87.5928	268.066	87.275	268.066	87.4747	268.066	87.0657	268.066	87.3339	268.066	86.8386	268.066	87.1856	268.066	86.6139	268.066	87.0475	268.066	86.417	268.066	86.936	268.066	86.2741	268.066	86.8628	268.066	86.2054	268.066	86.8313	268.066	86.2166	268.066	86.8349	268.066	86.2941	268.066	86.8589	268.066	86.4098	268.066	86.8849	268.066	86.5316	268.066	86.8978	268.066	86.6352	268.066	86.8912	268.066	86.7108	268.066	86.8678	268.066	86.7625	268.066	86.8358	268.066	86.8011
276.855	87.6856	276.855	87.6686	276.855	87.649	276.855	87.5905	276.855	87.574	276.855	87.4554	276.855	87.4766	276.855	87.2785	276.855	87.3676	276.855	87.0814	276.855	87.2502	276.855	86.8867	276.855	87.1227	276.855	86.7137	276.855	86.9828	276.855	86.5761	276.855	86.8333	276.855	86.483	276.855	86.6849	276.855	86.4402	276.855	86.5578	276.855	86.4514	276.855	86.4776	276.855	86.5171	276.855	86.4668	276.855	86.6319	276.855	86.5336	276.855	86.7809	276.855	86.6655	276.855	86.9392	276.855	86.832	276.855	87.0759	276.855	86.9947	276.855	87.1619	276.855	87.1182	276.855	87.1776
287.109	87.1421	287.109	87.1219	287.109	87.1575	287.109	87.1064	287.109	87.1567	287.109	87.0965	287.109	87.1339	287.109	87.0807	287.109	87.0897	287.109	87.0415	287.109	87.0295	287.109	86.9655	287.109	86.9609	287.109	86.8542	287.109	86.8922	287.109	86.7272	287.109	86.8314	287.109	86.6162	287.109	86.7834	287.109	86.5513	287.109	86.7479	287.109	86.5445	287.109	86.7206	287.109	86.5845	287.109	86.6976	287.109	86.6458	287.109	86.6805	287.109	86.7049	287.109	86.6762	287.109	86.7499	287.109	86.6909	287.109	86.7785	287.109	86.7221	287.109	86.7902	287.109	86.7576	287.109	86.783
297.363	87.5229	297.363	87.6243	297.363	87.3781	297.363	87.6828	297.363	87.1852	297.363	87.6949	297.363	86.9401	297.363	87.6548	297.363	86.6479	297.363	87.558	297.363	86.3294	297.363	87.4022	297.363	86.0224	297.363	87.1909	297.363	85.7722	297.363	86.9368	297.363	85.6157	297.363	86.6661	297.363	85.568	297.363	86.4188	297.363	85.6191	297.363	86.2396	297.363	85.7412	297.363	86.16	297.363	85.8989	297.363	86.1793	297.363	86.058	297.363	86.263	297.363	86.194	297.363	86.3612	297.363	86.2969	297.363	86.4339	297.363	86.3703	297.363	86.4643	297.363	86.4226	297.363	86.4564
307.617	86.7115	307.617	86.6896	307.617	86.6992	307.617	86.6275	307.617	86.6663	307.617	86.5316	307.617	86.6234	307.617	86.4184	307.617	86.5714	307.617	86.3083	307.617	86.5033	307.617	86.2166	307.617	86.4138	307.617	86.1487	307.617	86.307	307.617	86.0984	307.617	86.196	307.617	86.0533	307.617	86.0959	307.617	86.0034	307.617	86.0171	307.617	85.9481	307.617	85.9643	307.617	85.8992	307.617	85.9385	307.617	85.8759	307.617	85.9393	307.617	85.8936	307.617	85.9638	307.617	85.9505	307.617	86.0067	307.617	86.0255	307.617	86.0575	307.617	86.0878	307.617	86.0998	307.617	86.114
319.336	86.6206	319.336	86.5255	319.336	86.6256	319.336	86.3513	319.336	86.5396	319.336	86.1155	319.336	86.3748	319.336	85.839	319.336	86.1543	319.336	85.5459	319.336	85.9063	319.336	85.2644	319.336	85.6593	319.336	85.0267	319.336	85.4457	319.336	84.864	319.336	85.3053	319.336	84.7981	319.336	85.2759	319.336	84.835	319.336	85.3652	319.336	84.9631	319.336	85.535	319.336	85.1547	319.336	85.7232	319.336	85.3696	319.336	85.8795	319.336	85.5653	319.336	85.9823	319.336	85.7141	319.336	86.0309	319.336	85.8146	319.336	86.0327	319.336	85.8854	319.336	85.9992	319.336	85.946
329.59	86.0624	329.59	86.0018	329.59	86.0677	329.59	85.8948	329.59	86.0146	329.59	85.7544	329.59	85.9078	329.59	85.5959	329.59	85.7595	329.59	85.4348	329.59	85.5845	329.59	85.2834	329.59	85.3951	329.59	85.1462	329.59	85.199	329.59	85.018	329.59	85.0058	329.59	84.8907	329.59	84.8359	329.59	84.7643	329.59	84.7209	329.59	84.6561	329.59	84.6857	329.59	84.5966	329.59	84.7234	329.59	84.609	329.59	84.7929	329.59	84.6876	329.59	84.8487	329.59	84.7948	329.59	84.8739	329.59	84.8836	329.59	84.8838	329.59	84.9252	329.59	84.8999	329.59	84.9219
341.309	86.5194	341.309	86.4503	341.309	86.4988	341.309	86.2998	341.309	86.3855	341.309	86.0815	341.309	86.1855	341.309	85.8179	341.309	85.916	341.309	85.5422	341.309	85.6015	341.309	85.2944	341.309	85.2654	341.309	85.1073	341.309	84.9273	341.309	84.9898	341.309	84.614	341.309	84.9204	341.309	84.373	341.309	84.8617	341.309	84.2666	341.309	84.7894	341.309	84.3315	341.309	84.7139	341.309	84.5425	341.309	84.6766	341.309	84.8246	341.309	84.719	341.309	85.0981	341.309	84.8495	341.309	85.3086	341.309	85.0363	341.309	85.4291	341.309	85.2281	341.309	85.4506	341.309	85.3775
353.027	86.6513	353.027	86.7543	353.027	86.4989	353.027	86.7945	353.027	86.3129	353.027	86.7617	353.027	86.1097	353.027	86.6484	353.027	85.9054	353.027	86.4536	353.027	85.7163	353.027	86.1904	353.027	85.5567	353.027	85.8935	353.027	85.4293	353.027	85.6179	353.027	85.3161	353.027	85.4228	353.027	85.185	353.027	85.3411	353.027	85.0164	353.027	85.3558	353.027	84.8305	353.027	85.4129	353.027	84.6868	353.027	85.4611	353.027	84.6471	353.027	85.4816	353.027	84.7289	353.027	85.4845	353.027	84.898	353.027	85.4807	353.027	85.0972	353.027	85.4605	353.027	85.2747	353.027	85.3979
366.211	86.7496	366.211	86.7269	366.211	86.7372	366.211	86.6617	366.211	86.6936	366.211	86.5479	366.211	86.6153	366.211	86.3821	366.211	86.4942	366.211	86.1641	366.211	86.3283	366.211	85.8995	366.211	86.1345	366.211	85.6126	366.211	85.9493	366.211	85.3539	366.211	85.8112	366.211	85.1881	366.211	85.7375	366.211	85.1576	366.211	85.7187	366.211	85.257	366.211	85.7355	366.211	85.4444	366.211	85.7785	366.211	85.6692	366.211	85.8516	366.211	85.8901	366.211	85.9572	366.211	86.0773	366.211	86.0823	366.211	86.2136	366.211	86.1998	366.211	86.293	366.211	86.2828	366.211	86.3156
379.395	87.0894	379.395	87.1238	379.395	87.0078	379.395	87.0929	379.395	86.89	379.395	86.9798	379.395	86.7381	379.395	86.7794	379.395	86.5506	379.395	86.5085	379.395	86.3315	379.395	86.2038	379.395	86.0995	379.395	85.9046	379.395	85.8865	379.395	85.6328	379.395	85.7223	379.395	85.398	379.395	85.6172	379.395	85.2269	379.395	85.5613	379.395	85.1752	379.395	85.5393	379.395	85.284	379.395	85.546	379.395	85.5228	379.395	85.5893	379.395	85.8035	379.395	85.6815	379.395	86.0449	379.395	85.8239	379.395	86.2061	379.395	85.9947	379.395	86.2761	379.395	86.1525	379.395	86.2551
392.578	87.529	392.578	87.5059	392.578	87.5069	392.578	87.4567	392.578	87.4155	392.578	87.3826	392.578	87.2411	392.578	87.2684	392.578	86.9887	392.578	87.0963	392.578	86.6801	392.578	86.8603	392.578	86.3499	392.578	86.5717	392.578	86.0435	392.578	86.2573	392.578	85.8106	392.578	85.9509	392.578	85.6863	392.578	85.6838	392.578	85.6694	392.578	85.4807	392.578	85.7227	392.578	85.3624	392.578	85.7932	392.578	85.3377	392.578	85.8339	392.578	85.3837	392.578	85.8162	392.578	85.4468	392.578	85.7381	392.578	85.4802	392.578	85.628	392.578	85.4803	392.578	85.5319	392.578	85.4843
405.762	87.8984	405.762	87.7382	405.762	87.8896	405.762	87.4365	405.762	87.7207	405.762	87.0528	405.762	87.4269	405.762	86.6654	405.762	87.0451	405.762	86.3541	405.762	86.591	405.762	86.1725	405.762	86.0662	405.762	86.1149	405.762	85.4994	405.762	86.1131	405.762	84.9935	405.762	86.0845	405.762	84.7046	405.762	85.9906	405.762	84.7115	405.762	85.8517	405.762	84.9221	405.762	85.716	405.762	85.1709	405.762	85.6217	405.762	85.3582	405.762	85.5853	405.762	85.4764	405.762	85.6054	405.762	85.5606	405.762	85.6613	405.762	85.6363	405.762	85.7151	405.762	85.7004	405.762	85.7316
420.41	87.281	420.41	87.2029	420.41	87.2392	420.41	87.0446	420.41	87.0564	420.41	86.831	420.41	86.7536	420.41	86.5517	420.41	86.3941	420.41	86.1727	420.41	86.0578	420.41	85.6804	420.41	85.7916	420.41	85.132	420.41	85.5697	420.41	84.6623	420.41	85.3188	420.41	84.4003	420.41	85.0008	420.41	84.3569	420.41	84.6859	420.41	84.4356	420.41	84.5355	420.41	84.5504	420.41	84.6561	420.41	84.6915	420.41	84.973	420.41	84.8929	420.41	85.3185	420.41	85.1637	420.41	85.5853	420.41	85.4555	420.41	85.7544	420.41	85.6922	420.41	85.8357	420.41	85.8213
435.059	86.8934	435.059	87.0052	435.059	86.7959	435.059	87.0903	435.059	86.7245	435.059	87.0997	435.059	86.6506	435.059	86.9888	435.059	86.5287	435.059	86.7252	435.059	86.3375	435.059	86.3084	435.059	86.0965	435.059	85.7918	435.059	85.8423	435.059	85.2786	435.059	85.5974	435.059	84.8793	435.059	85.3707	435.059	84.6634	435.059	85.1783	435.059	84.6495	435.059	85.049	435.059	84.8131	435.059	85.0136	435.059	85.0728	435.059	85.0918	435.059	85.305	435.059	85.2665	435.059	85.4231	435.059	85.4629	435.059	85.442	435.059	85.5838	435.059	85.4508	435.059	85.5844	435.059	85.5103
451.172	87.8992	451.172	87.7143	451.172	87.8617	451.172	87.3462	451.172	87.6198	451.172	86.8931	451.172	87.2369	451.172	86.4959	451.172	86.7978	451.172	86.2748	451.172	86.3819	451.172	86.2372	451.172	86.0496	451.172	86.2586	451.172	85.8335	451.172	86.1885	451.172	85.7117	451.172	85.9748	451.172	85.5987	451.172	85.6876	451.172	85.4133	451.172	85.4232	451.172	85.1731	451.172	85.2051	451.172	84.9975	451.172	85.023	451.172	84.9846	451.172	84.9285	451.172	85.1119	451.172	85.0013	451.172	85.2968	451.172	85.227	451.172	85.4788	451.172	85.4778	451.172	85.6078	451.172	85.6203
465.82	88.0648	465.82	88.1177	465.82	87.9538	465.82	88.0546	465.82	87.827	465.82	87.8346	465.82	87.6848	465.82	87.4528	465.82	87.4949	465.82	86.9529	465.82	87.2285	465.82	86.4379	465.82	86.8911	465.82	86.0283	465.82	86.5296	465.82	85.7622	465.82	86.2093	465.82	85.5737	465.82	85.9709	465.82	85.4136	465.82	85.8061	465.82	85.3314	465.82	85.6819	465.82	85.3973	465.82	85.5834	465.82	85.5818	465.82	85.5275	465.82	85.7804	465.82	85.5396	465.82	85.9223	465.82	85.624	465.82	86.0022	465.82	85.7577	465.82	86.0302	465.82	85.8978	465.82	85.9972
483.398	87.7958	483.398	87.7397	483.398	87.7707	483.398	87.6129	483.398	87.6533	483.398	87.4053	483.398	87.4454	483.398	87.0904	483.398	87.1493	483.398	86.653	483.398	86.7566	483.398	86.1185	483.398	86.2749	483.398	85.5681	483.398	85.7798	483.398	85.117	483.398	85.4077	483.398	84.8361	483.398	85.2492	483.398	84.6859	483.398	85.2525	483.398	84.5761	483.398	85.2795	483.398	84.4972	483.398	85.2428	483.398	84.5476	483.398	85.1729	483.398	84.8003	483.398	85.1694	483.398	85.185	483.398	85.2955	483.398	85.5524	483.398	85.5171	483.398	85.7882	483.398	85.7344	483.398	85.8454
499.512	87.1548	499.512	87.1727	499.512	87.1147	499.512	87.1508	499.512	87.0259	499.512	87.0413	499.512	86.8414	499.512	86.8062	499.512	86.5402	499.512	86.4495	499.512	86.1532	499.512	86.0218	499.512	85.738	499.512	85.6015	499.512	85.3378	499.512	85.278	499.512	84.9951	499.512	85.1337	499.512	84.8036	499.512	85.1837	499.512	84.87	499.512	85.3354	499.512	85.1707	499.512	85.4705	499.512	85.5395	499.512	85.5613	499.512	85.8233	499.512	85.6719	499.512	85.9841	499.512	85.8581	499.512	86.0794	499.512	86.0867	499.512	86.1781	499.512	86.2664	499.512	86.2823	499.512	86.3311
517.09	87.4378	517.09	87.2888	517.09	87.4362	517.09	87.0786	517.09	87.2428	517.09	86.8799	517.09	86.8934	517.09	86.7018	517.09	86.4754	517.09	86.5021	517.09	86.0699	517.09	86.2276	517.09	85.703	517.09	85.8409	517.09	85.349	517.09	85.339	517.09	84.9809	517.09	84.7835	517.09	84.6339	517.09	84.3283	517.09	84.4338	517.09	84.1779	517.09	84.5122	517.09	84.4099	517.09	84.844	517.09	84.8448	517.09	85.2479	517.09	85.1986	517.09	85.552	517.09	85.3202	517.09	85.6787	517.09	85.2673	517.09	85.6275	517.09	85.2132	517.09	85.4578	517.09	85.2821
536.133	87.2215	536.133	87.1238	536.133	87.1506	536.133	86.9043	536.133	86.9126	536.133	86.6118	536.133	86.5751	536.133	86.2759	536.133	86.2311	536.133	85.9395	536.133	85.934	536.133	85.6797	536.133	85.6819	536.133	85.5478	536.133	85.4463	536.133	85.5126	536.133	85.1749	536.133	85.5066	536.133	84.7993	536.133	85.4628	536.133	84.3403	536.133	85.2985	536.133	84.0255	536.133	84.9917	536.133	84.1163	536.133	84.7287	536.133	84.5331	536.133	84.8102	536.133	84.985	536.133	85.2654	536.133	85.3414	536.133	85.8019	536.133	85.6475	536.133	86.1322	536.133	85.9442	536.133	86.1545
555.176	87.469	555.176	87.5338	555.176	87.3029	555.176	87.4194	555.176	87.0988	555.176	87.1171	555.176	86.8408	555.176	86.6811	555.176	86.4755	555.176	86.1441	555.176	86.0118	555.176	85.4911	555.176	85.5644	555.176	84.77	555.176	85.2879	555.176	84.1928	555.176	85.2483	555.176	83.9809	555.176	85.3478	555.176	84.1071	555.176	85.3972	555.176	84.4272	555.176	85.2868	555.176	84.882	555.176	85.1105	555.176	85.3873	555.176	85.117	555.176	85.774	555.176	85.4217	555.176	85.9572	555.176	85.8374	555.176	86.0267	555.176	86.1328	555.176	86.1069	555.176	86.2398	555.176	86.2041
574.219	87.132	574.219	87.0767	574.219	86.9953	574.219	86.8479	574.219	86.702	574.219	86.519	574.219	86.3241	574.219	86.2027	574.219	85.9286	574.219	85.9985	574.219	85.5478	574.219	85.9052	574.219	85.1964	574.219	85.7796	574.219	84.8901	574.219	85.4365	574.219	84.6526	574.219	84.8412	574.219	84.5488	574.219	84.2752	574.219	84.6574	574.219	84.1751	574.219	84.9382	574.219	84.5483	574.219	85.2371	574.219	85.0235	574.219	85.4493	574.219	85.4131	574.219	85.5829	574.219	85.7428	574.219	85.6937	574.219	86.0209	574.219	85.8261	574.219	86.1692	574.219	85.9913	574.219	86.1393
594.727	86.5265	594.727	86.5718	594.727	86.3773	594.727	86.481	594.727	86.1714	594.727	86.2371	594.727	85.9593	594.727	85.8477	594.727	85.7529	594.727	85.3485	594.727	85.473	594.727	84.8209	594.727	84.9944	594.727	84.4183	594.727	84.3647	594.727	84.2961	594.727	83.9366	594.727	84.4605	594.727	84.0007	594.727	84.7115	594.727	84.3635	594.727	84.8021	594.727	84.7186	594.727	84.7153	594.727	84.9968	594.727	84.7715	594.727	85.2526	594.727	85.1866	594.727	85.5668	594.727	85.6832	594.727	86.0021	594.727	86.0377	594.727	86.4624	594.727	86.3402	594.727	86.7091	594.727	86.624
615.234	86.3681	615.234	86.2614	615.234	86.4343	615.234	86.1808	615.234	86.3116	615.234	86.0078	615.234	85.931	615.234	85.5892	615.234	85.3643	615.234	84.917	615.234	84.7891	615.234	84.1395	615.234	84.335	615.234	83.4883	615.234	83.9768	615.234	83.1535	615.234	83.6679	615.234	83.173	615.234	83.5026	615.234	83.485	615.234	83.665	615.234	84.0231	615.234	84.2373	615.234	84.7337	615.234	85.0873	615.234	85.5531	615.234	85.9083	615.234	86.3921	615.234	86.4441	615.234	87.1546	615.234	86.7151	615.234	87.7345	615.234	86.974	615.234	87.9895	615.234	87.396	615.234	87.8336
637.207	86.9055	637.207	86.8406	637.207	86.7753	637.207	86.6172	637.207	86.4568	637.207	86.3151	637.207	85.9482	637.207	85.9786	637.207	85.237	637.207	85.5498	637.207	84.3916	637.207	84.9379	637.207	83.641	637.207	84.2017	637.207	83.215	637.207	83.5543	637.207	83.0036	637.207	83.1572	637.207	82.7733	637.207	83.118	637.207	82.7451	637.207	83.4868	637.207	83.2845	637.207	84.0733	637.207	84.2108	637.207	84.6443	637.207	85.1557	637.207	85.1307	637.207	85.9538	637.207	85.5391	637.207	86.5305	637.207	85.8729	637.207	86.7986	637.207	86.1698	637.207	86.7399	637.207	86.4769
659.18	88.5354	659.18	88.4255	659.18	88.3845	659.18	88.0402	659.18	87.9767	659.18	87.3836	659.18	87.3362	659.18	86.5426	659.18	86.5001	659.18	85.6664	659.18	85.5029	659.18	84.8247	659.18	84.4362	659.18	83.9048	659.18	83.4212	659.18	82.7824	659.18	82.5447	659.18	81.6993	659.18	81.9842	659.18	81.3895	659.18	81.8839	659.18	82.0001	659.18	82.1873	659.18	82.6613	659.18	82.9093	659.18	83.0414	659.18	83.8986	659.18	83.6687	659.18	84.7288	659.18	84.7724	659.18	85.2764	659.18	85.7708	659.18	85.7067	659.18	86.2571	659.18	86.0757	659.18	86.2986
682.617	88.8121	682.617	88.8324	682.617	88.5232	682.617	88.5587	682.617	88.0851	682.617	88.0734	682.617	87.5559	682.617	87.4055	682.617	86.9276	682.617	86.5347	682.617	86.1961	682.617	85.6315	682.617	85.3491	682.617	84.981	682.617	84.38	682.617	84.5359	682.617	83.3871	682.617	83.9486	682.617	82.6866	682.617	83.0437	682.617	82.507	682.617	82.3424	682.617	82.6231	682.617	82.758	682.617	82.8999	682.617	83.9394	682.617	83.4739	682.617	84.9418	682.617	84.3212	682.617	85.5774	682.617	85.2599	682.617	86.1015	682.617	86.1227	682.617	86.6157	682.617	86.7312	682.617	86.9015
707.52	88.1909	707.52	88.3958	707.52	88.2324	707.52	88.6151	707.52	88.3089	707.52	88.4683	707.52	88.1239	707.52	87.8304	707.52	87.6334	707.52	86.82	707.52	86.9193	707.52	85.5564	707.52	85.9455	707.52	84.0273	707.52	84.6306	707.52	82.4057	707.52	83.1184	707.52	81.5744	707.52	81.9634	707.52	82.0612	707.52	81.8243	707.52	82.8878	707.52	82.458	707.52	83.4223	707.52	83.1324	707.52	83.98	707.52	83.7561	707.52	84.6612	707.52	84.6273	707.52	85.0571	707.52	85.4495	707.52	85.0709	707.52	85.7397	707.52	85.0101	707.52	85.5253	707.52	85.1728
732.422	90.4646	732.422	90.1774	732.422	90.4194	732.422	89.7418	732.422	89.9584	732.422	89.2866	732.422	89.1672	732.422	88.8357	732.422	88.1973	732.422	88.283	732.422	87.1834	732.422	87.4963	732.422	86.2039	732.422	86.626	732.422	85.2274	732.422	85.8507	732.422	84.2346	732.422	84.8351	732.422	83.3614	732.422	83.4939	732.422	83.0505	732.422	82.7209	732.422	83.6178	732.422	83.0817	732.422	84.5629	732.422	84.1288	732.422	85.3257	732.422	85.3361	732.422	85.8229	732.422	86.2484	732.422	86.1987	732.422	86.6866	732.422	86.4801	732.422	86.744	732.422	86.587	732.422	86.6409
757.324	91.4237	757.324	91.4901	757.324	90.8851	757.324	91.0653	757.324	90.2493	757.324	90.3794	757.324	89.7335	757.324	89.51	757.324	89.0989	757.324	88.4739	757.324	88.115	757.324	87.4281	757.324	86.9963	757.324	86.3227	757.324	86.1212	757.324	85.0258	757.324	85.4418	757.324	83.9894	757.324	84.5663	757.324	83.6288	757.324	83.1856	757.324	83.5276	757.324	82.1055	757.324	83.5199	757.324	83.0571	757.324	83.8504	757.324	84.7568	757.324	84.62	757.324	85.8351	757.324	85.7363	757.324	86.5067	757.324	86.9004	757.324	87.1647	757.324	87.7229	757.324	87.7426	757.324	87.9934
785.156	91.6852	785.156	91.7508	785.156	91.5947	785.156	91.6148	785.156	91.3304	785.156	91.1978	785.156	90.7383	785.156	90.6378	785.156	90.0639	785.156	89.8495	785.156	89.4528	785.156	88.5767	785.156	88.6075	785.156	86.9039	785.156	87.4493	785.156	85.3364	785.156	86.3005	785.156	84.1361	785.156	85.0956	785.156	83.0163	785.156	83.5747	785.156	82.5902	785.156	82.2561	785.156	83.462	785.156	82.3605	785.156	84.3585	785.156	83.9747	785.156	85.0858	785.156	85.3934	785.156	85.9784	785.156	85.7604	785.156	86.8595	785.156	85.8098	785.156	87.3645	785.156	86.407	785.156	87.1674
811.523	91.5182	811.523	91.2151	811.523	91.6894	811.523	90.8011	811.523	91.5355	811.523	90.2562	811.523	90.9255	811.523	89.7185	811.523	90.0189	811.523	89.1921	811.523	89.0773	811.523	88.2704	811.523	88.0564	811.523	86.815	811.523	86.6465	811.523	85.3626	811.523	84.7385	811.523	83.9316	811.523	82.9293	811.523	81.7633	811.523	82.4626	811.523	80.347	811.523	82.6679	811.523	81.6031	811.523	82.2268	811.523	83.0496	811.523	82.7415	811.523	84.1532	811.523	84.6056	811.523	85.1879	811.523	86.0397	811.523	86.2054	811.523	86.8415	811.523	87.1021	811.523	87.3496	811.523	87.5247
840.82	92.7233	840.82	92.7567	840.82	92.4684	840.82	92.6426	840.82	91.9554	840.82	92.2034	840.82	91.3866	840.82	91.3029	840.82	90.7611	840.82	90.1046	840.82	89.9297	840.82	88.8169	840.82	88.9498	840.82	87.3596	840.82	87.8951	840.82	85.496	840.82	86.8293	840.82	83.4192	840.82	85.5033	840.82	82.2156	840.82	83.209	840.82	82.1877	840.82	81.4899	840.82	82.7123	840.82	82.8414	840.82	83.8941	840.82	84.0927	840.82	85.5177	840.82	85.0678	840.82	86.6768	840.82	86.4836	840.82	86.998	840.82	87.6151	840.82	87.0431	840.82	87.9133	840.82	87.4807
870.117	93.5233	870.117	93.2485	870.117	93.5049	870.117	92.6302	870.117	93.1862	870.117	91.9332	870.117	92.5029	870.117	91.3564	870.117	91.6062	870.117	90.5287	870.117	90.7207	870.117	89.1638	870.117	89.8877	870.117	87.5969	870.117	89.0175	870.117	86.1981	870.117	87.9491	870.117	84.7197	870.117	86.7527	870.117	83.014	870.117	85.2178	870.117	81.5529	870.117	83.1837	870.117	80.721	870.117	82.9056	870.117	81.7541	870.117	83.9424	870.117	83.4898	870.117	84.5634	870.117	84.6558	870.117	85.5864	870.117	85.8153	870.117	86.8592	870.117	86.9339	870.117	87.5074	870.117	87.5018
900.879	92.6669	900.879	92.7019	900.879	92.7387	900.879	92.5526	900.879	92.6898	900.879	91.9382	900.879	92.1237	900.879	91.0474	900.879	91.0564	900.879	90.0292	900.879	89.8877	900.879	88.6611	900.879	88.8274	900.879	86.9477	900.879	87.5865	900.879	84.9495	900.879	85.8809	900.879	82.2118	900.879	84.2223	900.879	79.1547	900.879	83.0803	900.879	79.7612	900.879	81.4943	900.879	82.0991	900.879	80.777	900.879	83.5641	900.879	82.869	900.879	85.0356	900.879	84.4058	900.879	86.6291	900.879	85.3048	900.879	87.4498	900.879	86.4395	900.879	87.3683	900.879	87.2341	900.879	87.2711
933.105	92.685	933.105	92.6535	933.105	92.6095	933.105	92.5798	933.105	92.2018	933.105	92.1803	933.105	91.4313	933.105	91.2208	933.105	90.5105	933.105	89.9982	933.105	89.4656	933.105	89.0724	933.105	88.0188	933.105	87.9743	933.105	86.3674	933.105	85.9347	933.105	85.1099	933.105	84.0258	933.105	83.0568	933.105	82.6927	933.105	80.3636	933.105	80.3743	933.105	81.3448	933.105	80.3038	933.105	82.0541	933.105	81.4082	933.105	82.8272	933.105	82.1291	933.105	85.2371	933.105	83.9732	933.105	86.4854	933.105	85.8658	933.105	86.5579	933.105	87.1953	933.105	86.863	933.105	87.4577
965.332	92.9151	965.332	92.4733	965.332	92.7304	965.332	91.8091	965.332	91.9842	965.332	91.215	965.332	91.0759	965.332	90.6781	965.332	90.119	965.332	89.8864	965.332	89.0111	965.332	88.5582	965.332	87.8267	965.332	87.1885	965.332	86.858	965.332	86.0139	965.332	86.0258	965.332	83.672	965.332	84.4925	965.332	80.4735	965.332	80.7274	965.332	79.7086	965.332	75.9075	965.332	80.7146	965.332	79.9525	965.332	82.3844	965.332	82.0616	965.332	83.8875	965.332	83.1539	965.332	85.1743	965.332	85.2728	965.332	86.1512	965.332	86.7896	965.332	86.1892	965.332	86.599	965.332	85.9368
1,000.49	91.9893	1,000.49	91.9981	1,000.49	91.6959	1,000.49	91.4271	1,000.49	91.3749	1,000.49	90.4463	1,000.49	90.8398	1,000.49	89.5551	1,000.49	89.8732	1,000.49	88.9284	1,000.49	88.6614	1,000.49	88.2466	1,000.49	87.434	1,000.49	87.2192	1,000.49	86.1789	1,000.49	85.6567	1,000.49	84.7849	1,000.49	83.7593	1,000.49	83.206	1,000.49	81.4156	1,000.49	82.0848	1,000.49	76.3749	1,000.49	79.6716	1,000.49	75.3116	1,000.49	76.0243	1,000.49	79.3577	1,000.49	79.7345	1,000.49	80.376	1,000.49	81.6484	1,000.49	82.3187	1,000.49	83.1099	1,000.49	84.2328	1,000.49	84.8301	1,000.49	84.7261	1,000.49	85.1861	1,000.49	84.7158
1,035.64	91.2489	1,035.64	91.2451	1,035.64	90.9471	1,035.64	91.0702	1,035.64	90.1298	1,035.64	90.4738	1,035.64	89.3454	1,035.64	89.7817	1,035.64	88.66	1,035.64	89.0193	1,035.64	87.6296	1,035.64	87.7616	1,035.64	86.1655	1,035.64	86.6781	1,035.64	83.8946	1,035.64	86.1254	1,035.64	81.6971	1,035.64	84.6624	1,035.64	80.0973	1,035.64	81.6917	1,035.64	76.9908	1,035.64	76.6138	1,035.64	75.3725	1,035.64	68.5602	1,035.64	71.0487	1,035.64	73.6877	1,035.64	76.3983	1,035.64	78.8813	1,035.64	80.8179	1,035.64	82.163	1,035.64	82.0415	1,035.64	83.4596	1,035.64	83.2905	1,035.64	83.7305	1,035.64	84.315	1,035.64	84.1379
1,072.27	90.8889	1,072.27	90.4584	1,072.27	91.0784	1,072.27	90.2119	1,072.27	90.6034	1,072.27	89.6021	1,072.27	89.9933	1,072.27	88.6505	1,072.27	89.3498	1,072.27	87.7786	1,072.27	88.3511	1,072.27	86.5201	1,072.27	87.424	1,072.27	84.7542	1,072.27	86.4143	1,072.27	83.2233	1,072.27	84.5929	1,072.27	81.9795	1,072.27	83.2241	1,072.27	80.2034	1,072.27	81.7942	1,072.27	78.2053	1,072.27	78.6633	1,072.27	75.2288	1,072.27	76.812	1,072.27	75.7382	1,072.27	75.8121	1,072.27	78.747	1,072.27	75.5238	1,072.27	80.2408	1,072.27	79.1616	1,072.27	81.9495	1,072.27	81.6711	1,072.27	82.7469	1,072.27	82.3865	1,072.27	82.5064
1,108.89	88.9924	1,108.89	89.7836	1,108.89	88.3944	1,108.89	89.6225	1,108.89	88.2889	1,108.89	88.8471	1,108.89	87.7404	1,108.89	88.1953	1,108.89	86.6987	1,108.89	87.5349	1,108.89	85.3702	1,108.89	86.4552	1,108.89	83.2286	1,108.89	84.9607	1,108.89	81.0088	1,108.89	84.2821	1,108.89	79.2102	1,108.89	83.4038	1,108.89	76.9073	1,108.89	81.1653	1,108.89	75.596	1,108.89	78.6113	1,108.89	72.6919	1,108.89	72.8165	1,108.89	69.1887	1,108.89	69.945	1,108.89	76.3404	1,108.89	73.5054	1,108.89	78.5158	1,108.89	76.8349	1,108.89	78.1878	1,108.89	78.7725	1,108.89	80.3948	1,108.89	78.2546	1,108.89	81.4005	1,108.89	79.3119
1,148.44	88.9574	1,148.44	88.3348	1,148.44	89.0632	1,148.44	88.2273	1,148.44	88.4349	1,148.44	87.7611	1,148.44	87.8839	1,148.44	86.3915	1,148.44	87.0423	1,148.44	85.2481	1,148.44	85.6348	1,148.44	84.3661	1,148.44	84.4487	1,148.44	83.45	1,148.44	82.7517	1,148.44	82.6982	1,148.44	79.7445	1,148.44	81.1781	1,148.44	77.2607	1,148.44	79.0091	1,148.44	77.4447	1,148.44	75.7503	1,148.44	77.9927	1,148.44	72.1433	1,148.44	76.3094	1,148.44	72.4901	1,148.44	71.5365	1,148.44	70.0547	1,148.44	69.7825	1,148.44	72.7961	1,148.44	75.0155	1,148.44	76.3064	1,148.44	76.782	1,148.44	78.4937	1,148.44	78.0978	1,148.44	79.156
1,189.45	88.6194	1,189.45	88.6676	1,189.45	88.4112	1,189.45	88.0678	1,189.45	88.5532	1,189.45	87.8858	1,189.45	88.2999	1,189.45	87.4452	1,189.45	87.353	1,189.45	86.1696	1,189.45	85.986	1,189.45	85.1377	1,189.45	84.1155	1,189.45	83.6805	1,189.45	82.017	1,189.45	82.3471	1,189.45	80.3485	1,189.45	81.5981	1,189.45	78.4683	1,189.45	79.5892	1,189.45	73.9391	1,189.45	77.2789	1,189.45	63.2567	1,189.45	73.9869	1,189.45	69.2517	1,189.45	68.6776	1,189.45	66.9113	1,189.45	68.3374	1,189.45	74.6511	1,189.45	73.7318	1,189.45	76.2014	1,189.45	77.0456	1,189.45	76.1889	1,189.45	78.002	1,189.45	79.1262	1,189.45	79.8081
1,230.47	88.8501	1,230.47	88.3561	1,230.47	88.5829	1,230.47	87.8917	1,230.47	88.093	1,230.47	87.4077	1,230.47	87.7511	1,230.47	86.4193	1,230.47	86.7027	1,230.47	85.433	1,230.47	85.6246	1,230.47	84.7499	1,230.47	84.4941	1,230.47	82.881	1,230.47	82.6076	1,230.47	79.7249	1,230.47	81.6276	1,230.47	78.5184	1,230.47	79.705	1,230.47	77.126	1,230.47	76.7673	1,230.47	75.6265	1,230.47	74.1853	1,230.47	73.3293	1,230.47	66.8465	1,230.47	72.5124	1,230.47	73.5747	1,230.47	73.5251	1,230.47	74.6843	1,230.47	73.5082	1,230.47	77.2502	1,230.47	75.0506	1,230.47	79.0319	1,230.47	76.937	1,230.47	77.9688	1,230.47	77.379
1,274.41	88.3271	1,274.41	88.3709	1,274.41	87.9822	1,274.41	87.7566	1,274.41	87.683	1,274.41	86.9679	1,274.41	86.9857	1,274.41	86.4138	1,274.41	85.9277	1,274.41	85.3585	1,274.41	84.7765	1,274.41	84.0243	1,274.41	83.3899	1,274.41	82.2952	1,274.41	81.6498	1,274.41	79.5212	1,274.41	79.5784	1,274.41	77.8039	1,274.41	77.5511	1,274.41	75.6398	1,274.41	72.8897	1,274.41	71.5089	1,274.41	65.8158	1,274.41	64.7391	1,274.41	66.2651	1,274.41	61.5567	1,274.41	62.8332	1,274.41	68.2391	1,274.41	70.4452	1,274.41	72.8504	1,274.41	74.758	1,274.41	76.6884	1,274.41	76.1527	1,274.41	77.9302	1,274.41	77.7522	1,274.41	78.6008
1,319.82	87.9152	1,319.82	87.6461	1,319.82	87.7264	1,319.82	86.9529	1,319.82	87.3	1,319.82	86.356	1,319.82	86.4315	1,319.82	85.5972	1,319.82	85.1864	1,319.82	84.6199	1,319.82	84.1886	1,319.82	83.6283	1,319.82	82.9375	1,319.82	82.1889	1,319.82	81.6326	1,319.82	81.1823	1,319.82	80.7075	1,319.82	79.6983	1,319.82	79.8113	1,319.82	76.0043	1,319.82	77.497	1,319.82	72.672	1,319.82	71.5984	1,319.82	68.2948	1,319.82	69.0636	1,319.82	62.9922	1,319.82	70.031	1,319.82	69.6929	1,319.82	71.5816	1,319.82	72.2988	1,319.82	75.0776	1,319.82	73.1376	1,319.82	76.0601	1,319.82	73.8165	1,319.82	77.2255	1,319.82	77.131
1,366.7	86.8969	1,366.7	86.9395	1,366.7	86.4603	1,366.7	86.689	1,366.7	86.0529	1,366.7	86.0277	1,366.7	85.488	1,366.7	85.309	1,366.7	84.6874	1,366.7	84.4591	1,366.7	83.4119	1,366.7	82.2064	1,366.7	82.147	1,366.7	79.7275	1,366.7	80.6902	1,366.7	77.5563	1,366.7	78.1922	1,366.7	75.3074	1,366.7	75.8217	1,366.7	73.2724	1,366.7	71.8685	1,366.7	70.6762	1,366.7	72.7168	1,366.7	66.4481	1,366.7	66.8563	1,366.7	63.6929	1,366.7	66.449	1,366.7	68.2835	1,366.7	68.5654	1,366.7	72.1511	1,366.7	72.8128	1,366.7	75.7129	1,366.7	75.4866	1,366.7	78.5577	1,366.7	77.2384	1,366.7	78.3698
1,413.57	86.1484	1,413.57	86.0663	1,413.57	85.8459	1,413.57	85.7569	1,413.57	85.442	1,413.57	85.3615	1,413.57	84.5692	1,413.57	84.5157	1,413.57	83.2708	1,413.57	83.0156	1,413.57	82.2419	1,413.57	81.5394	1,413.57	80.8114	1,413.57	80.0168	1,413.57	79.4102	1,413.57	77.256	1,413.57	78.7997	1,413.57	74.907	1,413.57	77.1252	1,413.57	73.4709	1,413.57	75.1749	1,413.57	69.6577	1,413.57	67.9358	1,413.57	68.733	1,413.57	62.5175	1,413.57	55.6752	1,413.57	57.1154	1,413.57	68.5667	1,413.57	69.2753	1,413.57	71.4069	1,413.57	72.6952	1,413.57	74.5091	1,413.57	73.8261	1,413.57	75.5408	1,413.57	75.4275	1,413.57	76.3007
1,463.38	84.985	1,463.38	84.9976	1,463.38	84.8266	1,463.38	84.674	1,463.38	84.3297	1,463.38	83.9752	1,463.38	83.4272	1,463.38	83.0797	1,463.38	82.7767	1,463.38	81.6323	1,463.38	82.338	1,463.38	80.2814	1,463.38	80.7915	1,463.38	79.197	1,463.38	78.9408	1,463.38	77.1774	1,463.38	76.2069	1,463.38	75.4035	1,463.38	73.8147	1,463.38	72.8368	1,463.38	72.4629	1,463.38	70.4405	1,463.38	73.1926	1,463.38	70.0189	1,463.38	68.3247	1,463.38	65.5312	1,463.38	66.2776	1,463.38	69.5521	1,463.38	67.2059	1,463.38	69.3177	1,463.38	70.3537	1,463.38	73.1765	1,463.38	71.7759	1,463.38	75.1613	1,463.38	72.4721	1,463.38	74.004
1,516.11	84.2209	1,516.11	83.4954	1,516.11	84.2183	1,516.11	83.2787	1,516.11	83.3334	1,516.11	83.2128	1,516.11	82.575	1,516.11	81.614	1,516.11	81.5035	1,516.11	80.5337	1,516.11	80.1986	1,516.11	79.0096	1,516.11	77.946	1,516.11	77.6408	1,516.11	76.1996	1,516.11	74.432	1,516.11	75.6571	1,516.11	73.1045	1,516.11	72.3221	1,516.11	70.003	1,516.11	69.8048	1,516.11	68.3253	1,516.11	54.4717	1,516.11	65.1518	1,516.11	58.5075	1,516.11	60.2334	1,516.11	63.3291	1,516.11	66.8221	1,516.11	69.4786	1,516.11	69.8281	1,516.11	69.9021	1,516.11	72.146	1,516.11	71.5118	1,516.11	73.6634	1,516.11	71.4036	1,516.11	74.1192
1,568.85	83.5363	1,568.85	82.7154	1,568.85	83.0968	1,568.85	82.5155	1,568.85	82.2138	1,568.85	81.7278	1,568.85	81.2015	1,568.85	80.4975	1,568.85	80.8172	1,568.85	79.234	1,568.85	79.2968	1,568.85	78.3992	1,568.85	77.6382	1,568.85	77.4894	1,568.85	77.3755	1,568.85	77.421	1,568.85	74.4197	1,568.85	75.9677	1,568.85	72.4796	1,568.85	72.8452	1,568.85	72.5591	1,568.85	68.4502	1,568.85	67.8516	1,568.85	66.4256	1,568.85	55.9918	1,568.85	53.8413	1,568.85	68.1581	1,568.85	63.091	1,568.85	70.9076	1,568.85	71.5043	1,568.85	70.9404	1,568.85	72.1326	1,568.85	74.6666	1,568.85	73.8556	1,568.85	74.4843	1,568.85	75.0275
1,624.51	83.8926	1,624.51	83.4742	1,624.51	83.6658	1,624.51	82.4613	1,624.51	83.1632	1,624.51	81.9035	1,624.51	82.0582	1,624.51	80.8899	1,624.51	81.7028	1,624.51	81.2077	1,624.51	80.1083	1,624.51	79.1772	1,624.51	79.1172	1,624.51	78.1771	1,624.51	76.7935	1,624.51	76.3097	1,624.51	76.2854	1,624.51	72.6004	1,624.51	75.2365	1,624.51	71.1544	1,624.51	73.5552	1,624.51	62.6986	1,624.51	68.863	1,624.51	61.4395	1,624.51	65.6321	1,624.51	57.5536	1,624.51	58.4085	1,624.51	69.9886	1,624.51	66.5448	1,624.51	70.0148	1,624.51	69.9002	1,624.51	73.5156	1,624.51	71.0258	1,624.51	71.0762	1,624.51	72.4271	1,624.51	74.6721
1,681.64	84.2726	1,681.64	84.0142	1,681.64	83.9269	1,681.64	84.0061	1,681.64	84.471	1,681.64	82.2889	1,681.64	82.3124	1,681.64	82.5248	1,681.64	81.0176	1,681.64	81.3789	1,681.64	81.1063	1,681.64	79.946	1,681.64	79.3046	1,681.64	79.9217	1,681.64	77.4437	1,681.64	77.8056	1,681.64	70.9729	1,681.64	76.9795	1,681.64	60.9225	1,681.64	60.516	1,681.64	67.1415	1,681.64	62.6501	1,681.64	75.3192	1,681.64	63.9016	1,681.64	67.4927	1,681.64	65.0529	1,681.64	65.7196	1,681.64	69.3939	1,681.64	70.0477	1,681.64	74.4911	1,681.64	73.9399	1,681.64	74.2029	1,681.64	76.4156	1,681.64	69.8676	1,681.64	75.7029	1,681.64	72.5699
1,741.7	84.1948	1,741.7	84.452	1,741.7	83.9812	1,741.7	83.8367	1,741.7	84.2964	1,741.7	82.2389	1,741.7	83.315	1,741.7	81.3509	1,741.7	82.082	1,741.7	81.7322	1,741.7	81.6606	1,741.7	80.5749	1,741.7	79.5198	1,741.7	74.1584	1,741.7	79.0635	1,741.7	74.0405	1,741.7	77.6271	1,741.7	74.3768	1,741.7	75.5343	1,741.7	74.2887	1,741.7	75.5781	1,741.7	65.6796	1,741.7	71.4774	1,741.7	63.9819	1,741.7	71.0622	1,741.7	58.3201	1,741.7	64.8693	1,741.7	65.1161	1,741.7	72.8983	1,741.7	71.2229	1,741.7	72.1826	1,741.7	75.9929	1,741.7	77.1581	1,741.7	72.7569	1,741.7	75.0129	1,741.7	74.3802
1,803.22	85.1592	1,803.22	84.4009	1,803.22	84.8051	1,803.22	84.4782	1,803.22	84.6192	1,803.22	83.7567	1,803.22	82.6051	1,803.22	82.4986	1,803.22	82.0655	1,803.22	79.856	1,803.22	78.2681	1,803.22	78.9288	1,803.22	78.121	1,803.22	71.926	1,803.22	77.0284	1,803.22	76.1456	1,803.22	76.373	1,803.22	74.9033	1,803.22	72.8389	1,803.22	72.6977	1,803.22	70.4738	1,803.22	67.8701	1,803.22	70.7289	1,803.22	59.5788	1,803.22	65.8073	1,803.22	65.1118	1,803.22	66.2184	1,803.22	65.4098	1,803.22	73.7126	1,803.22	72.1544	1,803.22	72.2017	1,803.22	71.897	1,803.22	75.7707	1,803.22	74.0057	1,803.22	77.4074	1,803.22	77.2554
1,866.21	86.6587	1,866.21	86.1908	1,866.21	86.1338	1,866.21	85.9266	1,866.21	84.3812	1,866.21	84.6351	1,866.21	84.5057	1,866.21	83.4097	1,866.21	83.4016	1,866.21	81.941	1,866.21	80.9857	1,866.21	76.9487	1,866.21	79.4799	1,866.21	78.984	1,866.21	76.9323	1,866.21	76.7845	1,866.21	78.2595	1,866.21	76.766	1,866.21	75.3853	1,866.21	75.9971	1,866.21	76.4361	1,866.21	73.3413	1,866.21	71.7388	1,866.21	71.7934	1,866.21	61.0877	1,866.21	59.0978	1,866.21	66.5662	1,866.21	66.4713	1,866.21	62.3607	1,866.21	70.1009	1,866.21	69.7717	1,866.21	74.2787	1,866.21	72.6514	1,866.21	74.7506	1,866.21	75.1908	1,866.21	75.1546
1,932.13	87.3284	1,932.13	86.9081	1,932.13	87.2492	1,932.13	86.1781	1,932.13	86.044	1,932.13	85.4152	1,932.13	85.7544	1,932.13	84.4681	1,932.13	84.1166	1,932.13	82.6785	1,932.13	82.3525	1,932.13	79.7714	1,932.13	80.1477	1,932.13	77.9478	1,932.13	78.8953	1,932.13	76.9986	1,932.13	77.7385	1,932.13	75.4202	1,932.13	76.7167	1,932.13	73.3669	1,932.13	74.7554	1,932.13	73.5375	1,932.13	71.8253	1,932.13	71.236	1,932.13	65.5497	1,932.13	61.0826	1,932.13	59.5668	1,932.13	59.5155	1,932.13	61.2634	1,932.13	67.6695	1,932.13	67.4318	1,932.13	72.0201	1,932.13	72.4545	1,932.13	75.2622	1,932.13	75.865	1,932.13	74.1121
1,999.51	88.0922	1,999.51	87.715	1,999.51	87.8384	1,999.51	87.2347	1,999.51	87.5189	1,999.51	86.2487	1,999.51	86.4479	1,999.51	84.9181	1,999.51	84.8774	1,999.51	83.3509	1,999.51	83.4215	1,999.51	81.8521	1,999.51	81.6553	1,999.51	79.4137	1,999.51	80.0854	1,999.51	77.5204	1,999.51	78.2204	1,999.51	76.1462	1,999.51	76.4236	1,999.51	74.8369	1,999.51	74.8235	1,999.51	72.1958	1,999.51	73.4655	1,999.51	70.4223	1,999.51	69.621	1,999.51	64.1747	1,999.51	64.099	1,999.51	52.8278	1,999.51	65.5503	1,999.51	68.3268	1,999.51	70.9738	1,999.51	73.2135	1,999.51	74.4013	1,999.51	75.0027	1,999.51	76.092	1,999.51	77.2808
2,069.82	87.9672	2,069.82	87.8569	2,069.82	87.7865	2,069.82	87.1543	2,069.82	87.1397	2,069.82	86.28	2,069.82	86.304	2,069.82	85.2153	2,069.82	84.9706	2,069.82	83.545	2,069.82	83.4064	2,069.82	82.0191	2,069.82	81.8469	2,069.82	79.4325	2,069.82	80.3083	2,069.82	77.8669	2,069.82	78.6424	2,069.82	75.2839	2,069.82	76.4072	2,069.82	74.547	2,069.82	75.2813	2,069.82	73.9926	2,069.82	73.1653	2,069.82	71.8658	2,069.82	70.765	2,069.82	67.496	2,069.82	64.0798	2,069.82	57.2903	2,069.82	65.7745	2,069.82	66.4115	2,069.82	72.5739	2,069.82	73.4956	2,069.82	76.0749	2,069.82	77.0184	2,069.82	77.4715	2,069.82	78.104
2,143.07	87.4727	2,143.07	87.3319	2,143.07	87.13	2,143.07	86.6111	2,143.07	86.6334	2,143.07	86.2702	2,143.07	85.5067	2,143.07	85.1519	2,143.07	84.2806	2,143.07	84.2034	2,143.07	82.8949	2,143.07	81.5558	2,143.07	81.4712	2,143.07	80.0718	2,143.07	79.527	2,143.07	77.8454	2,143.07	77.2071	2,143.07	77.5068	2,143.07	76.8059	2,143.07	74.7584	2,143.07	74.8071	2,143.07	73.1793	2,143.07	73.3292	2,143.07	71.5192	2,143.07	67.7989	2,143.07	67.7537	2,143.07	60.3982	2,143.07	60.8715	2,143.07	66.3698	2,143.07	69.6597	2,143.07	72.9843	2,143.07	75.1938	2,143.07	77.0677	2,143.07	77.0249	2,143.07	79.136	2,143.07	78.9166
2,219.24	87.0107	2,219.24	86.6071	2,219.24	86.7697	2,219.24	86.6816	2,219.24	85.9374	2,219.24	85.8481	2,219.24	85.1068	2,219.24	85.2968	2,219.24	83.2749	2,219.24	84.1171	2,219.24	82.2094	2,219.24	82.9293	2,219.24	80.2769	2,219.24	80.2464	2,219.24	78.4432	2,219.24	79.889	2,219.24	77.0496	2,219.24	77.5909	2,219.24	74.9316	2,219.24	75.8305	2,219.24	73.6334	2,219.24	74.4635	2,219.24	72.903	2,219.24	72.5186	2,219.24	69.5113	2,219.24	67.7268	2,219.24	63.7386	2,219.24	49.9312	2,219.24	62.7146	2,219.24	64.3596	2,219.24	72.4281	2,219.24	74.4973	2,219.24	76.418	2,219.24	78.3615	2,219.24	77.9549	2,219.24	80.0268
2,296.88	86.9115	2,296.88	87.1884	2,296.88	86.6601	2,296.88	86.2558	2,296.88	86.2106	2,296.88	86.0071	2,296.88	84.776	2,296.88	84.5245	2,296.88	83.7811	2,296.88	83.2483	2,296.88	82.4226	2,296.88	81.8897	2,296.88	80.2636	2,296.88	80.1661	2,296.88	78.4548	2,296.88	76.4959	2,296.88	76.6099	2,296.88	75.3494	2,296.88	72.5159	2,296.88	74.2982	2,296.88	72.3413	2,296.88	72.3344	2,296.88	72.5853	2,296.88	73.2146	2,296.88	72.8567	2,296.88	68.7409	2,296.88	66.9463	2,296.88	64.2556	2,296.88	60.9314	2,296.88	62.0705	2,296.88	65.5346	2,296.88	73.2226	2,296.88	73.1343	2,296.88	75.7035	2,296.88	76.9428	2,296.88	76.6913
2,378.91	87.6201	2,378.91	87.3255	2,378.91	87.4768	2,378.91	87.2109	2,378.91	86.6681	2,378.91	85.9607	2,378.91	86.0031	2,378.91	85.0912	2,378.91	84.4951	2,378.91	83.8673	2,378.91	83.1854	2,378.91	82.3806	2,378.91	81.7702	2,378.91	80.8586	2,378.91	80.7005	2,378.91	79.8153	2,378.91	77.735	2,378.91	77.1128	2,378.91	77.9308	2,378.91	74.6196	2,378.91	76.7123	2,378.91	72.8255	2,378.91	74.0741	2,378.91	72.6174	2,378.91	72.1351	2,378.91	72.0496	2,378.91	71.2806	2,378.91	66.2941	2,378.91	61.1826	2,378.91	62.1282	2,378.91	66.1947	2,378.91	71.3429	2,378.91	74.1623	2,378.91	75.1732	2,378.91	76.061	2,378.91	76.498
2,462.4	88.7271	2,462.4	88.9047	2,462.4	88.6138	2,462.4	88.4322	2,462.4	87.9152	2,462.4	87.517	2,462.4	86.9164	2,462.4	86.2945	2,462.4	85.7028	2,462.4	85.4287	2,462.4	84.4158	2,462.4	84.102	2,462.4	82.2823	2,462.4	83.0932	2,462.4	81.1494	2,462.4	80.9776	2,462.4	79.6812	2,462.4	78.077	2,462.4	78.5706	2,462.4	75.7895	2,462.4	76.1986	2,462.4	75.0281	2,462.4	77.0731	2,462.4	75.3803	2,462.4	76.5055	2,462.4	73.5671	2,462.4	73.4954	2,462.4	70.4021	2,462.4	65.5865	2,462.4	65.7272	2,462.4	65.3619	2,462.4	69.339	2,462.4	74.1583	2,462.4	76.7309	2,462.4	76.7164	2,462.4	77.5715
2,548.83	88.6754	2,548.83	89.0982	2,548.83	87.7676	2,548.83	87.9573	2,548.83	88.0725	2,548.83	87.8271	2,548.83	86.1572	2,548.83	86.0251	2,548.83	85.3669	2,548.83	84.1719	2,548.83	83.8623	2,548.83	82.8745	2,548.83	82.6391	2,548.83	82.9594	2,548.83	80.9371	2,548.83	79.1536	2,548.83	79.8991	2,548.83	79.4072	2,548.83	77.438	2,548.83	76.668	2,548.83	75.4554	2,548.83	75.986	2,548.83	76.9934	2,548.83	74.7364	2,548.83	74.8743	2,548.83	75.408	2,548.83	74.2465	2,548.83	72.2238	2,548.83	67.9332	2,548.83	54.0069	2,548.83	54.3169	2,548.83	71.2863	2,548.83	73.1566	2,548.83	74.1416	2,548.83	77.0546	2,548.83	77.3303
2,639.65	87.7964	2,639.65	87.7618	2,639.65	87.6077	2,639.65	87.4511	2,639.65	86.66	2,639.65	86.3178	2,639.65	85.7189	2,639.65	85.2843	2,639.65	85.0066	2,639.65	83.5444	2,639.65	83.3741	2,639.65	82.7523	2,639.65	82.1636	2,639.65	80.599	2,639.65	80.7804	2,639.65	79.854	2,639.65	79.4225	2,639.65	76.7123	2,639.65	78.9524	2,639.65	75.7106	2,639.65	77.928	2,639.65	76.0343	2,639.65	73.7788	2,639.65	75.1656	2,639.65	73.6867	2,639.65	72.9744	2,639.65	73.3357	2,639.65	71.3825	2,639.65	70.3299	2,639.65	62.7262	2,639.65	63.9981	2,639.65	67.4832	2,639.65	67.6783	2,639.65	75.4419	2,639.65	74.1159	2,639.65	78.1018
2,731.93	87.1242	2,731.93	86.527	2,731.93	88.1398	2,731.93	86.9755	2,731.93	86.1724	2,731.93	85.4652	2,731.93	86.1804	2,731.93	84.8384	2,731.93	85.0201	2,731.93	84.8419	2,731.93	84.3884	2,731.93	82.1954	2,731.93	82.4437	2,731.93	80.4052	2,731.93	80.7573	2,731.93	81.0603	2,731.93	79.3169	2,731.93	77.2356	2,731.93	78.9468	2,731.93	76.1425	2,731.93	77.746	2,731.93	75.6513	2,731.93	74.0958	2,731.93	73.4852	2,731.93	75.1694	2,731.93	73.3955	2,731.93	74.3408	2,731.93	71.5332	2,731.93	73.3164	2,731.93	63.8633	2,731.93	64.3073	2,731.93	62.3191	2,731.93	67.3484	2,731.93	73.2104	2,731.93	74.373	2,731.93	75.6188
2,828.61	88.3707	2,828.61	88.2227	2,828.61	88.3466	2,828.61	87.8284	2,828.61	88.0674	2,828.61	87.1898	2,828.61	87.6662	2,828.61	86.7903	2,828.61	86.5792	2,828.61	85.9202	2,828.61	85.4817	2,828.61	84.1936	2,828.61	84.3976	2,828.61	82.9723	2,828.61	82.0166	2,828.61	80.9213	2,828.61	80.0753	2,828.61	79.5508	2,828.61	78.0338	2,828.61	78.3465	2,828.61	77.0352	2,828.61	73.5431	2,828.61	77.8124	2,828.61	73.7143	2,828.61	76.9229	2,828.61	75.5793	2,828.61	76.0144	2,828.61	72.5907	2,828.61	73.5607	2,828.61	69.7795	2,828.61	67.4335	2,828.61	67.2951	2,828.61	67.5282	2,828.61	75.4933	2,828.61	74.2902	2,828.61	75.371
2,928.22	89.4457	2,928.22	89.353	2,928.22	89.3113	2,928.22	88.7444	2,928.22	89.3123	2,928.22	88.4235	2,928.22	88.8364	2,928.22	87.6574	2,928.22	88.2477	2,928.22	87.2226	2,928.22	87.1455	2,928.22	85.6071	2,928.22	85.592	2,928.22	84.8743	2,928.22	83.6752	2,928.22	81.9227	2,928.22	82.363	2,928.22	80.7429	2,928.22	80.1547	2,928.22	78.524	2,928.22	78.0652	2,928.22	76.8927	2,928.22	76.8852	2,928.22	74.6544	2,928.22	75.9135	2,928.22	75.0126	2,928.22	75.6618	2,928.22	74.3058	2,928.22	74.23	2,928.22	67.5898	2,928.22	70.201	2,928.22	69.1689	2,928.22	71.7486	2,928.22	73.5987	2,928.22	76.5056	2,928.22	76.5647
3,030.76	89.2451	3,030.76	89.3779	3,030.76	88.4463	3,030.76	88.9131	3,030.76	89.4128	3,030.76	88.8584	3,030.76	88.8344	3,030.76	88.8802	3,030.76	88.4081	3,030.76	87.1501	3,030.76	87.3371	3,030.76	86.6711	3,030.76	86.436	3,030.76	84.4951	3,030.76	84.4782	3,030.76	82.5399	3,030.76	82.9376	3,030.76	81.009	3,030.76	80.5773	3,030.76	80.3166	3,030.76	77.8258	3,030.76	76.4148	3,030.76	77.8962	3,030.76	74.3861	3,030.76	77.2662	3,030.76	75.2704	3,030.76	74.7695	3,030.76	75.4221	3,030.76	75.0318	3,030.76	70.5807	3,030.76	70.0172	3,030.76	67.7298	3,030.76	71.3061	3,030.76	76.3461	3,030.76	76.7132	3,030.76	78.2754
3,137.7	88.185	3,137.7	88.0171	3,137.7	88.2097	3,137.7	87.7283	3,137.7	88.0972	3,137.7	88.2609	3,137.7	88.2837	3,137.7	87.8777	3,137.7	88.0739	3,137.7	87.1884	3,137.7	87.6581	3,137.7	87.2562	3,137.7	86.2083	3,137.7	84.9605	3,137.7	84.268	3,137.7	83.695	3,137.7	83.5241	3,137.7	81.0916	3,137.7	81.0559	3,137.7	79.7431	3,137.7	78.8552	3,137.7	77.0736	3,137.7	78.1829	3,137.7	77.5467	3,137.7	77.3145	3,137.7	76.1555	3,137.7	77.0126	3,137.7	75.2493	3,137.7	73.5317	3,137.7	72.9142	3,137.7	69.3145	3,137.7	69.6076	3,137.7	71.5565	3,137.7	77.8721	3,137.7	76.9259	3,137.7	79.7549
3,249.02	86.9178	3,249.02	86.6189	3,249.02	87.2975	3,249.02	87.2457	3,249.02	87.854	3,249.02	87.8889	3,249.02	88.3806	3,249.02	88.0609	3,249.02	87.9998	3,249.02	87.1233	3,249.02	87.7782	3,249.02	86.5416	3,249.02	86.7085	3,249.02	85.2907	3,249.02	85.1123	3,249.02	83.5492	3,249.02	83.5562	3,249.02	80.6204	3,249.02	80.1495	3,249.02	78.4581	3,249.02	79.0326	3,249.02	76.6307	3,249.02	76.4589	3,249.02	75.9613	3,249.02	76.6873	3,249.02	76.8677	3,249.02	77.2712	3,249.02	76.4804	3,249.02	77.2765	3,249.02	71.2699	3,249.02	71.5413	3,249.02	69.1684	3,249.02	70.8683	3,249.02	76.018	3,249.02	78.5628	3,249.02	78.7141
3,363.28	87.6351	3,363.28	86.3543	3,363.28	88.6072	3,363.28	87.1335	3,363.28	88.3456	3,363.28	87.8424	3,363.28	88.6681	3,363.28	87.3532	3,363.28	88.658	3,363.28	87.855	3,363.28	88.5101	3,363.28	86.8377	3,363.28	86.8706	3,363.28	85.0299	3,363.28	85.2714	3,363.28	83.5043	3,363.28	83.847	3,363.28	81.4705	3,363.28	81.495	3,363.28	79.0481	3,363.28	78.3762	3,363.28	76.1514	3,363.28	77.0423	3,363.28	74.8904	3,363.28	76.5204	3,363.28	76.9448	3,363.28	77.2618	3,363.28	76.4408	3,363.28	77.3998	3,363.28	72.3137	3,363.28	69.2685	3,363.28	68.2954	3,363.28	72.5885	3,363.28	78.0589	3,363.28	79.226	3,363.28	80.143
3,481.93	87.091	3,481.93	87.3793	3,481.93	87.006	3,481.93	88.1522	3,481.93	89.0459	3,481.93	88.4783	3,481.93	89.2214	3,481.93	89.2744	3,481.93	89.0407	3,481.93	88.9389	3,481.93	87.9175	3,481.93	87.2807	3,481.93	86.6249	3,481.93	86.193	3,481.93	85.346	3,481.93	84.479	3,481.93	84.1729	3,481.93	81.593	3,481.93	80.9625	3,481.93	78.0493	3,481.93	78.5694	3,481.93	75.7762	3,481.93	74.6061	3,481.93	75.21	3,481.93	74.2236	3,481.93	75.694	3,481.93	77.1468	3,481.93	77.6654	3,481.93	75.89	3,481.93	76.4381	3,481.93	71.3992	3,481.93	69.0347	3,481.93	70.6169	3,481.93	78.8696	3,481.93	78.2347	3,481.93	81.7528
3,604.98	87.0862	3,604.98	88.2038	3,604.98	87.7595	3,604.98	89.0469	3,604.98	89.7144	3,604.98	89.1129	3,604.98	89.8255	3,604.98	89.7468	3,604.98	89.7086	3,604.98	88.0625	3,604.98	88.8505	3,604.98	87.0638	3,604.98	87.4787	3,604.98	85.9723	3,604.98	86.0679	3,604.98	84.0881	3,604.98	84.0531	3,604.98	83.5435	3,604.98	82.4678	3,604.98	80.4766	3,604.98	80.0857	3,604.98	77.3986	3,604.98	74.9419	3,604.98	68.9493	3,604.98	72.0039	3,604.98	73.5173	3,604.98	76.3731	3,604.98	77.6903	3,604.98	77.0328	3,604.98	74.4731	3,604.98	73.8376	3,604.98	69.7893	3,604.98	74.0363	3,604.98	78.5697	3,604.98	80.6595	3,604.98	82.0105
3,732.42	87.8628	3,732.42	88.3184	3,732.42	89.0859	3,732.42	89.7066	3,732.42	89.7634	3,732.42	90.355	3,732.42	90.6819	3,732.42	89.9031	3,732.42	89.9603	3,732.42	88.5588	3,732.42	88.4399	3,732.42	87.0135	3,732.42	87.7893	3,732.42	85.1846	3,732.42	86.3039	3,732.42	84.4622	3,732.42	83.5749	3,732.42	83.0876	3,732.42	82.1997	3,732.42	81.7817	3,732.42	80.922	3,732.42	77.4525	3,732.42	78.6907	3,732.42	73.72	3,732.42	71.3449	3,732.42	73.4483	3,732.42	73.0442	3,732.42	75.2468	3,732.42	76.7046	3,732.42	75.114	3,732.42	69.1234	3,732.42	63.3131	3,732.42	72.6566	3,732.42	79.2022	3,732.42	80.6118	3,732.42	82.4228
3,864.26	86.9698	3,864.26	86.4448	3,864.26	88.8332	3,864.26	88.7848	3,864.26	88.9287	3,864.26	89.3372	3,864.26	90.0254	3,864.26	88.2477	3,864.26	90.0149	3,864.26	88.6003	3,864.26	89.1456	3,864.26	87.2405	3,864.26	87.2911	3,864.26	85.5344	3,864.26	85.5728	3,864.26	83.6771	3,864.26	83.6011	3,864.26	82.484	3,864.26	82.5039	3,864.26	80.4851	3,864.26	79.6765	3,864.26	77.521	3,864.26	77.2593	3,864.26	73.0882	3,864.26	71.9353	3,864.26	74.8048	3,864.26	71.9002	3,864.26	76.2567	3,864.26	73.0035	3,864.26	73.7525	3,864.26	70.0406	3,864.26	58.7496	3,864.26	65.037	3,864.26	76.2267	3,864.26	78.7828	3,864.26	79.921
4,000.49	87.018	4,000.49	87.9718	4,000.49	88.0704	4,000.49	88.0625	4,000.49	89.896	4,000.49	89.5791	4,000.49	90.0673	4,000.49	90.3827	4,000.49	90.4169	4,000.49	89.4959	4,000.49	89.8035	4,000.49	87.5335	4,000.49	87.4004	4,000.49	85.2688	4,000.49	83.9288	4,000.49	82.7151	4,000.49	82.943	4,000.49	81.8997	4,000.49	81.9858	4,000.49	80.1287	4,000.49	80.1892	4,000.49	78.6817	4,000.49	78.9394	4,000.49	72.6051	4,000.49	74.1476	4,000.49	67.9282	4,000.49	70.0896	4,000.49	74.6708	4,000.49	74.2483	4,000.49	73.9407	4,000.49	74.7044	4,000.49	66.967	4,000.49	59.9602	4,000.49	74.3261	4,000.49	76.3684	4,000.49	78.5345
4,141.11	87.9209	4,141.11	88.4172	4,141.11	88.5412	4,141.11	89.1835	4,141.11	90.448	4,141.11	90.3267	4,141.11	91.3597	4,141.11	91.4015	4,141.11	90.722	4,141.11	90.0613	4,141.11	89.414	4,141.11	88.4861	4,141.11	87.2103	4,141.11	85.4672	4,141.11	85.5716	4,141.11	83.5091	4,141.11	83.7746	4,141.11	81.0619	4,141.11	81.7146	4,141.11	81.7433	4,141.11	79.2469	4,141.11	77.7772	4,141.11	79.2689	4,141.11	76.6407	4,141.11	75.5033	4,141.11	69.6103	4,141.11	72.2375	4,141.11	68.767	4,141.11	74.842	4,141.11	75.704	4,141.11	75.4557	4,141.11	69.3879	4,141.11	63.0782	4,141.11	71.6535	4,141.11	75.9009	4,141.11	78.1266
4,287.6	90.0119	4,287.6	89.0689	4,287.6	90.3621	4,287.6	90.9588	4,287.6	90.1078	4,287.6	91.0691	4,287.6	91.335	4,287.6	89.7319	4,287.6	89.9458	4,287.6	88.8126	4,287.6	88.1074	4,287.6	87.0236	4,287.6	87.1422	4,287.6	84.2056	4,287.6	85.5187	4,287.6	83.3721	4,287.6	83.7864	4,287.6	79.8934	4,287.6	80.2613	4,287.6	77.4682	4,287.6	79.374	4,287.6	78.4464	4,287.6	75.5884	4,287.6	76.6964	4,287.6	75.2923	4,287.6	70.9821	4,287.6	72.6873	4,287.6	73.2508	4,287.6	72.4084	4,287.6	75.4645	4,287.6	75.2379	4,287.6	70.0132	4,287.6	64.032	4,287.6	74.2566	4,287.6	73.0237	4,287.6	77.1673
4,438.48	89.1558	4,438.48	89.9178	4,438.48	88.3884	4,438.48	89.5299	4,438.48	90.543	4,438.48	90.1928	4,438.48	89.7503	4,438.48	89.6006	4,438.48	90.4321	4,438.48	88.0772	4,438.48	89.4852	4,438.48	87.4075	4,438.48	87.7412	4,438.48	85.917	4,438.48	85.3068	4,438.48	81.5935	4,438.48	83.3605	4,438.48	81.0169	4,438.48	81.0935	4,438.48	77.374	4,438.48	79.1145	4,438.48	77.1239	4,438.48	79.2659	4,438.48	71.6326	4,438.48	76.2353	4,438.48	63.8312	4,438.48	69.1795	4,438.48	71.2328	4,438.48	75.4564	4,438.48	73.1667	4,438.48	75.9816	4,438.48	71.5268	4,438.48	66.1773	4,438.48	69.8669	4,438.48	72.7493	4,438.48	77.1628
4,595.21	88.7291	4,595.21	89.2464	4,595.21	90.5016	4,595.21	89.2786	4,595.21	90.233	4,595.21	89.6716	4,595.21	90.8975	4,595.21	89.7517	4,595.21	89.9115	4,595.21	88.456	4,595.21	89.1554	4,595.21	85.5777	4,595.21	87.4689	4,595.21	83.7202	4,595.21	84.8561	4,595.21	81.9797	4,595.21	81.9499	4,595.21	79.8985	4,595.21	80.8545	4,595.21	80.3075	4,595.21	80.9744	4,595.21	75.1104	4,595.21	78.2828	4,595.21	76.4067	4,595.21	73.6352	4,595.21	73.1529	4,595.21	66.4869	4,595.21	55.189	4,595.21	74.8341	4,595.21	74.1967	4,595.21	76.442	4,595.21	70.2572	4,595.21	66.2307	4,595.21	71.7076	4,595.21	74.0628	4,595.21	77.0965
4,756.35	90.9567	4,756.35	90.3783	4,756.35	91.8483	4,756.35	91.9469	4,756.35	90.9924	4,756.35	91.3672	4,756.35	91.8019	4,756.35	90.8915	4,756.35	90.2641	4,756.35	89.2242	4,756.35	88.5018	4,756.35	86.8047	4,756.35	87.3751	4,756.35	84.1255	4,756.35	86.0691	4,756.35	83.411	4,756.35	83.9669	4,756.35	81.3701	4,756.35	82.2163	4,756.35	74.8443	4,756.35	79.9444	4,756.35	77.7445	4,756.35	77.243	4,756.35	77.4697	4,756.35	76.3926	4,756.35	74.9993	4,756.35	65.6658	4,756.35	69.1245	4,756.35	70.7712	4,756.35	72.9941	4,756.35	73.7154	4,756.35	69.423	4,756.35	69.7529	4,756.35	71.8371	4,756.35	73.9117	4,756.35	77.657
4,924.8	90.3719	4,924.8	90.5244	4,924.8	88.7241	4,924.8	90.1352	4,924.8	91.0477	4,924.8	90.388	4,924.8	89.528	4,924.8	89.1113	4,924.8	90.2004	4,924.8	88.1835	4,924.8	89.6593	4,924.8	87.2512	4,924.8	86.7134	4,924.8	86.9455	4,924.8	85.1645	4,924.8	83.1171	4,924.8	83.7052	4,924.8	83.3669	4,924.8	80.9645	4,924.8	79.1161	4,924.8	78.2679	4,924.8	77.8647	4,924.8	78.7456	4,924.8	77.0353	4,924.8	75.8969	4,924.8	72.5755	4,924.8	71.882	4,924.8	68.5605	4,924.8	65.2213	4,924.8	70.7301	4,924.8	74.0552	4,924.8	69.537	4,924.8	68.2838	4,924.8	68.2064	4,924.8	74.5028	4,924.8	77.7099
5,097.66	90.8242	5,097.66	91.0623	5,097.66	91.4091	5,097.66	89.678	5,097.66	89.5936	5,097.66	88.3964	5,097.66	90.9214	5,097.66	87.3828	5,097.66	89.1699	5,097.66	86.729	5,097.66	88.2796	5,097.66	85.3503	5,097.66	87.4411	5,097.66	83.5989	5,097.66	84.9689	5,097.66	83.1833	5,097.66	81.2588	5,097.66	78.5972	5,097.66	80.7536	5,097.66	79.7279	5,097.66	78.4417	5,097.66	75.3344	5,097.66	75.8613	5,097.66	73.0257	5,097.66	77.4166	5,097.66	75.7432	5,097.66	73.0316	5,097.66	61.4112	5,097.66	64.3905	5,097.66	72.8185	5,097.66	72.7684	5,097.66	71.2165	5,097.66	69.5192	5,097.66	66.485	5,097.66	72.6622	5,097.66	74.5201
5,277.83	92.004	5,277.83	91.6489	5,277.83	91.3619	5,277.83	90.9822	5,277.83	90.7879	5,277.83	90.0454	5,277.83	90.2442	5,277.83	89.351	5,277.83	89.4931	5,277.83	87.8813	5,277.83	88.0746	5,277.83	87.1502	5,277.83	86.898	5,277.83	84.4944	5,277.83	84.4895	5,277.83	85.437	5,277.83	83.3031	5,277.83	80.8067	5,277.83	79.6814	5,277.83	75.3016	5,277.83	78.6826	5,277.83	73.2077	5,277.83	77.4194	5,277.83	73.3214	5,277.83	74.6913	5,277.83	73.6592	5,277.83	73.3387	5,277.83	68.6203	5,277.83	61.3841	5,277.83	69.9594	5,277.83	72.1883	5,277.83	70.1796	5,277.83	68.5579	5,277.83	51.6643	5,277.83	72.2355	5,277.83	73.5176
5,463.87	91.2525	5,463.87	90.6648	5,463.87	90.5259	5,463.87	89.4841	5,463.87	90.8806	5,463.87	88.3554	5,463.87	89.1274	5,463.87	87.2809	5,463.87	89.3087	5,463.87	87.297	5,463.87	89.2868	5,463.87	85.7839	5,463.87	87.4902	5,463.87	85.6912	5,463.87	86.4842	5,463.87	82.2254	5,463.87	83.7984	5,463.87	81.3668	5,463.87	80.6596	5,463.87	76.8097	5,463.87	78.014	5,463.87	72.4917	5,463.87	77.4405	5,463.87	73.1841	5,463.87	75.6207	5,463.87	71.1871	5,463.87	73.0486	5,463.87	69.6176	5,463.87	66.5245	5,463.87	68.7063	5,463.87	73.5183	5,463.87	71.9847	5,463.87	69.4608	5,463.87	67.6293	5,463.87	64.81	5,463.87	75.0825
5,657.23	91.2206	5,657.23	90.8714	5,657.23	91.2429	5,657.23	90.4885	5,657.23	89.086	5,657.23	89.468	5,657.23	89.8794	5,657.23	88.9402	5,657.23	88.7476	5,657.23	88.1717	5,657.23	87.2859	5,657.23	86.3658	5,657.23	87.3399	5,657.23	84.2208	5,657.23	86.1042	5,657.23	81.7824	5,657.23	82.1919	5,657.23	79.3932	5,657.23	80.9063	5,657.23	79.9262	5,657.23	78.2701	5,657.23	75.9591	5,657.23	74.3883	5,657.23	73.9273	5,657.23	73.8855	5,657.23	74.3772	5,657.23	75.5126	5,657.23	67.0041	5,657.23	68.3296	5,657.23	61.9923	5,657.23	70.4677	5,657.23	71.3308	5,657.23	68.8754	5,657.23	66.4347	5,657.23	71.2116	5,657.23	73.5224
5,856.45	91.6882	5,856.45	91.3527	5,856.45	90.5722	5,856.45	90.0102	5,856.45	90.369	5,856.45	88.4385	5,856.45	89.3262	5,856.45	88.4779	5,856.45	90.2578	5,856.45	87.6543	5,856.45	89.473	5,856.45	87.086	5,856.45	87.4843	5,856.45	83.8003	5,856.45	84.6446	5,856.45	82.4584	5,856.45	83.9393	5,856.45	80.5843	5,856.45	81.5562	5,856.45	76.5659	5,856.45	78.4392	5,856.45	74.726	5,856.45	73.5094	5,856.45	72.9775	5,856.45	72.8387	5,856.45	73.9513	5,856.45	74.1778	5,856.45	71.5189	5,856.45	66.1049	5,856.45	60.0169	5,856.45	67.886	5,856.45	70.0942	5,856.45	72.257	5,856.45	61.968	5,856.45	67.0384	5,856.45	74.1321
6,062.99	91.9264	6,062.99	91.5837	6,062.99	91.6172	6,062.99	90.0344	6,062.99	89.6285	6,062.99	89.3742	6,062.99	89.7896	6,062.99	88.72	6,062.99	89.0446	6,062.99	88.8418	6,062.99	88.6001	6,062.99	87.053	6,062.99	87.2327	6,062.99	86.15	6,062.99	85.7896	6,062.99	82.4821	6,062.99	82.4972	6,062.99	80.4687	6,062.99	80.7083	6,062.99	77.7288	6,062.99	78.6855	6,062.99	76.4602	6,062.99	75.8558	6,062.99	68.7441	6,062.99	72.5443	6,062.99	68.9253	6,062.99	71.3375	6,062.99	70.4246	6,062.99	67.3639	6,062.99	42.9997	6,062.99	70.7602	6,062.99	67.5321	6,062.99	66.6119	6,062.99	61.0681	6,062.99	70.7619	6,062.99	74.5399
6,276.86	92.0587	6,276.86	91.3213	6,276.86	91.2483	6,276.86	90.0496	6,276.86	90.0396	6,276.86	88.4441	6,276.86	90.0868	6,276.86	88.2798	6,276.86	89.6776	6,276.86	87.2119	6,276.86	88.9328	6,276.86	85.502	6,276.86	86.3282	6,276.86	83.19	6,276.86	82.3456	6,276.86	80.599	6,276.86	81.5057	6,276.86	77.4797	6,276.86	78.4093	6,276.86	76.0688	6,276.86	77.0384	6,276.86	74.0673	6,276.86	76.1107	6,276.86	69.4309	6,276.86	70.0505	6,276.86	68.5043	6,276.86	68.8463	6,276.86	69.5618	6,276.86	70.4477	6,276.86	64.7296	6,276.86	59.7356	6,276.86	68.6627	6,276.86	66.907	6,276.86	55.9829	6,276.86	68.9027	6,276.86	73.4312
6,498.05	92.1229	6,498.05	91.6123	6,498.05	91.6251	6,498.05	90.3121	6,498.05	90.5862	6,498.05	89.2034	6,498.05	89.754	6,498.05	88.3744	6,498.05	89.3827	6,498.05	87.5274	6,498.05	88.8095	6,498.05	85.9739	6,498.05	86.5996	6,498.05	81.9823	6,498.05	84.275	6,498.05	80.7481	6,498.05	80.6898	6,498.05	77.475	6,498.05	78.6474	6,498.05	75.3772	6,498.05	76.619	6,498.05	72.3902	6,498.05	75.7257	6,498.05	68.646	6,498.05	68.9432	6,498.05	61.0302	6,498.05	69.4589	6,498.05	69.0072	6,498.05	68.0665	6,498.05	57.875	6,498.05	64.019	6,498.05	58.7156	6,498.05	61.8781	6,498.05	50.4399	6,498.05	69.9912	6,498.05	73.1208
6,726.56	91.6134	6,726.56	91.3199	6,726.56	91.1111	6,726.56	90.0558	6,726.56	90.0687	6,726.56	88.6124	6,726.56	89.6481	6,726.56	88.0294	6,726.56	88.8494	6,726.56	86.8327	6,726.56	87.4111	6,726.56	84.1809	6,726.56	85.6379	6,726.56	82.0336	6,726.56	82.649	6,726.56	79.0991	6,726.56	80.1691	6,726.56	76.207	6,726.56	77.1977	6,726.56	73.5189	6,726.56	76.176	6,726.56	73.6357	6,726.56	72.6526	6,726.56	71.5791	6,726.56	70.0155	6,726.56	64.0004	6,726.56	67.1275	6,726.56	65.7146	6,726.56	68.0463	6,726.56	62.4682	6,726.56	59.3478	6,726.56	61.3796	6,726.56	65.2953	6,726.56	46.3782	6,726.56	66.1327	6,726.56	71.8167
6,963.87	92.0508	6,963.87	91.4379	6,963.87	91.3317	6,963.87	90.2041	6,963.87	90.3713	6,963.87	89.2753	6,963.87	89.5237	6,963.87	88.0533	6,963.87	88.8773	6,963.87	86.279	6,963.87	87.5383	6,963.87	84.5523	6,963.87	85.1204	6,963.87	81.9092	6,963.87	82.2148	6,963.87	79.0582	6,963.87	79.1597	6,963.87	76.6037	6,963.87	75.6974	6,963.87	72.0874	6,963.87	74.5508	6,963.87	72.3717	6,963.87	73.3921	6,963.87	71.2411	6,963.87	70.5781	6,963.87	66.932	6,963.87	61.7036	6,963.87	68.2187	6,963.87	66.5938	6,963.87	66.0856	6,963.87	54.2356	6,963.87	55.4336	6,963.87	58.7671	6,963.87	51.4846	6,963.87	66.696	6,963.87	70.9165
7,209.96	91.6023	7,209.96	90.9689	7,209.96	91.1905	7,209.96	89.9248	7,209.96	90.0832	7,209.96	88.8139	7,209.96	89.5189	7,209.96	87.9112	7,209.96	88.3201	7,209.96	86.4832	7,209.96	86.7306	7,209.96	83.2614	7,209.96	84.3523	7,209.96	81.0748	7,209.96	82.3508	7,209.96	78.9486	7,209.96	79.8695	7,209.96	76.6613	7,209.96	76.3298	7,209.96	72.5774	7,209.96	74.1163	7,209.96	69.4747	7,209.96	73.8112	7,209.96	72.3232	7,209.96	71.7944	7,209.96	66.0439	7,209.96	65.5367	7,209.96	64.4483	7,209.96	67.7953	7,209.96	63.5775	7,209.96	61.6439	7,209.96	56.5871	7,209.96	64.8759	7,209.96	45.4919	7,209.96	62.5321	7,209.96	70.7899
7,464.84	90.8404	7,464.84	90.6086	7,464.84	90.5036	7,464.84	89.6042	7,464.84	89.2683	7,464.84	88.8684	7,464.84	88.8954	7,464.84	87.618	7,464.84	87.6901	7,464.84	85.703	7,464.84	85.9764	7,464.84	83.3045	7,464.84	83.7533	7,464.84	80.907	7,464.84	80.998	7,464.84	79.435	7,464.84	78.5007	7,464.84	76.2481	7,464.84	75.7956	7,464.84	74.2824	7,464.84	72.8633	7,464.84	71.9555	7,464.84	71.9956	7,464.84	71.4044	7,464.84	71.1005	7,464.84	68.9632	7,464.84	65.8025	7,464.84	63.2043	7,464.84	65.8994	7,464.84	67.2157	7,464.84	61.3097	7,464.84	54.4943	7,464.84	60.7812	7,464.84	50.5468	7,464.84	62.8335	7,464.84	67.5932
7,727.05	91.1595	7,727.05	90.8061	7,727.05	90.6463	7,727.05	90.0827	7,727.05	89.9459	7,727.05	88.5993	7,727.05	89.0144	7,727.05	87.3731	7,727.05	87.5847	7,727.05	85.2285	7,727.05	85.7994	7,727.05	82.7568	7,727.05	83.6246	7,727.05	80.3682	7,727.05	81.4948	7,727.05	78.5357	7,727.05	78.5745	7,727.05	75.9962	7,727.05	76.2943	7,727.05	73.5654	7,727.05	72.7074	7,727.05	70.3371	7,727.05	70.1409	7,727.05	68.1518	7,727.05	70.9608	7,727.05	68.4771	7,727.05	66.4416	7,727.05	63.3432	7,727.05	66.2711	7,727.05	66.4648	7,727.05	61.4589	7,727.05	52.2629	7,727.05	64.4934	7,727.05	48.3843	7,727.05	62.2764	7,727.05	68.3491
7,999.51	89.8635	7,999.51	89.7139	7,999.51	90.0137	7,999.51	88.9063	7,999.51	89.0342	7,999.51	87.878	7,999.51	88.1578	7,999.51	86.0068	7,999.51	86.5541	7,999.51	84.254	7,999.51	84.5769	7,999.51	82.0785	7,999.51	82.2425	7,999.51	79.6796	7,999.51	79.2451	7,999.51	76.8742	7,999.51	76.9038	7,999.51	74.5785	7,999.51	74.0231	7,999.51	72.5073	7,999.51	72.6869	7,999.51	69.5085	7,999.51	70.3137	7,999.51	67.305	7,999.51	67.3127	7,999.51	67.5736	7,999.51	66.8272	7,999.51	62.4923	7,999.51	62.8023	7,999.51	64.9252	7,999.51	60.1415	7,999.51	51.9693	7,999.51	60.0711	7,999.51	56.4326	7,999.51	57.7328	7,999.51	69.025
8,282.23	89.4411	8,282.23	89.1516	8,282.23	89.575	8,282.23	88.9283	8,282.23	89.3155	8,282.23	87.5033	8,282.23	87.8704	8,282.23	85.8811	8,282.23	85.5602	8,282.23	83.7217	8,282.23	83.5772	8,282.23	81.0317	8,282.23	80.619	8,282.23	78.5785	8,282.23	77.2057	8,282.23	74.9416	8,282.23	75.0516	8,282.23	72.3225	8,282.23	71.4808	8,282.23	70.3433	8,282.23	70.1541	8,282.23	69.0015	8,282.23	67.8298	8,282.23	64.1292	8,282.23	65.4629	8,282.23	61.4368	8,282.23	65.1753	8,282.23	60.9607	8,282.23	61.9747	8,282.23	63.044	8,282.23	62.2851	8,282.23	55.5217	8,282.23	58.9735	8,282.23	55.062	8,282.23	58.9027	8,282.23	63.8797
8,573.73	88.3161	8,573.73	88.4201	8,573.73	88.7437	8,573.73	88.2704	8,573.73	87.9768	8,573.73	87.4529	8,573.73	86.8246	8,573.73	85.5303	8,573.73	84.7984	8,573.73	82.9952	8,573.73	82.0205	8,573.73	79.9947	8,573.73	78.409	8,573.73	76.601	8,573.73	75.2321	8,573.73	73.4448	8,573.73	71.3809	8,573.73	69.7335	8,573.73	67.6354	8,573.73	66.8928	8,573.73	66.0118	8,573.73	65.8457	8,573.73	64.8075	8,573.73	64.1818	8,573.73	63.3357	8,573.73	64.1054	8,573.73	62.0978	8,573.73	61.4187	8,573.73	57.9839	8,573.73	57.8453	8,573.73	57.0498	8,573.73	55.5677	8,573.73	55.2547	8,573.73	49.2271	8,573.73	59.225	8,573.73	61.9088
8,876.95	89.1968	8,876.95	89.1512	8,876.95	89.128	8,876.95	88.4927	8,876.95	88.3138	8,876.95	87.0797	8,876.95	86.9717	8,876.95	85.2664	8,876.95	84.746	8,876.95	83.0127	8,876.95	81.8244	8,876.95	79.0979	8,876.95	78.3877	8,876.95	75.5569	8,876.95	74.7321	8,876.95	73.077	8,876.95	70.6601	8,876.95	70.7532	8,876.95	67.6538	8,876.95	67.5235	8,876.95	64.7877	8,876.95	65.6967	8,876.95	62.3881	8,876.95	66.4764	8,876.95	59.912	8,876.95	61.9865	8,876.95	58.9065	8,876.95	62.1993	8,876.95	53.6152	8,876.95	59.1976	8,876.95	62.3366	8,876.95	59.3463	8,876.95	54.5658	8,876.95	56.2293	8,876.95	60.4382	8,876.95	61.6167
9,188.96	89.6099	9,188.96	89.3791	9,188.96	89.2037	9,188.96	88.298	9,188.96	87.7935	9,188.96	86.7495	9,188.96	86.1683	9,188.96	84.8783	9,188.96	84.0705	9,188.96	82.6295	9,188.96	81.4495	9,188.96	79.0837	9,188.96	77.3169	9,188.96	76.0704	9,188.96	73.337	9,188.96	73.6094	9,188.96	71.313	9,188.96	70.112	9,188.96	67.8121	9,188.96	69.0754	9,188.96	65.8509	9,188.96	66.9333	9,188.96	65.1132	9,188.96	65.4949	9,188.96	60.0876	9,188.96	62.6848	9,188.96	61.2434	9,188.96	64.373	9,188.96	57.5125	9,188.96	63.1152	9,188.96	63.4902	9,188.96	59.7067	9,188.96	56.2014	9,188.96	56.1478	9,188.96	54.6434	9,188.96	60.0864
9,514.16	90.2512	9,514.16	90.1225	9,514.16	89.586	9,514.16	88.6565	9,514.16	87.8027	9,514.16	86.4045	9,514.16	86.0981	9,514.16	84.508	9,514.16	84.1633	9,514.16	82.5072	9,514.16	81.4286	9,514.16	79.2151	9,514.16	77.2299	9,514.16	77.1669	9,514.16	73.5787	9,514.16	74.4309	9,514.16	72.5053	9,514.16	71.1547	9,514.16	68.6748	9,514.16	70.5272	9,514.16	67.4184	9,514.16	67.96	9,514.16	65.9282	9,514.16	66.088	9,514.16	64.4786	9,514.16	59.4267	9,514.16	62.4145	9,514.16	63.4762	9,514.16	60.9703	9,514.16	61.7938	9,514.16	62.6647	9,514.16	59.0683	9,514.16	53.0776	9,514.16	49.29	9,514.16	55.2688	9,514.16	59.8961
9,849.61	90.2624	9,849.61	90.3322	9,849.61	89.6609	9,849.61	88.7604	9,849.61	87.7066	9,849.61	86.1767	9,849.61	85.5946	9,849.61	84.3	9,849.61	83.6327	9,849.61	81.8832	9,849.61	80.6712	9,849.61	79.0162	9,849.61	76.8078	9,849.61	76.9275	9,849.61	74.1687	9,849.61	74.8688	9,849.61	71.7949	9,849.61	72.2139	9,849.61	69.7588	9,849.61	70.6096	9,849.61	68.1638	9,849.61	68.0989	9,849.61	64.1226	9,849.61	65.5482	9,849.61	65.5152	9,849.61	64.4469	9,849.61	60.3748	9,849.61	63.267	9,849.61	60.2834	9,849.61	59.2567	9,849.61	61.9788	9,849.61	58.7707	9,849.61	50.2342	9,849.61	46.863	9,849.61	55.4731	9,849.61	60.3033
10,196.8	90.443	10,196.8	90.3992	10,196.8	90.0929	10,196.8	88.763	10,196.8	87.6483	10,196.8	85.6727	10,196.8	85.3211	10,196.8	83.2971	10,196.8	83.1204	10,196.8	81.4253	10,196.8	80.0942	10,196.8	78.571	10,196.8	76.2756	10,196.8	77.1538	10,196.8	74.2602	10,196.8	75.1995	10,196.8	72.8621	10,196.8	72.1729	10,196.8	69.7583	10,196.8	70.0941	10,196.8	68.7669	10,196.8	67.6661	10,196.8	65.1944	10,196.8	65.9162	10,196.8	63.2271	10,196.8	63.4324	10,196.8	62.908	10,196.8	64.3192	10,196.8	61.6982	10,196.8	61.9288	10,196.8	61.1879	10,196.8	57.9543	10,196.8	52.0278	10,196.8	51.1164	10,196.8	54.9299	10,196.8	62.5302
10,555.7	90.4169	10,555.7	90.3886	10,555.7	90.0247	10,555.7	88.6728	10,555.7	87.5193	10,555.7	85.2973	10,555.7	84.9611	10,555.7	82.5885	10,555.7	82.2683	10,555.7	80.5201	10,555.7	78.8762	10,555.7	78.4266	10,555.7	76.2661	10,555.7	76.6204	10,555.7	75.0157	10,555.7	75.0064	10,555.7	72.4309	10,555.7	71.6143	10,555.7	69.6745	10,555.7	70.4438	10,555.7	69.2134	10,555.7	67.6416	10,555.7	65.458	10,555.7	65.1807	10,555.7	63.4138	10,555.7	62.7073	10,555.7	59.6876	10,555.7	59.4191	10,555.7	61.4481	10,555.7	56.3333	10,555.7	59.291	10,555.7	58.0499	10,555.7	50.1728	10,555.7	52.9845	10,555.7	49.9184	10,555.7	63.0539
10,927.7	90.4649	10,927.7	90.3005	10,927.7	89.9486	10,927.7	88.4097	10,927.7	87.3428	10,927.7	84.9076	10,927.7	84.1938	10,927.7	81.8569	10,927.7	80.9885	10,927.7	79.3198	10,927.7	77.8755	10,927.7	78.2692	10,927.7	76.3747	10,927.7	76.9107	10,927.7	74.9294	10,927.7	74.9069	10,927.7	73.0839	10,927.7	71.9444	10,927.7	68.5239	10,927.7	69.9221	10,927.7	67.7826	10,927.7	67.9852	10,927.7	65.1608	10,927.7	65.2765	10,927.7	60.1518	10,927.7	65.6223	10,927.7	62.7663	10,927.7	61.6485	10,927.7	60.606	10,927.7	56.0125	10,927.7	58.0761	10,927.7	61.0229	10,927.7	56.4823	10,927.7	55.488	10,927.7	46.9089	10,927.7	62.9555
11,313	90.4861	11,313	90.245	11,313	89.9413	11,313	88.1117	11,313	87.0211	11,313	84.2664	11,313	83.7043	11,313	80.7181	11,313	79.8372	11,313	78.8915	11,313	77.982	11,313	78.3532	11,313	77.3184	11,313	77.0292	11,313	76.0263	11,313	75.6319	11,313	73.8288	11,313	71.6592	11,313	69.5632	11,313	69.7369	11,313	67.9103	11,313	68.1042	11,313	66.6185	11,313	64.9772	11,313	60.932	11,313	63.4311	11,313	62.7918	11,313	59.2989	11,313	60.028	11,313	58.3032	11,313	56.0533	11,313	61.5685	11,313	55.6596	11,313	51.5815	11,313	50.6385	11,313	62.8006
11,712.9	90.2999	11,712.9	89.9935	11,712.9	89.4391	11,712.9	87.745	11,712.9	86.6361	11,712.9	83.4879	11,712.9	82.314	11,712.9	79.6533	11,712.9	78.5585	11,712.9	79.0741	11,712.9	78.0638	11,712.9	78.6216	11,712.9	77.2812	11,712.9	77.3876	11,712.9	75.3402	11,712.9	75.2712	11,712.9	73.3788	11,712.9	72.4488	11,712.9	69.8657	11,712.9	70.4078	11,712.9	66.7545	11,712.9	67.6757	11,712.9	66.5842	11,712.9	65.9644	11,712.9	60.2222	11,712.9	60.8994	11,712.9	62.1071	11,712.9	56.9952	11,712.9	58.5905	11,712.9	60.2124	11,712.9	53.4093	11,712.9	60.7195	11,712.9	58.6555	11,712.9	54.829	11,712.9	49.547	11,712.9	62.9235
12,126	90.0279	12,126	89.3907	12,126	88.93	12,126	87.298	12,126	86.0336	12,126	83.1499	12,126	81.178	12,126	78.5835	12,126	77.3588	12,126	78.9892	12,126	77.9719	12,126	79.0558	12,126	77.1634	12,126	77.7972	12,126	75.156	12,126	75.566	12,126	72.6488	12,126	71.3644	12,126	69.2386	12,126	71.1462	12,126	67.9931	12,126	66.915	12,126	65.7007	12,126	66.9836	12,126	63.649	12,126	61.6402	12,126	61.9776	12,126	58.7158	12,126	56.6984	12,126	59.4676	12,126	53.15	12,126	61.7018	12,126	59.2483	12,126	61.9982	12,126	43.5437	12,126	63.2723
12,553.7	89.5914	12,553.7	88.9371	12,553.7	88.3729	12,553.7	86.8866	12,553.7	85.7567	12,553.7	82.7384	12,553.7	80.0404	12,553.7	77.8244	12,553.7	77.392	12,553.7	78.9683	12,553.7	77.8084	12,553.7	78.805	12,553.7	77.1797	12,553.7	77.6254	12,553.7	75.7348	12,553.7	75.4947	12,553.7	73.5008	12,553.7	71.0571	12,553.7	69.3803	12,553.7	70.3069	12,553.7	67.3999	12,553.7	66.7278	12,553.7	64.3471	12,553.7	66.8609	12,553.7	62.2633	12,553.7	60.9516	12,553.7	54.9498	12,553.7	60.6992	12,553.7	55.4372	12,553.7	59.5188	12,553.7	53.0878	12,553.7	60.2321	12,553.7	53.7149	12,553.7	61.0688	12,553.7	45.7186	12,553.7	63.2087
12,996.1	89.3983	12,996.1	88.3467	12,996.1	87.9324	12,996.1	86.5015	12,996.1	85.1984	12,996.1	82.1728	12,996.1	79.0155	12,996.1	77.9265	12,996.1	77.7977	12,996.1	79.0713	12,996.1	78.4777	12,996.1	79.1171	12,996.1	78.818	12,996.1	78.1364	12,996.1	77.058	12,996.1	75.6898	12,996.1	74.9286	12,996.1	71.156	12,996.1	70.8329	12,996.1	69.4246	12,996.1	67.4486	12,996.1	67.1749	12,996.1	66.7817	12,996.1	65.4635	12,996.1	63.7884	12,996.1	58.2892	12,996.1	50.2464	12,996.1	59.3551	12,996.1	49.7084	12,996.1	61.5436	12,996.1	57.8934	12,996.1	55.6241	12,996.1	61.3259	12,996.1	58.9712	12,996.1	56.505	12,996.1	64.1684
13,454.6	89.0486	13,454.6	88.0898	13,454.6	87.5127	13,454.6	86.0095	13,454.6	84.6909	13,454.6	81.6482	13,454.6	79.5901	13,454.6	78.4507	13,454.6	78.6619	13,454.6	79.3606	13,454.6	79.1957	13,454.6	80.2672	13,454.6	79.8943	13,454.6	78.8788	13,454.6	77.0319	13,454.6	75.543	13,454.6	75.0957	13,454.6	70.9332	13,454.6	71.2865	13,454.6	70.4208	13,454.6	68.4191	13,454.6	66.8764	13,454.6	67.4997	13,454.6	64.3689	13,454.6	61.9715	13,454.6	60.8417	13,454.6	45.7949	13,454.6	60.2906	13,454.6	57.3167	13,454.6	59.103	13,454.6	59.4444	13,454.6	59.6646	13,454.6	56.4072	13,454.6	64.8894	13,454.6	55.7844	13,454.6	60.8707
13,929.2	88.1898	13,929.2	87.7168	13,929.2	86.9253	13,929.2	84.7577	13,929.2	83.4044	13,929.2	81.0448	13,929.2	80.4371	13,929.2	78.9122	13,929.2	78.9312	13,929.2	80.1096	13,929.2	80.1062	13,929.2	80.8903	13,929.2	79.8483	13,929.2	79.1696	13,929.2	75.442	13,929.2	76.3866	13,929.2	74.2255	13,929.2	72.313	13,929.2	70.3779	13,929.2	71.0549	13,929.2	69.2606	13,929.2	65.8628	13,929.2	66.0464	13,929.2	66.4164	13,929.2	58.974	13,929.2	60.9253	13,929.2	53.7425	13,929.2	61.2655	13,929.2	59.876	13,929.2	60.4532	13,929.2	57.8378	13,929.2	54.8955	13,929.2	47.1888	13,929.2	51.087	13,929.2	58.7633	13,929.2	61.4773
14,419.9	87.8477	14,419.9	87.4644	14,419.9	86.4918	14,419.9	83.8673	14,419.9	82.3892	14,419.9	81.2219	14,419.9	79.6709	14,419.9	79.0034	14,419.9	78.2647	14,419.9	79.9596	14,419.9	79.642	14,419.9	79.9298	14,419.9	78.143	14,419.9	77.9288	14,419.9	75.0926	14,419.9	75.3381	14,419.9	72.6693	14,419.9	70.7612	14,419.9	69.1512	14,419.9	70.4672	14,419.9	67.771	14,419.9	64.9186	14,419.9	62.7641	14,419.9	65.9445	14,419.9	61.2908	14,419.9	62.312	14,419.9	58.2855	14,419.9	57.4044	14,419.9	60.0882	14,419.9	56.7788	14,419.9	58.6552	14,419.9	51.6842	14,419.9	54.5036	14,419.9	63.6905	14,419.9	59.7426	14,419.9	55.1985
14,928.2	87.2727	14,928.2	86.943	14,928.2	85.8724	14,928.2	82.8559	14,928.2	81.4421	14,928.2	80.9274	14,928.2	79.5116	14,928.2	79.3963	14,928.2	78.7481	14,928.2	79.532	14,928.2	79.1017	14,928.2	79.1466	14,928.2	77.726	14,928.2	76.9848	14,928.2	74.9091	14,928.2	74.4286	14,928.2	72.6062	14,928.2	69.3007	14,928.2	68.2405	14,928.2	68.7297	14,928.2	67.6015	14,928.2	65.4207	14,928.2	61.1405	14,928.2	62.6231	14,928.2	61.5415	14,928.2	61.023	14,928.2	60.199	14,928.2	53.255	14,928.2	59.9092	14,928.2	53.2958	14,928.2	53.0097	14,928.2	46.9675	14,928.2	50.9719	14,928.2	53.6549	14,928.2	58.6869	14,928.2	53.3546
15,455.6	86.3363	15,455.6	85.9503	15,455.6	84.8389	15,455.6	81.8752	15,455.6	80.6056	15,455.6	80.9912	15,455.6	79.0777	15,455.6	80.0444	15,455.6	79.3854	15,455.6	79.2271	15,455.6	78.7813	15,455.6	78.2533	15,455.6	77.3267	15,455.6	75.98	15,455.6	74.0604	15,455.6	73.5657	15,455.6	71.4865	15,455.6	68.394	15,455.6	66.4322	15,455.6	67.0513	15,455.6	66.0652	15,455.6	63.3465	15,455.6	60.7599	15,455.6	60.6325	15,455.6	61.1229	15,455.6	58.7792	15,455.6	61.629	15,455.6	54.3559	15,455.6	59.0889	15,455.6	52.2606	15,455.6	56.5617	15,455.6	34.2665	15,455.6	50.2572	15,455.6	57.1661	15,455.6	60.6683	15,455.6	53.2327
16,000.5	85.0431	16,000.5	84.7479	16,000.5	83.2984	16,000.5	80.9835	16,000.5	79.716	16,000.5	80.5695	16,000.5	79.3162	16,000.5	80.6303	16,000.5	79.8019	16,000.5	79.0111	16,000.5	78.9249	16,000.5	77.7135	16,000.5	76.9016	16,000.5	74.8972	16,000.5	73.7099	16,000.5	71.9151	16,000.5	70.448	16,000.5	67.2089	16,000.5	66.4605	16,000.5	66.5465	16,000.5	63.9804	16,000.5	62.2305	16,000.5	60.8954	16,000.5	60.022	16,000.5	60.7382	16,000.5	58.5269	16,000.5	58.3908	16,000.5	50.5793	16,000.5	56.6016	16,000.5	50.1275	16,000.5	50.8973	16,000.5	48.5932	16,000.5	50.615	16,000.5	46.3273	16,000.5	56.7019	16,000.5	48.6391
16,564.5	83.596	16,564.5	83.3917	16,564.5	81.726	16,564.5	79.9225	16,564.5	79.1139	16,564.5	80.4449	16,564.5	80.2605	16,564.5	80.903	16,564.5	80.0511	16,564.5	78.9538	16,564.5	78.9528	16,564.5	77.3516	16,564.5	75.9272	16,564.5	73.8441	16,564.5	71.6438	16,564.5	70.9678	16,564.5	69.2577	16,564.5	65.0266	16,564.5	64.2147	16,564.5	66.018	16,564.5	64.3938	16,564.5	59.2975	16,564.5	60.122	16,564.5	58.7036	16,564.5	59.329	16,564.5	59.8714	16,564.5	58.9723	16,564.5	54.1547	16,564.5	56.9697	16,564.5	51.0846	16,564.5	54.1317	16,564.5	35.5447	16,564.5	47.134	16,564.5	52.3985	16,564.5	55.9406	16,564.5	52.9218
17,148.9	82.1072	17,148.9	81.6534	17,148.9	80.2319	17,148.9	79.3832	17,148.9	79.3267	17,148.9	80.7495	17,148.9	81.1434	17,148.9	80.9511	17,148.9	80.0684	17,148.9	78.7721	17,148.9	78.2517	17,148.9	76.0511	17,148.9	74.0523	17,148.9	73.5013	17,148.9	69.3395	17,148.9	70.1971	17,148.9	68.0409	17,148.9	65.0681	17,148.9	61.6569	17,148.9	64.9708	17,148.9	63.4553	17,148.9	59.4021	17,148.9	58.404	17,148.9	60.1564	17,148.9	57.587	17,148.9	59.2409	17,148.9	54.7218	17,148.9	52.9924	17,148.9	54.778	17,148.9	44.1338	17,148.9	50.6338	17,148.9	50.6466	17,148.9	54.1596	17,148.9	50.0907	17,148.9	46.3666	17,148.9	49.3006
17,752.4	80.4545	17,752.4	79.9533	17,752.4	78.7141	17,752.4	79.4137	17,752.4	79.7053	17,752.4	81.4732	17,752.4	81.3908	17,752.4	80.9286	17,752.4	80.1417	17,752.4	78.3989	17,752.4	77.298	17,752.4	74.7531	17,752.4	72.9003	17,752.4	73.2459	17,752.4	69.964	17,752.4	70.4595	17,752.4	67.8701	17,752.4	64.0522	17,752.4	60.1242	17,752.4	64.2951	17,752.4	61.7548	17,752.4	58.6885	17,752.4	55.9359	17,752.4	58.4352	17,752.4	56.37	17,752.4	57.8456	17,752.4	51.7618	17,752.4	51.436	17,752.4	53.8167	17,752.4	47.0745	17,752.4	51.2775	17,752.4	46.4379	17,752.4	47.7634	17,752.4	39.7299	17,752.4	49.6644	17,752.4	51.5611
18,379.4	78.8754	18,379.4	78.9667	18,379.4	78.2867	18,379.4	79.8206	18,379.4	80.5847	18,379.4	81.9752	18,379.4	81.5871	18,379.4	80.8227	18,379.4	79.9587	18,379.4	77.7545	18,379.4	75.463	18,379.4	73.9911	18,379.4	72.3612	18,379.4	71.3766	18,379.4	69.0563	18,379.4	69.532	18,379.4	66.1004	18,379.4	63.6191	18,379.4	59.4969	18,379.4	63.1704	18,379.4	58.4516	18,379.4	56.6438	18,379.4	55.8339	18,379.4	58.1366	18,379.4	55.0392	18,379.4	55.6519	18,379.4	51.8385	18,379.4	51.9601	18,379.4	49.6252	18,379.4	45.2344	18,379.4	45.3834	18,379.4	44.6989	18,379.4	52.9667	18,379.4	48.452	18,379.4	50.9891	18,379.4	49.3979
19,026.9	77.827	19,026.9	78.8083	19,026.9	78.989	19,026.9	80.6255	19,026.9	81.7282	19,026.9	82.5373	19,026.9	82.129	19,026.9	80.9476	19,026.9	79.9295	19,026.9	77.3231	19,026.9	74.8873	19,026.9	73.3486	19,026.9	71.4144	19,026.9	69.4429	19,026.9	66.8022	19,026.9	67.9393	19,026.9	64.1865	19,026.9	61.9845	19,026.9	58.4795	19,026.9	61.0599	19,026.9	58.5159	19,026.9	53.0683	19,026.9	54.1197	19,026.9	57.424	19,026.9	52.8817	19,026.9	53.8807	19,026.9	51.5102	19,026.9	49.9219	19,026.9	47.4172	19,026.9	45.7645	19,026.9	43.5537	19,026.9	39.8738	19,026.9	53.9711	19,026.9	44.2346	19,026.9	48.4267	19,026.9	47.4324
19,697.8	78.0376	19,697.8	79.6845	19,697.8	80.1827	19,697.8	81.8041	19,697.8	82.5967	19,697.8	83.0736	19,697.8	82.4544	19,697.8	81.0164	19,697.8	79.6875	19,697.8	76.7368	19,697.8	74.3299	19,697.8	71.9561	19,697.8	69.6687	19,697.8	67.5738	19,697.8	64.1178	19,697.8	65.0269	19,697.8	61.2318	19,697.8	60.1646	19,697.8	55.5671	19,697.8	58.71	19,697.8	55.9383	19,697.8	51.1283	19,697.8	50.2444	19,697.8	54.8081	19,697.8	52.2511	19,697.8	49.9044	19,697.8	49.1314	19,697.8	46.9247	19,697.8	43.3026	19,697.8	41.4321	19,697.8	37.8217	19,697.8	39.6847	19,697.8	52.2384	19,697.8	37.8578	19,697.8	50.8581	19,697.8	45.3311
19,999.5	78.3737	19,999.5	80.1886	19,999.5	80.5074	19,999.5	82.4913	19,999.5	82.7397	19,999.5	83.2675	19,999.5	82.506	19,999.5	80.9863	19,999.5	79.5104	19,999.5	76.2962	19,999.5	73.4488	19,999.5	71.2356	19,999.5	68.2051	19,999.5	66.6513	19,999.5	63.5803	19,999.5	63.0667	19,999.5	58.9564	19,999.5	56.4267	19,999.5	58.1168	19,999.5	58.3642	19,999.5	54.6797	19,999.5	55.2497	19,999.5	50.4428	19,999.5	51.6372	19,999.5	54.3963	19,999.5	55.3352	19,999.5	56.7502	19,999.5	50.4461	19,999.5	53.4965	19,999.5	55.6996	19,999.5	43.015	19,999.5	52.3975	19,999.5	55.9673	19,999.5	56.1833	19,999.5	40.2043	19,999.5	50.1008
