"SPL Vertical"
"On-Axis"		"10°"		"-10°"		"20°"		"-20°"		"30°"		"-30°"		"40°"		"-40°"		"50°"		"-50°"		"60°"		"-60°"		"70°"		"-70°"		"80°"		"-80°"		"90°"		"-90°"		"100°"		"-100°"		"110°"		"-110°"		"120°"		"-120°"		"130°"		"-130°"		"140°"		"-140°"		"150°"		"-150°"		"160°"		"-160°"		"170°"		"-170°"		"180°"
"Frequency [Hz]"	"Sound Pessure Level [dB]  / [2.83V 1m] "	"Frequency [Hz]"	"Sound Pessure Level [dB]  / [2.83V 1m] "	"Frequency [Hz]"	"Sound Pessure Level [dB]  / [2.83V 1m] "	"Frequency [Hz]"	"Sound Pessure Level [dB]  / [2.83V 1m] "	"Frequency [Hz]"	"Sound Pessure Level [dB]  / [2.83V 1m] "	"Frequency [Hz]"	"Sound Pessure Level [dB]  / [2.83V 1m] "	"Frequency [Hz]"	"Sound Pessure Level [dB]  / [2.83V 1m] "	"Frequency [Hz]"	"Sound Pessure Level [dB]  / [2.83V 1m] "	"Frequency [Hz]"	"Sound Pessure Level [dB]  / [2.83V 1m] "	"Frequency [Hz]"	"Sound Pessure Level [dB]  / [2.83V 1m] "	"Frequency [Hz]"	"Sound Pessure Level [dB]  / [2.83V 1m] "	"Frequency [Hz]"	"Sound Pessure Level [dB]  / [2.83V 1m] "	"Frequency [Hz]"	"Sound Pessure Level [dB]  / [2.83V 1m] "	"Frequency [Hz]"	"Sound Pessure Level [dB]  / [2.83V 1m] "	"Frequency [Hz]"	"Sound Pessure Level [dB]  / [2.83V 1m] "	"Frequency [Hz]"	"Sound Pessure Level [dB]  / [2.83V 1m] "	"Frequency [Hz]"	"Sound Pessure Level [dB]  / [2.83V 1m] "	"Frequency [Hz]"	"Sound Pessure Level [dB]  / [2.83V 1m] "	"Frequency [Hz]"	"Sound Pessure Level [dB]  / [2.83V 1m] "	"Frequency [Hz]"	"Sound Pessure Level [dB]  / [2.83V 1m] "	"Frequency [Hz]"	"Sound Pessure Level [dB]  / [2.83V 1m] "	"Frequency [Hz]"	"Sound Pessure Level [dB]  / [2.83V 1m] "	"Frequency [Hz]"	"Sound Pessure Level [dB]  / [2.83V 1m] "	"Frequency [Hz]"	"Sound Pessure Level [dB]  / [2.83V 1m] "	"Frequency [Hz]"	"Sound Pessure Level [dB]  / [2.83V 1m] "	"Frequency [Hz]"	"Sound Pessure Level [dB]  / [2.83V 1m] "	"Frequency [Hz]"	"Sound Pessure Level [dB]  / [2.83V 1m] "	"Frequency [Hz]"	"Sound Pessure Level [dB]  / [2.83V 1m] "	"Frequency [Hz]"	"Sound Pessure Level [dB]  / [2.83V 1m] "	"Frequency [Hz]"	"Sound Pessure Level [dB]  / [2.83V 1m] "	"Frequency [Hz]"	"Sound Pessure Level [dB]  / [2.83V 1m] "	"Frequency [Hz]"	"Sound Pessure Level [dB]  / [2.83V 1m] "	"Frequency [Hz]"	"Sound Pessure Level [dB]  / [2.83V 1m] "	"Frequency [Hz]"	"Sound Pessure Level [dB]  / [2.83V 1m] "	"Frequency [Hz]"	"Sound Pessure Level [dB]  / [2.83V 1m] "	"Frequency [Hz]"	"Sound Pessure Level [dB]  / [2.83V 1m] "
20.5078	71.7746	20.5078	71.7303	20.5078	71.838	20.5078	71.7055	20.5078	71.9197	20.5078	71.7001	20.5078	72.0181	20.5078	71.7136	20.5078	72.1307	20.5078	71.7454	20.5078	72.2547	20.5078	71.7946	20.5078	72.3862	20.5078	71.8602	20.5078	72.521	20.5078	71.9406	20.5078	72.6546	20.5078	72.0344	20.5078	72.782	20.5078	72.1396	20.5078	72.8986	20.5078	72.2538	20.5078	72.9995	20.5078	72.3745	20.5078	73.0807	20.5078	72.4984	20.5078	73.1388	20.5078	72.6225	20.5078	73.1714	20.5078	72.743	20.5078	73.1774	20.5078	72.8561	20.5078	73.1571	20.5078	72.9579	20.5078	73.1119	20.5078	73.0445
21.9727	74.6784	21.9727	74.6323	21.9727	74.7412	21.9727	74.6036	21.9727	74.8194	21.9727	74.5927	21.9727	74.9117	21.9727	74.5999	21.9727	75.0161	21.9727	74.6251	21.9727	75.1302	21.9727	74.6679	21.9727	75.2511	21.9727	74.7274	21.9727	75.3753	21.9727	74.8027	21.9727	75.499	21.9727	74.8921	21.9727	75.618	21.9727	74.9938	21.9727	75.7279	21.9727	75.1053	21.9727	75.8243	21.9727	75.2239	21.9727	75.9031	21.9727	75.3463	21.9727	75.9608	21.9727	75.469	21.9727	75.9948	21.9727	75.5879	21.9727	76.0035	21.9727	75.6991	21.9727	75.9867	21.9727	75.7983	21.9727	75.9454	21.9727	75.8816
23.4375	76.5508	23.4375	76.5066	23.4375	76.6126	23.4375	76.4807	23.4375	76.691	23.4375	76.4733	23.4375	76.7846	23.4375	76.4845	23.4375	76.8912	23.4375	76.5138	23.4375	77.0083	23.4375	76.561	23.4375	77.1329	23.4375	76.625	23.4375	77.2613	23.4375	76.7049	23.4375	77.3896	23.4375	76.7991	23.4375	77.5137	23.4375	76.9058	23.4375	77.629	23.4375	77.0224	23.4375	77.7311	23.4375	77.1463	23.4375	77.8159	23.4375	77.2738	23.4375	77.8797	23.4375	77.4012	23.4375	77.9197	23.4375	77.5241	23.4375	77.9339	23.4375	77.6381	23.4375	77.9218	23.4375	77.7388	23.4375	77.8839	23.4375	77.8219
24.9023	78.0622	24.9023	78.0178	24.9023	78.1249	24.9023	77.9922	24.9023	78.2046	24.9023	77.9856	24.9023	78.3001	24.9023	77.9981	24.9023	78.4092	24.9023	78.0293	24.9023	78.5294	24.9023	78.0788	24.9023	78.6577	24.9023	78.1456	24.9023	78.7903	24.9023	78.2285	24.9023	78.9231	24.9023	78.3261	24.9023	79.0518	24.9023	78.4363	24.9023	79.1717	24.9023	78.5566	24.9023	79.278	24.9023	78.6841	24.9023	79.3665	24.9023	78.8152	24.9023	79.4333	24.9023	78.9462	24.9023	79.4755	24.9023	79.0725	24.9023	79.4911	24.9023	79.1895	24.9023	79.4794	24.9023	79.2928	24.9023	79.4411	24.9023	79.3779
26.3672	79.6688	26.3672	79.6239	26.3672	79.731	26.3672	79.5971	26.3672	79.8095	26.3672	79.5887	26.3672	79.9027	26.3672	79.5988	26.3672	80.0088	26.3672	79.6271	26.3672	80.1253	26.3672	79.6732	26.3672	80.2491	26.3672	79.7363	26.3672	80.3768	26.3672	79.8155	26.3672	80.5045	26.3672	79.9091	26.3672	80.628	26.3672	80.0154	26.3672	80.7426	26.3672	80.1318	26.3672	80.844	26.3672	80.2554	26.3672	80.9279	26.3672	80.3826	26.3672	80.9907	26.3672	80.5097	26.3672	81.0295	26.3672	80.6322	26.3672	81.0426	26.3672	80.7458	26.3672	81.0296	26.3672	80.8461	26.3672	80.9912	26.3672	80.9291
27.832	80.7302	27.832	80.6867	27.832	80.7914	27.832	80.6613	27.832	80.869	27.832	80.6546	27.832	80.9616	27.832	80.6664	27.832	81.0672	27.832	80.6965	27.832	81.1834	27.832	80.7444	27.832	81.307	27.832	80.8092	27.832	81.4346	27.832	80.8896	27.832	81.5622	27.832	80.9841	27.832	81.6856	27.832	81.0905	27.832	81.8002	27.832	81.2063	27.832	81.9016	27.832	81.3287	27.832	81.9855	27.832	81.4542	27.832	82.0484	27.832	81.579	27.832	82.0874	27.832	81.6991	27.832	82.101	27.832	81.8104	27.832	82.0886	27.832	81.9087	27.832	82.0509	27.832	81.9901
29.2969	81.8675	29.2969	81.8254	29.2969	81.9272	29.2969	81.8016	29.2969	82.0033	29.2969	81.7965	29.2969	82.0944	29.2969	81.8102	29.2969	82.1984	29.2969	81.8425	29.2969	82.313	29.2969	81.8925	29.2969	82.4353	29.2969	81.9595	29.2969	82.5618	29.2969	82.0419	29.2969	82.6886	29.2969	82.1381	29.2969	82.8117	29.2969	82.2457	29.2969	82.9264	29.2969	82.3623	29.2969	83.0284	29.2969	82.4847	29.2969	83.1134	29.2969	82.6095	29.2969	83.178	29.2969	82.733	29.2969	83.2191	29.2969	82.8512	29.2969	83.2352	29.2969	82.96	29.2969	83.2257	29.2969	83.0554	29.2969	83.1912	29.2969	83.1336
30.7617	82.9005	30.7617	82.8582	30.7617	82.9603	30.7617	82.8341	30.7617	83.0365	30.7617	82.8285	30.7617	83.1275	30.7617	82.8416	30.7617	83.2315	30.7617	82.873	30.7617	83.346	30.7617	82.9221	30.7617	83.4682	30.7617	82.9879	30.7617	83.5945	30.7617	83.069	30.7617	83.7212	30.7617	83.1637	30.7617	83.8438	30.7617	83.2699	30.7617	83.9579	30.7617	83.3849	30.7617	84.059	30.7617	83.5058	30.7617	84.1429	30.7617	83.6293	30.7617	84.206	30.7617	83.7518	30.7617	84.2455	30.7617	83.8694	30.7617	84.2598	30.7617	83.9781	30.7617	84.2484	30.7617	84.0739	30.7617	84.2122	30.7617	84.1531
32.2266	83.7799	32.2266	83.738	32.2266	83.8393	32.2266	83.7143	32.2266	83.9152	32.2266	83.7091	32.2266	84.006	32.2266	83.7226	32.2266	84.1099	32.2266	83.7544	32.2266	84.2243	32.2266	83.8038	32.2266	84.3464	32.2266	83.87	32.2266	84.4728	32.2266	83.9516	32.2266	84.5996	32.2266	84.0469	32.2266	84.7227	32.2266	84.1538	32.2266	84.8375	32.2266	84.2698	32.2266	84.9396	32.2266	84.392	32.2266	85.0249	32.2266	84.5168	32.2266	85.0895	32.2266	84.6406	32.2266	85.1307	32.2266	84.7593	32.2266	85.1468	32.2266	84.8689	32.2266	85.137	32.2266	84.965	32.2266	85.1022	32.2266	85.0439
33.6914	84.5298	33.6914	84.4892	33.6914	84.5875	33.6914	84.4663	33.6914	84.6611	33.6914	84.4614	33.6914	84.7495	33.6914	84.4746	33.6914	84.8509	33.6914	84.5058	33.6914	84.9631	33.6914	84.5545	33.6914	85.0832	33.6914	84.6197	33.6914	85.2081	33.6914	84.7004	33.6914	85.334	33.6914	84.7949	33.6914	85.4566	33.6914	84.9012	33.6914	85.5716	33.6914	85.0167	33.6914	85.6744	33.6914	85.1385	33.6914	85.7607	33.6914	85.2631	33.6914	85.8268	33.6914	85.3868	33.6914	85.8697	33.6914	85.5054	33.6914	85.8874	33.6914	85.6147	33.6914	85.8792	33.6914	85.7104	33.6914	85.8457	33.6914	85.7886
35.1562	85.205	35.1562	85.1617	35.1562	85.2655	35.1562	85.1364	35.1562	85.342	35.1562	85.1294	35.1562	85.4332	35.1562	85.1409	35.1562	85.537	35.1562	85.1708	35.1562	85.6512	35.1562	85.2185	35.1562	85.7729	35.1562	85.2832	35.1562	85.8988	35.1562	85.3636	35.1562	86.0249	35.1562	85.4581	35.1562	86.1472	35.1562	85.5646	35.1562	86.2612	35.1562	85.6806	35.1562	86.3625	35.1562	85.8029	35.1562	86.4469	35.1562	85.9284	35.1562	86.5107	35.1562	86.0529	35.1562	86.5511	35.1562	86.1726	35.1562	86.5662	35.1562	86.2832	35.1562	86.5556	35.1562	86.3805	35.1562	86.5197	35.1562	86.4605
36.6211	85.7414	36.6211	85.6985	36.6211	85.8016	36.6211	85.6735	36.6211	85.878	36.6211	85.667	36.6211	85.9691	36.6211	85.6789	36.6211	86.0729	36.6211	85.7091	36.6211	86.1871	36.6211	85.757	36.6211	86.3088	36.6211	85.8217	36.6211	86.4346	36.6211	85.902	36.6211	86.5606	36.6211	85.9961	36.6211	86.6826	36.6211	86.102	36.6211	86.7964	36.6211	86.2172	36.6211	86.8973	36.6211	86.3387	36.6211	86.9812	36.6211	86.4631	36.6211	87.0445	36.6211	86.5868	36.6211	87.0843	36.6211	86.7057	36.6211	87.099	36.6211	86.8156	36.6211	87.0879	36.6211	86.9124	36.6211	87.0517	36.6211	86.9923
38.0859	86.2412	38.0859	86.1971	38.0859	86.3026	38.0859	86.1709	38.0859	86.38	38.0859	86.1631	38.0859	86.4719	38.0859	86.1739	38.0859	86.5765	38.0859	86.203	38.0859	86.6912	38.0859	86.2499	38.0859	86.8132	38.0859	86.3137	38.0859	86.939	38.0859	86.3933	38.0859	87.065	38.0859	86.4869	38.0859	87.1869	38.0859	86.5925	38.0859	87.3003	38.0859	86.7076	38.0859	87.4008	38.0859	86.8293	38.0859	87.4841	38.0859	86.9543	38.0859	87.5467	38.0859	87.0787	38.0859	87.5856	38.0859	87.1985	38.0859	87.5993	38.0859	87.3096	38.0859	87.587	38.0859	87.4077	38.0859	87.5496	38.0859	87.4889
39.5508	86.6921	39.5508	86.6476	39.5508	86.7538	39.5508	86.6212	39.5508	86.8314	39.5508	86.6132	39.5508	86.9235	39.5508	86.6239	39.5508	87.0281	39.5508	86.6531	39.5508	87.1426	39.5508	86.7002	39.5508	87.2643	39.5508	86.7643	39.5508	87.3898	39.5508	86.8441	39.5508	87.5153	39.5508	86.938	39.5508	87.6366	39.5508	87.0438	39.5508	87.7495	39.5508	87.159	39.5508	87.8494	39.5508	87.2807	39.5508	87.9323	39.5508	87.4054	39.5508	87.9945	39.5508	87.5295	39.5508	88.0333	39.5508	87.6489	39.5508	88.047	39.5508	87.7595	39.5508	88.0349	39.5508	87.8571	39.5508	87.9979	39.5508	87.9377
41.0156	87.0713	41.0156	87.0263	41.0156	87.1335	41.0156	86.9994	41.0156	87.2118	41.0156	86.9912	41.0156	87.3045	41.0156	87.0018	41.0156	87.4097	41.0156	87.031	41.0156	87.5248	41.0156	87.0782	41.0156	87.6471	41.0156	87.1427	41.0156	87.7731	41.0156	87.2229	41.0156	87.8991	41.0156	87.3174	41.0156	88.0209	41.0156	87.4238	41.0156	88.1341	41.0156	87.5398	41.0156	88.2344	41.0156	87.6622	41.0156	88.3176	41.0156	87.7877	41.0156	88.3801	41.0156	87.9126	41.0156	88.4192	41.0156	88.0328	41.0156	88.4329	41.0156	88.144	41.0156	88.4209	41.0156	88.2421	41.0156	88.3837	41.0156	88.3232
42.4805	87.371	42.4805	87.3258	42.4805	87.4334	42.4805	87.2986	42.4805	87.5117	42.4805	87.2899	42.4805	87.6044	42.4805	87.2999	42.4805	87.7094	42.4805	87.3285	42.4805	87.8244	42.4805	87.375	42.4805	87.9464	42.4805	87.4387	42.4805	88.072	42.4805	87.5183	42.4805	88.1975	42.4805	87.612	42.4805	88.3188	42.4805	87.7179	42.4805	88.4314	42.4805	87.8334	42.4805	88.5312	42.4805	87.9555	42.4805	88.6139	42.4805	88.0809	42.4805	88.6759	42.4805	88.2057	42.4805	88.7145	42.4805	88.326	42.4805	88.7279	42.4805	88.4375	42.4805	88.7156	42.4805	88.5359	42.4805	88.6781	42.4805	88.6173
43.9453	87.6453	43.9453	87.5983	43.9453	87.7092	43.9453	87.5691	43.9453	87.7888	43.9453	87.5583	43.9453	87.8824	43.9453	87.5663	43.9453	87.9881	43.9453	87.5928	43.9453	88.1033	43.9453	87.6374	43.9453	88.2252	43.9453	87.6993	43.9453	88.3506	43.9453	87.7773	43.9453	88.4757	43.9453	87.8698	43.9453	88.5964	43.9453	87.9748	43.9453	88.7084	43.9453	88.0898	43.9453	88.8073	43.9453	88.2119	43.9453	88.8889	43.9453	88.3377	43.9453	88.9498	43.9453	88.4634	43.9453	88.987	43.9453	88.585	43.9453	88.9987	43.9453	88.6982	43.9453	88.9845	43.9453	88.7986	43.9453	88.945	43.9453	88.8821
45.4102	87.8416	45.4102	87.795	45.4102	87.9052	45.4102	87.7662	45.4102	87.9846	45.4102	87.7558	45.4102	88.0781	45.4102	87.7642	45.4102	88.1838	45.4102	87.791	45.4102	88.2991	45.4102	87.8359	45.4102	88.4213	45.4102	87.8981	45.4102	88.547	45.4102	87.9763	45.4102	88.6725	45.4102	88.0689	45.4102	88.7935	45.4102	88.174	45.4102	88.9059	45.4102	88.2891	45.4102	89.0051	45.4102	88.4111	45.4102	89.087	45.4102	88.5369	45.4102	89.1481	45.4102	88.6626	45.4102	89.1854	45.4102	88.7841	45.4102	89.1973	45.4102	88.8971	45.4102	89.1831	45.4102	88.9974	45.4102	89.1437	45.4102	89.0808
46.875	88.0368	46.875	87.9899	46.875	88.1007	46.875	87.9609	46.875	88.1804	46.875	87.9503	46.875	88.2742	46.875	87.9586	46.875	88.3802	46.875	87.9854	46.875	88.4959	46.875	88.0304	46.875	88.6185	46.875	88.0928	46.875	88.7446	46.875	88.1713	46.875	88.8705	46.875	88.2644	46.875	88.9921	46.875	88.3699	46.875	89.1048	46.875	88.4854	46.875	89.2045	46.875	88.6079	46.875	89.2867	46.875	88.7341	46.875	89.3479	46.875	88.8602	46.875	89.3853	46.875	88.982	46.875	89.3971	46.875	89.0955	46.875	89.3827	46.875	89.1961	46.875	89.343	46.875	89.2798
48.3398	88.1809	48.3398	88.1332	48.3398	88.2457	48.3398	88.1035	48.3398	88.3262	48.3398	88.0924	48.3398	88.4209	48.3398	88.1001	48.3398	88.5277	48.3398	88.1266	48.3398	88.6442	48.3398	88.1714	48.3398	88.7676	48.3398	88.2337	48.3398	88.8944	48.3398	88.3123	48.3398	89.021	48.3398	88.4056	48.3398	89.1431	48.3398	88.5115	48.3398	89.2563	48.3398	88.6275	48.3398	89.3562	48.3398	88.7508	48.3398	89.4387	48.3398	88.8779	48.3398	89.4999	48.3398	89.005	48.3398	89.5372	48.3398	89.128	48.3398	89.5486	48.3398	89.2425	48.3398	89.5337	48.3398	89.3443	48.3398	89.4932	48.3398	89.429
51.2695	88.4249	51.2695	88.377	51.2695	88.4899	51.2695	88.3469	51.2695	88.5706	51.2695	88.3353	51.2695	88.6653	51.2695	88.3425	51.2695	88.7722	51.2695	88.3683	51.2695	88.8886	51.2695	88.4124	51.2695	89.0117	51.2695	88.474	51.2695	89.1382	51.2695	88.5519	51.2695	89.2643	51.2695	88.6445	51.2695	89.3857	51.2695	88.7498	51.2695	89.4983	51.2695	88.8653	51.2695	89.5975	51.2695	88.9882	51.2695	89.6793	51.2695	89.115	51.2695	89.7399	51.2695	89.242	51.2695	89.7766	51.2695	89.3651	51.2695	89.7876	51.2695	89.4798	51.2695	89.7722	51.2695	89.5818	51.2695	89.7314	51.2695	89.6669
52.7344	88.5217	52.7344	88.4751	52.7344	88.585	52.7344	88.4463	52.7344	88.664	52.7344	88.4357	52.7344	88.7569	52.7344	88.4436	52.7344	88.8619	52.7344	88.47	52.7344	88.9765	52.7344	88.5145	52.7344	89.098	52.7344	88.5762	52.7344	89.223	52.7344	88.6541	52.7344	89.3479	52.7344	88.7465	52.7344	89.4686	52.7344	88.8514	52.7344	89.5807	52.7344	88.9664	52.7344	89.68	52.7344	89.0886	52.7344	89.7622	52.7344	89.2145	52.7344	89.8237	52.7344	89.3403	52.7344	89.8616	52.7344	89.462	52.7344	89.874	52.7344	89.5752	52.7344	89.8604	52.7344	89.6755	52.7344	89.8214	52.7344	89.7588
54.1992	88.58	54.1992	88.5341	54.1992	88.6427	54.1992	88.5061	54.1992	88.7211	54.1992	88.4965	54.1992	88.8137	54.1992	88.5054	54.1992	88.9184	54.1992	88.5328	54.1992	89.0329	54.1992	88.5783	54.1992	89.1544	54.1992	88.6409	54.1992	89.2794	54.1992	88.7196	54.1992	89.4044	54.1992	88.8127	54.1992	89.5253	54.1992	88.9182	54.1992	89.6377	54.1992	89.0336	54.1992	89.7374	54.1992	89.1559	54.1992	89.8201	54.1992	89.2817	54.1992	89.8822	54.1992	89.4072	54.1992	89.9209	54.1992	89.5284	54.1992	89.9343	54.1992	89.6408	54.1992	89.9218	54.1992	89.7402	54.1992	89.8839	54.1992	89.8224
55.6641	88.6409	55.6641	88.5948	55.6641	88.7039	55.6641	88.5666	55.6641	88.7826	55.6641	88.5567	55.6641	88.8755	55.6641	88.5654	55.6641	88.9804	55.6641	88.5926	55.6641	89.095	55.6641	88.6379	55.6641	89.2164	55.6641	88.7004	55.6641	89.3413	55.6641	88.7789	55.6641	89.4661	55.6641	88.8719	55.6641	89.5865	55.6641	88.9772	55.6641	89.6984	55.6641	89.0924	55.6641	89.7975	55.6641	89.2145	55.6641	89.8796	55.6641	89.3402	55.6641	89.9412	55.6641	89.4655	55.6641	89.9794	55.6641	89.5864	55.6641	89.9924	55.6641	89.6987	55.6641	89.9796	55.6641	89.7979	55.6641	89.9415	55.6641	89.88
58.5938	88.7112	58.5938	88.6632	58.5938	88.7762	58.5938	88.6332	58.5938	88.857	58.5938	88.622	58.5938	88.9518	58.5938	88.6296	58.5938	89.0588	58.5938	88.6562	58.5938	89.1753	58.5938	88.7014	58.5938	89.2986	58.5938	88.7642	58.5938	89.4252	58.5938	88.8436	58.5938	89.5516	58.5938	88.9378	58.5938	89.6735	58.5938	89.0448	58.5938	89.7867	58.5938	89.1621	58.5938	89.8868	58.5938	89.2865	58.5938	89.9697	58.5938	89.4146	58.5938	90.0316	58.5938	89.5425	58.5938	90.0698	58.5938	89.6659	58.5938	90.0823	58.5938	89.7806	58.5938	90.0686	58.5938	89.882	58.5938	90.0292	58.5938	89.9661
60.0586	88.7316	60.0586	88.6829	60.0586	88.7975	60.0586	88.6522	60.0586	88.8791	60.0586	88.6402	60.0586	88.9747	60.0586	88.6473	60.0586	89.0823	60.0586	88.6734	60.0586	89.1995	60.0586	88.7183	60.0586	89.3232	60.0586	88.781	60.0586	89.4503	60.0586	88.8605	60.0586	89.5769	60.0586	88.955	60.0586	89.699	60.0586	89.0625	60.0586	89.8123	60.0586	89.1803	60.0586	89.9125	60.0586	89.3055	60.0586	89.9953	60.0586	89.4343	60.0586	90.0572	60.0586	89.563	60.0586	90.0952	60.0586	89.6873	60.0586	90.1074	60.0586	89.8027	60.0586	90.0933	60.0586	89.9049	60.0586	90.0534	60.0586	89.9897
62.9883	88.7732	62.9883	88.7235	62.9883	88.8401	62.9883	88.692	62.9883	88.9227	62.9883	88.6794	62.9883	89.0194	62.9883	88.6861	62.9883	89.1282	62.9883	88.7121	62.9883	89.2464	62.9883	88.7571	62.9883	89.3713	62.9883	88.8203	62.9883	89.4995	62.9883	88.9006	62.9883	89.6272	62.9883	88.9963	62.9883	89.7505	62.9883	89.1052	62.9883	89.8649	62.9883	89.2247	62.9883	89.9661	62.9883	89.3516	62.9883	90.0499	62.9883	89.4823	62.9883	90.1126	62.9883	89.6128	62.9883	90.1512	62.9883	89.7388	62.9883	90.1638	62.9883	89.8558	62.9883	90.1497	62.9883	89.9592	62.9883	90.1095	62.9883	90.045
64.4531	88.7807	64.4531	88.7298	64.4531	88.8489	64.4531	88.6973	64.4531	88.9331	64.4531	88.6841	64.4531	89.0315	64.4531	88.6905	64.4531	89.1419	64.4531	88.7166	64.4531	89.2618	64.4531	88.762	64.4531	89.3883	64.4531	88.826	64.4531	89.5179	64.4531	88.9074	64.4531	89.647	64.4531	89.0043	64.4531	89.7714	64.4531	89.1147	64.4531	89.8868	64.4531	89.2358	64.4531	89.9887	64.4531	89.3644	64.4531	90.073	64.4531	89.4968	64.4531	90.136	64.4531	89.629	64.4531	90.1746	64.4531	89.7565	64.4531	90.1871	64.4531	89.8749	64.4531	90.1726	64.4531	89.9797	64.4531	90.1318	64.4531	90.0665
67.3828	88.7525	67.3828	88.6967	67.3828	88.8261	67.3828	88.66	67.3828	88.9161	67.3828	88.6433	67.3828	89.0204	67.3828	88.6471	67.3828	89.1367	67.3828	88.6715	67.3828	89.2624	67.3828	88.7162	67.3828	89.3942	67.3828	88.7805	67.3828	89.5286	67.3828	88.8631	67.3828	89.6619	67.3828	88.9622	67.3828	89.7898	67.3828	89.0758	67.3828	89.9078	67.3828	89.2008	67.3828	90.0115	67.3828	89.3342	67.3828	90.0966	67.3828	89.472	67.3828	90.1593	67.3828	89.6102	67.3828	90.1966	67.3828	89.744	67.3828	90.2066	67.3828	89.8689	67.3828	90.1886	67.3828	89.9799	67.3828	90.1433	67.3828	90.0727
68.8477	88.7574	68.8477	88.6994	68.8477	88.8333	68.8477	88.6605	68.8477	88.9254	68.8477	88.6416	68.8477	89.0317	68.8477	88.6434	68.8477	89.1497	68.8477	88.6659	68.8477	89.2768	68.8477	88.7091	68.8477	89.4097	68.8477	88.7721	68.8477	89.5449	68.8477	88.8537	68.8477	89.6786	68.8477	88.9524	68.8477	89.8066	68.8477	89.0659	68.8477	89.9244	68.8477	89.1914	68.8477	90.0275	68.8477	89.3257	68.8477	90.1118	68.8477	89.4649	68.8477	90.1734	68.8477	89.6048	68.8477	90.2092	68.8477	89.7408	68.8477	90.2175	68.8477	89.868	68.8477	90.1974	68.8477	89.9815	68.8477	90.1498	68.8477	90.0768
71.7773	88.8184	71.7773	88.7636	71.7773	88.8903	71.7773	88.727	71.7773	88.9777	71.7773	88.7097	71.7773	89.0786	71.7773	88.7123	71.7773	89.1908	71.7773	88.7349	71.7773	89.3118	71.7773	88.7774	71.7773	89.4386	71.7773	88.8392	71.7773	89.5679	71.7773	88.9191	71.7773	89.6961	71.7773	89.0154	71.7773	89.8191	71.7773	89.1261	71.7773	89.9329	71.7773	89.2482	71.7773	90.0331	71.7773	89.3786	71.7773	90.1156	71.7773	89.5133	71.7773	90.1768	71.7773	89.6483	71.7773	90.2136	71.7773	89.7788	71.7773	90.2242	71.7773	89.9002	71.7773	90.2078	71.7773	90.0078	71.7773	90.1649	71.7773	90.0973
74.707	88.8446	74.707	88.7916	74.707	88.9146	74.707	88.757	74.707	88.9999	74.707	88.7416	74.707	89.0988	74.707	88.746	74.707	89.2089	74.707	88.7704	74.707	89.3276	74.707	88.8145	74.707	89.452	74.707	88.8775	74.707	89.579	74.707	88.9583	74.707	89.7049	74.707	89.055	74.707	89.8259	74.707	89.1653	74.707	89.9379	74.707	89.2865	74.707	90.0368	74.707	89.4151	74.707	90.1186	74.707	89.5473	74.707	90.1797	74.707	89.679	74.707	90.2173	74.707	89.8057	74.707	90.2295	74.707	89.923	74.707	90.2155	74.707	90.0264	74.707	90.1757	74.707	90.1118
77.6367	88.8185	77.6367	88.7659	77.6367	88.8885	77.6367	88.7318	77.6367	88.9741	77.6367	88.7172	77.6367	89.0735	77.6367	88.7228	77.6367	89.1844	77.6367	88.7487	77.6367	89.3042	77.6367	88.7946	77.6367	89.43	77.6367	88.8597	77.6367	89.5586	77.6367	88.9427	77.6367	89.6864	77.6367	89.0419	77.6367	89.8095	77.6367	89.1547	77.6367	89.9238	77.6367	89.2783	77.6367	90.025	77.6367	89.4091	77.6367	90.109	77.6367	89.5433	77.6367	90.1723	77.6367	89.6766	77.6367	90.2119	77.6367	89.8046	77.6367	90.2258	77.6367	89.9225	77.6367	90.2132	77.6367	90.0261	77.6367	90.1745	77.6367	90.1112
79.1016	88.7757	79.1016	88.7218	79.1016	88.8469	79.1016	88.6866	79.1016	88.9338	79.1016	88.6711	79.1016	89.0343	79.1016	88.6759	79.1016	89.1463	79.1016	88.7014	79.1016	89.2672	79.1016	88.7473	79.1016	89.394	79.1016	88.8127	79.1016	89.5236	79.1016	88.8965	79.1016	89.6523	79.1016	88.9967	79.1016	89.7762	79.1016	89.111	79.1016	89.8912	79.1016	89.2361	79.1016	89.9931	79.1016	89.3687	79.1016	90.0777	79.1016	89.5047	79.1016	90.1415	79.1016	89.6397	79.1016	90.1813	79.1016	89.7692	79.1016	90.1953	79.1016	89.8886	79.1016	90.1825	79.1016	89.9934	79.1016	90.1434	79.1016	90.0794
82.0312	88.7342	82.0312	88.678	82.0312	88.8079	82.0312	88.6407	82.0312	88.8973	82.0312	88.6236	82.0312	89.0003	82.0312	88.6273	82.0312	89.1147	82.0312	88.6522	82.0312	89.2379	82.0312	88.6982	82.0312	89.367	82.0312	88.7644	82.0312	89.4987	82.0312	88.8496	82.0312	89.6294	82.0312	88.9517	82.0312	89.7551	82.0312	89.0683	82.0312	89.8717	82.0312	89.1961	82.0312	89.9748	82.0312	89.3315	82.0312	90.0604	82.0312	89.4704	82.0312	90.1246	82.0312	89.6083	82.0312	90.1645	82.0312	89.7406	82.0312	90.178	82.0312	89.8626	82.0312	90.1643	82.0312	89.9698	82.0312	90.1238	82.0312	90.0581
84.9609	88.7324	84.9609	88.6727	84.9609	88.8099	84.9609	88.6325	84.9609	88.9034	84.9609	88.613	84.9609	89.0107	84.9609	88.6152	84.9609	89.1292	84.9609	88.6394	84.9609	89.2564	84.9609	88.6854	84.9609	89.3891	84.9609	88.7524	84.9609	89.5239	84.9609	88.8391	84.9609	89.6573	84.9609	88.9434	84.9609	89.785	84.9609	89.0627	84.9609	89.9031	84.9609	89.1937	84.9609	90.007	84.9609	89.3326	84.9609	90.0928	84.9609	89.4752	84.9609	90.1567	84.9609	89.617	84.9609	90.1958	84.9609	89.7531	84.9609	90.2079	84.9609	89.8788	84.9609	90.1923	84.9609	89.9895	84.9609	90.1494	84.9609	90.0809
87.8906	88.6783	87.8906	88.6152	87.8906	88.76	87.8906	88.5725	87.8906	88.8582	87.8906	88.5514	87.8906	88.9703	87.8906	88.5529	87.8906	89.0935	87.8906	88.5771	87.8906	89.225	87.8906	88.624	87.8906	89.3612	87.8906	88.6926	87.8906	89.4987	87.8906	88.7813	87.8906	89.6337	87.8906	88.8881	87.8906	89.7623	87.8906	89.0101	87.8906	89.8805	87.8906	89.144	87.8906	89.984	87.8906	89.2859	87.8906	90.0691	87.8906	89.4315	87.8906	90.1321	87.8906	89.5761	87.8906	90.1701	87.8906	89.715	87.8906	90.1811	87.8906	89.8433	87.8906	90.1642	87.8906	89.9562	87.8906	90.1199	87.8906	90.0496
90.8203	88.5873	90.8203	88.5223	90.8203	88.6703	90.8203	88.4774	90.8203	88.7691	90.8203	88.454	90.8203	88.8812	90.8203	88.4531	90.8203	89.0038	90.8203	88.4751	90.8203	89.1338	90.8203	88.52	90.8203	89.268	90.8203	88.587	90.8203	89.4031	90.8203	88.6745	90.8203	89.5355	90.8203	88.7806	90.8203	89.6616	90.8203	88.9024	90.8203	89.7774	90.8203	89.0365	90.8203	89.8792	90.8203	89.1789	90.8203	89.963	90.8203	89.3251	90.8203	90.0253	90.8203	89.4705	90.8203	90.0632	90.8203	89.61	90.8203	90.0745	90.8203	89.7386	90.8203	90.0582	90.8203	89.8516	90.8203	90.0145	90.8203	89.9447
95.2148	88.5086	95.2148	88.4397	95.2148	88.5955	95.2148	88.3911	95.2148	88.698	95.2148	88.3647	95.2148	88.8131	95.2148	88.3617	95.2148	88.938	95.2148	88.3829	95.2148	89.0696	95.2148	88.4282	95.2148	89.2048	95.2148	88.4968	95.2148	89.3403	95.2148	88.5872	95.2148	89.4727	95.2148	88.697	95.2148	89.5984	95.2148	88.823	95.2148	89.7138	95.2148	88.9614	95.2148	89.8151	95.2148	89.1078	95.2148	89.8986	95.2148	89.2577	95.2148	89.9609	95.2148	89.4058	95.2148	89.9991	95.2148	89.5473	95.2148	90.011	95.2148	89.677	95.2148	89.9954	95.2148	89.7904	95.2148	89.9525	95.2148	89.8834
98.1445	88.5036	98.1445	88.4379	98.1445	88.5869	98.1445	88.3922	98.1445	88.6854	98.1445	88.3681	98.1445	88.7964	98.1445	88.367	98.1445	88.917	98.1445	88.3893	98.1445	89.0441	98.1445	88.4351	98.1445	89.1747	98.1445	88.5036	98.1445	89.3059	98.1445	88.5931	98.1445	89.4342	98.1445	88.7014	98.1445	89.5566	98.1445	88.8252	98.1445	89.6694	98.1445	88.9609	98.1445	89.7692	98.1445	89.1042	98.1445	89.8522	98.1445	89.2504	98.1445	89.9152	98.1445	89.3945	98.1445	89.9551	98.1445	89.5316	98.1445	89.9696	98.1445	89.6567	98.1445	89.9574	98.1445	89.7654	98.1445	89.9185	98.1445	89.8537
101.074	88.373	101.074	88.308	101.074	88.4557	101.074	88.2629	101.074	88.5535	101.074	88.2397	101.074	88.6635	101.074	88.2398	101.074	88.783	101.074	88.2641	101.074	88.9093	101.074	88.3126	101.074	89.0394	101.074	88.3845	101.074	89.1705	101.074	88.4781	101.074	89.2997	101.074	88.5908	101.074	89.4236	101.074	88.7192	101.074	89.5389	101.074	88.8594	101.074	89.6419	101.074	89.0066	101.074	89.729	101.074	89.1558	101.074	89.7965	101.074	89.3019	101.074	89.8412	101.074	89.4398	101.074	89.8606	101.074	89.5645	101.074	89.8532	101.074	89.6716	101.074	89.8185	101.074	89.7573
105.469	88.2877	105.469	88.2279	105.469	88.3648	105.469	88.1879	105.469	88.4567	105.469	88.1698	105.469	88.561	105.469	88.1754	105.469	88.6751	105.469	88.2056	105.469	88.7966	105.469	88.2607	105.469	88.9231	105.469	88.3396	105.469	89.0518	105.469	88.4404	105.469	89.1799	105.469	88.5599	105.469	89.3043	105.469	88.6941	105.469	89.4215	105.469	88.8383	105.469	89.5279	105.469	88.9874	105.469	89.6198	105.469	89.136	105.469	89.6937	105.469	89.2788	105.469	89.746	105.469	89.411	105.469	89.7743	105.469	89.528	105.469	89.7766	105.469	89.6259	105.469	89.7522	105.469	89.7015
108.398	88.3159	108.398	88.2545	108.398	88.3968	108.398	88.2151	108.398	88.4942	108.398	88.2001	108.398	88.605	108.398	88.2109	108.398	88.7261	108.398	88.2481	108.398	88.8541	108.398	88.3113	108.398	88.9858	108.398	88.3988	108.398	89.1178	108.398	88.5078	108.398	89.247	108.398	88.6345	108.398	89.3704	108.398	88.7745	108.398	89.4852	108.398	88.9227	108.398	89.5883	108.398	89.0738	108.398	89.6772	108.398	89.2226	108.398	89.7488	108.398	89.364	108.398	89.8006	108.398	89.4933	108.398	89.8301	108.398	89.6064	108.398	89.8354	108.398	89.6995	108.398	89.8154	108.398	89.7698
112.793	88.4227	112.793	88.3543	112.793	88.5088	112.793	88.3069	112.793	88.609	112.793	88.2826	112.793	88.7194	112.793	88.2827	112.793	88.8358	112.793	88.3075	112.793	88.9545	112.793	88.3565	112.793	89.0724	112.793	88.4279	112.793	89.1867	112.793	88.5193	112.793	89.2952	112.793	88.6275	112.793	89.3961	112.793	88.7487	112.793	89.4874	112.793	88.8785	112.793	89.5674	112.793	89.0124	112.793	89.6341	112.793	89.1457	112.793	89.6854	112.793	89.2736	112.793	89.7193	112.793	89.3919	112.793	89.7342	112.793	89.4966	112.793	89.7286	112.793	89.5846	112.793	89.7018	112.793	89.6535
117.188	88.4653	117.188	88.3976	117.188	88.5487	117.188	88.3486	117.188	88.6442	117.188	88.3212	117.188	88.7488	117.188	88.3177	117.188	88.8593	117.188	88.3393	117.188	88.9732	117.188	88.3862	117.188	89.0877	117.188	88.4572	117.188	89.2006	117.188	88.5499	117.188	89.3097	117.188	88.6608	117.188	89.4126	117.188	88.7852	117.188	89.5069	117.188	88.918	117.188	89.5903	117.188	89.054	117.188	89.6602	117.188	89.1881	117.188	89.7143	117.188	89.3156	117.188	89.7504	117.188	89.4325	117.188	89.7666	117.188	89.5353	117.188	89.762	117.188	89.6215	117.188	89.736	117.188	89.6888
120.117	88.4467	120.117	88.3823	120.117	88.5281	120.117	88.3385	120.117	88.6229	120.117	88.3179	120.117	88.7273	120.117	88.3225	120.117	88.8378	120.117	88.3531	120.117	88.951	120.117	88.4092	120.117	89.0639	120.117	88.4889	120.117	89.174	120.117	88.5889	120.117	89.279	120.117	88.7052	120.117	89.3772	120.117	88.8327	120.117	89.4668	120.117	88.966	120.117	89.5463	120.117	89.0999	120.117	89.614	120.117	89.2293	120.117	89.6682	120.117	89.3498	120.117	89.7071	120.117	89.4577	120.117	89.729	120.117	89.5501	120.117	89.7325	120.117	89.6249	120.117	89.7165	120.117	89.6806
124.512	88.4564	124.512	88.3872	124.512	88.5424	124.512	88.3387	124.512	88.6412	124.512	88.3141	124.512	88.7484	124.512	88.3155	124.512	88.8602	124.512	88.3439	124.512	88.9729	124.512	88.3988	124.512	89.0836	124.512	88.4784	124.512	89.1899	124.512	88.5792	124.512	89.2898	124.512	88.6966	124.512	89.382	124.512	88.8254	124.512	89.465	124.512	88.9596	124.512	89.5378	124.512	89.0936	124.512	89.5991	124.512	89.2219	124.512	89.6477	124.512	89.3402	124.512	89.6821	124.512	89.4447	124.512	89.7012	124.512	89.533	124.512	89.7037	124.512	89.6035	124.512	89.6887	124.512	89.6554
128.906	88.3679	128.906	88.2919	128.906	88.4607	128.906	88.2372	128.906	88.5658	128.906	88.2073	128.906	88.6784	128.906	88.205	128.906	88.7944	128.906	88.2315	128.906	88.9102	128.906	88.2864	128.906	89.0226	128.906	88.3677	128.906	89.1295	128.906	88.4716	128.906	89.2292	128.906	88.5933	128.906	89.3203	128.906	88.7269	128.906	89.4019	128.906	88.8663	128.906	89.4731	128.906	89.0052	128.906	89.5328	128.906	89.1381	128.906	89.5801	128.906	89.2603	128.906	89.6135	128.906	89.368	128.906	89.6319	128.906	89.4587	128.906	89.6338	128.906	89.531	128.906	89.6182	128.906	89.5841
133.301	88.3373	133.301	88.2563	133.301	88.4347	133.301	88.1967	133.301	88.5436	133.301	88.1626	133.301	88.6589	133.301	88.1569	133.301	88.776	133.301	88.1812	133.301	88.8913	133.301	88.235	133.301	89.0016	133.301	88.3162	133.301	89.1048	133.301	88.4207	133.301	89.1993	133.301	88.5433	133.301	89.2843	133.301	88.6776	133.301	89.3588	133.301	88.8168	133.301	89.4225	133.301	88.9545	133.301	89.4748	133.301	89.085	133.301	89.5151	133.301	89.2034	133.301	89.5426	133.301	89.3065	133.301	89.5567	133.301	89.3921	133.301	89.5564	133.301	89.4595	133.301	89.5408	133.301	89.5089
139.16	88.2759	139.16	88.1861	139.16	88.3808	139.16	88.1169	139.16	88.4951	139.16	88.0732	139.16	88.6133	139.16	88.0583	139.16	88.7306	139.16	88.0742	139.16	88.8432	139.16	88.1208	139.16	88.948	139.16	88.1958	139.16	89.0432	139.16	88.2951	139.16	89.1278	139.16	88.4132	139.16	89.2012	139.16	88.5434	139.16	89.2635	139.16	88.6786	139.16	89.3148	139.16	88.8123	139.16	89.3551	139.16	88.9385	139.16	89.3844	139.16	89.0526	139.16	89.4022	139.16	89.1516	139.16	89.4082	139.16	89.2339	139.16	89.4018	139.16	89.2993	139.16	89.3821	139.16	89.3483
143.555	88.1952	143.555	88.0986	143.555	88.3047	143.555	88.021	143.555	88.4211	143.555	87.9678	143.555	88.5387	143.555	87.9431	143.555	88.6526	143.555	87.9492	143.555	88.759	143.555	87.9865	143.555	88.8553	143.555	88.0531	143.555	88.9401	143.555	88.145	143.555	89.013	143.555	88.2564	143.555	89.074	143.555	88.3806	143.555	89.1237	143.555	88.5103	143.555	89.1629	143.555	88.6385	143.555	89.1921	143.555	88.7594	143.555	89.2114	143.555	88.8684	143.555	89.2208	143.555	88.9627	143.555	89.2201	143.555	89.0411	143.555	89.2089	143.555	89.1038	143.555	89.1864	143.555	89.1518
147.949	88.1432	147.949	88.0408	147.949	88.2558	147.949	87.9553	147.949	88.3722	147.949	87.8925	147.949	88.4865	147.949	87.8571	147.949	88.594	147.949	87.8518	147.949	88.691	147.949	87.8773	147.949	88.7754	147.949	87.9321	147.949	88.8462	147.949	88.0121	147.949	88.9037	147.949	88.112	147.949	88.9486	147.949	88.2249	147.949	88.9824	147.949	88.3437	147.949	89.0062	147.949	88.4617	147.949	89.0212	147.949	88.573	147.949	89.0281	147.949	88.6736	147.949	89.0271	147.949	88.7607	147.949	89.0183	147.949	88.8337	147.949	89.0012	147.949	88.893	147.949	88.9753	147.949	88.9397
153.809	88.1503	153.809	88.0549	153.809	88.2527	153.809	87.9733	153.809	88.3558	153.809	87.9112	153.809	88.4537	153.809	87.8734	153.809	88.5417	153.809	87.8627	153.809	88.6166	153.809	87.8798	153.809	88.6766	153.809	87.9232	153.809	88.7216	153.809	87.9891	153.809	88.7528	153.809	88.0722	153.809	88.7721	153.809	88.166	153.809	88.7824	153.809	88.264	153.809	88.7861	153.809	88.3597	153.809	88.7855	153.809	88.4483	153.809	88.7819	153.809	88.526	153.809	88.7759	153.809	88.5913	153.809	88.7673	153.809	88.6439	153.809	88.7552	153.809	88.6847	153.809	88.7385	153.809	88.7156
159.668	88.1882	159.668	88.0832	159.668	88.3013	159.668	87.9933	159.668	88.4153	159.668	87.9249	159.668	88.5242	159.668	87.8833	159.668	88.6227	159.668	87.8717	159.668	88.7074	159.668	87.8909	159.668	88.7761	159.668	87.9388	159.668	88.8284	159.668	88.0114	159.668	88.8651	159.668	88.1024	159.668	88.8882	159.668	88.2044	159.668	88.9	159.668	88.31	159.668	88.9032	159.668	88.4123	159.668	88.9	159.668	88.5063	159.668	88.8919	159.668	88.5883	159.668	88.8801	159.668	88.6572	159.668	88.8647	159.668	88.7133	159.668	88.8457	159.668	88.7581	159.668	88.8225	159.668	88.7938
165.527	88.4016	165.527	88.3172	165.527	88.4924	165.527	88.2458	165.527	88.5835	165.527	88.193	165.527	88.6689	165.527	88.1632	165.527	88.7438	165.527	88.1591	165.527	88.805	165.527	88.1807	165.527	88.8506	165.527	88.2261	165.527	88.8802	165.527	88.2908	165.527	88.8951	165.527	88.369	165.527	88.8974	165.527	88.4537	165.527	88.8903	165.527	88.5381	165.527	88.8773	165.527	88.616	165.527	88.8618	165.527	88.6827	165.527	88.847	165.527	88.7354	165.527	88.8349	165.527	88.7734	165.527	88.8266	165.527	88.7978	165.527	88.8221	165.527	88.8113	165.527	88.8198	165.527	88.8174
171.387	88.3197	171.387	88.2359	171.387	88.4071	171.387	88.1628	171.387	88.491	171.387	88.1069	171.387	88.5652	171.387	88.0732	171.387	88.6247	171.387	88.0648	171.387	88.666	171.387	88.0823	171.387	88.6875	171.387	88.1233	171.387	88.6895	171.387	88.1831	171.387	88.6741	171.387	88.2551	171.387	88.6449	171.387	88.3315	171.387	88.6069	171.387	88.4042	171.387	88.5654	171.387	88.4662	171.387	88.5259	171.387	88.5124	171.387	88.4933	171.387	88.54	171.387	88.4713	171.387	88.5491	171.387	88.462	171.387	88.5423	171.387	88.4656	171.387	88.5244	171.387	88.4802	171.387	88.5016
177.246	88.1986	177.246	88.105	177.246	88.2922	177.246	88.02	177.246	88.3777	177.246	87.9516	177.246	88.4483	177.246	87.9062	177.246	88.4986	177.246	87.888	177.246	88.5255	177.246	87.8981	177.246	88.5278	177.246	87.9342	177.246	88.5068	177.246	87.9909	177.246	88.4656	177.246	88.0602	177.246	88.4091	177.246	88.1329	177.246	88.3434	177.246	88.1996	177.246	88.2755	177.246	88.2522	177.246	88.2122	177.246	88.2849	177.246	88.16	177.246	88.295	177.246	88.124	177.246	88.2833	177.246	88.1077	177.246	88.2539	177.246	88.112	177.246	88.2137	177.246	88.1348	177.246	88.1711
183.105	87.957	183.105	87.8516	183.105	88.0609	183.105	87.754	183.105	88.1542	183.105	87.673	183.105	88.2294	183.105	87.6156	183.105	88.2809	183.105	87.5865	183.105	88.3053	183.105	87.5867	183.105	88.3016	183.105	87.6139	183.105	88.2713	183.105	87.6623	183.105	88.2179	183.105	87.7239	183.105	88.1466	183.105	87.7891	183.105	88.0642	183.105	87.8486	183.105	87.9779	183.105	87.8941	183.105	87.8954	183.105	87.9197	183.105	87.8243	183.105	87.9229	183.105	87.771	183.105	87.9047	183.105	87.7401	183.105	87.87	183.105	87.7333	183.105	87.8263	183.105	87.7493	183.105	87.7829
188.965	87.9351	188.965	87.8455	188.965	88.0195	188.965	87.7592	188.965	88.0902	188.965	87.6844	188.965	88.14	188.965	87.6274	188.965	88.1637	188.965	87.5921	188.965	88.1583	188.965	87.579	188.965	88.1232	188.965	87.5859	188.965	88.0602	188.965	87.6073	188.965	87.9731	188.965	87.6359	188.965	87.8677	188.965	87.6634	188.965	87.7513	188.965	87.6815	188.965	87.6325	188.965	87.6836	188.965	87.5203	188.965	87.6654	188.965	87.4237	188.965	87.6261	188.965	87.3506	188.965	87.5683	188.965	87.3068	188.965	87.4987	188.965	87.2953	188.965	87.4262	188.965	87.3152	188.965	87.3616
196.289	87.942	196.289	87.8667	196.289	88.0108	196.289	87.7941	196.289	88.0642	196.289	87.7324	196.289	88.0946	196.289	87.688	196.289	88.0962	196.289	87.6645	196.289	88.0655	196.289	87.662	196.289	88.0018	196.289	87.6771	196.289	87.9068	196.289	87.703	196.289	87.7852	196.289	87.7306	196.289	87.6439	196.289	87.7498	196.289	87.4922	196.289	87.7509	196.289	87.3408	196.289	87.7262	196.289	87.2013	196.289	87.6716	196.289	87.0854	196.289	87.587	196.289	87.0036	196.289	87.4774	196.289	86.9637	196.289	87.3522	196.289	86.9697	196.289	87.2245	196.289	87.0204	196.289	87.1091
203.613	87.7744	203.613	87.7027	203.613	87.8291	203.613	87.6249	203.613	87.8568	203.613	87.5515	203.613	87.8498	203.613	87.4917	203.613	87.8028	203.613	87.4515	203.613	87.7137	203.613	87.4334	203.613	87.5841	203.613	87.4351	203.613	87.4187	203.613	87.4506	203.613	87.2263	203.613	87.4704	203.613	87.0184	203.613	87.483	203.613	86.8095	203.613	87.4768	203.613	86.6154	203.613	87.4417	203.613	86.452	203.613	87.3707	203.613	86.3336	203.613	87.2617	203.613	86.2706	203.613	87.1177	203.613	86.2685	203.613	86.9479	203.613	86.3267	203.613	86.7662	203.613	86.4381	203.613	86.5902
210.938	87.8966	210.938	87.8094	210.938	87.9625	210.938	87.7129	210.938	87.996	210.938	87.6185	210.938	87.988	210.938	87.536	210.938	87.932	210.938	87.4719	210.938	87.8252	210.938	87.4286	210.938	87.6685	210.938	87.4041	210.938	87.467	210.938	87.392	210.938	87.2295	210.938	87.3826	210.938	86.969	210.938	87.3644	210.938	86.7016	210.938	87.3259	210.938	86.4461	210.938	87.2573	210.938	86.2222	210.938	87.1527	210.938	86.0488	210.938	87.0105	210.938	85.9416	210.938	86.835	210.938	85.9098	210.938	86.6359	210.938	85.9543	210.938	86.4284	210.938	86.0668	210.938	86.2316
218.262	87.6764	218.262	87.6038	218.262	87.7303	218.262	87.524	218.262	87.7541	218.262	87.4476	218.262	87.7378	218.262	87.3827	218.262	87.6741	218.262	87.3342	218.262	87.5587	218.262	87.3026	218.262	87.3911	218.262	87.2842	218.262	87.1753	218.262	87.2718	218.262	86.9194	218.262	87.2549	218.262	86.6358	218.262	87.222	218.262	86.341	218.262	87.162	218.262	86.0547	218.262	87.0657	218.262	85.7988	218.262	86.9275	218.262	85.5953	218.262	86.7467	218.262	85.4641	218.262	86.5281	218.262	85.4192	218.262	86.2831	218.262	85.4652	218.262	86.0297	218.262	85.5952	218.262	85.7916
225.586	87.4836	225.586	87.4201	225.586	87.5238	225.586	87.3462	225.586	87.5283	225.586	87.2741	225.586	87.4866	225.586	87.2134	225.586	87.3911	225.586	87.17	225.586	87.2376	225.586	87.1448	225.586	87.0263	225.586	87.1335	225.586	86.7617	225.586	87.127	225.586	86.4529	225.586	87.1129	225.586	86.1141	225.586	87.077	225.586	85.7639	225.586	87.0057	225.586	85.4255	225.586	86.8877	225.586	85.126	225.586	86.7162	225.586	84.8935	225.586	86.49	225.586	84.7539	225.586	86.2148	225.586	84.7248	225.586	85.9038	225.586	84.8103	225.586	85.5779	225.586	84.9988	225.586	85.2654
232.91	87.5199	232.91	87.4576	232.91	87.5484	232.91	87.3764	232.91	87.5292	232.91	87.2906	232.91	87.4507	232.91	87.2113	232.91	87.3047	232.91	87.1456	232.91	87.087	232.91	87.0946	232.91	86.7972	232.91	87.0536	232.91	86.4395	232.91	87.0128	232.91	86.0228	232.91	86.9587	232.91	85.5612	232.91	86.8757	232.91	85.075	232.91	86.7484	232.91	84.5922	232.91	86.5631	232.91	84.1484	232.91	86.31	232.91	83.7861	232.91	85.9849	232.91	83.5492	232.91	85.5919	232.91	83.4734	232.91	85.1459	232.91	83.5735	232.91	84.6749	232.91	83.8358	232.91	84.2207
241.699	87.321	241.699	87.244	241.699	87.363	241.699	87.1493	241.699	87.3533	241.699	87.0527	241.699	87.2773	241.699	86.9663	241.699	87.1236	241.699	86.8969	241.699	86.8851	241.699	86.8445	241.699	86.5591	241.699	86.8019	241.699	86.1478	241.699	86.7561	241.699	85.659	241.699	86.6894	241.699	85.1069	241.699	86.5824	241.699	84.513	241.699	86.4156	241.699	83.9075	241.699	86.1726	241.699	83.331	241.699	85.8415	241.699	82.8344	241.699	85.4176	241.699	82.4761	241.699	84.9063	241.699	82.3118	241.699	84.3273	241.699	82.3774	241.699	83.719	241.699	82.6694	241.699	83.1412
250.488	87.1753	250.488	87.0497	250.488	87.2593	250.488	86.9013	250.488	87.2844	250.488	86.7483	250.488	87.2359	250.488	86.6064	250.488	87.1027	250.488	86.4861	250.488	86.8777	250.488	86.3908	250.488	86.5586	250.488	86.3154	250.488	86.1482	250.488	86.2468	250.488	85.6547	250.488	86.1656	250.488	85.0921	250.488	86.0485	250.488	84.4806	250.488	85.8718	250.488	83.8477	250.488	85.6144	250.488	83.229	250.488	85.2613	250.488	82.6688	250.488	84.8071	250.488	82.2194	250.488	84.2601	250.488	81.9389	250.488	83.6489	250.488	81.8789	250.488	83.0261	250.488	82.0635	250.488	82.4687
259.277	87.4661	259.277	87.3834	259.277	87.5015	259.277	87.2714	259.277	87.4721	259.277	87.1464	259.277	87.3628	259.277	87.0214	259.277	87.1617	259.277	86.9039	259.277	86.8613	259.277	86.7949	259.277	86.4585	259.277	86.6886	259.277	85.9553	259.277	86.573	259.277	85.3597	259.277	86.4307	259.277	84.6871	259.277	86.2415	259.277	83.9624	259.277	85.9849	259.277	83.222	259.277	85.6431	259.277	82.5142	259.277	85.2039	259.277	81.8975	259.277	84.664	259.277	81.4365	259.277	84.0333	259.277	81.1923	259.277	83.3397	259.277	81.2072	259.277	82.6332	259.277	81.4859	259.277	81.9867
268.066	87.0704	268.066	86.9525	268.066	87.1351	268.066	86.8012	268.066	87.1274	268.066	86.6354	268.066	87.0312	268.066	86.4702	268.066	86.8341	268.066	86.3157	268.066	86.5283	268.066	86.1746	268.066	86.1109	268.066	86.0423	268.066	85.5833	268.066	85.9063	268.066	84.9516	268.066	85.7483	268.066	84.2268	268.066	85.5457	268.066	83.4269	268.066	85.2746	268.066	82.5809	268.066	84.9128	268.066	81.7331	268.066	84.4425	268.066	80.9477	268.066	83.8538	268.066	80.3099	268.066	83.1501	268.066	79.9182	268.066	82.3552	268.066	79.8575	268.066	81.5239	268.066	80.154	268.066	80.7489
276.855	86.9514	276.855	86.8477	276.855	86.9967	276.855	86.7047	276.855	86.9632	276.855	86.5384	276.855	86.8304	276.855	86.3614	276.855	86.5802	276.855	86.1815	276.855	86.1989	276.855	86.0008	276.855	85.6788	276.855	85.8149	276.855	85.0202	276.855	85.6126	276.855	84.233	276.855	85.3768	276.855	83.3387	276.855	85.0865	276.855	82.3722	276.855	84.7197	276.855	81.3826	276.855	84.2558	276.855	80.4322	276.855	83.6789	276.855	79.5949	276.855	82.9821	276.855	78.9525	276.855	82.173	276.855	78.5873	276.855	81.282	276.855	78.564	276.855	80.3709	276.855	78.8982	276.855	79.5364
287.109	87.2432	287.109	87.2368	287.109	87.1851	287.109	87.178	287.109	87.0489	287.109	87.0776	287.109	86.8203	287.109	86.9434	287.109	86.4842	287.109	86.7799	287.109	86.0247	287.109	86.5863	287.109	85.4252	287.109	86.3555	287.109	84.6686	287.109	86.0737	287.109	83.7381	287.109	85.7211	287.109	82.6203	287.109	85.2748	287.109	81.3122	287.109	84.7131	287.109	79.8348	287.109	84.0194	287.109	78.2592	287.109	83.1852	287.109	76.7439	287.109	82.2106	287.109	75.5578	287.109	81.1036	287.109	75.0068	287.109	79.8811	287.109	75.2255	287.109	78.577	287.109	76.0683	287.109	77.2609
297.363	86.9662	297.363	86.9629	297.363	86.899	297.363	86.9075	297.363	86.7435	297.363	86.8173	297.363	86.4835	297.363	86.7059	297.363	86.1046	297.363	86.58	297.363	85.5933	297.363	86.4366	297.363	84.9346	297.363	86.2617	297.363	84.1083	297.363	86.0305	297.363	83.0848	297.363	85.709	297.363	81.8219	297.363	85.2561	297.363	80.264	297.363	84.6257	297.363	78.3461	297.363	83.7676	297.363	76.0069	297.363	82.6281	297.363	73.2271	297.363	81.1503	297.363	70.1429	297.363	79.2757	297.363	67.3534	297.363	76.9503	297.363	66.2885	297.363	74.1499	297.363	67.9032	297.363	70.9701
307.617	86.8206	307.617	86.8101	307.617	86.7559	307.617	86.7483	307.617	86.5911	307.617	86.6556	307.617	86.3023	307.617	86.5465	307.617	85.8671	307.617	86.4272	307.617	85.2658	307.617	86.2951	307.617	84.4806	307.617	86.1383	307.617	83.495	307.617	85.9361	307.617	82.2919	307.617	85.6601	307.617	80.8525	307.617	85.2755	307.617	79.158	307.617	84.7426	307.617	77.2031	307.617	84.0187	307.617	75.0333	307.617	83.0579	307.617	72.8152	307.617	81.8104	307.617	70.8886	307.617	80.2229	307.617	69.6707	307.617	78.2471	307.617	69.5567	307.617	75.8755	307.617	70.8653	307.617	73.248
319.336	86.7105	319.336	86.7049	319.336	86.6252	319.336	86.6341	319.336	86.4238	319.336	86.5228	319.336	86.0828	319.336	86.3922	319.336	85.5801	319.336	86.2563	319.336	84.8943	319.336	86.1184	319.336	84.0028	319.336	85.9687	319.336	82.877	319.336	85.7836	319.336	81.4766	319.336	85.5274	319.336	79.7414	319.336	85.1547	319.336	77.5828	319.336	84.6135	319.336	74.874	319.336	83.8458	319.336	71.4478	319.336	82.787	319.336	67.1505	319.336	81.3623	319.336	62.1883	319.336	79.4791	319.336	58.1274	319.336	77.0152	319.336	58.6542	319.336	73.7984	319.336	64.1682	319.336	69.5871
329.59	86.4492	329.59	86.4368	329.59	86.3736	329.59	86.3633	329.59	86.1833	329.59	86.2535	329.59	85.8529	329.59	86.1277	329.59	85.3584	329.59	85.9976	329.59	84.6752	329.59	85.8633	329.59	83.7748	329.59	85.7108	329.59	82.6185	329.59	85.5119	329.59	81.1486	329.59	85.2266	329.59	79.2746	329.59	84.8067	329.59	76.8505	329.59	84.1979	329.59	73.6278	329.59	83.34	329.59	69.1387	329.59	82.1619	329.59	62.4397	329.59	80.5723	329.59	55.2282	329.59	78.4405	329.59	57.0225	329.59	75.5573	329.59	54.7472	329.59	71.5337	329.59	54.5714	329.59	65.4626
341.309	86.4162	341.309	86.4118	341.309	86.3107	341.309	86.3229	341.309	86.0726	341.309	86.1765	341.309	85.6806	341.309	85.9988	341.309	85.1132	341.309	85.8103	341.309	84.3458	341.309	85.619	341.309	83.3457	341.309	85.4166	341.309	82.0638	341.309	85.1768	341.309	80.4214	341.309	84.8586	341.309	78.2856	341.309	84.4116	341.309	75.4149	341.309	83.7793	341.309	71.2939	341.309	82.8985	341.309	64.3559	341.309	81.6937	341.309	43.6255	341.309	80.0639	341.309	61.8932	341.309	77.8624	341.309	65.4225	341.309	74.8665	341.309	65.6207	341.309	70.7748	341.309	64.2282	341.309	65.8676
353.027	86.3696	353.027	86.3431	353.027	86.2673	353.027	86.2181	353.027	86.0105	353.027	86.0276	353.027	85.5776	353.027	85.8039	353.027	84.9493	353.027	85.5723	353.027	84.1043	353.027	85.3447	353.027	83.0127	353.027	85.1126	353.027	81.6241	353.027	84.8426	353.027	79.8476	353.027	84.4778	353.027	77.5108	353.027	83.9432	353.027	74.2569	353.027	83.1518	353.027	69.1819	353.027	82.0046	353.027	59.1743	353.027	80.3839	353.027	63.1363	353.027	78.1352	353.027	69.0627	353.027	75.0598	353.027	71.508	353.027	71.1477	353.027	72.1955	353.027	68.3954	353.027	71.5215	353.027	69.6768
366.211	86.4875	366.211	86.5	366.211	86.3334	366.211	86.3964	366.211	86.0141	366.211	86.2041	366.211	85.5077	366.211	85.9514	366.211	84.7926	366.211	85.6641	366.211	83.8457	366.211	85.3595	366.211	82.636	366.211	85.0372	366.211	81.1121	366.211	84.6718	366.211	79.1742	366.211	84.2098	366.211	76.6203	366.211	83.5724	366.211	73.0334	366.211	82.6587	366.211	67.77	366.211	81.3407	366.211	65.2729	366.211	79.4419	366.211	70.0653	366.211	76.6804	366.211	73.3798	366.211	72.5915	366.211	75.0607	366.211	67.6122	366.211	75.5084	366.211	68.9621	366.211	74.7925	366.211	72.7078
379.395	86.8951	379.395	86.9248	379.395	86.7199	379.395	86.8402	379.395	86.3672	379.395	86.6702	379.395	85.8062	379.395	86.4403	379.395	85.006	379.395	86.1716	379.395	83.9323	379.395	85.8777	379.395	82.5377	379.395	85.5575	379.395	80.7413	379.395	85.1867	379.395	78.387	379.395	84.7119	379.395	75.1581	379.395	84.0518	379.395	70.5103	379.395	83.0981	379.395	66.4927	379.395	81.7087	379.395	70.3614	379.395	79.6782	379.395	74.2088	379.395	76.6607	379.395	76.4607	379.395	72.0663	379.395	77.5578	379.395	67.4543	379.395	77.6916	379.395	71.0218	379.395	76.8473	379.395	74.794
392.578	86.3914	392.578	86.4218	392.578	86.2008	392.578	86.314	392.578	85.8294	392.578	86.0933	392.578	85.2575	392.578	85.7892	392.578	84.465	392.578	85.4354	392.578	83.4302	392.578	85.0654	392.578	82.1243	392.578	84.702	392.578	80.4963	392.578	84.3432	392.578	78.445	392.578	83.9492	392.578	75.7883	392.578	83.439	392.578	72.403	392.578	82.6943	392.578	69.889	392.578	81.559	392.578	71.9342	392.578	79.8204	392.578	75.1628	392.578	77.1557	392.578	77.4081	392.578	73.144	392.578	78.6136	392.578	69.5891	392.578	78.8508	392.578	72.5902	392.578	78.078	392.578	76.0964
405.762	86.8658	405.762	86.8611	405.762	86.6752	405.762	86.6936	405.762	86.253	405.762	86.3923	405.762	85.558	405.762	85.9836	405.762	84.5452	405.762	85.4895	405.762	83.1664	405.762	84.9265	405.762	81.3752	405.762	84.3029	405.762	79.1375	405.762	83.617	405.762	76.4782	405.762	82.8548	405.762	73.7043	405.762	81.9827	405.762	72.0475	405.762	80.9319	405.762	72.9078	405.762	79.5754	405.762	75.1064	405.762	77.7086	405.762	77.1943	405.762	75.0863	405.762	78.7215	405.762	72.0357	405.762	79.5781	405.762	71.8072	405.762	79.7097	405.762	74.8281	405.762	79.0434	405.762	77.4579
420.41	86.5164	420.41	86.5574	420.41	86.306	420.41	86.4547	420.41	85.9012	420.41	86.2379	420.41	85.273	420.41	85.9411	420.41	84.3844	420.41	85.597	420.41	83.1852	420.41	85.2242	420.41	81.6057	420.41	84.813	420.41	79.5509	420.41	84.3184	420.41	76.9229	420.41	83.6641	420.41	73.8772	420.41	82.751	420.41	72.0387	420.41	81.4594	420.41	73.5093	420.41	79.6375	420.41	76.1115	420.41	77.084	420.41	78.2464	420.41	73.7077	420.41	79.718	420.41	71.2908	420.41	80.545	420.41	73.4536	420.41	80.723	420.41	76.6517	420.41	80.2051	420.41	78.8974
435.059	86.3672	435.059	86.4266	435.059	86.1015	435.059	86.3118	435.059	85.6027	435.059	86.0597	435.059	84.8479	435.059	85.7104	435.059	83.8169	435.059	85.3023	435.059	82.4918	435.059	84.864	435.059	80.8587	435.059	84.4033	435.059	78.9264	435.059	83.8983	435.059	76.8096	435.059	83.2936	435.059	74.9807	435.059	82.5037	435.059	74.434	435.059	81.4163	435.059	75.5105	435.059	79.8915	435.059	77.2592	435.059	77.7728	435.059	78.8978	435.059	75.0739	435.059	80.1375	435.059	73.1301	435.059	80.871	435.059	74.495	435.059	81.0273	435.059	77.1984	435.059	80.5299	435.059	79.284
451.172	86.6922	451.172	86.716	451.172	86.4341	451.172	86.534	451.172	85.9181	451.172	86.1832	451.172	85.1255	451.172	85.7104	451.172	84.0444	451.172	85.17	451.172	82.6746	451.172	84.6109	451.172	81.03	451.172	84.0547	451.172	79.1421	451.172	83.4717	451.172	77.1177	451.172	82.7726	451.172	75.4332	451.172	81.8179	451.172	75.274	451.172	80.4325	451.172	76.9883	451.172	78.418	451.172	79.2645	451.172	75.7023	451.172	81.2274	451.172	73.5443	451.172	82.6508	451.172	75.1014	451.172	83.503	451.172	78.2832	451.172	83.78	451.172	80.8153	451.172	83.4631	451.172	82.5043
465.82	86.954	465.82	86.9887	465.82	86.6871	465.82	86.8127	465.82	86.1681	465.82	86.4547	465.82	85.3747	465.82	85.9559	465.82	84.284	465.82	85.37	465.82	82.8843	465.82	84.7545	465.82	81.2013	465.82	84.1509	465.82	79.3511	465.82	83.5588	465.82	77.6218	465.82	82.9135	465.82	76.5008	465.82	82.0842	465.82	76.4255	465.82	80.8851	465.82	77.3764	465.82	79.083	465.82	78.9054	465.82	76.4267	465.82	80.5068	465.82	73.2482	465.82	81.8319	465.82	73.1446	465.82	82.6881	465.82	76.5461	465.82	82.9691	465.82	79.5242	465.82	82.5988	465.82	81.4926
483.398	87.0123	483.398	87.0605	483.398	86.6589	483.398	86.8346	483.398	85.9865	483.398	86.384	483.398	85.0039	483.398	85.7748	483.398	83.7566	483.398	85.0801	483.398	82.3479	483.398	84.3664	483.398	80.9401	483.398	83.6837	483.398	79.7028	483.398	83.0554	483.398	78.7296	483.398	82.4534	483.398	78.0577	483.398	81.7735	483.398	77.8167	483.398	80.8385	483.398	78.2402	483.398	79.4217	483.398	79.3429	483.398	77.3227	483.398	80.7706	483.398	74.9593	483.398	82.1076	483.398	75.0621	483.398	83.0831	483.398	77.9858	483.398	83.5419	483.398	80.6991	483.398	83.3741	483.398	82.4699
499.512	87.1905	499.512	87.1981	499.512	86.89	499.512	86.9575	499.512	86.2529	499.512	86.5144	499.512	85.2378	499.512	85.9114	499.512	83.8226	499.512	85.1803	499.512	82.0605	499.512	84.339	499.512	80.2189	499.512	83.3999	499.512	78.9082	499.512	82.3829	499.512	78.6326	499.512	81.3132	499.512	79.0886	499.512	80.1944	499.512	79.7315	499.512	78.9854	499.512	80.391	499.512	77.6428	499.512	81.1472	499.512	76.3253	499.512	82.047	499.512	75.782	499.512	82.9635	499.512	76.8969	499.512	83.6677	499.512	79.0686	499.512	83.9514	499.512	81.1822	499.512	83.6732	499.512	82.7548
517.09	87.5057	517.09	87.4777	517.09	87.2409	517.09	87.2018	517.09	86.6569	517.09	86.7387	517.09	85.7473	517.09	86.1524	517.09	84.5349	517.09	85.4897	517.09	83.0937	517.09	84.7721	517.09	81.5754	517.09	84.0009	517.09	80.2109	517.09	83.1595	517.09	79.2459	517.09	82.1992	517.09	78.8577	517.09	81.0253	517.09	79.1389	517.09	79.5034	517.09	80.049	517.09	77.5138	517.09	81.3476	517.09	75.3033	517.09	82.7111	517.09	74.715	517.09	83.886	517.09	77.1409	517.09	84.7113	517.09	80.1699	517.09	85.0772	517.09	82.5207	517.09	84.8928	517.09	84.0704
536.133	87.7374	536.133	87.6656	536.133	87.5064	536.133	87.3536	536.133	86.9126	536.133	86.8617	536.133	85.9028	536.133	86.2341	536.133	84.4531	536.133	85.4883	536.133	82.6413	536.133	84.6237	536.133	80.8135	536.133	83.6465	536.133	79.6668	536.133	82.584	536.133	79.5774	536.133	81.4724	536.133	80.0361	536.133	80.3305	536.133	80.5005	536.133	79.1615	536.133	80.9191	536.133	78.0003	536.133	81.5508	536.133	76.973	536.133	82.5446	536.133	76.3974	536.133	83.668	536.133	76.9118	536.133	84.5252	536.133	78.789	536.133	84.8188	536.133	81.1648	536.133	84.382	536.133	83.1456
555.176	87.82	555.176	87.836	555.176	87.5511	555.176	87.6433	555.176	86.9865	555.176	87.2809	555.176	86.0866	555.176	86.7666	555.176	84.8334	555.176	86.0902	555.176	83.2966	555.176	85.2299	555.176	81.7592	555.176	84.1813	555.176	80.7385	555.176	82.9818	555.176	80.4888	555.176	81.7219	555.176	80.6141	555.176	80.5186	555.176	80.6611	555.176	79.438	555.176	80.6053	555.176	78.4413	555.176	80.818	555.176	77.4991	555.176	81.6184	555.176	76.9341	555.176	82.7756	555.176	77.5467	555.176	83.7793	555.176	79.4131	555.176	84.2729	555.176	81.5255	555.176	84.0874	555.176	83.1615
574.219	87.8801	574.219	87.771	574.219	87.707	574.219	87.4443	574.219	87.2093	574.219	86.9734	574.219	86.3558	574.219	86.405	574.219	85.1176	574.219	85.7302	574.219	83.4976	574.219	84.8997	574.219	81.6623	574.219	83.8646	574.219	80.2024	574.219	82.6125	574.219	79.9028	574.219	81.1989	574.219	80.5561	574.219	79.7847	574.219	81.3183	574.219	78.6158	574.219	81.8156	574.219	77.83	574.219	82.1479	574.219	77.3133	574.219	82.587	574.219	77.0552	574.219	83.2401	574.219	77.604	574.219	83.8963	574.219	79.3031	574.219	84.2246	574.219	81.3755	574.219	83.9771	574.219	83.0259
594.727	87.8438	594.727	87.8394	594.727	87.6591	594.727	87.6654	594.727	87.2783	594.727	87.3407	594.727	86.6968	594.727	86.8666	594.727	85.887	594.727	86.2219	594.727	84.7923	594.727	85.3717	594.727	83.372	594.727	84.2786	594.727	81.7178	594.727	82.9073	594.727	80.2331	594.727	81.2416	594.727	79.5837	594.727	79.3956	594.727	79.9898	594.727	77.9209	594.727	81.0086	594.727	77.6946	594.727	82.2091	594.727	78.4701	594.727	83.3584	594.727	79.2071	594.727	84.2915	594.727	79.5975	594.727	84.8547	594.727	80.1776	594.727	84.9032	594.727	81.488	594.727	84.3224	594.727	83.0967
615.234	88.2106	615.234	88.2475	615.234	87.9481	615.234	88.0808	615.234	87.4839	615.234	87.7412	615.234	86.889	615.234	87.2304	615.234	86.232	615.234	86.5194	615.234	85.5258	615.234	85.5853	615.234	84.7486	615.234	84.456	615.234	83.9186	615.234	83.2096	615.234	83.0866	615.234	81.9136	615.234	82.2049	615.234	80.5941	615.234	81.0791	615.234	79.3814	615.234	79.6558	615.234	78.7121	615.234	78.7673	615.234	78.8723	615.234	79.8408	615.234	79.3339	615.234	81.9573	615.234	79.53	615.234	83.5616	615.234	79.7228	615.234	84.1706	615.234	80.7408	615.234	83.7372	615.234	82.4106
637.207	88.2321	637.207	88.3855	637.207	87.8271	637.207	88.2944	637.207	87.1896	637.207	87.9554	637.207	86.3909	637.207	87.3326	637.207	85.5487	637.207	86.3702	637.207	84.7795	637.207	85.0443	637.207	84.1517	637.207	83.4321	637.207	83.6893	637.207	81.7609	637.207	83.3748	637.207	80.3724	637.207	83.0969	637.207	79.5688	637.207	82.6675	637.207	79.4564	637.207	81.9985	637.207	79.9044	637.207	81.396	637.207	80.553	637.207	81.6573	637.207	80.9971	637.207	82.9296	637.207	81.1141	637.207	84.2395	637.207	81.3026	637.207	84.8558	637.207	82.1723	637.207	84.5783	637.207	83.5241
659.18	88.3733	659.18	88.5561	659.18	87.9482	659.18	88.4975	659.18	87.3595	659.18	88.2424	659.18	86.7335	659.18	87.813	659.18	86.139	659.18	87.1677	659.18	85.5202	659.18	86.231	659.18	84.7854	659.18	84.9487	659.18	83.9493	659.18	83.2725	659.18	83.153	659.18	81.0907	659.18	82.5207	659.18	78.3689	659.18	82.0361	659.18	76.44	659.18	81.6712	659.18	77.8341	659.18	81.6352	659.18	80.1527	659.18	82.2441	659.18	81.3271	659.18	83.3201	659.18	81.08	659.18	84.2221	659.18	79.812	659.18	84.3956	659.18	79.5358	659.18	83.5135	659.18	81.5369
682.617	88.1843	682.617	88.1186	682.617	87.8876	682.617	87.8078	682.617	87.1908	682.617	87.3283	682.617	86.2377	682.617	86.6548	682.617	85.3465	682.617	85.7255	682.617	84.7345	682.617	84.5564	682.617	84.2681	682.617	83.2746	682.617	83.7255	682.617	82.0208	682.617	83.0895	682.617	80.7692	682.617	82.3872	682.617	79.2776	682.617	81.3763	682.617	77.5246	682.617	79.6939	682.617	76.9518	682.617	77.8905	682.617	78.8793	682.617	78.7033	682.617	81.0994	682.617	81.3567	682.617	82.1681	682.617	83.1112	682.617	81.8703	682.617	83.3799	682.617	80.7358	682.617	82.2662	682.617	80.6939
707.52	87.8131	707.52	87.9677	707.52	87.4823	707.52	87.9438	707.52	86.9486	707.52	87.6955	707.52	86.2102	707.52	87.1548	707.52	85.3633	707.52	86.2705	707.52	84.5998	707.52	85.0464	707.52	84.0354	707.52	83.5676	707.52	83.5801	707.52	82.0092	707.52	83.0875	707.52	80.5973	707.52	82.4831	707.52	79.4543	707.52	81.635	707.52	78.5234	707.52	80.2538	707.52	78.106	707.52	78.3694	707.52	79.0075	707.52	77.9463	707.52	80.6418	707.52	80.2376	707.52	81.6797	707.52	82.3998	707.52	81.737	707.52	83.2565	707.52	81.4196	707.52	82.8706	707.52	81.8637
732.422	88.9351	732.422	88.8387	732.422	88.6529	732.422	88.4965	732.422	87.9196	732.422	87.9726	732.422	86.8607	732.422	87.1966	732.422	85.8816	732.422	86.0326	732.422	85.3833	732.422	84.4419	732.422	85.2333	732.422	82.6704	732.422	84.9645	732.422	81.3277	732.422	84.2564	732.422	80.8959	732.422	82.9501	732.422	81.0143	732.422	80.8104	732.422	80.9744	732.422	77.2368	732.422	80.6296	732.422	72.3488	732.422	80.6951	732.422	75.8188	732.422	81.5789	732.422	80.6769	732.422	82.2841	732.422	83.0255	732.422	81.8522	732.422	83.3301	732.422	80.2808	732.422	81.8706	732.422	79.844
757.324	88.8872	757.324	88.6447	757.324	88.7696	757.324	88.101	757.324	88.1857	757.324	87.207	757.324	87.0815	757.324	85.7957	757.324	85.6366	757.324	83.7015	757.324	84.4475	757.324	81.08	757.324	84.0556	757.324	78.5775	757.324	84.0847	757.324	76.4408	757.324	83.8902	757.324	75.2425	757.324	83.2669	757.324	76.7813	757.324	82.1166	757.324	78.9613	757.324	79.8	757.324	80.2044	757.324	74.0447	757.324	80.7011	757.324	65.1371	757.324	80.9437	757.324	77.8621	757.324	81.1043	757.324	81.6341	757.324	80.8872	757.324	82.3295	757.324	80.1348	757.324	81.2085	757.324	79.895
785.156	87.701	785.156	87.2472	785.156	87.9813	785.156	86.6324	785.156	88.0035	785.156	85.7754	785.156	87.6786	785.156	84.6479	785.156	86.9553	785.156	83.5349	785.156	85.8632	785.156	82.8432	785.156	84.5833	785.156	82.2166	785.156	83.4669	785.156	80.7294	785.156	82.7389	785.156	77.7132	785.156	82.1996	785.156	73.932	785.156	81.44	785.156	75.2854	785.156	79.9102	785.156	78.955	785.156	76.4307	785.156	81.2214	785.156	66.7543	785.156	82.0124	785.156	72.624	785.156	81.4412	785.156	78.8713	785.156	79.7529	785.156	80.7278	785.156	78.0514	785.156	80.2102	785.156	78.5169
811.523	88.2728	811.523	87.9854	811.523	88.2191	811.523	87.3944	811.523	87.8444	811.523	86.5465	811.523	87.2513	811.523	85.5936	811.523	86.543	811.523	84.8639	811.523	85.7264	811.523	84.3092	811.523	84.7644	811.523	83.1691	811.523	83.7431	811.523	80.7052	811.523	82.9103	811.523	76.7682	811.523	82.3816	811.523	73.3001	811.523	81.7753	811.523	74.2386	811.523	80.2412	811.523	77.1766	811.523	76.3614	811.523	80.0447	811.523	65.3026	811.523	82.0186	811.523	72.222	811.523	82.58	811.523	77.6734	811.523	81.4291	811.523	78.749	811.523	78.4046	811.523	77.1757	811.523	75.4653
840.82	87.9482	840.82	87.2701	840.82	88.2615	840.82	86.4444	840.82	88.0924	840.82	85.6948	840.82	87.4657	840.82	85.2182	840.82	86.5532	840.82	85.0845	840.82	85.6169	840.82	84.9353	840.82	84.781	840.82	84.1553	840.82	83.8642	840.82	82.3613	840.82	82.696	840.82	79.4839	840.82	81.6278	840.82	75.8537	840.82	81.1036	840.82	73.3657	840.82	80.445	840.82	73.9456	840.82	78.2688	840.82	76.0395	840.82	71.684	840.82	78.091	840.82	66.2294	840.82	79.1179	840.82	77.2669	840.82	78.73	840.82	80.0835	840.82	77.4998	840.82	79.7772	840.82	77.9364
870.117	87.9537	870.117	87.2439	870.117	88.258	870.117	86.2371	870.117	88.1743	870.117	85.1364	870.117	87.8609	870.117	84.3636	870.117	87.4401	870.117	84.2861	870.117	86.8246	870.117	84.4644	870.117	85.7924	870.117	84.0496	870.117	84.2078	870.117	82.5499	870.117	82.2066	870.117	79.6934	870.117	80.4333	870.117	75.1233	870.117	79.9241	870.117	71.06	870.117	80.3221	870.117	73.5242	870.117	80.0398	870.117	76.8543	870.117	78.0376	870.117	79.2329	870.117	75.4444	870.117	80.0315	870.117	77.8381	870.117	78.4144	870.117	80.3426	870.117	74.2322	870.117	79.9591	870.117	76.281
900.879	87.9491	900.879	86.6408	900.879	88.6342	900.879	85.0354	900.879	88.5832	900.879	83.7355	900.879	87.9027	900.879	83.4757	900.879	86.8777	900.879	84.1177	900.879	85.8548	900.879	84.6376	900.879	84.9831	900.879	84.3087	900.879	83.9314	900.879	82.9402	900.879	81.9725	900.879	80.4027	900.879	78.617	900.879	76.587	900.879	76.1047	900.879	73.2085	900.879	77.0407	900.879	72.2951	900.879	76.9685	900.879	73.516	900.879	74.0268	900.879	77.3364	900.879	75.0613	900.879	79.9991	900.879	79.6025	900.879	80.2404	900.879	80.796	900.879	77.7718	900.879	78.675	900.879	75.1051
933.105	87.7322	933.105	85.8895	933.105	88.9067	933.105	83.8445	933.105	89.2588	933.105	82.1112	933.105	88.891	933.105	80.8573	933.105	88.0359	933.105	80.5859	933.105	86.9245	933.105	81.79	933.105	85.7667	933.105	83.2672	933.105	84.7152	933.105	83.8143	933.105	83.515	933.105	82.9388	933.105	81.4582	933.105	80.6038	933.105	78.1529	933.105	77.3115	933.105	75.788	933.105	73.7887	933.105	76.7042	933.105	67.8547	933.105	76.9942	933.105	67.0952	933.105	77.1492	933.105	75.0013	933.105	79.3697	933.105	77.1757	933.105	80.7404	933.105	76.6375	933.105	79.8238	933.105	77.3184
965.332	87.1979	965.332	85.7347	965.332	88.496	965.332	84.9907	965.332	88.8368	965.332	84.4302	965.332	88.1425	965.332	83.3414	965.332	86.9254	965.332	81.9162	965.332	85.9897	965.332	81.0134	965.332	85.3614	965.332	81.364	965.332	84.2349	965.332	82.1635	965.332	82.2633	965.332	82.3665	965.332	79.8877	965.332	81.2233	965.332	77.1505	965.332	78.6073	965.332	72.9065	965.332	75.6802	965.332	71.5514	965.332	72.7353	965.332	75.9131	965.332	68.088	965.332	78.654	965.332	71.185	965.332	80.1362	965.332	73.8158	965.332	80.3516	965.332	71.8045	965.332	78.4631	965.332	73.5724
1,000.49	86.7538	1,000.49	85.9644	1,000.49	87.8774	1,000.49	85.4918	1,000.49	88.5722	1,000.49	84.597	1,000.49	88.3824	1,000.49	83.3002	1,000.49	87.2862	1,000.49	82.06	1,000.49	85.6362	1,000.49	80.6629	1,000.49	84.1035	1,000.49	79.5078	1,000.49	82.9413	1,000.49	79.4339	1,000.49	81.5036	1,000.49	79.6828	1,000.49	79.3682	1,000.49	79.5432	1,000.49	77.2347	1,000.49	78.9604	1,000.49	76.1414	1,000.49	78.253	1,000.49	74.8564	1,000.49	77.0647	1,000.49	72.2472	1,000.49	73.5682	1,000.49	73.8235	1,000.49	69.3068	1,000.49	78.1437	1,000.49	72.7236	1,000.49	79.8549	1,000.49	73.4046	1,000.49	78.6541	1,000.49	75.0213
1,035.64	86.7862	1,035.64	85.871	1,035.64	88.0915	1,035.64	85.2055	1,035.64	88.927	1,035.64	84.5605	1,035.64	88.7843	1,035.64	84.4273	1,035.64	87.7441	1,035.64	83.684	1,035.64	86.2061	1,035.64	80.9654	1,035.64	84.6227	1,035.64	76.4899	1,035.64	82.95	1,035.64	73.8009	1,035.64	80.6449	1,035.64	76.0308	1,035.64	78.3336	1,035.64	78.9867	1,035.64	77.9015	1,035.64	80.531	1,035.64	78.3192	1,035.64	80.6734	1,035.64	77.4938	1,035.64	79.5808	1,035.64	76.576	1,035.64	76.643	1,035.64	78.5669	1,035.64	69.4469	1,035.64	80.5377	1,035.64	66.585	1,035.64	80.6849	1,035.64	72.0191	1,035.64	78.6537	1,035.64	74.9466
1,072.27	86.9532	1,072.27	86.3396	1,072.27	87.6471	1,072.27	85.8792	1,072.27	88.3412	1,072.27	85.876	1,072.27	88.7723	1,072.27	85.8943	1,072.27	88.5829	1,072.27	84.9235	1,072.27	87.4124	1,072.27	82.8567	1,072.27	85.1219	1,072.27	80.6402	1,072.27	82.2808	1,072.27	78.9489	1,072.27	80.0564	1,072.27	77.9205	1,072.27	78.0766	1,072.27	78.0583	1,072.27	76.1846	1,072.27	79.0938	1,072.27	77.2346	1,072.27	79.6139	1,072.27	78.5335	1,072.27	78.6263	1,072.27	77.1566	1,072.27	75.6136	1,072.27	75.8352	1,072.27	72.3719	1,072.27	79.2642	1,072.27	73.8118	1,072.27	81.2175	1,072.27	74.4894	1,072.27	79.8625	1,072.27	75.994
1,108.89	86.6877	1,108.89	86.2546	1,108.89	87.8248	1,108.89	86.1559	1,108.89	89.1101	1,108.89	86.3013	1,108.89	89.7251	1,108.89	86.249	1,108.89	89.3983	1,108.89	85.1468	1,108.89	88.112	1,108.89	83.2534	1,108.89	86.0029	1,108.89	82.0357	1,108.89	83.6427	1,108.89	81.4698	1,108.89	81.4336	1,108.89	79.7873	1,108.89	78.5734	1,108.89	76.9845	1,108.89	74.6811	1,108.89	76.9066	1,108.89	76.1916	1,108.89	77.9656	1,108.89	78.0819	1,108.89	77.2363	1,108.89	77.6755	1,108.89	75.5977	1,108.89	78.8008	1,108.89	74.2939	1,108.89	81.2154	1,108.89	75.46	1,108.89	81.4715	1,108.89	76.4818	1,108.89	78.3155	1,108.89	74.8296
1,148.44	86.7199	1,148.44	86.2266	1,148.44	87.5755	1,148.44	85.9695	1,148.44	88.7201	1,148.44	86.2362	1,148.44	89.7084	1,148.44	86.4532	1,148.44	89.9063	1,148.44	85.3866	1,148.44	88.853	1,148.44	83.4844	1,148.44	86.5585	1,148.44	82.1386	1,148.44	83.8004	1,148.44	81.5495	1,148.44	81.6264	1,148.44	81.1365	1,148.44	78.9568	1,148.44	79.4201	1,148.44	75.2194	1,148.44	77.5013	1,148.44	76.9778	1,148.44	79.1301	1,148.44	79.7875	1,148.44	80.4831	1,148.44	79.366	1,148.44	78.7651	1,148.44	77.3302	1,148.44	72.8887	1,148.44	80.296	1,148.44	69.636	1,148.44	81.6059	1,148.44	75.1623	1,148.44	79.2331	1,148.44	76.6471
1,189.45	87.6629	1,189.45	87.1767	1,189.45	87.9577	1,189.45	86.5763	1,189.45	88.9293	1,189.45	86.7896	1,189.45	89.9432	1,189.45	86.5029	1,189.45	90.152	1,189.45	85.3116	1,189.45	89.2592	1,189.45	85.0928	1,189.45	87.1875	1,189.45	84.4897	1,189.45	84.5658	1,189.45	82.0244	1,189.45	82.7513	1,189.45	79.0893	1,189.45	81.1525	1,189.45	77.9388	1,189.45	77.4709	1,189.45	77.9585	1,189.45	74.2515	1,189.45	77.1519	1,189.45	76.9778	1,189.45	75.6236	1,189.45	78.3453	1,189.45	74.4323	1,189.45	79.3694	1,189.45	72.3037	1,189.45	80.9421	1,189.45	75.7621	1,189.45	80.473	1,189.45	78.2813	1,189.45	76.156	1,189.45	75.6683
1,230.47	88.5163	1,230.47	87.3899	1,230.47	89.1766	1,230.47	86.5366	1,230.47	89.6963	1,230.47	86.536	1,230.47	90.1157	1,230.47	86.1565	1,230.47	90.1767	1,230.47	85.5683	1,230.47	89.5161	1,230.47	85.3241	1,230.47	87.7881	1,230.47	84.0275	1,230.47	85.0885	1,230.47	81.2597	1,230.47	82.8192	1,230.47	78.9002	1,230.47	81.8841	1,230.47	79.0284	1,230.47	80.2614	1,230.47	80.4186	1,230.47	77.8674	1,230.47	81.3751	1,230.47	79.2872	1,230.47	81.2317	1,230.47	80.1313	1,230.47	79.2542	1,230.47	78.2732	1,230.47	75.9094	1,230.47	79.0758	1,230.47	75.7885	1,230.47	79.7028	1,230.47	77.4266	1,230.47	76.3338	1,230.47	76.209
1,274.41	89.1013	1,274.41	87.886	1,274.41	89.8888	1,274.41	87.8343	1,274.41	90.023	1,274.41	88.1918	1,274.41	90.1528	1,274.41	87.3294	1,274.41	90.1573	1,274.41	86.0437	1,274.41	89.3707	1,274.41	85.4607	1,274.41	87.7724	1,274.41	84.5866	1,274.41	85.7999	1,274.41	83.1873	1,274.41	83.6406	1,274.41	81.7839	1,274.41	81.6796	1,274.41	80.0225	1,274.41	79.8543	1,274.41	78.0604	1,274.41	78.4492	1,274.41	77.9193	1,274.41	78.9737	1,274.41	79.3806	1,274.41	78.3877	1,274.41	78.543	1,274.41	77.3205	1,274.41	72.8512	1,274.41	79.9824	1,274.41	75.0287	1,274.41	79.4536	1,274.41	77.7922	1,274.41	73.9363	1,274.41	75.1845
1,319.82	89.5915	1,319.82	88.9998	1,319.82	90.7	1,319.82	89.2408	1,319.82	90.9568	1,319.82	88.7906	1,319.82	90.5507	1,319.82	87.4925	1,319.82	90.1814	1,319.82	87.0882	1,319.82	89.1997	1,319.82	86.4243	1,319.82	87.0312	1,319.82	83.9293	1,319.82	84.8264	1,319.82	81.0517	1,319.82	83.6367	1,319.82	79.6761	1,319.82	82.5879	1,319.82	79.4676	1,319.82	81.3563	1,319.82	79.6036	1,319.82	78.2977	1,319.82	77.8241	1,319.82	77.2224	1,319.82	77.8387	1,319.82	80.5233	1,319.82	78.8692	1,319.82	80.075	1,319.82	75.0113	1,319.82	79.7988	1,319.82	76.1713	1,319.82	79.153	1,319.82	78.7015	1,319.82	76.0049	1,319.82	77.5744
1,366.7	90.472	1,366.7	89.7674	1,366.7	91.4503	1,366.7	90.0228	1,366.7	91.7035	1,366.7	89.4235	1,366.7	90.9114	1,366.7	87.7724	1,366.7	90.1212	1,366.7	87.6236	1,366.7	89.6759	1,366.7	86.6858	1,366.7	87.8494	1,366.7	84.2924	1,366.7	85.0859	1,366.7	83.8882	1,366.7	84.5731	1,366.7	83.3004	1,366.7	84.6577	1,366.7	80.3812	1,366.7	82.6739	1,366.7	77.396	1,366.7	78.5545	1,366.7	76.9604	1,366.7	76.8256	1,366.7	79.7792	1,366.7	79.4965	1,366.7	80.9836	1,366.7	77.8997	1,366.7	76.2574	1,366.7	78.9919	1,366.7	77.9806	1,366.7	79.8747	1,366.7	81.6383	1,366.7	74.987	1,366.7	77.7662
1,413.57	89.8822	1,413.57	90.0084	1,413.57	90.9945	1,413.57	90.2216	1,413.57	92.1995	1,413.57	89.1395	1,413.57	91.9673	1,413.57	88.0306	1,413.57	90.8914	1,413.57	88.5138	1,413.57	89.8862	1,413.57	86.4587	1,413.57	88.0632	1,413.57	84.1849	1,413.57	84.4666	1,413.57	85.8762	1,413.57	81.8517	1,413.57	87.083	1,413.57	83.6379	1,413.57	84.352	1,413.57	84.1546	1,413.57	79.482	1,413.57	81.6463	1,413.57	78.7396	1,413.57	75.9522	1,413.57	70.406	1,413.57	71.5483	1,413.57	79.1296	1,413.57	76.0412	1,413.57	80.5706	1,413.57	80.1855	1,413.57	69.8192	1,413.57	80.5011	1,413.57	80.6747	1,413.57	74.6866	1,413.57	79.1263
1,463.38	89.4928	1,463.38	89.5088	1,463.38	90.6435	1,463.38	89.6073	1,463.38	91.8634	1,463.38	87.9147	1,463.38	92.2308	1,463.38	88.1428	1,463.38	91.3426	1,463.38	87.9852	1,463.38	89.4223	1,463.38	85.8493	1,463.38	87.5345	1,463.38	86.2359	1,463.38	86.4463	1,463.38	83.8529	1,463.38	84.5045	1,463.38	80.9702	1,463.38	80.9794	1,463.38	82.2907	1,463.38	81.8441	1,463.38	82.2999	1,463.38	81.5841	1,463.38	80.9557	1,463.38	78.6369	1,463.38	79.5762	1,463.38	80.351	1,463.38	73.9328	1,463.38	78.7044	1,463.38	81.054	1,463.38	80.5213	1,463.38	78.0286	1,463.38	83.4632	1,463.38	79.4854	1,463.38	76.7543	1,463.38	81.2533
1,516.11	89.0038	1,516.11	89.4525	1,516.11	89.6028	1,516.11	89.178	1,516.11	91.1868	1,516.11	88.2063	1,516.11	92.0902	1,516.11	88.9467	1,516.11	91.3133	1,516.11	87.7591	1,516.11	89.0512	1,516.11	85.8782	1,516.11	86.57	1,516.11	86.1041	1,516.11	86.0349	1,516.11	84.0944	1,516.11	84.707	1,516.11	81.8287	1,516.11	80.4912	1,516.11	81.6816	1,516.11	81.9481	1,516.11	80.6597	1,516.11	82.4124	1,516.11	81.3453	1,516.11	79.6366	1,516.11	80.0836	1,516.11	81.2667	1,516.11	75.0284	1,516.11	78.5708	1,516.11	79.0734	1,516.11	79.2873	1,516.11	77.5022	1,516.11	78.6662	1,516.11	76.3481	1,516.11	73.4949	1,516.11	76.1365
1,568.85	88.4614	1,568.85	89.5607	1,568.85	88.5548	1,568.85	87.7798	1,568.85	90.0404	1,568.85	87.1993	1,568.85	90.4847	1,568.85	88.6488	1,568.85	90.0807	1,568.85	86.4451	1,568.85	89.4346	1,568.85	87.3176	1,568.85	87.9692	1,568.85	86.2241	1,568.85	85.8872	1,568.85	82.9498	1,568.85	84.7789	1,568.85	83.8505	1,568.85	83.15	1,568.85	82.0638	1,568.85	81.3508	1,568.85	76.6696	1,568.85	80.0585	1,568.85	76.7066	1,568.85	75.5505	1,568.85	81.8074	1,568.85	78.0047	1,568.85	78.5996	1,568.85	79.8522	1,568.85	78.2505	1,568.85	79.6495	1,568.85	79.3196	1,568.85	80.7394	1,568.85	73.6989	1,568.85	74.9171	1,568.85	78.1672
1,624.51	88.38	1,624.51	88.5663	1,624.51	87.2767	1,624.51	87.4339	1,624.51	88.9116	1,624.51	87.7644	1,624.51	90.0831	1,624.51	86.5378	1,624.51	89.4225	1,624.51	85.6422	1,624.51	89.1205	1,624.51	88.3953	1,624.51	87.8062	1,624.51	87.2128	1,624.51	85.4357	1,624.51	85.9197	1,624.51	83.5459	1,624.51	84.214	1,624.51	79.8674	1,624.51	82.7841	1,624.51	79.0251	1,624.51	82.4463	1,624.51	80.8099	1,624.51	75.3883	1,624.51	75.6791	1,624.51	77.7133	1,624.51	78.9744	1,624.51	76.544	1,624.51	81.1627	1,624.51	77.0412	1,624.51	77.9662	1,624.51	78.6417	1,624.51	77.3858	1,624.51	72.3521	1,624.51	74.2296	1,624.51	75.3861
1,681.64	88.9789	1,681.64	88.8849	1,681.64	88.1161	1,681.64	88.0041	1,681.64	87.8477	1,681.64	87.5706	1,681.64	89.8694	1,681.64	86.2029	1,681.64	89.8064	1,681.64	87.2715	1,681.64	88.7613	1,681.64	88.0955	1,681.64	86.2159	1,681.64	85.2494	1,681.64	83.0645	1,681.64	84.4229	1,681.64	83.4345	1,681.64	84.0384	1,681.64	77.9298	1,681.64	82.0751	1,681.64	79.0556	1,681.64	77.438	1,681.64	80.9555	1,681.64	76.2005	1,681.64	75.0071	1,681.64	70.3038	1,681.64	81.5419	1,681.64	81.4926	1,681.64	80.9096	1,681.64	76.9764	1,681.64	78.8549	1,681.64	74.2742	1,681.64	79.0895	1,681.64	72.4784	1,681.64	73.2791	1,681.64	79.7782
1,741.7	87.6397	1,741.7	88.2771	1,741.7	87.1385	1,741.7	86.6731	1,741.7	87.2674	1,741.7	86.2921	1,741.7	87.5253	1,741.7	84.6555	1,741.7	87.6266	1,741.7	86.5781	1,741.7	86.218	1,741.7	84.2695	1,741.7	86.2686	1,741.7	82.6236	1,741.7	84.0792	1,741.7	83.4292	1,741.7	79.1109	1,741.7	78.3991	1,741.7	80.602	1,741.7	79.7374	1,741.7	73.9337	1,741.7	80.7726	1,741.7	76.513	1,741.7	74.6329	1,741.7	76.3449	1,741.7	76.4454	1,741.7	78.1257	1,741.7	70.5732	1,741.7	77.761	1,741.7	74.9534	1,741.7	75.1253	1,741.7	69.9377	1,741.7	75.2746	1,741.7	69.8672	1,741.7	73.601	1,741.7	73.7855
1,803.22	86.6441	1,803.22	86.6328	1,803.22	85.8981	1,803.22	85.1881	1,803.22	85.7151	1,803.22	84.8036	1,803.22	86.231	1,803.22	84.7467	1,803.22	86.4092	1,803.22	85.3821	1,803.22	85.7257	1,803.22	81.8407	1,803.22	84.4842	1,803.22	83.5105	1,803.22	81.5967	1,803.22	82.53	1,803.22	77.9823	1,803.22	79.1532	1,803.22	75.1981	1,803.22	78.0928	1,803.22	74.399	1,803.22	76.9258	1,803.22	77.1845	1,803.22	78.2923	1,803.22	76.3277	1,803.22	71.0105	1,803.22	76.1632	1,803.22	74.5215	1,803.22	75.3878	1,803.22	70.636	1,803.22	72.3187	1,803.22	73.9551	1,803.22	75.2849	1,803.22	69.938	1,803.22	71.784	1,803.22	76.0424
1,866.21	85.3934	1,866.21	85.1558	1,866.21	83.2905	1,866.21	83.9047	1,866.21	84.682	1,866.21	84.193	1,866.21	85.6308	1,866.21	86.0367	1,866.21	85.515	1,866.21	85.51	1,866.21	84.2695	1,866.21	83.0946	1,866.21	83.6352	1,866.21	84.1854	1,866.21	83.0431	1,866.21	80.3057	1,866.21	79.7839	1,866.21	78.3451	1,866.21	78.4131	1,866.21	78.2267	1,866.21	75.2023	1,866.21	72.6981	1,866.21	72.2461	1,866.21	75.5214	1,866.21	71.9967	1,866.21	77.191	1,866.21	74.0951	1,866.21	71.0883	1,866.21	76.8066	1,866.21	73.2435	1,866.21	76.1108	1,866.21	75.0988	1,866.21	74.8762	1,866.21	70.2527	1,866.21	73.7307	1,866.21	76.481
1,932.13	85.4495	1,932.13	84.5556	1,932.13	84.9415	1,932.13	84.6154	1,932.13	84.9854	1,932.13	84.7369	1,932.13	85.8055	1,932.13	86.6863	1,932.13	86.2883	1,932.13	83.8488	1,932.13	84.9389	1,932.13	85.4926	1,932.13	84.7433	1,932.13	84.8174	1,932.13	84.2619	1,932.13	80.9002	1,932.13	80.0102	1,932.13	80.2866	1,932.13	78.1208	1,932.13	76.6977	1,932.13	67.0184	1,932.13	74.8882	1,932.13	67.88	1,932.13	68.0936	1,932.13	72.4227	1,932.13	74.8431	1,932.13	75.2122	1,932.13	79.1116	1,932.13	78.1349	1,932.13	77.388	1,932.13	73.1093	1,932.13	69.8717	1,932.13	74.9106	1,932.13	69.7384	1,932.13	73.6523	1,932.13	72.672
1,999.51	87.0631	1,999.51	85.2883	1,999.51	85.87	1,999.51	85.4636	1,999.51	85.6152	1,999.51	86.0901	1,999.51	87.5389	1,999.51	86.2707	1,999.51	88.2176	1,999.51	86.6698	1,999.51	87.6514	1,999.51	85.3475	1,999.51	85.7892	1,999.51	83.853	1,999.51	83.2607	1,999.51	82.1961	1,999.51	81.1394	1,999.51	81.6202	1,999.51	79.3676	1,999.51	77.825	1,999.51	76.3152	1,999.51	75.4472	1,999.51	75.4164	1,999.51	74.1442	1,999.51	68.1842	1,999.51	75.163	1,999.51	73.5337	1,999.51	77.4086	1,999.51	79.1577	1,999.51	74.0884	1,999.51	77.9315	1,999.51	74.5139	1,999.51	76.2603	1,999.51	69.0147	1,999.51	71.3789	1,999.51	73.852
2,069.82	87.7123	2,069.82	85.3758	2,069.82	87.3524	2,069.82	86.2053	2,069.82	85.8995	2,069.82	85.5494	2,069.82	87.6333	2,069.82	87.5456	2,069.82	88.5624	2,069.82	86.1659	2,069.82	88.8637	2,069.82	84.3996	2,069.82	87.2292	2,069.82	82.5644	2,069.82	83.0564	2,069.82	82.2877	2,069.82	81.639	2,069.82	80.3861	2,069.82	80.3062	2,069.82	78.9586	2,069.82	74.5041	2,069.82	74.8104	2,069.82	74.0593	2,069.82	76.248	2,069.82	74.9757	2,069.82	71.6777	2,069.82	73.1176	2,069.82	77.75	2,069.82	78.132	2,069.82	74.5924	2,069.82	76.6866	2,069.82	74.4024	2,069.82	75.272	2,069.82	69.1867	2,069.82	71.1474	2,069.82	72.8182
2,143.07	86.964	2,143.07	85.9648	2,143.07	88.244	2,143.07	85.4333	2,143.07	86.5033	2,143.07	87.0638	2,143.07	87.295	2,143.07	87.4533	2,143.07	88.552	2,143.07	86.4052	2,143.07	88.9994	2,143.07	85.2318	2,143.07	88.351	2,143.07	85.9829	2,143.07	83.9353	2,143.07	84.0635	2,143.07	79.2613	2,143.07	78.6575	2,143.07	79.8506	2,143.07	79.9852	2,143.07	73.9399	2,143.07	78.3784	2,143.07	73.3603	2,143.07	74.1732	2,143.07	74.971	2,143.07	75.4831	2,143.07	69.4423	2,143.07	74.1814	2,143.07	76.5377	2,143.07	75.8781	2,143.07	75.3377	2,143.07	73.7688	2,143.07	75.3842	2,143.07	72.8453	2,143.07	74.7816	2,143.07	73.3902
2,219.24	86.443	2,219.24	85.4744	2,219.24	87.6115	2,219.24	86.6549	2,219.24	87.2492	2,219.24	87.8238	2,219.24	87.3919	2,219.24	86.6797	2,219.24	88.3019	2,219.24	86.5294	2,219.24	89.2445	2,219.24	87.7196	2,219.24	88.0102	2,219.24	84.8933	2,219.24	84.7926	2,219.24	84.999	2,219.24	80.483	2,219.24	84.1738	2,219.24	80.3328	2,219.24	78.0158	2,219.24	77.0616	2,219.24	77.7896	2,219.24	68.5325	2,219.24	74.5875	2,219.24	76.0958	2,219.24	76.527	2,219.24	72.8803	2,219.24	73.5803	2,219.24	77.3525	2,219.24	73.809	2,219.24	74.5202	2,219.24	74.5139	2,219.24	74.8551	2,219.24	72.4468	2,219.24	74.937	2,219.24	72.6332
2,296.88	85.1725	2,296.88	84.7515	2,296.88	86.7038	2,296.88	86.9444	2,296.88	88.312	2,296.88	87.9109	2,296.88	88.9414	2,296.88	87.4099	2,296.88	89.0639	2,296.88	87.8945	2,296.88	88.6419	2,296.88	86.6917	2,296.88	88.5079	2,296.88	86.3017	2,296.88	85.4806	2,296.88	82.8006	2,296.88	80.3038	2,296.88	82.0825	2,296.88	77.2572	2,296.88	78.6208	2,296.88	76.2337	2,296.88	75.2113	2,296.88	66.3512	2,296.88	74.2486	2,296.88	74.9469	2,296.88	75.6769	2,296.88	73.4289	2,296.88	76.0098	2,296.88	75.6411	2,296.88	73.7239	2,296.88	76.0667	2,296.88	71.4377	2,296.88	76.7685	2,296.88	72.7361	2,296.88	75.0691	2,296.88	73.9609
2,378.91	85.8613	2,378.91	85.4063	2,378.91	86.5174	2,378.91	86.3968	2,378.91	86.8212	2,378.91	86.2135	2,378.91	89.1535	2,378.91	88.1306	2,378.91	90.245	2,378.91	88.0915	2,378.91	88.4383	2,378.91	87.2536	2,378.91	87.8675	2,378.91	85.9811	2,378.91	84.5906	2,378.91	84.9842	2,378.91	80.734	2,378.91	82.5184	2,378.91	75.8891	2,378.91	80.2119	2,378.91	68.4409	2,378.91	76.2044	2,378.91	60.5395	2,378.91	76.4208	2,378.91	68.4132	2,378.91	73.9226	2,378.91	75.8714	2,378.91	77.1974	2,378.91	76.5462	2,378.91	75.6409	2,378.91	76.8704	2,378.91	70.9327	2,378.91	76.4231	2,378.91	72.6492	2,378.91	73.679	2,378.91	70.5216
2,462.4	87.4702	2,462.4	87.3863	2,462.4	88.0214	2,462.4	86.3625	2,462.4	87.2823	2,462.4	87.0653	2,462.4	87.1684	2,462.4	87.5814	2,462.4	89.9088	2,462.4	88.2277	2,462.4	89.1733	2,462.4	87.3386	2,462.4	86.3831	2,462.4	87.2667	2,462.4	85.005	2,462.4	84.8627	2,462.4	82.4593	2,462.4	81.6108	2,462.4	80.1037	2,462.4	80.7305	2,462.4	73.524	2,462.4	77.9285	2,462.4	66.2738	2,462.4	75.1968	2,462.4	70.0093	2,462.4	75.4748	2,462.4	74.2081	2,462.4	77.0525	2,462.4	77.9611	2,462.4	76.3607	2,462.4	75.4282	2,462.4	74.6466	2,462.4	74.3602	2,462.4	68.7927	2,462.4	73.7957	2,462.4	70.477
2,548.83	87.7644	2,548.83	87.6052	2,548.83	89.565	2,548.83	86.6499	2,548.83	88.7195	2,548.83	87.5189	2,548.83	86.3666	2,548.83	87.8499	2,548.83	88.1441	2,548.83	88.4925	2,548.83	88.926	2,548.83	87.4877	2,548.83	85.7802	2,548.83	85.4065	2,548.83	83.7687	2,548.83	84.3696	2,548.83	81.9422	2,548.83	83.4396	2,548.83	75.9457	2,548.83	79.0909	2,548.83	71.3555	2,548.83	74.7435	2,548.83	72.9275	2,548.83	75.5185	2,548.83	70.0735	2,548.83	72.2782	2,548.83	73.572	2,548.83	76.1541	2,548.83	77.5145	2,548.83	75.2344	2,548.83	73.5211	2,548.83	74.4452	2,548.83	73.6885	2,548.83	70.044	2,548.83	74.6964	2,548.83	72.803
2,639.65	86.6665	2,639.65	86.236	2,639.65	88.8551	2,639.65	86.1265	2,639.65	89.9939	2,639.65	86.7489	2,639.65	87.9988	2,639.65	88.9374	2,639.65	86.3648	2,639.65	88.079	2,639.65	87.5955	2,639.65	87.5006	2,639.65	84.7497	2,639.65	84.4253	2,639.65	81.8284	2,639.65	83.2868	2,639.65	78.4563	2,639.65	81.3577	2,639.65	75.6275	2,639.65	79.8618	2,639.65	69.3892	2,639.65	74.8111	2,639.65	73.7342	2,639.65	74.6336	2,639.65	67.5735	2,639.65	70.4558	2,639.65	74.0626	2,639.65	75.6413	2,639.65	76.2319	2,639.65	75.6359	2,639.65	72.9033	2,639.65	70.7833	2,639.65	69.5137	2,639.65	72.1205	2,639.65	72.7195	2,639.65	70.9097
2,731.93	86.6429	2,731.93	84.505	2,731.93	87.1225	2,731.93	84.422	2,731.93	89.2112	2,731.93	85.7479	2,731.93	88.2492	2,731.93	87.5115	2,731.93	85.4956	2,731.93	88.4585	2,731.93	86.1013	2,731.93	87.0928	2,731.93	84.7592	2,731.93	86.053	2,731.93	81.2234	2,731.93	82.7503	2,731.93	78.8097	2,731.93	80.8881	2,731.93	72.4006	2,731.93	79.995	2,731.93	72.2688	2,731.93	74.3235	2,731.93	72.2324	2,731.93	74.1671	2,731.93	73.7262	2,731.93	70.0241	2,731.93	75.3472	2,731.93	74.1812	2,731.93	74.2571	2,731.93	75.0619	2,731.93	69.8258	2,731.93	70.1251	2,731.93	68.4728	2,731.93	70.5091	2,731.93	73.0986	2,731.93	69.3658
2,828.61	87.0664	2,828.61	85.0411	2,828.61	87.8563	2,828.61	83.3555	2,828.61	88.201	2,828.61	85.5666	2,828.61	88.0916	2,828.61	87.0919	2,828.61	85.139	2,828.61	88.0595	2,828.61	84.3271	2,828.61	86.8885	2,828.61	84.1951	2,828.61	85.5092	2,828.61	79.9032	2,828.61	82.9125	2,828.61	76.2914	2,828.61	80.3502	2,828.61	71.6479	2,828.61	77.0029	2,828.61	71.9137	2,828.61	74.1043	2,828.61	77.2021	2,828.61	73.0127	2,828.61	70.3737	2,828.61	69.1364	2,828.61	74.1659	2,828.61	73.2457	2,828.61	73.6484	2,828.61	72.8693	2,828.61	70.3453	2,828.61	71.3672	2,828.61	66.8625	2,828.61	69.4029	2,828.61	72.537	2,828.61	69.1328
2,928.22	88.2957	2,928.22	85.6417	2,928.22	89.0193	2,928.22	84.0659	2,928.22	88.5148	2,928.22	85.8486	2,928.22	87.2729	2,928.22	87.3023	2,928.22	84.5076	2,928.22	87.5618	2,928.22	82.0048	2,928.22	87.6079	2,928.22	82.8085	2,928.22	85.3885	2,928.22	79.3416	2,928.22	82.9444	2,928.22	75.7532	2,928.22	79.3117	2,928.22	75.1855	2,928.22	78.1861	2,928.22	73.8154	2,928.22	75.3734	2,928.22	75.2421	2,928.22	72.7255	2,928.22	73.3132	2,928.22	71.6226	2,928.22	72.6778	2,928.22	71.8674	2,928.22	72.3501	2,928.22	70.4594	2,928.22	66.9838	2,928.22	70.8229	2,928.22	70.0974	2,928.22	66.7176	2,928.22	72.6803	2,928.22	69.1604
3,030.76	88.4811	3,030.76	85.3086	3,030.76	89.6823	3,030.76	83.2068	3,030.76	88.7503	3,030.76	84.7911	3,030.76	86.3689	3,030.76	86.6625	3,030.76	83.6241	3,030.76	87.6425	3,030.76	78.8135	3,030.76	87.0588	3,030.76	81.6661	3,030.76	84.5838	3,030.76	79.6601	3,030.76	83.182	3,030.76	77.1005	3,030.76	79.3635	3,030.76	77.1856	3,030.76	77.0216	3,030.76	74.9461	3,030.76	73.2839	3,030.76	71.5938	3,030.76	70.5085	3,030.76	69.7642	3,030.76	70.5609	3,030.76	69.7213	3,030.76	70.8657	3,030.76	72.4617	3,030.76	70.0088	3,030.76	64.727	3,030.76	71.2528	3,030.76	68.1572	3,030.76	66.3526	3,030.76	73.0064	3,030.76	67.6167
3,137.7	88.3356	3,137.7	84.858	3,137.7	89.6986	3,137.7	82.0857	3,137.7	88.8384	3,137.7	83.9785	3,137.7	85.6848	3,137.7	86.8566	3,137.7	80.9864	3,137.7	87.5268	3,137.7	76.7543	3,137.7	86.4815	3,137.7	81.2338	3,137.7	84.8735	3,137.7	80.2458	3,137.7	81.2948	3,137.7	78.4918	3,137.7	77.3236	3,137.7	75.4918	3,137.7	74.6047	3,137.7	71.5289	3,137.7	72.2242	3,137.7	72.68	3,137.7	70.4162	3,137.7	64.9014	3,137.7	68.966	3,137.7	65.7897	3,137.7	68.7155	3,137.7	70.5934	3,137.7	70.5577	3,137.7	66.0551	3,137.7	69.4683	3,137.7	68.0881	3,137.7	64.7791	3,137.7	73.3454	3,137.7	68.28
3,249.02	88.5243	3,249.02	83.6142	3,249.02	89.8087	3,249.02	80.8093	3,249.02	88.5113	3,249.02	83.5359	3,249.02	85.5044	3,249.02	86.5321	3,249.02	78.4834	3,249.02	87.588	3,249.02	76.8667	3,249.02	86.3265	3,249.02	81.4162	3,249.02	83.5532	3,249.02	79.2001	3,249.02	81.19	3,249.02	77.7876	3,249.02	79.986	3,249.02	74.044	3,249.02	74.787	3,249.02	70.3466	3,249.02	71.5313	3,249.02	73.5435	3,249.02	69.0337	3,249.02	69.7363	3,249.02	67.5405	3,249.02	62.7994	3,249.02	68.9785	3,249.02	67.8505	3,249.02	69.8861	3,249.02	63.536	3,249.02	69.053	3,249.02	68.4322	3,249.02	65.882	3,249.02	72.8776	3,249.02	68.4282
3,363.28	87.8521	3,363.28	84.1942	3,363.28	89.7367	3,363.28	78.3189	3,363.28	87.1321	3,363.28	82.243	3,363.28	83.9463	3,363.28	86.045	3,363.28	75.2477	3,363.28	86.267	3,363.28	77.4711	3,363.28	85.6463	3,363.28	82.4491	3,363.28	83.3215	3,363.28	78.9824	3,363.28	81.9471	3,363.28	77.496	3,363.28	76.7339	3,363.28	68.3739	3,363.28	73.216	3,363.28	63.9193	3,363.28	69.7906	3,363.28	70.1543	3,363.28	66.4943	3,363.28	67.9499	3,363.28	65.9981	3,363.28	61.6612	3,363.28	64.3405	3,363.28	68.4755	3,363.28	69.0623	3,363.28	55.3437	3,363.28	67.1598	3,363.28	68.8656	3,363.28	66.021	3,363.28	72.4844	3,363.28	66.96
3,481.93	88.0446	3,481.93	84.4976	3,481.93	89.6656	3,481.93	77.5291	3,481.93	86.6917	3,481.93	81.7194	3,481.93	81.0779	3,481.93	84.843	3,481.93	72.6371	3,481.93	86.44	3,481.93	78.4051	3,481.93	84.9269	3,481.93	81.383	3,481.93	83.1159	3,481.93	78.9798	3,481.93	78.5232	3,481.93	77.2903	3,481.93	76.1898	3,481.93	62.1143	3,481.93	74.8021	3,481.93	65.9609	3,481.93	68.6322	3,481.93	65.1596	3,481.93	68.6557	3,481.93	58.9829	3,481.93	63.4033	3,481.93	55.6103	3,481.93	54.716	3,481.93	67.1011	3,481.93	68.1449	3,481.93	44.3185	3,481.93	68.6493	3,481.93	68.4943	3,481.93	64.629	3,481.93	69.8258	3,481.93	64.3258
3,604.98	87.9107	3,604.98	84.1904	3,604.98	88.8717	3,604.98	74.124	3,604.98	85.5546	3,604.98	80.8991	3,604.98	78.4729	3,604.98	84.3491	3,604.98	70.5632	3,604.98	85.3627	3,604.98	78.7312	3,604.98	84.6947	3,604.98	80.547	3,604.98	80.9979	3,604.98	79.141	3,604.98	79.5883	3,604.98	74.3126	3,604.98	77.1316	3,604.98	75.7097	3,604.98	71.6662	3,604.98	70.3375	3,604.98	68.8872	3,604.98	69.5088	3,604.98	62.8063	3,604.98	62.6281	3,604.98	58.1871	3,604.98	37.1452	3,604.98	57.3867	3,604.98	63.7616	3,604.98	66.2299	3,604.98	54.7374	3,604.98	67.6981	3,604.98	67.5582	3,604.98	63.7323	3,604.98	67.8112	3,604.98	63.296
3,732.42	88.4701	3,732.42	84.2428	3,732.42	88.9165	3,732.42	69.9863	3,732.42	84.1989	3,732.42	79.7265	3,732.42	72.7829	3,732.42	83.6354	3,732.42	73.0633	3,732.42	84.1857	3,732.42	78.6378	3,732.42	83.1787	3,732.42	81.1314	3,732.42	81.3514	3,732.42	80.4969	3,732.42	79.0615	3,732.42	77.1164	3,732.42	72.1443	3,732.42	78.645	3,732.42	69.0035	3,732.42	73.0642	3,732.42	67.8649	3,732.42	72.6927	3,732.42	64.9187	3,732.42	63.647	3,732.42	60.7979	3,732.42	61.4319	3,732.42	59.3121	3,732.42	58.5993	3,732.42	66.142	3,732.42	52.3386	3,732.42	66.3431	3,732.42	66.346	3,732.42	63.0441	3,732.42	68.4343	3,732.42	61.341
3,864.26	87.8454	3,864.26	84.0312	3,864.26	88.1177	3,864.26	67.9938	3,864.26	85.4976	3,864.26	78.957	3,864.26	61.2716	3,864.26	83.2634	3,864.26	74.6227	3,864.26	83.6668	3,864.26	80.1687	3,864.26	82.7954	3,864.26	80.3153	3,864.26	80.7243	3,864.26	80.8405	3,864.26	74.029	3,864.26	76.671	3,864.26	72.0363	3,864.26	76.5738	3,864.26	66.2455	3,864.26	70.4002	3,864.26	63.1409	3,864.26	75.7567	3,864.26	61.4026	3,864.26	55.9909	3,864.26	60.0008	3,864.26	62.4017	3,864.26	60.6497	3,864.26	58.0352	3,864.26	66.5098	3,864.26	58.2629	3,864.26	66.9627	3,864.26	67.5452	3,864.26	62.1506	3,864.26	66.0098	3,864.26	61.9984
4,000.49	87.6255	4,000.49	83.3654	4,000.49	85.5299	4,000.49	65.4413	4,000.49	83.9056	4,000.49	78.4459	4,000.49	73.0855	4,000.49	82.0562	4,000.49	77.7429	4,000.49	83.5152	4,000.49	81.1903	4,000.49	82.4287	4,000.49	81.819	4,000.49	79.6406	4,000.49	80.7484	4,000.49	77.3018	4,000.49	79.0276	4,000.49	76.2181	4,000.49	76.4322	4,000.49	70.8081	4,000.49	72.8212	4,000.49	66.4516	4,000.49	72.8354	4,000.49	52.5983	4,000.49	68.3794	4,000.49	44.9427	4,000.49	58.5786	4,000.49	60.4237	4,000.49	63.375	4,000.49	64.9222	4,000.49	66.3316	4,000.49	67.2111	4,000.49	68.3867	4,000.49	58.0777	4,000.49	63.9352	4,000.49	61.195
4,141.11	88.9682	4,141.11	84.5388	4,141.11	86.5861	4,141.11	70.5581	4,141.11	81.888	4,141.11	81.0064	4,141.11	75.499	4,141.11	83.4972	4,141.11	80.5663	4,141.11	82.9367	4,141.11	80.6321	4,141.11	80.5919	4,141.11	81.146	4,141.11	80.0172	4,141.11	81.09	4,141.11	78.2245	4,141.11	80.653	4,141.11	70.3094	4,141.11	78.9926	4,141.11	66.4706	4,141.11	74.0305	4,141.11	63.0473	4,141.11	56.2557	4,141.11	59.1845	4,141.11	71.4602	4,141.11	57.5052	4,141.11	58.8122	4,141.11	65.7016	4,141.11	59.5811	4,141.11	65.8957	4,141.11	66.7987	4,141.11	67.7843	4,141.11	67.2016	4,141.11	60.8665	4,141.11	63.1574	4,141.11	62.5767
4,287.6	88.4271	4,287.6	84.9803	4,287.6	87.2898	4,287.6	76.07	4,287.6	81.957	4,287.6	82.2374	4,287.6	77.3082	4,287.6	82.0703	4,287.6	81.727	4,287.6	82.1234	4,287.6	78.9893	4,287.6	81.8625	4,287.6	80.3314	4,287.6	79.4344	4,287.6	83.3728	4,287.6	73.0348	4,287.6	80.7851	4,287.6	74.5033	4,287.6	78.9306	4,287.6	70.2845	4,287.6	66.8936	4,287.6	63.8729	4,287.6	68.5806	4,287.6	60.8741	4,287.6	68.245	4,287.6	61.1352	4,287.6	67.249	4,287.6	64.7547	4,287.6	62.6062	4,287.6	67.2797	4,287.6	64.947	4,287.6	68.8397	4,287.6	64.6352	4,287.6	61.0377	4,287.6	62.891	4,287.6	64.1241
4,438.48	87.3	4,438.48	83.5351	4,438.48	87.7685	4,438.48	78.945	4,438.48	81.1707	4,438.48	83.2551	4,438.48	77.9682	4,438.48	84.5523	4,438.48	82.3807	4,438.48	81.824	4,438.48	79.5173	4,438.48	78.4615	4,438.48	82.2864	4,438.48	76.963	4,438.48	82.6008	4,438.48	77.3966	4,438.48	79.8824	4,438.48	73.6394	4,438.48	75.8066	4,438.48	67.6099	4,438.48	69.565	4,438.48	66.9629	4,438.48	70.57	4,438.48	58.6117	4,438.48	59.2808	4,438.48	47.1631	4,438.48	70.225	4,438.48	60.4825	4,438.48	65.7902	4,438.48	66.7276	4,438.48	63.1622	4,438.48	69.1211	4,438.48	67.8158	4,438.48	60.5613	4,438.48	64.7053	4,438.48	65.1505
4,595.21	86.6525	4,595.21	84.5723	4,595.21	86.91	4,595.21	78.0516	4,595.21	81.1719	4,595.21	84.4946	4,595.21	79.9945	4,595.21	84.1939	4,595.21	81.62	4,595.21	80.4616	4,595.21	81.8373	4,595.21	77.6922	4,595.21	83.5261	4,595.21	79.4459	4,595.21	81.2739	4,595.21	75.2602	4,595.21	78.1116	4,595.21	70.7168	4,595.21	65.4077	4,595.21	68.6519	4,595.21	71.4811	4,595.21	64.4836	4,595.21	66.0285	4,595.21	50.8044	4,595.21	47.5895	4,595.21	57.7844	4,595.21	70.004	4,595.21	57.046	4,595.21	62.1956	4,595.21	67.7618	4,595.21	62.3467	4,595.21	68.2164	4,595.21	69.7552	4,595.21	56.3095	4,595.21	60.3219	4,595.21	64.0154
4,756.35	87.5057	4,756.35	84.7486	4,756.35	85.7403	4,756.35	79.9204	4,756.35	81.2033	4,756.35	84.7762	4,756.35	82.6897	4,756.35	84.2761	4,756.35	80.8566	4,756.35	79.9332	4,756.35	81.498	4,756.35	78.324	4,756.35	83.1364	4,756.35	75.116	4,756.35	77.9166	4,756.35	76.1983	4,756.35	76.7619	4,756.35	73.0668	4,756.35	69.0984	4,756.35	68.5664	4,756.35	68.5002	4,756.35	64.9709	4,756.35	62.5811	4,756.35	61.3666	4,756.35	58.8924	4,756.35	61.9946	4,756.35	66.7115	4,756.35	60.8582	4,756.35	61.0804	4,756.35	68.0599	4,756.35	62.6924	4,756.35	66.5594	4,756.35	68.9778	4,756.35	59.2901	4,756.35	55.1467	4,756.35	59.5348
4,924.8	87.7138	4,924.8	83.2521	4,924.8	86.503	4,924.8	79.8707	4,924.8	81.8886	4,924.8	84.9927	4,924.8	83.2516	4,924.8	84.5643	4,924.8	82.2428	4,924.8	79.9394	4,924.8	82.6669	4,924.8	77.0597	4,924.8	83.0578	4,924.8	78.7035	4,924.8	77.4355	4,924.8	77.1539	4,924.8	75.24	4,924.8	71.7878	4,924.8	71.6658	4,924.8	70.8518	4,924.8	64.3964	4,924.8	63.7231	4,924.8	64.0237	4,924.8	60.9783	4,924.8	64.8407	4,924.8	59.7281	4,924.8	56.8388	4,924.8	58.7093	4,924.8	62.8148	4,924.8	66.6178	4,924.8	63.9885	4,924.8	65.2412	4,924.8	66.3763	4,924.8	54.5757	4,924.8	61.4445	4,924.8	58.3154
5,097.66	86.8382	5,097.66	82.3283	5,097.66	85.7227	5,097.66	81.2626	5,097.66	83.073	5,097.66	84.8497	5,097.66	82.5095	5,097.66	83.8086	5,097.66	82.7608	5,097.66	79.0847	5,097.66	83.0151	5,097.66	78.5555	5,097.66	81.995	5,097.66	77.1886	5,097.66	75.1683	5,097.66	75.416	5,097.66	69.9327	5,097.66	72.8413	5,097.66	71.708	5,097.66	68.0686	5,097.66	71.4648	5,097.66	66.0672	5,097.66	71.6782	5,097.66	63.2094	5,097.66	62.1953	5,097.66	63.0737	5,097.66	57.9607	5,097.66	61.0678	5,097.66	58.4381	5,097.66	64.628	5,097.66	60.9511	5,097.66	64.6056	5,097.66	64.51	5,097.66	61.6964	5,097.66	64.9069	5,097.66	60.3402
5,277.83	86.6919	5,277.83	83.8386	5,277.83	85.2571	5,277.83	82.208	5,277.83	81.6822	5,277.83	84.5735	5,277.83	83.0969	5,277.83	83.8389	5,277.83	82.4042	5,277.83	79.756	5,277.83	83.4738	5,277.83	77.319	5,277.83	78.6799	5,277.83	78.2206	5,277.83	76.2925	5,277.83	76.3206	5,277.83	67.8448	5,277.83	72.5162	5,277.83	72.6292	5,277.83	68.2053	5,277.83	61.6202	5,277.83	67.3831	5,277.83	68.769	5,277.83	62.3632	5,277.83	57.6789	5,277.83	54.3873	5,277.83	59.578	5,277.83	55.0399	5,277.83	55.9191	5,277.83	63.3986	5,277.83	59.5838	5,277.83	65.4465	5,277.83	66.7555	5,277.83	63.225	5,277.83	66.2245	5,277.83	62.9982
5,463.87	86.5233	5,463.87	83.7919	5,463.87	85.4982	5,463.87	82.8491	5,463.87	79.8247	5,463.87	84.5191	5,463.87	84.2984	5,463.87	84.158	5,463.87	83.5496	5,463.87	78.3787	5,463.87	82.4499	5,463.87	77.1109	5,463.87	76.2353	5,463.87	77.993	5,463.87	77.6304	5,463.87	75.4759	5,463.87	73.4376	5,463.87	74.0015	5,463.87	66.7298	5,463.87	68.8504	5,463.87	65.3392	5,463.87	66.5591	5,463.87	70.7327	5,463.87	49.9951	5,463.87	60.5489	5,463.87	59.0551	5,463.87	60.6646	5,463.87	51.2166	5,463.87	39.2895	5,463.87	62.8045	5,463.87	59.6341	5,463.87	65.1871	5,463.87	66.9494	5,463.87	63.0819	5,463.87	64.9592	5,463.87	63.4191
5,657.23	86.9256	5,657.23	83.3558	5,657.23	85.7458	5,657.23	82.8125	5,657.23	82.5739	5,657.23	84.7086	5,657.23	83.4209	5,657.23	83.4196	5,657.23	83.7111	5,657.23	78.7319	5,657.23	80.7301	5,657.23	77.4027	5,657.23	77.3994	5,657.23	78.0879	5,657.23	78.0408	5,657.23	76.816	5,657.23	77.6255	5,657.23	72.091	5,657.23	74.473	5,657.23	68.4732	5,657.23	54.9863	5,657.23	67.8719	5,657.23	66.4327	5,657.23	56.1938	5,657.23	55.7411	5,657.23	59.9574	5,657.23	62.2186	5,657.23	44.3605	5,657.23	59.8203	5,657.23	62.8568	5,657.23	58.6609	5,657.23	66.1871	5,657.23	66.2254	5,657.23	61.4059	5,657.23	64.8227	5,657.23	60.5797
5,856.45	86.2508	5,856.45	84.4305	5,856.45	84.6911	5,856.45	83.0736	5,856.45	84.5417	5,856.45	84.4153	5,856.45	81.7266	5,856.45	83.5521	5,856.45	82.8455	5,856.45	78.3512	5,856.45	80.0781	5,856.45	77.5873	5,856.45	79.7383	5,856.45	78.5601	5,856.45	78.122	5,856.45	74.3063	5,856.45	77.5733	5,856.45	73.2752	5,856.45	77.3067	5,856.45	66.3886	5,856.45	59.9113	5,856.45	66.8373	5,856.45	66.292	5,856.45	60.5621	5,856.45	57.8423	5,856.45	55.6615	5,856.45	64.8254	5,856.45	45.0841	5,856.45	60.2212	5,856.45	58.8052	5,856.45	57.392	5,856.45	63.5433	5,856.45	61.8515	5,856.45	57.6441	5,856.45	63.1268	5,856.45	57.9159
6,062.99	87.0602	6,062.99	84.1473	6,062.99	85.4442	6,062.99	84.0601	6,062.99	83.7116	6,062.99	84.7855	6,062.99	81.8974	6,062.99	82.1613	6,062.99	82.1215	6,062.99	79.9173	6,062.99	80.8933	6,062.99	77.7493	6,062.99	80.6119	6,062.99	78.4925	6,062.99	77.9229	6,062.99	75.8063	6,062.99	78.9835	6,062.99	71.685	6,062.99	74.5898	6,062.99	66.6452	6,062.99	67.2792	6,062.99	65.5735	6,062.99	64.9348	6,062.99	54.814	6,062.99	59.1972	6,062.99	60.3149	6,062.99	65.4932	6,062.99	57.2698	6,062.99	65.3479	6,062.99	59.2509	6,062.99	54.5556	6,062.99	63.2221	6,062.99	64.3415	6,062.99	58.6172	6,062.99	63.1555	6,062.99	61.7319
6,276.86	86.5799	6,276.86	83.9225	6,276.86	85.0682	6,276.86	83.671	6,276.86	82.7609	6,276.86	84.5622	6,276.86	83.0605	6,276.86	83.0417	6,276.86	82.5533	6,276.86	79.7492	6,276.86	80.7824	6,276.86	78.5526	6,276.86	81.0408	6,276.86	77.9109	6,276.86	77.3067	6,276.86	75.1299	6,276.86	78.695	6,276.86	71.7131	6,276.86	70.4102	6,276.86	67.3805	6,276.86	69.2269	6,276.86	62.954	6,276.86	61.3312	6,276.86	58.5407	6,276.86	64.1365	6,276.86	61.4689	6,276.86	59.9032	6,276.86	57.8709	6,276.86	59.277	6,276.86	59.1841	6,276.86	53.296	6,276.86	57.0067	6,276.86	64.5972	6,276.86	54.7176	6,276.86	61.4604	6,276.86	58.2092
6,498.05	86.5465	6,498.05	84.534	6,498.05	85.0824	6,498.05	84.3549	6,498.05	83.6272	6,498.05	83.9742	6,498.05	83.6142	6,498.05	82.076	6,498.05	83.087	6,498.05	79.7045	6,498.05	81.037	6,498.05	78.4252	6,498.05	79.6633	6,498.05	78.0138	6,498.05	78.332	6,498.05	74.6381	6,498.05	75.1693	6,498.05	70.5723	6,498.05	70.1695	6,498.05	62.6612	6,498.05	70.4109	6,498.05	63.728	6,498.05	49.3594	6,498.05	53.3061	6,498.05	60.85	6,498.05	60.1805	6,498.05	56.5662	6,498.05	54.5773	6,498.05	52.0554	6,498.05	55.9893	6,498.05	58.99	6,498.05	51.7071	6,498.05	62.0469	6,498.05	54.9822	6,498.05	59.9589	6,498.05	50.8415
6,726.56	86.7781	6,726.56	84.2172	6,726.56	86.2563	6,726.56	84.1344	6,726.56	83.3487	6,726.56	84.3453	6,726.56	84.4134	6,726.56	81.8072	6,726.56	83.8037	6,726.56	80.4949	6,726.56	79.3793	6,726.56	77.6501	6,726.56	78.3728	6,726.56	77.1052	6,726.56	78.9908	6,726.56	74.4279	6,726.56	68.6912	6,726.56	70.1553	6,726.56	67.596	6,726.56	65.6933	6,726.56	67.5796	6,726.56	64.3843	6,726.56	60.8977	6,726.56	49.9467	6,726.56	45.812	6,726.56	59.2216	6,726.56	56.6573	6,726.56	47.9768	6,726.56	54.2703	6,726.56	53.3107	6,726.56	61.7574	6,726.56	51.9263	6,726.56	57.8077	6,726.56	56.7159	6,726.56	55.0733	6,726.56	52.8293
6,963.87	85.976	6,963.87	84.5006	6,963.87	85.9364	6,963.87	84.0147	6,963.87	83.1436	6,963.87	83.998	6,963.87	84.7588	6,963.87	81.7116	6,963.87	84.0563	6,963.87	79.4195	6,963.87	77.3224	6,963.87	78.2443	6,963.87	79.2867	6,963.87	76.1181	6,963.87	77.8667	6,963.87	74.3932	6,963.87	70.5129	6,963.87	69.1963	6,963.87	64.3427	6,963.87	64.181	6,963.87	66.808	6,963.87	60.4129	6,963.87	59.8794	6,963.87	54.9921	6,963.87	60.1249	6,963.87	58.401	6,963.87	53.3752	6,963.87	46.1472	6,963.87	60.2617	6,963.87	48.7629	6,963.87	60.1868	6,963.87	54.3115	6,963.87	44.6815	6,963.87	58.0094	6,963.87	59.2503	6,963.87	52.2828
7,209.96	86.6827	7,209.96	84.6994	7,209.96	84.8274	7,209.96	84.6853	7,209.96	82.911	7,209.96	83.424	7,209.96	84.2641	7,209.96	81.2643	7,209.96	83.0786	7,209.96	79.3446	7,209.96	77.4836	7,209.96	77.3321	7,209.96	80.269	7,209.96	75.7114	7,209.96	76.7192	7,209.96	73.904	7,209.96	68.9329	7,209.96	68.457	7,209.96	70.1561	7,209.96	63.4174	7,209.96	65.7456	7,209.96	59.9132	7,209.96	61.3337	7,209.96	59.9194	7,209.96	49.9653	7,209.96	60.3048	7,209.96	45.4419	7,209.96	47.7632	7,209.96	57.648	7,209.96	49.3577	7,209.96	52.0798	7,209.96	54.1635	7,209.96	59.2694	7,209.96	46.4523	7,209.96	58.1147	7,209.96	50.2667
7,464.84	86.6583	7,464.84	84.6591	7,464.84	85.7472	7,464.84	84.7023	7,464.84	83.8833	7,464.84	83.7142	7,464.84	82.9103	7,464.84	81.38	7,464.84	81.3083	7,464.84	79.1584	7,464.84	79.155	7,464.84	76.88	7,464.84	81.0423	7,464.84	75.0612	7,464.84	71.3665	7,464.84	72.9793	7,464.84	74.3246	7,464.84	67.8073	7,464.84	68.5922	7,464.84	65.2869	7,464.84	59.2192	7,464.84	58.2389	7,464.84	63.5625	7,464.84	57.1768	7,464.84	61.484	7,464.84	58.8171	7,464.84	55.4027	7,464.84	52.7	7,464.84	48.8948	7,464.84	49.7151	7,464.84	53.2381	7,464.84	55.4948	7,464.84	56.5971	7,464.84	54.8709	7,464.84	53.361	7,464.84	53.4011
7,727.05	86.7436	7,727.05	84.9271	7,727.05	84.6021	7,727.05	85.1775	7,727.05	84.813	7,727.05	83.3572	7,727.05	83.2255	7,727.05	80.9353	7,727.05	79.9736	7,727.05	78.6513	7,727.05	80.4847	7,727.05	75.8579	7,727.05	78.9312	7,727.05	74.5408	7,727.05	73.6325	7,727.05	72.1781	7,727.05	73.021	7,727.05	66.6178	7,727.05	67.9505	7,727.05	61.1302	7,727.05	65.4115	7,727.05	57.2031	7,727.05	56.3475	7,727.05	58.9048	7,727.05	62.4648	7,727.05	57.9934	7,727.05	54.7108	7,727.05	54.2412	7,727.05	49.638	7,727.05	51.8462	7,727.05	36.4145	7,727.05	52.5806	7,727.05	58.2856	7,727.05	47.5942	7,727.05	43.999	7,727.05	54.3843
7,999.51	86.6786	7,999.51	85.1175	7,999.51	84.4251	7,999.51	84.6435	7,999.51	85.1199	7,999.51	83.1956	7,999.51	83.8477	7,999.51	80.4692	7,999.51	79.341	7,999.51	78.7394	7,999.51	81.1902	7,999.51	74.9834	7,999.51	73.8524	7,999.51	74.7376	7,999.51	76.8851	7,999.51	72.5958	7,999.51	72.8343	7,999.51	67.5634	7,999.51	72.321	7,999.51	65.9506	7,999.51	63.6422	7,999.51	57.7479	7,999.51	62.5579	7,999.51	54.86	7,999.51	59.2279	7,999.51	56.4774	7,999.51	51.7015	7,999.51	53.6832	7,999.51	40.9534	7,999.51	51.5092	7,999.51	39.9245	7,999.51	47.2197	7,999.51	50.2344	7,999.51	48.5035	7,999.51	45.4071	7,999.51	55.3449
8,282.23	86.5625	8,282.23	85.5068	8,282.23	84.7454	8,282.23	85.1366	8,282.23	85.4341	8,282.23	83.004	8,282.23	83.0647	8,282.23	80.5454	8,282.23	80.7152	8,282.23	78.533	8,282.23	79.9815	8,282.23	74.1999	8,282.23	70.8615	8,282.23	74.0932	8,282.23	78.4689	8,282.23	72.008	8,282.23	71.3754	8,282.23	65.1812	8,282.23	70.5819	8,282.23	63.3139	8,282.23	66.4003	8,282.23	55.4025	8,282.23	59.5042	8,282.23	54.6905	8,282.23	61.3092	8,282.23	55.5786	8,282.23	49.9354	8,282.23	54.3098	8,282.23	33.1564	8,282.23	48.5589	8,282.23	49.4065	8,282.23	44.0349	8,282.23	48.7366	8,282.23	52.1299	8,282.23	51.335	8,282.23	47.1246
8,573.73	86.4011	8,573.73	85.3572	8,573.73	84.8253	8,573.73	84.8504	8,573.73	85.1037	8,573.73	82.8418	8,573.73	82.3505	8,573.73	80.1755	8,573.73	82.0854	8,573.73	78.247	8,573.73	76.2421	8,573.73	74.0399	8,573.73	76.1143	8,573.73	73.2112	8,573.73	77.2306	8,573.73	71.1093	8,573.73	63.3722	8,573.73	63.8253	8,573.73	64.8949	8,573.73	63.8411	8,573.73	64.2097	8,573.73	50.6703	8,573.73	60.7177	8,573.73	51.6214	8,573.73	55.7492	8,573.73	53.1717	8,573.73	55.7072	8,573.73	52.4017	8,573.73	42.3746	8,573.73	47.9115	8,573.73	47.3078	8,573.73	31.3803	8,573.73	53.2266	8,573.73	47.4841	8,573.73	53.3471	8,573.73	53.2171
8,876.95	86.324	8,876.95	85.12	8,876.95	84.9466	8,876.95	84.7282	8,876.95	85.4532	8,876.95	82.5339	8,876.95	82.9753	8,876.95	80.2765	8,876.95	82.6548	8,876.95	77.7444	8,876.95	74.2818	8,876.95	73.1332	8,876.95	77.5688	8,876.95	72.6203	8,876.95	69.7231	8,876.95	69.7564	8,876.95	67.4074	8,876.95	61.7865	8,876.95	67.7235	8,876.95	60.6775	8,876.95	65.6802	8,876.95	53.9233	8,876.95	53.8684	8,876.95	51.9761	8,876.95	56.1708	8,876.95	55.3312	8,876.95	55.5736	8,876.95	49.7095	8,876.95	45.0884	8,876.95	41.8765	8,876.95	47.7006	8,876.95	48.3132	8,876.95	49.0814	8,876.95	30.5542	8,876.95	50.5392	8,876.95	31.7083
9,188.96	85.8062	9,188.96	85.0303	9,188.96	84.9932	9,188.96	84.6435	9,188.96	85.1175	9,188.96	82.581	9,188.96	83.1882	9,188.96	79.7949	9,188.96	81.8779	9,188.96	77.3576	9,188.96	75.3606	9,188.96	72.5126	9,188.96	78.1967	9,188.96	71.1193	9,188.96	70.3578	9,188.96	68.2725	9,188.96	70.2631	9,188.96	61.8989	9,188.96	68.4664	9,188.96	60.7289	9,188.96	63.3831	9,188.96	54.1671	9,188.96	51.9707	9,188.96	43.3453	9,188.96	55.3609	9,188.96	56.5012	9,188.96	56.643	9,188.96	47.394	9,188.96	53.5981	9,188.96	45.5942	9,188.96	50.3871	9,188.96	42.3404	9,188.96	54.4129	9,188.96	35.8899	9,188.96	34.2901	9,188.96	52.8552
9,514.16	85.9025	9,514.16	84.9852	9,514.16	85.0316	9,514.16	84.3983	9,514.16	84.7948	9,514.16	82.464	9,514.16	83.8742	9,514.16	79.5358	9,514.16	81.5861	9,514.16	77.0969	9,514.16	77.3506	9,514.16	71.9214	9,514.16	74.6027	9,514.16	70.1055	9,514.16	72.034	9,514.16	67.6428	9,514.16	68.8181	9,514.16	59.3775	9,514.16	68.0694	9,514.16	57.823	9,514.16	62.4545	9,514.16	50.0035	9,514.16	55.2458	9,514.16	50.2651	9,514.16	55.9538	9,514.16	57.9889	9,514.16	57.3195	9,514.16	52.1495	9,514.16	48.7575	9,514.16	47.1926	9,514.16	41.3081	9,514.16	39.9301	9,514.16	53.021	9,514.16	44.7152	9,514.16	43.2698	9,514.16	42.7115
9,849.61	85.7204	9,849.61	85.0222	9,849.61	85.2785	9,849.61	84.4394	9,849.61	84.4672	9,849.61	82.276	9,849.61	83.1844	9,849.61	79.2717	9,849.61	80.5884	9,849.61	76.6941	9,849.61	77.1428	9,849.61	71.3235	9,849.61	72.576	9,849.61	67.6645	9,849.61	71.5119	9,849.61	66.6164	9,849.61	69.6499	9,849.61	58.8346	9,849.61	55.9887	9,849.61	59.4719	9,849.61	64.7485	9,849.61	48.8987	9,849.61	59.5953	9,849.61	42.0116	9,849.61	49.1297	9,849.61	59.0614	9,849.61	55.7343	9,849.61	53.5493	9,849.61	40.3596	9,849.61	42.3429	9,849.61	41.55	9,849.61	36.0672	9,849.61	52.9452	9,849.61	45.88	9,849.61	35.0134	9,849.61	50.4978
10,196.8	86.0666	10,196.8	85.1955	10,196.8	85.3202	10,196.8	84.4482	10,196.8	84.4961	10,196.8	82.0663	10,196.8	82.3517	10,196.8	78.8564	10,196.8	78.9352	10,196.8	76.061	10,196.8	76.9927	10,196.8	70.7829	10,196.8	70.4089	10,196.8	65.761	10,196.8	69.4271	10,196.8	64.5963	10,196.8	61.6616	10,196.8	62.0173	10,196.8	54.7419	10,196.8	51.9103	10,196.8	63.4644	10,196.8	37.1648	10,196.8	61.7251	10,196.8	51.0989	10,196.8	47.5123	10,196.8	55.9785	10,196.8	53.252	10,196.8	50.2865	10,196.8	49.0264	10,196.8	35.493	10,196.8	36.9101	10,196.8	36.6972	10,196.8	48.1923	10,196.8	40.3592	10,196.8	43.9059	10,196.8	47.3699
10,555.7	86.0638	10,555.7	85.1796	10,555.7	85.1081	10,555.7	84.415	10,555.7	84.6039	10,555.7	81.9172	10,555.7	81.1802	10,555.7	78.2829	10,555.7	78.0962	10,555.7	75.2543	10,555.7	76.2158	10,555.7	69.6965	10,555.7	70.165	10,555.7	63.9198	10,555.7	70.2408	10,555.7	63.6197	10,555.7	64.1754	10,555.7	59.9418	10,555.7	61.2046	10,555.7	53.8296	10,555.7	60.4939	10,555.7	39.1929	10,555.7	63.124	10,555.7	44.4908	10,555.7	53.2956	10,555.7	56.2665	10,555.7	48.8059	10,555.7	50.4268	10,555.7	51.999	10,555.7	40.74	10,555.7	42.2279	10,555.7	37.5238	10,555.7	50.3908	10,555.7	37.6972	10,555.7	42.8404	10,555.7	50.8632
10,927.7	86.2452	10,927.7	85.4153	10,927.7	85.2519	10,927.7	84.3958	10,927.7	84.7823	10,927.7	81.8783	10,927.7	81.5711	10,927.7	77.9767	10,927.7	78.3927	10,927.7	74.5464	10,927.7	74.9911	10,927.7	68.4611	10,927.7	69.6929	10,927.7	62.192	10,927.7	66.7401	10,927.7	62.5529	10,927.7	62.0774	10,927.7	60.1588	10,927.7	54.457	10,927.7	52.7866	10,927.7	64.0563	10,927.7	43.5115	10,927.7	59.9635	10,927.7	42.7688	10,927.7	57.2692	10,927.7	55.4035	10,927.7	50.0431	10,927.7	42.7552	10,927.7	41.7255	10,927.7	44.7283	10,927.7	36.6271	10,927.7	36.2344	10,927.7	48.0701	10,927.7	38.0958	10,927.7	44.2719	10,927.7	48.7298
11,313	86.143	11,313	85.5399	11,313	85.3897	11,313	84.1955	11,313	84.7735	11,313	81.7603	11,313	81.4664	11,313	77.7925	11,313	79.2953	11,313	73.7408	11,313	73.7398	11,313	67.2738	11,313	70.7443	11,313	59.349	11,313	60.7238	11,313	62.1784	11,313	62.8552	11,313	60.5678	11,313	48.3316	11,313	48.4525	11,313	60.0999	11,313	46.6833	11,313	61.3891	11,313	41.413	11,313	58.6958	11,313	53.5901	11,313	49.5787	11,313	42.1739	11,313	36.0884	11,313	47.0328	11,313	26.6777	11,313	38.7216	11,313	47.5667	11,313	38.1004	11,313	48.8074	11,313	50.477
11,712.9	86.0499	11,712.9	85.5125	11,712.9	85.7419	11,712.9	84.205	11,712.9	84.1453	11,712.9	81.4835	11,712.9	81.3483	11,712.9	77.3926	11,712.9	79.2171	11,712.9	72.779	11,712.9	72.5638	11,712.9	65.361	11,712.9	67.3146	11,712.9	57.7558	11,712.9	63.4832	11,712.9	59.8482	11,712.9	63.6373	11,712.9	61.2562	11,712.9	58.1384	11,712.9	40.5598	11,712.9	59.3679	11,712.9	51.2487	11,712.9	61.5454	11,712.9	43.6893	11,712.9	59.9387	11,712.9	55.7978	11,712.9	48.4774	11,712.9	29.5102	11,712.9	43.0438	11,712.9	46.9451	11,712.9	44.3867	11,712.9	37.8821	11,712.9	49.4881	11,712.9	44.0791	11,712.9	46.8775	11,712.9	48.9227
12,126	86.1756	12,126	85.6089	12,126	85.6958	12,126	84.2291	12,126	83.9315	12,126	81.2515	12,126	82.2588	12,126	76.7604	12,126	78.7186	12,126	71.1255	12,126	72.1278	12,126	61.7144	12,126	62.9266	12,126	56.6103	12,126	67.6697	12,126	58.4793	12,126	65.4458	12,126	60.3626	12,126	53.7705	12,126	47.2902	12,126	59.2866	12,126	43.9216	12,126	62.2612	12,126	30.2458	12,126	60.5565	12,126	52.2148	12,126	48.5946	12,126	39.4553	12,126	40.9809	12,126	43.0316	12,126	42.1085	12,126	36.1267	12,126	40.4168	12,126	37.8597	12,126	40.423	12,126	39.8447
12,553.7	86.4661	12,553.7	85.7005	12,553.7	85.876	12,553.7	84.1495	12,553.7	84.2901	12,553.7	81.0809	12,553.7	81.6635	12,553.7	76.0289	12,553.7	77.5619	12,553.7	69.4893	12,553.7	70.3102	12,553.7	58.7333	12,553.7	66.0188	12,553.7	58.3086	12,553.7	66.3824	12,553.7	57.441	12,553.7	62.3312	12,553.7	59.7394	12,553.7	48.0751	12,553.7	49.8936	12,553.7	61.7194	12,553.7	45.7952	12,553.7	63.261	12,553.7	45.7957	12,553.7	62.8927	12,553.7	52.5965	12,553.7	51.2515	12,553.7	40.419	12,553.7	49.9983	12,553.7	45.1974	12,553.7	39.7323	12,553.7	43.7424	12,553.7	45.7384	12,553.7	40.5188	12,553.7	43.5535	12,553.7	41.4649
12,996.1	86.8281	12,996.1	85.8965	12,996.1	85.9291	12,996.1	83.9125	12,996.1	83.9794	12,996.1	80.7202	12,996.1	81.1077	12,996.1	75.5796	12,996.1	75.5113	12,996.1	68.172	12,996.1	71.3423	12,996.1	59.1829	12,996.1	64.5306	12,996.1	59.5333	12,996.1	60.9503	12,996.1	58.2596	12,996.1	62.0342	12,996.1	60.4598	12,996.1	58.524	12,996.1	47.877	12,996.1	59.7444	12,996.1	51.0723	12,996.1	64.7012	12,996.1	41.9591	12,996.1	63.4413	12,996.1	51.418	12,996.1	50.849	12,996.1	47.2315	12,996.1	43.728	12,996.1	44.6444	12,996.1	39.2066	12,996.1	46.9815	12,996.1	44.917	12,996.1	33.3453	12,996.1	45.4963	12,996.1	46.2381
13,454.6	87.2097	13,454.6	86.2692	13,454.6	86.3929	13,454.6	84.0288	13,454.6	84.2199	13,454.6	80.537	13,454.6	81.0682	13,454.6	75.121	13,454.6	74.3986	13,454.6	67.5583	13,454.6	70.8972	13,454.6	60.9627	13,454.6	65.402	13,454.6	60.766	13,454.6	63.7398	13,454.6	58.3167	13,454.6	63.8027	13,454.6	59.9325	13,454.6	57.9584	13,454.6	41.3035	13,454.6	60.1659	13,454.6	48.4597	13,454.6	64.1415	13,454.6	39.7798	13,454.6	62.7179	13,454.6	50.4648	13,454.6	50.1161	13,454.6	45.8756	13,454.6	47.2227	13,454.6	43.995	13,454.6	37.5451	13,454.6	44.8587	13,454.6	41.2189	13,454.6	34.0199	13,454.6	41.7134	13,454.6	49.093
13,929.2	87.7162	13,929.2	86.5981	13,929.2	86.5398	13,929.2	84.0257	13,929.2	84.3639	13,929.2	80.1224	13,929.2	80.2945	13,929.2	74.5587	13,929.2	74.7108	13,929.2	67.6655	13,929.2	68.3832	13,929.2	61.3877	13,929.2	62.5987	13,929.2	60.4029	13,929.2	60.889	13,929.2	57.7855	13,929.2	63.9273	13,929.2	59.3824	13,929.2	51.6947	13,929.2	46.2899	13,929.2	58.055	13,929.2	50.1306	13,929.2	63.3181	13,929.2	34.0141	13,929.2	63.4218	13,929.2	44.7124	13,929.2	56.6887	13,929.2	48.6343	13,929.2	53.1818	13,929.2	42.5185	13,929.2	41.9456	13,929.2	43.218	13,929.2	37.8262	13,929.2	30.3441	13,929.2	44.833	13,929.2	40.6153
14,419.9	88.2588	14,419.9	86.9656	14,419.9	86.9688	14,419.9	83.7587	14,419.9	84.5442	14,419.9	79.7198	14,419.9	79.7441	14,419.9	73.8263	14,419.9	75.1681	14,419.9	67.1012	14,419.9	67.4937	14,419.9	58.5566	14,419.9	61.1439	14,419.9	57.5134	14,419.9	63.3314	14,419.9	57.2855	14,419.9	67.2973	14,419.9	58.7405	14,419.9	55.3783	14,419.9	47.1566	14,419.9	56.2381	14,419.9	50.0786	14,419.9	62.394	14,419.9	37.5962	14,419.9	64.024	14,419.9	47.4685	14,419.9	56.7783	14,419.9	49.0017	14,419.9	46.127	14,419.9	42.1957	14,419.9	29.2579	14,419.9	42.5593	14,419.9	48.0659	14,419.9	35.1782	14,419.9	51.1946	14,419.9	41.3627
14,928.2	88.4484	14,928.2	87.1563	14,928.2	87.2249	14,928.2	83.3803	14,928.2	84.5714	14,928.2	79.0926	14,928.2	80.4095	14,928.2	72.9965	14,928.2	75.1738	14,928.2	64.4413	14,928.2	66.7345	14,928.2	53.9609	14,928.2	62.8392	14,928.2	57.425	14,928.2	66.2701	14,928.2	57.4767	14,928.2	64.3491	14,928.2	57.842	14,928.2	59.7315	14,928.2	50.2973	14,928.2	55.8216	14,928.2	47.997	14,928.2	63.4177	14,928.2	34.3215	14,928.2	65.5174	14,928.2	44.2376	14,928.2	55.7273	14,928.2	48.0997	14,928.2	45.6703	14,928.2	38.9597	14,928.2	40.0213	14,928.2	40.4767	14,928.2	44.7386	14,928.2	35.9155	14,928.2	42.5583	14,928.2	38.1333
15,455.6	88.3896	15,455.6	87.15	15,455.6	87.0918	15,455.6	83.1493	15,455.6	83.9406	15,455.6	78.2938	15,455.6	80.6438	15,455.6	71.9383	15,455.6	74.5778	15,455.6	60.0746	15,455.6	63.13	15,455.6	57.8362	15,455.6	62.1118	15,455.6	58.5902	15,455.6	64.178	15,455.6	58.5017	15,455.6	64.7661	15,455.6	56.7264	15,455.6	56.7249	15,455.6	49.1744	15,455.6	55.899	15,455.6	46.2413	15,455.6	63.7494	15,455.6	37.9775	15,455.6	64.6705	15,455.6	41.0649	15,455.6	50.1357	15,455.6	43.8452	15,455.6	47.7741	15,455.6	38.4068	15,455.6	45.3543	15,455.6	43.2428	15,455.6	39.3358	15,455.6	42.1742	15,455.6	41.3094	15,455.6	35.5002
16,000.5	87.6915	16,000.5	86.6308	16,000.5	86.6247	16,000.5	83.1113	16,000.5	84.0158	16,000.5	78.2731	16,000.5	79.9083	16,000.5	69.7058	16,000.5	70.0805	16,000.5	55.9351	16,000.5	36.3447	16,000.5	63.7331	16,000.5	66.9166	16,000.5	62.4396	16,000.5	62.7645	16,000.5	59.6056	16,000.5	65.5478	16,000.5	55.4455	16,000.5	56.1111	16,000.5	47.1734	16,000.5	50.5785	16,000.5	46.1186	16,000.5	64.3381	16,000.5	37.1923	16,000.5	65.1555	16,000.5	31.1307	16,000.5	48.1582	16,000.5	38.924	16,000.5	45.3983	16,000.5	39.7931	16,000.5	42.8597	16,000.5	39.0729	16,000.5	31.1824	16,000.5	37.7006	16,000.5	48.4013	16,000.5	36.0561
16,564.5	87.0223	16,564.5	86.2504	16,564.5	86.3262	16,564.5	83.6067	16,564.5	83.8989	16,564.5	78.8959	16,564.5	79.2799	16,564.5	68.0283	16,564.5	67.4535	16,564.5	60.5409	16,564.5	60.7856	16,564.5	66.8792	16,564.5	64.3439	16,564.5	63.1253	16,564.5	65.4618	16,564.5	60.0171	16,564.5	59.1694	16,564.5	54.3562	16,564.5	56.2186	16,564.5	45.831	16,564.5	52.299	16,564.5	42.6586	16,564.5	64.3471	16,564.5	38.4556	16,564.5	65.9892	16,564.5	35.4597	16,564.5	51.5514	16,564.5	32.0238	16,564.5	42.7749	16,564.5	37.5857	16,564.5	43.052	16,564.5	33.1514	16,564.5	44.8866	16,564.5	28.2057	16,564.5	48.146	16,564.5	40.0898
17,148.9	87.062	17,148.9	86.2672	17,148.9	86.3528	17,148.9	83.881	17,148.9	83.7968	17,148.9	78.7364	17,148.9	78.5295	17,148.9	65.9021	17,148.9	65.0568	17,148.9	63.2581	17,148.9	59.0694	17,148.9	66.4453	17,148.9	61.1632	17,148.9	62.6096	17,148.9	63.8693	17,148.9	58.8446	17,148.9	60.5961	17,148.9	51.658	17,148.9	53.8333	17,148.9	46.2559	17,148.9	46.4689	17,148.9	40.1938	17,148.9	63.8433	17,148.9	35.0946	17,148.9	64.5949	17,148.9	39.8576	17,148.9	49.8012	17,148.9	32.4083	17,148.9	47.5677	17,148.9	38.0971	17,148.9	42.1362	17,148.9	33.5006	17,148.9	37.6699	17,148.9	37.6362	17,148.9	45.6289	17,148.9	38.0043
17,752.4	87.3533	17,752.4	86.512	17,752.4	86.7088	17,752.4	83.8938	17,752.4	83.7883	17,752.4	78.0255	17,752.4	77.6588	17,752.4	62.2388	17,752.4	58.8575	17,752.4	65.0846	17,752.4	61.8781	17,752.4	66.5844	17,752.4	65.9094	17,752.4	61.058	17,752.4	62.1085	17,752.4	56.4209	17,752.4	58.7899	17,752.4	47.6489	17,752.4	51.3475	17,752.4	38.8922	17,752.4	42.5288	17,752.4	36.7301	17,752.4	61.657	17,752.4	34.9903	17,752.4	63.8923	17,752.4	39.5395	17,752.4	45.8545	17,752.4	26.1051	17,752.4	40.3008	17,752.4	35.4312	17,752.4	44.7717	17,752.4	38.8864	17,752.4	38.9736	17,752.4	40.0192	17,752.4	43.1771	17,752.4	43.0057
18,379.4	87.355	18,379.4	86.6122	18,379.4	86.8216	18,379.4	83.9402	18,379.4	83.8024	18,379.4	76.8371	18,379.4	76.3114	18,379.4	58.4851	18,379.4	51.8859	18,379.4	67.2432	18,379.4	63.5371	18,379.4	66.6566	18,379.4	64.5241	18,379.4	60.5125	18,379.4	58.875	18,379.4	57.3486	18,379.4	57.1715	18,379.4	48.6955	18,379.4	51.3767	18,379.4	45.1562	18,379.4	35.2239	18,379.4	41.2438	18,379.4	60.1828	18,379.4	31.1838	18,379.4	62.8254	18,379.4	37.5407	18,379.4	46.6736	18,379.4	34.0543	18,379.4	36.7772	18,379.4	33.8926	18,379.4	38.584	18,379.4	30.2612	18,379.4	29.6894	18,379.4	33.8235	18,379.4	42.4806	18,379.4	42.6974
19,026.9	87.353	19,026.9	86.6067	19,026.9	86.7201	19,026.9	83.6813	19,026.9	83.4	19,026.9	75.4773	19,026.9	75.3176	19,026.9	59.923	19,026.9	54.2165	19,026.9	68.2571	19,026.9	66.641	19,026.9	67.8111	19,026.9	61.575	19,026.9	62.0162	19,026.9	62.7395	19,026.9	59.3239	19,026.9	57.2908	19,026.9	46.4911	19,026.9	48.7278	19,026.9	47.3167	19,026.9	34.0376	19,026.9	40.9511	19,026.9	59.3345	19,026.9	36.0202	19,026.9	61.1915	19,026.9	39.3815	19,026.9	44.4393	19,026.9	37.6903	19,026.9	37.2647	19,026.9	39.1136	19,026.9	35.2214	19,026.9	34.8516	19,026.9	44.6385	19,026.9	41.6243	19,026.9	41.0875	19,026.9	38.6841
19,697.8	86.7456	19,697.8	86.2067	19,697.8	86.2695	19,697.8	83.0821	19,697.8	82.8829	19,697.8	73.6537	19,697.8	73.2955	19,697.8	63.2463	19,697.8	64.5928	19,697.8	69.7708	19,697.8	69.1063	19,697.8	69.7922	19,697.8	68.4823	19,697.8	64.7171	19,697.8	62.8979	19,697.8	60.789	19,697.8	58.4327	19,697.8	46.9755	19,697.8	55.508	19,697.8	47.8116	19,697.8	37.4445	19,697.8	40.7207	19,697.8	60.4408	19,697.8	33.5939	19,697.8	58.084	19,697.8	34.0904	19,697.8	41.7531	19,697.8	39.1697	19,697.8	27.4486	19,697.8	36.4857	19,697.8	38.2081	19,697.8	30.6018	19,697.8	42.3056	19,697.8	40.8885	19,697.8	35.1256	19,697.8	33.7716
19,999.5	86.4029	19,999.5	86.0178	19,999.5	86.0632	19,999.5	82.8678	19,999.5	82.1053	19,999.5	73.2513	19,999.5	71.032	19,999.5	63.034	19,999.5	66.9868	19,999.5	69.9724	19,999.5	70.6544	19,999.5	70.2081	19,999.5	70.0234	19,999.5	64.8206	19,999.5	64.988	19,999.5	61.6341	19,999.5	58.7727	19,999.5	43.8348	19,999.5	54.9072	19,999.5	48.2241	19,999.5	48.271	19,999.5	43.2754	19,999.5	61.8096	19,999.5	32.7354	19,999.5	59.8329	19,999.5	41.4087	19,999.5	49.9077	19,999.5	46.7613	19,999.5	43.4692	19,999.5	39.0173	19,999.5	44.7785	19,999.5	46.806	19,999.5	51.0388	19,999.5	36.7017	19,999.5	41.825	19,999.5	31.0203
