"SPL Horizontal"
"On-Axis"		"10°"		"-10°"		"20°"		"-20°"		"30°"		"-30°"		"40°"		"-40°"		"50°"		"-50°"		"60°"		"-60°"		"70°"		"-70°"		"80°"		"-80°"		"90°"		"-90°"		"100°"		"-100°"		"110°"		"-110°"		"120°"		"-120°"		"130°"		"-130°"		"140°"		"-140°"		"150°"		"-150°"		"160°"		"-160°"		"170°"		"-170°"		"180°"
"Frequency [Hz]"	"Sound Pessure Level [dB]  / [2.83V 1m] "	"Frequency [Hz]"	"Sound Pessure Level [dB]  / [2.83V 1m] "	"Frequency [Hz]"	"Sound Pessure Level [dB]  / [2.83V 1m] "	"Frequency [Hz]"	"Sound Pessure Level [dB]  / [2.83V 1m] "	"Frequency [Hz]"	"Sound Pessure Level [dB]  / [2.83V 1m] "	"Frequency [Hz]"	"Sound Pessure Level [dB]  / [2.83V 1m] "	"Frequency [Hz]"	"Sound Pessure Level [dB]  / [2.83V 1m] "	"Frequency [Hz]"	"Sound Pessure Level [dB]  / [2.83V 1m] "	"Frequency [Hz]"	"Sound Pessure Level [dB]  / [2.83V 1m] "	"Frequency [Hz]"	"Sound Pessure Level [dB]  / [2.83V 1m] "	"Frequency [Hz]"	"Sound Pessure Level [dB]  / [2.83V 1m] "	"Frequency [Hz]"	"Sound Pessure Level [dB]  / [2.83V 1m] "	"Frequency [Hz]"	"Sound Pessure Level [dB]  / [2.83V 1m] "	"Frequency [Hz]"	"Sound Pessure Level [dB]  / [2.83V 1m] "	"Frequency [Hz]"	"Sound Pessure Level [dB]  / [2.83V 1m] "	"Frequency [Hz]"	"Sound Pessure Level [dB]  / [2.83V 1m] "	"Frequency [Hz]"	"Sound Pessure Level [dB]  / [2.83V 1m] "	"Frequency [Hz]"	"Sound Pessure Level [dB]  / [2.83V 1m] "	"Frequency [Hz]"	"Sound Pessure Level [dB]  / [2.83V 1m] "	"Frequency [Hz]"	"Sound Pessure Level [dB]  / [2.83V 1m] "	"Frequency [Hz]"	"Sound Pessure Level [dB]  / [2.83V 1m] "	"Frequency [Hz]"	"Sound Pessure Level [dB]  / [2.83V 1m] "	"Frequency [Hz]"	"Sound Pessure Level [dB]  / [2.83V 1m] "	"Frequency [Hz]"	"Sound Pessure Level [dB]  / [2.83V 1m] "	"Frequency [Hz]"	"Sound Pessure Level [dB]  / [2.83V 1m] "	"Frequency [Hz]"	"Sound Pessure Level [dB]  / [2.83V 1m] "	"Frequency [Hz]"	"Sound Pessure Level [dB]  / [2.83V 1m] "	"Frequency [Hz]"	"Sound Pessure Level [dB]  / [2.83V 1m] "	"Frequency [Hz]"	"Sound Pessure Level [dB]  / [2.83V 1m] "	"Frequency [Hz]"	"Sound Pessure Level [dB]  / [2.83V 1m] "	"Frequency [Hz]"	"Sound Pessure Level [dB]  / [2.83V 1m] "	"Frequency [Hz]"	"Sound Pessure Level [dB]  / [2.83V 1m] "	"Frequency [Hz]"	"Sound Pessure Level [dB]  / [2.83V 1m] "	"Frequency [Hz]"	"Sound Pessure Level [dB]  / [2.83V 1m] "	"Frequency [Hz]"	"Sound Pessure Level [dB]  / [2.83V 1m] "	"Frequency [Hz]"	"Sound Pessure Level [dB]  / [2.83V 1m] "
20.5078	71.7746	20.5078	71.7723	20.5078	71.8002	20.5078	71.793	20.5078	71.8484	20.5078	71.8357	20.5078	71.9176	20.5078	71.8985	20.5078	72.0055	20.5078	71.9789	20.5078	72.109	20.5078	72.0737	20.5078	72.2242	20.5078	72.1793	20.5078	72.3468	20.5078	72.2915	20.5078	72.4719	20.5078	72.406	20.5078	72.5942	20.5078	72.5182	20.5078	72.7087	20.5078	72.6241	20.5078	72.8108	20.5078	72.7204	20.5078	72.897	20.5078	72.8049	20.5078	72.965	20.5078	72.8768	20.5078	73.0141	20.5078	72.9361	20.5078	73.0447	20.5078	72.9834	20.5078	73.0587	20.5078	73.0195	20.5078	73.058	20.5078	73.0445
21.9727	74.6784	21.9727	74.6707	21.9727	74.7063	21.9727	74.6832	21.9727	74.7539	21.9727	74.7153	21.9727	74.8198	21.9727	74.7661	21.9727	74.9023	21.9727	74.8337	21.9727	74.9989	21.9727	74.9162	21.9727	75.1063	21.9727	75.0106	21.9727	75.221	21.9727	75.1136	21.9727	75.3385	21.9727	75.2212	21.9727	75.4542	21.9727	75.3293	21.9727	75.5635	21.9727	75.4338	21.9727	75.6619	21.9727	75.5311	21.9727	75.7458	21.9727	75.6186	21.9727	75.8125	21.9727	75.6947	21.9727	75.8606	21.9727	75.7589	21.9727	75.8901	21.9727	75.8113	21.9727	75.9022	21.9727	75.8522	21.9727	75.8987	21.9727	75.8816
23.4375	76.5508	23.4375	76.5434	23.4375	76.5792	23.4375	76.5569	23.4375	76.628	23.4375	76.5907	23.4375	76.696	23.4375	76.6434	23.4375	76.7813	23.4375	76.7132	23.4375	76.8814	23.4375	76.7976	23.4375	76.9931	23.4375	76.8939	23.4375	77.1128	23.4375	76.9987	23.4375	77.2363	23.4375	77.1085	23.4375	77.3589	23.4375	77.2193	23.4375	77.4759	23.4375	77.3274	23.4375	77.5824	23.4375	77.4296	23.4375	77.6742	23.4375	77.5232	23.4375	77.7481	23.4375	77.6064	23.4375	77.8018	23.4375	77.6784	23.4375	77.8349	23.4375	77.7386	23.4375	77.8481	23.4375	77.7867	23.4375	77.843	23.4375	77.8219
24.9023	78.0622	24.9023	78.0516	24.9023	78.0944	24.9023	78.0626	24.9023	78.1473	24.9023	78.0946	24.9023	78.2198	24.9023	78.1465	24.9023	78.3098	24.9023	78.2166	24.9023	78.4149	24.9023	78.3024	24.9023	78.5319	24.9023	78.4009	24.9023	78.6569	24.9023	78.5088	24.9023	78.7856	24.9023	78.6223	24.9023	78.913	24.9023	78.7373	24.9023	79.0341	24.9023	78.8502	24.9023	79.1437	24.9023	78.9573	24.9023	79.2375	24.9023	79.0561	24.9023	79.3122	24.9023	79.1446	24.9023	79.3658	24.9023	79.2217	24.9023	79.3979	24.9023	79.2867	24.9023	79.4094	24.9023	79.339	24.9023	79.402	24.9023	79.3779
26.3672	79.6688	26.3672	79.6573	26.3672	79.7007	26.3672	79.6665	26.3672	79.7525	26.3672	79.6961	26.3672	79.8229	26.3672	79.745	26.3672	79.9101	26.3672	79.8119	26.3672	80.0118	26.3672	79.8945	26.3672	80.1249	26.3672	79.9902	26.3672	80.2456	26.3672	80.0957	26.3672	80.3698	26.3672	80.207	26.3672	80.4924	26.3672	80.3202	26.3672	80.6084	26.3672	80.4311	26.3672	80.7128	26.3672	80.5358	26.3672	80.8013	26.3672	80.6314	26.3672	80.8707	26.3672	80.7157	26.3672	80.9197	26.3672	80.7877	26.3672	80.9482	26.3672	80.8472	26.3672	80.9579	26.3672	80.8943	26.3672	80.9508	26.3672	80.9291
27.832	80.7302	27.832	80.719	27.832	80.7619	27.832	80.7283	27.832	80.8132	27.832	80.7577	27.832	80.8831	27.832	80.8064	27.832	80.9695	27.832	80.8729	27.832	81.0703	27.832	80.9551	27.832	81.1823	27.832	81.0501	27.832	81.302	27.832	81.1549	27.832	81.425	27.832	81.2654	27.832	81.5468	27.832	81.3777	27.832	81.6624	27.832	81.4877	27.832	81.767	27.832	81.5917	27.832	81.8564	27.832	81.687	27.832	81.9273	27.832	81.7715	27.832	81.9781	27.832	81.8444	27.832	82.0083	27.832	81.9053	27.832	82.0191	27.832	81.954	27.832	82.0123	27.832	81.9901
29.2969	81.8675	29.2969	81.8549	29.2969	81.9004	29.2969	81.8629	29.2969	81.9529	29.2969	81.891	29.2969	82.0237	29.2969	81.9385	29.2969	82.1111	29.2969	82.004	29.2969	82.2126	29.2969	82.0854	29.2969	82.3251	29.2969	82.1802	29.2969	82.4452	29.2969	82.285	29.2969	82.5685	29.2969	82.3962	29.2969	82.6905	29.2969	82.5096	29.2969	82.8061	29.2969	82.6211	29.2969	82.9107	29.2969	82.7268	29.2969	83.0001	29.2969	82.824	29.2969	83.071	29.2969	82.9103	29.2969	83.1218	29.2969	82.9849	29.2969	83.1521	29.2969	83.0472	29.2969	83.163	29.2969	83.0969	29.2969	83.1561	29.2969	83.1336
30.7617	82.9005	30.7617	82.8889	30.7617	82.9319	30.7617	82.8972	30.7617	82.9822	30.7617	82.9253	30.7617	83.0504	30.7617	82.9723	30.7617	83.1347	30.7617	83.037	30.7617	83.2329	30.7617	83.1174	30.7617	83.3422	30.7617	83.2111	30.7617	83.4591	30.7617	83.3148	30.7617	83.5796	30.7617	83.4249	30.7617	83.6993	30.7617	83.5373	30.7617	83.8135	30.7617	83.6479	30.7617	83.9175	30.7617	83.7531	30.7617	84.0071	30.7617	83.8496	30.7617	84.0792	30.7617	83.9353	30.7617	84.1318	30.7617	84.0091	30.7617	84.1644	30.7617	84.0702	30.7617	84.1778	30.7617	84.1184	30.7617	84.1734	30.7617	84.1531
32.2266	83.7799	32.2266	83.77	32.2266	83.8095	32.2266	83.7801	32.2266	83.8581	32.2266	83.8098	32.2266	83.9248	32.2266	83.8583	32.2266	84.0077	32.2266	83.9243	32.2266	84.1048	32.2266	84.006	32.2266	84.2132	32.2266	84.1007	32.2266	84.3295	32.2266	84.2053	32.2266	84.4498	32.2266	84.3162	32.2266	84.5695	32.2266	84.4294	32.2266	84.6842	32.2266	84.5408	32.2266	84.7891	32.2266	84.6467	32.2266	84.8804	32.2266	84.7439	32.2266	84.9547	32.2266	84.83	32.2266	85.0102	32.2266	84.9038	32.2266	85.046	32.2266	84.9643	32.2266	85.0627	32.2266	85.0112	32.2266	85.0615	32.2266	85.0439
33.6914	84.5298	33.6914	84.5193	33.6914	84.5594	33.6914	84.528	33.6914	84.6073	33.6914	84.5558	33.6914	84.6726	33.6914	84.6019	33.6914	84.7538	33.6914	84.6653	33.6914	84.8489	33.6914	84.7443	33.6914	84.9552	33.6914	84.8365	33.6914	85.0696	33.6914	84.939	33.6914	85.1884	33.6914	85.0484	33.6914	85.3072	33.6914	85.1608	33.6914	85.4216	33.6914	85.2723	33.6914	85.5269	33.6914	85.3792	33.6914	85.6192	33.6914	85.4781	33.6914	85.6949	33.6914	85.5666	33.6914	85.752	33.6914	85.6428	33.6914	85.7894	33.6914	85.7058	33.6914	85.8072	33.6914	85.7547	33.6914	85.8065	33.6914	85.7886
35.1562	85.205	35.1562	85.1936	35.1562	85.2352	35.1562	85.201	35.1562	85.2833	35.1562	85.2272	35.1562	85.3486	35.1562	85.2718	35.1562	85.4294	35.1562	85.3335	35.1562	85.524	35.1562	85.411	35.1562	85.6297	35.1562	85.502	35.1562	85.7434	35.1562	85.6037	35.1562	85.8616	35.1562	85.7127	35.1562	85.9799	35.1562	85.8252	35.1562	86.0938	35.1562	85.9372	35.1562	86.1989	35.1562	86.0449	35.1562	86.291	35.1562	86.1449	35.1562	86.3667	35.1562	86.2347	35.1562	86.4239	35.1562	86.3122	35.1562	86.4614	35.1562	86.3763	35.1562	86.4794	35.1562	86.426	35.1562	86.4787	35.1562	86.4605
36.6211	85.7414	36.6211	85.7289	36.6211	85.7723	36.6211	85.735	36.6211	85.8209	36.6211	85.7598	36.6211	85.8862	36.6211	85.8027	36.6211	85.9668	36.6211	85.863	36.6211	86.0608	36.6211	85.939	36.6211	86.1659	36.6211	86.0287	36.6211	86.2789	36.6211	86.1295	36.6211	86.3962	36.6211	86.2379	36.6211	86.5138	36.6211	86.3502	36.6211	86.6272	36.6211	86.4625	36.6211	86.732	36.6211	86.5708	36.6211	86.8239	36.6211	86.6717	36.6211	86.8996	36.6211	86.7625	36.6211	86.9568	36.6211	86.8411	36.6211	86.9944	36.6211	86.9063	36.6211	87.0122	36.6211	86.957	36.6211	87.0111	36.6211	86.9923
38.0859	86.2412	38.0859	86.2293	38.0859	86.2712	38.0859	86.2358	38.0859	86.3187	38.0859	86.2608	38.0859	86.3827	38.0859	86.3038	38.0859	86.4618	38.0859	86.364	38.0859	86.5542	38.0859	86.44	38.0859	86.6576	38.0859	86.5296	38.0859	86.769	38.0859	86.6303	38.0859	86.8849	38.0859	86.7387	38.0859	87.0013	38.0859	86.8509	38.0859	87.1139	38.0859	86.9631	38.0859	87.2183	38.0859	87.0713	38.0859	87.3105	38.0859	87.1721	38.0859	87.3871	38.0859	87.2627	38.0859	87.4457	38.0859	87.341	38.0859	87.4851	38.0859	87.4055	38.0859	87.5049	38.0859	87.4551	38.0859	87.5059	38.0859	87.4889
39.5508	86.6921	39.5508	86.6807	39.5508	86.721	39.5508	86.6874	39.5508	86.767	39.5508	86.712	39.5508	86.8291	39.5508	86.7544	39.5508	86.906	39.5508	86.8137	39.5508	86.9961	39.5508	86.8887	39.5508	87.0973	39.5508	86.9775	39.5508	87.2067	39.5508	87.0774	39.5508	87.321	39.5508	87.1852	39.5508	87.4363	39.5508	87.2973	39.5508	87.5485	39.5508	87.4096	39.5508	87.6532	39.5508	87.5184	39.5508	87.7465	39.5508	87.6199	39.5508	87.8249	39.5508	87.7114	39.5508	87.8858	39.5508	87.7904	39.5508	87.9277	39.5508	87.8553	39.5508	87.95	39.5508	87.9047	39.5508	87.9531	39.5508	87.9377
41.0156	87.0713	41.0156	87.0615	41.0156	87.0984	41.0156	87.0696	41.0156	87.1425	41.0156	87.0956	41.0156	87.2027	41.0156	87.1392	41.0156	87.2777	41.0156	87.1996	41.0156	87.3661	41.0156	87.2756	41.0156	87.4658	41.0156	87.3653	41.0156	87.5741	41.0156	87.466	41.0156	87.6877	41.0156	87.5747	41.0156	87.8029	41.0156	87.6874	41.0156	87.9156	41.0156	87.8003	41.0156	88.0214	41.0156	87.9094	41.0156	88.1163	41.0156	88.0111	41.0156	88.1968	41.0156	88.1024	41.0156	88.2603	41.0156	88.1808	41.0156	88.305	41.0156	88.2445	41.0156	88.3302	41.0156	88.2924	41.0156	88.3361	41.0156	88.3232
42.4805	87.371	42.4805	87.3631	42.4805	87.3958	42.4805	87.3726	42.4805	87.4372	42.4805	87.3994	42.4805	87.4944	42.4805	87.4433	42.4805	87.5663	42.4805	87.5037	42.4805	87.6516	42.4805	87.5792	42.4805	87.7482	42.4805	87.6682	42.4805	87.8538	42.4805	87.7681	42.4805	87.9652	42.4805	87.8758	42.4805	88.0789	42.4805	87.9878	42.4805	88.1908	42.4805	88.1001	42.4805	88.2968	42.4805	88.2088	42.4805	88.3929	42.4805	88.3102	42.4805	88.4755	42.4805	88.4012	42.4805	88.5418	42.4805	88.4791	42.4805	88.5898	42.4805	88.542	42.4805	88.6185	42.4805	88.5885	42.4805	88.6275	42.4805	88.6173
43.9453	87.6453	43.9453	87.6388	43.9453	87.6681	43.9453	87.649	43.9453	87.7069	43.9453	87.6759	43.9453	87.7609	43.9453	87.7194	43.9453	87.8294	43.9453	87.7789	43.9453	87.911	43.9453	87.8534	43.9453	88.0041	43.9453	87.9412	43.9453	88.1064	43.9453	88.04	43.9453	88.2151	43.9453	88.1469	43.9453	88.3267	43.9453	88.2582	43.9453	88.4374	43.9453	88.3702	43.9453	88.5433	43.9453	88.4788	43.9453	88.6403	43.9453	88.5802	43.9453	88.7247	43.9453	88.6711	43.9453	88.7937	43.9453	88.7486	43.9453	88.8449	43.9453	88.8106	43.9453	88.877	43.9453	88.8555	43.9453	88.8894	43.9453	88.8821
45.4102	87.8416	45.4102	87.8369	45.4102	87.8625	45.4102	87.8486	45.4102	87.899	45.4102	87.8768	45.4102	87.9508	45.4102	87.9213	45.4102	88.017	45.4102	87.9816	45.4102	88.0965	45.4102	88.0567	45.4102	88.1877	45.4102	88.145	45.4102	88.2885	45.4102	88.2441	45.4102	88.3961	45.4102	88.3513	45.4102	88.5073	45.4102	88.4628	45.4102	88.6183	45.4102	88.5749	45.4102	88.725	45.4102	88.6835	45.4102	88.8235	45.4102	88.7848	45.4102	88.91	45.4102	88.8753	45.4102	88.9815	45.4102	88.9521	45.4102	89.0355	45.4102	89.0131	45.4102	89.0704	45.4102	89.0564	45.4102	89.0856	45.4102	89.0808
46.875	88.0368	46.875	88.0324	46.875	88.057	46.875	88.044	46.875	88.0926	46.875	88.0718	46.875	88.1432	46.875	88.1156	46.875	88.2081	46.875	88.175	46.875	88.2862	46.875	88.2493	46.875	88.3763	46.875	88.3369	46.875	88.4762	46.875	88.4357	46.875	88.5833	46.875	88.5428	46.875	88.6944	46.875	88.6549	46.875	88.8057	46.875	88.7679	46.875	88.9133	46.875	88.8778	46.875	89.0131	46.875	88.9806	46.875	89.1012	46.875	89.0725	46.875	89.1745	46.875	89.1506	46.875	89.2303	46.875	89.2123	46.875	89.2671	46.875	89.2558	46.875	89.2837	46.875	89.2798
48.3398	88.1809	48.3398	88.1754	48.3398	88.2018	48.3398	88.1856	48.3398	88.2378	48.3398	88.2117	48.3398	88.2885	48.3398	88.2537	48.3398	88.3531	48.3398	88.3114	48.3398	88.4309	48.3398	88.384	48.3398	88.5205	48.3398	88.4704	48.3398	88.62	48.3398	88.5683	48.3398	88.727	48.3398	88.6753	48.3398	88.8382	48.3398	88.7877	48.3398	88.9501	48.3398	88.9017	48.3398	89.0586	48.3398	89.0132	48.3398	89.1595	48.3398	89.1181	48.3398	89.2489	48.3398	89.2126	48.3398	89.3234	48.3398	89.2933	48.3398	89.3802	48.3398	89.3576	48.3398	89.4174	48.3398	89.4033	48.3398	89.4338	48.3398	89.429
51.2695	88.4249	51.2695	88.4197	51.2695	88.4448	51.2695	88.4293	51.2695	88.479	51.2695	88.4543	51.2695	88.5272	51.2695	88.4946	51.2695	88.5889	51.2695	88.5504	51.2695	88.6635	51.2695	88.6211	51.2695	88.7499	51.2695	88.7055	51.2695	88.8465	51.2695	88.802	51.2695	88.951	51.2695	88.9078	51.2695	89.0607	51.2695	89.0198	51.2695	89.1718	51.2695	89.134	51.2695	89.2805	51.2695	89.2463	51.2695	89.3826	51.2695	89.3524	51.2695	89.4741	51.2695	89.4483	51.2695	89.5513	51.2695	89.5305	51.2695	89.6111	51.2695	89.5958	51.2695	89.6513	51.2695	89.6418	51.2695	89.6701	51.2695	89.6669
52.7344	88.5217	52.7344	88.5167	52.7344	88.5406	52.7344	88.5261	52.7344	88.5734	52.7344	88.5502	52.7344	88.6197	52.7344	88.5892	52.7344	88.6792	52.7344	88.6433	52.7344	88.7516	52.7344	88.7122	52.7344	88.8359	52.7344	88.7949	52.7344	88.9306	52.7344	88.8899	52.7344	89.0337	52.7344	88.9946	52.7344	89.1424	52.7344	89.106	52.7344	89.2533	52.7344	89.2202	52.7344	89.3624	52.7344	89.333	52.7344	89.4655	52.7344	89.4401	52.7344	89.5585	52.7344	89.5373	52.7344	89.6376	52.7344	89.6207	52.7344	89.6993	52.7344	89.6871	52.7344	89.7412	52.7344	89.7337	52.7344	89.7613	52.7344	89.7588
54.1992	88.58	54.1992	88.5752	54.1992	88.5985	54.1992	88.5844	54.1992	88.6304	54.1992	88.608	54.1992	88.6757	54.1992	88.6463	54.1992	88.7342	54.1992	88.6996	54.1992	88.8054	54.1992	88.7676	54.1992	88.8886	54.1992	88.8495	54.1992	88.9825	54.1992	88.9439	54.1992	89.0852	54.1992	89.0484	54.1992	89.1938	54.1992	89.16	54.1992	89.3051	54.1992	89.275	54.1992	89.4151	54.1992	89.389	54.1992	89.5197	54.1992	89.4977	54.1992	89.6145	54.1992	89.5966	54.1992	89.6956	54.1992	89.6818	54.1992	89.7594	54.1992	89.7496	54.1992	89.803	54.1992	89.7971	54.1992	89.8243	54.1992	89.8224
55.6641	88.6409	55.6641	88.6347	55.6641	88.6603	55.6641	88.642	55.6641	88.6928	55.6641	88.6634	55.6641	88.7382	55.6641	88.6993	55.6641	88.7963	55.6641	88.7501	55.6641	88.8668	55.6641	88.8157	55.6641	88.9492	55.6641	88.8956	55.6641	89.0423	55.6641	88.9885	55.6641	89.1441	55.6641	89.0921	55.6641	89.2521	55.6641	89.2036	55.6641	89.363	55.6641	89.3191	55.6641	89.473	55.6641	89.4344	55.6641	89.5777	55.6641	89.5449	55.6641	89.6728	55.6641	89.6461	55.6641	89.7542	55.6641	89.7337	55.6641	89.8183	55.6641	89.8037	55.6641	89.8619	55.6641	89.8533	55.6641	89.8829	55.6641	89.88
58.5938	88.7112	58.5938	88.7026	58.5938	88.7321	58.5938	88.707	58.5938	88.7654	58.5938	88.7249	58.5938	88.8109	58.5938	88.7571	58.5938	88.8687	58.5938	88.8042	58.5938	88.9387	58.5938	88.8666	58.5938	89.0205	58.5938	88.944	58.5938	89.1132	58.5938	89.0354	58.5938	89.2151	58.5938	89.139	58.5938	89.324	58.5938	89.2518	58.5938	89.4364	58.5938	89.3702	58.5938	89.5484	58.5938	89.4898	58.5938	89.6558	58.5938	89.6056	58.5938	89.7539	58.5938	89.7128	58.5938	89.8382	58.5938	89.8064	58.5938	89.9046	58.5938	89.8821	58.5938	89.9495	58.5938	89.9361	58.5938	89.9705	58.5938	89.9661
60.0586	88.7316	60.0586	88.7229	60.0586	88.7523	60.0586	88.7267	60.0586	88.7848	60.0586	88.7435	60.0586	88.8291	60.0586	88.7744	60.0586	88.8855	60.0586	88.82	60.0586	88.954	60.0586	88.8809	60.0586	89.0345	60.0586	88.957	60.0586	89.1261	60.0586	89.0475	60.0586	89.2274	60.0586	89.1506	60.0586	89.3361	60.0586	89.2636	60.0586	89.4491	60.0586	89.3827	60.0586	89.5623	60.0586	89.5035	60.0586	89.6713	60.0586	89.6211	60.0586	89.7713	60.0586	89.7303	60.0586	89.8576	60.0586	89.826	60.0586	89.9259	60.0586	89.9036	60.0586	89.9723	60.0586	89.9591	60.0586	89.9941	60.0586	89.9897
62.9883	88.7732	62.9883	88.7633	62.9883	88.7942	62.9883	88.7649	62.9883	88.826	62.9883	88.7789	62.9883	88.869	62.9883	88.8065	62.9883	88.9236	62.9883	88.8488	62.9883	88.99	62.9883	88.9066	62.9883	89.0685	62.9883	88.9802	62.9883	89.1586	62.9883	89.0693	62.9883	89.2592	62.9883	89.1723	62.9883	89.3681	62.9883	89.2865	62.9883	89.4823	62.9883	89.4083	62.9883	89.5979	62.9883	89.5331	62.9883	89.7102	62.9883	89.6556	62.9883	89.8141	62.9883	89.7702	62.9883	89.9046	62.9883	89.8713	62.9883	89.9767	62.9883	89.9536	62.9883	90.0261	62.9883	90.0125	62.9883	90.0495	62.9883	90.045
64.4531	88.7807	64.4531	88.7702	64.4531	88.8018	64.4531	88.771	64.4531	88.8335	64.4531	88.784	64.4531	88.876	64.4531	88.8104	64.4531	88.9299	64.4531	88.8516	64.4531	88.9957	64.4531	88.9085	64.4531	89.0737	64.4531	88.9818	64.4531	89.1636	64.4531	89.0709	64.4531	89.2643	64.4531	89.1745	64.4531	89.374	64.4531	89.29	64.4531	89.4894	64.4531	89.4138	64.4531	89.6068	64.4531	89.5411	64.4531	89.7213	64.4531	89.6664	64.4531	89.8277	64.4531	89.784	64.4531	89.9207	64.4531	89.8879	64.4531	89.9951	64.4531	89.9726	64.4531	90.0463	64.4531	90.0332	64.4531	90.0708	64.4531	90.0665
67.3828	88.7525	67.3828	88.7404	67.3828	88.7747	67.3828	88.7391	67.3828	88.807	67.3828	88.7496	67.3828	88.8498	67.3828	88.7736	67.3828	88.9036	67.3828	88.8124	67.3828	88.9693	67.3828	88.8674	67.3828	89.0473	67.3828	88.9396	67.3828	89.1377	67.3828	89.0287	67.3828	89.2396	67.3828	89.1336	67.3828	89.3512	67.3828	89.2519	67.3828	89.4696	67.3828	89.3799	67.3828	89.5908	67.3828	89.5127	67.3828	89.7098	67.3828	89.6446	67.3828	89.8212	67.3828	89.7692	67.3828	89.9191	67.3828	89.8801	67.3828	89.9978	67.3828	89.971	67.3828	90.052	67.3828	90.0365	67.3828	90.0778	67.3828	90.0727
68.8477	88.7574	68.8477	88.744	68.8477	88.7806	68.8477	88.7409	68.8477	88.8133	68.8477	88.7494	68.8477	88.856	68.8477	88.7711	68.8477	88.9094	68.8477	88.8075	68.8477	88.9744	68.8477	88.8604	68.8477	89.0516	68.8477	88.9307	68.8477	89.1412	68.8477	89.0184	68.8477	89.2423	68.8477	89.1225	68.8477	89.3534	68.8477	89.2407	68.8477	89.4716	68.8477	89.3693	68.8477	89.5928	68.8477	89.5034	68.8477	89.7123	68.8477	89.6373	68.8477	89.8244	68.8477	89.7644	68.8477	89.9232	68.8477	89.8779	68.8477	90.0026	68.8477	89.9713	68.8477	90.0572	68.8477	90.039	68.8477	90.0828	68.8477	90.0768
71.7773	88.8184	71.7773	88.8014	71.7773	88.8436	71.7773	88.7931	71.7773	88.8768	71.7773	88.7951	71.7773	88.9185	71.7773	88.8092	71.7773	88.9697	71.7773	88.8374	71.7773	89.0314	71.7773	88.8817	71.7773	89.1047	71.7773	88.9436	71.7773	89.19	71.7773	89.0238	71.7773	89.287	71.7773	89.1217	71.7773	89.3942	71.7773	89.2355	71.7773	89.5092	71.7773	89.3618	71.7773	89.628	71.7773	89.4959	71.7773	89.7457	71.7773	89.6319	71.7773	89.8565	71.7773	89.7629	71.7773	89.9541	71.7773	89.8817	71.7773	90.0321	71.7773	89.9809	71.7773	90.0847	71.7773	90.0543	71.7773	90.1073	71.7773	90.0973
74.707	88.8446	74.707	88.8263	74.707	88.8697	74.707	88.8157	74.707	88.9016	74.707	88.8144	74.707	88.9408	74.707	88.8245	74.707	88.9884	74.707	88.8486	74.707	89.0461	74.707	88.8888	74.707	89.1151	74.707	88.9472	74.707	89.1963	74.707	89.0246	74.707	89.2898	74.707	89.1207	74.707	89.3947	74.707	89.2337	74.707	89.5085	74.707	89.3603	74.707	89.6276	74.707	89.4957	74.707	89.7469	74.707	89.6339	74.707	89.8603	74.707	89.7678	74.707	89.9612	74.707	89.8896	74.707	90.0424	74.707	89.9919	74.707	90.0976	74.707	90.0676	74.707	90.1217	74.707	90.1118
77.6367	88.8185	77.6367	88.8071	77.6367	88.8359	77.6367	88.8024	77.6367	88.8593	77.6367	88.8061	77.6367	88.8896	77.6367	88.8204	77.6367	88.9285	77.6367	88.8479	77.6367	88.9778	77.6367	88.8912	77.6367	89.0396	77.6367	88.9523	77.6367	89.1153	77.6367	89.0322	77.6367	89.2056	77.6367	89.1307	77.6367	89.3098	77.6367	89.246	77.6367	89.4259	77.6367	89.3747	77.6367	89.5502	77.6367	89.512	77.6367	89.6774	77.6367	89.6514	77.6367	89.801	77.6367	89.7854	77.6367	89.9137	77.6367	89.9059	77.6367	90.0076	77.6367	90.0048	77.6367	90.0754	77.6367	90.075	77.6367	90.1111	77.6367	90.1112
79.1016	88.7757	79.1016	88.7675	79.1016	88.7893	79.1016	88.7654	79.1016	88.8086	79.1016	88.7712	79.1016	88.8346	79.1016	88.787	79.1016	88.8691	79.1016	88.8156	79.1016	88.9144	79.1016	88.8596	79.1016	88.9727	79.1016	88.9212	79.1016	89.0457	79.1016	89.0015	79.1016	89.1344	79.1016	89.1006	79.1016	89.2383	79.1016	89.2167	79.1016	89.3555	79.1016	89.3464	79.1016	89.4823	79.1016	89.4847	79.1016	89.6134	79.1016	89.6251	79.1016	89.742	79.1016	89.7597	79.1016	89.8603	79.1016	89.8803	79.1016	89.9602	79.1016	89.9783	79.1016	90.0339	79.1016	90.0464	79.1016	90.075	79.1016	90.0794
82.0312	88.7342	82.0312	88.7279	82.0312	88.7449	82.0312	88.7269	82.0312	88.7606	82.0312	88.7327	82.0312	88.7824	82.0312	88.748	82.0312	88.8125	82.0312	88.7755	82.0312	88.8535	82.0312	88.8183	82.0312	88.908	82.0312	88.8788	82.0312	88.9781	82.0312	88.9588	82.0312	89.0651	82.0312	89.0584	82.0312	89.169	82.0312	89.1761	82.0312	89.2878	82.0312	89.3086	82.0312	89.418	82.0312	89.4507	82.0312	89.5542	82.0312	89.5953	82.0312	89.6893	82.0312	89.7342	82.0312	89.8149	82.0312	89.8582	82.0312	89.9224	82.0312	89.9584	82.0312	90.003	82.0312	90.0268	82.0312	90.0497	82.0312	90.0581
84.9609	88.7324	84.9609	88.7263	84.9609	88.742	84.9609	88.7245	84.9609	88.7556	84.9609	88.7289	84.9609	88.7746	84.9609	88.7422	84.9609	88.8014	84.9609	88.7677	84.9609	88.8389	84.9609	88.8087	84.9609	88.8901	84.9609	88.8682	84.9609	88.9576	84.9609	88.9481	84.9609	89.0432	84.9609	89.0488	84.9609	89.147	84.9609	89.1691	84.9609	89.2676	84.9609	89.3054	84.9609	89.4013	84.9609	89.4524	84.9609	89.5425	84.9609	89.6027	84.9609	89.6839	84.9609	89.7472	84.9609	89.8166	84.9609	89.8762	84.9609	89.9311	84.9609	89.98	84.9609	90.018	84.9609	90.0502	84.9609	90.0696	84.9609	90.0809
87.8906	88.6783	87.8906	88.6732	87.8906	88.6862	87.8906	88.6717	87.8906	88.6973	87.8906	88.6757	87.8906	88.7132	87.8906	88.6882	87.8906	88.7364	87.8906	88.7128	87.8906	88.7702	87.8906	88.7531	87.8906	88.818	87.8906	88.8124	87.8906	88.8828	87.8906	88.8928	87.8906	88.9665	87.8906	88.9949	87.8906	89.0699	87.8906	89.1174	87.8906	89.1916	87.8906	89.2569	87.8906	89.3282	87.8906	89.4077	87.8906	89.4741	87.8906	89.5621	87.8906	89.6217	87.8906	89.7109	87.8906	89.7616	87.8906	89.8436	87.8906	89.8835	87.8906	89.9498	87.8906	89.9774	87.8906	90.0205	87.8906	90.0346	87.8906	90.0496
90.8203	88.5873	90.8203	88.5794	90.8203	88.5963	90.8203	88.5737	90.8203	88.6068	90.8203	88.5723	90.8203	88.6207	90.8203	88.5786	90.8203	88.6407	90.8203	88.5966	90.8203	88.6704	90.8203	88.6305	90.8203	88.7136	90.8203	88.6839	90.8203	88.7739	90.8203	88.7594	90.8203	88.8537	90.8203	88.8582	90.8203	88.9541	90.8203	88.9793	90.8203	89.0743	90.8203	89.1193	90.8203	89.2109	90.8203	89.2727	90.8203	89.3583	90.8203	89.4315	90.8203	89.5085	90.8203	89.5859	90.8203	89.6517	90.8203	89.7248	90.8203	89.7768	90.8203	89.8369	90.8203	89.8729	90.8203	89.9125	90.8203	89.9309	90.8203	89.9447
95.2148	88.5086	95.2148	88.4989	95.2148	88.5178	95.2148	88.4895	95.2148	88.527	95.2148	88.4829	95.2148	88.5383	95.2148	88.4827	95.2148	88.5551	95.2148	88.4934	95.2148	88.5814	95.2148	88.5199	95.2148	88.6214	95.2148	88.5667	95.2148	88.6792	95.2148	88.6372	95.2148	88.7578	95.2148	88.7334	95.2148	88.8584	95.2148	88.8548	95.2148	88.9803	95.2148	88.9986	95.2148	89.1204	95.2148	89.1587	95.2148	89.2729	95.2148	89.3268	95.2148	89.4292	95.2148	89.492	95.2148	89.5789	95.2148	89.6417	95.2148	89.71	95.2148	89.7635	95.2148	89.8107	95.2148	89.8466	95.2148	89.8707	95.2148	89.8834
98.1445	88.5036	98.1445	88.4947	98.1445	88.5102	98.1445	88.4844	98.1445	88.5154	98.1445	88.4754	98.1445	88.5213	98.1445	88.4715	98.1445	88.5315	98.1445	88.4776	98.1445	88.5507	98.1445	88.4989	98.1445	88.5836	98.1445	88.5403	98.1445	88.6347	98.1445	88.6059	98.1445	88.7076	98.1445	88.6979	98.1445	88.8042	98.1445	88.8163	98.1445	88.9241	98.1445	88.9583	98.1445	89.0643	98.1445	89.1184	98.1445	89.2189	98.1445	89.2878	98.1445	89.3791	98.1445	89.4552	98.1445	89.5339	98.1445	89.6078	98.1445	89.6704	98.1445	89.7322	98.1445	89.7758	98.1445	89.8169	98.1445	89.8393	98.1445	89.8537
101.074	88.373	101.074	88.3647	101.074	88.3781	101.074	88.3541	101.074	88.3807	101.074	88.3439	101.074	88.3835	101.074	88.3381	101.074	88.3903	101.074	88.342	101.074	88.4062	101.074	88.3612	101.074	88.4363	101.074	88.4011	101.074	88.4859	101.074	88.466	101.074	88.5586	101.074	88.5586	101.074	88.6567	101.074	88.6793	101.074	88.7799	101.074	88.8253	101.074	88.9251	101.074	88.991	101.074	89.0863	101.074	89.1673	101.074	89.2542	101.074	89.342	101.074	89.4171	101.074	89.5015	101.074	89.5612	101.074	89.6314	101.074	89.6731	101.074	89.7196	101.074	89.741	101.074	89.7573
105.469	88.2877	105.469	88.2766	105.469	88.2945	105.469	88.262	105.469	88.2983	105.469	88.2463	105.469	88.3022	105.469	88.2337	105.469	88.3106	105.469	88.2294	105.469	88.3286	105.469	88.2397	105.469	88.3617	105.469	88.2707	105.469	88.415	105.469	88.3278	105.469	88.492	105.469	88.4148	105.469	88.5948	105.469	88.5333	105.469	88.7229	105.469	88.6814	105.469	88.8729	105.469	88.8536	105.469	89.0386	105.469	89.0405	105.469	89.2105	105.469	89.229	105.469	89.376	105.469	89.4039	105.469	89.521	105.469	89.5494	105.469	89.6311	105.469	89.6519	105.469	89.6938	105.469	89.7015
108.398	88.3159	108.398	88.304	108.398	88.325	108.398	88.2903	108.398	88.332	108.398	88.2777	108.398	88.339	108.398	88.2703	108.398	88.3499	108.398	88.2731	108.398	88.3692	108.398	88.2916	108.398	88.4022	108.398	88.3314	108.398	88.4537	108.398	88.397	108.398	88.5279	108.398	88.4914	108.398	88.6275	108.398	88.6155	108.398	88.7528	108.398	88.7671	108.398	88.9016	108.398	88.9409	108.398	89.068	108.398	89.1277	108.398	89.243	108.398	89.3149	108.398	89.4137	108.398	89.4874	108.398	89.5656	108.398	89.6293	108.398	89.6836	108.398	89.7267	108.398	89.7545	108.398	89.7698
112.793	88.4227	112.793	88.4186	112.793	88.4192	112.793	88.4082	112.793	88.4091	112.793	88.3941	112.793	88.3947	112.793	88.3809	112.793	88.3801	112.793	88.3741	112.793	88.3707	112.793	88.3799	112.793	88.3725	112.793	88.4045	112.793	88.3919	112.793	88.4532	112.793	88.4347	112.793	88.5299	112.793	88.5056	112.793	88.6361	112.793	88.6068	112.793	88.7702	112.793	88.7376	112.793	88.927	112.793	88.8931	112.793	89.0975	112.793	89.0644	112.793	89.2686	112.793	89.2385	112.793	89.4247	112.793	89.3998	112.793	89.5496	112.793	89.5318	112.793	89.6291	112.793	89.6198	112.793	89.6535
117.188	88.4653	117.188	88.4569	117.188	88.463	117.188	88.4387	117.188	88.451	117.188	88.4139	117.188	88.4324	117.188	88.3874	117.188	88.4122	117.188	88.3658	117.188	88.3966	117.188	88.3564	117.188	88.393	117.188	88.3667	117.188	88.4085	117.188	88.4038	117.188	88.4495	117.188	88.4728	117.188	88.521	117.188	88.5764	117.188	88.625	117.188	88.7136	117.188	88.7603	117.188	88.8789	117.188	88.9216	117.188	89.062	117.188	89.0991	117.188	89.2484	117.188	89.2788	117.188	89.4207	117.188	89.4439	117.188	89.561	117.188	89.5767	117.188	89.654	117.188	89.6619	117.188	89.6888
120.117	88.4467	120.117	88.4268	120.117	88.4553	120.117	88.3971	120.117	88.4535	120.117	88.3611	120.117	88.444	120.117	88.3241	120.117	88.4317	120.117	88.2929	120.117	88.4225	120.117	88.2753	120.117	88.4235	120.117	88.2792	120.117	88.4418	120.117	88.3119	120.117	88.4838	120.117	88.3789	120.117	88.5545	120.117	88.4832	120.117	88.6564	120.117	88.6242	120.117	88.7889	120.117	88.7964	120.117	88.9469	120.117	88.9894	120.117	89.1209	120.117	89.1881	120.117	89.2969	120.117	89.3741	120.117	89.4576	120.117	89.5284	120.117	89.585	120.117	89.6344	120.117	89.6629	120.117	89.6806
124.512	88.4564	124.512	88.4295	124.512	88.4695	124.512	88.3901	124.512	88.4697	124.512	88.342	124.512	88.4599	124.512	88.2909	124.512	88.445	124.512	88.244	124.512	88.4317	124.512	88.2101	124.512	88.4274	124.512	88.198	124.512	88.4399	124.512	88.2165	124.512	88.4766	124.512	88.2725	124.512	88.543	124.512	88.3703	124.512	88.6426	124.512	88.5102	124.512	88.7747	124.512	88.6869	124.512	88.9341	124.512	88.8896	124.512	89.1104	124.512	89.102	124.512	89.2884	124.512	89.3041	124.512	89.4496	124.512	89.475	124.512	89.5748	124.512	89.5964	124.512	89.6471	124.512	89.6554
128.906	88.3679	128.906	88.3468	128.906	88.3734	128.906	88.3117	128.906	88.3644	128.906	88.266	128.906	88.3442	128.906	88.2155	128.906	88.3179	128.906	88.1677	128.906	88.2928	128.906	88.1314	128.906	88.277	128.906	88.116	128.906	88.2794	128.906	88.1306	128.906	88.3085	128.906	88.183	128.906	88.3712	128.906	88.2782	128.906	88.4716	128.906	88.4171	128.906	88.6099	128.906	88.5953	128.906	88.7805	128.906	88.8018	128.906	88.972	128.906	89.0196	128.906	89.1673	128.906	89.2276	128.906	89.3457	128.906	89.4033	128.906	89.4859	128.906	89.5269	128.906	89.5693	128.906	89.5841
133.301	88.3373	133.301	88.3381	133.301	88.3184	133.301	88.322	133.301	88.2829	133.301	88.2921	133.301	88.2348	133.301	88.2541	133.301	88.18	133.301	88.2153	133.301	88.1266	133.301	88.1845	133.301	88.084	133.301	88.1713	133.301	88.0626	133.301	88.185	133.301	88.0723	133.301	88.2339	133.301	88.1217	133.301	88.3235	133.301	88.2165	133.301	88.4551	133.301	88.3576	133.301	88.6243	133.301	88.5399	133.301	88.8201	133.301	88.7509	133.301	89.0253	133.301	88.972	133.301	89.218	133.301	89.1802	133.301	89.3753	133.301	89.3515	133.301	89.477	133.301	89.4656	133.301	89.5089
139.16	88.2759	139.16	88.2794	139.16	88.2509	139.16	88.2624	139.16	88.2058	139.16	88.2281	139.16	88.1448	139.16	88.1823	139.16	88.0739	139.16	88.1327	139.16	88.0015	139.16	88.0888	139.16	87.9377	139.16	88.0613	139.16	87.8937	139.16	88.0612	139.16	87.881	139.16	88.0984	139.16	87.9101	139.16	88.1799	139.16	87.9885	139.16	88.3078	139.16	88.1193	139.16	88.4773	139.16	88.2983	139.16	88.6761	139.16	88.5135	139.16	88.8845	139.16	88.7452	139.16	89.0786	139.16	88.9687	139.16	89.2336	139.16	89.1577	139.16	89.3282	139.16	89.2895	139.16	89.3483
143.555	88.1952	143.555	88.1828	143.555	88.1821	143.555	88.1458	143.555	88.145	143.555	88.0877	143.555	88.088	143.555	88.0147	143.555	88.0175	143.555	87.9353	143.555	87.9419	143.555	87.8606	143.555	87.8717	143.555	87.8031	143.555	87.8187	143.555	87.776	143.555	87.795	143.555	87.7917	143.555	87.8121	143.555	87.8594	143.555	87.8787	143.555	87.9828	143.555	87.9984	143.555	88.1573	143.555	88.1676	143.555	88.3696	143.555	88.3741	143.555	88.5979	143.555	88.5975	143.555	88.8154	143.555	88.8121	143.555	88.9946	143.555	88.9906	143.555	89.1119	143.555	89.1093	143.555	89.1518
147.949	88.1432	147.949	88.1192	147.949	88.1374	147.949	88.0669	147.949	88.1033	147.949	87.9903	147.949	88.0446	147.949	87.8958	147.949	87.9678	147.949	87.7928	147.949	87.8814	147.949	87.6928	147.949	87.7966	147.949	87.6094	147.949	87.726	147.949	87.5571	147.949	87.6833	147.949	87.5499	147.949	87.6815	147.949	87.5989	147.949	87.7309	147.949	87.7095	147.949	87.8364	147.949	87.8785	147.949	87.995	147.949	88.0926	147.949	88.1942	147.949	88.3293	147.949	88.4128	147.949	88.5598	147.949	88.6231	147.949	88.7541	147.949	88.7965	147.949	88.8865	147.949	88.9076	147.949	88.9397
153.809	88.1503	153.809	88.1348	153.809	88.1298	153.809	88.0847	153.809	88.0747	153.809	88.0044	153.809	87.989	153.809	87.9005	153.809	87.8796	153.809	87.7825	153.809	87.7561	153.809	87.6626	153.809	87.631	153.809	87.5549	153.809	87.5191	153.809	87.4752	153.809	87.4367	153.809	87.4391	153.809	87.3999	153.809	87.46	153.809	87.4225	153.809	87.5458	153.809	87.5122	153.809	87.6955	153.809	87.6674	153.809	87.8967	153.809	87.8749	153.809	88.1261	153.809	88.1105	153.809	88.3529	153.809	88.3428	153.809	88.5443	153.809	88.5385	153.809	88.6717	153.809	88.6691	153.809	88.7156
159.668	88.1882	159.668	88.1758	159.668	88.1632	159.668	88.1273	159.668	88.102	159.668	88.0471	159.668	88.0091	159.668	87.9422	159.668	87.8918	159.668	87.8226	159.668	87.7601	159.668	87.7008	159.668	87.6268	159.668	87.5916	159.668	87.5073	159.668	87.5115	159.668	87.4184	159.668	87.4768	159.668	87.3772	159.668	87.5015	159.668	87.3988	159.668	87.5936	159.668	87.492	159.668	87.7514	159.668	87.656	159.668	87.9615	159.668	87.8772	159.668	88.1994	159.668	88.13	159.668	88.4328	159.668	88.3806	159.668	88.6277	159.668	88.5933	159.668	88.7547	159.668	88.7377	159.668	88.7938
165.527	88.4016	165.527	88.3692	165.527	88.3948	165.527	88.2994	165.527	88.3501	165.527	88.1965	165.527	88.2712	165.527	88.0676	165.527	88.1645	165.527	87.9225	165.527	88.0391	165.527	87.7742	165.527	87.9068	165.527	87.6381	165.527	87.7816	165.527	87.5319	165.527	87.6797	165.527	87.4739	165.527	87.618	165.527	87.4802	165.527	87.6124	165.527	87.5606	165.527	87.6738	165.527	87.7143	165.527	87.8045	165.527	87.9274	165.527	87.9941	165.527	88.1736	165.527	88.2195	165.527	88.4185	165.527	88.448	165.527	88.6262	165.527	88.6433	165.527	88.766	165.527	88.7738	165.527	88.8174
171.387	88.3197	171.387	88.2707	171.387	88.3227	171.387	88.1773	171.387	88.2811	171.387	88.0435	171.387	88.1986	171.387	87.8766	171.387	88.0819	171.387	87.6872	171.387	87.9405	171.387	87.4895	171.387	87.7872	171.387	87.3017	171.387	87.6378	171.387	87.1452	171.387	87.5109	171.387	87.0433	171.387	87.4263	171.387	87.0169	171.387	87.402	171.387	87.0798	171.387	87.4499	171.387	87.2327	171.387	87.5713	171.387	87.4603	171.387	87.7537	171.387	87.7323	171.387	87.9714	171.387	88.0092	171.387	88.1892	171.387	88.2505	171.387	88.3702	171.387	88.4221	171.387	88.4816	171.387	88.5016
177.246	88.1986	177.246	88.1578	177.246	88.1863	177.246	88.0649	177.246	88.1225	177.246	87.9241	177.246	88.0117	177.246	87.7423	177.246	87.8615	177.246	87.5301	177.246	87.6831	177.246	87.3024	177.246	87.4914	177.246	87.0785	177.246	87.3054	177.246	86.8819	177.246	87.1473	177.246	86.7391	177.246	87.0403	177.246	86.6753	177.246	87.0049	177.246	86.7085	177.246	87.0537	177.246	86.843	177.246	87.186	177.246	87.0648	177.246	87.3854	177.246	87.3424	177.246	87.6211	177.246	87.6329	177.246	87.8541	177.246	87.8913	177.246	88.0441	177.246	88.0793	177.246	88.1571	177.246	88.1711
183.105	87.957	183.105	87.9527	183.105	87.9029	183.105	87.8909	183.105	87.792	183.105	87.7754	183.105	87.629	183.105	87.6129	183.105	87.4221	183.105	87.4137	183.105	87.1832	183.105	87.1923	183.105	86.929	183.105	86.9677	183.105	86.6811	183.105	86.7637	183.105	86.4658	183.105	86.6072	183.105	86.3123	183.105	86.5247	183.105	86.2477	183.105	86.5359	183.105	86.2901	183.105	86.6469	183.105	86.4413	183.105	86.8446	183.105	86.6826	183.105	87.0972	183.105	86.9772	183.105	87.3605	183.105	87.2778	183.105	87.5875	183.105	87.5364	183.105	87.7375	183.105	87.7132	183.105	87.7829
188.965	87.9351	188.965	87.9475	188.965	87.86	188.965	87.8983	188.965	87.7235	188.965	87.7909	188.965	87.5292	188.965	87.6316	188.965	87.284	188.965	87.4302	188.965	86.9982	188.965	87.2005	188.965	86.6872	188.965	86.961	188.965	86.3728	188.965	86.7352	188.965	86.0836	188.965	86.5507	188.965	85.8541	188.965	86.4348	188.965	85.7199	188.965	86.409	188.965	85.7087	188.965	86.4809	188.965	85.8298	188.965	86.6386	188.965	86.0671	188.965	86.8508	188.965	86.3805	188.965	87.073	188.965	86.716	188.965	87.2575	188.965	87.0188	188.965	87.3629	188.965	87.2436	188.965	87.3616
196.289	87.942	196.289	87.901	196.289	87.916	196.289	87.7948	196.289	87.823	196.289	87.6277	196.289	87.6654	196.289	87.4062	196.289	87.4483	196.289	87.1406	196.289	87.1809	196.289	86.8462	196.289	86.8774	196.289	86.5441	196.289	86.5586	196.289	86.2623	196.289	86.2527	196.289	86.0341	196.289	85.9944	196.289	85.8929	196.289	85.8206	196.289	85.8639	196.289	85.7621	196.289	85.9546	196.289	85.8325	196.289	86.1487	196.289	86.0199	196.289	86.4081	196.289	86.287	196.289	86.6815	196.289	86.5805	196.289	86.916	196.289	86.8441	196.289	87.0679	196.289	87.0307	196.289	87.1091
203.613	87.7744	203.613	87.7135	203.613	87.7579	203.613	87.5763	203.613	87.6653	203.613	87.3662	203.613	87.4997	203.613	87.0898	203.613	87.2672	203.613	86.7581	203.613	86.9774	203.613	86.3881	203.613	86.6448	203.613	86.0043	203.613	86.2909	203.613	85.6402	203.613	85.9454	203.613	85.3364	203.613	85.6455	203.613	85.1358	203.613	85.4321	203.613	85.0724	203.613	85.3406	203.613	85.1587	203.613	85.388	203.613	85.377	203.613	85.5626	203.613	85.6821	203.613	85.8239	203.613	86.0122	203.613	86.1134	203.613	86.3049	203.613	86.3692	203.613	86.5084	203.613	86.5396	203.613	86.5902
210.938	87.8966	210.938	87.819	210.938	87.8908	210.938	87.6574	210.938	87.8034	210.938	87.4134	210.938	87.6382	210.938	87.0918	210.938	87.4007	210.938	86.702	210.938	87.1	210.938	86.2602	210.938	86.7499	210.938	85.7919	210.938	86.3709	210.938	85.3341	210.938	85.9921	210.938	84.9353	210.938	85.6513	210.938	84.6498	210.938	85.3911	210.938	84.5243	210.938	85.2501	210.938	84.5803	210.938	85.2492	210.938	84.8013	210.938	85.3799	210.938	85.1354	210.938	85.603	210.938	85.5102	210.938	85.8589	210.938	85.8531	210.938	86.0828	210.938	86.1058	210.938	86.2194	210.938	86.2316
218.262	87.6764	218.262	87.623	218.262	87.6473	218.262	87.4874	218.262	87.5359	218.262	87.2702	218.262	87.3434	218.262	86.9739	218.262	87.0729	218.262	86.6037	218.262	86.7316	218.262	86.171	218.262	86.3332	218.262	85.696	218.262	85.9002	218.262	85.2117	218.262	85.4667	218.262	84.7646	218.262	85.0788	218.262	84.4116	218.262	84.7885	218.262	84.2088	218.262	84.642	218.262	84.1917	218.262	84.6608	218.262	84.3578	218.262	84.8294	218.262	84.6623	218.262	85.0962	218.262	85.0311	218.262	85.3897	218.262	85.3838	218.262	85.6381	218.262	85.6523	218.262	85.7838	218.262	85.7916
225.586	87.4836	225.586	87.4711	225.586	87.4111	225.586	87.374	225.586	87.253	225.586	87.1933	225.586	87.0097	225.586	86.9314	225.586	86.6833	225.586	86.5935	225.586	86.2794	225.586	86.19	225.586	85.8103	225.586	85.7395	225.586	85.2985	225.586	85.2714	225.586	84.7804	225.586	84.8278	225.586	84.309	225.586	84.4605	225.586	83.9485	225.586	84.2222	225.586	83.7586	225.586	84.1485	225.586	83.7697	225.586	84.2415	225.586	83.9649	225.586	84.4633	225.586	84.2833	225.586	84.7467	225.586	84.6423	225.586	85.0155	225.586	84.9624	225.586	85.2035	225.586	85.1821	225.586	85.2654
232.91	87.5199	232.91	87.4872	232.91	87.4589	232.91	87.3629	232.91	87.3023	232.91	87.1488	232.91	87.0482	232.91	86.8474	232.91	86.6965	232.91	86.4628	232.91	86.2495	232.91	86.0036	232.91	85.715	232.91	85.4866	232.91	85.1102	232.91	84.9408	232.91	84.467	232.91	84.4105	232.91	83.8369	232.91	83.9527	232.91	83.2914	232.91	83.6265	232.91	82.9101	232.91	83.4728	232.91	82.7535	232.91	83.4953	232.91	82.8312	232.91	83.6542	232.91	83.093	232.91	83.8791	232.91	83.4491	232.91	84.0905	232.91	83.8031	232.91	84.2197	232.91	84.0766	232.91	84.2207
241.699	87.321	241.699	87.2428	241.699	87.2978	241.699	87.0638	241.699	87.1724	241.699	86.7847	241.699	86.9441	241.699	86.4071	241.699	86.613	241.699	85.9353	241.699	86.1806	241.699	85.3794	241.699	85.6532	241.699	84.7591	241.699	85.0443	241.699	84.1092	241.699	84.3804	241.699	83.4819	241.699	83.7061	241.699	82.9436	241.699	83.0857	241.699	82.5598	241.699	82.5956	241.699	82.3716	241.699	82.3019	241.699	82.3762	241.699	82.2303	241.699	82.5264	241.699	82.35	241.699	82.7484	241.699	82.585	241.699	82.9644	241.699	82.8436	241.699	83.1094	241.699	83.0463	241.699	83.1412
250.488	87.1753	250.488	87.1336	250.488	87.109	250.488	86.9828	250.488	86.9349	250.488	86.7207	250.488	86.6524	250.488	86.345	250.488	86.2615	250.488	85.8555	250.488	85.7646	250.488	85.2573	250.488	85.1705	250.488	84.5672	250.488	84.4991	250.488	83.8201	250.488	83.7871	250.488	83.0749	250.488	83.0912	250.488	82.4115	250.488	82.4843	250.488	81.913	250.488	82.0391	250.488	81.6352	250.488	81.8014	250.488	81.5825	250.488	81.7689	250.488	81.7083	250.488	81.8928	250.488	81.9357	250.488	82.0968	250.488	82.1823	250.488	82.3013	250.488	82.3764	250.488	82.4396	250.488	82.4687
259.277	87.4661	259.277	87.3902	259.277	87.4294	259.277	87.2015	259.277	87.2786	259.277	86.8984	259.277	87.0106	259.277	86.479	259.277	86.6214	259.277	85.9431	259.277	86.1078	259.277	85.2956	259.277	85.4712	259.277	84.5513	259.277	84.7226	259.277	83.7426	259.277	83.89	259.277	82.9276	259.277	83.0273	259.277	82.1907	259.277	82.2174	259.277	81.6267	259.277	81.5616	259.277	81.3044	259.277	81.1466	259.277	81.2322	259.277	81.0046	259.277	81.3546	259.277	81.0987	259.277	81.5799	259.277	81.3417	259.277	81.8101	259.277	81.6291	259.277	81.9632	259.277	81.8661	259.277	81.9867
268.066	87.0704	268.066	86.9899	268.066	87.025	268.066	86.7843	268.066	86.8507	268.066	86.4525	268.066	86.5431	268.066	85.9919	268.066	86.0965	268.066	85.4012	268.066	85.5063	268.066	84.684	268.066	84.7731	268.066	83.8561	268.066	83.9101	268.066	82.9548	268.066	82.9541	268.066	82.0476	268.066	81.9773	268.066	81.2318	268.066	81.0866	268.066	80.6118	268.066	80.397	268.066	80.2553	268.066	79.9822	268.066	80.1588	268.066	79.8429	268.066	80.2552	268.066	79.9205	268.066	80.4476	268.066	80.1315	268.066	80.6398	268.066	80.3898	268.066	80.7551	268.066	80.6162	268.066	80.7489
276.855	86.9514	276.855	86.862	276.855	86.9113	276.855	86.6394	276.855	86.7419	276.855	86.2763	276.855	86.44	276.855	85.7622	276.855	85.9995	276.855	85.086	276.855	85.4116	276.855	84.24	276.855	84.6653	276.855	83.2281	276.855	83.7525	276.855	82.079	276.855	82.6817	276.855	80.8651	276.855	81.5016	276.855	79.7175	276.855	80.3313	276.855	78.8098	276.855	79.3615	276.855	78.2832	276.855	78.7715	276.855	78.1627	276.855	78.5981	276.855	78.3546	276.855	78.7259	276.855	78.715	276.855	78.9978	276.855	79.102	276.855	79.2849	276.855	79.4004	276.855	79.488	276.855	79.5364
287.109	87.2432	287.109	87.1576	287.109	87.1938	287.109	86.9355	287.109	87.0064	287.109	86.5727	287.109	86.6744	287.109	86.0621	287.109	86.1889	287.109	85.3955	287.109	85.5419	287.109	84.5654	287.109	84.7286	287.109	83.5699	287.109	83.7481	287.109	82.4213	287.109	82.6035	287.109	81.1601	287.109	81.3073	287.109	79.8715	287.109	79.9017	287.109	78.6938	287.109	78.4928	287.109	77.7877	287.109	77.2754	287.109	77.2532	287.109	76.4783	287.109	77.0633	287.109	76.211	287.109	77.0959	287.109	76.3689	287.109	77.2127	287.109	76.7223	287.109	77.297	287.109	77.0603	287.109	77.2609
297.363	86.9662	297.363	86.94	297.363	86.8721	297.363	86.7917	297.363	86.6509	297.363	86.5114	297.363	86.2875	297.363	86.0828	297.363	85.7598	297.363	85.4857	297.363	85.0426	297.363	84.6997	297.363	84.1158	297.363	83.7088	297.363	82.9772	297.363	82.5065	297.363	81.6574	297.363	81.1036	297.363	80.2272	297.363	79.534	297.363	78.785	297.363	77.8529	297.363	77.4193	297.363	76.1229	297.363	76.1736	297.363	74.4067	297.363	75.0499	297.363	72.8029	297.363	74.0389	297.363	71.5039	297.363	73.1335	297.363	70.7469	297.363	72.3196	297.363	70.6172	297.363	71.5853	297.363	70.9701
307.617	86.8206	307.617	86.7221	307.617	86.7887	307.617	86.491	307.617	86.626	307.617	86.1225	307.617	86.3293	307.617	85.6098	307.617	85.8929	307.617	84.9454	307.617	85.3066	307.617	84.1233	307.617	84.5546	307.617	83.1428	307.617	83.6163	307.617	82.0148	307.617	82.4729	307.617	80.7692	307.617	81.1213	307.617	79.4587	307.617	79.5922	307.617	78.1542	307.617	77.965	307.617	76.9289	307.617	76.3656	307.617	75.8472	307.617	74.9431	307.617	74.9662	307.617	73.8379	307.617	74.3218	307.617	73.151	307.617	73.8839	307.617	72.9001	307.617	73.5533	307.617	72.9874	307.617	73.248
319.336	86.7105	319.336	86.6191	319.336	86.6368	319.336	86.3647	319.336	86.3939	319.336	85.9456	319.336	85.9768	319.336	85.3551	319.336	85.3816	319.336	84.5829	319.336	84.6066	319.336	83.6186	319.336	83.6568	319.336	82.4596	319.336	82.5485	319.336	81.1227	319.336	81.3183	319.336	79.654	319.336	80.0275	319.336	78.1304	319.336	78.7508	319.336	76.6332	319.336	77.5356	319.336	75.1993	319.336	76.356	319.336	73.8038	319.336	75.1212	319.336	72.4205	319.336	73.7546	319.336	71.1254	319.336	72.2984	319.336	70.125	319.336	70.9673	319.336	69.6075	319.336	70.0309	319.336	69.5871
329.59	86.4492	329.59	86.3703	329.59	86.3879	329.59	86.1515	329.59	86.1788	329.59	85.7856	329.59	85.8086	329.59	85.2591	329.59	85.2608	329.59	84.5552	329.59	84.5182	329.59	83.6607	329.59	83.567	329.59	82.5746	329.59	82.402	329.59	81.3187	329.59	81.0347	329.59	79.942	329.59	79.5033	329.59	78.5097	329.59	77.8746	329.59	77.0713	329.59	76.2212	329.59	75.6229	329.59	74.5671	329.59	74.0982	329.59	72.8531	329.59	72.4016	329.59	70.983	329.59	70.4761	329.59	68.9496	329.59	68.4047	329.59	66.9895	329.59	66.5354	329.59	65.643	329.59	65.4626
341.309	86.4162	341.309	86.3271	341.309	86.3257	341.309	86.0571	341.309	86.0528	341.309	85.6005	341.309	85.5921	341.309	84.9483	341.309	84.9379	341.309	84.0901	341.309	84.0897	341.309	83.0188	341.309	83.0596	341.309	81.7397	341.309	81.8853	341.309	80.2863	341.309	80.6453	341.309	78.7359	341.309	79.4571	341.309	77.2014	341.309	78.4226	341.309	75.7679	341.309	77.5343	341.309	74.406	341.309	76.6458	341.309	72.9716	341.309	75.5499	341.309	71.3113	341.309	74.0718	341.309	69.3841	341.309	72.1236	341.309	67.3929	341.309	69.7745	341.309	65.9364	341.309	67.4093	341.309	65.8676
353.027	86.3696	353.027	86.2616	353.027	86.2922	353.027	85.9712	353.027	86.0208	353.027	85.4975	353.027	85.5417	353.027	84.8397	353.027	84.8365	353.027	84.0009	353.027	83.8829	353.027	82.9939	353.027	82.6557	353.027	81.8466	353.027	81.1326	353.027	80.6081	353.027	79.3128	353.027	79.3451	353.027	77.2677	353.027	78.1121	353.027	75.2287	353.027	76.9004	353.027	73.5955	353.027	75.616	353.027	72.6134	353.027	74.1359	353.027	72.0691	353.027	72.4305	353.027	71.6133	353.027	70.7355	353.027	71.1073	353.027	69.6065	353.027	70.5914	353.027	69.371	353.027	70.1167	353.027	69.6768
366.211	86.4875	366.211	86.3511	366.211	86.4265	366.211	86.0111	366.211	86.1705	366.211	85.4575	366.211	85.715	366.211	84.6771	366.211	85.0467	366.211	83.6563	366.211	84.1444	366.211	82.3967	366.211	82.9888	366.211	80.9477	366.211	81.5795	366.211	79.4523	366.211	79.9557	366.211	78.1388	366.211	78.2063	366.211	77.1548	366.211	76.455	366.211	76.3828	366.211	74.8165	366.211	75.5548	366.211	73.3623	366.211	74.5174	366.211	72.1674	366.211	73.3942	366.211	71.4195	366.211	72.5945	366.211	71.3474	366.211	72.4251	366.211	71.8375	366.211	72.6266	366.211	72.4186	366.211	72.7078
379.395	86.8951	379.395	86.799	379.395	86.8075	379.395	86.5112	379.395	86.5376	379.395	86.0185	379.395	86.0813	379.395	85.306	379.395	85.4342	379.395	84.3635	379.395	84.5969	379.395	83.1922	379.395	83.5773	379.395	81.8133	379.395	82.3924	379.395	80.2717	379.395	81.0706	379.395	78.6347	379.395	79.6514	379.395	76.9844	379.395	78.1609	379.395	75.4224	379.395	76.569	379.395	74.1011	379.395	74.8096	379.395	73.2532	379.395	73.0047	379.395	73.0904	379.395	71.8662	379.395	73.5429	379.395	72.1721	379.395	74.2261	379.395	73.3111	379.395	74.7292	379.395	74.3092	379.395	74.794
392.578	86.3914	392.578	86.2826	392.578	86.3075	392.578	85.9868	392.578	86.0181	392.578	85.5006	392.578	85.5117	392.578	84.8158	392.578	84.7895	392.578	83.9349	392.578	83.8814	392.578	82.8942	392.578	82.8623	392.578	81.7853	392.578	81.8513	392.578	80.7396	392.578	80.9593	392.578	79.8338	392.578	80.1936	392.578	78.9849	392.578	79.4263	392.578	77.9845	392.578	78.4727	392.578	76.6687	392.578	77.1991	392.578	75.1544	392.578	75.6511	392.578	74.1095	392.578	74.3016	392.578	74.2614	392.578	74.0032	392.578	75.1548	392.578	74.7649	392.578	75.9022	392.578	75.663	392.578	76.0964
405.762	86.8658	405.762	86.7467	405.762	86.737	405.762	86.3846	405.762	86.3505	405.762	85.7837	405.762	85.6905	405.762	84.9549	405.762	84.7433	405.762	83.93	405.762	83.5183	405.762	82.7847	405.762	82.1001	405.762	81.6637	405.762	80.7357	405.762	80.7491	405.762	79.8279	405.762	80.111	405.762	79.5683	405.762	79.5772	405.762	79.6326	405.762	78.8343	405.762	79.548	405.762	77.6328	405.762	79.051	405.762	75.9963	405.762	78.1371	405.762	74.6343	405.762	77.1129	405.762	74.743	405.762	76.5774	405.762	75.9451	405.762	76.8039	405.762	77.0097	405.762	77.295	405.762	77.4579
420.41	86.5164	420.41	86.3697	420.41	86.4322	420.41	85.992	420.41	86.1211	420.41	85.386	420.41	85.5909	420.41	84.5582	420.41	84.8545	420.41	83.5281	420.41	83.9302	420.41	82.3557	420.41	82.8444	420.41	81.184	420.41	81.6384	420.41	80.2395	420.41	80.3784	420.41	79.6771	420.41	79.1552	420.41	79.3914	420.41	78.0454	420.41	79.109	420.41	77.0701	420.41	78.6355	420.41	76.2759	420.41	77.9913	420.41	75.9182	420.41	77.4561	420.41	76.306	420.41	77.4154	420.41	77.2538	420.41	77.9056	420.41	78.213	420.41	78.5316	420.41	78.8037	420.41	78.8974
435.059	86.3672	435.059	86.271	435.059	86.2417	435.059	85.9517	435.059	85.8914	435.059	85.4052	435.059	85.3138	435.059	84.6375	435.059	84.5223	435.059	83.6862	435.059	83.574	435.059	82.6453	435.059	82.6012	435.059	81.6678	435.059	81.8002	435.059	80.9018	435.059	81.3029	435.059	80.3661	435.059	81.0215	435.059	79.904	435.059	80.7025	435.059	79.2956	435.059	80.1214	435.059	78.431	435.059	79.2046	435.059	77.4965	435.059	78.1113	435.059	77.0654	435.059	77.3156	435.059	77.5287	435.059	77.3439	435.059	78.4325	435.059	78.0744	435.059	79.1224	435.059	78.8761	435.059	79.284
451.172	86.6922	451.172	86.5174	451.172	86.6085	451.172	86.0872	451.172	86.2663	451.172	85.4172	451.172	85.668	451.172	84.5514	451.172	84.8311	451.172	83.5836	451.172	83.8191	451.172	82.6714	451.172	82.7738	451.172	81.9908	451.172	81.894	451.172	81.598	451.172	81.2995	451.172	81.3403	451.172	80.9008	451.172	80.9659	451.172	80.4737	451.172	80.3109	451.172	79.8453	451.172	79.4496	451.172	79.0589	451.172	78.8378	451.172	78.5488	451.172	79.0971	451.172	78.939	451.172	80.1634	451.172	80.1236	451.172	81.3598	451.172	81.3765	451.172	82.2014	451.172	82.2218	451.172	82.5043
465.82	86.954	465.82	86.7564	465.82	86.8569	465.82	86.2685	465.82	86.4625	465.82	85.5077	465.82	85.7751	465.82	84.5348	465.82	84.8317	465.82	83.5076	465.82	83.7577	465.82	82.7176	465.82	82.8259	465.82	82.4445	465.82	82.3622	465.82	82.6238	465.82	82.3997	465.82	82.8608	465.82	82.5741	465.82	82.7714	465.82	82.4617	465.82	82.1241	465.82	81.7948	465.82	80.8358	465.82	80.4967	465.82	79.126	465.82	78.8659	465.82	78.0066	465.82	77.9865	465.82	78.5998	465.82	78.7277	465.82	80.0273	465.82	80.1158	465.82	81.1101	465.82	81.1405	465.82	81.4926
483.398	87.0123	483.398	86.88	483.398	86.8564	483.398	86.4476	483.398	86.4275	483.398	85.7115	483.398	85.7444	483.398	84.6993	483.398	84.84	483.398	83.5204	483.398	83.7978	483.398	82.4294	483.398	82.8188	483.398	81.7738	483.398	82.2088	483.398	81.6849	483.398	82.1089	483.398	81.8823	483.398	82.2715	483.398	81.9516	483.398	82.3074	483.398	81.6216	483.398	81.9656	483.398	80.842	483.398	81.2005	483.398	79.8971	483.398	80.2708	483.398	79.5207	483.398	79.8511	483.398	80.1842	483.398	80.402	483.398	81.3006	483.398	81.4115	483.398	82.1558	483.398	82.1985	483.398	82.4699
499.512	87.1905	499.512	87.0521	499.512	87.0433	499.512	86.6332	499.512	86.6071	499.512	85.9386	499.512	85.8924	499.512	84.995	499.512	84.9471	499.512	83.9093	499.512	83.8987	499.512	82.9349	499.512	82.9984	499.512	82.388	499.512	82.5367	499.512	82.3142	499.512	82.5411	499.512	82.3785	499.512	82.674	499.512	82.1846	499.512	82.5293	499.512	81.4929	499.512	81.8549	499.512	80.2887	499.512	80.6314	499.512	79.036	499.512	79.3023	499.512	78.8581	499.512	78.9686	499.512	80.037	499.512	80.0271	499.512	81.4676	499.512	81.4317	499.512	82.4329	499.512	82.4114	499.512	82.7548
517.09	87.5057	517.09	87.3435	517.09	87.3758	517.09	86.8967	517.09	86.9532	517.09	86.1954	517.09	86.2614	517.09	85.3266	517.09	85.4057	517.09	84.4678	517.09	84.6314	517.09	83.8762	517.09	84.2409	517.09	83.7347	517.09	84.3086	517.09	83.9357	517.09	84.5719	517.09	84.1257	517.09	84.6736	517.09	83.941	517.09	84.3421	517.09	83.1199	517.09	83.4009	517.09	81.5425	517.09	81.7905	517.09	79.5394	517.09	79.8664	517.09	78.7774	517.09	79.1005	517.09	80.3636	517.09	80.4376	517.09	82.386	517.09	82.2964	517.09	83.68	517.09	83.5882	517.09	84.0704
536.133	87.7374	536.133	87.5718	536.133	87.5626	536.133	87.0589	536.133	87.0524	536.133	86.2146	536.133	86.2085	536.133	85.1364	536.133	85.0683	536.133	84.1068	536.133	83.8329	536.133	83.6025	536.133	83.0314	536.133	83.8702	536.133	83.1828	536.133	84.5373	536.133	83.9904	536.133	85.0354	536.133	84.7208	536.133	85.003	536.133	84.9091	536.133	84.2664	536.133	84.3404	536.133	82.7571	536.133	82.9112	536.133	80.6338	536.133	80.7441	536.133	79.0155	536.133	78.9868	536.133	79.6563	536.133	79.5913	536.133	81.4254	536.133	81.391	536.133	82.7132	536.133	82.6972	536.133	83.1456
555.176	87.82	555.176	87.757	555.176	87.5851	555.176	87.3612	555.176	87.0847	555.176	86.6064	555.176	86.3468	555.176	85.508	555.176	85.4081	555.176	84.2165	555.176	84.3869	555.176	83.1821	555.176	83.617	555.176	83.0385	555.176	83.5371	555.176	83.7799	555.176	84.0982	555.176	84.6721	555.176	84.7316	555.176	85.0775	555.176	84.9472	555.176	84.6366	555.176	84.4721	555.176	83.1234	555.176	83.1349	555.176	80.492	555.176	80.9556	555.176	77.9048	555.176	79.0034	555.176	78.5741	555.176	79.5565	555.176	80.9259	555.176	81.4602	555.176	82.5534	555.176	82.7884	555.176	83.1615
574.219	87.8801	574.219	87.668	574.219	87.7876	574.219	87.1987	574.219	87.3441	574.219	86.506	574.219	86.5551	574.219	85.651	574.219	85.5465	574.219	84.8041	574.219	84.6118	574.219	84.2726	574.219	84.1258	574.219	84.2879	574.219	84.2606	574.219	84.6997	574.219	84.8106	574.219	85.1038	574.219	85.3522	574.219	85.1566	574.219	85.4747	574.219	84.6278	574.219	84.8737	574.219	83.3298	574.219	83.3395	574.219	81.2188	574.219	80.8136	574.219	79.237	574.219	78.2145	574.219	79.6435	574.219	78.5081	574.219	81.4392	574.219	80.7472	574.219	82.6937	574.219	82.3928	574.219	83.0259
594.727	87.8438	594.727	87.6973	594.727	87.6604	594.727	87.1993	594.727	87.1726	594.727	86.3561	594.727	86.3918	594.727	85.2329	594.727	85.3674	594.727	84.082	594.727	84.3675	594.727	83.5376	594.727	83.9852	594.727	84.1112	594.727	84.5078	594.727	85.282	594.727	85.3851	594.727	86.2378	594.727	85.9918	594.727	86.5631	594.727	86.0366	594.727	86.0811	594.727	85.3856	594.727	84.6843	594.727	83.9184	594.727	82.3396	594.727	81.6013	594.727	79.5763	594.727	79.2808	594.727	78.8372	594.727	79.4521	594.727	80.6976	594.727	81.3511	594.727	82.4113	594.727	82.7266	594.727	83.0967
615.234	88.2106	615.234	88.1345	615.234	88.0177	615.234	87.763	615.234	87.5613	615.234	87.0853	615.234	86.8248	615.234	86.146	615.234	85.8102	615.234	85.0639	615.234	84.6495	615.234	84.0831	615.234	83.7711	615.234	83.6355	615.234	83.7276	615.234	83.9794	615.234	84.4479	615.234	84.6857	615.234	85.274	615.234	85.0973	615.234	85.6763	615.234	84.8246	615.234	85.3812	615.234	83.675	615.234	84.2231	615.234	81.5387	615.234	82.1182	615.234	78.8169	615.234	79.5015	615.234	78.0942	615.234	78.5507	615.234	80.127	615.234	80.1386	615.234	81.8622	615.234	81.7769	615.234	82.4106
637.207	88.2321	637.207	88.0571	637.207	88.1347	637.207	87.6322	637.207	87.7155	637.207	86.9265	637.207	86.9489	637.207	85.9268	637.207	85.8636	637.207	84.7991	637.207	84.5971	637.207	84.0092	637.207	83.5667	637.207	84.0535	637.207	83.4598	637.207	84.8466	637.207	84.3499	637.207	85.7811	637.207	85.444	637.207	86.2677	637.207	86.0375	637.207	85.9199	637.207	85.7603	637.207	84.5013	637.207	84.4421	637.207	82.0108	637.207	82.1448	637.207	79.6446	637.207	79.7388	637.207	80.1082	637.207	79.4981	637.207	82.0238	637.207	81.2067	637.207	83.2845	637.207	82.7797	637.207	83.5241
659.18	88.3733	659.18	88.2975	659.18	88.1874	659.18	87.9741	659.18	87.7763	659.18	87.459	659.18	87.1933	659.18	86.7861	659.18	86.4957	659.18	85.975	659.18	85.7625	659.18	85.1689	659.18	85.1283	659.18	84.6608	659.18	84.7918	659.18	84.615	659.18	84.8555	659.18	84.8886	659.18	85.1183	659.18	85.1611	659.18	85.1842	659.18	85.032	659.18	84.6516	659.18	84.0886	659.18	83.088	659.18	81.9796	659.18	79.9347	659.18	78.6962	659.18	75.4316	659.18	76.6995	659.18	76.1747	659.18	78.6542	659.18	79.5287	659.18	80.6935	659.18	81.2141	659.18	81.5369
682.617	88.1843	682.617	88.1025	682.617	88.0553	682.617	87.8019	682.617	87.7108	682.617	87.2958	682.617	87.1227	682.617	86.6155	682.617	86.2952	682.617	85.7988	682.617	85.3646	682.617	85.0187	682.617	84.6377	682.617	84.7333	682.617	84.4396	682.617	85.1671	682.617	84.8174	682.617	85.771	682.617	85.4353	682.617	85.9497	682.617	85.8141	682.617	85.4908	682.617	85.5634	682.617	84.2969	682.617	84.3942	682.617	82.1125	682.617	81.9992	682.617	78.6889	682.617	78.0104	682.617	76.0231	682.617	74.3842	682.617	77.8457	682.617	77.0456	682.617	79.9897	682.617	79.8	682.617	80.6939
707.52	87.8131	707.52	87.7763	707.52	87.6143	707.52	87.4837	707.52	87.1762	707.52	86.8896	707.52	86.5429	707.52	86.0534	707.52	85.7641	707.52	85.1923	707.52	84.8047	707.52	84.5523	707.52	83.7272	707.52	84.3921	707.52	83.1601	707.52	84.9091	707.52	83.8089	707.52	85.7049	707.52	84.9772	707.52	86.0204	707.52	85.5795	707.52	85.3667	707.52	85.1163	707.52	83.5382	707.52	83.4193	707.52	80.5552	707.52	80.4335	707.52	77.5258	707.52	76.5835	707.52	77.8254	707.52	75.3686	707.52	80.1902	707.52	78.1256	707.52	81.7245	707.52	80.623	707.52	81.8637
732.422	88.9351	732.422	88.9302	732.422	88.7422	732.422	88.6891	732.422	88.4373	732.422	88.2469	732.422	88.0187	732.422	87.5854	732.422	87.4118	732.422	86.6	732.422	86.5929	732.422	85.2456	732.422	85.58	732.422	83.748	732.422	84.4063	732.422	82.88	732.422	83.422	732.422	83.4211	732.422	83.4246	732.422	84.6071	732.422	84.3111	732.422	85.1558	732.422	84.922	732.422	84.3859	732.422	84.382	732.422	81.906	732.422	82.0933	732.422	77.5334	732.422	77.3048	732.422	74.8304	732.422	72.6663	732.422	77.4667	732.422	76.607	732.422	79.3467	732.422	79.1419	732.422	79.844
757.324	88.8872	757.324	88.795	757.324	88.8605	757.324	88.688	757.324	88.6262	757.324	88.5555	757.324	88.2437	757.324	88.3101	757.324	87.8219	757.324	87.854	757.324	87.3238	757.324	87.0723	757.324	86.5849	757.324	85.8923	757.324	85.5339	757.324	84.5917	757.324	84.4155	757.324	83.9545	757.324	83.6984	757.324	84.0748	757.324	83.4983	757.324	83.9776	757.324	83.4421	757.324	82.9974	757.324	83.0763	757.324	80.9114	757.324	81.8416	757.324	77.5985	757.324	78.9101	757.324	74.6775	757.324	73.5645	757.324	76.7923	757.324	73.9921	757.324	79.3328	757.324	78.2733	757.324	79.895
785.156	87.701	785.156	87.6128	785.156	87.6017	785.156	87.3474	785.156	87.4644	785.156	87.1376	785.156	87.3749	785.156	87.1221	785.156	87.2873	785.156	87.075	785.156	87.0941	785.156	86.6523	785.156	86.6476	785.156	85.6544	785.156	85.7528	785.156	84.0194	785.156	84.2495	785.156	81.9942	785.156	82.311	785.156	80.7705	785.156	80.9307	785.156	81.17	785.156	80.9465	785.156	81.5273	785.156	81.1175	785.156	80.4027	785.156	79.9802	785.156	77.1575	785.156	76.8713	785.156	72.7303	785.156	73.1705	785.156	74.9164	785.156	74.6746	785.156	77.8811	785.156	77.3408	785.156	78.5169
811.523	88.2728	811.523	88.113	811.523	88.2712	811.523	87.8335	811.523	88.0244	811.523	87.4152	811.523	87.5974	811.523	86.9417	811.523	87.2091	811.523	86.6054	811.523	86.9683	811.523	86.4681	811.523	86.7337	811.523	86.3141	811.523	86.2895	811.523	85.7891	811.523	85.545	811.523	84.6189	811.523	84.5523	811.523	82.8686	811.523	83.3226	811.523	81.2102	811.523	81.697	811.523	80.0801	811.523	79.7078	811.523	78.5728	811.523	77.9262	811.523	75.8456	811.523	76.1996	811.523	73.176	811.523	73.3701	811.523	73.6705	811.523	71.8164	811.523	75.1384	811.523	74.0722	811.523	75.4653
840.82	87.9482	840.82	87.8419	840.82	87.6998	840.82	87.3847	840.82	87.3557	840.82	86.8315	840.82	87.0677	840.82	86.4071	840.82	86.8114	840.82	86.2101	840.82	86.6619	840.82	86.1242	840.82	86.5984	840.82	85.7871	840.82	86.2858	840.82	84.9078	840.82	85.4582	840.82	83.4541	840.82	84.1636	840.82	81.5726	840.82	82.6263	840.82	79.5934	840.82	81.0873	840.82	78.127	840.82	79.5597	840.82	77.0721	840.82	77.4774	840.82	74.8402	840.82	74.165	840.82	71.135	840.82	71.8641	840.82	73.6147	840.82	74.7608	840.82	76.9237	840.82	77.2245	840.82	77.9364
870.117	87.9537	870.117	87.7259	870.117	87.9841	870.117	87.3011	870.117	87.648	870.117	86.6419	870.117	86.9658	870.117	86.0031	870.117	86.2455	870.117	85.6145	870.117	85.7534	870.117	85.432	870.117	85.5158	870.117	85.3994	870.117	85.3921	870.117	85.1883	870.117	85.0798	870.117	84.1823	870.117	84.1385	870.117	82.1567	870.117	82.2512	870.117	79.9369	870.117	79.8359	870.117	78.2863	870.117	78.3733	870.117	75.6995	870.117	77.5864	870.117	70.8635	870.117	75.0746	870.117	68.5514	870.117	70.6961	870.117	72.1207	870.117	72.9887	870.117	74.9454	870.117	75.8098	870.117	76.281
900.879	87.9491	900.879	87.7207	900.879	87.8112	900.879	87.2661	900.879	87.4254	900.879	86.6685	900.879	86.9516	900.879	85.8047	900.879	86.41	900.879	84.8996	900.879	85.8738	900.879	84.3688	900.879	85.4208	900.879	83.8051	900.879	84.8497	900.879	82.8168	900.879	83.9355	900.879	81.9124	900.879	82.8754	900.879	81.2511	900.879	81.997	900.879	80.0234	900.879	80.9128	900.879	78.1866	900.879	78.8341	900.879	76.7153	900.879	75.9497	900.879	74.5459	900.879	73.4912	900.879	69.7726	900.879	71.3012	900.879	70.8517	900.879	71.1864	900.879	74.2423	900.879	73.81	900.879	75.1051
933.105	87.7322	933.105	87.6655	933.105	87.6725	933.105	87.2892	933.105	87.3528	933.105	86.5089	933.105	86.6886	933.105	85.584	933.105	85.842	933.105	84.5659	933.105	84.8959	933.105	83.4269	933.105	83.9336	933.105	82.7771	933.105	83.1437	933.105	82.56	933.105	82.2931	933.105	81.5575	933.105	80.9754	933.105	79.7521	933.105	79.6017	933.105	78.7164	933.105	79.0717	933.105	77.9692	933.105	78.8463	933.105	75.9275	933.105	77.6364	933.105	72.8209	933.105	74.4526	933.105	69.7434	933.105	70.0932	933.105	71.9078	933.105	72.5068	933.105	76.097	933.105	75.965	933.105	77.3184
965.332	87.1979	965.332	86.9405	965.332	87.1559	965.332	86.6104	965.332	86.8403	965.332	86.281	965.332	86.3647	965.332	85.7076	965.332	85.8099	965.332	84.8931	965.332	85.2362	965.332	83.9646	965.332	84.4064	965.332	82.493	965.332	82.9378	965.332	80.0712	965.332	80.848	965.332	77.7285	965.332	78.6146	965.332	76.8365	965.332	76.9197	965.332	76.9079	965.332	76.8316	965.332	77.8721	965.332	77.93	965.332	77.9898	965.332	78.0049	965.332	75.5859	965.332	75.677	965.332	70.4726	965.332	70.2161	965.332	70.1104	965.332	69.3978	965.332	72.4161	965.332	73.0775	965.332	73.5724
1,000.49	86.7538	1,000.49	86.846	1,000.49	86.6639	1,000.49	86.7328	1,000.49	86.562	1,000.49	86.4401	1,000.49	86.1383	1,000.49	85.9763	1,000.49	85.3671	1,000.49	85.1136	1,000.49	84.5992	1,000.49	83.8963	1,000.49	83.8873	1,000.49	82.7719	1,000.49	82.7782	1,000.49	81.4479	1,000.49	81.0546	1,000.49	78.9132	1,000.49	78.8525	1,000.49	75.3264	1,000.49	76.0209	1,000.49	74.983	1,000.49	74.5143	1,000.49	77.2536	1,000.49	76.6562	1,000.49	78.5162	1,000.49	77.8144	1,000.49	77.9044	1,000.49	76.5928	1,000.49	74.4192	1,000.49	72.8779	1,000.49	70.7113	1,000.49	70.4257	1,000.49	74.1442	1,000.49	73.1278	1,000.49	75.0213
1,035.64	86.7862	1,035.64	86.6689	1,035.64	86.8534	1,035.64	86.7118	1,035.64	86.4682	1,035.64	86.4488	1,035.64	85.8484	1,035.64	85.8145	1,035.64	85.3444	1,035.64	85.3165	1,035.64	84.8778	1,035.64	84.6447	1,035.64	84.2316	1,035.64	83.0356	1,035.64	83.3123	1,035.64	80.7363	1,035.64	81.7666	1,035.64	78.6589	1,035.64	78.7701	1,035.64	76.1922	1,035.64	74.2494	1,035.64	74.4229	1,035.64	74.4734	1,035.64	76.7737	1,035.64	77.6634	1,035.64	77.9622	1,035.64	78.3263	1,035.64	76.5271	1,035.64	76.3762	1,035.64	73.3453	1,035.64	72.1367	1,035.64	70.0175	1,035.64	70.1791	1,035.64	72.3753	1,035.64	73.9502	1,035.64	74.9466
1,072.27	86.9532	1,072.27	86.8996	1,072.27	86.829	1,072.27	86.4703	1,072.27	86.5587	1,072.27	85.9939	1,072.27	86.1099	1,072.27	85.8044	1,072.27	85.5044	1,072.27	85.2892	1,072.27	84.6238	1,072.27	84.2039	1,072.27	83.6521	1,072.27	83.2968	1,072.27	82.8952	1,072.27	82.214	1,072.27	81.9509	1,072.27	79.6693	1,072.27	80.0002	1,072.27	75.2432	1,072.27	75.7337	1,072.27	72.9408	1,072.27	68.9606	1,072.27	76.6806	1,072.27	75.7809	1,072.27	79.0855	1,072.27	79.0123	1,072.27	79.0152	1,072.27	78.6841	1,072.27	77.1697	1,072.27	75.5543	1,072.27	75.7651	1,072.27	71.1821	1,072.27	75.5534	1,072.27	73.9672	1,072.27	75.994
1,108.89	86.6877	1,108.89	86.4715	1,108.89	86.6593	1,108.89	86.4209	1,108.89	86.3596	1,108.89	86.0571	1,108.89	86.0215	1,108.89	84.8786	1,108.89	85.4984	1,108.89	83.937	1,108.89	84.6056	1,108.89	83.6376	1,108.89	83.3118	1,108.89	82.6212	1,108.89	82.1477	1,108.89	81.0456	1,108.89	81.5932	1,108.89	79.8994	1,108.89	80.2636	1,108.89	77.3668	1,108.89	76.9098	1,108.89	73.9618	1,108.89	74.5758	1,108.89	76.7366	1,108.89	76.6124	1,108.89	78.5053	1,108.89	78.2417	1,108.89	78.2262	1,108.89	78.2643	1,108.89	75.9795	1,108.89	75.6491	1,108.89	73.4464	1,108.89	72.5896	1,108.89	75.844	1,108.89	72.9527	1,108.89	74.8296
1,148.44	86.7199	1,148.44	86.6239	1,148.44	86.7385	1,148.44	86.4314	1,148.44	86.4601	1,148.44	86.1179	1,148.44	85.9241	1,148.44	85.5406	1,148.44	85.414	1,148.44	84.4091	1,148.44	84.5696	1,148.44	82.9695	1,148.44	83.1881	1,148.44	81.9823	1,148.44	82.1317	1,148.44	81.0271	1,148.44	81.2661	1,148.44	78.895	1,148.44	79.7811	1,148.44	75.5417	1,148.44	78.0987	1,148.44	74.2373	1,148.44	75.3843	1,148.44	76.162	1,148.44	75.794	1,148.44	78.2011	1,148.44	78.9741	1,148.44	78.118	1,148.44	78.9076	1,148.44	75.1309	1,148.44	76.5493	1,148.44	73.5625	1,148.44	73.1667	1,148.44	75.8652	1,148.44	73.4296	1,148.44	76.6471
1,189.45	87.6629	1,189.45	87.4144	1,189.45	87.4064	1,189.45	86.5854	1,189.45	86.9447	1,189.45	85.6465	1,189.45	86.4069	1,189.45	84.8946	1,189.45	85.6024	1,189.45	84.1313	1,189.45	84.2292	1,189.45	83.0212	1,189.45	82.7095	1,189.45	81.3128	1,189.45	81.4958	1,189.45	79.346	1,189.45	80.2332	1,189.45	78.2758	1,189.45	79.6364	1,189.45	77.9707	1,189.45	78.4794	1,189.45	76.9176	1,189.45	76.076	1,189.45	76.8022	1,189.45	77.9046	1,189.45	78.6233	1,189.45	79.7846	1,189.45	79.1525	1,189.45	79.6999	1,189.45	77.2886	1,189.45	77.4978	1,189.45	73.3292	1,189.45	73.6137	1,189.45	72.5377	1,189.45	75.4154	1,189.45	75.6683
1,230.47	88.5163	1,230.47	88.3655	1,230.47	88.261	1,230.47	87.9038	1,230.47	88.0565	1,230.47	87.3461	1,230.47	87.5607	1,230.47	86.4882	1,230.47	86.439	1,230.47	85.4132	1,230.47	85.2768	1,230.47	83.8294	1,230.47	83.8534	1,230.47	81.3956	1,230.47	81.9106	1,230.47	80.3922	1,230.47	80.7587	1,230.47	80.7955	1,230.47	79.5267	1,230.47	79.0172	1,230.47	78.4833	1,230.47	74.3973	1,230.47	78.4139	1,230.47	76.3283	1,230.47	77.8134	1,230.47	79.0169	1,230.47	78.8669	1,230.47	79.1439	1,230.47	79.1866	1,230.47	77.8337	1,230.47	78.1736	1,230.47	74.9433	1,230.47	76.4161	1,230.47	75.301	1,230.47	75.3218	1,230.47	76.209
1,274.41	89.1013	1,274.41	89.0427	1,274.41	89.1457	1,274.41	88.6252	1,274.41	88.8144	1,274.41	87.9132	1,274.41	88.0246	1,274.41	87.0976	1,274.41	87.442	1,274.41	86.0168	1,274.41	86.4533	1,274.41	84.4999	1,274.41	84.5357	1,274.41	82.6608	1,274.41	82.5513	1,274.41	81.381	1,274.41	80.8095	1,274.41	80.0033	1,274.41	80.3049	1,274.41	78.9957	1,274.41	79.5068	1,274.41	79.7215	1,274.41	77.7639	1,274.41	78.0489	1,274.41	79.4464	1,274.41	78.6552	1,274.41	80.9879	1,274.41	79.778	1,274.41	81.6878	1,274.41	77.4507	1,274.41	79.5263	1,274.41	75.4661	1,274.41	75.2885	1,274.41	74.8187	1,274.41	76.0427	1,274.41	75.1845
1,319.82	89.5915	1,319.82	89.3337	1,319.82	89.5966	1,319.82	89.0878	1,319.82	88.9808	1,319.82	88.6407	1,319.82	88.5033	1,319.82	87.7868	1,319.82	87.7908	1,319.82	86.7416	1,319.82	86.2286	1,319.82	85.2847	1,319.82	84.7659	1,319.82	82.9635	1,319.82	82.4505	1,319.82	80.6837	1,319.82	81.4043	1,319.82	79.9396	1,319.82	81.2546	1,319.82	82.0787	1,319.82	80.2257	1,319.82	81.133	1,319.82	80.2729	1,319.82	78.4958	1,319.82	78.2167	1,319.82	79.6903	1,319.82	80.683	1,319.82	80.3924	1,319.82	80.5687	1,319.82	80.5429	1,319.82	79.3861	1,319.82	78.2138	1,319.82	79.6287	1,319.82	76.9997	1,319.82	77.059	1,319.82	77.5744
1,366.7	90.472	1,366.7	90.4211	1,366.7	90.0987	1,366.7	90.0312	1,366.7	89.8931	1,366.7	89.2656	1,366.7	89.4046	1,366.7	88.3679	1,366.7	88.3122	1,366.7	87.4127	1,366.7	87.3437	1,366.7	86.0923	1,366.7	85.867	1,366.7	84.431	1,366.7	84.2392	1,366.7	81.9394	1,366.7	82.4695	1,366.7	80.2608	1,366.7	80.9448	1,366.7	79.9605	1,366.7	81.2383	1,366.7	80.6319	1,366.7	78.6411	1,366.7	80.8459	1,366.7	79.5445	1,366.7	79.1778	1,366.7	79.7297	1,366.7	79.5409	1,366.7	79.8729	1,366.7	78.7491	1,366.7	79.7	1,366.7	78.1404	1,366.7	75.6096	1,366.7	78.3807	1,366.7	77.3482	1,366.7	77.7662
1,413.57	89.8822	1,413.57	89.8311	1,413.57	89.3731	1,413.57	89.402	1,413.57	89.0914	1,413.57	88.7643	1,413.57	88.4322	1,413.57	87.8212	1,413.57	87.0984	1,413.57	86.9596	1,413.57	85.7204	1,413.57	85.7239	1,413.57	84.8301	1,413.57	84.6094	1,413.57	84.5396	1,413.57	84.0321	1,413.57	82.9398	1,413.57	82.6968	1,413.57	81.1041	1,413.57	80.625	1,413.57	78.6145	1,413.57	79.8791	1,413.57	78.6715	1,413.57	80.0859	1,413.57	78.5329	1,413.57	79.4646	1,413.57	78.0136	1,413.57	79.4894	1,413.57	80.3577	1,413.57	79.9176	1,413.57	79.2359	1,413.57	78.46	1,413.57	78.3257	1,413.57	77.5431	1,413.57	78.4914	1,413.57	79.1263
1,463.38	89.4928	1,463.38	89.2517	1,463.38	89.2357	1,463.38	88.7881	1,463.38	88.6213	1,463.38	88.1771	1,463.38	87.876	1,463.38	86.8493	1,463.38	87.1342	1,463.38	85.9315	1,463.38	85.4995	1,463.38	84.6862	1,463.38	83.6389	1,463.38	83.2053	1,463.38	82.5295	1,463.38	84.2362	1,463.38	82.1273	1,463.38	82.8588	1,463.38	80.9694	1,463.38	79.0618	1,463.38	78.352	1,463.38	77.8325	1,463.38	77.5356	1,463.38	78.7641	1,463.38	76.3825	1,463.38	78.7896	1,463.38	75.5808	1,463.38	78.4415	1,463.38	77.9891	1,463.38	80.2302	1,463.38	79.0723	1,463.38	80.7096	1,463.38	80.193	1,463.38	79.8084	1,463.38	81.4746	1,463.38	81.2533
1,516.11	89.0038	1,516.11	88.8492	1,516.11	88.8125	1,516.11	88.0456	1,516.11	88.7564	1,516.11	87.096	1,516.11	87.3158	1,516.11	86.2083	1,516.11	85.5704	1,516.11	85.249	1,516.11	84.8717	1,516.11	83.2784	1,516.11	83.8037	1,516.11	83.3284	1,516.11	81.6202	1,516.11	83.5031	1,516.11	82.3066	1,516.11	82.2883	1,516.11	82.6519	1,516.11	80.6071	1,516.11	80.4166	1,516.11	76.9696	1,516.11	78.7604	1,516.11	75.8485	1,516.11	77.0616	1,516.11	73.581	1,516.11	74.8653	1,516.11	77.1434	1,516.11	72.381	1,516.11	76.4752	1,516.11	77.0062	1,516.11	77.4001	1,516.11	73.3734	1,516.11	79.3834	1,516.11	74.0566	1,516.11	76.1365
1,568.85	88.4614	1,568.85	88.0392	1,568.85	88.911	1,568.85	87.6191	1,568.85	87.7059	1,568.85	86.6358	1,568.85	86.8186	1,568.85	85.2327	1,568.85	85.8717	1,568.85	84.4334	1,568.85	84.352	1,568.85	83.2021	1,568.85	82.9955	1,568.85	81.6761	1,568.85	81.7249	1,568.85	80.7112	1,568.85	81.7157	1,568.85	79.8848	1,568.85	80.9176	1,568.85	79.7174	1,568.85	78.4556	1,568.85	75.151	1,568.85	75.997	1,568.85	75.6593	1,568.85	76.2467	1,568.85	77.307	1,568.85	74.5669	1,568.85	76.8247	1,568.85	74.0078	1,568.85	78.6453	1,568.85	75.07	1,568.85	77.7391	1,568.85	75.7351	1,568.85	78.0212	1,568.85	77.8403	1,568.85	78.1672
1,624.51	88.38	1,624.51	89.2597	1,624.51	88.1834	1,624.51	88.8131	1,624.51	88.1889	1,624.51	88.0859	1,624.51	87.1327	1,624.51	86.6048	1,624.51	86.7791	1,624.51	84.5982	1,624.51	85.865	1,624.51	83.449	1,624.51	83.4305	1,624.51	82.5048	1,624.51	83.1602	1,624.51	80.3308	1,624.51	81.8811	1,624.51	80.9494	1,624.51	79.846	1,624.51	79.3637	1,624.51	79.5973	1,624.51	75.0739	1,624.51	75.1562	1,624.51	76.1096	1,624.51	73.2724	1,624.51	71.958	1,624.51	75.9913	1,624.51	70.7892	1,624.51	77.5311	1,624.51	72.8141	1,624.51	77.7991	1,624.51	72.4252	1,624.51	75.1763	1,624.51	75.7984	1,624.51	76.2712	1,624.51	75.3861
1,681.64	88.9789	1,681.64	88.4037	1,681.64	88.4114	1,681.64	88.4881	1,681.64	88.5748	1,681.64	87.1931	1,681.64	88.6064	1,681.64	85.4325	1,681.64	87.1354	1,681.64	84.8194	1,681.64	85.0447	1,681.64	82.6893	1,681.64	84.4287	1,681.64	82.9472	1,681.64	83.209	1,681.64	80.5426	1,681.64	81.3284	1,681.64	77.3625	1,681.64	79.9095	1,681.64	78.6873	1,681.64	76.8294	1,681.64	74.2174	1,681.64	72.7952	1,681.64	77.0922	1,681.64	75.8002	1,681.64	76.6544	1,681.64	75.6161	1,681.64	74.1451	1,681.64	76.5647	1,681.64	76.9514	1,681.64	77.438	1,681.64	75.7798	1,681.64	77.9089	1,681.64	73.2565	1,681.64	77.2513	1,681.64	79.7782
1,741.7	87.6397	1,741.7	86.7549	1,741.7	87.3605	1,741.7	86.6743	1,741.7	86.7142	1,741.7	86.475	1,741.7	85.8942	1,741.7	85.8891	1,741.7	85.5813	1,741.7	83.3938	1,741.7	85.5497	1,741.7	83.4221	1,741.7	84.0066	1,741.7	83.0684	1,741.7	82.6918	1,741.7	80.606	1,741.7	81.4055	1,741.7	79.2412	1,741.7	79.5967	1,741.7	75.5502	1,741.7	76.2834	1,741.7	73.3923	1,741.7	72.0641	1,741.7	72.6658	1,741.7	74.7932	1,741.7	69.6961	1,741.7	75.0417	1,741.7	75.8702	1,741.7	76.5661	1,741.7	76.5682	1,741.7	77.1279	1,741.7	74.5177	1,741.7	75.2929	1,741.7	73.2589	1,741.7	73.9593	1,741.7	73.7855
1,803.22	86.6441	1,803.22	86.57	1,803.22	86.2547	1,803.22	86.1398	1,803.22	86.233	1,803.22	85.4887	1,803.22	85.355	1,803.22	84.7595	1,803.22	84.9995	1,803.22	84.0063	1,803.22	82.2577	1,803.22	82.2265	1,803.22	80.8101	1,803.22	82.2161	1,803.22	82.2075	1,803.22	81.1266	1,803.22	80.6004	1,803.22	78.6759	1,803.22	79.0289	1,803.22	76.6181	1,803.22	75.4782	1,803.22	70.5114	1,803.22	73.324	1,803.22	73.6612	1,803.22	75.3382	1,803.22	75.6498	1,803.22	73.5324	1,803.22	73.3426	1,803.22	70.8039	1,803.22	74.9638	1,803.22	76.3546	1,803.22	75.8874	1,803.22	74.7279	1,803.22	75.947	1,803.22	75.4815	1,803.22	76.0424
1,866.21	85.3934	1,866.21	85.773	1,866.21	85.6223	1,866.21	84.9955	1,866.21	84.8199	1,866.21	84.5541	1,866.21	83.8613	1,866.21	84.7828	1,866.21	83.2201	1,866.21	83.208	1,866.21	81.7568	1,866.21	82.1672	1,866.21	81.4197	1,866.21	81.2209	1,866.21	79.7784	1,866.21	79.2317	1,866.21	78.6129	1,866.21	78.0409	1,866.21	74.1472	1,866.21	75.1695	1,866.21	75.0924	1,866.21	72.3145	1,866.21	71.3427	1,866.21	74.1074	1,866.21	73.5587	1,866.21	73.0759	1,866.21	74.0503	1,866.21	72.5386	1,866.21	73.495	1,866.21	73.5795	1,866.21	71.0236	1,866.21	73.5571	1,866.21	68.688	1,866.21	73.9382	1,866.21	73.5179	1,866.21	76.481
1,932.13	85.4495	1,932.13	85.1154	1,932.13	84.9872	1,932.13	85.4559	1,932.13	85.0733	1,932.13	85.3827	1,932.13	84.8856	1,932.13	84.4651	1,932.13	84.1604	1,932.13	83.3377	1,932.13	84.3396	1,932.13	81.9716	1,932.13	82.0956	1,932.13	79.6713	1,932.13	80.6331	1,932.13	77.5325	1,932.13	79.0139	1,932.13	75.7551	1,932.13	77.2764	1,932.13	76.7225	1,932.13	75.3498	1,932.13	76.114	1,932.13	73.2019	1,932.13	72.6983	1,932.13	72.0099	1,932.13	73.9483	1,932.13	72.4993	1,932.13	75.04	1,932.13	71.7592	1,932.13	75.3058	1,932.13	73.2623	1,932.13	64.2686	1,932.13	73.6557	1,932.13	72.6092	1,932.13	67.6421	1,932.13	72.672
1,999.51	87.0631	1,999.51	86.9195	1,999.51	86.8225	1,999.51	86.6274	1,999.51	86.7089	1,999.51	86.3378	1,999.51	86.7833	1,999.51	85.6281	1,999.51	86.3745	1,999.51	85.3842	1,999.51	86.0796	1,999.51	83.7746	1,999.51	84.8869	1,999.51	80.363	1,999.51	82.0494	1,999.51	79.7175	1,999.51	80.2712	1,999.51	78.9386	1,999.51	78.7449	1,999.51	76.2639	1,999.51	76.8555	1,999.51	76.1293	1,999.51	77.2743	1,999.51	74.4874	1,999.51	75.2921	1,999.51	74.3791	1,999.51	75.0382	1,999.51	70.1595	1,999.51	73.7582	1,999.51	74.4243	1,999.51	73.7972	1,999.51	72.9788	1,999.51	73.2176	1,999.51	73.1421	1,999.51	72.4404	1,999.51	73.852
2,069.82	87.7123	2,069.82	87.8074	2,069.82	88.0795	2,069.82	88.0099	2,069.82	88.0911	2,069.82	87.5346	2,069.82	87.9272	2,069.82	86.6819	2,069.82	87.3747	2,069.82	86.3639	2,069.82	86.9344	2,069.82	85.4783	2,069.82	86.1348	2,069.82	81.857	2,069.82	83.7456	2,069.82	78.9521	2,069.82	81.1177	2,069.82	79.2001	2,069.82	80.6859	2,069.82	76.3129	2,069.82	77.8119	2,069.82	76.486	2,069.82	76.7186	2,069.82	74.5155	2,069.82	77.1608	2,069.82	72.9883	2,069.82	76.2924	2,069.82	71.1048	2,069.82	74.902	2,069.82	68.4917	2,069.82	72.0973	2,069.82	71.6241	2,069.82	72.0802	2,069.82	72.7166	2,069.82	73.3084	2,069.82	72.8182
2,143.07	86.964	2,143.07	87.3152	2,143.07	87.5323	2,143.07	88.1182	2,143.07	87.9837	2,143.07	88.4023	2,143.07	88.2679	2,143.07	87.84	2,143.07	87.7373	2,143.07	86.8519	2,143.07	86.8377	2,143.07	86.3474	2,143.07	85.9249	2,143.07	83.738	2,143.07	83.6952	2,143.07	78.84	2,143.07	80.17	2,143.07	78.7276	2,143.07	80.0874	2,143.07	78.1757	2,143.07	78.7655	2,143.07	76.2868	2,143.07	75.7264	2,143.07	75.5791	2,143.07	76.0101	2,143.07	72.9547	2,143.07	73.7939	2,143.07	75.5756	2,143.07	76.1561	2,143.07	72.2721	2,143.07	74.6096	2,143.07	70.5204	2,143.07	71.9484	2,143.07	70.7126	2,143.07	72.4946	2,143.07	73.3902
2,219.24	86.443	2,219.24	86.7213	2,219.24	86.1915	2,219.24	87.3083	2,219.24	87.0145	2,219.24	88.0338	2,219.24	87.4171	2,219.24	88.0175	2,219.24	86.9604	2,219.24	86.8234	2,219.24	85.7085	2,219.24	85.6508	2,219.24	84.5912	2,219.24	84.5593	2,219.24	82.5436	2,219.24	81.0514	2,219.24	79.3358	2,219.24	79.1669	2,219.24	78.7213	2,219.24	79.4035	2,219.24	77.4815	2,219.24	77.3639	2,219.24	73.5686	2,219.24	75.0526	2,219.24	75.0734	2,219.24	70.2715	2,219.24	68.7405	2,219.24	72.5881	2,219.24	72.742	2,219.24	75.5313	2,219.24	74.5983	2,219.24	72.7327	2,219.24	72.2169	2,219.24	71.6973	2,219.24	69.9367	2,219.24	72.6332
2,296.88	85.1725	2,296.88	85.5017	2,296.88	85.072	2,296.88	86.4116	2,296.88	85.8899	2,296.88	87.2692	2,296.88	86.8643	2,296.88	87.2646	2,296.88	86.927	2,296.88	86.2694	2,296.88	85.5867	2,296.88	85.2395	2,296.88	84.3437	2,296.88	84.294	2,296.88	82.9232	2,296.88	81.3819	2,296.88	79.8652	2,296.88	79.95	2,296.88	78.7312	2,296.88	79.4604	2,296.88	78.5708	2,296.88	78.2113	2,296.88	74.8856	2,296.88	77.3459	2,296.88	74.2915	2,296.88	70.2338	2,296.88	70.8	2,296.88	72.7122	2,296.88	70.6464	2,296.88	75.3752	2,296.88	74.6602	2,296.88	74.3656	2,296.88	73.8552	2,296.88	73.9646	2,296.88	71.0393	2,296.88	73.9609
2,378.91	85.8613	2,378.91	86.0321	2,378.91	86.3868	2,378.91	86.8108	2,378.91	87.4884	2,378.91	87.4367	2,378.91	88.2663	2,378.91	87.3338	2,378.91	88.4233	2,378.91	86.0095	2,378.91	87.3254	2,378.91	84.2068	2,378.91	85.2917	2,378.91	82.9063	2,378.91	83.9039	2,378.91	80.6252	2,378.91	82.2391	2,378.91	78.1226	2,378.91	79.5379	2,378.91	77.9811	2,378.91	79.1316	2,378.91	75.0909	2,378.91	77.2454	2,378.91	76.9151	2,378.91	75.6426	2,378.91	72.2186	2,378.91	70.5051	2,378.91	73.7808	2,378.91	72.7257	2,378.91	73.8259	2,378.91	75.3386	2,378.91	71.351	2,378.91	74.3167	2,378.91	69.0139	2,378.91	70.1258	2,378.91	70.5216
2,462.4	87.4702	2,462.4	87.8141	2,462.4	88.2889	2,462.4	88.515	2,462.4	89.3118	2,462.4	88.9587	2,462.4	89.9693	2,462.4	88.8899	2,462.4	89.8268	2,462.4	87.5886	2,462.4	88.8648	2,462.4	85.365	2,462.4	86.6167	2,462.4	83.9282	2,462.4	84.7859	2,462.4	80.8566	2,462.4	83.0422	2,462.4	78.847	2,462.4	80.776	2,462.4	78.3661	2,462.4	77.961	2,462.4	74.5109	2,462.4	77.2666	2,462.4	75.3729	2,462.4	77.3764	2,462.4	73.5867	2,462.4	72.9154	2,462.4	72.3489	2,462.4	74.8102	2,462.4	75.6133	2,462.4	75.7646	2,462.4	73.9697	2,462.4	74.6904	2,462.4	69.0677	2,462.4	72.0008	2,462.4	70.477
2,548.83	87.7644	2,548.83	88.3341	2,548.83	88.3054	2,548.83	89.2067	2,548.83	88.9352	2,548.83	89.4862	2,548.83	89.4003	2,548.83	89.6782	2,548.83	89.4671	2,548.83	88.9759	2,548.83	88.4978	2,548.83	86.9462	2,548.83	86.3018	2,548.83	84.7051	2,548.83	84.0697	2,548.83	82.433	2,548.83	81.9753	2,548.83	78.9742	2,548.83	80.1739	2,548.83	78.1848	2,548.83	77.9139	2,548.83	73.8873	2,548.83	75.8164	2,548.83	76.1537	2,548.83	76.3057	2,548.83	73.2342	2,548.83	71.5235	2,548.83	72.4415	2,548.83	74.0005	2,548.83	74.4959	2,548.83	75.5834	2,548.83	74.8096	2,548.83	74.4502	2,548.83	72.3031	2,548.83	71.5167	2,548.83	72.803
2,639.65	86.6665	2,639.65	87.4849	2,639.65	86.9572	2,639.65	88.4544	2,639.65	87.9057	2,639.65	88.7639	2,639.65	88.1299	2,639.65	88.7498	2,639.65	88.219	2,639.65	88.0216	2,639.65	87.1834	2,639.65	86.3117	2,639.65	84.9049	2,639.65	84.8634	2,639.65	83.2697	2,639.65	82.2942	2,639.65	81.5599	2,639.65	79.5893	2,639.65	77.9638	2,639.65	78.2208	2,639.65	75.9889	2,639.65	76.4337	2,639.65	73.7758	2,639.65	75.8237	2,639.65	76.1121	2,639.65	74.0729	2,639.65	74.2758	2,639.65	71.8506	2,639.65	69.2985	2,639.65	72.981	2,639.65	72.183	2,639.65	74.5753	2,639.65	74.0888	2,639.65	70.4212	2,639.65	70.447	2,639.65	70.9097
2,731.93	86.6429	2,731.93	86.8778	2,731.93	86.9082	2,731.93	87.2621	2,731.93	87.6377	2,731.93	87.5467	2,731.93	88.0696	2,731.93	87.4708	2,731.93	87.627	2,731.93	86.5066	2,731.93	86.6902	2,731.93	84.6022	2,731.93	84.5997	2,731.93	82.2604	2,731.93	82.514	2,731.93	80.7628	2,731.93	80.645	2,731.93	78.3858	2,731.93	78.0055	2,731.93	76.3338	2,731.93	77.4577	2,731.93	74.7327	2,731.93	74.0892	2,731.93	74.6085	2,731.93	73.2747	2,731.93	72.8189	2,731.93	73.6838	2,731.93	71.3858	2,731.93	68.0981	2,731.93	70.9379	2,731.93	71.1258	2,731.93	72.7088	2,731.93	71.9688	2,731.93	67.206	2,731.93	69.9699	2,731.93	69.3658
2,828.61	87.0664	2,828.61	87.3869	2,828.61	87.3859	2,828.61	87.5581	2,828.61	87.9383	2,828.61	87.8596	2,828.61	88.5184	2,828.61	87.5159	2,828.61	87.8962	2,828.61	86.5035	2,828.61	87.0051	2,828.61	84.6267	2,828.61	85.3309	2,828.61	81.8379	2,828.61	82.7243	2,828.61	80.0712	2,828.61	80.9587	2,828.61	77.0883	2,828.61	78.4263	2,828.61	75.0479	2,828.61	76.412	2,828.61	73.5897	2,828.61	74.6936	2,828.61	73.2686	2,828.61	74.1501	2,828.61	72.506	2,828.61	73.0633	2,828.61	70.4157	2,828.61	68.3337	2,828.61	71.0044	2,828.61	71.0598	2,828.61	72.2545	2,828.61	71.9199	2,828.61	67.9381	2,828.61	68.8085	2,828.61	69.1328
2,928.22	88.2957	2,928.22	88.3192	2,928.22	88.3183	2,928.22	88.3747	2,928.22	88.342	2,928.22	88.3139	2,928.22	88.5765	2,928.22	87.9262	2,928.22	88.0738	2,928.22	86.997	2,928.22	87.2549	2,928.22	85.4087	2,928.22	85.7065	2,928.22	82.9508	2,928.22	83.0411	2,928.22	80.7125	2,928.22	80.4837	2,928.22	77.4941	2,928.22	78.0435	2,928.22	74.6174	2,928.22	76.6763	2,928.22	74.0945	2,928.22	74.7959	2,928.22	73.9256	2,928.22	73.4575	2,928.22	72.5103	2,928.22	72.736	2,928.22	71.2082	2,928.22	69.9919	2,928.22	70.6713	2,928.22	70.4594	2,928.22	70.6094	2,928.22	71.3018	2,928.22	69.4278	2,928.22	68.0088	2,928.22	69.1604
3,030.76	88.4811	3,030.76	88.4875	3,030.76	88.268	3,030.76	88.5555	3,030.76	88.4583	3,030.76	88.4252	3,030.76	88.306	3,030.76	87.9943	3,030.76	87.7001	3,030.76	86.7923	3,030.76	86.8389	3,030.76	85.6862	3,030.76	85.7012	3,030.76	83.5146	3,030.76	83.1347	3,030.76	80.2879	3,030.76	80.8685	3,030.76	78.2423	3,030.76	78.4319	3,030.76	75.549	3,030.76	75.3653	3,030.76	73.9469	3,030.76	73.865	3,030.76	73.2892	3,030.76	73.2255	3,030.76	71.4809	3,030.76	71.7302	3,030.76	70.3103	3,030.76	70.1494	3,030.76	72.5905	3,030.76	71.5575	3,030.76	71.8743	3,030.76	70.8204	3,030.76	66.9694	3,030.76	67.8776	3,030.76	67.6167
3,137.7	88.3356	3,137.7	88.4339	3,137.7	88.1208	3,137.7	88.1805	3,137.7	88.0342	3,137.7	87.9276	3,137.7	87.8621	3,137.7	87.9169	3,137.7	87.32	3,137.7	86.9809	3,137.7	86.6441	3,137.7	85.6129	3,137.7	85.3167	3,137.7	83.3885	3,137.7	83.2647	3,137.7	80.9232	3,137.7	81.1359	3,137.7	79.1898	3,137.7	78.9453	3,137.7	76.3462	3,137.7	75.305	3,137.7	74.7954	3,137.7	74.2527	3,137.7	72.9104	3,137.7	73.5811	3,137.7	70.6774	3,137.7	71.2286	3,137.7	69.1223	3,137.7	69.2978	3,137.7	71.845	3,137.7	71.4192	3,137.7	71.2966	3,137.7	70.3435	3,137.7	68.8445	3,137.7	68.2145	3,137.7	68.28
3,249.02	88.5243	3,249.02	88.0167	3,249.02	88.2534	3,249.02	87.4362	3,249.02	87.7971	3,249.02	87.3895	3,249.02	87.7122	3,249.02	87.1072	3,249.02	87.3509	3,249.02	86.5506	3,249.02	86.6918	3,249.02	85.1699	3,249.02	85.3197	3,249.02	83.2433	3,249.02	83.096	3,249.02	81.5909	3,249.02	80.9504	3,249.02	78.7221	3,249.02	78.381	3,249.02	76.5633	3,249.02	76.2379	3,249.02	75.1282	3,249.02	74.4234	3,249.02	72.9907	3,249.02	72.1839	3,249.02	71.8107	3,249.02	71.5305	3,249.02	69.8783	3,249.02	68.4383	3,249.02	72.2075	3,249.02	70.8915	3,249.02	70.6498	3,249.02	69.2937	3,249.02	68.3986	3,249.02	67.9255	3,249.02	68.4282
3,363.28	87.8521	3,363.28	87.6714	3,363.28	87.7633	3,363.28	86.9362	3,363.28	87.2733	3,363.28	86.4783	3,363.28	87.2619	3,363.28	86.4058	3,363.28	87.0305	3,363.28	85.9052	3,363.28	86.1796	3,363.28	84.3888	3,363.28	84.6361	3,363.28	82.285	3,363.28	82.6434	3,363.28	80.3235	3,363.28	80.0479	3,363.28	76.8861	3,363.28	77.8088	3,363.28	73.5952	3,363.28	75.3371	3,363.28	71.8402	3,363.28	74.0152	3,363.28	72.3261	3,363.28	71.7548	3,363.28	70.1308	3,363.28	69.7546	3,363.28	66.2816	3,363.28	65.5265	3,363.28	68.8171	3,363.28	70.093	3,363.28	65.4588	3,363.28	68.718	3,363.28	67.2997	3,363.28	67.6683	3,363.28	66.96
3,481.93	88.0446	3,481.93	87.3873	3,481.93	87.2293	3,481.93	86.8134	3,481.93	86.5147	3,481.93	86.5654	3,481.93	86.0402	3,481.93	86.4518	3,481.93	85.9324	3,481.93	85.5771	3,481.93	85.0281	3,481.93	84.5247	3,481.93	84.0848	3,481.93	82.899	3,481.93	81.8846	3,481.93	79.8352	3,481.93	79.3804	3,481.93	76.3797	3,481.93	75.5797	3,481.93	73.443	3,481.93	73.723	3,481.93	71.2993	3,481.93	71.8729	3,481.93	71.2469	3,481.93	70.8209	3,481.93	69.637	3,481.93	70.2914	3,481.93	66.5836	3,481.93	65.9141	3,481.93	67.6254	3,481.93	69.4881	3,481.93	66.6948	3,481.93	66.8624	3,481.93	64.7239	3,481.93	65.6395	3,481.93	64.3258
3,604.98	87.9107	3,604.98	87.4947	3,604.98	87.4662	3,604.98	86.6186	3,604.98	86.729	3,604.98	85.7585	3,604.98	86.0947	3,604.98	85.8742	3,604.98	85.9246	3,604.98	85.4224	3,604.98	85.8099	3,604.98	84.2644	3,604.98	84.4576	3,604.98	82.4577	3,604.98	82.7023	3,604.98	79.4162	3,604.98	79.821	3,604.98	76.462	3,604.98	76.5819	3,604.98	73.1235	3,604.98	74.841	3,604.98	72.0876	3,604.98	73.0856	3,604.98	70.1453	3,604.98	70.7475	3,604.98	68.561	3,604.98	69.5344	3,604.98	64.9935	3,604.98	68.7052	3,604.98	67.5468	3,604.98	69.6556	3,604.98	66.4552	3,604.98	66.9844	3,604.98	64.3822	3,604.98	64.8402	3,604.98	63.296
3,732.42	88.4701	3,732.42	87.9538	3,732.42	88.0399	3,732.42	86.8617	3,732.42	87.1833	3,732.42	85.9683	3,732.42	86.3135	3,732.42	85.744	3,732.42	86.043	3,732.42	84.9317	3,732.42	85.9107	3,732.42	84.1183	3,732.42	84.3135	3,732.42	81.6024	3,732.42	82.4097	3,732.42	78.0285	3,732.42	79.5269	3,732.42	76.0166	3,732.42	77.0697	3,732.42	73.8962	3,732.42	73.6304	3,732.42	72.0419	3,732.42	71.7401	3,732.42	68.9578	3,732.42	69.4632	3,732.42	68.0894	3,732.42	67.5917	3,732.42	67.9707	3,732.42	66.3109	3,732.42	67.9038	3,732.42	68.8447	3,732.42	65.5135	3,732.42	65.9416	3,732.42	64.5245	3,732.42	62.8825	3,732.42	61.341
3,864.26	87.8454	3,864.26	87.9471	3,864.26	87.3235	3,864.26	86.5565	3,864.26	85.7949	3,864.26	85.7566	3,864.26	84.8181	3,864.26	85.6347	3,864.26	84.4873	3,864.26	85.142	3,864.26	84.3278	3,864.26	83.3637	3,864.26	82.5676	3,864.26	81.1721	3,864.26	80.7289	3,864.26	78.9818	3,864.26	77.514	3,864.26	76.0424	3,864.26	75.4843	3,864.26	73.5105	3,864.26	72.16	3,864.26	70.7069	3,864.26	70.1031	3,864.26	69.8265	3,864.26	69.4158	3,864.26	68.2298	3,864.26	66.9599	3,864.26	67.2607	3,864.26	64.6733	3,864.26	68.2071	3,864.26	65.8865	3,864.26	66.3319	3,864.26	63.7349	3,864.26	63.07	3,864.26	63.3921	3,864.26	61.9984
4,000.49	87.6255	4,000.49	87.0881	4,000.49	86.8326	4,000.49	85.7079	4,000.49	85.8703	4,000.49	84.8516	4,000.49	85.3134	4,000.49	84.4778	4,000.49	85.2058	4,000.49	84.0396	4,000.49	84.2144	4,000.49	81.4943	4,000.49	82.6992	4,000.49	80.209	4,000.49	80.2241	4,000.49	78.2386	4,000.49	77.6447	4,000.49	74.5034	4,000.49	74.6445	4,000.49	71.8675	4,000.49	72.3196	4,000.49	70.8016	4,000.49	69.3487	4,000.49	69.8104	4,000.49	69.7609	4,000.49	63.4436	4,000.49	65.8992	4,000.49	66.2205	4,000.49	67.028	4,000.49	66.6977	4,000.49	64.3406	4,000.49	63.6488	4,000.49	66.1111	4,000.49	56.8127	4,000.49	57.7958	4,000.49	61.195
4,141.11	88.9682	4,141.11	87.6642	4,141.11	87.7139	4,141.11	86.1615	4,141.11	87.2077	4,141.11	85.6129	4,141.11	86.1491	4,141.11	84.9313	4,141.11	85.7565	4,141.11	84.3647	4,141.11	84.3922	4,141.11	82.6269	4,141.11	83.1019	4,141.11	80.73	4,141.11	80.1797	4,141.11	76.295	4,141.11	78.6202	4,141.11	72.4965	4,141.11	74.8008	4,141.11	71.9203	4,141.11	70.9498	4,141.11	70.5459	4,141.11	71.0605	4,141.11	65.3235	4,141.11	70.1234	4,141.11	63.6136	4,141.11	65.706	4,141.11	65.4071	4,141.11	62.3515	4,141.11	64.471	4,141.11	64.158	4,141.11	63.2035	4,141.11	66.9651	4,141.11	61.1028	4,141.11	62.4726	4,141.11	62.5767
4,287.6	88.4271	4,287.6	87.1127	4,287.6	87.8344	4,287.6	86.1064	4,287.6	87.0353	4,287.6	86.0106	4,287.6	86.1214	4,287.6	85.5008	4,287.6	85.045	4,287.6	83.7221	4,287.6	84.2599	4,287.6	83.1949	4,287.6	82.2649	4,287.6	79.9658	4,287.6	79.8571	4,287.6	76.9417	4,287.6	77.8718	4,287.6	74.7378	4,287.6	72.4073	4,287.6	70.611	4,287.6	72.0957	4,287.6	64.7263	4,287.6	68.7323	4,287.6	67.8592	4,287.6	68.6047	4,287.6	65.9708	4,287.6	63.26	4,287.6	63.2021	4,287.6	63.1048	4,287.6	61.2271	4,287.6	61.5562	4,287.6	61.1595	4,287.6	68.0316	4,287.6	64.0354	4,287.6	65.3017	4,287.6	64.1241
4,438.48	87.3	4,438.48	87.4402	4,438.48	87.5633	4,438.48	86.6837	4,438.48	85.9988	4,438.48	85.9061	4,438.48	85.9905	4,438.48	84.7041	4,438.48	84.2453	4,438.48	83.1704	4,438.48	84.473	4,438.48	81.6602	4,438.48	82.8035	4,438.48	78.3402	4,438.48	80.9355	4,438.48	77.6845	4,438.48	76.5971	4,438.48	74.8098	4,438.48	73.8815	4,438.48	70.3255	4,438.48	71.3864	4,438.48	68.5244	4,438.48	69.5029	4,438.48	67.9969	4,438.48	67.423	4,438.48	67.0002	4,438.48	67.2403	4,438.48	65.2544	4,438.48	65.6029	4,438.48	63.3857	4,438.48	61.764	4,438.48	62.2668	4,438.48	65.2936	4,438.48	61.9746	4,438.48	66.4266	4,438.48	65.1505
4,595.21	86.6525	4,595.21	86.8452	4,595.21	86.7014	4,595.21	85.3708	4,595.21	85.0398	4,595.21	83.8259	4,595.21	84.2888	4,595.21	83.0324	4,595.21	84.1614	4,595.21	83.6513	4,595.21	83.5264	4,595.21	80.4664	4,595.21	80.7447	4,595.21	80.4112	4,595.21	77.6531	4,595.21	77.859	4,595.21	76.1107	4,595.21	71.9011	4,595.21	73.0794	4,595.21	70.5826	4,595.21	70.6701	4,595.21	70.6056	4,595.21	69.5144	4,595.21	68.6305	4,595.21	66.9988	4,595.21	65.0889	4,595.21	64.5389	4,595.21	60.319	4,595.21	63.7655	4,595.21	59.1835	4,595.21	63.1225	4,595.21	63.9784	4,595.21	60.661	4,595.21	62.7347	4,595.21	59.4596	4,595.21	64.0154
4,756.35	87.5057	4,756.35	86.6195	4,756.35	86.9819	4,756.35	85.6377	4,756.35	86.4341	4,756.35	84.4134	4,756.35	84.7249	4,756.35	83.9228	4,756.35	84.7339	4,756.35	82.5552	4,756.35	82.3543	4,756.35	80.3454	4,756.35	80.8347	4,756.35	79.0088	4,756.35	79.0896	4,756.35	75.2142	4,756.35	77.1369	4,756.35	73.134	4,756.35	73.6493	4,756.35	72.1224	4,756.35	71.5216	4,756.35	71.1494	4,756.35	68.0578	4,756.35	67.9389	4,756.35	67.3331	4,756.35	65.4668	4,756.35	66.3926	4,756.35	67.9699	4,756.35	61.6586	4,756.35	62.3603	4,756.35	57.8817	4,756.35	64.89	4,756.35	61.6813	4,756.35	62.9521	4,756.35	58.6753	4,756.35	59.5348
4,924.8	87.7138	4,924.8	87.1699	4,924.8	86.5688	4,924.8	86.9625	4,924.8	86.1378	4,924.8	86.1931	4,924.8	84.8217	4,924.8	84.7432	4,924.8	83.3556	4,924.8	81.7631	4,924.8	81.7003	4,924.8	81.5558	4,924.8	80.8039	4,924.8	78.8199	4,924.8	79.1607	4,924.8	76.2163	4,924.8	76.8084	4,924.8	75.1823	4,924.8	73.8347	4,924.8	70.4553	4,924.8	70.1884	4,924.8	67.7352	4,924.8	68.6176	4,924.8	66.1444	4,924.8	66.8919	4,924.8	58.0234	4,924.8	65.1171	4,924.8	62.5776	4,924.8	61.6716	4,924.8	59.1863	4,924.8	55.6317	4,924.8	63.0161	4,924.8	63.5708	4,924.8	59.2363	4,924.8	63.1981	4,924.8	58.3154
5,097.66	86.8382	5,097.66	87.0263	5,097.66	87.0085	5,097.66	85.5717	5,097.66	86.1005	5,097.66	83.7775	5,097.66	85.004	5,097.66	82.3195	5,097.66	82.9402	5,097.66	82.3207	5,097.66	83.8873	5,097.66	81.7541	5,097.66	82.9471	5,097.66	79.7348	5,097.66	80.3497	5,097.66	77.1315	5,097.66	76.2699	5,097.66	74.435	5,097.66	73.1963	5,097.66	69.7258	5,097.66	69.8684	5,097.66	66.7344	5,097.66	69.234	5,097.66	61.6571	5,097.66	65.5141	5,097.66	67.1208	5,097.66	63.9948	5,097.66	66.9519	5,097.66	64.3257	5,097.66	47.3725	5,097.66	45.8308	5,097.66	58.8341	5,097.66	54.8771	5,097.66	61.6134	5,097.66	65.4696	5,097.66	60.3402
5,277.83	86.6919	5,277.83	87.0349	5,277.83	87.2295	5,277.83	85.5431	5,277.83	86.4529	5,277.83	83.7604	5,277.83	83.9884	5,277.83	82.7208	5,277.83	83.3097	5,277.83	83.1988	5,277.83	83.2207	5,277.83	80.7708	5,277.83	81.3152	5,277.83	78.1827	5,277.83	78.7724	5,277.83	76.27	5,277.83	76.1251	5,277.83	70.4336	5,277.83	72.6063	5,277.83	65.9631	5,277.83	70.8449	5,277.83	65.7297	5,277.83	67.7154	5,277.83	63.6762	5,277.83	66.3175	5,277.83	67.0575	5,277.83	64.5321	5,277.83	65.9493	5,277.83	57.744	5,277.83	60.1899	5,277.83	54.3391	5,277.83	62.9866	5,277.83	55.173	5,277.83	64.2682	5,277.83	64.9173	5,277.83	62.9982
5,463.87	86.5233	5,463.87	86.5608	5,463.87	86.8665	5,463.87	86.3595	5,463.87	86.4738	5,463.87	85.1295	5,463.87	84.3993	5,463.87	84.1035	5,463.87	83.5978	5,463.87	83.1884	5,463.87	82.6496	5,463.87	82.1525	5,463.87	81.5256	5,463.87	79.8185	5,463.87	79.8774	5,463.87	77.0584	5,463.87	77.4884	5,463.87	74.256	5,463.87	74.1581	5,463.87	71.2314	5,463.87	71.7324	5,463.87	69.2043	5,463.87	65.3258	5,463.87	66.5222	5,463.87	65.7377	5,463.87	60.631	5,463.87	66.5645	5,463.87	60.1877	5,463.87	63.0164	5,463.87	53.1668	5,463.87	61.0455	5,463.87	65.3937	5,463.87	61.4251	5,463.87	64.9883	5,463.87	64.9999	5,463.87	63.4191
5,657.23	86.9256	5,657.23	86.6504	5,657.23	86.5886	5,657.23	86.3578	5,657.23	86.1509	5,657.23	84.6941	5,657.23	84.6808	5,657.23	83.4258	5,657.23	83.4205	5,657.23	81.5378	5,657.23	83.2916	5,657.23	80.8101	5,657.23	82.2354	5,657.23	77.7226	5,657.23	79.8387	5,657.23	74.3782	5,657.23	76.1667	5,657.23	72.8783	5,657.23	72.4053	5,657.23	67.6833	5,657.23	70.96	5,657.23	65.5875	5,657.23	70.1991	5,657.23	63.4012	5,657.23	66.9856	5,657.23	63.1852	5,657.23	66.9008	5,657.23	60.6475	5,657.23	62.7776	5,657.23	60.2704	5,657.23	56.2113	5,657.23	63.9491	5,657.23	60.7872	5,657.23	64.6877	5,657.23	61.2776	5,657.23	60.5797
5,856.45	86.2508	5,856.45	86.2911	5,856.45	86.2597	5,856.45	85.0731	5,856.45	86.0299	5,856.45	83.0607	5,856.45	84.3204	5,856.45	82.6931	5,856.45	83.3814	5,856.45	83.1576	5,856.45	83.4523	5,856.45	80.6097	5,856.45	81.233	5,856.45	78.3938	5,856.45	78.7332	5,856.45	76.3461	5,856.45	76.1255	5,856.45	72.7477	5,856.45	72.5743	5,856.45	70.4586	5,856.45	68.596	5,856.45	68.1122	5,856.45	65.9668	5,856.45	64.4813	5,856.45	65.0806	5,856.45	68.4612	5,856.45	67.5197	5,856.45	62.1121	5,856.45	62.2534	5,856.45	51.4616	5,856.45	57.2828	5,856.45	58.9865	5,856.45	62.4204	5,856.45	63.4461	5,856.45	58.4156	5,856.45	57.9159
6,062.99	87.0602	6,062.99	87.2722	6,062.99	86.6267	6,062.99	86.3775	6,062.99	86.263	6,062.99	85.2806	6,062.99	84.7283	6,062.99	83.3001	6,062.99	83.6657	6,062.99	83.2228	6,062.99	82.7437	6,062.99	80.6506	6,062.99	81.4754	6,062.99	79.5005	6,062.99	78.4832	6,062.99	76.245	6,062.99	76.03	6,062.99	70.5138	6,062.99	71.8908	6,062.99	71.2516	6,062.99	69.1204	6,062.99	69.6613	6,062.99	69.2967	6,062.99	67.1604	6,062.99	67.6945	6,062.99	67.5224	6,062.99	65.3567	6,062.99	61.8429	6,062.99	63.5545	6,062.99	56.4749	6,062.99	39.078	6,062.99	59.5381	6,062.99	61.5217	6,062.99	63.9492	6,062.99	60.1444	6,062.99	61.7319
6,276.86	86.5799	6,276.86	86.52	6,276.86	86.0832	6,276.86	85.7645	6,276.86	85.7345	6,276.86	84.7537	6,276.86	84.5881	6,276.86	83.2698	6,276.86	83.279	6,276.86	81.5157	6,276.86	81.9947	6,276.86	81.1212	6,276.86	79.8541	6,276.86	79.4996	6,276.86	78.1339	6,276.86	75.2622	6,276.86	75.2268	6,276.86	73.016	6,276.86	71.7213	6,276.86	68.6563	6,276.86	67.9197	6,276.86	65.9196	6,276.86	65.7351	6,276.86	64.0153	6,276.86	65.2796	6,276.86	62.0572	6,276.86	64.4845	6,276.86	57.6043	6,276.86	57.9529	6,276.86	54.934	6,276.86	56.0456	6,276.86	60.8851	6,276.86	56.8122	6,276.86	61.6424	6,276.86	54.4788	6,276.86	58.2092
6,498.05	86.5465	6,498.05	86.2909	6,498.05	86.2808	6,498.05	85.7776	6,498.05	85.7431	6,498.05	84.4487	6,498.05	84.4825	6,498.05	83.1493	6,498.05	82.4505	6,498.05	81.0302	6,498.05	82.1389	6,498.05	79.2071	6,498.05	80.2726	6,498.05	76.7494	6,498.05	77.7221	6,498.05	74.8015	6,498.05	75.5242	6,498.05	70.7156	6,498.05	71.709	6,498.05	69.5109	6,498.05	68.8509	6,498.05	64.9321	6,498.05	65.6554	6,498.05	59.981	6,498.05	63.6549	6,498.05	62.9026	6,498.05	60.2851	6,498.05	60.6235	6,498.05	61.1906	6,498.05	55.4559	6,498.05	55.7377	6,498.05	61.2269	6,498.05	59.9323	6,498.05	57.3224	6,498.05	53.4452	6,498.05	50.8415
6,726.56	86.7781	6,726.56	86.2786	6,726.56	86.7577	6,726.56	86.1713	6,726.56	86.0251	6,726.56	85.5724	6,726.56	85.177	6,726.56	82.9655	6,726.56	82.9398	6,726.56	82.6402	6,726.56	81.2758	6,726.56	80.4536	6,726.56	80.2159	6,726.56	77.7382	6,726.56	76.8495	6,726.56	76.1127	6,726.56	75.8479	6,726.56	71.6023	6,726.56	71.4158	6,726.56	68.689	6,726.56	69.0411	6,726.56	61.0969	6,726.56	65.2062	6,726.56	63.0594	6,726.56	64.4735	6,726.56	62.2622	6,726.56	58.6158	6,726.56	61.4948	6,726.56	63.9101	6,726.56	49.9973	6,726.56	48.9067	6,726.56	59.4149	6,726.56	59.0683	6,726.56	56.7884	6,726.56	56.7761	6,726.56	52.8293
6,963.87	85.976	6,963.87	85.7139	6,963.87	85.8393	6,963.87	85.5418	6,963.87	85.8593	6,963.87	84.5244	6,963.87	84.5143	6,963.87	81.6134	6,963.87	81.9666	6,963.87	80.162	6,963.87	80.5739	6,963.87	79.1861	6,963.87	79.1376	6,963.87	76.7947	6,963.87	77.479	6,963.87	74.2767	6,963.87	73.9662	6,963.87	72.7681	6,963.87	70.9026	6,963.87	65.3705	6,963.87	68.9274	6,963.87	66.5383	6,963.87	61.2748	6,963.87	63.0421	6,963.87	61.2822	6,963.87	61.4448	6,963.87	62.639	6,963.87	61.2138	6,963.87	62.3049	6,963.87	56.433	6,963.87	52.8118	6,963.87	60.0552	6,963.87	58.2523	6,963.87	56.8638	6,963.87	59.5442	6,963.87	52.2828
7,209.96	86.6827	7,209.96	86.5327	7,209.96	86.3945	7,209.96	85.9228	7,209.96	86.3609	7,209.96	84.6538	7,209.96	84.7955	7,209.96	82.6872	7,209.96	82.1317	7,209.96	81.1859	7,209.96	81.5581	7,209.96	79.8641	7,209.96	80.2223	7,209.96	77.6124	7,209.96	78.3394	7,209.96	75.5057	7,209.96	74.9538	7,209.96	71.247	7,209.96	72.0721	7,209.96	66.6232	7,209.96	68.1954	7,209.96	65.9397	7,209.96	67.5199	7,209.96	63.4919	7,209.96	63.0042	7,209.96	61.1145	7,209.96	63.8237	7,209.96	62.3155	7,209.96	61.0539	7,209.96	59.7237	7,209.96	51.9442	7,209.96	61.0154	7,209.96	57.8974	7,209.96	53.4033	7,209.96	57.0153	7,209.96	50.2667
7,464.84	86.6583	7,464.84	86.2351	7,464.84	86.1836	7,464.84	85.5807	7,464.84	86.0123	7,464.84	84.8003	7,464.84	84.5059	7,464.84	82.1094	7,464.84	81.9411	7,464.84	80.6634	7,464.84	80.1912	7,464.84	79.4619	7,464.84	79.6621	7,464.84	77.0219	7,464.84	76.894	7,464.84	73.6427	7,464.84	73.9924	7,464.84	68.9157	7,464.84	70.8915	7,464.84	67.4505	7,464.84	67.0292	7,464.84	64.3955	7,464.84	61.3552	7,464.84	62.7049	7,464.84	63.8868	7,464.84	64.1695	7,464.84	62.6029	7,464.84	58.7102	7,464.84	61.6653	7,464.84	59.1931	7,464.84	51.7957	7,464.84	60.0718	7,464.84	59.0678	7,464.84	56.9172	7,464.84	55.8469	7,464.84	53.4011
7,727.05	86.7436	7,727.05	86.3	7,727.05	85.9541	7,727.05	85.4812	7,727.05	85.9124	7,727.05	84.0834	7,727.05	84.3416	7,727.05	82.1892	7,727.05	82.071	7,727.05	80.2694	7,727.05	81.5494	7,727.05	79.8453	7,727.05	79.7731	7,727.05	77.8946	7,727.05	78.0891	7,727.05	73.1868	7,727.05	74.3411	7,727.05	70.6066	7,727.05	72.0462	7,727.05	65.672	7,727.05	66.3932	7,727.05	64.9335	7,727.05	64.8664	7,727.05	61.2277	7,727.05	61.8539	7,727.05	62.1286	7,727.05	61.8508	7,727.05	57.8971	7,727.05	57.8345	7,727.05	56.0923	7,727.05	61.258	7,727.05	58.2126	7,727.05	57.2788	7,727.05	49.856	7,727.05	53.7691	7,727.05	54.3843
7,999.51	86.6786	7,999.51	86.2733	7,999.51	86.236	7,999.51	85.1641	7,999.51	85.1052	7,999.51	84.4298	7,999.51	84.5252	7,999.51	83.1122	7,999.51	82.9011	7,999.51	81.5667	7,999.51	80.9712	7,999.51	79.8562	7,999.51	79.8684	7,999.51	77.1136	7,999.51	77.196	7,999.51	73.9774	7,999.51	73.4556	7,999.51	70.1309	7,999.51	70.0611	7,999.51	66.27	7,999.51	66.1874	7,999.51	60.8759	7,999.51	65.4944	7,999.51	61.6063	7,999.51	63.9047	7,999.51	59.3314	7,999.51	61.3302	7,999.51	55.4464	7,999.51	57.5777	7,999.51	58.8581	7,999.51	48.6438	7,999.51	56.5731	7,999.51	56.9936	7,999.51	47.1991	7,999.51	50.2658	7,999.51	55.3449
8,282.23	86.5625	8,282.23	86.1519	8,282.23	85.8081	8,282.23	84.9217	8,282.23	85.0317	8,282.23	84.3267	8,282.23	84.2223	8,282.23	82.2252	8,282.23	82.3579	8,282.23	80.3408	8,282.23	80.86	8,282.23	77.7994	8,282.23	78.6093	8,282.23	74.4889	8,282.23	75.7745	8,282.23	71.9761	8,282.23	72.8211	8,282.23	68.0621	8,282.23	68.7959	8,282.23	64.2277	8,282.23	65.3455	8,282.23	60.7043	8,282.23	62.695	8,282.23	60.2198	8,282.23	62.7378	8,282.23	59.2671	8,282.23	58.8046	8,282.23	45.3254	8,282.23	52.5435	8,282.23	48.4727	8,282.23	57.069	8,282.23	55.7409	8,282.23	55.8831	8,282.23	41.5271	8,282.23	42.7931	8,282.23	47.1246
8,573.73	86.4011	8,573.73	86.1264	8,573.73	85.8949	8,573.73	84.3833	8,573.73	84.5204	8,573.73	83.8533	8,573.73	83.8533	8,573.73	82.1329	8,573.73	82.3659	8,573.73	79.7028	8,573.73	80.9132	8,573.73	76.8093	8,573.73	78.0362	8,573.73	74.0644	8,573.73	75.1727	8,573.73	70.6336	8,573.73	71.0734	8,573.73	66.8423	8,573.73	68.0371	8,573.73	64.2493	8,573.73	65.3154	8,573.73	61.1807	8,573.73	59.6767	8,573.73	55.662	8,573.73	58.1318	8,573.73	57.7287	8,573.73	59.6968	8,573.73	57.3017	8,573.73	56.7099	8,573.73	53.8547	8,573.73	45.5942	8,573.73	56.0578	8,573.73	55.0976	8,573.73	39.2624	8,573.73	48.2297	8,573.73	53.2171
8,876.95	86.324	8,876.95	85.597	8,876.95	85.706	8,876.95	84.2639	8,876.95	84.5817	8,876.95	83.5956	8,876.95	84.2042	8,876.95	81.1324	8,876.95	81.6612	8,876.95	78.2304	8,876.95	78.8987	8,876.95	75.4572	8,876.95	76.6669	8,876.95	71.2155	8,876.95	73.4102	8,876.95	69.7182	8,876.95	70.6138	8,876.95	64.9154	8,876.95	66.4921	8,876.95	62.3896	8,876.95	63.7991	8,876.95	59.604	8,876.95	55.0711	8,876.95	52.8872	8,876.95	56.8142	8,876.95	56.9059	8,876.95	55.4441	8,876.95	50.1001	8,876.95	55.3989	8,876.95	53.6876	8,876.95	40.1629	8,876.95	51.6004	8,876.95	53.7768	8,876.95	34.001	8,876.95	48.9712	8,876.95	31.7083
9,188.96	85.8062	9,188.96	85.6702	9,188.96	85.2942	9,188.96	84.1259	9,188.96	84.1489	9,188.96	83.3675	9,188.96	82.7007	9,188.96	80.5784	9,188.96	80.6762	9,188.96	77.8368	9,188.96	79.1155	9,188.96	75.7081	9,188.96	76.248	9,188.96	72.4734	9,188.96	73.2104	9,188.96	68.347	9,188.96	68.6875	9,188.96	63.8086	9,188.96	66.1191	9,188.96	61.083	9,188.96	62.1239	9,188.96	55.893	9,188.96	57.717	9,188.96	53.7429	9,188.96	55.1103	9,188.96	53.6633	9,188.96	56.2182	9,188.96	55.5144	9,188.96	52.799	9,188.96	52.2348	9,188.96	53.975	9,188.96	45.922	9,188.96	47.8969	9,188.96	46.2909	9,188.96	41.9342	9,188.96	52.8552
9,514.16	85.9025	9,514.16	85.31	9,514.16	85.4677	9,514.16	84.0271	9,514.16	84.3425	9,514.16	82.8966	9,514.16	83.3767	9,514.16	79.7662	9,514.16	80.1291	9,514.16	77.0655	9,514.16	77.3103	9,514.16	74.2059	9,514.16	75.4719	9,514.16	70.7386	9,514.16	71.8233	9,514.16	66.1837	9,514.16	68.6329	9,514.16	62.24	9,514.16	65.0682	9,514.16	59.2646	9,514.16	62.2585	9,514.16	54.1093	9,514.16	58.7326	9,514.16	56.6637	9,514.16	56.5954	9,514.16	56.8866	9,514.16	55.7453	9,514.16	55.8106	9,514.16	55.3827	9,514.16	52.1439	9,514.16	51.1866	9,514.16	40.0256	9,514.16	48.8113	9,514.16	45.8809	9,514.16	37.8284	9,514.16	42.7115
9,849.61	85.7204	9,849.61	85.3437	9,849.61	85.3644	9,849.61	84.0773	9,849.61	84.1809	9,849.61	82.6313	9,849.61	82.5449	9,849.61	79.3528	9,849.61	79.8178	9,849.61	75.99	9,849.61	77.7401	9,849.61	73.4301	9,849.61	75.0688	9,849.61	70.0128	9,849.61	72.2881	9,849.61	64.7796	9,849.61	67.2675	9,849.61	60.8276	9,849.61	64.9621	9,849.61	59.1837	9,849.61	59.9495	9,849.61	54.9133	9,849.61	57.5687	9,849.61	55.2026	9,849.61	56.595	9,849.61	53.0476	9,849.61	57.1863	9,849.61	56.9579	9,849.61	48.5931	9,849.61	46.5208	9,849.61	48.8132	9,849.61	43.0649	9,849.61	43.0362	9,849.61	41.6499	9,849.61	41.496	9,849.61	50.4978
10,196.8	86.0666	10,196.8	85.5033	10,196.8	85.7807	10,196.8	84.1639	10,196.8	84.7937	10,196.8	82.4846	10,196.8	83.0838	10,196.8	79.6874	10,196.8	80.2093	10,196.8	75.6481	10,196.8	76.906	10,196.8	72.3296	10,196.8	74.2475	10,196.8	67.6422	10,196.8	71.7078	10,196.8	64.081	10,196.8	68.4789	10,196.8	61.3279	10,196.8	65.8416	10,196.8	59.4973	10,196.8	60.5593	10,196.8	53.434	10,196.8	55.7577	10,196.8	46.426	10,196.8	58.3927	10,196.8	54.8084	10,196.8	57.144	10,196.8	54.0726	10,196.8	50.6816	10,196.8	48.2755	10,196.8	48.6273	10,196.8	32.4204	10,196.8	42.0956	10,196.8	40.3822	10,196.8	48.0884	10,196.8	47.3699
10,555.7	86.0638	10,555.7	85.8372	10,555.7	85.5936	10,555.7	84.2891	10,555.7	84.6394	10,555.7	82.4327	10,555.7	82.7162	10,555.7	79.0287	10,555.7	80.0998	10,555.7	74.6309	10,555.7	77.2819	10,555.7	71.2393	10,555.7	74.8056	10,555.7	66.5714	10,555.7	71.2021	10,555.7	65.6967	10,555.7	67.8136	10,555.7	62.7486	10,555.7	65.0268	10,555.7	59.0225	10,555.7	60.8299	10,555.7	53.2919	10,555.7	57.7691	10,555.7	54.6272	10,555.7	57.3951	10,555.7	51.4805	10,555.7	53.9485	10,555.7	47.3128	10,555.7	48.5902	10,555.7	46.9614	10,555.7	46.8246	10,555.7	45.5614	10,555.7	32.5255	10,555.7	44.9117	10,555.7	47.4058	10,555.7	50.8632
10,927.7	86.2452	10,927.7	85.9926	10,927.7	85.8148	10,927.7	84.2481	10,927.7	84.7904	10,927.7	81.8984	10,927.7	82.8387	10,927.7	78.9299	10,927.7	79.9913	10,927.7	74.2794	10,927.7	76.7541	10,927.7	70.531	10,927.7	73.3869	10,927.7	68.4419	10,927.7	71.4796	10,927.7	66.133	10,927.7	67.945	10,927.7	63.3669	10,927.7	65.9399	10,927.7	59.7534	10,927.7	60.6791	10,927.7	57.4596	10,927.7	59.3876	10,927.7	51.9391	10,927.7	56.8034	10,927.7	53.4058	10,927.7	53.3858	10,927.7	39.797	10,927.7	48.3652	10,927.7	48.2017	10,927.7	27.8971	10,927.7	43.7574	10,927.7	43.8798	10,927.7	47.1636	10,927.7	44.4818	10,927.7	48.7298
11,313	86.143	11,313	85.9872	11,313	85.7135	11,313	84.1451	11,313	84.5897	11,313	81.9757	11,313	82.6666	11,313	78.1105	11,313	79.5774	11,313	73.0841	11,313	76.547	11,313	69.5561	11,313	73.424	11,313	68.3	11,313	71.5172	11,313	67.2034	11,313	69.1595	11,313	64.2504	11,313	66.6231	11,313	59.1289	11,313	61.3911	11,313	57.9791	11,313	61.2577	11,313	54.5219	11,313	53.6696	11,313	51.2412	11,313	51.5209	11,313	52.2234	11,313	45.888	11,313	46.9809	11,313	43.919	11,313	39.2599	11,313	35.3025	11,313	47.8796	11,313	43.7048	11,313	50.477
11,712.9	86.0499	11,712.9	85.8612	11,712.9	85.7784	11,712.9	84.1314	11,712.9	84.6177	11,712.9	81.9214	11,712.9	82.6446	11,712.9	77.6301	11,712.9	79.345	11,712.9	72.1461	11,712.9	75.8594	11,712.9	70.1527	11,712.9	72.9278	11,712.9	69.8572	11,712.9	72.6041	11,712.9	66.7622	11,712.9	69.4511	11,712.9	63.9818	11,712.9	67.0515	11,712.9	60.8545	11,712.9	61.6492	11,712.9	57.0766	11,712.9	61.3042	11,712.9	52.097	11,712.9	56.9319	11,712.9	51.126	11,712.9	53.653	11,712.9	51.7638	11,712.9	49.4103	11,712.9	41.8978	11,712.9	50.462	11,712.9	44.1063	11,712.9	45.1728	11,712.9	46.0577	11,712.9	45.7165	11,712.9	48.9227
12,126	86.1756	12,126	85.9238	12,126	85.8449	12,126	84.193	12,126	84.6654	12,126	81.666	12,126	82.7987	12,126	76.857	12,126	79.3506	12,126	71.4229	12,126	75.6979	12,126	70.0421	12,126	73.2323	12,126	70.4525	12,126	72.7095	12,126	68.6713	12,126	69.9958	12,126	65.5261	12,126	66.9177	12,126	60.7146	12,126	61.7928	12,126	59.6012	12,126	61.5299	12,126	55.3969	12,126	58.4026	12,126	53.5643	12,126	52.1728	12,126	53.6481	12,126	44.869	12,126	42.4705	12,126	49.1886	12,126	42.6089	12,126	46.6353	12,126	49.1865	12,126	45.9866	12,126	39.8447
12,553.7	86.4661	12,553.7	86.1185	12,553.7	86.0168	12,553.7	84.1146	12,553.7	84.8843	12,553.7	81.222	12,553.7	82.7602	12,553.7	76.3049	12,553.7	79.2918	12,553.7	71.6169	12,553.7	74.9391	12,553.7	70.2941	12,553.7	73.1398	12,553.7	70.0728	12,553.7	72.9985	12,553.7	67.7414	12,553.7	70.8456	12,553.7	65.3309	12,553.7	67.1833	12,553.7	59.898	12,553.7	62.4833	12,553.7	58.7639	12,553.7	61.3391	12,553.7	55.7687	12,553.7	57.4404	12,553.7	53.484	12,553.7	53.2569	12,553.7	50.0671	12,553.7	43.6263	12,553.7	45.0542	12,553.7	48.5849	12,553.7	46.6993	12,553.7	46.9992	12,553.7	50.618	12,553.7	45.7367	12,553.7	41.4649
12,996.1	86.8281	12,996.1	86.2944	12,996.1	86.1836	12,996.1	84.1319	12,996.1	84.9532	12,996.1	81.0346	12,996.1	82.7246	12,996.1	76.1057	12,996.1	78.8403	12,996.1	71.7454	12,996.1	75.1	12,996.1	70.7632	12,996.1	73.0659	12,996.1	71.0684	12,996.1	74.1522	12,996.1	68.4406	12,996.1	71.8171	12,996.1	65.5428	12,996.1	68.8096	12,996.1	61.8048	12,996.1	64.2671	12,996.1	59.4402	12,996.1	62.5053	12,996.1	52.5209	12,996.1	58.2208	12,996.1	50.2339	12,996.1	51.6398	12,996.1	37.1908	12,996.1	34.2684	12,996.1	42.699	12,996.1	50.4597	12,996.1	49.0261	12,996.1	47.3154	12,996.1	48.9384	12,996.1	43.8702	12,996.1	46.2381
13,454.6	87.2097	13,454.6	86.5355	13,454.6	86.4904	13,454.6	84.1151	13,454.6	85.1119	13,454.6	80.6399	13,454.6	82.5482	13,454.6	76.0482	13,454.6	78.5796	13,454.6	71.8458	13,454.6	75.2867	13,454.6	69.8996	13,454.6	73.7369	13,454.6	70.7329	13,454.6	74.9239	13,454.6	69.0303	13,454.6	72.8375	13,454.6	65.2241	13,454.6	69.2804	13,454.6	61.1711	13,454.6	64.6798	13,454.6	59.7319	13,454.6	63.4389	13,454.6	51.1347	13,454.6	58.666	13,454.6	50.5067	13,454.6	51.6863	13,454.6	30.9559	13,454.6	45.9329	13,454.6	43.6217	13,454.6	47.0091	13,454.6	46.9368	13,454.6	46.6007	13,454.6	40.074	13,454.6	49.2708	13,454.6	49.093
13,929.2	87.7162	13,929.2	86.663	13,929.2	86.9272	13,929.2	83.749	13,929.2	85.2229	13,929.2	80.3439	13,929.2	82.2	13,929.2	76.4383	13,929.2	78.124	13,929.2	71.5826	13,929.2	75.3637	13,929.2	69.3528	13,929.2	74.4181	13,929.2	70.643	13,929.2	75.4992	13,929.2	69.9514	13,929.2	73.4607	13,929.2	66.6516	13,929.2	69.4435	13,929.2	61.0767	13,929.2	65.4294	13,929.2	58.6843	13,929.2	63.5162	13,929.2	51.8642	13,929.2	59.816	13,929.2	53.0403	13,929.2	52.6439	13,929.2	44.7061	13,929.2	42.1557	13,929.2	43.2602	13,929.2	45.7954	13,929.2	45.5278	13,929.2	44.7042	13,929.2	29.3868	13,929.2	42.2366	13,929.2	40.6153
14,419.9	88.2588	14,419.9	86.7671	14,419.9	87.5988	14,419.9	83.5042	14,419.9	85.4954	14,419.9	80.4272	14,419.9	81.8446	14,419.9	77.0226	14,419.9	78.0684	14,419.9	70.0771	14,419.9	74.9752	14,419.9	66.8657	14,419.9	74.2318	14,419.9	71.8925	14,419.9	74.8316	14,419.9	71.6476	14,419.9	72.9092	14,419.9	67.7143	14,419.9	68.773	14,419.9	62.5575	14,419.9	65.3382	14,419.9	60.342	14,419.9	61.9353	14,419.9	54.114	14,419.9	59.1637	14,419.9	51.6818	14,419.9	47.1703	14,419.9	47.4142	14,419.9	45.404	14,419.9	34.6499	14,419.9	46.2953	14,419.9	44.6389	14,419.9	41.5953	14,419.9	45.754	14,419.9	29.4294	14,419.9	41.3627
14,928.2	88.4484	14,928.2	86.5164	14,928.2	88.0405	14,928.2	83.371	14,928.2	85.7665	14,928.2	80.6347	14,928.2	81.7787	14,928.2	76.3967	14,928.2	77.8975	14,928.2	64.5602	14,928.2	73.9697	14,928.2	67.7116	14,928.2	72.0831	14,928.2	73.3982	14,928.2	73.3555	14,928.2	72.912	14,928.2	71.4831	14,928.2	68.3322	14,928.2	66.9851	14,928.2	63.8828	14,928.2	63.5197	14,928.2	60.453	14,928.2	59.9266	14,928.2	52.8215	14,928.2	57.2277	14,928.2	51.4631	14,928.2	40.7427	14,928.2	48.5789	14,928.2	50.0106	14,928.2	37.8027	14,928.2	43.5805	14,928.2	39.2086	14,928.2	28.9158	14,928.2	47.1186	14,928.2	46.324	14,928.2	38.1333
15,455.6	88.3896	15,455.6	86.1691	15,455.6	88.2168	15,455.6	83.274	15,455.6	85.9705	15,455.6	80.4226	15,455.6	81.9202	15,455.6	74.0163	15,455.6	76.6787	15,455.6	52.9639	15,455.6	71.3201	15,455.6	70.4422	15,455.6	68.815	15,455.6	73.7332	15,455.6	72.1968	15,455.6	72.2596	15,455.6	71.0609	15,455.6	67.1842	15,455.6	66.6323	15,455.6	63.4298	15,455.6	63.8691	15,455.6	58.6844	15,455.6	60.7727	15,455.6	50.4424	15,455.6	55.0635	15,455.6	46.8268	15,455.6	37.8231	15,455.6	44.6351	15,455.6	52.0388	15,455.6	32.3171	15,455.6	43.9404	15,455.6	29.3105	15,455.6	40.9504	15,455.6	49.8914	15,455.6	45.9255	15,455.6	35.5002
16,000.5	87.6915	16,000.5	85.8282	16,000.5	87.9223	16,000.5	83.6651	16,000.5	86.2416	16,000.5	79.7313	16,000.5	82.2926	16,000.5	67.6597	16,000.5	75.4404	16,000.5	66.3318	16,000.5	69.065	16,000.5	71.1226	16,000.5	68.7955	16,000.5	71.5252	16,000.5	72.1026	16,000.5	68.983	16,000.5	71.2304	16,000.5	63.312	16,000.5	66.2476	16,000.5	59.327	16,000.5	63.8534	16,000.5	55.1663	16,000.5	58.4429	16,000.5	48.7519	16,000.5	55.4215	16,000.5	43.9509	16,000.5	42.8517	16,000.5	49.1216	16,000.5	51.4396	16,000.5	26.5741	16,000.5	37.1576	16,000.5	32.2076	16,000.5	43.3116	16,000.5	46.9127	16,000.5	43.8437	16,000.5	36.0561
16,564.5	87.0223	16,564.5	86.1493	16,564.5	87.2994	16,564.5	84.1491	16,564.5	86.2692	16,564.5	78.6563	16,564.5	82.6055	16,564.5	54.4694	16,564.5	75.9875	16,564.5	69.7382	16,564.5	71.0393	16,564.5	70.7067	16,564.5	71.8669	16,564.5	70.1906	16,564.5	73.5161	16,564.5	66.818	16,564.5	71.5893	16,564.5	61.472	16,564.5	66.4928	16,564.5	57.8127	16,564.5	62.783	16,564.5	54.275	16,564.5	58.1029	16,564.5	50.0449	16,564.5	55.3239	16,564.5	45.6001	16,564.5	43.593	16,564.5	45.4133	16,564.5	50.4491	16,564.5	34.9473	16,564.5	41.6853	16,564.5	42.1358	16,564.5	33.3645	16,564.5	38.4829	16,564.5	43.2274	16,564.5	40.0898
17,148.9	87.062	17,148.9	86.774	17,148.9	86.9453	17,148.9	84.4514	17,148.9	86.181	17,148.9	77.5829	17,148.9	82.6968	17,148.9	60.268	17,148.9	76.7345	17,148.9	70.603	17,148.9	72.8642	17,148.9	70.763	17,148.9	72.8579	17,148.9	71.0593	17,148.9	73.5946	17,148.9	69.2855	17,148.9	71.2216	17,148.9	63.5769	17,148.9	66.2008	17,148.9	60.2174	17,148.9	62.0292	17,148.9	56.3204	17,148.9	58.256	17,148.9	46.3035	17,148.9	53.7632	17,148.9	41.1205	17,148.9	35.6483	17,148.9	43.5333	17,148.9	51.0165	17,148.9	29.6605	17,148.9	37.1303	17,148.9	41.4177	17,148.9	39.3709	17,148.9	29.7244	17,148.9	37.56	17,148.9	38.0043
17,752.4	87.3533	17,752.4	87.0048	17,752.4	86.9246	17,752.4	84.0813	17,752.4	86.0586	17,752.4	75.9885	17,752.4	82.5883	17,752.4	62.2804	17,752.4	76.6155	17,752.4	71.3522	17,752.4	73.3237	17,752.4	72.1627	17,752.4	72.8344	17,752.4	72.6405	17,752.4	73.3486	17,752.4	70.421	17,752.4	71.2282	17,752.4	64.3102	17,752.4	66.3932	17,752.4	60.692	17,752.4	62.6012	17,752.4	55.208	17,752.4	56.8089	17,752.4	45.9879	17,752.4	52.7461	17,752.4	35.5897	17,752.4	39.1442	17,752.4	48.896	17,752.4	51.3729	17,752.4	35.9251	17,752.4	44.7512	17,752.4	43.2374	17,752.4	39.2981	17,752.4	30.8225	17,752.4	37.7992	17,752.4	43.0057
18,379.4	87.355	18,379.4	86.6347	18,379.4	86.9087	18,379.4	82.9566	18,379.4	85.8	18,379.4	73.7568	18,379.4	82.2834	18,379.4	64.1893	18,379.4	76.0422	18,379.4	71.8776	18,379.4	73.1368	18,379.4	73.1747	18,379.4	72.7067	18,379.4	72.7394	18,379.4	73.1803	18,379.4	69.396	18,379.4	70.9622	18,379.4	62.8837	18,379.4	65.7235	18,379.4	59.8529	18,379.4	62.0612	18,379.4	53.6008	18,379.4	55.6257	18,379.4	46.3723	18,379.4	51.4082	18,379.4	35.9732	18,379.4	42.6766	18,379.4	46.9632	18,379.4	52.0662	18,379.4	40.2935	18,379.4	45.7052	18,379.4	38.7622	18,379.4	33.4957	18,379.4	35.8363	18,379.4	41.4495	18,379.4	42.6974
19,026.9	87.353	19,026.9	86.1901	19,026.9	86.7483	19,026.9	81.6378	19,026.9	85.3632	19,026.9	70.7321	19,026.9	81.6977	19,026.9	67.6811	19,026.9	75.3564	19,026.9	73.5188	19,026.9	72.0598	19,026.9	73.581	19,026.9	72.0519	19,026.9	71.2717	19,026.9	72.3607	19,026.9	66.5373	19,026.9	69.7421	19,026.9	59.6444	19,026.9	64.4034	19,026.9	56.2067	19,026.9	60.0818	19,026.9	51.0903	19,026.9	54.1001	19,026.9	44.8476	19,026.9	49.3928	19,026.9	38.9491	19,026.9	42.5464	19,026.9	42.6305	19,026.9	50.7766	19,026.9	39.5608	19,026.9	43.1458	19,026.9	32.5027	19,026.9	29.8735	19,026.9	35.8999	19,026.9	42.8752	19,026.9	38.6841
19,697.8	86.7456	19,697.8	85.168	19,697.8	86.2996	19,697.8	80.0942	19,697.8	84.907	19,697.8	65.6243	19,697.8	80.9462	19,697.8	69.5362	19,697.8	74.591	19,697.8	74.0401	19,697.8	70.7423	19,697.8	72.4642	19,697.8	70.5702	19,697.8	67.6836	19,697.8	70.3098	19,697.8	59.2097	19,697.8	67.5731	19,697.8	47.2339	19,697.8	61.9363	19,697.8	45.7878	19,697.8	57.2758	19,697.8	41.6177	19,697.8	51.4551	19,697.8	42.3543	19,697.8	49.8329	19,697.8	35.1523	19,697.8	37.717	19,697.8	46.6797	19,697.8	49.4133	19,697.8	34.4031	19,697.8	41.7939	19,697.8	36.6905	19,697.8	23.9361	19,697.8	33.1793	19,697.8	37.6782	19,697.8	33.7716
19,999.5	86.4029	19,999.5	84.4921	19,999.5	86.0102	19,999.5	79.3331	19,999.5	84.7289	19,999.5	63.3429	19,999.5	80.6961	19,999.5	70.5611	19,999.5	73.9808	19,999.5	73.7754	19,999.5	70.8319	19,999.5	71.2742	19,999.5	69.4573	19,999.5	63.2266	19,999.5	69.5389	19,999.5	51.6895	19,999.5	66.9274	19,999.5	53.6651	19,999.5	60.5513	19,999.5	45.6892	19,999.5	54.2729	19,999.5	45.9561	19,999.5	47.2885	19,999.5	54.7995	19,999.5	52.6778	19,999.5	47.0343	19,999.5	44.1522	19,999.5	46.9763	19,999.5	42.9519	19,999.5	34.0588	19,999.5	44.4744	19,999.5	44.2574	19,999.5	32.4965	19,999.5	41.2873	19,999.5	43.3162	19,999.5	31.0203
