"SPL Horizontal"
"On-Axis"		"10°"		"-10°"		"20°"		"-20°"		"30°"		"-30°"		"40°"		"-40°"		"50°"		"-50°"		"60°"		"-60°"		"70°"		"-70°"		"80°"		"-80°"		"90°"		"-90°"		"100°"		"-100°"		"110°"		"-110°"		"120°"		"-120°"		"130°"		"-130°"		"140°"		"-140°"		"150°"		"-150°"		"160°"		"-160°"		"170°"		"-170°"		"180°"
"Frequency / Hz"	"Sound Pressure Level / dB (re 20 µPa/V)  [2.83  V @ 1. m]"	"Frequency / Hz"	"Sound Pressure Level / dB (re 20 µPa/V)  [2.83  V @ 1. m]"	"Frequency / Hz"	"Sound Pressure Level / dB (re 20 µPa/V)  [2.83  V @ 1. m]"	"Frequency / Hz"	"Sound Pressure Level / dB (re 20 µPa/V)  [2.83  V @ 1. m]"	"Frequency / Hz"	"Sound Pressure Level / dB (re 20 µPa/V)  [2.83  V @ 1. m]"	"Frequency / Hz"	"Sound Pressure Level / dB (re 20 µPa/V)  [2.83  V @ 1. m]"	"Frequency / Hz"	"Sound Pressure Level / dB (re 20 µPa/V)  [2.83  V @ 1. m]"	"Frequency / Hz"	"Sound Pressure Level / dB (re 20 µPa/V)  [2.83  V @ 1. m]"	"Frequency / Hz"	"Sound Pressure Level / dB (re 20 µPa/V)  [2.83  V @ 1. m]"	"Frequency / Hz"	"Sound Pressure Level / dB (re 20 µPa/V)  [2.83  V @ 1. m]"	"Frequency / Hz"	"Sound Pressure Level / dB (re 20 µPa/V)  [2.83  V @ 1. m]"	"Frequency / Hz"	"Sound Pressure Level / dB (re 20 µPa/V)  [2.83  V @ 1. m]"	"Frequency / Hz"	"Sound Pressure Level / dB (re 20 µPa/V)  [2.83  V @ 1. m]"	"Frequency / Hz"	"Sound Pressure Level / dB (re 20 µPa/V)  [2.83  V @ 1. m]"	"Frequency / Hz"	"Sound Pressure Level / dB (re 20 µPa/V)  [2.83  V @ 1. m]"	"Frequency / Hz"	"Sound Pressure Level / dB (re 20 µPa/V)  [2.83  V @ 1. m]"	"Frequency / Hz"	"Sound Pressure Level / dB (re 20 µPa/V)  [2.83  V @ 1. m]"	"Frequency / Hz"	"Sound Pressure Level / dB (re 20 µPa/V)  [2.83  V @ 1. m]"	"Frequency / Hz"	"Sound Pressure Level / dB (re 20 µPa/V)  [2.83  V @ 1. m]"	"Frequency / Hz"	"Sound Pressure Level / dB (re 20 µPa/V)  [2.83  V @ 1. m]"	"Frequency / Hz"	"Sound Pressure Level / dB (re 20 µPa/V)  [2.83  V @ 1. m]"	"Frequency / Hz"	"Sound Pressure Level / dB (re 20 µPa/V)  [2.83  V @ 1. m]"	"Frequency / Hz"	"Sound Pressure Level / dB (re 20 µPa/V)  [2.83  V @ 1. m]"	"Frequency / Hz"	"Sound Pressure Level / dB (re 20 µPa/V)  [2.83  V @ 1. m]"	"Frequency / Hz"	"Sound Pressure Level / dB (re 20 µPa/V)  [2.83  V @ 1. m]"	"Frequency / Hz"	"Sound Pressure Level / dB (re 20 µPa/V)  [2.83  V @ 1. m]"	"Frequency / Hz"	"Sound Pressure Level / dB (re 20 µPa/V)  [2.83  V @ 1. m]"	"Frequency / Hz"	"Sound Pressure Level / dB (re 20 µPa/V)  [2.83  V @ 1. m]"	"Frequency / Hz"	"Sound Pressure Level / dB (re 20 µPa/V)  [2.83  V @ 1. m]"	"Frequency / Hz"	"Sound Pressure Level / dB (re 20 µPa/V)  [2.83  V @ 1. m]"	"Frequency / Hz"	"Sound Pressure Level / dB (re 20 µPa/V)  [2.83  V @ 1. m]"	"Frequency / Hz"	"Sound Pressure Level / dB (re 20 µPa/V)  [2.83  V @ 1. m]"	"Frequency / Hz"	"Sound Pressure Level / dB (re 20 µPa/V)  [2.83  V @ 1. m]"	"Frequency / Hz"	"Sound Pressure Level / dB (re 20 µPa/V)  [2.83  V @ 1. m]"	"Frequency / Hz"	"Sound Pressure Level / dB (re 20 µPa/V)  [2.83  V @ 1. m]"	"Frequency / Hz"	"Sound Pressure Level / dB (re 20 µPa/V)  [2.83  V @ 1. m]"
20.5078	62.7269	20.5078	62.7124	20.5078	62.7328	20.5078	62.6895	20.5078	62.7298	20.5078	62.6577	20.5078	62.7167	20.5078	62.6165	20.5078	62.6925	20.5078	62.5653	20.5078	62.6558	20.5078	62.5038	20.5078	62.6053	20.5078	62.432	20.5078	62.5406	20.5078	62.3509	20.5078	62.462	20.5078	62.2622	20.5078	62.3708	20.5078	62.1684	20.5078	62.27	20.5078	62.0726	20.5078	62.1635	20.5078	61.9785	20.5078	62.0561	20.5078	61.89	20.5078	61.953	20.5078	61.8112	20.5078	61.8596	20.5078	61.746	20.5078	61.7806	20.5078	61.6978	20.5078	61.7199	20.5078	61.6695	20.5078	61.6803	20.5078	61.6634
21.9727	64.4696	21.9727	64.4358	21.9727	64.4962	21.9727	64.396	21.9727	64.5138	21.9727	64.3511	21.9727	64.5206	21.9727	64.3015	21.9727	64.5149	21.9727	64.2474	21.9727	64.495	21.9727	64.1887	21.9727	64.4601	21.9727	64.1256	21.9727	64.4101	21.9727	64.0585	21.9727	64.346	21.9727	63.9883	21.9727	64.2695	21.9727	63.9165	21.9727	64.1837	21.9727	63.8451	21.9727	64.092	21.9727	63.7769	21.9727	63.9983	21.9727	63.715	21.9727	63.9068	21.9727	63.6627	21.9727	63.8213	21.9727	63.6232	21.9727	63.7454	21.9727	63.5992	21.9727	63.6823	21.9727	63.5926	21.9727	63.6347	21.9727	63.6044
23.4375	65.406	23.4375	65.3915	23.4375	65.4128	23.4375	65.3699	23.4375	65.4109	23.4375	65.3414	23.4375	65.3993	23.4375	65.3062	23.4375	65.3767	23.4375	65.2639	23.4375	65.3424	23.4375	65.2145	23.4375	65.2959	23.4375	65.1581	23.4375	65.2374	23.4375	65.0951	23.4375	65.1682	23.4375	65.0265	23.4375	65.0904	23.4375	64.9539	23.4375	65.007	23.4375	64.8794	23.4375	64.9215	23.4375	64.8058	23.4375	64.8378	23.4375	64.7361	23.4375	64.7595	23.4375	64.6736	23.4375	64.6902	23.4375	64.6215	23.4375	64.6328	23.4375	64.5826	23.4375	64.5895	23.4375	64.5589	23.4375	64.5623	23.4375	64.5519
24.9023	66.1754	24.9023	66.1599	24.9023	66.1812	24.9023	66.1354	24.9023	66.1768	24.9023	66.102	24.9023	66.1612	24.9023	66.0601	24.9023	66.1339	24.9023	66.0099	24.9023	66.0943	24.9023	65.9517	24.9023	66.0424	24.9023	65.8864	24.9023	65.9789	24.9023	65.8152	24.9023	65.9051	24.9023	65.7397	24.9023	65.8233	24.9023	65.6622	24.9023	65.7366	24.9023	65.5852	24.9023	65.6484	24.9023	65.5113	24.9023	65.5626	24.9023	65.4434	24.9023	65.4828	24.9023	65.384	24.9023	65.4126	24.9023	65.3354	24.9023	65.3547	24.9023	65.2997	24.9023	65.3114	24.9023	65.2785	24.9023	65.284	24.9023	65.273
26.3672	66.9187	26.3672	66.9049	26.3672	66.924	26.3672	66.8831	26.3672	66.9202	26.3672	66.8532	26.3672	66.9067	26.3672	66.8154	26.3672	66.8828	26.3672	66.7695	26.3672	66.8477	26.3672	66.716	26.3672	66.8013	26.3672	66.6554	26.3672	66.744	26.3672	66.5887	26.3672	66.6768	26.3672	66.5176	26.3672	66.6016	26.3672	66.444	26.3672	66.5212	26.3672	66.3706	26.3672	66.4387	26.3672	66.3	26.3672	66.3577	26.3672	66.235	26.3672	66.2818	26.3672	66.1782	26.3672	66.2143	26.3672	66.1321	26.3672	66.158	26.3672	66.0986	26.3672	66.1153	26.3672	66.0794	26.3672	66.0875	26.3672	66.0755
27.832	67.7455	27.832	67.7284	27.832	67.7529	27.832	67.7022	27.832	67.75	27.832	67.6673	27.832	67.7363	27.832	67.624	27.832	67.7111	27.832	67.5728	27.832	67.6741	27.832	67.5143	27.832	67.6255	27.832	67.4496	27.832	67.5657	27.832	67.3798	27.832	67.4962	27.832	67.3067	27.832	67.4189	27.832	67.2325	27.832	67.3367	27.832	67.1594	27.832	67.2527	27.832	67.0901	27.832	67.1703	27.832	67.027	27.832	67.0931	27.832	66.9725	27.832	67.0243	27.832	66.9289	27.832	66.9667	27.832	66.8978	27.832	66.9224	27.832	66.8809	27.832	66.8929	27.832	66.8791
29.2969	68.4704	29.2969	68.459	29.2969	68.4718	29.2969	68.4381	29.2969	68.4628	29.2969	68.4077	29.2969	68.4431	29.2969	68.3683	29.2969	68.4124	29.2969	68.3199	29.2969	68.3704	29.2969	68.2633	29.2969	68.3175	29.2969	68.1992	29.2969	68.2544	29.2969	68.1288	29.2969	68.1827	29.2969	68.0542	29.2969	68.1043	29.2969	67.9774	29.2969	68.022	29.2969	67.9011	29.2969	67.9389	29.2969	67.8279	29.2969	67.8584	29.2969	67.7607	29.2969	67.7838	29.2969	67.702	29.2969	67.7183	29.2969	67.6539	29.2969	67.6645	29.2969	67.6183	29.2969	67.6244	29.2969	67.5967	29.2969	67.5995	29.2969	67.5902
30.7617	69.2711	30.7617	69.2596	30.7617	69.2726	30.7617	69.2382	30.7617	69.2634	30.7617	69.2075	30.7617	69.2435	30.7617	69.1678	30.7617	69.2126	30.7617	69.1197	30.7617	69.1708	30.7617	69.064	30.7617	69.1188	30.7617	69.0017	30.7617	69.0575	30.7617	68.9343	30.7617	68.9887	30.7617	68.8635	30.7617	68.9145	30.7617	68.7916	30.7617	68.8374	30.7617	68.7208	30.7617	68.7605	30.7617	68.6536	30.7617	68.6866	30.7617	68.5924	30.7617	68.6187	30.7617	68.5393	30.7617	68.5592	30.7617	68.4963	30.7617	68.5103	30.7617	68.4649	30.7617	68.4737	30.7617	68.4463	30.7617	68.4506	30.7617	68.4414
32.2266	69.7393	32.2266	69.7279	32.2266	69.7397	32.2266	69.7058	32.2266	69.7288	32.2266	69.6735	32.2266	69.7065	32.2266	69.6312	32.2266	69.6727	32.2266	69.5796	32.2266	69.6275	32.2266	69.5194	32.2266	69.5716	32.2266	69.4519	32.2266	69.5061	32.2266	69.3785	32.2266	69.4328	32.2266	69.3013	32.2266	69.354	32.2266	69.2229	32.2266	69.2724	32.2266	69.1458	32.2266	69.1912	32.2266	69.0729	32.2266	69.1132	32.2266	69.007	32.2266	69.0416	32.2266	68.9503	32.2266	68.9787	32.2266	68.905	32.2266	68.9267	32.2266	68.8727	32.2266	68.8874	32.2266	68.8544	32.2266	68.8618	32.2266	68.8507
33.6914	70.1148	33.6914	70.1059	33.6914	70.1129	33.6914	70.0863	33.6914	70.1	33.6914	70.0563	33.6914	70.0761	33.6914	70.0163	33.6914	70.0413	33.6914	69.967	33.6914	69.9958	33.6914	69.9092	33.6914	69.9403	33.6914	69.8442	33.6914	69.8759	33.6914	69.7738	33.6914	69.8043	33.6914	69.7	33.6914	69.7277	33.6914	69.6252	33.6914	69.6488	33.6914	69.5517	33.6914	69.5706	33.6914	69.4822	33.6914	69.4962	33.6914	69.4189	33.6914	69.4285	33.6914	69.364	33.6914	69.3699	33.6914	69.3194	33.6914	69.3226	33.6914	69.2864	33.6914	69.2879	33.6914	69.2661	33.6914	69.2667	33.6914	69.2595
35.1562	71.1975	35.1562	71.191	35.1562	71.1922	35.1562	71.1727	35.1562	71.1753	35.1562	71.143	35.1562	71.1469	35.1562	71.1021	35.1562	71.1074	35.1562	71.0507	35.1562	71.0574	35.1562	70.9897	35.1562	70.9977	35.1562	70.9207	35.1562	70.9296	35.1562	70.8456	35.1562	70.8548	35.1562	70.7665	35.1562	70.7756	35.1562	70.6862	35.1562	70.6945	35.1562	70.6075	35.1562	70.6143	35.1562	70.5331	35.1562	70.5381	35.1562	70.4656	35.1562	70.4687	35.1562	70.4071	35.1562	70.4086	35.1562	70.3596	35.1562	70.3599	35.1562	70.3245	35.1562	70.3242	35.1562	70.3028	35.1562	70.3025	35.1562	70.2954
36.6211	71.4499	36.6211	71.4438	36.6211	71.4441	36.6211	71.4258	36.6211	71.4266	36.6211	71.3961	36.6211	71.3975	36.6211	71.355	36.6211	71.3573	36.6211	71.3033	36.6211	71.3066	36.6211	71.2419	36.6211	71.2464	36.6211	71.1725	36.6211	71.1781	36.6211	71.097	36.6211	71.1035	36.6211	71.0179	36.6211	71.0248	36.6211	70.9379	36.6211	70.9447	36.6211	70.8598	36.6211	70.8661	36.6211	70.7864	36.6211	70.7918	36.6211	70.7202	36.6211	70.7245	36.6211	70.6632	36.6211	70.6664	36.6211	70.6174	36.6211	70.6195	36.6211	70.5838	36.6211	70.585	36.6211	70.5634	36.6211	70.5639	36.6211	70.5567
38.0859	71.9043	38.0859	71.8947	38.0859	71.9017	38.0859	71.8731	38.0859	71.8868	38.0859	71.8397	38.0859	71.8598	38.0859	71.7951	38.0859	71.821	38.0859	71.7399	38.0859	71.771	38.0859	71.6754	38.0859	71.7108	38.0859	71.6031	38.0859	71.6417	38.0859	71.5249	38.0859	71.5658	38.0859	71.4435	38.0859	71.4854	38.0859	71.3616	38.0859	71.4032	38.0859	71.2822	38.0859	71.3221	38.0859	71.2082	38.0859	71.245	38.0859	71.1421	38.0859	71.1746	38.0859	71.0861	38.0859	71.1133	38.0859	71.042	38.0859	71.063	38.0859	71.0108	38.0859	71.0251	38.0859	70.9933	38.0859	71.0005	38.0859	70.9898
39.5508	72.5184	39.5508	72.5108	39.5508	72.5142	39.5508	72.4915	39.5508	72.4984	39.5508	72.4609	39.5508	72.471	39.5508	72.4194	39.5508	72.4328	39.5508	72.368	39.5508	72.3844	39.5508	72.3077	39.5508	72.327	39.5508	72.2403	39.5508	72.262	39.5508	72.1677	39.5508	72.1915	39.5508	72.0924	39.5508	72.1176	39.5508	72.0169	39.5508	72.043	39.5508	71.9441	39.5508	71.9701	39.5508	71.8764	39.5508	71.9015	39.5508	71.8162	39.5508	71.8393	39.5508	71.7653	39.5508	71.7855	39.5508	71.7252	39.5508	71.7414	39.5508	71.6969	39.5508	71.7083	39.5508	71.681	39.5508	71.6869	39.5508	71.6777
41.0156	73.055	41.0156	73.0555	41.0156	73.0406	41.0156	73.0422	41.0156	73.0125	41.0156	73.0152	41.0156	72.9713	41.0156	72.9751	41.0156	72.9177	41.0156	72.9229	41.0156	72.853	41.0156	72.8598	41.0156	72.7788	41.0156	72.7874	41.0156	72.6973	41.0156	72.7081	41.0156	72.6111	41.0156	72.6243	41.0156	72.5233	41.0156	72.539	41.0156	72.4371	41.0156	72.4551	41.0156	72.3557	41.0156	72.3755	41.0156	72.282	41.0156	72.3028	41.0156	72.2185	41.0156	72.239	41.0156	72.1671	41.0156	72.1856	41.0156	72.129	41.0156	72.1438	41.0156	72.1047	41.0156	72.1143	41.0156	72.0943	41.0156	72.0977
42.4805	73.5399	42.4805	73.528	42.4805	73.5363	42.4805	73.5009	42.4805	73.517	42.4805	73.459	42.4805	73.4824	42.4805	73.4033	42.4805	73.4327	42.4805	73.335	42.4805	73.369	42.4805	73.2557	42.4805	73.2924	42.4805	73.1674	42.4805	73.2046	42.4805	73.0725	42.4805	73.1081	42.4805	72.9738	42.4805	73.0057	42.4805	72.8742	42.4805	72.9008	42.4805	72.777	42.4805	72.7973	42.4805	72.6853	42.4805	72.6989	42.4805	72.602	42.4805	72.6095	42.4805	72.5298	42.4805	72.5323	42.4805	72.4709	42.4805	72.4703	42.4805	72.427	42.4805	72.4252	42.4805	72.3996	42.4805	72.3982	42.4805	72.3898
43.9453	74.1239	43.9453	74.1158	43.9453	74.1184	43.9453	74.0941	43.9453	74.0992	43.9453	74.0596	43.9453	74.0666	43.9453	74.0129	43.9453	74.0211	43.9453	73.9551	43.9453	73.9637	43.9453	73.8877	43.9453	73.8956	43.9453	73.8123	43.9453	73.8186	43.9453	73.731	43.9453	73.7348	43.9453	73.6461	43.9453	73.647	43.9453	73.5603	43.9453	73.558	43.9453	73.4763	43.9453	73.4711	43.9453	73.3968	43.9453	73.3892	43.9453	73.3244	43.9453	73.3154	43.9453	73.2615	43.9453	73.2521	43.9453	73.21	43.9453	73.2015	43.9453	73.1715	43.9453	73.165	43.9453	73.1471	43.9453	73.1436	43.9453	73.1376
45.4102	74.5988	45.4102	74.5889	45.4102	74.5961	45.4102	74.5666	45.4102	74.5809	45.4102	74.5325	45.4102	74.5535	45.4102	74.4874	45.4102	74.5143	45.4102	74.4323	45.4102	74.4643	45.4102	74.3686	45.4102	74.4046	45.4102	74.2982	45.4102	74.3371	45.4102	74.2232	45.4102	74.2636	45.4102	74.1459	45.4102	74.1866	45.4102	74.0691	45.4102	74.1086	45.4102	73.9952	45.4102	74.0324	45.4102	73.9268	45.4102	73.9605	45.4102	73.866	45.4102	73.8953	45.4102	73.8146	45.4102	73.8387	45.4102	73.7739	45.4102	73.7924	45.4102	73.7452	45.4102	73.7576	45.4102	73.7289	45.4102	73.7352	45.4102	73.7255
46.875	75.0247	46.875	75.0116	46.875	75.0239	46.875	74.985	46.875	75.0095	46.875	74.9456	46.875	74.9816	46.875	74.8945	46.875	74.9413	46.875	74.8333	46.875	74.8897	46.875	74.7639	46.875	74.8284	46.875	74.6887	46.875	74.7595	46.875	74.6104	46.875	74.6855	46.875	74.5318	46.875	74.6088	46.875	74.4558	46.875	74.5324	46.875	74.385	46.875	74.4586	46.875	74.3215	46.875	74.3899	46.875	74.2672	46.875	74.328	46.875	74.2231	46.875	74.2745	46.875	74.1902	46.875	74.2303	46.875	74.1687	46.875	74.1962	46.875	74.1587	46.875	74.1727	46.875	74.1601
48.3398	75.3646	48.3398	75.3499	48.3398	75.3644	48.3398	75.3208	48.3398	75.3496	48.3398	75.2782	48.3398	75.3206	48.3398	75.2233	48.3398	75.2784	48.3398	75.158	48.3398	75.2244	48.3398	75.0845	48.3398	75.1604	48.3398	75.0055	48.3398	75.0888	48.3398	74.924	48.3398	75.0122	48.3398	74.8431	48.3398	74.9334	48.3398	74.7656	48.3398	74.8554	48.3398	74.6943	48.3398	74.7807	48.3398	74.6315	48.3398	74.7118	48.3398	74.5788	48.3398	74.6503	48.3398	74.5371	48.3398	74.5976	48.3398	74.5069	48.3398	74.5543	48.3398	74.4881	48.3398	74.5207	48.3398	74.4805	48.3398	74.4971	48.3398	74.4836
51.2695	76.2288	51.2695	76.2147	51.2695	76.2276	51.2695	76.186	51.2695	76.2114	51.2695	76.1437	51.2695	76.1805	51.2695	76.0894	51.2695	76.136	51.2695	76.0251	51.2695	76.0797	51.2695	75.9532	51.2695	76.0135	51.2695	75.8764	51.2695	75.9401	51.2695	75.7976	51.2695	75.8621	51.2695	75.7196	51.2695	75.7826	51.2695	75.645	51.2695	75.7045	51.2695	75.5762	51.2695	75.6305	51.2695	75.515	51.2695	75.5628	51.2695	75.4629	51.2695	75.5033	51.2695	75.4206	51.2695	75.4531	51.2695	75.3886	51.2695	75.4129	51.2695	75.367	51.2695	75.383	51.2695	75.3556	51.2695	75.3636	51.2695	75.3545
52.7344	76.7145	52.7344	76.6997	52.7344	76.713	52.7344	76.6691	52.7344	76.6955	52.7344	76.6238	52.7344	76.6625	52.7344	76.5652	52.7344	76.6153	52.7344	76.4955	52.7344	76.5556	52.7344	76.4173	52.7344	76.4857	52.7344	76.3334	52.7344	76.4081	52.7344	76.2472	52.7344	76.3257	52.7344	76.1617	52.7344	76.2417	52.7344	76.0802	52.7344	76.159	52.7344	76.0052	52.7344	76.0804	52.7344	75.9389	52.7344	76.0081	52.7344	75.8828	52.7344	75.944	52.7344	75.838	52.7344	75.8892	52.7344	75.8048	52.7344	75.8446	52.7344	75.7834	52.7344	75.8105	52.7344	75.7734	52.7344	75.7872	52.7344	75.7748
54.1992	77.0937	54.1992	77.0812	54.1992	77.0892	54.1992	77.0522	54.1992	77.0682	54.1992	77.0077	54.1992	77.0312	54.1992	76.9492	54.1992	76.9799	54.1992	76.879	54.1992	76.916	54.1992	76.7997	54.1992	76.8421	54.1992	76.7144	54.1992	76.7611	54.1992	76.6265	54.1992	76.6761	54.1992	76.5393	54.1992	76.5904	54.1992	76.4559	54.1992	76.5071	54.1992	76.3793	54.1992	76.4289	54.1992	76.3116	54.1992	76.3582	54.1992	76.2544	54.1992	76.2964	54.1992	76.2087	54.1992	76.2445	54.1992	76.1747	54.1992	76.203	54.1992	76.1523	54.1992	76.1719	54.1992	76.1412	54.1992	76.1513	54.1992	76.141
55.6641	77.4398	55.6641	77.4278	55.6641	77.4315	55.6641	77.396	55.6641	77.4032	55.6641	77.3456	55.6641	77.3559	55.6641	77.2785	55.6641	77.2912	55.6641	77.1972	55.6641	77.2117	55.6641	77.1051	55.6641	77.1204	55.6641	77.0059	55.6641	77.0211	55.6641	76.9036	55.6641	76.9178	55.6641	76.8022	55.6641	76.8146	55.6641	76.7056	55.6641	76.7156	55.6641	76.617	55.6641	76.6243	55.6641	76.5387	55.6641	76.5435	55.6641	76.4723	55.6641	76.475	55.6641	76.4185	55.6641	76.4197	55.6641	76.3774	55.6641	76.3776	55.6641	76.3485	55.6641	76.3483	55.6641	76.3314	55.6641	76.3312	55.6641	76.3257
58.5938	78.2011	58.5938	78.1919	58.5938	78.1934	58.5938	78.1662	58.5938	78.1688	58.5938	78.125	58.5938	78.1283	58.5938	78.0699	58.5938	78.0733	58.5938	78.0029	58.5938	78.0057	58.5938	77.9266	58.5938	77.9281	58.5938	77.8438	58.5938	77.8437	58.5938	77.7575	58.5938	77.7556	58.5938	77.6709	58.5938	77.6672	58.5938	77.5867	58.5938	77.5817	58.5938	77.5077	58.5938	77.5018	58.5938	77.436	58.5938	77.4296	58.5938	77.3731	58.5938	77.3668	58.5938	77.3204	58.5938	77.3145	58.5938	77.2785	58.5938	77.2736	58.5938	77.2479	58.5938	77.2444	58.5938	77.2291	58.5938	77.2272	58.5938	77.2221
60.0586	78.5766	60.0586	78.5645	60.0586	78.5705	60.0586	78.5348	60.0586	78.5465	60.0586	78.4885	60.0586	78.5057	60.0586	78.4277	60.0586	78.4497	60.0586	78.3548	60.0586	78.3809	60.0586	78.2729	60.0586	78.3022	60.0586	78.1857	60.0586	78.217	60.0586	78.0966	60.0586	78.1287	60.0586	78.0092	60.0586	78.0409	60.0586	77.9267	60.0586	77.9569	60.0586	77.8518	60.0586	77.8794	60.0586	77.7862	60.0586	77.8104	60.0586	77.731	60.0586	77.7514	60.0586	77.6867	60.0586	77.7029	60.0586	77.6532	60.0586	77.6652	60.0586	77.6302	60.0586	77.638	60.0586	77.6173	60.0586	77.6211	60.0586	77.6143
62.9883	79.2031	62.9883	79.1907	62.9883	79.1952	62.9883	79.1584	62.9883	79.1676	62.9883	79.1074	62.9883	79.1214	62.9883	79.0397	62.9883	79.0586	62.9883	78.9581	62.9883	78.982	62.9883	78.8661	62.9883	78.8948	62.9883	78.7676	62.9883	78.8008	62.9883	78.6668	62.9883	78.704	62.9883	78.5681	62.9883	78.6081	62.9883	78.4751	62.9883	78.5168	62.9883	78.3911	62.9883	78.4329	62.9883	78.3181	62.9883	78.3583	62.9883	78.2576	62.9883	78.2944	62.9883	78.2099	62.9883	78.2416	62.9883	78.1749	62.9883	78.2001	62.9883	78.1519	62.9883	78.1694	62.9883	78.1403	62.9883	78.1493	62.9883	78.1396
64.4531	79.5033	64.4531	79.4911	64.4531	79.4954	64.4531	79.4592	64.4531	79.4678	64.4531	79.409	64.4531	79.422	64.4531	79.3428	64.4531	79.36	64.4531	79.2634	64.4531	79.2847	64.4531	79.1746	64.4531	79.1997	64.4531	79.0803	64.4531	79.1086	64.4531	78.9846	64.4531	79.0154	64.4531	78.8914	64.4531	78.9239	64.4531	78.8041	64.4531	78.8373	64.4531	78.7254	64.4531	78.7582	64.4531	78.6569	64.4531	78.6883	64.4531	78.5999	64.4531	78.6287	64.4531	78.5546	64.4531	78.5797	64.4531	78.521	64.4531	78.5412	64.4531	78.4986	64.4531	78.5128	64.4531	78.4871	64.4531	78.4944	64.4531	78.4858
67.3828	79.9531	67.3828	79.9325	67.3828	79.9534	67.3828	79.8924	67.3828	79.9335	67.3828	79.8349	67.3828	79.8948	67.3828	79.7629	67.3828	79.8398	67.3828	79.6805	67.3828	79.7719	67.3828	79.5919	67.3828	79.695	67.3828	79.5017	67.3828	79.6134	67.3828	79.4145	67.3828	79.5314	67.3828	79.3342	67.3828	79.4529	67.3828	79.2639	67.3828	79.3809	67.3828	79.2056	67.3828	79.3173	67.3828	79.1599	67.3828	79.2631	67.3828	79.1265	67.3828	79.2182	67.3828	79.1046	67.3828	79.1818	67.3828	79.0924	67.3828	79.1527	67.3828	79.0884	67.3828	79.1298	67.3828	79.091	67.3828	79.1121	67.3828	79.0992
68.8477	80.2267	68.8477	80.2053	68.8477	80.228	68.8477	80.1645	68.8477	80.2095	68.8477	80.1062	68.8477	80.1727	68.8477	80.0336	68.8477	80.1201	68.8477	79.9504	68.8477	80.0551	68.8477	79.8612	68.8477	79.9817	68.8477	79.7711	68.8477	79.9042	68.8477	79.6848	68.8477	79.8269	68.8477	79.6065	68.8477	79.7535	68.8477	79.5396	68.8477	79.6869	68.8477	79.4862	68.8477	79.629	68.8477	79.4468	68.8477	79.5803	68.8477	79.4209	68.8477	79.5404	68.8477	79.4068	68.8477	79.5081	68.8477	79.4025	68.8477	79.482	68.8477	79.4057	68.8477	79.4603	68.8477	79.4143	68.8477	79.4421	68.8477	79.4267
71.7773	80.9071	71.7773	80.8886	71.7773	80.9035	71.7773	80.8485	71.7773	80.8784	71.7773	80.7886	71.7773	80.8338	71.7773	80.7118	71.7773	80.7723	71.7773	80.6221	71.7773	80.6977	71.7773	80.5244	71.7773	80.6144	71.7773	80.424	71.7773	80.5271	71.7773	80.3263	71.7773	80.4404	71.7773	80.2363	71.7773	80.3587	71.7773	80.1579	71.7773	80.285	71.7773	80.0941	71.7773	80.2216	71.7773	80.0459	71.7773	80.1691	71.7773	80.0133	71.7773	80.1269	71.7773	79.9946	71.7773	80.0934	71.7773	79.9876	71.7773	80.0667	71.7773	79.9896	71.7773	80.0448	71.7773	79.9979	71.7773	80.0263	71.7773	80.0106
74.707	81.5317	74.707	81.5127	74.707	81.5272	74.707	81.4709	74.707	81.4997	74.707	81.4084	74.707	81.451	74.707	81.3288	74.707	81.3842	74.707	81.2363	74.707	81.3035	74.707	81.1362	74.707	81.2137	74.707	81.034	74.707	81.1202	74.707	80.935	74.707	81.0279	74.707	80.8442	74.707	80.9416	74.707	80.7654	74.707	80.8647	74.707	80.7012	74.707	80.7993	74.707	80.6526	74.707	80.746	74.707	80.619	74.707	80.7043	74.707	80.5988	74.707	80.6724	74.707	80.5897	74.707	80.6482	74.707	80.5888	74.707	80.6295	74.707	80.5938	74.707	80.6146	74.707	80.6027
77.6367	82.0629	77.6367	82.0441	77.6367	82.0565	77.6367	82.001	77.6367	82.0259	77.6367	81.9359	77.6367	81.9733	77.6367	81.8525	77.6367	81.9023	77.6367	81.7555	77.6367	81.8174	77.6367	81.6507	77.6367	81.7242	77.6367	81.5441	77.6367	81.6282	77.6367	81.4418	77.6367	81.5348	77.6367	81.349	77.6367	81.4486	77.6367	81.2697	77.6367	81.373	77.6367	81.2063	77.6367	81.3099	77.6367	81.1596	77.6367	81.2595	77.6367	81.1288	77.6367	81.2207	77.6367	81.1118	77.6367	81.1915	77.6367	81.1058	77.6367	81.1695	77.6367	81.1078	77.6367	81.1522	77.6367	81.115	77.6367	81.1378	77.6367	81.1254
79.1016	82.2989	79.1016	82.2819	79.1016	82.2901	79.1016	82.2398	79.1016	82.2562	79.1016	82.1747	79.1016	82.2	79.1016	82.0905	79.1016	82.1251	79.1016	81.9922	79.1016	82.0365	79.1016	81.8856	79.1016	81.94	79.1016	81.7773	79.1016	81.8414	79.1016	81.6735	79.1016	81.7464	79.1016	81.5796	79.1016	81.6596	79.1016	81.4998	79.1016	81.5845	79.1016	81.4366	79.1016	81.5228	79.1016	81.3904	79.1016	81.4746	79.1016	81.3603	79.1016	81.4386	79.1016	81.3439	79.1016	81.4125	79.1016	81.3383	79.1016	81.3934	79.1016	81.3402	79.1016	81.3788	79.1016	81.3469	79.1016	81.3667	79.1016	81.3561
82.0312	82.7312	82.0312	82.7037	82.0312	82.732	82.0312	82.6506	82.0312	82.7069	82.0312	82.5748	82.0312	82.658	82.0312	82.4804	82.0312	82.589	82.0312	82.3729	82.0312	82.5047	82.0312	82.259	82.0312	82.4109	82.0312	82.1454	82.0312	82.3136	82.0312	82.0388	82.0312	82.2186	82.0312	81.945	82.0312	82.1309	82.0312	81.8681	82.0312	82.0539	82.0312	81.8104	82.0312	81.9898	82.0312	81.7721	82.0312	81.9388	82.0312	81.7515	82.0312	81.8997	82.0312	81.7455	82.0312	81.8701	82.0312	81.7503	82.0312	81.8473	82.0312	81.762	82.0312	81.8284	82.0312	81.7775	82.0312	81.8112	82.0312	81.7942
84.9609	83.0717	84.9609	83.0465	84.9609	83.0711	84.9609	82.9967	84.9609	83.045	84.9609	82.9252	84.9609	82.9959	84.9609	82.8365	84.9609	82.9276	84.9609	82.7361	84.9609	82.8452	84.9609	82.6308	84.9609	82.755	84.9609	82.5273	84.9609	82.6637	84.9609	82.4324	84.9609	82.5777	84.9609	82.3517	84.9609	82.5022	84.9609	82.2894	84.9609	82.4408	84.9609	82.2475	84.9609	82.395	84.9609	82.2254	84.9609	82.3641	84.9609	82.2208	84.9609	82.3455	84.9609	82.2295	84.9609	82.3355	84.9609	82.2467	84.9609	82.3299	84.9609	82.2675	84.9609	82.3248	84.9609	82.2878	84.9609	82.317	84.9609	82.3047
87.8906	83.8516	87.8906	83.848	87.8906	83.8256	87.8906	83.8156	87.8906	83.771	87.8906	83.7571	87.8906	83.6913	87.8906	83.6771	87.8906	83.5912	87.8906	83.5813	87.8906	83.4774	87.8906	83.4765	87.8906	83.3575	87.8906	83.3698	87.8906	83.2394	87.8906	83.2681	87.8906	83.1306	87.8906	83.1772	87.8906	83.0375	87.8906	83.1014	87.8906	82.9642	87.8906	83.043	87.8906	82.9128	87.8906	83.0017	87.8906	82.8827	87.8906	82.9755	87.8906	82.8711	87.8906	82.9607	87.8906	82.8738	87.8906	82.9529	87.8906	82.8857	87.8906	82.9476	87.8906	82.9019	87.8906	82.9413	87.8906	82.9182	87.8906	82.9317
90.8203	84.1687	90.8203	84.1524	90.8203	84.1504	90.8203	84.1023	90.8203	84.099	90.8203	84.0215	90.8203	84.0182	90.8203	83.9149	90.8203	83.9135	90.8203	83.7895	90.8203	83.7921	90.8203	83.6533	90.8203	83.6624	90.8203	83.5153	90.8203	83.5329	90.8203	83.384	90.8203	83.4118	90.8203	83.2671	90.8203	83.3056	90.8203	83.1703	90.8203	83.219	90.8203	83.0968	90.8203	83.1536	90.8203	83.047	90.8203	83.1087	90.8203	83.0189	90.8203	83.0811	90.8203	83.0086	90.8203	83.0665	90.8203	83.0108	90.8203	83.0595	90.8203	83.0203	90.8203	83.0554	90.8203	83.0321	90.8203	83.0505	90.8203	83.0428
95.2148	84.7249	95.2148	84.7105	95.2148	84.7058	95.2148	84.664	95.2148	84.6542	95.2148	84.5889	95.2148	84.5734	95.2148	84.4907	95.2148	84.4689	95.2148	84.3764	95.2148	84.348	95.2148	84.2539	95.2148	84.2194	95.2148	84.1318	95.2148	84.0925	95.2148	84.018	95.2148	83.976	95.2148	83.9192	95.2148	83.8773	95.2148	83.8403	95.2148	83.8013	95.2148	83.7835	95.2148	83.7498	95.2148	83.7485	95.2148	83.7215	95.2148	83.7326	95.2148	83.7126	95.2148	83.731	95.2148	83.7173	95.2148	83.7381	95.2148	83.7295	95.2148	83.7479	95.2148	83.7432	95.2148	83.7558	95.2148	83.7537	95.2148	83.7582
98.1445	85.1044	98.1445	85.093	98.1445	85.0805	98.1445	85.048	98.1445	85.0225	98.1445	84.9734	98.1445	84.9338	98.1445	84.8751	98.1445	84.8205	98.1445	84.7608	98.1445	84.6904	98.1445	84.6392	98.1445	84.5529	98.1445	84.5189	98.1445	84.4178	98.1445	84.408	98.1445	84.2946	98.1445	84.3128	98.1445	84.1911	98.1445	84.2373	98.1445	84.1128	98.1445	84.1831	98.1445	84.0619	98.1445	84.1492	98.1445	84.037	98.1445	84.1322	98.1445	84.0341	98.1445	84.1274	98.1445	84.0469	98.1445	84.1294	98.1445	84.0684	98.1445	84.1327	98.1445	84.092	98.1445	84.1327	98.1445	84.1124	98.1445	84.1264
101.074	85.331	101.074	85.3099	101.074	85.3176	101.074	85.2552	101.074	85.2716	101.074	85.1707	101.074	85.1973	101.074	85.0626	101.074	85.1012	101.074	84.9394	101.074	84.9914	101.074	84.8112	101.074	84.8767	101.074	84.6886	101.074	84.7661	101.074	84.5814	101.074	84.6676	101.074	84.4975	101.074	84.5878	101.074	84.4415	101.074	84.5307	101.074	84.4145	101.074	84.4979	101.074	84.4137	101.074	84.4876	101.074	84.4336	101.074	84.4957	101.074	84.4664	101.074	84.5157	101.074	84.5041	101.074	84.5405	101.074	84.5388	101.074	84.5627	101.074	84.5645	101.074	84.5764	101.074	84.5775
105.469	86.057	105.469	86.0289	105.469	86.0431	105.469	85.9605	105.469	85.9888	105.469	85.8562	105.469	85.8986	105.469	85.7233	105.469	85.7797	105.469	85.5715	105.469	85.6415	105.469	85.4122	105.469	85.4951	105.469	85.2574	105.469	85.3519	105.469	85.1184	105.469	85.2227	105.469	85.0045	105.469	85.1159	105.469	84.922	105.469	85.0367	105.469	84.8726	105.469	84.9863	105.469	84.8542	105.469	84.962	105.469	84.8611	105.469	84.9583	105.469	84.8854	105.469	84.9677	105.469	84.9183	105.469	84.9825	105.469	84.9517	105.469	84.9955	105.469	84.979	105.469	85.0013	105.469	84.9961
108.398	86.4148	108.398	86.3886	108.398	86.3983	108.398	86.3213	108.398	86.3408	108.398	86.2176	108.398	86.2467	108.398	86.0848	108.398	86.1234	108.398	85.9326	108.398	85.9805	108.398	85.7724	108.398	85.8292	108.398	85.6162	108.398	85.6814	108.398	85.4756	108.398	85.5482	108.398	85.3602	108.398	85.4386	108.398	85.2764	108.398	85.3584	108.398	85.2266	108.398	85.3091	108.398	85.2089	108.398	85.2884	108.398	85.2175	108.398	85.2902	108.398	85.244	108.398	85.3066	108.398	85.2792	108.398	85.3287	108.398	85.3141	108.398	85.3483	108.398	85.3418	108.398	85.3592	108.398	85.3574
112.793	86.9182	112.793	86.8881	112.793	86.9014	112.793	86.8124	112.793	86.8396	112.793	86.696	112.793	86.7381	112.793	86.547	112.793	86.6052	112.793	86.3761	112.793	86.4519	112.793	86.1959	112.793	86.2906	112.793	86.0203	112.793	86.1345	112.793	85.8625	112.793	85.9959	112.793	85.7341	112.793	85.8846	112.793	85.6428	112.793	85.8063	112.793	85.5919	112.793	85.7622	112.793	85.5793	112.793	85.7485	112.793	85.5987	112.793	85.7578	112.793	85.6402	112.793	85.7803	112.793	85.6928	112.793	85.8057	112.793	85.7457	112.793	85.8248	112.793	85.7899	112.793	85.8306	112.793	85.8192
117.188	87.3689	117.188	87.3529	117.188	87.3337	117.188	87.2873	117.188	87.2491	117.188	87.1772	117.188	87.1205	117.188	87.0306	117.188	86.9565	117.188	86.8584	117.188	86.7685	117.188	86.6729	117.188	86.57	117.188	86.4876	117.188	86.3755	117.188	86.3154	117.188	86.199	117.188	86.1678	117.188	86.0523	117.188	86.0528	117.188	85.9436	117.188	85.9745	117.188	85.876	117.188	85.9322	117.188	85.8475	117.188	85.9204	117.188	85.8511	117.188	85.9306	117.188	85.8769	117.188	85.9523	117.188	85.9135	117.188	85.9751	117.188	85.9501	117.188	85.9903	117.188	85.9781	117.188	85.9921
120.117	87.5631	120.117	87.5411	120.117	87.5334	120.117	87.4694	120.117	87.4538	120.117	87.3534	120.117	87.3294	120.117	87.2017	120.117	87.1691	120.117	87.0256	120.117	86.9842	120.117	86.8381	120.117	86.7884	120.117	86.6531	120.117	86.5962	120.117	86.4838	120.117	86.4215	120.117	86.3413	120.117	86.2761	120.117	86.2335	120.117	86.1679	120.117	86.1635	120.117	86.1004	120.117	86.1296	120.117	86.0715	120.117	86.1258	120.117	86.0749	120.117	86.1428	120.117	86.1007	120.117	86.17	120.117	86.1376	120.117	86.1967	120.117	86.1748	120.117	86.2143	120.117	86.2033	120.117	86.2171
124.512	87.7905	124.512	87.7687	124.512	87.759	124.512	87.6952	124.512	87.6765	124.512	87.5756	124.512	87.5495	124.512	87.4191	124.512	87.388	124.512	87.2379	124.512	87.2049	124.512	87.0464	124.512	87.0152	124.512	86.86	124.512	86.8345	124.512	86.6934	124.512	86.6772	124.512	86.5588	124.512	86.5544	124.512	86.4645	124.512	86.4728	124.512	86.4134	124.512	86.4335	124.512	86.4029	124.512	86.432	124.512	86.4254	124.512	86.4595	124.512	86.4698	124.512	86.5044	124.512	86.5235	124.512	86.554	124.512	86.5742	124.512	86.5968	124.512	86.6118	124.512	86.6238	124.512	86.6292
128.906	88.0609	128.906	88.0395	128.906	88.0274	128.906	87.9651	128.906	87.9414	128.906	87.8437	128.906	87.8093	128.906	87.6848	128.906	87.6414	128.906	87.5014	128.906	87.4512	128.906	87.3083	128.906	87.2544	128.906	87.1213	128.906	87.0675	128.906	86.9554	128.906	86.9059	128.906	86.8229	128.906	86.7821	128.906	86.7319	128.906	86.7037	128.906	86.6854	128.906	86.6719	128.906	86.6805	128.906	86.6819	128.906	86.7095	128.906	86.7232	128.906	86.761	128.906	86.7825	128.906	86.8218	128.906	86.8452	128.906	86.8787	128.906	86.8983	128.906	86.9205	128.906	86.9316	128.906	86.9394
133.301	88.2906	133.301	88.2669	133.301	88.2583	133.301	88.1892	133.301	88.1722	133.301	88.0642	133.301	88.0388	133.301	87.9022	133.301	87.8687	133.301	87.717	133.301	87.6757	133.301	87.5246	133.301	87.476	133.301	87.3415	133.301	87.2864	133.301	87.1831	133.301	87.1229	133.301	87.0617	133.301	86.9985	133.301	86.9844	133.301	86.9209	133.301	86.9525	133.301	86.8919	133.301	86.9613	133.301	86.9067	133.301	87.0011	133.301	86.955	133.301	87.0594	133.301	87.0231	133.301	87.1224	133.301	87.0962	133.301	87.1771	133.301	87.1604	133.301	87.2131	133.301	87.205	133.301	87.2233
139.16	88.5745	139.16	88.5457	139.16	88.5395	139.16	88.4555	139.16	88.4436	139.16	88.311	139.16	88.2945	139.16	88.1242	139.16	88.1042	139.16	87.911	139.16	87.8887	139.16	87.69	139.16	87.6664	139.16	87.4811	139.16	87.4564	139.16	87.3031	139.16	87.277	139.16	87.1706	139.16	87.1426	139.16	87.0923	139.16	87.062	139.16	87.0694	139.16	87.0365	139.16	87.095	139.16	87.0603	139.16	87.1565	139.16	87.1216	139.16	87.2374	139.16	87.2047	139.16	87.3204	139.16	87.2927	139.16	87.3902	139.16	87.37	139.16	87.4348	139.16	87.4241	139.16	87.4468
143.555	88.7311	143.555	88.6979	143.555	88.6971	143.555	88.5997	143.555	88.5993	143.555	88.4439	143.555	88.4459	143.555	88.2428	143.555	88.2499	143.555	88.013	143.555	88.0279	143.555	87.7742	143.555	87.7995	143.555	87.5476	143.555	87.5846	143.555	87.3532	143.555	87.4018	143.555	87.2075	143.555	87.2659	143.555	87.1205	143.555	87.1852	143.555	87.0938	143.555	87.1605	143.555	87.1211	143.555	87.1851	143.555	87.1889	143.555	87.2462	143.555	87.2798	143.555	87.3275	143.555	87.3752	143.555	87.4116	143.555	87.4584	143.555	87.4828	143.555	87.5162	143.555	87.5284	143.555	87.5405
147.949	88.8596	147.949	88.8267	147.949	88.8208	147.949	88.7242	147.949	88.7134	147.949	88.56	147.949	88.5464	147.949	88.3468	147.949	88.3333	147.949	88.102	147.949	88.0923	147.949	87.8461	147.949	87.8444	147.949	87.6012	147.949	87.6119	147.949	87.3888	147.949	87.4154	147.949	87.2267	147.949	87.2711	147.949	87.1264	147.949	87.188	147.949	87.0907	147.949	87.1662	147.949	87.1137	147.949	87.1974	147.949	87.182	147.949	87.2665	147.949	87.2772	147.949	87.355	147.949	87.3795	147.949	87.4439	147.949	87.4709	147.949	87.5166	147.949	87.5368	147.949	87.5605	147.949	87.5679
153.809	88.9915	153.809	88.9627	153.809	88.9436	153.809	88.86	153.809	88.822	153.809	88.6918	153.809	88.636	153.809	88.4718	153.809	88.4	153.809	88.2181	153.809	88.1337	153.809	87.9525	153.809	87.8604	153.809	87.698	153.809	87.6046	153.809	87.4771	153.809	87.3896	153.809	87.3085	153.809	87.2339	153.809	87.2042	153.809	87.1479	153.809	87.1676	153.809	87.1322	153.809	87.1924	153.809	87.1771	153.809	87.2646	153.809	87.2657	153.809	87.3649	153.809	87.3766	153.809	87.472	153.809	87.4879	153.809	87.5662	153.809	87.5804	153.809	87.6316	153.809	87.6399	153.809	87.6576
159.668	89.0958	159.668	89.0627	159.668	89.0477	159.668	88.9516	159.668	88.9213	159.668	88.7718	159.668	88.7258	159.668	88.5382	159.668	88.4765	159.668	88.2706	159.668	88.1941	159.668	87.9921	159.668	87.9036	159.668	87.7279	159.668	87.6318	159.668	87.5015	159.668	87.4041	159.668	87.3325	159.668	87.2411	159.668	87.2331	159.668	87.1543	159.668	87.2056	159.668	87.1442	159.668	87.2427	159.668	87.2003	159.668	87.3285	159.668	87.3037	159.668	87.4421	159.668	87.431	159.668	87.5607	159.668	87.5584	159.668	87.6632	159.668	87.6648	159.668	87.7327	159.668	87.7344	159.668	87.7579
165.527	89.1792	165.527	89.1325	165.527	89.1411	165.527	89.0049	165.527	89.0214	165.527	88.8065	165.527	88.8296	165.527	88.5542	165.527	88.5817	165.527	88.2702	165.527	88.2991	165.527	87.9809	165.527	88.0078	165.527	87.7145	165.527	87.7362	165.527	87.4974	165.527	87.5116	165.527	87.3502	165.527	87.3567	165.527	87.2843	165.527	87.2846	165.527	87.2991	165.527	87.2963	165.527	87.3829	165.527	87.3801	165.527	87.5152	165.527	87.5144	165.527	87.6707	165.527	87.6724	165.527	87.8237	165.527	87.8271	165.527	87.9514	165.527	87.9549	165.527	88.036	165.527	88.0382	165.527	88.0664
171.387	89.233	171.387	89.1783	171.387	89.196	171.387	89.0349	171.387	89.0709	171.387	88.8128	171.387	88.8682	171.387	88.5285	171.387	88.6049	171.387	88.2049	171.387	88.3034	171.387	87.8699	171.387	87.9912	171.387	87.5546	171.387	87.6976	171.387	87.2902	171.387	87.4517	171.387	87.1031	171.387	87.2773	171.387	87.0102	171.387	87.189	171.387	87.0146	171.387	87.1891	171.387	87.1045	171.387	87.2665	171.387	87.2565	171.387	87.399	171.387	87.4403	171.387	87.5585	171.387	87.6247	171.387	87.7153	171.387	87.7821	171.387	87.8434	171.387	87.8915	171.387	87.9224	171.387	87.9398
177.246	89.1613	177.246	89.1266	177.246	89.0975	177.246	88.9961	177.246	88.9397	177.246	88.7795	177.246	88.6996	177.246	88.4934	177.246	88.396	177.246	88.1601	177.246	88.0541	177.246	87.8074	177.246	87.704	177.246	87.4664	177.246	87.3785	177.246	87.1691	177.246	87.1088	177.246	86.9442	177.246	86.9201	177.246	86.8122	177.246	86.8269	177.246	86.7805	177.246	86.8298	177.246	86.8413	177.246	86.9152	177.246	86.9731	177.246	87.0585	177.246	87.1453	177.246	87.2294	177.246	87.3249	177.246	87.3968	177.246	87.4813	177.246	87.5333	177.246	87.5909	177.246	87.618	177.246	87.6385
183.105	89.0048	183.105	88.9807	183.105	88.9249	183.105	88.8564	183.105	88.7453	183.105	88.6428	183.105	88.4778	183.105	88.3582	183.105	88.1424	183.105	88.0269	183.105	87.7662	183.105	87.6784	183.105	87.3821	183.105	87.3447	183.105	87.0264	183.105	87.058	183.105	86.7347	183.105	86.8456	183.105	86.5361	183.105	86.726	183.105	86.4474	183.105	86.7047	183.105	86.469	183.105	86.7726	183.105	86.5849	183.105	86.9075	183.105	86.7662	183.105	87.0788	183.105	86.9781	183.105	87.2533	183.105	87.1857	183.105	87.4001	183.105	87.359	183.105	87.4949	183.105	87.4757	183.105	87.5222
188.965	88.9946	188.965	88.9554	188.965	88.9241	188.965	88.811	188.965	88.7473	188.965	88.5736	188.965	88.4756	188.965	88.2629	188.965	88.1284	188.965	87.9052	188.965	87.7325	188.965	87.5325	188.965	87.3214	188.965	87.1793	188.965	86.9327	188.965	86.8797	188.965	86.6042	188.965	86.662	188.965	86.3682	188.965	86.5437	188.965	86.2452	188.965	86.5275	188.965	86.2384	188.965	86.6009	188.965	86.3336	188.965	86.7384	188.965	86.5027	188.965	86.9074	188.965	86.7104	188.965	87.074	188.965	86.9211	188.965	87.2081	188.965	87.1036	188.965	87.287	188.965	87.234	188.965	87.297
196.289	88.9381	196.289	88.8808	196.289	88.8767	196.289	88.709	196.289	88.7008	196.289	88.4351	196.289	88.423	196.289	88.0801	196.289	88.0634	196.289	87.6729	196.289	87.6497	196.289	87.2486	196.289	87.2163	196.289	86.8469	196.289	86.8023	196.289	86.5077	196.289	86.4486	196.289	86.2654	196.289	86.1919	196.289	86.1424	196.289	86.0573	196.289	86.1435	196.289	86.0516	196.289	86.2535	196.289	86.1601	196.289	86.4406	196.289	86.351	196.289	86.6641	196.289	86.5835	196.289	86.8826	196.289	86.8161	196.289	87.0608	196.289	87.0131	196.289	87.1726	196.289	87.1477	196.289	87.203
203.613	88.8611	203.613	88.7954	203.613	88.8004	203.613	88.6068	203.613	88.6191	203.613	88.3074	203.613	88.3312	203.613	87.9191	203.613	87.959	203.613	87.4721	203.613	87.5315	203.613	87.0039	203.613	87.0837	203.613	86.5562	203.613	86.6543	203.613	86.1709	203.613	86.2823	203.613	85.8837	203.613	86.0026	203.613	85.719	203.613	85.8392	203.613	85.6843	203.613	85.8005	203.613	85.7681	203.613	85.8753	203.613	85.9418	203.613	86.0356	203.613	86.1656	203.613	86.2423	203.613	86.3961	203.613	86.4536	203.613	86.5939	203.613	86.6316	203.613	86.7286	203.613	86.7471	203.613	86.7816
210.938	88.6192	210.938	88.5591	210.938	88.5508	210.938	88.3736	210.938	88.3601	210.938	88.0743	210.938	88.062	210.938	87.6822	210.938	87.6801	210.938	87.2265	210.938	87.2459	210.938	86.7437	210.938	86.7976	210.938	86.2762	210.938	86.3768	210.938	85.8678	210.938	86.0243	210.938	85.5581	210.938	85.7737	210.938	85.3754	210.938	85.6447	210.938	85.3299	210.938	85.6379	210.938	85.4103	210.938	85.7346	210.938	85.5867	210.938	85.9015	210.938	85.8181	210.938	86.0987	210.938	86.0608	210.938	86.2871	210.938	86.276	210.938	86.4339	210.938	86.434	210.938	86.5149	210.938	86.5161
218.262	88.3403	218.262	88.2964	218.262	88.2486	218.262	88.1202	218.262	88.0278	218.262	87.8248	218.262	87.6946	218.262	87.4336	218.262	87.2751	218.262	86.9792	218.262	86.8048	218.262	86.5025	218.262	86.3266	218.262	86.0497	218.262	85.8886	218.262	85.6675	218.262	85.5387	218.262	85.396	218.262	85.3163	218.262	85.2614	218.262	85.2436	218.262	85.2695	218.262	85.3182	218.262	85.4048	218.262	85.5131	218.262	85.6338	218.262	85.7834	218.262	85.9128	218.262	86.0778	218.262	86.1956	218.262	86.3485	218.262	86.4409	218.262	86.5574	218.262	86.6159	218.262	86.6786	218.262	86.6985
225.586	88.3614	225.586	88.3238	225.586	88.255	225.586	88.1464	225.586	88.0096	225.586	87.8425	225.586	87.6398	225.586	87.4346	225.586	87.1702	225.586	86.9542	225.586	86.6362	225.586	86.4417	225.586	86.0837	225.586	85.9446	225.586	85.5676	225.586	85.5135	225.586	85.1467	225.586	85.1963	225.586	84.8737	225.586	85.0286	225.586	84.7822	225.586	85.0247	225.586	84.8748	225.586	85.1723	225.586	85.1208	225.586	85.4346	225.586	85.4646	225.586	85.7596	225.586	85.8416	225.586	86.0911	225.586	86.1909	225.586	86.3778	225.586	86.4641	225.586	86.5791	225.586	86.6284	225.586	86.6671
232.91	88.2606	232.91	88.2116	232.91	88.16	232.91	88.0193	232.91	87.9135	232.91	87.6992	232.91	87.5344	232.91	87.2762	232.91	87.046	232.91	86.7839	232.91	86.4815	232.91	86.2632	232.91	85.8836	232.91	85.7596	232.91	85.3036	232.91	85.3194	232.91	84.7986	232.91	84.9841	232.91	84.4252	232.91	84.785	232.91	84.2285	232.91	84.7366	232.91	84.2285	232.91	84.8322	232.91	84.4104	232.91	85.0435	232.91	84.7261	232.91	85.3244	232.91	85.108	232.91	85.6197	232.91	85.4864	232.91	85.8747	232.91	85.8019	232.91	86.0433	232.91	86.0121	232.91	86.094
241.699	87.7996	241.699	87.7218	241.699	87.7189	241.699	87.4926	241.699	87.4839	241.699	87.1306	241.699	87.1099	241.699	86.6654	241.699	86.623	241.699	86.1365	241.699	86.06	241.699	85.5915	241.699	85.4672	241.699	85.0812	241.699	84.8978	241.699	84.654	241.699	84.4068	241.699	84.3483	241.699	84.0437	241.699	84.1865	241.699	83.8437	241.699	84.1717	241.699	83.8191	241.699	84.2873	241.699	83.9555	241.699	84.5005	241.699	84.2141	241.699	84.7672	241.699	84.5405	241.699	85.0382	241.699	84.8747	241.699	85.2661	241.699	85.1623	241.699	85.4112	241.699	85.3613	241.699	85.4466
250.488	87.5923	250.488	87.4771	250.488	87.5327	250.488	87.1948	250.488	87.3029	250.488	86.7657	250.488	86.9202	250.488	86.2231	250.488	86.4149	250.488	85.6133	250.488	85.8303	250.488	84.994	250.488	85.2217	250.488	84.4295	250.488	84.6517	250.488	83.9808	250.488	84.1818	250.488	83.6928	250.488	83.8604	250.488	83.5831	250.488	83.7109	250.488	83.6391	250.488	83.7268	250.488	83.825	250.488	83.8768	250.488	84.0931	250.488	84.1154	250.488	84.3937	250.488	84.3942	250.488	84.6805	250.488	84.6681	250.488	84.9137	250.488	84.8982	250.488	85.0634	250.488	85.0531	250.488	85.1113
259.277	87.4623	259.277	87.3474	259.277	87.3863	259.277	87.0463	259.277	87.1276	259.277	86.5776	259.277	86.7071	259.277	85.9753	259.277	86.1591	259.277	85.2907	259.277	85.5321	259.277	84.5925	259.277	84.888	259.277	83.9628	259.277	84.3004	259.277	83.4852	259.277	83.8462	259.277	83.2249	259.277	83.5899	259.277	83.2073	259.277	83.5621	259.277	83.4101	259.277	83.7465	259.277	83.7736	259.277	84.0855	259.277	84.2227	259.277	84.5031	259.277	84.6862	259.277	84.9264	259.277	85.1071	259.277	85.2978	259.277	85.4444	259.277	85.5771	259.277	85.6711	259.277	85.7393	259.277	85.7715
268.066	87.3057	268.066	87.1921	268.066	87.2121	268.066	86.8798	268.066	86.9165	268.066	86.3911	268.066	86.4385	268.066	85.7619	268.066	85.8128	268.066	85.0424	268.066	85.0891	268.066	84.2975	268.066	84.3322	268.066	83.6049	268.066	83.6195	268.066	83.0475	268.066	83.0365	268.066	82.6979	268.066	82.662	268.066	82.5976	268.066	82.5451	268.066	82.7416	268.066	82.6826	268.066	83.0791	268.066	83.0185	268.066	83.5313	268.066	83.4679	268.066	84.0134	268.066	83.9463	268.066	84.4517	268.066	84.3857	268.066	84.7918	268.066	84.7376	268.066	84.9999	268.066	84.969	268.066	85.0596
276.855	87.114	276.855	87.0361	276.855	86.9958	276.855	86.7577	276.855	86.6974	276.855	86.2891	276.855	86.2443	276.855	85.6591	276.855	85.6702	276.855	84.919	276.855	85.0161	276.855	84.1438	276.855	84.33	276.855	83.427	276.855	83.6669	276.855	82.8645	276.855	83.0889	276.855	82.5281	276.855	82.6639	276.855	82.4433	276.855	82.4532	276.855	82.5849	276.855	82.4862	276.855	82.8937	276.855	82.7384	276.855	83.2973	276.855	83.1357	276.855	83.7251	276.855	83.5855	276.855	84.1154	276.855	84.0073	276.855	84.4199	276.855	84.3457	276.855	84.606	276.855	84.5678	276.855	84.6566
287.109	87.2726	287.109	87.204	287.109	87.0839	287.109	86.8856	287.109	86.6454	287.109	86.338	287.109	85.9831	287.109	85.5946	287.109	85.1471	287.109	84.7072	287.109	84.2189	287.109	83.7571	287.109	83.3173	287.109	82.8751	287.109	82.5919	287.109	82.2479	287.109	82.1868	287.109	82.061	287.109	82.1797	287.109	82.3718	287.109	82.5455	287.109	83.0564	287.109	83.1814	287.109	83.9125	287.109	83.9615	287.109	84.7746	287.109	84.7729	287.109	85.5443	287.109	85.5272	287.109	86.1721	287.109	86.1612	287.109	86.6344	287.109	86.6334	287.109	86.9186	287.109	86.9213	287.109	87.0161
297.363	88.9323	297.363	88.8662	297.363	88.7371	297.363	88.5444	297.363	88.2825	297.363	87.9807	297.363	87.5793	297.363	87.197	297.363	86.6493	297.363	86.2245	297.363	85.5314	297.363	85.1093	297.363	84.291	297.363	83.9233	297.363	83.0368	297.363	82.7893	297.363	81.9392	297.363	81.9088	297.363	81.2281	297.363	81.5386	297.363	81.111	297.363	81.8285	297.363	81.6182	297.363	82.6568	297.363	82.5607	297.363	83.7291	297.363	83.6729	297.363	84.787	297.363	84.7448	297.363	85.6808	297.363	85.6495	297.363	86.3413	297.363	86.3219	297.363	86.7418	297.363	86.733	297.363	86.8733
307.617	88.5627	307.617	88.4239	307.617	88.4433	307.617	88.0331	307.617	88.0692	307.617	87.4072	307.617	87.454	307.617	86.5766	307.617	86.6218	307.617	85.5862	307.617	85.6088	307.617	84.4969	307.617	84.4663	307.617	83.3857	307.617	83.2661	307.617	82.3475	307.617	82.1157	307.617	81.499	307.617	81.1774	307.617	80.9739	307.617	80.6574	307.617	80.8848	307.617	80.705	307.617	81.253	307.617	81.2808	307.617	81.9725	307.617	82.1749	307.617	82.861	307.617	83.1501	307.617	83.7397	307.617	84.0285	307.617	84.4733	307.617	84.6984	307.617	84.9732	307.617	85.0951	307.617	85.1879
319.336	87.6816	319.336	87.5601	319.336	87.5387	319.336	87.1772	319.336	87.1394	319.336	86.5463	319.336	86.502	319.336	85.6924	319.336	85.6564	319.336	84.6534	319.336	84.6452	319.336	83.485	319.336	83.5266	319.336	82.2695	319.336	82.3786	319.336	81.1317	319.336	81.3089	319.336	80.2535	319.336	80.4636	319.336	79.8453	319.336	80.0133	319.336	80.0259	319.336	80.0781	319.336	80.7083	319.336	80.6301	319.336	81.6603	319.336	81.4954	319.336	82.6535	319.336	82.4613	319.336	83.5311	319.336	83.3576	319.336	84.1995	319.336	84.0726	319.336	84.6054	319.336	84.5392	319.336	84.721
329.59	87.4466	329.59	87.3439	329.59	87.2966	329.59	86.9921	329.59	86.8985	329.59	86.402	329.59	86.266	329.59	85.5929	329.59	85.4251	329.59	84.5948	329.59	84.4155	329.59	83.4523	329.59	83.2916	329.59	82.2307	329.59	82.1254	329.59	81.0276	329.59	81.0136	329.59	79.994	329.59	80.0909	329.59	79.3426	329.59	79.5291	329.59	79.2764	329.59	79.4768	329.59	79.8208	329.59	79.946	329.59	80.7658	329.59	80.7777	329.59	81.8232	329.59	81.7438	329.59	82.7747	329.59	82.6536	329.59	83.4959	329.59	83.3834	329.59	83.9278	329.59	83.8617	329.59	84.0493
341.309	87.198	341.309	87.0796	341.309	87.0318	341.309	86.6853	341.309	86.5848	341.309	86.0363	341.309	85.8727	341.309	85.1669	341.309	84.9235	341.309	84.1234	341.309	83.7792	341.309	82.9623	341.309	82.5014	341.309	81.7494	341.309	81.1811	341.309	80.5662	341.309	79.956	341.309	79.5306	341.309	79.0242	341.309	78.8248	341.309	78.6111	341.309	78.6681	341.309	78.8409	341.309	79.1622	341.309	79.6164	341.309	80.1519	341.309	80.6867	341.309	81.3335	341.309	81.8045	341.309	82.4452	341.309	82.7956	341.309	83.3277	341.309	83.5518	341.309	83.9005	341.309	84.0084	341.309	84.1295
353.027	87.3857	353.027	87.2792	353.027	87.2183	353.027	86.9018	353.027	86.784	353.027	86.2644	353.027	86.1019	353.027	85.3858	353.027	85.204	353.027	84.2939	353.027	84.1314	353.027	83.0301	353.027	82.9283	353.027	81.6556	353.027	81.6337	353.027	80.2628	353.027	80.2865	353.027	78.9979	353.027	78.9641	353.027	78.0894	353.027	77.877	353.027	77.8198	353.027	77.4271	353.027	78.3273	353.027	77.9184	353.027	79.4168	353.027	79.1201	353.027	80.7116	353.027	80.5248	353.027	81.9048	353.027	81.7847	353.027	82.8232	353.027	82.7449	353.027	83.386	353.027	83.3453	353.027	83.5619
366.211	87.4513	366.211	87.2912	366.211	87.3109	366.211	86.8358	366.211	86.8766	366.211	86.1043	366.211	86.1668	366.211	85.1321	366.211	85.213	366.211	83.973	366.211	84.0639	366.211	82.6995	366.211	82.7902	366.211	81.4019	366.211	81.4866	366.211	80.1843	366.211	80.2663	366.211	79.1612	366.211	79.2488	366.211	78.4556	366.211	78.5492	366.211	78.1864	366.211	78.275	366.211	78.4195	366.211	78.5004	366.211	79.0995	366.211	79.1922	366.211	80.0448	366.211	80.1679	366.211	81.0309	366.211	81.1744	366.211	81.871	366.211	82.0002	366.211	82.4398	366.211	82.5163	366.211	82.6654
379.395	87.3196	379.395	87.189	379.395	87.1432	379.395	86.7577	379.395	86.6667	379.395	86.0427	379.395	85.9122	379.395	85.0696	379.395	84.9175	379.395	83.8727	379.395	83.7354	379.395	82.4983	379.395	82.4313	379.395	81.0153	379.395	81.0814	379.395	79.5335	379.395	79.7777	379.395	78.2265	379.395	78.6457	379.395	77.338	379.395	77.8691	379.395	77.1115	379.395	77.6618	379.395	77.6198	379.395	78.1161	379.395	78.6716	379.395	79.0739	379.395	79.9429	379.395	80.2345	379.395	81.1509	379.395	81.336	379.395	82.1112	379.395	82.2113	379.395	82.7233	379.395	82.7647	379.395	82.9431
392.578	86.9496	392.578	86.8106	392.578	86.784	392.578	86.3746	392.578	86.3148	392.578	85.6585	392.578	85.5529	392.578	84.6876	392.578	84.5207	392.578	83.4966	392.578	83.2576	392.578	82.133	392.578	81.8288	392.578	80.6645	392.578	80.3357	392.578	79.1941	392.578	78.9216	392.578	77.8859	392.578	77.7654	392.578	76.9887	392.578	77.0623	392.578	76.7724	392.578	76.977	392.578	77.3126	392.578	77.5488	392.578	78.3807	392.578	78.6107	392.578	79.6345	392.578	79.8612	392.578	80.8086	392.578	81.0219	392.578	81.7442	392.578	81.9142	392.578	82.3552	392.578	82.4499	392.578	82.5971
405.762	86.6678	405.762	86.4909	405.762	86.4966	405.762	85.9683	405.762	85.9863	405.762	85.1182	405.762	85.1546	405.762	83.979	405.762	84.0269	405.762	82.6119	405.762	82.6393	405.762	81.0989	405.762	81.0472	405.762	79.5354	405.762	79.3406	405.762	78.0292	405.762	77.6717	405.762	76.726	405.762	76.3049	405.762	75.8721	405.762	75.6252	405.762	75.7941	405.762	75.8997	405.762	76.5976	405.762	76.9607	405.762	77.9596	405.762	78.3913	405.762	79.4456	405.762	79.853	405.762	80.7803	405.762	81.1337	405.762	81.8291	405.762	82.0993	405.762	82.5209	405.762	82.6697	405.762	82.81
420.41	86.8865	420.41	86.7579	420.41	86.6481	420.41	86.2696	420.41	86.0542	420.41	85.4462	420.41	85.1374	420.41	84.3294	420.41	83.9511	420.41	82.9771	420.41	82.5649	420.41	81.4602	420.41	81.0518	420.41	79.8497	420.41	79.4729	420.41	78.2037	420.41	77.8686	420.41	76.5855	420.41	76.2887	420.41	75.1894	420.41	74.916	420.41	74.5639	420.41	74.2391	420.41	75.3109	420.41	74.7751	420.41	77.0923	420.41	76.2963	420.41	79.0539	420.41	78.1228	420.41	80.7008	420.41	79.8134	420.41	81.858	420.41	81.1732	420.41	82.4767	420.41	82.1062	420.41	82.5532
435.059	85.9995	435.059	85.8204	435.059	85.7915	435.059	85.2701	435.059	85.2019	435.059	84.3796	435.059	84.2618	435.059	83.1904	435.059	83.0307	435.059	81.7506	435.059	81.5924	435.059	80.1186	435.059	80.0416	435.059	78.3775	435.059	78.4636	435.059	76.6582	435.059	76.9225	435.059	75.15	435.059	75.4874	435.059	74.081	435.059	74.3385	435.059	73.6951	435.059	73.9333	435.059	74.2287	435.059	74.7762	435.059	75.6945	435.059	76.6035	435.059	77.6681	435.059	78.6329	435.059	79.5938	435.059	80.3644	435.059	81.12	435.059	81.6164	435.059	82.1019	435.059	82.3367	435.059	82.5047
451.172	86.5642	451.172	86.3324	451.172	86.3811	451.172	85.6948	451.172	85.7816	451.172	84.671	451.172	84.7735	451.172	83.2977	451.172	83.3814	451.172	81.6367	451.172	81.6602	451.172	79.7815	451.172	79.7152	451.172	77.8507	451.172	77.7159	451.172	75.96	451.172	75.8776	451.172	74.2055	451.172	74.4004	451.172	72.7629	451.172	73.4359	451.172	72.0931	451.172	73.1718	451.172	72.7144	451.172	73.8466	451.172	74.4004	451.172	75.3805	451.172	76.4186	451.172	77.2479	451.172	78.2644	451.172	78.9414	451.172	79.7106	451.172	80.1971	451.172	80.6601	451.172	80.9153	451.172	81.0686
465.82	86.5998	465.82	86.4433	465.82	86.3294	465.82	85.8534	465.82	85.6546	465.82	84.8467	465.82	84.6076	465.82	83.4672	465.82	83.2282	465.82	81.7863	465.82	81.5677	465.82	79.8981	465.82	79.6965	465.82	77.9096	465.82	77.7095	465.82	75.9334	465.82	75.7219	465.82	74.108	465.82	73.8728	465.82	72.6888	465.82	72.3985	465.82	72.1667	465.82	71.7865	465.82	72.9537	465.82	72.5644	465.82	74.7152	465.82	74.479	465.82	76.7283	465.82	76.6961	465.82	78.5269	465.82	78.6361	465.82	79.9099	465.82	80.0597	465.82	80.793	465.82	80.8935	465.82	81.1313
483.398	86.3011	483.398	86.1165	483.398	86.0708	483.398	85.5335	483.398	85.4253	483.398	84.5782	483.398	84.3867	483.398	83.2802	483.398	83.0012	483.398	81.6715	483.398	81.3352	483.398	79.7958	483.398	79.4693	483.398	77.7267	483.398	77.4961	483.398	75.5785	483.398	75.5247	483.398	73.4697	483.398	73.6878	483.398	71.4949	483.398	72.177	483.398	70.0607	483.398	71.4115	483.398	70.4793	483.398	72.0266	483.398	72.9789	483.398	73.9338	483.398	75.871	483.398	76.2281	483.398	78.2455	483.398	78.2667	483.398	79.9166	483.398	79.8138	483.398	80.8786	483.398	80.7916	483.398	81.1587
499.512	85.9551	499.512	85.6956	499.512	85.7411	499.512	84.9836	499.512	85.0483	499.512	83.855	499.512	83.8899	499.512	82.3613	499.512	82.3005	499.512	80.5726	499.512	80.3419	499.512	78.5854	499.512	78.1202	499.512	76.5338	499.512	75.8164	499.512	74.5874	499.512	73.6935	499.512	72.916	499.512	72.0465	499.512	71.6953	499.512	71.1783	499.512	71.262	499.512	71.3924	499.512	72.0946	499.512	72.7593	499.512	74.1081	499.512	74.9077	499.512	76.5405	499.512	77.2548	499.512	78.7566	499.512	79.3321	499.512	80.4665	499.512	80.8775	499.512	81.5632	499.512	81.7794	499.512	82.0069
517.09	85.0754	517.09	84.9	517.09	84.7436	517.09	84.2202	517.09	83.9201	517.09	83.0553	517.09	82.6449	517.09	81.4455	517.09	80.9853	517.09	79.4574	517.09	79.0264	517.09	77.1807	517.09	76.8423	517.09	74.7239	517.09	74.4653	517.09	72.2343	517.09	71.9046	517.09	69.955	517.09	69.2531	517.09	68.2853	517.09	66.9813	517.09	67.8821	517.09	66.6951	517.09	69.4062	517.09	69.4188	517.09	72.3417	517.09	73.0055	517.09	75.4697	517.09	76.0922	517.09	78.1017	517.09	78.465	517.09	80.0088	517.09	80.152	517.09	81.1424	517.09	81.1753	517.09	81.5183
536.133	85.9494	536.133	85.6142	536.133	85.6584	536.133	84.6863	536.133	84.7449	536.133	83.2277	536.133	83.2502	536.133	81.3152	536.133	81.2458	536.133	79.0284	536.133	78.8222	536.133	76.4536	536.133	76.0909	536.133	73.7089	536.133	73.2209	536.133	70.944	536.133	70.4779	536.133	68.1209	536.133	68.0377	536.133	64.5935	536.133	65.5929	536.133	61.1959	536.133	63.5181	536.133	65.9281	536.133	66.2583	536.133	71.3291	536.133	71.3781	536.133	75.0465	536.133	75.4075	536.133	77.6534	536.133	78.2356	536.133	79.4746	536.133	80.05	536.133	80.6375	536.133	80.9892	536.133	81.158
555.176	86.0734	555.176	85.8746	555.176	85.7185	555.176	85.1158	555.176	84.8147	555.176	83.794	555.176	83.3674	555.176	81.9206	555.176	81.3897	555.176	79.5415	555.176	78.9153	555.176	76.7709	555.176	76.0318	555.176	73.8294	555.176	72.9753	555.176	71.0426	555.176	70.2363	555.176	68.7007	555.176	68.2341	555.176	66.668	555.176	66.5476	555.176	64.023	555.176	64.1951	555.176	60.1781	555.176	62.4722	555.176	64.4679	555.176	66.8704	555.176	71.0518	555.176	71.9806	555.176	75.393	555.176	75.6506	555.176	78.1401	555.176	78.13	555.176	79.6565	555.176	79.6	555.176	80.1156
574.219	85.3889	574.219	85.1269	574.219	84.9648	574.219	84.1963	574.219	83.863	574.219	82.6435	574.219	82.1165	574.219	80.5316	574.219	79.7866	574.219	77.9066	574.219	76.9611	574.219	74.7814	574.219	73.7308	574.219	71.2039	574.219	70.1547	574.219	67.4324	574.219	66.2763	574.219	64.0643	574.219	62.3086	574.219	61.5769	574.219	59.1598	574.219	60.1505	574.219	59.6456	574.219	62.5025	574.219	64.1892	574.219	68.0181	574.219	69.2334	574.219	72.8909	574.219	73.5612	574.219	76.5323	574.219	76.9413	574.219	79.0628	574.219	79.3251	574.219	80.5834	574.219	80.7176	574.219	81.1335
594.727	85.9322	594.727	85.726	594.727	85.4476	594.727	84.8212	594.727	84.2921	594.727	83.2376	594.727	82.4783	594.727	81.0315	594.727	80.0036	594.727	78.2903	594.727	76.8689	594.727	75.1043	594.727	73.1625	594.727	71.561	594.727	69.3185	594.727	68.0187	594.727	66.6227	594.727	65.4951	594.727	65.9963	594.727	63.8813	594.727	65.763	594.727	60.4595	594.727	63.9961	594.727	38.7463	594.727	59.7183	594.727	63.6959	594.727	63.8497	594.727	71.3583	594.727	70.9221	594.727	75.8593	594.727	75.4752	594.727	78.6674	594.727	78.3898	594.727	80.2072	594.727	80.0625	594.727	80.6541
615.234	86.1786	615.234	85.94	615.234	85.6741	615.234	84.9555	615.234	84.449	615.234	83.2381	615.234	82.5446	615.234	80.8163	615.234	79.9984	615.234	77.7209	615.234	76.8048	615.234	73.9261	615.234	72.9269	615.234	69.3098	615.234	68.6229	615.234	63.9462	615.234	65.7952	615.234	59.4384	615.234	66.4463	615.234	58.065	615.234	67.7462	615.234	57.3528	615.234	67.4415	615.234	53.0504	615.234	64.0143	615.234	54.3274	615.234	55.3441	615.234	65.2601	615.234	66.3046	615.234	71.2451	615.234	72.5395	615.234	75.0271	615.234	76.0429	615.234	77.2999	615.234	77.8599	615.234	78.2462
637.207	86.0454	637.207	85.648	637.207	85.6917	637.207	84.5122	637.207	84.5689	637.207	82.605	637.207	82.6837	637.207	79.831	637.207	80.0449	637.207	76.0294	637.207	76.5802	637.207	70.8946	637.207	72.1366	637.207	63.5191	637.207	66.9571	637.207	55.5594	637.207	63.0525	637.207	60.8601	637.207	62.1048	637.207	63.3368	637.207	61.8658	637.207	63.1326	637.207	60.1433	637.207	60.121	637.207	54.3078	637.207	52.199	637.207	60.5527	637.207	63.1764	637.207	68.4069	637.207	70.1258	637.207	72.9088	637.207	74.0606	637.207	75.6106	637.207	76.2814	637.207	76.9966	637.207	77.216
659.18	85.5389	659.18	85.0313	659.18	85.1211	659.18	83.6068	659.18	83.7353	659.18	81.2872	659.18	81.3134	659.18	78.1319	659.18	77.832	659.18	74.0574	659.18	73.3525	659.18	68.2592	659.18	67.7556	659.18	56.9719	659.18	59.5349	659.18	56.3483	659.18	54.4265	659.18	62.9177	659.18	61.0679	659.18	65.3901	659.18	63.0062	659.18	65.4922	659.18	62.0721	659.18	61.1511	659.18	55.9092	659.18	55.9096	659.18	57.7723	659.18	68.8224	659.18	68.6315	659.18	74.6046	659.18	74.0886	659.18	78.044	659.18	77.4804	659.18	79.8986	659.18	79.5253	659.18	80.3548
682.617	86.1491	682.617	85.8807	682.617	85.4508	682.617	84.6018	682.617	83.8223	682.617	82.2123	682.617	81.2794	682.617	78.5017	682.617	77.6739	682.617	72.9751	682.617	72.403	682.617	63.7437	682.617	63.666	682.617	57.6969	682.617	60.9072	682.617	65.202	682.617	66.3313	682.617	67.5078	682.617	68.3385	682.617	68.0732	682.617	69.0503	682.617	67.8034	682.617	68.6848	682.617	66.4987	682.617	66.1904	682.617	64.7864	682.617	62.329	682.617	68.2831	682.617	68.8432	682.617	73.7545	682.617	74.6035	682.617	77.6841	682.617	78.1455	682.617	79.9914	682.617	80.1561	682.617	80.7856
707.52	86.1445	707.52	85.7646	707.52	85.544	707.52	84.3868	707.52	84.0242	707.52	82.0399	707.52	81.5877	707.52	78.6859	707.52	78.0329	707.52	73.8903	707.52	72.8309	707.52	65.6265	707.52	64.9681	707.52	52.518	707.52	60.8102	707.52	65.0132	707.52	65.6329	707.52	67.8867	707.52	68.5143	707.52	69.0762	707.52	70.1732	707.52	69.448	707.52	70.8906	707.52	68.4777	707.52	70.5228	707.52	65.072	707.52	68.2103	707.52	60.5158	707.52	63.5419	707.52	67.9275	707.52	69.5945	707.52	73.3697	707.52	74.7208	707.52	76.1676	707.52	76.8697	707.52	77.2273
732.422	86.1722	732.422	85.751	732.422	85.6216	732.422	84.3145	732.422	84.0671	732.422	81.764	732.422	81.4038	732.422	77.9097	732.422	77.4496	732.422	72.2805	732.422	71.6784	732.422	62.9627	732.422	61.6527	732.422	54.7652	732.422	59.6305	732.422	64.6517	732.422	65.6968	732.422	67.8718	732.422	67.7142	732.422	69.369	732.422	69.0288	732.422	70.4122	732.422	70.2103	732.422	70.638	732.422	70.3634	732.422	68.9602	732.422	68.6928	732.422	65.4458	732.422	65.6303	732.422	68.4533	732.422	67.9068	732.422	73.8883	732.422	73.0609	732.422	76.9213	732.422	76.4011	732.422	77.7114
757.324	85.925	757.324	85.3357	757.324	85.3416	757.324	83.6169	757.324	83.5009	757.324	80.7274	757.324	80.2615	757.324	76.4202	757.324	75.3601	757.324	69.896	757.324	68.0728	757.324	61.9688	757.324	57.4898	757.324	64.8094	757.324	62.8209	757.324	67.1001	757.324	66.1	757.324	68.6671	757.324	66.8002	757.324	69.6331	757.324	66.6787	757.324	69.529	757.324	67.5233	757.324	68.9242	757.324	68.84	757.324	67.5956	757.324	67.848	757.324	62.7884	757.324	60.0629	757.324	66.3052	757.324	63.4805	757.324	73.4725	757.324	72.2384	757.324	76.6013	757.324	75.9212	757.324	77.2657
785.156	85.0892	785.156	84.628	785.156	84.297	785.156	82.7694	785.156	82.335	785.156	79.2219	785.156	79.1636	785.156	73.0265	785.156	74.2312	785.156	56.6948	785.156	66.1405	785.156	66.6613	785.156	66.466	785.156	70.8816	785.156	70.8308	785.156	72.0334	785.156	72.92	785.156	72.1798	785.156	73.6472	785.156	71.8403	785.156	72.9561	785.156	71.7192	785.156	71.6006	785.156	71.1231	785.156	70.7108	785.156	68.6684	785.156	68.971	785.156	64.1298	785.156	64.296	785.156	63.5792	785.156	65.5379	785.156	69.4894	785.156	71.5072	785.156	73.2458	785.156	74.423	785.156	74.88
811.523	85.6183	811.523	84.9995	811.523	85.0414	811.523	83.1351	811.523	83.2589	811.523	79.787	811.523	80.2312	811.523	74.2542	811.523	75.7325	811.523	63.2317	811.523	68.5779	811.523	62.7902	811.523	59.6024	811.523	70.0884	811.523	64.9988	811.523	72.767	811.523	65.5292	811.523	73.761	811.523	65.4417	811.523	73.3699	811.523	67.969	811.523	71.9798	811.523	68.6533	811.523	70.927	811.523	68.8649	811.523	70.3407	811.523	69.867	811.523	67.8416	811.523	67.4269	811.523	61.1737	811.523	56.572	811.523	68.5494	811.523	69.2768	811.523	73.1075	811.523	73.4864	811.523	74.3874
840.82	85.7719	840.82	85.0394	840.82	85.1336	840.82	82.6842	840.82	82.9819	840.82	78.0155	840.82	78.6081	840.82	68.8312	840.82	69.9177	840.82	65.6482	840.82	63.9895	840.82	71.0931	840.82	70.5775	840.82	72.9177	840.82	72.9207	840.82	73.7562	840.82	73.6982	840.82	74.0045	840.82	72.9337	840.82	74.2871	840.82	71.1011	840.82	74.4305	840.82	69.6959	840.82	73.1231	840.82	68.7857	840.82	69.5228	840.82	66.5789	840.82	61.5502	840.82	58.8921	840.82	64.7675	840.82	61.8492	840.82	72.2622	840.82	71.3985	840.82	75.8598	840.82	75.8087	840.82	77.1433
870.117	89.1233	870.117	88.4695	870.117	88.4013	870.117	86.3406	870.117	86.1923	870.117	82.3292	870.117	82.2754	870.117	75.3422	870.117	75.4178	870.117	54.0325	870.117	63.9581	870.117	69.4562	870.117	74.1781	870.117	73.3493	870.117	77.1423	870.117	74.3112	870.117	78.403	870.117	75.1312	870.117	78.9015	870.117	75.2325	870.117	77.7945	870.117	74.7898	870.117	75.997	870.117	75.6017	870.117	76.184	870.117	75.764	870.117	75.6012	870.117	73.4726	870.117	71.3458	870.117	69.896	870.117	68.4291	870.117	76.3549	870.117	75.9266	870.117	80.6917	870.117	79.992	870.117	81.5921
900.879	88.9639	900.879	88.2234	900.879	87.998	900.879	85.7114	900.879	85.2282	900.879	81.1685	900.879	80.151	900.879	74.6425	900.879	72.3473	900.879	73.5804	900.879	73.5236	900.879	76.2286	900.879	77.4528	900.879	77.5284	900.879	78.8628	900.879	77.5412	900.879	78.8237	900.879	76.6928	900.879	78.4832	900.879	76.6601	900.879	77.4739	900.879	76.7936	900.879	75.0551	900.879	75.3634	900.879	72.563	900.879	74.0877	900.879	71.932	900.879	73.0226	900.879	70.5303	900.879	67.9994	900.879	61.7893	900.879	71.9888	900.879	69.5733	900.879	77.3808	900.879	77.181	900.879	79.0376
933.105	88.5996	933.105	87.8336	933.105	87.755	933.105	85.2071	933.105	84.9609	933.105	79.6614	933.105	79.1164	933.105	70.6737	933.105	69.9563	933.105	75.8311	933.105	73.9889	933.105	78.2765	933.105	77.2346	933.105	78.8978	933.105	78.7064	933.105	79.2795	933.105	78.8557	933.105	78.6956	933.105	79.057	933.105	76.9491	933.105	79.3979	933.105	76.2873	933.105	78.3317	933.105	76.8655	933.105	76.8094	933.105	76.2008	933.105	76.3372	933.105	74.9932	933.105	74.1593	933.105	72.7735	933.105	69.1203	933.105	74.9182	933.105	74.4139	933.105	79.5044	933.105	79.3483	933.105	80.9024
965.332	87.8562	965.332	87.0704	965.332	86.5175	965.332	84.031	965.332	82.6146	965.332	77.5407	965.332	74.3052	965.332	67.1089	965.332	68.4056	965.332	75.4923	965.332	76.4767	965.332	78.9229	965.332	78.8546	965.332	79.5543	965.332	79.7793	965.332	78.7944	965.332	80.6213	965.332	78.8739	965.332	80.8926	965.332	79.745	965.332	80.115	965.332	78.9181	965.332	78.7069	965.332	76.8253	965.332	77.0996	965.332	76.4896	965.332	75.496	965.332	75.7263	965.332	74.0712	965.332	72.3766	965.332	68.931	965.332	70.3925	965.332	65.6816	965.332	75.9515	965.332	76.7927	965.332	78.7416
1,000.49	88.4227	1,000.49	87.5866	1,000.49	87.0295	1,000.49	84.0079	1,000.49	82.8775	1,000.49	74.6498	1,000.49	72.0847	1,000.49	71.563	1,000.49	72.7496	1,000.49	79.1654	1,000.49	79.2802	1,000.49	80.9514	1,000.49	80.6733	1,000.49	81.0508	1,000.49	79.7994	1,000.49	80.8041	1,000.49	78.5815	1,000.49	80.1713	1,000.49	78.9095	1,000.49	78.9979	1,000.49	78.6706	1,000.49	78.6912	1,000.49	76.9543	1,000.49	78.48	1,000.49	75.6824	1,000.49	77.2752	1,000.49	75.3571	1,000.49	76.0279	1,000.49	74.0448	1,000.49	71.7539	1,000.49	68.6211	1,000.49	56.2712	1,000.49	70.9823	1,000.49	72.6687	1,000.49	76.4925	1,000.49	76.9305
1,035.64	88.8545	1,035.64	87.9991	1,035.64	87.4891	1,035.64	84.5973	1,035.64	83.6329	1,035.64	76.7335	1,035.64	74.9163	1,035.64	69.8194	1,035.64	70.3479	1,035.64	79.297	1,035.64	78.902	1,035.64	81.7746	1,035.64	81.0935	1,035.64	82.1221	1,035.64	81.3458	1,035.64	81.2245	1,035.64	80.2059	1,035.64	79.7409	1,035.64	79.2596	1,035.64	79.2357	1,035.64	80.0727	1,035.64	79.0999	1,035.64	79.6495	1,035.64	78.1729	1,035.64	76.753	1,035.64	76.7977	1,035.64	74.5715	1,035.64	75.9389	1,035.64	72.0295	1,035.64	72.7935	1,035.64	65.4957	1,035.64	71.0317	1,035.64	73.341	1,035.64	78.0658	1,035.64	78.8899	1,035.64	80.3298
1,072.27	88.2581	1,072.27	87.2343	1,072.27	86.7074	1,072.27	83.415	1,072.27	81.6076	1,072.27	74.1577	1,072.27	66.7316	1,072.27	73.6631	1,072.27	77.2777	1,072.27	80.2349	1,072.27	81.8797	1,072.27	82.4086	1,072.27	82.9857	1,072.27	82.5509	1,072.27	82.3875	1,072.27	81.6881	1,072.27	81.4045	1,072.27	80.6985	1,072.27	80.5666	1,072.27	80.1439	1,072.27	79.7127	1,072.27	79.1788	1,072.27	79.2784	1,072.27	78.1422	1,072.27	77.5711	1,072.27	77.7926	1,072.27	75.261	1,072.27	77.3925	1,072.27	74.111	1,072.27	74.7153	1,072.27	68.9478	1,072.27	56.2086	1,072.27	69.9429	1,072.27	74.4099	1,072.27	77.8082	1,072.27	78.8652
1,108.89	88.1594	1,108.89	86.968	1,108.89	86.6579	1,108.89	82.1854	1,108.89	81.7645	1,108.89	70.8087	1,108.89	63.356	1,108.89	78.1658	1,108.89	77.598	1,108.89	82.084	1,108.89	81.5903	1,108.89	82.836	1,108.89	82.4915	1,108.89	82.0588	1,108.89	82.5795	1,108.89	80.9583	1,108.89	81.0832	1,108.89	79.7815	1,108.89	79.9797	1,108.89	79.0832	1,108.89	80.505	1,108.89	79.6591	1,108.89	80.4432	1,108.89	79.9955	1,108.89	79.7937	1,108.89	78.3457	1,108.89	78.226	1,108.89	76.6703	1,108.89	75.9549	1,108.89	73.9193	1,108.89	73.6331	1,108.89	64.5077	1,108.89	67.3394	1,108.89	74.1669	1,108.89	73.716	1,108.89	77.0393
1,148.44	88.7031	1,148.44	87.4659	1,148.44	87.1809	1,148.44	82.5385	1,148.44	81.5206	1,148.44	64.7885	1,148.44	58.5759	1,148.44	79.5495	1,148.44	80.0355	1,148.44	83.1144	1,148.44	83.5506	1,148.44	83.5298	1,148.44	84.291	1,148.44	82.6148	1,148.44	83.4187	1,148.44	81.4647	1,148.44	81.6506	1,148.44	79.142	1,148.44	80.6568	1,148.44	77.8803	1,148.44	80.4427	1,148.44	78.519	1,148.44	80.4092	1,148.44	77.951	1,148.44	78.4238	1,148.44	76.4965	1,148.44	76.5209	1,148.44	74.7878	1,148.44	76.2122	1,148.44	72.1158	1,148.44	69.1188	1,148.44	60.4513	1,148.44	64.1281	1,148.44	77.2128	1,148.44	76.8213	1,148.44	80.0251
1,189.45	88.5264	1,189.45	86.3909	1,189.45	87.1302	1,189.45	78.7427	1,189.45	81.3616	1,189.45	72.2895	1,189.45	60.4461	1,189.45	82.4979	1,189.45	80.5667	1,189.45	84.6118	1,189.45	83.9099	1,189.45	84.4216	1,189.45	83.5442	1,189.45	82.8641	1,189.45	81.7107	1,189.45	80.3129	1,189.45	79.7541	1,189.45	78.4493	1,189.45	77.4349	1,189.45	77.7749	1,189.45	76.3393	1,189.45	77.6377	1,189.45	78.9509	1,189.45	77.9011	1,189.45	80.1776	1,189.45	78.4573	1,189.45	79.0645	1,189.45	77.0998	1,189.45	78.8347	1,189.45	74.473	1,189.45	77.1293	1,189.45	68.96	1,189.45	68.3586	1,189.45	71.8209	1,189.45	70.112	1,189.45	75.3047
1,230.47	89.8314	1,230.47	88.2078	1,230.47	88.1607	1,230.47	82.0571	1,230.47	82.0499	1,230.47	69.7375	1,230.47	69.4911	1,230.47	81.527	1,230.47	81.9962	1,230.47	84.5994	1,230.47	84.7684	1,230.47	85.1785	1,230.47	84.8444	1,230.47	83.5586	1,230.47	83.467	1,230.47	81.204	1,230.47	80.8037	1,230.47	79.7669	1,230.47	79.0284	1,230.47	78.8821	1,230.47	78.7259	1,230.47	79.4563	1,230.47	78.0795	1,230.47	78.9912	1,230.47	78.5115	1,230.47	79.1251	1,230.47	77.7704	1,230.47	78.0166	1,230.47	76.32	1,230.47	77.4549	1,230.47	73.5878	1,230.47	68.9389	1,230.47	58.6122	1,230.47	76.9188	1,230.47	76.3586	1,230.47	79.5988
1,274.41	89.5149	1,274.41	87.9402	1,274.41	87.4648	1,274.41	81.5825	1,274.41	78.9514	1,274.41	71.3142	1,274.41	75.8121	1,274.41	82.8503	1,274.41	84.0771	1,274.41	85.2501	1,274.41	86.3074	1,274.41	85.2512	1,274.41	86.0906	1,274.41	84.244	1,274.41	84.3094	1,274.41	82.07	1,274.41	81.7237	1,274.41	79.7668	1,274.41	78.5098	1,274.41	78.3879	1,274.41	76.7833	1,274.41	77.4596	1,274.41	77.5997	1,274.41	77.1759	1,274.41	77.9771	1,274.41	76.9334	1,274.41	77.5764	1,274.41	77.1768	1,274.41	76.8891	1,274.41	77.1809	1,274.41	73.6859	1,274.41	72.3035	1,274.41	64.2166	1,274.41	65.8485	1,274.41	71.0073	1,274.41	75.1187
1,319.82	89.234	1,319.82	87.6074	1,319.82	86.308	1,319.82	80.7563	1,319.82	74.0786	1,319.82	71.5466	1,319.82	79.5906	1,319.82	82.8955	1,319.82	85.3744	1,319.82	84.6911	1,319.82	86.4275	1,319.82	84.2669	1,319.82	85.5662	1,319.82	82.3747	1,319.82	83.9667	1,319.82	79.2605	1,319.82	81.9895	1,319.82	76.6351	1,319.82	79.923	1,319.82	75.3692	1,319.82	77.3254	1,319.82	78.1282	1,319.82	75.7304	1,319.82	78.5759	1,319.82	78.7783	1,319.82	77.7201	1,319.82	78.4254	1,319.82	76.5124	1,319.82	77.4384	1,319.82	76.7809	1,319.82	75.3164	1,319.82	72.1545	1,319.82	68.1967	1,319.82	66.2711	1,319.82	71.243	1,319.82	74.2156
1,366.7	88.7376	1,366.7	87.3981	1,366.7	86.0133	1,366.7	80.0914	1,366.7	73.9965	1,366.7	74.7684	1,366.7	81.3388	1,366.7	83.8239	1,366.7	85.9133	1,366.7	85.4832	1,366.7	86.7465	1,366.7	84.5036	1,366.7	85.5693	1,366.7	82.4363	1,366.7	83.323	1,366.7	79.315	1,366.7	80.6814	1,366.7	76.8284	1,366.7	77.9485	1,366.7	74.9613	1,366.7	76.4507	1,366.7	70.6267	1,366.7	75.9393	1,366.7	72.8045	1,366.7	76.4115	1,366.7	75.1124	1,366.7	77.5553	1,366.7	75.5906	1,366.7	77.0629	1,366.7	75.7237	1,366.7	74.7936	1,366.7	70.8881	1,366.7	66.6035	1,366.7	67.5435	1,366.7	73.5349	1,366.7	75.7313
1,413.57	87.8035	1,413.57	86.3863	1,413.57	84.4573	1,413.57	77.6582	1,413.57	73.2898	1,413.57	77.8201	1,413.57	81.6507	1,413.57	84.314	1,413.57	85.2926	1,413.57	85.4806	1,413.57	85.6141	1,413.57	84.8949	1,413.57	83.5635	1,413.57	82.8635	1,413.57	80.3667	1,413.57	78.8977	1,413.57	77.0991	1,413.57	76.6629	1,413.57	74.8355	1,413.57	75.4311	1,413.57	73.5574	1,413.57	73.3316	1,413.57	71.0323	1,413.57	71.9954	1,413.57	71.3719	1,413.57	72.4899	1,413.57	72.6469	1,413.57	74.4117	1,413.57	75.0723	1,413.57	75.8993	1,413.57	71.3599	1,413.57	72.1438	1,413.57	63.2344	1,413.57	71.3587	1,413.57	74.1721	1,413.57	76.2254
1,463.38	87.5679	1,463.38	85.9824	1,463.38	85.1278	1,463.38	77.3791	1,463.38	78.6401	1,463.38	78.5898	1,463.38	82.0476	1,463.38	83.8096	1,463.38	83.9003	1,463.38	84.7165	1,463.38	83.324	1,463.38	83.8995	1,463.38	81.45	1,463.38	81.0806	1,463.38	77.5223	1,463.38	78.4455	1,463.38	72.9873	1,463.38	74.377	1,463.38	67.2188	1,463.38	73.9966	1,463.38	67.1916	1,463.38	71.7986	1,463.38	68.3299	1,463.38	70.8294	1,463.38	70.6193	1,463.38	70.2628	1,463.38	71.446	1,463.38	70.935	1,463.38	71.4028	1,463.38	70.4366	1,463.38	69.0094	1,463.38	63.4632	1,463.38	55.3102	1,463.38	70.315	1,463.38	73.1254	1,463.38	75.4397
1,516.11	88.4147	1,516.11	86.1527	1,516.11	86.1895	1,516.11	76.3665	1,516.11	79.5226	1,516.11	80.6582	1,516.11	81.2046	1,516.11	84.6067	1,516.11	84.1853	1,516.11	84.404	1,516.11	83.6557	1,516.11	81.8831	1,516.11	81.5565	1,516.11	76.8823	1,516.11	78.4156	1,516.11	72.4166	1,516.11	75.7775	1,516.11	68.0897	1,516.11	71.7225	1,516.11	63.7694	1,516.11	62.6429	1,516.11	69.1544	1,516.11	62.0389	1,516.11	70.3298	1,516.11	68.3583	1,516.11	71.28	1,516.11	72.3883	1,516.11	70.0645	1,516.11	71.9673	1,516.11	67.4501	1,516.11	71.9234	1,516.11	63.4494	1,516.11	65.6707	1,516.11	68.2168	1,516.11	69.2415	1,516.11	74.2421
1,568.85	88.0285	1,568.85	85.6405	1,568.85	85.8151	1,568.85	76.2242	1,568.85	77.8764	1,568.85	80.4589	1,568.85	79.9421	1,568.85	83.7594	1,568.85	82.6056	1,568.85	82.5771	1,568.85	82.2513	1,568.85	79.6774	1,568.85	79.9891	1,568.85	75.1508	1,568.85	76.6521	1,568.85	68.1683	1,568.85	73.3075	1,568.85	57.6975	1,568.85	69.9799	1,568.85	55.5304	1,568.85	68.2549	1,568.85	64.9196	1,568.85	65.2763	1,568.85	67.3856	1,568.85	64.6627	1,568.85	71.1023	1,568.85	66.7987	1,568.85	71.9316	1,568.85	67.9488	1,568.85	65.654	1,568.85	69.2365	1,568.85	63.4402	1,568.85	64.448	1,568.85	70.3744	1,568.85	68.633	1,568.85	74.0361
1,624.51	88.2303	1,624.51	86.2023	1,624.51	85.4503	1,624.51	78.8955	1,624.51	75.7888	1,624.51	81.0757	1,624.51	81.0695	1,624.51	83.2167	1,624.51	84.0254	1,624.51	82.1088	1,624.51	82.8725	1,624.51	77.9211	1,624.51	79.4888	1,624.51	73.9994	1,624.51	74.4371	1,624.51	70.1744	1,624.51	70.0364	1,624.51	68.0036	1,624.51	61.6157	1,624.51	62.1471	1,624.51	59.3069	1,624.51	55.4279	1,624.51	62.9624	1,624.51	62.1749	1,624.51	61.7328	1,624.51	66.9939	1,624.51	64.2653	1,624.51	67.7072	1,624.51	65.3138	1,624.51	62.7065	1,624.51	68.4601	1,624.51	49.5664	1,624.51	61.8273	1,624.51	68.2021	1,624.51	67.4304	1,624.51	70.8021
1,681.64	88.4699	1,681.64	86.4247	1,681.64	85.6191	1,681.64	79.5002	1,681.64	77.0022	1,681.64	79.9921	1,681.64	81.2918	1,681.64	82.4421	1,681.64	83.39	1,681.64	81.3413	1,681.64	81.436	1,681.64	78.3728	1,681.64	77.4608	1,681.64	73.2211	1,681.64	73.3259	1,681.64	67.2203	1,681.64	67.4226	1,681.64	58.9767	1,681.64	64.104	1,681.64	65.3763	1,681.64	63.7107	1,681.64	64.8947	1,681.64	62.595	1,681.64	60.4244	1,681.64	66.4961	1,681.64	62.844	1,681.64	61.2137	1,681.64	66.1312	1,681.64	60.775	1,681.64	66.8067	1,681.64	63.7764	1,681.64	60.4051	1,681.64	69.0098	1,681.64	68.8382	1,681.64	71.3499	1,681.64	71.7425
1,741.7	89.1731	1,741.7	87.4389	1,741.7	85.9085	1,741.7	79.9148	1,741.7	78.0151	1,741.7	79.7064	1,741.7	81.9953	1,741.7	82.9201	1,741.7	82.8009	1,741.7	81.4059	1,741.7	81.0872	1,741.7	78.1418	1,741.7	76.5793	1,741.7	71.7268	1,741.7	72.0281	1,741.7	63.1354	1,741.7	72.5283	1,741.7	69.071	1,741.7	71.6522	1,741.7	69.8442	1,741.7	63.18	1,741.7	65.4467	1,741.7	68.7575	1,741.7	61.0723	1,741.7	67.2935	1,741.7	59.3408	1,741.7	60.0381	1,741.7	61.1257	1,741.7	55.9183	1,741.7	59.9338	1,741.7	55.1989	1,741.7	59.2497	1,741.7	58.8643	1,741.7	63.7587	1,741.7	68.5195	1,741.7	71.3659
1,803.22	89.6112	1,803.22	87.7843	1,803.22	86.4957	1,803.22	79.6356	1,803.22	78.8289	1,803.22	79.9418	1,803.22	81.3164	1,803.22	82.7765	1,803.22	82.3124	1,803.22	82.1718	1,803.22	79.9307	1,803.22	79.1091	1,803.22	76.2834	1,803.22	74.4361	1,803.22	70.5491	1,803.22	68.3249	1,803.22	71.8082	1,803.22	73.2627	1,803.22	70.2029	1,803.22	69.6641	1,803.22	70.9223	1,803.22	69.6155	1,803.22	69.1497	1,803.22	66.7911	1,803.22	71.3939	1,803.22	62.5427	1,803.22	66.6103	1,803.22	53.9774	1,803.22	54.2431	1,803.22	61.6266	1,803.22	54.973	1,803.22	62.3221	1,803.22	54.583	1,803.22	71.4507	1,803.22	70.7401	1,803.22	75.8065
1,866.21	88.7778	1,866.21	86.7621	1,866.21	85.6363	1,866.21	76.6681	1,866.21	78.2598	1,866.21	79.1851	1,866.21	80.3753	1,866.21	81.6081	1,866.21	80.2616	1,866.21	79.8745	1,866.21	77.9105	1,866.21	77.2092	1,866.21	73.9354	1,866.21	75.5742	1,866.21	73.1943	1,866.21	76.0286	1,866.21	72.7899	1,866.21	75.2376	1,866.21	75.712	1,866.21	74.8223	1,866.21	74.1397	1,866.21	74.1675	1,866.21	68.3947	1,866.21	72.3004	1,866.21	69.376	1,866.21	69.5254	1,866.21	66.8448	1,866.21	64.7886	1,866.21	60.4973	1,866.21	60.2367	1,866.21	59.4693	1,866.21	66.5624	1,866.21	62.6472	1,866.21	65.9548	1,866.21	71.4957	1,866.21	73.8468
1,932.13	88.8551	1,932.13	85.7825	1,932.13	85.4668	1,932.13	73.0463	1,932.13	78.1143	1,932.13	80.2548	1,932.13	79.8418	1,932.13	81.39	1,932.13	78.2063	1,932.13	78.1133	1,932.13	73.5037	1,932.13	77.3005	1,932.13	75.0201	1,932.13	77.6364	1,932.13	76.8303	1,932.13	75.4697	1,932.13	75.9249	1,932.13	74.8835	1,932.13	73.9099	1,932.13	73.0372	1,932.13	71.132	1,932.13	73.9754	1,932.13	72.4495	1,932.13	73.0303	1,932.13	70.7789	1,932.13	68.9609	1,932.13	71.2933	1,932.13	72.4841	1,932.13	62.7465	1,932.13	69.9151	1,932.13	66.7046	1,932.13	63.5809	1,932.13	68.7731	1,932.13	70.6738	1,932.13	69.5959	1,932.13	76.1836
1,999.51	89.3696	1,999.51	85.4766	1,999.51	85.6333	1,999.51	78.3005	1,999.51	78.375	1,999.51	81.9748	1,999.51	81.5998	1,999.51	79.5704	1,999.51	78.7418	1,999.51	76.2518	1,999.51	76.6735	1,999.51	76.4795	1,999.51	77.9408	1,999.51	76.7302	1,999.51	78.0947	1,999.51	76.1767	1,999.51	77.6168	1,999.51	76.4807	1,999.51	76.7751	1,999.51	73.6167	1,999.51	75.1546	1,999.51	71.959	1,999.51	73.7355	1,999.51	74.1473	1,999.51	75.7963	1,999.51	72.9887	1,999.51	74.1082	1,999.51	69.3845	1,999.51	70.6544	1,999.51	65.5151	1,999.51	66.6845	1,999.51	66.2213	1,999.51	63.3291	1,999.51	66.0372	1,999.51	67.9943	1,999.51	73.8323
2,069.82	89.5485	2,069.82	86.9417	2,069.82	85.8401	2,069.82	81.4574	2,069.82	80.8527	2,069.82	82.0984	2,069.82	81.4675	2,069.82	77.5595	2,069.82	78.3325	2,069.82	76.5428	2,069.82	78.6478	2,069.82	78.94	2,069.82	79.7859	2,069.82	77.6903	2,069.82	79.6363	2,069.82	77.0919	2,069.82	79.0982	2,069.82	76.6754	2,069.82	78.7454	2,069.82	75.4325	2,069.82	76.8843	2,069.82	71.5513	2,069.82	74.6951	2,069.82	73.5867	2,069.82	76.0115	2,069.82	73.4636	2,069.82	76.3812	2,069.82	67.6345	2,069.82	71.4678	2,069.82	67.395	2,069.82	68.2316	2,069.82	67.0898	2,069.82	68.6889	2,069.82	68.3595	2,069.82	66.3055	2,069.82	76.5632
2,143.07	89.5722	2,143.07	87.2849	2,143.07	85.7156	2,143.07	81.8077	2,143.07	81.4444	2,143.07	80.7735	2,143.07	79.5337	2,143.07	76.6081	2,143.07	75.5572	2,143.07	77.5961	2,143.07	79.8361	2,143.07	80.9886	2,143.07	81.167	2,143.07	80.4245	2,143.07	80.9558	2,143.07	78.564	2,143.07	78.5361	2,143.07	77.1063	2,143.07	77.4238	2,143.07	76.2783	2,143.07	77.7987	2,143.07	75.1863	2,143.07	74.5353	2,143.07	72.4294	2,143.07	75.3076	2,143.07	75.2564	2,143.07	76.1473	2,143.07	69.264	2,143.07	71.4148	2,143.07	64.1377	2,143.07	68.4678	2,143.07	67.8464	2,143.07	68.1764	2,143.07	62.2975	2,143.07	67.3053	2,143.07	76.3376
2,219.24	89.3793	2,219.24	86.8256	2,219.24	86.0408	2,219.24	79.0591	2,219.24	81.5775	2,219.24	79.3311	2,219.24	76.8418	2,219.24	75.2793	2,219.24	73.9697	2,219.24	78.9713	2,219.24	79.9003	2,219.24	81.1734	2,219.24	81.7749	2,219.24	81.4582	2,219.24	80.6307	2,219.24	78.6779	2,219.24	79.1479	2,219.24	77.7547	2,219.24	77.8013	2,219.24	76.3851	2,219.24	76.2663	2,219.24	75.5955	2,219.24	74.3582	2,219.24	74.8196	2,219.24	73.3005	2,219.24	76.7554	2,219.24	75.8999	2,219.24	72.3893	2,219.24	71.8437	2,219.24	66.4786	2,219.24	66.158	2,219.24	66.2506	2,219.24	67.833	2,219.24	60.0466	2,219.24	68.953	2,219.24	75.1604
2,296.88	88.6889	2,296.88	84.3585	2,296.88	86.1534	2,296.88	79.3787	2,296.88	80.92	2,296.88	77.1261	2,296.88	76.5745	2,296.88	75.0209	2,296.88	69.8656	2,296.88	79.818	2,296.88	80.1707	2,296.88	82.0507	2,296.88	82.8253	2,296.88	81.5175	2,296.88	82.2819	2,296.88	81.149	2,296.88	80.0471	2,296.88	78.4246	2,296.88	78.8729	2,296.88	77.4278	2,296.88	75.8915	2,296.88	77.0759	2,296.88	76.688	2,296.88	75.7717	2,296.88	73.2497	2,296.88	77.3392	2,296.88	76.26	2,296.88	75.245	2,296.88	73.5967	2,296.88	73.1584	2,296.88	67.4748	2,296.88	56.779	2,296.88	65.2888	2,296.88	59.6488	2,296.88	62.0732	2,296.88	74.9054
2,378.91	87.9875	2,378.91	85.0235	2,378.91	85.4176	2,378.91	81.9663	2,378.91	82.1353	2,378.91	77.7907	2,378.91	78.3054	2,378.91	71.9626	2,378.91	74.4769	2,378.91	80.183	2,378.91	81.8699	2,378.91	82.705	2,378.91	84.5841	2,378.91	82.6035	2,378.91	83.7853	2,378.91	79.3037	2,378.91	82.2283	2,378.91	76.2421	2,378.91	80.3436	2,378.91	75.2664	2,378.91	78.4628	2,378.91	76.2913	2,378.91	76.7007	2,378.91	72.9759	2,378.91	75.5528	2,378.91	75.5705	2,378.91	77.8992	2,378.91	72.7305	2,378.91	75.1234	2,378.91	71.7157	2,378.91	73.0794	2,378.91	61.982	2,378.91	58.1566	2,378.91	61.1441	2,378.91	61.3863	2,378.91	77.9083
2,462.4	88.3771	2,462.4	87.0664	2,462.4	85.7473	2,462.4	84.2139	2,462.4	82.6645	2,462.4	78.4215	2,462.4	79.2587	2,462.4	73.234	2,462.4	78.2041	2,462.4	82.4926	2,462.4	84.9379	2,462.4	85.0572	2,462.4	86.3902	2,462.4	84.5097	2,462.4	85.3209	2,462.4	82.2031	2,462.4	83.1174	2,462.4	79.7163	2,462.4	79.5357	2,462.4	76.862	2,462.4	78.5406	2,462.4	73.673	2,462.4	76.7962	2,462.4	76.0882	2,462.4	77.5949	2,462.4	74.4271	2,462.4	77.8843	2,462.4	75.0161	2,462.4	75.1038	2,462.4	66.5979	2,462.4	72.4905	2,462.4	57.2695	2,462.4	61.8969	2,462.4	61.9181	2,462.4	66.8479	2,462.4	78.0723
2,548.83	88.7058	2,548.83	87.2568	2,548.83	86.7327	2,548.83	83.8948	2,548.83	83.6185	2,548.83	80.2968	2,548.83	78.8116	2,548.83	76.5414	2,548.83	78.928	2,548.83	84.1873	2,548.83	85.1252	2,548.83	86.4281	2,548.83	85.8245	2,548.83	85.2384	2,548.83	84.5019	2,548.83	83.803	2,548.83	81.4368	2,548.83	80.0357	2,548.83	79.8179	2,548.83	78.7631	2,548.83	76.963	2,548.83	76.2403	2,548.83	73.3388	2,548.83	75.4432	2,548.83	76.713	2,548.83	75.4714	2,548.83	76.8612	2,548.83	75.7027	2,548.83	73.8926	2,548.83	68.3404	2,548.83	69.9711	2,548.83	63.6498	2,548.83	50.7619	2,548.83	56.2168	2,548.83	71.7472	2,548.83	76.6431
2,639.65	87.8352	2,639.65	86.3358	2,639.65	86.1431	2,639.65	82.017	2,639.65	83.8298	2,639.65	80.8869	2,639.65	79.416	2,639.65	79.741	2,639.65	79.1976	2,639.65	85.2927	2,639.65	84.4828	2,639.65	86.0894	2,639.65	84.4704	2,639.65	84.3468	2,639.65	82.5265	2,639.65	80.6509	2,639.65	79.206	2,639.65	78.322	2,639.65	75.6454	2,639.65	75.3967	2,639.65	75.4212	2,639.65	75.1363	2,639.65	74.1918	2,639.65	74.6423	2,639.65	73.0969	2,639.65	73.6188	2,639.65	74.6495	2,639.65	75.6536	2,639.65	75.9089	2,639.65	65.5354	2,639.65	62.0574	2,639.65	67.4472	2,639.65	59.9105	2,639.65	65.9424	2,639.65	70.986	2,639.65	75.3862
2,731.93	87.2569	2,731.93	85.3544	2,731.93	85.1921	2,731.93	82.6274	2,731.93	83.334	2,731.93	80.1887	2,731.93	79.6457	2,731.93	80.4597	2,731.93	80.2068	2,731.93	84.6113	2,731.93	83.9772	2,731.93	83.281	2,731.93	83.9045	2,731.93	81.3801	2,731.93	81.6642	2,731.93	76.5387	2,731.93	78.0425	2,731.93	71.1889	2,731.93	73.1679	2,731.93	71.2077	2,731.93	73.23	2,731.93	70.9882	2,731.93	73.7666	2,731.93	71.8376	2,731.93	71.8448	2,731.93	74.799	2,731.93	73.7631	2,731.93	74.3777	2,731.93	75.6628	2,731.93	66.8861	2,731.93	67.5265	2,731.93	60.772	2,731.93	60.905	2,731.93	64.8713	2,731.93	67.8055	2,731.93	73.4482
2,828.61	86.8004	2,828.61	85.5865	2,828.61	84.9414	2,828.61	83.9611	2,828.61	83.9834	2,828.61	81.1831	2,828.61	80.7755	2,828.61	82.0682	2,828.61	81.4405	2,828.61	84.1726	2,828.61	84.9613	2,828.61	82.8924	2,828.61	84.6423	2,828.61	80.3304	2,828.61	82.5169	2,828.61	76.2372	2,828.61	78.9389	2,828.61	74.0855	2,828.61	75.9867	2,828.61	70.5461	2,828.61	71.903	2,828.61	70.2385	2,828.61	74.1266	2,828.61	70.5542	2,828.61	73.2314	2,828.61	73.1225	2,828.61	73.5648	2,828.61	74.2245	2,828.61	75.8497	2,828.61	69.6015	2,828.61	68.1814	2,828.61	66.6146	2,828.61	57.0117	2,828.61	63.7935	2,828.61	67.8722	2,828.61	73.7289
2,928.22	87.7005	2,928.22	86.3495	2,928.22	87.2202	2,928.22	85.3528	2,928.22	85.2834	2,928.22	82.1511	2,928.22	81.9905	2,928.22	81.8857	2,928.22	82.3591	2,928.22	84.0137	2,928.22	85.2557	2,928.22	83.9706	2,928.22	84.4997	2,928.22	81.1935	2,928.22	83.2828	2,928.22	79.1474	2,928.22	79.7603	2,928.22	73.952	2,928.22	77.8745	2,928.22	72.8346	2,928.22	73.6105	2,928.22	71.8597	2,928.22	69.7268	2,928.22	70.509	2,928.22	72.8331	2,928.22	72.7221	2,928.22	74.7374	2,928.22	75.2896	2,928.22	74.4195	2,928.22	68.0134	2,928.22	66.9603	2,928.22	46.0072	2,928.22	55.3119	2,928.22	68.749	2,928.22	63.4749	2,928.22	73.948
3,030.76	87.8874	3,030.76	86.8119	3,030.76	87.3636	3,030.76	86.0427	3,030.76	85.7555	3,030.76	83.5076	3,030.76	82.8763	3,030.76	82.7249	3,030.76	83.9912	3,030.76	84.9053	3,030.76	85.5962	3,030.76	84.889	3,030.76	84.8111	3,030.76	82.6723	3,030.76	82.5815	3,030.76	80.9636	3,030.76	79.4449	3,030.76	76.9384	3,030.76	75.9065	3,030.76	74.4199	3,030.76	72.6396	3,030.76	74.3653	3,030.76	72.3613	3,030.76	71.4989	3,030.76	69.9807	3,030.76	73.0583	3,030.76	72.9774	3,030.76	73.8491	3,030.76	74.7981	3,030.76	69.7328	3,030.76	67.5932	3,030.76	61.742	3,030.76	60.6703	3,030.76	64.9611	3,030.76	69.5562	3,030.76	72.2783
3,137.7	87.4245	3,137.7	86.4633	3,137.7	87.3989	3,137.7	85.722	3,137.7	85.5949	3,137.7	83.4993	3,137.7	83.0236	3,137.7	84.2473	3,137.7	83.1686	3,137.7	85.2639	3,137.7	85.2839	3,137.7	84.7356	3,137.7	84.8273	3,137.7	82.3659	3,137.7	81.9841	3,137.7	81.1795	3,137.7	79.6295	3,137.7	76.809	3,137.7	74.4361	3,137.7	73.2824	3,137.7	72.8577	3,137.7	72.7724	3,137.7	72.8049	3,137.7	72.8004	3,137.7	69.9555	3,137.7	71.7581	3,137.7	73.5214	3,137.7	74.1782	3,137.7	76.0428	3,137.7	71.3839	3,137.7	69.9159	3,137.7	62.5507	3,137.7	63.5743	3,137.7	67.5644	3,137.7	69.0263	3,137.7	71.6471
3,249.02	87.7147	3,249.02	86.7952	3,249.02	87.7386	3,249.02	85.7642	3,249.02	85.9461	3,249.02	83.6621	3,249.02	84.2732	3,249.02	83.049	3,249.02	83.7345	3,249.02	85.09	3,249.02	85.4126	3,249.02	84.5056	3,249.02	84.5799	3,249.02	81.6581	3,249.02	81.7755	3,249.02	80.0993	3,249.02	78.5372	3,249.02	75.6348	3,249.02	75.9237	3,249.02	71.5733	3,249.02	70.4084	3,249.02	71.4497	3,249.02	71.5994	3,249.02	73.0832	3,249.02	72.9649	3,249.02	70.6032	3,249.02	73.7186	3,249.02	73.7956	3,249.02	75.079	3,249.02	70.3711	3,249.02	70.629	3,249.02	63.1069	3,249.02	63.3937	3,249.02	68.5947	3,249.02	68.9668	3,249.02	70.7759
3,363.28	87.6802	3,363.28	86.887	3,363.28	86.6058	3,363.28	85.915	3,363.28	85.9293	3,363.28	85.1539	3,363.28	84.7092	3,363.28	84.0986	3,363.28	84.7421	3,363.28	85.2506	3,363.28	85.6142	3,363.28	83.4029	3,363.28	84.4418	3,363.28	81.0669	3,363.28	81.3946	3,363.28	78.1378	3,363.28	78.0333	3,363.28	74.6786	3,363.28	74.5943	3,363.28	62.5382	3,363.28	68.7767	3,363.28	68.9521	3,363.28	70.9403	3,363.28	71.4279	3,363.28	73.5707	3,363.28	71.2279	3,363.28	72.1439	3,363.28	74.2393	3,363.28	72.3834	3,363.28	70.5919	3,363.28	69.3169	3,363.28	53.2407	3,363.28	59.9724	3,363.28	68.474	3,363.28	68.1542	3,363.28	69.1061
3,481.93	87.9765	3,481.93	86.4353	3,481.93	86.8113	3,481.93	85.7193	3,481.93	86.5667	3,481.93	86.1667	3,481.93	85.0997	3,481.93	84.1784	3,481.93	84.9817	3,481.93	85.8684	3,481.93	85.8782	3,481.93	84.4523	3,481.93	84.805	3,481.93	82.7538	3,481.93	81.3135	3,481.93	78.0783	3,481.93	78.9052	3,481.93	75.3237	3,481.93	74.1701	3,481.93	72.3808	3,481.93	70.5994	3,481.93	68.3125	3,481.93	69.6127	3,481.93	69.367	3,481.93	72.7241	3,481.93	72.7575	3,481.93	68.4549	3,481.93	74.523	3,481.93	72.7937	3,481.93	68.2101	3,481.93	71.4729	3,481.93	57.4791	3,481.93	62.4044	3,481.93	68.9079	3,481.93	67.5969	3,481.93	67.3284
3,604.98	88.3016	3,604.98	86.9576	3,604.98	86.1722	3,604.98	86.0876	3,604.98	87.4501	3,604.98	86.8357	3,604.98	86.7638	3,604.98	85.229	3,604.98	85.147	3,604.98	86.0538	3,604.98	85.3165	3,604.98	84.6957	3,604.98	84.6273	3,604.98	83.7061	3,604.98	82.491	3,604.98	77.5105	3,604.98	79.0627	3,604.98	76.1886	3,604.98	74.6469	3,604.98	72.7528	3,604.98	73.316	3,604.98	67.6334	3,604.98	72.4505	3,604.98	72.4947	3,604.98	70.1268	3,604.98	71.2802	3,604.98	73.4555	3,604.98	74.7276	3,604.98	75.0557	3,604.98	69.2498	3,604.98	72.6275	3,604.98	58.9506	3,604.98	64.9172	3,604.98	69.5043	3,604.98	68.0854	3,604.98	66.3078
3,732.42	89.0161	3,732.42	87.3773	3,732.42	86.2195	3,732.42	87.1103	3,732.42	87.7855	3,732.42	87.1679	3,732.42	87.6887	3,732.42	85.6422	3,732.42	85.1406	3,732.42	85.2319	3,732.42	85.015	3,732.42	85.1046	3,732.42	85.0401	3,732.42	83.9093	3,732.42	83.6624	3,732.42	78.8047	3,732.42	79.0806	3,732.42	76.6671	3,732.42	74.1407	3,732.42	72.1601	3,732.42	72.8815	3,732.42	68.1117	3,732.42	71.3992	3,732.42	74.2647	3,732.42	72.492	3,732.42	71.8982	3,732.42	76.1946	3,732.42	74.0554	3,732.42	75.4155	3,732.42	71.084	3,732.42	71.2606	3,732.42	62.8072	3,732.42	66.2145	3,732.42	70.2849	3,732.42	69.7292	3,732.42	62.5296
3,864.26	88.5964	3,864.26	86.6834	3,864.26	85.5498	3,864.26	87.0192	3,864.26	86.4291	3,864.26	87.8156	3,864.26	87.5373	3,864.26	86.1475	3,864.26	83.4956	3,864.26	83.6498	3,864.26	83.0861	3,864.26	84.3576	3,864.26	84.8999	3,864.26	83.3484	3,864.26	83.2132	3,864.26	79.584	3,864.26	80.0594	3,864.26	76.1858	3,864.26	75.3389	3,864.26	70.8806	3,864.26	69.2039	3,864.26	72.5834	3,864.26	69.3782	3,864.26	73.3802	3,864.26	70.1991	3,864.26	72.7132	3,864.26	71.7401	3,864.26	72.9734	3,864.26	74.4737	3,864.26	71.1382	3,864.26	70.3188	3,864.26	63.5155	3,864.26	66.1689	3,864.26	69.3771	3,864.26	70.468	3,864.26	55.3523
4,000.49	88.3706	4,000.49	86.9681	4,000.49	86.789	4,000.49	86.237	4,000.49	85.5688	4,000.49	88.3151	4,000.49	87.2996	4,000.49	84.3966	4,000.49	83.2834	4,000.49	81.6774	4,000.49	82.0207	4,000.49	83.1082	4,000.49	84.75	4,000.49	81.277	4,000.49	83.9364	4,000.49	79.6635	4,000.49	79.7793	4,000.49	74.1386	4,000.49	76.3334	4,000.49	73.1279	4,000.49	74.4609	4,000.49	73.0283	4,000.49	68.5256	4,000.49	72.0605	4,000.49	72.6068	4,000.49	74.4076	4,000.49	74.5959	4,000.49	74.2772	4,000.49	74.7976	4,000.49	69.7882	4,000.49	68.9793	4,000.49	66.6415	4,000.49	66.4353	4,000.49	69.0932	4,000.49	69.3009	4,000.49	62.734
4,141.11	88.3773	4,141.11	87.6751	4,141.11	88.3181	4,141.11	85.155	4,141.11	85.9203	4,141.11	87.8474	4,141.11	87.9117	4,141.11	84.7473	4,141.11	84.6233	4,141.11	81.9172	4,141.11	83.387	4,141.11	84.814	4,141.11	85.6717	4,141.11	81.8934	4,141.11	83.1889	4,141.11	81.3779	4,141.11	80.6965	4,141.11	73.175	4,141.11	75.8443	4,141.11	72.8239	4,141.11	71.9361	4,141.11	72.0454	4,141.11	71.7869	4,141.11	69.9494	4,141.11	71.7322	4,141.11	73.0198	4,141.11	73.5095	4,141.11	74.5125	4,141.11	73.2603	4,141.11	68.3884	4,141.11	67.5916	4,141.11	69.0061	4,141.11	68.7046	4,141.11	70.1429	4,141.11	66.014	4,141.11	60.7804
4,287.6	89.6478	4,287.6	87.8709	4,287.6	89.3362	4,287.6	85.4496	4,287.6	85.776	4,287.6	87.8276	4,287.6	88.1103	4,287.6	83.8033	4,287.6	85.2132	4,287.6	81.3131	4,287.6	83.3196	4,287.6	84.6236	4,287.6	85.5067	4,287.6	82.7442	4,287.6	83.9054	4,287.6	81.0709	4,287.6	80.3081	4,287.6	75.8017	4,287.6	75.6341	4,287.6	76.0318	4,287.6	73.2688	4,287.6	68.9424	4,287.6	70.8965	4,287.6	68.1419	4,287.6	67.7726	4,287.6	69.419	4,287.6	71.1898	4,287.6	72.47	4,287.6	70.5757	4,287.6	67.9981	4,287.6	67.229	4,287.6	69.1682	4,287.6	72.1997	4,287.6	57.8705	4,287.6	60.2414	4,287.6	55.7409
4,438.48	89.2482	4,438.48	88.0849	4,438.48	89.4559	4,438.48	86.2521	4,438.48	86.793	4,438.48	87.2635	4,438.48	87.8882	4,438.48	83.8741	4,438.48	85.9899	4,438.48	80.9238	4,438.48	83.8006	4,438.48	84.5381	4,438.48	84.0214	4,438.48	83.6099	4,438.48	82.9818	4,438.48	80.2104	4,438.48	81.029	4,438.48	77.6931	4,438.48	77.5803	4,438.48	73.0786	4,438.48	73.6564	4,438.48	70.0553	4,438.48	66.1357	4,438.48	69.9038	4,438.48	73.445	4,438.48	72.1674	4,438.48	73.2106	4,438.48	72.5765	4,438.48	72.6265	4,438.48	69.2131	4,438.48	67.9087	4,438.48	66.4763	4,438.48	73.2157	4,438.48	68.3904	4,438.48	65.535	4,438.48	64.6628
4,595.21	88.1594	4,595.21	89.0764	4,595.21	87.7264	4,595.21	86.0246	4,595.21	86.8265	4,595.21	86.4085	4,595.21	87.3007	4,595.21	86.7469	4,595.21	86.8881	4,595.21	80.4471	4,595.21	82.8396	4,595.21	83.3665	4,595.21	83.752	4,595.21	82.993	4,595.21	83.0776	4,595.21	80.4924	4,595.21	80.2584	4,595.21	78.2191	4,595.21	74.8294	4,595.21	67.3406	4,595.21	69.9421	4,595.21	63.7453	4,595.21	68.8734	4,595.21	67.3361	4,595.21	71.1966	4,595.21	74.1171	4,595.21	72.7438	4,595.21	67.9206	4,595.21	70.7384	4,595.21	65.271	4,595.21	65.1332	4,595.21	69.4706	4,595.21	71.967	4,595.21	68.7115	4,595.21	65.834	4,595.21	60.5068
4,756.35	88.3341	4,756.35	90.5327	4,756.35	89.4167	4,756.35	87.0555	4,756.35	88.1907	4,756.35	87.6679	4,756.35	88.9415	4,756.35	88.6874	4,756.35	87.1708	4,756.35	81.1549	4,756.35	81.7293	4,756.35	82.6279	4,756.35	84.0435	4,756.35	83.4015	4,756.35	84.609	4,756.35	79.9863	4,756.35	81.3905	4,756.35	76.0054	4,756.35	75.778	4,756.35	74.5408	4,756.35	72.2215	4,756.35	68.9174	4,756.35	70.4012	4,756.35	71.7112	4,756.35	71.28	4,756.35	74.5884	4,756.35	71.1829	4,756.35	72.2434	4,756.35	69.1532	4,756.35	68.0939	4,756.35	64.6461	4,756.35	63.3035	4,756.35	70.6917	4,756.35	65.4588	4,756.35	66.0949	4,756.35	63.2289
4,924.8	89.4214	4,924.8	90.2487	4,924.8	90.9139	4,924.8	89.828	4,924.8	88.2162	4,924.8	88.9834	4,924.8	89.8525	4,924.8	89.2012	4,924.8	87.0548	4,924.8	82.9073	4,924.8	75.7948	4,924.8	84.1172	4,924.8	83.6777	4,924.8	84.5888	4,924.8	84.4946	4,924.8	82.2201	4,924.8	81.1538	4,924.8	77.6453	4,924.8	76.4338	4,924.8	76.554	4,924.8	72.3747	4,924.8	70.2021	4,924.8	70.0832	4,924.8	71.6684	4,924.8	72.3489	4,924.8	73.2351	4,924.8	71.6424	4,924.8	72.1142	4,924.8	70.7842	4,924.8	67.3136	4,924.8	61.401	4,924.8	63.7214	4,924.8	70.3227	4,924.8	68.3351	4,924.8	68.3822	4,924.8	53.5831
5,097.66	89.6079	5,097.66	89.2935	5,097.66	90.5243	5,097.66	90.5811	5,097.66	88.7916	5,097.66	88.1947	5,097.66	88.1711	5,097.66	87.736	5,097.66	86.751	5,097.66	81.2899	5,097.66	79.9929	5,097.66	82.8675	5,097.66	83.128	5,097.66	83.6477	5,097.66	84.0789	5,097.66	81.7635	5,097.66	81.1617	5,097.66	77.6912	5,097.66	77.7571	5,097.66	73.4675	5,097.66	71.6784	5,097.66	70.4971	5,097.66	62.3708	5,097.66	69.5799	5,097.66	73.1892	5,097.66	67.4036	5,097.66	70.2403	5,097.66	70.7718	5,097.66	68.2774	5,097.66	64.9895	5,097.66	56.742	5,097.66	67.142	5,097.66	70.9087	5,097.66	66.7226	5,097.66	68.5512	5,097.66	53.5147
5,277.83	90.0332	5,277.83	89.885	5,277.83	89.5668	5,277.83	89.9385	5,277.83	89.8805	5,277.83	88.9296	5,277.83	86.7168	5,277.83	87.0998	5,277.83	87.4052	5,277.83	81.1229	5,277.83	84.2864	5,277.83	83.5746	5,277.83	82.885	5,277.83	84.7724	5,277.83	82.9485	5,277.83	81.0163	5,277.83	80.4853	5,277.83	77.3715	5,277.83	77.6596	5,277.83	65.3819	5,277.83	68.6239	5,277.83	58.5127	5,277.83	66.0511	5,277.83	67.3642	5,277.83	69.4205	5,277.83	69.0546	5,277.83	69.4808	5,277.83	70.2057	5,277.83	63.4858	5,277.83	58.4205	5,277.83	57.7992	5,277.83	68.1457	5,277.83	70.8425	5,277.83	60.533	5,277.83	58.7774	5,277.83	54.2454
5,463.87	89.3972	5,463.87	89.1189	5,463.87	87.2485	5,463.87	88.8444	5,463.87	89.6812	5,463.87	86.8748	5,463.87	86.5544	5,463.87	86.8108	5,463.87	88.4145	5,463.87	82.1019	5,463.87	84.0593	5,463.87	83.6393	5,463.87	83.5044	5,463.87	85.4059	5,463.87	83.8391	5,463.87	81.2865	5,463.87	80.5774	5,463.87	79.0734	5,463.87	76.8719	5,463.87	75.9417	5,463.87	70.657	5,463.87	69.9706	5,463.87	67.8165	5,463.87	67.4642	5,463.87	66.7623	5,463.87	71.8289	5,463.87	69.4529	5,463.87	62.2312	5,463.87	66.6881	5,463.87	58.5734	5,463.87	50.2136	5,463.87	69.0282	5,463.87	70.4029	5,463.87	61.2877	5,463.87	49.69	5,463.87	64.1093
5,657.23	89.349	5,657.23	88.9291	5,657.23	89.1822	5,657.23	87.7921	5,657.23	88.443	5,657.23	84.817	5,657.23	88.0881	5,657.23	87.5214	5,657.23	88.3157	5,657.23	83.7992	5,657.23	82.8587	5,657.23	80.6077	5,657.23	84.5784	5,657.23	83.3973	5,657.23	84.3556	5,657.23	80.0459	5,657.23	78.77	5,657.23	75.9508	5,657.23	74.7896	5,657.23	74.2869	5,657.23	72.5894	5,657.23	69.3031	5,657.23	71.4051	5,657.23	69.1833	5,657.23	67.5897	5,657.23	72.5404	5,657.23	68.6156	5,657.23	65.1167	5,657.23	64.4986	5,657.23	62.8867	5,657.23	50.0401	5,657.23	63.4427	5,657.23	64.6859	5,657.23	60.7725	5,657.23	59.4337	5,657.23	64.8036
5,856.45	88.3264	5,856.45	87.9956	5,856.45	89.5609	5,856.45	88.3633	5,856.45	88.3034	5,856.45	86.4309	5,856.45	87.3452	5,856.45	88.3285	5,856.45	88.0716	5,856.45	84.3191	5,856.45	83.1647	5,856.45	80.6397	5,856.45	82.243	5,856.45	82.2932	5,856.45	81.99	5,856.45	81.1337	5,856.45	82.0671	5,856.45	72.3439	5,856.45	73.757	5,856.45	74.2713	5,856.45	73.3266	5,856.45	70.358	5,856.45	68.9014	5,856.45	67.1566	5,856.45	70.538	5,856.45	71.3913	5,856.45	69.227	5,856.45	64.3467	5,856.45	63.8499	5,856.45	61.105	5,856.45	57.8846	5,856.45	66.7948	5,856.45	61.3131	5,856.45	59.3032	5,856.45	61.4415	5,856.45	57.5574
6,062.99	88.4052	6,062.99	88.0519	6,062.99	89.2749	6,062.99	89.1295	6,062.99	89.6959	6,062.99	88.1079	6,062.99	86.5745	6,062.99	88.7389	6,062.99	88.6446	6,062.99	85.844	6,062.99	85.6363	6,062.99	79.3881	6,062.99	80.6509	6,062.99	80.824	6,062.99	81.2651	6,062.99	81.2652	6,062.99	81.7589	6,062.99	75.2905	6,062.99	74.4362	6,062.99	71.5317	6,062.99	73.8198	6,062.99	69.158	6,062.99	68.0066	6,062.99	68.6753	6,062.99	67.8234	6,062.99	69.2002	6,062.99	69.6873	6,062.99	63.0265	6,062.99	62.7748	6,062.99	59.3796	6,062.99	61.5797	6,062.99	60.911	6,062.99	58.5432	6,062.99	52.9379	6,062.99	63.4553	6,062.99	52.3728
6,276.86	87.4174	6,276.86	87.4074	6,276.86	87.6352	6,276.86	87.9554	6,276.86	89.4157	6,276.86	86.8943	6,276.86	87.0238	6,276.86	87.3989	6,276.86	87.6981	6,276.86	85.1343	6,276.86	85.5626	6,276.86	80.2543	6,276.86	80.6201	6,276.86	80.633	6,276.86	82.8656	6,276.86	79.4354	6,276.86	80.1772	6,276.86	75.8195	6,276.86	73.8502	6,276.86	68.669	6,276.86	73.3013	6,276.86	71.4965	6,276.86	64.1392	6,276.86	66.405	6,276.86	60.5013	6,276.86	65.8558	6,276.86	68.947	6,276.86	61.6956	6,276.86	44.4765	6,276.86	59.9716	6,276.86	63.8462	6,276.86	63.0445	6,276.86	59.5977	6,276.86	62.3908	6,276.86	54.0561	6,276.86	57.1497
6,498.05	87.0941	6,498.05	88.3985	6,498.05	88.9263	6,498.05	87.2054	6,498.05	88.3063	6,498.05	88.0876	6,498.05	89.1613	6,498.05	85.8292	6,498.05	86.4471	6,498.05	86.4086	6,498.05	85.0108	6,498.05	78.5853	6,498.05	78.82	6,498.05	82.8687	6,498.05	83.5482	6,498.05	78.5389	6,498.05	78.4466	6,498.05	74.7712	6,498.05	74.7871	6,498.05	70.998	6,498.05	70.3895	6,498.05	63.292	6,498.05	68.1713	6,498.05	63.2149	6,498.05	62.3267	6,498.05	64.4618	6,498.05	71.3947	6,498.05	66.019	6,498.05	55.9747	6,498.05	62.0581	6,498.05	64.4231	6,498.05	62.484	6,498.05	63.7477	6,498.05	55.8544	6,498.05	37.32	6,498.05	57.7048
6,726.56	87.0138	6,726.56	88.3244	6,726.56	88.7176	6,726.56	87.5862	6,726.56	87.337	6,726.56	89.0897	6,726.56	88.5331	6,726.56	86.1407	6,726.56	86.4823	6,726.56	86.9998	6,726.56	85.7627	6,726.56	76.1987	6,726.56	78.1844	6,726.56	82.8694	6,726.56	81.2964	6,726.56	79.7483	6,726.56	79.3482	6,726.56	75.2163	6,726.56	74.7486	6,726.56	74.4561	6,726.56	72.854	6,726.56	65.4379	6,726.56	64.0614	6,726.56	63.3524	6,726.56	58.7674	6,726.56	66.2192	6,726.56	70.232	6,726.56	63.9507	6,726.56	55.0321	6,726.56	57.5598	6,726.56	65.0578	6,726.56	62.009	6,726.56	32.7247	6,726.56	54.7928	6,726.56	46.3309	6,726.56	55.1164
6,963.87	87.4606	6,963.87	88.4753	6,963.87	87.367	6,963.87	87.8832	6,963.87	87.805	6,963.87	87.9306	6,963.87	87.0845	6,963.87	85.7477	6,963.87	86.4631	6,963.87	85.5085	6,963.87	86.44	6,963.87	78.2624	6,963.87	76.6881	6,963.87	78.9559	6,963.87	78.9613	6,963.87	77.6664	6,963.87	77.2114	6,963.87	73.3886	6,963.87	73.9205	6,963.87	72.5864	6,963.87	70.0368	6,963.87	64.2171	6,963.87	64.1703	6,963.87	62.6581	6,963.87	57.9022	6,963.87	68.8047	6,963.87	71.1648	6,963.87	50.3272	6,963.87	62.2062	6,963.87	42.9038	6,963.87	57.5637	6,963.87	59.5325	6,963.87	61.2811	6,963.87	55.1239	6,963.87	58.2703	6,963.87	51.8101
7,209.96	87.3216	7,209.96	88.4415	7,209.96	86.6711	7,209.96	88.0152	7,209.96	88.0933	7,209.96	87.0076	7,209.96	86.4027	7,209.96	85.571	7,209.96	86.2679	7,209.96	85.5135	7,209.96	86.1014	7,209.96	80.2668	7,209.96	78.0248	7,209.96	78.1018	7,209.96	79.9989	7,209.96	78.2411	7,209.96	77.2372	7,209.96	75.7145	7,209.96	75.9827	7,209.96	70.6088	7,209.96	70.0249	7,209.96	62.9016	7,209.96	65.6533	7,209.96	57.9071	7,209.96	63.6763	7,209.96	63.2355	7,209.96	70.6989	7,209.96	63.8126	7,209.96	63.5515	7,209.96	54.4837	7,209.96	63.3735	7,209.96	61.0673	7,209.96	54.2773	7,209.96	57.8732	7,209.96	58.0873	7,209.96	59.601
7,464.84	87.0392	7,464.84	88.4053	7,464.84	88.4686	7,464.84	87.1171	7,464.84	87.2133	7,464.84	87.5126	7,464.84	87.4396	7,464.84	84.9727	7,464.84	84.9167	7,464.84	86.5745	7,464.84	84.1904	7,464.84	79.8296	7,464.84	75.9318	7,464.84	78.2129	7,464.84	79.6276	7,464.84	77.9933	7,464.84	74.5624	7,464.84	76.5175	7,464.84	74.0659	7,464.84	68.0578	7,464.84	69.8331	7,464.84	62.0223	7,464.84	66.3252	7,464.84	60.6731	7,464.84	58.3704	7,464.84	57.6361	7,464.84	71.1825	7,464.84	63.4126	7,464.84	65.6734	7,464.84	55.6976	7,464.84	60.8136	7,464.84	54.013	7,464.84	51.1655	7,464.84	58.4803	7,464.84	60.0065	7,464.84	56.0281
7,727.05	87.6574	7,727.05	88.1182	7,727.05	89.2899	7,727.05	86.9273	7,727.05	86.8641	7,727.05	88.0529	7,727.05	88.7388	7,727.05	84.965	7,727.05	85.4342	7,727.05	86.4349	7,727.05	84.5106	7,727.05	77.1197	7,727.05	77.1113	7,727.05	78.6384	7,727.05	79.5952	7,727.05	76.8769	7,727.05	75.7541	7,727.05	76.3637	7,727.05	74.2135	7,727.05	70.8645	7,727.05	68.0162	7,727.05	64.3645	7,727.05	60.5327	7,727.05	60.4933	7,727.05	59.3977	7,727.05	62.006	7,727.05	66.0002	7,727.05	60.2499	7,727.05	60.3461	7,727.05	55.6892	7,727.05	53.8821	7,727.05	52.5427	7,727.05	55.61	7,727.05	54.4238	7,727.05	51.4476	7,727.05	56.4057
7,999.51	88.4217	7,999.51	88.4009	7,999.51	87.7911	7,999.51	88.1638	7,999.51	87.3969	7,999.51	87.4637	7,999.51	87.9473	7,999.51	85.5905	7,999.51	85.2591	7,999.51	85.2733	7,999.51	84.6827	7,999.51	79.0995	7,999.51	78.0883	7,999.51	79.8696	7,999.51	77.8825	7,999.51	78.2411	7,999.51	76.1163	7,999.51	75.6108	7,999.51	73.3816	7,999.51	66.7312	7,999.51	66.7707	7,999.51	62.9796	7,999.51	55.5836	7,999.51	61.9352	7,999.51	52.2744	7,999.51	63.1093	7,999.51	64.4007	7,999.51	61.1379	7,999.51	53.7633	7,999.51	47.4084	7,999.51	55.3547	7,999.51	50.3808	7,999.51	56.3911	7,999.51	58.0086	7,999.51	53.6749	7,999.51	57.0944
8,282.23	88.8451	8,282.23	88.8956	8,282.23	88.0304	8,282.23	87.8919	8,282.23	87.3826	8,282.23	88.3186	8,282.23	87.4395	8,282.23	85.7127	8,282.23	84.9964	8,282.23	82.3871	8,282.23	84.759	8,282.23	81.5681	8,282.23	78.4612	8,282.23	78.0244	8,282.23	77.7945	8,282.23	77.6927	8,282.23	76.7514	8,282.23	72.1201	8,282.23	71.9664	8,282.23	64.547	8,282.23	66.6621	8,282.23	61.1003	8,282.23	62.3269	8,282.23	56.5762	8,282.23	61.0576	8,282.23	62.9558	8,282.23	68.3814	8,282.23	56.935	8,282.23	58.4878	8,282.23	54.0124	8,282.23	55.4306	8,282.23	44.95	8,282.23	54.2273	8,282.23	61.2639	8,282.23	57.3833	8,282.23	52.7708
8,573.73	89.1958	8,573.73	89.1533	8,573.73	88.9331	8,573.73	88.5164	8,573.73	88.3361	8,573.73	88.4231	8,573.73	87.7153	8,573.73	85.0577	8,573.73	84.1563	8,573.73	84.0859	8,573.73	83.2762	8,573.73	81.4199	8,573.73	78.431	8,573.73	74.9823	8,573.73	75.9113	8,573.73	76.5294	8,573.73	74.9917	8,573.73	70.4513	8,573.73	71.6102	8,573.73	66.8097	8,573.73	66.4641	8,573.73	62.5465	8,573.73	59.4122	8,573.73	55.5557	8,573.73	57.9495	8,573.73	58.1429	8,573.73	66.305	8,573.73	47.9665	8,573.73	59.3332	8,573.73	57.4455	8,573.73	51.9406	8,573.73	51.4061	8,573.73	54.9875	8,573.73	57.6297	8,573.73	55.7025	8,573.73	47.3124
8,876.95	89.5095	8,876.95	88.5748	8,876.95	88.4428	8,876.95	88.9574	8,876.95	88.9551	8,876.95	86.9362	8,876.95	86.9411	8,876.95	85.3985	8,876.95	84.8457	8,876.95	83.7439	8,876.95	82.9508	8,876.95	80.2856	8,876.95	79.7832	8,876.95	74.1019	8,876.95	75.1557	8,876.95	75.6918	8,876.95	73.2715	8,876.95	69.2155	8,876.95	69.7896	8,876.95	65.0933	8,876.95	62.9463	8,876.95	61.4341	8,876.95	56.9119	8,876.95	45.8155	8,876.95	46.1561	8,876.95	58.014	8,876.95	65.3852	8,876.95	57.199	8,876.95	54.5308	8,876.95	54.5729	8,876.95	57.9423	8,876.95	47.2285	8,876.95	49.8106	8,876.95	55.3976	8,876.95	53.7698	8,876.95	52.9509
9,188.96	89.2253	9,188.96	89.098	9,188.96	89.0156	9,188.96	88.3372	9,188.96	87.957	9,188.96	87.6898	9,188.96	86.274	9,188.96	86.1569	9,188.96	84.8657	9,188.96	83.0406	9,188.96	82.5734	9,188.96	80.8489	9,188.96	79.7265	9,188.96	74.2998	9,188.96	74.5779	9,188.96	74.3546	9,188.96	72.1074	9,188.96	69.3111	9,188.96	67.391	9,188.96	65.3347	9,188.96	61.3099	9,188.96	62.911	9,188.96	58.5206	9,188.96	55.1075	9,188.96	49.0669	9,188.96	55.5524	9,188.96	62.561	9,188.96	57.3792	9,188.96	57.1018	9,188.96	48.8656	9,188.96	48.4735	9,188.96	45.8062	9,188.96	41.2766	9,188.96	55.4595	9,188.96	55.3614	9,188.96	51.8007
9,514.16	89.388	9,514.16	89.6107	9,514.16	89.1791	9,514.16	88.7947	9,514.16	88.7021	9,514.16	87.7717	9,514.16	86.7365	9,514.16	85.366	9,514.16	84.1998	9,514.16	82.0171	9,514.16	81.9013	9,514.16	79.9646	9,514.16	77.9057	9,514.16	72.7498	9,514.16	72.3166	9,514.16	73.2022	9,514.16	71.7058	9,514.16	69.8571	9,514.16	68.0758	9,514.16	64.436	9,514.16	59.6301	9,514.16	59.0762	9,514.16	56.8127	9,514.16	57.4706	9,514.16	43.0732	9,514.16	51.8128	9,514.16	59.0592	9,514.16	54.5878	9,514.16	57.0372	9,514.16	46.4332	9,514.16	42.5281	9,514.16	50.3436	9,514.16	42.9599	9,514.16	54.6285	9,514.16	52.3898	9,514.16	55.9821
9,849.61	90.0697	9,849.61	89.6318	9,849.61	89.5621	9,849.61	88.9354	9,849.61	88.6829	9,849.61	86.9069	9,849.61	86.7261	9,849.61	85.4032	9,849.61	84.5186	9,849.61	81.4924	9,849.61	80.8816	9,849.61	78.811	9,849.61	77.3375	9,849.61	72.0958	9,849.61	70.0716	9,849.61	73.8297	9,849.61	71.3418	9,849.61	68.2806	9,849.61	65.4681	9,849.61	59.4649	9,849.61	57.9846	9,849.61	56.9983	9,849.61	52.9481	9,849.61	51.1189	9,849.61	42.6201	9,849.61	54.2143	9,849.61	57.7176	9,849.61	46.8612	9,849.61	51.8111	9,849.61	49.9583	9,849.61	49.2073	9,849.61	52.5815	9,849.61	53.7337	9,849.61	55.7648	9,849.61	51.5664	9,849.61	54.749
10,196.8	90.1773	10,196.8	90.0531	10,196.8	90.0821	10,196.8	88.7699	10,196.8	88.2824	10,196.8	87.3103	10,196.8	86.6711	10,196.8	84.9011	10,196.8	84.3147	10,196.8	80.7065	10,196.8	80.3092	10,196.8	78.2777	10,196.8	76.2584	10,196.8	69.3334	10,196.8	70.1262	10,196.8	71.5985	10,196.8	68.0291	10,196.8	67.4085	10,196.8	64.0965	10,196.8	61.4369	10,196.8	52.8688	10,196.8	54.4315	10,196.8	52.9735	10,196.8	58.1209	10,196.8	45.6935	10,196.8	38.9794	10,196.8	57.7998	10,196.8	46.7307	10,196.8	41.4162	10,196.8	48.9707	10,196.8	42.5402	10,196.8	51.2876	10,196.8	53.6563	10,196.8	53.2814	10,196.8	52.7187	10,196.8	54.5034
10,555.7	90.1694	10,555.7	90.1842	10,555.7	89.9977	10,555.7	89.0077	10,555.7	88.6061	10,555.7	87.1927	10,555.7	86.3084	10,555.7	84.5306	10,555.7	82.8453	10,555.7	79.8851	10,555.7	79.4485	10,555.7	77.2315	10,555.7	73.7765	10,555.7	67.0243	10,555.7	65.4015	10,555.7	71.0291	10,555.7	66.7198	10,555.7	65.822	10,555.7	63.2018	10,555.7	56.5281	10,555.7	49.538	10,555.7	56.9862	10,555.7	52.4182	10,555.7	49.0737	10,555.7	43.8133	10,555.7	52.3837	10,555.7	44.9247	10,555.7	45.3303	10,555.7	43.0435	10,555.7	48.9739	10,555.7	54.6887	10,555.7	54.2977	10,555.7	55.6076	10,555.7	45.4338	10,555.7	52.3799	10,555.7	52.2123
10,927.7	90.2214	10,927.7	90.1571	10,927.7	90.0971	10,927.7	89.0407	10,927.7	88.7894	10,927.7	86.8591	10,927.7	86.4057	10,927.7	83.7192	10,927.7	82.4632	10,927.7	78.878	10,927.7	76.6722	10,927.7	76.2092	10,927.7	72.1213	10,927.7	66.4966	10,927.7	63.1556	10,927.7	69.2756	10,927.7	65.7624	10,927.7	61.6824	10,927.7	59.1423	10,927.7	59.6825	10,927.7	54.9222	10,927.7	55.9972	10,927.7	51.1243	10,927.7	50.1106	10,927.7	51.0937	10,927.7	54.3727	10,927.7	44.1661	10,927.7	58.2548	10,927.7	46.2833	10,927.7	54.9856	10,927.7	54.4033	10,927.7	54.2887	10,927.7	56.4023	10,927.7	55.3284	10,927.7	53.4694	10,927.7	54.7155
11,313	89.7033	11,313	89.5924	11,313	89.6641	11,313	88.537	11,313	87.8526	11,313	85.9378	11,313	85.5939	11,313	82.3406	11,313	80.6103	11,313	78.6069	11,313	76.0954	11,313	74.2874	11,313	71.6818	11,313	70.2981	11,313	67.3607	11,313	67.787	11,313	64.5548	11,313	66.1977	11,313	64.9242	11,313	60.9283	11,313	55.2696	11,313	58.2485	11,313	53.5988	11,313	48.012	11,313	52.6857	11,313	55.4116	11,313	51.8205	11,313	57.2027	11,313	54.0446	11,313	52.8011	11,313	49.7617	11,313	55.0542	11,313	57.8647	11,313	51.1439	11,313	57.881	11,313	54.4113
11,712.9	88.4407	11,712.9	88.3155	11,712.9	88.8072	11,712.9	87.4378	11,712.9	87.0657	11,712.9	85.832	11,712.9	84.5214	11,712.9	82.1076	11,712.9	79.9043	11,712.9	79.2768	11,712.9	72.9401	11,712.9	77.6791	11,712.9	74.9108	11,712.9	71.6436	11,712.9	66.0126	11,712.9	70.5103	11,712.9	69.5077	11,712.9	69.8531	11,712.9	66.6478	11,712.9	63.5203	11,712.9	58.2538	11,712.9	54.8377	11,712.9	55.5278	11,712.9	56.6768	11,712.9	55.5453	11,712.9	47.2322	11,712.9	51.9471	11,712.9	56.5138	11,712.9	53.204	11,712.9	49.0607	11,712.9	55.1447	11,712.9	51.4608	11,712.9	54.2009	11,712.9	57.4657	11,712.9	56.9915	11,712.9	50.7262
12,126	87.9199	12,126	87.9515	12,126	87.8656	12,126	86.7294	12,126	86.4265	12,126	84.8811	12,126	83.7071	12,126	81.7753	12,126	79.2945	12,126	80.2273	12,126	77.955	12,126	79.1771	12,126	77.948	12,126	73.1428	12,126	70.3944	12,126	71.0724	12,126	70.4132	12,126	66.7384	12,126	67.6186	12,126	59.692	12,126	59.4441	12,126	57.5741	12,126	58.2019	12,126	50.8142	12,126	52.829	12,126	38.7432	12,126	56.5867	12,126	56.8575	12,126	53.1568	12,126	50.99	12,126	47.3521	12,126	48.5988	12,126	55.9855	12,126	56.5543	12,126	55.1641	12,126	57.3174
12,553.7	87.3825	12,553.7	86.8082	12,553.7	86.8313	12,553.7	86.0017	12,553.7	84.8949	12,553.7	83.9336	12,553.7	82.7389	12,553.7	82.0782	12,553.7	80.5846	12,553.7	82.164	12,553.7	79.4976	12,553.7	80.4117	12,553.7	79.7014	12,553.7	76.6784	12,553.7	74.6473	12,553.7	70.0497	12,553.7	70.6408	12,553.7	67.8664	12,553.7	68.6389	12,553.7	62.7804	12,553.7	59.1387	12,553.7	60.8078	12,553.7	57.127	12,553.7	51.0243	12,553.7	56.9407	12,553.7	48.4957	12,553.7	55.6084	12,553.7	56.8895	12,553.7	46.3997	12,553.7	52.2145	12,553.7	45.0681	12,553.7	51.172	12,553.7	41.3888	12,553.7	49.9467	12,553.7	58.9986	12,553.7	55.2688
12,996.1	87.1407	12,996.1	86.1728	12,996.1	85.2925	12,996.1	85.4308	12,996.1	85.3468	12,996.1	85.4513	12,996.1	83.4403	12,996.1	84.2773	12,996.1	82.4556	12,996.1	83.3563	12,996.1	82.1924	12,996.1	82.0873	12,996.1	80.7251	12,996.1	77.8932	12,996.1	76.7082	12,996.1	71.8035	12,996.1	70.5077	12,996.1	70.3771	12,996.1	71.1152	12,996.1	67.8201	12,996.1	64.562	12,996.1	57.3635	12,996.1	60.0773	12,996.1	50.7802	12,996.1	55.6892	12,996.1	54.7503	12,996.1	63.6596	12,996.1	58.3003	12,996.1	49.8089	12,996.1	53.1258	12,996.1	60.3191	12,996.1	49.4285	12,996.1	59.2559	12,996.1	53.5971	12,996.1	44.8837	12,996.1	57.6377
13,454.6	87.3175	13,454.6	85.299	13,454.6	84.8952	13,454.6	86.7803	13,454.6	85.2301	13,454.6	85.2459	13,454.6	85.5018	13,454.6	84.6461	13,454.6	83.2704	13,454.6	84.579	13,454.6	83.5764	13,454.6	82.1137	13,454.6	81.2467	13,454.6	80.1657	13,454.6	78.3163	13,454.6	70.6533	13,454.6	72.1582	13,454.6	72.9219	13,454.6	71.5387	13,454.6	66.6904	13,454.6	62.7425	13,454.6	58.4628	13,454.6	58.0924	13,454.6	32.846	13,454.6	51.8361	13,454.6	42.7121	13,454.6	61.6941	13,454.6	57.7974	13,454.6	51.0035	13,454.6	48.8976	13,454.6	60.5012	13,454.6	51.4368	13,454.6	53.3788	13,454.6	57.7389	13,454.6	53.355	13,454.6	49.9411
13,929.2	87.4843	13,929.2	85.7743	13,929.2	85.962	13,929.2	86.7934	13,929.2	85.9859	13,929.2	87.1013	13,929.2	84.9256	13,929.2	86.6545	13,929.2	85.2102	13,929.2	84.7542	13,929.2	85.015	13,929.2	84.4184	13,929.2	81.2068	13,929.2	81.7313	13,929.2	79.0259	13,929.2	74.399	13,929.2	74.1332	13,929.2	71.2838	13,929.2	73.8002	13,929.2	63.7109	13,929.2	59.6986	13,929.2	56.6665	13,929.2	59.476	13,929.2	43.4625	13,929.2	58.509	13,929.2	53.5107	13,929.2	60.0385	13,929.2	55.5038	13,929.2	55.8745	13,929.2	60.4633	13,929.2	59.3592	13,929.2	60.7563	13,929.2	51.8404	13,929.2	55.8475	13,929.2	59.0115	13,929.2	47.646
14,419.9	88.4819	14,419.9	88.781	14,419.9	87.5239	14,419.9	87.7115	14,419.9	86.2377	14,419.9	87.9495	14,419.9	86.603	14,419.9	88.9862	14,419.9	86.8936	14,419.9	86.8158	14,419.9	85.4968	14,419.9	86.1282	14,419.9	84.2576	14,419.9	82.8342	14,419.9	80.4797	14,419.9	73.2539	14,419.9	75.5584	14,419.9	72.9052	14,419.9	72.4785	14,419.9	65.6756	14,419.9	63.8423	14,419.9	50.5357	14,419.9	55.7258	14,419.9	55.1012	14,419.9	62.1534	14,419.9	56.1951	14,419.9	63.4632	14,419.9	53.3336	14,419.9	56.5209	14,419.9	57.3753	14,419.9	61.7205	14,419.9	59.2995	14,419.9	61.2191	14,419.9	58.2701	14,419.9	56.2061	14,419.9	52.3864
14,928.2	90.3044	14,928.2	91.6182	14,928.2	90.2572	14,928.2	90.1555	14,928.2	88.6994	14,928.2	90.5696	14,928.2	88.1805	14,928.2	90.2332	14,928.2	89.1381	14,928.2	87.45	14,928.2	87.688	14,928.2	88.0334	14,928.2	85.9475	14,928.2	82.8985	14,928.2	82.4113	14,928.2	76.7847	14,928.2	74.9655	14,928.2	73.7806	14,928.2	72.576	14,928.2	67.262	14,928.2	67.4356	14,928.2	60.8532	14,928.2	58.2759	14,928.2	60.9069	14,928.2	63.6119	14,928.2	57.4954	14,928.2	66.7947	14,928.2	57.8975	14,928.2	62.7852	14,928.2	60.3688	14,928.2	55.4201	14,928.2	44.7654	14,928.2	53.4317	14,928.2	56.8749	14,928.2	55.232	14,928.2	47.4855
15,455.6	92.474	15,455.6	92.3077	15,455.6	91.8644	15,455.6	91.8093	15,455.6	90.5124	15,455.6	90.4806	15,455.6	89.6302	15,455.6	91.0936	15,455.6	89.0082	15,455.6	89.0692	15,455.6	87.4176	15,455.6	87.8152	15,455.6	85.4314	15,455.6	82.4516	15,455.6	81.0793	15,455.6	76.2618	15,455.6	76.0806	15,455.6	72.2327	15,455.6	73.0655	15,455.6	61.5264	15,455.6	64.3998	15,455.6	63.404	15,455.6	60.844	15,455.6	62.0991	15,455.6	65.3606	15,455.6	50.0224	15,455.6	64.2598	15,455.6	53.5664	15,455.6	54.3771	15,455.6	54.0975	15,455.6	56.3208	15,455.6	46.8387	15,455.6	55.9768	15,455.6	49.0735	15,455.6	47.9514	15,455.6	40.2936
16,000.5	91.046	16,000.5	91.6897	16,000.5	90.8839	16,000.5	90.423	16,000.5	89.2141	16,000.5	89.5186	16,000.5	88.2903	16,000.5	88.0184	16,000.5	86.8085	16,000.5	87.1061	16,000.5	85.6387	16,000.5	84.8263	16,000.5	83.4151	16,000.5	80.8767	16,000.5	80.1014	16,000.5	74.5507	16,000.5	72.5926	16,000.5	66.8923	16,000.5	66.9856	16,000.5	56.2779	16,000.5	53.8548	16,000.5	57.5946	16,000.5	52.4253	16,000.5	59.4518	16,000.5	61.6178	16,000.5	53.2957	16,000.5	61.9959	16,000.5	48.5514	16,000.5	53.5478	16,000.5	50.3856	16,000.5	60.4026	16,000.5	45.4278	16,000.5	37.9551	16,000.5	52.8624	16,000.5	52.4839	16,000.5	45.7304
16,564.5	89.1324	16,564.5	88.9862	16,564.5	88.9378	16,564.5	87.8011	16,564.5	87.2059	16,564.5	86.3205	16,564.5	85.4968	16,564.5	84.6414	16,564.5	83.0371	16,564.5	83.2742	16,564.5	80.7871	16,564.5	79.9062	16,564.5	79.2121	16,564.5	76.3069	16,564.5	75.6561	16,564.5	70.6121	16,564.5	69.8248	16,564.5	62.4923	16,564.5	62.0437	16,564.5	51.4783	16,564.5	54.1995	16,564.5	55.1233	16,564.5	47.1804	16,564.5	50.8916	16,564.5	55.9743	16,564.5	54.7832	16,564.5	53.0332	16,564.5	46.0299	16,564.5	37.4934	16,564.5	52.9383	16,564.5	51.475	16,564.5	47.6649	16,564.5	45.5739	16,564.5	51.9715	16,564.5	56.1097	16,564.5	48.9348
17,148.9	87.6703	17,148.9	87.0625	17,148.9	86.631	17,148.9	86.0996	17,148.9	85.2744	17,148.9	83.3281	17,148.9	82.0236	17,148.9	80.9476	17,148.9	79.5427	17,148.9	79.2021	17,148.9	77.974	17,148.9	76.3851	17,148.9	76.0004	17,148.9	73.6754	17,148.9	73.1747	17,148.9	68.6697	17,148.9	67.1079	17,148.9	57.1722	17,148.9	58.5896	17,148.9	31.1686	17,148.9	53.7226	17,148.9	56.1162	17,148.9	41.7123	17,148.9	41.7886	17,148.9	47.2432	17,148.9	37.1308	17,148.9	43.7333	17,148.9	43.8396	17,148.9	37.5105	17,148.9	49.4043	17,148.9	50.7917	17,148.9	44.7268	17,148.9	50.1288	17,148.9	42.9503	17,148.9	48.3622	17,148.9	51.5237
17,752.4	86.1029	17,752.4	85.6172	17,752.4	85.0341	17,752.4	84.2035	17,752.4	83.77	17,752.4	81.1621	17,752.4	80.066	17,752.4	76.8003	17,752.4	75.6552	17,752.4	74.5676	17,752.4	73.7089	17,752.4	73.2765	17,752.4	72.7149	17,752.4	70.3851	17,752.4	70.6258	17,752.4	65.5562	17,752.4	63.621	17,752.4	55.8725	17,752.4	53.8177	17,752.4	46.2742	17,752.4	52.7336	17,752.4	50.8425	17,752.4	37.8651	17,752.4	40.4362	17,752.4	38.8064	17,752.4	37.3122	17,752.4	46.7713	17,752.4	46.1367	17,752.4	34.326	17,752.4	29.9092	17,752.4	47.6005	17,752.4	39.4484	17,752.4	49.3253	17,752.4	40.0966	17,752.4	45.2259	17,752.4	42.2278
18,379.4	85.113	18,379.4	84.2195	18,379.4	84.2465	18,379.4	82.7349	18,379.4	81.997	18,379.4	79.7893	18,379.4	78.2261	18,379.4	75.3042	18,379.4	72.105	18,379.4	71.9406	18,379.4	71.6658	18,379.4	71.9802	18,379.4	71.2786	18,379.4	68.9621	18,379.4	69.4292	18,379.4	64.4709	18,379.4	59.4975	18,379.4	52.724	18,379.4	54.2585	18,379.4	47.4018	18,379.4	52.0256	18,379.4	52.6311	18,379.4	39.6494	18,379.4	37.5514	18,379.4	12.8244	18,379.4	40.2872	18,379.4	40.6103	18,379.4	39.7932	18,379.4	39.0228	18,379.4	38.3214	18,379.4	46.4677	18,379.4	28.2234	18,379.4	42.9703	18,379.4	41.8417	18,379.4	34.2423	18,379.4	37.6582
19,026.9	83.8692	19,026.9	83.5273	19,026.9	83.1131	19,026.9	82.407	19,026.9	80.8658	19,026.9	79.6174	19,026.9	76.5826	19,026.9	73.6563	19,026.9	67.2889	19,026.9	69.3411	19,026.9	69.5663	19,026.9	72.0453	19,026.9	71.3188	19,026.9	71.4623	19,026.9	70.1066	19,026.9	66.8812	19,026.9	64.6439	19,026.9	59.4397	19,026.9	56.6048	19,026.9	51.9067	19,026.9	52.0328	19,026.9	53.593	19,026.9	34.9547	19,026.9	39.2482	19,026.9	35.5351	19,026.9	51.0837	19,026.9	37.825	19,026.9	34.0547	19,026.9	33.0815	19,026.9	32.0533	19,026.9	40.1716	19,026.9	24.146	19,026.9	46.3792	19,026.9	46.3202	19,026.9	41.7015	19,026.9	44.3572
19,697.8	81.6763	19,697.8	82.4185	19,697.8	81.6369	19,697.8	81.5703	19,697.8	79.7792	19,697.8	80.0069	19,697.8	76.2204	19,697.8	73.4877	19,697.8	64.2961	19,697.8	69.3177	19,697.8	65.8025	19,697.8	73.8737	19,697.8	71.076	19,697.8	74.2934	19,697.8	72.2252	19,697.8	69.5943	19,697.8	65.3088	19,697.8	58.545	19,697.8	56.754	19,697.8	51.9576	19,697.8	54.819	19,697.8	51.8218	19,697.8	44.2794	19,697.8	46.4983	19,697.8	48.8488	19,697.8	51.6122	19,697.8	48.4992	19,697.8	42.7613	19,697.8	42.5173	19,697.8	39.4065	19,697.8	38.5535	19,697.8	33.4778	19,697.8	42.7954	19,697.8	38.3384	19,697.8	43.7745	19,697.8	40.9635
19,999.5	81.1818	19,999.5	82.0306	19,999.5	81.0147	19,999.5	81.8598	19,999.5	79.8733	19,999.5	79.094	19,999.5	75.596	19,999.5	70.2611	19,999.5	67.3948	19,999.5	69.285	19,999.5	65.9629	19,999.5	74.6457	19,999.5	70.8512	19,999.5	74.6979	19,999.5	73.3581	19,999.5	70.8356	19,999.5	65.7378	19,999.5	60.5393	19,999.5	59.1533	19,999.5	52.3057	19,999.5	54.8148	19,999.5	52.8877	19,999.5	37.0929	19,999.5	51.2476	19,999.5	55.5786	19,999.5	49.8239	19,999.5	52.867	19,999.5	42.1451	19,999.5	45.8723	19,999.5	47.3683	19,999.5	35.6044	19,999.5	46.2103	19,999.5	46.7546	19,999.5	20.5117	19,999.5	39.661	19,999.5	38.5065
