"SPL Vertical"
"On-Axis"		"10°"		"-10°"		"20°"		"-20°"		"30°"		"-30°"		"40°"		"-40°"		"50°"		"-50°"		"60°"		"-60°"		"70°"		"-70°"		"80°"		"-80°"		"90°"		"-90°"		"100°"		"-100°"		"110°"		"-110°"		"120°"		"-120°"		"130°"		"-130°"		"140°"		"-140°"		"150°"		"-150°"		"160°"		"-160°"		"170°"		"-170°"		"180°"
"Frequency [Hz]"	"Sound Pessure Level [dB]  / [2.83V 1m] "	"Frequency [Hz]"	"Sound Pessure Level [dB]  / [2.83V 1m] "	"Frequency [Hz]"	"Sound Pessure Level [dB]  / [2.83V 1m] "	"Frequency [Hz]"	"Sound Pessure Level [dB]  / [2.83V 1m] "	"Frequency [Hz]"	"Sound Pessure Level [dB]  / [2.83V 1m] "	"Frequency [Hz]"	"Sound Pessure Level [dB]  / [2.83V 1m] "	"Frequency [Hz]"	"Sound Pessure Level [dB]  / [2.83V 1m] "	"Frequency [Hz]"	"Sound Pessure Level [dB]  / [2.83V 1m] "	"Frequency [Hz]"	"Sound Pessure Level [dB]  / [2.83V 1m] "	"Frequency [Hz]"	"Sound Pessure Level [dB]  / [2.83V 1m] "	"Frequency [Hz]"	"Sound Pessure Level [dB]  / [2.83V 1m] "	"Frequency [Hz]"	"Sound Pessure Level [dB]  / [2.83V 1m] "	"Frequency [Hz]"	"Sound Pessure Level [dB]  / [2.83V 1m] "	"Frequency [Hz]"	"Sound Pessure Level [dB]  / [2.83V 1m] "	"Frequency [Hz]"	"Sound Pessure Level [dB]  / [2.83V 1m] "	"Frequency [Hz]"	"Sound Pessure Level [dB]  / [2.83V 1m] "	"Frequency [Hz]"	"Sound Pessure Level [dB]  / [2.83V 1m] "	"Frequency [Hz]"	"Sound Pessure Level [dB]  / [2.83V 1m] "	"Frequency [Hz]"	"Sound Pessure Level [dB]  / [2.83V 1m] "	"Frequency [Hz]"	"Sound Pessure Level [dB]  / [2.83V 1m] "	"Frequency [Hz]"	"Sound Pessure Level [dB]  / [2.83V 1m] "	"Frequency [Hz]"	"Sound Pessure Level [dB]  / [2.83V 1m] "	"Frequency [Hz]"	"Sound Pessure Level [dB]  / [2.83V 1m] "	"Frequency [Hz]"	"Sound Pessure Level [dB]  / [2.83V 1m] "	"Frequency [Hz]"	"Sound Pessure Level [dB]  / [2.83V 1m] "	"Frequency [Hz]"	"Sound Pessure Level [dB]  / [2.83V 1m] "	"Frequency [Hz]"	"Sound Pessure Level [dB]  / [2.83V 1m] "	"Frequency [Hz]"	"Sound Pessure Level [dB]  / [2.83V 1m] "	"Frequency [Hz]"	"Sound Pessure Level [dB]  / [2.83V 1m] "	"Frequency [Hz]"	"Sound Pessure Level [dB]  / [2.83V 1m] "	"Frequency [Hz]"	"Sound Pessure Level [dB]  / [2.83V 1m] "	"Frequency [Hz]"	"Sound Pessure Level [dB]  / [2.83V 1m] "	"Frequency [Hz]"	"Sound Pessure Level [dB]  / [2.83V 1m] "	"Frequency [Hz]"	"Sound Pessure Level [dB]  / [2.83V 1m] "	"Frequency [Hz]"	"Sound Pessure Level [dB]  / [2.83V 1m] "	"Frequency [Hz]"	"Sound Pessure Level [dB]  / [2.83V 1m] "
20.5078	43.6186	20.5078	43.3569	20.5078	43.8699	20.5078	43.1077	20.5078	44.0905	20.5078	42.8893	20.5078	44.2658	20.5078	42.708	20.5078	44.386	20.5078	42.5547	20.5078	44.4431	20.5078	42.4072	20.5078	44.4274	20.5078	42.236	20.5078	44.3271	20.5078	42.0099	20.5078	44.1281	20.5078	41.7011	20.5078	43.8159	20.5078	41.287	20.5078	43.3771	20.5078	40.7529	20.5078	42.8004	20.5078	40.0951	20.5078	42.0796	20.5078	39.3271	20.5078	41.217	20.5078	38.4904	20.5078	40.2318	20.5078	37.6679	20.5078	39.1725	20.5078	36.9929	20.5078	38.132	20.5078	36.6317	20.5078	37.2558	20.5078	36.7157
21.9727	45.86	21.9727	45.5877	21.9727	46.105	21.9727	45.3071	21.9727	46.3055	21.9727	45.034	21.9727	46.4501	21.9727	44.7772	21.9727	46.5343	21.9727	44.5374	21.9727	46.5589	21.9727	44.3092	21.9727	46.5277	21.9727	44.0837	21.9727	46.4441	21.9727	43.8516	21.9727	46.3106	21.9727	43.6056	21.9727	46.1276	21.9727	43.3431	21.9727	45.8952	21.9727	43.0678	21.9727	45.6126	21.9727	42.7921	21.9727	45.2802	21.9727	42.5385	21.9727	44.8994	21.9727	42.3392	21.9727	44.4753	21.9727	42.232	21.9727	44.0184	21.9727	42.25	21.9727	43.5484	21.9727	42.4098	21.9727	43.0962	21.9727	42.7024
23.4375	44.8792	23.4375	44.6706	23.4375	45.0932	23.4375	44.4794	23.4375	45.298	23.4375	44.312	23.4375	45.4779	23.4375	44.1689	23.4375	45.6192	23.4375	44.0444	23.4375	45.7102	23.4375	43.928	23.4375	45.742	23.4375	43.8058	23.4375	45.708	23.4375	43.6637	23.4375	45.604	23.4375	43.4893	23.4375	45.4278	23.4375	43.2746	23.4375	45.1805	23.4375	43.0192	23.4375	44.8657	23.4375	42.7324	23.4375	44.4913	23.4375	42.4357	23.4375	44.0696	23.4375	42.1624	23.4375	43.6178	23.4375	41.9541	23.4375	43.159	23.4375	41.8513	23.4375	42.7219	23.4375	41.8814	23.4375	42.3403	23.4375	42.0499
24.9023	52.5498	24.9023	52.4467	24.9023	52.6456	24.9023	52.3419	24.9023	52.7287	24.9023	52.2392	24.9023	52.794	24.9023	52.1407	24.9023	52.8372	24.9023	52.0453	24.9023	52.8548	24.9023	51.9502	24.9023	52.8439	24.9023	51.8508	24.9023	52.802	24.9023	51.743	24.9023	52.7277	24.9023	51.6237	24.9023	52.6201	24.9023	51.4924	24.9023	52.4801	24.9023	51.3512	24.9023	52.3098	24.9023	51.2061	24.9023	52.1131	24.9023	51.0665	24.9023	51.8964	24.9023	50.9454	24.9023	51.6686	24.9023	50.8575	24.9023	51.4415	24.9023	50.8171	24.9023	51.2294	24.9023	50.8343	24.9023	51.0481	24.9023	50.9128
26.3672	52.263	26.3672	52.0465	26.3672	52.4489	26.3672	51.8156	26.3672	52.5924	26.3672	51.5867	26.3672	52.687	26.3672	51.3733	26.3672	52.7318	26.3672	51.1836	26.3672	52.7302	26.3672	51.0201	26.3672	52.6874	26.3672	50.8809	26.3672	52.609	26.3672	50.7616	26.3672	52.4993	26.3672	50.6578	26.3672	52.3618	26.3672	50.566	26.3672	52.199	26.3672	50.4847	26.3672	52.0133	26.3672	50.4149	26.3672	51.8075	26.3672	50.3605	26.3672	51.5862	26.3672	50.3273	26.3672	51.356	26.3672	50.3231	26.3672	51.1258	26.3672	50.3556	26.3672	50.907	26.3672	50.4306	26.3672	50.7116	26.3672	50.5502
27.832	51.5763	27.832	51.4925	27.832	51.6956	27.832	51.4438	27.832	51.8452	27.832	51.4258	27.832	52.0149	27.832	51.4319	27.832	52.1909	27.832	51.4551	27.832	52.3593	27.832	51.4891	27.832	52.5076	27.832	51.5288	27.832	52.6272	27.832	51.57	27.832	52.7134	27.832	51.6102	27.832	52.7647	27.832	51.6485	27.832	52.7826	27.832	51.6858	27.832	52.7703	27.832	51.7246	27.832	52.7318	27.832	51.769	27.832	52.6713	27.832	51.8231	27.832	52.5928	27.832	51.8905	27.832	52.4998	27.832	51.9729	27.832	52.3962	27.832	52.069	27.832	52.2863	27.832	52.1753
29.2969	55.8955	29.2969	55.8172	29.2969	55.9692	29.2969	55.7391	29.2969	56.0335	29.2969	55.6653	29.2969	56.0846	29.2969	55.5984	29.2969	56.1197	29.2969	55.5399	29.2969	56.1376	29.2969	55.49	29.2969	56.138	29.2969	55.4483	29.2969	56.1219	29.2969	55.414	29.2969	56.0911	29.2969	55.3864	29.2969	56.0476	29.2969	55.3654	29.2969	55.9942	29.2969	55.3512	29.2969	55.9336	29.2969	55.3445	29.2969	55.8685	29.2969	55.3461	29.2969	55.8015	29.2969	55.357	29.2969	55.7345	29.2969	55.3778	29.2969	55.6691	29.2969	55.4082	29.2969	55.6066	29.2969	55.4476	29.2969	55.5481	29.2969	55.4946
30.7617	53.9039	30.7617	53.8524	30.7617	53.9498	30.7617	53.7958	30.7617	53.9894	30.7617	53.7343	30.7617	54.0215	30.7617	53.6684	30.7617	54.0447	30.7617	53.5985	30.7617	54.0568	30.7617	53.5256	30.7617	54.0561	30.7617	53.4512	30.7617	54.041	30.7617	53.377	30.7617	54.0107	30.7617	53.3054	30.7617	53.9655	30.7617	53.2391	30.7617	53.9065	30.7617	53.1813	30.7617	53.8357	30.7617	53.1353	30.7617	53.7558	30.7617	53.1044	30.7617	53.6693	30.7617	53.0914	30.7617	53.5788	30.7617	53.0984	30.7617	53.4872	30.7617	53.1258	30.7617	53.3971	30.7617	53.1725	30.7617	53.3121	30.7617	53.2359
32.2266	55.8063	32.2266	55.7279	32.2266	55.8816	32.2266	55.6486	32.2266	55.9509	32.2266	55.5697	32.2266	56.0109	32.2266	55.4923	32.2266	56.0575	32.2266	55.417	32.2266	56.0871	32.2266	55.3442	32.2266	56.0965	32.2266	55.2744	32.2266	56.0838	32.2266	55.2081	32.2266	56.0483	32.2266	55.146	32.2266	55.9907	32.2266	55.089	32.2266	55.9131	32.2266	55.0387	32.2266	55.8187	32.2266	54.9973	32.2266	55.7116	32.2266	54.9672	32.2266	55.5966	32.2266	54.9515	32.2266	55.4788	32.2266	54.9529	32.2266	55.3632	32.2266	54.9738	32.2266	55.2549	32.2266	55.0154	32.2266	55.1583	32.2266	55.0775
33.6914	56.563	33.6914	56.4749	33.6914	56.6489	33.6914	56.3877	33.6914	56.7295	33.6914	56.3035	33.6914	56.8011	33.6914	56.2244	33.6914	56.8603	33.6914	56.1518	33.6914	56.9038	33.6914	56.0871	33.6914	56.9295	33.6914	56.0311	33.6914	56.9358	33.6914	55.9849	33.6914	56.9225	33.6914	55.9493	33.6914	56.8905	33.6914	55.9253	33.6914	56.8416	33.6914	55.9136	33.6914	56.7784	33.6914	55.9148	33.6914	56.7038	33.6914	55.9293	33.6914	56.621	33.6914	55.9569	33.6914	56.5332	33.6914	55.9975	33.6914	56.4432	33.6914	56.0502	33.6914	56.3538	33.6914	56.1138	33.6914	56.2676	33.6914	56.1869
35.1562	57.8183	35.1562	57.7617	35.1562	57.866	35.1562	57.6973	35.1562	57.9042	35.1562	57.6271	35.1562	57.9325	35.1562	57.5535	35.1562	57.9504	35.1562	57.4795	35.1562	57.9576	35.1562	57.4081	35.1562	57.9536	35.1562	57.342	35.1562	57.9379	35.1562	57.2838	35.1562	57.911	35.1562	57.2356	35.1562	57.8735	35.1562	57.199	35.1562	57.8269	35.1562	57.1752	35.1562	57.773	35.1562	57.1647	35.1562	57.714	35.1562	57.1677	35.1562	57.652	35.1562	57.1835	35.1562	57.5885	35.1562	57.211	35.1562	57.5251	35.1562	57.2485	35.1562	57.4629	35.1562	57.2942	35.1562	57.4029	35.1562	57.3462
36.6211	57.9656	36.6211	57.8856	36.6211	58.0395	36.6211	57.8013	36.6211	58.1053	36.6211	57.7149	36.6211	58.161	36.6211	57.6285	36.6211	58.2047	36.6211	57.5448	36.6211	58.2343	36.6211	57.4665	36.6211	58.2484	36.6211	57.3961	36.6211	58.2461	36.6211	57.336	36.6211	58.2274	36.6211	57.2884	36.6211	58.1931	36.6211	57.2549	36.6211	58.1448	36.6211	57.237	36.6211	58.0846	36.6211	57.2352	36.6211	58.015	36.6211	57.2497	36.6211	57.9383	36.6211	57.2799	36.6211	57.8569	36.6211	57.3245	36.6211	57.7729	36.6211	57.3817	36.6211	57.6882	36.6211	57.4491	36.6211	57.6047	36.6211	57.5242
38.0859	58.7906	38.0859	58.6959	38.0859	58.8845	38.0859	58.6039	38.0859	58.974	38.0859	58.5175	38.0859	59.0556	38.0859	58.4392	38.0859	59.1258	38.0859	58.3714	38.0859	59.1819	38.0859	58.3157	38.0859	59.222	38.0859	58.2733	38.0859	59.2449	38.0859	58.2455	38.0859	59.2507	38.0859	58.2327	38.0859	59.24	38.0859	58.2354	38.0859	59.2144	38.0859	58.2535	38.0859	59.1757	38.0859	58.2865	38.0859	59.1259	38.0859	58.333	38.0859	59.0669	38.0859	58.3913	38.0859	59.0006	38.0859	58.4589	38.0859	58.9286	38.0859	58.5333	38.0859	58.8524	38.0859	58.6119	38.0859	58.7732	38.0859	58.6925
39.5508	59.7956	39.5508	59.7186	39.5508	59.8626	39.5508	59.6345	39.5508	59.9175	39.5508	59.5463	39.5508	59.9587	39.5508	59.4575	39.5508	59.9852	39.5508	59.3714	39.5508	59.9968	39.5508	59.2914	39.5508	59.9937	39.5508	59.2206	39.5508	59.9766	39.5508	59.1616	39.5508	59.9469	39.5508	59.1165	39.5508	59.9064	39.5508	59.087	39.5508	59.8571	39.5508	59.0742	39.5508	59.8012	39.5508	59.0782	39.5508	59.7408	39.5508	59.0984	39.5508	59.678	39.5508	59.1329	39.5508	59.6139	39.5508	59.1791	39.5508	59.5495	39.5508	59.2338	39.5508	59.4851	39.5508	59.2939	39.5508	59.4208	39.5508	59.3568
41.0156	60.5819	41.0156	60.5059	41.0156	60.6482	41.0156	60.4221	41.0156	60.7027	41.0156	60.3327	41.0156	60.744	41.0156	60.2403	41.0156	60.7704	41.0156	60.1474	41.0156	60.7808	41.0156	60.057	41.0156	60.7744	41.0156	59.972	41.0156	60.751	41.0156	59.8952	41.0156	60.7112	41.0156	59.8292	41.0156	60.6563	41.0156	59.7764	41.0156	60.5882	41.0156	59.7383	41.0156	60.5095	41.0156	59.7162	41.0156	60.4231	41.0156	59.7106	41.0156	60.3321	41.0156	59.7213	41.0156	60.2397	41.0156	59.7474	41.0156	60.1485	41.0156	59.7879	41.0156	60.061	41.0156	59.8412	41.0156	59.9794	41.0156	59.9056
42.4805	60.9494	42.4805	60.8864	42.4805	61.0069	42.4805	60.8195	42.4805	61.0573	42.4805	60.7504	42.4805	61.0989	42.4805	60.6806	42.4805	61.13	42.4805	60.6119	42.4805	61.1492	42.4805	60.5463	42.4805	61.1555	42.4805	60.4858	42.4805	61.1484	42.4805	60.4327	42.4805	61.128	42.4805	60.389	42.4805	61.095	42.4805	60.3565	42.4805	61.0508	42.4805	60.3367	42.4805	60.9973	42.4805	60.3304	42.4805	60.9365	42.4805	60.3376	42.4805	60.8708	42.4805	60.3577	42.4805	60.8024	42.4805	60.3896	42.4805	60.7332	42.4805	60.4314	42.4805	60.6651	42.4805	60.4814	42.4805	60.5996	42.4805	60.538
43.9453	61.5904	43.9453	61.5172	43.9453	61.6572	43.9453	61.4395	43.9453	61.7156	43.9453	61.3593	43.9453	61.7639	43.9453	61.2788	43.9453	61.8	43.9453	61.2003	43.9453	61.8225	43.9453	61.1261	43.9453	61.8302	43.9453	61.0587	43.9453	61.8224	43.9453	61.0001	43.9453	61.7991	43.9453	60.9522	43.9453	61.761	43.9453	60.9163	43.9453	61.7092	43.9453	60.8934	43.9453	61.6454	43.9453	60.8838	43.9453	61.5718	43.9453	60.8875	43.9453	61.491	43.9453	60.9042	43.9453	61.4061	43.9453	60.9331	43.9453	61.3201	43.9453	60.9736	43.9453	61.2364	43.9453	61.0252	43.9453	61.1579	43.9453	61.0869
45.4102	62.4517	45.4102	62.3746	45.4102	62.5209	45.4102	62.2926	45.4102	62.579	45.4102	62.2091	45.4102	62.6238	45.4102	62.1267	45.4102	62.6535	45.4102	62.0481	45.4102	62.6675	45.4102	61.9754	45.4102	62.6656	45.4102	61.9105	45.4102	62.6485	45.4102	61.8551	45.4102	62.6175	45.4102	61.8104	45.4102	62.5742	45.4102	61.7775	45.4102	62.5206	45.4102	61.7572	45.4102	62.4586	45.4102	61.7499	45.4102	62.3903	45.4102	61.7555	45.4102	62.3178	45.4102	61.7738	45.4102	62.2428	45.4102	61.8039	45.4102	62.1672	45.4102	61.8451	45.4102	62.0929	45.4102	61.896	45.4102	62.0217	45.4102	61.9555
46.875	62.704	46.875	62.6162	46.875	62.7884	46.875	62.5286	46.875	62.8657	46.875	62.4444	46.875	62.9326	46.875	62.3665	46.875	62.9861	46.875	62.2973	46.875	63.0242	46.875	62.2392	46.875	63.0457	46.875	62.1936	46.875	63.0505	46.875	62.162	46.875	63.0394	46.875	62.1452	46.875	63.0143	46.875	62.1433	46.875	62.9773	46.875	62.1559	46.875	62.931	46.875	62.182	46.875	62.8779	46.875	62.2198	46.875	62.8202	46.875	62.2673	46.875	62.7598	46.875	62.3219	46.875	62.6977	46.875	62.3814	46.875	62.6346	46.875	62.4436	46.875	62.571	46.875	62.5072
48.3398	63.5688	48.3398	63.495	48.3398	63.634	48.3398	63.4153	48.3398	63.688	48.3398	63.3324	48.3398	63.7286	48.3398	63.249	48.3398	63.7539	48.3398	63.1679	48.3398	63.7628	48.3398	63.0914	48.3398	63.7547	48.3398	63.0223	48.3398	63.7301	48.3398	62.9625	48.3398	63.6899	48.3398	62.9138	48.3398	63.636	48.3398	62.8774	48.3398	63.5707	48.3398	62.8538	48.3398	63.497	48.3398	62.843	48.3398	63.418	48.3398	62.8441	48.3398	63.3371	48.3398	62.8563	48.3398	63.2575	48.3398	62.8783	48.3398	63.1819	48.3398	62.9091	48.3398	63.1123	48.3398	62.9482	48.3398	63.0498	48.3398	62.9951
51.2695	64.4251	51.2695	64.3578	51.2695	64.4838	51.2695	64.2841	51.2695	64.5323	51.2695	64.2066	51.2695	64.5692	51.2695	64.1278	51.2695	64.5933	51.2695	64.0505	51.2695	64.6044	51.2695	63.9775	51.2695	64.6022	51.2695	63.9117	51.2695	64.5873	51.2695	63.8555	51.2695	64.5606	51.2695	63.8109	51.2695	64.5232	51.2695	63.7794	51.2695	64.4768	51.2695	63.7621	51.2695	64.4232	51.2695	63.7589	51.2695	64.3641	51.2695	63.7696	51.2695	64.3013	51.2695	63.793	51.2695	64.2362	51.2695	63.8275	51.2695	64.1704	51.2695	63.8714	51.2695	64.1049	51.2695	63.9227	51.2695	64.0409	51.2695	63.9797
52.7344	64.9534	52.7344	64.8859	52.7344	65.012	52.7344	64.8117	52.7344	65.0598	52.7344	64.7336	52.7344	65.0953	52.7344	64.6544	52.7344	65.1171	52.7344	64.5772	52.7344	65.1248	52.7344	64.5049	52.7344	65.1181	52.7344	64.4402	52.7344	65.0976	52.7344	64.3856	52.7344	65.0644	52.7344	64.3427	52.7344	65.02	52.7344	64.3126	52.7344	64.9664	52.7344	64.2957	52.7344	64.906	52.7344	64.2917	52.7344	64.8412	52.7344	64.2997	52.7344	64.7743	52.7344	64.3185	52.7344	64.7075	52.7344	64.3463	52.7344	64.6427	52.7344	64.3818	52.7344	64.5811	52.7344	64.4237	52.7344	64.5238	52.7344	64.4712
54.1992	65.3449	54.1992	65.2713	54.1992	65.4106	54.1992	65.1928	54.1992	65.4659	54.1992	65.1124	54.1992	65.5085	54.1992	65.0332	54.1992	65.5369	54.1992	64.9579	54.1992	65.5503	54.1992	64.8893	54.1992	65.5483	54.1992	64.8295	54.1992	65.5316	54.1992	64.7805	54.1992	65.5013	54.1992	64.7434	54.1992	65.4589	54.1992	64.719	54.1992	65.4066	54.1992	64.7074	54.1992	65.3467	54.1992	64.7078	54.1992	65.2815	54.1992	64.7195	54.1992	65.2137	54.1992	64.7411	54.1992	65.1455	54.1992	64.7713	54.1992	65.0788	54.1992	64.8087	54.1992	65.0154	54.1992	64.8523	54.1992	64.9561	54.1992	64.9016
55.6641	65.7045	55.6641	65.6259	55.6641	65.7748	55.6641	65.5421	55.6641	65.8339	55.6641	65.4564	55.6641	65.8799	55.6641	65.3718	55.6641	65.9111	55.6641	65.2914	55.6641	65.9268	55.6641	65.2179	55.6641	65.9269	55.6641	65.1534	55.6641	65.9119	55.6641	65.0999	55.6641	65.8827	55.6641	65.0587	55.6641	65.8409	55.6641	65.0307	55.6641	65.7882	55.6641	65.0161	55.6641	65.7267	55.6641	65.0146	55.6641	65.6587	55.6641	65.0255	55.6641	65.5862	55.6641	65.0479	55.6641	65.5116	55.6641	65.0807	55.6641	65.4369	55.6641	65.1228	55.6641	65.3642	55.6641	65.1732	55.6641	65.295	55.6641	65.2309
58.5938	66.965	58.5938	66.8991	58.5938	67.0226	58.5938	66.8273	58.5938	67.0699	58.5938	66.7521	58.5938	67.1048	58.5938	66.6758	58.5938	67.1259	58.5938	66.6007	58.5938	67.1324	58.5938	66.529	58.5938	67.124	58.5938	66.463	58.5938	67.1013	58.5938	66.4045	58.5938	67.0653	58.5938	66.3551	58.5938	67.0174	58.5938	66.316	58.5938	66.9596	58.5938	66.2881	58.5938	66.894	58.5938	66.2718	58.5938	66.8226	58.5938	66.267	58.5938	66.748	58.5938	66.2737	58.5938	66.6724	58.5938	66.2915	58.5938	66.5983	58.5938	66.3199	58.5938	66.528	58.5938	66.3585	58.5938	66.4635	58.5938	66.4066
60.0586	67.278	60.0586	67.2114	60.0586	67.3369	60.0586	67.1397	60.0586	67.3859	60.0586	67.0654	60.0586	67.4232	60.0586	66.9913	60.0586	67.4475	60.0586	66.9199	60.0586	67.4584	60.0586	66.8538	60.0586	67.4559	60.0586	66.7952	60.0586	67.4409	60.0586	66.746	60.0586	67.4147	60.0586	66.708	60.0586	67.3789	60.0586	66.682	60.0586	67.3354	60.0586	66.6687	60.0586	67.2858	60.0586	66.6681	60.0586	67.2317	60.0586	66.6796	60.0586	67.1746	60.0586	66.7024	60.0586	67.1155	60.0586	66.7352	60.0586	67.0553	60.0586	66.7766	60.0586	66.995	60.0586	66.8249	60.0586	66.9356	60.0586	66.8784
62.9883	68.0064	62.9883	67.9393	62.9883	68.0669	62.9883	67.8678	62.9883	68.1187	62.9883	67.7944	62.9883	68.1602	62.9883	67.7218	62.9883	68.1899	62.9883	67.6525	62.9883	68.2071	62.9883	67.589	62.9883	68.2116	62.9883	67.5335	62.9883	68.2038	62.9883	67.488	62.9883	68.1845	62.9883	67.4541	62.9883	68.1552	62.9883	67.4329	62.9883	68.1175	62.9883	67.4249	62.9883	68.0731	62.9883	67.4303	62.9883	68.0238	62.9883	67.4485	62.9883	67.9707	62.9883	67.4784	62.9883	67.9149	62.9883	67.5184	62.9883	67.857	62.9883	67.5665	62.9883	67.7978	62.9883	67.6205	62.9883	67.7379	62.9883	67.6783
64.4531	68.3892	64.4531	68.3184	64.4531	68.4532	64.4531	68.2436	64.4531	68.508	64.4531	68.1672	64.4531	68.5516	64.4531	68.092	64.4531	68.5821	64.4531	68.0203	64.4531	68.5986	64.4531	67.9545	64.4531	68.6007	64.4531	67.8968	64.4531	68.5888	64.4531	67.8491	64.4531	68.564	64.4531	67.813	64.4531	68.5281	64.4531	67.7895	64.4531	68.4832	64.4531	67.7794	64.4531	68.4315	64.4531	67.7825	64.4531	68.3753	64.4531	67.7985	64.4531	68.3164	64.4531	67.8262	64.4531	68.2562	64.4531	67.864	64.4531	68.1957	64.4531	67.9099	64.4531	68.1354	64.4531	67.9618	64.4531	68.0759	64.4531	68.0176
67.3828	69.2917	67.3828	69.22	67.3828	69.3516	67.3828	69.1391	67.3828	69.3975	67.3828	69.0518	67.3828	69.428	67.3828	68.9613	67.3828	69.442	67.3828	68.8706	67.3828	69.4394	67.3828	68.7829	67.3828	69.4205	67.3828	68.7009	67.3828	69.3862	67.3828	68.6272	67.3828	69.3383	67.3828	68.564	67.3828	69.2785	67.3828	68.5131	67.3828	69.2094	67.3828	68.4757	67.3828	69.1334	67.3828	68.4529	67.3828	69.053	67.3828	68.4447	67.3828	68.9708	67.3828	68.451	67.3828	68.889	67.3828	68.4711	67.3828	68.8096	67.3828	68.504	67.3828	68.7343	67.3828	68.5481	67.3828	68.6647	67.3828	68.6022
68.8477	69.6363	68.8477	69.5689	68.8477	69.6912	68.8477	69.4913	68.8477	69.7319	68.8477	69.4064	68.8477	69.757	68.8477	69.3173	68.8477	69.7662	68.8477	69.2272	68.8477	69.7595	68.8477	69.1392	68.8477	69.7376	68.8477	69.0564	68.8477	69.7017	68.8477	68.9814	68.8477	69.6536	68.8477	68.9164	68.8477	69.5952	68.8477	68.8635	68.8477	69.5287	68.8477	68.8241	68.8477	69.4563	68.8477	68.7991	68.8477	69.3802	68.8477	68.789	68.8477	69.3023	68.8477	68.7938	68.8477	69.2242	68.8477	68.8128	68.8477	69.1477	68.8477	68.8451	68.8477	69.0743	68.8477	68.8892	68.8477	69.0056	68.8477	68.9433
71.7773	70.3791	71.7773	70.3141	71.7773	70.4338	71.7773	70.2413	71.7773	70.476	71.7773	70.1634	71.7773	70.504	71.7773	70.0834	71.7773	70.5167	71.7773	70.0041	71.7773	70.5139	71.7773	69.928	71.7773	70.4959	71.7773	69.8576	71.7773	70.4637	71.7773	69.7949	71.7773	70.4189	71.7773	69.7415	71.7773	70.3638	71.7773	69.6987	71.7773	70.3006	71.7773	69.6674	71.7773	70.2317	71.7773	69.6481	71.7773	70.1596	71.7773	69.641	71.7773	70.0866	71.7773	69.6458	71.7773	70.0148	71.7773	69.6621	71.7773	69.9458	71.7773	69.6888	71.7773	69.8813	71.7773	69.7251	71.7773	69.8223	71.7773	69.77
74.707	70.9745	74.707	70.91	74.707	71.0304	74.707	70.8394	74.707	71.0757	74.707	70.7652	74.707	71.1088	74.707	70.6905	74.707	71.1287	74.707	70.618	74.707	71.1349	74.707	70.5503	74.707	71.1277	74.707	70.4897	74.707	71.1077	74.707	70.438	74.707	71.0762	74.707	70.3965	74.707	71.0347	74.707	70.3657	74.707	70.9846	74.707	70.3461	74.707	70.9278	74.707	70.3375	74.707	70.866	74.707	70.3395	74.707	70.801	74.707	70.3519	74.707	70.7346	74.707	70.374	74.707	70.6688	74.707	70.4052	74.707	70.6054	74.707	70.4449	74.707	70.546	74.707	70.4921
77.6367	71.6502	77.6367	71.58	77.6367	71.7116	77.6367	71.5041	77.6367	71.7617	77.6367	71.4256	77.6367	71.7987	77.6367	71.3476	77.6367	71.8214	77.6367	71.2734	77.6367	71.8294	77.6367	71.2056	77.6367	71.8232	77.6367	71.1465	77.6367	71.8039	77.6367	71.098	77.6367	71.7731	77.6367	71.0612	77.6367	71.7328	77.6367	71.0369	77.6367	71.685	77.6367	71.0253	77.6367	71.6318	77.6367	71.0258	77.6367	71.575	77.6367	71.038	77.6367	71.5161	77.6367	71.0605	77.6367	71.4564	77.6367	71.0923	77.6367	71.3969	77.6367	71.1317	77.6367	71.3384	77.6367	71.1773	77.6367	71.2818	77.6367	71.2277
79.1016	72.0332	79.1016	71.9657	79.1016	72.0906	79.1016	71.8907	79.1016	72.1357	79.1016	71.8112	79.1016	72.1669	79.1016	71.7302	79.1016	72.1832	79.1016	71.6507	79.1016	72.1842	79.1016	71.5755	79.1016	72.1704	79.1016	71.5073	79.1016	72.1428	79.1016	71.448	79.1016	72.1028	79.1016	71.3995	79.1016	72.0527	79.1016	71.3629	79.1016	71.9948	79.1016	71.3391	79.1016	71.9316	79.1016	71.328	79.1016	71.8654	79.1016	71.3297	79.1016	71.7984	79.1016	71.3434	79.1016	71.7321	79.1016	71.368	79.1016	71.6676	79.1016	71.4022	79.1016	71.6059	79.1016	71.4446	79.1016	71.5476	79.1016	71.4934
82.0312	72.7854	82.0312	72.7098	82.0312	72.848	82.0312	72.6238	82.0312	72.8951	82.0312	72.5307	82.0312	72.925	82.0312	72.4339	82.0312	72.9367	82.0312	72.3366	82.0312	72.9295	82.0312	72.242	82.0312	72.9037	82.0312	72.1532	82.0312	72.86	82.0312	72.0726	82.0312	72.8002	82.0312	72.0025	82.0312	72.7267	82.0312	71.9445	82.0312	72.6425	82.0312	71.9002	82.0312	72.5512	82.0312	71.8702	82.0312	72.4566	82.0312	71.855	82.0312	72.3622	82.0312	71.8544	82.0312	72.2714	82.0312	71.8678	82.0312	72.1865	82.0312	71.8942	82.0312	72.1093	82.0312	71.9325	82.0312	72.0407	82.0312	71.9816
84.9609	73.2859	84.9609	73.205	84.9609	73.3581	84.9609	73.1182	84.9609	73.4189	84.9609	73.0284	84.9609	73.4659	84.9609	72.9384	84.9609	73.4966	84.9609	72.8509	84.9609	73.5094	84.9609	72.7683	84.9609	73.5033	84.9609	72.6928	84.9609	73.4782	84.9609	72.6261	84.9609	73.4347	84.9609	72.5694	84.9609	73.3743	84.9609	72.524	84.9609	73.2993	84.9609	72.4903	84.9609	73.2123	84.9609	72.4689	84.9609	73.1168	84.9609	72.4597	84.9609	73.017	84.9609	72.4626	84.9609	72.9173	84.9609	72.4776	84.9609	72.822	84.9609	72.5044	84.9609	72.7349	84.9609	72.5434	84.9609	72.6587	84.9609	72.5947
87.8906	73.349	87.8906	73.2825	87.8906	73.4151	87.8906	73.2182	87.8906	73.4787	87.8906	73.1582	87.8906	73.5375	87.8906	73.1046	87.8906	73.59	87.8906	73.0594	87.8906	73.635	87.8906	73.0239	87.8906	73.672	87.8906	72.9996	87.8906	73.701	87.8906	72.987	87.8906	73.7219	87.8906	72.9865	87.8906	73.7344	87.8906	72.9981	87.8906	73.7378	87.8906	73.0212	87.8906	73.7312	87.8906	73.055	87.8906	73.7137	87.8906	73.0983	87.8906	73.6848	87.8906	73.1498	87.8906	73.6448	87.8906	73.2079	87.8906	73.5947	87.8906	73.2711	87.8906	73.5366	87.8906	73.3376	87.8906	73.4726	87.8906	73.4055
90.8203	73.8271	90.8203	73.7576	90.8203	73.8952	90.8203	73.6902	90.8203	73.9591	90.8203	73.6285	90.8203	74.0162	90.8203	73.576	90.8203	74.0652	90.8203	73.5357	90.8203	74.1059	90.8203	73.5103	90.8203	74.139	90.8203	73.5019	90.8203	74.1661	90.8203	73.5114	90.8203	74.1889	90.8203	73.5392	90.8203	74.209	90.8203	73.5839	90.8203	74.2273	90.8203	73.6435	90.8203	74.2436	90.8203	73.7146	90.8203	74.2568	90.8203	73.7934	90.8203	74.2647	90.8203	73.8755	90.8203	74.2653	90.8203	73.9566	90.8203	74.2563	90.8203	74.0328	90.8203	74.236	90.8203	74.1008	90.8203	74.2034	90.8203	74.1581
95.2148	75.2881	95.2148	75.2501	95.2148	75.3072	95.2148	75.1923	95.2148	75.3088	95.2148	75.1153	95.2148	75.2949	95.2148	75.0208	95.2148	75.2676	95.2148	74.9115	95.2148	75.2293	95.2148	74.7915	95.2148	75.1819	95.2148	74.6652	95.2148	75.1276	95.2148	74.5377	95.2148	75.068	95.2148	74.414	95.2148	75.0043	95.2148	74.2998	95.2148	74.9369	95.2148	74.2006	95.2148	74.8654	95.2148	74.1216	95.2148	74.7887	95.2148	74.0677	95.2148	74.7056	95.2148	74.0424	95.2148	74.6154	95.2148	74.0473	95.2148	74.5187	95.2148	74.0817	95.2148	74.4179	95.2148	74.1421	95.2148	74.3172	95.2148	74.223
98.1445	75.663	98.1445	75.6041	98.1445	75.7101	98.1445	75.5362	98.1445	75.7432	98.1445	75.4624	98.1445	75.7609	98.1445	75.3859	98.1445	75.763	98.1445	75.3097	98.1445	75.7503	98.1445	75.2365	98.1445	75.7247	98.1445	75.1687	98.1445	75.6887	98.1445	75.1082	98.1445	75.6455	98.1445	75.0565	98.1445	75.5979	98.1445	75.0148	98.1445	75.5485	98.1445	74.9841	98.1445	75.4987	98.1445	74.9654	98.1445	75.4489	98.1445	74.9595	98.1445	75.3987	98.1445	74.967	98.1445	75.3467	98.1445	74.988	98.1445	75.2922	98.1445	75.0218	98.1445	75.235	98.1445	75.0664	98.1445	75.1765	98.1445	75.1191
101.074	76.2273	101.074	76.1525	101.074	76.2905	101.074	76.0691	101.074	76.3399	101.074	75.9811	101.074	76.3745	101.074	75.8926	101.074	76.3936	101.074	75.808	101.074	76.3974	101.074	75.7308	101.074	76.3862	101.074	75.6638	101.074	76.361	101.074	75.6085	101.074	76.3231	101.074	75.5655	101.074	76.2744	101.074	75.5346	101.074	76.2172	101.074	75.5153	101.074	76.1539	101.074	75.5071	101.074	76.0869	101.074	75.5098	101.074	76.0179	101.074	75.5234	101.074	75.9482	101.074	75.5482	101.074	75.879	101.074	75.584	101.074	75.8109	101.074	75.63	101.074	75.7455	101.074	75.6845
105.469	76.7303	105.469	76.6405	105.469	76.8116	105.469	76.5465	105.469	76.8808	105.469	76.4529	105.469	76.9353	105.469	76.3646	105.469	76.9735	105.469	76.2859	105.469	76.9948	105.469	76.2207	105.469	77	105.469	76.1724	105.469	76.9911	105.469	76.1433	105.469	76.9708	105.469	76.1347	105.469	76.9426	105.469	76.1466	105.469	76.91	105.469	76.1775	105.469	76.8761	105.469	76.2249	105.469	76.8427	105.469	76.2847	105.469	76.8106	105.469	76.3526	105.469	76.7791	105.469	76.4237	105.469	76.7463	105.469	76.4937	105.469	76.7098	105.469	76.5589	105.469	76.6673	105.469	76.6171
108.398	77.485	108.398	77.4114	108.398	77.5438	108.398	77.3264	108.398	77.5853	108.398	77.234	108.398	77.6079	108.398	77.1386	108.398	77.6113	108.398	77.0447	108.398	77.596	108.398	76.9562	108.398	77.5637	108.398	76.8767	108.398	77.5167	108.398	76.8093	108.398	77.4584	108.398	76.756	108.398	77.3925	108.398	76.7182	108.398	77.323	108.398	76.6961	108.398	77.2533	108.398	76.6891	108.398	77.1859	108.398	76.6959	108.398	77.1226	108.398	76.7145	108.398	77.0638	108.398	76.7426	108.398	77.0092	108.398	76.778	108.398	76.958	108.398	76.8186	108.398	76.9093	108.398	76.8627
112.793	78.1879	112.793	78.1227	112.793	78.2372	112.793	78.0441	112.793	78.2682	112.793	77.9555	112.793	78.2793	112.793	77.8601	112.793	78.2696	112.793	77.7619	112.793	78.2394	112.793	77.6649	112.793	78.1902	112.793	77.5734	112.793	78.1252	112.793	77.4918	112.793	78.0489	112.793	77.424	112.793	77.9668	112.793	77.3735	112.793	77.8844	112.793	77.3418	112.793	77.8069	112.793	77.3292	112.793	77.7378	112.793	77.334	112.793	77.6791	112.793	77.3529	112.793	77.6305	112.793	77.3817	112.793	77.5901	112.793	77.4161	112.793	77.5549	112.793	77.4523	112.793	77.5215	112.793	77.4877
117.188	78.8192	117.188	78.7428	117.188	78.8766	117.188	78.6497	117.188	78.9124	117.188	78.5429	117.188	78.9248	117.188	78.4254	117.188	78.9128	117.188	78.3011	117.188	78.8765	117.188	78.1748	117.188	78.8178	117.188	78.0523	117.188	78.7402	117.188	77.9403	117.188	78.6488	117.188	77.8459	117.188	78.5501	117.188	77.7759	117.188	78.4514	117.188	77.7349	117.188	78.3599	117.188	77.725	117.188	78.2813	117.188	77.744	117.188	78.2186	117.188	77.7867	117.188	78.1712	117.188	77.8448	117.188	78.1347	117.188	77.9089	117.188	78.1024	117.188	77.9706	117.188	78.0674	117.188	78.0241
120.117	79.5627	120.117	79.4915	120.117	79.6134	120.117	79.4021	120.117	79.6411	120.117	79.2955	120.117	79.6428	120.117	79.1725	120.117	79.6163	120.117	79.0334	120.117	79.56	120.117	78.8793	120.117	79.474	120.117	78.713	120.117	79.3598	120.117	78.5395	120.117	79.2206	120.117	78.366	120.117	79.0615	120.117	78.2019	120.117	78.8896	120.117	78.0573	120.117	78.7132	120.117	77.9412	120.117	78.5417	120.117	77.8596	120.117	78.3836	120.117	77.8139	120.117	78.2454	120.117	77.8012	120.117	78.1297	120.117	77.8154	120.117	78.0357	120.117	77.8495	120.117	77.9598	120.117	77.8983
124.512	80.0714	124.512	80.0275	124.512	80.0932	124.512	79.9614	124.512	80.0933	124.512	79.8737	124.512	80.0728	124.512	79.7656	124.512	80.0332	124.512	79.6386	124.512	79.9757	124.512	79.4948	124.512	79.9015	124.512	79.3369	124.512	79.8111	124.512	79.1683	124.512	79.7045	124.512	78.9935	124.512	79.5813	124.512	78.8182	124.512	79.4417	124.512	78.6492	124.512	79.2867	124.512	78.4945	124.512	79.1192	124.512	78.3622	124.512	78.9444	124.512	78.2603	124.512	78.7699	124.512	78.1949	124.512	78.6042	124.512	78.1696	124.512	78.4558	124.512	78.1855	124.512	78.3327	124.512	78.241
128.906	79.8395	128.906	79.7587	128.906	79.9056	128.906	79.6666	128.906	79.9562	128.906	79.569	128.906	79.9923	128.906	79.4733	128.906	80.0166	128.906	79.3874	128.906	80.0319	128.906	79.3185	128.906	80.0412	128.906	79.2714	128.906	80.0466	128.906	79.2479	128.906	80.0488	128.906	79.2469	128.906	80.0474	128.906	79.2647	128.906	80.0403	128.906	79.2964	128.906	80.0249	128.906	79.3371	128.906	79.9988	128.906	79.3828	128.906	79.9604	128.906	79.431	128.906	79.9103	128.906	79.4813	128.906	79.8507	128.906	79.5343	128.906	79.7852	128.906	79.5912	128.906	79.718	128.906	79.6526
133.301	80.4766	133.301	80.3912	133.301	80.5469	133.301	80.2942	133.301	80.5998	133.301	80.1902	133.301	80.6343	133.301	80.0848	133.301	80.6505	133.301	79.9842	133.301	80.6497	133.301	79.8945	133.301	80.6345	133.301	79.8212	133.301	80.6081	133.301	79.7683	133.301	80.5743	133.301	79.7382	133.301	80.5365	133.301	79.7311	133.301	80.4972	133.301	79.7457	133.301	80.4576	133.301	79.7789	133.301	80.418	133.301	79.8264	133.301	80.3776	133.301	79.8836	133.301	80.3354	133.301	79.9461	133.301	80.2904	133.301	80.0101	133.301	80.2418	133.301	80.073	133.301	80.1894	133.301	80.133
139.16	81.3145	139.16	81.2405	139.16	81.3743	139.16	81.1559	139.16	81.417	139.16	81.0652	139.16	81.441	139.16	80.9729	139.16	81.4463	139.16	80.8832	139.16	81.4339	139.16	80.7998	139.16	81.4062	139.16	80.7254	139.16	81.3662	139.16	80.6622	139.16	81.3172	139.16	80.6113	139.16	81.2621	139.16	80.5735	139.16	81.2033	139.16	80.5491	139.16	81.1425	139.16	80.5383	139.16	81.081	139.16	80.541	139.16	81.0192	139.16	80.5566	139.16	80.9576	139.16	80.5841	139.16	80.8964	139.16	80.6219	139.16	80.8358	139.16	80.668	139.16	80.7768	139.16	80.7203
143.555	81.7631	143.555	81.686	143.555	81.8283	143.555	81.6017	143.555	81.8782	143.555	81.5152	143.555	81.9107	143.555	81.4315	143.555	81.9254	143.555	81.3548	143.555	81.9233	143.555	81.2882	143.555	81.9065	143.555	81.2329	143.555	81.8776	143.555	81.1892	143.555	81.8393	143.555	81.1559	143.555	81.794	143.555	81.1317	143.555	81.7432	143.555	81.1154	143.555	81.6879	143.555	81.1066	143.555	81.6288	143.555	81.1058	143.555	81.5665	143.555	81.114	143.555	81.5017	143.555	81.1323	143.555	81.4359	143.555	81.1616	143.555	81.3708	143.555	81.2017	143.555	81.3084	143.555	81.2512
147.949	82.1361	147.949	82.0597	147.949	82.194	147.949	81.9698	147.949	82.2309	147.949	81.8726	147.949	82.2463	147.949	81.7751	147.949	82.2425	147.949	81.6842	147.949	82.2235	147.949	81.6064	147.949	82.1947	147.949	81.5467	147.949	82.1621	147.949	81.5084	147.949	82.1308	147.949	81.4924	147.949	82.1044	147.949	81.4979	147.949	82.0844	147.949	81.5215	147.949	82.0696	147.949	81.5591	147.949	82.0571	147.949	81.6061	147.949	82.0431	147.949	81.6582	147.949	82.0238	147.949	81.7125	147.949	81.9969	147.949	81.767	147.949	81.9619	147.949	81.8205	147.949	81.9196	147.949	81.8718
153.809	82.7439	153.809	82.6751	153.809	82.7928	153.809	82.5888	153.809	82.8202	153.809	82.4885	153.809	82.8257	153.809	82.3782	153.809	82.8098	153.809	82.2627	153.809	82.7742	153.809	82.1473	153.809	82.7219	153.809	82.0376	153.809	82.6568	153.809	81.9396	153.809	82.5839	153.809	81.8588	153.809	82.5087	153.809	81.8004	153.809	82.4362	153.809	81.7676	153.809	82.3709	153.809	81.7616	153.809	82.3151	153.809	81.7806	153.809	82.2689	153.809	81.8204	153.809	82.2296	153.809	81.8747	153.809	82.1931	153.809	81.9367	153.809	82.1547	153.809	81.9997	153.809	82.1105	153.809	82.0587
159.668	83.1289	159.668	83.0539	159.668	83.1868	159.668	82.9659	159.668	83.2252	159.668	82.8696	159.668	83.2426	159.668	82.7702	159.668	83.2393	159.668	82.6729	159.668	83.217	159.668	82.5819	159.668	83.1788	159.668	82.5005	159.668	83.1287	159.668	82.4314	159.668	83.0714	159.668	82.3762	159.668	83.0113	159.668	82.3365	159.668	82.9521	159.668	82.3136	159.668	82.8965	159.668	82.3081	159.668	82.8455	159.668	82.32	159.668	82.7986	159.668	82.3481	159.668	82.754	159.668	82.3897	159.668	82.7093	159.668	82.441	159.668	82.6621	159.668	82.4976	159.668	82.6107	159.668	82.5553
165.527	83.6268	165.527	83.5496	165.527	83.6852	165.527	83.4587	165.527	83.7212	165.527	83.3597	165.527	83.7332	165.527	83.2584	165.527	83.7217	165.527	83.1601	165.527	83.6894	165.527	83.0689	165.527	83.6407	165.527	82.9882	165.527	83.5806	165.527	82.9201	165.527	83.5148	165.527	82.8663	165.527	83.4479	165.527	82.828	165.527	83.3837	165.527	82.806	165.527	83.3246	165.527	82.8004	165.527	83.2717	165.527	82.8104	165.527	83.2244	165.527	82.8341	165.527	83.1811	165.527	82.8689	165.527	83.1395	165.527	82.9115	165.527	83.0973	165.527	82.9583	165.527	83.053	165.527	83.0063
171.387	83.9836	171.387	83.9104	171.387	84.0392	171.387	83.8246	171.387	84.0732	171.387	83.7316	171.387	84.0831	171.387	83.6364	171.387	84.0685	171.387	83.5436	171.387	84.0315	171.387	83.457	171.387	83.9765	171.387	83.3795	171.387	83.9097	171.387	83.3134	171.387	83.8384	171.387	83.2609	171.387	83.7698	171.387	83.2239	171.387	83.7096	171.387	83.2041	171.387	83.6616	171.387	83.2026	171.387	83.6263	171.387	83.2193	171.387	83.6015	171.387	83.2522	171.387	83.5822	171.387	83.2978	171.387	83.5626	171.387	83.351	171.387	83.5372	171.387	83.4064	171.387	83.5026	171.387	83.4583
177.246	84.4071	177.246	84.3086	177.246	84.4772	177.246	84.1884	177.246	84.5147	177.246	84.0554	177.246	84.5188	177.246	83.9193	177.246	84.4916	177.246	83.79	177.246	84.4376	177.246	83.6764	177.246	84.3632	177.246	83.585	177.246	84.2749	177.246	83.5197	177.246	84.1791	177.246	83.4811	177.246	84.0818	177.246	83.467	177.246	83.9884	177.246	83.4733	177.246	83.9041	177.246	83.4948	177.246	83.8337	177.246	83.5264	177.246	83.7805	177.246	83.5632	177.246	83.745	177.246	83.601	177.246	83.724	177.246	83.636	177.246	83.7117	177.246	83.6651	177.246	83.7011	177.246	83.6867
183.105	84.633	183.105	84.5809	183.105	84.6635	183.105	84.5082	183.105	84.6725	183.105	84.4173	183.105	84.6608	183.105	84.3122	183.105	84.6305	183.105	84.1984	183.105	84.5846	183.105	84.0826	183.105	84.5276	183.105	83.972	183.105	84.4647	183.105	83.8738	183.105	84.4009	183.105	83.7947	183.105	84.3398	183.105	83.7392	183.105	84.2829	183.105	83.7088	183.105	84.2301	183.105	83.702	183.105	84.1796	183.105	83.7143	183.105	84.1296	183.105	83.7397	183.105	84.0791	183.105	83.7727	183.105	84.0285	183.105	83.8094	183.105	83.9791	183.105	83.848	183.105	83.9323	183.105	83.8887
188.965	84.6389	188.965	84.5802	188.965	84.6736	188.965	84.5009	188.965	84.6825	188.965	84.4052	188.965	84.6664	188.965	84.2986	188.965	84.6292	188.965	84.1873	188.965	84.5782	188.965	84.0779	188.965	84.5233	188.965	83.9774	188.965	84.4747	188.965	83.892	188.965	84.4409	188.965	83.8278	188.965	84.4259	188.965	83.7896	188.965	84.4286	188.965	83.7808	188.965	84.4428	188.965	83.8018	188.965	84.4593	188.965	83.8495	188.965	84.4685	188.965	83.9181	188.965	84.4623	188.965	83.9998	188.965	84.4369	188.965	84.0872	188.965	84.3921	188.965	84.1744	188.965	84.3307	188.965	84.2568
196.289	85.0254	196.289	84.9462	196.289	85.0756	196.289	84.8446	196.289	85.0924	196.289	84.7279	196.289	85.0742	196.289	84.6041	196.289	85.0228	196.289	84.4808	196.289	84.9439	196.289	84.3646	196.289	84.8459	196.289	84.2614	196.289	84.739	196.289	84.1751	196.289	84.6341	196.289	84.1082	196.289	84.541	196.289	84.0621	196.289	84.4674	196.289	84.0372	196.289	84.4176	196.289	84.0333	196.289	84.3909	196.289	84.0492	196.289	84.3818	196.289	84.0825	196.289	84.381	196.289	84.1295	196.289	84.3783	196.289	84.1849	196.289	84.3653	196.289	84.2424	196.289	84.3376	196.289	84.2953
203.613	85.2492	203.613	85.1693	203.613	85.296	203.613	85.0611	203.613	85.309	203.613	84.932	203.613	85.2913	203.613	84.7909	203.613	85.2495	203.613	84.6476	203.613	85.1914	203.613	84.5109	203.613	85.1245	203.613	84.3893	203.613	85.0547	203.613	84.2898	203.613	84.9852	203.613	84.2176	203.613	84.9173	203.613	84.176	203.613	84.852	203.613	84.1656	203.613	84.7902	203.613	84.1843	203.613	84.7343	203.613	84.227	203.613	84.6869	203.613	84.2866	203.613	84.6495	203.613	84.3546	203.613	84.6208	203.613	84.4225	203.613	84.5961	203.613	84.4832	203.613	84.5686	203.613	84.5321
210.938	85.3232	210.938	85.2491	210.938	85.3702	210.938	85.1504	210.938	85.3884	210.938	85.0313	210.938	85.3765	210.938	84.8979	210.938	85.3351	210.938	84.7583	210.938	85.2676	210.938	84.6213	210.938	85.1822	210.938	84.4954	210.938	85.0909	210.938	84.3875	210.938	85.0075	210.938	84.3029	210.938	84.9432	210.938	84.2447	210.938	84.9026	210.938	84.2144	210.938	84.8808	210.938	84.2114	210.938	84.8663	210.938	84.2329	210.938	84.8453	210.938	84.2737	210.938	84.8079	210.938	84.3281	210.938	84.752	210.938	84.3906	210.938	84.6822	210.938	84.4585	210.938	84.6062	210.938	84.5306
218.262	85.3033	218.262	85.2271	218.262	85.3455	218.262	85.1231	218.262	85.3496	218.262	84.999	218.262	85.3156	218.262	84.8631	218.262	85.2485	218.262	84.7243	218.262	85.1573	218.262	84.5915	218.262	85.0539	218.262	84.4738	218.262	84.9511	218.262	84.3794	218.262	84.8607	218.262	84.3148	218.262	84.7927	218.262	84.283	218.262	84.7548	218.262	84.284	218.262	84.7502	218.262	84.315	218.262	84.7755	218.262	84.371	218.262	84.8195	218.262	84.4464	218.262	84.865	218.262	84.535	218.262	84.8946	218.262	84.6298	218.262	84.8961	218.262	84.7228	218.262	84.865	218.262	84.8045
225.586	85.4431	225.586	85.3686	225.586	85.48	225.586	85.2617	225.586	85.4778	225.586	85.1302	225.586	85.4387	225.586	84.9839	225.586	85.3683	225.586	84.8327	225.586	85.2757	225.586	84.6862	225.586	85.1719	225.586	84.5529	225.586	85.0685	225.586	84.4405	225.586	84.9762	225.586	84.3571	225.586	84.903	225.586	84.31	225.586	84.8539	225.586	84.3044	225.586	84.8299	225.586	84.3402	225.586	84.8282	225.586	84.4111	225.586	84.8427	225.586	84.5048	225.586	84.8644	225.586	84.6069	225.586	84.8833	225.586	84.7034	225.586	84.8902	225.586	84.7842	225.586	84.8782	225.586	84.8432
232.91	85.5929	232.91	85.51	232.91	85.6373	232.91	85.3947	232.91	85.6397	232.91	85.2554	232.91	85.5993	232.91	85.1021	232.91	85.5187	232.91	84.9451	232.91	85.4044	232.91	84.7932	232.91	85.2666	232.91	84.6525	232.91	85.1184	232.91	84.5272	232.91	84.9747	232.91	84.4207	232.91	84.8492	232.91	84.338	232.91	84.7528	232.91	84.285	232.91	84.6908	232.91	84.2668	232.91	84.6612	232.91	84.2843	232.91	84.6559	232.91	84.3325	232.91	84.6627	232.91	84.4011	232.91	84.6693	232.91	84.4771	232.91	84.6658	232.91	84.5485	232.91	84.6456	232.91	84.6062
241.699	85.2975	241.699	85.2101	241.699	85.352	241.699	85.0962	241.699	85.3698	241.699	84.964	241.699	85.3498	241.699	84.8227	241.699	85.2949	241.699	84.6815	241.699	85.2119	241.699	84.5484	241.699	85.1103	241.699	84.4289	241.699	85.0011	241.699	84.3265	241.699	84.8945	241.699	84.2439	241.699	84.7991	241.699	84.1846	241.699	84.7209	241.699	84.1524	241.699	84.6634	241.699	84.1511	241.699	84.6271	241.699	84.181	241.699	84.6088	241.699	84.2377	241.699	84.6021	241.699	84.312	241.699	84.5985	241.699	84.3918	241.699	84.589	241.699	84.4656	241.699	84.566	241.699	84.5251
250.488	85.2688	250.488	85.1462	250.488	85.3446	250.488	84.9835	250.488	85.3703	250.488	84.7913	250.488	85.347	250.488	84.5838	250.488	85.2805	250.488	84.3769	250.488	85.1816	250.488	84.186	250.488	85.0652	250.488	84.0231	250.488	84.9476	250.488	83.8959	250.488	84.8438	250.488	83.8085	250.488	84.765	250.488	83.7637	250.488	84.7161	250.488	83.7634	250.488	84.6952	250.488	83.808	250.488	84.694	250.488	83.8937	250.488	84.7001	250.488	84.0109	250.488	84.701	250.488	84.1454	250.488	84.6868	250.488	84.2816	250.488	84.6519	250.488	84.4066	250.488	84.5939	250.488	84.5119
259.277	85.3136	259.277	85.1916	259.277	85.387	259.277	85.0299	259.277	85.408	259.277	84.8424	259.277	85.3779	259.277	84.6472	259.277	85.3036	259.277	84.4644	259.277	85.1965	259.277	84.3113	259.277	85.0709	259.277	84.1986	259.277	84.9417	259.277	84.1278	259.277	84.8219	259.277	84.0929	259.277	84.7208	259.277	84.0855	259.277	84.6434	259.277	84.0989	259.277	84.5901	259.277	84.13	259.277	84.5576	259.277	84.1779	259.277	84.5406	259.277	84.2401	259.277	84.5331	259.277	84.3106	259.277	84.5294	259.277	84.3803	259.277	84.524	259.277	84.4401	259.277	84.5107	259.277	84.4838
268.066	85.3356	268.066	85.2049	268.066	85.4211	268.066	85.0341	268.066	85.4575	268.066	84.8299	268.066	85.443	268.066	84.6024	268.066	85.3802	268.066	84.3657	268.066	85.2767	268.066	84.1371	268.066	85.1453	268.066	83.9347	268.066	85.0018	268.066	83.7735	268.066	84.8627	268.066	83.6623	268.066	84.7423	268.066	83.6037	268.066	84.6504	268.066	83.5952	268.066	84.5887	268.066	83.6313	268.066	84.55	268.066	83.7036	268.066	84.5207	268.066	83.801	268.066	84.4867	268.066	83.9107	268.066	84.4391	268.066	84.0209	268.066	84.3764	268.066	84.1239	268.066	84.3015	268.066	84.2173
276.855	85.0952	276.855	84.9678	276.855	85.1746	276.855	84.7986	276.855	85.2031	276.855	84.596	276.855	85.1815	276.855	84.3702	276.855	85.1153	276.855	84.134	276.855	85.0131	276.855	83.9026	276.855	84.8863	276.855	83.6935	276.855	84.7474	276.855	83.5253	276.855	84.6098	276.855	83.4134	276.855	84.4886	276.855	83.3658	276.855	84.398	276.855	83.38	276.855	84.3477	276.855	83.444	276.855	84.337	276.855	83.5419	276.855	84.352	276.855	83.6592	276.855	84.3702	276.855	83.7862	276.855	84.3692	276.855	83.9165	276.855	84.3348	276.855	84.0449	276.855	84.2643	276.855	84.1642
287.109	84.8425	287.109	84.7601	287.109	84.8801	287.109	84.6381	287.109	84.8708	287.109	84.4845	287.109	84.8167	287.109	84.3085	287.109	84.7253	287.109	84.1181	287.109	84.6096	287.109	83.9193	287.109	84.486	287.109	83.7166	287.109	84.3718	287.109	83.5172	287.109	84.2816	287.109	83.3366	287.109	84.2251	287.109	83.2004	287.109	84.206	287.109	83.1384	287.109	84.2203	287.109	83.1704	287.109	84.2559	287.109	83.2918	287.109	84.2951	287.109	83.4736	287.109	84.3208	287.109	83.6758	287.109	84.3215	287.109	83.8652	287.109	84.2928	287.109	84.0233	287.109	84.2344	287.109	84.1455
297.363	84.7994	297.363	84.7292	297.363	84.8173	297.363	84.6142	297.363	84.7794	297.363	84.4639	297.363	84.6892	297.363	84.2893	297.363	84.5597	297.363	84.1021	297.363	84.4131	297.363	83.912	297.363	84.2745	297.363	83.7252	297.363	84.1635	297.363	83.5443	297.363	84.0867	297.363	83.3708	297.363	84.0391	297.363	83.2108	297.363	84.0126	297.363	83.0785	297.363	84.0045	297.363	82.9953	297.363	84.0173	297.363	82.9826	297.363	84.0499	297.363	83.0517	297.363	84.0875	297.363	83.1966	297.363	84.1034	297.363	83.3945	297.363	84.0706	297.363	83.6123	297.363	83.9739	297.363	83.8152
307.617	84.6627	307.617	84.4945	307.617	84.7752	307.617	84.2902	307.617	84.8187	307.617	84.0739	307.617	84.7868	307.617	83.8695	307.617	84.6799	307.617	83.6945	307.617	84.5066	307.617	83.5552	307.617	84.2851	307.617	83.4457	307.617	84.0437	307.617	83.3528	307.617	83.8166	307.617	83.2656	307.617	83.6349	307.617	83.1832	307.617	83.5148	307.617	83.1164	307.617	83.4531	307.617	83.0825	307.617	83.4333	307.617	83.0945	307.617	83.4385	307.617	83.1532	307.617	83.4583	307.617	83.2451	307.617	83.4861	307.617	83.3477	307.617	83.5119	307.617	83.4377	307.617	83.5204	307.617	83.4975
319.336	84.6836	319.336	84.5608	319.336	84.7361	319.336	84.375	319.336	84.7152	319.336	84.1393	319.336	84.6232	319.336	83.8739	319.336	84.4684	319.336	83.606	319.336	84.2669	319.336	83.3641	319.336	84.0406	319.336	83.1701	319.336	83.8148	319.336	83.0331	319.336	83.6165	319.336	82.9494	319.336	83.4708	319.336	82.9095	319.336	83.395	319.336	82.9067	319.336	83.3898	319.336	82.9404	319.336	83.4367	319.336	83.0122	319.336	83.5058	319.336	83.1189	319.336	83.57	319.336	83.2477	319.336	83.6136	319.336	83.3789	319.336	83.6309	319.336	83.4921	319.336	83.619	319.336	83.5736
329.59	84.2421	329.59	84.116	329.59	84.2997	329.59	83.9334	329.59	84.2832	329.59	83.7113	329.59	84.194	329.59	83.4711	329.59	84.0404	329.59	83.2346	329.59	83.8369	329.59	83.018	329.59	83.6016	329.59	82.8273	329.59	83.3549	329.59	82.6583	329.59	83.12	329.59	82.5038	329.59	82.9251	329.59	82.3621	329.59	82.7977	329.59	82.2419	329.59	82.7521	329.59	82.1604	329.59	82.7758	329.59	82.1334	329.59	82.8319	329.59	82.1668	329.59	82.8775	329.59	82.2531	329.59	82.8837	329.59	82.3747	329.59	82.8419	329.59	82.5111	329.59	82.7582	329.59	82.6438
341.309	84.1759	341.309	84.0359	341.309	84.2417	341.309	83.8302	341.309	84.2314	341.309	83.5749	341.309	84.1503	341.309	83.2938	341.309	84.0122	341.309	83.0158	341.309	83.8382	341.309	82.7679	341.309	83.6534	341.309	82.5679	341.309	83.4798	341.309	82.4223	341.309	83.3305	341.309	82.3305	341.309	83.209	341.309	82.2918	341.309	83.115	341.309	82.3072	341.309	83.0524	341.309	82.376	341.309	83.03	341.309	82.4902	341.309	83.0516	341.309	82.6344	341.309	83.1057	341.309	82.7901	341.309	83.1667	341.309	82.9392	341.309	83.2065	341.309	83.0661	341.309	83.2058	341.309	83.158
353.027	84.1492	353.027	83.9917	353.027	84.225	353.027	83.7633	353.027	84.2107	353.027	83.4788	353.027	84.1016	353.027	83.1611	353.027	83.9018	353.027	82.8421	353.027	83.6295	353.027	82.5571	353.027	83.3175	353.027	82.3334	353.027	83.0092	353.027	82.1797	353.027	82.7498	353.027	82.0866	353.027	82.5763	353.027	82.0394	353.027	82.5052	353.027	82.0321	353.027	82.5245	353.027	82.0707	353.027	82.5994	353.027	82.1625	353.027	82.6907	353.027	82.3024	353.027	82.7727	353.027	82.4694	353.027	82.8357	353.027	82.633	353.027	82.8756	353.027	82.7654	353.027	82.8843	353.027	82.8502
366.211	83.7417	366.211	83.6068	366.211	83.802	366.211	83.4023	366.211	83.7853	366.211	83.1372	366.211	83.695	366.211	82.829	366.211	83.5428	366.211	82.507	366.211	83.3482	366.211	82.2091	366.211	83.1329	366.211	81.9671	366.211	82.9156	366.211	81.7911	366.211	82.7147	366.211	81.666	366.211	82.5565	366.211	81.567	366.211	82.4748	366.211	81.4823	366.211	82.4913	366.211	81.4234	366.211	82.588	366.211	81.4167	366.211	82.7053	366.211	81.4827	366.211	82.7748	366.211	81.6207	366.211	82.7548	366.211	81.8102	366.211	82.6428	366.211	82.0268	366.211	82.4641	366.211	82.2506
379.395	83.8965	379.395	83.7448	379.395	83.9599	379.395	83.5214	379.395	83.9292	379.395	83.2514	379.395	83.8084	379.395	82.9627	379.395	83.6087	379.395	82.6783	379.395	83.3468	379.395	82.4103	379.395	83.0435	379.395	82.1594	379.395	82.7245	379.395	81.9239	379.395	82.4213	379.395	81.7118	379.395	82.1707	379.395	81.5471	379.395	82.0091	379.395	81.4598	379.395	81.9604	379.395	81.4673	379.395	82.0207	379.395	81.564	379.395	82.1572	379.395	81.7265	379.395	82.3214	379.395	81.9266	379.395	82.4655	379.395	82.1375	379.395	82.5522	379.395	82.3319	379.395	82.5589	379.395	82.481
392.578	83.7505	392.578	83.5465	392.578	83.8667	392.578	83.2676	392.578	83.8854	392.578	82.9339	392.578	83.7996	392.578	82.5758	392.578	83.6115	392.578	82.2297	392.578	83.3395	392.578	81.9265	392.578	83.0163	392.578	81.68	392.578	82.6777	392.578	81.4837	392.578	82.3512	392.578	81.3227	392.578	82.0552	392.578	81.1928	392.578	81.8092	392.578	81.1093	392.578	81.6391	392.578	81.0947	392.578	81.5648	392.578	81.1561	392.578	81.5807	392.578	81.2762	392.578	81.6536	392.578	81.4251	392.578	81.7408	392.578	81.5749	392.578	81.8065	392.578	81.7034	392.578	81.8272	392.578	81.792
405.762	83.4533	405.762	83.2992	405.762	83.5302	405.762	83.0805	405.762	83.5111	405.762	82.806	405.762	83.3818	405.762	82.4916	405.762	83.1477	405.762	82.169	405.762	82.8402	405.762	81.8823	405.762	82.5071	405.762	81.6669	405.762	82.1934	405.762	81.5237	405.762	81.9296	405.762	81.4157	405.762	81.7383	405.762	81.2964	405.762	81.6434	405.762	81.1483	405.762	81.6609	405.762	81.0008	405.762	81.7718	405.762	80.915	405.762	81.9146	405.762	80.9426	405.762	82.0183	405.762	81.0881	405.762	82.0432	405.762	81.3056	405.762	81.9913	405.762	81.5336	405.762	81.8831	405.762	81.7303
420.41	83.8538	420.41	83.7353	420.41	83.8618	420.41	83.53	420.41	83.7436	420.41	83.2583	420.41	83.5057	420.41	82.9366	420.41	83.1836	420.41	82.5839	420.41	82.8322	420.41	82.2293	420.41	82.4996	420.41	81.9085	420.41	82.2001	420.41	81.6507	420.41	81.913	420.41	81.4653	420.41	81.6127	420.41	81.3402	420.41	81.3115	420.41	81.2543	420.41	81.0784	420.41	81.1921	420.41	80.9987	420.41	81.1503	420.41	81.0912	420.41	81.1339	420.41	81.2758	420.41	81.1494	420.41	81.4375	420.41	81.2004	420.41	81.5054	420.41	81.284	420.41	81.4753	420.41	81.3861
435.059	83.3815	435.059	83.2665	435.059	83.3719	435.059	83.0315	435.059	83.2528	435.059	82.7014	435.059	83.0539	435.059	82.3167	435.059	82.8085	435.059	81.9267	435.059	82.543	435.059	81.5781	435.059	82.2735	435.059	81.3047	435.059	82.0122	435.059	81.1204	435.059	81.7759	435.059	81.0185	435.059	81.5842	435.059	80.98	435.059	81.4503	435.059	80.9833	435.059	81.3768	435.059	81.014	435.059	81.3609	435.059	81.0688	435.059	81.4015	435.059	81.1535	435.059	81.494	435.059	81.274	435.059	81.6149	435.059	81.4249	435.059	81.7177	435.059	81.5813	435.059	81.7543	435.059	81.7038
451.172	83.5586	451.172	83.4067	451.172	83.6323	451.172	83.1736	451.172	83.6153	451.172	82.8466	451.172	83.4862	451.172	82.4132	451.172	83.2318	451.172	81.8726	451.172	82.8628	451.172	81.2447	451.172	82.4172	451.172	80.5776	451.172	81.95	451.172	79.9498	451.172	81.5199	451.172	79.4633	451.172	81.18	451.172	79.2152	451.172	80.9621	451.172	79.2448	451.172	80.8518	451.172	79.4972	451.172	80.7848	451.172	79.8534	451.172	80.6953	451.172	80.2023	451.172	80.5797	451.172	80.4818	451.172	80.5056	451.172	80.6702	451.172	80.5354	451.172	80.7585	451.172	80.6439	451.172	80.7422
465.82	82.8607	465.82	82.7331	465.82	82.9001	465.82	82.5319	465.82	82.8382	465.82	82.2706	465.82	82.6789	465.82	81.9699	465.82	82.4533	465.82	81.6615	465.82	82.2064	465.82	81.3783	465.82	81.9643	465.82	81.1402	465.82	81.7134	465.82	80.9467	465.82	81.4236	465.82	80.7833	465.82	81.1086	465.82	80.6377	465.82	80.8724	465.82	80.5128	465.82	80.8608	465.82	80.4298	465.82	81.1038	465.82	80.4143	465.82	81.4425	465.82	80.4764	465.82	81.6682	465.82	80.5994	465.82	81.6792	465.82	80.7501	465.82	81.5133	465.82	80.9061	465.82	81.2827	465.82	81.0755
483.398	83.0699	483.398	82.9476	483.398	83.0426	483.398	82.6746	483.398	82.8713	483.398	82.2589	483.398	82.5697	483.398	81.7343	483.398	82.172	483.398	81.1798	483.398	81.7453	483.398	80.7096	483.398	81.3847	483.398	80.4098	483.398	81.17	483.398	80.2766	483.398	81.1057	483.398	80.2463	483.398	81.118	483.398	80.2814	483.398	81.1378	483.398	80.4027	483.398	81.1799	483.398	80.6359	483.398	81.3245	483.398	80.9512	483.398	81.6111	483.398	81.2793	483.398	81.9674	483.398	81.5714	483.398	82.2649	483.398	81.8248	483.398	82.4142	483.398	82.0562	483.398	82.3998	483.398	82.2612
499.512	83.461	499.512	83.2638	499.512	83.5347	499.512	82.9497	499.512	83.4706	499.512	82.5245	499.512	83.2528	499.512	82.0048	499.512	82.8788	499.512	81.4275	499.512	82.3693	499.512	80.8514	499.512	81.774	499.512	80.3465	499.512	81.1815	499.512	79.9701	499.512	80.714	499.512	79.7492	499.512	80.4658	499.512	79.69	499.512	80.4389	499.512	79.7985	499.512	80.5735	499.512	80.0754	499.512	80.8314	499.512	80.4911	499.512	81.2118	499.512	80.9831	499.512	81.688	499.512	81.4846	499.512	82.1631	499.512	81.9453	499.512	82.5121	499.512	82.3255	499.512	82.6545	499.512	82.5796
517.09	84.0588	517.09	83.8613	517.09	84.097	517.09	83.5087	517.09	83.9742	517.09	83.0072	517.09	83.6995	517.09	82.381	517.09	83.2922	517.09	81.6905	517.09	82.7762	517.09	81.0237	517.09	82.1837	517.09	80.4485	517.09	81.5673	517.09	79.9701	517.09	80.9938	517.09	79.5525	517.09	80.5152	517.09	79.1978	517.09	80.162	517.09	78.9952	517.09	79.9702	517.09	79.0568	517.09	79.9849	517.09	79.3944	517.09	80.2119	517.09	79.9058	517.09	80.5894	517.09	80.4688	517.09	81.0204	517.09	80.9926	517.09	81.4	517.09	81.4032	517.09	81.6263	517.09	81.63
536.133	83.585	536.133	83.3413	536.133	83.623	536.133	82.8937	536.133	83.4589	536.133	82.266	536.133	83.1031	536.133	81.5275	536.133	82.5875	536.133	80.8067	536.133	81.9794	536.133	80.2599	536.133	81.3783	536.133	79.9781	536.133	80.8937	536.133	79.8969	536.133	80.6079	536.133	79.8403	536.133	80.5273	536.133	79.6774	536.133	80.5701	536.133	79.4275	536.133	80.6346	536.133	79.2364	536.133	80.6778	536.133	79.2522	536.133	80.7229	536.133	79.5006	536.133	80.8036	536.133	79.888	536.133	80.9112	536.133	80.2989	536.133	80.9967	536.133	80.6508	536.133	81.0043	536.133	80.893
555.176	83.4345	555.176	83.1704	555.176	83.4961	555.176	82.7404	555.176	83.3401	555.176	82.1904	555.176	82.9808	555.176	81.5649	555.176	82.4637	555.176	80.9068	555.176	81.8535	555.176	80.267	555.176	81.2087	555.176	79.712	555.176	80.5651	555.176	79.3102	555.176	79.9532	555.176	79.0971	555.176	79.4464	555.176	79.0526	555.176	79.179	555.176	79.1167	555.176	79.2495	555.176	79.2285	555.176	79.5843	555.176	79.3493	555.176	79.976	555.176	79.4619	555.176	80.2503	555.176	79.5659	555.176	80.3473	555.176	79.6749	555.176	80.2929	555.176	79.807	555.176	80.1466	555.176	79.9699
574.219	83.6152	574.219	83.3851	574.219	83.6575	574.219	82.9681	574.219	83.5293	574.219	82.3866	574.219	83.2516	574.219	81.6851	574.219	82.8282	574.219	80.9306	574.219	82.2501	574.219	80.2081	574.219	81.5415	574.219	79.6039	574.219	80.8006	574.219	79.1708	574.219	80.1633	574.219	78.897	574.219	79.6962	574.219	78.7221	574.219	79.3558	574.219	78.6074	574.219	79.1086	574.219	78.5972	574.219	79.0544	574.219	78.7847	574.219	79.3246	574.219	79.1813	574.219	79.8471	574.219	79.6714	574.219	80.3765	574.219	80.1272	574.219	80.7225	574.219	80.4893	574.219	80.8314	574.219	80.7358
594.727	83.7183	594.727	83.3626	594.727	83.8228	594.727	82.786	594.727	83.6902	594.727	82.05	594.727	83.3626	594.727	81.2253	594.727	82.8661	594.727	80.3733	594.727	82.1965	594.727	79.549	594.727	81.3691	594.727	78.8343	594.727	80.4832	594.727	78.3607	594.727	79.7315	594.727	78.2222	594.727	79.3117	594.727	78.3221	594.727	79.2413	594.727	78.4297	594.727	79.3072	594.727	78.4216	594.727	79.3062	594.727	78.3959	594.727	79.2791	594.727	78.5533	594.727	79.4474	594.727	78.961	594.727	79.8611	594.727	79.4959	594.727	80.2777	594.727	79.9965	594.727	80.4599	594.727	80.3475
615.234	83.6216	615.234	83.3532	615.234	83.6621	615.234	82.8501	615.234	83.4921	615.234	82.1335	615.234	83.1322	615.234	81.2662	615.234	82.6065	615.234	80.3501	615.234	81.9421	615.234	79.5189	615.234	81.1803	615.234	78.9353	615.234	80.3896	615.234	78.7318	615.234	79.6442	615.234	78.8606	615.234	79.0172	615.234	79.0715	615.234	78.6635	615.234	79.1223	615.234	78.7843	615.234	78.9507	615.234	79.2786	615.234	78.6803	615.234	79.7189	615.234	78.5088	615.234	79.8181	615.234	78.5552	615.234	79.6547	615.234	78.7959	615.234	79.4984	615.234	79.1075	615.234	79.4427	615.234	79.3449
637.207	83.2499	637.207	82.8983	637.207	83.3745	637.207	82.3248	637.207	83.3095	637.207	81.5696	637.207	83.1115	637.207	80.7145	637.207	82.792	637.207	79.8887	637.207	82.2895	637.207	79.2155	637.207	81.5332	637.207	78.7195	637.207	80.5282	637.207	78.3322	637.207	79.4039	637.207	78.0098	637.207	78.4205	637.207	77.7957	637.207	77.8658	637.207	77.7647	637.207	77.8041	637.207	77.9366	637.207	78.0489	637.207	78.2397	637.207	78.4329	637.207	78.5649	637.207	78.8732	637.207	78.8436	637.207	79.2644	637.207	79.0667	637.207	79.493	637.207	79.2564	637.207	79.5269	637.207	79.4223
659.18	82.784	659.18	82.4923	659.18	82.8668	659.18	81.9947	659.18	82.7631	659.18	81.3114	659.18	82.5091	659.18	80.4893	659.18	82.1045	659.18	79.6084	659.18	81.5096	659.18	78.7555	659.18	80.7355	659.18	78.0044	659.18	79.8856	659.18	77.4638	659.18	79.0794	659.18	77.2414	659.18	78.4156	659.18	77.2572	659.18	78.0355	659.18	77.2806	659.18	77.9794	659.18	77.1976	659.18	78.0148	659.18	77.1303	659.18	78.0092	659.18	77.278	659.18	78.2034	659.18	77.6705	659.18	78.7333	659.18	78.1911	659.18	79.2517	659.18	78.7311	659.18	79.4135	659.18	79.1893
682.617	83.0161	682.617	82.6377	682.617	83.1161	682.617	81.9718	682.617	82.9889	682.617	81.0952	682.617	82.652	682.617	80.1682	682.617	82.0581	682.617	79.336	682.617	81.2	682.617	78.5832	682.617	80.2588	682.617	77.7784	682.617	79.5588	682.617	76.9708	682.617	79.2244	682.617	76.5784	682.617	78.9203	682.617	76.8795	682.617	78.2688	682.617	77.4492	682.617	77.4966	682.617	77.7433	682.617	77.3335	682.617	77.6546	682.617	77.7747	682.617	77.4532	682.617	78.0941	682.617	77.454	682.617	78.0568	682.617	77.7038	682.617	77.9901	682.617	78.0135	682.617	78.0993	682.617	78.1688
707.52	82.5946	707.52	82.3374	707.52	82.7556	707.52	81.8524	707.52	82.8747	707.52	81.0405	707.52	82.9097	707.52	79.9875	707.52	82.7676	707.52	79.0284	707.52	82.3512	707.52	78.5098	707.52	81.5836	707.52	78.3692	707.52	80.4518	707.52	78.1797	707.52	79.0961	707.52	77.68	707.52	77.8378	707.52	77.072	707.52	76.9665	707.52	76.7297	707.52	76.4704	707.52	76.6532	707.52	76.188	707.52	76.5582	707.52	76.1246	707.52	76.3572	707.52	76.4021	707.52	76.2633	707.52	76.9322	707.52	76.4867	707.52	77.3886	707.52	76.932	707.52	77.5308	707.52	77.3425
732.422	82.6556	732.422	82.3754	732.422	82.7027	732.422	81.8554	732.422	82.5664	732.422	81.1374	732.422	82.2963	732.422	80.3357	732.422	81.8736	732.422	79.6153	732.422	81.2523	732.422	79.0608	732.422	80.4959	732.422	78.6142	732.422	79.7729	732.422	78.2256	732.422	79.1409	732.422	77.9591	732.422	78.4956	732.422	77.844	732.422	77.8938	732.422	77.7828	732.422	77.6359	732.422	77.6832	732.422	77.7234	732.422	77.5219	732.422	77.7556	732.422	77.2899	732.422	77.583	732.422	76.9869	732.422	77.4988	732.422	76.7396	732.422	77.601	732.422	76.7936	732.422	77.5394	732.422	77.1726
757.324	82.3844	757.324	81.7588	757.324	82.7183	757.324	80.9686	757.324	82.6872	757.324	80.0893	757.324	82.3359	757.324	79.1729	757.324	81.7774	757.324	78.3167	757.324	81.1023	757.324	77.6787	757.324	80.3662	757.324	77.4504	757.324	79.6672	757.324	77.453	757.324	79.1428	757.324	77.367	757.324	78.7671	757.324	77.3489	757.324	78.3083	757.324	77.6185	757.324	77.7288	757.324	77.8855	757.324	77.4602	757.324	77.7428	757.324	77.7358	757.324	77.1725	757.324	78.0541	757.324	76.5188	757.324	78.0303	757.324	76.1755	757.324	77.7198	757.324	76.2825	757.324	77.2525	757.324	76.7162
785.156	82.1683	785.156	81.4405	785.156	82.5326	785.156	80.4408	785.156	82.5993	785.156	79.4793	785.156	82.4027	785.156	78.8935	785.156	81.8445	785.156	78.6582	785.156	80.8692	785.156	78.3559	785.156	79.6537	785.156	77.6922	785.156	78.4878	785.156	76.9377	785.156	77.5269	785.156	76.5651	785.156	76.8908	785.156	76.4826	785.156	76.7317	785.156	76.479	785.156	76.8394	785.156	76.6288	785.156	76.7331	785.156	76.9174	785.156	76.2295	785.156	77.0394	785.156	75.6581	785.156	76.7011	785.156	75.422	785.156	75.9833	785.156	75.3957	785.156	75.3316	785.156	75.2738	785.156	75.1312
811.523	81.7425	811.523	81.2593	811.523	82.0817	811.523	80.7203	811.523	82.1584	811.523	80.1647	811.523	81.8801	811.523	79.5774	811.523	81.2477	811.523	78.8853	811.523	80.3331	811.523	77.9622	811.523	79.1893	811.523	76.7008	811.523	77.9244	811.523	75.2512	811.523	76.8525	811.523	74.2713	811.523	76.34	811.523	74.4156	811.523	76.4225	811.523	75.3804	811.523	76.7417	811.523	76.3916	811.523	76.9235	811.523	77.0742	811.523	76.8604	811.523	77.4186	811.523	76.6769	811.523	77.494	811.523	76.6097	811.523	77.3926	811.523	76.7908	811.523	77.2628	811.523	77.0453	811.523	77.1816
840.82	82.7057	840.82	82.2087	840.82	82.9718	840.82	81.5491	840.82	83.0258	840.82	80.9042	840.82	82.8604	840.82	80.3811	840.82	82.4159	840.82	79.7961	840.82	81.6659	840.82	78.798	840.82	80.6728	840.82	77.2694	840.82	79.5431	840.82	75.6696	840.82	78.362	840.82	74.8527	840.82	77.2333	840.82	75.0242	840.82	76.3799	840.82	75.5695	840.82	75.915	840.82	76.0794	840.82	75.5843	840.82	76.5458	840.82	75.4531	840.82	76.8795	840.82	75.9123	840.82	76.8839	840.82	76.4603	840.82	76.5414	840.82	76.4979	840.82	76.118	840.82	76.1756	840.82	75.9605
870.117	83.0552	870.117	82.5922	870.117	83.316	870.117	82.0503	870.117	83.3113	870.117	81.6314	870.117	82.9857	870.117	81.3738	870.117	82.3646	870.117	80.9931	870.117	81.5243	870.117	80.1403	870.117	80.4137	870.117	78.6843	870.117	79.0796	870.117	76.8618	870.117	78.0517	870.117	75.4476	870.117	77.702	870.117	75.3864	870.117	77.6672	870.117	76.1608	870.117	77.731	870.117	76.3899	870.117	77.8943	870.117	75.9434	870.117	77.6917	870.117	75.6528	870.117	76.8294	870.117	76.0321	870.117	76.19	870.117	76.7396	870.117	76.7424	870.117	77.3469	870.117	77.49	870.117	77.6623
900.879	82.7072	900.879	82.4261	900.879	82.7334	900.879	81.9895	900.879	82.5561	900.879	81.4636	900.879	82.3727	900.879	80.7646	900.879	82.1666	900.879	79.8029	900.879	81.5769	900.879	78.7343	900.879	80.3924	900.879	77.7085	900.879	78.9287	900.879	76.5349	900.879	77.6883	900.879	75.2042	900.879	76.84	900.879	74.5014	900.879	76.41	900.879	75.3551	900.879	76.2286	900.879	76.8329	900.879	76.3363	900.879	77.7116	900.879	77.0989	900.879	77.723	900.879	78.1157	900.879	77.1341	900.879	78.5104	900.879	76.4784	900.879	78.1321	900.879	76.2953	900.879	77.4116	900.879	76.7055
933.105	82.2404	933.105	81.9543	933.105	82.3137	933.105	81.5153	933.105	82.1882	933.105	80.9554	933.105	81.8173	933.105	80.1764	933.105	81.0034	933.105	79.032	933.105	79.7307	933.105	77.5712	933.105	78.4306	933.105	76.1003	933.105	77.5953	933.105	74.8981	933.105	77.3615	933.105	74.1486	933.105	77.4186	933.105	74.2346	933.105	77.1894	933.105	75.0632	933.105	76.6352	933.105	75.6935	933.105	76.5623	933.105	75.7936	933.105	77.1306	933.105	75.6418	933.105	77.2704	933.105	75.6655	933.105	76.7509	933.105	76.1052	933.105	76.5141	933.105	76.7193	933.105	76.8877	933.105	77.0649
965.332	82.4987	965.332	82.3427	965.332	82.4444	965.332	81.9784	965.332	82.2156	965.332	81.4777	965.332	81.7934	965.332	80.8799	965.332	81.2194	965.332	79.8749	965.332	80.5592	965.332	77.91	965.332	79.5472	965.332	75.3529	965.332	77.8234	965.332	74.1287	965.332	75.6588	965.332	74.3691	965.332	74.3528	965.332	73.5823	965.332	74.9146	965.332	71.7162	965.332	75.5882	965.332	73.2341	965.332	75.1488	965.332	76.1162	965.332	74.8644	965.332	77.624	965.332	76.109	965.332	77.7598	965.332	77.2807	965.332	77.0407	965.332	77.2782	965.332	76.2978	965.332	76.6086	965.332	76.1569
1,000.49	82.3104	1,000.49	82.3482	1,000.49	82.4907	1,000.49	82.5541	1,000.49	82.5714	1,000.49	82.476	1,000.49	82.2716	1,000.49	81.6769	1,000.49	81.4826	1,000.49	80.1207	1,000.49	80.2587	1,000.49	78.3143	1,000.49	78.9373	1,000.49	76.885	1,000.49	77.8369	1,000.49	75.8546	1,000.49	76.7028	1,000.49	74.8118	1,000.49	75.3747	1,000.49	73.8137	1,000.49	74.943	1,000.49	73.2246	1,000.49	75.7815	1,000.49	73.4465	1,000.49	76.5041	1,000.49	74.5769	1,000.49	76.7776	1,000.49	75.8291	1,000.49	76.7368	1,000.49	76.3678	1,000.49	76.2711	1,000.49	76.1898	1,000.49	75.7966	1,000.49	75.8549	1,000.49	75.7436	1,000.49	75.7634
1,035.64	83.6343	1,035.64	83.6283	1,035.64	83.438	1,035.64	83.3798	1,035.64	83.3611	1,035.64	82.9886	1,035.64	83.5096	1,035.64	82.148	1,035.64	83.1496	1,035.64	80.2205	1,035.64	81.7582	1,035.64	77.4196	1,035.64	80.103	1,035.64	75.529	1,035.64	79.009	1,035.64	74.9763	1,035.64	78.0326	1,035.64	74.0492	1,035.64	76.6486	1,035.64	73.3505	1,035.64	75.3823	1,035.64	74.5213	1,035.64	75.3747	1,035.64	75.4514	1,035.64	76.1723	1,035.64	75.2754	1,035.64	76.3191	1,035.64	75.7473	1,035.64	76.3464	1,035.64	77.3155	1,035.64	76.7778	1,035.64	78.2213	1,035.64	76.6845	1,035.64	77.7246	1,035.64	76.1597	1,035.64	76.5337
1,072.27	82.4419	1,072.27	82.4206	1,072.27	82.6635	1,072.27	82.6549	1,072.27	82.7012	1,072.27	82.2534	1,072.27	82.4475	1,072.27	80.6371	1,072.27	81.7396	1,072.27	78.5893	1,072.27	80.527	1,072.27	77.3025	1,072.27	79.3023	1,072.27	76.1119	1,072.27	78.0809	1,072.27	74.1905	1,072.27	75.8869	1,072.27	73.9732	1,072.27	73.6799	1,072.27	73.7295	1,072.27	74.9593	1,072.27	71.9986	1,072.27	76.1316	1,072.27	71.1385	1,072.27	75.491	1,072.27	73.2112	1,072.27	76.2175	1,072.27	74.9799	1,072.27	77.4194	1,072.27	75.8682	1,072.27	76.9419	1,072.27	76.1504	1,072.27	76.1784	1,072.27	76.0771	1,072.27	76.2346	1,072.27	76.1433
1,108.89	82.3849	1,108.89	82.5527	1,108.89	81.6955	1,108.89	82.2264	1,108.89	81.1401	1,108.89	81.5885	1,108.89	81.2638	1,108.89	80.3707	1,108.89	81.3646	1,108.89	78.2205	1,108.89	80.5391	1,108.89	75.8776	1,108.89	79.0004	1,108.89	75.0819	1,108.89	77.1704	1,108.89	75.2367	1,108.89	75.7174	1,108.89	74.3417	1,108.89	74.3078	1,108.89	72.7203	1,108.89	72.3964	1,108.89	72.2742	1,108.89	73.7303	1,108.89	73.4456	1,108.89	75.2571	1,108.89	74.9414	1,108.89	73.687	1,108.89	75.5868	1,108.89	74.5157	1,108.89	75.5445	1,108.89	77.0603	1,108.89	75.4839	1,108.89	76.7272	1,108.89	75.6529	1,108.89	75.565	1,108.89	75.7038
1,148.44	81.92	1,148.44	81.8603	1,148.44	82.0655	1,148.44	81.8754	1,148.44	81.866	1,148.44	81.5533	1,148.44	81.3408	1,148.44	80.6941	1,148.44	80.9647	1,148.44	79.4284	1,148.44	80.5272	1,148.44	78.3097	1,148.44	79.2058	1,148.44	77.7736	1,148.44	77.4156	1,148.44	77.3418	1,148.44	75.9261	1,148.44	76.3567	1,148.44	73.6917	1,148.44	75.0702	1,148.44	71.4466	1,148.44	74.9954	1,148.44	72.9145	1,148.44	75.2336	1,148.44	73.0808	1,148.44	74.0891	1,148.44	73.8818	1,148.44	72.5192	1,148.44	75.7212	1,148.44	72.7019	1,148.44	75.5978	1,148.44	73.5957	1,148.44	75.6678	1,148.44	74.5597	1,148.44	75.9738	1,148.44	75.382
1,189.45	82.4086	1,189.45	81.6604	1,189.45	82.8235	1,189.45	81.0515	1,189.45	82.7618	1,189.45	80.4102	1,189.45	82.2214	1,189.45	78.7398	1,189.45	81.1026	1,189.45	77.1225	1,189.45	79.9716	1,189.45	78.0859	1,189.45	79.26	1,189.45	78.4652	1,189.45	78.0982	1,189.45	75.9308	1,189.45	76.5252	1,189.45	74.5492	1,189.45	76.2018	1,189.45	75.901	1,189.45	75.3951	1,189.45	75.8895	1,189.45	73.717	1,189.45	75.0487	1,189.45	74.9217	1,189.45	74.7797	1,189.45	75.1669	1,189.45	74.5721	1,189.45	73.8345	1,189.45	74.4441	1,189.45	76.1062	1,189.45	75.1165	1,189.45	76.0142	1,189.45	74.8859	1,189.45	74.1301	1,189.45	73.8591
1,230.47	82.8638	1,230.47	82.0518	1,230.47	82.9781	1,230.47	80.9146	1,230.47	82.3511	1,230.47	79.5963	1,230.47	81.5039	1,230.47	78.8039	1,230.47	80.289	1,230.47	78.8454	1,230.47	79.1486	1,230.47	78.5485	1,230.47	79.0702	1,230.47	77.572	1,230.47	78.4251	1,230.47	75.4715	1,230.47	76.2037	1,230.47	71.4629	1,230.47	73.6706	1,230.47	72.8383	1,230.47	72.6931	1,230.47	75.2704	1,230.47	74.2832	1,230.47	75.0747	1,230.47	74.0122	1,230.47	74.8636	1,230.47	73.421	1,230.47	74.9038	1,230.47	75.1961	1,230.47	73.9834	1,230.47	73.9541	1,230.47	73.7877	1,230.47	71.7401	1,230.47	74.3791	1,230.47	72.8975	1,230.47	74.3824
1,274.41	83.3887	1,274.41	83.0044	1,274.41	83.2546	1,274.41	81.8064	1,274.41	82.6523	1,274.41	80.1823	1,274.41	81.5935	1,274.41	79.619	1,274.41	80.551	1,274.41	79.548	1,274.41	79.6588	1,274.41	78.2088	1,274.41	78.2843	1,274.41	75.7642	1,274.41	76.6023	1,274.41	73.833	1,274.41	75.8464	1,274.41	70.5266	1,274.41	74.4868	1,274.41	68.0282	1,274.41	72.4403	1,274.41	72.0851	1,274.41	73.9213	1,274.41	73.7675	1,274.41	75.8134	1,274.41	75.1522	1,274.41	77.0372	1,274.41	75.5455	1,274.41	76.425	1,274.41	75.0767	1,274.41	73.9089	1,274.41	75.443	1,274.41	74.1839	1,274.41	75.9571	1,274.41	74.8166	1,274.41	75.3348
1,319.82	84.0517	1,319.82	83.5396	1,319.82	84.0461	1,319.82	82.7299	1,319.82	83.1476	1,319.82	80.9615	1,319.82	81.8145	1,319.82	78.6044	1,319.82	80.3301	1,319.82	78.6235	1,319.82	78.3943	1,319.82	78.9546	1,319.82	76.2237	1,319.82	75.6023	1,319.82	74.4411	1,319.82	72.6804	1,319.82	72.9452	1,319.82	73.0665	1,319.82	70.4306	1,319.82	68.2498	1,319.82	71.3842	1,319.82	67.0247	1,319.82	72.3351	1,319.82	71.8289	1,319.82	72.5402	1,319.82	74.2163	1,319.82	74.4464	1,319.82	74.8338	1,319.82	74.8406	1,319.82	73.6578	1,319.82	75.3487	1,319.82	73.2462	1,319.82	75.239	1,319.82	75.4534	1,319.82	75.8287	1,319.82	76.6954
1,366.7	84.1157	1,366.7	83.8444	1,366.7	83.73	1,366.7	82.5342	1,366.7	83.157	1,366.7	80.8143	1,366.7	82.4958	1,366.7	79.3661	1,366.7	81.0317	1,366.7	77.0197	1,366.7	78.871	1,366.7	75.6301	1,366.7	76.3949	1,366.7	73.956	1,366.7	74.4997	1,366.7	71.5631	1,366.7	75.5011	1,366.7	72.3877	1,366.7	74.9705	1,366.7	70.5528	1,366.7	69.8588	1,366.7	59.8811	1,366.7	72.8231	1,366.7	72.1816	1,366.7	73.2784	1,366.7	74.8368	1,366.7	74.5597	1,366.7	74.9057	1,366.7	74.9017	1,366.7	74.1394	1,366.7	73.4003	1,366.7	73.5673	1,366.7	76.0538	1,366.7	75.15	1,366.7	76.6233	1,366.7	76.4317
1,413.57	83.669	1,413.57	83.4461	1,413.57	84.241	1,413.57	82.3866	1,413.57	84.2309	1,413.57	79.906	1,413.57	82.4272	1,413.57	79.1736	1,413.57	80.0603	1,413.57	78.911	1,413.57	77.8697	1,413.57	71.5484	1,413.57	75.1999	1,413.57	61.5898	1,413.57	74.662	1,413.57	71.2966	1,413.57	73.9871	1,413.57	69.7776	1,413.57	71.955	1,413.57	64.9829	1,413.57	74.629	1,413.57	65.3202	1,413.57	73.0531	1,413.57	60.4244	1,413.57	71.5909	1,413.57	70.063	1,413.57	72.2355	1,413.57	74.7814	1,413.57	75.2269	1,413.57	76.8139	1,413.57	78.4449	1,413.57	76.5259	1,413.57	76.5348	1,413.57	74.892	1,413.57	75.515	1,413.57	75.0435
1,463.38	83.3373	1,463.38	83.0588	1,463.38	83.5847	1,463.38	82.495	1,463.38	83.4266	1,463.38	81.6076	1,463.38	82.3622	1,463.38	79.3741	1,463.38	81.1032	1,463.38	73.6268	1,463.38	79.0243	1,463.38	71.5745	1,463.38	76.2673	1,463.38	74.0731	1,463.38	73.5436	1,463.38	73.123	1,463.38	72.0279	1,463.38	71.1537	1,463.38	70.592	1,463.38	72.9313	1,463.38	70.3534	1,463.38	73.9517	1,463.38	70.8158	1,463.38	66.7557	1,463.38	69.6609	1,463.38	64.4539	1,463.38	73.1971	1,463.38	71.6384	1,463.38	68.9821	1,463.38	72.5221	1,463.38	72.8074	1,463.38	73.0575	1,463.38	75.1679	1,463.38	73.7938	1,463.38	75.2749	1,463.38	74.9431
1,516.11	83.7455	1,516.11	83.3658	1,516.11	84.1354	1,516.11	82.6755	1,516.11	84.0166	1,516.11	81.5048	1,516.11	82.8455	1,516.11	80.0495	1,516.11	81.0369	1,516.11	77.1545	1,516.11	79.1411	1,516.11	72.0384	1,516.11	76.1806	1,516.11	71.2706	1,516.11	73.0001	1,516.11	74.4576	1,516.11	73.2143	1,516.11	73.3737	1,516.11	71.6102	1,516.11	73.7934	1,516.11	66.5308	1,516.11	73.3661	1,516.11	70.4757	1,516.11	69.9482	1,516.11	69.409	1,516.11	66.261	1,516.11	71.3007	1,516.11	71.2178	1,516.11	68.1991	1,516.11	74.1374	1,516.11	71.694	1,516.11	73.8989	1,516.11	72.1868	1,516.11	73.9208	1,516.11	72.6785	1,516.11	74.0255
1,568.85	84.16	1,568.85	82.9545	1,568.85	84.5079	1,568.85	82.0409	1,568.85	83.6971	1,568.85	81.2329	1,568.85	82.6588	1,568.85	78.9629	1,568.85	81.1232	1,568.85	75.791	1,568.85	78.4009	1,568.85	75.2725	1,568.85	76.0332	1,568.85	74.6796	1,568.85	73.7578	1,568.85	71.5663	1,568.85	70.1847	1,568.85	69.2093	1,568.85	58.8238	1,568.85	71.8512	1,568.85	64.4349	1,568.85	73.6485	1,568.85	69.4149	1,568.85	71.7355	1,568.85	73.3748	1,568.85	68.4746	1,568.85	74.0783	1,568.85	67.0095	1,568.85	73.0711	1,568.85	71.7726	1,568.85	69.0266	1,568.85	70.2733	1,568.85	69.1545	1,568.85	71.2303	1,568.85	73.9598	1,568.85	74.1303
1,624.51	84.4795	1,624.51	82.7325	1,624.51	85.0548	1,624.51	81.5304	1,624.51	83.9625	1,624.51	80.6578	1,624.51	82.6658	1,624.51	79.0263	1,624.51	81.1036	1,624.51	77.9088	1,624.51	78.1958	1,624.51	73.5003	1,624.51	76.1828	1,624.51	69.5891	1,624.51	72.7287	1,624.51	71.3357	1,624.51	70.9241	1,624.51	70.6559	1,624.51	69.0898	1,624.51	69.8936	1,624.51	68.6231	1,624.51	69.6693	1,624.51	70.3895	1,624.51	66.8751	1,624.51	68.336	1,624.51	68.9849	1,624.51	68.9282	1,624.51	66.447	1,624.51	68.7024	1,624.51	70.739	1,624.51	71.8275	1,624.51	73.2116	1,624.51	72.2856	1,624.51	72.0326	1,624.51	72.3557	1,624.51	71.5079
1,681.64	85.0593	1,681.64	84.1741	1,681.64	85.1268	1,681.64	82.7723	1,681.64	84.3022	1,681.64	80.6682	1,681.64	82.6313	1,681.64	78.9506	1,681.64	80.0332	1,681.64	77.6049	1,681.64	77.9754	1,681.64	74.3487	1,681.64	75.1666	1,681.64	69.0291	1,681.64	72.1533	1,681.64	61.0753	1,681.64	71.0987	1,681.64	63.5179	1,681.64	67.3029	1,681.64	59.6909	1,681.64	67.1343	1,681.64	67.0577	1,681.64	69.481	1,681.64	68.2734	1,681.64	66.2994	1,681.64	67.5976	1,681.64	67.5892	1,681.64	66.5474	1,681.64	70.16	1,681.64	65.9063	1,681.64	71.4465	1,681.64	71.1576	1,681.64	71.2549	1,681.64	72.2828	1,681.64	72.3225	1,681.64	72.0282
1,741.7	85.0222	1,741.7	84.7066	1,741.7	85.2106	1,741.7	83.8813	1,741.7	84.0714	1,741.7	81.1132	1,741.7	82.3746	1,741.7	78.6655	1,741.7	80.0541	1,741.7	77.4694	1,741.7	77.4831	1,741.7	72.8706	1,741.7	74.4967	1,741.7	72.0055	1,741.7	69.5083	1,741.7	72.3306	1,741.7	66.8821	1,741.7	69.0074	1,741.7	65.9247	1,741.7	67.905	1,741.7	65.614	1,741.7	66.3034	1,741.7	67.4345	1,741.7	60.8555	1,741.7	63.8597	1,741.7	64.4572	1,741.7	65.93	1,741.7	68.7474	1,741.7	71.735	1,741.7	66.9417	1,741.7	72.5807	1,741.7	71.6271	1,741.7	73.5011	1,741.7	73.648	1,741.7	73.2047	1,741.7	72.4538
1,803.22	84.8977	1,803.22	84.9865	1,803.22	85.2131	1,803.22	84.3096	1,803.22	84.8923	1,803.22	81.5006	1,803.22	83.4264	1,803.22	79.2754	1,803.22	79.9208	1,803.22	76.9439	1,803.22	76.3502	1,803.22	74.2357	1,803.22	73.0864	1,803.22	73.5835	1,803.22	70.563	1,803.22	68.8904	1,803.22	66.3168	1,803.22	65.7862	1,803.22	59.7576	1,803.22	64.2961	1,803.22	55.0689	1,803.22	65.5741	1,803.22	59.3353	1,803.22	68.2964	1,803.22	54.4256	1,803.22	65.7871	1,803.22	67.5122	1,803.22	67.8392	1,803.22	70.0283	1,803.22	70.0222	1,803.22	71.4722	1,803.22	71.7453	1,803.22	72.8898	1,803.22	74.5091	1,803.22	73.2273	1,803.22	74.5854
1,866.21	84.2714	1,866.21	84.5337	1,866.21	84.1849	1,866.21	83.9017	1,866.21	84.1125	1,866.21	82.2621	1,866.21	82.7763	1,866.21	79.9776	1,866.21	79.9581	1,866.21	76.3731	1,866.21	76.2727	1,866.21	74.727	1,866.21	72.0399	1,866.21	72.787	1,866.21	69.396	1,866.21	67.7538	1,866.21	68.303	1,866.21	68.9707	1,866.21	66.2262	1,866.21	68.1002	1,866.21	57.7109	1,866.21	63.7561	1,866.21	54.1078	1,866.21	67.4313	1,866.21	63.641	1,866.21	69.5003	1,866.21	67.0638	1,866.21	67.8423	1,866.21	68.2741	1,866.21	71.4516	1,866.21	70.4098	1,866.21	72.4057	1,866.21	72.8664	1,866.21	73.8864	1,866.21	73.5229	1,866.21	73.7734
1,932.13	84.4875	1,932.13	84.0517	1,932.13	83.5054	1,932.13	83.2416	1,932.13	83.0287	1,932.13	82.8938	1,932.13	82.2936	1,932.13	79.9321	1,932.13	79.8768	1,932.13	76.1826	1,932.13	76.4542	1,932.13	75.4827	1,932.13	71.3884	1,932.13	72.1094	1,932.13	67.6856	1,932.13	71.521	1,932.13	67.6073	1,932.13	70.9078	1,932.13	67.6392	1,932.13	66.0638	1,932.13	62.0935	1,932.13	66.2457	1,932.13	61.5418	1,932.13	64.3551	1,932.13	64.6866	1,932.13	68.9435	1,932.13	67.6137	1,932.13	70.4703	1,932.13	68.8462	1,932.13	69.2719	1,932.13	69.7362	1,932.13	72.0748	1,932.13	71.4969	1,932.13	72.4754	1,932.13	72.3793	1,932.13	72.4891
1,999.51	85.1775	1,999.51	83.9921	1,999.51	84.3763	1,999.51	83.0913	1,999.51	82.4258	1,999.51	82.473	1,999.51	81.4341	1,999.51	80.3922	1,999.51	80.1139	1,999.51	78.0192	1,999.51	77.3482	1,999.51	75.0218	1,999.51	72.2857	1,999.51	73.0137	1,999.51	70.0813	1,999.51	73.1411	1,999.51	69.8885	1,999.51	71.6416	1,999.51	63.326	1,999.51	71.064	1,999.51	63.9076	1,999.51	68.6317	1,999.51	65.0654	1,999.51	65.6125	1,999.51	65.9059	1,999.51	69.2553	1,999.51	67.7365	1,999.51	73.0784	1,999.51	66.9918	1,999.51	71.9031	1,999.51	68.2931	1,999.51	72.3019	1,999.51	69.6699	1,999.51	72.532	1,999.51	72.0875	1,999.51	72.8657
2,069.82	85.2448	2,069.82	84.7996	2,069.82	84.9826	2,069.82	83.2269	2,069.82	82.7942	2,069.82	81.5044	2,069.82	80.6493	2,069.82	80.6673	2,069.82	79.7006	2,069.82	78.4025	2,069.82	77.6398	2,069.82	76.8708	2,069.82	74.9198	2,069.82	74.6018	2,069.82	72.6621	2,069.82	71.5296	2,069.82	68.4607	2,069.82	67.3171	2,069.82	65.5598	2,069.82	69.0303	2,069.82	66.4773	2,069.82	71.4463	2,069.82	66.8179	2,069.82	69.4762	2,069.82	70.0578	2,069.82	66.8739	2,069.82	68.3702	2,069.82	71.0031	2,069.82	66.2315	2,069.82	69.8916	2,069.82	66.685	2,069.82	70.7021	2,069.82	68.2047	2,069.82	72.9811	2,069.82	72.2674	2,069.82	73.8987
2,143.07	84.7593	2,143.07	85.1978	2,143.07	84.9053	2,143.07	83.8607	2,143.07	83.2416	2,143.07	81.0355	2,143.07	79.6111	2,143.07	80.2733	2,143.07	78.7523	2,143.07	79.9802	2,143.07	77.5418	2,143.07	77.5758	2,143.07	77.0833	2,143.07	75.639	2,143.07	74.9241	2,143.07	75.1244	2,143.07	69.4148	2,143.07	72.374	2,143.07	70.0111	2,143.07	72.4393	2,143.07	69.3593	2,143.07	70.7385	2,143.07	69.2558	2,143.07	71.0165	2,143.07	70.5832	2,143.07	67.5533	2,143.07	69.3039	2,143.07	71.1834	2,143.07	66.3778	2,143.07	73.262	2,143.07	66.6732	2,143.07	71.5882	2,143.07	69.1028	2,143.07	73.4098	2,143.07	73.2972	2,143.07	74.7235
2,219.24	83.4421	2,219.24	84.4728	2,219.24	83.1035	2,219.24	84.1506	2,219.24	82.9475	2,219.24	82.5937	2,219.24	80.3307	2,219.24	80.9219	2,219.24	78.4175	2,219.24	80.325	2,219.24	77.2811	2,219.24	78.4793	2,219.24	78.0274	2,219.24	76.6308	2,219.24	75.8473	2,219.24	73.4434	2,219.24	71.3873	2,219.24	74.1209	2,219.24	69.6098	2,219.24	71.3746	2,219.24	70.9131	2,219.24	71.7443	2,219.24	72.9851	2,219.24	71.2548	2,219.24	70.9322	2,219.24	70.2332	2,219.24	69.1065	2,219.24	70.0154	2,219.24	69.2543	2,219.24	73.732	2,219.24	69.7306	2,219.24	72.2951	2,219.24	70.9753	2,219.24	72.1016	2,219.24	73.2139	2,219.24	73.8431
2,296.88	82.8597	2,296.88	84.0411	2,296.88	81.6844	2,296.88	84.5051	2,296.88	81.3009	2,296.88	84.5922	2,296.88	80.0776	2,296.88	81.8681	2,296.88	79.0414	2,296.88	79.431	2,296.88	77.8402	2,296.88	78.1732	2,296.88	77.6305	2,296.88	77.0769	2,296.88	76.0011	2,296.88	75.3016	2,296.88	72.9866	2,296.88	74.5107	2,296.88	69.2075	2,296.88	72.8184	2,296.88	68.4868	2,296.88	70.2993	2,296.88	73.4249	2,296.88	71.0324	2,296.88	72.0583	2,296.88	69.9473	2,296.88	70.753	2,296.88	69.8473	2,296.88	69.8987	2,296.88	73.8148	2,296.88	68.7696	2,296.88	74.8997	2,296.88	68.9763	2,296.88	71.6144	2,296.88	72.1915	2,296.88	72.5277
2,378.91	84.0303	2,378.91	84.4664	2,378.91	81.1433	2,378.91	83.8739	2,378.91	80.2293	2,378.91	84.2729	2,378.91	80.8406	2,378.91	81.6585	2,378.91	80.5892	2,378.91	79.5073	2,378.91	79.5203	2,378.91	79.2594	2,378.91	78.9384	2,378.91	78.7489	2,378.91	76.7938	2,378.91	74.7071	2,378.91	75.8191	2,378.91	71.1639	2,378.91	73.5911	2,378.91	73.2803	2,378.91	72.566	2,378.91	73.6582	2,378.91	69.3066	2,378.91	70.6537	2,378.91	72.5711	2,378.91	69.0114	2,378.91	72.2153	2,378.91	70.6873	2,378.91	70.618	2,378.91	74.4503	2,378.91	68.9084	2,378.91	74.5768	2,378.91	62.3727	2,378.91	71.0533	2,378.91	67.9369	2,378.91	71.4556
2,462.4	85.964	2,462.4	86.1771	2,462.4	83.0084	2,462.4	85.6411	2,462.4	78.8284	2,462.4	83.9584	2,462.4	78.5821	2,462.4	82.5053	2,462.4	79.8866	2,462.4	81.4345	2,462.4	80.1921	2,462.4	79.8013	2,462.4	79.5811	2,462.4	77.4706	2,462.4	78.1327	2,462.4	76.2566	2,462.4	75.9152	2,462.4	75.5519	2,462.4	75.3336	2,462.4	74.9123	2,462.4	74.2472	2,462.4	72.9436	2,462.4	73.4038	2,462.4	72.5105	2,462.4	71.1796	2,462.4	69.716	2,462.4	73.0301	2,462.4	70.3831	2,462.4	70.7081	2,462.4	72.4579	2,462.4	69.6588	2,462.4	75.6384	2,462.4	65.0658	2,462.4	72.9594	2,462.4	70.8283	2,462.4	72.8855
2,548.83	85.9831	2,548.83	86.9673	2,548.83	83.7829	2,548.83	86.6769	2,548.83	79.802	2,548.83	83.6013	2,548.83	77.4663	2,548.83	83.855	2,548.83	78.9594	2,548.83	82.4099	2,548.83	79.7062	2,548.83	78.8609	2,548.83	79.9024	2,548.83	76.2797	2,548.83	76.2746	2,548.83	72.9984	2,548.83	76.6963	2,548.83	71.328	2,548.83	76.4736	2,548.83	72.3213	2,548.83	69.7832	2,548.83	73.7542	2,548.83	74.2546	2,548.83	73.6489	2,548.83	71.0469	2,548.83	70.2306	2,548.83	71.5557	2,548.83	69.8685	2,548.83	72.5558	2,548.83	72.5091	2,548.83	68.3359	2,548.83	76.0153	2,548.83	67.0357	2,548.83	74.2545	2,548.83	72.1569	2,548.83	72.523
2,639.65	85.1714	2,639.65	86.6987	2,639.65	83.1428	2,639.65	86.3586	2,639.65	80.5933	2,639.65	85.6479	2,639.65	79.14	2,639.65	84.3808	2,639.65	78.6666	2,639.65	81.5317	2,639.65	79.5581	2,639.65	78.1596	2,639.65	78.345	2,639.65	74.9701	2,639.65	76.6588	2,639.65	74.5485	2,639.65	78.9563	2,639.65	73.8358	2,639.65	76.7406	2,639.65	65.9837	2,639.65	71.4952	2,639.65	67.684	2,639.65	66.5934	2,639.65	73.3564	2,639.65	70.7708	2,639.65	72.501	2,639.65	69.8086	2,639.65	68.3728	2,639.65	72.2803	2,639.65	73.0454	2,639.65	70.6383	2,639.65	75.8259	2,639.65	63.9485	2,639.65	74.8566	2,639.65	72.8655	2,639.65	73.0497
2,731.93	84.5144	2,731.93	85.2715	2,731.93	82.2662	2,731.93	85.0113	2,731.93	80.1465	2,731.93	85.9497	2,731.93	80.0842	2,731.93	82.9086	2,731.93	80.188	2,731.93	80.8952	2,731.93	79.6969	2,731.93	77.8893	2,731.93	79.1481	2,731.93	76.3889	2,731.93	78.4592	2,731.93	70.1206	2,731.93	78.9884	2,731.93	66.0508	2,731.93	76.134	2,731.93	65.7481	2,731.93	70.5774	2,731.93	69.208	2,731.93	69.3421	2,731.93	71.0474	2,731.93	73.8472	2,731.93	71.2652	2,731.93	73.8964	2,731.93	65.6181	2,731.93	70.7159	2,731.93	71.8558	2,731.93	69.2083	2,731.93	74.8495	2,731.93	58.9252	2,731.93	73.2597	2,731.93	73.0415	2,731.93	68.6331
2,828.61	85.4103	2,828.61	85.39	2,828.61	83.2052	2,828.61	85.3478	2,828.61	80.5591	2,828.61	85.15	2,828.61	80.215	2,828.61	82.9842	2,828.61	81.73	2,828.61	80.501	2,828.61	80.9828	2,828.61	78.5682	2,828.61	80.1674	2,828.61	77.005	2,828.61	78.9655	2,828.61	72.2685	2,828.61	78.6632	2,828.61	71.609	2,828.61	75.8215	2,828.61	73.9521	2,828.61	67.7992	2,828.61	69.1333	2,828.61	66.6141	2,828.61	70.8174	2,828.61	77.5885	2,828.61	73.4551	2,828.61	73.7091	2,828.61	68.3514	2,828.61	73.3414	2,828.61	68.5136	2,828.61	66.0609	2,828.61	73.6198	2,828.61	63.5546	2,828.61	74.01	2,828.61	72.9031	2,828.61	71.9093
2,928.22	86.0221	2,928.22	86.6388	2,928.22	83.1252	2,928.22	87.0603	2,928.22	80.8481	2,928.22	84.7741	2,928.22	80.5536	2,928.22	83.7718	2,928.22	81.476	2,928.22	79.4821	2,928.22	82.5634	2,928.22	77.1782	2,928.22	80.0716	2,928.22	73.5734	2,928.22	79.9023	2,928.22	75.8466	2,928.22	77.0091	2,928.22	75.6454	2,928.22	72.3533	2,928.22	69.7795	2,928.22	69.4086	2,928.22	69.2217	2,928.22	71.2194	2,928.22	66.2903	2,928.22	77.4607	2,928.22	72.8113	2,928.22	72.5278	2,928.22	70.8577	2,928.22	73.2157	2,928.22	68.5917	2,928.22	64.5666	2,928.22	74.1411	2,928.22	66.1338	2,928.22	75.3012	2,928.22	70.3033	2,928.22	71.6502
3,030.76	86.2431	3,030.76	86.6738	3,030.76	82.6859	3,030.76	87.2757	3,030.76	79.0206	3,030.76	85.6593	3,030.76	80.5819	3,030.76	82.2728	3,030.76	81.842	3,030.76	79.1545	3,030.76	83.3518	3,030.76	76.6778	3,030.76	80.4778	3,030.76	75.6193	3,030.76	80.5199	3,030.76	76.8904	3,030.76	75.9005	3,030.76	69.9623	3,030.76	65.9254	3,030.76	69.808	3,030.76	64.6376	3,030.76	68.3846	3,030.76	74.1789	3,030.76	68.1819	3,030.76	75.2025	3,030.76	70.5177	3,030.76	75.6517	3,030.76	70.7257	3,030.76	70.6619	3,030.76	67.267	3,030.76	61.9611	3,030.76	74.4311	3,030.76	66.3983	3,030.76	73.7721	3,030.76	73.5965	3,030.76	71.2276
3,137.7	86.0852	3,137.7	86.3725	3,137.7	84.003	3,137.7	87.7252	3,137.7	77.4227	3,137.7	85.504	3,137.7	79.2786	3,137.7	81.7207	3,137.7	82.6134	3,137.7	79.2681	3,137.7	83.1668	3,137.7	78.036	3,137.7	80.4838	3,137.7	77.5637	3,137.7	79.2603	3,137.7	72.4295	3,137.7	73.6051	3,137.7	71.486	3,137.7	69.1845	3,137.7	74.3015	3,137.7	71.3754	3,137.7	69.7969	3,137.7	70.363	3,137.7	66.9838	3,137.7	75.4227	3,137.7	71.556	3,137.7	74.6246	3,137.7	69.9521	3,137.7	71.1359	3,137.7	68.7698	3,137.7	64.5949	3,137.7	73.0171	3,137.7	66.6226	3,137.7	75.2212	3,137.7	73.2277	3,137.7	70.4849
3,249.02	85.2779	3,249.02	87.0908	3,249.02	83.8371	3,249.02	87.0111	3,249.02	79.7659	3,249.02	85.1269	3,249.02	80.3187	3,249.02	81.9252	3,249.02	82.9382	3,249.02	78.6483	3,249.02	83.7051	3,249.02	79.3874	3,249.02	82.7034	3,249.02	74.2812	3,249.02	80.7063	3,249.02	75.9795	3,249.02	72.4715	3,249.02	75.1365	3,249.02	71.5683	3,249.02	70.782	3,249.02	71.4732	3,249.02	73.4346	3,249.02	73.5851	3,249.02	70.1259	3,249.02	74.396	3,249.02	72.2883	3,249.02	75.568	3,249.02	72.1355	3,249.02	71.1994	3,249.02	70.1959	3,249.02	67.0962	3,249.02	72.3548	3,249.02	66.2287	3,249.02	76.1249	3,249.02	73.2151	3,249.02	70.8077
3,363.28	85.574	3,363.28	87.1481	3,363.28	83.2412	3,363.28	86.0041	3,363.28	79.1034	3,363.28	83.436	3,363.28	80.1246	3,363.28	81.5676	3,363.28	82.9458	3,363.28	81.1203	3,363.28	83.4403	3,363.28	79.1994	3,363.28	84.0139	3,363.28	77.3013	3,363.28	81.759	3,363.28	78.7142	3,363.28	75.6284	3,363.28	73.1637	3,363.28	76.1342	3,363.28	71.6556	3,363.28	74.693	3,363.28	71.5227	3,363.28	72.7932	3,363.28	72.8512	3,363.28	73.9766	3,363.28	67.5597	3,363.28	75.2604	3,363.28	72.5546	3,363.28	70.8591	3,363.28	66.9564	3,363.28	64.721	3,363.28	71.6451	3,363.28	65.5632	3,363.28	75.1799	3,363.28	71.5697	3,363.28	69.7792
3,481.93	84.9651	3,481.93	86.8409	3,481.93	82.7975	3,481.93	86.4537	3,481.93	79.3834	3,481.93	82.8076	3,481.93	79.8685	3,481.93	81.62	3,481.93	83.709	3,481.93	81.3778	3,481.93	82.5391	3,481.93	78.6403	3,481.93	83.801	3,481.93	78.0419	3,481.93	81.7823	3,481.93	73.4212	3,481.93	79.3414	3,481.93	71.4438	3,481.93	77.9898	3,481.93	73.3732	3,481.93	76.9348	3,481.93	68.2912	3,481.93	73.8475	3,481.93	71.9788	3,481.93	71.6608	3,481.93	66.5533	3,481.93	73.9423	3,481.93	71.6325	3,481.93	71.3359	3,481.93	67.6175	3,481.93	63.8479	3,481.93	71.8668	3,481.93	67.172	3,481.93	74.9871	3,481.93	72.0136	3,481.93	69.0889
3,604.98	85.7614	3,604.98	86.5681	3,604.98	81.926	3,604.98	85.8367	3,604.98	78.4871	3,604.98	83.6176	3,604.98	79.3304	3,604.98	82.0488	3,604.98	84.1155	3,604.98	81.0672	3,604.98	82.656	3,604.98	79.4082	3,604.98	84.7167	3,604.98	76.9796	3,604.98	79.852	3,604.98	72.1648	3,604.98	78.2493	3,604.98	74.3927	3,604.98	79.318	3,604.98	71.706	3,604.98	77.375	3,604.98	71.7156	3,604.98	76.9376	3,604.98	70.1032	3,604.98	66.1048	3,604.98	67.4608	3,604.98	74.0666	3,604.98	72.2401	3,604.98	69.2505	3,604.98	69.7425	3,604.98	62.3575	3,604.98	70.0733	3,604.98	67.0186	3,604.98	74.5956	3,604.98	70.6077	3,604.98	70.7536
3,732.42	86.6839	3,732.42	87.1942	3,732.42	84.2577	3,732.42	84.1161	3,732.42	79.3982	3,732.42	83.0605	3,732.42	78.1633	3,732.42	82.499	3,732.42	82.7203	3,732.42	80.4893	3,732.42	84.2896	3,732.42	77.9072	3,732.42	85.5239	3,732.42	74.6806	3,732.42	81.5455	3,732.42	74.3089	3,732.42	76.6135	3,732.42	71.6032	3,732.42	75.7276	3,732.42	67.0798	3,732.42	76.5447	3,732.42	71.1271	3,732.42	75.0331	3,732.42	70.4303	3,732.42	70.0087	3,732.42	63.2805	3,732.42	72.0254	3,732.42	70.9695	3,732.42	69.8593	3,732.42	68.6098	3,732.42	48.0204	3,732.42	69.7587	3,732.42	70.1139	3,732.42	73.594	3,732.42	69.8395	3,732.42	73.5278
3,864.26	85.1327	3,864.26	86.164	3,864.26	84.5256	3,864.26	84.4752	3,864.26	82.4331	3,864.26	83.4933	3,864.26	78.1982	3,864.26	82.4709	3,864.26	82.2147	3,864.26	79.4957	3,864.26	85.1213	3,864.26	76.9776	3,864.26	84.0551	3,864.26	76.988	3,864.26	80.0362	3,864.26	74.0794	3,864.26	69.5024	3,864.26	68.4047	3,864.26	63.3994	3,864.26	70.0034	3,864.26	73.2551	3,864.26	71.6885	3,864.26	72.9528	3,864.26	71.4236	3,864.26	68.5844	3,864.26	68.1659	3,864.26	72.6519	3,864.26	69.518	3,864.26	66.829	3,864.26	70.9813	3,864.26	59.1038	3,864.26	68.3277	3,864.26	71.2287	3,864.26	73.8265	3,864.26	71.2085	3,864.26	72.9629
4,000.49	84.5315	4,000.49	84.9039	4,000.49	82.5026	4,000.49	84.193	4,000.49	83.0163	4,000.49	84.0867	4,000.49	81.3091	4,000.49	81.9525	4,000.49	81.4887	4,000.49	79.9844	4,000.49	84.9809	4,000.49	78.7498	4,000.49	82.8655	4,000.49	76.9936	4,000.49	77.1929	4,000.49	74.0365	4,000.49	76.5816	4,000.49	74.1368	4,000.49	71.684	4,000.49	71.2069	4,000.49	64.1664	4,000.49	69.5572	4,000.49	63.9001	4,000.49	69.9745	4,000.49	61.307	4,000.49	70.9783	4,000.49	71.9646	4,000.49	65.7498	4,000.49	68.9157	4,000.49	72.7698	4,000.49	49.7385	4,000.49	67.4669	4,000.49	67.6249	4,000.49	73.4354	4,000.49	65.909	4,000.49	72.2058
4,141.11	85.1085	4,141.11	85.3864	4,141.11	83.1727	4,141.11	84.3626	4,141.11	82.1677	4,141.11	84.1944	4,141.11	82.2725	4,141.11	81.9292	4,141.11	80.7301	4,141.11	79.1766	4,141.11	84.9432	4,141.11	78.1761	4,141.11	80.6693	4,141.11	75.4111	4,141.11	72.1998	4,141.11	76.113	4,141.11	78.0453	4,141.11	73.7927	4,141.11	72.1451	4,141.11	67.9424	4,141.11	66.4541	4,141.11	67.6414	4,141.11	69.3727	4,141.11	71.2894	4,141.11	70.7334	4,141.11	71.0216	4,141.11	71.5364	4,141.11	61.687	4,141.11	66.1241	4,141.11	72.3559	4,141.11	61.1463	4,141.11	68.6149	4,141.11	67.2496	4,141.11	72.3134	4,141.11	68.1657	4,141.11	71.7675
4,287.6	83.9973	4,287.6	84.0016	4,287.6	81.8479	4,287.6	83.9314	4,287.6	82.0372	4,287.6	83.3802	4,287.6	81.6036	4,287.6	79.3731	4,287.6	81.2953	4,287.6	80.5054	4,287.6	83.9382	4,287.6	78.1854	4,287.6	77.1985	4,287.6	76.7627	4,287.6	77.7596	4,287.6	72.6785	4,287.6	76.4103	4,287.6	69.3861	4,287.6	62.1867	4,287.6	71.0206	4,287.6	61.2705	4,287.6	66.0803	4,287.6	67.9681	4,287.6	70.1093	4,287.6	73.7331	4,287.6	70.4908	4,287.6	71.0696	4,287.6	62.6397	4,287.6	64.7454	4,287.6	71.8504	4,287.6	62.2249	4,287.6	70.8935	4,287.6	68.754	4,287.6	70.8943	4,287.6	69.9239	4,287.6	70.5827
4,438.48	84.8435	4,438.48	84.0354	4,438.48	81.6476	4,438.48	85.2533	4,438.48	82.0359	4,438.48	82.518	4,438.48	80.722	4,438.48	82.302	4,438.48	81.3933	4,438.48	80.3842	4,438.48	82.5471	4,438.48	78.47	4,438.48	76.3557	4,438.48	76.2542	4,438.48	79.2226	4,438.48	74.8354	4,438.48	73.7371	4,438.48	73.0223	4,438.48	59.4792	4,438.48	71.0941	4,438.48	59.6176	4,438.48	70.7981	4,438.48	67.854	4,438.48	66.3317	4,438.48	73.1089	4,438.48	72.07	4,438.48	69.738	4,438.48	67.3174	4,438.48	61.1734	4,438.48	69.8564	4,438.48	53.3785	4,438.48	72.2964	4,438.48	66.0929	4,438.48	70.6792	4,438.48	70.0402	4,438.48	72.2133
4,595.21	83.9855	4,595.21	84.7086	4,595.21	81.9681	4,595.21	84.7901	4,595.21	80.103	4,595.21	83.1721	4,595.21	81.1675	4,595.21	80.515	4,595.21	81.1289	4,595.21	79.1803	4,595.21	81.0855	4,595.21	77.9582	4,595.21	79.4043	4,595.21	74.549	4,595.21	79.6085	4,595.21	74.2517	4,595.21	71.2769	4,595.21	71.3228	4,595.21	64.8848	4,595.21	70.519	4,595.21	64.0847	4,595.21	68.2229	4,595.21	71.7624	4,595.21	66.7276	4,595.21	71.4819	4,595.21	69.8266	4,595.21	66.6579	4,595.21	66.6624	4,595.21	65.2617	4,595.21	67.819	4,595.21	61.4167	4,595.21	71.5712	4,595.21	67.2293	4,595.21	70.6043	4,595.21	67.1111	4,595.21	72.1787
4,756.35	85.2246	4,756.35	84.582	4,756.35	82.4631	4,756.35	84.5029	4,756.35	78.9931	4,756.35	81.6021	4,756.35	82.2577	4,756.35	81.4955	4,756.35	82.4765	4,756.35	79.2969	4,756.35	81.2856	4,756.35	77.5624	4,756.35	80.8809	4,756.35	75.8418	4,756.35	78.0911	4,756.35	73.2223	4,756.35	72.3791	4,756.35	69.2447	4,756.35	68.9946	4,756.35	69.5093	4,756.35	64.2076	4,756.35	71.999	4,756.35	72.436	4,756.35	70.9151	4,756.35	72.7955	4,756.35	66.4722	4,756.35	64.0927	4,756.35	70.2309	4,756.35	65.1091	4,756.35	66.5243	4,756.35	60.7749	4,756.35	72.5117	4,756.35	64.3751	4,756.35	70.7921	4,756.35	65.602	4,756.35	72.2989
4,924.8	85.4276	4,924.8	85.4605	4,924.8	85.0125	4,924.8	84.0578	4,924.8	80.6353	4,924.8	82.5028	4,924.8	82.4105	4,924.8	81.4507	4,924.8	83.3121	4,924.8	79.5685	4,924.8	81.0629	4,924.8	78.2891	4,924.8	81.567	4,924.8	75.5407	4,924.8	77.0377	4,924.8	75.8899	4,924.8	75.9095	4,924.8	72.6847	4,924.8	69.6968	4,924.8	69.4989	4,924.8	64.6716	4,924.8	71.1556	4,924.8	70.0218	4,924.8	70.0567	4,924.8	73.0824	4,924.8	64.698	4,924.8	70.9143	4,924.8	71.5996	4,924.8	65.2546	4,924.8	63.1656	4,924.8	55.1914	4,924.8	72.3709	4,924.8	63.2339	4,924.8	69.184	4,924.8	65.9174	4,924.8	72.6795
5,097.66	85.0556	5,097.66	85.8635	5,097.66	86.5127	5,097.66	84.3019	5,097.66	82.7518	5,097.66	83.3357	5,097.66	82.2821	5,097.66	79.8542	5,097.66	83.4804	5,097.66	78.8493	5,097.66	81.4002	5,097.66	78.9457	5,097.66	79.0342	5,097.66	77.1057	5,097.66	76.9686	5,097.66	75.4016	5,097.66	75.1581	5,097.66	72.1128	5,097.66	57.404	5,097.66	69.3085	5,097.66	68.665	5,097.66	66.6543	5,097.66	69.8855	5,097.66	72.81	5,097.66	71.3364	5,097.66	64.7735	5,097.66	71.7986	5,097.66	71.6777	5,097.66	63.333	5,097.66	65.561	5,097.66	63.606	5,097.66	72.8558	5,097.66	59.6359	5,097.66	69.3532	5,097.66	65.4667	5,097.66	72.5604
5,277.83	85.9998	5,277.83	86.1269	5,277.83	86.3219	5,277.83	84.503	5,277.83	82.5008	5,277.83	82.1031	5,277.83	80.7994	5,277.83	80.1696	5,277.83	81.7864	5,277.83	80.22	5,277.83	78.9935	5,277.83	77.8285	5,277.83	79.0957	5,277.83	75.5864	5,277.83	80.1939	5,277.83	72.3184	5,277.83	76.2691	5,277.83	70.0818	5,277.83	74.1023	5,277.83	65.5367	5,277.83	71.2756	5,277.83	67.6228	5,277.83	68.3487	5,277.83	70.8195	5,277.83	68.4148	5,277.83	64.6013	5,277.83	70.3724	5,277.83	69.279	5,277.83	62.8591	5,277.83	66.2993	5,277.83	68.5965	5,277.83	70.0137	5,277.83	63.6407	5,277.83	69.2189	5,277.83	58.2121	5,277.83	70.179
5,463.87	86.0383	5,463.87	87.2068	5,463.87	83.5774	5,463.87	85.8115	5,463.87	82.083	5,463.87	83.3654	5,463.87	79.7135	5,463.87	80.7671	5,463.87	78.7093	5,463.87	80.0545	5,463.87	79.3398	5,463.87	76.6843	5,463.87	81.6603	5,463.87	74.0683	5,463.87	82.1845	5,463.87	69.8469	5,463.87	79.1232	5,463.87	65.5938	5,463.87	75.5008	5,463.87	65.1023	5,463.87	72.0929	5,463.87	62.0724	5,463.87	68.5673	5,463.87	61.9331	5,463.87	68.4131	5,463.87	66.4013	5,463.87	70.5974	5,463.87	62.0142	5,463.87	64.7006	5,463.87	65.0123	5,463.87	69.228	5,463.87	64.7423	5,463.87	67.2652	5,463.87	66.0033	5,463.87	57.2998	5,463.87	67.5858
5,657.23	85.1522	5,657.23	88.0407	5,657.23	83.2767	5,657.23	85.8541	5,657.23	82.8829	5,657.23	83.7274	5,657.23	78.7914	5,657.23	83.2109	5,657.23	79.3709	5,657.23	81.6499	5,657.23	78.0856	5,657.23	76.2876	5,657.23	81.8843	5,657.23	72.4418	5,657.23	81.413	5,657.23	70.3687	5,657.23	77.8436	5,657.23	69.5532	5,657.23	74.4685	5,657.23	61.5431	5,657.23	71.9614	5,657.23	66.0606	5,657.23	69.1445	5,657.23	55.7673	5,657.23	67.33	5,657.23	68.1819	5,657.23	68.9891	5,657.23	55.0831	5,657.23	64.6827	5,657.23	65.9951	5,657.23	68.9176	5,657.23	66.5038	5,657.23	61.2082	5,657.23	67.8342	5,657.23	68.3634	5,657.23	67.2327
5,856.45	85.1171	5,856.45	86.1168	5,856.45	83.0642	5,856.45	84.4592	5,856.45	83.7787	5,856.45	83.471	5,856.45	82.2629	5,856.45	83.3165	5,856.45	78.3575	5,856.45	80.2143	5,856.45	79.6864	5,856.45	77.7217	5,856.45	82.6221	5,856.45	76.1012	5,856.45	78.2559	5,856.45	71.9619	5,856.45	73.1682	5,856.45	69.0215	5,856.45	72.9404	5,856.45	65.1621	5,856.45	65.1884	5,856.45	68.2042	5,856.45	66.3792	5,856.45	62.5036	5,856.45	59.2443	5,856.45	67.25	5,856.45	60.7887	5,856.45	64.3298	5,856.45	61.3732	5,856.45	65.2529	5,856.45	67.9552	5,856.45	66.86	5,856.45	63.3503	5,856.45	70.8465	5,856.45	69.5974	5,856.45	66.4421
6,062.99	86.1884	6,062.99	86.5305	6,062.99	83.0142	6,062.99	85.1319	6,062.99	83.1634	6,062.99	85.2013	6,062.99	84.0807	6,062.99	83.5617	6,062.99	80.0738	6,062.99	82.0478	6,062.99	79.9056	6,062.99	78.8561	6,062.99	82.0726	6,062.99	74.7607	6,062.99	75.0447	6,062.99	72.7354	6,062.99	72.9089	6,062.99	70.5215	6,062.99	72.6169	6,062.99	66.1039	6,062.99	67.0356	6,062.99	65.9749	6,062.99	63.4081	6,062.99	67.3962	6,062.99	55.5778	6,062.99	64.1413	6,062.99	54.0165	6,062.99	66.8063	6,062.99	63.2562	6,062.99	63.6704	6,062.99	64.3175	6,062.99	64.5672	6,062.99	65.4126	6,062.99	69.6637	6,062.99	66.9003	6,062.99	66.1828
6,276.86	86.2025	6,276.86	86.5663	6,276.86	83.3138	6,276.86	84.8497	6,276.86	83.467	6,276.86	84.4619	6,276.86	84.4528	6,276.86	83.42	6,276.86	80.6561	6,276.86	81.6017	6,276.86	80.6112	6,276.86	78.2154	6,276.86	81.4306	6,276.86	76.289	6,276.86	74.7962	6,276.86	71.6196	6,276.86	73.7554	6,276.86	67.1588	6,276.86	70.2989	6,276.86	65.5491	6,276.86	65.5425	6,276.86	60.4413	6,276.86	59.8714	6,276.86	69.1328	6,276.86	56.4619	6,276.86	55.2748	6,276.86	46.6166	6,276.86	67.2854	6,276.86	61.633	6,276.86	63.4528	6,276.86	67.1771	6,276.86	67.2172	6,276.86	63.7619	6,276.86	69.6734	6,276.86	63.0778	6,276.86	67.1904
6,498.05	86.0953	6,498.05	85.5684	6,498.05	83.8115	6,498.05	84.7237	6,498.05	84.6051	6,498.05	84.8736	6,498.05	85.192	6,498.05	83.804	6,498.05	80.8004	6,498.05	81.3395	6,498.05	80.4663	6,498.05	78.3973	6,498.05	79.347	6,498.05	74.4522	6,498.05	77.8682	6,498.05	72.3643	6,498.05	75.3232	6,498.05	68.4636	6,498.05	67.2077	6,498.05	65.7814	6,498.05	64.1448	6,498.05	64.3706	6,498.05	57.287	6,498.05	66.7523	6,498.05	64.4631	6,498.05	60.8527	6,498.05	54.787	6,498.05	65.4192	6,498.05	61.3918	6,498.05	59.967	6,498.05	66.609	6,498.05	66.0011	6,498.05	63.5335	6,498.05	68.2743	6,498.05	61.9793	6,498.05	66.9034
6,726.56	87.5705	6,726.56	85.9406	6,726.56	85.2265	6,726.56	85.5456	6,726.56	84.259	6,726.56	84.782	6,726.56	84.8647	6,726.56	83.2778	6,726.56	80.9672	6,726.56	81.6024	6,726.56	79.9836	6,726.56	77.225	6,726.56	77.5995	6,726.56	73.3107	6,726.56	79.0586	6,726.56	71.2714	6,726.56	73.9019	6,726.56	67.1984	6,726.56	68.5168	6,726.56	64.7897	6,726.56	63.078	6,726.56	66.9402	6,726.56	53.0662	6,726.56	62.6156	6,726.56	66.2318	6,726.56	65.0684	6,726.56	62.6946	6,726.56	62.7081	6,726.56	59.0072	6,726.56	62.2788	6,726.56	64.9349	6,726.56	66.2997	6,726.56	61.4925	6,726.56	67.168	6,726.56	64.079	6,726.56	67.096
6,963.87	87.5894	6,963.87	85.2333	6,963.87	86.2948	6,963.87	84.6995	6,963.87	83.7588	6,963.87	85.0574	6,963.87	83.4823	6,963.87	83.8149	6,963.87	80.4954	6,963.87	81.124	6,963.87	77.6776	6,963.87	78.2848	6,963.87	77.3857	6,963.87	74.1978	6,963.87	79.2235	6,963.87	72.0889	6,963.87	70.1868	6,963.87	68.8037	6,963.87	66.8368	6,963.87	61.34	6,963.87	58.8309	6,963.87	68.7545	6,963.87	50.1415	6,963.87	59.6187	6,963.87	65.208	6,963.87	66.7157	6,963.87	66.6931	6,963.87	60.0598	6,963.87	56.1931	6,963.87	62.7111	6,963.87	65.9935	6,963.87	66.5535	6,963.87	64.3874	6,963.87	65.953	6,963.87	59.968	6,963.87	67.1656
7,209.96	87.7789	7,209.96	85.1228	7,209.96	86.8335	7,209.96	85.5245	7,209.96	83.7361	7,209.96	84.5143	7,209.96	83.8454	7,209.96	83.4606	7,209.96	80.3585	7,209.96	80.5733	7,209.96	75.8133	7,209.96	77.4231	7,209.96	77.7869	7,209.96	74.312	7,209.96	77.233	7,209.96	71.1904	7,209.96	70.2801	7,209.96	66.6277	7,209.96	72.0573	7,209.96	64.1668	7,209.96	65.8738	7,209.96	63.6057	7,209.96	59.3857	7,209.96	65.2136	7,209.96	62.674	7,209.96	64.2066	7,209.96	65.0262	7,209.96	59.8475	7,209.96	51.0089	7,209.96	63.6415	7,209.96	65.6409	7,209.96	65.7789	7,209.96	64.1171	7,209.96	65.1516	7,209.96	64.839	7,209.96	65.6903
7,464.84	87.9471	7,464.84	85.3135	7,464.84	88.1305	7,464.84	85.3589	7,464.84	84.9602	7,464.84	84.8849	7,464.84	84.664	7,464.84	83.3871	7,464.84	80.8352	7,464.84	79.8424	7,464.84	74.38	7,464.84	77.9997	7,464.84	77.9758	7,464.84	72.764	7,464.84	75.9233	7,464.84	69.1696	7,464.84	73.8196	7,464.84	62.3901	7,464.84	74.583	7,464.84	64.4768	7,464.84	71.3217	7,464.84	56.2212	7,464.84	64.6736	7,464.84	66.9029	7,464.84	63.031	7,464.84	60.2111	7,464.84	66.8858	7,464.84	61.6332	7,464.84	40.8097	7,464.84	63.3908	7,464.84	65.0178	7,464.84	64.2585	7,464.84	61.9564	7,464.84	67.4049	7,464.84	65.2605	7,464.84	67.1284
7,727.05	87.8666	7,727.05	85.473	7,727.05	88.4695	7,727.05	86.3136	7,727.05	85.8653	7,727.05	85.1964	7,727.05	84.6145	7,727.05	82.2488	7,727.05	82.0921	7,727.05	79.8902	7,727.05	73.5177	7,727.05	76.3318	7,727.05	77.4759	7,727.05	72.5499	7,727.05	76.7275	7,727.05	69.5606	7,727.05	75.7807	7,727.05	68.128	7,727.05	74.5048	7,727.05	66.2435	7,727.05	72.1491	7,727.05	64.8684	7,727.05	65.8509	7,727.05	64.2433	7,727.05	57.4462	7,727.05	60.0396	7,727.05	66.107	7,727.05	58.5243	7,727.05	47.8608	7,727.05	61.1641	7,727.05	64.27	7,727.05	62.0912	7,727.05	62.676	7,727.05	66.1717	7,727.05	62.1321	7,727.05	64.359
7,999.51	87.5412	7,999.51	86.4144	7,999.51	88.3876	7,999.51	86.3077	7,999.51	85.7316	7,999.51	84.6705	7,999.51	84.9261	7,999.51	82.6723	7,999.51	82.2913	7,999.51	79.3304	7,999.51	71.7063	7,999.51	75.1101	7,999.51	74.1738	7,999.51	71.9212	7,999.51	77.1036	7,999.51	67.9728	7,999.51	75.4936	7,999.51	66.546	7,999.51	73.6561	7,999.51	61.6302	7,999.51	70.7421	7,999.51	65.1143	7,999.51	65.016	7,999.51	63.4385	7,999.51	61.4093	7,999.51	60.4356	7,999.51	64.5088	7,999.51	54.9722	7,999.51	48.7513	7,999.51	63.1793	7,999.51	65.661	7,999.51	64.9958	7,999.51	60.6973	7,999.51	63.4422	7,999.51	61.2497	7,999.51	64.398
8,282.23	87.8109	8,282.23	87.2315	8,282.23	88.1066	8,282.23	86.5713	8,282.23	85.4216	8,282.23	85.1921	8,282.23	84.591	8,282.23	82.2081	8,282.23	82.2772	8,282.23	79.6717	8,282.23	71.7546	8,282.23	75.6669	8,282.23	75.3738	8,282.23	73.1271	8,282.23	78.5214	8,282.23	69.0341	8,282.23	73.7131	8,282.23	66.0741	8,282.23	70.4899	8,282.23	59.8392	8,282.23	61.9726	8,282.23	65.0816	8,282.23	64.4969	8,282.23	63.9805	8,282.23	58.2406	8,282.23	62.3972	8,282.23	59.9985	8,282.23	58.6942	8,282.23	58.6524	8,282.23	62.0028	8,282.23	66.2138	8,282.23	64.6091	8,282.23	63.8791	8,282.23	66.8517	8,282.23	60.5911	8,282.23	64.4264
8,573.73	88.5926	8,573.73	87.3942	8,573.73	88.696	8,573.73	86.3207	8,573.73	85.4874	8,573.73	84.5947	8,573.73	85.2843	8,573.73	82.3748	8,573.73	82.7792	8,573.73	79.5852	8,573.73	72.9086	8,573.73	75.2226	8,573.73	77.1511	8,573.73	73.0561	8,573.73	79.2807	8,573.73	70.8149	8,573.73	72.0201	8,573.73	67.1048	8,573.73	69.2201	8,573.73	62.6906	8,573.73	62.0698	8,573.73	63.7423	8,573.73	56.8998	8,573.73	64.41	8,573.73	54.9049	8,573.73	62.8157	8,573.73	57.5285	8,573.73	60.0998	8,573.73	60.4019	8,573.73	60.1359	8,573.73	63.4908	8,573.73	65.2846	8,573.73	64.1786	8,573.73	65.9017	8,573.73	48.6958	8,573.73	65.0866
8,876.95	88.5339	8,876.95	87.9138	8,876.95	88.4165	8,876.95	86.6272	8,876.95	85.7838	8,876.95	84.7607	8,876.95	85.4524	8,876.95	82.0572	8,876.95	82.5464	8,876.95	79.6179	8,876.95	76.1065	8,876.95	75.8803	8,876.95	78.2861	8,876.95	72.4224	8,876.95	78.7532	8,876.95	70.7534	8,876.95	70.7425	8,876.95	66.7777	8,876.95	67.4338	8,876.95	61.1293	8,876.95	64.9592	8,876.95	61.7672	8,876.95	55.8651	8,876.95	64.7996	8,876.95	55.0746	8,876.95	59.2389	8,876.95	58.505	8,876.95	63.0471	8,876.95	58.3763	8,876.95	60.5283	8,876.95	59.1652	8,876.95	64.7499	8,876.95	60.5833	8,876.95	63.901	8,876.95	52.8167	8,876.95	64.3035
9,188.96	88.89	9,188.96	87.9226	9,188.96	88.3556	9,188.96	86.2991	9,188.96	86.3051	9,188.96	84.4043	9,188.96	85.406	9,188.96	81.9326	9,188.96	81.2865	9,188.96	78.3736	9,188.96	76.7929	9,188.96	75.5339	9,188.96	77.0316	9,188.96	72.3726	9,188.96	74.7108	9,188.96	66.2462	9,188.96	68.2999	9,188.96	60.74	9,188.96	69.0781	9,188.96	62.6947	9,188.96	65.5418	9,188.96	64.5044	9,188.96	50.0694	9,188.96	63.207	9,188.96	48.7208	9,188.96	56.9797	9,188.96	53.0845	9,188.96	61.4399	9,188.96	59.5522	9,188.96	56.8371	9,188.96	53.709	9,188.96	64.9133	9,188.96	60.0678	9,188.96	61.5483	9,188.96	56.7057	9,188.96	61.1855
9,514.16	88.792	9,514.16	88.4294	9,514.16	88.5505	9,514.16	86.3956	9,514.16	86.8392	9,514.16	84.9266	9,514.16	83.4386	9,514.16	81.3616	9,514.16	80.7283	9,514.16	78.5868	9,514.16	77.5003	9,514.16	74.4474	9,514.16	73.5311	9,514.16	72.1171	9,514.16	69.8184	9,514.16	69.0166	9,514.16	73.3984	9,514.16	67.4115	9,514.16	71.1929	9,514.16	60.0965	9,514.16	62.6113	9,514.16	64.7342	9,514.16	55.7147	9,514.16	60.1484	9,514.16	50.1283	9,514.16	59.8181	9,514.16	58.8173	9,514.16	54.1794	9,514.16	60.9773	9,514.16	61.5717	9,514.16	60.0371	9,514.16	62.8986	9,514.16	58.5397	9,514.16	62.3304	9,514.16	57.1041	9,514.16	63.1732
9,849.61	89.2041	9,849.61	88.7099	9,849.61	88.8075	9,849.61	87.0242	9,849.61	85.4498	9,849.61	84.7527	9,849.61	80.9961	9,849.61	80.8987	9,849.61	82.1152	9,849.61	79.4282	9,849.61	76.519	9,849.61	75.3669	9,849.61	70.9764	9,849.61	72.5817	9,849.61	71.6653	9,849.61	71.5934	9,849.61	75.0447	9,849.61	66.6419	9,849.61	69.102	9,849.61	64.4808	9,849.61	58.6295	9,849.61	63.8139	9,849.61	56.9455	9,849.61	63.5538	9,849.61	52.248	9,849.61	61.109	9,849.61	57.9853	9,849.61	57.9013	9,849.61	64.4769	9,849.61	61.6337	9,849.61	53.377	9,849.61	62.3827	9,849.61	60.1761	9,849.61	64.4652	9,849.61	55.7537	9,849.61	61.9651
10,196.8	89.6233	10,196.8	89.1471	10,196.8	88.7205	10,196.8	86.9962	10,196.8	84.9001	10,196.8	83.7911	10,196.8	82.2904	10,196.8	81.103	10,196.8	83.2612	10,196.8	79.5334	10,196.8	77.4739	10,196.8	75.9916	10,196.8	69.6991	10,196.8	72.9179	10,196.8	73.0957	10,196.8	67.6277	10,196.8	73.2311	10,196.8	64.9463	10,196.8	61.5634	10,196.8	58.0547	10,196.8	63.9879	10,196.8	63.425	10,196.8	54.2154	10,196.8	58.5414	10,196.8	55.2384	10,196.8	58.3762	10,196.8	53.5182	10,196.8	62.9419	10,196.8	63.9706	10,196.8	61.9598	10,196.8	49.4879	10,196.8	59.1156	10,196.8	60.9416	10,196.8	65.3002	10,196.8	60.0797	10,196.8	62.3177
10,555.7	89.8421	10,555.7	89.5965	10,555.7	89.1568	10,555.7	87.2227	10,555.7	86.1189	10,555.7	83.5494	10,555.7	84.7063	10,555.7	81.5132	10,555.7	82.9047	10,555.7	78.9267	10,555.7	78.9514	10,555.7	76.255	10,555.7	66.5383	10,555.7	71.222	10,555.7	75.0032	10,555.7	68.9278	10,555.7	71.3526	10,555.7	65.1453	10,555.7	66.231	10,555.7	58.9063	10,555.7	65.7735	10,555.7	64.9968	10,555.7	50.6179	10,555.7	51.4593	10,555.7	56.3056	10,555.7	59.693	10,555.7	48.2915	10,555.7	61.8375	10,555.7	57.4152	10,555.7	60.6444	10,555.7	52.13	10,555.7	62.7116	10,555.7	64.0951	10,555.7	65.4559	10,555.7	53.3893	10,555.7	62.5133
10,927.7	89.9806	10,927.7	89.6679	10,927.7	88.9484	10,927.7	86.8845	10,927.7	86.9092	10,927.7	83.9151	10,927.7	85.7591	10,927.7	81.3347	10,927.7	81.8874	10,927.7	78.3985	10,927.7	78.9529	10,927.7	76.1614	10,927.7	58.2204	10,927.7	71.4264	10,927.7	74.6964	10,927.7	70.3809	10,927.7	65.7081	10,927.7	64.4761	10,927.7	69.8568	10,927.7	63.999	10,927.7	65.7842	10,927.7	61.4766	10,927.7	51.98	10,927.7	59.9117	10,927.7	59.8604	10,927.7	63.5102	10,927.7	47.8584	10,927.7	58.8501	10,927.7	56.3057	10,927.7	58.1501	10,927.7	50.517	10,927.7	63.2222	10,927.7	65.5212	10,927.7	64.4867	10,927.7	54.0696	10,927.7	63.4171
11,313	90.0149	11,313	89.8282	11,313	88.5361	11,313	87.2126	11,313	87.1024	11,313	84.0973	11,313	84.4495	11,313	80.7435	11,313	81.1561	11,313	79.2913	11,313	78.595	11,313	76.782	11,313	65.941	11,313	72.7866	11,313	69.0132	11,313	68.3038	11,313	71.2321	11,313	63.9108	11,313	71.164	11,313	61.6479	11,313	64.5682	11,313	60.4379	11,313	53.2927	11,313	60.2394	11,313	57.8997	11,313	63.7131	11,313	50.2716	11,313	59.0673	11,313	61.3322	11,313	60.7522	11,313	60.7854	11,313	63.1318	11,313	64.0966	11,313	63.5315	11,313	51.9111	11,313	63.5759
11,712.9	90.0109	11,712.9	89.4747	11,712.9	89.3071	11,712.9	87.4382	11,712.9	87.0805	11,712.9	83.3116	11,712.9	83.2906	11,712.9	81.1399	11,712.9	80.8388	11,712.9	79.9673	11,712.9	76.851	11,712.9	75.8657	11,712.9	69.2878	11,712.9	70.9986	11,712.9	66.7725	11,712.9	66.8038	11,712.9	71.9647	11,712.9	64.4302	11,712.9	71.1667	11,712.9	62.2779	11,712.9	63.909	11,712.9	61.5745	11,712.9	55.5133	11,712.9	57.517	11,712.9	39.9371	11,712.9	57.9585	11,712.9	45.7795	11,712.9	59.3736	11,712.9	59.1501	11,712.9	61.0274	11,712.9	61.4421	11,712.9	61.4848	11,712.9	65.0359	11,712.9	62.8219	11,712.9	58.6882	11,712.9	62.2154
12,126	89.7725	12,126	89.4811	12,126	88.7294	12,126	86.8423	12,126	86.8249	12,126	83.5063	12,126	83.1387	12,126	82.2918	12,126	81.5214	12,126	79.2065	12,126	76.4001	12,126	75.5198	12,126	69.82	12,126	70.3296	12,126	65.7668	12,126	66.2538	12,126	71.3444	12,126	63.334	12,126	68.99	12,126	59.8955	12,126	60.3267	12,126	58.0385	12,126	50.8204	12,126	58.9781	12,126	47.7782	12,126	57.4294	12,126	53.0449	12,126	53.7904	12,126	52.225	12,126	59.501	12,126	59.6356	12,126	59.7666	12,126	62.8334	12,126	64	12,126	54.7816	12,126	60.9105
12,553.7	89.8675	12,553.7	89.5755	12,553.7	89.0329	12,553.7	86.6394	12,553.7	86.5809	12,553.7	84.5177	12,553.7	84.2255	12,553.7	82.6633	12,553.7	82.4011	12,553.7	79.5679	12,553.7	77.0691	12,553.7	76.4904	12,553.7	72.5277	12,553.7	70.7288	12,553.7	66.4575	12,553.7	67.0435	12,553.7	70.1578	12,553.7	62.6628	12,553.7	67.8873	12,553.7	56.1289	12,553.7	58.8046	12,553.7	59.52	12,553.7	46.7153	12,553.7	55.8343	12,553.7	54.2614	12,553.7	63.6463	12,553.7	54.146	12,553.7	53.6667	12,553.7	51.1163	12,553.7	58.8448	12,553.7	59.7801	12,553.7	61.7196	12,553.7	61.8269	12,553.7	66.2679	12,553.7	58.8242	12,553.7	63.2088
12,996.1	89.6838	12,996.1	89.2749	12,996.1	89.0522	12,996.1	86.5164	12,996.1	87.3273	12,996.1	85.2161	12,996.1	85.0251	12,996.1	82.7082	12,996.1	81.7552	12,996.1	81.0383	12,996.1	76.9574	12,996.1	75.6182	12,996.1	75.8653	12,996.1	71.5156	12,996.1	71.5188	12,996.1	64.7994	12,996.1	72.2479	12,996.1	64.7635	12,996.1	67.1016	12,996.1	60.0672	12,996.1	53.725	12,996.1	60.0432	12,996.1	37.5345	12,996.1	56.9659	12,996.1	42.4397	12,996.1	62.699	12,996.1	48.9826	12,996.1	57.25	12,996.1	56.6669	12,996.1	59.1573	12,996.1	59.4923	12,996.1	61.1423	12,996.1	61.8358	12,996.1	67.0236	12,996.1	57.3226	12,996.1	63.0748
13,454.6	89.3848	13,454.6	88.6917	13,454.6	89.4674	13,454.6	87.2488	13,454.6	87.9131	13,454.6	86.1607	13,454.6	85.1364	13,454.6	84.8952	13,454.6	82.4031	13,454.6	81.5321	13,454.6	75.9642	13,454.6	76.0996	13,454.6	77.0396	13,454.6	72.5203	13,454.6	71.9098	13,454.6	66.7147	13,454.6	74.6015	13,454.6	64.3047	13,454.6	71.5965	13,454.6	62.2055	13,454.6	56.8464	13,454.6	60.0571	13,454.6	47.5622	13,454.6	61.962	13,454.6	52.9024	13,454.6	60.9749	13,454.6	37.756	13,454.6	59.944	13,454.6	55.7836	13,454.6	56.7802	13,454.6	61.7724	13,454.6	61.2128	13,454.6	64.276	13,454.6	66.2935	13,454.6	59.331	13,454.6	63.4728
13,929.2	89.1636	13,929.2	88.5723	13,929.2	89.8364	13,929.2	88.2932	13,929.2	88.4317	13,929.2	88.0049	13,929.2	87.2095	13,929.2	86.1719	13,929.2	83.9068	13,929.2	82.2979	13,929.2	79.4439	13,929.2	78.7675	13,929.2	79.8901	13,929.2	73.4874	13,929.2	70.7572	13,929.2	70.0298	13,929.2	72.3121	13,929.2	66.3084	13,929.2	69.5	13,929.2	56.5365	13,929.2	51.2951	13,929.2	61.0717	13,929.2	48.9279	13,929.2	61.0898	13,929.2	41.4031	13,929.2	65.7674	13,929.2	54.4886	13,929.2	61.8289	13,929.2	52.5243	13,929.2	52.6039	13,929.2	58.622	13,929.2	62.5148	13,929.2	60.4764	13,929.2	66.8775	13,929.2	60.9332	13,929.2	61.2902
14,419.9	89.6663	14,419.9	88.6585	14,419.9	90.5497	14,419.9	89.7847	14,419.9	90.7956	14,419.9	89.5134	14,419.9	89.7604	14,419.9	86.6914	14,419.9	86.8493	14,419.9	83.8478	14,419.9	82.8008	14,419.9	78.5952	14,419.9	82.319	14,419.9	75.1707	14,419.9	69.8784	14,419.9	68.8765	14,419.9	70.5426	14,419.9	66.547	14,419.9	69.1814	14,419.9	57.9973	14,419.9	54.9695	14,419.9	57.3418	14,419.9	50.7064	14,419.9	62.7422	14,419.9	42.7893	14,419.9	64.5912	14,419.9	39.6792	14,419.9	62.7029	14,419.9	61.9871	14,419.9	56.333	14,419.9	45.2002	14,419.9	61.7976	14,419.9	60.1271	14,419.9	68.4861	14,419.9	58.7804	14,419.9	60.9622
14,928.2	89.5367	14,928.2	89.238	14,928.2	90.6443	14,928.2	90.95	14,928.2	91.5378	14,928.2	90.2815	14,928.2	90.7384	14,928.2	87.9137	14,928.2	88.0923	14,928.2	84.2182	14,928.2	82.9094	14,928.2	79.1257	14,928.2	81.4518	14,928.2	75.0073	14,928.2	69.0082	14,928.2	66.9784	14,928.2	69.0785	14,928.2	64.5528	14,928.2	67.1816	14,928.2	58.548	14,928.2	58.0002	14,928.2	58.4785	14,928.2	56.6403	14,928.2	61.5491	14,928.2	33.182	14,928.2	60.4423	14,928.2	55.8847	14,928.2	61.4412	14,928.2	52.4235	14,928.2	58.3586	14,928.2	48.2886	14,928.2	61.8537	14,928.2	59.523	14,928.2	66.6232	14,928.2	60.1819	14,928.2	58.5483
15,455.6	88.4548	15,455.6	89.0348	15,455.6	90.0767	15,455.6	90.5358	15,455.6	90.87	15,455.6	89.7672	15,455.6	88.919	15,455.6	87.0986	15,455.6	86.6847	15,455.6	83.0571	15,455.6	82.319	15,455.6	78.1291	15,455.6	79.6431	15,455.6	71.6884	15,455.6	68.0326	15,455.6	64.529	15,455.6	65.5538	15,455.6	59.6053	15,455.6	64.3138	15,455.6	53.4842	15,455.6	53.7553	15,455.6	54.6595	15,455.6	56.6905	15,455.6	55.5124	15,455.6	40.2539	15,455.6	57.6955	15,455.6	54.7456	15,455.6	55.4244	15,455.6	53.1383	15,455.6	48.634	15,455.6	42.5789	15,455.6	57.6783	15,455.6	54.1497	15,455.6	61.7404	15,455.6	51.6145	15,455.6	57.2521
16,000.5	87.0519	16,000.5	87.9944	16,000.5	88.2421	16,000.5	88.7969	16,000.5	88.9996	16,000.5	87.7768	16,000.5	87.6309	16,000.5	84.3709	16,000.5	85.206	16,000.5	80.7445	16,000.5	80.3094	16,000.5	74.9634	16,000.5	74.8511	16,000.5	68.1877	16,000.5	65.9479	16,000.5	59.1627	16,000.5	59.1444	16,000.5	50.9682	16,000.5	50.9945	16,000.5	42.6333	16,000.5	55.02	16,000.5	45.2048	16,000.5	49.8305	16,000.5	48.44	16,000.5	43.1975	16,000.5	48.3993	16,000.5	45.2042	16,000.5	49.9294	16,000.5	47.7282	16,000.5	45.5029	16,000.5	44.7225	16,000.5	48.8976	16,000.5	46.7551	16,000.5	55.1891	16,000.5	43.8883	16,000.5	39.047
16,564.5	86.0923	16,564.5	86.5112	16,564.5	85.9042	16,564.5	85.8152	16,564.5	85.7153	16,564.5	83.8394	16,564.5	84.3905	16,564.5	80.4663	16,564.5	81.0284	16,564.5	75.7587	16,564.5	75.5734	16,564.5	70.8356	16,564.5	69.7501	16,564.5	65.489	16,564.5	61.5459	16,564.5	58.4741	16,564.5	53.372	16,564.5	52.0369	16,564.5	47.4424	16,564.5	49.0199	16,564.5	47.7239	16,564.5	46.1003	16,564.5	38.4843	16,564.5	40.1784	16,564.5	37.4217	16,564.5	39.2541	16,564.5	37.0226	16,564.5	35.1453	16,564.5	37.3292	16,564.5	38.505	16,564.5	43.8518	16,564.5	34.168	16,564.5	41.6919	16,564.5	42.4203	16,564.5	39.6096	16,564.5	42.0766
17,148.9	85.6854	17,148.9	85.8829	17,148.9	85.2507	17,148.9	84.7498	17,148.9	84.16	17,148.9	82.4218	17,148.9	81.9072	17,148.9	78.3367	17,148.9	78.6806	17,148.9	72.4058	17,148.9	74.1897	17,148.9	68.0325	17,148.9	67.5697	17,148.9	64.0215	17,148.9	60.2085	17,148.9	58.5786	17,148.9	44.3572	17,148.9	51.5083	17,148.9	44.4757	17,148.9	49.8121	17,148.9	45.7618	17,148.9	47.6618	17,148.9	27.6246	17,148.9	48.0259	17,148.9	35.5453	17,148.9	46.2378	17,148.9	38.1703	17,148.9	42.8656	17,148.9	41.5636	17,148.9	35.4772	17,148.9	38.2423	17,148.9	43.1346	17,148.9	41.6334	17,148.9	49.3296	17,148.9	36.5117	17,148.9	46.509
17,752.4	85.6121	17,752.4	85.4226	17,752.4	84.7778	17,752.4	83.5657	17,752.4	82.642	17,752.4	80.8072	17,752.4	80.2274	17,752.4	76.7947	17,752.4	76.7919	17,752.4	70.7075	17,752.4	72.4901	17,752.4	67.869	17,752.4	65.5268	17,752.4	64.5025	17,752.4	61.6546	17,752.4	59.091	17,752.4	50.1428	17,752.4	52.3159	17,752.4	47.8197	17,752.4	51.0209	17,752.4	52.7199	17,752.4	49.2705	17,752.4	37.2672	17,752.4	48.0214	17,752.4	33.1207	17,752.4	44.759	17,752.4	36.8272	17,752.4	44.0803	17,752.4	37.4751	17,752.4	39.2965	17,752.4	38.8115	17,752.4	44.8489	17,752.4	43.2176	17,752.4	49.6289	17,752.4	37.3833	17,752.4	49.5259
18,379.4	85.9917	18,379.4	84.7894	18,379.4	85.0361	18,379.4	81.9934	18,379.4	81.4445	18,379.4	79.5182	18,379.4	78.4373	18,379.4	75.7668	18,379.4	76.3026	18,379.4	70.1838	18,379.4	71.0284	18,379.4	67.6277	18,379.4	63.2224	18,379.4	64.3639	18,379.4	63.3665	18,379.4	58.3913	18,379.4	51.075	18,379.4	52.5064	18,379.4	45.9183	18,379.4	49.3123	18,379.4	53.9937	18,379.4	47.0349	18,379.4	42.3708	18,379.4	43.5357	18,379.4	29.8679	18,379.4	44.3597	18,379.4	40.1009	18,379.4	38.2802	18,379.4	38.0072	18,379.4	35.1542	18,379.4	45.0561	18,379.4	40.3971	18,379.4	43.191	18,379.4	49.4457	18,379.4	30.4115	18,379.4	50.5936
19,026.9	86.6537	19,026.9	83.6381	19,026.9	85.8869	19,026.9	77.6226	19,026.9	81.3848	19,026.9	77.8727	19,026.9	77.4848	19,026.9	76.2211	19,026.9	76.1974	19,026.9	71.2511	19,026.9	73.1922	19,026.9	66.2181	19,026.9	67.1064	19,026.9	62.0719	19,026.9	64.1842	19,026.9	56.8143	19,026.9	47.9352	19,026.9	49.6721	19,026.9	48.4248	19,026.9	43.0973	19,026.9	54.6288	19,026.9	38.9988	19,026.9	49.6761	19,026.9	27.1077	19,026.9	10.6488	19,026.9	37.3983	19,026.9	19.0499	19,026.9	37.6327	19,026.9	32.2406	19,026.9	40.4486	19,026.9	45.4656	19,026.9	39.0169	19,026.9	42.3645	19,026.9	49.9584	19,026.9	45.8285	19,026.9	51.814
19,697.8	86.954	19,697.8	83.1321	19,697.8	85.938	19,697.8	70.8138	19,697.8	79.2412	19,697.8	73.8339	19,697.8	74.2405	19,697.8	74.4614	19,697.8	75.2816	19,697.8	69.2749	19,697.8	73.2474	19,697.8	57.447	19,697.8	68.5678	19,697.8	48.667	19,697.8	63.363	19,697.8	53.0365	19,697.8	51.0286	19,697.8	48.6903	19,697.8	44.5292	19,697.8	33.6191	19,697.8	49.6446	19,697.8	46.293	19,697.8	47.9809	19,697.8	45.825	19,697.8	38.6456	19,697.8	40.4272	19,697.8	34.2288	19,697.8	42.1188	19,697.8	30.8555	19,697.8	44.8575	19,697.8	43.941	19,697.8	40.89	19,697.8	48.0992	19,697.8	52.4277	19,697.8	45.4449	19,697.8	49.604
19,999.5	86.3443	19,999.5	83.8862	19,999.5	85.308	19,999.5	76.7909	19,999.5	78.4547	19,999.5	72.7977	19,999.5	71.0837	19,999.5	72.4771	19,999.5	73.4666	19,999.5	66.981	19,999.5	71.6618	19,999.5	51.1493	19,999.5	67.4776	19,999.5	54.9233	19,999.5	63.4093	19,999.5	52.3631	19,999.5	52.1889	19,999.5	53.4401	19,999.5	43.5815	19,999.5	45.3903	19,999.5	47.8072	19,999.5	52.0387	19,999.5	43.0882	19,999.5	45.33	19,999.5	45.302	19,999.5	39.8215	19,999.5	45.105	19,999.5	40.4999	19,999.5	38.1087	19,999.5	51.3012	19,999.5	46.9427	19,999.5	38.6111	19,999.5	50.7643	19,999.5	50.1078	19,999.5	44.9769	19,999.5	50.7073
