"SPL Horizontal"
"On-Axis"		"10°"		"-10°"		"20°"		"-20°"		"30°"		"-30°"		"40°"		"-40°"		"50°"		"-50°"		"60°"		"-60°"		"70°"		"-70°"		"80°"		"-80°"		"90°"		"-90°"		"100°"		"-100°"		"110°"		"-110°"		"120°"		"-120°"		"130°"		"-130°"		"140°"		"-140°"		"150°"		"-150°"		"160°"		"-160°"		"170°"		"-170°"		"180°"
"Frequency [Hz]"	"Sound Pessure Level [dB]  / [2.83V 1m] "	"Frequency [Hz]"	"Sound Pessure Level [dB]  / [2.83V 1m] "	"Frequency [Hz]"	"Sound Pessure Level [dB]  / [2.83V 1m] "	"Frequency [Hz]"	"Sound Pessure Level [dB]  / [2.83V 1m] "	"Frequency [Hz]"	"Sound Pessure Level [dB]  / [2.83V 1m] "	"Frequency [Hz]"	"Sound Pessure Level [dB]  / [2.83V 1m] "	"Frequency [Hz]"	"Sound Pessure Level [dB]  / [2.83V 1m] "	"Frequency [Hz]"	"Sound Pessure Level [dB]  / [2.83V 1m] "	"Frequency [Hz]"	"Sound Pessure Level [dB]  / [2.83V 1m] "	"Frequency [Hz]"	"Sound Pessure Level [dB]  / [2.83V 1m] "	"Frequency [Hz]"	"Sound Pessure Level [dB]  / [2.83V 1m] "	"Frequency [Hz]"	"Sound Pessure Level [dB]  / [2.83V 1m] "	"Frequency [Hz]"	"Sound Pessure Level [dB]  / [2.83V 1m] "	"Frequency [Hz]"	"Sound Pessure Level [dB]  / [2.83V 1m] "	"Frequency [Hz]"	"Sound Pessure Level [dB]  / [2.83V 1m] "	"Frequency [Hz]"	"Sound Pessure Level [dB]  / [2.83V 1m] "	"Frequency [Hz]"	"Sound Pessure Level [dB]  / [2.83V 1m] "	"Frequency [Hz]"	"Sound Pessure Level [dB]  / [2.83V 1m] "	"Frequency [Hz]"	"Sound Pessure Level [dB]  / [2.83V 1m] "	"Frequency [Hz]"	"Sound Pessure Level [dB]  / [2.83V 1m] "	"Frequency [Hz]"	"Sound Pessure Level [dB]  / [2.83V 1m] "	"Frequency [Hz]"	"Sound Pessure Level [dB]  / [2.83V 1m] "	"Frequency [Hz]"	"Sound Pessure Level [dB]  / [2.83V 1m] "	"Frequency [Hz]"	"Sound Pessure Level [dB]  / [2.83V 1m] "	"Frequency [Hz]"	"Sound Pessure Level [dB]  / [2.83V 1m] "	"Frequency [Hz]"	"Sound Pessure Level [dB]  / [2.83V 1m] "	"Frequency [Hz]"	"Sound Pessure Level [dB]  / [2.83V 1m] "	"Frequency [Hz]"	"Sound Pessure Level [dB]  / [2.83V 1m] "	"Frequency [Hz]"	"Sound Pessure Level [dB]  / [2.83V 1m] "	"Frequency [Hz]"	"Sound Pessure Level [dB]  / [2.83V 1m] "	"Frequency [Hz]"	"Sound Pessure Level [dB]  / [2.83V 1m] "	"Frequency [Hz]"	"Sound Pessure Level [dB]  / [2.83V 1m] "	"Frequency [Hz]"	"Sound Pessure Level [dB]  / [2.83V 1m] "	"Frequency [Hz]"	"Sound Pessure Level [dB]  / [2.83V 1m] "	"Frequency [Hz]"	"Sound Pessure Level [dB]  / [2.83V 1m] "	"Frequency [Hz]"	"Sound Pessure Level [dB]  / [2.83V 1m] "
20.5078	43.6186	20.5078	44.5679	20.5078	42.5083	20.5078	45.3901	20.5078	41.2014	20.5078	46.1067	20.5078	39.6804	20.5078	46.7241	20.5078	37.966	20.5078	47.2367	20.5078	36.1298	20.5078	47.6318	20.5078	34.2857	20.5078	47.894	20.5078	32.5546	20.5078	48.0084	20.5078	31.0178	20.5078	47.9615	20.5078	29.7178	20.5078	47.7401	20.5078	28.7284	20.5078	47.3287	20.5078	28.1643	20.5078	46.7059	20.5078	28.0256	20.5078	45.8432	20.5078	28.1556	20.5078	44.7047	20.5078	28.517	20.5078	43.2505	20.5078	29.4432	20.5078	41.4429	20.5078	31.3277	20.5078	39.2583	20.5078	33.9475	20.5078	36.7157
21.9727	45.86	21.9727	46.2202	21.9727	45.4598	21.9727	46.535	21.9727	45.0511	21.9727	46.8136	21.9727	44.6893	21.9727	47.0668	21.9727	44.4283	21.9727	47.2983	21.9727	44.2819	21.9727	47.503	21.9727	44.2048	21.9727	47.6698	21.9727	44.1131	21.9727	47.7844	21.9727	43.9208	21.9727	47.831	21.9727	43.5676	21.9727	47.7927	21.9727	43.0321	21.9727	47.6507	21.9727	42.3379	21.9727	47.3845	21.9727	41.5623	21.9727	46.975	21.9727	40.8459	21.9727	46.4073	21.9727	40.3846	21.9727	45.6757	21.9727	40.3604	21.9727	44.7893	21.9727	40.8249	21.9727	43.778	21.9727	41.666	21.9727	42.7024
23.4375	44.8792	23.4375	45.4823	23.4375	44.2402	23.4375	46.0333	23.4375	43.5816	23.4375	46.5172	23.4375	42.9199	23.4375	46.9218	23.4375	42.2712	23.4375	47.2384	23.4375	41.6469	23.4375	47.4607	23.4375	41.0484	23.4375	47.584	23.4375	40.469	23.4375	47.605	23.4375	39.9036	23.4375	47.5231	23.4375	39.3589	23.4375	47.3412	23.4375	38.8543	23.4375	47.064	23.4375	38.4203	23.4375	46.6954	23.4375	38.1061	23.4375	46.2331	23.4375	37.9942	23.4375	45.6662	23.4375	38.194	23.4375	44.9767	23.4375	38.7807	23.4375	44.1457	23.4375	39.7175	23.4375	43.1646	23.4375	40.8617	23.4375	42.0499
24.9023	52.5498	24.9023	52.7153	24.9023	52.3702	24.9023	52.8663	24.9023	52.1781	24.9023	53.001	24.9023	51.9776	24.9023	53.1151	24.9023	51.7759	24.9023	53.2023	24.9023	51.5812	24.9023	53.2549	24.9023	51.3997	24.9023	53.2653	24.9023	51.2334	24.9023	53.2269	24.9023	51.081	24.9023	53.1359	24.9023	50.9409	24.9023	52.9912	24.9023	50.8139	24.9023	52.7955	24.9023	50.7041	24.9023	52.5554	24.9023	50.6173	24.9023	52.2812	24.9023	50.5598	24.9023	51.9864	24.9023	50.5372	24.9023	51.6864	24.9023	50.5557	24.9023	51.3975	24.9023	50.6217	24.9023	51.1351	24.9023	50.7402	24.9023	50.9128
26.3672	52.263	26.3672	52.3275	26.3672	52.1636	26.3672	52.3624	26.3672	52.0293	26.3672	52.3742	26.3672	51.8662	26.3672	52.3679	26.3672	51.686	26.3672	52.3454	26.3672	51.5026	26.3672	52.3064	26.3672	51.3285	26.3672	52.2493	26.3672	51.1722	26.3672	52.1712	26.3672	51.0369	26.3672	52.0688	26.3672	50.9211	26.3672	51.9384	26.3672	50.8211	26.3672	51.7786	26.3672	50.733	26.3672	51.592	26.3672	50.6544	26.3672	51.3867	26.3672	50.5851	26.3672	51.1755	26.3672	50.5278	26.3672	50.9734	26.3672	50.4878	26.3672	50.7951	26.3672	50.4731	26.3672	50.6519	26.3672	50.4917	26.3672	50.5502
27.832	51.5763	27.832	51.7739	27.832	51.4033	27.832	51.9847	27.832	51.2618	27.832	52.1949	27.832	51.1539	27.832	52.3924	27.832	51.0797	27.832	52.5686	27.832	51.0388	27.832	52.7173	27.832	51.03	27.832	52.8341	27.832	51.0495	27.832	52.9153	27.832	51.0904	27.832	52.9589	27.832	51.1449	27.832	52.965	27.832	51.2079	27.832	52.9366	27.832	51.2791	27.832	52.8787	27.832	51.3622	27.832	52.7976	27.832	51.4621	27.832	52.6987	27.832	51.5811	27.832	52.5855	27.832	51.7177	27.832	52.4597	27.832	51.8668	27.832	52.3225	27.832	52.0216	27.832	52.1753
29.2969	55.8955	29.2969	55.9926	29.2969	55.7919	29.2969	56.0813	29.2969	55.6853	29.2969	56.16	29.2969	55.5803	29.2969	56.2274	29.2969	55.4828	29.2969	56.2824	29.2969	55.3983	29.2969	56.3229	29.2969	55.3305	29.2969	56.3461	29.2969	55.2798	29.2969	56.3487	29.2969	55.2442	29.2969	56.3275	29.2969	55.2207	29.2969	56.2809	29.2969	55.2074	29.2969	56.2099	29.2969	55.2039	29.2969	56.1185	29.2969	55.2107	29.2969	56.0129	29.2969	55.2287	29.2969	55.9005	29.2969	55.2583	29.2969	55.7882	29.2969	55.2996	29.2969	55.6811	29.2969	55.3528	29.2969	55.5827	29.2969	55.4179	29.2969	55.4946
30.7617	53.9039	30.7617	53.961	30.7617	53.8419	30.7617	54.0143	30.7617	53.7742	30.7617	54.0641	30.7617	53.701	30.7617	54.109	30.7617	53.6234	30.7617	54.1457	30.7617	53.5441	30.7617	54.1696	30.7617	53.4659	30.7617	54.1755	30.7617	53.3921	30.7617	54.159	30.7617	53.3258	30.7617	54.1172	30.7617	53.2696	30.7617	54.0491	30.7617	53.2247	30.7617	53.9565	30.7617	53.1913	30.7617	53.844	30.7617	53.1686	30.7617	53.7195	30.7617	53.1556	30.7617	53.5932	30.7617	53.1512	30.7617	53.4756	30.7617	53.1555	30.7617	53.3747	30.7617	53.1695	30.7617	53.2948	30.7617	53.1952	30.7617	53.2359
32.2266	55.8063	32.2266	55.8866	32.2266	55.7185	32.2266	55.955	32.2266	55.6274	32.2266	56.0074	32.2266	55.5371	32.2266	56.04	32.2266	55.4519	32.2266	56.0498	32.2266	55.3754	32.2266	56.0347	32.2266	55.3099	32.2266	55.994	32.2266	55.256	32.2266	55.9281	32.2266	55.2122	32.2266	55.8396	32.2266	55.1764	32.2266	55.7336	32.2266	55.147	32.2266	55.6172	32.2266	55.1226	32.2266	55.4992	32.2266	55.1026	32.2266	55.3879	32.2266	55.0863	32.2266	55.29	32.2266	55.0734	32.2266	55.2095	32.2266	55.0644	32.2266	55.1479	32.2266	55.0604	32.2266	55.1046	32.2266	55.0638	32.2266	55.0775
33.6914	56.563	33.6914	56.6009	33.6914	56.5228	33.6914	56.634	33.6914	56.4827	33.6914	56.6596	33.6914	56.4446	33.6914	56.6748	33.6914	56.4102	33.6914	56.6772	33.6914	56.3806	33.6914	56.6643	33.6914	56.3562	33.6914	56.6352	33.6914	56.3363	33.6914	56.5903	33.6914	56.3195	33.6914	56.5327	33.6914	56.3041	33.6914	56.4676	33.6914	56.2889	33.6914	56.4016	33.6914	56.2735	33.6914	56.3408	33.6914	56.2576	33.6914	56.2893	33.6914	56.2415	33.6914	56.2492	33.6914	56.2257	33.6914	56.22	33.6914	56.211	33.6914	56.2008	33.6914	56.1987	33.6914	56.1901	33.6914	56.1902	33.6914	56.1869
35.1562	57.8183	35.1562	57.8547	35.1562	57.7721	35.1562	57.8806	35.1562	57.7176	35.1562	57.8961	35.1562	57.6577	35.1562	57.9013	35.1562	57.5954	35.1562	57.8966	35.1562	57.5341	35.1562	57.8819	35.1562	57.4763	35.1562	57.8571	35.1562	57.4234	35.1562	57.8222	35.1562	57.3762	35.1562	57.7781	35.1562	57.3354	35.1562	57.7262	35.1562	57.3024	35.1562	57.669	35.1562	57.2786	35.1562	57.6098	35.1562	57.2649	35.1562	57.552	35.1562	57.2615	35.1562	57.4984	35.1562	57.2671	35.1562	57.4511	35.1562	57.2799	35.1562	57.4105	35.1562	57.2981	35.1562	57.3759	35.1562	57.3204	35.1562	57.3462
36.6211	57.9656	36.6211	57.999	36.6211	57.9256	36.6211	58.0232	36.6211	57.8819	36.6211	58.0357	36.6211	57.8372	36.6211	58.035	36.6211	57.7937	36.6211	58.0202	36.6211	57.7527	36.6211	57.9915	36.6211	57.715	36.6211	57.9506	36.6211	57.6806	36.6211	57.9001	36.6211	57.6493	36.6211	57.8437	36.6211	57.6213	36.6211	57.7853	36.6211	57.5968	36.6211	57.7283	36.6211	57.5766	36.6211	57.6753	36.6211	57.5608	36.6211	57.6284	36.6211	57.5493	36.6211	57.5892	36.6211	57.5411	36.6211	57.5592	36.6211	57.5348	36.6211	57.5389	36.6211	57.5297	36.6211	57.5278	36.6211	57.5257	36.6211	57.5242
38.0859	58.7906	38.0859	58.8875	38.0859	58.6875	38.0859	58.9739	38.0859	58.5832	38.0859	59.0464	38.0859	58.4825	38.0859	59.1026	38.0859	58.3906	38.0859	59.141	38.0859	58.3126	38.0859	59.1615	38.0859	58.2528	38.0859	59.1646	38.0859	58.2141	38.0859	59.1522	38.0859	58.1982	38.0859	59.1265	38.0859	58.2044	38.0859	59.0905	38.0859	58.2307	38.0859	59.0473	38.0859	58.2737	38.0859	58.9999	38.0859	58.3289	38.0859	58.9502	38.0859	58.3912	38.0859	58.8996	38.0859	58.4562	38.0859	58.8484	38.0859	58.5201	38.0859	58.797	38.0859	58.5809	38.0859	58.7451	38.0859	58.6381	38.0859	58.6925
39.5508	59.7956	39.5508	59.8747	39.5508	59.7029	39.5508	59.9386	39.5508	59.5994	39.5508	59.9863	39.5508	59.4888	39.5508	60.018	39.5508	59.3758	39.5508	60.0342	39.5508	59.2658	39.5508	60.0357	39.5508	59.1654	39.5508	60.0228	39.5508	59.0812	39.5508	59.996	39.5508	59.0187	39.5508	59.9559	39.5508	58.9812	39.5508	59.9038	39.5508	58.9692	39.5508	59.8421	39.5508	58.9806	39.5508	59.7737	39.5508	59.0113	39.5508	59.7019	39.5508	59.0563	39.5508	59.6292	39.5508	59.1106	39.5508	59.5577	39.5508	59.1698	39.5508	59.4884	39.5508	59.2312	39.5508	59.4215	39.5508	59.2936	39.5508	59.3568
41.0156	60.5819	41.0156	60.6073	41.0156	60.547	41.0156	60.6233	41.0156	60.5024	41.0156	60.6301	41.0156	60.4482	41.0156	60.6283	41.0156	60.3847	41.0156	60.6186	41.0156	60.3129	41.0156	60.601	41.0156	60.2351	41.0156	60.575	41.0156	60.1551	41.0156	60.5393	41.0156	60.0773	41.0156	60.493	41.0156	60.0062	41.0156	60.436	41.0156	59.9452	41.0156	60.3693	41.0156	59.8965	41.0156	60.2959	41.0156	59.8608	41.0156	60.2194	41.0156	59.8382	41.0156	60.1436	41.0156	59.8285	41.0156	60.0721	41.0156	59.8309	41.0156	60.0075	41.0156	59.8449	41.0156	59.9516	41.0156	59.8699	41.0156	59.9056
42.4805	60.9494	42.4805	60.9707	42.4805	60.923	42.4805	60.9859	42.4805	60.8923	42.4805	60.9934	42.4805	60.857	42.4805	60.9919	42.4805	60.8169	42.4805	60.9808	42.4805	60.7723	42.4805	60.9601	42.4805	60.7248	42.4805	60.9304	42.4805	60.6775	42.4805	60.8926	42.4805	60.6345	42.4805	60.8483	42.4805	60.5996	42.4805	60.7993	42.4805	60.5749	42.4805	60.748	42.4805	60.5603	42.4805	60.6972	42.4805	60.5538	42.4805	60.6498	42.4805	60.5519	42.4805	60.6084	42.4805	60.5513	42.4805	60.5757	42.4805	60.5494	42.4805	60.5532	42.4805	60.5454	42.4805	60.5411	42.4805	60.5406	42.4805	60.538
43.9453	61.5904	43.9453	61.5973	43.9453	61.5733	43.9453	61.594	43.9453	61.5468	43.9453	61.5808	43.9453	61.512	43.9453	61.5588	43.9453	61.4703	43.9453	61.5293	43.9453	61.4237	43.9453	61.4937	43.9453	61.3745	43.9453	61.4533	43.9453	61.3257	43.9453	61.4092	43.9453	61.2801	43.9453	61.3628	43.9453	61.24	43.9453	61.3156	43.9453	61.2064	43.9453	61.2696	43.9453	61.1789	43.9453	61.2266	43.9453	61.1564	43.9453	61.188	43.9453	61.1374	43.9453	61.1545	43.9453	61.1208	43.9453	61.127	43.9453	61.1066	43.9453	61.1061	43.9453	61.0953	43.9453	61.0927	43.9453	61.0882	43.9453	61.0869
45.4102	62.4517	45.4102	62.4505	45.4102	62.4426	45.4102	62.4389	45.4102	62.4237	45.4102	62.4173	45.4102	62.3961	45.4102	62.3865	45.4102	62.3616	45.4102	62.3479	45.4102	62.3221	45.4102	62.3028	45.4102	62.2801	45.4102	62.2531	45.4102	62.2382	45.4102	62.201	45.4102	62.1987	45.4102	62.1487	45.4102	62.1632	45.4102	62.099	45.4102	62.1322	45.4102	62.0542	45.4102	62.1048	45.4102	62.0163	45.4102	62.0798	45.4102	61.9861	45.4102	62.0558	45.4102	61.9643	45.4102	62.0323	45.4102	61.9507	45.4102	62.0095	45.4102	61.9451	45.4102	61.9881	45.4102	61.9469	45.4102	61.9696	45.4102	61.9555
46.875	62.704	46.875	62.722	46.875	62.6834	46.875	62.736	46.875	62.6613	46.875	62.7447	46.875	62.6383	46.875	62.747	46.875	62.6146	46.875	62.7425	46.875	62.5905	46.875	62.7313	46.875	62.5668	46.875	62.7143	46.875	62.5449	46.875	62.6925	46.875	62.5266	46.875	62.6676	46.875	62.5132	46.875	62.6411	46.875	62.5053	46.875	62.6148	46.875	62.502	46.875	62.5899	46.875	62.502	46.875	62.5676	46.875	62.5034	46.875	62.5483	46.875	62.5048	46.875	62.5324	46.875	62.5053	46.875	62.5202	46.875	62.5052	46.875	62.5118	46.875	62.5054	46.875	62.5072
48.3398	63.5688	48.3398	63.5881	48.3398	63.5402	48.3398	63.5972	48.3398	63.5035	48.3398	63.5959	48.3398	63.4597	48.3398	63.5841	48.3398	63.41	48.3398	63.5625	48.3398	63.356	48.3398	63.532	48.3398	63.2996	48.3398	63.4939	48.3398	63.2432	48.3398	63.4495	48.3398	63.1895	48.3398	63.4	48.3398	63.1407	48.3398	63.3468	48.3398	63.0984	48.3398	63.2915	48.3398	63.0629	48.3398	63.2358	48.3398	63.034	48.3398	63.1816	48.3398	63.0111	48.3398	63.1309	48.3398	62.994	48.3398	63.0854	48.3398	62.9831	48.3398	63.0468	48.3398	62.979	48.3398	63.0165	48.3398	62.9827	48.3398	62.9951
51.2695	64.4251	51.2695	64.4259	51.2695	64.4152	51.2695	64.4171	51.2695	64.3975	51.2695	64.3982	51.2695	64.3731	51.2695	64.3702	51.2695	64.3431	51.2695	64.3345	51.2695	64.3087	51.2695	64.2931	51.2695	64.2714	51.2695	64.2488	51.2695	64.233	51.2695	64.2038	51.2695	64.1955	51.2695	64.1604	51.2695	64.1605	51.2695	64.1202	51.2695	64.129	51.2695	64.0842	51.2695	64.1009	51.2695	64.0531	51.2695	64.0758	51.2695	64.027	51.2695	64.053	51.2695	64.0063	51.2695	64.0324	51.2695	63.9911	51.2695	64.014	51.2695	63.9816	51.2695	63.9986	51.2695	63.9778	51.2695	63.9869	51.2695	63.9797
52.7344	64.9534	52.7344	64.9467	52.7344	64.95	52.7344	64.9294	52.7344	64.9374	52.7344	64.9018	52.7344	64.9164	52.7344	64.8646	52.7344	64.888	52.7344	64.8196	52.7344	64.8534	52.7344	64.7695	52.7344	64.8141	52.7344	64.7171	52.7344	64.7721	52.7344	64.6656	52.7344	64.7299	52.7344	64.6179	52.7344	64.6895	52.7344	64.576	52.7344	64.6521	52.7344	64.5411	52.7344	64.6183	52.7344	64.5133	52.7344	64.5878	52.7344	64.4922	52.7344	64.5604	52.7344	64.4773	52.7344	64.536	52.7344	64.468	52.7344	64.5146	52.7344	64.464	52.7344	64.4964	52.7344	64.4651	52.7344	64.4818	52.7344	64.4712
54.1992	65.3449	54.1992	65.3521	54.1992	65.3298	54.1992	65.351	54.1992	65.3076	54.1992	65.3416	54.1992	65.2787	54.1992	65.3241	54.1992	65.2442	54.1992	65.2995	54.1992	65.205	54.1992	65.269	54.1992	65.1628	54.1992	65.234	54.1992	65.1197	54.1992	65.1963	54.1992	65.0779	54.1992	65.1572	54.1992	65.0398	54.1992	65.1179	54.1992	65.0064	54.1992	65.0793	54.1992	64.9783	54.1992	65.0421	54.1992	64.9551	54.1992	65.0071	54.1992	64.9362	54.1992	64.9752	54.1992	64.9212	54.1992	64.9477	54.1992	64.9098	54.1992	64.9257	54.1992	64.9023	54.1992	64.9103	54.1992	64.8992	54.1992	64.9016
55.6641	65.7045	55.6641	65.7026	55.6641	65.6983	55.6641	65.6924	55.6641	65.6845	55.6641	65.6742	55.6641	65.6638	55.6641	65.6487	55.6641	65.6369	55.6641	65.6171	55.6641	65.6047	55.6641	65.5807	55.6641	65.5687	55.6641	65.5413	55.6641	65.5303	55.6641	65.5005	55.6641	65.4916	55.6641	65.4597	55.6641	65.4538	55.6641	65.42	55.6641	65.4177	55.6641	65.3824	55.6641	65.3835	55.6641	65.3474	55.6641	65.3509	55.6641	65.3155	55.6641	65.32	55.6641	65.2874	55.6641	65.2916	55.6641	65.2638	55.6641	65.2669	55.6641	65.2458	55.6641	65.2477	55.6641	65.2346	55.6641	65.2354	55.6641	65.2309
58.5938	66.965	58.5938	66.9792	58.5938	66.942	58.5938	66.9838	58.5938	66.9114	58.5938	66.9779	58.5938	66.8743	58.5938	66.9615	58.5938	66.8317	58.5938	66.9352	58.5938	66.7845	58.5938	66.9001	58.5938	66.7342	58.5938	66.8578	58.5938	66.6824	58.5938	66.8103	58.5938	66.6312	58.5938	66.7598	58.5938	66.5826	58.5938	66.7084	58.5938	66.5383	58.5938	66.6577	58.5938	66.4993	58.5938	66.6089	58.5938	66.4661	58.5938	66.5627	58.5938	66.4389	58.5938	66.5199	58.5938	66.418	58.5938	66.4817	58.5938	66.4038	58.5938	66.4493	58.5938	66.3968	58.5938	66.424	58.5938	66.3976	58.5938	66.4066
60.0586	67.278	60.0586	67.2766	60.0586	67.2719	60.0586	67.2673	60.0586	67.2588	60.0586	67.25	60.0586	67.2394	60.0586	67.2253	60.0586	67.2142	60.0586	67.1939	60.0586	67.1839	60.0586	67.1576	60.0586	67.1495	60.0586	67.1182	60.0586	67.1125	60.0586	67.0779	60.0586	67.0747	60.0586	67.0388	60.0586	67.038	60.0586	67.0028	60.0586	67.0039	60.0586	66.9713	60.0586	66.9736	60.0586	66.9447	60.0586	66.9476	60.0586	66.923	60.0586	66.9259	60.0586	66.9059	60.0586	66.9086	60.0586	66.8932	60.0586	66.8955	60.0586	66.8845	60.0586	66.8862	60.0586	66.8797	60.0586	66.8806	60.0586	66.8784
62.9883	68.0064	62.9883	68.01	62.9883	67.9964	62.9883	68.0067	62.9883	67.9807	62.9883	67.9962	62.9883	67.9602	62.9883	67.9789	62.9883	67.9358	62.9883	67.9555	62.9883	67.9085	62.9883	67.9273	62.9883	67.8794	62.9883	67.8957	62.9883	67.8494	62.9883	67.8627	62.9883	67.8199	62.9883	67.83	62.9883	67.792	62.9883	67.7993	62.9883	67.7663	62.9883	67.7718	62.9883	67.7436	62.9883	67.7482	62.9883	67.724	62.9883	67.7285	62.9883	67.7076	62.9883	67.7125	62.9883	67.6947	62.9883	67.6997	62.9883	67.6854	62.9883	67.6897	62.9883	67.6795	62.9883	67.6826	62.9883	67.6772	62.9883	67.6783
64.4531	68.3892	64.4531	68.3935	64.4531	68.3779	64.4531	68.3904	64.4531	68.3603	64.4531	68.3801	64.4531	68.3371	64.4531	68.3629	64.4531	68.3092	64.4531	68.3398	64.4531	68.2776	64.4531	68.3118	64.4531	68.2433	64.4531	68.2804	64.4531	68.2077	64.4531	68.2471	64.4531	68.172	64.4531	68.2134	64.4531	68.1377	64.4531	68.1806	64.4531	68.1061	64.4531	68.1497	64.4531	68.0781	64.4531	68.1214	64.4531	68.0545	64.4531	68.0961	64.4531	68.0359	64.4531	68.074	64.4531	68.0224	64.4531	68.055	64.4531	68.0142	64.4531	68.0392	64.4531	68.0109	64.4531	68.0267	64.4531	68.0122	64.4531	68.0176
67.3828	69.2917	67.3828	69.2876	67.3828	69.2842	67.3828	69.2716	67.3828	69.2655	67.3828	69.244	67.3828	69.2365	67.3828	69.2057	67.3828	69.198	67.3828	69.1582	67.3828	69.1513	67.3828	69.1035	67.3828	69.0978	67.3828	69.0441	67.3828	69.0392	67.3828	68.9825	67.3828	68.9775	67.3828	68.9214	67.3828	68.915	67.3828	68.8629	67.3828	68.8536	67.3828	68.8087	67.3828	68.7956	67.3828	68.7598	67.3828	68.7427	67.3828	68.7169	67.3828	68.6967	67.3828	68.6802	67.3828	68.6589	67.3828	68.6501	67.3828	68.6304	67.3828	68.6268	67.3828	68.6115	67.3828	68.6106	67.3828	68.6023	67.3828	68.6022
68.8477	69.6363	68.8477	69.6326	68.8477	69.6275	68.8477	69.6164	68.8477	69.6066	68.8477	69.5882	68.8477	69.5748	68.8477	69.5493	68.8477	69.5332	68.8477	69.5014	68.8477	69.4836	68.8477	69.4469	68.8477	69.4277	68.8477	69.3881	68.8477	69.3676	68.8477	69.3277	68.8477	69.3053	68.8477	69.2678	68.8477	69.2428	68.8477	69.2103	68.8477	69.1823	68.8477	69.1565	68.8477	69.1256	68.8477	69.1073	68.8477	69.0745	68.8477	69.0635	68.8477	69.0306	68.8477	69.0256	68.8477	68.9948	68.8477	68.9942	68.8477	68.968	68.8477	68.9697	68.8477	68.9506	68.8477	68.9525	68.8477	68.9425	68.8477	68.9433
71.7773	70.3791	71.7773	70.3697	71.7773	70.3784	71.7773	70.3504	71.7773	70.3678	71.7773	70.3218	71.7773	70.348	71.7773	70.2846	71.7773	70.3199	71.7773	70.2402	71.7773	70.2846	71.7773	70.1901	71.7773	70.2432	71.7773	70.136	71.7773	70.1971	71.7773	70.0799	71.7773	70.1473	71.7773	70.024	71.7773	70.0953	71.7773	69.9703	71.7773	70.0426	71.7773	69.9206	71.7773	69.9909	71.7773	69.8765	71.7773	69.9418	71.7773	69.839	71.7773	69.897	71.7773	69.8089	71.7773	69.8577	71.7773	69.7868	71.7773	69.8248	71.7773	69.7729	71.7773	69.799	71.7773	69.7673	71.7773	69.7806	71.7773	69.77
74.707	70.9745	74.707	70.975	74.707	70.9654	74.707	70.9667	74.707	70.9484	74.707	70.9499	74.707	70.9246	74.707	70.9251	74.707	70.8952	74.707	70.8936	74.707	70.8617	74.707	70.8566	74.707	70.8252	74.707	70.8155	74.707	70.7871	74.707	70.7721	74.707	70.7481	74.707	70.728	74.707	70.7091	74.707	70.6849	74.707	70.6708	74.707	70.6441	74.707	70.6341	74.707	70.6069	74.707	70.5998	74.707	70.5739	74.707	70.5689	74.707	70.5457	74.707	70.5423	74.707	70.5229	74.707	70.5208	74.707	70.5062	74.707	70.5049	74.707	70.4958	74.707	70.4952	74.707	70.4921
77.6367	71.6502	77.6367	71.6557	77.6367	71.6354	77.6367	71.6519	77.6367	71.6118	77.6367	71.6396	77.6367	71.5804	77.6367	71.6196	77.6367	71.5428	77.6367	71.5932	77.6367	71.501	77.6367	71.5621	77.6367	71.457	77.6367	71.5279	77.6367	71.413	77.6367	71.4923	77.6367	71.3705	77.6367	71.4568	77.6367	71.3308	77.6367	71.4225	77.6367	71.2952	77.6367	71.3904	77.6367	71.2646	77.6367	71.3606	77.6367	71.2396	77.6367	71.3332	77.6367	71.2212	77.6367	71.308	77.6367	71.2097	77.6367	71.2847	77.6367	71.2052	77.6367	71.2633	77.6367	71.2072	77.6367	71.2441	77.6367	71.2151	77.6367	71.2277
79.1016	72.0332	79.1016	72.0374	79.1016	72.0184	79.1016	72.0312	79.1016	71.9934	79.1016	72.0151	79.1016	71.9591	79.1016	71.99	79.1016	71.9166	79.1016	71.957	79.1016	71.868	79.1016	71.9176	79.1016	71.8152	79.1016	71.8735	79.1016	71.7605	79.1016	71.8267	79.1016	71.706	79.1016	71.7791	79.1016	71.6539	79.1016	71.7325	79.1016	71.6061	79.1016	71.6885	79.1016	71.5643	79.1016	71.6481	79.1016	71.5298	79.1016	71.6118	79.1016	71.5036	79.1016	71.5798	79.1016	71.4863	79.1016	71.5522	79.1016	71.4775	79.1016	71.5287	79.1016	71.4766	79.1016	71.5091	79.1016	71.4823	79.1016	71.4934
82.0312	72.7854	82.0312	72.7784	82.0312	72.78	82.0312	72.7591	82.0312	72.7621	82.0312	72.7282	82.0312	72.7322	82.0312	72.6865	82.0312	72.6909	82.0312	72.6353	82.0312	72.6396	82.0312	72.576	82.0312	72.5797	82.0312	72.5104	82.0312	72.5131	82.0312	72.4407	82.0312	72.4419	82.0312	72.3691	82.0312	72.3685	82.0312	72.2982	82.0312	72.2956	82.0312	72.2305	82.0312	72.2257	82.0312	72.1685	82.0312	72.1615	82.0312	72.1139	82.0312	72.1054	82.0312	72.0682	82.0312	72.0589	82.0312	72.032	82.0312	72.0232	82.0312	72.0055	82.0312	71.9985	82.0312	71.9886	82.0312	71.9848	82.0312	71.9816
84.9609	73.2859	84.9609	73.2737	84.9609	73.2889	84.9609	73.2532	84.9609	73.2822	84.9609	73.2253	84.9609	73.2657	84.9609	73.1908	84.9609	73.2393	84.9609	73.1509	84.9609	73.2035	84.9609	73.1063	84.9609	73.1591	84.9609	73.0579	84.9609	73.1072	84.9609	73.0064	84.9609	73.049	84.9609	72.9528	84.9609	72.9861	84.9609	72.8981	84.9609	72.9206	84.9609	72.8436	84.9609	72.8549	84.9609	72.7905	84.9609	72.7916	84.9609	72.7403	84.9609	72.7335	84.9609	72.6949	84.9609	72.6832	84.9609	72.6558	84.9609	72.6428	84.9609	72.6249	84.9609	72.6141	84.9609	72.604	84.9609	72.5979	84.9609	72.5947
87.8906	73.349	87.8906	73.3191	87.8906	73.3771	87.8906	73.2888	87.8906	73.4027	87.8906	73.2599	87.8906	73.4249	87.8906	73.2345	87.8906	73.4432	87.8906	73.2149	87.8906	73.4573	87.8906	73.2029	87.8906	73.4668	87.8906	73.1999	87.8906	73.4715	87.8906	73.2062	87.8906	73.4718	87.8906	73.2211	87.8906	73.4682	87.8906	73.2428	87.8906	73.462	87.8906	73.2687	87.8906	73.4544	87.8906	73.2962	87.8906	73.4465	87.8906	73.3227	87.8906	73.4393	87.8906	73.3464	87.8906	73.4329	87.8906	73.3662	87.8906	73.427	87.8906	73.3823	87.8906	73.421	87.8906	73.3951	87.8906	73.414	87.8906	73.4055
90.8203	73.8271	90.8203	73.8309	90.8203	73.8218	90.8203	73.8325	90.8203	73.8166	90.8203	73.8318	90.8203	73.8134	90.8203	73.8297	90.8203	73.8142	90.8203	73.8278	90.8203	73.8207	90.8203	73.8282	90.8203	73.834	90.8203	73.8333	90.8203	73.8544	90.8203	73.8452	90.8203	73.8813	90.8203	73.8652	90.8203	73.9136	90.8203	73.8938	90.8203	73.9498	90.8203	73.9299	90.8203	73.9883	90.8203	73.9715	90.8203	74.0272	90.8203	74.0155	90.8203	74.0645	90.8203	74.0583	90.8203	74.0983	90.8203	74.0964	90.8203	74.1262	90.8203	74.1269	90.8203	74.1465	90.8203	74.1478	90.8203	74.1575	90.8203	74.1581
95.2148	75.2881	95.2148	75.2981	95.2148	75.2586	95.2148	75.2892	95.2148	75.2099	95.2148	75.2626	95.2148	75.1431	95.2148	75.2199	95.2148	75.0608	95.2148	75.1628	95.2148	74.9663	95.2148	75.0931	95.2148	74.8636	95.2148	75.0127	95.2148	74.7573	95.2148	74.9236	95.2148	74.652	95.2148	74.828	95.2148	74.5521	95.2148	74.7291	95.2148	74.4619	95.2148	74.6305	95.2148	74.3847	95.2148	74.5365	95.2148	74.3225	95.2148	74.4511	95.2148	74.2759	95.2148	74.3777	95.2148	74.2436	95.2148	74.3184	95.2148	74.2236	95.2148	74.2735	95.2148	74.2142	95.2148	74.2423	95.2148	74.2139	95.2148	74.223
98.1445	75.663	98.1445	75.6581	98.1445	75.6549	98.1445	75.6408	98.1445	75.6342	98.1445	75.6131	98.1445	75.6022	98.1445	75.5777	98.1445	75.5609	98.1445	75.5379	98.1445	75.5126	98.1445	75.4971	98.1445	75.4594	98.1445	75.458	98.1445	75.4031	98.1445	75.4223	98.1445	75.3454	98.1445	75.3906	98.1445	75.2881	98.1445	75.3618	98.1445	75.2334	98.1445	75.3342	98.1445	75.1839	98.1445	75.3061	98.1445	75.1425	98.1445	75.276	98.1445	75.1114	98.1445	75.2437	98.1445	75.0918	98.1445	75.2101	98.1445	75.0838	98.1445	75.1767	98.1445	75.0866	98.1445	75.1457	98.1445	75.0989	98.1445	75.1191
101.074	76.2273	101.074	76.2367	101.074	76.2076	101.074	76.235	101.074	76.1789	101.074	76.222	101.074	76.1431	101.074	76.1979	101.074	76.1023	101.074	76.164	101.074	76.0586	101.074	76.122	101.074	76.0143	101.074	76.0743	101.074	75.971	101.074	76.0237	101.074	75.9299	101.074	75.9728	101.074	75.8914	101.074	75.9237	101.074	75.8555	101.074	75.8775	101.074	75.822	101.074	75.8344	101.074	75.7908	101.074	75.7947	101.074	75.762	101.074	75.7591	101.074	75.736	101.074	75.7289	101.074	75.7138	101.074	75.7058	101.074	75.6969	101.074	75.6908	101.074	75.6867	101.074	75.6845
105.469	76.7303	105.469	76.7508	105.469	76.7047	105.469	76.7654	105.469	76.6749	105.469	76.7737	105.469	76.642	105.469	76.775	105.469	76.607	105.469	76.7693	105.469	76.5715	105.469	76.7569	105.469	76.5376	105.469	76.7388	105.469	76.5076	105.469	76.7166	105.469	76.4842	105.469	76.6926	105.469	76.47	105.469	76.6695	105.469	76.4664	105.469	76.65	105.469	76.4736	105.469	76.636	105.469	76.4903	105.469	76.6277	105.469	76.5137	105.469	76.6244	105.469	76.5403	105.469	76.624	105.469	76.5664	105.469	76.6242	105.469	76.589	105.469	76.6226	105.469	76.6061	105.469	76.6171
108.398	77.485	108.398	77.496	108.398	77.4606	108.398	77.4935	108.398	77.4238	108.398	77.4783	108.398	77.3761	108.398	77.4515	108.398	77.3201	108.398	77.4148	108.398	77.2584	108.398	77.3703	108.398	77.194	108.398	77.3199	108.398	77.1299	108.398	77.2655	108.398	77.0688	108.398	77.2091	108.398	77.0131	108.398	77.1529	108.398	76.9647	108.398	77.0986	108.398	76.9246	108.398	77.0482	108.398	76.8934	108.398	77.0028	108.398	76.8708	108.398	76.963	108.398	76.8563	108.398	76.9291	108.398	76.8489	108.398	76.9009	108.398	76.8478	108.398	76.8788	108.398	76.8525	108.398	76.8627
112.793	78.1879	112.793	78.2033	112.793	78.1495	112.793	78.196	112.793	78.089	112.793	78.168	112.793	78.0089	112.793	78.1225	112.793	77.9135	112.793	78.064	112.793	77.8082	112.793	77.9977	112.793	77.6999	112.793	77.929	112.793	77.5955	112.793	77.8631	112.793	77.5019	112.793	77.804	112.793	77.4242	112.793	77.754	112.793	77.3661	112.793	77.7137	112.793	77.3287	112.793	77.6814	112.793	77.3116	112.793	77.6543	112.793	77.313	112.793	77.6286	112.793	77.3301	112.793	77.6009	112.793	77.3598	112.793	77.5685	112.793	77.3986	112.793	77.5305	112.793	77.4426	112.793	77.4877
117.188	78.8192	117.188	78.8117	117.188	78.806	117.188	78.7832	117.188	78.7728	117.188	78.7343	117.188	78.7212	117.188	78.6666	117.188	78.6532	117.188	78.5827	117.188	78.5719	117.188	78.4866	117.188	78.481	117.188	78.3833	117.188	78.3855	117.188	78.2791	117.188	78.2911	117.188	78.1807	117.188	78.2038	117.188	78.095	117.188	78.1292	117.188	78.0277	117.188	78.0714	117.188	77.9827	117.188	78.0325	117.188	77.9607	117.188	78.0122	117.188	77.9593	117.188	78.0074	117.188	77.9725	117.188	78.0127	117.188	77.9927	117.188	78.0214	117.188	78.0119	117.188	78.0268	117.188	78.0241
120.117	79.5627	120.117	79.5444	120.117	79.5558	120.117	79.5011	120.117	79.5244	120.117	79.4336	120.117	79.4697	120.117	79.3434	120.117	79.3932	120.117	79.233	120.117	79.2967	120.117	79.1053	120.117	79.1824	120.117	78.9638	120.117	79.0531	120.117	78.8127	120.117	78.9122	120.117	78.6568	120.117	78.7642	120.117	78.5016	120.117	78.6144	120.117	78.3532	120.117	78.4688	120.117	78.218	120.117	78.3334	120.117	78.102	120.117	78.2131	120.117	78.01	120.117	78.1116	120.117	77.9444	120.117	78.0301	120.117	77.9055	120.117	77.9681	120.117	77.8911	120.117	77.9243	120.117	77.8983
124.512	80.0714	124.512	80.0748	124.512	80.0466	124.512	80.0568	124.512	80.0006	124.512	80.0182	124.512	79.9343	124.512	79.9597	124.512	79.8487	124.512	79.8828	124.512	79.7453	124.512	79.7886	124.512	79.6256	124.512	79.6785	124.512	79.4917	124.512	79.5539	124.512	79.3458	124.512	79.4158	124.512	79.1911	124.512	79.2657	124.512	79.0317	124.512	79.1059	124.512	78.8722	124.512	78.9402	124.512	78.7182	124.512	78.7746	124.512	78.5757	124.512	78.6169	124.512	78.4508	124.512	78.4764	124.512	78.3494	124.512	78.3623	124.512	78.2773	124.512	78.2822	124.512	78.2399	124.512	78.241
128.906	79.8395	128.906	79.8805	128.906	79.7928	128.906	79.9148	128.906	79.742	128.906	79.9418	128.906	79.6891	128.906	79.9614	128.906	79.6366	128.906	79.9741	128.906	79.5866	128.906	79.9805	128.906	79.5417	128.906	79.9813	128.906	79.5038	128.906	79.9773	128.906	79.4744	128.906	79.9685	128.906	79.4547	128.906	79.9549	128.906	79.4449	128.906	79.9358	128.906	79.4451	128.906	79.9105	128.906	79.4546	128.906	79.8785	128.906	79.4725	128.906	79.84	128.906	79.4978	128.906	79.7962	128.906	79.5293	128.906	79.7488	128.906	79.5662	128.906	79.7002	128.906	79.6075	128.906	79.6526
133.301	80.4766	133.301	80.5	133.301	80.4414	133.301	80.511	133.301	80.3957	133.301	80.5097	133.301	80.3416	133.301	80.4973	133.301	80.2818	133.301	80.4755	133.301	80.2195	133.301	80.4471	133.301	80.1584	133.301	80.4149	133.301	80.102	133.301	80.3819	133.301	80.0539	133.301	80.3501	133.301	80.0166	133.301	80.3211	133.301	79.9921	133.301	80.295	133.301	79.981	133.301	80.2714	133.301	79.9829	133.301	80.2493	133.301	79.9961	133.301	80.2277	133.301	80.018	133.301	80.2058	133.301	80.0455	133.301	80.183	133.301	80.0754	133.301	80.1589	133.301	80.1051	133.301	80.133
139.16	81.3145	139.16	81.3292	139.16	81.2878	139.16	81.3321	139.16	81.2498	139.16	81.3236	139.16	81.2014	139.16	81.3048	139.16	81.1443	139.16	81.2769	139.16	81.0808	139.16	81.2417	139.16	81.0136	139.16	81.2011	139.16	80.9457	139.16	81.1571	139.16	80.8803	139.16	81.1116	139.16	80.8204	139.16	81.0658	139.16	80.7685	139.16	81.0203	139.16	80.7262	139.16	80.975	139.16	80.6945	139.16	80.9295	139.16	80.6738	139.16	80.8838	139.16	80.6637	139.16	80.8384	139.16	80.6639	139.16	80.7948	139.16	80.6738	139.16	80.7548	139.16	80.6929	139.16	80.7203
143.555	81.7631	143.555	81.7624	143.555	81.7509	143.555	81.7499	143.555	81.7258	143.555	81.7273	143.555	81.6884	143.555	81.6972	143.555	81.6403	143.555	81.6622	143.555	81.5836	143.555	81.6248	143.555	81.5209	143.555	81.5875	143.555	81.4556	143.555	81.552	143.555	81.3912	143.555	81.5194	143.555	81.3312	143.555	81.4899	143.555	81.279	143.555	81.4629	143.555	81.2367	143.555	81.437	143.555	81.2059	143.555	81.4109	143.555	81.187	143.555	81.3828	143.555	81.1798	143.555	81.3522	143.555	81.1839	143.555	81.319	143.555	81.1983	143.555	81.2847	143.555	81.2215	143.555	81.2512
147.949	82.1361	147.949	82.1159	147.949	82.1395	147.949	82.0816	147.949	82.1256	147.949	82.0368	147.949	82.0954	147.949	81.9865	147.949	82.0518	147.949	81.936	147.949	81.9987	147.949	81.8903	147.949	81.941	147.949	81.8535	147.949	81.8834	147.949	81.8281	147.949	81.8307	147.949	81.8153	147.949	81.7867	147.949	81.8143	147.949	81.7546	147.949	81.8231	147.949	81.7364	147.949	81.8388	147.949	81.7326	147.949	81.8574	147.949	81.7424	147.949	81.8749	147.949	81.7629	147.949	81.8872	147.949	81.7905	147.949	81.8916	147.949	81.8206	147.949	81.8865	147.949	81.849	147.949	81.8718
153.809	82.7439	153.809	82.7458	153.809	82.7224	153.809	82.7279	153.809	82.6823	153.809	82.6916	153.809	82.6258	153.809	82.6398	153.809	82.5557	153.809	82.577	153.809	82.4757	153.809	82.5086	153.809	82.3904	153.809	82.44	153.809	82.3049	153.809	82.3759	153.809	82.2247	153.809	82.3192	153.809	82.1546	153.809	82.2709	153.809	82.098	153.809	82.2304	153.809	82.0567	153.809	82.1961	153.809	82.0303	153.809	82.1664	153.809	82.0171	153.809	82.1399	153.809	82.0145	153.809	82.1162	153.809	82.0196	153.809	82.0949	153.809	82.0299	153.809	82.0758	153.809	82.0433	153.809	82.0587
159.668	83.1289	159.668	83.1344	159.668	83.1041	159.668	83.1202	159.668	83.062	159.668	83.0879	159.668	83.0057	159.668	83.0405	159.668	82.9386	159.668	82.9829	159.668	82.8642	159.668	82.921	159.668	82.7862	159.668	82.8607	159.668	82.708	159.668	82.8071	159.668	82.6334	159.668	82.7636	159.668	82.5666	159.668	82.7311	159.668	82.5116	159.668	82.7079	159.668	82.4718	159.668	82.6907	159.668	82.4488	159.668	82.6755	159.668	82.4421	159.668	82.6587	159.668	82.4498	159.668	82.6384	159.668	82.4683	159.668	82.6139	159.668	82.4941	159.668	82.5858	159.668	82.524	159.668	82.5553
165.527	83.6268	165.527	83.6258	165.527	83.6072	165.527	83.604	165.527	83.569	165.527	83.5629	165.527	83.5152	165.527	83.5053	165.527	83.4503	165.527	83.4359	165.527	83.3793	165.527	83.36	165.527	83.3068	165.527	83.2835	165.527	83.2368	165.527	83.2123	165.527	83.1723	165.527	83.1511	165.527	83.1153	165.527	83.1028	165.527	83.0676	165.527	83.0685	165.527	83.0303	165.527	83.0472	165.527	83.0041	165.527	83.0356	165.527	82.9885	165.527	83.0298	165.527	82.9822	165.527	83.0259	165.527	82.9831	165.527	83.0212	165.527	82.9889	165.527	83.0146	165.527	82.9972	165.527	83.0063
171.387	83.9836	171.387	83.9771	171.387	83.969	171.387	83.9498	171.387	83.9344	171.387	83.904	171.387	83.8826	171.387	83.8435	171.387	83.818	171.387	83.7739	171.387	83.7461	171.387	83.7021	171.387	83.6729	171.387	83.6348	171.387	83.6043	171.387	83.5778	171.387	83.5447	171.387	83.5346	171.387	83.497	171.387	83.5057	171.387	83.4622	171.387	83.4892	171.387	83.4397	171.387	83.4818	171.387	83.4276	171.387	83.4794	171.387	83.4237	171.387	83.4786	171.387	83.4256	171.387	83.4768	171.387	83.4314	171.387	83.4729	171.387	83.4397	171.387	83.4665	171.387	83.449	171.387	83.4583
177.246	84.4071	177.246	84.4065	177.246	84.384	177.246	84.3812	177.246	84.3398	177.246	84.3319	177.246	84.2779	177.246	84.2613	177.246	84.2022	177.246	84.1744	177.246	84.1171	177.246	84.0783	177.246	84.0272	177.246	83.9813	177.246	83.9373	177.246	83.8924	177.246	83.8524	177.246	83.8187	177.246	83.7774	177.246	83.7647	177.246	83.7161	177.246	83.7307	177.246	83.6709	177.246	83.7136	177.246	83.6423	177.246	83.7079	177.246	83.6293	177.246	83.7077	177.246	83.6293	177.246	83.708	177.246	83.6389	177.246	83.7055	177.246	83.6542	177.246	83.6985	177.246	83.6712	177.246	83.6867
183.105	84.633	183.105	84.6402	183.105	84.6002	183.105	84.6227	183.105	84.543	183.105	84.5828	183.105	84.4647	183.105	84.5236	183.105	84.3708	183.105	84.4492	183.105	84.2681	183.105	84.3647	183.105	84.1638	183.105	84.2764	183.105	84.0645	183.105	84.1915	183.105	83.9755	183.105	84.1171	183.105	83.9005	183.105	84.0585	183.105	83.8411	183.105	84.0178	183.105	83.7979	183.105	83.9936	183.105	83.7707	183.105	83.981	183.105	83.7593	183.105	83.9734	183.105	83.7635	183.105	83.964	183.105	83.7824	183.105	83.9478	183.105	83.8129	183.105	83.9224	183.105	83.8503	183.105	83.8887
188.965	84.6389	188.965	84.6564	188.965	84.6071	188.965	84.6575	188.965	84.5631	188.965	84.6417	188.965	84.5092	188.965	84.61	188.965	84.4471	188.965	84.5653	188.965	84.3787	188.965	84.5123	188.965	84.3069	188.965	84.4568	188.965	84.2362	188.965	84.4052	188.965	84.1727	188.965	84.3629	188.965	84.1225	188.965	84.3335	188.965	84.0897	188.965	84.3178	188.965	84.0755	188.965	84.3133	188.965	84.0777	188.965	84.3155	188.965	84.0929	188.965	84.3185	188.965	84.1173	188.965	84.3169	188.965	84.1484	188.965	84.3067	188.965	84.1839	188.965	84.2863	188.965	84.2213	188.965	84.2568
196.289	85.0254	196.289	85.033	196.289	84.9904	196.289	85.0125	196.289	84.9313	196.289	84.9661	196.289	84.8529	196.289	84.8984	196.289	84.7607	196.289	84.8158	196.289	84.6595	196.289	84.7257	196.289	84.5532	196.289	84.6358	196.289	84.4459	196.289	84.5532	196.289	84.3426	196.289	84.4839	196.289	84.2493	196.289	84.4318	196.289	84.1723	196.289	84.3983	196.289	84.1172	196.289	84.3821	196.289	84.0868	196.289	84.3783	196.289	84.0817	196.289	84.3796	196.289	84.0996	196.289	84.3776	196.289	84.1367	196.289	84.365	196.289	84.187	196.289	84.3375	196.289	84.2427	196.289	84.2953
203.613	85.2492	203.613	85.2322	203.613	85.2282	203.613	85.1795	203.613	85.1706	203.613	85.0972	203.613	85.0815	203.613	84.9943	203.613	84.9677	203.613	84.8818	203.613	84.8371	203.613	84.7713	203.613	84.6976	203.613	84.6731	203.613	84.5571	203.613	84.5951	203.613	84.4248	203.613	84.5414	203.613	84.3116	203.613	84.512	203.613	84.2286	203.613	84.5039	203.613	84.1844	203.613	84.5121	203.613	84.181	203.613	84.5303	203.613	84.2136	203.613	84.5519	203.613	84.2717	203.613	84.5694	203.613	84.3428	203.613	84.5753	203.613	84.4158	203.613	84.5638	203.613	84.4812	203.613	84.5321
210.938	85.3232	210.938	85.2835	210.938	85.3371	210.938	85.2197	210.938	85.3235	210.938	85.1327	210.938	85.2819	210.938	85.0243	210.938	85.2152	210.938	84.8986	210.938	85.1298	210.938	84.7643	210.938	85.0357	210.938	84.6344	210.938	84.9433	210.938	84.5247	210.938	84.8609	210.938	84.4487	210.938	84.7922	210.938	84.4131	210.938	84.7365	210.938	84.4152	210.938	84.6903	210.938	84.4435	210.938	84.6499	210.938	84.4822	210.938	84.613	210.938	84.5166	210.938	84.5797	210.938	84.5378	210.938	84.5525	210.938	84.5438	210.938	84.5343	210.938	84.5387	210.938	84.5274	210.938	84.5306
218.262	85.3033	218.262	85.3021	218.262	85.2837	218.262	85.2768	218.262	85.248	218.262	85.227	218.262	85.2008	218.262	85.1555	218.262	85.1445	218.262	85.0672	218.262	85.0794	218.262	84.9687	218.262	85.0055	218.262	84.8678	218.262	84.9252	218.262	84.7736	218.262	84.8452	218.262	84.6954	218.262	84.7738	218.262	84.6413	218.262	84.7179	218.262	84.6167	218.262	84.6804	218.262	84.6222	218.262	84.6605	218.262	84.6535	218.262	84.657	218.262	84.7008	218.262	84.6699	218.262	84.7512	218.262	84.6983	218.262	84.7912	218.262	84.7373	218.262	84.8104	218.262	84.7768	218.262	84.8045
225.586	85.4431	225.586	85.4609	225.586	85.3907	225.586	85.4454	225.586	85.3059	225.586	85.3999	225.586	85.1952	225.586	85.3285	225.586	85.0692	225.586	85.2366	225.586	84.9394	225.586	85.1321	225.586	84.8155	225.586	85.025	225.586	84.7042	225.586	84.9271	225.586	84.611	225.586	84.8489	225.586	84.5428	225.586	84.7964	225.586	84.5081	225.586	84.7692	225.586	84.5131	225.586	84.7624	225.586	84.5558	225.586	84.7688	225.586	84.6247	225.586	84.7825	225.586	84.7017	225.586	84.7996	225.586	84.7695	225.586	84.8175	225.586	84.8167	225.586	84.8335	225.586	84.84	225.586	84.8432
232.91	85.5929	232.91	85.5945	232.91	85.5524	232.91	85.5603	232.91	85.472	232.91	85.4945	232.91	85.354	232.91	85.4018	232.91	85.2046	232.91	85.2873	232.91	85.0345	232.91	85.1569	232.91	84.8575	232.91	85.0187	232.91	84.689	232.91	84.8831	232.91	84.5432	232.91	84.763	232.91	84.4305	232.91	84.6707	232.91	84.3565	232.91	84.6136	232.91	84.3214	232.91	84.5918	232.91	84.3204	232.91	84.5973	232.91	84.3459	232.91	84.6174	232.91	84.3895	232.91	84.638	232.91	84.4438	232.91	84.647	232.91	84.5024	232.91	84.6369	232.91	84.559	232.91	84.6062
241.699	85.2975	241.699	85.291	241.699	85.271	241.699	85.2517	241.699	85.2144	241.699	85.1824	241.699	85.1335	241.699	85.0891	241.699	85.036	241.699	84.9797	241.699	84.9303	241.699	84.8642	241.699	84.8238	241.699	84.7536	241.699	84.7217	241.699	84.6577	241.699	84.6276	241.699	84.5838	241.699	84.5439	241.699	84.5351	241.699	84.4734	241.699	84.5107	241.699	84.4202	241.699	84.5059	241.699	84.3887	241.699	84.5134	241.699	84.3815	241.699	84.5258	241.699	84.3973	241.699	84.5367	241.699	84.429	241.699	84.5418	241.699	84.4666	241.699	84.5386	241.699	84.5006	241.699	84.5251
250.488	85.2688	250.488	85.2708	250.488	85.2207	250.488	85.2278	250.488	85.1298	250.488	85.1456	250.488	85.0038	250.488	85.0338	250.488	84.8534	250.488	84.904	250.488	84.6928	250.488	84.7687	250.488	84.5394	250.488	84.6402	250.488	84.412	250.488	84.5296	250.488	84.327	250.488	84.4459	250.488	84.2922	250.488	84.3944	250.488	84.3028	250.488	84.3756	250.488	84.343	250.488	84.3845	250.488	84.3936	250.488	84.4115	250.488	84.4392	250.488	84.4453	250.488	84.4723	250.488	84.4758	250.488	84.4929	250.488	84.4972	250.488	84.5044	250.488	84.5085	250.488	84.5102	250.488	84.5119
259.277	85.3136	259.277	85.2736	259.277	85.3107	259.277	85.19	259.277	85.2683	259.277	85.0657	259.277	85.1909	259.277	84.9094	259.277	85.0829	259.277	84.735	259.277	84.9485	259.277	84.5612	259.277	84.7919	259.277	84.4066	259.277	84.6194	259.277	84.2868	259.277	84.443	259.277	84.2108	259.277	84.281	259.277	84.182	259.277	84.1559	259.277	84.1978	259.277	84.0872	259.277	84.2493	259.277	84.0828	259.277	84.3211	259.277	84.1342	259.277	84.3945	259.277	84.2195	259.277	84.4529	259.277	84.3123	259.277	84.4874	259.277	84.392	259.277	84.4969	259.277	84.4494	259.277	84.4838
268.066	85.3356	268.066	85.2896	268.066	85.3271	268.066	85.1936	268.066	85.2645	268.066	85.0562	268.066	85.1527	268.066	84.8887	268.066	85.0002	268.066	84.7061	268.066	84.8173	268.066	84.5276	268.066	84.6158	268.066	84.3742	268.066	84.4103	268.066	84.2633	268.066	84.2169	268.066	84.2028	268.066	84.0498	268.066	84.1912	268.066	83.9169	268.066	84.2216	268.066	83.8195	268.066	84.2836	268.066	83.7572	268.066	84.3606	268.066	83.7336	268.066	84.4276	268.066	83.755	268.066	84.457	268.066	83.8239	268.066	84.43	268.066	83.9342	268.066	84.3449	268.066	84.0721	268.066	84.2173
276.855	85.0952	276.855	85.0704	276.855	85.0841	276.855	85.0067	276.855	85.0421	276.855	84.9021	276.855	84.9761	276.855	84.7555	276.855	84.8905	276.855	84.5691	276.855	84.7828	276.855	84.3527	276.855	84.6436	276.855	84.1263	276.855	84.4647	276.855	83.9188	276.855	84.2537	276.855	83.7598	276.855	84.042	276.855	83.6691	276.855	83.8749	276.855	83.6526	276.855	83.7831	276.855	83.7053	276.855	83.7622	276.855	83.8139	276.855	83.7828	276.855	83.955	276.855	83.8224	276.855	84.0928	276.855	83.88	276.855	84.1878	276.855	83.9642	276.855	84.2122	276.855	84.0687	276.855	84.1642
287.109	84.8425	287.109	84.8509	287.109	84.7858	287.109	84.8118	287.109	84.6815	287.109	84.7279	287.109	84.5348	287.109	84.6073	287.109	84.3585	287.109	84.4662	287.109	84.1732	287.109	84.3295	287.109	84.0014	287.109	84.2231	287.109	83.8559	287.109	84.1634	287.109	83.7319	287.109	84.1499	287.109	83.6159	287.109	84.1677	287.109	83.5028	287.109	84.1982	287.109	83.4076	287.109	84.229	287.109	83.36	287.109	84.2567	287.109	83.3858	287.109	84.2808	287.109	83.4893	287.109	84.295	287.109	83.6502	287.109	84.2858	287.109	83.8338	287.109	84.2388	287.109	84.0067	287.109	84.1455
297.363	84.7994	297.363	84.8369	297.363	84.7335	297.363	84.8386	297.363	84.6422	297.363	84.7964	297.363	84.5219	297.363	84.7047	297.363	84.3671	297.363	84.5616	297.363	84.177	297.363	84.3711	297.363	83.9646	297.363	84.1469	297.363	83.7589	297.363	83.9151	297.363	83.5971	297.363	83.7074	297.363	83.5087	297.363	83.5477	297.363	83.5034	297.363	83.4402	297.363	83.5709	297.363	83.3728	297.363	83.6872	297.363	83.3343	297.363	83.8206	297.363	83.3301	297.363	83.9373	297.363	83.3784	297.363	84.008	297.363	83.49	297.363	84.0133	297.363	83.6488	297.363	83.9461	297.363	83.8152
307.617	84.6627	307.617	84.6836	307.617	84.5856	307.617	84.6355	307.617	84.472	307.617	84.515	307.617	84.3443	307.617	84.3297	307.617	84.2208	307.617	84.0987	307.617	84.1082	307.617	83.852	307.617	84.0001	307.617	83.6252	307.617	83.8822	307.617	83.4526	307.617	83.7424	307.617	83.3552	307.617	83.5794	307.617	83.3329	307.617	83.4075	307.617	83.3657	307.617	83.2571	307.617	83.4228	307.617	83.1662	307.617	83.4755	307.617	83.1601	307.617	83.5073	307.617	83.2297	307.617	83.5166	307.617	83.3327	307.617	83.5127	307.617	83.4224	307.617	83.5059	307.617	83.4755	307.617	83.4975
319.336	84.6836	319.336	84.5405	319.336	84.7395	319.336	84.3335	319.336	84.6992	319.336	84.0923	319.336	84.5697	319.336	83.843	319.336	84.3697	319.336	83.6015	319.336	84.1218	319.336	83.3719	319.336	83.8496	319.336	83.1537	319.336	83.5818	319.336	82.9533	319.336	83.3557	319.336	82.794	319.336	83.206	319.336	82.7138	319.336	83.1429	319.336	82.7443	319.336	83.1443	319.336	82.8842	319.336	83.1764	319.336	83.0919	319.336	83.2196	319.336	83.3061	319.336	83.2737	319.336	83.4748	319.336	83.344	319.336	83.5729	319.336	83.4272	319.336	83.6008	319.336	83.5097	319.336	83.5736
329.59	84.2421	329.59	84.16	329.59	84.2836	329.59	84.0628	329.59	84.2569	329.59	83.9614	329.59	84.1462	329.59	83.8492	329.59	83.955	329.59	83.7096	329.59	83.7034	329.59	83.5297	329.59	83.4175	329.59	83.3132	329.59	83.1226	329.59	83.081	329.59	82.8456	329.59	82.8609	329.59	82.6187	329.59	82.6776	329.59	82.4694	329.59	82.5523	329.59	82.4018	329.59	82.5044	329.59	82.3884	329.59	82.5397	329.59	82.3906	329.59	82.6327	329.59	82.3891	329.59	82.7291	329.59	82.3958	329.59	82.7735	329.59	82.438	329.59	82.7402	329.59	82.5277	329.59	82.6438
341.309	84.1759	341.309	84.207	341.309	84.0836	341.309	84.1586	341.309	83.9446	341.309	84.0199	341.309	83.7665	341.309	83.8009	341.309	83.5558	341.309	83.5355	341.309	83.3227	341.309	83.2694	341.309	83.0797	341.309	83.0384	341.309	82.8379	341.309	82.8552	341.309	82.6129	341.309	82.7155	341.309	82.4352	341.309	82.6126	341.309	82.3474	341.309	82.5472	341.309	82.3789	341.309	82.5292	341.309	82.5188	341.309	82.5696	341.309	82.7164	341.309	82.6693	341.309	82.9103	341.309	82.811	341.309	83.0579	341.309	82.9612	341.309	83.1458	341.309	83.0842	341.309	83.1779	341.309	83.158
353.027	84.1492	353.027	84.1257	353.027	84.0771	353.027	84.0144	353.027	83.9163	353.027	83.828	353.027	83.6918	353.027	83.5813	353.027	83.4386	353.027	83.2979	353.027	83.1848	353.027	83.0158	353.027	82.9411	353.027	82.779	353.027	82.7032	353.027	82.6148	353.027	82.4665	353.027	82.5184	353.027	82.2424	353.027	82.4657	353.027	82.0567	353.027	82.4417	353.027	81.9331	353.027	82.4542	353.027	81.8824	353.027	82.5208	353.027	81.9108	353.027	82.6424	353.027	82.0241	353.027	82.7871	353.027	82.2151	353.027	82.8989	353.027	82.4504	353.027	82.9273	353.027	82.6791	353.027	82.8502
366.211	83.7417	366.211	83.6477	366.211	83.7707	366.211	83.4928	366.211	83.7343	366.211	83.2855	366.211	83.6348	366.211	83.0356	366.211	83.4769	366.211	82.7508	366.211	83.2694	366.211	82.445	366.211	83.0239	366.211	82.1539	366.211	82.7527	366.211	81.936	366.211	82.4717	366.211	81.8403	366.211	82.2089	366.211	81.8699	366.211	82.0063	366.211	81.9868	366.211	81.8996	366.211	82.1411	366.211	81.8903	366.211	82.2855	366.211	81.9438	366.211	82.3804	366.211	82.0173	366.211	82.4071	366.211	82.0847	366.211	82.3758	366.211	82.141	366.211	82.3151	366.211	82.1933	366.211	82.2506
379.395	83.8965	379.395	83.862	379.395	83.8543	379.395	83.7569	379.395	83.7338	379.395	83.5827	379.395	83.5443	379.395	83.3327	379.395	83.304	379.395	83.0017	379.395	83.0362	379.395	82.6036	379.395	82.7659	379.395	82.185	379.395	82.5129	379.395	81.8211	379.395	82.2792	379.395	81.5823	379.395	82.0522	379.395	81.4885	379.395	81.8357	379.395	81.5027	379.395	81.6767	379.395	81.5819	379.395	81.639	379.395	81.7171	379.395	81.7384	379.395	81.912	379.395	81.9232	379.395	82.1382	379.395	82.124	379.395	82.3363	379.395	82.2969	379.395	82.456	379.395	82.4216	379.395	82.481
392.578	83.7505	392.578	83.6519	392.578	83.7865	392.578	83.5205	392.578	83.7295	392.578	83.3634	392.578	83.5698	392.578	83.1649	392.578	83.323	392.578	82.9061	392.578	83.013	392.578	82.5868	392.578	82.658	392.578	82.2335	392.578	82.2799	392.578	81.8936	392.578	81.9254	392.578	81.6216	392.578	81.6552	392.578	81.4562	392.578	81.4966	392.578	81.3962	392.578	81.4253	392.578	81.4019	392.578	81.4087	392.578	81.4333	392.578	81.4412	392.578	81.4803	392.578	81.5246	392.578	81.5522	392.578	81.6365	392.578	81.6461	392.578	81.7367	392.578	81.7364	392.578	81.7931	392.578	81.792
405.762	83.4533	405.762	83.3506	405.762	83.5236	405.762	83.2169	405.762	83.5429	405.762	83.0448	405.762	83.4852	405.762	82.8295	405.762	83.3365	405.762	82.5706	405.762	83.1001	405.762	82.2723	405.762	82.7844	405.762	81.9488	405.762	82.398	405.762	81.6354	405.762	81.97	405.762	81.3913	405.762	81.5721	405.762	81.2805	405.762	81.2918	405.762	81.3265	405.762	81.1656	405.762	81.479	405.762	81.1576	405.762	81.6412	405.762	81.2113	405.762	81.7417	405.762	81.2968	405.762	81.7755	405.762	81.4072	405.762	81.7773	405.762	81.5333	405.762	81.7667	405.762	81.6502	405.762	81.7303
420.41	83.8538	420.41	83.8136	420.41	83.7665	420.41	83.6289	420.41	83.5866	420.41	83.3105	420.41	83.3511	420.41	82.8931	420.41	83.0882	420.41	82.4219	420.41	82.8131	420.41	81.9431	420.41	82.5247	420.41	81.5017	420.41	82.2066	420.41	81.1314	420.41	81.8477	420.41	80.839	420.41	81.4779	420.41	80.6171	420.41	81.1795	420.41	80.4895	420.41	81.025	420.41	80.5209	420.41	80.9972	420.41	80.7361	420.41	81.0142	420.41	81.0503	420.41	81.0264	420.41	81.3265	420.41	81.051	420.41	81.4747	420.41	81.1242	420.41	81.4814	420.41	81.2482	420.41	81.3861
435.059	83.3815	435.059	83.305	435.059	83.3827	435.059	83.1768	435.059	83.2901	435.059	83.0015	435.059	83.1083	435.059	82.7585	435.059	82.8622	435.059	82.4229	435.059	82.5849	435.059	81.9974	435.059	82.3068	435.059	81.5348	435.059	82.0477	435.059	81.1289	435.059	81.8049	435.059	80.8529	435.059	81.5527	435.059	80.6935	435.059	81.2783	435.059	80.5862	435.059	81.0284	435.059	80.5194	435.059	80.894	435.059	80.5566	435.059	80.9237	435.059	80.7527	435.059	81.0768	435.059	81.0748	435.059	81.2754	435.059	81.4106	435.059	81.4682	435.059	81.6396	435.059	81.6263	435.059	81.7038
451.172	83.5586	451.172	83.4445	451.172	83.5779	451.172	83.2474	451.172	83.5017	451.172	82.9836	451.172	83.3379	451.172	82.6674	451.172	83.0939	451.172	82.3122	451.172	82.7712	451.172	81.9296	451.172	82.3731	451.172	81.5239	451.172	81.9296	451.172	81.1033	451.172	81.5163	451.172	80.7228	451.172	81.2244	451.172	80.4861	451.172	81.0857	451.172	80.4371	451.172	81.0512	451.172	80.4882	451.172	81.0569	451.172	80.5309	451.172	81.0746	451.172	80.5505	451.172	81.0865	451.172	80.5834	451.172	81.0578	451.172	80.6318	451.172	80.9674	451.172	80.6795	451.172	80.8444	451.172	80.7422
465.82	82.8607	465.82	82.8	465.82	82.8516	465.82	82.6738	465.82	82.7626	465.82	82.4785	465.82	82.5929	465.82	82.2178	465.82	82.3655	465.82	81.9087	465.82	82.1221	465.82	81.572	465.82	81.8972	465.82	81.2262	465.82	81.6939	465.82	80.9025	465.82	81.501	465.82	80.6557	465.82	81.3309	465.82	80.5397	465.82	81.2054	465.82	80.5653	465.82	81.1081	465.82	80.6886	465.82	80.9974	465.82	80.8414	465.82	80.8672	465.82	80.9736	465.82	80.7614	465.82	81.0699	465.82	80.7337	465.82	81.1302	465.82	80.8055	465.82	81.1402	465.82	80.9438	465.82	81.0755
483.398	83.0699	483.398	83.0516	483.398	82.9849	483.398	82.9167	483.398	82.8221	483.398	82.6636	483.398	82.6069	483.398	82.2919	483.398	82.3598	483.398	81.809	483.398	82.0937	483.398	81.2648	483.398	81.8027	483.398	80.7699	483.398	81.4786	483.398	80.4417	483.398	81.1648	483.398	80.3205	483.398	80.9633	483.398	80.3816	483.398	80.9388	483.398	80.6038	483.398	81.0555	483.398	80.9524	483.398	81.2508	483.398	81.3387	483.398	81.503	483.398	81.6717	483.398	81.7943	483.398	81.9167	483.398	82.062	483.398	82.0824	483.398	82.2329	483.398	82.191	483.398	82.2877	483.398	82.2612
499.512	83.461	499.512	83.3178	499.512	83.4917	499.512	83.0462	499.512	83.4098	499.512	82.6383	499.512	83.1906	499.512	82.1119	499.512	82.8117	499.512	81.5039	499.512	82.2988	499.512	80.8506	499.512	81.7296	499.512	80.2088	499.512	81.1668	499.512	79.7202	499.512	80.627	499.512	79.5649	499.512	80.1953	499.512	79.7507	499.512	80.0848	499.512	80.1057	499.512	80.3786	499.512	80.5159	499.512	80.8498	499.512	80.9781	499.512	81.2525	499.512	81.4743	499.512	81.5529	499.512	81.9367	499.512	81.8406	499.512	82.3035	499.512	82.1571	499.512	82.5311	499.512	82.4372	499.512	82.5796
517.09	84.0588	517.09	83.9035	517.09	84.0974	517.09	83.666	517.09	83.9674	517.09	83.3327	517.09	83.6525	517.09	82.8702	517.09	83.1807	517.09	82.2669	517.09	82.5955	517.09	81.53	517.09	81.9468	517.09	80.6684	517.09	81.3129	517.09	79.7408	517.09	80.7661	517.09	78.9616	517.09	80.2875	517.09	78.6396	517.09	79.8309	517.09	78.819	517.09	79.5311	517.09	79.2185	517.09	79.6554	517.09	79.6321	517.09	80.1791	517.09	80.0686	517.09	80.7684	517.09	80.5667	517.09	81.2033	517.09	81.0615	517.09	81.4768	517.09	81.4403	517.09	81.6271	517.09	81.63
536.133	83.585	536.133	83.5382	536.133	83.484	536.133	83.3412	536.133	83.2507	536.133	83.0023	536.133	82.9101	536.133	82.541	536.133	82.4828	536.133	81.9899	536.133	81.9765	536.133	81.3865	536.133	81.3995	536.133	80.763	536.133	80.7871	536.133	80.1465	536.133	80.2063	536.133	79.5432	536.133	79.7283	536.133	78.9462	536.133	79.3855	536.133	78.4756	536.133	79.178	536.133	78.4269	536.133	79.1502	536.133	78.8768	536.133	79.3859	536.133	79.5177	536.133	79.8531	536.133	80.0776	536.133	80.3628	536.133	80.4818	536.133	80.7343	536.133	80.7466	536.133	80.9038	536.133	80.893
555.176	83.4345	555.176	83.4196	555.176	83.3797	555.176	83.3282	555.176	83.2829	555.176	83.1509	555.176	83.1508	555.176	82.82	555.176	82.9395	555.176	82.2402	555.176	82.5845	555.176	81.4045	555.176	82.039	555.176	80.4526	555.176	81.2924	555.176	79.5899	555.176	80.411	555.176	78.9635	555.176	79.5772	555.176	78.6474	555.176	78.9983	555.176	78.6445	555.176	78.7442	555.176	78.8271	555.176	78.7935	555.176	79.0471	555.176	79.1196	555.176	79.3276	555.176	79.5541	555.176	79.7334	555.176	79.8257	555.176	80.0866	555.176	79.8538	555.176	80.1468	555.176	79.8357	555.176	79.9699
574.219	83.6152	574.219	83.5102	574.219	83.6195	574.219	83.268	574.219	83.4995	574.219	82.8793	574.219	83.2164	574.219	82.4305	574.219	82.8071	574.219	82.0076	574.219	82.3571	574.219	81.5596	574.219	81.8804	574.219	80.9531	574.219	81.2848	574.219	80.148	574.219	80.5066	574.219	79.2637	574.219	79.6799	574.219	78.5024	574.219	79.1098	574.219	78.0362	574.219	78.927	574.219	77.9508	574.219	78.9385	574.219	78.2679	574.219	78.9945	574.219	78.8876	574.219	79.1851	574.219	79.5617	574.219	79.6321	574.219	80.1078	574.219	80.2223	574.219	80.5089	574.219	80.6555	574.219	80.7358
594.727	83.7183	594.727	83.5915	594.727	83.6954	594.727	83.3721	594.727	83.505	594.727	83.0694	594.727	83.1843	594.727	82.6292	594.727	82.7662	594.727	82.0234	594.727	82.242	594.727	81.2849	594.727	81.603	594.727	80.439	594.727	80.8947	594.727	79.5278	594.727	80.1725	594.727	78.7453	594.727	79.4253	594.727	78.3554	594.727	78.6617	594.727	78.3658	594.727	78.0621	594.727	78.5572	594.727	77.9038	594.727	78.8134	594.727	78.2667	594.727	79.1698	594.727	78.9126	594.727	79.6195	594.727	79.5204	594.727	80.0363	594.727	79.9471	594.727	80.2952	594.727	80.2168	594.727	80.3475
615.234	83.6216	615.234	83.5607	615.234	83.5616	615.234	83.3578	615.234	83.3912	615.234	83.014	615.234	83.1077	615.234	82.567	615.234	82.7031	615.234	82.0641	615.234	82.1667	615.234	81.5115	615.234	81.5035	615.234	80.8262	615.234	80.7297	615.234	79.894	615.234	79.8291	615.234	78.7595	615.234	78.8123	615.234	77.7199	615.234	77.9053	615.234	77.1304	615.234	77.5051	615.234	77.1809	615.234	77.6751	615.234	77.7549	615.234	78.0544	615.234	78.433	615.234	78.417	615.234	78.9194	615.234	78.7602	615.234	79.1984	615.234	79.0586	615.234	79.3305	615.234	79.2561	615.234	79.3449
637.207	83.2499	637.207	83.1932	637.207	83.2504	637.207	83.067	637.207	83.1705	637.207	82.8329	637.207	82.9852	637.207	82.451	637.207	82.6956	637.207	81.8954	637.207	82.2782	637.207	81.1976	637.207	81.6597	637.207	80.4771	637.207	80.8187	637.207	79.8072	637.207	79.8737	637.207	79.0743	637.207	78.9938	637.207	78.2091	637.207	78.2759	637.207	77.4159	637.207	77.7419	637.207	76.9052	637.207	77.4163	637.207	76.763	637.207	77.4663	637.207	77.1202	637.207	78.0266	637.207	77.8342	637.207	78.8002	637.207	78.5411	637.207	79.3532	637.207	79.0759	637.207	79.5418	637.207	79.4223
659.18	82.784	659.18	82.6079	659.18	82.8572	659.18	82.417	659.18	82.7403	659.18	82.1735	659.18	82.4511	659.18	81.7703	659.18	82.1014	659.18	81.2064	659.18	81.7511	659.18	80.552	659.18	81.2873	659.18	79.772	659.18	80.5665	659.18	78.8014	659.18	79.6009	659.18	77.7767	659.18	78.4813	659.18	76.9904	659.18	77.3148	659.18	76.6429	659.18	76.4437	659.18	76.7321	659.18	76.2423	659.18	77.1329	659.18	76.4968	659.18	77.8068	659.18	76.9137	659.18	78.6155	659.18	77.4921	659.18	79.2056	659.18	78.1567	659.18	79.3779	659.18	78.7562	659.18	79.1893
682.617	83.0161	682.617	82.9049	682.617	82.8834	682.617	82.5786	682.617	82.5857	682.617	82.1423	682.617	82.2495	682.617	81.6965	682.617	81.9201	682.617	81.2382	682.617	81.5512	682.617	80.6666	682.617	81.107	682.617	79.8646	682.617	80.5194	682.617	78.8053	682.617	79.6568	682.617	77.6702	682.617	78.4894	682.617	76.7588	682.617	77.2096	682.617	76.2003	682.617	76.158	682.617	76.0575	682.617	75.6941	682.617	76.3449	682.617	75.9601	682.617	76.7538	682.617	76.6069	682.617	77.1252	682.617	77.2045	682.617	77.5767	682.617	77.6489	682.617	78.0118	682.617	77.9976	682.617	78.1688
707.52	82.5946	707.52	82.4829	707.52	82.6289	707.52	82.2586	707.52	82.5817	707.52	81.8976	707.52	82.4278	707.52	81.4582	707.52	82.1262	707.52	80.9593	707.52	81.6007	707.52	80.3222	707.52	80.8264	707.52	79.5569	707.52	79.9718	707.52	78.7516	707.52	79.2331	707.52	77.8551	707.52	78.3988	707.52	76.8217	707.52	77.1168	707.52	75.8504	707.52	75.7318	707.52	75.2682	707.52	75.0952	707.52	75.3027	707.52	75.1538	707.52	75.7675	707.52	75.5847	707.52	76.2006	707.52	76.4767	707.52	76.4853	707.52	77.3752	707.52	76.8391	707.52	77.6672	707.52	77.3425
732.422	82.6556	732.422	82.5234	732.422	82.69	732.422	82.3306	732.422	82.6605	732.422	82.1147	732.422	82.5178	732.422	81.7435	732.422	82.2227	732.422	81.1437	732.422	81.8316	732.422	80.4494	732.422	81.3002	732.422	79.7008	732.422	80.4809	732.422	78.7696	732.422	79.3749	732.422	77.6033	732.422	78.2013	732.422	76.1835	732.422	77.1834	732.422	74.809	732.422	76.236	732.422	74.3217	732.422	75.1844	732.422	74.6384	732.422	74.4996	732.422	75.158	732.422	74.7717	732.422	76.0325	732.422	75.4809	732.422	76.9027	732.422	76.1422	732.422	77.2784	732.422	76.7371	732.422	77.1726
757.324	82.3844	757.324	82.1949	757.324	82.5117	757.324	81.9653	757.324	82.4294	757.324	81.5829	757.324	82.1543	757.324	81.0945	757.324	81.8213	757.324	80.6315	757.324	81.4833	757.324	80.1435	757.324	81.0658	757.324	79.5429	757.324	80.407	757.324	78.8279	757.324	79.473	757.324	77.9137	757.324	78.4364	757.324	76.6893	757.324	77.269	757.324	75.298	757.324	75.8211	757.324	74.1185	757.324	74.5985	757.324	73.4245	757.324	74.13	757.324	73.6261	757.324	74.1442	757.324	74.882	757.324	74.6863	757.324	76.2529	757.324	75.5353	757.324	76.8618	757.324	76.2266	757.324	76.7162
785.156	82.1683	785.156	82.1146	785.156	81.9735	785.156	81.7598	785.156	81.768	785.156	81.312	785.156	81.6749	785.156	80.8352	785.156	81.6233	785.156	80.1805	785.156	81.3988	785.156	79.4731	785.156	80.8672	785.156	78.9163	785.156	80.2011	785.156	78.2109	785.156	79.5488	785.156	77.1559	785.156	78.6419	785.156	76.2711	785.156	77.3495	785.156	75.6915	785.156	76.2345	785.156	74.9469	785.156	75.5882	785.156	74.7084	785.156	74.9676	785.156	75.1056	785.156	74.491	785.156	75.2004	785.156	74.6556	785.156	75.0145	785.156	75.089	785.156	74.9686	785.156	75.254	785.156	75.1312
811.523	81.7425	811.523	81.6479	811.523	81.9667	811.523	81.6373	811.523	82.1016	811.523	81.4526	811.523	81.9882	811.523	81.0844	811.523	81.5969	811.523	80.7228	811.523	81.0338	811.523	80.3141	811.523	80.5558	811.523	79.6352	811.523	80.1667	811.523	78.7054	811.523	79.4916	811.523	77.5606	811.523	78.5074	811.523	76.075	811.523	77.7173	811.523	74.684	811.523	77.0089	811.523	73.9684	811.523	75.7784	811.523	73.5926	811.523	74.7633	811.523	73.9097	811.523	75.1975	811.523	75.126	811.523	75.9933	811.523	76.2989	811.523	76.3569	811.523	77.053	811.523	76.7548	811.523	77.1816
840.82	82.7057	840.82	82.5102	840.82	82.5716	840.82	82.2495	840.82	82.2806	840.82	81.9689	840.82	82.0805	840.82	81.4681	840.82	81.9087	840.82	80.8914	840.82	81.7657	840.82	80.3998	840.82	81.4129	840.82	79.7336	840.82	80.5122	840.82	78.6992	840.82	79.5322	840.82	77.6698	840.82	78.9139	840.82	77.0359	840.82	77.8596	840.82	76.3133	840.82	76.0925	840.82	75.0549	840.82	74.9897	840.82	74.2826	840.82	75.0045	840.82	74.3313	840.82	75.0445	840.82	74.1502	840.82	75.3418	840.82	74.1141	840.82	76.1278	840.82	74.865	840.82	76.5215	840.82	75.9605
870.117	83.0552	870.117	82.9027	870.117	83.2622	870.117	82.6762	870.117	83.2197	870.117	82.1635	870.117	82.9094	870.117	81.6189	870.117	82.6549	870.117	81.3958	870.117	82.3197	870.117	81.2204	870.117	81.7487	870.117	80.6337	870.117	81.1927	870.117	79.8352	870.117	80.475	870.117	79.0793	870.117	79.2963	870.117	77.6065	870.117	78.0855	870.117	75.8471	870.117	77.0304	870.117	75.7918	870.117	75.7692	870.117	75.8783	870.117	75.3342	870.117	75.1643	870.117	75.901	870.117	75.7845	870.117	76.2314	870.117	77.226	870.117	76.4315	870.117	77.8548	870.117	77.0209	870.117	77.6623
900.879	82.7072	900.879	82.7529	900.879	82.7733	900.879	82.53	900.879	82.8812	900.879	82.1449	900.879	82.6483	900.879	81.9001	900.879	82.2464	900.879	81.3767	900.879	81.8874	900.879	80.2755	900.879	81.3319	900.879	79.3307	900.879	80.7174	900.879	78.7921	900.879	80.3653	900.879	78.0617	900.879	79.5776	900.879	77.5329	900.879	77.6292	900.879	77.19	900.879	75.9035	900.879	75.8435	900.879	75.6727	900.879	74.7792	900.879	75.3334	900.879	75.6158	900.879	75.08	900.879	76.2521	900.879	75.9987	900.879	76.3762	900.879	77.1334	900.879	76.4264	900.879	77.2791	900.879	76.7055
933.105	82.2404	933.105	81.997	933.105	82.3788	933.105	81.7905	933.105	82.0009	933.105	81.3103	933.105	81.7043	933.105	80.8635	933.105	81.6115	933.105	80.6078	933.105	80.9895	933.105	80.1692	933.105	80.532	933.105	79.5577	933.105	80.5237	933.105	78.9602	933.105	79.7523	933.105	78.2014	933.105	78.5058	933.105	77.0295	933.105	77.7285	933.105	75.5019	933.105	76.1164	933.105	74.4672	933.105	73.5015	933.105	74.5432	933.105	72.9016	933.105	74.5458	933.105	73.0885	933.105	74.5952	933.105	74.2665	933.105	75.9447	933.105	76.0308	933.105	77.1392	933.105	76.6639	933.105	77.0649
965.332	82.4987	965.332	82.1687	965.332	82.1393	965.332	82.0213	965.332	81.893	965.332	82.1385	965.332	81.8929	965.332	81.3003	965.332	81.5385	965.332	80.1645	965.332	81.3466	965.332	79.8272	965.332	80.9192	965.332	79.241	965.332	79.8218	965.332	77.8792	965.332	79.2831	965.332	76.5202	965.332	78.6702	965.332	75.8833	965.332	76.6665	965.332	75.8645	965.332	75.1715	965.332	74.5843	965.332	74.1656	965.332	72.7174	965.332	72.5734	965.332	74.058	965.332	73.9055	965.332	75.0563	965.332	75.1094	965.332	74.2769	965.332	74.8828	965.332	74.9134	965.332	75.705	965.332	76.1569
1,000.49	82.3104	1,000.49	82.6845	1,000.49	82.6517	1,000.49	82.2335	1,000.49	82.5968	1,000.49	81.0867	1,000.49	81.7415	1,000.49	81.1811	1,000.49	81.6123	1,000.49	81.0506	1,000.49	81.3718	1,000.49	79.6709	1,000.49	80.5191	1,000.49	79.1906	1,000.49	80.439	1,000.49	79.407	1,000.49	79.9905	1,000.49	78.8347	1,000.49	78.6656	1,000.49	78.0875	1,000.49	77.7052	1,000.49	76.3397	1,000.49	76.216	1,000.49	74.4955	1,000.49	74.3212	1,000.49	75.7444	1,000.49	74.1562	1,000.49	74.9949	1,000.49	72.344	1,000.49	73.5769	1,000.49	72.83	1,000.49	76.464	1,000.49	76.3819	1,000.49	76.8846	1,000.49	76.8345	1,000.49	75.7634
1,035.64	83.6343	1,035.64	83.4328	1,035.64	82.9443	1,035.64	83.333	1,035.64	82.417	1,035.64	83.3174	1,035.64	82.7484	1,035.64	82.3155	1,035.64	82.2182	1,035.64	81.0498	1,035.64	80.7693	1,035.64	80.6277	1,035.64	80.146	1,035.64	79.9877	1,035.64	80.1834	1,035.64	78.8376	1,035.64	79.5491	1,035.64	77.5236	1,035.64	78.4189	1,035.64	75.4846	1,035.64	77.7649	1,035.64	75.2014	1,035.64	76.6094	1,035.64	76.2349	1,035.64	74.5111	1,035.64	74.7904	1,035.64	73.5224	1,035.64	74.5963	1,035.64	74.4974	1,035.64	76.0083	1,035.64	75.0359	1,035.64	76.0174	1,035.64	73.6143	1,035.64	76.5452	1,035.64	74.1143	1,035.64	76.5337
1,072.27	82.4419	1,072.27	82.4442	1,072.27	81.9996	1,072.27	82.0283	1,072.27	81.9448	1,072.27	81.8803	1,072.27	81.6177	1,072.27	81.2598	1,072.27	81.0354	1,072.27	80.2795	1,072.27	80.9366	1,072.27	79.4133	1,072.27	80.3611	1,072.27	78.032	1,072.27	79.0451	1,072.27	77.4744	1,072.27	78.2274	1,072.27	77.4953	1,072.27	77.8639	1,072.27	76.2552	1,072.27	76.4551	1,072.27	74.7592	1,072.27	74.3361	1,072.27	73.4021	1,072.27	73.824	1,072.27	72.9509	1,072.27	73.9284	1,072.27	74.5862	1,072.27	72.5815	1,072.27	75.4305	1,072.27	73.0588	1,072.27	75.6122	1,072.27	74.9049	1,072.27	76.0036	1,072.27	75.8451	1,072.27	76.1433
1,108.89	82.3849	1,108.89	82.5217	1,108.89	82.5764	1,108.89	82.5903	1,108.89	81.9624	1,108.89	81.328	1,108.89	81.2016	1,108.89	80.6423	1,108.89	80.6537	1,108.89	80.5248	1,108.89	79.6087	1,108.89	79.5988	1,108.89	78.6733	1,108.89	79.2804	1,108.89	78.474	1,108.89	78.4194	1,108.89	78.1652	1,108.89	75.7643	1,108.89	77.144	1,108.89	74.7871	1,108.89	75.7339	1,108.89	74.4397	1,108.89	73.7717	1,108.89	73.6061	1,108.89	71.4772	1,108.89	73.1729	1,108.89	69.6473	1,108.89	72.2823	1,108.89	71.1733	1,108.89	74.1656	1,108.89	73.8663	1,108.89	75.1721	1,108.89	74.8064	1,108.89	75.4149	1,108.89	75.2141	1,108.89	75.7038
1,148.44	81.92	1,148.44	81.9379	1,148.44	81.7878	1,148.44	81.8934	1,148.44	81.6766	1,148.44	81.7842	1,148.44	81.5153	1,148.44	80.9534	1,148.44	81.0016	1,148.44	80.3723	1,148.44	80.1767	1,148.44	79.7372	1,148.44	79.753	1,148.44	77.9312	1,148.44	78.8391	1,148.44	77.3317	1,148.44	77.8798	1,148.44	76.4617	1,148.44	77.0786	1,148.44	74.4949	1,148.44	75.252	1,148.44	73.5784	1,148.44	75.3792	1,148.44	70.5337	1,148.44	74.5443	1,148.44	71.9382	1,148.44	70.445	1,148.44	71.8025	1,148.44	70.6131	1,148.44	72.9765	1,148.44	70.4356	1,148.44	74.9892	1,148.44	72.7371	1,148.44	74.5701	1,148.44	75.264	1,148.44	75.382
1,189.45	82.4086	1,189.45	82.058	1,189.45	82.5691	1,189.45	82.3001	1,189.45	82.1715	1,189.45	81.6083	1,189.45	82.1916	1,189.45	81.0919	1,189.45	81.4856	1,189.45	81.0698	1,189.45	80.9514	1,189.45	79.8115	1,189.45	80.6776	1,189.45	78.9286	1,189.45	79.5812	1,189.45	78.0948	1,189.45	79.1537	1,189.45	75.8492	1,189.45	78.9497	1,189.45	75.0086	1,189.45	77.8351	1,189.45	74.4475	1,189.45	75.3329	1,189.45	73.4836	1,189.45	73.4631	1,189.45	70.4648	1,189.45	73.0877	1,189.45	70.319	1,189.45	68.6985	1,189.45	73.8029	1,189.45	71.2239	1,189.45	73.6423	1,189.45	72.8301	1,189.45	75.2857	1,189.45	70.8541	1,189.45	73.8591
1,230.47	82.8638	1,230.47	82.3647	1,230.47	82.7096	1,230.47	82.0294	1,230.47	82.5422	1,230.47	81.8099	1,230.47	82.2011	1,230.47	81.3237	1,230.47	81.4264	1,230.47	80.8109	1,230.47	81.4557	1,230.47	80.7663	1,230.47	81.0647	1,230.47	80.3726	1,230.47	80.2152	1,230.47	78.3537	1,230.47	80.0252	1,230.47	77.4892	1,230.47	79.2658	1,230.47	76.8902	1,230.47	78.069	1,230.47	74.0405	1,230.47	76.7859	1,230.47	72.1661	1,230.47	74.799	1,230.47	71.0914	1,230.47	72.6213	1,230.47	70.6573	1,230.47	70.8202	1,230.47	70.7129	1,230.47	71.1958	1,230.47	72.1812	1,230.47	72.1692	1,230.47	72.9561	1,230.47	73.9905	1,230.47	74.3824
1,274.41	83.3887	1,274.41	83.1657	1,274.41	83.5225	1,274.41	82.5347	1,274.41	83.1039	1,274.41	81.9679	1,274.41	82.5297	1,274.41	81.7205	1,274.41	82.6244	1,274.41	81.2037	1,274.41	82.0387	1,274.41	80.6832	1,274.41	80.9665	1,274.41	80.158	1,274.41	80.5415	1,274.41	79.758	1,274.41	79.6426	1,274.41	78.5136	1,274.41	78.8642	1,274.41	76.266	1,274.41	79.1069	1,274.41	75.1387	1,274.41	77.7355	1,274.41	73.3225	1,274.41	74.4841	1,274.41	71.3136	1,274.41	73.503	1,274.41	71.3143	1,274.41	73.278	1,274.41	72.9594	1,274.41	73.0302	1,274.41	74.5451	1,274.41	74.1457	1,274.41	75.5176	1,274.41	74.6655	1,274.41	75.3348
1,319.82	84.0517	1,319.82	83.7217	1,319.82	84.03	1,319.82	83.4533	1,319.82	83.543	1,319.82	82.442	1,319.82	83.3623	1,319.82	82.2905	1,319.82	82.9771	1,319.82	81.6635	1,319.82	81.8037	1,319.82	80.2463	1,319.82	80.2754	1,319.82	79.73	1,319.82	79.843	1,319.82	79.3039	1,319.82	79.0947	1,319.82	78.0584	1,319.82	79.1768	1,319.82	76.068	1,319.82	78.0849	1,319.82	75.2957	1,319.82	76.6847	1,319.82	73.5941	1,319.82	74.9078	1,319.82	71.7967	1,319.82	72.8654	1,319.82	71.4349	1,319.82	71.9537	1,319.82	73.6534	1,319.82	72.169	1,319.82	74.593	1,319.82	75.753	1,319.82	76.3012	1,319.82	75.9638	1,319.82	76.6954
1,366.7	84.1157	1,366.7	83.8253	1,366.7	83.9536	1,366.7	83.5633	1,366.7	83.4166	1,366.7	82.948	1,366.7	82.9913	1,366.7	82.4857	1,366.7	82.41	1,366.7	81.8951	1,366.7	81.55	1,366.7	80.0104	1,366.7	80.3787	1,366.7	77.9246	1,366.7	79.4668	1,366.7	77.4556	1,366.7	79.4236	1,366.7	77.1435	1,366.7	79.314	1,366.7	77.3047	1,366.7	78.5475	1,366.7	75.7333	1,366.7	76.0967	1,366.7	72.4401	1,366.7	74.3442	1,366.7	71.5654	1,366.7	72.8794	1,366.7	69.9477	1,366.7	69.8373	1,366.7	72.8341	1,366.7	71.6599	1,366.7	74.6004	1,366.7	73.6111	1,366.7	75.9638	1,366.7	75.2777	1,366.7	76.4317
1,413.57	83.669	1,413.57	83.7306	1,413.57	83.9115	1,413.57	83.1407	1,413.57	83.586	1,413.57	82.6283	1,413.57	82.6009	1,413.57	81.5465	1,413.57	81.6435	1,413.57	80.0329	1,413.57	80.4615	1,413.57	80.0467	1,413.57	79.9386	1,413.57	80.0967	1,413.57	78.4078	1,413.57	78.9366	1,413.57	77.356	1,413.57	77.4837	1,413.57	78.6552	1,413.57	76.9991	1,413.57	77.1499	1,413.57	75.5999	1,413.57	74.9658	1,413.57	75.1721	1,413.57	74.331	1,413.57	72.28	1,413.57	72.0124	1,413.57	71.4521	1,413.57	68.9262	1,413.57	71.4275	1,413.57	72.3869	1,413.57	76.8455	1,413.57	75.1757	1,413.57	75.342	1,413.57	76.0688	1,413.57	75.0435
1,463.38	83.3373	1,463.38	83.4391	1,463.38	83.4596	1,463.38	83.3331	1,463.38	83.1562	1,463.38	82.5974	1,463.38	82.1897	1,463.38	81.0417	1,463.38	81.4846	1,463.38	80.2746	1,463.38	80.5987	1,463.38	79.7964	1,463.38	79.1284	1,463.38	79.4017	1,463.38	78.0318	1,463.38	79.1065	1,463.38	77.7907	1,463.38	78.4711	1,463.38	76.0389	1,463.38	76.6686	1,463.38	76.2417	1,463.38	75.4075	1,463.38	76.54	1,463.38	71.8063	1,463.38	74.4576	1,463.38	70.8752	1,463.38	69.1958	1,463.38	68.7971	1,463.38	68.3173	1,463.38	73.7262	1,463.38	67.9795	1,463.38	73.2457	1,463.38	72.3851	1,463.38	73.906	1,463.38	75.5894	1,463.38	74.9431
1,516.11	83.7455	1,516.11	83.6754	1,516.11	83.5656	1,516.11	83.5083	1,516.11	84.0134	1,516.11	82.574	1,516.11	83.4055	1,516.11	82.2505	1,516.11	81.9704	1,516.11	81.3428	1,516.11	81.7641	1,516.11	79.644	1,516.11	79.9453	1,516.11	79.6724	1,516.11	78.7382	1,516.11	78.5007	1,516.11	77.3467	1,516.11	77.2263	1,516.11	76.9206	1,516.11	76.6754	1,516.11	75.8776	1,516.11	76.7246	1,516.11	75.4873	1,516.11	73.5518	1,516.11	73.7181	1,516.11	65.3311	1,516.11	73.1367	1,516.11	69.3593	1,516.11	70.8921	1,516.11	69.4069	1,516.11	68.0128	1,516.11	72.402	1,516.11	69.2664	1,516.11	74.0752	1,516.11	72.5415	1,516.11	74.0255
1,568.85	84.16	1,568.85	83.815	1,568.85	83.8633	1,568.85	82.3822	1,568.85	83.553	1,568.85	82.4727	1,568.85	83.2021	1,568.85	81.8167	1,568.85	82.6171	1,568.85	80.2776	1,568.85	81.6939	1,568.85	79.2199	1,568.85	80.7681	1,568.85	78.1998	1,568.85	79.6079	1,568.85	78.5502	1,568.85	78.0462	1,568.85	76.4158	1,568.85	76.0527	1,568.85	75.517	1,568.85	75.9248	1,568.85	74.8582	1,568.85	75.702	1,568.85	72.2312	1,568.85	74.8746	1,568.85	68.2645	1,568.85	71.1025	1,568.85	63.8912	1,568.85	66.1463	1,568.85	67.7965	1,568.85	66.1523	1,568.85	68.0096	1,568.85	66.5849	1,568.85	71.0749	1,568.85	71.4919	1,568.85	74.1303
1,624.51	84.4795	1,624.51	84.0988	1,624.51	84.6871	1,624.51	84.0065	1,624.51	84.3451	1,624.51	83.2363	1,624.51	83.755	1,624.51	82.1103	1,624.51	82.8858	1,624.51	81.0435	1,624.51	81.9707	1,624.51	79.9302	1,624.51	80.6265	1,624.51	78.8051	1,624.51	78.8939	1,624.51	77.5553	1,624.51	78.638	1,624.51	75.5238	1,624.51	77.6161	1,624.51	74.8416	1,624.51	76.7316	1,624.51	73.8141	1,624.51	75.8762	1,624.51	72.9047	1,624.51	74.4273	1,624.51	71.0605	1,624.51	73.266	1,624.51	68.8652	1,624.51	69.5561	1,624.51	67.9879	1,624.51	65.3814	1,624.51	69.6363	1,624.51	67.9976	1,624.51	72.0073	1,624.51	69.4456	1,624.51	71.5079
1,681.64	85.0593	1,681.64	84.9889	1,681.64	85.0743	1,681.64	84.4052	1,681.64	84.8004	1,681.64	83.9238	1,681.64	84.1962	1,681.64	83.0259	1,681.64	83.6611	1,681.64	82.0638	1,681.64	82.4398	1,681.64	80.266	1,681.64	81.2936	1,681.64	79.0483	1,681.64	79.9752	1,681.64	78.463	1,681.64	78.5299	1,681.64	77.5423	1,681.64	77.4006	1,681.64	76.5506	1,681.64	76.7078	1,681.64	74.8403	1,681.64	76.2239	1,681.64	73.523	1,681.64	74.7013	1,681.64	71.8824	1,681.64	73.0127	1,681.64	69.3329	1,681.64	69.6462	1,681.64	70.0776	1,681.64	68.4303	1,681.64	70.0777	1,681.64	67.6676	1,681.64	71.0174	1,681.64	70.8833	1,681.64	72.0282
1,741.7	85.0222	1,741.7	85.0265	1,741.7	84.968	1,741.7	84.6048	1,741.7	84.8804	1,741.7	84.146	1,741.7	84.2753	1,741.7	83.1983	1,741.7	83.3498	1,741.7	82.0299	1,741.7	82.4532	1,741.7	80.9534	1,741.7	81.4137	1,741.7	80.2161	1,741.7	80.1498	1,741.7	79.0384	1,741.7	78.4164	1,741.7	78.0582	1,741.7	77.6781	1,741.7	76.7517	1,741.7	76.8722	1,741.7	76.0878	1,741.7	76.6668	1,741.7	74.7866	1,741.7	75.8417	1,741.7	72.2971	1,741.7	74.0168	1,741.7	71.3394	1,741.7	72.0546	1,741.7	69.9299	1,741.7	69.5243	1,741.7	72.0187	1,741.7	71.2141	1,741.7	73.3833	1,741.7	72.1012	1,741.7	72.4538
1,803.22	84.8977	1,803.22	84.8286	1,803.22	84.72	1,803.22	84.3446	1,803.22	84.3456	1,803.22	83.5608	1,803.22	83.6249	1,803.22	82.9364	1,803.22	82.7545	1,803.22	81.8532	1,803.22	81.6478	1,803.22	80.7762	1,803.22	80.1512	1,803.22	80.1094	1,803.22	79.2346	1,803.22	79.3469	1,803.22	77.8484	1,803.22	78.2856	1,803.22	76.6127	1,803.22	77.4222	1,803.22	76.3526	1,803.22	76.2849	1,803.22	76.1213	1,803.22	74.7426	1,803.22	75.4047	1,803.22	73.0783	1,803.22	73.4388	1,803.22	70.5784	1,803.22	69.7911	1,803.22	72.4082	1,803.22	68.896	1,803.22	73.154	1,803.22	70.3557	1,803.22	73.9341	1,803.22	73.0333	1,803.22	74.5854
1,866.21	84.2714	1,866.21	84.2648	1,866.21	83.9834	1,866.21	83.6434	1,866.21	83.7682	1,866.21	83.2483	1,866.21	82.7867	1,866.21	82.1942	1,866.21	81.7171	1,866.21	81.2382	1,866.21	80.8149	1,866.21	79.7571	1,866.21	79.7808	1,866.21	78.284	1,866.21	78.2052	1,866.21	77.2003	1,866.21	76.2254	1,866.21	76.5537	1,866.21	75.394	1,866.21	76.2118	1,866.21	74.7391	1,866.21	75.8317	1,866.21	74.1247	1,866.21	74.8699	1,866.21	73.7887	1,866.21	71.8771	1,866.21	72.6638	1,866.21	70.1264	1,866.21	71.5724	1,866.21	69.6283	1,866.21	69.2718	1,866.21	73.0744	1,866.21	70.2939	1,866.21	74.5406	1,866.21	72.7642	1,866.21	73.7734
1,932.13	84.4875	1,932.13	84.0287	1,932.13	84.4798	1,932.13	83.486	1,932.13	83.7369	1,932.13	82.7206	1,932.13	83.1001	1,932.13	81.233	1,932.13	82.5089	1,932.13	80.1124	1,932.13	80.9769	1,932.13	79.0007	1,932.13	80.0805	1,932.13	77.0401	1,932.13	78.4898	1,932.13	75.7156	1,932.13	76.9495	1,932.13	75.9987	1,932.13	76.0759	1,932.13	76.1358	1,932.13	74.4527	1,932.13	75.2136	1,932.13	74.1403	1,932.13	72.7128	1,932.13	73.628	1,932.13	70.0938	1,932.13	72.0736	1,932.13	67.3411	1,932.13	69.7085	1,932.13	69.1661	1,932.13	67.109	1,932.13	71.3788	1,932.13	69.4278	1,932.13	72.6079	1,932.13	70.789	1,932.13	72.4891
1,999.51	85.1775	1,999.51	84.8745	1,999.51	84.9008	1,999.51	84.234	1,999.51	84.7982	1,999.51	83.4538	1,999.51	84.3939	1,999.51	82.5407	1,999.51	83.3076	1,999.51	80.9618	1,999.51	81.931	1,999.51	79.4915	1,999.51	80.5945	1,999.51	77.6417	1,999.51	79.49	1,999.51	75.9054	1,999.51	77.8733	1,999.51	74.3781	1,999.51	75.9064	1,999.51	73.8645	1,999.51	75.341	1,999.51	73.9937	1,999.51	74.8384	1,999.51	73.8903	1,999.51	73.3502	1,999.51	71.5028	1,999.51	71.5278	1,999.51	67.9063	1,999.51	69.5844	1,999.51	68.35	1,999.51	68.2916	1,999.51	70.8511	1,999.51	69.1916	1,999.51	72.3219	1,999.51	71.9186	1,999.51	72.8657
2,069.82	85.2448	2,069.82	85.0263	2,069.82	85.481	2,069.82	84.7994	2,069.82	85.0136	2,069.82	83.7055	2,069.82	84.0624	2,069.82	82.6927	2,069.82	83.2303	2,069.82	81.4257	2,069.82	82.3768	2,069.82	80.3032	2,069.82	80.6075	2,069.82	78.7388	2,069.82	79.1677	2,069.82	76.4538	2,069.82	77.8562	2,069.82	74.2531	2,069.82	76.494	2,069.82	74.4509	2,069.82	75.5621	2,069.82	74.3896	2,069.82	74.368	2,069.82	73.8974	2,069.82	74.2639	2,069.82	72.5201	2,069.82	72.9724	2,069.82	70.2098	2,069.82	69.7223	2,069.82	67.5878	2,069.82	69.442	2,069.82	71.6447	2,069.82	70.8381	2,069.82	73.5049	2,069.82	73.0881	2,069.82	73.8987
2,143.07	84.7593	2,143.07	84.7228	2,143.07	84.6729	2,143.07	84.3495	2,143.07	84.0047	2,143.07	83.2032	2,143.07	83.349	2,143.07	82.1984	2,143.07	82.6097	2,143.07	81.0019	2,143.07	81.4988	2,143.07	80.1152	2,143.07	79.8618	2,143.07	79.2721	2,143.07	78.171	2,143.07	77.5286	2,143.07	76.7711	2,143.07	75.8139	2,143.07	75.6368	2,143.07	74.036	2,143.07	73.9422	2,143.07	73.185	2,143.07	73.5491	2,143.07	73.2043	2,143.07	73.145	2,143.07	72.543	2,143.07	72.0753	2,143.07	69.7791	2,143.07	69.1999	2,143.07	68.6405	2,143.07	67.2518	2,143.07	71.7459	2,143.07	70.3856	2,143.07	74.4771	2,143.07	73.6594	2,143.07	74.7235
2,219.24	83.4421	2,219.24	83.4424	2,219.24	83.2414	2,219.24	82.6916	2,219.24	82.5627	2,219.24	82.2854	2,219.24	81.8833	2,219.24	81.4528	2,219.24	80.7695	2,219.24	80.41	2,219.24	79.8181	2,219.24	79.3385	2,219.24	78.3269	2,219.24	77.9579	2,219.24	76.6009	2,219.24	77.1792	2,219.24	75.1249	2,219.24	74.7309	2,219.24	73.652	2,219.24	72.7427	2,219.24	72.1591	2,219.24	71.6617	2,219.24	71.865	2,219.24	72.2361	2,219.24	70.2159	2,219.24	71.1804	2,219.24	70.6342	2,219.24	68.7599	2,219.24	68.1376	2,219.24	68.4747	2,219.24	62.9202	2,219.24	72.8494	2,219.24	68.3044	2,219.24	74.0616	2,219.24	72.1578	2,219.24	73.8431
2,296.88	82.8597	2,296.88	82.5588	2,296.88	82.8255	2,296.88	82.2639	2,296.88	82.7428	2,296.88	81.4181	2,296.88	81.5257	2,296.88	80.7236	2,296.88	80.2799	2,296.88	79.601	2,296.88	79.0115	2,296.88	77.3604	2,296.88	78.4121	2,296.88	77.3633	2,296.88	77.3855	2,296.88	75.9832	2,296.88	75.3689	2,296.88	74.1586	2,296.88	73.2016	2,296.88	72.8045	2,296.88	73.0014	2,296.88	71.5395	2,296.88	72.1713	2,296.88	72.7496	2,296.88	71.7957	2,296.88	70.7451	2,296.88	71.1135	2,296.88	67.9768	2,296.88	68.1168	2,296.88	65.1858	2,296.88	62.6113	2,296.88	67.9858	2,296.88	65.5486	2,296.88	70.4147	2,296.88	70.1523	2,296.88	72.5277
2,378.91	84.0303	2,378.91	83.9467	2,378.91	84.2079	2,378.91	82.975	2,378.91	83.6126	2,378.91	81.9288	2,378.91	82.5777	2,378.91	80.3902	2,378.91	81.3566	2,378.91	79.4071	2,378.91	81.0156	2,378.91	78.0933	2,378.91	79.844	2,378.91	76.0179	2,378.91	78.1579	2,378.91	74.6798	2,378.91	77.0129	2,378.91	73.5971	2,378.91	75.5831	2,378.91	71.5123	2,378.91	73.3815	2,378.91	71.3305	2,378.91	73.796	2,378.91	68.1959	2,378.91	73.8641	2,378.91	68.2212	2,378.91	72.3815	2,378.91	66.9002	2,378.91	69.542	2,378.91	60.7942	2,378.91	66.5849	2,378.91	66.8729	2,378.91	65.9809	2,378.91	72.1921	2,378.91	69.565	2,378.91	71.4556
2,462.4	85.964	2,462.4	85.7598	2,462.4	85.6599	2,462.4	84.8771	2,462.4	85.1496	2,462.4	83.775	2,462.4	84.1569	2,462.4	82.896	2,462.4	83.0777	2,462.4	81.2979	2,462.4	81.3462	2,462.4	79.3958	2,462.4	80.2565	2,462.4	78.3329	2,462.4	79.0661	2,462.4	76.6054	2,462.4	77.6998	2,462.4	75.3295	2,462.4	75.8557	2,462.4	73.497	2,462.4	74.5054	2,462.4	72.464	2,462.4	73.8042	2,462.4	70.8139	2,462.4	73.7002	2,462.4	69.9432	2,462.4	72.5307	2,462.4	66.8424	2,462.4	69.369	2,462.4	66.8531	2,462.4	65.3633	2,462.4	69.9688	2,462.4	68.1237	2,462.4	71.5412	2,462.4	71.6927	2,462.4	72.8855
2,548.83	85.9831	2,548.83	85.2584	2,548.83	85.9659	2,548.83	85.086	2,548.83	85.0534	2,548.83	84.3787	2,548.83	84.1377	2,548.83	83.0531	2,548.83	82.8954	2,548.83	81.7277	2,548.83	80.4036	2,548.83	80.0181	2,548.83	79.6862	2,548.83	78.685	2,548.83	78.1079	2,548.83	77.8333	2,548.83	77.3225	2,548.83	76.6897	2,548.83	75.4065	2,548.83	74.9616	2,548.83	74.127	2,548.83	73.9542	2,548.83	72.6992	2,548.83	72.6588	2,548.83	73.27	2,548.83	71.1649	2,548.83	72.0837	2,548.83	67.3302	2,548.83	68.3244	2,548.83	66.7127	2,548.83	65.7328	2,548.83	71.0156	2,548.83	67.1028	2,548.83	72.9016	2,548.83	72.7529	2,548.83	72.523
2,639.65	85.1714	2,639.65	84.6852	2,639.65	85.0667	2,639.65	83.899	2,639.65	84.3533	2,639.65	82.9769	2,639.65	83.4916	2,639.65	80.7061	2,639.65	82.3096	2,639.65	80.6437	2,639.65	81.3485	2,639.65	79.6074	2,639.65	79.614	2,639.65	76.227	2,639.65	77.7143	2,639.65	76.208	2,639.65	76.3626	2,639.65	74.2922	2,639.65	73.6254	2,639.65	74.5699	2,639.65	71.8921	2,639.65	73.0108	2,639.65	70.3473	2,639.65	73.1339	2,639.65	71.315	2,639.65	69.5792	2,639.65	71.0056	2,639.65	67.0157	2,639.65	68.7522	2,639.65	64.6276	2,639.65	63.8196	2,639.65	69.1821	2,639.65	64.1402	2,639.65	73.163	2,639.65	71.0163	2,639.65	73.0497
2,731.93	84.5144	2,731.93	84.3049	2,731.93	83.6858	2,731.93	83.4378	2,731.93	84.1291	2,731.93	82.7677	2,731.93	83.3868	2,731.93	81.1796	2,731.93	82.0205	2,731.93	79.7811	2,731.93	81.0008	2,731.93	78.4399	2,731.93	78.878	2,731.93	75.245	2,731.93	78.0608	2,731.93	74.1346	2,731.93	76.4693	2,731.93	73.458	2,731.93	75.4273	2,731.93	73.7126	2,731.93	71.834	2,731.93	71.1935	2,731.93	70.2175	2,731.93	73.2668	2,731.93	71.343	2,731.93	70.0709	2,731.93	71.697	2,731.93	66.1974	2,731.93	69.7486	2,731.93	66.4856	2,731.93	63.8437	2,731.93	68.3846	2,731.93	61.6393	2,731.93	68.2974	2,731.93	67.6594	2,731.93	68.6331
2,828.61	85.4103	2,828.61	85.9154	2,828.61	84.4638	2,828.61	84.4101	2,828.61	85.0547	2,828.61	83.7097	2,828.61	84.2759	2,828.61	83.0226	2,828.61	82.5657	2,828.61	80.7491	2,828.61	81.1355	2,828.61	78.7412	2,828.61	78.7535	2,828.61	77.8404	2,828.61	78.434	2,828.61	74.5315	2,828.61	76.6971	2,828.61	74.0433	2,828.61	76.455	2,828.61	72.9453	2,828.61	74.4194	2,828.61	73.0276	2,828.61	72.3354	2,828.61	71.9754	2,828.61	71.0306	2,828.61	69.6333	2,828.61	72.7595	2,828.61	69.1335	2,828.61	71.4178	2,828.61	64.6895	2,828.61	65.3651	2,828.61	66.9055	2,828.61	61.2916	2,828.61	70.8086	2,828.61	66.8283	2,828.61	71.9093
2,928.22	86.0221	2,928.22	85.5937	2,928.22	86.3448	2,928.22	85.6846	2,928.22	85.6092	2,928.22	84.6645	2,928.22	85.0715	2,928.22	84.2864	2,928.22	83.7788	2,928.22	81.8026	2,928.22	81.5529	2,928.22	79.8719	2,928.22	80.0657	2,928.22	78.8758	2,928.22	77.6972	2,928.22	76.2282	2,928.22	75.9395	2,928.22	75.1979	2,928.22	76.6881	2,928.22	73.0129	2,928.22	75.8074	2,928.22	73.5026	2,928.22	73.3791	2,928.22	70.4896	2,928.22	71.8577	2,928.22	72.1502	2,928.22	73.3098	2,928.22	70.7105	2,928.22	74.2912	2,928.22	64.5962	2,928.22	69.7643	2,928.22	65.562	2,928.22	65.584	2,928.22	69.1	2,928.22	67.7916	2,928.22	71.6502
3,030.76	86.2431	3,030.76	86.0141	3,030.76	86.3769	3,030.76	85.4071	3,030.76	85.979	3,030.76	83.9487	3,030.76	84.8397	3,030.76	82.8575	3,030.76	84.0916	3,030.76	81.7852	3,030.76	83.0487	3,030.76	79.9338	3,030.76	81.6619	3,030.76	78.2358	3,030.76	79.4149	3,030.76	77.1185	3,030.76	76.6782	3,030.76	75.8143	3,030.76	75.8555	3,030.76	73.6647	3,030.76	75.3681	3,030.76	73.8538	3,030.76	71.1524	3,030.76	70.1979	3,030.76	68.9328	3,030.76	69.7669	3,030.76	72.7183	3,030.76	69.9423	3,030.76	72.7523	3,030.76	66.3665	3,030.76	69.6012	3,030.76	68.1927	3,030.76	65.0089	3,030.76	71.6217	3,030.76	69.5232	3,030.76	71.2276
3,137.7	86.0852	3,137.7	85.465	3,137.7	86.2603	3,137.7	85.1775	3,137.7	85.4163	3,137.7	84.1636	3,137.7	84.8074	3,137.7	83.4203	3,137.7	83.6139	3,137.7	81.9165	3,137.7	82.3971	3,137.7	80.6807	3,137.7	81.1129	3,137.7	79.4059	3,137.7	79.4057	3,137.7	77.259	3,137.7	77.6114	3,137.7	75.1992	3,137.7	75.2484	3,137.7	73.0597	3,137.7	73.989	3,137.7	72.3494	3,137.7	72.7864	3,137.7	71.8505	3,137.7	70.6799	3,137.7	71.1998	3,137.7	71.1913	3,137.7	70.0193	3,137.7	70.9675	3,137.7	69.0385	3,137.7	66.7169	3,137.7	68.5287	3,137.7	61.7385	3,137.7	70.4957	3,137.7	69.4869	3,137.7	70.4849
3,249.02	85.2779	3,249.02	84.6301	3,249.02	85.2936	3,249.02	84.3836	3,249.02	84.5671	3,249.02	83.2747	3,249.02	84.0708	3,249.02	81.9595	3,249.02	83.2284	3,249.02	81.115	3,249.02	81.7571	3,249.02	80.1147	3,249.02	80.3545	3,249.02	78.1469	3,249.02	78.6896	3,249.02	77.9044	3,249.02	77.5676	3,249.02	75.7878	3,249.02	75.877	3,249.02	74.0395	3,249.02	74.7412	3,249.02	72.4641	3,249.02	72.5009	3,249.02	71.7952	3,249.02	70.477	3,249.02	71.3256	3,249.02	68.7457	3,249.02	67.0929	3,249.02	70.1146	3,249.02	67.3508	3,249.02	67.8775	3,249.02	67.5329	3,249.02	62.233	3,249.02	68.3868	3,249.02	68.8092	3,249.02	70.8077
3,363.28	85.574	3,363.28	84.8943	3,363.28	85.4388	3,363.28	84.4484	3,363.28	84.3537	3,363.28	83.5171	3,363.28	83.5761	3,363.28	81.2766	3,363.28	82.369	3,363.28	80.34	3,363.28	80.9182	3,363.28	78.7858	3,363.28	79.5279	3,363.28	77.6366	3,363.28	78.3754	3,363.28	76.7088	3,363.28	77.2643	3,363.28	73.7065	3,363.28	74.3313	3,363.28	72.0649	3,363.28	74.0312	3,363.28	69.0782	3,363.28	71.3752	3,363.28	70.1282	3,363.28	68.8122	3,363.28	69.0906	3,363.28	69.2105	3,363.28	65.5907	3,363.28	69.2938	3,363.28	61.2306	3,363.28	68.1115	3,363.28	68.1682	3,363.28	63.9256	3,363.28	69.9633	3,363.28	66.8191	3,363.28	69.7792
3,481.93	84.9651	3,481.93	85.2614	3,481.93	84.6863	3,481.93	84.1504	3,481.93	83.9622	3,481.93	82.4934	3,481.93	82.9681	3,481.93	80.3521	3,481.93	81.9533	3,481.93	80.6344	3,481.93	81.462	3,481.93	78.5552	3,481.93	79.4123	3,481.93	76.6602	3,481.93	78.5711	3,481.93	76.9272	3,481.93	76.6078	3,481.93	76.3243	3,481.93	75.1275	3,481.93	74.1152	3,481.93	73.2233	3,481.93	71.2491	3,481.93	72.0441	3,481.93	70.4455	3,481.93	66.2514	3,481.93	68.6336	3,481.93	67.1983	3,481.93	67.9861	3,481.93	68.9165	3,481.93	63.2585	3,481.93	68.2809	3,481.93	67.1965	3,481.93	61.6603	3,481.93	70.8357	3,481.93	65.5023	3,481.93	69.0889
3,604.98	85.7614	3,604.98	85.7784	3,604.98	85.1234	3,604.98	83.7183	3,604.98	84.898	3,604.98	83.1087	3,604.98	83.6344	3,604.98	81.6699	3,604.98	83.102	3,604.98	78.3306	3,604.98	82.2888	3,604.98	77.6376	3,604.98	80.9332	3,604.98	76.6142	3,604.98	78.5403	3,604.98	75.0787	3,604.98	77.5554	3,604.98	74.9306	3,604.98	76.2445	3,604.98	73.416	3,604.98	74.2066	3,604.98	72.9423	3,604.98	74.5033	3,604.98	71.4934	3,604.98	71.6439	3,604.98	71.2763	3,604.98	63.4437	3,604.98	67.3373	3,604.98	65.4725	3,604.98	63.7118	3,604.98	66.536	3,604.98	68.0176	3,604.98	61.6231	3,604.98	71.7267	3,604.98	65.5553	3,604.98	70.7536
3,732.42	86.6839	3,732.42	86.2719	3,732.42	85.8694	3,732.42	85.6805	3,732.42	85.3097	3,732.42	84.7826	3,732.42	84.341	3,732.42	83.5723	3,732.42	82.8471	3,732.42	81.0326	3,732.42	81.8787	3,732.42	79.3911	3,732.42	81.0336	3,732.42	78.0869	3,732.42	78.8521	3,732.42	75.4032	3,732.42	77.2221	3,732.42	73.3603	3,732.42	75.5946	3,732.42	73.8577	3,732.42	74.9807	3,732.42	71.5517	3,732.42	75.0221	3,732.42	71.2726	3,732.42	73.3407	3,732.42	73.7351	3,732.42	68.7813	3,732.42	69.7713	3,732.42	68.492	3,732.42	61.3894	3,732.42	67.5284	3,732.42	67.3877	3,732.42	63.818	3,732.42	72.5078	3,732.42	69.4855	3,732.42	73.5278
3,864.26	85.1327	3,864.26	84.643	3,864.26	85.1856	3,864.26	84.5138	3,864.26	84.2467	3,864.26	83.6374	3,864.26	83.482	3,864.26	83.1524	3,864.26	81.8268	3,864.26	80.4438	3,864.26	80.4312	3,864.26	80.27	3,864.26	79.2354	3,864.26	78.7773	3,864.26	77.1182	3,864.26	76.0277	3,864.26	76.1322	3,864.26	73.586	3,864.26	73.3875	3,864.26	71.9206	3,864.26	72.8957	3,864.26	71.9237	3,864.26	72.3815	3,864.26	72.6744	3,864.26	71.7467	3,864.26	71.7797	3,864.26	67.6311	3,864.26	70.7405	3,864.26	67.2041	3,864.26	65.7548	3,864.26	66.6356	3,864.26	68.7255	3,864.26	64.3798	3,864.26	73.5034	3,864.26	68.2502	3,864.26	72.9629
4,000.49	84.5315	4,000.49	83.8318	4,000.49	85.0857	4,000.49	84.2254	4,000.49	83.9999	4,000.49	83.0782	4,000.49	83.6293	4,000.49	81.7391	4,000.49	82.1379	4,000.49	80.4983	4,000.49	81.2648	4,000.49	78.7534	4,000.49	79.2749	4,000.49	75.892	4,000.49	77.8283	4,000.49	74.1648	4,000.49	75.8167	4,000.49	73.1908	4,000.49	73.1753	4,000.49	70.212	4,000.49	72.3396	4,000.49	70.5626	4,000.49	69.8144	4,000.49	68.8492	4,000.49	71.2599	4,000.49	70.1195	4,000.49	69.4753	4,000.49	71.182	4,000.49	69.4148	4,000.49	62.9589	4,000.49	68.7325	4,000.49	66.4035	4,000.49	65.5244	4,000.49	72.6424	4,000.49	66.5599	4,000.49	72.2058
4,141.11	85.1085	4,141.11	84.8576	4,141.11	85.6633	4,141.11	85.038	4,141.11	84.606	4,141.11	84.4206	4,141.11	83.8802	4,141.11	82.9204	4,141.11	82.5841	4,141.11	82.8643	4,141.11	80.9016	4,141.11	80.0586	4,141.11	79.3199	4,141.11	76.0169	4,141.11	78.0807	4,141.11	74.2433	4,141.11	76.633	4,141.11	73.0867	4,141.11	75.1774	4,141.11	72.0443	4,141.11	71.8635	4,141.11	72.044	4,141.11	72.4613	4,141.11	65.3709	4,141.11	71.6929	4,141.11	70.8351	4,141.11	69.8093	4,141.11	71.8937	4,141.11	69.0373	4,141.11	66.7688	4,141.11	69.4485	4,141.11	62.91	4,141.11	66.2803	4,141.11	70.923	4,141.11	68.3714	4,141.11	71.7675
4,287.6	83.9973	4,287.6	84.8371	4,287.6	84.1204	4,287.6	83.5012	4,287.6	84.2446	4,287.6	80.8223	4,287.6	83.046	4,287.6	80.4936	4,287.6	82.905	4,287.6	81.9915	4,287.6	81.6907	4,287.6	78.9354	4,287.6	79.6896	4,287.6	75.6636	4,287.6	78.1409	4,287.6	73.0038	4,287.6	75.7711	4,287.6	73.4799	4,287.6	74.2715	4,287.6	71.5982	4,287.6	72.4853	4,287.6	72.0368	4,287.6	71.1319	4,287.6	65.6648	4,287.6	71.2297	4,287.6	71.1833	4,287.6	69.7647	4,287.6	71.2895	4,287.6	64.5417	4,287.6	67.1513	4,287.6	65.9804	4,287.6	62.6276	4,287.6	62.8324	4,287.6	71.246	4,287.6	66.1459	4,287.6	70.5827
4,438.48	84.8435	4,438.48	85.0458	4,438.48	84.6319	4,438.48	83.3006	4,438.48	85.1738	4,438.48	82.425	4,438.48	84.1353	4,438.48	81.7072	4,438.48	83.4644	4,438.48	79.5856	4,438.48	82.1235	4,438.48	78.1576	4,438.48	80.2692	4,438.48	77.6043	4,438.48	78.5076	4,438.48	73.8734	4,438.48	75.7549	4,438.48	71.9033	4,438.48	73.9242	4,438.48	71.4451	4,438.48	72.2992	4,438.48	71.0853	4,438.48	70.4486	4,438.48	67.7543	4,438.48	69.9839	4,438.48	67.5768	4,438.48	71.0147	4,438.48	71.024	4,438.48	68.8995	4,438.48	66.6769	4,438.48	67.4137	4,438.48	64.5968	4,438.48	66.0187	4,438.48	72.6894	4,438.48	66.3086	4,438.48	72.2133
4,595.21	83.9855	4,595.21	82.7007	4,595.21	84.3137	4,595.21	82.4968	4,595.21	84.6268	4,595.21	84.1534	4,595.21	83.3193	4,595.21	82.4662	4,595.21	82.7711	4,595.21	79.2142	4,595.21	80.6411	4,595.21	78.4597	4,595.21	79.5827	4,595.21	77.9176	4,595.21	77.6091	4,595.21	75.5711	4,595.21	75.5463	4,595.21	69.3553	4,595.21	73.1757	4,595.21	70.0474	4,595.21	71.9528	4,595.21	65.7015	4,595.21	70.0569	4,595.21	67.2958	4,595.21	68.5108	4,595.21	63.1187	4,595.21	68.4205	4,595.21	69.7217	4,595.21	67.7702	4,595.21	66.3677	4,595.21	68.1632	4,595.21	64.6514	4,595.21	65.9839	4,595.21	72.2186	4,595.21	67.4162	4,595.21	72.1787
4,756.35	85.2246	4,756.35	84.3149	4,756.35	85.0914	4,756.35	85.0288	4,756.35	84.2106	4,756.35	84.7035	4,756.35	84.6339	4,756.35	83.8226	4,756.35	84.127	4,756.35	81.7808	4,756.35	82.0621	4,756.35	79.5053	4,756.35	80.4209	4,756.35	76.7947	4,756.35	77.5975	4,756.35	73.7236	4,756.35	75.7706	4,756.35	72.1283	4,756.35	73.9445	4,756.35	69.0075	4,756.35	71.079	4,756.35	67.0771	4,756.35	70.5995	4,756.35	67.0395	4,756.35	69.0848	4,756.35	60.8188	4,756.35	67.5362	4,756.35	68.1248	4,756.35	66.5414	4,756.35	64.5097	4,756.35	68.7864	4,756.35	59.8947	4,756.35	63.4437	4,756.35	71.0787	4,756.35	67.2708	4,756.35	72.2989
4,924.8	85.4276	4,924.8	85.6439	4,924.8	84.9983	4,924.8	85.5877	4,924.8	84.644	4,924.8	83.3733	4,924.8	84.1282	4,924.8	83.1764	4,924.8	83.2051	4,924.8	82.0621	4,924.8	82.3315	4,924.8	79.6054	4,924.8	79.7719	4,924.8	77.3414	4,924.8	76.6566	4,924.8	74.4619	4,924.8	73.9467	4,924.8	71.7676	4,924.8	73.2318	4,924.8	69.4583	4,924.8	70.8197	4,924.8	69.4124	4,924.8	69.5328	4,924.8	66.9767	4,924.8	67.4041	4,924.8	59.0876	4,924.8	67.2158	4,924.8	65.8502	4,924.8	66.1733	4,924.8	65.5724	4,924.8	69.1794	4,924.8	55.6948	4,924.8	63.1989	4,924.8	70.535	4,924.8	69.4946	4,924.8	72.6795
5,097.66	85.0556	5,097.66	85.0277	5,097.66	84.7257	5,097.66	84.8827	5,097.66	85.4335	5,097.66	83.7113	5,097.66	84.6363	5,097.66	81.0394	5,097.66	82.7551	5,097.66	79.1044	5,097.66	81.4535	5,097.66	76.7634	5,097.66	77.7287	5,097.66	75.1175	5,097.66	75.52	5,097.66	74.5947	5,097.66	73.4992	5,097.66	69.1112	5,097.66	70.5072	5,097.66	67.5035	5,097.66	67.5811	5,097.66	67.3672	5,097.66	60.5474	5,097.66	65.1002	5,097.66	62.6124	5,097.66	57.5192	5,097.66	67.19	5,097.66	62.1712	5,097.66	63.4113	5,097.66	68.7734	5,097.66	66.218	5,097.66	63.8257	5,097.66	63.4813	5,097.66	71.9793	5,097.66	64.1566	5,097.66	72.5604
5,277.83	85.9998	5,277.83	85.6311	5,277.83	85.7778	5,277.83	85.1759	5,277.83	85.157	5,277.83	84.9209	5,277.83	85.3016	5,277.83	82.4772	5,277.83	82.9671	5,277.83	79.7312	5,277.83	80.8049	5,277.83	77.916	5,277.83	79.3628	5,277.83	73.4559	5,277.83	76.744	5,277.83	74.3779	5,277.83	75.3768	5,277.83	72.9408	5,277.83	72.4459	5,277.83	66.9426	5,277.83	70.8142	5,277.83	62.6755	5,277.83	69.1673	5,277.83	64.8093	5,277.83	62.8671	5,277.83	59.273	5,277.83	57.1835	5,277.83	55.4154	5,277.83	63.2091	5,277.83	66.0293	5,277.83	64.5924	5,277.83	52.7956	5,277.83	62.9993	5,277.83	68.0973	5,277.83	60.713	5,277.83	70.179
5,463.87	86.0383	5,463.87	85.808	5,463.87	86.2272	5,463.87	85.6524	5,463.87	85.3181	5,463.87	84.486	5,463.87	85.0848	5,463.87	83.4248	5,463.87	84.3044	5,463.87	80.454	5,463.87	82.7536	5,463.87	78.955	5,463.87	81.2297	5,463.87	75.8493	5,463.87	77.3753	5,463.87	73.9196	5,463.87	75.2681	5,463.87	74.7337	5,463.87	72.6573	5,463.87	71.0931	5,463.87	72.7702	5,463.87	71.6385	5,463.87	70.2826	5,463.87	68.9543	5,463.87	68.697	5,463.87	66.8445	5,463.87	64.6787	5,463.87	61.0394	5,463.87	56.5857	5,463.87	60.5886	5,463.87	64.361	5,463.87	58.5039	5,463.87	62.6291	5,463.87	61.3928	5,463.87	63.012	5,463.87	67.5858
5,657.23	85.1522	5,657.23	85.4419	5,657.23	85.5821	5,657.23	85.9137	5,657.23	85.5035	5,657.23	84.4202	5,657.23	84.7216	5,657.23	83.29	5,657.23	84.3398	5,657.23	82.1505	5,657.23	82.9567	5,657.23	79.7166	5,657.23	80.1729	5,657.23	77.6374	5,657.23	77.8707	5,657.23	74.6922	5,657.23	75.5094	5,657.23	72.7677	5,657.23	73.0308	5,657.23	70.3371	5,657.23	71.5909	5,657.23	70.2256	5,657.23	70.5182	5,657.23	68.256	5,657.23	68.0978	5,657.23	68.5054	5,657.23	65.5783	5,657.23	57.0512	5,657.23	62.7718	5,657.23	65.3724	5,657.23	60.9352	5,657.23	62.4787	5,657.23	59.1356	5,657.23	64.0798	5,657.23	63.7664	5,657.23	67.2327
5,856.45	85.1171	5,856.45	85.2186	5,856.45	85.0656	5,856.45	84.4439	5,856.45	85.2375	5,856.45	84.3997	5,856.45	84.9935	5,856.45	82.4528	5,856.45	83.7002	5,856.45	81.8225	5,856.45	82.2185	5,856.45	78.3038	5,856.45	79.9632	5,856.45	75.8895	5,856.45	78.7826	5,856.45	74.0495	5,856.45	75.5533	5,856.45	72.2678	5,856.45	73.3405	5,856.45	71.8104	5,856.45	70.7018	5,856.45	71.4918	5,856.45	70.7305	5,856.45	67.6971	5,856.45	67.6626	5,856.45	67.6301	5,856.45	67.2746	5,856.45	61.0706	5,856.45	67.4029	5,856.45	64.0885	5,856.45	56.3016	5,856.45	58.3175	5,856.45	63.1984	5,856.45	63.6522	5,856.45	51.932	5,856.45	66.4421
6,062.99	86.1884	6,062.99	86.0643	6,062.99	85.7397	6,062.99	85.8649	6,062.99	85.5399	6,062.99	85.3903	6,062.99	85.7945	6,062.99	83.771	6,062.99	84.5035	6,062.99	81.7219	6,062.99	82.6362	6,062.99	79.3318	6,062.99	80.5667	6,062.99	75.9486	6,062.99	78.4982	6,062.99	74.2012	6,062.99	76.0613	6,062.99	71.2659	6,062.99	73.9123	6,062.99	70.3148	6,062.99	71.0889	6,062.99	67.8155	6,062.99	70.3824	6,062.99	67.4514	6,062.99	68.5469	6,062.99	63.0651	6,062.99	66.0867	6,062.99	61.0445	6,062.99	64.1533	6,062.99	66.3952	6,062.99	63.7411	6,062.99	62.7276	6,062.99	63.5442	6,062.99	61.2523	6,062.99	50.5662	6,062.99	66.1828
6,276.86	86.2025	6,276.86	86.3989	6,276.86	86.3795	6,276.86	86.6196	6,276.86	86.3852	6,276.86	85.1909	6,276.86	86.0184	6,276.86	84.0456	6,276.86	85.038	6,276.86	81.3644	6,276.86	82.9615	6,276.86	78.8695	6,276.86	79.9059	6,276.86	75.628	6,276.86	76.5504	6,276.86	73.796	6,276.86	75.4285	6,276.86	71.7639	6,276.86	71.747	6,276.86	68.5733	6,276.86	70.912	6,276.86	67.8009	6,276.86	68.7623	6,276.86	67.5051	6,276.86	68.2911	6,276.86	66.159	6,276.86	67.5657	6,276.86	65.1195	6,276.86	64.7101	6,276.86	63.8207	6,276.86	60.619	6,276.86	62.3981	6,276.86	64.0583	6,276.86	65.6516	6,276.86	56.7811	6,276.86	67.1904
6,498.05	86.0953	6,498.05	86.4767	6,498.05	86.4206	6,498.05	86.1424	6,498.05	86.7382	6,498.05	85.1544	6,498.05	85.6008	6,498.05	83.6152	6,498.05	84.5846	6,498.05	80.2243	6,498.05	82.6316	6,498.05	77.8953	6,498.05	79.6641	6,498.05	76.2738	6,498.05	77.0779	6,498.05	73.0448	6,498.05	75.2813	6,498.05	72.3895	6,498.05	72.3519	6,498.05	70.1437	6,498.05	71.8793	6,498.05	66.355	6,498.05	69.2019	6,498.05	65.5088	6,498.05	66.5615	6,498.05	64.1467	6,498.05	65.2895	6,498.05	59.7356	6,498.05	66.1989	6,498.05	64.6589	6,498.05	60.5838	6,498.05	49.1305	6,498.05	63.6691	6,498.05	64.6416	6,498.05	56.5246	6,498.05	66.9034
6,726.56	87.5705	6,726.56	87.5306	6,726.56	87.3954	6,726.56	87.3152	6,726.56	87.1405	6,726.56	86.4441	6,726.56	86.5567	6,726.56	84.3211	6,726.56	84.6727	6,726.56	82.1223	6,726.56	82.8195	6,726.56	79.32	6,726.56	80.2913	6,726.56	76.2964	6,726.56	77.6148	6,726.56	73.9901	6,726.56	75.2395	6,726.56	71.6611	6,726.56	74.1373	6,726.56	69.9	6,726.56	72.2426	6,726.56	68.9682	6,726.56	68.6493	6,726.56	64.5017	6,726.56	68.4101	6,726.56	66.2276	6,726.56	66.2762	6,726.56	63.9113	6,726.56	66.5845	6,726.56	65.0572	6,726.56	64.1502	6,726.56	58.2317	6,726.56	65.3144	6,726.56	64.9096	6,726.56	46.7286	6,726.56	67.096
6,963.87	87.5894	6,963.87	87.4453	6,963.87	87.4794	6,963.87	87.0802	6,963.87	86.9086	6,963.87	85.7505	6,963.87	86.6644	6,963.87	83.5182	6,963.87	84.2836	6,963.87	81.6606	6,963.87	82.328	6,963.87	79.99	6,963.87	79.8605	6,963.87	76.3063	6,963.87	76.215	6,963.87	74.6123	6,963.87	73.8812	6,963.87	71.5459	6,963.87	71.7379	6,963.87	67.9269	6,963.87	70.6125	6,963.87	70.4081	6,963.87	68.6317	6,963.87	67.0638	6,963.87	65.4378	6,963.87	60.2024	6,963.87	67.4328	6,963.87	64.0681	6,963.87	65.6567	6,963.87	64.4472	6,963.87	61.4732	6,963.87	63.9961	6,963.87	65.7419	6,963.87	62.8669	6,963.87	59.9699	6,963.87	67.1656
7,209.96	87.7789	7,209.96	87.5547	7,209.96	87.9576	7,209.96	87.0923	7,209.96	87.6075	7,209.96	85.6926	7,209.96	86.5239	7,209.96	83.791	7,209.96	84.9981	7,209.96	80.0888	7,209.96	81.9671	7,209.96	78.9188	7,209.96	79.8315	7,209.96	76.517	7,209.96	77.9476	7,209.96	74.2983	7,209.96	74.0926	7,209.96	72.2476	7,209.96	72.2676	7,209.96	69.9926	7,209.96	68.9793	7,209.96	67.9882	7,209.96	68.8615	7,209.96	67.9385	7,209.96	66.0015	7,209.96	65.9877	7,209.96	66.6808	7,209.96	63.0913	7,209.96	67.3946	7,209.96	64.125	7,209.96	56.0063	7,209.96	61.2178	7,209.96	63.4947	7,209.96	63.3889	7,209.96	56.3608	7,209.96	65.6903
7,464.84	87.9471	7,464.84	87.9288	7,464.84	88.0227	7,464.84	87.5503	7,464.84	87.3243	7,464.84	85.3456	7,464.84	85.793	7,464.84	83.6241	7,464.84	84.1903	7,464.84	81.3673	7,464.84	81.5305	7,464.84	78.1991	7,464.84	79.1267	7,464.84	77.0644	7,464.84	76.4622	7,464.84	72.6567	7,464.84	75.1289	7,464.84	69.374	7,464.84	71.1362	7,464.84	70.003	7,464.84	69.9545	7,464.84	69.7608	7,464.84	67.7213	7,464.84	68.5735	7,464.84	67.8274	7,464.84	68.3187	7,464.84	66.8839	7,464.84	59.9201	7,464.84	62.2762	7,464.84	64.2629	7,464.84	59.4594	7,464.84	57.9177	7,464.84	60.0751	7,464.84	63.6923	7,464.84	45.5437	7,464.84	67.1284
7,727.05	87.8666	7,727.05	87.5718	7,727.05	87.6953	7,727.05	86.6004	7,727.05	87.4469	7,727.05	84.5559	7,727.05	86.4427	7,727.05	82.3274	7,727.05	83.9103	7,727.05	81.5716	7,727.05	82.5564	7,727.05	78.8244	7,727.05	80.4252	7,727.05	74.8859	7,727.05	77.3423	7,727.05	72.889	7,727.05	75.1309	7,727.05	71.2035	7,727.05	72.3143	7,727.05	68.4101	7,727.05	70.4803	7,727.05	68.3092	7,727.05	68.393	7,727.05	67.7215	7,727.05	67.7242	7,727.05	68.4535	7,727.05	62.5809	7,727.05	60.3678	7,727.05	65.4403	7,727.05	62.3553	7,727.05	64.7376	7,727.05	60.3297	7,727.05	59.7313	7,727.05	63.7903	7,727.05	56.0574	7,727.05	64.359
7,999.51	87.5412	7,999.51	87.1752	7,999.51	87.6102	7,999.51	85.9075	7,999.51	86.581	7,999.51	84.961	7,999.51	85.4716	7,999.51	83.1368	7,999.51	84.0217	7,999.51	80.4565	7,999.51	81.9901	7,999.51	78.3616	7,999.51	79.0495	7,999.51	75.7722	7,999.51	77.1205	7,999.51	74.3973	7,999.51	73.7865	7,999.51	72.2342	7,999.51	73.1464	7,999.51	68.0331	7,999.51	70.3799	7,999.51	66.9443	7,999.51	66.9111	7,999.51	66.8871	7,999.51	65.999	7,999.51	63.68	7,999.51	66.0469	7,999.51	60.8691	7,999.51	64.9694	7,999.51	59.7523	7,999.51	62.2949	7,999.51	59.9471	7,999.51	61.3843	7,999.51	64.1069	7,999.51	58.759	7,999.51	64.398
8,282.23	87.8109	8,282.23	87.1453	8,282.23	87.78	8,282.23	85.9021	8,282.23	86.5294	8,282.23	84.3153	8,282.23	84.313	8,282.23	82.7928	8,282.23	83.343	8,282.23	80.3415	8,282.23	80.7637	8,282.23	78.3706	8,282.23	78.9781	8,282.23	75.9039	8,282.23	76.2859	8,282.23	72.9897	8,282.23	73.7115	8,282.23	70.6649	8,282.23	71.1849	8,282.23	68.3241	8,282.23	67.1666	8,282.23	66.2391	8,282.23	67.1083	8,282.23	63.0908	8,282.23	64.1675	8,282.23	61.8164	8,282.23	62.9263	8,282.23	61.4881	8,282.23	62.6771	8,282.23	58.3172	8,282.23	62.6216	8,282.23	59.4389	8,282.23	61.8796	8,282.23	63.1722	8,282.23	59.5607	8,282.23	64.4264
8,573.73	88.5926	8,573.73	87.2815	8,573.73	88.1342	8,573.73	86.0601	8,573.73	87.2901	8,573.73	84.2881	8,573.73	85.692	8,573.73	82.832	8,573.73	83.2462	8,573.73	81.7483	8,573.73	81.8305	8,573.73	78.4512	8,573.73	78.8022	8,573.73	73.9031	8,573.73	75.8832	8,573.73	73.4498	8,573.73	74.044	8,573.73	69.1065	8,573.73	70.6858	8,573.73	68.4436	8,573.73	68.3599	8,573.73	65.3895	8,573.73	66.7064	8,573.73	63.1416	8,573.73	64.6279	8,573.73	60.7163	8,573.73	63.9475	8,573.73	63.9725	8,573.73	61.9399	8,573.73	56.6379	8,573.73	65.3699	8,573.73	55.4835	8,573.73	61.0114	8,573.73	62.4015	8,573.73	59.0305	8,573.73	65.0866
8,876.95	88.5339	8,876.95	87.3291	8,876.95	88.1104	8,876.95	85.7129	8,876.95	86.1245	8,876.95	84.426	8,876.95	84.6185	8,876.95	82.9301	8,876.95	82.8627	8,876.95	80.1669	8,876.95	81.1602	8,876.95	76.6079	8,876.95	77.9972	8,876.95	74.5462	8,876.95	75.3448	8,876.95	70.792	8,876.95	72.1581	8,876.95	69.002	8,876.95	69.1947	8,876.95	66.4564	8,876.95	68.9415	8,876.95	64.9031	8,876.95	67.1667	8,876.95	64.3699	8,876.95	65.1776	8,876.95	61.015	8,876.95	63.6367	8,876.95	61.5567	8,876.95	61.282	8,876.95	59.4066	8,876.95	61.0617	8,876.95	57.6472	8,876.95	56.2591	8,876.95	61.0916	8,876.95	56.6534	8,876.95	64.3035
9,188.96	88.89	9,188.96	87.9618	9,188.96	88.4945	9,188.96	86.3063	9,188.96	86.7772	9,188.96	84.8501	9,188.96	84.4995	9,188.96	82.9691	9,188.96	82.2477	9,188.96	80.0459	9,188.96	80.9941	9,188.96	78.2289	9,188.96	78.1742	9,188.96	73.9598	9,188.96	74.1794	9,188.96	70.9593	9,188.96	71.7699	9,188.96	69.1867	9,188.96	68.5252	9,188.96	66.362	9,188.96	68.0833	9,188.96	65.4975	9,188.96	66.7287	9,188.96	65.1233	9,188.96	64.7279	9,188.96	62.3233	9,188.96	62.485	9,188.96	63.4163	9,188.96	62.2851	9,188.96	58.85	9,188.96	62.959	9,188.96	54.4203	9,188.96	57.0005	9,188.96	58.6023	9,188.96	56.3239	9,188.96	61.1855
9,514.16	88.792	9,514.16	87.9106	9,514.16	88.4443	9,514.16	86.2878	9,514.16	86.097	9,514.16	84.349	9,514.16	84.9724	9,514.16	82.3836	9,514.16	83.3754	9,514.16	80.0294	9,514.16	80.0137	9,514.16	76.6191	9,514.16	77.0813	9,514.16	72.476	9,514.16	73.6881	9,514.16	70.2594	9,514.16	71.4232	9,514.16	68.721	9,514.16	69.106	9,514.16	66.6283	9,514.16	65.6545	9,514.16	65.9916	9,514.16	64.465	9,514.16	65.0104	9,514.16	62.3604	9,514.16	64.6346	9,514.16	64.5974	9,514.16	59.4811	9,514.16	59.145	9,514.16	57.3642	9,514.16	61.0797	9,514.16	59.3556	9,514.16	56.7447	9,514.16	61.298	9,514.16	54.5466	9,514.16	63.1732
9,849.61	89.2041	9,849.61	87.878	9,849.61	88.9188	9,849.61	86.4715	9,849.61	87.1656	9,849.61	85.0541	9,849.61	84.884	9,849.61	83.1325	9,849.61	82.8817	9,849.61	79.7522	9,849.61	79.8107	9,849.61	76.5146	9,849.61	77.444	9,849.61	73.2132	9,849.61	73.3816	9,849.61	70.9664	9,849.61	70.4133	9,849.61	68.6493	9,849.61	67.5716	9,849.61	67.4835	9,849.61	67.6017	9,849.61	63.1581	9,849.61	64.1158	9,849.61	62.4654	9,849.61	61.6943	9,849.61	65.0679	9,849.61	63.3674	9,849.61	61.4736	9,849.61	61.5686	9,849.61	58.4958	9,849.61	61.9384	9,849.61	56.6417	9,849.61	58.023	9,849.61	58.7531	9,849.61	58.2592	9,849.61	61.9651
10,196.8	89.6233	10,196.8	88.3478	10,196.8	89.3088	10,196.8	86.406	10,196.8	87.434	10,196.8	84.9632	10,196.8	85.6414	10,196.8	82.0297	10,196.8	83.0913	10,196.8	78.6241	10,196.8	80.2856	10,196.8	75.5248	10,196.8	77.1082	10,196.8	73.4888	10,196.8	73.3758	10,196.8	72.0433	10,196.8	71.1884	10,196.8	69.2785	10,196.8	68.752	10,196.8	66.6698	10,196.8	66.9961	10,196.8	64.6505	10,196.8	63.3894	10,196.8	61.9979	10,196.8	63.0238	10,196.8	64.7154	10,196.8	62.1926	10,196.8	60.2425	10,196.8	60.1309	10,196.8	59.0598	10,196.8	62.0155	10,196.8	59.1603	10,196.8	57.7212	10,196.8	60.8964	10,196.8	57.7007	10,196.8	62.3177
10,555.7	89.8421	10,555.7	88.3083	10,555.7	89.3286	10,555.7	86.7956	10,555.7	87.2488	10,555.7	84.4852	10,555.7	85.6983	10,555.7	82.5107	10,555.7	83.3707	10,555.7	78.8843	10,555.7	79.8481	10,555.7	76.8942	10,555.7	76.7128	10,555.7	74.7134	10,555.7	74.0025	10,555.7	72.7404	10,555.7	71.6701	10,555.7	68.2811	10,555.7	67.3164	10,555.7	66.6045	10,555.7	66.2905	10,555.7	64.3307	10,555.7	64.4485	10,555.7	64.7313	10,555.7	63.8192	10,555.7	63.5925	10,555.7	61.1803	10,555.7	60.2787	10,555.7	60.0957	10,555.7	61.9247	10,555.7	61.3122	10,555.7	53.5492	10,555.7	59.5078	10,555.7	60.7994	10,555.7	57.5362	10,555.7	62.5133
10,927.7	89.9806	10,927.7	89.152	10,927.7	89.6043	10,927.7	87.1402	10,927.7	87.742	10,927.7	84.7041	10,927.7	85.8985	10,927.7	82.3854	10,927.7	83.1726	10,927.7	79.8968	10,927.7	80.4063	10,927.7	77.5047	10,927.7	77.494	10,927.7	74.5719	10,927.7	74.3159	10,927.7	73.1464	10,927.7	72.3491	10,927.7	70.3411	10,927.7	69.1007	10,927.7	66.4626	10,927.7	67.1674	10,927.7	64.9197	10,927.7	65.8295	10,927.7	64.3443	10,927.7	63.2598	10,927.7	63.0854	10,927.7	62.3363	10,927.7	60.3061	10,927.7	60.102	10,927.7	61.0747	10,927.7	63.443	10,927.7	50.7753	10,927.7	54.1954	10,927.7	62.5405	10,927.7	58.682	10,927.7	63.4171
11,313	90.0149	11,313	88.9283	11,313	89.582	11,313	87.3125	11,313	87.5793	11,313	84.7313	11,313	85.7463	11,313	82.5803	11,313	82.6675	11,313	80.703	11,313	79.8125	11,313	78.825	11,313	78.1204	11,313	75.8863	11,313	76.0121	11,313	72.0622	11,313	74.6397	11,313	70.0496	11,313	69.8198	11,313	67.6605	11,313	67.8136	11,313	65.9111	11,313	66.7785	11,313	66.0763	11,313	65.4974	11,313	63.5721	11,313	63.5388	11,313	60.0459	11,313	58.7423	11,313	63.5526	11,313	62.537	11,313	44.6911	11,313	55.3257	11,313	58.323	11,313	59.2308	11,313	63.5759
11,712.9	90.0109	11,712.9	89.2566	11,712.9	89.5422	11,712.9	87.5213	11,712.9	87.8853	11,712.9	85.2443	11,712.9	85.6409	11,712.9	83.7104	11,712.9	83.2036	11,712.9	81.6051	11,712.9	81.2058	11,712.9	79.0845	11,712.9	78.7485	11,712.9	75.9684	11,712.9	75.6607	11,712.9	72.2503	11,712.9	73.3964	11,712.9	70.0092	11,712.9	70.4961	11,712.9	66.9235	11,712.9	68.9759	11,712.9	66.9686	11,712.9	65.5679	11,712.9	65.8294	11,712.9	64.5663	11,712.9	63.9107	11,712.9	65.346	11,712.9	59.1841	11,712.9	61.5561	11,712.9	64.4751	11,712.9	62.1829	11,712.9	52.6775	11,712.9	50.5506	11,712.9	53.8622	11,712.9	58.7329	11,712.9	62.2154
12,126	89.7725	12,126	88.8517	12,126	89.6838	12,126	87.781	12,126	88.0807	12,126	85.4208	12,126	86.1579	12,126	83.5063	12,126	83.5055	12,126	81.9914	12,126	82.0733	12,126	78.9576	12,126	79.8682	12,126	76.2546	12,126	77.3191	12,126	72.4353	12,126	73.4299	12,126	71.4318	12,126	70.3554	12,126	67.5319	12,126	68.649	12,126	65.8835	12,126	66.8544	12,126	63.6158	12,126	66.5757	12,126	64.4731	12,126	62.605	12,126	61.5986	12,126	62.1677	12,126	63.3291	12,126	64.4272	12,126	54.2128	12,126	57.7257	12,126	54.5884	12,126	58.6052	12,126	60.9105
12,553.7	89.8675	12,553.7	89.3261	12,553.7	89.6682	12,553.7	87.9326	12,553.7	88.4999	12,553.7	86.1639	12,553.7	86.4208	12,553.7	84.6062	12,553.7	84.1705	12,553.7	83.1862	12,553.7	83.2059	12,553.7	79.5448	12,553.7	80.9042	12,553.7	76.6954	12,553.7	77.8011	12,553.7	75.5761	12,553.7	74.6286	12,553.7	71.9549	12,553.7	72.1677	12,553.7	67.2893	12,553.7	71.0045	12,553.7	67.5895	12,553.7	67.4136	12,553.7	65.1498	12,553.7	67.2493	12,553.7	63.4222	12,553.7	65.4257	12,553.7	61.1223	12,553.7	64.4163	12,553.7	58.1944	12,553.7	65.2359	12,553.7	55.5102	12,553.7	58.294	12,553.7	53.3913	12,553.7	60.8151	12,553.7	63.2088
12,996.1	89.6838	12,996.1	89.4064	12,996.1	89.8933	12,996.1	88.6684	12,996.1	88.6626	12,996.1	85.704	12,996.1	86.848	12,996.1	85.2425	12,996.1	84.7803	12,996.1	83.5616	12,996.1	84.2375	12,996.1	81.0971	12,996.1	82.2692	12,996.1	77.0633	12,996.1	78.8965	12,996.1	75.3205	12,996.1	76.2405	12,996.1	71.969	12,996.1	72.1611	12,996.1	67.8868	12,996.1	71.4258	12,996.1	65.9443	12,996.1	67.889	12,996.1	64.086	12,996.1	66.8865	12,996.1	60.8942	12,996.1	63.4862	12,996.1	60.7068	12,996.1	61.0998	12,996.1	55.9749	12,996.1	65.9246	12,996.1	49.2999	12,996.1	59.5614	12,996.1	51.1755	12,996.1	61.096	12,996.1	63.0748
13,454.6	89.3848	13,454.6	89.7405	13,454.6	89.6577	13,454.6	88.4272	13,454.6	88.8077	13,454.6	87.1927	13,454.6	87.1141	13,454.6	86.8769	13,454.6	86.3153	13,454.6	84.9111	13,454.6	85.3413	13,454.6	80.892	13,454.6	82.8038	13,454.6	76.6562	13,454.6	79.6434	13,454.6	70.808	13,454.6	77.124	13,454.6	71.2187	13,454.6	73.7007	13,454.6	68.749	13,454.6	71.9437	13,454.6	69.6692	13,454.6	69.019	13,454.6	64.7253	13,454.6	67.8713	13,454.6	57.1169	13,454.6	66.1173	13,454.6	60.6431	13,454.6	62.7827	13,454.6	61.2421	13,454.6	67.2715	13,454.6	57.1127	13,454.6	60.3277	13,454.6	49.1229	13,454.6	60.3741	13,454.6	63.4728
13,929.2	89.1636	13,929.2	89.9316	13,929.2	89.2024	13,929.2	89.6063	13,929.2	89.4489	13,929.2	89.0035	13,929.2	88.5193	13,929.2	87.2123	13,929.2	87.7622	13,929.2	85.5854	13,929.2	86.2104	13,929.2	81.9692	13,929.2	83.2153	13,929.2	79.1578	13,929.2	81.2663	13,929.2	74.9011	13,929.2	78.348	13,929.2	72.0943	13,929.2	74.355	13,929.2	68.7651	13,929.2	71.8342	13,929.2	70.7138	13,929.2	69.7892	13,929.2	62.7645	13,929.2	67.6921	13,929.2	63.5645	13,929.2	67.533	13,929.2	58.9937	13,929.2	63.6115	13,929.2	57.5136	13,929.2	67.2204	13,929.2	62.3163	13,929.2	61.8289	13,929.2	39.6439	13,929.2	52.2299	13,929.2	61.2902
14,419.9	89.6663	14,419.9	90.3812	14,419.9	89.3536	14,419.9	90.6253	14,419.9	89.9343	14,419.9	90.3261	14,419.9	89.5944	14,419.9	88.4376	14,419.9	88.9057	14,419.9	86.726	14,419.9	87.8281	14,419.9	83.0212	14,419.9	84.6484	14,419.9	79.1833	14,419.9	82.666	14,419.9	75.5093	14,419.9	77.4238	14,419.9	69.8564	14,419.9	73.3722	14,419.9	68.2156	14,419.9	71.9124	14,419.9	70.1387	14,419.9	69.3549	14,419.9	64.4783	14,419.9	68.4045	14,419.9	60.696	14,419.9	65.5686	14,419.9	57.4664	14,419.9	63.9697	14,419.9	60.5996	14,419.9	66.5413	14,419.9	62.9554	14,419.9	60.5078	14,419.9	46.771	14,419.9	58.4321	14,419.9	60.9622
14,928.2	89.5367	14,928.2	90.6042	14,928.2	89.3776	14,928.2	91.2337	14,928.2	90.4322	14,928.2	91.2268	14,928.2	90.7926	14,928.2	89.5498	14,928.2	89.6516	14,928.2	86.5316	14,928.2	88.2598	14,928.2	82.655	14,928.2	85.4681	14,928.2	77.5052	14,928.2	80.8711	14,928.2	73.2781	14,928.2	76.0776	14,928.2	69.8199	14,928.2	72.0457	14,928.2	67.6071	14,928.2	70.7012	14,928.2	65.5144	14,928.2	68.2346	14,928.2	64.3384	14,928.2	67.4798	14,928.2	57.2442	14,928.2	63.225	14,928.2	55.3434	14,928.2	61.4525	14,928.2	57.7522	14,928.2	66.1753	14,928.2	60.3157	14,928.2	62.2646	14,928.2	44.6655	14,928.2	56.4969	14,928.2	58.5483
15,455.6	88.4548	15,455.6	89.7978	15,455.6	88.7719	15,455.6	91.2287	15,455.6	89.7777	15,455.6	90.4001	15,455.6	90.3156	15,455.6	88.3938	15,455.6	89.0103	15,455.6	85.5411	15,455.6	87.1782	15,455.6	80.8319	15,455.6	84.07	15,455.6	73.6868	15,455.6	78.0607	15,455.6	66.6358	15,455.6	73.0814	15,455.6	64.1784	15,455.6	68.0431	15,455.6	63.8867	15,455.6	65.9324	15,455.6	63.0868	15,455.6	63.482	15,455.6	58.0068	15,455.6	61.2632	15,455.6	49.2678	15,455.6	60.1071	15,455.6	46.3567	15,455.6	58.1451	15,455.6	55.4275	15,455.6	62.3915	15,455.6	57.9541	15,455.6	61.0251	15,455.6	36.5579	15,455.6	43.3748	15,455.6	57.2521
16,000.5	87.0519	16,000.5	88.1656	16,000.5	87.3313	16,000.5	89.3911	16,000.5	88.0572	16,000.5	88.6526	16,000.5	88.3683	16,000.5	86.4361	16,000.5	87.247	16,000.5	82.9029	16,000.5	84.7012	16,000.5	76.4769	16,000.5	80.8956	16,000.5	67.0124	16,000.5	73.7215	16,000.5	56.3545	16,000.5	67.4974	16,000.5	54.5738	16,000.5	59.0229	16,000.5	54.7448	16,000.5	55.6819	16,000.5	58.4221	16,000.5	54.77	16,000.5	53.1106	16,000.5	54.281	16,000.5	49.1427	16,000.5	55.7006	16,000.5	46.6604	16,000.5	52.7245	16,000.5	54.2318	16,000.5	57.6764	16,000.5	52.9948	16,000.5	56.8897	16,000.5	45.658	16,000.5	49.0104	16,000.5	39.047
16,564.5	86.0923	16,564.5	86.1528	16,564.5	86.3119	16,564.5	85.9576	16,564.5	85.8922	16,564.5	84.628	16,564.5	84.9755	16,564.5	82.0122	16,564.5	83.1555	16,564.5	77.0246	16,564.5	79.8615	16,564.5	70.5895	16,564.5	75.6301	16,564.5	61.7946	16,564.5	70.211	16,564.5	54.7356	16,564.5	65.0112	16,564.5	52.2074	16,564.5	58.5702	16,564.5	49.4749	16,564.5	52.3151	16,564.5	39.6374	16,564.5	47.5399	16,564.5	41.6378	16,564.5	47.1495	16,564.5	38.3632	16,564.5	47.1734	16,564.5	42.2137	16,564.5	50.8351	16,564.5	47.8409	16,564.5	42.4012	16,564.5	46.1029	16,564.5	43.1272	16,564.5	39.9172	16,564.5	45.6833	16,564.5	42.0766
17,148.9	85.6854	17,148.9	85.3495	17,148.9	86.0203	17,148.9	84.9353	17,148.9	85.4307	17,148.9	83.0358	17,148.9	83.8074	17,148.9	79.4724	17,148.9	81.4618	17,148.9	73.6223	17,148.9	77.5412	17,148.9	66.7367	17,148.9	73.1376	17,148.9	62.0015	17,148.9	69.0518	17,148.9	61.0287	17,148.9	65.3585	17,148.9	56.7017	17,148.9	60.9902	17,148.9	54.5876	17,148.9	56.9113	17,148.9	50.8058	17,148.9	53.0366	17,148.9	47.6275	17,148.9	48.794	17,148.9	40.805	17,148.9	49.5141	17,148.9	32.1005	17,148.9	51.198	17,148.9	43.6563	17,148.9	32.3256	17,148.9	48.6909	17,148.9	40.4848	17,148.9	36.615	17,148.9	41.9926	17,148.9	46.509
17,752.4	85.6121	17,752.4	84.562	17,752.4	85.9304	17,752.4	83.3311	17,752.4	84.9824	17,752.4	81.3168	17,752.4	82.5497	17,752.4	77.648	17,752.4	79.8941	17,752.4	71.8629	17,752.4	76.2537	17,752.4	66.1044	17,752.4	73.3342	17,752.4	63.899	17,752.4	70.3463	17,752.4	61.1305	17,752.4	67.0775	17,752.4	59.1082	17,752.4	62.8486	17,752.4	56.6855	17,752.4	58.5662	17,752.4	51.1643	17,752.4	54.8627	17,752.4	48.4225	17,752.4	52.618	17,752.4	46.3774	17,752.4	50.5583	17,752.4	41.4074	17,752.4	51.3569	17,752.4	44.8467	17,752.4	44.0156	17,752.4	41.6694	17,752.4	47.3518	17,752.4	35.6773	17,752.4	44.7367	17,752.4	49.5259
18,379.4	85.9917	18,379.4	84.1505	18,379.4	86.1917	18,379.4	81.9802	18,379.4	84.6939	18,379.4	79.6548	18,379.4	81.7431	18,379.4	76.5363	18,379.4	79.1121	18,379.4	70.5367	18,379.4	76.3609	18,379.4	65.018	18,379.4	74.1934	18,379.4	63.3377	18,379.4	70.8295	18,379.4	61.4877	18,379.4	67.6502	18,379.4	57.7443	18,379.4	62.337	18,379.4	56.3306	18,379.4	58.49	18,379.4	49.4628	18,379.4	55.1863	18,379.4	49.7561	18,379.4	50.5085	18,379.4	47.0587	18,379.4	51.8843	18,379.4	41.8845	18,379.4	49.9123	18,379.4	48.8724	18,379.4	46.621	18,379.4	45.5302	18,379.4	48.0322	18,379.4	44.2208	18,379.4	44.6405	18,379.4	50.5936
19,026.9	86.6537	19,026.9	83.6679	19,026.9	86.9883	19,026.9	80.2344	19,026.9	84.7357	19,026.9	78.7551	19,026.9	81.3332	19,026.9	77.0815	19,026.9	79.8491	19,026.9	70.1144	19,026.9	78.5182	19,026.9	58.6311	19,026.9	77.1657	19,026.9	60.001	19,026.9	73.5586	19,026.9	62.1865	19,026.9	69.5666	19,026.9	57.2132	19,026.9	63.4601	19,026.9	56.8194	19,026.9	60.5802	19,026.9	52.263	19,026.9	57.5449	19,026.9	52.1906	19,026.9	52.5982	19,026.9	47.7805	19,026.9	53.7082	19,026.9	44.5095	19,026.9	51.4425	19,026.9	50.4404	19,026.9	49.7702	19,026.9	46.7995	19,026.9	48.3836	19,026.9	50.6272	19,026.9	45.5075	19,026.9	51.814
19,697.8	86.954	19,697.8	83.2592	19,697.8	86.9242	19,697.8	75.001	19,697.8	83.6111	19,697.8	76.0558	19,697.8	79.415	19,697.8	76.9742	19,697.8	80.8518	19,697.8	71.9506	19,697.8	80.7768	19,697.8	59.6207	19,697.8	80.1023	19,697.8	60.4696	19,697.8	76.452	19,697.8	63.5815	19,697.8	72.344	19,697.8	59.8043	19,697.8	67.066	19,697.8	58.1301	19,697.8	64.2273	19,697.8	52.8078	19,697.8	61.6547	19,697.8	55.9885	19,697.8	57.9216	19,697.8	51.16	19,697.8	56.5926	19,697.8	50.934	19,697.8	56.1018	19,697.8	54.365	19,697.8	53.0403	19,697.8	48.7037	19,697.8	52.6514	19,697.8	53.593	19,697.8	49.2189	19,697.8	49.604
19,999.5	86.3443	19,999.5	82.8548	19,999.5	86.1227	19,999.5	72.0481	19,999.5	81.8987	19,999.5	73.6341	19,999.5	78.1181	19,999.5	76.662	19,999.5	80.632	19,999.5	73.6096	19,999.5	80.8016	19,999.5	61.1522	19,999.5	80.6705	19,999.5	63.8463	19,999.5	76.7376	19,999.5	63.8319	19,999.5	71.2064	19,999.5	60.6293	19,999.5	66.1521	19,999.5	56.0638	19,999.5	66.1869	19,999.5	55.8584	19,999.5	61.2501	19,999.5	42.0986	19,999.5	54.7995	19,999.5	52.1453	19,999.5	58.5724	19,999.5	49.1213	19,999.5	55.4528	19,999.5	56.8368	19,999.5	53.7318	19,999.5	50.5426	19,999.5	48.8612	19,999.5	51.1755	19,999.5	41.1993	19,999.5	50.7073
