"SPL Vertical"
"On-Axis"		"10°"		"-10°"		"20°"		"-20°"		"30°"		"-30°"		"40°"		"-40°"		"50°"		"-50°"		"60°"		"-60°"		"70°"		"-70°"		"80°"		"-80°"		"90°"		"-90°"		"100°"		"-100°"		"110°"		"-110°"		"120°"		"-120°"		"130°"		"-130°"		"140°"		"-140°"		"150°"		"-150°"		"160°"		"-160°"		"170°"		"-170°"		"180°"
"Frequency [Hz]"	"Sound Pessure Level [dB]   [2.83  V @ 1. m]"	"Frequency [Hz]"	"Sound Pessure Level [dB]   [2.83  V @ 1. m]"	"Frequency [Hz]"	"Sound Pessure Level [dB]   [2.83  V @ 1. m]"	"Frequency [Hz]"	"Sound Pessure Level [dB]   [2.83  V @ 1. m]"	"Frequency [Hz]"	"Sound Pessure Level [dB]   [2.83  V @ 1. m]"	"Frequency [Hz]"	"Sound Pessure Level [dB]   [2.83  V @ 1. m]"	"Frequency [Hz]"	"Sound Pessure Level [dB]   [2.83  V @ 1. m]"	"Frequency [Hz]"	"Sound Pessure Level [dB]   [2.83  V @ 1. m]"	"Frequency [Hz]"	"Sound Pessure Level [dB]   [2.83  V @ 1. m]"	"Frequency [Hz]"	"Sound Pessure Level [dB]   [2.83  V @ 1. m]"	"Frequency [Hz]"	"Sound Pessure Level [dB]   [2.83  V @ 1. m]"	"Frequency [Hz]"	"Sound Pessure Level [dB]   [2.83  V @ 1. m]"	"Frequency [Hz]"	"Sound Pessure Level [dB]   [2.83  V @ 1. m]"	"Frequency [Hz]"	"Sound Pessure Level [dB]   [2.83  V @ 1. m]"	"Frequency [Hz]"	"Sound Pessure Level [dB]   [2.83  V @ 1. m]"	"Frequency [Hz]"	"Sound Pessure Level [dB]   [2.83  V @ 1. m]"	"Frequency [Hz]"	"Sound Pessure Level [dB]   [2.83  V @ 1. m]"	"Frequency [Hz]"	"Sound Pessure Level [dB]   [2.83  V @ 1. m]"	"Frequency [Hz]"	"Sound Pessure Level [dB]   [2.83  V @ 1. m]"	"Frequency [Hz]"	"Sound Pessure Level [dB]   [2.83  V @ 1. m]"	"Frequency [Hz]"	"Sound Pessure Level [dB]   [2.83  V @ 1. m]"	"Frequency [Hz]"	"Sound Pessure Level [dB]   [2.83  V @ 1. m]"	"Frequency [Hz]"	"Sound Pessure Level [dB]   [2.83  V @ 1. m]"	"Frequency [Hz]"	"Sound Pessure Level [dB]   [2.83  V @ 1. m]"	"Frequency [Hz]"	"Sound Pessure Level [dB]   [2.83  V @ 1. m]"	"Frequency [Hz]"	"Sound Pessure Level [dB]   [2.83  V @ 1. m]"	"Frequency [Hz]"	"Sound Pessure Level [dB]   [2.83  V @ 1. m]"	"Frequency [Hz]"	"Sound Pessure Level [dB]   [2.83  V @ 1. m]"	"Frequency [Hz]"	"Sound Pessure Level [dB]   [2.83  V @ 1. m]"	"Frequency [Hz]"	"Sound Pessure Level [dB]   [2.83  V @ 1. m]"	"Frequency [Hz]"	"Sound Pessure Level [dB]   [2.83  V @ 1. m]"	"Frequency [Hz]"	"Sound Pessure Level [dB]   [2.83  V @ 1. m]"	"Frequency [Hz]"	"Sound Pessure Level [dB]   [2.83  V @ 1. m]"	"Frequency [Hz]"	"Sound Pessure Level [dB]   [2.83  V @ 1. m]"	"Frequency [Hz]"	"Sound Pessure Level [dB]   [2.83  V @ 1. m]"	"Frequency [Hz]"	"Sound Pessure Level [dB]   [2.83  V @ 1. m]"
20.5078	70.325	20.5078	70.1733	20.5078	70.4664	20.5078	70.0153	20.5078	70.5931	20.5078	69.855	20.5078	70.7005	20.5078	69.6959	20.5078	70.7842	20.5078	69.5413	20.5078	70.8394	20.5078	69.3948	20.5078	70.8617	20.5078	69.2599	20.5078	70.8471	20.5078	69.1405	20.5078	70.7934	20.5078	69.0403	20.5078	70.7014	20.5078	68.9634	20.5078	70.5763	20.5078	68.9133	20.5078	70.4271	20.5078	68.8931	20.5078	70.2653	20.5078	68.9048	20.5078	70.1016	20.5078	68.9486	20.5078	69.943	20.5078	69.0224	20.5078	69.7922	20.5078	69.1218	20.5078	69.6476	20.5078	69.2401	20.5078	69.5072	20.5078	69.3705
21.9727	71.9517	21.9727	71.7588	21.9727	72.1324	21.9727	71.5594	21.9727	72.294	21.9727	71.3589	21.9727	72.4293	21.9727	71.1619	21.9727	72.5303	21.9727	70.9725	21.9727	72.5891	21.9727	70.7946	21.9727	72.5991	21.9727	70.6319	21.9727	72.5558	21.9727	70.4879	21.9727	72.4583	21.9727	70.3658	21.9727	72.3103	21.9727	70.2687	21.9727	72.1203	21.9727	70.1989	21.9727	71.9008	21.9727	70.1584	21.9727	71.6665	21.9727	70.148	21.9727	71.4315	21.9727	70.1677	21.9727	71.2072	21.9727	70.2161	21.9727	71.001	21.9727	70.2911	21.9727	70.8162	21.9727	70.3901	21.9727	70.6531	21.9727	70.5111
23.4375	72.7662	23.4375	72.5536	23.4375	72.9655	23.4375	72.3345	23.4375	73.1443	23.4375	72.1146	23.4375	73.2943	23.4375	71.8986	23.4375	73.407	23.4375	71.6909	23.4375	73.4742	23.4375	71.4951	23.4375	73.4885	23.4375	71.3147	23.4375	73.4455	23.4375	71.1528	23.4375	73.3442	23.4375	71.0125	23.4375	73.1886	23.4375	70.8968	23.4375	72.9872	23.4375	70.8086	23.4375	72.7523	23.4375	70.7506	23.4375	72.4977	23.4375	70.7252	23.4375	72.2363	23.4375	70.7344	23.4375	71.979	23.4375	70.7792	23.4375	71.734	23.4375	70.86	23.4375	71.5071	23.4375	70.9758	23.4375	71.3026	23.4375	71.1243
24.9023	73.7756	24.9023	73.569	24.9023	73.9668	24.9023	73.3533	24.9023	74.1361	24.9023	73.1338	24.9023	74.2766	24.9023	72.9157	24.9023	74.3808	24.9023	72.7036	24.9023	74.4416	24.9023	72.5014	24.9023	74.4524	24.9023	72.3128	24.9023	74.4089	24.9023	72.1414	24.9023	74.31	24.9023	71.9904	24.9023	74.159	24.9023	71.863	24.9023	73.9639	24.9023	71.7625	24.9023	73.7361	24.9023	71.6924	24.9023	73.488	24.9023	71.6563	24.9023	73.2307	24.9023	71.6576	24.9023	72.9731	24.9023	71.6991	24.9023	72.7219	24.9023	71.7822	24.9023	72.483	24.9023	71.9063	24.9023	72.2628	24.9023	72.0683
26.3672	74.7768	26.3672	74.5879	26.3672	74.9518	26.3672	74.3911	26.3672	75.1064	26.3672	74.1915	26.3672	75.2336	26.3672	73.994	26.3672	75.3263	26.3672	73.8026	26.3672	75.3772	26.3672	73.6212	26.3672	75.3803	26.3672	73.453	26.3672	75.3314	26.3672	73.3011	26.3672	75.2301	26.3672	73.1682	26.3672	75.0801	26.3672	73.0569	26.3672	74.8899	26.3672	72.9698	26.3672	74.6714	26.3672	72.9092	26.3672	74.4375	26.3672	72.8775	26.3672	74.2001	26.3672	72.8768	26.3672	73.9682	26.3672	72.9087	26.3672	73.7481	26.3672	72.9742	26.3672	73.5446	26.3672	73.0729	26.3672	73.3615	26.3672	73.203
27.832	75.8419	27.832	75.667	27.832	76.0008	27.832	75.4808	27.832	76.1382	27.832	75.2876	27.832	76.2477	27.832	75.0912	27.832	76.3227	27.832	74.895	27.832	76.3564	27.832	74.7025	27.832	76.3427	27.832	74.5173	27.832	76.2775	27.832	74.3428	27.832	76.1601	27.832	74.1829	27.832	75.9942	27.832	74.0412	27.832	75.788	27.832	73.9215	27.832	75.5532	27.832	73.8279	27.832	75.3028	27.832	73.7643	27.832	75.0486	27.832	73.7344	27.832	74.8003	27.832	73.7416	27.832	74.5653	27.832	73.788	27.832	74.3497	27.832	73.8742	27.832	74.1591	27.832	73.999
29.2969	76.3789	29.2969	76.1821	29.2969	76.5623	29.2969	75.9783	29.2969	76.7252	29.2969	75.773	29.2969	76.86	29.2969	75.5709	29.2969	76.9585	29.2969	75.3762	29.2969	77.0129	29.2969	75.1922	29.2969	77.0162	29.2969	75.022	29.2969	76.9637	29.2969	74.8685	29.2969	76.8543	29.2969	74.7341	29.2969	76.6916	29.2969	74.621	29.2969	76.4847	29.2969	74.5317	29.2969	76.2468	29.2969	74.4681	29.2969	75.9928	29.2969	74.4326	29.2969	75.7371	29.2969	74.4268	29.2969	75.4909	29.2969	74.4525	29.2969	75.2622	29.2969	74.5105	29.2969	75.056	29.2969	74.6009	29.2969	74.8755	29.2969	74.7231
30.7617	77.0773	30.7617	76.8819	30.7617	77.2585	30.7617	76.6785	30.7617	77.4182	30.7617	76.4728	30.7617	77.549	30.7617	76.2699	30.7617	77.643	30.7617	76.0742	30.7617	77.693	30.7617	75.8896	30.7617	77.6931	30.7617	75.7195	30.7617	77.6398	30.7617	75.5668	30.7617	77.5336	30.7617	75.4342	30.7617	77.379	30.7617	75.3239	30.7617	77.1845	30.7617	75.238	30.7617	76.9612	30.7617	75.1783	30.7617	76.721	30.7617	75.1465	30.7617	76.4753	30.7617	75.1441	30.7617	76.2338	30.7617	75.1725	30.7617	76.0046	30.7617	75.2329	30.7617	75.7944	30.7617	75.326	30.7617	75.6087	30.7617	75.4517
32.2266	77.7512	32.2266	77.562	32.2266	77.926	32.2266	77.3647	32.2266	78.0798	32.2266	77.1649	32.2266	78.2053	32.2266	76.9678	32.2266	78.2953	32.2266	76.7778	32.2266	78.343	32.2266	76.599	32.2266	78.3428	32.2266	76.4348	32.2266	78.2912	32.2266	76.2883	32.2266	78.1882	32.2266	76.162	32.2266	78.038	32.2266	76.0581	32.2266	77.8488	32.2266	75.9783	32.2266	77.632	32.2266	75.9241	32.2266	77.4001	32.2266	75.8969	32.2266	77.1645	32.2266	75.8979	32.2266	76.9347	32.2266	75.9278	32.2266	76.7181	32.2266	75.9876	32.2266	76.5203	32.2266	76.0776	32.2266	76.3457	32.2266	76.1973
33.6914	78.3679	33.6914	78.1724	33.6914	78.549	33.6914	77.9691	33.6914	78.7086	33.6914	77.764	33.6914	78.8393	33.6914	77.5624	33.6914	78.9336	33.6914	77.3694	33.6914	78.9847	33.6914	77.1893	33.6914	78.9871	33.6914	77.026	33.6914	78.9378	33.6914	76.8828	33.6914	78.8375	33.6914	76.7624	33.6914	78.6912	33.6914	76.667	33.6914	78.5078	33.6914	76.5982	33.6914	78.2986	33.6914	76.5571	33.6914	78.0755	33.6914	76.5442	33.6914	77.8491	33.6914	76.5598	33.6914	77.6279	33.6914	76.6037	33.6914	77.4181	33.6914	76.6755	33.6914	77.2245	33.6914	76.7747	33.6914	77.051	33.6914	76.9003
35.1562	78.9681	35.1562	78.7684	35.1562	79.1519	35.1562	78.5593	35.1562	79.3127	35.1562	78.3471	35.1562	79.4429	35.1562	78.1373	35.1562	79.5353	35.1562	77.9353	35.1562	79.5827	35.1562	77.7457	35.1562	79.5794	35.1562	77.5725	35.1562	79.5221	35.1562	77.4195	35.1562	79.4111	35.1562	77.2895	35.1562	79.2513	35.1562	77.185	35.1562	79.052	35.1562	77.1075	35.1562	78.8255	35.1562	77.0584	35.1562	78.5852	35.1562	77.0381	35.1562	78.3432	35.1562	77.0468	35.1562	78.1092	35.1562	77.0844	35.1562	77.8904	35.1562	77.1506	35.1562	77.6918	35.1562	77.2451	35.1562	77.5167	35.1562	77.3674
36.6211	79.6736	36.6211	79.4728	36.6211	79.8572	36.6211	79.2613	36.6211	80.0162	36.6211	79.0455	36.6211	80.1432	36.6211	78.8309	36.6211	80.2305	36.6211	78.623	36.6211	80.2709	36.6211	78.4263	36.6211	80.2587	36.6211	78.2453	36.6211	80.1907	36.6211	78.0836	36.6211	80.0677	36.6211	77.9443	36.6211	79.895	36.6211	77.83	36.6211	79.6825	36.6211	77.7426	36.6211	79.4428	36.6211	77.6832	36.6211	79.1899	36.6211	77.6526	36.6211	78.9363	36.6211	77.6512	36.6211	78.6925	36.6211	77.6791	36.6211	78.4663	36.6211	77.7365	36.6211	78.2635	36.6211	77.8236	36.6211	78.0876	36.6211	77.9407
38.0859	80.1312	38.0859	79.9321	38.0859	80.3121	38.0859	79.7216	38.0859	80.4678	38.0859	79.5057	38.0859	80.5907	38.0859	79.2902	38.0859	80.6733	38.0859	79.0802	38.0859	80.7085	38.0859	78.8805	38.0859	80.6904	38.0859	78.6956	38.0859	80.616	38.0859	78.5293	38.0859	80.486	38.0859	78.3847	38.0859	80.3058	38.0859	78.2645	38.0859	80.0854	38.0859	78.1706	38.0859	79.8381	38.0859	78.1044	38.0859	79.5782	38.0859	78.0667	38.0859	79.3189	38.0859	78.0581	38.0859	79.0711	38.0859	78.0788	38.0859	78.8429	38.0859	78.1294	38.0859	78.6399	38.0859	78.2104	38.0859	78.4658	38.0859	78.3225
39.5508	80.8216	39.5508	80.6133	39.5508	81.0122	39.5508	80.3946	39.5508	81.1774	39.5508	80.172	39.5508	81.3091	39.5508	79.9516	39.5508	81.3992	39.5508	79.7389	39.5508	81.4398	39.5508	79.5388	39.5508	81.4248	39.5508	79.3556	39.5508	81.3508	39.5508	79.1927	39.5508	81.2185	39.5508	79.0533	39.5508	81.0336	39.5508	78.9395	39.5508	80.8064	39.5508	78.8527	39.5508	80.5507	39.5508	78.7939	39.5508	80.2815	39.5508	78.763	39.5508	80.0135	39.5508	78.7598	39.5508	79.7593	39.5508	78.7839	39.5508	79.5285	39.5508	78.835	39.5508	79.3271	39.5508	78.9134	39.5508	79.1577	39.5508	79.0204
41.0156	81.4124	41.0156	81.1988	41.0156	81.6064	41.0156	80.9726	41.0156	81.773	41.0156	80.7409	41.0156	81.9043	41.0156	80.5097	41.0156	81.9922	41.0156	80.2849	41.0156	82.0295	41.0156	80.0716	41.0156	82.0106	41.0156	79.8748	41.0156	81.9325	41.0156	79.6984	41.0156	81.7964	41.0156	79.5462	41.0156	81.6083	41.0156	79.421	41.0156	81.3786	41.0156	79.3251	41.0156	81.1207	41.0156	79.2598	41.0156	80.8492	41.0156	79.2259	41.0156	80.5775	41.0156	79.2236	41.0156	80.3172	41.0156	79.2525	41.0156	80.0768	41.0156	79.3123	41.0156	79.8625	41.0156	79.403	41.0156	79.6779	41.0156	79.5247
42.4805	81.745	42.4805	81.5387	42.4805	81.9323	42.4805	81.3201	42.4805	82.0939	42.4805	81.0949	42.4805	82.222	42.4805	80.8687	42.4805	82.3088	42.4805	80.6467	42.4805	82.347	42.4805	80.4338	42.4805	82.3302	42.4805	80.2345	42.4805	82.2552	42.4805	80.053	42.4805	82.1221	42.4805	79.893	42.4805	81.9356	42.4805	79.7576	42.4805	81.7048	42.4805	79.6495	42.4805	81.4419	42.4805	79.5707	42.4805	81.161	42.4805	79.5228	42.4805	80.8765	42.4805	79.5069	42.4805	80.6017	42.4805	79.5238	42.4805	80.3478	42.4805	79.5739	42.4805	80.123	42.4805	79.6581	42.4805	79.9322	42.4805	79.7773
43.9453	81.9181	43.9453	81.7086	43.9453	82.1096	43.9453	81.4879	43.9453	82.2758	43.9453	81.262	43.9453	82.4084	43.9453	81.0362	43.9453	82.4992	43.9453	80.8155	43.9453	82.5405	43.9453	80.6044	43.9453	82.5263	43.9453	80.4072	43.9453	82.4533	43.9453	80.2275	43.9453	82.3224	43.9453	80.0691	43.9453	82.1393	43.9453	79.9351	43.9453	81.9134	43.9453	79.828	43.9453	81.6573	43.9453	79.7502	43.9453	81.3843	43.9453	79.7038	43.9453	81.1073	43.9453	79.6903	43.9453	80.8374	43.9453	79.7113	43.9453	80.5843	43.9453	79.768	43.9453	80.3554	43.9453	79.8611	43.9453	80.1563	43.9453	79.9908
45.4102	81.9708	45.4102	81.7606	45.4102	82.1634	45.4102	81.5401	45.4102	82.3308	45.4102	81.316	45.4102	82.4648	45.4102	81.0945	45.4102	82.5577	45.4102	80.8813	45.4102	82.6024	45.4102	80.6815	45.4102	82.5934	45.4102	80.4995	45.4102	82.5282	45.4102	80.3393	45.4102	82.408	45.4102	80.2038	45.4102	82.2383	45.4102	80.0952	45.4102	82.0287	45.4102	80.0149	45.4102	81.7912	45.4102	79.9636	45.4102	81.5387	45.4102	79.9416	45.4102	81.2834	45.4102	79.9485	45.4102	81.0359	45.4102	79.984	45.4102	80.8047	45.4102	80.0482	45.4102	80.5965	45.4102	80.1411	45.4102	80.4153	45.4102	80.2634
46.875	82.3087	46.875	82.0963	46.875	82.5037	46.875	81.8744	46.875	82.6733	46.875	81.6502	46.875	82.8092	46.875	81.4304	46.875	82.9037	46.875	81.2214	46.875	82.9498	46.875	81.0286	46.875	82.9424	46.875	80.8567	46.875	82.8795	46.875	80.7095	46.875	82.7627	46.875	80.5897	46.875	82.5982	46.875	80.499	46.875	82.3959	46.875	80.4381	46.875	82.1682	46.875	80.4068	46.875	81.9284	46.875	80.4038	46.875	81.6887	46.875	80.4275	46.875	81.4597	46.875	80.476	46.875	81.2488	46.875	80.5477	46.875	81.0606	46.875	80.6417	46.875	80.8971	46.875	80.7578
48.3398	82.6648	48.3398	82.4463	48.3398	82.8647	48.3398	82.2172	48.3398	83.0377	48.3398	81.985	48.3398	83.1757	48.3398	81.7569	48.3398	83.2707	48.3398	81.5395	48.3398	83.3159	48.3398	81.3389	48.3398	83.3065	48.3398	81.1603	48.3398	83.2407	48.3398	81.0082	48.3398	83.1209	48.3398	80.8857	48.3398	82.9539	48.3398	80.7952	48.3398	82.7503	48.3398	80.7377	48.3398	82.5232	48.3398	80.7127	48.3398	82.286	48.3398	80.7191	48.3398	82.051	48.3398	80.7545	48.3398	81.8276	48.3398	80.816	48.3398	81.6221	48.3398	80.9006	48.3398	81.4373	48.3398	81.0058	48.3398	81.2738	48.3398	81.1302
51.2695	83.3228	51.2695	83.1199	51.2695	83.5004	51.2695	82.8984	51.2695	83.6457	51.2695	82.6655	51.2695	83.7521	51.2695	82.4279	51.2695	83.8134	51.2695	82.1927	51.2695	83.8243	51.2695	81.9665	51.2695	83.7816	51.2695	81.7556	51.2695	83.6845	51.2695	81.5659	51.2695	83.536	51.2695	81.4024	51.2695	83.3429	51.2695	81.2691	51.2695	83.1159	51.2695	81.169	51.2695	82.8677	51.2695	81.1036	51.2695	82.6114	51.2695	81.073	51.2695	82.3589	51.2695	81.0764	51.2695	82.1194	51.2695	81.1117	51.2695	81.8997	51.2695	81.1767	51.2695	81.7037	51.2695	81.2694	51.2695	81.5331	51.2695	81.3884
52.7344	83.6052	52.7344	83.406	52.7344	83.7771	52.7344	83.1863	52.7344	83.9154	52.7344	82.9523	52.7344	84.0133	52.7344	82.7103	52.7344	84.0648	52.7344	82.4666	52.7344	84.0645	52.7344	82.2273	52.7344	84.0089	52.7344	81.9983	52.7344	83.8964	52.7344	81.7853	52.7344	83.7294	52.7344	81.5933	52.7344	83.5137	52.7344	81.4269	52.7344	83.2595	52.7344	81.2899	52.7344	82.9795	52.7344	81.1851	52.7344	82.688	52.7344	81.1146	52.7344	82.3985	52.7344	81.0799	52.7344	82.1228	52.7344	81.0816	52.7344	81.8705	52.7344	81.1203	52.7344	81.6484	52.7344	81.1963	52.7344	81.4607	52.7344	81.3098
54.1992	83.8074	54.1992	83.606	54.1992	83.9848	54.1992	83.3875	54.1992	84.1311	54.1992	83.1582	54.1992	84.2392	54.1992	82.9243	54.1992	84.3025	54.1992	82.6918	54.1992	84.3149	54.1992	82.4659	54.1992	84.2723	54.1992	82.2517	54.1992	84.1729	54.1992	82.0537	54.1992	84.0186	54.1992	81.8758	54.1992	83.8154	54.1992	81.7215	54.1992	83.5734	54.1992	81.5938	54.1992	83.3052	54.1992	81.4955	54.1992	83.0246	54.1992	81.4289	54.1992	82.7441	54.1992	81.3964	54.1992	82.4742	54.1992	81.4	54.1992	82.2231	54.1992	81.4419	54.1992	81.9977	54.1992	81.5232	54.1992	81.8032	54.1992	81.6441
55.6641	83.7696	55.6641	83.5669	55.6641	83.9525	55.6641	83.352	55.6641	84.1083	55.6641	83.1315	55.6641	84.2295	55.6641	82.9122	55.6641	84.3091	55.6641	82.7	55.6641	84.3409	55.6641	82.5003	55.6641	84.3209	55.6641	82.3178	55.6641	84.2476	55.6641	82.1565	55.6641	84.1235	55.6641	82.0197	55.6641	83.9551	55.6641	81.9099	55.6641	83.7524	55.6641	81.829	55.6641	83.5274	55.6641	81.778	55.6641	83.292	55.6641	81.7577	55.6641	83.0571	55.6641	81.768	55.6641	82.8309	55.6641	81.8087	55.6641	82.6192	55.6641	81.8789	55.6641	82.4256	55.6641	81.9775	55.6641	82.2528	55.6641	82.1027
58.5938	84.055	58.5938	83.8469	58.5938	84.2422	58.5938	83.6256	58.5938	84.4005	58.5938	83.3986	58.5938	84.522	58.5938	83.1728	58.5938	84.5991	58.5938	82.9549	58.5938	84.6253	58.5938	82.7509	58.5938	84.5966	58.5938	82.5662	58.5938	84.5121	58.5938	82.4053	58.5938	84.3754	58.5938	82.2718	58.5938	84.1947	58.5938	82.1682	58.5938	83.9813	58.5938	82.0958	58.5938	83.7485	58.5938	82.0551	58.5938	83.5095	58.5938	82.0454	58.5938	83.2756	58.5938	82.0652	58.5938	83.056	58.5938	82.1122	58.5938	82.8565	58.5938	82.1836	58.5938	82.6794	58.5938	82.2771	58.5938	82.5246	58.5938	82.3909
60.0586	84.1611	60.0586	83.9517	60.0586	84.349	60.0586	83.7289	60.0586	84.5075	60.0586	83.5004	60.0586	84.6287	60.0586	83.2737	60.0586	84.7055	60.0586	83.0558	60.0586	84.7322	60.0586	82.8528	60.0586	84.7053	60.0586	82.6703	60.0586	84.6244	60.0586	82.5124	60.0586	84.4929	60.0586	82.3824	60.0586	84.3183	60.0586	82.2825	60.0586	84.1111	60.0586	82.2135	60.0586	83.8834	60.0586	82.1755	60.0586	83.6474	60.0586	82.1675	60.0586	83.4145	60.0586	82.1882	60.0586	83.1938	60.0586	82.2355	60.0586	82.9918	60.0586	82.3074	60.0586	82.8115	60.0586	82.4017	60.0586	82.6536	60.0586	82.5172
62.9883	84.3516	62.9883	84.1438	62.9883	84.5353	62.9883	83.9197	62.9883	84.6871	62.9883	83.6872	62.9883	84.7998	62.9883	83.4542	62.9883	84.867	62.9883	83.228	62.9883	84.8839	62.9883	83.0156	62.9883	84.8482	62.9883	82.8234	62.9883	84.7606	62.9883	82.6565	62.9883	84.6258	62.9883	82.5191	62.9883	84.452	62.9883	82.4142	62.9883	84.2501	62.9883	82.3431	62.9883	84.0318	62.9883	82.3062	62.9883	83.808	62.9883	82.3026	62.9883	83.5882	62.9883	82.3306	62.9883	83.3789	62.9883	82.3875	62.9883	83.1843	62.9883	82.4703	62.9883	83.0063	62.9883	82.576	62.9883	82.8454	62.9883	82.7017
64.4531	84.3586	64.4531	84.1443	64.4531	84.5495	64.4531	83.9149	64.4531	84.7088	64.4531	83.6788	64.4531	84.8291	64.4531	83.4443	64.4531	84.9036	64.4531	83.219	64.4531	84.9274	64.4531	83.0104	64.4531	84.8981	64.4531	82.8246	64.4531	84.8165	64.4531	82.6667	64.4531	84.6872	64.4531	82.5404	64.4531	84.5185	64.4531	82.4479	64.4531	84.321	64.4531	82.3897	64.4531	84.1062	64.4531	82.3654	64.4531	83.8851	64.4531	82.373	64.4531	83.667	64.4531	82.41	64.4531	83.4593	64.4531	82.4734	64.4531	83.2667	64.4531	82.5601	64.4531	83.0912	64.4531	82.6669	64.4531	82.9331	64.4531	82.7916
67.3828	84.3483	67.3828	84.1289	67.3828	84.5431	67.3828	83.8935	67.3828	84.7049	67.3828	83.6512	67.3828	84.8261	67.3828	83.4108	67.3828	84.9006	67.3828	83.1809	67.3828	84.9238	67.3828	82.9696	67.3828	84.8944	67.3828	82.7837	67.3828	84.8144	67.3828	82.6289	67.3828	84.6898	67.3828	82.5091	67.3828	84.5298	67.3828	82.4264	67.3828	84.3451	67.3828	82.3811	67.3828	84.1467	67.3828	82.3721	67.3828	83.9438	67.3828	82.3966	67.3828	83.7436	67.3828	82.4514	67.3828	83.5509	67.3828	82.5323	67.3828	83.3686	67.3828	82.6351	67.3828	83.1979	67.3828	82.7558	67.3828	83.0387	67.3828	82.891
68.8477	84.3512	68.8477	84.1291	68.8477	84.5471	68.8477	83.8894	68.8477	84.7082	68.8477	83.6414	68.8477	84.8271	68.8477	83.3943	68.8477	84.8977	68.8477	83.1569	68.8477	84.9158	68.8477	82.9378	68.8477	84.8804	68.8477	82.7442	68.8477	84.7943	68.8477	82.5824	68.8477	84.6639	68.8477	82.4565	68.8477	84.499	68.8477	82.3692	68.8477	84.3108	68.8477	82.321	68.8477	84.1099	68.8477	82.3107	68.8477	83.9054	68.8477	82.3356	68.8477	83.704	68.8477	82.3921	68.8477	83.5102	68.8477	82.4756	68.8477	83.3268	68.8477	82.5816	68.8477	83.1547	68.8477	82.7055	68.8477	82.9936	68.8477	82.8436
71.7773	84.5254	71.7773	84.2993	71.7773	84.7233	71.7773	84.0541	71.7773	84.8844	71.7773	83.7993	71.7773	85.0016	71.7773	83.5446	71.7773	85.0691	71.7773	83.2997	71.7773	85.0835	71.7773	83.0738	71.7773	85.0445	71.7773	82.875	71.7773	84.9559	71.7773	82.71	71.7773	84.8252	71.7773	82.5838	71.7773	84.6632	71.7773	82.4991	71.7773	84.4817	71.7773	82.4565	71.7773	84.2912	71.7773	82.4545	71.7773	84.0993	71.7773	82.4898	71.7773	83.9106	71.7773	82.5581	71.7773	83.7271	71.7773	82.654	71.7773	83.5496	71.7773	82.7722	71.7773	83.3783	71.7773	82.9076	71.7773	83.2133	71.7773	83.0558
74.707	84.6613	74.707	84.4383	74.707	84.8542	74.707	84.1945	74.707	85.0083	74.707	83.9398	74.707	85.1161	74.707	83.6843	74.707	85.1722	74.707	83.4377	74.707	85.1731	74.707	83.2094	74.707	85.1193	74.707	83.0078	74.707	85.0148	74.707	82.8396	74.707	84.868	74.707	82.7099	74.707	84.6906	74.707	82.6216	74.707	84.4955	74.707	82.5752	74.707	84.2949	74.707	82.5693	74.707	84.0979	74.707	82.6006	74.707	83.9105	74.707	82.6644	74.707	83.7351	74.707	82.755	74.707	83.5714	74.707	82.8662	74.707	83.4171	74.707	82.9921	74.707	83.2696	74.707	83.1276
77.6367	84.7521	77.6367	84.531	77.6367	84.9397	77.6367	84.2853	77.6367	85.0855	77.6367	84.0251	77.6367	85.1828	77.6367	83.7606	77.6367	85.2264	77.6367	83.5025	77.6367	85.2138	77.6367	83.2611	77.6367	85.1455	77.6367	83.0456	77.6367	85.026	77.6367	82.8641	77.6367	84.864	77.6367	82.7223	77.6367	84.6711	77.6367	82.6237	77.6367	84.4607	77.6367	82.5689	77.6367	84.2451	77.6367	82.556	77.6367	84.0343	77.6367	82.5809	77.6367	83.8353	77.6367	82.6381	77.6367	83.652	77.6367	82.7209	77.6367	83.4854	77.6367	82.8228	77.6367	83.3338	77.6367	82.9379	77.6367	83.1937	77.6367	83.0621
79.1016	84.7287	79.1016	84.5018	79.1016	84.9213	79.1016	84.2495	79.1016	85.0715	79.1016	83.9818	79.1016	85.1725	79.1016	83.7088	79.1016	85.219	79.1016	83.4414	79.1016	85.2082	79.1016	83.1899	79.1016	85.1404	79.1016	82.9643	79.1016	85.0195	79.1016	82.773	79.1016	84.8539	79.1016	82.6225	79.1016	84.6551	79.1016	82.5165	79.1016	84.4359	79.1016	82.4561	79.1016	84.2091	79.1016	82.4395	79.1016	83.9851	79.1016	82.4623	79.1016	83.7719	79.1016	82.5187	79.1016	83.5745	79.1016	82.6016	79.1016	83.3952	79.1016	82.7043	79.1016	83.233	79.1016	82.8211	79.1016	83.0852	79.1016	82.9484
82.0312	84.7198	82.0312	84.4969	82.0312	84.9081	82.0312	84.2482	82.0312	85.0539	82.0312	83.9835	82.0312	85.1509	82.0312	83.7127	82.0312	85.1945	82.0312	83.4463	82.0312	85.1829	82.0312	83.1943	82.0312	85.1175	82.0312	82.9661	82.0312	85.0034	82.0312	82.7701	82.0312	84.849	82.0312	82.6126	82.0312	84.6645	82.0312	82.498	82.0312	84.4605	82.0312	82.4281	82.0312	84.2457	82.0312	82.4023	82.0312	84.0273	82.0312	82.4175	82.0312	83.8115	82.0312	82.4688	82.0312	83.6039	82.0312	82.5501	82.0312	83.4092	82.0312	82.6549	82.0312	83.2297	82.0312	82.7778	82.0312	83.0655	82.0312	82.9151
84.9609	84.6851	84.9609	84.4794	84.9609	84.854	84.9609	84.2458	84.9609	84.9786	84.9609	83.9944	84.9609	85.0531	84.9609	83.7359	84.9609	85.0746	84.9609	83.4812	84.9609	85.0432	84.9609	83.2408	84.9609	84.9628	84.9609	83.0241	84.9609	84.8412	84.9609	82.8388	84.9609	84.6893	84.9609	82.6907	84.9609	84.5189	84.9609	82.5829	84.9609	84.3399	84.9609	82.5165	84.9609	84.1587	84.9609	82.4902	84.9609	83.9775	84.9609	82.5011	84.9609	83.7968	84.9609	82.5451	84.9609	83.6172	84.9609	82.6175	84.9609	83.4408	84.9609	82.7138	84.9609	83.271	84.9609	82.8301	84.9609	83.1109	84.9609	82.9632
87.8906	84.4491	87.8906	84.2209	87.8906	84.6406	87.8906	83.9669	87.8906	84.7862	87.8906	83.6991	87.8906	84.8787	87.8906	83.4303	87.8906	84.9141	87.8906	83.1733	87.8906	84.8921	87.8906	82.9403	87.8906	84.8175	87.8906	82.7419	87.8906	84.7005	87.8906	82.5865	87.8906	84.5561	87.8906	82.4789	87.8906	84.4016	87.8906	82.4209	87.8906	84.2518	87.8906	82.4106	87.8906	84.1156	87.8906	82.4437	87.8906	83.9934	87.8906	82.5141	87.8906	83.8789	87.8906	82.6153	87.8906	83.7633	87.8906	82.7404	87.8906	83.6389	87.8906	82.883	87.8906	83.5018	87.8906	83.0368	87.8906	83.3527	87.8906	83.1956
90.8203	84.9043	90.8203	84.6502	90.8203	85.112	90.8203	84.3619	90.8203	85.2624	90.8203	84.0527	90.8203	85.347	90.8203	83.7365	90.8203	85.3601	90.8203	83.4267	90.8203	85.3	90.8203	83.1365	90.8203	85.1697	90.8203	82.8773	90.8203	84.978	90.8203	82.6588	90.8203	84.739	90.8203	82.4877	90.8203	84.4715	90.8203	82.3674	90.8203	84.1958	90.8203	82.2981	90.8203	83.9309	90.8203	82.2766	90.8203	83.6907	90.8203	82.2975	90.8203	83.4825	90.8203	82.3538	90.8203	83.3066	90.8203	82.4375	90.8203	83.1567	90.8203	82.5406	90.8203	83.0236	90.8203	82.6554	90.8203	82.8984	90.8203	82.7758
95.2148	84.2564	95.2148	84.0222	95.2148	84.4506	95.2148	83.7574	95.2148	84.5969	95.2148	83.473	95.2148	84.6894	95.2148	83.1816	95.2148	84.7241	95.2148	82.8968	95.2148	84.7005	95.2148	82.6325	95.2148	84.6219	95.2148	82.4024	95.2148	84.497	95.2148	82.2181	95.2148	84.339	95.2148	82.0882	95.2148	84.1632	95.2148	82.0168	95.2148	83.984	95.2148	82.0032	95.2148	83.8109	95.2148	82.0419	95.2148	83.6482	95.2148	82.1237	95.2148	83.4958	95.2148	82.2373	95.2148	83.3517	95.2148	82.3711	95.2148	83.2134	95.2148	82.5148	95.2148	83.078	95.2148	82.6604	95.2148	82.9422	95.2148	82.8034
98.1445	84.3636	98.1445	84.1301	98.1445	84.5523	98.1445	83.8612	98.1445	84.6885	98.1445	83.568	98.1445	84.7664	98.1445	83.2628	98.1445	84.783	98.1445	82.9589	98.1445	84.7389	98.1445	82.6699	98.1445	84.6393	98.1445	82.4093	98.1445	84.4943	98.1445	82.1896	98.1445	84.3181	98.1445	82.0208	98.1445	84.1267	98.1445	81.91	98.1445	83.934	98.1445	81.8601	98.1445	83.749	98.1445	81.8694	98.1445	83.5753	98.1445	81.9316	98.1445	83.4124	98.1445	82.0369	98.1445	83.2579	98.1445	82.1732	98.1445	83.1084	98.1445	82.3279	98.1445	82.9599	98.1445	82.4901	98.1445	82.8085	98.1445	82.6517
101.074	84.1363	101.074	83.8965	101.074	84.3306	101.074	83.623	101.074	84.4693	101.074	83.3288	101.074	84.5452	101.074	83.0281	101.074	84.5545	101.074	82.7351	101.074	84.4986	101.074	82.4635	101.074	84.3854	101.074	82.2255	101.074	84.2297	101.074	82.0308	101.074	84.0516	101.074	81.8864	101.074	83.8721	101.074	81.7961	101.074	83.7074	101.074	81.7607	101.074	83.5644	101.074	81.7781	101.074	83.44	101.074	81.8436	101.074	83.3246	101.074	81.9503	101.074	83.2073	101.074	82.0895	101.074	83.0791	101.074	82.2515	101.074	82.9353	101.074	82.4262	101.074	82.7757	101.074	82.6038
105.469	84.6062	105.469	84.3356	105.469	84.8168	105.469	84.0192	105.469	84.9559	105.469	83.6736	105.469	85.0148	105.469	83.3172	105.469	84.9892	105.469	82.9695	105.469	84.8798	105.469	82.6504	105.469	84.6943	105.469	82.3777	105.469	84.4483	105.469	82.1655	105.469	84.1651	105.469	82.0219	105.469	83.8735	105.469	81.9479	105.469	83.6017	105.469	81.938	105.469	83.3716	105.469	81.9814	105.469	83.1932	105.469	82.0649	105.469	83.064	105.469	82.1746	105.469	82.9719	105.469	82.2982	105.469	82.8993	105.469	82.4249	105.469	82.8296	105.469	82.5463	105.469	82.7505	105.469	82.6561
108.398	84.9751	108.398	84.71	108.398	85.1733	108.398	84.3901	108.398	85.2949	108.398	84.0297	108.398	85.3327	108.398	83.6449	108.398	85.2832	108.398	83.2537	108.398	85.1476	108.398	82.8756	108.398	84.9332	108.398	82.531	108.398	84.6549	108.398	82.2389	108.398	84.3348	108.398	82.0154	108.398	84.0007	108.398	81.8705	108.398	83.6812	108.398	81.8064	108.398	83.4001	108.398	81.8168	108.398	83.1721	108.398	81.8881	108.398	83.0004	108.398	82.0025	108.398	82.8776	108.398	82.1404	108.398	82.788	108.398	82.2841	108.398	82.7122	108.398	82.419	108.398	82.6322	108.398	82.536
112.793	85.0864	112.793	84.8493	112.793	85.2612	112.793	84.5602	112.793	85.3654	112.793	84.2308	112.793	85.3931	112.793	83.8742	112.793	85.3414	112.793	83.5043	112.793	85.2115	112.793	83.1355	112.793	85.0103	112.793	82.782	112.793	84.7512	112.793	82.4578	112.793	84.4541	112.793	82.1762	112.793	84.1425	112.793	81.949	112.793	83.8392	112.793	81.786	112.793	83.5614	112.793	81.6927	112.793	83.3178	112.793	81.67	112.793	83.1086	112.793	81.7123	112.793	82.9271	112.793	81.8089	112.793	82.7625	112.793	81.945	112.793	82.6032	112.793	82.1046	112.793	82.441	112.793	82.2734
117.188	84.8786	117.188	84.6108	117.188	85.0894	117.188	84.2992	117.188	85.2318	117.188	83.9589	117.188	85.2969	117.188	83.6059	117.188	85.2791	117.188	83.2568	117.188	85.1767	117.188	82.9272	117.188	84.9937	117.188	82.6308	117.188	84.74	117.188	82.3781	117.188	84.4321	117.188	82.1756	117.188	84.0913	117.188	82.0265	117.188	83.7429	117.188	81.9303	117.188	83.413	117.188	81.8846	117.188	83.1254	117.188	81.8848	117.188	82.8956	117.188	81.9249	117.188	82.7254	117.188	81.997	117.188	82.6014	117.188	82.0917	117.188	82.5017	117.188	82.1981	117.188	82.4067	117.188	82.3055
120.117	84.6425	120.117	84.3899	120.117	84.8381	120.117	84.0945	120.117	84.9668	120.117	83.7733	120.117	85.0229	120.117	83.4449	120.117	85.0059	120.117	83.1282	120.117	84.9207	120.117	82.8398	120.117	84.7767	120.117	82.5919	120.117	84.5866	120.117	82.3912	120.117	84.3623	120.117	82.2388	120.117	84.1123	120.117	82.1309	120.117	83.8404	120.117	82.0615	120.117	83.5498	120.117	82.0235	120.117	83.2498	120.117	82.0107	120.117	82.9589	120.117	82.0177	120.117	82.7016	120.117	82.0403	120.117	82.4966	120.117	82.0748	120.117	82.348	120.117	82.119	120.117	82.2458	120.117	82.1738
124.512	84.1495	124.512	83.8826	124.512	84.3429	124.512	83.5572	124.512	84.4527	124.512	83.1931	124.512	84.4742	124.512	82.8153	124.512	84.4094	124.512	82.4527	124.512	84.2689	124.512	82.1358	124.512	84.0744	124.512	81.8924	124.512	83.8587	124.512	81.7416	124.512	83.6612	124.512	81.6895	124.512	83.516	124.512	81.7282	124.512	83.438	124.512	81.8389	124.512	83.4162	124.512	81.9977	124.512	83.4214	124.512	82.1815	124.512	83.4222	124.512	82.3715	124.512	83.3975	124.512	82.555	124.512	83.3404	124.512	82.7253	124.512	83.2542	124.512	82.8803	124.512	83.1457	124.512	83.0204
128.906	84.6602	128.906	84.3811	128.906	84.8657	128.906	84.0412	128.906	84.9874	128.906	83.6562	128.906	85.0181	128.906	83.2449	128.906	84.9548	128.906	82.8294	128.906	84.8005	128.906	82.435	128.906	84.5664	128.906	82.0881	128.906	84.2746	128.906	81.8132	128.906	83.9575	128.906	81.629	128.906	83.6539	128.906	81.5439	128.906	83.3999	128.906	81.5542	128.906	83.2175	128.906	81.6456	128.906	83.1077	128.906	81.7969	128.906	83.0526	128.906	81.9849	128.906	83.024	128.906	82.1881	128.906	82.9938	128.906	82.3886	128.906	82.9408	128.906	82.5727	128.906	82.8539	128.906	82.7301
133.301	84.7674	133.301	84.4888	133.301	84.9716	133.301	84.149	133.301	85.0913	133.301	83.764	133.301	85.1199	133.301	83.3523	133.301	85.0557	133.301	82.9354	133.301	84.903	133.301	82.5367	133.301	84.6742	133.301	82.1806	133.301	84.3904	133.301	81.8901	133.301	84.0804	133.301	81.6833	133.301	83.7765	133.301	81.5702	133.301	83.5081	133.301	81.5504	133.301	83.295	133.301	81.6135	133.301	83.1432	133.301	81.7417	133.301	83.0452	133.301	81.9137	133.301	82.9823	133.301	82.1079	133.301	82.9302	133.301	82.305	133.301	82.8663	133.301	82.4893	133.301	82.7745	133.301	82.6483
139.16	84.7559	139.16	84.4791	139.16	84.9585	139.16	84.1427	139.16	85.076	139.16	83.7647	139.16	85.1022	139.16	83.3661	139.16	85.0369	139.16	82.9696	139.16	84.8875	139.16	82.5986	139.16	84.6698	139.16	82.2747	139.16	84.4081	139.16	82.016	139.16	84.1311	139.16	81.8339	139.16	83.8656	139.16	81.7319	139.16	83.6298	139.16	81.7055	139.16	83.431	139.16	81.7441	139.16	83.2678	139.16	81.8333	139.16	83.1338	139.16	81.9576	139.16	83.0201	139.16	82.1029	139.16	82.9151	139.16	82.2572	139.16	82.8076	139.16	82.4108	139.16	82.6891	139.16	82.5564
143.555	84.4287	143.555	84.1551	143.555	84.6232	143.555	83.8188	143.555	84.728	143.555	83.4403	143.555	84.7384	143.555	83.0443	143.555	84.6581	143.555	82.6582	143.555	84.5006	143.555	82.31	143.555	84.2901	143.555	82.0254	143.555	84.0598	143.555	81.8237	143.555	83.8441	143.555	81.7142	143.555	83.6677	143.555	81.6948	143.555	83.5376	143.555	81.7534	143.555	83.4442	143.555	81.8709	143.555	83.3717	143.555	82.0262	143.555	83.3062	143.555	82.2001	143.555	83.239	143.555	82.3773	143.555	83.164	143.555	82.5477	143.555	83.0758	143.555	82.7054	143.555	82.9706	143.555	82.847
147.949	83.9299	147.949	83.6236	147.949	84.1488	147.949	83.2516	147.949	84.2647	147.949	82.8411	147.949	84.2702	147.949	82.424	147.949	84.1684	147.949	82.0343	147.949	83.9764	147.949	81.705	147.949	83.7292	147.949	81.4637	147.949	83.4785	147.949	81.3274	147.949	83.2817	147.949	81.3003	147.949	83.1796	147.949	81.3737	147.949	83.1775	147.949	81.5294	147.949	83.2453	147.949	81.7442	147.949	83.3386	147.949	81.9939	147.949	83.4191	147.949	82.2573	147.949	83.4636	147.949	82.517	147.949	83.4612	147.949	82.7602	147.949	83.4088	147.949	82.9777	147.949	83.3079	147.949	83.1623
153.809	83.9348	153.809	83.5425	153.809	84.1921	153.809	83.0361	153.809	84.2993	153.809	82.4436	153.809	84.2467	153.809	81.8037	153.809	84.0327	153.809	81.1696	153.809	83.6691	153.809	80.6092	153.809	83.1909	153.809	80.1985	153.809	82.6673	153.809	80.001	153.809	82.2044	153.809	80.0429	153.809	81.919	153.809	80.3014	153.809	81.8803	153.809	80.7169	153.809	82.0672	153.809	81.2186	153.809	82.3914	153.809	81.7436	153.809	82.7556	153.809	82.2448	153.809	83.0887	153.809	82.6895	153.809	83.3476	153.809	83.056	153.809	83.5087	153.809	83.3295	153.809	83.5605	153.809	83.4999
159.668	84.6211	159.668	84.2673	159.668	84.8424	159.668	83.7956	159.668	84.9196	159.668	83.2249	159.668	84.8437	159.668	82.5799	159.668	84.6102	159.668	81.895	159.668	84.2223	159.668	81.2181	159.668	83.6975	159.668	80.6122	159.668	83.0781	159.668	80.1506	159.668	82.4433	159.668	79.9001	159.668	81.9086	159.668	79.8948	159.668	81.5931	159.668	80.1193	159.668	81.5548	159.668	80.5154	159.668	81.7523	159.668	81.0066	159.668	82.0797	159.668	81.5216	159.668	82.4284	159.668	82.004	159.668	82.7209	159.668	82.4138	159.668	82.9118	159.668	82.7235	159.668	82.979	159.668	82.9154
165.527	84.9979	165.527	84.6702	165.527	85.1955	165.527	84.2244	165.527	85.2529	165.527	83.6753	165.527	85.162	165.527	83.0426	165.527	84.9179	165.527	82.3532	165.527	84.5211	165.527	81.6463	165.527	83.9837	165.527	80.9771	165.527	83.3385	165.527	80.4176	165.527	82.6508	165.527	80.0458	165.527	82.0257	165.527	79.9205	165.527	81.5918	165.527	80.0526	165.527	81.4444	165.527	80.3975	165.527	81.5834	165.527	80.8765	165.527	81.9129	165.527	81.4066	165.527	82.3038	165.527	81.9189	165.527	82.6491	165.527	82.3623	165.527	82.8826	165.527	82.7008	165.527	82.9723	165.527	82.9096
171.387	85.1836	171.387	84.8589	171.387	85.3797	171.387	84.4187	171.387	85.4354	171.387	83.8785	171.387	85.3413	171.387	83.2571	171.387	85.0905	171.387	82.5785	171.387	84.6815	171.387	81.8756	171.387	84.1229	171.387	81.1945	171.387	83.4426	171.387	80.5974	171.387	82.6999	171.387	80.1586	171.387	81.9968	171.387	79.9462	171.387	81.4679	171.387	79.9923	171.387	81.2286	171.387	80.2726	171.387	81.3026	171.387	80.7158	171.387	81.6046	171.387	81.2331	171.387	82	171.387	81.7445	171.387	82.3695	171.387	82.1885	171.387	82.6349	171.387	82.522	171.387	82.7552	171.387	82.7164
177.246	85.0953	177.246	84.7561	177.246	85.3081	177.246	84.3034	177.246	85.3843	177.246	83.7532	177.246	85.3154	177.246	83.1256	177.246	85.0949	177.246	82.447	177.246	84.7206	177.246	81.7516	177.246	84.1973	177.246	81.0836	177.246	83.5446	177.246	80.4982	177.246	82.8082	177.246	80.0566	177.246	82.0714	177.246	79.8139	177.246	81.4576	177.246	79.7996	177.246	81.0963	177.246	80.0025	177.246	81.0512	177.246	80.3725	177.246	81.2705	177.246	80.8367	177.246	81.6235	177.246	81.3198	177.246	81.9763	177.246	81.7565	177.246	82.2346	177.246	82.0955	177.246	82.3483	177.246	82.3001
183.105	84.8979	183.105	84.5302	183.105	85.1345	183.105	84.0435	183.105	85.2298	183.105	83.4521	183.105	85.1748	183.105	82.7749	183.105	84.9629	183.105	82.0382	183.105	84.5916	183.105	81.2816	183.105	84.0662	183.105	80.5624	183.105	83.4065	183.105	79.9579	183.105	82.658	183.105	79.5538	183.105	81.9057	183.105	79.4149	183.105	81.2802	183.105	79.5519	183.105	80.9261	183.105	79.9133	183.105	80.9194	183.105	80.412	183.105	81.203	183.105	80.9591	183.105	81.6264	183.105	81.4829	183.105	82.0387	183.105	81.9306	183.105	82.3401	183.105	82.264	183.105	82.4828	183.105	82.4547
188.965	85.1314	188.965	84.757	188.965	85.3682	188.965	84.2545	188.965	85.4594	188.965	83.6348	188.965	85.3975	188.965	82.912	188.965	85.1764	188.965	82.1058	188.965	84.7916	188.965	81.2467	188.965	84.2426	188.965	80.3848	188.965	83.5384	188.965	79.5991	188.965	82.7081	188.965	78.9997	188.965	81.822	188.965	78.7014	188.965	81.0159	188.965	78.7663	188.965	80.4855	188.965	79.1584	188.965	80.3864	188.965	79.7636	188.965	80.6934	188.965	80.4505	188.965	81.2139	188.965	81.1119	188.965	81.7379	188.965	81.6728	188.965	82.1295	188.965	82.0827	188.965	82.3253	188.965	82.3074
196.289	85.8575	196.289	85.4857	196.289	86.09	196.289	84.9827	196.289	86.176	196.289	84.3568	196.289	86.111	196.289	83.6159	196.289	85.8939	196.289	82.7696	196.289	85.528	196.289	81.8334	196.289	85.0216	196.289	80.838	196.289	84.3871	196.289	79.8453	196.289	83.6414	196.289	78.9665	196.289	82.8108	196.289	78.3605	196.289	81.9475	196.289	78.1733	196.289	81.1614	196.289	78.4335	196.289	80.6314	196.289	79.0236	196.289	80.5163	196.289	79.7657	196.289	80.7926	196.289	80.508	196.289	81.2502	196.289	81.1473	196.289	81.6609	196.289	81.6167	196.289	81.8858	196.289	81.8716
203.613	86.1738	203.613	85.8381	203.613	86.3634	203.613	85.3717	203.613	86.3938	203.613	84.7913	203.613	86.2561	203.613	84.112	203.613	85.9471	203.613	83.3468	203.613	85.4708	203.613	82.5066	203.613	84.8425	203.613	81.6058	203.613	84.0938	203.613	80.6728	203.613	83.2765	203.613	79.769	203.613	82.4642	203.613	79.0083	203.613	81.7462	203.613	78.5499	203.613	81.2129	203.613	78.5218	203.613	80.9345	203.613	78.9135	203.613	80.9292	203.613	79.5721	203.613	81.1394	203.613	80.3069	203.613	81.4453	203.613	80.9705	203.613	81.7139	203.613	81.473	203.613	81.8413	203.613	81.7677
210.938	86.4095	210.938	86.103	210.938	86.5751	210.938	85.6645	210.938	86.5918	210.938	85.1036	210.938	86.4529	210.938	84.4301	210.938	86.1522	210.938	83.6526	210.938	85.6843	210.938	82.7788	210.938	85.0452	210.938	81.818	210.938	84.2354	210.938	80.788	210.938	83.2662	210.938	79.7313	210.938	82.1743	210.938	78.7408	210.938	81.0503	210.938	77.9816	210.938	80.0723	210.938	77.6522	210.938	79.4817	210.938	77.8456	210.938	79.4188	210.938	78.4456	210.938	79.7693	210.938	79.2169	210.938	80.2666	210.938	79.9507	210.938	80.6836	210.938	80.5146	210.938	80.892	210.938	80.838
218.262	85.4335	218.262	85.1661	218.262	85.6034	218.262	84.8151	218.262	85.6648	218.262	84.395	218.262	85.6111	218.262	83.9176	218.262	85.4409	218.262	83.3901	218.262	85.1567	218.262	82.8138	218.262	84.7615	218.262	82.1859	218.262	84.2547	218.262	81.5034	218.262	83.6289	218.262	80.7696	218.262	82.8729	218.262	80.0044	218.262	81.9884	218.262	79.258	218.262	81.0243	218.262	78.623	218.262	80.1172	218.262	78.2221	218.262	79.4754	218.262	78.1485	218.262	79.2361	218.262	78.3852	218.262	79.3199	218.262	78.7986	218.262	79.5054	218.262	79.2169	218.262	79.5997	218.262	79.5062
225.586	85.7026	225.586	85.3593	225.586	85.8886	225.586	84.8809	225.586	85.9038	225.586	84.2974	225.586	85.7458	225.586	83.6446	225.586	85.4246	225.586	82.9617	225.586	84.9664	225.586	82.2874	225.586	84.4136	225.586	81.6563	225.586	83.8198	225.586	81.096	225.586	83.2327	225.586	80.6266	225.586	82.6759	225.586	80.2627	225.586	82.149	225.586	80.0172	225.586	81.6593	225.586	79.904	225.586	81.2579	225.586	79.9357	225.586	81.0287	225.586	80.1114	225.586	81.012	225.586	80.4027	225.586	81.1447	225.586	80.7483	225.586	81.3001	225.586	81.0685	225.586	81.367	225.586	81.2897
232.91	86.6385	232.91	86.2775	232.91	86.8207	232.91	85.7555	232.91	86.8118	232.91	85.0954	232.91	86.6054	232.91	84.325	232.91	86.2025	232.91	83.4768	232.91	85.6159	232.91	82.589	232.91	84.876	232.91	81.7072	232.91	84.0367	232.91	80.8867	232.91	83.1735	232.91	80.1931	232.91	82.3646	232.91	79.6945	232.91	81.6693	232.91	79.4439	232.91	81.1334	232.91	79.4608	232.91	80.8219	232.91	79.7222	232.91	80.8064	232.91	80.168	232.91	81.0738	232.91	80.7131	232.91	81.4817	232.91	81.2592	232.91	81.8446	232.91	81.7094	232.91	82.0303	232.91	81.9831
241.699	86.5273	241.699	86.1804	241.699	86.7179	241.699	85.6927	241.699	86.7382	241.699	85.081	241.699	86.5762	241.699	84.3632	241.699	86.2242	241.699	83.5592	241.699	85.6829	241.699	82.6926	241.699	84.9675	241.699	81.7937	241.699	84.1135	241.699	80.9029	241.699	83.1783	241.699	80.0722	241.699	82.2304	241.699	79.362	241.699	81.3317	241.699	78.8305	241.699	80.5376	241.699	78.5216	241.699	79.9267	241.699	78.4557	241.699	79.6054	241.699	78.6234	241.699	79.6147	241.699	78.9746	241.699	79.8421	241.699	79.4159	241.699	80.0906	241.699	79.8311	241.699	80.2046	241.699	80.1156
250.488	86.3761	250.488	86.0159	250.488	86.5861	250.488	85.5281	250.488	86.6267	250.488	84.9361	250.488	86.4835	250.488	84.2618	250.488	86.1492	250.488	83.5228	250.488	85.6254	250.488	82.7339	250.488	84.9283	250.488	81.9112	250.488	84.0953	250.488	81.0829	250.488	83.1914	250.488	80.3015	250.488	82.3039	250.488	79.6489	250.488	81.52	250.488	79.2174	250.488	80.9002	250.488	79.0639	250.488	80.4799	250.488	79.1739	250.488	80.2886	250.488	79.4736	250.488	80.3302	250.488	79.8712	250.488	80.5331	250.488	80.281	250.488	80.7611	250.488	80.6267	250.488	80.8866	250.488	80.8427
259.277	87.1634	259.277	86.7619	259.277	87.3953	259.277	86.2111	259.277	87.4423	259.277	85.535	259.277	87.294	259.277	84.7604	259.277	86.9445	259.277	83.9136	259.277	86.3923	259.277	83.0192	259.277	85.6425	259.277	82.1022	259.277	84.7126	259.277	81.1944	259.277	83.6427	259.277	80.3456	259.277	82.5072	259.277	79.6331	259.277	81.4242	259.277	79.1548	259.277	80.5538	259.277	78.9952	259.277	80.0721	259.277	79.1791	259.277	80.0876	259.277	79.6504	259.277	80.5252	259.277	80.2925	259.277	81.1368	259.277	80.9642	259.277	81.6581	259.277	81.5286	259.277	81.923	259.277	81.8731
268.066	86.7799	268.066	86.4541	268.066	86.9645	268.066	86.0009	268.066	86.9996	268.066	85.4382	268.066	86.8814	268.066	84.7871	268.066	86.6095	268.066	84.0686	268.066	86.1863	268.066	83.3013	268.066	85.6169	268.066	82.5004	268.066	84.9089	268.066	81.6823	268.066	84.0733	268.066	80.8735	268.066	83.1271	268.066	80.1217	268.066	82.1004	268.066	79.5004	268.066	81.055	268.066	79.095	268.066	80.1128	268.066	78.9664	268.066	79.462	268.066	79.1126	268.066	79.2665	268.066	79.4575	268.066	79.4969	268.066	79.8731	268.066	79.9142	268.066	80.2156	268.066	80.2541	268.066	80.3639
276.855	86.3202	276.855	86.0042	276.855	86.4817	276.855	85.5522	276.855	86.4785	276.855	84.9885	276.855	86.3104	276.855	84.3399	276.855	85.9873	276.855	83.6334	276.855	85.5282	276.855	82.894	276.855	84.9582	276.855	82.146	276.855	84.3055	276.855	81.4166	276.855	83.599	276.855	80.7413	276.855	82.8651	276.855	80.1654	276.855	82.1293	276.855	79.7383	276.855	81.4266	276.855	79.5026	276.855	80.8265	276.855	79.4842	276.855	80.4431	276.855	79.6825	276.855	80.3751	276.855	80.055	276.855	80.5909	276.855	80.507	276.855	80.9123	276.855	80.9091	276.855	81.1363	276.855	81.1412
287.109	86.2811	287.109	85.9898	287.109	86.3924	287.109	85.533	287.109	86.3222	287.109	84.9368	287.109	86.0817	287.109	84.2356	287.109	85.6926	287.109	83.4679	287.109	85.1832	287.109	82.6731	287.109	84.5856	287.109	81.8895	287.109	83.9311	287.109	81.1565	287.109	83.2434	287.109	80.5198	287.109	82.5351	287.109	80.0319	287.109	81.8172	287.109	79.742	287.109	81.1279	287.109	79.6776	287.109	80.567	287.109	79.8309	287.109	80.28	287.109	80.1613	287.109	80.3522	287.109	80.6004	287.109	80.7066	287.109	81.0532	287.109	81.1439	287.109	81.4079	287.109	81.4684	287.109	81.5641
297.363	86.6308	297.363	86.2557	297.363	86.7921	297.363	85.7148	297.363	86.7067	297.363	85.0601	297.363	86.3649	297.363	84.3369	297.363	85.7873	297.363	83.5747	297.363	85.0313	297.363	82.7884	297.363	84.1929	297.363	81.9905	297.363	83.3929	297.363	81.211	297.363	82.7349	297.363	80.5134	297.363	82.2533	297.363	79.9897	297.363	81.8998	297.363	79.7229	297.363	81.592	297.363	79.7432	297.363	81.2903	297.363	80.0243	297.363	81.0639	297.363	80.5123	297.363	81.0795	297.363	81.1304	297.363	81.4262	297.363	81.7605	297.363	81.946	297.363	82.2538	297.363	82.3591	297.363	82.4762
307.617	87.5953	307.617	87.1331	307.617	87.8199	307.617	86.4651	307.617	87.7909	307.617	85.6375	307.617	87.5064	307.617	84.7066	307.617	86.9755	307.617	83.7279	307.617	86.2171	307.617	82.7436	307.617	85.2664	307.617	81.775	307.617	84.1897	307.617	80.832	307.617	83.0955	307.617	79.9371	307.617	82.1133	307.617	79.1485	307.617	81.3386	307.617	78.5593	307.617	80.8012	307.617	78.2626	307.617	80.4924	307.617	78.3132	307.617	80.3892	307.617	78.7099	307.617	80.4533	307.617	79.3695	307.617	80.6434	307.617	80.1133	307.617	80.8979	307.617	80.7284	307.617	81.0902	307.617	81.0642
319.336	87.1437	319.336	86.6241	319.336	87.4144	319.336	85.896	319.336	87.4182	319.336	85.0217	319.336	87.1544	319.336	84.0775	319.336	86.6341	319.336	83.1371	319.336	85.8758	319.336	82.2499	319.336	84.9101	319.336	81.4306	319.336	83.7978	319.336	80.6768	319.336	82.657	319.336	80.0035	319.336	81.6731	319.336	79.4652	319.336	81.0357	319.336	79.1337	319.336	80.8006	319.336	79.0421	319.336	80.8532	319.336	79.1674	319.336	81.0469	319.336	79.4803	319.336	81.3087	319.336	79.9716	319.336	81.5998	319.336	80.5965	319.336	81.8368	319.336	81.2248	319.336	81.8978	319.336	81.6933
329.59	87.9537	329.59	87.4768	329.59	88.1676	329.59	86.7566	329.59	88.1138	329.59	85.828	329.59	87.7994	329.59	84.7406	329.59	87.239	329.59	83.5531	329.59	86.4494	329.59	82.3252	329.59	85.4478	329.59	81.1084	329.59	84.2577	329.59	79.9488	329.59	82.9241	329.59	78.9098	329.59	81.5392	329.59	78.0955	329.59	80.2671	329.59	77.6231	329.59	79.3358	329.59	77.5397	329.59	78.9488	329.59	77.796	329.59	79.1432	329.59	78.3233	329.59	79.7394	329.59	79.066	329.59	80.4509	329.59	79.9121	329.59	81.0225	329.59	80.6737	329.59	81.2872	329.59	81.1672
341.309	86.913	341.309	86.53	341.309	87.0492	341.309	85.9197	341.309	86.9441	341.309	85.126	341.309	86.6223	341.309	84.2097	341.309	86.1174	341.309	83.2345	341.309	85.4604	341.309	82.2499	341.309	84.6736	341.309	81.2824	341.309	83.7728	341.309	80.3493	341.309	82.7791	341.309	79.4936	341.309	81.7398	341.309	78.8111	341.309	80.7451	341.309	78.4114	341.309	79.9089	341.309	78.3139	341.309	79.3178	341.309	78.4179	341.309	79.031	341.309	78.6197	341.309	79.1144	341.309	78.9133	341.309	79.5234	341.309	79.3344	341.309	80.0039	341.309	79.8205	341.309	80.2696	341.309	80.1909
353.027	86.7958	353.027	86.4261	353.027	86.9051	353.027	85.8097	353.027	86.7641	353.027	84.9866	353.027	86.3998	353.027	84.0196	353.027	85.8492	353.027	82.9832	353.027	85.1517	353.027	81.943	353.027	84.3412	353.027	80.936	353.027	83.4402	353.027	79.97	353.027	82.4603	353.027	79.0538	353.027	81.4134	353.027	78.2455	353.027	80.3347	353.027	77.6732	353.027	79.31	353.027	77.4749	353.027	78.5093	353.027	77.7031	353.027	78.2324	353.027	78.3147	353.027	78.748	353.027	79.2077	353.027	79.833	353.027	80.2044	353.027	80.893	353.027	81.0619	353.027	81.5089	353.027	81.5493
366.211	86.6262	366.211	86.3452	366.211	86.6451	366.211	85.8266	366.211	86.4024	366.211	85.1173	366.211	85.9218	366.211	84.2799	366.211	85.2472	366.211	83.3765	366.211	84.4387	366.211	82.4498	366.211	83.5687	366.211	81.5149	366.211	82.7122	366.211	80.5819	366.211	81.9275	366.211	79.7069	366.211	81.2435	366.211	79.0253	366.211	80.6585	366.211	78.6828	366.211	80.1303	366.211	78.6828	366.211	79.5651	366.211	78.8833	366.211	78.922	366.211	79.1838	366.211	78.4694	366.211	79.6108	366.211	78.7311	366.211	80.1702	366.211	79.6377	366.211	80.6821	366.211	80.4958	366.211	80.8578
379.395	87.8373	379.395	87.3471	379.395	88.01	379.395	86.5754	379.395	87.8553	379.395	85.5887	379.395	87.3837	379.395	84.4834	379.395	86.6179	379.395	83.3704	379.395	85.5902	379.395	82.3367	379.395	84.3516	379.395	81.4093	379.395	82.9977	379.395	80.5702	379.395	81.696	379.395	79.8238	379.395	80.6756	379.395	79.2411	379.395	80.1173	379.395	78.8942	379.395	79.967	379.395	78.7272	379.395	79.8976	379.395	78.5887	379.395	79.5592	379.395	78.4596	379.395	78.9428	379.395	78.584	379.395	78.6221	379.395	79.1502	379.395	79.1078	379.395	79.8527	379.395	79.8673	379.395	80.1782
392.578	87.6665	392.578	87.181	392.578	87.8402	392.578	86.3931	392.578	87.7137	392.578	85.3408	392.578	87.311	392.578	84.097	392.578	86.6617	392.578	82.7704	392.578	85.7989	392.578	81.4818	392.578	84.7632	392.578	80.3086	392.578	83.6045	392.578	79.2536	392.578	82.3833	392.578	78.3234	392.578	81.1923	392.578	77.6753	392.578	80.2202	392.578	77.5792	392.578	79.748	392.578	78.039	392.578	79.8379	392.578	78.6951	392.578	80.1349	392.578	79.2473	392.578	80.2926	392.578	79.6708	392.578	80.3145	392.578	80.073	392.578	80.4025	392.578	80.4462	392.578	80.5801	392.578	80.6406
405.762	87.3614	405.762	86.8587	405.762	87.532	405.762	86.0647	405.762	87.3532	405.762	85.0475	405.762	86.8279	405.762	83.897	405.762	85.9844	405.762	82.7019	405.762	84.8893	405.762	81.513	405.762	83.6542	405.762	80.3153	405.762	82.4214	405.762	79.053	405.762	81.3087	405.762	77.7389	405.762	80.3484	405.762	76.6403	405.762	79.5483	405.762	76.2625	405.762	79.0875	405.762	76.697	405.762	79.2351	405.762	77.4206	405.762	79.8372	405.762	78.068	405.762	80.4383	405.762	78.7004	405.762	80.8338	405.762	79.4711	405.762	81.0581	405.762	80.2779	405.762	81.1056	405.762	80.8653
420.41	87.5415	420.41	86.9714	420.41	87.7336	420.41	86.0561	420.41	87.5409	420.41	84.8638	420.41	86.985	420.41	83.5104	420.41	86.1215	420.41	82.1533	420.41	85.0313	420.41	80.936	420.41	83.7964	420.41	79.8924	420.41	82.4877	420.41	78.9076	420.41	81.1806	420.41	77.8151	420.41	79.9434	420.41	76.578	420.41	78.7671	420.41	75.4845	420.41	77.5816	420.41	75.1013	420.41	76.5689	420.41	75.6582	420.41	76.5536	420.41	76.8543	420.41	77.9892	420.41	78.3726	420.41	79.878	420.41	79.9304	420.41	81.314	420.41	81.2093	420.41	82.0129	420.41	81.9539
435.059	87.2624	435.059	86.9128	435.059	87.2491	435.059	86.2195	435.059	86.886	435.059	85.2253	435.059	86.2288	435.059	84.0001	435.059	85.3647	435.059	82.6497	435.059	84.3695	435.059	81.3052	435.059	83.2836	435.059	80.0669	435.059	82.1602	435.059	78.9362	435.059	81.1199	435.059	77.8431	435.059	80.2914	435.059	76.7837	435.059	79.673	435.059	75.8995	435.059	79.105	435.059	75.2848	435.059	78.3497	435.059	74.7638	435.059	77.1828	435.059	74.2509	435.059	75.7213	435.059	74.3621	435.059	75.1649	435.059	75.6329	435.059	76.329	435.059	77.1648	435.059	77.6278	435.059	77.9521
451.172	87.6647	451.172	87.2894	451.172	87.7039	451.172	86.5729	451.172	87.4385	451.172	85.5413	451.172	86.9151	451.172	84.266	451.172	86.1673	451.172	82.8819	451.172	85.1856	451.172	81.5756	451.172	83.9269	451.172	80.4888	451.172	82.3776	451.172	79.5837	451.172	80.675	451.172	78.6638	451.172	79.2571	451.172	77.5837	451.172	78.7034	451.172	76.4744	451.172	78.9709	451.172	75.7495	451.172	79.4071	451.172	75.6221	451.172	79.5925	451.172	75.8868	451.172	79.5299	451.172	76.4899	451.172	79.4321	451.172	77.5091	451.172	79.4784	451.172	78.6228	451.172	79.5678	451.172	79.3577
465.82	87.0629	465.82	86.301	465.82	87.4841	465.82	85.2571	465.82	87.5307	465.82	84.006	465.82	87.2053	465.82	82.6428	465.82	86.5452	465.82	81.3003	465.82	85.6002	465.82	80.1466	465.82	84.3997	465.82	79.2992	465.82	82.9495	465.82	78.6892	465.82	81.2845	465.82	78.0864	465.82	79.5762	465.82	77.3227	465.82	78.2336	465.82	76.4859	465.82	77.6105	465.82	75.8457	465.82	77.3919	465.82	75.4524	465.82	77.129	465.82	75.1401	465.82	77.2046	465.82	75.2448	465.82	78.1543	465.82	76.4362	465.82	79.323	465.82	78.1923	465.82	79.8698	465.82	79.4837
483.398	86.8101	483.398	86.2097	483.398	86.9455	483.398	85.2065	483.398	86.6227	483.398	83.9076	483.398	85.9343	483.398	82.4378	483.398	85.04	483.398	80.9158	483.398	84.0868	483.398	79.4598	483.398	83.1196	483.398	78.2225	483.398	82.0689	483.398	77.3704	483.398	80.8052	483.398	76.9274	483.398	79.2525	483.398	76.6752	483.398	77.6663	483.398	76.2908	483.398	76.7071	483.398	75.5213	483.398	76.2774	483.398	74.3413	483.398	75.5248	483.398	73.4491	483.398	74.9068	483.398	74.3221	483.398	75.9461	483.398	76.4748	483.398	77.7434	483.398	78.2707	483.398	78.9139	483.398	79.1083
499.512	85.4214	499.512	85.0832	499.512	85.3279	499.512	84.3517	499.512	84.8408	499.512	83.3164	499.512	84.0843	499.512	82.0987	499.512	83.2156	499.512	80.8387	499.512	82.3366	499.512	79.6666	499.512	81.4952	499.512	78.6293	499.512	80.7305	499.512	77.6332	499.512	79.9965	499.512	76.5617	499.512	79.1339	499.512	75.5547	499.512	78.1693	499.512	75.0467	499.512	77.6256	499.512	75.0111	499.512	77.6595	499.512	74.6475	499.512	77.2022	499.512	73.2312	499.512	75.2396	499.512	71.1247	499.512	72.4606	499.512	71.5516	499.512	73.0931	499.512	74.1084	499.512	75.1217	499.512	75.5244
517.09	85.651	517.09	85.1432	517.09	85.8691	517.09	84.3659	517.09	85.8161	517.09	83.364	517.09	85.5328	517.09	82.1806	517.09	85.0428	517.09	80.859	517.09	84.3282	517.09	79.5049	517.09	83.3433	517.09	78.3642	517.09	82.0643	517.09	77.6961	517.09	80.5527	517.09	77.4235	517.09	79.0134	517.09	77.2041	517.09	77.8357	517.09	76.8796	517.09	77.3969	517.09	76.5636	517.09	77.5402	517.09	76.2911	517.09	77.6904	517.09	75.857	517.09	77.5169	517.09	75.2974	517.09	77.1718	517.09	75.3193	517.09	77.0804	517.09	76.2082	517.09	77.2324	517.09	77.0394
536.133	88.2447	536.133	87.6261	536.133	88.4052	536.133	86.6076	536.133	88.1031	536.133	85.2844	536.133	87.3944	536.133	83.753	536.133	86.3805	536.133	82.0639	536.133	85.1662	536.133	80.2125	536.133	83.8332	536.133	78.2336	536.133	82.4282	536.133	76.393	536.133	80.9369	536.133	75.2237	536.133	79.3429	536.133	75.022	536.133	77.83	536.133	75.5587	536.133	76.898	536.133	76.3823	536.133	76.939	536.133	76.8983	536.133	77.5012	536.133	76.5856	536.133	77.7163	536.133	75.3698	536.133	77.4018	536.133	74.5058	536.133	77.3146	536.133	75.6823	536.133	77.5903	536.133	77.1798
555.176	88.7631	555.176	88.2206	555.176	88.8046	555.176	87.2321	555.176	88.3529	555.176	85.9012	555.176	87.4663	555.176	84.355	555.176	86.2154	555.176	82.7088	555.176	84.6747	555.176	81.0219	555.176	82.9787	555.176	79.3038	555.176	81.3354	555.176	77.6374	555.176	79.8315	555.176	76.2924	555.176	78.2468	555.176	75.4647	555.176	76.4453	555.176	74.949	555.176	75.0766	555.176	74.5479	555.176	74.8871	555.176	74.3114	555.176	75.2772	555.176	74.1287	555.176	75.7348	555.176	73.9974	555.176	76.3399	555.176	74.7943	555.176	77.2422	555.176	76.608	555.176	78.0492	555.176	77.9398
574.219	88.509	574.219	87.932	574.219	88.5676	574.219	86.8798	574.219	88.1304	574.219	85.4469	574.219	87.2774	574.219	83.7781	574.219	86.0909	574.219	82.0683	574.219	84.5999	574.219	80.4924	574.219	82.8136	574.219	79.0781	574.219	80.8445	574.219	77.7385	574.219	79.0158	574.219	76.465	574.219	77.6514	574.219	75.3047	574.219	76.6687	574.219	74.2675	574.219	75.9554	574.219	73.7577	574.219	75.7568	574.219	74.3291	574.219	75.7702	574.219	75.3349	574.219	75.1924	574.219	75.9029	574.219	74.762	574.219	76.1855	574.219	76.117	574.219	76.9069	574.219	77.5518	574.219	77.7121
594.727	88.0239	594.727	87.6897	594.727	87.9641	594.727	86.9715	594.727	87.543	594.727	85.8996	594.727	86.8545	594.727	84.5138	594.727	86.0057	594.727	82.8806	594.727	84.973	594.727	81.1308	594.727	83.5705	594.727	79.4117	594.727	81.6185	594.727	77.7053	594.727	79.0959	594.727	75.9012	594.727	76.4042	594.727	74.4062	594.727	75.0868	594.727	74.0838	594.727	76.1003	594.727	74.6098	594.727	77.5765	594.727	75.037	594.727	78.105	594.727	75.0131	594.727	76.9004	594.727	74.6397	594.727	72.9141	594.727	74.6673	594.727	69.6616	594.727	75.6709	594.727	74.2785	594.727	76.1605
615.234	88.5735	615.234	88.0206	615.234	88.6673	615.234	87.0893	615.234	88.3015	615.234	85.8584	615.234	87.5812	615.234	84.3579	615.234	86.6155	615.234	82.6149	615.234	85.4148	615.234	80.7736	615.234	83.9764	615.234	79.1155	615.234	82.3874	615.234	77.7623	615.234	80.7025	615.234	76.4647	615.234	78.6724	615.234	75.0935	615.234	75.5467	615.234	74.2328	615.234	70.6852	615.234	74.3805	615.234	72.0057	615.234	74.8227	615.234	76.4375	615.234	74.7446	615.234	78.1343	615.234	73.9988	615.234	77.9368	615.234	74.0319	615.234	77.6394	615.234	76.2	615.234	78.2239	615.234	78.0316
637.207	88.2527	637.207	88.0495	637.207	87.9869	637.207	87.3487	637.207	87.3165	637.207	86.1495	637.207	86.3384	637.207	84.4676	637.207	85.174	637.207	82.3866	637.207	83.8848	637.207	80.2115	637.207	82.4526	637.207	78.5175	637.207	80.9915	637.207	77.5501	637.207	79.7849	637.207	76.8166	637.207	78.9386	637.207	76.0512	637.207	77.9711	637.207	75.7625	637.207	75.6718	637.207	76.0479	637.207	70.8103	637.207	76.266	637.207	72.3915	637.207	76.343	637.207	76.5926	637.207	76.5631	637.207	77.2136	637.207	76.6394	637.207	75.1303	637.207	76.0819	637.207	73.1388	637.207	74.5743
659.18	88.091	659.18	87.6655	659.18	87.9692	659.18	86.7905	659.18	87.3692	659.18	85.5804	659.18	86.6383	659.18	84.0895	659.18	86.0162	659.18	82.3251	659.18	85.1891	659.18	80.3344	659.18	83.8306	659.18	78.2784	659.18	82.0234	659.18	76.329	659.18	80.0872	659.18	74.2432	659.18	78.3909	659.18	71.5574	659.18	77.1578	659.18	70.3398	659.18	76.2917	659.18	72.7124	659.18	75.1381	659.18	74.8645	659.18	73.1265	659.18	75.4282	659.18	71.6972	659.18	74.3556	659.18	72.4256	659.18	73.8841	659.18	75.3573	659.18	76.6028	659.18	78.0474	659.18	78.5228
682.617	88.195	682.617	87.8383	682.617	88.1301	682.617	87.0211	682.617	87.8186	682.617	85.8049	682.617	87.3576	682.617	84.2834	682.617	86.5654	682.617	82.5788	682.617	85.2785	682.617	80.806	682.617	83.5928	682.617	78.9499	682.617	81.6842	682.617	76.9612	682.617	79.7286	682.617	75.1425	682.617	77.9826	682.617	73.6442	682.617	76.46	682.617	71.8739	682.617	75.2764	682.617	70.5211	682.617	75.615	682.617	71.791	682.617	77.0479	682.617	73.6113	682.617	78.0283	682.617	73.9646	682.617	78.1897	682.617	74.1313	682.617	77.7483	682.617	75.8629	682.617	77.492	682.617	77.2283
707.52	86.9591	707.52	86.7934	707.52	86.7955	707.52	86.315	707.52	86.4983	707.52	85.5137	707.52	86.3008	707.52	84.2692	707.52	85.9581	707.52	82.4792	707.52	85.0708	707.52	80.1848	707.52	83.5975	707.52	77.6459	707.52	81.7105	707.52	75.2576	707.52	79.7529	707.52	73.1932	707.52	78.2724	707.52	71.9625	707.52	76.873	707.52	72.558	707.52	74.8988	707.52	73.6612	707.52	72.8565	707.52	74.2625	707.52	71.9153	707.52	74.8377	707.52	74.33	707.52	74.7139	707.52	75.0049	707.52	72.9138	707.52	71.8928	707.52	72.8153	707.52	72.5891	707.52	74.3506
732.422	87.0331	732.422	87.1331	732.422	86.6678	732.422	86.7766	732.422	86.4488	732.422	85.8982	732.422	86.4433	732.422	84.4096	732.422	86.2814	732.422	82.2907	732.422	85.7844	732.422	79.8165	732.422	84.8128	732.422	77.7623	732.422	83.0096	732.422	76.6927	732.422	80.3026	732.422	75.6294	732.422	77.9043	732.422	73.1458	732.422	76.788	732.422	69.789	732.422	75.6611	732.422	71.3659	732.422	74.6537	732.422	74.6254	732.422	73.7593	732.422	76.1502	732.422	73.5557	732.422	75.6844	732.422	73.2591	732.422	73.7417	732.422	72.4279	732.422	74.6254	732.422	75.2652	732.422	76.4711
757.324	87.0331	757.324	86.8366	757.324	86.9472	757.324	86.2693	757.324	86.6945	757.324	85.181	757.324	86.4184	757.324	83.5465	757.324	85.965	757.324	81.6803	757.324	85.0937	757.324	80.0641	757.324	83.8117	757.324	78.7462	757.324	82.1719	757.324	77.3854	757.324	80.2538	757.324	75.854	757.324	78.3241	757.324	73.7887	757.324	76.419	757.324	70.1761	757.324	75.3517	757.324	64.4531	757.324	75.6706	757.324	66.6088	757.324	75.7152	757.324	71.6794	757.324	75.9035	757.324	73.5676	757.324	75.5559	757.324	72.3581	757.324	75.6618	757.324	70.5481	757.324	75.1191	757.324	72.8415
785.156	86.1989	785.156	86.2806	785.156	85.9495	785.156	85.7431	785.156	86.2077	785.156	84.7765	785.156	86.6152	785.156	83.6729	785.156	86.4336	785.156	82.2781	785.156	85.5386	785.156	80.2965	785.156	84.0755	785.156	77.9806	785.156	82.0614	785.156	76.1135	785.156	79.6761	785.156	75.6017	785.156	76.9767	785.156	75.3187	785.156	74.5494	785.156	73.0898	785.156	74.7757	785.156	70.1782	785.156	72.3079	785.156	70.683	785.156	70.653	785.156	73.212	785.156	76.86	785.156	75.1376	785.156	77.1287	785.156	74.4929	785.156	70.4399	785.156	70.8815	785.156	67.9048	785.156	71.031
811.523	86.3828	811.523	86.2319	811.523	86.3267	811.523	85.9183	811.523	85.8782	811.523	85.3283	811.523	85.2675	811.523	84.5431	811.523	85.1104	811.523	83.5392	811.523	85.1733	811.523	81.8162	811.523	84.5478	811.523	78.7857	811.523	82.7394	811.523	74.5364	811.523	79.9195	811.523	70.4134	811.523	76.8827	811.523	69.2899	811.523	74.3933	811.523	71.4269	811.523	74.7825	811.523	72.3998	811.523	76.7714	811.523	73.0022	811.523	75.2513	811.523	75.6277	811.523	66.466	811.523	76.5917	811.523	71.7885	811.523	74.6362	811.523	72.1991	811.523	70.0779	811.523	69.4921	811.523	70.0745
840.82	86.6223	840.82	85.7401	840.82	86.6385	840.82	84.5666	840.82	86.4366	840.82	83.99	840.82	86.7549	840.82	83.8544	840.82	86.5125	840.82	83.1917	840.82	85.0951	840.82	81.7119	840.82	83.2492	840.82	79.9161	840.82	81.5659	840.82	77.8755	840.82	79.6153	840.82	75.4194	840.82	77.044	840.82	74.1049	840.82	73.5034	840.82	73.7854	840.82	69.2344	840.82	71.2969	840.82	70.3199	840.82	67.4429	840.82	73.0328	840.82	72.8146	840.82	74.8665	840.82	75.4981	840.82	74.9504	840.82	74.831	840.82	75.011	840.82	72.7499	840.82	72.7546	840.82	70.7842
870.117	85.735	870.117	85.5144	870.117	85.8818	870.117	85.0805	870.117	86.1073	870.117	84.3067	870.117	86.2777	870.117	83.2647	870.117	85.9537	870.117	82.2046	870.117	84.8992	870.117	81.0045	870.117	83.101	870.117	79.8384	870.117	80.8831	870.117	79.0023	870.117	78.8458	870.117	77.7332	870.117	77.4412	870.117	76.7266	870.117	76.4642	870.117	77.7242	870.117	74.8337	870.117	78.2639	870.117	73.1384	870.117	76.9402	870.117	70.5638	870.117	75.2205	870.117	70.2671	870.117	73.1174	870.117	70.3209	870.117	69.3982	870.117	70.8399	870.117	67.5424	870.117	72.0312	870.117	70.3918
900.879	85.1338	900.879	85.7511	900.879	84.4934	900.879	85.5855	900.879	85.5883	900.879	85.1077	900.879	86.5093	900.879	84.8971	900.879	85.676	900.879	84.266	900.879	83.838	900.879	82.6282	900.879	82.0329	900.879	79.4769	900.879	80.3818	900.879	73.5854	900.879	78.4025	900.879	68.8117	900.879	75.5008	900.879	69.4668	900.879	71.0288	900.879	70.6327	900.879	72.5039	900.879	72.708	900.879	77.0581	900.879	71.0154	900.879	77.847	900.879	71.2721	900.879	74.2107	900.879	76.3398	900.879	74.9993	900.879	75.7626	900.879	75.2093	900.879	70.6065	900.879	63.486	900.879	71.5167
933.105	85.3939	933.105	85.6953	933.105	85.63	933.105	86.0096	933.105	85.8751	933.105	85.4584	933.105	85.9033	933.105	84.0528	933.105	85.5031	933.105	82.157	933.105	84.3125	933.105	79.9654	933.105	82.1898	933.105	77.7012	933.105	79.2134	933.105	75.199	933.105	76.6466	933.105	72.4091	933.105	75.4907	933.105	69.9329	933.105	74.3516	933.105	66.624	933.105	74.0384	933.105	69.1623	933.105	70.9805	933.105	73.1063	933.105	68.991	933.105	72.5104	933.105	74.4283	933.105	73.9769	933.105	75.4646	933.105	72.5512	933.105	69.969	933.105	62.1926	933.105	63.5315	933.105	59.782
965.332	85.5964	965.332	85.4899	965.332	85.7917	965.332	85.5154	965.332	85.6859	965.332	84.9804	965.332	85.2878	965.332	83.5128	965.332	84.5608	965.332	81.5221	965.332	82.803	965.332	78.8148	965.332	79.9141	965.332	74.5931	965.332	77.3255	965.332	71.6729	965.332	75.4915	965.332	68.729	965.332	73.4448	965.332	63.4177	965.332	69.8205	965.332	66.998	965.332	68.5166	965.332	71.2149	965.332	74.3834	965.332	74.2071	965.332	74.832	965.332	73.9647	965.332	71.4961	965.332	70.7425	965.332	70.2242	965.332	70.1614	965.332	72.1599	965.332	65.7955	965.332	66.8	965.332	59.5216
1,000.49	85.2104	1,000.49	85.5	1,000.49	84.931	1,000.49	85.4654	1,000.49	84.7427	1,000.49	84.6236	1,000.49	84.5338	1,000.49	82.9327	1,000.49	83.6447	1,000.49	80.6189	1,000.49	81.9627	1,000.49	78.2461	1,000.49	79.8465	1,000.49	76.3055	1,000.49	77.8337	1,000.49	73.3875	1,000.49	75.5693	1,000.49	69.3575	1,000.49	74.1109	1,000.49	67.545	1,000.49	73.564	1,000.49	69.0666	1,000.49	70.5891	1,000.49	69.8405	1,000.49	63.2363	1,000.49	70.642	1,000.49	68.4977	1,000.49	72.3937	1,000.49	74.4134	1,000.49	72.1416	1,000.49	68.1588	1,000.49	70.8499	1,000.49	66.3803	1,000.49	62.5188	1,000.49	67.0817	1,000.49	61.3676
1,035.64	85.8144	1,035.64	85.9235	1,035.64	85.363	1,035.64	85.9937	1,035.64	84.7748	1,035.64	85.7509	1,035.64	84.5197	1,035.64	84.423	1,035.64	83.4117	1,035.64	81.5766	1,035.64	80.5818	1,035.64	77.7913	1,035.64	78.1616	1,035.64	73.806	1,035.64	77.2914	1,035.64	69.4447	1,035.64	75.5683	1,035.64	68.9728	1,035.64	73.5837	1,035.64	70.7736	1,035.64	72.9488	1,035.64	72.3193	1,035.64	70.8267	1,035.64	74.521	1,035.64	73.2985	1,035.64	73.5445	1,035.64	70.7691	1,035.64	71.8788	1,035.64	66.8167	1,035.64	71.6604	1,035.64	71.7611	1,035.64	67.1953	1,035.64	66.5649	1,035.64	65.0462	1,035.64	64.0183	1,035.64	65.8038
1,072.27	85.5979	1,072.27	86.0637	1,072.27	84.5767	1,072.27	85.9267	1,072.27	84.742	1,072.27	85.7086	1,072.27	84.7586	1,072.27	84.6066	1,072.27	83.1304	1,072.27	82.0115	1,072.27	81.6581	1,072.27	78.6734	1,072.27	80.9076	1,072.27	76.1019	1,072.27	78.7182	1,072.27	73.7575	1,072.27	74.4546	1,072.27	71.1642	1,072.27	70.319	1,072.27	69.1067	1,072.27	72.7867	1,072.27	64.005	1,072.27	71.5864	1,072.27	69.508	1,072.27	69.1757	1,072.27	73.7646	1,072.27	64.3357	1,072.27	73.5215	1,072.27	71.3916	1,072.27	71.5075	1,072.27	71.959	1,072.27	70.0847	1,072.27	70.2901	1,072.27	68.829	1,072.27	63.3551	1,072.27	63.989
1,108.89	85.8137	1,108.89	86.8647	1,108.89	85.1772	1,108.89	86.6459	1,108.89	85.3863	1,108.89	85.5271	1,108.89	84.5452	1,108.89	83.9508	1,108.89	83.4817	1,108.89	81.378	1,108.89	82.9369	1,108.89	78.4792	1,108.89	81.5537	1,108.89	76.3896	1,108.89	79.1037	1,108.89	73.8851	1,108.89	75.5989	1,108.89	70.0797	1,108.89	70.8624	1,108.89	69.0645	1,108.89	68.3826	1,108.89	69.4546	1,108.89	70.9291	1,108.89	65.1766	1,108.89	73.9126	1,108.89	66.2401	1,108.89	73.9627	1,108.89	64.0415	1,108.89	69.966	1,108.89	66.6643	1,108.89	68.8102	1,108.89	69.3811	1,108.89	67.6374	1,108.89	68.1421	1,108.89	66.9357	1,108.89	64.6088
1,148.44	86.6813	1,148.44	86.7968	1,148.44	86.0968	1,148.44	86.4867	1,148.44	85.3718	1,148.44	85.5416	1,148.44	84.5841	1,148.44	83.8658	1,148.44	83.8931	1,148.44	81.4865	1,148.44	83.6799	1,148.44	77.5966	1,148.44	82.8085	1,148.44	73.3072	1,148.44	80.3778	1,148.44	72.973	1,148.44	77.0178	1,148.44	68.8189	1,148.44	71.1567	1,148.44	64.859	1,148.44	71.4544	1,148.44	67.8868	1,148.44	72.4021	1,148.44	70.164	1,148.44	70.854	1,148.44	71.9068	1,148.44	67.8602	1,148.44	73.0232	1,148.44	73.4363	1,148.44	70.6723	1,148.44	72.1244	1,148.44	69.9856	1,148.44	68.5222	1,148.44	66.4958	1,148.44	58.9641	1,148.44	60.5429
1,189.45	87.8796	1,189.45	87.6131	1,189.45	86.6852	1,189.45	86.6927	1,189.45	85.1036	1,189.45	85.4686	1,189.45	84.66	1,189.45	82.8281	1,189.45	84.8491	1,189.45	79.3943	1,189.45	84.8908	1,189.45	77.5245	1,189.45	83.687	1,189.45	73.7319	1,189.45	80.5287	1,189.45	62.4826	1,189.45	77.6253	1,189.45	57.2931	1,189.45	74.5224	1,189.45	60.7719	1,189.45	66.8227	1,189.45	61.5101	1,189.45	68.3302	1,189.45	63.1066	1,189.45	75.6919	1,189.45	66.9991	1,189.45	75.7615	1,189.45	71.6886	1,189.45	70.1499	1,189.45	72.6237	1,189.45	72.8981	1,189.45	71.0839	1,189.45	68.1546	1,189.45	67.7306	1,189.45	69.0894	1,189.45	69.0337
1,230.47	88.475	1,230.47	87.9586	1,230.47	87.6636	1,230.47	86.3638	1,230.47	86.0832	1,230.47	84.8445	1,230.47	84.4336	1,230.47	82.7996	1,230.47	84.7383	1,230.47	79.9978	1,230.47	84.774	1,230.47	77.2791	1,230.47	83.2707	1,230.47	73.4919	1,230.47	81.3848	1,230.47	65.6608	1,230.47	78.6306	1,230.47	57.487	1,230.47	75.1965	1,230.47	63.3416	1,230.47	69.9028	1,230.47	66.3095	1,230.47	66.5434	1,230.47	69.4136	1,230.47	70.6372	1,230.47	70.7986	1,230.47	70.5818	1,230.47	70.0337	1,230.47	73.5113	1,230.47	71.0653	1,230.47	71.543	1,230.47	66.3775	1,230.47	65.6182	1,230.47	63.9297	1,230.47	63.297	1,230.47	62.8392
1,274.41	89.0036	1,274.41	88.3694	1,274.41	88.3748	1,274.41	86.3004	1,274.41	87.0651	1,274.41	84.2656	1,274.41	84.9705	1,274.41	82.0974	1,274.41	84.6137	1,274.41	79.5342	1,274.41	84.9763	1,274.41	76.4006	1,274.41	83.7509	1,274.41	72.1723	1,274.41	81.8184	1,274.41	69.3761	1,274.41	79.5004	1,274.41	69.2271	1,274.41	76.7234	1,274.41	72.3876	1,274.41	74.7876	1,274.41	73.2674	1,274.41	70.0749	1,274.41	71.3976	1,274.41	60.7136	1,274.41	74.4808	1,274.41	74.8161	1,274.41	72.7463	1,274.41	75.9987	1,274.41	69.771	1,274.41	64.6415	1,274.41	66.8589	1,274.41	70.5996	1,274.41	69.308	1,274.41	52.8268	1,274.41	66.8703
1,319.82	89.1582	1,319.82	88.577	1,319.82	88.6426	1,319.82	86.0168	1,319.82	87.1021	1,319.82	82.8334	1,319.82	84.2857	1,319.82	80.7493	1,319.82	83.6153	1,319.82	78.4566	1,319.82	84.099	1,319.82	76.3934	1,319.82	82.7069	1,319.82	74.0399	1,319.82	80.5413	1,319.82	68.7497	1,319.82	77.95	1,319.82	63.8243	1,319.82	74.8318	1,319.82	42.1934	1,319.82	73.9279	1,319.82	67.2907	1,319.82	70.4275	1,319.82	67.3091	1,319.82	72.279	1,319.82	70.8564	1,319.82	70.9532	1,319.82	73.8166	1,319.82	74.3445	1,319.82	71.587	1,319.82	69.9533	1,319.82	71.0092	1,319.82	64.4549	1,319.82	70.2525	1,319.82	67.0609	1,319.82	68.4581
1,366.7	89.1343	1,366.7	87.85	1,366.7	88.5473	1,366.7	84.1351	1,366.7	86.2883	1,366.7	81.2831	1,366.7	83.6724	1,366.7	81.3829	1,366.7	83.2921	1,366.7	81.3305	1,366.7	83.0464	1,366.7	78.6469	1,366.7	83.2971	1,366.7	76.8198	1,366.7	80.9643	1,366.7	78.327	1,366.7	76.9842	1,366.7	78.0176	1,366.7	74.4358	1,366.7	75.4751	1,366.7	69.2909	1,366.7	69.5391	1,366.7	62.3504	1,366.7	74.093	1,366.7	73.3268	1,366.7	74.4232	1,366.7	64.0278	1,366.7	73.004	1,366.7	75.6858	1,366.7	64.4629	1,366.7	72.939	1,366.7	70.5661	1,366.7	71.0958	1,366.7	69.8479	1,366.7	69.7395	1,366.7	66.037
1,413.57	88.2474	1,413.57	87.4832	1,413.57	87.4906	1,413.57	82.3484	1,413.57	84.5671	1,413.57	78.6931	1,413.57	82.5438	1,413.57	81.6174	1,413.57	83.5256	1,413.57	80.9982	1,413.57	83.4805	1,413.57	78.8353	1,413.57	84.5679	1,413.57	76.6122	1,413.57	81.8919	1,413.57	75.2029	1,413.57	77.4519	1,413.57	72.2111	1,413.57	73.7194	1,413.57	70.4763	1,413.57	73.1657	1,413.57	71.8883	1,413.57	72.5527	1,413.57	68.9193	1,413.57	70.4806	1,413.57	69.8999	1,413.57	71.7096	1,413.57	75.1813	1,413.57	70.1923	1,413.57	68.3755	1,413.57	71.2624	1,413.57	67.7042	1,413.57	67.1462	1,413.57	70.831	1,413.57	64.8888	1,413.57	68.831
1,463.38	88.4563	1,463.38	86.0251	1,463.38	86.1322	1,463.38	82.3787	1,463.38	83.6246	1,463.38	79.9081	1,463.38	82.1618	1,463.38	79.6667	1,463.38	82.7353	1,463.38	81.519	1,463.38	84.2231	1,463.38	82.7501	1,463.38	80.6658	1,463.38	82.9772	1,463.38	80.214	1,463.38	80.3669	1,463.38	79.6495	1,463.38	76.7115	1,463.38	77.5017	1,463.38	75.1	1,463.38	75.5771	1,463.38	74.3585	1,463.38	68.4387	1,463.38	74.8417	1,463.38	70.9315	1,463.38	70.8163	1,463.38	76.9648	1,463.38	73.041	1,463.38	60.0477	1,463.38	72.0086	1,463.38	74.4486	1,463.38	66.2938	1,463.38	59.757	1,463.38	66.1816	1,463.38	67.9731	1,463.38	70.2936
1,516.11	87.2221	1,516.11	84.3726	1,516.11	85.7551	1,516.11	80.5168	1,516.11	81.7607	1,516.11	77.6544	1,516.11	80.3528	1,516.11	81.2647	1,516.11	82.5131	1,516.11	82.4089	1,516.11	83.0835	1,516.11	83.0945	1,516.11	82.7099	1,516.11	80.5542	1,516.11	82.3515	1,516.11	76.9455	1,516.11	79.3152	1,516.11	74.2929	1,516.11	76.4609	1,516.11	71.5717	1,516.11	71.1026	1,516.11	74.643	1,516.11	70.0113	1,516.11	73.2314	1,516.11	69.0736	1,516.11	71.4232	1,516.11	73.271	1,516.11	68.8082	1,516.11	76.084	1,516.11	72.2517	1,516.11	55.85	1,516.11	63.9644	1,516.11	68.9977	1,516.11	63.1859	1,516.11	68.3679	1,516.11	69.482
1,568.85	86.5626	1,568.85	82.8583	1,568.85	85.2391	1,568.85	76.0709	1,568.85	80.8088	1,568.85	76.3114	1,568.85	78.7719	1,568.85	80.1162	1,568.85	78.7988	1,568.85	83.1305	1,568.85	82.8554	1,568.85	80.8549	1,568.85	83.9891	1,568.85	74.8485	1,568.85	82.2725	1,568.85	76.2907	1,568.85	77.5795	1,568.85	76.4484	1,568.85	75.5647	1,568.85	73.2175	1,568.85	74.0067	1,568.85	55.5657	1,568.85	71.7828	1,568.85	67.3686	1,568.85	74.695	1,568.85	76.1938	1,568.85	71.3991	1,568.85	76.237	1,568.85	73.2393	1,568.85	74.0082	1,568.85	70.0838	1,568.85	55.8816	1,568.85	71.5088	1,568.85	70.1445	1,568.85	69.1885	1,568.85	67.4729
1,624.51	85.3883	1,624.51	82.3149	1,624.51	84.5109	1,624.51	69.8386	1,624.51	80.332	1,624.51	74.5823	1,624.51	72.405	1,624.51	77.7711	1,624.51	80.2043	1,624.51	81.9735	1,624.51	82.3993	1,624.51	81.392	1,624.51	84.1755	1,624.51	78.7146	1,624.51	81.9685	1,624.51	71.7738	1,624.51	78.771	1,624.51	67.8742	1,624.51	77.547	1,624.51	70.3194	1,624.51	75.0487	1,624.51	74.6871	1,624.51	73.7043	1,624.51	71.7675	1,624.51	61.2154	1,624.51	73.6198	1,624.51	75.2345	1,624.51	67.6697	1,624.51	67.4523	1,624.51	68.8533	1,624.51	70.3807	1,624.51	68.5423	1,624.51	65.7875	1,624.51	63.5251	1,624.51	72.6148	1,624.51	70.6212
1,681.64	85.6995	1,681.64	82.1722	1,681.64	84.9877	1,681.64	71.292	1,681.64	80.5859	1,681.64	75.9229	1,681.64	71.6796	1,681.64	81.1025	1,681.64	76.5168	1,681.64	81.1683	1,681.64	82.1999	1,681.64	79.5683	1,681.64	84.0288	1,681.64	78.5932	1,681.64	81.5812	1,681.64	73.4879	1,681.64	78.2175	1,681.64	67.4787	1,681.64	69.1054	1,681.64	64.5904	1,681.64	73.4412	1,681.64	67.3062	1,681.64	70.0245	1,681.64	69.3227	1,681.64	71.9576	1,681.64	71.7536	1,681.64	71.7629	1,681.64	71.1392	1,681.64	69.7421	1,681.64	69.1127	1,681.64	63.5053	1,681.64	63.3757	1,681.64	62.2201	1,681.64	54.5687	1,681.64	66.5528	1,681.64	67.2952
1,741.7	85.8739	1,741.7	83.0608	1,741.7	85.0067	1,741.7	71.0231	1,741.7	79.7939	1,741.7	77.8531	1,741.7	68.063	1,741.7	81.3963	1,741.7	76.8133	1,741.7	81.5056	1,741.7	81.1125	1,741.7	80.9274	1,741.7	83.8657	1,741.7	78.3895	1,741.7	81.909	1,741.7	78.2189	1,741.7	76.8697	1,741.7	78.6251	1,741.7	74.18	1,741.7	76.998	1,741.7	54.2572	1,741.7	69.2994	1,741.7	67.7818	1,741.7	65.6567	1,741.7	69.363	1,741.7	72.2751	1,741.7	73.5702	1,741.7	73.5062	1,741.7	68.277	1,741.7	73.358	1,741.7	67.4685	1,741.7	64.5608	1,741.7	62.6488	1,741.7	58.8122	1,741.7	60.0265	1,741.7	66.939
1,803.22	85.2172	1,803.22	83.9354	1,803.22	84.0046	1,803.22	72.7338	1,803.22	79.1463	1,803.22	77.0675	1,803.22	67.2843	1,803.22	81.4628	1,803.22	77.8661	1,803.22	82.1038	1,803.22	82.6543	1,803.22	81.4073	1,803.22	82.2549	1,803.22	79.7786	1,803.22	82.5308	1,803.22	74.966	1,803.22	77.9638	1,803.22	72.1804	1,803.22	67.8373	1,803.22	66.0794	1,803.22	70.2209	1,803.22	70.791	1,803.22	63.2158	1,803.22	69.3687	1,803.22	68.865	1,803.22	69.6908	1,803.22	70.4923	1,803.22	71.6458	1,803.22	63.0217	1,803.22	69.4412	1,803.22	62.503	1,803.22	63.9442	1,803.22	59.0297	1,803.22	59.3505	1,803.22	63.5465	1,803.22	68.1635
1,866.21	84.8636	1,866.21	82.97	1,866.21	82.9884	1,866.21	70.0067	1,866.21	77.0815	1,866.21	77.4066	1,866.21	72.9255	1,866.21	82.0577	1,866.21	81.0011	1,866.21	82.6862	1,866.21	81.9318	1,866.21	80.8771	1,866.21	83.0217	1,866.21	79.1036	1,866.21	79.2075	1,866.21	75.3341	1,866.21	77.2639	1,866.21	73.2313	1,866.21	74.7168	1,866.21	73.9721	1,866.21	65.8909	1,866.21	69.486	1,866.21	66.8989	1,866.21	70.7112	1,866.21	63.0983	1,866.21	69.5936	1,866.21	65.5334	1,866.21	67.3519	1,866.21	64.7918	1,866.21	67.1353	1,866.21	54.9645	1,866.21	61.5861	1,866.21	61.2124	1,866.21	62.8745	1,866.21	65.1867	1,866.21	68.6694
1,932.13	84.6609	1,932.13	82.3415	1,932.13	82.0676	1,932.13	71.1086	1,932.13	74.5118	1,932.13	78.607	1,932.13	74.2187	1,932.13	82.9455	1,932.13	81.9863	1,932.13	81.9706	1,932.13	82.7569	1,932.13	81.0227	1,932.13	81.5188	1,932.13	77.3547	1,932.13	80.56	1,932.13	76.7028	1,932.13	75.4844	1,932.13	71.5618	1,932.13	61.5576	1,932.13	68.1108	1,932.13	68.3386	1,932.13	66.1029	1,932.13	66.066	1,932.13	62.4996	1,932.13	69.9073	1,932.13	68.0876	1,932.13	67.0595	1,932.13	73.4004	1,932.13	70.0684	1,932.13	70.1265	1,932.13	63.8176	1,932.13	66.1968	1,932.13	62.5166	1,932.13	55.7127	1,932.13	67.2543	1,932.13	64.4223
1,999.51	85.3137	1,999.51	81.6621	1,999.51	83.2047	1,999.51	65.1923	1,999.51	69.573	1,999.51	80.2168	1,999.51	79.9557	1,999.51	83.8025	1,999.51	84.144	1,999.51	83.0787	1,999.51	82.0828	1,999.51	80.7562	1,999.51	81.519	1,999.51	77.681	1,999.51	78.7572	1,999.51	74.458	1,999.51	77.1561	1,999.51	74.2603	1,999.51	73.2933	1,999.51	70.1772	1,999.51	69.4504	1,999.51	69.3854	1,999.51	67.1211	1,999.51	66.5278	1,999.51	65.3778	1,999.51	65.8225	1,999.51	65.8356	1,999.51	68.7726	1,999.51	62.6756	1,999.51	69.9486	1,999.51	58.7522	1,999.51	63.2159	1,999.51	63.7891	1,999.51	63.6321	1,999.51	64.5182	1,999.51	67.0699
2,069.82	86.4105	2,069.82	81.9076	2,069.82	84.6514	2,069.82	66.704	2,069.82	74.8244	2,069.82	80.8208	2,069.82	80.7158	2,069.82	84.0666	2,069.82	85.9759	2,069.82	82.538	2,069.82	83.0911	2,069.82	78.7957	2,069.82	79.7099	2,069.82	77.6488	2,069.82	81.1444	2,069.82	76.0515	2,069.82	77.0312	2,069.82	73.1272	2,069.82	67.4688	2,069.82	71.4518	2,069.82	71.823	2,069.82	65.5182	2,069.82	71.7777	2,069.82	65.1953	2,069.82	69.7852	2,069.82	68.107	2,069.82	63.4267	2,069.82	68.9394	2,069.82	64.84	2,069.82	67.9217	2,069.82	66.5115	2,069.82	59.6267	2,069.82	66.5895	2,069.82	60.2531	2,069.82	61.1355	2,069.82	64.6608
2,143.07	87.2911	2,143.07	81.3098	2,143.07	86.6512	2,143.07	70.9523	2,143.07	74.7619	2,143.07	82.6252	2,143.07	81.7199	2,143.07	83.8274	2,143.07	86.9101	2,143.07	81.6396	2,143.07	83.4061	2,143.07	80.4177	2,143.07	77.2198	2,143.07	78.409	2,143.07	81.3701	2,143.07	73.4949	2,143.07	79.8965	2,143.07	73.7619	2,143.07	70.6655	2,143.07	68.2406	2,143.07	75.6405	2,143.07	71.9769	2,143.07	70.7982	2,143.07	67.0104	2,143.07	68.5806	2,143.07	67.8682	2,143.07	64.3689	2,143.07	69.3414	2,143.07	66.7307	2,143.07	68.794	2,143.07	65.6504	2,143.07	61.4747	2,143.07	66.6881	2,143.07	59.0165	2,143.07	63.1733	2,143.07	65.0952
2,219.24	87.1468	2,219.24	81.7073	2,219.24	87.5799	2,219.24	73.5707	2,219.24	76.9524	2,219.24	83.6492	2,219.24	82.5072	2,219.24	82.9166	2,219.24	86.9996	2,219.24	83.8541	2,219.24	83.9243	2,219.24	80.0776	2,219.24	75.2425	2,219.24	77.5628	2,219.24	82.7558	2,219.24	75.3802	2,219.24	78.2717	2,219.24	72.2287	2,219.24	73.8343	2,219.24	70.872	2,219.24	76.6553	2,219.24	68.5757	2,219.24	69.3913	2,219.24	61.8949	2,219.24	68.7119	2,219.24	69.065	2,219.24	62.8676	2,219.24	68.4533	2,219.24	65.5087	2,219.24	66.8633	2,219.24	68.5421	2,219.24	64.4446	2,219.24	67.6347	2,219.24	56.1523	2,219.24	61.3935	2,219.24	62.953
2,296.88	86.1931	2,296.88	80.3544	2,296.88	87.2656	2,296.88	76.8506	2,296.88	78.9928	2,296.88	83.6729	2,296.88	83.0625	2,296.88	84.0039	2,296.88	86.9499	2,296.88	82.3531	2,296.88	84.3745	2,296.88	81.4146	2,296.88	71.3524	2,296.88	77.1422	2,296.88	82.2786	2,296.88	78.5671	2,296.88	78.7226	2,296.88	74.5433	2,296.88	74.433	2,296.88	72.0965	2,296.88	75.2609	2,296.88	71.5509	2,296.88	69.5143	2,296.88	68.7703	2,296.88	65.1581	2,296.88	67.1941	2,296.88	65.4735	2,296.88	69.0441	2,296.88	62.9218	2,296.88	69.8209	2,296.88	67.5575	2,296.88	66.3255	2,296.88	67.4223	2,296.88	56.9229	2,296.88	67.2704	2,296.88	63.9546
2,378.91	86.0687	2,378.91	77.305	2,378.91	87.5951	2,378.91	78.4446	2,378.91	77.2139	2,378.91	84.6105	2,378.91	84.7166	2,378.91	84.4029	2,378.91	88.4511	2,378.91	83.5881	2,378.91	83.2323	2,378.91	81.0789	2,378.91	73.4508	2,378.91	79.925	2,378.91	81.9403	2,378.91	76.3411	2,378.91	81.9872	2,378.91	71.603	2,378.91	73.1247	2,378.91	71.2352	2,378.91	76.6194	2,378.91	72.5072	2,378.91	70.392	2,378.91	67.8265	2,378.91	66.1951	2,378.91	69.2574	2,378.91	66.1358	2,378.91	69.1418	2,378.91	63.1416	2,378.91	70.1408	2,378.91	68.9178	2,378.91	67.3903	2,378.91	63.8384	2,378.91	58.9153	2,378.91	63.761	2,378.91	62.3886
2,462.4	88.0721	2,462.4	76.681	2,462.4	88.4818	2,462.4	81.8368	2,462.4	75.5736	2,462.4	85.2587	2,462.4	86.3616	2,462.4	85.6289	2,462.4	88.5023	2,462.4	81.7928	2,462.4	82.478	2,462.4	82.2792	2,462.4	74.1278	2,462.4	78.6678	2,462.4	82.0475	2,462.4	80.1408	2,462.4	82.6275	2,462.4	77.2306	2,462.4	68.7537	2,462.4	74.719	2,462.4	78.9185	2,462.4	70.0743	2,462.4	70.2664	2,462.4	70.8465	2,462.4	66.7902	2,462.4	68.4031	2,462.4	53.8295	2,462.4	70.0304	2,462.4	60.1845	2,462.4	71.3122	2,462.4	68.9549	2,462.4	66.8514	2,462.4	62.9287	2,462.4	59.228	2,462.4	66.9277	2,462.4	65.8874
2,548.83	89.1661	2,548.83	75.3918	2,548.83	90.45	2,548.83	81.9077	2,548.83	77.3867	2,548.83	86.5921	2,548.83	85.3113	2,548.83	86.4187	2,548.83	87.8611	2,548.83	84.3142	2,548.83	82.3318	2,548.83	82.0401	2,548.83	73.1314	2,548.83	80.3394	2,548.83	82.9647	2,548.83	75.2096	2,548.83	80.1082	2,548.83	74.5026	2,548.83	75.8248	2,548.83	70.0149	2,548.83	78.9265	2,548.83	70.4885	2,548.83	73.6793	2,548.83	69.7517	2,548.83	66.9465	2,548.83	65.9953	2,548.83	62.7312	2,548.83	67.8373	2,548.83	61.9882	2,548.83	69.7727	2,548.83	70.3179	2,548.83	67.908	2,548.83	61.4893	2,548.83	57.1638	2,548.83	60.7718	2,548.83	51.6601
2,639.65	87.8802	2,639.65	71.4888	2,639.65	91.1929	2,639.65	84.6053	2,639.65	80.8433	2,639.65	87.8136	2,639.65	85.346	2,639.65	85.8939	2,639.65	87.6124	2,639.65	84.4855	2,639.65	81.0517	2,639.65	81.4167	2,639.65	72.8663	2,639.65	76.6203	2,639.65	83.4856	2,639.65	76.7017	2,639.65	81.6584	2,639.65	70.3025	2,639.65	75.299	2,639.65	70.2924	2,639.65	80.8496	2,639.65	69.1092	2,639.65	72.715	2,639.65	67.7406	2,639.65	67.6786	2,639.65	67.1778	2,639.65	63.2483	2,639.65	67.2162	2,639.65	66.2626	2,639.65	67.648	2,639.65	70.8694	2,639.65	68.2677	2,639.65	64.608	2,639.65	55.6817	2,639.65	61.0992	2,639.65	65.6613
2,731.93	86.1991	2,731.93	67.8258	2,731.93	90.2141	2,731.93	86.6686	2,731.93	82.463	2,731.93	87.8435	2,731.93	85.7653	2,731.93	85.6269	2,731.93	87.5892	2,731.93	83.8991	2,731.93	81.5717	2,731.93	80.6556	2,731.93	71.5323	2,731.93	77.0133	2,731.93	82.5392	2,731.93	76.4921	2,731.93	83.3789	2,731.93	75.3736	2,731.93	75.062	2,731.93	71.9241	2,731.93	79.2575	2,731.93	69.8582	2,731.93	70.4908	2,731.93	70.7393	2,731.93	62.391	2,731.93	66.6886	2,731.93	58.9071	2,731.93	68.0183	2,731.93	69.1139	2,731.93	67.6266	2,731.93	72.2015	2,731.93	66.612	2,731.93	63.8705	2,731.93	60.012	2,731.93	58.1409	2,731.93	60.7593
2,828.61	84.6486	2,828.61	77.0689	2,828.61	89.3958	2,828.61	87.9928	2,828.61	81.0991	2,828.61	88.1278	2,828.61	85.5531	2,828.61	84.7119	2,828.61	86.9164	2,828.61	82.2014	2,828.61	82.7442	2,828.61	80.4856	2,828.61	72.6916	2,828.61	79.6158	2,828.61	82.7472	2,828.61	76.273	2,828.61	85.4562	2,828.61	75.0135	2,828.61	77.7833	2,828.61	71.0365	2,828.61	77.1649	2,828.61	70.1352	2,828.61	65.5777	2,828.61	70.8179	2,828.61	62.9397	2,828.61	68.7255	2,828.61	61.4636	2,828.61	72.5785	2,828.61	65.2039	2,828.61	69.8856	2,828.61	68.186	2,828.61	67.9742	2,828.61	61.2372	2,828.61	61.6707	2,828.61	55.6688	2,828.61	60.8047
2,928.22	83.1767	2,928.22	82.9188	2,928.22	89.8928	2,928.22	89.0596	2,928.22	82.2422	2,928.22	87.403	2,928.22	84.2161	2,928.22	85.4074	2,928.22	86.2844	2,928.22	82.7231	2,928.22	82.4408	2,928.22	83.1286	2,928.22	74.6659	2,928.22	81.7148	2,928.22	82.644	2,928.22	80.5789	2,928.22	85.3506	2,928.22	76.9749	2,928.22	67.2461	2,928.22	76.6494	2,928.22	77.4723	2,928.22	71.8056	2,928.22	69.1821	2,928.22	72.4331	2,928.22	62.4651	2,928.22	71.7247	2,928.22	65.3065	2,928.22	73.714	2,928.22	67.328	2,928.22	72.9406	2,928.22	69.9105	2,928.22	69.5333	2,928.22	62.8762	2,928.22	62.5931	2,928.22	57.8846	2,928.22	49.5889
3,030.76	84.3636	3,030.76	85.6882	3,030.76	89.9879	3,030.76	88.8733	3,030.76	83.5606	3,030.76	86.66	3,030.76	82.6558	3,030.76	84.5983	3,030.76	85.7937	3,030.76	85.0727	3,030.76	83.5875	3,030.76	83.7684	3,030.76	78.9053	3,030.76	82.432	3,030.76	81.8254	3,030.76	80.2601	3,030.76	85.7585	3,030.76	78.6128	3,030.76	70.0187	3,030.76	74.2495	3,030.76	72.3898	3,030.76	71.5005	3,030.76	75.6714	3,030.76	71.5569	3,030.76	52.3212	3,030.76	70.2596	3,030.76	65.4139	3,030.76	73.4132	3,030.76	65.2182	3,030.76	74.0179	3,030.76	66.803	3,030.76	68.0006	3,030.76	62.7554	3,030.76	66.889	3,030.76	59.406	3,030.76	52.3403
3,137.7	85.0889	3,137.7	85.1236	3,137.7	90.6605	3,137.7	87.7972	3,137.7	84.3536	3,137.7	85.5618	3,137.7	82.8228	3,137.7	84.4246	3,137.7	84.9969	3,137.7	85.1816	3,137.7	83.6067	3,137.7	83.5626	3,137.7	77.7318	3,137.7	81.3567	3,137.7	81.7277	3,137.7	79.4273	3,137.7	84.1902	3,137.7	77.2977	3,137.7	76.0506	3,137.7	72.4067	3,137.7	72.0091	3,137.7	71.7456	3,137.7	67.5807	3,137.7	69.277	3,137.7	62.5951	3,137.7	68.1994	3,137.7	65.6711	3,137.7	72.1183	3,137.7	61.6464	3,137.7	71.4939	3,137.7	66.1786	3,137.7	69.6339	3,137.7	56.848	3,137.7	56.2993	3,137.7	57.0785	3,137.7	61.0233
3,249.02	83.0485	3,249.02	85.7039	3,249.02	90.6518	3,249.02	87.6153	3,249.02	83.7243	3,249.02	85.1741	3,249.02	85.6216	3,249.02	84.0808	3,249.02	84.4959	3,249.02	84.2924	3,249.02	83.1241	3,249.02	83.8082	3,249.02	79.5619	3,249.02	80.471	3,249.02	83.4688	3,249.02	77.5373	3,249.02	83.9585	3,249.02	73.1841	3,249.02	78.5449	3,249.02	71.5587	3,249.02	73.5632	3,249.02	66.8167	3,249.02	71.0952	3,249.02	68.8346	3,249.02	63.2077	3,249.02	65.0702	3,249.02	67.7154	3,249.02	71.119	3,249.02	53.757	3,249.02	72.4045	3,249.02	65.2045	3,249.02	66.5948	3,249.02	49.7305	3,249.02	61.5904	3,249.02	54.0593	3,249.02	57.415
3,363.28	82.535	3,363.28	87.4541	3,363.28	90.6074	3,363.28	86.7776	3,363.28	84.2494	3,363.28	83.2189	3,363.28	86.3623	3,363.28	85.5084	3,363.28	84.3077	3,363.28	85.618	3,363.28	82.2731	3,363.28	83.9551	3,363.28	82.0944	3,363.28	81.1429	3,363.28	85.2622	3,363.28	79.458	3,363.28	83.8065	3,363.28	74.723	3,363.28	80.9884	3,363.28	73.4983	3,363.28	76.7636	3,363.28	68.7094	3,363.28	55.7881	3,363.28	69.0618	3,363.28	60.2451	3,363.28	67.967	3,363.28	64.0362	3,363.28	69.3391	3,363.28	57.3379	3,363.28	72.5355	3,363.28	61.2033	3,363.28	68.8289	3,363.28	59.4774	3,363.28	63.5202	3,363.28	58.5456	3,363.28	39.7962
3,481.93	82.6514	3,481.93	88.8355	3,481.93	90.8993	3,481.93	86.4909	3,481.93	84.7737	3,481.93	83.5698	3,481.93	86.3425	3,481.93	86.6676	3,481.93	85.773	3,481.93	86.3865	3,481.93	84.7208	3,481.93	83.3872	3,481.93	85.5249	3,481.93	81.7677	3,481.93	84.5245	3,481.93	78.0063	3,481.93	83.6053	3,481.93	76.1437	3,481.93	81.439	3,481.93	74.1402	3,481.93	72.747	3,481.93	69.4393	3,481.93	68.9553	3,481.93	69.5836	3,481.93	63.0361	3,481.93	69.2453	3,481.93	63.9859	3,481.93	66.3461	3,481.93	61.0301	3,481.93	71.9672	3,481.93	59.4589	3,481.93	70.6091	3,481.93	61.4077	3,481.93	57.7713	3,481.93	60.2396	3,481.93	51.3048
3,604.98	83.8799	3,604.98	89.7294	3,604.98	90.1731	3,604.98	86.6226	3,604.98	85.7521	3,604.98	85.9173	3,604.98	87.3991	3,604.98	86.8543	3,604.98	87.0638	3,604.98	86.3699	3,604.98	86.1281	3,604.98	83.7937	3,604.98	85.9075	3,604.98	80.8189	3,604.98	83.3379	3,604.98	78.5241	3,604.98	83.1937	3,604.98	76.334	3,604.98	79.4457	3,604.98	71.9377	3,604.98	67.1136	3,604.98	70.4804	3,604.98	64.9132	3,604.98	69.0044	3,604.98	60.6582	3,604.98	69.0424	3,604.98	61.7557	3,604.98	67.9313	3,604.98	57.9838	3,604.98	72.2811	3,604.98	54.8347	3,604.98	70.0979	3,604.98	59.0329	3,604.98	53.6506	3,604.98	57.7903	3,604.98	50.5076
3,732.42	85.722	3,732.42	89.3676	3,732.42	89.9929	3,732.42	85.3481	3,732.42	84.755	3,732.42	86.4921	3,732.42	87.3055	3,732.42	86.397	3,732.42	88.2899	3,732.42	85.9223	3,732.42	87.3447	3,732.42	83.6557	3,732.42	86.8513	3,732.42	80.9532	3,732.42	81.3142	3,732.42	79.0061	3,732.42	78.5814	3,732.42	78.2767	3,732.42	76.5258	3,732.42	73.4212	3,732.42	69.1684	3,732.42	71.702	3,732.42	65.036	3,732.42	68.807	3,732.42	58.9792	3,732.42	69.7326	3,732.42	53.7882	3,732.42	67.8074	3,732.42	60.4204	3,732.42	71.7794	3,732.42	54.0278	3,732.42	70.7378	3,732.42	59.0512	3,732.42	61.3063	3,732.42	50.1721	3,732.42	58.2971
3,864.26	86.1893	3,864.26	89.6344	3,864.26	90.3149	3,864.26	85.8862	3,864.26	86.745	3,864.26	86.0609	3,864.26	87.4936	3,864.26	86.8682	3,864.26	87.7977	3,864.26	86.1528	3,864.26	87.0794	3,864.26	83.5856	3,864.26	84.8268	3,864.26	82.6633	3,864.26	77.4499	3,864.26	78.6913	3,864.26	73.6714	3,864.26	76.5606	3,864.26	71.4735	3,864.26	72.9166	3,864.26	69.2977	3,864.26	70.2271	3,864.26	57.2363	3,864.26	68.4024	3,864.26	56.6403	3,864.26	69.5939	3,864.26	61.8345	3,864.26	69.4445	3,864.26	54.2207	3,864.26	71.17	3,864.26	56.5019	3,864.26	70.5348	3,864.26	56.319	3,864.26	64.2308	3,864.26	53.7747	3,864.26	59.5329
4,000.49	86.2952	4,000.49	89.0824	4,000.49	88.8711	4,000.49	86.0723	4,000.49	86.6886	4,000.49	85.0108	4,000.49	87.9566	4,000.49	86.8409	4,000.49	87.2596	4,000.49	85.6044	4,000.49	86.7484	4,000.49	84.6706	4,000.49	84.2323	4,000.49	82.4476	4,000.49	75.0417	4,000.49	80.3807	4,000.49	71.9016	4,000.49	77.5366	4,000.49	71.2669	4,000.49	71.7447	4,000.49	62.7437	4,000.49	71.6054	4,000.49	59.4739	4,000.49	66.4897	4,000.49	61.8041	4,000.49	71.1368	4,000.49	62.0863	4,000.49	69.6624	4,000.49	62.8895	4,000.49	71.576	4,000.49	60.1411	4,000.49	70.3627	4,000.49	49.4995	4,000.49	64.1433	4,000.49	57.0859	4,000.49	60.5975
4,141.11	86.5911	4,141.11	89.1964	4,141.11	87.259	4,141.11	86.4292	4,141.11	85.6259	4,141.11	85.6399	4,141.11	88.634	4,141.11	86.5654	4,141.11	85.2444	4,141.11	86.3277	4,141.11	85.951	4,141.11	84.137	4,141.11	83.8847	4,141.11	83.2326	4,141.11	71.625	4,141.11	78.3489	4,141.11	75.5065	4,141.11	78.7408	4,141.11	75.1582	4,141.11	73.8961	4,141.11	73.6027	4,141.11	72.9918	4,141.11	55.3997	4,141.11	68.3349	4,141.11	61.1582	4,141.11	71.0807	4,141.11	56.7213	4,141.11	68.5928	4,141.11	62.7736	4,141.11	70.9807	4,141.11	57.9481	4,141.11	69.4736	4,141.11	53.0714	4,141.11	65.5369	4,141.11	49.5479	4,141.11	62.85
4,287.6	86.577	4,287.6	89.0549	4,287.6	86.4379	4,287.6	85.8392	4,287.6	86.5801	4,287.6	85.6994	4,287.6	88.7549	4,287.6	86.4135	4,287.6	87.2679	4,287.6	86.2594	4,287.6	83.4623	4,287.6	84.6319	4,287.6	84.7179	4,287.6	82.6363	4,287.6	76.3646	4,287.6	79.2896	4,287.6	79.9731	4,287.6	75.0231	4,287.6	71.973	4,287.6	72.5142	4,287.6	69.7496	4,287.6	70.6843	4,287.6	47.2642	4,287.6	65.3525	4,287.6	65.4356	4,287.6	68.8274	4,287.6	57.4084	4,287.6	67.0697	4,287.6	57.768	4,287.6	70.2614	4,287.6	56.6939	4,287.6	68.987	4,287.6	48.8033	4,287.6	63.7155	4,287.6	52.2406	4,287.6	64.0639
4,438.48	85.9451	4,438.48	88.4678	4,438.48	84.7602	4,438.48	86.3017	4,438.48	86.3715	4,438.48	85.46	4,438.48	88.2268	4,438.48	85.7227	4,438.48	87.4831	4,438.48	86.7872	4,438.48	81.6042	4,438.48	84.1196	4,438.48	83.7674	4,438.48	82.4796	4,438.48	76.5326	4,438.48	80.6023	4,438.48	83.0859	4,438.48	75.4898	4,438.48	74.9977	4,438.48	70.0981	4,438.48	72.7412	4,438.48	66.5537	4,438.48	61.3358	4,438.48	63.449	4,438.48	62.8337	4,438.48	70.1074	4,438.48	61.065	4,438.48	68.8766	4,438.48	57.9026	4,438.48	72.0699	4,438.48	58.8097	4,438.48	69.2468	4,438.48	54.0544	4,438.48	61.1571	4,438.48	50.3987	4,438.48	63.5042
4,595.21	85.7119	4,595.21	86.6364	4,595.21	83.2118	4,595.21	84.774	4,595.21	85.9981	4,595.21	85.5185	4,595.21	86.884	4,595.21	85.6021	4,595.21	87.847	4,595.21	86.4005	4,595.21	82.1076	4,595.21	83.7479	4,595.21	81.9876	4,595.21	81.496	4,595.21	82.6092	4,595.21	77.1225	4,595.21	84.0389	4,595.21	75.707	4,595.21	81.174	4,595.21	71.7249	4,595.21	73.3386	4,595.21	68.3728	4,595.21	60.4481	4,595.21	65.7422	4,595.21	56.8901	4,595.21	69.1423	4,595.21	59.6271	4,595.21	66.3415	4,595.21	63.5887	4,595.21	67.7411	4,595.21	56.246	4,595.21	64.9016	4,595.21	57.5314	4,595.21	48.5128	4,595.21	46.146	4,595.21	56.4976
4,756.35	86.2576	4,756.35	86.9082	4,756.35	83.2108	4,756.35	85.7673	4,756.35	84.8674	4,756.35	84.5716	4,756.35	87.2436	4,756.35	86.7865	4,756.35	85.9541	4,756.35	85.3997	4,756.35	84.645	4,756.35	83.5507	4,756.35	83.5762	4,756.35	79.2648	4,756.35	84.4078	4,756.35	75.5866	4,756.35	80.9061	4,756.35	74.2587	4,756.35	78.5872	4,756.35	71.2896	4,756.35	72.6478	4,756.35	68.5137	4,756.35	60.9419	4,756.35	64.1515	4,756.35	58.0194	4,756.35	65.1246	4,756.35	57.5448	4,756.35	66.111	4,756.35	64.6089	4,756.35	69.771	4,756.35	49.196	4,756.35	67.3733	4,756.35	48.3104	4,756.35	55.5377	4,756.35	49.0438	4,756.35	58.5379
4,924.8	86.9196	4,924.8	85.2337	4,924.8	86.0864	4,924.8	85.1609	4,924.8	83.9127	4,924.8	84.9306	4,924.8	86.7342	4,924.8	85.5352	4,924.8	86.2373	4,924.8	84.9152	4,924.8	84.9187	4,924.8	81.0449	4,924.8	86.5152	4,924.8	79.9242	4,924.8	83.1619	4,924.8	75.775	4,924.8	77.1357	4,924.8	73.6945	4,924.8	73.0187	4,924.8	65.7872	4,924.8	74.8726	4,924.8	63.7265	4,924.8	60.4787	4,924.8	61.2561	4,924.8	53.7318	4,924.8	65.2369	4,924.8	57.9124	4,924.8	66.7286	4,924.8	61.6059	4,924.8	71.0895	4,924.8	56.8717	4,924.8	68.0908	4,924.8	53.4633	4,924.8	49.5387	4,924.8	44.9531	4,924.8	56.3306
5,097.66	86.3317	5,097.66	86.288	5,097.66	87.2088	5,097.66	85.3752	5,097.66	86.0545	5,097.66	84.4824	5,097.66	85.5287	5,097.66	84.9516	5,097.66	87.0156	5,097.66	84.1225	5,097.66	84.0162	5,097.66	81.7438	5,097.66	87.2746	5,097.66	78.8673	5,097.66	81.4106	5,097.66	76.7103	5,097.66	78.9814	5,097.66	72.7888	5,097.66	65.6932	5,097.66	72.5792	5,097.66	73.5296	5,097.66	65.5584	5,097.66	65.2741	5,097.66	64.983	5,097.66	55.9955	5,097.66	68.4172	5,097.66	58.5554	5,097.66	66.3418	5,097.66	63.7412	5,097.66	69.8147	5,097.66	59.7107	5,097.66	64.4553	5,097.66	44.9582	5,097.66	57.1711	5,097.66	47.4384	5,097.66	59.7796
5,277.83	86.8411	5,277.83	85.7983	5,277.83	87.972	5,277.83	85.8623	5,277.83	86.2433	5,277.83	83.1936	5,277.83	83.0007	5,277.83	83.6236	5,277.83	86.2445	5,277.83	82.3139	5,277.83	86.2394	5,277.83	82.4574	5,277.83	87.1574	5,277.83	80.1267	5,277.83	81.8077	5,277.83	77.2858	5,277.83	81.8595	5,277.83	75.9496	5,277.83	77.8287	5,277.83	70.2457	5,277.83	71.3779	5,277.83	64.6174	5,277.83	62.3931	5,277.83	64.3307	5,277.83	63.565	5,277.83	66.4162	5,277.83	62.5395	5,277.83	67.4049	5,277.83	65.7901	5,277.83	69.9039	5,277.83	60.2516	5,277.83	65.8211	5,277.83	60.192	5,277.83	58.949	5,277.83	55.1572	5,277.83	59.9974
5,463.87	87.2204	5,463.87	86.3962	5,463.87	88.2718	5,463.87	86.6535	5,463.87	86.4837	5,463.87	82.6867	5,463.87	83.1896	5,463.87	81.5079	5,463.87	86.4469	5,463.87	83.2877	5,463.87	86.6775	5,463.87	82.0057	5,463.87	84.8977	5,463.87	81.056	5,463.87	83.2073	5,463.87	77.9908	5,463.87	82.5082	5,463.87	74.6367	5,463.87	73.771	5,463.87	69.3482	5,463.87	76.3207	5,463.87	64.87	5,463.87	40.4031	5,463.87	62.5391	5,463.87	63.7844	5,463.87	65.0373	5,463.87	62.7197	5,463.87	66.6079	5,463.87	64.0451	5,463.87	69.7583	5,463.87	60.3956	5,463.87	67.9299	5,463.87	61.7958	5,463.87	59.2768	5,463.87	58.5652	5,463.87	62.2453
5,657.23	87.0417	5,657.23	86.3663	5,657.23	88.6706	5,657.23	86.9381	5,657.23	85.7814	5,657.23	81.437	5,657.23	83.3846	5,657.23	81.2923	5,657.23	87.5709	5,657.23	82.6328	5,657.23	86.762	5,657.23	82.7167	5,657.23	82.7448	5,657.23	81.1392	5,657.23	83.0292	5,657.23	77.6497	5,657.23	77.7538	5,657.23	74.0625	5,657.23	69.477	5,657.23	71.1526	5,657.23	73.455	5,657.23	66.5865	5,657.23	64.5237	5,657.23	61.2416	5,657.23	46.8652	5,657.23	60.8508	5,657.23	57.1881	5,657.23	65.8783	5,657.23	64.3489	5,657.23	69.0538	5,657.23	58.8311	5,657.23	67.1172	5,657.23	56.5865	5,657.23	46.2032	5,657.23	41.8088	5,657.23	62.797
5,856.45	86.1247	5,856.45	85.5972	5,856.45	88.3535	5,856.45	85.7381	5,856.45	87.5669	5,856.45	81.5045	5,856.45	85.0617	5,856.45	80.9653	5,856.45	87.6044	5,856.45	82.7807	5,856.45	86.805	5,856.45	82.5147	5,856.45	85.5249	5,856.45	80.514	5,856.45	83.5095	5,856.45	76.8506	5,856.45	75.0264	5,856.45	74.5963	5,856.45	77.0248	5,856.45	69.2166	5,856.45	58.3683	5,856.45	63.1199	5,856.45	64.2276	5,856.45	63.6114	5,856.45	60.7245	5,856.45	64.4688	5,856.45	56.0742	5,856.45	66.057	5,856.45	61.2963	5,856.45	68.1345	5,856.45	53.9819	5,856.45	67.0082	5,856.45	57.6391	5,856.45	44.7948	5,856.45	56.7071	5,856.45	61.6897
6,062.99	85.9635	6,062.99	84.9449	6,062.99	87.5153	6,062.99	85.7809	6,062.99	86.5778	6,062.99	82.282	6,062.99	86.67	6,062.99	81.8337	6,062.99	86.9863	6,062.99	83.1555	6,062.99	86.3537	6,062.99	81.8741	6,062.99	85.8583	6,062.99	79.8466	6,062.99	83.5409	6,062.99	75.5857	6,062.99	73.2069	6,062.99	70.6739	6,062.99	75.2461	6,062.99	65.6383	6,062.99	65.1094	6,062.99	64.024	6,062.99	63.6053	6,062.99	62.4428	6,062.99	63.5879	6,062.99	61.736	6,062.99	58.7828	6,062.99	63.9974	6,062.99	50.2898	6,062.99	65.1035	6,062.99	57.9204	6,062.99	64.4435	6,062.99	54.45	6,062.99	60.4795	6,062.99	52.766	6,062.99	56.0706
6,276.86	85.0528	6,276.86	85.2961	6,276.86	87.5959	6,276.86	84.8706	6,276.86	87.879	6,276.86	83.7023	6,276.86	85.526	6,276.86	83.4056	6,276.86	85.1956	6,276.86	82.212	6,276.86	85.118	6,276.86	81.2225	6,276.86	86.6095	6,276.86	77.0019	6,276.86	83.9375	6,276.86	72.6532	6,276.86	76.9202	6,276.86	70.7387	6,276.86	73.9349	6,276.86	64.9808	6,276.86	70.5434	6,276.86	59.9783	6,276.86	63.6728	6,276.86	55.9211	6,276.86	62.9028	6,276.86	61.8731	6,276.86	62.0015	6,276.86	65.177	6,276.86	58.949	6,276.86	64.0227	6,276.86	59.0133	6,276.86	62.3997	6,276.86	61.2601	6,276.86	56.4629	6,276.86	57.1538	6,276.86	61.5935
6,498.05	85.0158	6,498.05	84.7837	6,498.05	85.7025	6,498.05	83.8843	6,498.05	86.9168	6,498.05	84.0284	6,498.05	85.8167	6,498.05	83.4017	6,498.05	83.239	6,498.05	81.5379	6,498.05	86.361	6,498.05	77.4734	6,498.05	84.4535	6,498.05	74.8323	6,498.05	84.0059	6,498.05	70.3676	6,498.05	75.9606	6,498.05	67.5131	6,498.05	73.8394	6,498.05	62.6752	6,498.05	68.1451	6,498.05	56.9202	6,498.05	59.1239	6,498.05	55.8412	6,498.05	58.1188	6,498.05	60.5545	6,498.05	61.6642	6,498.05	61.0424	6,498.05	55.0906	6,498.05	55.9915	6,498.05	50.4813	6,498.05	55.2561	6,498.05	58.687	6,498.05	53.0599	6,498.05	53.3319	6,498.05	59.0921
6,726.56	85.6417	6,726.56	84.5904	6,726.56	84.4027	6,726.56	84.2925	6,726.56	86.6724	6,726.56	84.9397	6,726.56	86.312	6,726.56	83.2092	6,726.56	85.4599	6,726.56	80.345	6,726.56	84.9484	6,726.56	76.7977	6,726.56	84.1923	6,726.56	71.9967	6,726.56	85.7302	6,726.56	68.0723	6,726.56	76.667	6,726.56	63.5326	6,726.56	70.3324	6,726.56	64.5062	6,726.56	70.8425	6,726.56	50.2034	6,726.56	62.8036	6,726.56	45.0293	6,726.56	51.1847	6,726.56	58.0948	6,726.56	57.2807	6,726.56	62.4416	6,726.56	54.6306	6,726.56	59.1409	6,726.56	52.2839	6,726.56	52.8992	6,726.56	52.9023	6,726.56	53.2135	6,726.56	58.1553	6,726.56	57.4184
6,963.87	84.5827	6,963.87	84.2742	6,963.87	84.2459	6,963.87	84.6256	6,963.87	86.7319	6,963.87	85.3815	6,963.87	86.3599	6,963.87	82.4115	6,963.87	85.3333	6,963.87	79.9483	6,963.87	85.2655	6,963.87	76.9339	6,963.87	85.0217	6,963.87	73.0876	6,963.87	82.8849	6,963.87	69.6167	6,963.87	71.4046	6,963.87	63.9167	6,963.87	70.4908	6,963.87	60.9357	6,963.87	64.143	6,963.87	52.5719	6,963.87	53.5699	6,963.87	42.1173	6,963.87	62.5969	6,963.87	53.7965	6,963.87	59.0256	6,963.87	57.7141	6,963.87	56.8518	6,963.87	59.9999	6,963.87	57.554	6,963.87	53.5653	6,963.87	60.7393	6,963.87	57.2059	6,963.87	58.8637	6,963.87	57.3871
7,209.96	84.9286	7,209.96	84.4048	7,209.96	83.5982	7,209.96	85.3837	7,209.96	87.049	7,209.96	85.2389	7,209.96	86.9781	7,209.96	82.1706	7,209.96	84.4823	7,209.96	79.5297	7,209.96	84.9747	7,209.96	77.1655	7,209.96	84.2477	7,209.96	70.0852	7,209.96	74.2247	7,209.96	68.9395	7,209.96	77.03	7,209.96	64.2249	7,209.96	70.8305	7,209.96	57.3514	7,209.96	66.0262	7,209.96	42.9429	7,209.96	60.4402	7,209.96	50.3517	7,209.96	57.1479	7,209.96	51.2387	7,209.96	43.3074	7,209.96	55.1523	7,209.96	55.2085	7,209.96	57.8457	7,209.96	57.7326	7,209.96	58.0465	7,209.96	62.3513	7,209.96	56.8414	7,209.96	60.1775	7,209.96	57.3531
7,464.84	85.4799	7,464.84	84.8101	7,464.84	84.4592	7,464.84	86.1709	7,464.84	86.4719	7,464.84	85.234	7,464.84	86.4695	7,464.84	82.3052	7,464.84	84.0777	7,464.84	79.6635	7,464.84	85.3046	7,464.84	77.2339	7,464.84	81.9775	7,464.84	73.5679	7,464.84	78.0584	7,464.84	68.9735	7,464.84	79.0455	7,464.84	63.4612	7,464.84	69.5421	7,464.84	63.4654	7,464.84	66.8104	7,464.84	51.9364	7,464.84	52.9541	7,464.84	50.2366	7,464.84	55.8108	7,464.84	55.011	7,464.84	54.898	7,464.84	55.67	7,464.84	52.347	7,464.84	57.2144	7,464.84	55.3695	7,464.84	57.1986	7,464.84	59.9778	7,464.84	55.5549	7,464.84	57.5266	7,464.84	52.2782
7,727.05	85.688	7,727.05	85.0906	7,727.05	85.1156	7,727.05	86.0484	7,727.05	86.4857	7,727.05	84.531	7,727.05	86.0478	7,727.05	82.7723	7,727.05	85.2179	7,727.05	79.7148	7,727.05	83.651	7,727.05	77.4827	7,727.05	81.3134	7,727.05	73.1971	7,727.05	83.2523	7,727.05	65.4656	7,727.05	78.6435	7,727.05	64.4993	7,727.05	69.899	7,727.05	62.0368	7,727.05	59.3432	7,727.05	55.7759	7,727.05	56.7839	7,727.05	55.1544	7,727.05	53.6692	7,727.05	37.9259	7,727.05	57.7565	7,727.05	48.2466	7,727.05	55.2181	7,727.05	54.264	7,727.05	48.7437	7,727.05	59.0581	7,727.05	60.5934	7,727.05	57.2992	7,727.05	59.1603	7,727.05	50.0481
7,999.51	86.3433	7,999.51	86.2684	7,999.51	86.5056	7,999.51	85.5402	7,999.51	86.0898	7,999.51	84.9877	7,999.51	85.6937	7,999.51	82.551	7,999.51	85.7673	7,999.51	80.1836	7,999.51	82.3064	7,999.51	76.5084	7,999.51	82.0552	7,999.51	74.2443	7,999.51	81.9301	7,999.51	70.6929	7,999.51	71.5301	7,999.51	65.821	7,999.51	66.4899	7,999.51	64.4323	7,999.51	63.1184	7,999.51	39.5494	7,999.51	56.4574	7,999.51	48.5163	7,999.51	54.9845	7,999.51	39.2507	7,999.51	42.9049	7,999.51	44.2287	7,999.51	56.2415	7,999.51	54.3032	7,999.51	57.3212	7,999.51	54.9622	7,999.51	59.3483	7,999.51	53.9351	7,999.51	58.086	7,999.51	52.0654
8,282.23	86.2753	8,282.23	86.7391	8,282.23	86.8745	8,282.23	85.4811	8,282.23	86.5987	8,282.23	84.489	8,282.23	86.5691	8,282.23	82.597	8,282.23	84.8967	8,282.23	79.5214	8,282.23	81.5533	8,282.23	77.5608	8,282.23	81.0482	8,282.23	74.2588	8,282.23	76.3146	8,282.23	68.8416	8,282.23	76.6859	8,282.23	65.4669	8,282.23	71.9103	8,282.23	57.5309	8,282.23	55.6623	8,282.23	53.9708	8,282.23	52.0649	8,282.23	54.0227	8,282.23	52.6855	8,282.23	54.1648	8,282.23	38.0022	8,282.23	51.8164	8,282.23	54.2667	8,282.23	52.7115	8,282.23	50.9039	8,282.23	56.9329	8,282.23	56.0568	8,282.23	56.0353	8,282.23	55.8993	8,282.23	47.7032
8,573.73	86.5294	8,573.73	87.1881	8,573.73	87.304	8,573.73	85.1807	8,573.73	85.9545	8,573.73	84.4781	8,573.73	86.8653	8,573.73	82.7923	8,573.73	83.7804	8,573.73	79.8676	8,573.73	81.5304	8,573.73	78.3358	8,573.73	82.5983	8,573.73	73.598	8,573.73	79.4203	8,573.73	69.3039	8,573.73	80.2033	8,573.73	62.8349	8,573.73	72.1936	8,573.73	62.9381	8,573.73	65.5476	8,573.73	54.2757	8,573.73	55.8788	8,573.73	53.5403	8,573.73	53.3179	8,573.73	57.1774	8,573.73	54.0307	8,573.73	54.3544	8,573.73	53.1494	8,573.73	51.9583	8,573.73	52.3339	8,573.73	56.7429	8,573.73	52.7827	8,573.73	53.6925	8,573.73	53.2587	8,573.73	42.8004
8,876.95	86.6565	8,876.95	86.9799	8,876.95	87.1822	8,876.95	85.4117	8,876.95	86.1805	8,876.95	83.5733	8,876.95	86.166	8,876.95	82.7922	8,876.95	84.3882	8,876.95	80.4751	8,876.95	83.8123	8,876.95	78.3858	8,876.95	81.9998	8,876.95	74.8514	8,876.95	81.75	8,876.95	70.0087	8,876.95	76.2346	8,876.95	65.1476	8,876.95	70.0216	8,876.95	59.3049	8,876.95	59.8093	8,876.95	53.593	8,876.95	52.496	8,876.95	45.4097	8,876.95	48.1353	8,876.95	48.4024	8,876.95	60.4092	8,876.95	49.7773	8,876.95	54.3293	8,876.95	51.2239	8,876.95	54.1298	8,876.95	55.5492	8,876.95	55.6315	8,876.95	51.9129	8,876.95	52.0392	8,876.95	48.175
9,188.96	86.9975	9,188.96	86.3546	9,188.96	86.6205	9,188.96	85.4158	9,188.96	86.6371	9,188.96	83.2348	9,188.96	85.465	9,188.96	82.0862	9,188.96	84.5556	9,188.96	77.3633	9,188.96	80.3384	9,188.96	74.694	9,188.96	79.0786	9,188.96	70.5928	9,188.96	77.2139	9,188.96	66.4175	9,188.96	72.4625	9,188.96	61.5965	9,188.96	69.1017	9,188.96	58.6903	9,188.96	48.9177	9,188.96	57.6836	9,188.96	51.6996	9,188.96	51.488	9,188.96	51.8642	9,188.96	51.6858	9,188.96	61.6361	9,188.96	53.2223	9,188.96	54.1377	9,188.96	47.8442	9,188.96	51.1459	9,188.96	48.6213	9,188.96	48.1618	9,188.96	50.181	9,188.96	43.6107	9,188.96	49.8298
9,514.16	86.6475	9,514.16	86.5657	9,514.16	86.6883	9,514.16	85.7144	9,514.16	87.0437	9,514.16	83.9172	9,514.16	86.0985	9,514.16	81.4616	9,514.16	84.0778	9,514.16	75.6174	9,514.16	78.0952	9,514.16	68.2276	9,514.16	76.6328	9,514.16	56.7466	9,514.16	73.1269	9,514.16	53.7634	9,514.16	67.3932	9,514.16	44.2564	9,514.16	60.7293	9,514.16	56.6441	9,514.16	54.221	9,514.16	57.6285	9,514.16	49.9235	9,514.16	52.8158	9,514.16	46.7883	9,514.16	45.425	9,514.16	52.4856	9,514.16	50.381	9,514.16	49.4675	9,514.16	45.8681	9,514.16	46.7195	9,514.16	39.1726	9,514.16	39.5291	9,514.16	42.9498	9,514.16	53.3675	9,514.16	40.0994
9,849.61	87.2453	9,849.61	86.7432	9,849.61	87.2421	9,849.61	85.9936	9,849.61	87.1451	9,849.61	84.1507	9,849.61	85.9997	9,849.61	81.5557	9,849.61	83.5703	9,849.61	77.1772	9,849.61	80.9866	9,849.61	68.486	9,849.61	76.995	9,849.61	64.11	9,849.61	71.6814	9,849.61	62.4503	9,849.61	67.0222	9,849.61	59.2862	9,849.61	59.052	9,849.61	54.1139	9,849.61	57.4563	9,849.61	34.1976	9,849.61	45.9326	9,849.61	41.3821	9,849.61	42.4121	9,849.61	41.2957	9,849.61	50.2743	9,849.61	45.282	9,849.61	50.4798	9,849.61	50.0729	9,849.61	42.6382	9,849.61	39.9246	9,849.61	45.621	9,849.61	27.6108	9,849.61	53.2492	9,849.61	38.1795
10,196.8	87.7286	10,196.8	86.5663	10,196.8	87.7999	10,196.8	86.4729	10,196.8	87.4198	10,196.8	84.374	10,196.8	85.445	10,196.8	81.5328	10,196.8	84.6016	10,196.8	77.5355	10,196.8	81.0663	10,196.8	70.9918	10,196.8	75.8966	10,196.8	66.1921	10,196.8	69.6437	10,196.8	63.1248	10,196.8	65.4036	10,196.8	58.1559	10,196.8	59.567	10,196.8	55.7805	10,196.8	36.1108	10,196.8	63.5288	10,196.8	30.5972	10,196.8	51.5138	10,196.8	42.1029	10,196.8	41.29	10,196.8	43.4625	10,196.8	46.7452	10,196.8	48.9063	10,196.8	50.8137	10,196.8	47.0206	10,196.8	43.9819	10,196.8	49.9253	10,196.8	28.0815	10,196.8	51.3594	10,196.8	34.4751
10,555.7	87.8432	10,555.7	86.4558	10,555.7	87.909	10,555.7	86.3949	10,555.7	87.0251	10,555.7	84.6607	10,555.7	85.4786	10,555.7	81.8368	10,555.7	84.7174	10,555.7	77.8457	10,555.7	79.6073	10,555.7	71.4045	10,555.7	74.0199	10,555.7	68.1171	10,555.7	67.297	10,555.7	65.374	10,555.7	60.6315	10,555.7	62.5894	10,555.7	51.2794	10,555.7	43.1752	10,555.7	50.9999	10,555.7	57.8941	10,555.7	50.6471	10,555.7	42.7767	10,555.7	45.457	10,555.7	50.5927	10,555.7	39.4127	10,555.7	48.8914	10,555.7	45.0541	10,555.7	49.5388	10,555.7	48.1994	10,555.7	45.8121	10,555.7	51.2206	10,555.7	51.888	10,555.7	47.9208	10,555.7	40.4037
10,927.7	87.9364	10,927.7	86.7434	10,927.7	87.6202	10,927.7	85.913	10,927.7	86.7913	10,927.7	84.7613	10,927.7	85.4531	10,927.7	82.5982	10,927.7	84.2047	10,927.7	77.9419	10,927.7	79.7872	10,927.7	73.4317	10,927.7	73.7003	10,927.7	72.1243	10,927.7	58.1643	10,927.7	68.2355	10,927.7	60.5281	10,927.7	64.6923	10,927.7	54.3233	10,927.7	58.1731	10,927.7	59.466	10,927.7	65.034	10,927.7	54.2207	10,927.7	44.8703	10,927.7	39.0564	10,927.7	48.4123	10,927.7	40.0291	10,927.7	50.2158	10,927.7	47.304	10,927.7	48.7971	10,927.7	49.8645	10,927.7	48.0326	10,927.7	48.7138	10,927.7	52.9952	10,927.7	49.3602	10,927.7	36.9452
11,313	87.9406	11,313	86.9737	11,313	87.9942	11,313	85.8031	11,313	87.0714	11,313	85.1096	11,313	86.1113	11,313	83.4317	11,313	83.5818	11,313	79.476	11,313	78.9164	11,313	75.7317	11,313	71.9498	11,313	72.7432	11,313	49.181	11,313	69.3976	11,313	61.3633	11,313	62.406	11,313	56.4439	11,313	61.4107	11,313	63.374	11,313	60.2026	11,313	56.4173	11,313	42.2636	11,313	44.1984	11,313	51.0695	11,313	40.7896	11,313	51.1017	11,313	49.3502	11,313	42.1248	11,313	49.4588	11,313	46.1582	11,313	39.9043	11,313	50.7224	11,313	46.3288	11,313	23.8031
11,712.9	88.4712	11,712.9	87.1956	11,712.9	88.3066	11,712.9	85.7461	11,712.9	87.6742	11,712.9	85.3204	11,712.9	86.2986	11,712.9	84.9373	11,712.9	83.627	11,712.9	81.2857	11,712.9	79.1809	11,712.9	77.2269	11,712.9	56.876	11,712.9	73.4938	11,712.9	50.5718	11,712.9	69.9611	11,712.9	64.5119	11,712.9	62.2658	11,712.9	61.534	11,712.9	51.0031	11,712.9	62.4555	11,712.9	64.3056	11,712.9	53.2027	11,712.9	33.1292	11,712.9	30.2924	11,712.9	53.7161	11,712.9	44.6892	11,712.9	52.3361	11,712.9	50.1214	11,712.9	49.1057	11,712.9	47.0801	11,712.9	52.295	11,712.9	40.6986	11,712.9	52.5906	11,712.9	41.6497	11,712.9	41.8374
12,126	89.7765	12,126	87.1026	12,126	88.1387	12,126	84.7706	12,126	87.7569	12,126	85.4389	12,126	86.0973	12,126	85.0913	12,126	82.5125	12,126	80.9576	12,126	73.5081	12,126	77.0985	12,126	65.8809	12,126	73.5408	12,126	72.0993	12,126	69.7901	12,126	69.9584	12,126	64.689	12,126	66.9366	12,126	63.7111	12,126	63.5182	12,126	60.6632	12,126	49.3859	12,126	49.338	12,126	51.5044	12,126	53.7353	12,126	52.5894	12,126	53.4531	12,126	47.8927	12,126	52.665	12,126	43.8365	12,126	50.0563	12,126	48.7774	12,126	34.2522	12,126	41.0833	12,126	48.4267
12,553.7	90.3042	12,553.7	87.5932	12,553.7	89.5065	12,553.7	85.7814	12,553.7	88.2682	12,553.7	85.6813	12,553.7	87.0847	12,553.7	84.1585	12,553.7	82.7674	12,553.7	79.902	12,553.7	75.3914	12,553.7	73.9048	12,553.7	67.9859	12,553.7	69.2866	12,553.7	74.1349	12,553.7	61.9347	12,553.7	71.9524	12,553.7	44.5971	12,553.7	68.0278	12,553.7	52.6704	12,553.7	59.5503	12,553.7	52.6909	12,553.7	44.3245	12,553.7	45.0766	12,553.7	46.0788	12,553.7	30.393	12,553.7	49.4429	12,553.7	46.0014	12,553.7	53.7207	12,553.7	48.3157	12,553.7	53.4758	12,553.7	41.9646	12,553.7	52.0784	12,553.7	43.0731	12,553.7	45.347	12,553.7	44.0623
12,996.1	90.7348	12,996.1	86.9863	12,996.1	90.4667	12,996.1	84.8119	12,996.1	88.9842	12,996.1	84.1634	12,996.1	88.56	12,996.1	82.4156	12,996.1	85.9436	12,996.1	79.2746	12,996.1	76.2775	12,996.1	71.8448	12,996.1	72.0752	12,996.1	71.0384	12,996.1	69.1617	12,996.1	70.2588	12,996.1	70.8825	12,996.1	64.7696	12,996.1	62.5774	12,996.1	58.6973	12,996.1	59.9465	12,996.1	60.3413	12,996.1	51.4628	12,996.1	40.2256	12,996.1	52.6617	12,996.1	55.8931	12,996.1	50.0057	12,996.1	57.3983	12,996.1	44.0003	12,996.1	40.8274	12,996.1	54.4499	12,996.1	53.007	12,996.1	56.573	12,996.1	45.0024	12,996.1	51.3505	12,996.1	43.3934
13,454.6	90.3804	13,454.6	87.3997	13,454.6	90.4273	13,454.6	80.8785	13,454.6	89.2521	13,454.6	78.6926	13,454.6	87.5417	13,454.6	75.1824	13,454.6	85.0151	13,454.6	72.4591	13,454.6	79.145	13,454.6	72.437	13,454.6	68.8907	13,454.6	74.4645	13,454.6	74.5496	13,454.6	72.7668	13,454.6	69.3852	13,454.6	66.4271	13,454.6	65.2905	13,454.6	59.119	13,454.6	64.9967	13,454.6	59.1877	13,454.6	38.9581	13,454.6	50.5774	13,454.6	53.745	13,454.6	55.6545	13,454.6	55.7827	13,454.6	57.4985	13,454.6	47.9216	13,454.6	46.9615	13,454.6	53.6432	13,454.6	54.6504	13,454.6	49.5748	13,454.6	50.6619	13,454.6	52.7944	13,454.6	37.9118
13,929.2	89.9743	13,929.2	88.2382	13,929.2	90.2003	13,929.2	80.0721	13,929.2	87.729	13,929.2	75.2132	13,929.2	85.999	13,929.2	75.5697	13,929.2	84.3907	13,929.2	64.8544	13,929.2	79.3803	13,929.2	73.8539	13,929.2	70.688	13,929.2	76.0774	13,929.2	75.7845	13,929.2	73.4926	13,929.2	76.627	13,929.2	67.2907	13,929.2	67.8626	13,929.2	61.5135	13,929.2	66.5517	13,929.2	60.851	13,929.2	56.4436	13,929.2	54.868	13,929.2	55.7247	13,929.2	57.7379	13,929.2	43.8411	13,929.2	56.3891	13,929.2	49.2299	13,929.2	55.1562	13,929.2	48.9691	13,929.2	51.3616	13,929.2	43.1644	13,929.2	50.4918	13,929.2	49.4633	13,929.2	41.9347
14,419.9	88.5329	14,419.9	86.8687	14,419.9	87.776	14,419.9	80.3761	14,419.9	83.2252	14,419.9	75.9003	14,419.9	81.9085	14,419.9	78.9548	14,419.9	80.6843	14,419.9	75.529	14,419.9	71.4582	14,419.9	69.3953	14,419.9	72.7976	14,419.9	70.0395	14,419.9	76.9185	14,419.9	68.1004	14,419.9	68.8564	14,419.9	62.0319	14,419.9	64.8849	14,419.9	54.8687	14,419.9	64.7133	14,419.9	55.4549	14,419.9	55.2789	14,419.9	55.1564	14,419.9	49.8305	14,419.9	54.3138	14,419.9	38.8935	14,419.9	47.3036	14,419.9	52.5516	14,419.9	58.2454	14,419.9	50.3786	14,419.9	46.718	14,419.9	39.8254	14,419.9	35.6254	14,419.9	50.3969	14,419.9	48.2071
14,928.2	85.1507	14,928.2	82.6252	14,928.2	84.1868	14,928.2	69.6741	14,928.2	79.3603	14,928.2	71.7315	14,928.2	78.2038	14,928.2	78.243	14,928.2	78.3695	14,928.2	76.2455	14,928.2	68.9355	14,928.2	70.7488	14,928.2	70.7343	14,928.2	61.0476	14,928.2	71.0476	14,928.2	57.1194	14,928.2	69.3344	14,928.2	51.4321	14,928.2	65.4205	14,928.2	47.7734	14,928.2	62.0445	14,928.2	40.7418	14,928.2	50.2772	14,928.2	51.3387	14,928.2	44.8085	14,928.2	52.5164	14,928.2	52.9126	14,928.2	45.5061	14,928.2	43.4344	14,928.2	55.7203	14,928.2	48.8588	14,928.2	51.6219	14,928.2	51.8671	14,928.2	39.7088	14,928.2	55.9601	14,928.2	39.89
15,455.6	77.6792	15,455.6	73.634	15,455.6	75.8664	15,455.6	61.2477	15,455.6	68.1485	15,455.6	69.322	15,455.6	66.9995	15,455.6	74.6188	15,455.6	69.5224	15,455.6	70.4368	15,455.6	63.8959	15,455.6	66.2097	15,455.6	62.6623	15,455.6	63.7988	15,455.6	63.7262	15,455.6	58.6289	15,455.6	62.6257	15,455.6	53.5022	15,455.6	56.4693	15,455.6	48.2189	15,455.6	55.1796	15,455.6	42.354	15,455.6	40.0705	15,455.6	39.1823	15,455.6	40.7644	15,455.6	52.8394	15,455.6	45.127	15,455.6	44.3283	15,455.6	42.8912	15,455.6	44.8806	15,455.6	43.1168	15,455.6	46.364	15,455.6	45.9543	15,455.6	47.6781	15,455.6	52.2514	15,455.6	35.1186
16,000.5	79.404	16,000.5	76.5756	16,000.5	77.4681	16,000.5	72.0365	16,000.5	70.2792	16,000.5	69.4958	16,000.5	60.4306	16,000.5	72.8548	16,000.5	67.7202	16,000.5	67.6368	16,000.5	64.7429	16,000.5	60.9413	16,000.5	59.8843	16,000.5	51.9625	16,000.5	57.8352	16,000.5	52.5664	16,000.5	54.6871	16,000.5	48.5667	16,000.5	53.7898	16,000.5	41.4145	16,000.5	50.0847	16,000.5	20.6735	16,000.5	44.1344	16,000.5	37.3582	16,000.5	39.7659	16,000.5	39.5485	16,000.5	45.697	16,000.5	29.9453	16,000.5	42.4315	16,000.5	36.4206	16,000.5	37.1572	16,000.5	42.9604	16,000.5	33.5977	16,000.5	35.9688	16,000.5	41.6613	16,000.5	38.3433
16,564.5	82.2712	16,564.5	79.8401	16,564.5	80.3592	16,564.5	74.4357	16,564.5	75.1235	16,564.5	65.1303	16,564.5	51.9868	16,564.5	69.9934	16,564.5	65.8576	16,564.5	66.6373	16,564.5	62.3848	16,564.5	62.1483	16,564.5	64.2708	16,564.5	59.1905	16,564.5	60.7471	16,564.5	55.6654	16,564.5	58.3205	16,564.5	48.6193	16,564.5	52.3957	16,564.5	44.0736	16,564.5	42.7767	16,564.5	20.992	16,564.5	49.6031	16,564.5	41.8824	16,564.5	44.1065	16,564.5	34.8985	16,564.5	44.205	16,564.5	30.9531	16,564.5	39.3861	16,564.5	40.8408	16,564.5	39.9445	16,564.5	41.788	16,564.5	40.6876	16,564.5	32.3367	16,564.5	34.2716	16,564.5	35.1879
17,148.9	84.1365	17,148.9	81.5863	17,148.9	82.4809	17,148.9	75.2043	17,148.9	77.3896	17,148.9	63.1621	17,148.9	63.5003	17,148.9	70.3925	17,148.9	60.1036	17,148.9	67.2173	17,148.9	64.9199	17,148.9	62.3133	17,148.9	67.65	17,148.9	59.4319	17,148.9	63.166	17,148.9	55.3863	17,148.9	60.0252	17,148.9	50.7917	17,148.9	52.4143	17,148.9	44.1298	17,148.9	35.8172	17,148.9	37.6694	17,148.9	47.7508	17,148.9	43.9099	17,148.9	46.4801	17,148.9	43.3547	17,148.9	42.7915	17,148.9	39.7567	17,148.9	40.4173	17,148.9	39.706	17,148.9	39.7704	17,148.9	42.1855	17,148.9	29.8233	17,148.9	31.5234	17,148.9	31.9755	17,148.9	42.3492
17,752.4	84.8269	17,752.4	82.9526	17,752.4	82.6183	17,752.4	76.8383	17,752.4	76.7673	17,752.4	64.4084	17,752.4	67.6537	17,752.4	72.9183	17,752.4	65.9427	17,752.4	73.5021	17,752.4	66.9603	17,752.4	70.5138	17,752.4	69.3663	17,752.4	61.7564	17,752.4	67.8623	17,752.4	52.5344	17,752.4	65.6191	17,752.4	34.47	17,752.4	55.7935	17,752.4	39.2554	17,752.4	51.1578	17,752.4	38.8518	17,752.4	52.8669	17,752.4	35.8318	17,752.4	49.6809	17,752.4	22.5217	17,752.4	33.5873	17,752.4	39.5755	17,752.4	46.854	17,752.4	44.0083	17,752.4	24.6883	17,752.4	41.379	17,752.4	48.67	17,752.4	36.9658	17,752.4	46.3213	17,752.4	44.058
18,379.4	85.3576	18,379.4	83.3473	18,379.4	83.6506	18,379.4	77.9488	18,379.4	78.4621	18,379.4	59.5989	18,379.4	70.124	18,379.4	74.3702	18,379.4	74.5822	18,379.4	76.6408	18,379.4	74.3277	18,379.4	74.4781	18,379.4	75.3512	18,379.4	70.948	18,379.4	71.7937	18,379.4	65.1998	18,379.4	67.2698	18,379.4	56.9936	18,379.4	58.883	18,379.4	52.6551	18,379.4	51.3614	18,379.4	49.6742	18,379.4	54.2697	18,379.4	49.7913	18,379.4	43.4272	18,379.4	50.4502	18,379.4	39.0495	18,379.4	47.6009	18,379.4	48.9747	18,379.4	44.648	18,379.4	42.3172	18,379.4	42.6599	18,379.4	41.5396	18,379.4	39.1988	18,379.4	47.4039	18,379.4	39.4612
19,026.9	84.3645	19,026.9	81.2948	19,026.9	84.3507	19,026.9	78.827	19,026.9	79.4384	19,026.9	77.5997	19,026.9	57.973	19,026.9	79.4687	19,026.9	72.7007	19,026.9	76.8588	19,026.9	75.5012	19,026.9	74.5249	19,026.9	75.8851	19,026.9	71.6082	19,026.9	70.8495	19,026.9	67.3615	19,026.9	68.6947	19,026.9	59.664	19,026.9	60.1595	19,026.9	55.6269	19,026.9	46.2524	19,026.9	52.3203	19,026.9	51.8429	19,026.9	52.9156	19,026.9	42.3704	19,026.9	50.7994	19,026.9	36.4559	19,026.9	51.1847	19,026.9	51.9419	19,026.9	37.7306	19,026.9	42.4458	19,026.9	52.9301	19,026.9	39.6692	19,026.9	41.2701	19,026.9	45.9673	19,026.9	49.2328
19,697.8	79.5173	19,697.8	71.6094	19,697.8	82.9889	19,697.8	76.0754	19,697.8	81.8591	19,697.8	79.3719	19,697.8	73.1964	19,697.8	79.4305	19,697.8	66.8332	19,697.8	74.7023	19,697.8	69.6367	19,697.8	71.8596	19,697.8	72.7361	19,697.8	65.8537	19,697.8	70.0233	19,697.8	64.4101	19,697.8	67.1203	19,697.8	56.1873	19,697.8	59.6766	19,697.8	52.5298	19,697.8	52.6707	19,697.8	48.4324	19,697.8	51.6389	19,697.8	49.3646	19,697.8	39.0339	19,697.8	46.0498	19,697.8	45.3272	19,697.8	47.2511	19,697.8	53.6852	19,697.8	48.9062	19,697.8	50.9455	19,697.8	53.9662	19,697.8	44.9446	19,697.8	39.1413	19,697.8	46.4765	19,697.8	48.5923
19,999.5	76.5043	19,999.5	71.4358	19,999.5	80.7794	19,999.5	72.8308	19,999.5	81.5986	19,999.5	77.8272	19,999.5	74.8904	19,999.5	76.9907	19,999.5	68.6668	19,999.5	70.4589	19,999.5	64.1332	19,999.5	67.3896	19,999.5	72.2922	19,999.5	62.9585	19,999.5	67.5927	19,999.5	62.2632	19,999.5	68.384	19,999.5	53.5498	19,999.5	57.5954	19,999.5	49.6579	19,999.5	52.8002	19,999.5	47.963	19,999.5	47.319	19,999.5	50.385	19,999.5	52.57	19,999.5	48.9612	19,999.5	51.7742	19,999.5	44.9114	19,999.5	54.792	19,999.5	49.6298	19,999.5	49.3131	19,999.5	47.326	19,999.5	47.4518	19,999.5	13.5334	19,999.5	39.68	19,999.5	44.6606
