"SPL Horizontal"
"On-Axis"		"10°"		"-10°"		"20°"		"-20°"		"30°"		"-30°"		"40°"		"-40°"		"50°"		"-50°"		"60°"		"-60°"		"70°"		"-70°"		"80°"		"-80°"		"90°"		"-90°"		"100°"		"-100°"		"110°"		"-110°"		"120°"		"-120°"		"130°"		"-130°"		"140°"		"-140°"		"150°"		"-150°"		"160°"		"-160°"		"170°"		"-170°"		"180°"
"Frequency [Hz]"	"Sound Pessure Level [dB]   [2.83  V @ 1. m]"	"Frequency [Hz]"	"Sound Pessure Level [dB]   [2.83  V @ 1. m]"	"Frequency [Hz]"	"Sound Pessure Level [dB]   [2.83  V @ 1. m]"	"Frequency [Hz]"	"Sound Pessure Level [dB]   [2.83  V @ 1. m]"	"Frequency [Hz]"	"Sound Pessure Level [dB]   [2.83  V @ 1. m]"	"Frequency [Hz]"	"Sound Pessure Level [dB]   [2.83  V @ 1. m]"	"Frequency [Hz]"	"Sound Pessure Level [dB]   [2.83  V @ 1. m]"	"Frequency [Hz]"	"Sound Pessure Level [dB]   [2.83  V @ 1. m]"	"Frequency [Hz]"	"Sound Pessure Level [dB]   [2.83  V @ 1. m]"	"Frequency [Hz]"	"Sound Pessure Level [dB]   [2.83  V @ 1. m]"	"Frequency [Hz]"	"Sound Pessure Level [dB]   [2.83  V @ 1. m]"	"Frequency [Hz]"	"Sound Pessure Level [dB]   [2.83  V @ 1. m]"	"Frequency [Hz]"	"Sound Pessure Level [dB]   [2.83  V @ 1. m]"	"Frequency [Hz]"	"Sound Pessure Level [dB]   [2.83  V @ 1. m]"	"Frequency [Hz]"	"Sound Pessure Level [dB]   [2.83  V @ 1. m]"	"Frequency [Hz]"	"Sound Pessure Level [dB]   [2.83  V @ 1. m]"	"Frequency [Hz]"	"Sound Pessure Level [dB]   [2.83  V @ 1. m]"	"Frequency [Hz]"	"Sound Pessure Level [dB]   [2.83  V @ 1. m]"	"Frequency [Hz]"	"Sound Pessure Level [dB]   [2.83  V @ 1. m]"	"Frequency [Hz]"	"Sound Pessure Level [dB]   [2.83  V @ 1. m]"	"Frequency [Hz]"	"Sound Pessure Level [dB]   [2.83  V @ 1. m]"	"Frequency [Hz]"	"Sound Pessure Level [dB]   [2.83  V @ 1. m]"	"Frequency [Hz]"	"Sound Pessure Level [dB]   [2.83  V @ 1. m]"	"Frequency [Hz]"	"Sound Pessure Level [dB]   [2.83  V @ 1. m]"	"Frequency [Hz]"	"Sound Pessure Level [dB]   [2.83  V @ 1. m]"	"Frequency [Hz]"	"Sound Pessure Level [dB]   [2.83  V @ 1. m]"	"Frequency [Hz]"	"Sound Pessure Level [dB]   [2.83  V @ 1. m]"	"Frequency [Hz]"	"Sound Pessure Level [dB]   [2.83  V @ 1. m]"	"Frequency [Hz]"	"Sound Pessure Level [dB]   [2.83  V @ 1. m]"	"Frequency [Hz]"	"Sound Pessure Level [dB]   [2.83  V @ 1. m]"	"Frequency [Hz]"	"Sound Pessure Level [dB]   [2.83  V @ 1. m]"	"Frequency [Hz]"	"Sound Pessure Level [dB]   [2.83  V @ 1. m]"	"Frequency [Hz]"	"Sound Pessure Level [dB]   [2.83  V @ 1. m]"	"Frequency [Hz]"	"Sound Pessure Level [dB]   [2.83  V @ 1. m]"	"Frequency [Hz]"	"Sound Pessure Level [dB]   [2.83  V @ 1. m]"	"Frequency [Hz]"	"Sound Pessure Level [dB]   [2.83  V @ 1. m]"
20.5078	70.325	20.5078	70.2453	20.5078	70.39	20.5078	70.1525	20.5078	70.4387	20.5078	70.0487	20.5078	70.4701	20.5078	69.9362	20.5078	70.4834	20.5078	69.8181	20.5078	70.478	20.5078	69.6974	20.5078	70.4544	20.5078	69.5771	20.5078	70.4137	20.5078	69.4595	20.5078	70.3577	20.5078	69.3471	20.5078	70.2889	20.5078	69.2429	20.5078	70.2103	20.5078	69.152	20.5078	70.1251	20.5078	69.0813	20.5078	70.0355	20.5078	69.0393	20.5078	69.9425	20.5078	69.0338	20.5078	69.8447	20.5078	69.0688	20.5078	69.7394	20.5078	69.1427	20.5078	69.6241	20.5078	69.2473	20.5078	69.4994	20.5078	69.3705
21.9727	71.9517	21.9727	71.9254	21.9727	71.9585	21.9727	71.8797	21.9727	71.9459	21.9727	71.8153	21.9727	71.9145	21.9727	71.7329	21.9727	71.8652	21.9727	71.6342	21.9727	71.7996	21.9727	71.5211	21.9727	71.7192	21.9727	71.3964	21.9727	71.6264	21.9727	71.2631	21.9727	71.5235	21.9727	71.1252	21.9727	71.4131	21.9727	70.9871	21.9727	71.2978	21.9727	70.854	21.9727	71.1805	21.9727	70.7318	21.9727	71.0638	21.9727	70.6268	21.9727	70.95	21.9727	70.545	21.9727	70.8412	21.9727	70.4912	21.9727	70.7396	21.9727	70.4681	21.9727	70.648	21.9727	70.4756	21.9727	70.5703	21.9727	70.5111
23.4375	72.7662	23.4375	72.7372	23.4375	72.7736	23.4375	72.6872	23.4375	72.7597	23.4375	72.6168	23.4375	72.7248	23.4375	72.5271	23.4375	72.6697	23.4375	72.4196	23.4375	72.5957	23.4375	72.2964	23.4375	72.5045	23.4375	72.1601	23.4375	72.3984	23.4375	72.0139	23.4375	72.2796	23.4375	71.8616	23.4375	72.1509	23.4375	71.7082	23.4375	72.0151	23.4375	71.5592	23.4375	71.8753	23.4375	71.4213	23.4375	71.7352	23.4375	71.3013	23.4375	71.5988	23.4375	71.2054	23.4375	71.4704	23.4375	71.1383	23.4375	71.3546	23.4375	71.1026	23.4375	71.2557	23.4375	71.0984	23.4375	71.1778	23.4375	71.1243
24.9023	73.7756	24.9023	73.7468	24.9023	73.7821	24.9023	73.6961	24.9023	73.7664	24.9023	73.6243	24.9023	73.7291	24.9023	73.5325	24.9023	73.6707	24.9023	73.4226	24.9023	73.5927	24.9023	73.2972	24.9023	73.4963	24.9023	73.1592	24.9023	73.3837	24.9023	73.0125	24.9023	73.257	24.9023	72.8611	24.9023	73.119	24.9023	72.7097	24.9023	72.973	24.9023	72.563	24.9023	72.8228	24.9023	72.426	24.9023	72.6728	24.9023	72.3038	24.9023	72.5283	24.9023	72.2015	24.9023	72.3948	24.9023	72.1239	24.9023	72.2776	24.9023	72.0746	24.9023	72.1816	24.9023	72.0559	24.9023	72.1108	24.9023	72.0683
26.3672	74.7768	26.3672	74.7434	26.3672	74.7895	26.3672	74.6901	26.3672	74.781	26.3672	74.6178	26.3672	74.7514	26.3672	74.5279	26.3672	74.701	26.3672	74.4221	26.3672	74.6306	26.3672	74.3025	26.3672	74.5417	26.3672	74.1721	26.3672	74.4363	26.3672	74.034	26.3672	74.3169	26.3672	73.8926	26.3672	74.1866	26.3672	73.7522	26.3672	74.0489	26.3672	73.618	26.3672	73.9078	26.3672	73.4949	26.3672	73.7676	26.3672	73.3876	26.3672	73.6332	26.3672	73.3004	26.3672	73.5093	26.3672	73.2367	26.3672	73.4007	26.3672	73.1986	26.3672	73.3115	26.3672	73.1873	26.3672	73.2449	26.3672	73.203
27.832	75.8419	27.832	75.8159	27.832	75.8447	27.832	75.7674	27.832	75.8238	27.832	75.6973	27.832	75.7791	27.832	75.6071	27.832	75.7112	27.832	75.4984	27.832	75.6209	27.832	75.3734	27.832	75.5099	27.832	75.2345	27.832	75.3804	27.832	75.085	27.832	75.2354	27.832	74.9285	27.832	75.0784	27.832	74.7694	27.832	74.9137	27.832	74.6126	27.832	74.7465	27.832	74.4632	27.832	74.5824	27.832	74.3267	27.832	74.4278	27.832	74.2082	27.832	74.2893	27.832	74.1127	27.832	74.1729	27.832	74.0442	27.832	74.0838	27.832	74.0056	27.832	74.0252	27.832	73.999
29.2969	76.3789	29.2969	76.3554	29.2969	76.3807	29.2969	76.3104	29.2969	76.3607	29.2969	76.2449	29.2969	76.3193	29.2969	76.1598	29.2969	76.2574	29.2969	76.0571	29.2969	76.1762	29.2969	75.9389	29.2969	76.0772	29.2969	75.8082	29.2969	75.9625	29.2969	75.6684	29.2969	75.8345	29.2969	75.5238	29.2969	75.6961	29.2969	75.3788	29.2969	75.551	29.2969	75.2382	29.2969	75.4033	29.2969	75.1066	29.2969	75.2578	29.2969	74.9885	29.2969	75.1198	29.2969	74.888	29.2969	74.995	29.2969	74.8086	29.2969	74.889	29.2969	74.7533	29.2969	74.8065	29.2969	74.7243	29.2969	74.7506	29.2969	74.7231
30.7617	77.0773	30.7617	77.0491	30.7617	77.0836	30.7617	76.9999	30.7617	77.0675	30.7617	76.9308	30.7617	77.0288	30.7617	76.8436	30.7617	76.968	30.7617	76.7401	30.7617	76.8863	30.7617	76.6227	30.7617	76.7854	30.7617	76.4941	30.7617	76.6678	30.7617	76.3572	30.7617	76.5366	30.7617	76.2156	30.7617	76.3957	30.7617	76.0735	30.7617	76.2492	30.7617	75.9355	30.7617	76.102	30.7617	75.8069	30.7617	75.9591	30.7617	75.6926	30.7617	75.8257	30.7617	75.5971	30.7617	75.707	30.7617	75.5237	30.7617	75.6076	30.7617	75.4745	30.7617	75.5308	30.7617	75.4504	30.7617	75.4786	30.7617	75.4517
32.2266	77.7512	32.2266	77.7271	32.2266	77.754	32.2266	77.6824	32.2266	77.7351	32.2266	77.6183	32.2266	77.6946	32.2266	77.5362	32.2266	77.6331	32.2266	77.4382	32.2266	77.5518	32.2266	77.3265	32.2266	77.4523	32.2266	77.2039	32.2266	77.3369	32.2266	77.0735	32.2266	77.2089	32.2266	76.939	32.2266	77.0719	32.2266	76.8043	32.2266	76.9303	32.2266	76.6738	32.2266	76.789	32.2266	76.552	32.2266	76.6532	32.2266	76.4433	32.2266	76.5281	32.2266	76.3516	32.2266	76.4185	32.2266	76.2796	32.2266	76.3285	32.2266	76.2292	32.2266	76.2608	32.2266	76.2016	32.2266	76.217	32.2266	76.1973
33.6914	78.3679	33.6914	78.3495	33.6914	78.3645	33.6914	78.3099	33.6914	78.3393	33.6914	78.2503	33.6914	78.2924	33.6914	78.1722	33.6914	78.2249	33.6914	78.0777	33.6914	78.1385	33.6914	77.9692	33.6914	78.0355	33.6914	77.8497	33.6914	77.919	33.6914	77.7228	33.6914	77.7927	33.6914	77.5925	33.6914	77.6609	33.6914	77.4632	33.6914	77.5281	33.6914	77.3395	33.6914	77.399	33.6914	77.2258	33.6914	77.2782	33.6914	77.126	33.6914	77.1696	33.6914	77.0428	33.6914	77.0769	33.6914	76.978	33.6914	77.0026	33.6914	76.9325	33.6914	76.9481	33.6914	76.9066	33.6914	76.9141	33.6914	76.9003
35.1562	78.9681	35.1562	78.9386	35.1562	78.974	35.1562	78.8865	35.1562	78.9555	35.1562	78.8134	35.1562	78.9129	35.1562	78.7215	35.1562	78.8467	35.1562	78.6134	35.1562	78.7586	35.1562	78.492	35.1562	78.6506	35.1562	78.3607	35.1562	78.5261	35.1562	78.2232	35.1562	78.3888	35.1562	78.0835	35.1562	78.2434	35.1562	77.9458	35.1562	78.095	35.1562	77.8149	35.1562	77.9491	35.1562	77.6949	35.1562	77.8113	35.1562	77.5901	35.1562	77.6866	35.1562	77.5036	35.1562	77.5795	35.1562	77.4375	35.1562	77.493	35.1562	77.3927	35.1562	77.4287	35.1562	77.3694	35.1562	77.387	35.1562	77.3674
36.6211	79.6736	36.6211	79.6505	36.6211	79.6715	36.6211	79.6027	36.6211	79.644	36.6211	79.5315	36.6211	79.5916	36.6211	79.4386	36.6211	79.5154	36.6211	79.3264	36.6211	79.4172	36.6211	79.1981	36.6211	79.2994	36.6211	79.0571	36.6211	79.1654	36.6211	78.9079	36.6211	79.0191	36.6211	78.7549	36.6211	78.865	36.6211	78.6031	36.6211	78.7084	36.6211	78.4576	36.6211	78.5547	36.6211	78.3233	36.6211	78.4093	36.6211	78.2047	36.6211	78.2776	36.6211	78.1055	36.6211	78.1641	36.6211	78.0284	36.6211	78.0722	36.6211	77.9749	36.6211	78.0039	36.6211	77.9457	36.6211	77.96	36.6211	77.9407
38.0859	80.1312	38.0859	80.1039	38.0859	80.1321	38.0859	80.0512	38.0859	80.1064	38.0859	79.9745	38.0859	80.0545	38.0859	79.8757	38.0859	79.9774	38.0859	79.7576	38.0859	79.8769	38.0859	79.6234	38.0859	79.7555	38.0859	79.4767	38.0859	79.6166	38.0859	79.3217	38.0859	79.4641	38.0859	79.1633	38.0859	79.3031	38.0859	79.0063	38.0859	79.1388	38.0859	78.856	38.0859	78.9769	38.0859	78.7174	38.0859	78.8232	38.0859	78.5951	38.0859	78.6834	38.0859	78.4928	38.0859	78.5623	38.0859	78.4132	38.0859	78.4639	38.0859	78.3578	38.0859	78.3906	38.0859	78.3274	38.0859	78.3434	38.0859	78.3225
39.5508	80.8216	39.5508	80.8042	39.5508	80.8127	39.5508	80.7609	39.5508	80.7777	39.5508	80.6927	39.5508	80.7176	39.5508	80.6011	39.5508	80.6337	39.5508	80.4885	39.5508	80.5283	39.5508	80.3579	39.5508	80.4039	39.5508	80.2131	39.5508	80.2641	39.5508	80.0584	39.5508	80.1128	39.5508	79.8989	39.5508	79.9547	39.5508	79.7398	39.5508	79.7949	39.5508	79.5865	39.5508	79.6385	39.5508	79.444	39.5508	79.4909	39.5508	79.3169	39.5508	79.3574	39.5508	79.2094	39.5508	79.2423	39.5508	79.1245	39.5508	79.1492	39.5508	79.0641	39.5508	79.0806	39.5508	79.0293	39.5508	79.0375	39.5508	79.0204
41.0156	81.4124	41.0156	81.4004	41.0156	81.3969	41.0156	81.3612	41.0156	81.354	41.0156	81.2959	41.0156	81.2847	41.0156	81.2062	41.0156	81.1904	41.0156	81.0944	41.0156	81.0737	41.0156	80.9632	41.0156	80.9376	41.0156	80.8164	41.0156	80.7861	41.0156	80.6583	41.0156	80.6238	41.0156	80.4939	41.0156	80.456	41.0156	80.3286	41.0156	80.2882	41.0156	80.1677	41.0156	80.1262	41.0156	80.0165	41.0156	79.9753	41.0156	79.8795	41.0156	79.8406	41.0156	79.7608	41.0156	79.7262	41.0156	79.6637	41.0156	79.6355	41.0156	79.5907	41.0156	79.5708	41.0156	79.5439	41.0156	79.5337	41.0156	79.5247
42.4805	81.745	42.4805	81.7269	42.4805	81.7358	42.4805	81.6821	42.4805	81.6992	42.4805	81.6116	42.4805	81.6358	42.4805	81.5171	42.4805	81.5465	42.4805	81.4009	42.4805	81.4331	42.4805	81.2659	42.4805	81.2984	42.4805	81.1157	42.4805	81.1457	42.4805	80.9545	42.4805	80.9796	42.4805	80.787	42.4805	80.8049	42.4805	80.6183	42.4805	80.6274	42.4805	80.4533	42.4805	80.4532	42.4805	80.2971	42.4805	80.2883	42.4805	80.1542	42.4805	80.1388	42.4805	80.0291	42.4805	80.0102	42.4805	79.9256	42.4805	79.907	42.4805	79.8473	42.4805	79.8325	42.4805	79.7971	42.4805	79.789	42.4805	79.7773
43.9453	81.9181	43.9453	81.9077	43.9453	81.9009	43.9453	81.8699	43.9453	81.8564	43.9453	81.8058	43.9453	81.7853	43.9453	81.7168	43.9453	81.6889	43.9453	81.6052	43.9453	81.5696	43.9453	81.474	43.9453	81.4301	43.9453	81.327	43.9453	81.2742	43.9453	81.1687	43.9453	81.1067	43.9453	81.0041	43.9453	80.9329	43.9453	80.8382	43.9453	80.7587	43.9453	80.6763	43.9453	80.5902	43.9453	80.5232	43.9453	80.4336	43.9453	80.383	43.9453	80.2944	43.9453	80.2595	43.9453	80.1775	43.9453	80.1558	43.9453	80.0866	43.9453	80.0747	43.9453	80.0243	43.9453	80.0189	43.9453	79.9923	43.9453	79.9908
45.4102	81.9708	45.4102	81.9577	45.4102	81.9582	45.4102	81.9193	45.4102	81.9199	45.4102	81.8566	45.4102	81.8567	45.4102	81.7715	45.4102	81.7702	45.4102	81.6663	45.4102	81.6626	45.4102	81.5441	45.4102	81.5369	45.4102	81.4085	45.4102	81.397	45.4102	81.2639	45.4102	81.2473	45.4102	81.1149	45.4102	81.0928	45.4102	80.9663	45.4102	80.939	45.4102	80.8232	45.4102	80.7913	45.4102	80.6901	45.4102	80.655	45.4102	80.5707	45.4102	80.5344	45.4102	80.4683	45.4102	80.4335	45.4102	80.3849	45.4102	80.3547	45.4102	80.3222	45.4102	80.2997	45.4102	80.2813	45.4102	80.2693	45.4102	80.2634
46.875	82.3087	46.875	82.2939	46.875	82.2986	46.875	82.2549	46.875	82.2636	46.875	82.1932	46.875	82.2044	46.875	82.1107	46.875	82.1224	46.875	82.0102	46.875	82.0198	46.875	81.8951	46.875	81.8998	46.875	81.7693	46.875	81.7664	46.875	81.6371	46.875	81.6244	46.875	81.5029	46.875	81.4793	46.875	81.3708	46.875	81.3367	46.875	81.2448	46.875	81.2023	46.875	81.1283	46.875	81.081	46.875	81.0244	46.875	80.9767	46.875	80.9354	46.875	80.8918	46.875	80.8633	46.875	80.8275	46.875	80.8093	46.875	80.784	46.875	80.774	46.875	80.761	46.875	80.7578
48.3398	82.6648	48.3398	82.6518	48.3398	82.6516	48.3398	82.6132	48.3398	82.6125	48.3398	82.5505	48.3398	82.5482	48.3398	82.4657	48.3398	82.4605	48.3398	82.3619	48.3398	82.3522	48.3398	82.2429	48.3398	82.2267	48.3398	82.1133	48.3398	82.0883	48.3398	81.978	48.3398	81.9425	48.3398	81.8421	48.3398	81.7952	48.3398	81.7104	48.3398	81.6524	48.3398	81.5873	48.3398	81.5201	48.3398	81.476	48.3398	81.4035	48.3398	81.3789	48.3398	81.3063	48.3398	81.2975	48.3398	81.2303	48.3398	81.2321	48.3398	81.176	48.3398	81.1827	48.3398	81.1424	48.3398	81.1488	48.3398	81.1277	48.3398	81.1302
51.2695	83.3228	51.2695	83.3054	51.2695	83.3088	51.2695	83.2572	51.2695	83.2634	51.2695	83.1798	51.2695	83.1874	51.2695	83.0757	51.2695	83.0826	51.2695	82.9481	51.2695	82.9518	51.2695	82.8013	51.2695	82.7988	51.2695	82.6404	51.2695	82.6286	51.2695	82.4712	51.2695	82.4474	51.2695	82.2999	51.2695	82.2622	51.2695	82.1328	51.2695	82.0806	51.2695	81.9754	51.2695	81.9101	51.2695	81.8326	51.2695	81.7576	51.2695	81.7077	51.2695	81.6286	51.2695	81.6028	51.2695	81.5267	51.2695	81.5185	51.2695	81.4531	51.2695	81.4549	51.2695	81.407	51.2695	81.4116	51.2695	81.3862	51.2695	81.3884
52.7344	83.6052	52.7344	83.586	52.7344	83.5907	52.7344	83.534	52.7344	83.5427	52.7344	83.4505	52.7344	83.4617	52.7344	83.3375	52.7344	83.3495	52.7344	83.1982	52.7344	83.2084	52.7344	83.0364	52.7344	83.0419	52.7344	82.8568	52.7344	82.8546	52.7344	82.6651	52.7344	82.6524	52.7344	82.4673	52.7344	82.442	52.7344	82.2699	52.7344	82.231	52.7344	82.0791	52.7344	82.0274	52.7344	81.9007	52.7344	81.8387	52.7344	81.7394	52.7344	81.6721	52.7344	81.5994	52.7344	81.5333	52.7344	81.4841	52.7344	81.4263	52.7344	81.396	52.7344	81.3533	52.7344	81.3373	52.7344	81.3147	52.7344	81.3098
54.1992	83.8074	54.1992	83.7798	54.1992	83.8035	54.1992	83.7214	54.1992	83.7678	54.1992	83.634	54.1992	83.7011	54.1992	83.5198	54.1992	83.6045	54.1992	83.382	54.1992	83.4805	54.1992	83.2245	54.1992	83.3322	54.1992	83.0521	54.1992	83.1638	54.1992	82.8699	54.1992	82.9806	54.1992	82.6835	54.1992	82.7885	54.1992	82.4985	54.1992	82.5942	54.1992	82.3202	54.1992	82.4043	54.1992	82.1539	54.1992	82.2252	54.1992	82.0043	54.1992	82.0626	54.1992	81.8761	54.1992	81.9215	54.1992	81.7731	54.1992	81.8064	54.1992	81.6987	54.1992	81.7204	54.1992	81.6552	54.1992	81.6659	54.1992	81.6441
55.6641	83.7696	55.6641	83.7506	55.6641	83.7611	55.6641	83.7051	55.6641	83.7252	55.6641	83.6348	55.6641	83.6625	55.6641	83.5424	55.6641	83.5747	55.6641	83.4312	55.6641	83.4644	55.6641	83.305	55.6641	83.3352	55.6641	83.1682	55.6641	83.1914	55.6641	83.0255	55.6641	83.0386	55.6641	82.8815	55.6641	82.8828	55.6641	82.7407	55.6641	82.7301	55.6641	82.6071	55.6641	82.5867	55.6641	82.4842	55.6641	82.4576	55.6641	82.375	55.6641	82.3466	55.6641	82.2819	55.6641	82.2557	55.6641	82.207	55.6641	82.1859	55.6641	82.1516	55.6641	82.1373	55.6641	82.1167	55.6641	82.1096	55.6641	82.1027
58.5938	84.055	58.5938	84.0244	58.5938	84.0558	58.5938	83.9649	58.5938	84.027	58.5938	83.8783	58.5938	83.9695	58.5938	83.7674	58.5938	83.8855	58.5938	83.6361	58.5938	83.7779	58.5938	83.4893	58.5938	83.6509	58.5938	83.3325	58.5938	83.5094	58.5938	83.1722	58.5938	83.3592	58.5938	83.0149	58.5938	83.2064	58.5938	82.867	58.5938	83.057	58.5938	82.7343	58.5938	82.9165	58.5938	82.6211	58.5938	82.7893	58.5938	82.5302	58.5938	82.6787	58.5938	82.4622	58.5938	82.5861	58.5938	82.4162	58.5938	82.5118	58.5938	82.3902	58.5938	82.4551	58.5938	82.3823	58.5938	82.4151	58.5938	82.3909
60.0586	84.1611	60.0586	84.1388	60.0586	84.1541	60.0586	84.0883	60.0586	84.1177	60.0586	84.0116	60.0586	84.0527	60.0586	83.9117	60.0586	83.9612	60.0586	83.7923	60.0586	83.846	60.0586	83.6579	60.0586	83.7115	60.0586	83.5136	60.0586	83.5631	60.0586	83.365	60.0586	83.407	60.0586	83.2175	60.0586	83.25	60.0586	83.0765	60.0586	83.0988	60.0586	82.9467	60.0586	82.9596	60.0586	82.8317	60.0586	82.8371	60.0586	82.734	60.0586	82.7342	60.0586	82.6548	60.0586	82.6522	60.0586	82.5942	60.0586	82.5908	60.0586	82.5516	60.0586	82.5488	60.0586	82.5261	60.0586	82.5246	60.0586	82.5172
62.9883	84.3516	62.9883	84.3177	62.9883	84.3543	62.9883	84.2537	62.9883	84.3257	62.9883	84.1618	62.9883	84.2669	62.9883	84.0455	62.9883	84.1799	62.9883	83.9094	62.9883	84.0681	62.9883	83.7592	62.9883	83.9356	62.9883	83.6014	62.9883	83.7879	62.9883	83.4429	62.9883	83.6312	62.9883	83.2904	62.9883	83.4725	62.9883	83.1502	62.9883	83.3187	62.9883	83.0269	62.9883	83.1763	62.9883	82.9236	62.9883	83.0505	62.9883	82.8414	62.9883	82.9445	62.9883	82.7797	62.9883	82.8593	62.9883	82.7369	62.9883	82.7944	62.9883	82.7107	62.9883	82.7478	62.9883	82.6994	62.9883	82.7175	62.9883	82.7017
64.4531	84.3586	64.4531	84.32	64.4531	84.3661	64.4531	84.2517	64.4531	84.3425	64.4531	84.1559	64.4531	84.2889	64.4531	84.0364	64.4531	84.2076	64.4531	83.8981	64.4531	84.1021	64.4531	83.747	64.4531	83.9768	64.4531	83.5898	64.4531	83.8372	64.4531	83.4337	64.4531	83.6895	64.4531	83.2859	64.4531	83.5403	64.4531	83.1523	64.4531	83.3962	64.4531	83.0376	64.4531	83.2631	64.4531	82.9445	64.4531	83.1453	64.4531	82.8736	64.4531	83.0454	64.4531	82.8241	64.4531	82.9639	64.4531	82.7935	64.4531	82.8997	64.4531	82.7795	64.4531	82.8508	64.4531	82.7794	64.4531	82.8153	64.4531	82.7916
67.3828	84.3483	67.3828	84.3143	67.3828	84.3503	67.3828	84.2493	67.3828	84.3206	67.3828	84.1558	67.3828	84.2608	67.3828	84.0377	67.3828	84.1739	67.3828	83.9003	67.3828	84.064	67.3828	83.7501	67.3828	83.9364	67.3828	83.5944	67.3828	83.7975	67.3828	83.441	67.3828	83.654	67.3828	83.2977	67.3828	83.5131	67.3828	83.171	67.3828	83.3811	67.3828	83.0657	67.3828	83.2633	67.3828	82.9844	67.3828	83.1632	67.3828	82.9271	67.3828	83.082	67.3828	82.8917	67.3828	83.0191	67.3828	82.8745	67.3828	82.9717	67.3828	82.8711	67.3828	82.9366	67.3828	82.8775	67.3828	82.9105	67.3828	82.891
68.8477	84.3512	68.8477	84.3159	68.8477	84.353	68.8477	84.248	68.8477	84.3213	68.8477	84.1505	68.8477	84.258	68.8477	84.0274	68.8477	84.166	68.8477	83.8844	68.8477	84.0498	68.8477	83.7283	68.8477	83.9152	68.8477	83.5672	68.8477	83.7688	68.8477	83.4091	68.8477	83.618	68.8477	83.262	68.8477	83.4705	68.8477	83.1327	68.8477	83.333	68.8477	83.0259	68.8477	83.2111	68.8477	82.9439	68.8477	83.1083	68.8477	82.8863	68.8477	83.0258	68.8477	82.8506	68.8477	82.9628	68.8477	82.8328	68.8477	82.9166	68.8477	82.8282	68.8477	82.8836	68.8477	82.8327	68.8477	82.8602	68.8477	82.8436
71.7773	84.5254	71.7773	84.4795	71.7773	84.5363	71.7773	84.3998	71.7773	84.5125	71.7773	84.2891	71.7773	84.4558	71.7773	84.1518	71.7773	84.3696	71.7773	83.9941	71.7773	84.2587	71.7773	83.8236	71.7773	84.1289	71.7773	83.6492	71.7773	83.9875	71.7773	83.4806	71.7773	83.8421	71.7773	83.3271	71.7773	83.7004	71.7773	83.1967	71.7773	83.5692	71.7773	83.0951	71.7773	83.4539	71.7773	83.0246	71.7773	83.3571	71.7773	82.9841	71.7773	83.279	71.7773	82.9696	71.7773	83.2173	71.7773	82.9754	71.7773	83.1682	71.7773	82.9952	71.7773	83.1271	71.7773	83.0233	71.7773	83.0903	71.7773	83.0558
74.707	84.6613	74.707	84.6135	74.707	84.6721	74.707	84.5295	74.707	84.6467	74.707	84.4121	74.707	84.5872	74.707	84.2656	74.707	84.4977	74.707	84.0965	74.707	84.3834	74.707	83.9125	74.707	84.251	74.707	83.7234	74.707	84.108	74.707	83.5395	74.707	83.962	74.707	83.3714	74.707	83.8206	74.707	83.2285	74.707	83.69	74.707	83.1177	74.707	83.5746	74.707	83.0425	74.707	83.4765	74.707	83.0024	74.707	83.3953	74.707	82.9931	74.707	83.3286	74.707	83.0082	74.707	83.2724	74.707	83.0401	74.707	83.2223	74.707	83.0817	74.707	83.1747	74.707	83.1276
77.6367	84.7521	77.6367	84.7165	77.6367	84.7473	77.6367	84.641	77.6367	84.7033	77.6367	84.5278	77.6367	84.6227	77.6367	84.3809	77.6367	84.51	77.6367	84.2065	77.6367	84.3711	77.6367	84.0125	77.6367	84.2135	77.6367	83.809	77.6367	84.0457	77.6367	83.6073	77.6367	83.8769	77.6367	83.4197	77.6367	83.7159	77.6367	83.2574	77.6367	83.5705	77.6367	83.1291	77.6367	83.4463	77.6367	83.0396	77.6367	83.3456	77.6367	82.9882	77.6367	83.2678	77.6367	82.9699	77.6367	83.2091	77.6367	82.9765	77.6367	83.1644	77.6367	82.9989	77.6367	83.128	77.6367	83.0293	77.6367	83.0948	77.6367	83.0621
79.1016	84.7287	79.1016	84.6974	79.1016	84.7189	79.1016	84.6255	79.1016	84.669	79.1016	84.5151	79.1016	84.5817	79.1016	84.3702	79.1016	84.4613	79.1016	84.1965	79.1016	84.3137	79.1016	84.0014	79.1016	84.1464	79.1016	83.7945	79.1016	83.9681	79.1016	83.5869	79.1016	83.7885	79.1016	83.3905	79.1016	83.6171	79.1016	83.2168	79.1016	83.4623	79.1016	83.0755	79.1016	83.3303	79.1016	82.9725	79.1016	83.2241	79.1016	82.9086	79.1016	83.1431	79.1016	82.8797	79.1016	83.0839	79.1016	82.8781	79.1016	83.0406	79.1016	82.8942	79.1016	83.0069	79.1016	82.9198	79.1016	82.9773	79.1016	82.9484
82.0312	84.7198	82.0312	84.6945	82.0312	84.704	82.0312	84.6294	82.0312	84.6475	82.0312	84.5271	82.0312	84.5525	82.0312	84.392	82.0312	84.4228	82.0312	84.2299	82.0312	84.2645	82.0312	84.0481	82.0312	84.0851	82.0312	83.855	82.0312	83.8941	82.0312	83.6604	82.0312	83.7021	82.0312	83.4743	82.0312	83.5196	82.0312	83.3064	82.0312	83.3562	82.0312	83.1646	82.0312	83.219	82.0312	83.0544	82.0312	83.1118	82.0312	82.9774	82.0312	83.0343	82.0312	82.931	82.0312	82.983	82.0312	82.9092	82.0312	82.9519	82.0312	82.9041	82.0312	82.9341	82.0312	82.908	82.0312	82.9233	82.0312	82.9151
84.9609	84.6851	84.9609	84.6554	84.9609	84.6733	84.9609	84.5858	84.9609	84.6198	84.9609	84.4798	84.9609	84.5267	84.9609	84.3425	84.9609	84.398	84.9609	84.1806	84.9609	84.2397	84.9609	84.0023	84.9609	84.06	84.9609	83.8172	84.9609	83.8688	84.9609	83.635	84.9609	83.6771	84.9609	83.4655	84.9609	83.4962	84.9609	83.3169	84.9609	83.3358	84.9609	83.195	84.9609	83.2033	84.9609	83.1024	84.9609	83.1023	84.9609	83.0382	84.9609	83.0327	84.9609	82.9986	84.9609	82.9904	84.9609	82.9777	84.9609	82.9692	84.9609	82.9686	84.9609	82.9618	84.9609	82.9652	84.9609	82.9614	84.9609	82.9632
87.8906	84.4491	87.8906	84.4246	87.8906	84.4301	87.8906	84.3583	87.8906	84.3687	87.8906	84.254	87.8906	84.2682	87.8906	84.1177	87.8906	84.1344	87.8906	83.9579	87.8906	83.9758	87.8906	83.7849	87.8906	83.803	87.8906	83.6106	87.8906	83.6286	87.8906	83.4474	87.8906	83.4655	87.8906	83.3068	87.8906	83.3257	87.8906	83.1976	87.8906	83.2185	87.8906	83.1245	87.8906	83.1484	87.8906	83.0873	87.8906	83.1145	87.8906	83.0811	87.8906	83.1107	87.8906	83.0974	87.8906	83.1274	87.8906	83.1262	87.8906	83.1534	87.8906	83.1574	87.8906	83.1783	87.8906	83.1825	87.8906	83.1939	87.8906	83.1956
90.8203	84.9043	90.8203	84.8667	90.8203	84.8897	90.8203	84.7785	90.8203	84.8231	90.8203	84.6435	90.8203	84.7067	90.8203	84.4673	90.8203	84.5449	90.8203	84.2579	90.8203	84.3446	90.8203	84.0253	90.8203	84.1151	90.8203	83.7816	90.8203	83.8685	90.8203	83.5407	90.8203	83.6191	90.8203	83.3165	90.8203	83.3821	90.8203	83.1221	90.8203	83.1727	90.8203	82.9671	90.8203	83.0029	90.8203	82.8561	90.8203	82.8797	90.8203	82.7879	90.8203	82.8033	90.8203	82.7561	90.8203	82.7669	90.8203	82.7503	90.8203	82.7587	90.8203	82.7585	90.8203	82.7651	90.8203	82.7697	90.8203	82.7735	90.8203	82.7758
95.2148	84.2564	95.2148	84.2121	95.2148	84.2536	95.2148	84.1223	95.2148	84.2042	95.2148	83.9914	95.2148	84.1114	95.2148	83.8258	95.2148	83.9806	95.2148	83.6347	95.2148	83.8195	95.2148	83.4294	95.2148	83.6384	95.2148	83.2231	95.2148	83.4494	95.2148	83.0299	95.2148	83.2659	95.2148	82.8631	95.2148	83.1008	95.2148	82.7337	95.2148	82.9655	95.2148	82.6483	95.2148	82.8672	95.2148	82.6074	95.2148	82.8075	95.2148	82.6061	95.2148	82.7824	95.2148	82.6346	95.2148	82.7826	95.2148	82.6803	95.2148	82.796	95.2148	82.7305	95.2148	82.8102	95.2148	82.7742	95.2148	82.8149	95.2148	82.8034
98.1445	84.3636	98.1445	84.3257	98.1445	84.3501	98.1445	84.2378	98.1445	84.2862	98.1445	84.1037	98.1445	84.1751	98.1445	83.9298	98.1445	84.0223	98.1445	83.7251	98.1445	83.8359	98.1445	83.5014	98.1445	83.6262	98.1445	83.2728	98.1445	83.4061	98.1445	83.0547	98.1445	83.1898	98.1445	82.8624	98.1445	82.9922	98.1445	82.7086	98.1445	82.8265	98.1445	82.6014	98.1445	82.7024	98.1445	82.5423	98.1445	82.6236	98.1445	82.5259	98.1445	82.5874	98.1445	82.5412	98.1445	82.5848	98.1445	82.5741	98.1445	82.6029	98.1445	82.6106	98.1445	82.6277	98.1445	82.6389	98.1445	82.6469	98.1445	82.6517
101.074	84.1363	101.074	84.1	101.074	84.1222	101.074	84.0141	101.074	84.0591	101.074	83.8823	101.074	83.951	101.074	83.7108	101.074	83.8038	101.074	83.5088	101.074	83.6262	101.074	83.2884	101.074	83.4287	101.074	83.0643	101.074	83.2238	101.074	82.8526	101.074	83.0249	101.074	82.6696	101.074	82.8456	101.074	82.529	101.074	82.6978	101.074	82.4391	101.074	82.5897	101.074	82.401	101.074	82.5248	101.074	82.4079	101.074	82.5003	101.074	82.4464	101.074	82.5081	101.074	82.4999	101.074	82.5358	101.074	82.5517	101.074	82.5695	101.074	82.5888	101.074	82.5956	101.074	82.6038
105.469	84.6062	105.469	84.5719	105.469	84.576	105.469	84.4758	105.469	84.4816	105.469	84.3233	105.469	84.3268	105.469	84.1227	105.469	84.119	105.469	83.885	105.469	83.8703	105.469	83.6239	105.469	83.5975	105.469	83.3556	105.469	83.3213	105.469	83.0979	105.469	83.0648	105.469	82.8681	105.469	82.8497	105.469	82.6814	105.469	82.6913	105.469	82.5477	105.469	82.5958	105.469	82.4706	105.469	82.558	105.469	82.4459	105.469	82.5642	105.469	82.4632	105.469	82.5958	105.469	82.5081	105.469	82.634	105.469	82.5647	105.469	82.6628	105.469	82.618	105.469	82.6717	105.469	82.6561
108.398	84.9751	108.398	84.9294	108.398	84.9522	108.398	84.8174	108.398	84.8604	108.398	84.6439	108.398	84.7019	108.398	84.4162	108.398	84.4815	108.398	84.1448	108.398	84.2076	108.398	83.8437	108.398	83.8931	108.398	83.5303	108.398	83.5563	108.398	83.2248	108.398	83.2211	108.398	82.9478	108.398	82.9153	108.398	82.7177	108.398	82.6658	108.398	82.547	108.398	82.4923	108.398	82.4397	108.398	82.401	108.398	82.3915	108.398	82.3815	108.398	82.3908	108.398	82.4113	108.398	82.4217	108.398	82.4624	108.398	82.4669	108.398	82.5099	108.398	82.5097	108.398	82.5368	108.398	82.536
112.793	85.0864	112.793	85.0437	112.793	85.0645	112.793	84.9384	112.793	84.9781	112.793	84.7742	112.793	84.8295	112.793	84.5575	112.793	84.6228	112.793	84.2971	112.793	84.3647	112.793	84.0046	112.793	84.0646	112.793	83.6949	112.793	83.7351	112.793	83.3854	112.793	83.3927	112.793	83.095	112.793	83.0573	112.793	82.8417	112.793	82.751	112.793	82.639	112.793	82.4953	112.793	82.4929	112.793	82.3068	112.793	82.4005	112.793	82.192	112.793	82.3508	112.793	82.1454	112.793	82.3281	112.793	82.151	112.793	82.3161	112.793	82.1872	112.793	82.3007	112.793	82.2331	112.793	82.2734
117.188	84.8786	117.188	84.8363	117.188	84.8604	117.188	84.7358	117.188	84.7812	117.188	84.582	117.188	84.6428	117.188	84.3815	117.188	84.4494	117.188	84.143	117.188	84.2082	117.188	83.8775	117.188	83.929	117.188	83.5977	117.188	83.6251	117.188	83.3184	117.188	83.313	117.188	83.0549	117.188	83.0119	117.188	82.8226	117.188	82.7419	117.188	82.6333	117.188	82.5208	117.188	82.4939	117.188	82.3607	117.188	82.4035	117.188	82.2642	117.188	82.3545	117.188	82.2241	117.188	82.3338	117.188	82.2253	117.188	82.3268	117.188	82.2497	117.188	82.3202	117.188	82.2803	117.188	82.3055
120.117	84.6425	120.117	84.5806	120.117	84.651	120.117	84.4699	120.117	84.6044	120.117	84.3176	120.117	84.5038	120.117	84.133	120.117	84.3527	120.117	83.9268	120.117	84.1575	120.117	83.7102	120.117	83.9265	120.117	83.4937	120.117	83.6697	120.117	83.2861	120.117	83.3989	120.117	83.0939	120.117	83.1268	120.117	82.9209	120.117	82.8671	120.117	82.7686	120.117	82.6336	120.117	82.6366	120.117	82.4383	120.117	82.5236	120.117	82.29	120.117	82.4274	120.117	82.1916	120.117	82.3461	120.117	82.1397	120.117	82.2776	120.117	82.1261	120.117	82.2202	120.117	82.1405	120.117	82.1738
124.512	84.1495	124.512	84.0671	124.512	84.1587	124.512	83.9144	124.512	84.0965	124.512	83.6992	124.512	83.9688	124.512	83.4353	124.512	83.7861	124.512	83.1428	124.512	83.5639	124.512	82.8489	124.512	83.3222	124.512	82.585	124.512	83.0843	124.512	82.3828	124.512	82.8744	124.512	82.2657	124.512	82.7132	124.512	82.2424	124.512	82.6137	124.512	82.3035	124.512	82.5785	124.512	82.4252	124.512	82.5998	124.512	82.5771	124.512	82.663	124.512	82.7303	124.512	82.7501	124.512	82.8621	124.512	82.8437	124.512	82.9579	124.512	82.9281	124.512	83.0108	124.512	82.9903	124.512	83.0204
128.906	84.6602	128.906	84.5874	128.906	84.6547	128.906	84.4376	128.906	84.5726	128.906	84.2153	128.906	84.4186	128.906	83.9293	128.906	84.201	128.906	83.5933	128.906	83.9317	128.906	83.2273	128.906	83.6274	128.906	82.8582	128.906	83.3098	128.906	82.5188	128.906	83.0048	128.906	82.2439	128.906	82.74	128.906	82.0625	128.906	82.54	128.906	81.9891	128.906	82.4204	128.906	82.0183	128.906	82.383	128.906	82.1264	128.906	82.4149	128.906	82.279	128.906	82.4924	128.906	82.4407	128.906	82.5871	128.906	82.5819	128.906	82.6718	128.906	82.682	128.906	82.7244	128.906	82.7301
133.301	84.7674	133.301	84.7192	133.301	84.74	133.301	84.5963	133.301	84.639	133.301	84.4024	133.301	84.4695	133.301	84.145	133.301	84.24	133.301	83.8355	133.301	83.9628	133.301	83.4904	133.301	83.6545	133.301	83.132	133.301	83.3364	133.301	82.7878	133.301	83.0331	133.301	82.4886	133.301	82.7702	133.301	82.2626	133.301	82.5702	133.301	82.129	133.301	82.4468	133.301	82.0915	133.301	82.401	133.301	82.1372	133.301	82.4202	133.301	82.24	133.301	82.4815	133.301	82.3687	133.301	82.5578	133.301	82.4938	133.301	82.6233	133.301	82.5919	133.301	82.6576	133.301	82.6483
139.16	84.7559	139.16	84.7112	139.16	84.7236	139.16	84.5921	139.16	84.6152	139.16	84.4056	139.16	84.436	139.16	84.1625	139.16	84.1954	139.16	83.8779	139.16	83.9078	139.16	83.5712	139.16	83.5922	139.16	83.2647	139.16	83.2717	139.16	82.9821	139.16	82.9717	139.16	82.7447	139.16	82.7163	139.16	82.5674	139.16	82.5234	139.16	82.4562	139.16	82.4014	139.16	82.4065	139.16	82.3472	139.16	82.4058	139.16	82.3481	139.16	82.4367	139.16	82.3859	139.16	82.4812	139.16	82.441	139.16	82.5234	139.16	82.4958	139.16	82.551	139.16	82.5371	139.16	82.5564
143.555	84.4287	143.555	84.3646	143.555	84.4136	143.555	84.2255	143.555	84.3204	143.555	84.0203	143.555	84.1553	143.555	83.7639	143.555	83.9298	143.555	83.477	143.555	83.6617	143.555	83.1862	143.555	83.3742	143.555	82.9209	143.555	83.0945	143.555	82.709	143.555	82.85	143.555	82.5697	143.555	82.6635	143.555	82.5085	143.555	82.5469	143.555	82.5155	143.555	82.4995	143.555	82.5703	143.555	82.5093	143.555	82.6485	143.555	82.5578	143.555	82.7285	143.555	82.6263	143.555	82.7946	143.555	82.6989	143.555	82.838	143.555	82.7645	143.555	82.8553	143.555	82.8155	143.555	82.847
147.949	83.9299	147.949	83.8525	147.949	83.9132	147.949	83.6833	147.949	83.8068	147.949	83.4319	147.949	83.6219	147.949	83.1167	147.949	83.3781	147.949	82.7667	147.949	83.1037	147.949	82.4213	147.949	82.8355	147.949	82.1272	147.949	82.6144	147.949	81.9284	147.949	82.4763	147.949	81.852	147.949	82.44	147.949	81.8982	147.949	82.5006	147.949	82.0408	147.949	82.6314	147.949	82.2394	147.949	82.7948	147.949	82.4549	147.949	82.9549	147.949	82.6584	147.949	83.0853	147.949	82.8341	147.949	83.1716	147.949	82.9764	147.949	83.2105	147.949	83.0855	147.949	83.2055	147.949	83.1623
153.809	83.9348	153.809	83.872	153.809	83.8509	153.809	83.6637	153.809	83.6225	153.809	83.3151	153.809	83.2564	153.809	82.8382	153.809	82.7672	153.809	82.2573	153.809	82.1847	153.809	81.6183	153.809	81.5643	153.809	80.9991	153.809	80.9975	153.809	80.5095	153.809	80.6078	153.809	80.2644	153.809	80.507	153.809	80.3245	153.809	80.7264	153.809	80.6559	153.809	81.1898	153.809	81.1555	153.809	81.7664	153.809	81.7129	153.809	82.3377	153.809	82.2473	153.809	82.8269	153.809	82.712	153.809	83.1956	153.809	83.0833	153.809	83.4299	153.809	83.3487	153.809	83.5295	153.809	83.4999
159.668	84.6211	159.668	84.5828	159.668	84.5293	159.668	84.418	159.668	84.3039	159.668	84.1307	159.668	83.9417	159.668	83.7268	159.668	83.442	159.668	83.2167	159.668	82.8101	159.668	82.6216	159.668	82.0657	159.668	81.9812	159.668	81.2574	159.668	81.3633	159.668	80.4827	159.668	80.8646	159.668	79.8959	159.668	80.5888	159.668	79.6624	159.668	80.5952	159.668	79.8485	159.668	80.8595	159.668	80.36	159.668	81.2887	159.668	81.0187	159.668	81.773	159.668	81.6691	159.668	82.2248	159.668	82.2162	159.668	82.5867	159.668	82.6147	159.668	82.8239	159.668	82.848	159.668	82.9154
165.527	84.9979	165.527	84.8899	165.527	84.9809	165.527	84.6613	165.527	84.8339	165.527	84.3169	165.527	84.5516	165.527	83.8635	165.527	84.1288	165.527	83.3135	165.527	83.5629	165.527	82.6905	165.527	82.8592	165.527	82.0382	165.527	82.0404	165.527	81.4288	165.527	81.1653	165.527	80.9613	165.527	80.3525	165.527	80.7342	165.527	79.7826	165.527	80.7929	165.527	79.6268	165.527	81.0967	165.527	79.9156	165.527	81.543	165.527	80.507	165.527	82.0201	165.527	81.2029	165.527	82.4411	165.527	81.8534	165.527	82.7497	165.527	82.3751	165.527	82.9124	165.527	82.7311	165.527	82.9096
171.387	85.1836	171.387	85.0581	171.387	85.1841	171.387	84.808	171.387	85.0579	171.387	84.4334	171.387	84.8018	171.387	83.9359	171.387	84.4122	171.387	83.3218	171.387	83.8858	171.387	82.609	171.387	83.2246	171.387	81.8387	171.387	82.4431	171.387	81.0906	171.387	81.5844	171.387	80.4897	171.387	80.7422	171.387	80.1766	171.387	80.075	171.387	80.2275	171.387	79.7637	171.387	80.5926	171.387	79.8925	171.387	81.1306	171.387	80.3707	171.387	81.6953	171.387	81.0096	171.387	82.1829	171.387	81.6422	171.387	82.5333	171.387	82.1663	171.387	82.7158	171.387	82.5313	171.387	82.7164
177.246	85.0953	177.246	84.9908	177.246	85.0824	177.246	84.7655	177.246	84.9542	177.246	84.4149	177.246	84.7111	177.246	83.9341	177.246	84.3521	177.246	83.3207	177.246	83.8761	177.246	82.58	177.246	83.2844	177.246	81.7367	177.246	82.5868	177.246	80.8548	177.246	81.813	177.246	80.0608	177.246	81.0304	177.246	79.5376	177.246	80.3594	177.246	79.4386	177.246	79.9565	177.246	79.7605	177.246	79.9322	177.246	80.3419	177.246	80.2592	177.246	80.9892	177.246	80.7892	177.246	81.5651	177.246	81.3544	177.246	81.9952	177.246	81.8337	177.246	82.2448	177.246	82.1595	177.246	82.3001
183.105	84.8979	183.105	84.8395	183.105	84.8344	183.105	84.6579	183.105	84.6484	183.105	84.3497	183.105	84.3375	183.105	83.9095	183.105	83.8993	183.105	83.3321	183.105	83.3336	183.105	82.6171	183.105	82.647	183.105	81.7792	183.105	81.8625	183.105	80.8673	183.105	81.0359	183.105	79.9935	183.105	80.2756	183.105	79.3479	183.105	79.742	183.105	79.1343	183.105	79.586	183.105	79.4132	183.105	79.8375	183.105	80.0362	183.105	80.3741	183.105	80.7765	183.105	81.015	183.105	81.4604	183.105	81.6136	183.105	81.9923	183.105	82.0807	183.105	82.3289	183.105	82.3688	183.105	82.4547
188.965	85.1314	188.965	85.0701	188.965	85.0706	188.965	84.887	188.965	84.8837	188.965	84.579	188.965	84.5633	188.965	84.1402	188.965	84.0986	188.965	83.5629	188.965	83.4768	188.965	82.8419	188.965	82.6862	188.965	81.983	188.965	81.725	188.965	81.0213	188.965	80.6223	188.965	80.0537	188.965	79.4825	188.965	79.2707	188.965	78.545	188.965	78.9167	188.965	78.1517	188.965	79.1153	188.965	78.4712	188.965	79.7365	188.965	79.2907	188.965	80.5212	188.965	80.2531	188.965	81.26	188.965	81.1152	188.965	81.8359	188.965	81.7659	188.965	82.1934	188.965	82.1662	188.965	82.3074
196.289	85.8575	196.289	85.7604	196.289	85.8414	196.289	85.5491	196.289	85.7083	196.289	85.2185	196.289	85.4508	196.289	84.7579	196.289	85.0574	196.289	84.1525	196.289	84.5127	196.289	83.3855	196.289	83.798	196.289	82.446	196.289	82.8944	196.289	81.3475	196.289	81.7916	196.289	80.1689	196.289	80.5128	196.289	79.1188	196.289	79.1743	196.289	78.5389	196.289	78.0781	196.289	78.6656	196.289	77.6723	196.289	79.3479	196.289	78.1279	196.289	80.2194	196.289	79.0959	196.289	81.0045	196.289	80.1329	196.289	81.5705	196.289	80.9918	196.289	81.8659	196.289	81.5798	196.289	81.8716
203.613	86.1738	203.613	86.0967	203.613	86.1427	203.613	85.9086	203.613	86.0032	203.613	85.6036	203.613	85.7514	203.613	85.1729	203.613	85.3789	203.613	84.6037	203.613	84.8716	203.613	83.8798	203.613	84.2108	203.613	82.9844	203.613	83.3757	203.613	81.9095	203.613	82.3525	203.613	80.6826	203.613	81.1557	203.613	79.4265	203.613	79.8788	203.613	78.4411	203.613	78.7752	203.613	78.1345	203.613	78.249	203.613	78.6176	203.613	78.5214	203.613	79.5367	203.613	79.3371	203.613	80.4775	203.613	80.2711	203.613	81.2111	203.613	81.0521	203.613	81.6494	203.613	81.5644	203.613	81.7677
210.938	86.4095	210.938	86.3312	210.938	86.3979	210.938	86.1603	210.938	86.2942	210.938	85.8894	210.938	86.0915	210.938	85.5059	210.938	85.7767	210.938	84.9911	210.938	85.3306	210.938	84.3201	210.938	84.727	210.938	83.4626	210.938	83.9339	210.938	82.3885	210.938	82.9161	210.938	81.0849	210.938	81.6462	210.938	79.6038	210.938	80.1381	210.938	78.1712	210.938	78.543	210.938	77.288	210.938	77.3136	210.938	77.399	210.938	77.0773	210.938	78.2737	210.938	77.8425	210.938	79.325	210.938	78.9632	210.938	80.1814	210.938	79.941	210.938	80.7003	210.938	80.5829	210.938	80.838
218.262	85.4335	218.262	85.3882	218.262	85.4183	218.262	85.2851	218.262	85.3382	218.262	85.1233	218.262	85.188	218.262	84.8962	218.262	84.9606	218.262	84.59	218.262	84.6449	218.262	84.1832	218.262	84.2246	218.262	83.6491	218.262	83.6777	218.262	82.9603	218.262	82.9792	218.262	82.0982	218.262	82.1088	218.262	81.0723	218.262	81.0656	218.262	79.9571	218.262	79.901	218.262	78.9416	218.262	78.7731	218.262	78.3155	218.262	77.9761	218.262	78.2608	218.262	77.7852	218.262	78.6358	218.262	78.1541	218.262	79.1173	218.262	78.7487	218.262	79.4498	218.262	79.2551	218.262	79.5062
225.586	85.7026	225.586	85.6517	225.586	85.6441	225.586	85.493	225.586	85.4766	225.586	85.2304	225.586	85.2029	225.586	84.8683	225.586	84.827	225.586	84.4098	225.586	84.3529	225.586	83.8563	225.586	83.7838	225.586	83.2085	225.586	83.1226	225.586	82.4729	225.586	82.3769	225.586	81.6756	225.586	81.5702	225.586	80.8825	225.586	80.7607	225.586	80.2146	225.586	80.0607	225.586	79.8233	225.586	79.6233	225.586	79.8	225.586	79.5606	225.586	80.0909	225.586	79.8437	225.586	80.5304	225.586	80.3139	225.586	80.9464	225.586	80.7893	225.586	81.2201	225.586	81.1382	225.586	81.2897
232.91	86.6385	232.91	86.5542	232.91	86.6006	232.91	86.3512	232.91	86.4378	232.91	86.0329	232.91	86.1472	232.91	85.6004	232.91	85.7254	232.91	85.0507	232.91	85.1656	232.91	84.3759	232.91	84.456	232.91	83.5638	232.91	83.5793	232.91	82.6068	232.91	82.5178	232.91	81.5238	232.91	81.2722	232.91	80.4071	232.91	79.912	232.91	79.4846	232.91	78.6749	232.91	79.0859	232.91	78.013	232.91	79.3633	232.91	78.2531	232.91	80.0898	232.91	79.1498	232.91	80.9019	232.91	80.2038	232.91	81.5533	232.91	81.0978	232.91	81.9285	232.91	81.7041	232.91	81.9831
241.699	86.5273	241.699	86.4048	241.699	86.5527	241.699	86.1891	241.699	86.477	241.699	85.8833	241.699	86.2949	241.699	85.4884	241.699	85.9991	241.699	85.0017	241.699	85.5783	241.699	84.416	241.699	85.0163	241.699	83.7191	241.699	84.29	241.699	82.8981	241.699	83.3701	241.699	81.9492	241.699	82.2257	241.699	80.8978	241.699	80.841	241.699	79.8371	241.699	79.2678	241.699	78.9674	241.699	77.751	241.699	78.5522	241.699	76.8437	241.699	78.7012	241.699	77.0041	241.699	79.2175	241.699	77.9179	241.699	79.7722	241.699	78.946	241.699	80.1159	241.699	79.7205	241.699	80.1156
250.488	86.3761	250.488	86.2585	250.488	86.3887	250.488	86.039	250.488	86.2963	250.488	85.7229	250.488	86.1015	250.488	85.3149	250.488	85.8086	250.488	84.8169	250.488	85.4207	250.488	84.2263	250.488	84.9372	250.488	83.5363	250.488	84.3524	250.488	82.7419	250.488	83.6555	250.488	81.8545	250.488	82.8363	250.488	80.9293	250.488	81.8994	250.488	80.0967	250.488	80.8943	250.488	79.5534	250.488	79.9598	250.488	79.4465	250.488	79.3345	250.488	79.7272	250.488	79.2205	250.488	80.1847	250.488	79.5674	250.488	80.6041	250.488	80.1066	250.488	80.8463	250.488	80.5798	250.488	80.8427
259.277	87.1634	259.277	87.0508	259.277	87.1439	259.277	86.8076	259.277	86.9926	259.277	86.436	259.277	86.7115	259.277	85.9376	259.277	86.3037	259.277	85.3117	259.277	85.7709	259.277	84.554	259.277	85.1118	259.277	83.658	259.277	84.3209	259.277	82.622	259.277	83.3914	259.277	81.4697	259.277	82.3257	259.277	80.2951	259.277	81.1613	259.277	79.3224	259.277	80.027	259.277	78.8768	259.277	79.2011	259.277	79.1184	259.277	79.0124	259.277	79.8338	259.277	79.4957	259.277	80.6616	259.277	80.3127	259.277	81.3482	259.277	81.0969	259.277	81.7694	259.277	81.6434	259.277	81.8731
268.066	86.7799	268.066	86.6703	268.066	86.7764	268.066	86.4522	268.066	86.6564	268.066	86.1295	268.066	86.4172	268.066	85.7041	268.066	86.0557	268.066	85.1732	268.066	85.5658	268.066	84.5279	268.066	84.9376	268.066	83.754	268.066	84.1562	268.066	82.837	268.066	83.2058	268.066	81.7764	268.066	82.0784	268.066	80.6171	268.066	80.7944	268.066	79.5038	268.066	79.448	268.066	78.7137	268.066	78.2774	268.066	78.5175	268.066	77.6607	268.066	78.8876	268.066	77.8218	268.066	79.5069	268.066	78.5309	268.066	80.062	268.066	79.3598	268.066	80.3737	268.066	80.0141	268.066	80.3639
276.855	86.3202	276.855	86.1711	276.855	86.3671	276.855	85.9217	276.855	86.3105	276.855	85.5738	276.855	86.1493	276.855	85.1259	276.855	85.8802	276.855	84.5695	276.855	85.4955	276.855	83.8872	276.855	84.9816	276.855	83.0544	276.855	84.3194	276.855	82.051	276.855	83.4878	276.855	80.8903	276.855	82.4737	276.855	79.6785	276.855	81.2961	276.855	78.691	276.855	80.0589	276.855	78.312	276.855	79.0204	276.855	78.6669	276.855	78.5453	276.855	79.4442	276.855	78.7792	276.855	80.2496	276.855	79.4599	276.855	80.8519	276.855	80.2161	276.855	81.1576	276.855	80.8127	276.855	81.1412
287.109	86.2811	287.109	86.1879	287.109	86.2618	287.109	85.9756	287.109	86.1378	287.109	85.6399	287.109	85.9158	287.109	85.1789	287.109	85.5987	287.109	84.5912	287.109	85.1815	287.109	83.8729	287.109	84.6498	287.109	83.0125	287.109	83.979	287.109	81.9902	287.109	83.1399	287.109	80.791	287.109	82.1128	287.109	79.4563	287.109	80.9188	287.109	78.2088	287.109	79.6868	287.109	77.5611	287.109	78.7359	287.109	77.9238	287.109	78.4788	287.109	78.9777	287.109	78.9838	287.109	80.1086	287.109	79.8618	287.109	80.9719	287.109	80.7052	287.109	81.4606	287.109	81.3005	287.109	81.5641
297.363	86.6308	297.363	86.566	297.363	86.5523	297.363	86.3656	297.363	86.3332	297.363	86.0437	297.363	85.9859	297.363	85.6132	297.363	85.529	297.363	85.0768	297.363	84.9798	297.363	84.4185	297.363	84.3447	297.363	83.5991	297.363	83.6125	297.363	82.5593	297.363	82.7538	297.363	81.2393	297.363	81.7351	297.363	79.6424	297.363	80.5605	297.363	78.0178	297.363	79.3649	297.363	77.123	297.363	78.5396	297.363	77.6523	297.363	78.5758	297.363	79.0718	297.363	79.442	297.363	80.5177	297.363	80.5939	297.363	81.615	297.363	81.5912	297.363	82.2711	297.363	82.2411	297.363	82.4762
307.617	87.5953	307.617	87.514	307.617	87.551	307.617	87.307	307.617	87.3787	307.617	86.9697	307.617	87.0742	307.617	86.4933	307.617	86.632	307.617	85.8646	307.617	86.0415	307.617	85.067	307.617	85.2831	307.617	84.0802	307.617	84.3246	307.617	82.8786	307.617	83.1198	307.617	81.4309	307.617	81.6128	307.617	79.7141	307.617	79.7633	307.617	77.8039	307.617	77.6597	307.617	76.1668	307.617	75.8866	307.617	75.8229	307.617	75.6686	307.617	76.9848	307.617	77.0491	307.617	78.5909	307.617	78.7463	307.617	79.9156	307.617	80.0629	307.617	80.7526	307.617	80.8388	307.617	81.0642
319.336	87.1437	319.336	87.0514	319.336	87.0962	319.336	86.8228	319.336	86.9155	319.336	86.4677	319.336	86.617	319.336	85.9947	319.336	86.2183	319.336	85.4017	319.336	85.7283	319.336	84.6668	319.336	85.135	319.336	83.7433	319.336	84.3986	319.336	82.5598	319.336	83.4528	319.336	81.0312	319.336	82.214	319.336	79.0995	319.336	80.6014	319.336	76.9144	319.336	78.6122	319.336	75.3802	319.336	76.6221	319.336	75.8763	319.336	75.867	319.336	77.7248	319.336	77.0359	319.336	79.5277	319.336	78.8527	319.336	80.8174	319.336	80.3507	319.336	81.5344	319.336	81.3018	319.336	81.6933
329.59	87.9537	329.59	87.8753	329.59	87.9165	329.59	87.6866	329.59	87.7603	329.59	87.392	329.59	87.4862	329.59	86.9911	329.59	87.0988	329.59	86.4755	329.59	86.6015	329.59	85.8238	329.59	85.9885	329.59	84.9941	329.59	85.2339	329.59	83.9143	329.59	84.2807	329.59	82.4728	329.59	83.0339	329.59	80.5106	329.59	81.3566	329.59	77.8421	329.59	79.0877	329.59	74.5945	329.59	76.2296	329.59	73.0434	329.59	74.0543	329.59	75.2575	329.59	75.1298	329.59	77.9473	329.59	77.6448	329.59	79.8137	329.59	79.6073	329.59	80.859	329.59	80.7621	329.59	81.1672
341.309	86.913	341.309	86.8387	341.309	86.8769	341.309	86.6628	341.309	86.7353	341.309	86.4025	341.309	86.5052	341.309	86.0723	341.309	86.2062	341.309	85.675	341.309	85.8487	341.309	85.1962	341.309	85.4248	341.309	84.6034	341.309	84.9066	341.309	83.8459	341.309	84.246	341.309	82.854	341.309	83.3743	341.309	81.5446	341.309	82.2023	341.309	79.8576	341.309	80.6369	341.309	77.9146	341.309	78.6609	341.309	76.4492	341.309	76.6428	341.309	76.6094	341.309	75.8119	341.309	77.975	341.309	76.8327	341.309	79.3059	341.309	78.4269	341.309	80.0802	341.309	79.6282	341.309	80.1909
353.027	86.7958	353.027	86.7285	353.027	86.719	353.027	86.5269	353.027	86.5048	353.027	86.2138	353.027	86.174	353.027	85.8155	353.027	85.7528	353.027	85.3488	353.027	85.2558	353.027	84.8074	353.027	84.6707	353.027	84.1545	353.027	83.9542	353.027	83.3222	353.027	83.044	353.027	82.2112	353.027	81.8759	353.027	80.6893	353.027	80.4001	353.027	78.6096	353.027	78.6308	353.027	76.0081	353.027	76.8689	353.027	74.1604	353.027	76.1122	353.027	75.3844	353.027	77.1164	353.027	77.9347	353.027	78.8828	353.027	79.9342	353.027	80.3821	353.027	81.118	353.027	81.2922	353.027	81.5493
366.211	86.6262	366.211	86.5265	366.211	86.5865	366.211	86.2992	366.211	86.4126	366.211	85.972	366.211	86.1262	366.211	85.5829	366.211	85.7646	366.211	85.1641	366.211	85.3708	366.211	84.719	366.211	84.9675	366.211	84.2032	366.211	84.5264	366.211	83.5275	366.211	83.9586	366.211	82.5817	366.211	83.1324	366.211	81.2692	366.211	81.8957	366.211	79.5662	366.211	80.0919	366.211	77.7136	366.211	77.6361	366.211	76.6048	366.211	75.0651	366.211	77.1547	366.211	74.6754	366.211	78.6349	366.211	76.7686	366.211	79.9673	366.211	78.8908	366.211	80.7431	366.211	80.2604	366.211	80.8578
379.395	87.8373	379.395	87.7129	379.395	87.7564	379.395	87.3837	379.395	87.482	379.395	86.8621	379.395	87.0358	379.395	86.1699	379.395	86.4448	379.395	85.3341	379.395	85.7358	379.395	84.3791	379.395	84.9305	379.395	83.3149	379.395	84.0395	379.395	82.1279	379.395	83.0532	379.395	80.7753	379.395	81.9274	379.395	79.1739	379.395	80.5719	379.395	77.1997	379.395	78.8577	379.395	74.8561	379.395	76.7289	379.395	73.1998	379.395	74.7646	379.395	74.3203	379.395	74.7849	379.395	76.795	379.395	76.7053	379.395	78.746	379.395	78.5889	379.395	79.8546	379.395	79.7613	379.395	80.1782
392.578	87.6665	392.578	87.5904	392.578	87.6251	392.578	87.412	392.578	87.4641	392.578	87.1461	392.578	87.199	392.578	86.7939	392.578	86.8532	392.578	86.3386	392.578	86.4371	392.578	85.7494	392.578	85.9287	392.578	84.9861	392.578	85.2702	392.578	83.9891	392.578	84.3752	392.578	82.6618	392.578	83.1275	392.578	80.8607	392.578	81.3599	392.578	78.427	392.578	78.8115	392.578	75.4619	392.578	75.1303	392.578	73.6099	392.578	71.1262	392.578	75.0508	392.578	72.5223	392.578	77.5014	392.578	76.1909	392.578	79.3426	392.578	78.6851	392.578	80.3839	392.578	80.1011	392.578	80.6406
405.762	87.3614	405.762	87.2924	405.762	87.2558	405.762	87.0602	405.762	86.9972	405.762	86.7114	405.762	86.6367	405.762	86.317	405.762	86.2461	405.762	85.9377	405.762	85.8914	405.762	85.5777	405.762	85.5877	405.762	85.1616	405.762	85.2715	405.762	84.5493	405.762	84.8214	405.762	83.5574	405.762	84.0986	405.762	81.9517	405.762	82.9602	405.762	79.3899	405.762	81.2333	405.762	75.3397	405.762	78.6714	405.762	70.7832	405.762	75.1056	405.762	73.5621	405.762	72.6017	405.762	77.4996	405.762	75.0744	405.762	79.7559	405.762	78.1344	405.762	80.7907	405.762	80.0219	405.762	80.8653
420.41	87.5415	420.41	87.3604	420.41	87.4786	420.41	86.9577	420.41	87.1732	420.41	86.3825	420.41	86.6531	420.41	85.7143	420.41	85.9748	420.41	85.0537	420.41	85.2217	420.41	84.4805	420.41	84.4797	420.41	83.9876	420.41	83.7861	420.41	83.4602	420.41	83.0812	420.41	82.7156	420.41	82.204	420.41	81.5369	420.41	80.9137	420.41	79.6402	420.41	78.874	420.41	76.5897	420.41	75.5806	420.41	72.2137	420.41	71.1679	420.41	72.0697	420.41	72.6233	420.41	76.5463	420.41	77.177	420.41	79.645	420.41	80.0608	420.41	81.3463	420.41	81.5551	420.41	81.9539
435.059	87.2624	435.059	87.1168	435.059	87.1963	435.059	86.7714	435.059	86.9276	435.059	86.2606	435.059	86.4873	435.059	85.6424	435.059	85.9326	435.059	84.9949	435.059	85.3489	435.059	84.396	435.059	84.8282	435.059	83.8827	435.059	84.4104	435.059	83.4045	435.059	84.0288	435.059	82.8093	435.059	83.5261	435.059	81.8566	435.059	82.7197	435.059	80.2114	435.059	81.4294	435.059	77.3342	435.059	79.4224	435.059	71.9652	435.059	76.2363	435.059	63.4682	435.059	70.7342	435.059	71.6426	435.059	65.9231	435.059	76.0837	435.059	72.5771	435.059	77.8731	435.059	76.3872	435.059	77.9521
451.172	87.6647	451.172	87.5354	451.172	87.5768	451.172	87.2099	451.172	87.2674	451.172	86.7193	451.172	86.756	451.172	86.1013	451.172	86.0908	451.172	85.397	451.172	85.3417	451.172	84.645	451.172	84.5728	451.172	83.8581	451.172	83.8148	451.172	82.9934	451.172	83.0513	451.172	81.9528	451.172	82.2067	451.172	80.6324	451.172	81.1221	451.172	78.9783	451.172	79.5418	451.172	77.0135	451.172	77.1529	451.172	74.9562	451.172	73.9828	451.172	73.8404	451.172	72.6007	451.172	75.0074	451.172	75.0442	451.172	77.1599	451.172	77.5518	451.172	78.7406	451.172	78.9762	451.172	79.3577
465.82	87.0629	465.82	86.8552	465.82	86.9637	465.82	86.3712	465.82	86.5684	465.82	85.6969	465.82	85.9326	465.82	84.9826	465.82	85.1666	465.82	84.4044	465.82	84.426	465.82	84.0556	465.82	83.8454	465.82	83.8688	465.82	83.4436	465.82	83.6596	465.82	83.1073	465.82	83.2041	465.82	82.669	465.82	82.2489	465.82	81.9556	465.82	80.4567	465.82	80.7541	465.82	77.2564	465.82	78.7227	465.82	71.5074	465.82	75.2385	465.82	68.4549	465.82	69.6638	465.82	74.5492	465.82	70.4275	465.82	77.909	465.82	75.5059	465.82	79.37	465.82	78.307	465.82	79.4837
483.398	86.8101	483.398	86.6406	483.398	86.6651	483.398	86.1647	483.398	86.212	483.398	85.4074	483.398	85.4763	483.398	84.4202	483.398	84.5123	483.398	83.3028	483.398	83.4138	483.398	82.222	483.398	82.3145	483.398	81.3582	483.398	81.3579	483.398	80.7516	483.398	80.6211	483.398	80.2283	483.398	80.0319	483.398	79.514	483.398	79.3639	483.398	78.3365	483.398	78.2848	483.398	76.4079	483.398	76.3589	483.398	73.5008	483.398	73.0859	483.398	71.1319	483.398	69.9885	483.398	73.3654	483.398	72.9628	483.398	76.5671	483.398	76.5602	483.398	78.4791	483.398	78.5183	483.398	79.1083
499.512	85.4214	499.512	85.2961	499.512	85.2398	499.512	84.8851	499.512	84.7511	499.512	84.2241	499.512	83.9786	499.512	83.3583	499.512	82.9819	499.512	82.3549	499.512	81.8873	499.512	81.3247	499.512	80.8955	499.512	80.4053	499.512	80.1793	499.512	79.6655	499.512	79.7202	499.512	78.9889	499.512	79.2913	499.512	78.0657	499.512	78.569	499.512	76.4499	499.512	77.1958	499.512	73.4819	499.512	74.7317	499.512	67.6714	499.512	70.3866	499.512	60.9256	499.512	62.7823	499.512	69.443	499.512	66.0042	499.512	73.5267	499.512	71.6002	499.512	75.279	499.512	74.3952	499.512	75.5244
517.09	85.651	517.09	85.4313	517.09	85.484	517.09	84.8363	517.09	84.9298	517.09	83.9085	517.09	84.0142	517.09	82.7597	517.09	82.8296	517.09	81.5876	517.09	81.5692	517.09	80.6233	517.09	80.4928	517.09	80.0041	517.09	79.7799	517.09	79.6581	517.09	79.3749	517.09	79.3152	517.09	79.0046	517.09	78.6251	517.09	78.3243	517.09	77.2241	517.09	77.0076	517.09	74.6049	517.09	74.6697	517.09	69.5668	517.09	70.5494	517.09	62.0882	517.09	64.4143	517.09	69.9231	517.09	68.8681	517.09	74.4722	517.09	73.8016	517.09	76.515	517.09	76.2296	517.09	77.0394
536.133	88.2447	536.133	88.0709	536.133	88.0659	536.133	87.5518	536.133	87.5429	536.133	86.7105	536.133	86.693	536.133	85.5911	536.133	85.5331	536.133	84.2883	536.133	84.092	536.133	83.0072	536.133	82.4743	536.133	82.0568	536.133	80.9736	536.133	81.5941	536.133	80.0325	536.133	81.3805	536.133	79.7707	536.133	81.0146	536.133	79.7359	536.133	80.1955	536.133	79.3444	536.133	78.6332	536.133	78.1081	536.133	75.7195	536.133	75.3892	536.133	69.6865	536.133	69.3629	536.133	64.6879	536.133	55.3192	536.133	73.1186	536.133	71.3014	536.133	76.4843	536.133	75.7227	536.133	77.1798
555.176	88.7631	555.176	88.6158	555.176	88.6006	555.176	88.1524	555.176	88.1392	555.176	87.3694	555.176	87.3924	555.176	86.2713	555.176	86.3718	555.176	84.8907	555.176	85.0925	555.176	83.3483	555.176	83.6176	555.176	81.9623	555.176	82.1423	555.176	81.1849	555.176	80.9998	555.176	81.0469	555.176	80.371	555.176	80.9387	555.176	79.9726	555.176	80.1418	555.176	79.2713	555.176	78.0016	555.176	77.757	555.176	73.4756	555.176	74.7846	555.176	63.7479	555.176	68.8817	555.176	69.6392	555.176	65.8419	555.176	75.1349	555.176	73.1762	555.176	77.4554	555.176	76.7021	555.176	77.9398
574.219	88.509	574.219	88.3525	574.219	88.3629	574.219	87.8945	574.219	87.9207	574.219	87.1443	574.219	87.1949	574.219	86.1282	574.219	86.2066	574.219	84.9151	574.219	84.9951	574.219	83.6407	574.219	83.6437	574.219	82.4686	574.219	82.3058	574.219	81.4939	574.219	81.1792	574.219	80.7306	574.219	80.3876	574.219	80.1345	574.219	79.8284	574.219	79.4727	574.219	79.1524	574.219	78.2445	574.219	77.9025	574.219	75.6877	574.219	75.5489	574.219	70.3851	574.219	71.1704	574.219	67.5005	574.219	65.6227	574.219	74.2078	574.219	71.4918	574.219	77.2695	574.219	75.9395	574.219	77.7121
594.727	88.0239	594.727	87.8993	594.727	87.8332	594.727	87.457	594.727	87.3198	594.727	86.6865	594.727	86.4724	594.727	85.5858	594.727	85.2963	594.727	84.201	594.727	83.8542	594.727	82.6822	594.727	82.3265	594.727	81.3255	594.727	81.0276	594.727	80.4769	594.727	80.2011	594.727	80.1679	594.727	79.7638	594.727	79.9828	594.727	79.4427	594.727	79.4307	594.727	78.9632	594.727	78.0907	594.727	77.9624	594.727	75.3468	594.727	75.7755	594.727	69.5304	594.727	70.7115	594.727	41.3375	594.727	56.4152	594.727	69.536	594.727	71.1482	594.727	74.4293	594.727	75.4298	594.727	76.1605
615.234	88.5735	615.234	88.4049	615.234	88.3909	615.234	87.8854	615.234	87.8766	615.234	87.0316	615.234	87.0469	615.234	85.8721	615.234	85.8799	615.234	84.449	615.234	84.3339	615.234	82.835	615.234	82.4504	615.234	81.1961	615.234	80.5076	615.234	79.8339	615.234	79.0943	615.234	79.0427	615.234	78.7124	615.234	78.7666	615.234	79.0285	615.234	78.4194	615.234	79.1151	615.234	77.1925	615.234	78.1703	615.234	74.2712	615.234	75.4871	615.234	69.0223	615.234	69.3594	615.234	70.1142	615.234	59.3648	615.234	75.3205	615.234	71.8979	615.234	77.7655	615.234	76.3212	615.234	78.0316
637.207	88.2527	637.207	88.0949	637.207	88.1788	637.207	87.6634	637.207	87.8518	637.207	86.8963	637.207	87.2053	637.207	85.74	637.207	86.207	637.207	84.1594	637.207	84.9085	637.207	82.2279	637.207	83.4214	637.207	80.3406	637.207	81.8859	637.207	79.1833	637.207	80.5097	637.207	78.8831	637.207	79.5506	637.207	78.795	637.207	79.1245	637.207	78.4529	637.207	78.9723	637.207	77.66	637.207	78.3538	637.207	75.9211	637.207	76.2502	637.207	72.1833	637.207	71.2067	637.207	65.3863	637.207	64.0608	637.207	68.1861	637.207	70.833	637.207	72.8283	637.207	74.1067	637.207	74.5743
659.18	88.091	659.18	87.9158	659.18	87.9397	659.18	87.4373	659.18	87.457	659.18	86.6395	659.18	86.6881	659.18	85.4624	659.18	85.7008	659.18	83.8654	659.18	84.5408	659.18	81.8814	659.18	83.2291	659.18	79.673	659.18	81.7874	659.18	77.7501	659.18	80.3405	659.18	76.9912	659.18	79.3312	659.18	77.4375	659.18	79.0682	659.18	77.975	659.18	78.9757	659.18	77.5382	659.18	78.4031	659.18	75.11	659.18	76.9588	659.18	68.3738	659.18	73.6572	659.18	68.4587	659.18	64.0488	659.18	75.9195	659.18	67.9993	659.18	78.6168	659.18	75.7344	659.18	78.5228
682.617	88.195	682.617	87.8069	682.617	88.1949	682.617	87.0753	682.617	87.8227	682.617	86.0672	682.617	87.1371	682.617	84.8253	682.617	86.174	682.617	83.3586	682.617	84.9091	682.617	81.7192	682.617	83.311	682.617	80.104	682.617	81.488	682.617	78.7509	682.617	79.8056	682.617	77.7128	682.617	78.681	682.617	77.0912	682.617	78.2159	682.617	76.8549	682.617	78.0932	682.617	76.2074	682.617	77.5949	682.617	74.14	682.617	75.7923	682.617	69.0372	682.617	71.0538	682.617	60.8239	682.617	62.8804	682.617	71.5396	682.617	72.3065	682.617	75.8972	682.617	76.2774	682.617	77.2283
707.52	86.9591	707.52	86.7039	707.52	86.9302	707.52	86.1113	707.52	86.6295	707.52	85.1821	707.52	86.0319	707.52	84.0192	707.52	85.1357	707.52	82.7171	707.52	83.9616	707.52	81.2329	707.52	82.4983	707.52	79.43	707.52	80.7116	707.52	77.3713	707.52	78.6922	707.52	75.9575	707.52	76.9279	707.52	76.1618	707.52	76.199	707.52	76.8772	707.52	76.4591	707.52	77.0415	707.52	76.8311	707.52	76.3211	707.52	76.4159	707.52	73.8731	707.52	74.1076	707.52	66.7413	707.52	67.1854	707.52	61.7517	707.52	65.0003	707.52	72.0071	707.52	72.802	707.52	74.3506
732.422	87.0331	732.422	86.6848	732.422	86.9422	732.422	85.9799	732.422	86.4425	732.422	85.0131	732.422	85.6151	732.422	83.7989	732.422	84.4674	732.422	82.3571	732.422	82.9394	732.422	80.7954	732.422	81.0662	732.422	79.1868	732.422	79.0988	732.422	77.4911	732.422	77.3966	732.422	75.735	732.422	76.2676	732.422	74.5546	732.422	75.9536	732.422	75.1864	732.422	76.019	732.422	76.3122	732.422	75.4869	732.422	75.5582	732.422	73.9872	732.422	71.1017	732.422	71.195	732.422	58.1869	732.422	63.6184	732.422	71.4742	732.422	65.6512	732.422	75.8733	732.422	73.8342	732.422	76.4711
757.324	87.0331	757.324	86.6951	757.324	86.9904	757.324	85.894	757.324	86.5945	757.324	84.632	757.324	85.7982	757.324	83.0957	757.324	84.5492	757.324	81.4644	757.324	82.8888	757.324	79.6862	757.324	80.9527	757.324	77.8932	757.324	78.772	757.324	76.6553	757.324	76.1576	757.324	75.6676	757.324	73.2936	757.324	74.5818	757.324	71.7001	757.324	74.5017	757.324	71.796	757.324	74.8506	757.324	71.7357	757.324	74.057	757.324	70.2046	757.324	71.4095	757.324	64.7487	757.324	64.595	757.324	57.4895	757.324	58.309	757.324	68.8098	757.324	69.9821	757.324	72.3337	757.324	72.8415
785.156	86.1989	785.156	85.9945	785.156	85.9866	785.156	85.3988	785.156	85.3176	785.156	84.3911	785.156	84.2743	785.156	83.0055	785.156	83.0179	785.156	81.3112	785.156	81.5861	785.156	79.3747	785.156	79.8745	785.156	77.3733	785.156	77.9164	785.156	75.2194	785.156	76.0833	785.156	72.2362	785.156	74.6826	785.156	68.3027	785.156	73.5204	785.156	68.0876	785.156	73.648	785.156	70.9522	785.156	75.3587	785.156	72.052	785.156	76.0876	785.156	70.9351	785.156	74.8481	785.156	66.495	785.156	71.1261	785.156	60.7269	785.156	64.2348	785.156	68.5111	785.156	68.4299	785.156	71.031
811.523	86.3828	811.523	86.003	811.523	86.413	811.523	85.4273	811.523	85.9337	811.523	84.5658	811.523	84.9054	811.523	83.1911	811.523	83.4428	811.523	81.3903	811.523	81.8283	811.523	79.7829	811.523	80.3706	811.523	78.8827	811.523	79.0162	811.523	78.2388	811.523	77.4022	811.523	77.168	811.523	75.8229	811.523	75.4938	811.523	74.8244	811.523	74.2659	811.523	73.5829	811.523	74.2056	811.523	72.8812	811.523	73.5878	811.523	73.5368	811.523	71.6387	811.523	72.5333	811.523	67.3573	811.523	67.5052	811.523	66.0657	811.523	53.3543	811.523	70.4985	811.523	65.1785	811.523	70.0745
840.82	86.6223	840.82	86.2097	840.82	86.3673	840.82	85.2918	840.82	85.5724	840.82	84.159	840.82	84.5326	840.82	83.0055	840.82	83.3625	840.82	81.7119	840.82	81.9729	840.82	79.887	840.82	80.4489	840.82	77.5481	840.82	79.0129	840.82	75.4725	840.82	77.6714	840.82	73.8129	840.82	76.3357	840.82	72.2938	840.82	75.0367	840.82	72.4601	840.82	74.7475	840.82	73.9197	840.82	75.7598	840.82	74.755	840.82	75.6223	840.82	73.9073	840.82	73.1918	840.82	70.1676	840.82	68.5263	840.82	58.7124	840.82	57.6613	840.82	67.6273	840.82	66.2095	840.82	70.7842
870.117	85.735	870.117	85.5206	870.117	85.736	870.117	84.928	870.117	85.4294	870.117	83.8521	870.117	84.7433	870.117	82.5402	870.117	83.8829	870.117	81.1463	870.117	82.9304	870.117	79.5419	870.117	81.5697	870.117	78.1685	870.117	79.4368	870.117	77.451	870.117	76.2973	870.117	76.1507	870.117	73.3835	870.117	73.2044	870.117	72.8283	870.117	71.4931	870.117	72.0302	870.117	72.7286	870.117	71.9257	870.117	72.677	870.117	73.0668	870.117	71.5284	870.117	71.5846	870.117	68.1708	870.117	65.3249	870.117	62.3969	870.117	55.5464	870.117	68.9986	870.117	66.988	870.117	70.3918
900.879	85.1338	900.879	84.4766	900.879	85.1056	900.879	83.5025	900.879	84.5314	900.879	82.5988	900.879	83.8595	900.879	81.6886	900.879	83.1699	900.879	80.6613	900.879	82.1772	900.879	79.6322	900.879	80.8635	900.879	78.2185	900.879	79.415	900.879	76.1171	900.879	77.8674	900.879	74.8345	900.879	76.1431	900.879	74.1896	900.879	74.0247	900.879	71.9738	900.879	71.5032	900.879	71.5908	900.879	71.5764	900.879	73.2726	900.879	72.8432	900.879	72.9705	900.879	71.8428	900.879	70.6784	900.879	70.1681	900.879	68.2663	900.879	69.897	900.879	70.5933	900.879	70.5355	900.879	71.5167
933.105	85.3939	933.105	84.9572	933.105	85.2084	933.105	84.1847	933.105	84.3427	933.105	83.2903	933.105	83.1868	933.105	82.2764	933.105	82.1012	933.105	80.8052	933.105	80.9295	933.105	78.7644	933.105	79.4142	933.105	77.3784	933.105	77.2744	933.105	76.5599	933.105	74.6626	933.105	74.6728	933.105	73.3077	933.105	72.7083	933.105	72.7752	933.105	71.2945	933.105	70.887	933.105	68.5959	933.105	71.1238	933.105	70.2726	933.105	73.7099	933.105	73.5105	933.105	73.5591	933.105	73.1791	933.105	71.1507	933.105	69.9607	933.105	66.4141	933.105	62.4684	933.105	51.2352	933.105	59.782
965.332	85.5964	965.332	85.2128	965.332	85.2598	965.332	84.3483	965.332	84.5238	965.332	83.3987	965.332	83.5843	965.332	82.3247	965.332	82.0896	965.332	80.9998	965.332	80.1608	965.332	79.6384	965.332	78.6185	965.332	77.9941	965.332	77.5692	965.332	76.0157	965.332	76.5186	965.332	75.5547	965.332	74.9496	965.332	74.6559	965.332	72.9268	965.332	71.7595	965.332	71.0316	965.332	70.1792	965.332	70.1088	965.332	71.5491	965.332	72.3995	965.332	73.5668	965.332	73.4643	965.332	72.9785	965.332	71.5113	965.332	66.5435	965.332	66.1661	965.332	58.3878	965.332	56.7856	965.332	59.5216
1,000.49	85.2104	1,000.49	85.2254	1,000.49	84.7787	1,000.49	84.6352	1,000.49	83.7593	1,000.49	83.2646	1,000.49	82.2797	1,000.49	81.7472	1,000.49	80.7362	1,000.49	80.7557	1,000.49	79.115	1,000.49	79.5803	1,000.49	77.2346	1,000.49	77.5533	1,000.49	74.8503	1,000.49	75.6341	1,000.49	71.8917	1,000.49	73.7137	1,000.49	70.2146	1,000.49	71.3173	1,000.49	70.9513	1,000.49	69.9801	1,000.49	71.0113	1,000.49	67.8503	1,000.49	69.336	1,000.49	68.3815	1,000.49	68.7376	1,000.49	70.6295	1,000.49	69.2263	1,000.49	70.0925	1,000.49	67.5267	1,000.49	67.9717	1,000.49	63.6627	1,000.49	63.3825	1,000.49	59.9512	1,000.49	61.3676
1,035.64	85.8144	1,035.64	85.6118	1,035.64	85.3251	1,035.64	85.0168	1,035.64	84.1201	1,035.64	84.0927	1,035.64	82.514	1,035.64	82.712	1,035.64	80.7788	1,035.64	81.2534	1,035.64	79.2277	1,035.64	80.0726	1,035.64	77.663	1,035.64	78.3299	1,035.64	75.412	1,035.64	75.994	1,035.64	73.4584	1,035.64	74.8263	1,035.64	72.0429	1,035.64	74.7911	1,035.64	69.0519	1,035.64	73.9086	1,035.64	65.7938	1,035.64	72.0599	1,035.64	65.0303	1,035.64	69.6134	1,035.64	64.8829	1,035.64	69.4002	1,035.64	67.7984	1,035.64	68.389	1,035.64	67.5793	1,035.64	62.9021	1,035.64	54.0537	1,035.64	60.3487	1,035.64	65.2225	1,035.64	65.8038
1,072.27	85.5979	1,072.27	85.7493	1,072.27	84.9176	1,072.27	85.1419	1,072.27	83.7412	1,072.27	83.9494	1,072.27	82.0887	1,072.27	82.6936	1,072.27	80.3142	1,072.27	81.4907	1,072.27	78.1123	1,072.27	79.981	1,072.27	74.9248	1,072.27	77.8719	1,072.27	71.8385	1,072.27	75.7974	1,072.27	69.0014	1,072.27	74.1325	1,072.27	65.9567	1,072.27	72.7394	1,072.27	67.2581	1,072.27	72.2885	1,072.27	68.6718	1,072.27	71.9582	1,072.27	67.0197	1,072.27	70.249	1,072.27	66.4178	1,072.27	70.5427	1,072.27	66.1555	1,072.27	69.9535	1,072.27	64.8692	1,072.27	64.8081	1,072.27	59.9691	1,072.27	62.2417	1,072.27	54.3271	1,072.27	63.989
1,108.89	85.8137	1,108.89	85.89	1,108.89	85.0815	1,108.89	85.2479	1,108.89	84.0545	1,108.89	84.2304	1,108.89	82.9149	1,108.89	83.0194	1,108.89	81.2411	1,108.89	81.275	1,108.89	78.8168	1,108.89	79.0967	1,108.89	76.8807	1,108.89	77.4427	1,108.89	75.1021	1,108.89	75.1847	1,108.89	72.329	1,108.89	71.3054	1,108.89	69.8693	1,108.89	71.768	1,108.89	67.4274	1,108.89	71.3116	1,108.89	68.4269	1,108.89	69.3567	1,108.89	66.7862	1,108.89	68.6535	1,108.89	64.1509	1,108.89	69.5484	1,108.89	66.7342	1,108.89	68.5219	1,108.89	66.3522	1,108.89	63.767	1,108.89	65.3282	1,108.89	65.33	1,108.89	49.8253	1,108.89	64.6088
1,148.44	86.6813	1,148.44	86.5355	1,148.44	86.3522	1,148.44	85.7464	1,148.44	85.4729	1,148.44	84.3778	1,148.44	83.816	1,148.44	82.7219	1,148.44	81.5276	1,148.44	81.0674	1,148.44	79.1572	1,148.44	79.7208	1,148.44	77.1249	1,148.44	78.2153	1,148.44	75.0595	1,148.44	76.2492	1,148.44	72.858	1,148.44	73.8755	1,148.44	70.52	1,148.44	72.5861	1,148.44	68.7721	1,148.44	71.5733	1,148.44	68.3309	1,148.44	71.0681	1,148.44	66.9641	1,148.44	71.209	1,148.44	64.5316	1,148.44	71.1428	1,148.44	69.6974	1,148.44	70.3593	1,148.44	70.5509	1,148.44	66.1559	1,148.44	67.3598	1,148.44	57.0047	1,148.44	49.908	1,148.44	60.5429
1,189.45	87.8796	1,189.45	87.5436	1,189.45	87.4909	1,189.45	86.6119	1,189.45	86.5199	1,189.45	85.1757	1,189.45	84.9931	1,189.45	83.5572	1,189.45	82.8645	1,189.45	81.5625	1,189.45	80.5214	1,189.45	79.3016	1,189.45	78.7924	1,189.45	77.1921	1,189.45	77.5588	1,189.45	73.9009	1,189.45	74.0064	1,189.45	72.6059	1,189.45	68.5881	1,189.45	73.3234	1,189.45	65.7253	1,189.45	73.145	1,189.45	68.0346	1,189.45	71.7217	1,189.45	68.0293	1,189.45	68.93	1,189.45	67.6595	1,189.45	71.7858	1,189.45	65.3582	1,189.45	71.6006	1,189.45	67.9293	1,189.45	69.3977	1,189.45	66.6828	1,189.45	68.6986	1,189.45	65.9995	1,189.45	69.0337
1,230.47	88.475	1,230.47	88.1852	1,230.47	88.1606	1,230.47	87.3877	1,230.47	87.2077	1,230.47	86.1271	1,230.47	85.7581	1,230.47	84.4264	1,230.47	84.1328	1,230.47	82.3556	1,230.47	82.5705	1,230.47	80.2143	1,230.47	80.8218	1,230.47	78.9847	1,230.47	78.8707	1,230.47	77.1525	1,230.47	77.7505	1,230.47	74.1201	1,230.47	75.8456	1,230.47	70.2	1,230.47	73.0663	1,230.47	71.4536	1,230.47	72.6989	1,230.47	73.2931	1,230.47	71.6767	1,230.47	70.0939	1,230.47	67.4352	1,230.47	70.3165	1,230.47	68.3427	1,230.47	70.4876	1,230.47	70.2581	1,230.47	64.9862	1,230.47	65.7211	1,230.47	62.6868	1,230.47	54.8792	1,230.47	62.8392
1,274.41	89.0036	1,274.41	88.8153	1,274.41	88.5156	1,274.41	88.0659	1,274.41	87.7797	1,274.41	86.8285	1,274.41	86.7439	1,274.41	84.9935	1,274.41	85.0378	1,274.41	83.0153	1,274.41	82.9486	1,274.41	81.0959	1,274.41	81.7924	1,274.41	79.9695	1,274.41	80.8308	1,274.41	79.3384	1,274.41	79.601	1,274.41	76.975	1,274.41	77.2984	1,274.41	74.257	1,274.41	73.2403	1,274.41	74.7478	1,274.41	74.092	1,274.41	73.5366	1,274.41	73.9249	1,274.41	72.2654	1,274.41	71.9459	1,274.41	72.2073	1,274.41	71.2338	1,274.41	74.4204	1,274.41	72.9603	1,274.41	71.2687	1,274.41	69.8601	1,274.41	59.9646	1,274.41	61.3948	1,274.41	66.8703
1,319.82	89.1582	1,319.82	88.9794	1,319.82	89.0038	1,319.82	88.4282	1,319.82	88.2491	1,319.82	87.4753	1,319.82	86.9576	1,319.82	86.1119	1,319.82	85.7586	1,319.82	84.7289	1,319.82	84.2753	1,319.82	83.4582	1,319.82	82.6311	1,319.82	81.5414	1,319.82	81.4107	1,319.82	78.9985	1,319.82	80.1531	1,319.82	76.6137	1,319.82	77.5297	1,319.82	74.885	1,319.82	73.6309	1,319.82	75.1401	1,319.82	73.7278	1,319.82	74.7116	1,319.82	74.7643	1,319.82	72.6976	1,319.82	72.6239	1,319.82	71.9508	1,319.82	71.0407	1,319.82	74.7236	1,319.82	71.8053	1,319.82	72.2343	1,319.82	67.4933	1,319.82	68.3765	1,319.82	65.1754	1,319.82	68.4581
1,366.7	89.1343	1,366.7	88.85	1,366.7	88.9478	1,366.7	88.3889	1,366.7	88.5654	1,366.7	87.505	1,366.7	87.7263	1,366.7	86.3764	1,366.7	86.2147	1,366.7	85.0416	1,366.7	84.8639	1,366.7	83.3235	1,366.7	83.1281	1,366.7	81.8314	1,366.7	81.2056	1,366.7	80.2498	1,366.7	79.6001	1,366.7	78.4643	1,366.7	78.2292	1,366.7	76.1534	1,366.7	75.951	1,366.7	72.1031	1,366.7	74.8188	1,366.7	74.2828	1,366.7	74.0054	1,366.7	73.1473	1,366.7	69.0453	1,366.7	73.192	1,366.7	71.3056	1,366.7	74.1651	1,366.7	73.1772	1,366.7	74.4086	1,366.7	70.0342	1,366.7	67.468	1,366.7	65.1848	1,366.7	66.037
1,413.57	88.2474	1,413.57	88.2369	1,413.57	87.9011	1,413.57	87.7152	1,413.57	87.5249	1,413.57	87.0703	1,413.57	87.0141	1,413.57	86.2648	1,413.57	86.2547	1,413.57	85.5441	1,413.57	84.6424	1,413.57	83.9858	1,413.57	82.3851	1,413.57	80.5546	1,413.57	80.9513	1,413.57	80.0904	1,413.57	79.465	1,413.57	79.9603	1,413.57	76.7005	1,413.57	77.2746	1,413.57	72.4628	1,413.57	74.3193	1,413.57	70.7123	1,413.57	75.1654	1,413.57	74.4106	1,413.57	75.5026	1,413.57	73.7953	1,413.57	73.1721	1,413.57	70.4724	1,413.57	72.9726	1,413.57	69.8156	1,413.57	74.3596	1,413.57	70.0095	1,413.57	69.9589	1,413.57	67.0895	1,413.57	68.831
1,463.38	88.4563	1,463.38	88.1565	1,463.38	88.5327	1,463.38	87.7537	1,463.38	88.3703	1,463.38	86.9873	1,463.38	87.6787	1,463.38	86.1661	1,463.38	86.6188	1,463.38	84.5371	1,463.38	85.2439	1,463.38	83.1024	1,463.38	82.2157	1,463.38	82.2569	1,463.38	78.4027	1,463.38	79.8604	1,463.38	75.3452	1,463.38	77.793	1,463.38	72.6783	1,463.38	75.6453	1,463.38	69.4007	1,463.38	72.1025	1,463.38	67.8529	1,463.38	74.3953	1,463.38	70.87	1,463.38	72.7863	1,463.38	72.4474	1,463.38	72.8322	1,463.38	72.4623	1,463.38	73.0465	1,463.38	69.3456	1,463.38	70.7616	1,463.38	66.8878	1,463.38	70.3475	1,463.38	65.3372	1,463.38	70.2936
1,516.11	87.2221	1,516.11	87.5447	1,516.11	87.3678	1,516.11	87.4625	1,516.11	86.7296	1,516.11	86.6102	1,516.11	85.8975	1,516.11	85.8092	1,516.11	84.9346	1,516.11	84.5108	1,516.11	83.2068	1,516.11	82.888	1,516.11	81.3703	1,516.11	79.0413	1,516.11	79.1301	1,516.11	79.3489	1,516.11	75.8933	1,516.11	78.7012	1,516.11	75.9799	1,516.11	76.1228	1,516.11	74.9003	1,516.11	72.3043	1,516.11	67.6425	1,516.11	72.4563	1,516.11	63.8952	1,516.11	74.0412	1,516.11	65.4082	1,516.11	69.7273	1,516.11	66.7717	1,516.11	69.2092	1,516.11	65.637	1,516.11	69.7607	1,516.11	63.3633	1,516.11	69.1744	1,516.11	67.6611	1,516.11	69.482
1,568.85	86.5626	1,568.85	86.2412	1,568.85	86.2945	1,568.85	86.1392	1,568.85	85.5081	1,568.85	85.6113	1,568.85	85.106	1,568.85	84.6442	1,568.85	84.4012	1,568.85	83.287	1,568.85	82.3328	1,568.85	81.5545	1,568.85	80.1353	1,568.85	79.1514	1,568.85	77.7973	1,568.85	77.7799	1,568.85	77.4501	1,568.85	75.0687	1,568.85	75.0665	1,568.85	74.2885	1,568.85	71.5118	1,568.85	71.2399	1,568.85	66.3075	1,568.85	70.0197	1,568.85	66.6197	1,568.85	72.9619	1,568.85	64.8311	1,568.85	70.0125	1,568.85	67.5158	1,568.85	71.5622	1,568.85	67.138	1,568.85	70.7187	1,568.85	67.2377	1,568.85	62.8271	1,568.85	56.1389	1,568.85	67.4729
1,624.51	85.3883	1,624.51	86.2819	1,624.51	85.3339	1,624.51	85.4465	1,624.51	86.174	1,624.51	84.6832	1,624.51	85.6463	1,624.51	83.3062	1,624.51	84.6518	1,624.51	81.5959	1,624.51	83.9962	1,624.51	78.5396	1,624.51	81.1218	1,624.51	78.1346	1,624.51	78.8987	1,624.51	75.4014	1,624.51	74.4588	1,624.51	75.0715	1,624.51	72.8493	1,624.51	73.1962	1,624.51	72.5223	1,624.51	67.7265	1,624.51	69.3064	1,624.51	70.3438	1,624.51	69.9585	1,624.51	71.1151	1,624.51	67.5035	1,624.51	69.1113	1,624.51	64.6451	1,624.51	68.3938	1,624.51	68.7818	1,624.51	68.3055	1,624.51	67.7071	1,624.51	65.4001	1,624.51	68.0744	1,624.51	70.6212
1,681.64	85.6995	1,681.64	85.644	1,681.64	86.1247	1,681.64	85.5546	1,681.64	86.3914	1,681.64	84.603	1,681.64	86.5337	1,681.64	83.0949	1,681.64	85.9506	1,681.64	81.2726	1,681.64	84.8772	1,681.64	78.7171	1,681.64	82.6872	1,681.64	77.3209	1,681.64	80.2331	1,681.64	75.1613	1,681.64	77.4636	1,681.64	72.4182	1,681.64	75.1633	1,681.64	72.6573	1,681.64	73.1188	1,681.64	72.6304	1,681.64	69.6982	1,681.64	63.7546	1,681.64	68.6665	1,681.64	69.0561	1,681.64	69.6643	1,681.64	69.5127	1,681.64	67.3611	1,681.64	68.8105	1,681.64	70.3847	1,681.64	70.89	1,681.64	67.3993	1,681.64	62.48	1,681.64	62.9788	1,681.64	67.2952
1,741.7	85.8739	1,741.7	86.0435	1,741.7	85.9333	1,741.7	86.1226	1,741.7	86.458	1,741.7	85.4656	1,741.7	86.7684	1,741.7	83.9928	1,741.7	86.1197	1,741.7	82.1856	1,741.7	84.6652	1,741.7	80.3091	1,741.7	83.1098	1,741.7	77.3741	1,741.7	80.4717	1,741.7	75.1531	1,741.7	76.4233	1,741.7	74.1289	1,741.7	73.7326	1,741.7	71.0549	1,741.7	72.7128	1,741.7	71.9213	1,741.7	70.9511	1,741.7	69.2037	1,741.7	64.1269	1,741.7	68.6017	1,741.7	69.5	1,741.7	67.4897	1,741.7	69.7754	1,741.7	65.0867	1,741.7	70.575	1,741.7	65.8914	1,741.7	67.8469	1,741.7	63.9415	1,741.7	69.216	1,741.7	66.939
1,803.22	85.2172	1,803.22	86.0368	1,803.22	85.3332	1,803.22	86.3934	1,803.22	85.8171	1,803.22	86.1697	1,803.22	86.3998	1,803.22	84.7722	1,803.22	86.0279	1,803.22	82.9432	1,803.22	84.621	1,803.22	81.3315	1,803.22	82.6123	1,803.22	79.6789	1,803.22	79.6663	1,803.22	77.6253	1,803.22	78.1359	1,803.22	75.6657	1,803.22	74.1263	1,803.22	73.4624	1,803.22	71.1692	1,803.22	70.3678	1,803.22	67.3946	1,803.22	70.2969	1,803.22	64.9733	1,803.22	69.8434	1,803.22	67.5503	1,803.22	71.8722	1,803.22	65.3828	1,803.22	68.4649	1,803.22	68.3988	1,803.22	70.1596	1,803.22	69.1351	1,803.22	67.0456	1,803.22	68.1438	1,803.22	68.1635
1,866.21	84.8636	1,866.21	86.0464	1,866.21	84.3143	1,866.21	86.6657	1,866.21	85.1709	1,866.21	86.2841	1,866.21	85.6037	1,866.21	84.9138	1,866.21	85.377	1,866.21	83.3657	1,866.21	84.2009	1,866.21	81.7075	1,866.21	81.7242	1,866.21	79.9375	1,866.21	79.3742	1,866.21	78.3229	1,866.21	75.9659	1,866.21	76.5094	1,866.21	73.6803	1,866.21	75.8462	1,866.21	71.5354	1,866.21	73.0811	1,866.21	68.8162	1,866.21	73.248	1,866.21	67.8476	1,866.21	70.31	1,866.21	68.8641	1,866.21	71.8727	1,866.21	65.4293	1,866.21	68.0768	1,866.21	69.0246	1,866.21	68.1425	1,866.21	65.0262	1,866.21	64.091	1,866.21	67.5085	1,866.21	68.6694
1,932.13	84.6609	1,932.13	85.6679	1,932.13	84.2656	1,932.13	86.4291	1,932.13	84.5597	1,932.13	85.8785	1,932.13	85.4652	1,932.13	84.7724	1,932.13	85.027	1,932.13	83.0135	1,932.13	83.4202	1,932.13	81.769	1,932.13	81.4567	1,932.13	80.4055	1,932.13	78.8147	1,932.13	78.1531	1,932.13	76.1565	1,932.13	77.1536	1,932.13	73.5258	1,932.13	74.8426	1,932.13	70.3995	1,932.13	73.2694	1,932.13	70.3762	1,932.13	72.4258	1,932.13	64.081	1,932.13	71.4279	1,932.13	65.1318	1,932.13	71.4733	1,932.13	67.3096	1,932.13	71.1555	1,932.13	69.3878	1,932.13	71.7266	1,932.13	65.7917	1,932.13	68.6197	1,932.13	65.8182	1,932.13	64.4223
1,999.51	85.3137	1,999.51	85.8024	1,999.51	84.3976	1,999.51	86.2309	1,999.51	84.9656	1,999.51	85.8244	1,999.51	85.5886	1,999.51	84.489	1,999.51	85.3526	1,999.51	82.9571	1,999.51	83.9631	1,999.51	81.0284	1,999.51	82.0403	1,999.51	79.6933	1,999.51	79.1235	1,999.51	77.812	1,999.51	76.3575	1,999.51	76.4413	1,999.51	73.1252	1,999.51	75.8763	1,999.51	70.2398	1,999.51	73.7683	1,999.51	69.9644	1,999.51	72.3699	1,999.51	65.3228	1,999.51	71.573	1,999.51	67.956	1,999.51	71.7548	1,999.51	68.2402	1,999.51	70.2617	1,999.51	69.108	1,999.51	70.3627	1,999.51	66.6328	1,999.51	63.5427	1,999.51	58.318	1,999.51	67.0699
2,069.82	86.4105	2,069.82	87.2973	2,069.82	86.1569	2,069.82	87.12	2,069.82	86.3885	2,069.82	86.2211	2,069.82	86.5562	2,069.82	84.7969	2,069.82	85.9591	2,069.82	83.1296	2,069.82	84.3892	2,069.82	81.8097	2,069.82	82.0256	2,069.82	79.8687	2,069.82	79.2747	2,069.82	77.7672	2,069.82	76.8124	2,069.82	74.8962	2,069.82	74.6175	2,069.82	73.4707	2,069.82	71.5674	2,069.82	70.4975	2,069.82	70.6981	2,069.82	71.2649	2,069.82	68.7982	2,069.82	70.4744	2,069.82	67.7394	2,069.82	71.3627	2,069.82	68.302	2,069.82	69.6292	2,069.82	69.6875	2,069.82	69.1772	2,069.82	68.9852	2,069.82	67.6255	2,069.82	65.6647	2,069.82	64.6608
2,143.07	87.2911	2,143.07	87.8154	2,143.07	86.67	2,143.07	87.8201	2,143.07	86.9598	2,143.07	86.9736	2,143.07	87.0312	2,143.07	85.5658	2,143.07	86.3621	2,143.07	84.3658	2,143.07	84.7553	2,143.07	82.3335	2,143.07	82.3081	2,143.07	80.5998	2,143.07	79.7001	2,143.07	78.6737	2,143.07	76.6272	2,143.07	76.03	2,143.07	73.7296	2,143.07	74.5528	2,143.07	71.1605	2,143.07	73.0662	2,143.07	69.6906	2,143.07	70.837	2,143.07	68.547	2,143.07	71.3061	2,143.07	66.4379	2,143.07	70.8968	2,143.07	69.4242	2,143.07	70.1904	2,143.07	70.4554	2,143.07	68.7418	2,143.07	69.4638	2,143.07	64.6164	2,143.07	59.6816	2,143.07	65.0952
2,219.24	87.1468	2,219.24	87.5355	2,219.24	86.7643	2,219.24	87.5094	2,219.24	86.3377	2,219.24	86.8433	2,219.24	86.4763	2,219.24	86.3356	2,219.24	85.445	2,219.24	85.3626	2,219.24	84.0054	2,219.24	83.5537	2,219.24	81.2555	2,219.24	81.4994	2,219.24	78.9421	2,219.24	79.451	2,219.24	76.5639	2,219.24	76.4364	2,219.24	74.4214	2,219.24	74.8293	2,219.24	71.6327	2,219.24	72.5176	2,219.24	68.5365	2,219.24	69.8261	2,219.24	68.3721	2,219.24	71.2036	2,219.24	67.1991	2,219.24	70.2397	2,219.24	68.7066	2,219.24	68.5641	2,219.24	67.7658	2,219.24	69.7672	2,219.24	70.4569	2,219.24	69.9627	2,219.24	65.1826	2,219.24	62.953
2,296.88	86.1931	2,296.88	86.3398	2,296.88	85.6078	2,296.88	86.2938	2,296.88	85.3211	2,296.88	85.7281	2,296.88	84.9676	2,296.88	85.1755	2,296.88	84.1846	2,296.88	84.631	2,296.88	82.4864	2,296.88	83.2074	2,296.88	80.5041	2,296.88	81.5683	2,296.88	77.8339	2,296.88	80.4006	2,296.88	76.2579	2,296.88	78.1194	2,296.88	72.5701	2,296.88	75.6128	2,296.88	69.842	2,296.88	75.0567	2,296.88	67.3338	2,296.88	71.4218	2,296.88	64.0799	2,296.88	72.0652	2,296.88	61.1201	2,296.88	71.1391	2,296.88	68.6432	2,296.88	70.9408	2,296.88	67.6995	2,296.88	71.5652	2,296.88	67.8974	2,296.88	67.411	2,296.88	55.7584	2,296.88	63.9546
2,378.91	86.0687	2,378.91	85.8535	2,378.91	86.3702	2,378.91	85.4826	2,378.91	86.0404	2,378.91	84.7015	2,378.91	85.0305	2,378.91	84.1085	2,378.91	83.9327	2,378.91	83.6574	2,378.91	82.8116	2,378.91	82.9155	2,378.91	80.9464	2,378.91	79.9094	2,378.91	79.7648	2,378.91	77.1166	2,378.91	77.328	2,378.91	75.6527	2,378.91	74.6018	2,378.91	74.9487	2,378.91	73.7031	2,378.91	72.985	2,378.91	69.0845	2,378.91	69.3852	2,378.91	70.9457	2,378.91	71.1883	2,378.91	64.0059	2,378.91	71.2448	2,378.91	69.7312	2,378.91	70.9736	2,378.91	67.2605	2,378.91	69.3996	2,378.91	71.0128	2,378.91	69.0157	2,378.91	59.3064	2,378.91	62.3886
2,462.4	88.0721	2,462.4	86.6091	2,462.4	88.8517	2,462.4	85.651	2,462.4	88.1045	2,462.4	85.728	2,462.4	86.9604	2,462.4	85.5432	2,462.4	85.9538	2,462.4	83.9516	2,462.4	84.8335	2,462.4	81.8307	2,462.4	83.9	2,462.4	79.8356	2,462.4	81.6912	2,462.4	77.5321	2,462.4	79.2467	2,462.4	75.7885	2,462.4	77.6378	2,462.4	70.9955	2,462.4	73.6529	2,462.4	72.0523	2,462.4	72.3445	2,462.4	70.9199	2,462.4	68.7867	2,462.4	68.9409	2,462.4	69.493	2,462.4	69.2094	2,462.4	70.8067	2,462.4	70.3693	2,462.4	69.6018	2,462.4	66.5268	2,462.4	72.2487	2,462.4	68.443	2,462.4	63.9339	2,462.4	65.8874
2,548.83	89.1661	2,548.83	86.9343	2,548.83	89.9854	2,548.83	86.348	2,548.83	89.1731	2,548.83	86.8143	2,548.83	88.133	2,548.83	87.4898	2,548.83	87.1847	2,548.83	85.8845	2,548.83	86.1829	2,548.83	83.4794	2,548.83	84.9206	2,548.83	81.7727	2,548.83	82.8655	2,548.83	80.1956	2,548.83	80.6124	2,548.83	77.2004	2,548.83	76.438	2,548.83	74.9845	2,548.83	74.8916	2,548.83	72.9963	2,548.83	71.5022	2,548.83	71.8967	2,548.83	67.7411	2,548.83	69.8761	2,548.83	68.5506	2,548.83	70.035	2,548.83	72.8547	2,548.83	72.4463	2,548.83	71.5161	2,548.83	66.2799	2,548.83	74.0428	2,548.83	71.9025	2,548.83	67.5472	2,548.83	51.6601
2,639.65	87.8802	2,639.65	85.7506	2,639.65	89.2595	2,639.65	84.9607	2,639.65	88.6309	2,639.65	86.0213	2,639.65	87.1231	2,639.65	86.3624	2,639.65	86.8981	2,639.65	85.3603	2,639.65	86.3869	2,639.65	83.7194	2,639.65	85.0925	2,639.65	82.2094	2,639.65	83.0509	2,639.65	79.8614	2,639.65	79.6051	2,639.65	78.273	2,639.65	78.4197	2,639.65	76.3366	2,639.65	75.0601	2,639.65	73.3783	2,639.65	71.7851	2,639.65	72.4937	2,639.65	69.4362	2,639.65	68.8527	2,639.65	67.4338	2,639.65	71.6887	2,639.65	69.0801	2,639.65	70.8018	2,639.65	67.0216	2,639.65	71.1732	2,639.65	72.1349	2,639.65	70.41	2,639.65	58.9359	2,639.65	65.6613
2,731.93	86.1991	2,731.93	82.9965	2,731.93	87.7598	2,731.93	82.0457	2,731.93	87.4133	2,731.93	84.4632	2,731.93	86.308	2,731.93	84.1565	2,731.93	85.799	2,731.93	83.0081	2,731.93	86.4417	2,731.93	82.8549	2,731.93	85.4329	2,731.93	81.4803	2,731.93	83.5974	2,731.93	79.8627	2,731.93	80.4606	2,731.93	79.2936	2,731.93	77.8014	2,731.93	75.6596	2,731.93	73.4226	2,731.93	75.9117	2,731.93	73.724	2,731.93	73.6439	2,731.93	69.1831	2,731.93	70.5161	2,731.93	68.5891	2,731.93	73.122	2,731.93	69.4379	2,731.93	71.583	2,731.93	68.7031	2,731.93	65.4396	2,731.93	72.2263	2,731.93	71.7448	2,731.93	60.8429	2,731.93	60.7593
2,828.61	84.6486	2,828.61	78.9877	2,828.61	87.4596	2,828.61	81.1052	2,828.61	87.2873	2,828.61	83.0765	2,828.61	86.4569	2,828.61	83.4235	2,828.61	86.7738	2,828.61	82.4977	2,828.61	87.334	2,828.61	82.1522	2,828.61	86.5963	2,828.61	81.5413	2,828.61	84.2983	2,828.61	80.0978	2,828.61	81.8843	2,828.61	78.2033	2,828.61	76.6334	2,828.61	76.3757	2,828.61	75.8775	2,828.61	73.997	2,828.61	72.0861	2,828.61	73.4987	2,828.61	69.7622	2,828.61	69.2854	2,828.61	71.1166	2,828.61	71.6175	2,828.61	70.916	2,828.61	72.1291	2,828.61	68.7989	2,828.61	68.6346	2,828.61	69.9277	2,828.61	70.4939	2,828.61	57.7794	2,828.61	60.8047
2,928.22	83.1767	2,928.22	78.6752	2,928.22	87.3905	2,928.22	80.5607	2,928.22	86.7411	2,928.22	82.4526	2,928.22	86.2822	2,928.22	82.852	2,928.22	87.4711	2,928.22	84.5944	2,928.22	88.1555	2,928.22	84.0258	2,928.22	87.2127	2,928.22	83.1318	2,928.22	84.7951	2,928.22	81.1186	2,928.22	81.478	2,928.22	78.2129	2,928.22	77.3868	2,928.22	75.8333	2,928.22	75.5254	2,928.22	73.7247	2,928.22	70.7411	2,928.22	70.7701	2,928.22	70.3116	2,928.22	69.0129	2,928.22	71.0093	2,928.22	70.7801	2,928.22	69.3999	2,928.22	71.5293	2,928.22	71.4258	2,928.22	72.5797	2,928.22	73.0882	2,928.22	72.2615	2,928.22	57.6752	2,928.22	49.5889
3,030.76	84.3636	3,030.76	82.8327	3,030.76	86.4726	3,030.76	82.6838	3,030.76	86.0256	3,030.76	83.4361	3,030.76	85.2847	3,030.76	83.4841	3,030.76	87.2027	3,030.76	84.502	3,030.76	87.693	3,030.76	85.4558	3,030.76	87.2089	3,030.76	83.5567	3,030.76	84.6082	3,030.76	81.0731	3,030.76	80.8563	3,030.76	77.5961	3,030.76	78.12	3,030.76	75.4647	3,030.76	73.9658	3,030.76	73.8703	3,030.76	71.3537	3,030.76	71.103	3,030.76	71.2631	3,030.76	70.2478	3,030.76	68.4836	3,030.76	71.3091	3,030.76	68.3033	3,030.76	68.3939	3,030.76	71.7487	3,030.76	71.294	3,030.76	72.7086	3,030.76	70.6751	3,030.76	58.4268	3,030.76	52.3403
3,137.7	85.0889	3,137.7	84.5573	3,137.7	86.5373	3,137.7	82.9571	3,137.7	84.9738	3,137.7	82.6848	3,137.7	83.9354	3,137.7	84.4201	3,137.7	85.6746	3,137.7	86.2844	3,137.7	87.1858	3,137.7	85.1948	3,137.7	85.9595	3,137.7	82.8739	3,137.7	83.5164	3,137.7	80.3978	3,137.7	80.9585	3,137.7	78.1569	3,137.7	77.4481	3,137.7	77.1219	3,137.7	74.0023	3,137.7	72.7959	3,137.7	70.891	3,137.7	72.8559	3,137.7	70.3102	3,137.7	70.0672	3,137.7	67.6479	3,137.7	70.3268	3,137.7	68.9375	3,137.7	68.1731	3,137.7	70.0366	3,137.7	70.2192	3,137.7	71.6104	3,137.7	70.7675	3,137.7	54.3714	3,137.7	61.0233
3,249.02	83.0485	3,249.02	82.9629	3,249.02	85.1279	3,249.02	80.3837	3,249.02	84.0727	3,249.02	80.6361	3,249.02	83.3309	3,249.02	84.0349	3,249.02	84.6142	3,249.02	85.8767	3,249.02	86.2362	3,249.02	84.1977	3,249.02	84.825	3,249.02	81.97	3,249.02	82.9909	3,249.02	79.6761	3,249.02	79.752	3,249.02	77.0727	3,249.02	77.0053	3,249.02	75.0954	3,249.02	75.2472	3,249.02	72.3058	3,249.02	69.8025	3,249.02	72.019	3,249.02	66.8454	3,249.02	66.6712	3,249.02	66.8737	3,249.02	68.5616	3,249.02	67.6109	3,249.02	70.5898	3,249.02	70.5408	3,249.02	71.1779	3,249.02	69.7335	3,249.02	70.9297	3,249.02	54.9042	3,249.02	57.415
3,363.28	82.535	3,363.28	82.7814	3,363.28	82.9736	3,363.28	80.4015	3,363.28	84.2729	3,363.28	80.185	3,363.28	84.1133	3,363.28	83.6421	3,363.28	85.1742	3,363.28	83.3542	3,363.28	86.1228	3,363.28	81.9044	3,363.28	85.2829	3,363.28	79.68	3,363.28	83.2952	3,363.28	77.0036	3,363.28	80.6235	3,363.28	74.7811	3,363.28	77.4871	3,363.28	72.9447	3,363.28	74.7537	3,363.28	71.0642	3,363.28	72.921	3,363.28	70.6294	3,363.28	68.6699	3,363.28	65.0443	3,363.28	65.8913	3,363.28	63.3903	3,363.28	70.1201	3,363.28	67.4411	3,363.28	72.1816	3,363.28	69.2077	3,363.28	70.6627	3,363.28	66.7896	3,363.28	58.5854	3,363.28	39.7962
3,481.93	82.6514	3,481.93	84.0048	3,481.93	82.488	3,481.93	81.3794	3,481.93	84.3173	3,481.93	82.233	3,481.93	84.5992	3,481.93	84.6242	3,481.93	85.3344	3,481.93	83.9459	3,481.93	85.8095	3,481.93	81.9049	3,481.93	85.5756	3,481.93	80.5023	3,481.93	83.3756	3,481.93	78.0459	3,481.93	80.4177	3,481.93	76.296	3,481.93	77.1476	3,481.93	73.6742	3,481.93	74.0658	3,481.93	72.3443	3,481.93	72.4964	3,481.93	71.3439	3,481.93	69.8603	3,481.93	68.6918	3,481.93	63.7874	3,481.93	64.445	3,481.93	69.1051	3,481.93	67.0745	3,481.93	71.8688	3,481.93	67.1388	3,481.93	70.5115	3,481.93	69.9727	3,481.93	58.5183	3,481.93	51.3048
3,604.98	83.8799	3,604.98	85.2581	3,604.98	81.4504	3,604.98	82.5075	3,604.98	84.0943	3,604.98	83.4028	3,604.98	84.9048	3,604.98	84.7693	3,604.98	84.7758	3,604.98	84.8997	3,604.98	86.0281	3,604.98	83.8432	3,604.98	85.6099	3,604.98	82.2044	3,604.98	83.6997	3,604.98	79.3282	3,604.98	81.9862	3,604.98	77.7032	3,604.98	78.5129	3,604.98	75.1988	3,604.98	76.3933	3,604.98	72.4379	3,604.98	73.7468	3,604.98	69.8163	3,604.98	71.1687	3,604.98	66.7363	3,604.98	67.1233	3,604.98	68.3733	3,604.98	68.9585	3,604.98	69.5858	3,604.98	72.3283	3,604.98	68.9817	3,604.98	70.6034	3,604.98	66.2066	3,604.98	57.9804	3,604.98	50.5076
3,732.42	85.722	3,732.42	86.5584	3,732.42	82.7411	3,732.42	85.2503	3,732.42	85.7658	3,732.42	85.1794	3,732.42	86.1501	3,732.42	85.5572	3,732.42	84.7248	3,732.42	85.1806	3,732.42	85.8996	3,732.42	84.4887	3,732.42	86.0872	3,732.42	82.6031	3,732.42	85.0295	3,732.42	80.5556	3,732.42	82.6949	3,732.42	78.5882	3,732.42	79.8179	3,732.42	75.455	3,732.42	76.9397	3,732.42	73.4014	3,732.42	74.7103	3,732.42	70.4132	3,732.42	71.0449	3,732.42	66.4518	3,732.42	69.4976	3,732.42	68.1928	3,732.42	70.6114	3,732.42	68.071	3,732.42	73.5977	3,732.42	68.6033	3,732.42	72.5579	3,732.42	66.0598	3,732.42	62.4837	3,732.42	58.2971
3,864.26	86.1893	3,864.26	86.6449	3,864.26	84.5334	3,864.26	86.4296	3,864.26	86.3465	3,864.26	86.0432	3,864.26	86.2303	3,864.26	85.1841	3,864.26	83.3936	3,864.26	85.2777	3,864.26	84.8292	3,864.26	84.7191	3,864.26	85.7344	3,864.26	83.2089	3,864.26	84.4662	3,864.26	80.4624	3,864.26	81.9706	3,864.26	76.8956	3,864.26	78.5303	3,864.26	74.259	3,864.26	75.5662	3,864.26	72.2004	3,864.26	71.7013	3,864.26	70.249	3,864.26	68.8314	3,864.26	68.3664	3,864.26	66.1166	3,864.26	66.8502	3,864.26	69.2191	3,864.26	68.5661	3,864.26	72.1476	3,864.26	68.2304	3,864.26	71.0818	3,864.26	62.8971	3,864.26	55.9314	3,864.26	59.5329
4,000.49	86.2952	4,000.49	86.2655	4,000.49	84.4564	4,000.49	86.7561	4,000.49	85.9337	4,000.49	86.2317	4,000.49	86.1479	4,000.49	85.2992	4,000.49	83.2984	4,000.49	85.2561	4,000.49	83.9456	4,000.49	84.1355	4,000.49	84.3818	4,000.49	81.3588	4,000.49	83.6077	4,000.49	78.4616	4,000.49	79.9816	4,000.49	76.4251	4,000.49	78.0022	4,000.49	72.9978	4,000.49	73.8767	4,000.49	71.8711	4,000.49	71.473	4,000.49	69.6175	4,000.49	67.3879	4,000.49	69.3353	4,000.49	68.6178	4,000.49	62.9915	4,000.49	67.3394	4,000.49	65.7584	4,000.49	71.6207	4,000.49	66.9025	4,000.49	70.0476	4,000.49	64.3713	4,000.49	58.7629	4,000.49	60.5975
4,141.11	86.5911	4,141.11	86.8977	4,141.11	86.5319	4,141.11	87.7844	4,141.11	87.1225	4,141.11	85.8871	4,141.11	86.7138	4,141.11	84.8426	4,141.11	83.4234	4,141.11	84.9707	4,141.11	84.2289	4,141.11	83.7756	4,141.11	85.5186	4,141.11	81.551	4,141.11	84.0644	4,141.11	78.5533	4,141.11	81.6865	4,141.11	75.7219	4,141.11	77.6141	4,141.11	73.5805	4,141.11	74.0322	4,141.11	71.848	4,141.11	70.2007	4,141.11	69.1885	4,141.11	68.7081	4,141.11	67.8143	4,141.11	68.4803	4,141.11	67.1226	4,141.11	68.5341	4,141.11	62.143	4,141.11	71.1461	4,141.11	63.2614	4,141.11	69.9549	4,141.11	62.692	4,141.11	58.7795	4,141.11	62.85
4,287.6	86.577	4,287.6	87.1685	4,287.6	87.0881	4,287.6	87.9787	4,287.6	87.6566	4,287.6	85.8054	4,287.6	86.9145	4,287.6	85.9095	4,287.6	84.6719	4,287.6	86.3101	4,287.6	85.0373	4,287.6	85.0528	4,287.6	85.4061	4,287.6	82.467	4,287.6	83.8845	4,287.6	79.6019	4,287.6	80.0367	4,287.6	77.3106	4,287.6	77.118	4,287.6	74.5432	4,287.6	73.5707	4,287.6	72.4788	4,287.6	70.1453	4,287.6	70.1446	4,287.6	65.5451	4,287.6	67.0863	4,287.6	65.426	4,287.6	58.105	4,287.6	63.6119	4,287.6	64.9942	4,287.6	71.0565	4,287.6	61.4406	4,287.6	68.4373	4,287.6	62.3438	4,287.6	51.5077	4,287.6	64.0639
4,438.48	85.9451	4,438.48	87.1046	4,438.48	87.9017	4,438.48	88.082	4,438.48	87.45	4,438.48	85.5443	4,438.48	86.7682	4,438.48	86.1367	4,438.48	83.7946	4,438.48	86.3607	4,438.48	84.2829	4,438.48	85.5351	4,438.48	85.428	4,438.48	83.6948	4,438.48	83.3522	4,438.48	81.6925	4,438.48	80.0596	4,438.48	78.7065	4,438.48	77.1116	4,438.48	76.3708	4,438.48	74.8403	4,438.48	74.3067	4,438.48	70.5376	4,438.48	73.1934	4,438.48	68.8833	4,438.48	69.7383	4,438.48	64.1036	4,438.48	67.4715	4,438.48	64.3569	4,438.48	65.3036	4,438.48	69.5645	4,438.48	65.3733	4,438.48	67.897	4,438.48	63.1901	4,438.48	50.4786	4,438.48	63.5042
4,595.21	85.7119	4,595.21	87.4814	4,595.21	88.5139	4,595.21	87.4651	4,595.21	86.8026	4,595.21	85.549	4,595.21	85.5841	4,595.21	86.8537	4,595.21	83.8446	4,595.21	86.6933	4,595.21	84.3466	4,595.21	85.4236	4,595.21	84.4009	4,595.21	83.4224	4,595.21	82.7174	4,595.21	80.577	4,595.21	81.1704	4,595.21	78.5859	4,595.21	76.9873	4,595.21	74.3625	4,595.21	73.9034	4,595.21	74.4407	4,595.21	71.1573	4,595.21	72.7221	4,595.21	68.9853	4,595.21	69.7289	4,595.21	63.8492	4,595.21	64.953	4,595.21	61.2465	4,595.21	66.3001	4,595.21	69.1043	4,595.21	64.8586	4,595.21	66.3651	4,595.21	58.6264	4,595.21	49.2502	4,595.21	56.4976
4,756.35	86.2576	4,756.35	87.9591	4,756.35	88.7054	4,756.35	87.1645	4,756.35	86.231	4,756.35	85.6052	4,756.35	86.0041	4,756.35	86.1197	4,756.35	84.6184	4,756.35	85.8062	4,756.35	83.6633	4,756.35	85.8692	4,756.35	84.7983	4,756.35	84.9118	4,756.35	83.8646	4,756.35	82.159	4,756.35	81.0875	4,756.35	78.1738	4,756.35	78.0869	4,756.35	76.1151	4,756.35	75.2114	4,756.35	74.1421	4,756.35	72.1362	4,756.35	71.651	4,756.35	69.4759	4,756.35	69.9017	4,756.35	66.9343	4,756.35	68.0381	4,756.35	61.6835	4,756.35	65.3203	4,756.35	68.0365	4,756.35	64.2478	4,756.35	66.9018	4,756.35	62.3101	4,756.35	49.9465	4,756.35	58.5379
4,924.8	86.9196	4,924.8	88.2101	4,924.8	89.2219	4,924.8	87.3522	4,924.8	86.6216	4,924.8	86.2793	4,924.8	87.1923	4,924.8	86.0695	4,924.8	85.5061	4,924.8	86.1155	4,924.8	83.7257	4,924.8	85.8754	4,924.8	84.4626	4,924.8	82.9451	4,924.8	83.8626	4,924.8	79.0448	4,924.8	82.2545	4,924.8	76.8869	4,924.8	78.4765	4,924.8	72.6331	4,924.8	74.8455	4,924.8	71.6894	4,924.8	72.2054	4,924.8	72.2281	4,924.8	71.9468	4,924.8	70.691	4,924.8	68.11	4,924.8	65.6294	4,924.8	65.518	4,924.8	65.3809	4,924.8	68.0843	4,924.8	63.2808	4,924.8	66.1287	4,924.8	61.1109	4,924.8	54.128	4,924.8	56.3306
5,097.66	86.3317	5,097.66	87.0427	5,097.66	87.8398	5,097.66	85.7438	5,097.66	85.7356	5,097.66	85.763	5,097.66	86.4231	5,097.66	85.2525	5,097.66	86.1342	5,097.66	87.0801	5,097.66	82.5602	5,097.66	86.0894	5,097.66	84.1129	5,097.66	83.3199	5,097.66	83.8732	5,097.66	79.861	5,097.66	81.5324	5,097.66	75.7471	5,097.66	78.9997	5,097.66	73.7761	5,097.66	75.8459	5,097.66	70.1102	5,097.66	72.5039	5,097.66	69.617	5,097.66	70.724	5,097.66	63.5505	5,097.66	67.1528	5,097.66	65.9751	5,097.66	61.8827	5,097.66	62.8803	5,097.66	68.2151	5,097.66	61.8608	5,097.66	67.6525	5,097.66	61.3687	5,097.66	49.6853	5,097.66	59.7796
5,277.83	86.8411	5,277.83	85.5636	5,277.83	86.9485	5,277.83	85.8053	5,277.83	84.9732	5,277.83	85.6283	5,277.83	86.4496	5,277.83	85.2682	5,277.83	85.4476	5,277.83	85.8182	5,277.83	81.5694	5,277.83	83.4169	5,277.83	83.8958	5,277.83	80.4497	5,277.83	84.6903	5,277.83	78.1696	5,277.83	81.7489	5,277.83	76.5051	5,277.83	78.061	5,277.83	75.0487	5,277.83	76.1426	5,277.83	71.2634	5,277.83	70.9951	5,277.83	68.9412	5,277.83	71.3039	5,277.83	68.6836	5,277.83	68.0807	5,277.83	66.7724	5,277.83	64.288	5,277.83	65.4846	5,277.83	65.4581	5,277.83	63.8033	5,277.83	65.22	5,277.83	64.6443	5,277.83	55.8926	5,277.83	59.9974
5,463.87	87.2204	5,463.87	84.6057	5,463.87	85.74	5,463.87	87.0862	5,463.87	84.8218	5,463.87	86.0563	5,463.87	85.934	5,463.87	85.6616	5,463.87	86.0566	5,463.87	85.7051	5,463.87	83.757	5,463.87	85.1028	5,463.87	83.6602	5,463.87	83.4012	5,463.87	83.7173	5,463.87	80.5666	5,463.87	81.4534	5,463.87	77.0645	5,463.87	78.2343	5,463.87	72.8019	5,463.87	74.1859	5,463.87	72.2999	5,463.87	69.4667	5,463.87	69.5265	5,463.87	70.4626	5,463.87	66.4516	5,463.87	68.1972	5,463.87	66.5717	5,463.87	63.3893	5,463.87	66.0533	5,463.87	63.0362	5,463.87	65.8639	5,463.87	63.2524	5,463.87	63.0723	5,463.87	49.6821	5,463.87	62.2453
5,657.23	87.0417	5,657.23	83.6899	5,657.23	83.8307	5,657.23	86.4438	5,657.23	85.7749	5,657.23	85.613	5,657.23	85.2002	5,657.23	83.9568	5,657.23	85.6188	5,657.23	84.3359	5,657.23	84.1354	5,657.23	84.1292	5,657.23	83.8305	5,657.23	83.2046	5,657.23	82.4576	5,657.23	81.5289	5,657.23	79.4477	5,657.23	78.6811	5,657.23	75.1698	5,657.23	76.5277	5,657.23	72.6263	5,657.23	72.2309	5,657.23	69.2953	5,657.23	70.7793	5,657.23	68.1074	5,657.23	68.1908	5,657.23	67.0098	5,657.23	63.4292	5,657.23	61.2988	5,657.23	64.5521	5,657.23	62.287	5,657.23	63.3697	5,657.23	62.2944	5,657.23	63.1407	5,657.23	51.4712	5,657.23	62.797
5,856.45	86.1247	5,856.45	84.3104	5,856.45	83.2119	5,856.45	86.3195	5,856.45	85.4793	5,856.45	86.446	5,856.45	83.9907	5,856.45	84.6195	5,856.45	84.8423	5,856.45	85.034	5,856.45	83.6174	5,856.45	85.2573	5,856.45	83.3017	5,856.45	82.2486	5,856.45	81.7565	5,856.45	79.4125	5,856.45	77.5413	5,856.45	74.2119	5,856.45	72.1277	5,856.45	72.1089	5,856.45	69.8645	5,856.45	71.3585	5,856.45	67.7333	5,856.45	70.7094	5,856.45	69.4238	5,856.45	66.6869	5,856.45	64.6223	5,856.45	66.3551	5,856.45	63.6381	5,856.45	66.111	5,856.45	55.8009	5,856.45	63.9509	5,856.45	58.7946	5,856.45	64.9332	5,856.45	51.2207	5,856.45	61.6897
6,062.99	85.9635	6,062.99	85.7518	6,062.99	84.3156	6,062.99	85.4439	6,062.99	86.2928	6,062.99	86.4321	6,062.99	84.196	6,062.99	83.7544	6,062.99	85.5093	6,062.99	84.9328	6,062.99	84.3512	6,062.99	84.578	6,062.99	83.3127	6,062.99	82.7178	6,062.99	81.5723	6,062.99	79.0091	6,062.99	77.5994	6,062.99	75.7321	6,062.99	74.3424	6,062.99	71.8696	6,062.99	70.1304	6,062.99	68.9236	6,062.99	67.905	6,062.99	64.6813	6,062.99	65.3529	6,062.99	67.8326	6,062.99	53.5105	6,062.99	64.0807	6,062.99	60.91	6,062.99	62.1085	6,062.99	54.4799	6,062.99	61.6024	6,062.99	56.8706	6,062.99	62.9878	6,062.99	35.9128	6,062.99	56.0706
6,276.86	85.0528	6,276.86	86.0917	6,276.86	83.7725	6,276.86	85.348	6,276.86	86.1422	6,276.86	87.0438	6,276.86	83.2287	6,276.86	84.3918	6,276.86	85.5275	6,276.86	85.1024	6,276.86	83.4171	6,276.86	84.6423	6,276.86	83.4098	6,276.86	81.7259	6,276.86	81.636	6,276.86	78.0566	6,276.86	78.2993	6,276.86	74.2037	6,276.86	74.69	6,276.86	70.2944	6,276.86	70.96	6,276.86	69.3092	6,276.86	69.0811	6,276.86	69.3996	6,276.86	66.3755	6,276.86	67.9601	6,276.86	60.2284	6,276.86	67.3501	6,276.86	62.8902	6,276.86	63.2332	6,276.86	59.8403	6,276.86	61.094	6,276.86	61.2419	6,276.86	63.5554	6,276.86	40.45	6,276.86	61.5935
6,498.05	85.0158	6,498.05	86.7322	6,498.05	84.6441	6,498.05	85.6348	6,498.05	85.8444	6,498.05	86.5299	6,498.05	83.9394	6,498.05	84.6161	6,498.05	85.5111	6,498.05	83.9974	6,498.05	82.5381	6,498.05	84.3122	6,498.05	83.3632	6,498.05	81.275	6,498.05	82.0438	6,498.05	78.9099	6,498.05	78.9334	6,498.05	75.5362	6,498.05	75.8227	6,498.05	72.7854	6,498.05	72.0304	6,498.05	69.0482	6,498.05	68.5675	6,498.05	67.0025	6,498.05	65.9627	6,498.05	66.9735	6,498.05	60.3014	6,498.05	65.5884	6,498.05	62.4807	6,498.05	61.727	6,498.05	61.4694	6,498.05	61.9926	6,498.05	63.2096	6,498.05	64.4374	6,498.05	47.3277	6,498.05	59.0921
6,726.56	85.6417	6,726.56	86.9238	6,726.56	86.7752	6,726.56	85.9642	6,726.56	85.9181	6,726.56	86.319	6,726.56	85.4956	6,726.56	85.6601	6,726.56	86.2312	6,726.56	84.209	6,726.56	83.4765	6,726.56	84.3866	6,726.56	84.0233	6,726.56	81.599	6,726.56	83.1848	6,726.56	78.1739	6,726.56	79.832	6,726.56	75.2084	6,726.56	76.4654	6,726.56	70.5877	6,726.56	71.4706	6,726.56	69.1046	6,726.56	67.7706	6,726.56	65.8928	6,726.56	68.2501	6,726.56	65.625	6,726.56	60.5751	6,726.56	65.7567	6,726.56	64.5277	6,726.56	59.9574	6,726.56	62.2972	6,726.56	58.6896	6,726.56	64.0359	6,726.56	63.391	6,726.56	38.9264	6,726.56	57.4184
6,963.87	84.5827	6,963.87	86.415	6,963.87	86.1246	6,963.87	85.731	6,963.87	84.9993	6,963.87	85.648	6,963.87	85.4198	6,963.87	85.5139	6,963.87	85.5649	6,963.87	83.8894	6,963.87	82.9348	6,963.87	83.7493	6,963.87	83.4972	6,963.87	81.764	6,963.87	83.0242	6,963.87	77.8917	6,963.87	79.1957	6,963.87	75.316	6,963.87	75.418	6,963.87	70.7575	6,963.87	70.0023	6,963.87	70.684	6,963.87	68.7831	6,963.87	67.0294	6,963.87	69.5086	6,963.87	64.1826	6,963.87	64.06	6,963.87	64.0052	6,963.87	64.3612	6,963.87	56.2727	6,963.87	63.8128	6,963.87	58.127	6,963.87	64.6528	6,963.87	63.1368	6,963.87	49.9411	6,963.87	57.3871
7,209.96	84.9286	7,209.96	87.0006	7,209.96	86.208	7,209.96	86.38	7,209.96	85.7571	7,209.96	86.6638	7,209.96	86.607	7,209.96	85.856	7,209.96	85.0452	7,209.96	84.1602	7,209.96	82.9606	7,209.96	83.9825	7,209.96	82.103	7,209.96	82.1441	7,209.96	81.5073	7,209.96	79.1446	7,209.96	76.6837	7,209.96	75.0478	7,209.96	72.8368	7,209.96	69.9131	7,209.96	67.8948	7,209.96	71.0113	7,209.96	66.9408	7,209.96	68.5301	7,209.96	67.7888	7,209.96	65.0555	7,209.96	60.2842	7,209.96	63.5218	7,209.96	63.7575	7,209.96	54.4684	7,209.96	61.5297	7,209.96	57.862	7,209.96	62.0694	7,209.96	61.8999	7,209.96	55.7519	7,209.96	57.3531
7,464.84	85.4799	7,464.84	86.5756	7,464.84	86.4831	7,464.84	86.1897	7,464.84	86.4249	7,464.84	86.7453	7,464.84	87.1143	7,464.84	85.3644	7,464.84	84.3277	7,464.84	83.2949	7,464.84	82.8463	7,464.84	83.6236	7,464.84	80.9615	7,464.84	82.7563	7,464.84	80.2875	7,464.84	79.9174	7,464.84	75.8617	7,464.84	75.2676	7,464.84	72.7473	7,464.84	71.759	7,464.84	69.0546	7,464.84	71.4506	7,464.84	68.1843	7,464.84	68.2615	7,464.84	66.4708	7,464.84	64.2261	7,464.84	58.2841	7,464.84	62.4909	7,464.84	63.8679	7,464.84	49.2333	7,464.84	62.1792	7,464.84	53.1752	7,464.84	55.8811	7,464.84	60.6141	7,464.84	54.4986	7,464.84	52.2782
7,727.05	85.688	7,727.05	85.8522	7,727.05	86.0251	7,727.05	86.2533	7,727.05	86.3611	7,727.05	86.7207	7,727.05	86.1673	7,727.05	85.5118	7,727.05	84.2049	7,727.05	84.0395	7,727.05	83.1623	7,727.05	83.327	7,727.05	79.9538	7,727.05	81.3757	7,727.05	81.0832	7,727.05	77.6708	7,727.05	77.6555	7,727.05	70.6012	7,727.05	73.5889	7,727.05	69.2916	7,727.05	71.1088	7,727.05	68.8345	7,727.05	67.5334	7,727.05	65.6076	7,727.05	64.7942	7,727.05	63.7317	7,727.05	56.3818	7,727.05	58.2564	7,727.05	63.3765	7,727.05	44.9802	7,727.05	63.28	7,727.05	48.7011	7,727.05	54.8932	7,727.05	57.647	7,727.05	54.0877	7,727.05	50.0481
7,999.51	86.3433	7,999.51	85.8222	7,999.51	86.4443	7,999.51	86.7768	7,999.51	86.6392	7,999.51	86.2935	7,999.51	86.2239	7,999.51	86.1856	7,999.51	84.7478	7,999.51	83.6779	7,999.51	84.0387	7,999.51	82.0817	7,999.51	79.6783	7,999.51	77.973	7,999.51	80.7071	7,999.51	73.8059	7,999.51	76.8831	7,999.51	68.5264	7,999.51	73.1517	7,999.51	67.7427	7,999.51	69.0749	7,999.51	67.1456	7,999.51	66.5189	7,999.51	61.3495	7,999.51	61.9332	7,999.51	61.3242	7,999.51	56.0453	7,999.51	53.3353	7,999.51	62.0067	7,999.51	48.167	7,999.51	63.3287	7,999.51	39.7424	7,999.51	50.2768	7,999.51	59.6115	7,999.51	55.7004	7,999.51	52.0654
8,282.23	86.2753	8,282.23	85.6092	8,282.23	86.2624	8,282.23	86.0788	8,282.23	86.1728	8,282.23	85.7666	8,282.23	85.6856	8,282.23	85.5646	8,282.23	84.6885	8,282.23	82.8388	8,282.23	83.2317	8,282.23	81.2634	8,282.23	79.8172	8,282.23	78.8664	8,282.23	78.9123	8,282.23	75.6749	8,282.23	73.4401	8,282.23	71.0432	8,282.23	68.6712	8,282.23	69.3419	8,282.23	66.2558	8,282.23	66.8846	8,282.23	62.0095	8,282.23	61.1493	8,282.23	56.7079	8,282.23	59.8872	8,282.23	54.8108	8,282.23	54.989	8,282.23	57.334	8,282.23	54.5379	8,282.23	60.9203	8,282.23	47.719	8,282.23	34.3251	8,282.23	57.2375	8,282.23	56.3728	8,282.23	47.7032
8,573.73	86.5294	8,573.73	86.2077	8,573.73	86.5204	8,573.73	86.4796	8,573.73	86.313	8,573.73	85.9388	8,573.73	86.3426	8,573.73	85.5319	8,573.73	85.2968	8,573.73	82.8542	8,573.73	82.9824	8,573.73	80.0981	8,573.73	80.1402	8,573.73	77.5834	8,573.73	77.2001	8,573.73	74.25	8,573.73	71.3116	8,573.73	68.7976	8,573.73	67.6763	8,573.73	66.3465	8,573.73	65.7841	8,573.73	64.3836	8,573.73	61.2774	8,573.73	56.9015	8,573.73	41.8299	8,573.73	58.3489	8,573.73	53.6856	8,573.73	49.8953	8,573.73	54.3044	8,573.73	53.1579	8,573.73	58.52	8,573.73	49.3745	8,573.73	39.9258	8,573.73	54.5747	8,573.73	53.1104	8,573.73	42.8004
8,876.95	86.6565	8,876.95	86.5284	8,876.95	86.2296	8,876.95	86.6975	8,876.95	85.8775	8,876.95	85.7716	8,876.95	86.4629	8,876.95	84.9896	8,876.95	84.5964	8,876.95	81.1727	8,876.95	82.9645	8,876.95	77.2498	8,876.95	79.2027	8,876.95	73.0303	8,876.95	77.9799	8,876.95	66.8423	8,876.95	74.3368	8,876.95	57.4406	8,876.95	71.2932	8,876.95	58.8985	8,876.95	68.0707	8,876.95	56.5426	8,876.95	63.1314	8,876.95	51.845	8,876.95	57.3707	8,876.95	34.3389	8,876.95	60.6334	8,876.95	46.8311	8,876.95	56.1793	8,876.95	47.901	8,876.95	61.4887	8,876.95	47.4143	8,876.95	53.81	8,876.95	53.7969	8,876.95	52.3973	8,876.95	48.175
9,188.96	86.9975	9,188.96	86.8508	9,188.96	86.4319	9,188.96	86.5455	9,188.96	86.6883	9,188.96	85.5877	9,188.96	86.5465	9,188.96	84.7847	9,188.96	84.1433	9,188.96	79.5944	9,188.96	83.7103	9,188.96	80.4384	9,188.96	79.8383	9,188.96	77.2678	9,188.96	81.2209	9,188.96	75.1872	9,188.96	79.3252	9,188.96	72.1799	9,188.96	75.7176	9,188.96	69.4666	9,188.96	71.8991	9,188.96	67.1836	9,188.96	67.3884	9,188.96	63.1076	9,188.96	61.0517	9,188.96	59.8574	9,188.96	66.1468	9,188.96	47.7174	9,188.96	56.2907	9,188.96	59.3105	9,188.96	64.0577	9,188.96	52.4866	9,188.96	60.4896	9,188.96	48.2372	9,188.96	38.854	9,188.96	49.8298
9,514.16	86.6475	9,514.16	86.4061	9,514.16	86.5273	9,514.16	86.1005	9,514.16	86.2518	9,514.16	84.8492	9,514.16	84.1774	9,514.16	84.0863	9,514.16	83.2939	9,514.16	81.5351	9,514.16	83.1861	9,514.16	81.378	9,514.16	78.2286	9,514.16	80.301	9,514.16	80.9605	9,514.16	76.9033	9,514.16	77.0279	9,514.16	72.9053	9,514.16	73.0004	9,514.16	69.6943	9,514.16	69.1084	9,514.16	67.2113	9,514.16	65.6334	9,514.16	63.0619	9,514.16	58.1857	9,514.16	59.626	9,514.16	64.4939	9,514.16	51.7963	9,514.16	54.6916	9,514.16	59.5648	9,514.16	60.6879	9,514.16	50.444	9,514.16	60.0851	9,514.16	39.5737	9,514.16	49.1586	9,514.16	40.0994
9,849.61	87.2453	9,849.61	86.6795	9,849.61	86.7549	9,849.61	86.0698	9,849.61	85.4616	9,849.61	85.1665	9,849.61	83.831	9,849.61	83.9555	9,849.61	83.7	9,849.61	81.8804	9,849.61	81.6758	9,849.61	80.2491	9,849.61	78.4304	9,849.61	78.8986	9,849.61	79.7344	9,849.61	74.4951	9,849.61	75.6057	9,849.61	71.3656	9,849.61	72.1446	9,849.61	68.5623	9,849.61	67.5708	9,849.61	65.6206	9,849.61	64.1377	9,849.61	59.6127	9,849.61	55.0272	9,849.61	59.673	9,849.61	60.9422	9,849.61	48.5074	9,849.61	51.2622	9,849.61	57.5583	9,849.61	58.243	9,849.61	45.1799	9,849.61	58.7374	9,849.61	43.5289	9,849.61	50.8179	9,849.61	38.1795
10,196.8	87.7286	10,196.8	86.7445	10,196.8	86.9234	10,196.8	86.272	10,196.8	85.1528	10,196.8	84.4871	10,196.8	84.3667	10,196.8	84.583	10,196.8	83.1421	10,196.8	80.2937	10,196.8	80.8449	10,196.8	80.1866	10,196.8	79.2832	10,196.8	78.2888	10,196.8	78.2766	10,196.8	76.0399	10,196.8	78.3875	10,196.8	72.4934	10,196.8	74.0964	10,196.8	69.0251	10,196.8	69.4233	10,196.8	64.8006	10,196.8	65.7076	10,196.8	60.5687	10,196.8	57.6316	10,196.8	57.0301	10,196.8	63.5243	10,196.8	52.7073	10,196.8	41.7759	10,196.8	54.9603	10,196.8	46.1992	10,196.8	50.0709	10,196.8	56.5354	10,196.8	48.197	10,196.8	45.9401	10,196.8	34.4751
10,555.7	87.8432	10,555.7	86.9571	10,555.7	86.9928	10,555.7	86.5025	10,555.7	85.7586	10,555.7	84.2656	10,555.7	84.054	10,555.7	84.0518	10,555.7	82.5621	10,555.7	81.6431	10,555.7	81.7638	10,555.7	79.3849	10,555.7	79.9999	10,555.7	77.4305	10,555.7	78.3885	10,555.7	71.855	10,555.7	76.8626	10,555.7	66.3658	10,555.7	71.4002	10,555.7	62.1709	10,555.7	67.644	10,555.7	59.0046	10,555.7	63.4601	10,555.7	51.951	10,555.7	54.6157	10,555.7	52.5984	10,555.7	64.077	10,555.7	48.424	10,555.7	49.0146	10,555.7	49.4973	10,555.7	43.0562	10,555.7	50.5363	10,555.7	52.3825	10,555.7	44.4143	10,555.7	29.066	10,555.7	40.4037
10,927.7	87.9364	10,927.7	87.4265	10,927.7	87.1404	10,927.7	86.1519	10,927.7	86.4745	10,927.7	84.511	10,927.7	84.5052	10,927.7	83.1554	10,927.7	83.5101	10,927.7	81.4211	10,927.7	82.1651	10,927.7	78.2482	10,927.7	80.7596	10,927.7	73.0133	10,927.7	78.8413	10,927.7	65.0007	10,927.7	75.0074	10,927.7	64.8752	10,927.7	70.167	10,927.7	59.7001	10,927.7	65.316	10,927.7	57.044	10,927.7	60.2413	10,927.7	49.9851	10,927.7	47.232	10,927.7	47.7624	10,927.7	61.8321	10,927.7	46.7158	10,927.7	53.0644	10,927.7	48.0113	10,927.7	52.1492	10,927.7	48.8971	10,927.7	51.2896	10,927.7	38.4105	10,927.7	44.7882	10,927.7	36.9452
11,313	87.9406	11,313	87.5732	11,313	87.4651	11,313	86.1533	11,313	86.9518	11,313	84.4174	11,313	85.5782	11,313	82.9536	11,313	84.5486	11,313	80.2581	11,313	83.4929	11,313	75.4524	11,313	82.279	11,313	69.2008	11,313	79.5737	11,313	68.1762	11,313	76.7413	11,313	61.5436	11,313	72.1851	11,313	55.0907	11,313	67.3626	11,313	53.9358	11,313	62.632	11,313	39.5023	11,313	53.8279	11,313	42.422	11,313	62.1702	11,313	50.7175	11,313	56.6486	11,313	49.4419	11,313	57.2209	11,313	50.7233	11,313	33.0177	11,313	48.4854	11,313	49.8227	11,313	23.8031
11,712.9	88.4712	11,712.9	87.2903	11,712.9	88.0719	11,712.9	85.6592	11,712.9	87.5208	11,712.9	84.0207	11,712.9	86.3603	11,712.9	81.692	11,712.9	85.636	11,712.9	78.4747	11,712.9	85.1606	11,712.9	69.303	11,712.9	83.4318	11,712.9	55.7304	11,712.9	80.7923	11,712.9	63.0746	11,712.9	77.7045	11,712.9	60.8377	11,712.9	73.2027	11,712.9	56.7438	11,712.9	68.5667	11,712.9	52.5802	11,712.9	63.3834	11,712.9	52.7704	11,712.9	54.097	11,712.9	54.514	11,712.9	63.9737	11,712.9	48.0901	11,712.9	58.7711	11,712.9	48.9175	11,712.9	58.8438	11,712.9	25.0904	11,712.9	48.5709	11,712.9	52.7111	11,712.9	49.7727	11,712.9	41.8374
12,126	89.7765	12,126	87.9358	12,126	89.1977	12,126	86.4514	12,126	87.7074	12,126	84.9786	12,126	86.0176	12,126	81.5144	12,126	84.2046	12,126	76.6914	12,126	82.8176	12,126	72.7878	12,126	81.0692	12,126	69.9952	12,126	76.3786	12,126	67.3166	12,126	73.8051	12,126	64.4812	12,126	68.3611	12,126	60.6679	12,126	62.7002	12,126	57.7384	12,126	59.2468	12,126	57.5322	12,126	53.584	12,126	60.3484	12,126	62.7548	12,126	46.9752	12,126	54.3232	12,126	48.8661	12,126	55.4733	12,126	51.1331	12,126	55.3042	12,126	52.1364	12,126	44.9376	12,126	48.4267
12,553.7	90.3042	12,553.7	88.9171	12,553.7	89.5438	12,553.7	87.3592	12,553.7	88.4271	12,553.7	85.0427	12,553.7	85.9002	12,553.7	82.6915	12,553.7	83.4483	12,553.7	77.5433	12,553.7	81.4897	12,553.7	72.8495	12,553.7	76.7617	12,553.7	65.9014	12,553.7	67.7212	12,553.7	57.8591	12,553.7	60.8467	12,553.7	64.4869	12,553.7	63.8543	12,553.7	57.8021	12,553.7	60.0804	12,553.7	56.4962	12,553.7	53.0737	12,553.7	54.5675	12,553.7	52.5853	12,553.7	57.5201	12,553.7	52.7668	12,553.7	43.6642	12,553.7	52.187	12,553.7	49.2419	12,553.7	45.8083	12,553.7	52.0556	12,553.7	48.6357	12,553.7	52.5244	12,553.7	49.2878	12,553.7	44.0623
12,996.1	90.7348	12,996.1	89.0472	12,996.1	90.0121	12,996.1	87.0777	12,996.1	88.5129	12,996.1	84.629	12,996.1	85.1322	12,996.1	82.8271	12,996.1	83.5014	12,996.1	77.4358	12,996.1	81.9789	12,996.1	66.9834	12,996.1	76.6818	12,996.1	66.3989	12,996.1	70.048	12,996.1	66.2197	12,996.1	71.0731	12,996.1	64.0875	12,996.1	68.3152	12,996.1	55.513	12,996.1	65.886	12,996.1	56.5489	12,996.1	60.3036	12,996.1	56.3797	12,996.1	56.8784	12,996.1	55.1131	12,996.1	65.7514	12,996.1	36.3644	12,996.1	56.9488	12,996.1	40.07	12,996.1	54.0468	12,996.1	53.5299	12,996.1	54.8465	12,996.1	54.3205	12,996.1	48.1923	12,996.1	43.3934
13,454.6	90.3804	13,454.6	88.1674	13,454.6	89.9482	13,454.6	85.4917	13,454.6	87.4176	13,454.6	82.0857	13,454.6	83.6589	13,454.6	78.351	13,454.6	80.2896	13,454.6	62.6996	13,454.6	75.8911	13,454.6	66.778	13,454.6	69.51	13,454.6	74.4852	13,454.6	60.3859	13,454.6	74.228	13,454.6	68.4607	13,454.6	71.5525	13,454.6	60.9327	13,454.6	63.1954	13,454.6	59.2406	13,454.6	56.7677	13,454.6	54.1401	13,454.6	60.4488	13,454.6	54.4705	13,454.6	57.2718	13,454.6	64.5575	13,454.6	30.8227	13,454.6	52.8228	13,454.6	57.1419	13,454.6	53.8465	13,454.6	56.6745	13,454.6	53.5706	13,454.6	57.4958	13,454.6	36.2966	13,454.6	37.9118
13,929.2	89.9743	13,929.2	86.7435	13,929.2	89.7534	13,929.2	83.1381	13,929.2	87.8239	13,929.2	80.8395	13,929.2	85.6274	13,929.2	76.704	13,929.2	82.3661	13,929.2	61.2158	13,929.2	78.6125	13,929.2	71.3722	13,929.2	72.9002	13,929.2	77.3114	13,929.2	68.4959	13,929.2	75.2887	13,929.2	66.65	13,929.2	71.5144	13,929.2	66.5391	13,929.2	62.3399	13,929.2	62.713	13,929.2	56.8509	13,929.2	54.5363	13,929.2	57.716	13,929.2	49.7397	13,929.2	61.1788	13,929.2	65.3992	13,929.2	48.9525	13,929.2	54.1705	13,929.2	59.2847	13,929.2	57.0494	13,929.2	57.476	13,929.2	56.1489	13,929.2	61.4541	13,929.2	42.1901	13,929.2	41.9347
14,419.9	88.5329	14,419.9	85.4202	14,419.9	87.1496	14,419.9	81.3329	14,419.9	84.3594	14,419.9	76.9103	14,419.9	81.8951	14,419.9	74.3825	14,419.9	80.3438	14,419.9	62.9111	14,419.9	77.7143	14,419.9	69.9467	14,419.9	72.4638	14,419.9	76.1427	14,419.9	54.5226	14,419.9	73.5597	14,419.9	66.1373	14,419.9	70.0756	14,419.9	61.1813	14,419.9	60.0304	14,419.9	55.9514	14,419.9	56.7158	14,419.9	51.6436	14,419.9	53.3554	14,419.9	45.9636	14,419.9	53.2386	14,419.9	64.1623	14,419.9	52.4854	14,419.9	53.1744	14,419.9	53.1879	14,419.9	53.2514	14,419.9	58.3956	14,419.9	56.6795	14,419.9	54.7776	14,419.9	41.3302	14,419.9	48.2071
14,928.2	85.1507	14,928.2	82.6777	14,928.2	83.2555	14,928.2	77.4519	14,928.2	77.8156	14,928.2	74.0413	14,928.2	74.8059	14,928.2	73.8553	14,928.2	74.0945	14,928.2	71.3792	14,928.2	73.5474	14,928.2	72.9201	14,928.2	74.2175	14,928.2	73.5272	14,928.2	72.6313	14,928.2	71.8687	14,928.2	71.4972	14,928.2	66.9056	14,928.2	68.0435	14,928.2	59.2002	14,928.2	59.0049	14,928.2	55.7099	14,928.2	48.4131	14,928.2	46.1798	14,928.2	50.0141	14,928.2	45.8014	14,928.2	61.6847	14,928.2	53.0695	14,928.2	52.0615	14,928.2	41.9101	14,928.2	50.3795	14,928.2	55.4679	14,928.2	51.9916	14,928.2	54.2395	14,928.2	41.5199	14,928.2	39.89
15,455.6	77.6792	15,455.6	75.0392	15,455.6	74.6647	15,455.6	68.8359	15,455.6	67.3192	15,455.6	67.8239	15,455.6	68.9809	15,455.6	66.7928	15,455.6	68.4595	15,455.6	68.9901	15,455.6	65.9711	15,455.6	69.2218	15,455.6	70.7986	15,455.6	71.1713	15,455.6	70.7326	15,455.6	69.0879	15,455.6	71.625	15,455.6	64.912	15,455.6	67.6672	15,455.6	57.6157	15,455.6	59.3288	15,455.6	53.0428	15,455.6	51.9693	15,455.6	48.9391	15,455.6	34.5765	15,455.6	44.4269	15,455.6	54.1867	15,455.6	51.8603	15,455.6	35.4148	15,455.6	34.9828	15,455.6	50.6888	15,455.6	48.4852	15,455.6	49.2444	15,455.6	54.4176	15,455.6	32.8095	15,455.6	35.1186
16,000.5	79.404	16,000.5	78.1445	16,000.5	78.1281	16,000.5	73.3375	16,000.5	75.9485	16,000.5	48.2276	16,000.5	67.4639	16,000.5	65.06	16,000.5	65.6768	16,000.5	66.831	16,000.5	67.5617	16,000.5	68.3792	16,000.5	68.6601	16,000.5	69.2603	16,000.5	64.5482	16,000.5	65.8603	16,000.5	65.7794	16,000.5	60.5618	16,000.5	58.6852	16,000.5	53.7856	16,000.5	47.6999	16,000.5	48.2229	16,000.5	36.2417	16,000.5	42.3212	16,000.5	22.9537	16,000.5	31.3529	16,000.5	49.0648	16,000.5	46.9515	16,000.5	38.7851	16,000.5	42.034	16,000.5	48.9575	16,000.5	38.1312	16,000.5	45.6397	16,000.5	50.7583	16,000.5	32.687	16,000.5	38.3433
16,564.5	82.2712	16,564.5	80.3464	16,564.5	81.0985	16,564.5	76.2295	16,564.5	78.502	16,564.5	55.1059	16,564.5	70.0702	16,564.5	62.7603	16,564.5	62.6659	16,564.5	68.3035	16,564.5	65.0427	16,564.5	70.3799	16,564.5	69.6627	16,564.5	70.6868	16,564.5	66.0204	16,564.5	67.8205	16,564.5	64.1292	16,564.5	62.3999	16,564.5	60.0068	16,564.5	52.7413	16,564.5	53.1329	16,564.5	50.7965	16,564.5	43.5316	16,564.5	42.8458	16,564.5	38.5959	16,564.5	35.9413	16,564.5	46.6552	16,564.5	41.1294	16,564.5	22.6815	16,564.5	41.4397	16,564.5	49.2486	16,564.5	36.5468	16,564.5	38.3755	16,564.5	46.2484	16,564.5	35.8544	16,564.5	35.1879
17,148.9	84.1365	17,148.9	82.3717	17,148.9	83.09	17,148.9	77.8971	17,148.9	79.6507	17,148.9	61.3115	17,148.9	70.1684	17,148.9	68.7049	17,148.9	62.986	17,148.9	70.4067	17,148.9	66.5184	17,148.9	69.9597	17,148.9	71.1994	17,148.9	69.9575	17,148.9	68.9773	17,148.9	67.2699	17,148.9	67.5791	17,148.9	61.6616	17,148.9	62.3037	17,148.9	53.4197	17,148.9	55.2226	17,148.9	48.3755	17,148.9	48.3714	17,148.9	42.3679	17,148.9	40.766	17,148.9	46.5312	17,148.9	44.7355	17,148.9	41.9863	17,148.9	42.2681	17,148.9	26.8	17,148.9	50.9202	17,148.9	39.1635	17,148.9	38.5616	17,148.9	47.2288	17,148.9	48.4816	17,148.9	42.3492
17,752.4	84.8269	17,752.4	84.0302	17,752.4	84.3082	17,752.4	78.6712	17,752.4	81.4038	17,752.4	63.0037	17,752.4	72.8269	17,752.4	72.6126	17,752.4	64.5277	17,752.4	74.1494	17,752.4	69.8198	17,752.4	74.9925	17,752.4	74.0154	17,752.4	73.42	17,752.4	73.8223	17,752.4	70.8489	17,752.4	72.9598	17,752.4	63.722	17,752.4	67.8348	17,752.4	56.7445	17,752.4	60.3696	17,752.4	47.5356	17,752.4	53.2929	17,752.4	38.5431	17,752.4	52.1737	17,752.4	52.5777	17,752.4	50.1978	17,752.4	45.3506	17,752.4	47.3816	17,752.4	34.8349	17,752.4	45.8009	17,752.4	42.4944	17,752.4	46.2936	17,752.4	39.3781	17,752.4	51.8659	17,752.4	44.058
18,379.4	85.3576	18,379.4	84.3406	18,379.4	84.9518	18,379.4	80.2869	18,379.4	83.1793	18,379.4	71.4799	18,379.4	76.2284	18,379.4	65.1446	18,379.4	65.1363	18,379.4	71.7031	18,379.4	57.749	18,379.4	72.6756	18,379.4	67.9773	18,379.4	71.8369	18,379.4	70.9104	18,379.4	69.5234	18,379.4	70.3125	18,379.4	62.3327	18,379.4	65.5151	18,379.4	53.5763	18,379.4	56.9318	18,379.4	45.5211	18,379.4	49.4721	18,379.4	25.4625	18,379.4	54.6121	18,379.4	44.6438	18,379.4	56.2921	18,379.4	42.2657	18,379.4	33.3016	18,379.4	29.5149	18,379.4	47.6421	18,379.4	39.4308	18,379.4	46.8544	18,379.4	41.98	18,379.4	46.629	18,379.4	39.4612
19,026.9	84.3645	19,026.9	82.7721	19,026.9	85.0406	19,026.9	79.8297	19,026.9	84.7503	19,026.9	76.7558	19,026.9	78.9857	19,026.9	77.2988	19,026.9	69.1687	19,026.9	77.2584	19,026.9	66.4195	19,026.9	76.3874	19,026.9	68.5107	19,026.9	73.9004	19,026.9	66.6401	19,026.9	69.4555	19,026.9	69.6126	19,026.9	59.7005	19,026.9	61.9197	19,026.9	56.7437	19,026.9	56.6392	19,026.9	52.3879	19,026.9	45.6047	19,026.9	46.7296	19,026.9	52.1305	19,026.9	47.396	19,026.9	58.9079	19,026.9	41.9799	19,026.9	36.7895	19,026.9	42.6877	19,026.9	52.5833	19,026.9	50.0752	19,026.9	40.7424	19,026.9	35.5643	19,026.9	50.2551	19,026.9	49.2328
19,697.8	79.5173	19,697.8	77.5222	19,697.8	81.8516	19,697.8	76.0018	19,697.8	83.9669	19,697.8	75.6638	19,697.8	80.4166	19,697.8	78.6966	19,697.8	74.7765	19,697.8	79.5299	19,697.8	73.6642	19,697.8	78.54	19,697.8	75.9263	19,697.8	75.9798	19,697.8	73.1337	19,697.8	71.6929	19,697.8	70.6345	19,697.8	62.9475	19,697.8	65.9319	19,697.8	62.9811	19,697.8	58.9067	19,697.8	50.1093	19,697.8	48.8736	19,697.8	51.3093	19,697.8	52.5385	19,697.8	41.0695	19,697.8	57.5197	19,697.8	45.3406	19,697.8	42.3777	19,697.8	44.6372	19,697.8	52.4191	19,697.8	53.4065	19,697.8	39.0926	19,697.8	46.5591	19,697.8	49.0875	19,697.8	48.5923
19,999.5	76.5043	19,999.5	74.3736	19,999.5	79.363	19,999.5	74.9041	19,999.5	82.5662	19,999.5	72.7029	19,999.5	80.153	19,999.5	77.6667	19,999.5	76.0766	19,999.5	79.4106	19,999.5	75.6718	19,999.5	78.108	19,999.5	77.8617	19,999.5	76.4802	19,999.5	74.592	19,999.5	72.1514	19,999.5	70.5554	19,999.5	62.4882	19,999.5	66.2683	19,999.5	64.9433	19,999.5	58.56	19,999.5	55.8827	19,999.5	49.0515	19,999.5	54.2729	19,999.5	49.7601	19,999.5	52.093	19,999.5	58.1112	19,999.5	45.0804	19,999.5	29.2728	19,999.5	42.0344	19,999.5	53.8987	19,999.5	54.4915	19,999.5	49.6421	19,999.5	45.8999	19,999.5	50.5579	19,999.5	44.6606
