"SPL Horizontal"
"On-Axis"		"10°"		"-10°"		"20°"		"-20°"		"30°"		"-30°"		"40°"		"-40°"		"50°"		"-50°"		"60°"		"-60°"		"70°"		"-70°"		"80°"		"-80°"		"90°"		"-90°"		"100°"		"-100°"		"110°"		"-110°"		"120°"		"-120°"		"130°"		"-130°"		"140°"		"-140°"		"150°"		"-150°"		"160°"		"-160°"		"170°"		"-170°"		"180°"
"Frequency / Hz"	"Sound Pressure Level / dB (re 20 µPa/V)  [2.83V at 1m]"	"Frequency / Hz"	"Sound Pressure Level / dB (re 20 µPa/V)  [2.83V at 1m]"	"Frequency / Hz"	"Sound Pressure Level / dB (re 20 µPa/V)  [2.83V at 1m]"	"Frequency / Hz"	"Sound Pressure Level / dB (re 20 µPa/V)  [2.83V at 1m]"	"Frequency / Hz"	"Sound Pressure Level / dB (re 20 µPa/V)  [2.83V at 1m]"	"Frequency / Hz"	"Sound Pressure Level / dB (re 20 µPa/V)  [2.83V at 1m]"	"Frequency / Hz"	"Sound Pressure Level / dB (re 20 µPa/V)  [2.83V at 1m]"	"Frequency / Hz"	"Sound Pressure Level / dB (re 20 µPa/V)  [2.83V at 1m]"	"Frequency / Hz"	"Sound Pressure Level / dB (re 20 µPa/V)  [2.83V at 1m]"	"Frequency / Hz"	"Sound Pressure Level / dB (re 20 µPa/V)  [2.83V at 1m]"	"Frequency / Hz"	"Sound Pressure Level / dB (re 20 µPa/V)  [2.83V at 1m]"	"Frequency / Hz"	"Sound Pressure Level / dB (re 20 µPa/V)  [2.83V at 1m]"	"Frequency / Hz"	"Sound Pressure Level / dB (re 20 µPa/V)  [2.83V at 1m]"	"Frequency / Hz"	"Sound Pressure Level / dB (re 20 µPa/V)  [2.83V at 1m]"	"Frequency / Hz"	"Sound Pressure Level / dB (re 20 µPa/V)  [2.83V at 1m]"	"Frequency / Hz"	"Sound Pressure Level / dB (re 20 µPa/V)  [2.83V at 1m]"	"Frequency / Hz"	"Sound Pressure Level / dB (re 20 µPa/V)  [2.83V at 1m]"	"Frequency / Hz"	"Sound Pressure Level / dB (re 20 µPa/V)  [2.83V at 1m]"	"Frequency / Hz"	"Sound Pressure Level / dB (re 20 µPa/V)  [2.83V at 1m]"	"Frequency / Hz"	"Sound Pressure Level / dB (re 20 µPa/V)  [2.83V at 1m]"	"Frequency / Hz"	"Sound Pressure Level / dB (re 20 µPa/V)  [2.83V at 1m]"	"Frequency / Hz"	"Sound Pressure Level / dB (re 20 µPa/V)  [2.83V at 1m]"	"Frequency / Hz"	"Sound Pressure Level / dB (re 20 µPa/V)  [2.83V at 1m]"	"Frequency / Hz"	"Sound Pressure Level / dB (re 20 µPa/V)  [2.83V at 1m]"	"Frequency / Hz"	"Sound Pressure Level / dB (re 20 µPa/V)  [2.83V at 1m]"	"Frequency / Hz"	"Sound Pressure Level / dB (re 20 µPa/V)  [2.83V at 1m]"	"Frequency / Hz"	"Sound Pressure Level / dB (re 20 µPa/V)  [2.83V at 1m]"	"Frequency / Hz"	"Sound Pressure Level / dB (re 20 µPa/V)  [2.83V at 1m]"	"Frequency / Hz"	"Sound Pressure Level / dB (re 20 µPa/V)  [2.83V at 1m]"	"Frequency / Hz"	"Sound Pressure Level / dB (re 20 µPa/V)  [2.83V at 1m]"	"Frequency / Hz"	"Sound Pressure Level / dB (re 20 µPa/V)  [2.83V at 1m]"	"Frequency / Hz"	"Sound Pressure Level / dB (re 20 µPa/V)  [2.83V at 1m]"	"Frequency / Hz"	"Sound Pressure Level / dB (re 20 µPa/V)  [2.83V at 1m]"	"Frequency / Hz"	"Sound Pressure Level / dB (re 20 µPa/V)  [2.83V at 1m]"	"Frequency / Hz"	"Sound Pressure Level / dB (re 20 µPa/V)  [2.83V at 1m]"	"Frequency / Hz"	"Sound Pressure Level / dB (re 20 µPa/V)  [2.83V at 1m]"
20.5078	53.04	20.5078	53.0247	20.5078	53.0704	20.5078	53.0354	20.5078	53.1165	20.5078	53.094	20.5078	53.1896	20.5078	53.2312	20.5078	53.3104	20.5078	53.4807	20.5078	53.5061	20.5078	53.8695	20.5078	53.8044	20.5078	54.4075	20.5078	54.2257	20.5078	55.081	20.5078	54.7747	20.5078	55.8557	20.5078	55.4372	20.5078	56.6854	20.5078	56.1826	20.5078	57.5216	20.5078	56.9708	20.5078	58.3205	20.5078	57.7598	20.5078	59.0443	20.5078	58.5107	20.5078	59.6624	20.5078	59.1891	20.5078	60.1503	20.5078	59.7665	20.5078	60.4896	20.5078	60.2192	20.5078	60.6682	20.5078	60.5285	20.5078	60.6807
21.2402	53.6386	21.2402	53.6258	21.2402	53.6516	21.2402	53.6252	21.2402	53.6665	21.2402	53.6626	21.2402	53.6988	21.2402	53.7753	21.2402	53.7764	21.2402	54.0053	21.2402	53.9361	21.2402	54.388	21.2402	54.2165	21.2402	54.9372	21.2402	54.6457	21.2402	55.6383	21.2402	55.2298	21.2402	56.4514	21.2402	55.9488	21.2402	57.3237	21.2402	56.7617	21.2402	58.202	21.2402	57.6184	21.2402	59.0391	21.2402	58.4697	21.2402	59.7967	21.2402	59.2723	21.2402	60.4438	21.2402	59.9906	21.2402	60.9561	21.2402	60.5958	21.2402	61.3154	21.2402	61.0651	21.2402	61.5091	21.2402	61.3808	21.2402	61.5309
21.9727	54.5788	21.9727	54.5828	21.9727	54.5797	21.9727	54.6023	21.9727	54.5884	21.9727	54.6608	21.9727	54.6213	21.9727	54.7927	21.9727	54.7066	21.9727	55.0367	21.9727	54.8809	21.9727	55.4248	21.9727	55.1804	21.9727	55.9699	21.9727	55.6293	21.9727	56.6586	21.9727	56.2298	21.9727	57.4544	21.9727	56.9587	21.9727	58.3081	21.9727	57.7743	21.9727	59.169	21.9727	58.6275	21.9727	59.9917	21.9727	59.4707	21.9727	60.7383	21.9727	60.2628	21.9727	61.3781	21.9727	60.9695	21.9727	61.8868	21.9727	61.563	21.9727	62.2459	21.9727	62.0214	21.9727	62.4424	21.9727	62.3275	21.9727	62.4698
22.7051	55.5872	22.7051	55.5721	22.7051	55.6068	22.7051	55.5732	22.7051	55.6333	22.7051	55.6158	22.7051	55.6825	22.7051	55.7364	22.7051	55.7821	22.7051	55.9759	22.7051	55.9677	22.7051	56.3675	22.7051	56.275	22.7051	56.9233	22.7051	56.7278	22.7051	57.6272	22.7051	57.3283	22.7051	58.4397	22.7051	58.0543	22.7051	59.3089	22.7051	58.8653	22.7051	60.1829	22.7051	59.7131	22.7051	61.016	22.7051	60.5511	22.7051	61.7708	22.7051	61.3382	22.7051	62.417	22.7051	62.0404	22.7051	62.931	22.7051	62.6299	22.7051	63.2944	22.7051	63.0845	22.7051	63.4949	22.7051	63.387	22.7051	63.5258
23.4375	56.5927	23.4375	56.6077	23.4375	56.6107	23.4375	56.6669	23.4375	56.6636	23.4375	56.7923	23.4375	56.7653	23.4375	57.0127	23.4375	56.9389	23.4375	57.3563	23.4375	57.2121	23.4375	57.8399	23.4375	57.6082	23.4375	58.4616	23.4375	58.1377	23.4375	59.1988	23.4375	58.7923	23.4375	60.0143	23.4375	59.546	23.4375	60.8644	23.4375	60.3615	23.4375	61.7066	23.4375	61.1971	23.4375	62.5032	23.4375	62.0134	23.4375	63.2222	23.4375	62.7754	23.4375	63.837	23.4375	63.4531	23.4375	64.3257	23.4375	64.0216	23.4375	64.6709	23.4375	64.4601	23.4375	64.8604	23.4375	64.7525	23.4375	64.8878
24.1699	58.3105	24.1699	58.3391	24.1699	58.3121	24.1699	58.4066	24.1699	58.3456	24.1699	58.5313	24.1699	58.4232	24.1699	58.7372	24.1699	58.5655	24.1699	59.0481	24.1699	58.7977	24.1699	59.4805	24.1699	59.1424	24.1699	60.036	24.1699	59.6121	24.1699	60.6995	24.1699	60.2032	24.1699	61.4414	24.1699	60.8952	24.1699	62.2241	24.1699	61.6551	24.1699	63.0087	24.1699	62.444	24.1699	63.7583	24.1699	63.2234	24.1699	64.4406	24.1699	63.9575	24.1699	65.0275	24.1699	64.6155	24.1699	65.4956	24.1699	65.1711	24.1699	65.8264	24.1699	65.6022	24.1699	66.0065	24.1699	65.892	24.1699	66.0287
25.6348	61.1055	25.6348	61.1124	25.6348	61.1265	25.6348	61.1535	25.6348	61.1771	25.6348	61.2431	25.6348	61.2666	25.6348	61.4005	25.6348	61.4107	25.6348	61.6469	25.6348	61.6285	25.6348	61.9991	25.6348	61.9378	25.6348	62.4636	25.6348	62.3497	25.6348	63.0331	25.6348	62.8639	25.6348	63.6863	25.6348	63.4671	25.6348	64.3917	25.6348	64.1347	25.6348	65.1135	25.6348	64.835	25.6348	65.8155	25.6348	65.5337	25.6348	66.4645	25.6348	66.1973	25.6348	67.0312	25.6348	66.7951	25.6348	67.4907	25.6348	67.2999	25.6348	67.823	25.6348	67.689	25.6348	68.0137	25.6348	67.9446	25.6348	68.0546
26.3672	62.4167	26.3672	62.4273	26.3672	62.4326	26.3672	62.4708	26.3672	62.4761	26.3672	62.5612	26.3672	62.5562	26.3672	62.7172	26.3672	62.688	26.3672	62.9594	26.3672	62.8902	26.3672	63.3038	26.3672	63.1805	26.3672	63.7567	26.3672	63.5709	26.3672	64.311	26.3672	64.0623	26.3672	64.9459	26.3672	64.6429	26.3672	65.6312	26.3672	65.2896	26.3672	66.3319	26.3672	65.9717	26.3672	67.0129	26.3672	66.6553	26.3672	67.6415	26.3672	67.3071	26.3672	68.189	26.3672	67.8965	26.3672	68.631	26.3672	68.3964	26.3672	68.9481	26.3672	68.7842	26.3672	69.1263	26.3672	69.042	26.3672	69.158
27.0996	64.0682	27.0996	64.0868	27.0996	64.0747	27.0996	64.1365	27.0996	64.1076	27.0996	64.2298	27.0996	64.1754	27.0996	64.3839	27.0996	64.2921	27.0996	64.6175	27.0996	64.4752	27.0996	64.9456	27.0996	64.7419	27.0996	65.3748	27.0996	65.104	27.0996	65.8992	27.0996	65.5637	27.0996	66.5008	27.0996	66.1112	27.0996	67.1521	27.0996	66.726	27.0996	67.8204	27.0996	67.3794	27.0996	68.4721	27.0996	68.0393	27.0996	69.0751	27.0996	68.6733	27.0996	69.6008	27.0996	69.2507	27.0996	70.0244	27.0996	69.7443	27.0996	70.3262	27.0996	70.1307	27.0996	70.4919	27.0996	70.3915	27.0996	70.514
27.832	65.4943	27.832	65.5152	27.832	65.5023	27.832	65.57	27.832	65.5401	27.832	65.6698	27.832	65.6146	27.832	65.829	27.832	65.7379	27.832	66.0631	27.832	65.9248	27.832	66.3845	27.832	66.1898	27.832	66.7981	27.832	66.5427	27.832	67.2989	27.832	66.9854	27.832	67.871	27.832	67.5095	27.832	68.4903	27.832	68.0965	27.832	69.1273	27.832	68.721	27.832	69.7509	27.832	69.3531	27.832	70.3308	27.832	69.962	27.832	70.8389	27.832	70.5181	27.832	71.2506	27.832	70.9942	27.832	71.5459	27.832	71.3671	27.832	71.7099	27.832	71.618	27.832	71.7343
29.2969	68.2359	29.2969	68.2611	29.2969	68.2426	29.2969	68.3222	29.2969	68.282	29.2969	68.4275	29.2969	68.3594	29.2969	68.5884	29.2969	68.4844	29.2969	68.8165	29.2969	68.6684	29.2969	69.1213	29.2969	68.9224	29.2969	69.5065	29.2969	69.254	29.2969	69.9678	29.2969	69.6646	29.2969	70.4926	29.2969	70.1475	29.2969	71.0608	29.2969	70.6876	29.2969	71.6473	29.2969	71.2632	29.2969	72.2243	29.2969	71.8485	29.2969	72.7637	29.2969	72.4152	29.2969	73.239	29.2969	72.9356	29.2969	73.626	29.2969	73.3833	29.2969	73.9046	29.2969	73.7353	29.2969	74.0598	29.2969	73.9728	29.2969	74.0829
30.0293	69.653	30.0293	69.6791	30.0293	69.6607	30.0293	69.7426	30.0293	69.7027	30.0293	69.8505	30.0293	69.7832	30.0293	70.0122	30.0293	69.9098	30.0293	70.2372	30.0293	70.0917	30.0293	70.5329	30.0293	70.3381	30.0293	70.9019	30.0293	70.6551	30.0293	71.3402	30.0293	71.0438	30.0293	71.8365	30.0293	71.4985	30.0293	72.373	30.0293	72.0066	30.0293	72.9269	30.0293	72.5489	30.0293	73.4729	30.0293	73.1018	30.0293	73.9845	30.0293	73.6394	30.0293	74.4361	30.0293	74.1349	30.0293	74.8044	30.0293	74.563	30.0293	75.0695	30.0293	74.9008	30.0293	75.2165	30.0293	75.1298	30.0293	75.2371
31.4941	73.2721	31.4941	73.3075	31.4941	73.2678	31.4941	73.3762	31.4941	73.2951	31.4941	73.4823	31.4941	73.357	31.4941	73.6318	31.4941	73.4587	31.4941	73.8306	31.4941	73.6067	31.4941	74.0837	31.4941	73.8075	31.4941	74.3932	31.4941	74.0664	31.4941	74.757	31.4941	74.3851	31.4941	75.168	31.4941	74.7608	31.4941	75.614	31.4941	75.1852	31.4941	76.0777	31.4941	75.6441	31.4941	76.5387	31.4941	76.1189	31.4941	76.9742	31.4941	76.5873	31.4941	77.361	31.4941	77.0254	31.4941	77.677	31.4941	77.4091	31.4941	77.9031	31.4941	77.7164	31.4941	78.0248	31.4941	77.9289	31.4941	78.0338
32.2266	74.8915	32.2266	74.9271	32.2266	74.8834	32.2266	74.9917	32.2266	74.9035	32.2266	75.0888	32.2266	74.9548	32.2266	75.2233	32.2266	75.042	32.2266	75.4009	32.2266	75.1711	32.2266	75.6264	32.2266	75.3483	32.2266	75.9027	32.2266	75.5785	32.2266	76.2294	32.2266	75.8642	32.2266	76.6012	32.2266	76.2037	32.2266	77.008	32.2266	76.5904	32.2266	77.4345	32.2266	77.0123	32.2266	77.8618	32.2266	77.4523	32.2266	78.2681	32.2266	77.8898	32.2266	78.6306	32.2266	78.3017	32.2266	78.9278	32.2266	78.6646	32.2266	79.1404	32.2266	78.9568	32.2266	79.2543	32.2266	79.1599	32.2266	79.2612
33.6914	77.8111	33.6914	77.8382	33.6914	77.8047	33.6914	77.8873	33.6914	77.8196	33.6914	77.9607	33.6914	77.8577	33.6914	78.0621	33.6914	77.9227	33.6914	78.1958	33.6914	78.0188	33.6914	78.3661	33.6914	78.1513	33.6914	78.5763	33.6914	78.3248	33.6914	78.8274	33.6914	78.5427	33.6914	79.1175	33.6914	78.8054	33.6914	79.4403	33.6914	79.1098	33.6914	79.7853	33.6914	79.4481	33.6914	80.1375	33.6914	79.8075	33.6914	80.4786	33.6914	80.1711	33.6914	80.7881	33.6914	80.5186	33.6914	81.0455	33.6914	80.8286	33.6914	81.2323	33.6914	81.0802	33.6914	81.334	33.6914	81.2556	33.6914	81.3423
34.4238	78.3949	34.4238	78.4153	34.4238	78.3907	34.4238	78.4527	34.4238	78.403	34.4238	78.5095	34.4238	78.4339	34.4238	78.5892	34.4238	78.4867	34.4238	78.6961	34.4238	78.5658	34.4238	78.8347	34.4238	78.6763	34.4238	79.0089	34.4238	78.8229	34.4238	79.2211	34.4238	79.0096	34.4238	79.4708	34.4238	79.2378	34.4238	79.7539	34.4238	79.5056	34.4238	80.0616	34.4238	79.8066	34.4238	80.3808	34.4238	80.1296	34.4238	80.6945	34.4238	80.4589	34.4238	80.9831	34.4238	80.7756	34.4238	81.2265	34.4238	81.0587	34.4238	81.4062	34.4238	81.2882	34.4238	81.5075	34.4238	81.4465	34.4238	81.5215
35.8887	78.3184	35.8887	78.3286	35.8887	78.3182	35.8887	78.3495	35.8887	78.3287	35.8887	78.3831	35.8887	78.3514	35.8887	78.4325	35.8887	78.3893	35.8887	78.5016	35.8887	78.4462	35.8887	78.5952	35.8887	78.5266	35.8887	78.7176	35.8887	78.6351	35.8887	78.8725	35.8887	78.7754	35.8887	79.0616	35.8887	78.9501	35.8887	79.2831	35.8887	79.1588	35.8887	79.5314	35.8887	79.3976	35.8887	79.7964	35.8887	79.6583	35.8887	80.0634	35.8887	79.9283	35.8887	80.3147	35.8887	80.1913	35.8887	80.5312	35.8887	80.4285	35.8887	80.6949	35.8887	80.6211	35.8887	80.7912	35.8887	80.7525	35.8887	80.811
37.3535	77.5767	37.3535	77.5805	37.3535	77.577	37.3535	77.5892	37.3535	77.5819	37.3535	77.6044	37.3535	77.5926	37.3535	77.6289	37.3535	77.6115	37.3535	77.6664	37.3535	77.6417	37.3535	77.7212	37.3535	77.6871	37.3535	77.7982	37.3535	77.7522	37.3535	77.9016	37.3535	77.8411	37.3535	78.0345	37.3535	77.9576	37.3535	78.1977	37.3535	78.1036	37.3535	78.3879	37.3535	78.2781	37.3535	78.5978	37.3535	78.4765	37.3535	78.8153	37.3535	78.6899	37.3535	79.0244	37.3535	78.9046	37.3535	79.2072	37.3535	79.1041	37.3535	79.3462	37.3535	79.2703	37.3535	79.4271	37.3535	79.3868	37.3535	79.4411
38.8184	77.2079	38.8184	77.2078	38.8184	77.207	38.8184	77.2075	38.8184	77.2054	38.8184	77.2083	38.8184	77.2043	38.8184	77.213	38.8184	77.2058	38.8184	77.2249	38.8184	77.2128	38.8184	77.2486	38.8184	77.2292	38.8184	77.2891	38.8184	77.2596	38.8184	77.3518	38.8184	77.3091	38.8184	77.441	38.8184	77.3823	38.8184	77.5594	38.8184	77.4831	38.8184	77.7061	38.8184	77.6128	38.8184	77.876	38.8184	77.769	38.8184	78.0587	38.8184	77.9447	38.8184	78.2395	38.8184	78.1282	38.8184	78.4008	38.8184	78.3034	38.8184	78.5251	38.8184	78.4526	38.8184	78.5975	38.8184	78.5588	38.8184	78.6093
39.5508	77.315	39.5508	77.3129	39.5508	77.3139	39.5508	77.3084	39.5508	77.3101	39.5508	77.3029	39.5508	77.3045	39.5508	77.299	39.5508	77.2993	39.5508	77.3002	39.5508	77.2973	39.5508	77.3111	39.5508	77.3024	39.5508	77.3371	39.5508	77.3195	39.5508	77.384	39.5508	77.3539	39.5508	77.457	39.5508	77.411	39.5508	77.5595	39.5508	77.4953	39.5508	77.6917	39.5508	77.609	39.5508	77.8492	39.5508	77.7508	39.5508	78.0222	39.5508	77.9146	39.5508	78.1959	39.5508	78.0888	39.5508	78.3526	39.5508	78.2576	39.5508	78.4741	39.5508	78.4029	39.5508	78.5452	39.5508	78.507	39.5508	78.5567
41.0156	77.8659	41.0156	77.863	41.0156	77.8639	41.0156	77.8556	41.0156	77.8571	41.0156	77.8456	41.0156	77.8468	41.0156	77.8357	41.0156	77.8353	41.0156	77.8299	41.0156	77.8257	41.0156	77.8332	41.0156	77.8225	41.0156	77.8518	41.0156	77.8309	41.0156	77.8924	41.0156	77.8571	41.0156	77.9609	41.0156	77.9073	41.0156	78.0614	41.0156	77.9869	41.0156	78.1947	41.0156	78.0988	41.0156	78.3559	41.0156	78.2421	41.0156	78.5346	41.0156	78.4105	41.0156	78.7151	41.0156	78.5918	41.0156	78.8782	41.0156	78.769	41.0156	79.0044	41.0156	78.9226	41.0156	79.0775	41.0156	79.0337	41.0156	79.0878
42.4805	78.7897	42.4805	78.7898	42.4805	78.7873	42.4805	78.7885	42.4805	78.7831	42.4805	78.7873	42.4805	78.7781	42.4805	78.789	42.4805	78.7745	42.4805	78.7974	42.4805	78.7755	42.4805	78.8174	42.4805	78.7851	42.4805	78.8546	42.4805	78.8086	42.4805	78.9152	42.4805	78.8515	42.4805	79.0043	42.4805	78.9198	42.4805	79.1252	42.4805	79.018	42.4805	79.2773	42.4805	79.1485	42.4805	79.4551	42.4805	79.3096	42.4805	79.6474	42.4805	79.4942	42.4805	79.8382	42.4805	79.6898	42.4805	80.008	42.4805	79.8791	42.4805	80.1378	42.4805	80.0423	42.4805	80.2114	42.4805	80.1606	42.4805	80.2194
43.9453	79.6801	43.9453	79.6842	43.9453	79.6778	43.9453	79.6907	43.9453	79.6775	43.9453	79.701	43.9453	79.6803	43.9453	79.7174	43.9453	79.688	43.9453	79.7433	43.9453	79.7033	43.9453	79.7828	43.9453	79.7299	43.9453	79.8407	43.9453	79.7722	43.9453	79.9219	43.9453	79.8349	43.9453	80.0305	43.9453	79.9227	43.9453	80.1684	43.9453	80.0393	43.9453	80.3343	43.9453	80.186	43.9453	80.5221	43.9453	80.3602	43.9453	80.7209	43.9453	80.5547	43.9453	80.9149	43.9453	80.757	43.9453	81.0857	43.9453	80.9503	43.9453	81.2152	43.9453	81.1158	43.9453	81.288	43.9453	81.2354	43.9453	81.2951
45.4102	80.3801	45.4102	80.3875	45.4102	80.3791	45.4102	80.4019	45.4102	80.3847	45.4102	80.4242	45.4102	80.3978	45.4102	80.4563	45.4102	80.4196	45.4102	80.5004	45.4102	80.4521	45.4102	80.5597	45.4102	80.498	45.4102	80.6376	45.4102	80.5606	45.4102	80.7376	45.4102	80.6431	45.4102	80.8622	45.4102	80.749	45.4102	81.0124	45.4102	80.8804	45.4102	81.1859	45.4102	81.0377	45.4102	81.3767	45.4102	81.2178	45.4102	81.5745	45.4102	81.4135	45.4102	81.7648	45.4102	81.6133	45.4102	81.9309	45.4102	81.8018	45.4102	82.0561	45.4102	81.9617	45.4102	82.1264	45.4102	82.0765	45.4102	82.1336
47.6074	80.9833	47.6074	80.9939	47.6074	80.9838	47.6074	81.0159	47.6074	80.9955	47.6074	81.0498	47.6074	81.0187	47.6074	81.0964	47.6074	81.0539	47.6074	81.1568	47.6074	81.1022	47.6074	81.2327	47.6074	81.1648	47.6074	81.3256	47.6074	81.2433	47.6074	81.4374	47.6074	81.3395	47.6074	81.569	47.6074	81.455	47.6074	81.7202	47.6074	81.5907	47.6074	81.8886	47.6074	81.7461	47.6074	82.0685	47.6074	81.9182	47.6074	82.2513	47.6074	82.1009	47.6074	82.4248	47.6074	82.2845	47.6074	82.5749	47.6074	82.4559	47.6074	82.6873	47.6074	82.6006	47.6074	82.7501	47.6074	82.7043	47.6074	82.7561
49.0723	81.1561	49.0723	81.1691	49.0723	81.1568	49.0723	81.1959	49.0723	81.1712	49.0723	81.2364	49.0723	81.1994	49.0723	81.2909	49.0723	81.2413	49.0723	81.3596	49.0723	81.2973	49.0723	81.443	49.0723	81.3676	49.0723	81.5418	49.0723	81.4529	49.0723	81.6565	49.0723	81.5538	49.0723	81.7874	49.0723	81.671	49.0723	81.9337	49.0723	81.8048	49.0723	82.093	49.0723	81.9541	49.0723	82.2606	49.0723	82.1164	49.0723	82.4287	49.0723	82.2861	49.0723	82.587	49.0723	82.4551	49.0723	82.7232	49.0723	82.612	49.0723	82.8248	49.0723	82.744	49.0723	82.8813	49.0723	82.8387	49.0723	82.8862
50.5371	81.2782	50.5371	81.2919	50.5371	81.2792	50.5371	81.32	50.5371	81.2947	50.5371	81.3624	50.5371	81.3245	50.5371	81.4187	50.5371	81.3683	50.5371	81.4886	50.5371	81.4256	50.5371	81.5719	50.5371	81.4962	50.5371	81.6684	50.5371	81.5799	50.5371	81.7781	50.5371	81.6769	50.5371	81.9007	50.5371	81.7871	50.5371	82.0352	50.5371	81.9106	50.5371	82.1795	50.5371	82.0463	50.5371	82.3296	50.5371	82.1922	50.5371	82.479	50.5371	82.3438	50.5371	82.619	50.5371	82.4941	50.5371	82.7389	50.5371	82.6338	50.5371	82.8279	50.5371	82.7516	50.5371	82.8768	50.5371	82.8366	50.5371	82.8799
52.7344	81.558	52.7344	81.5748	52.7344	81.5579	52.7344	81.6082	52.7344	81.5742	52.7344	81.6574	52.7344	81.6063	52.7344	81.7217	52.7344	81.6533	52.7344	81.7999	52.7344	81.7142	52.7344	81.8907	52.7344	81.7882	52.7344	81.9929	52.7344	81.8742	52.7344	82.1052	52.7344	81.9717	52.7344	82.2264	52.7344	82.0801	52.7344	82.3551	52.7344	82.1989	52.7344	82.4892	52.7344	82.3271	52.7344	82.6251	52.7344	82.4629	52.7344	82.7579	52.7344	82.6024	52.7344	82.8804	52.7344	82.7401	52.7344	82.984	52.7344	82.8679	52.7344	83.0595	52.7344	82.9763	52.7344	83.0991	52.7344	83.0556	52.7344	83.0979
54.1992	81.5964	54.1992	81.6141	54.1992	81.5964	54.1992	81.6493	54.1992	81.6138	54.1992	81.701	54.1992	81.6478	54.1992	81.7679	54.1992	81.6973	54.1992	81.8485	54.1992	81.7607	54.1992	81.9408	54.1992	81.8366	54.1992	82.043	54.1992	81.9235	54.1992	82.1534	54.1992	82.0201	54.1992	82.2704	54.1992	82.1254	54.1992	82.3922	54.1992	82.2385	54.1992	82.5168	54.1992	82.3583	54.1992	82.6412	54.1992	82.483	54.1992	82.761	54.1992	82.6099	54.1992	82.8703	54.1992	82.7342	54.1992	82.9619	54.1992	82.8492	54.1992	83.0277	54.1992	82.947	54.1992	83.0613	54.1992	83.019	54.1992	83.0584
56.3965	81.7116	56.3965	81.7304	56.3965	81.7111	56.3965	81.767	56.3965	81.7287	56.3965	81.8204	56.3965	81.7634	56.3965	81.8888	56.3965	81.8135	56.3965	81.9698	56.3965	81.8772	56.3965	82.061	56.3965	81.9522	56.3965	82.1599	56.3965	82.0365	56.3965	82.264	56.3965	82.1281	56.3965	82.3712	56.3965	82.2253	56.3965	82.4796	56.3965	82.3268	56.3965	82.5873	56.3965	82.4316	56.3965	82.6919	56.3965	82.5382	56.3965	82.7903	56.3965	82.6447	56.3965	82.8782	56.3965	82.748	56.3965	82.9504	56.3965	82.8432	56.3965	83.001	56.3965	82.9244	56.3965	83.0251	56.3965	82.9851	56.3965	83.0198
58.5938	81.8268	58.5938	81.8487	58.5938	81.8236	58.5938	81.8887	58.5938	81.8389	58.5938	81.9452	58.5938	81.8715	58.5938	82.016	58.5938	81.9197	58.5938	82.0985	58.5938	81.9812	58.5938	82.1895	58.5938	82.0534	58.5938	82.2859	58.5938	82.1336	58.5938	82.3849	58.5938	82.2194	58.5938	82.4837	58.5938	82.3086	58.5938	82.5803	58.5938	82.3996	58.5938	82.6728	58.5938	82.4912	58.5938	82.7593	58.5938	82.5824	58.5938	82.8375	58.5938	82.6721	58.5938	82.9048	58.5938	82.7583	58.5938	82.9576	58.5938	82.838	58.5938	82.992	58.5938	82.907	58.5938	83.0047	58.5938	82.9605	58.5938	82.994
60.0586	81.9368	60.0586	81.9645	60.0586	81.9279	60.0586	82.0104	60.0586	81.9378	60.0586	82.0725	60.0586	81.9654	60.0586	82.1484	60.0586	82.009	60.0586	82.2349	60.0586	82.0661	60.0586	82.3284	60.0586	82.134	60.0586	82.4254	60.0586	82.2096	60.0586	82.5226	60.0586	82.2903	60.0586	82.617	60.0586	82.3736	60.0586	82.7062	60.0586	82.4579	60.0586	82.7883	60.0586	82.542	60.0586	82.8617	60.0586	82.6249	60.0586	82.9248	60.0586	82.7062	60.0586	82.9758	60.0586	82.7845	60.0586	83.0123	60.0586	82.8579	60.0586	83.032	60.0586	82.9232	60.0586	83.0328	60.0586	82.9765	60.0586	83.014
62.2559	82.1429	62.2559	82.1793	62.2559	82.1244	62.2559	82.2326	62.2559	82.1242	62.2559	82.3007	62.2559	82.1414	62.2559	82.3805	62.2559	82.1742	62.2559	82.4685	62.2559	82.2203	62.2559	82.5606	62.2559	82.2768	62.2559	82.6529	62.2559	82.3408	62.2559	82.7415	62.2559	82.4094	62.2559	82.8231	62.2559	82.4801	62.2559	82.8954	62.2559	82.551	62.2559	82.9564	62.2559	82.6208	62.2559	83.0055	62.2559	82.6891	62.2559	83.042	62.2559	82.7556	62.2559	83.066	62.2559	82.8202	62.2559	83.077	62.2559	82.8818	62.2559	83.0747	62.2559	82.939	62.2559	83.059	62.2559	82.9893	62.2559	83.0301
64.4531	82.3609	64.4531	82.387	64.4531	82.3508	64.4531	82.428	64.4531	82.3566	64.4531	82.4821	64.4531	82.3774	64.4531	82.5463	64.4531	82.4113	64.4531	82.6172	64.4531	82.4558	64.4531	82.691	64.4531	82.5077	64.4531	82.7636	64.4531	82.5639	64.4531	82.8314	64.4531	82.6211	64.4531	82.8913	64.4531	82.6767	64.4531	82.9411	64.4531	82.7284	64.4531	82.9796	64.4531	82.7751	64.4531	83.0067	64.4531	82.8165	64.4531	83.0232	64.4531	82.8531	64.4531	83.0303	64.4531	82.8858	64.4531	83.0295	64.4531	82.9157	64.4531	83.022	64.4531	82.9433	64.4531	83.0088	64.4531	82.9685	64.4531	82.9906
66.6504	82.73	66.6504	82.7419	66.6504	82.7335	66.6504	82.7685	66.6504	82.752	66.6504	82.8081	66.6504	82.784	66.6504	82.8581	66.6504	82.8272	66.6504	82.915	66.6504	82.8783	66.6504	82.9749	66.6504	82.9338	66.6504	83.0338	66.6504	82.9899	66.6504	83.088	66.6504	83.0428	66.6504	83.1343	66.6504	83.0894	66.6504	83.1707	66.6504	83.1275	66.6504	83.1963	66.6504	83.1559	66.6504	83.2114	66.6504	83.1746	66.6504	83.2176	66.6504	83.1852	66.6504	83.2172	66.6504	83.1898	66.6504	83.2128	66.6504	83.1911	66.6504	83.2067	66.6504	83.1916	66.6504	83.2007	66.6504	83.1929	66.6504	83.1959
69.5801	82.9797	69.5801	82.9928	69.5801	82.9837	69.5801	83.0222	69.5801	83.0042	69.5801	83.0659	69.5801	83.0396	69.5801	83.1209	69.5801	83.0874	69.5801	83.1835	69.5801	83.1441	69.5801	83.2492	69.5801	83.2056	69.5801	83.3136	69.5801	83.2675	69.5801	83.3724	69.5801	83.3256	69.5801	83.4218	69.5801	83.3763	69.5801	83.4594	69.5801	83.4167	69.5801	83.4839	69.5801	83.4453	69.5801	83.4959	69.5801	83.4622	69.5801	83.4971	69.5801	83.4687	69.5801	83.4905	69.5801	83.4676	69.5801	83.4797	69.5801	83.4624	69.5801	83.4682	69.5801	83.4566	69.5801	83.4589	69.5801	83.453	69.5801	83.4536
71.7773	83.133	71.7773	83.1487	71.7773	83.1351	71.7773	83.1812	71.7773	83.1544	71.7773	83.2284	71.7773	83.1896	71.7773	83.2873	71.7773	83.2377	71.7773	83.3536	71.7773	83.2954	71.7773	83.4228	71.7773	83.3582	71.7773	83.49	71.7773	83.4215	71.7773	83.5504	71.7773	83.4809	71.7773	83.6001	71.7773	83.5323	71.7773	83.6362	71.7773	83.5725	71.7773	83.6573	71.7773	83.5996	71.7773	83.6638	71.7773	83.6137	71.7773	83.6579	71.7773	83.6161	71.7773	83.6432	71.7773	83.61	71.7773	83.6242	71.7773	83.5995	71.7773	83.6054	71.7773	83.5891	71.7773	83.5908	71.7773	83.5827	71.7773	83.5829
73.9746	83.292	73.9746	83.3105	73.9746	83.2912	73.9746	83.3458	73.9746	83.3079	73.9746	83.3956	73.9746	83.3407	73.9746	83.4567	73.9746	83.3868	73.9746	83.5247	73.9746	83.4426	73.9746	83.5948	73.9746	83.5039	73.9746	83.6619	73.9746	83.5659	73.9746	83.721	73.9746	83.6238	73.9746	83.7679	73.9746	83.6732	73.9746	83.7996	73.9746	83.7107	73.9746	83.8145	73.9746	83.7344	73.9746	83.8132	73.9746	83.7439	73.9746	83.7983	73.9746	83.7409	73.9746	83.7738	73.9746	83.7288	73.9746	83.7454	73.9746	83.7125	73.9746	83.7186	73.9746	83.6972	73.9746	83.6982	73.9746	83.6877	73.9746	83.6876
76.9043	83.5372	76.9043	83.5555	76.9043	83.5352	76.9043	83.5894	76.9043	83.5495	76.9043	83.6364	76.9043	83.5785	76.9043	83.6935	76.9043	83.6197	76.9043	83.7563	76.9043	83.6695	76.9043	83.82	76.9043	83.7237	76.9043	83.8793	76.9043	83.7774	76.9043	83.9291	76.9043	83.8258	76.9043	83.965	76.9043	83.8645	76.9043	83.9838	76.9043	83.8898	76.9043	83.9841	76.9043	83.8998	76.9043	83.9666	76.9043	83.8943	76.9043	83.9345	76.9043	83.8754	76.9043	83.8929	76.9043	83.8474	76.9043	83.8487	76.9043	83.8161	76.9043	83.8092	76.9043	83.7884	76.9043	83.7807	76.9043	83.7706	76.9043	83.7674
79.834	84.0045	79.834	84.019	79.834	84.0053	79.834	84.0482	79.834	84.0213	79.834	84.0898	79.834	84.051	79.834	84.1408	79.834	84.0916	79.834	84.1972	79.834	84.1396	79.834	84.2543	79.834	84.1905	79.834	84.3072	79.834	84.2395	79.834	84.3508	79.834	84.2816	79.834	84.381	79.834	84.3125	79.834	84.3943	79.834	84.3287	79.834	84.3893	79.834	84.3284	79.834	84.3664	79.834	84.3117	79.834	84.3286	79.834	84.2813	79.834	84.2812	79.834	84.2422	79.834	84.2312	79.834	84.2013	79.834	84.1865	79.834	84.1661	79.834	84.1541	79.834	84.1438	79.834	84.1393
82.7637	84.2006	82.7637	84.2202	82.7637	84.1955	82.7637	84.2533	82.7637	84.2047	82.7637	84.2978	82.7637	84.2267	82.7637	84.3505	82.7637	84.2592	82.7637	84.4075	82.7637	84.2986	82.7637	84.464	82.7637	84.3405	82.7637	84.5149	82.7637	84.3801	82.7637	84.5552	82.7637	84.4127	82.7637	84.5802	82.7637	84.4337	82.7637	84.5865	82.7637	84.4399	82.7637	84.5723	82.7637	84.4296	82.7637	84.5382	82.7637	84.4036	82.7637	84.4871	82.7637	84.3649	82.7637	84.4247	82.7637	84.3193	82.7637	84.3588	82.7637	84.2747	82.7637	84.2982	82.7637	84.2394	82.7637	84.2514	82.7637	84.2211	82.7637	84.2247
85.6934	84.3854	85.6934	84.4058	85.6934	84.3789	85.6934	84.4392	85.6934	84.3861	85.6934	84.4836	85.6934	84.4056	85.6934	84.536	85.6934	84.435	85.6934	84.5926	85.6934	84.4708	85.6934	84.6487	85.6934	84.5087	85.6934	84.6993	85.6934	84.5441	85.6934	84.7393	85.6934	84.572	85.6934	84.764	85.6934	84.5881	85.6934	84.7696	85.6934	84.5894	85.6934	84.7543	85.6934	84.5743	85.6934	84.7181	85.6934	84.5439	85.6934	84.6638	85.6934	84.5017	85.6934	84.5969	85.6934	84.454	85.6934	84.5253	85.6934	84.409	85.6934	84.458	85.6934	84.3755	85.6934	84.4039	85.6934	84.3611	85.6934	84.3704
88.623	84.6844	88.623	84.6909	88.623	84.691	88.623	84.7099	88.623	84.7103	88.623	84.7401	88.623	84.7409	88.623	84.7791	88.623	84.7801	88.623	84.8237	88.623	84.8247	88.623	84.8701	88.623	84.8704	88.623	84.9138	88.623	84.9124	88.623	84.9503	88.623	84.9459	88.623	84.9754	88.623	84.9666	88.623	84.9855	88.623	84.9712	88.623	84.9784	88.623	84.958	88.623	84.9542	88.623	84.9278	88.623	84.9149	88.623	84.8841	88.623	84.8652	88.623	84.8328	88.623	84.8121	88.623	84.7819	88.623	84.7634	88.623	84.7399	88.623	84.7273	88.623	84.7143	88.623	84.7098
91.5527	85.1177	91.5527	85.1219	91.5527	85.1238	91.5527	85.136	91.5527	85.1401	91.5527	85.1586	91.5527	85.165	91.5527	85.1875	91.5527	85.1966	91.5527	85.2197	91.5527	85.2316	91.5527	85.2515	91.5527	85.2662	91.5527	85.2788	91.5527	85.2957	91.5527	85.2973	91.5527	85.3157	91.5527	85.3028	91.5527	85.3218	91.5527	85.2925	91.5527	85.3109	91.5527	85.2645	91.5527	85.2813	91.5527	85.2197	91.5527	85.2339	91.5527	85.1612	91.5527	85.1722	91.5527	85.095	91.5527	85.1028	91.5527	85.0292	91.5527	85.034	91.5527	84.9731	91.5527	84.9756	91.5527	84.9354	91.5527	84.9364	91.5527	84.9223
94.4824	85.2581	94.4824	85.2657	94.4824	85.2592	94.4824	85.2814	94.4824	85.2688	94.4824	85.3038	94.4824	85.286	94.4824	85.3306	94.4824	85.3086	94.4824	85.3587	94.4824	85.3338	94.4824	85.3844	94.4824	85.3579	94.4824	85.4035	94.4824	85.3764	94.4824	85.4116	94.4824	85.3848	94.4824	85.4046	94.4824	85.3788	94.4824	85.3793	94.4824	85.3552	94.4824	85.3344	94.4824	85.3125	94.4824	85.271	94.4824	85.2516	94.4824	85.1931	94.4824	85.1765	94.4824	85.1076	94.4824	85.094	94.4824	85.0242	94.4824	85.0138	94.4824	84.9535	94.4824	84.9464	94.4824	84.9055	94.4824	84.9019	94.4824	84.8875
98.1445	85.3262	98.1445	85.3394	98.1445	85.3206	98.1445	85.3597	98.1445	85.3225	98.1445	85.3859	98.1445	85.3309	98.1445	85.4159	98.1445	85.3441	98.1445	85.4467	98.1445	85.3596	98.1445	85.4749	98.1445	85.3738	98.1445	85.4961	98.1445	85.3829	98.1445	85.5057	98.1445	85.3825	98.1445	85.4994	98.1445	85.3687	98.1445	85.4736	98.1445	85.3385	98.1445	85.4264	98.1445	85.2909	98.1445	85.3584	98.1445	85.2271	98.1445	85.2734	98.1445	85.1513	98.1445	85.1781	98.1445	85.071	98.1445	85.0825	98.1445	84.9958	98.1445	84.9978	98.1445	84.9366	98.1445	84.9349	98.1445	84.9032	98.1445	84.9021
101.807	85.3754	101.807	85.3863	101.807	85.3696	101.807	85.4019	101.807	85.3685	101.807	85.4218	101.807	85.371	101.807	85.4443	101.807	85.3757	101.807	85.4674	101.807	85.3802	101.807	85.488	101.807	85.3816	101.807	85.5022	101.807	85.3765	101.807	85.5058	101.807	85.3613	101.807	85.4944	101.807	85.3326	101.807	85.464	101.807	85.2882	101.807	85.4125	101.807	85.2277	101.807	85.3399	101.807	85.1531	101.807	85.2493	101.807	85.0694	101.807	85.1472	101.807	84.9845	101.807	85.0432	101.807	84.9085	101.807	84.9488	101.807	84.8522	101.807	84.8756	101.807	84.8251	101.807	84.8327
105.469	85.5519	105.469	85.5431	105.469	85.5624	105.469	85.5362	105.469	85.574	105.469	85.5311	105.469	85.5852	105.469	85.5265	105.469	85.5941	105.469	85.521	105.469	85.5979	105.469	85.5122	105.469	85.5932	105.469	85.4969	105.469	85.5762	105.469	85.4717	105.469	85.5433	105.469	85.433	105.469	85.4913	105.469	85.3778	105.469	85.4184	105.469	85.3046	105.469	85.3249	105.469	85.2141	105.469	85.2142	105.469	85.1101	105.469	85.0928	105.469	84.9994	105.469	84.9705	105.469	84.8921	105.469	84.8593	105.469	84.7999	105.469	84.7718	105.469	84.7347	105.469	84.7185	105.469	84.7059
109.131	85.6095	109.131	85.6	109.131	85.622	109.131	85.5931	109.131	85.6369	109.131	85.5882	109.131	85.6533	109.131	85.5839	109.131	85.6692	109.131	85.5785	109.131	85.682	109.131	85.5692	109.131	85.6881	109.131	85.5528	109.131	85.6833	109.131	85.5259	109.131	85.6631	109.131	85.4849	109.131	85.6235	109.131	85.4274	109.131	85.5617	109.131	85.3524	109.131	85.4771	109.131	85.2614	109.131	85.372	109.131	85.1591	109.131	85.2522	109.131	85.0531	109.131	85.1269	109.131	84.9541	109.131	85.0081	109.131	84.8738	109.131	84.9088	109.131	84.8235	109.131	84.8405	109.131	84.8113
112.793	85.4267	112.793	85.4245	112.793	85.4308	112.793	85.4238	112.793	85.4366	112.793	85.4244	112.793	85.4435	112.793	85.4255	112.793	85.4506	112.793	85.4257	112.793	85.4561	112.793	85.4229	112.793	85.4572	112.793	85.4144	112.793	85.4507	112.793	85.3968	112.793	85.4326	112.793	85.3666	112.793	85.3993	112.793	85.3208	112.793	85.348	112.793	85.2579	112.793	85.2779	112.793	85.1787	112.793	85.1908	112.793	85.087	112.793	85.0915	112.793	84.9896	112.793	84.9882	112.793	84.8962	112.793	84.8913	112.793	84.8177	112.793	84.8123	112.793	84.7646	112.793	84.7611	112.793	84.7446
116.455	85.1721	116.455	85.1736	116.455	85.1682	116.455	85.1725	116.455	85.162	116.455	85.1688	116.455	85.1535	116.455	85.1624	116.455	85.1423	116.455	85.1528	116.455	85.1278	116.455	85.1388	116.455	85.1081	116.455	85.1187	116.455	85.0812	116.455	85.0901	116.455	85.0443	116.455	85.0502	116.455	84.995	116.455	84.9964	116.455	84.9314	116.455	84.9274	116.455	84.8536	116.455	84.8438	116.455	84.7639	116.455	84.7488	116.455	84.6674	116.455	84.6485	116.455	84.5717	116.455	84.5518	116.455	84.4861	116.455	84.4685	116.455	84.4204	116.455	84.4083	116.455	84.3829	116.455	84.3785
120.85	85.5367	120.85	85.5357	120.85	85.5286	120.85	85.526	120.85	85.5113	120.85	85.5079	120.85	85.4841	120.85	85.4815	120.85	85.4462	120.85	85.4467	120.85	85.3965	120.85	85.4032	120.85	85.3331	120.85	85.3498	120.85	85.2542	120.85	85.2851	120.85	85.1581	120.85	85.207	120.85	85.0438	120.85	85.1139	120.85	84.9126	120.85	85.005	120.85	84.7679	120.85	84.8811	120.85	84.6166	120.85	84.7454	120.85	84.4686	120.85	84.6036	120.85	84.3361	120.85	84.4643	120.85	84.2313	120.85	84.338	120.85	84.1649	120.85	84.2359	120.85	84.1435	120.85	84.1684
125.244	86.0398	125.244	86.0238	125.244	86.0513	125.244	86.0036	125.244	86.0577	125.244	85.9796	125.244	86.0584	125.244	85.9519	125.244	86.0523	125.244	85.9204	125.244	86.0375	125.244	85.8844	125.244	86.0115	125.244	85.8426	125.244	85.9712	125.244	85.7928	125.244	85.9132	125.244	85.733	125.244	85.8348	125.244	85.6609	125.244	85.7347	125.244	85.5755	125.244	85.6145	125.244	85.4774	125.244	85.4789	125.244	85.3693	125.244	85.3367	125.244	85.2569	125.244	85.1998	125.244	85.1481	125.244	85.0816	125.244	85.0527	125.244	84.9946	125.244	84.9814	125.244	84.9477	125.244	84.944
129.639	85.7591	129.639	85.7376	129.639	85.7707	129.639	85.7071	129.639	85.772	129.639	85.6687	129.639	85.763	129.639	85.6241	129.639	85.7434	129.639	85.5749	129.639	85.7129	129.639	85.5225	129.639	85.6708	129.639	85.4679	129.639	85.6158	129.639	85.4109	129.639	85.5467	129.639	85.3507	129.639	85.4626	129.639	85.2856	129.639	85.3636	129.639	85.2141	129.639	85.2519	129.639	85.1354	129.639	85.1321	129.639	85.0505	129.639	85.0115	129.639	84.9622	129.639	84.8992	129.639	84.876	129.639	84.8054	129.639	84.799	129.639	84.7388	129.639	84.7399	129.639	84.7054	129.639	84.7066
134.033	85.759	134.033	85.7303	134.033	85.7717	134.033	85.6854	134.033	85.7684	134.033	85.6244	134.033	85.7489	134.033	85.5477	134.033	85.7125	134.033	85.4563	134.033	85.6581	134.033	85.3513	134.033	85.5842	134.033	85.2347	134.033	85.4891	134.033	85.1086	134.033	85.3713	134.033	84.9753	134.033	85.2308	134.033	84.8376	134.033	85.0695	134.033	84.6984	134.033	84.892	134.033	84.561	134.033	84.7062	134.033	84.4289	134.033	84.523	134.033	84.3067	134.033	84.3548	134.033	84.1994	134.033	84.214	134.033	84.1133	134.033	84.1102	134.033	84.0551	134.033	84.0492	134.033	84.0319
138.428	85.5277	138.428	85.5027	138.428	85.5425	138.428	85.4671	138.428	85.5469	138.428	85.4204	138.428	85.5402	138.428	85.3618	138.428	85.5207	138.428	85.2904	138.428	85.4858	138.428	85.2057	138.428	85.4324	138.428	85.1071	138.428	85.3566	138.428	84.9943	138.428	85.2553	138.428	84.8679	138.428	85.1265	138.428	84.7294	138.428	84.9708	138.428	84.5814	138.428	84.7921	138.428	84.4284	138.428	84.5983	138.428	84.2763	138.428	84.4008	138.428	84.1326	138.428	84.2139	138.428	84.0061	138.428	84.052	138.428	83.9061	138.428	83.9277	138.428	83.8419	138.428	83.8496	138.428	83.8214
143.555	85.1343	143.555	85.1066	143.555	85.1471	143.555	85.0637	143.555	85.1452	143.555	85.0059	143.555	85.1283	143.555	84.9335	143.555	85.0959	143.555	84.8473	143.555	85.0466	143.555	84.7483	143.555	84.9785	143.555	84.6378	143.555	84.8893	143.555	84.5174	143.555	84.7767	143.555	84.389	143.555	84.6401	143.555	84.2547	143.555	84.4809	143.555	84.1174	143.555	84.304	143.555	83.9804	143.555	84.1177	143.555	83.8478	143.555	83.9337	143.555	83.7243	143.555	83.7651	143.555	83.6155	143.555	83.6244	143.555	83.5278	143.555	83.5211	143.555	83.4684	143.555	83.4607	143.555	83.4441
148.682	85.4626	148.682	85.4336	148.682	85.4739	148.682	85.3862	148.682	85.4676	148.682	85.3206	148.682	85.4441	148.682	85.2371	148.682	85.4028	148.682	85.1366	148.682	85.3427	148.682	85.0207	148.682	85.2619	148.682	84.8915	148.682	85.158	148.682	84.7521	148.682	85.0289	148.682	84.6058	148.682	84.8743	148.682	84.4567	148.682	84.6962	148.682	84.309	148.682	84.5007	148.682	84.1668	148.682	84.2981	148.682	84.0337	148.682	84.1021	148.682	83.9128	148.682	83.9275	148.682	83.8075	148.682	83.7874	148.682	83.7217	148.682	83.6901	148.682	83.6606	148.682	83.6386	148.682	83.6307
153.809	85.5517	153.809	85.5337	153.809	85.5504	153.809	85.4959	153.809	85.5302	153.809	85.438	153.809	85.4916	153.809	85.36	153.809	85.4344	153.809	85.2627	153.809	85.3586	153.809	85.1475	153.809	85.2634	153.809	85.0172	153.809	85.1483	153.809	84.8755	153.809	85.0136	153.809	84.7275	153.809	84.8605	153.809	84.5791	153.809	84.6929	153.809	84.4364	153.809	84.5172	153.809	84.3048	153.809	84.3432	153.809	84.1877	153.809	84.1821	153.809	84.0867	153.809	84.0455	153.809	84.0018	153.809	83.9422	153.809	83.9329	153.809	83.8763	153.809	83.8814	153.809	83.8474	153.809	83.8511
159.668	85.3111	159.668	85.2842	159.668	85.3222	159.668	85.241	159.668	85.3174	159.668	85.1799	159.668	85.2952	159.668	85.0991	159.668	85.2529	159.668	84.9964	159.668	85.1869	159.668	84.8703	159.668	85.0929	159.668	84.7201	159.668	84.9667	159.668	84.5472	159.668	84.8055	159.668	84.3549	159.668	84.6092	159.668	84.1494	159.668	84.3819	159.668	83.9393	159.668	84.1327	159.668	83.7342	159.668	83.8757	159.668	83.5437	159.668	83.6288	159.668	83.3757	159.668	83.4101	159.668	83.2358	159.668	83.2346	159.668	83.1281	159.668	83.1115	159.668	83.0568	159.668	83.043	159.668	83.0265
164.795	84.8279	164.795	84.8127	164.795	84.829	164.795	84.7832	164.795	84.8161	164.795	84.7387	164.795	84.7886	164.795	84.6784	164.795	84.7451	164.795	84.6015	164.795	84.6834	164.795	84.5073	164.795	84.601	164.795	84.3955	164.795	84.4953	164.795	84.2672	164.795	84.3648	164.795	84.1249	164.795	84.2105	164.795	83.9732	164.795	84.0369	164.795	83.8182	164.795	83.852	164.795	83.6665	164.795	83.6671	164.795	83.5243	164.795	83.4948	164.795	83.3966	164.795	83.3466	164.795	83.2872	164.795	83.2308	164.795	83.1998	164.795	83.1519	164.795	83.1384	164.795	83.1111	164.795	83.1076
170.654	84.8564	170.654	84.8384	170.654	84.8516	170.654	84.7966	170.654	84.8243	170.654	84.7298	170.654	84.7741	170.654	84.6371	170.654	84.6994	170.654	84.5182	170.654	84.5972	170.654	84.3736	170.654	84.464	170.654	84.205	170.654	84.2958	170.654	84.0161	170.654	84.0904	170.654	83.8124	170.654	83.8492	170.654	83.6015	170.654	83.5793	170.654	83.3921	170.654	83.2953	170.654	83.1927	170.654	83.0185	170.654	83.0102	170.654	82.7735	170.654	82.8485	170.654	82.5817	170.654	82.7089	170.654	82.4553	170.654	82.5913	170.654	82.394	170.654	82.4961	170.654	82.3885	170.654	82.4262
176.514	84.9693	176.514	84.956	176.514	84.9691	176.514	84.9281	176.514	84.9557	176.514	84.8836	176.514	84.9284	176.514	84.8203	176.514	84.8852	176.514	84.7352	176.514	84.8229	176.514	84.6258	176.514	84.7375	176.514	84.4909	176.514	84.6254	176.514	84.3316	176.514	84.4842	176.514	84.1528	176.514	84.3149	176.514	83.9637	176.514	84.1234	176.514	83.777	176.514	83.9205	176.514	83.6063	176.514	83.7212	176.514	83.4623	176.514	83.5415	176.514	83.3502	176.514	83.394	176.514	83.2689	176.514	83.2851	176.514	83.2139	176.514	83.2147	176.514	83.1808	176.514	83.1778	176.514	83.1681
183.105	84.7823	183.105	84.7648	183.105	84.7882	183.105	84.7386	183.105	84.7792	183.105	84.7062	183.105	84.7515	183.105	84.6689	183.105	84.7007	183.105	84.6265	183.105	84.622	183.105	84.5769	183.105	84.51	183.105	84.5162	183.105	84.3603	183.105	84.4391	183.105	84.1704	183.105	84.3405	183.105	83.9427	183.105	84.2165	183.105	83.6856	183.105	84.0661	183.105	83.4156	183.105	83.8919	183.105	83.1561	183.105	83.6999	183.105	82.9336	183.105	83.4986	183.105	82.7706	183.105	83.2984	183.105	82.6798	183.105	83.1096	183.105	82.6616	183.105	82.9419	183.105	82.7072	183.105	82.8045
189.697	84.5917	189.697	84.5334	189.697	84.6265	189.697	84.4522	189.697	84.6376	189.697	84.3496	189.697	84.6247	189.697	84.2285	189.697	84.5865	189.697	84.093	189.697	84.5206	189.697	83.9486	189.697	84.4235	189.697	83.8019	189.697	84.2918	189.697	83.6601	189.697	84.1238	189.697	83.5302	189.697	83.9222	189.697	83.4183	189.697	83.6963	189.697	83.3273	189.697	83.4632	189.697	83.2566	189.697	83.2456	189.697	83.2012	189.697	83.0671	189.697	83.1537	189.697	82.9441	189.697	83.1068	189.697	82.881	189.697	83.0557	189.697	82.8701	189.697	83.0002	189.697	82.8965	189.697	82.9442
196.289	84.82	196.289	84.76	196.289	84.8543	196.289	84.6767	196.289	84.8611	196.289	84.5736	196.289	84.8385	196.289	84.4552	196.289	84.7843	196.289	84.3269	196.289	84.6957	196.289	84.1944	196.289	84.5695	196.289	84.0627	196.289	84.4034	196.289	83.9357	196.289	84.1971	196.289	83.815	196.289	83.9543	196.289	83.7008	196.289	83.6848	196.289	83.5915	196.289	83.4058	196.289	83.4846	196.289	83.141	196.289	83.3771	196.289	82.9169	196.289	83.2661	196.289	82.7561	196.289	83.15	196.289	82.6706	196.289	83.0293	196.289	82.6587	196.289	82.9084	196.289	82.7069	196.289	82.7962
202.881	84.6432	202.881	84.5592	202.881	84.6929	202.881	84.4408	202.881	84.7089	202.881	84.289	202.881	84.691	202.881	84.107	202.881	84.6376	202.881	83.9017	202.881	84.546	202.881	83.684	202.881	84.4127	202.881	83.4689	202.881	84.2359	202.881	83.2745	202.881	84.0175	202.881	83.118	202.881	83.7665	202.881	83.0113	202.881	83.5007	202.881	82.9555	202.881	83.2455	202.881	82.9402	202.881	83.0285	202.881	82.9468	202.881	82.8708	202.881	82.9558	202.881	82.7799	202.881	82.9527	202.881	82.7488	202.881	82.9318	202.881	82.7611	202.881	82.8945	202.881	82.799	202.881	82.8473
210.205	85.0084	210.205	84.9105	210.205	85.0623	210.205	84.7681	210.205	85.0729	210.205	84.582	210.205	85.0397	210.205	84.3555	210.205	84.9611	210.205	84.0955	210.205	84.8332	210.205	83.814	210.205	84.6514	210.205	83.5287	210.205	84.4118	210.205	83.2629	210.205	84.1147	210.205	83.0426	210.205	83.7692	210.205	82.8905	210.205	83.3977	210.205	82.8176	210.205	83.0379	210.205	82.8173	210.205	82.7376	210.205	82.8659	210.205	82.5398	210.205	82.9308	210.205	82.4642	210.205	82.98	210.205	82.4983	210.205	82.9905	210.205	82.6047	210.205	82.9512	210.205	82.7389	210.205	82.863
217.529	85.5504	217.529	85.4641	217.529	85.6111	217.529	85.345	217.529	85.6513	217.529	85.185	217.529	85.6725	217.529	84.9766	217.529	85.6716	217.529	84.7138	217.529	85.6409	217.529	84.3945	217.529	85.5681	217.529	84.0225	217.529	85.4393	217.529	83.6104	217.529	85.2416	217.529	83.1827	217.529	84.9674	217.529	82.7751	217.529	84.6188	217.529	82.4284	217.529	84.211	217.529	82.1764	217.529	83.7735	217.529	82.0322	217.529	83.3459	217.529	81.9838	217.529	82.9685	217.529	82.0023	217.529	82.6689	217.529	82.0567	217.529	82.4532	217.529	82.1261	217.529	82.3072	217.529	82.2057
225.586	85.0955	225.586	85.0679	225.586	85.088	225.586	85.0002	225.586	85.051	225.586	84.8884	225.586	84.9894	225.586	84.7305	225.586	84.9066	225.586	84.5274	225.586	84.8032	225.586	84.2844	225.586	84.6777	225.586	84.0132	225.586	84.5274	225.586	83.7339	225.586	84.3521	225.586	83.4743	225.586	84.1576	225.586	83.2664	225.586	83.9586	225.586	83.1359	225.586	83.7774	225.586	83.0923	225.586	83.6372	225.586	83.1244	225.586	83.552	225.586	83.206	225.586	83.5196	225.586	83.3075	225.586	83.5231	225.586	83.4042	225.586	83.5386	225.586	83.4802	225.586	83.5448	225.586	83.5275
232.91	85.7407	232.91	85.7323	232.91	85.6921	232.91	85.663	232.91	85.5906	232.91	85.5295	232.91	85.4396	232.91	85.329	232.91	85.242	232.91	85.0603	232.91	84.9996	232.91	84.7255	232.91	84.714	232.91	84.3324	232.91	84.3884	232.91	83.8997	232.91	84.0318	232.91	83.4619	232.91	83.6637	232.91	83.0702	232.91	83.3177	232.91	82.7825	232.91	83.0381	232.91	82.6406	232.91	82.8659	232.91	82.6474	232.91	82.8184	232.91	82.7637	232.91	82.8774	232.91	82.9296	232.91	82.9972	232.91	83.0888	232.91	83.1249	232.91	83.2014	232.91	83.2168	232.91	83.2458
241.699	87.085	241.699	87.0658	241.699	87.0539	241.699	86.9893	241.699	86.9773	241.699	86.847	241.699	86.8568	241.699	86.6292	241.699	86.6901	241.699	86.3264	241.699	86.4701	241.699	85.9299	241.699	86.1853	241.699	85.4348	241.699	85.8218	241.699	84.8442	241.699	85.3664	241.699	84.1756	241.699	84.8144	241.699	83.4694	241.699	84.178	241.699	82.7939	241.699	83.4977	241.699	82.2375	241.699	82.8472	241.699	81.8763	241.699	82.32	241.699	81.7313	241.699	81.9891	241.699	81.7528	241.699	81.862	241.699	81.8511	241.699	81.876	241.699	81.9414	241.699	81.9386	241.699	81.973
249.756	86.5835	249.756	86.6114	249.756	86.5135	249.756	86.5902	249.756	86.4051	249.756	86.5101	249.756	86.2571	249.756	86.3593	249.756	86.0628	249.756	86.125	249.756	85.8096	249.756	85.7952	249.756	85.4792	249.756	85.3607	249.756	85.0519	249.756	84.8195	249.756	84.5125	249.756	84.1806	249.756	83.8617	249.756	83.4693	249.756	83.13	249.756	82.7303	249.756	82.3894	249.756	82.0267	249.756	81.7458	249.756	81.4319	249.756	81.2948	249.756	81.0093	249.756	81.0612	249.756	80.7864	249.756	80.9853	249.756	80.7379	249.756	80.9726	249.756	80.7964	249.756	80.9492	249.756	80.8851
258.545	87.7061	258.545	87.6921	258.545	87.6895	258.545	87.6451	258.545	87.6417	258.545	87.5603	258.545	87.5592	258.545	87.4308	258.545	87.4346	258.545	87.2485	258.545	87.2567	258.545	87.0052	258.545	87.01	258.545	86.6946	258.545	86.6767	258.545	86.3161	258.545	86.2388	258.545	85.8774	258.545	85.6848	258.545	85.3967	258.545	85.0193	258.545	84.9012	258.545	84.2759	258.545	84.4212	258.545	83.5287	258.545	83.9834	258.545	82.8859	258.545	83.6042	258.545	82.451	258.545	83.2879	258.545	82.2634	258.545	83.0266	258.545	82.2794	258.545	82.8028	258.545	82.4145	258.545	82.5994
268.066	88.3465	268.066	88.3398	268.066	88.3498	268.066	88.326	268.066	88.3495	268.066	88.2976	268.066	88.3407	268.066	88.2437	268.066	88.3131	268.066	88.1504	268.066	88.2501	268.066	88.0017	268.066	88.1305	268.066	87.7813	268.066	87.9303	268.066	87.476	268.066	87.6264	268.066	87.0786	268.066	87.2017	268.066	86.5923	268.066	86.6511	268.066	86.0322	268.066	85.9881	268.066	85.4273	268.066	85.2515	268.066	84.8177	268.066	84.5084	268.066	84.2491	268.066	83.8454	268.066	83.7625	268.066	83.3424	268.066	83.3834	268.066	83.0396	268.066	83.1174	268.066	82.9255	268.066	82.9619
277.588	87.2645	277.588	87.2703	277.588	87.2324	277.588	87.2457	277.588	87.1781	277.588	87.187	277.588	87.1041	277.588	87.0915	277.588	87.0101	277.588	86.9576	277.588	86.8914	277.588	86.7852	277.588	86.739	277.588	86.5761	277.588	86.5404	277.588	86.3342	277.588	86.2836	277.588	86.0647	277.588	85.962	277.588	85.7747	277.588	85.5809	277.588	85.4734	277.588	85.1631	277.588	85.1746	277.588	84.7498	277.588	84.897	277.588	84.395	277.588	84.6609	277.588	84.147	277.588	84.4791	277.588	84.0269	277.588	84.3482	277.588	84.0176	277.588	84.2491	277.588	84.0762	277.588	84.1603
287.109	87.4615	287.109	87.4023	287.109	87.4825	287.109	87.3067	287.109	87.461	287.109	87.1738	287.109	87.3907	287.109	86.9986	287.109	87.2626	287.109	86.773	287.109	87.0643	287.109	86.4891	287.109	86.7816	287.109	86.1459	287.109	86.4016	287.109	85.7559	287.109	85.9199	287.109	85.3465	287.109	85.3506	287.109	84.9526	287.109	84.7342	287.109	84.6	287.109	84.1371	287.109	84.2952	287.109	83.6341	287.109	84.0324	287.109	83.2796	287.109	83.8094	287.109	83.0886	287.109	83.632	287.109	83.0402	287.109	83.5009	287.109	83.0918	287.109	83.3994	287.109	83.1927	287.109	83.3009
297.363	87.7547	297.363	87.7543	297.363	87.7461	297.363	87.7364	297.363	87.7322	297.363	87.6907	297.363	87.7089	297.363	87.6057	297.363	87.6615	297.363	87.4695	297.363	87.5643	297.363	87.2703	297.363	87.384	297.363	86.9982	297.363	87.085	297.363	86.6496	297.363	86.6387	297.363	86.2312	297.363	86.0342	297.363	85.7608	297.363	85.2927	297.363	85.2617	297.363	84.4792	297.363	84.7548	297.363	83.7013	297.363	84.2568	297.363	83.0761	297.363	83.7877	297.363	82.6733	297.363	83.376	297.363	82.4851	297.363	83.048	297.363	82.4535	297.363	82.8079	297.363	82.5168	297.363	82.637
307.617	86.9084	307.617	86.8791	307.617	86.933	307.617	86.8396	307.617	86.9562	307.617	86.7827	307.617	86.9772	307.617	86.6995	307.617	86.9873	307.617	86.5794	307.617	86.9671	307.617	86.4127	307.617	86.8864	307.617	86.1952	307.617	86.7091	307.617	85.9342	307.617	86.4032	307.617	85.6506	307.617	85.9541	307.617	85.3742	307.617	85.3811	307.617	85.1296	307.617	84.7497	307.617	84.9228	307.617	84.1694	307.617	84.7423	307.617	83.756	307.617	84.5745	307.617	83.5682	307.617	84.416	307.617	83.5762	307.617	84.2708	307.617	83.6972	307.617	84.1372	307.617	83.8534	307.617	84.0023
318.604	86.5449	318.604	86.5361	318.604	86.5508	318.604	86.5196	318.604	86.556	318.604	86.4873	318.604	86.5576	318.604	86.4269	318.604	86.544	318.604	86.321	318.604	86.4923	318.604	86.1497	318.604	86.3686	318.604	85.8969	318.604	86.1336	318.604	85.5584	318.604	85.7528	318.604	85.1495	318.604	85.2107	318.604	84.7065	318.604	84.5261	318.604	84.2769	318.604	83.7676	318.604	83.9056	318.604	83.0563	318.604	83.6237	318.604	82.5388	318.604	83.4454	318.604	82.3179	318.604	83.3609	318.604	82.3872	318.604	83.3284	318.604	82.637	318.604	83.2805	318.604	82.9272	318.604	83.1545
329.59	86.8226	329.59	86.813	329.59	86.8272	329.59	86.7977	329.59	86.8264	329.59	86.7724	329.59	86.8164	329.59	86.7265	329.59	86.787	329.59	86.6404	329.59	86.7162	329.59	86.4874	329.59	86.5685	329.59	86.241	329.59	86.2989	329.59	85.8842	329.59	85.8618	329.59	85.4199	329.59	85.2272	329.59	84.8729	329.59	84.4006	329.59	84.2825	329.59	83.4475	329.59	83.6911	329.59	82.5094	329.59	83.1403	329.59	81.7777	329.59	82.6782	329.59	81.3962	329.59	82.3513	329.59	81.361	329.59	82.1664	329.59	81.5381	329.59	82.0634	329.59	81.7689	329.59	81.9503
341.309	86.2368	341.309	86.1372	341.309	86.3197	341.309	86.0168	341.309	86.3955	341.309	85.8794	341.309	86.473	341.309	85.7335	341.309	86.5511	341.309	85.5866	341.309	86.6106	341.309	85.4398	341.309	86.6123	341.309	85.2882	341.309	86.5028	341.309	85.1282	341.309	86.2287	341.309	84.9645	341.309	85.7528	341.309	84.8072	341.309	85.0739	341.309	84.658	341.309	84.2471	341.309	84.5012	341.309	83.3989	341.309	84.3139	341.309	82.7111	341.309	84.0894	341.309	82.3393	341.309	83.8458	341.309	82.3109	341.309	83.6063	341.309	82.5193	341.309	83.3709	341.309	82.8201	341.309	83.1144
353.76	86.6535	353.76	86.6332	353.76	86.6339	353.76	86.5634	353.76	86.5863	353.76	86.4376	353.76	86.5206	353.76	86.2494	353.76	86.4351	353.76	85.9885	353.76	86.3084	353.76	85.6412	353.76	86.0961	353.76	85.1984	353.76	85.7377	353.76	84.674	353.76	85.1738	353.76	84.1228	353.76	84.3718	353.76	83.6378	353.76	83.3593	353.76	83.3021	353.76	82.2634	353.76	83.1271	353.76	81.3232	353.76	83.056	353.76	80.7995	353.76	83.0265	353.76	80.7921	353.76	83.0072	353.76	81.176	353.76	82.9729	353.76	81.7281	353.76	82.8743	353.76	82.256	353.76	82.6475
366.211	86.2418	366.211	86.1812	366.211	86.2619	366.211	86.0725	366.211	86.2536	366.211	85.9126	366.211	86.2318	366.211	85.6994	366.211	86.2063	366.211	85.4276	366.211	86.1696	366.211	85.0848	366.211	86.0847	366.211	84.6518	366.211	85.8824	366.211	84.1137	366.211	85.4734	366.211	83.4779	366.211	84.772	366.211	82.7926	366.211	83.7279	366.211	82.143	366.211	82.3738	366.211	81.6145	366.211	80.9071	366.211	81.25	366.211	79.7446	366.211	81.0482	366.211	79.2962	366.211	80.982	366.211	79.5211	366.211	80.9914	366.211	80.0327	366.211	80.9782	366.211	80.5182	366.211	80.8399
378.662	86.8072	378.662	86.7669	378.662	86.8439	378.662	86.707	378.662	86.8931	378.662	86.6114	378.662	86.9657	378.662	86.459	378.662	87.0574	378.662	86.2193	378.662	87.1379	378.662	85.8509	378.662	87.1473	378.662	85.31	378.662	87.0036	378.662	84.5694	378.662	86.6172	378.662	83.6495	378.662	85.9073	378.662	82.6526	378.662	84.8164	378.662	81.7613	378.662	83.3312	378.662	81.1522	378.662	81.5355	378.662	80.8739	378.662	79.7384	378.662	80.8453	378.662	78.5804	378.662	80.9426	378.662	78.5468	378.662	81.0355	378.662	79.2692	378.662	80.9904	378.662	80.0962	378.662	80.6945
392.578	86.3327	392.578	86.3946	392.578	86.2451	392.578	86.4167	392.578	86.1489	392.578	86.3845	392.578	86.066	392.578	86.281	392.578	86.0193	392.578	86.0858	392.578	86.0215	392.578	85.7767	392.578	86.0556	392.578	85.3338	392.578	86.0637	392.578	84.7425	392.578	85.9545	392.578	83.9973	392.578	85.6268	392.578	83.1016	392.578	84.9925	392.578	82.0708	392.578	83.9912	392.578	80.9517	392.578	82.6084	392.578	79.8702	392.578	80.9277	392.578	79.0608	392.578	79.2543	392.578	78.7261	392.578	78.1718	392.578	78.7783	392.578	78.0296	392.578	78.8906	392.578	78.4251	392.578	78.7921
405.762	86.3002	405.762	86.4597	405.762	86.1755	405.762	86.6418	405.762	86.1036	405.762	86.8338	405.762	86.1072	405.762	87.0125	405.762	86.2002	405.762	87.137	405.762	86.3662	405.762	87.1505	405.762	86.5441	405.762	86.9912	405.762	86.6365	405.762	86.61	405.762	86.5376	405.762	85.9868	405.762	86.164	405.762	85.14	405.762	85.4765	405.762	84.1224	405.762	84.4945	405.762	83.0091	405.762	83.3077	405.762	81.9026	405.762	82.0833	405.762	80.9649	405.762	81.0481	405.762	80.3868	405.762	80.4033	405.762	80.2112	405.762	80.1822	405.762	80.2491	405.762	80.2141	405.762	80.2742
420.41	85.651	420.41	85.6658	420.41	85.5753	420.41	85.6393	420.41	85.4339	420.41	85.5969	420.41	85.2437	420.41	85.5572	420.41	85.0461	420.41	85.5176	420.41	84.8957	420.41	85.4492	420.41	84.8243	420.41	85.3077	420.41	84.7998	420.41	85.0578	420.41	84.724	420.41	84.6932	420.41	84.4818	420.41	84.2336	420.41	83.9973	420.41	83.6956	420.41	83.2655	420.41	83.0662	420.41	82.3649	420.41	82.3303	420.41	81.4578	420.41	81.5516	420.41	80.7585	420.41	80.9171	420.41	80.4238	420.41	80.6064	420.41	80.4178	420.41	80.5749	420.41	80.5397	420.41	80.6031
435.059	85.9751	435.059	85.9351	435.059	85.959	435.059	85.8494	435.059	85.8911	435.059	85.7393	435.059	85.7912	435.059	85.6263	435.059	85.6903	435.059	85.516	435.059	85.6145	435.059	85.3815	435.059	85.5565	435.059	85.1645	435.059	85.4544	435.059	84.7986	435.059	85.2022	435.059	84.2452	435.059	84.6877	435.059	83.5253	435.059	83.8349	435.059	82.7295	435.059	82.6447	435.059	81.9911	435.059	81.2545	435.059	81.4354	435.059	80.0138	435.059	81.1393	435.059	79.3965	435.059	81.098	435.059	79.5551	435.059	81.1986	435.059	80.1414	435.059	81.2608	435.059	80.7399	435.059	81.1301
450.439	84.6207	450.439	84.6261	450.439	84.4964	450.439	84.5432	450.439	84.2609	450.439	84.4317	450.439	83.9738	450.439	84.3615	450.439	83.7555	450.439	84.3707	450.439	83.7451	450.439	84.4249	450.439	83.9784	450.439	84.4236	450.439	84.3131	450.439	84.2612	450.439	84.5206	450.439	83.8971	450.439	84.4264	450.439	83.3921	450.439	83.971	450.439	82.8796	450.439	83.2183	450.439	82.4664	450.439	82.3458	450.439	82.1748	450.439	81.6045	450.439	82.0091	450.439	81.2179	450.439	82.0008	450.439	81.2525	450.439	82.1226	450.439	81.5745	450.439	82.2381	450.439	81.953	450.439	82.1992
466.553	87.0334	466.553	87.0166	466.553	86.8744	466.553	86.847	466.553	86.5212	466.553	86.5552	466.553	85.9631	466.553	86.1809	466.553	85.2115	466.553	85.7665	466.553	84.3299	466.553	85.3397	466.553	83.4566	466.553	84.8968	466.553	82.7555	466.553	84.4052	466.553	82.2646	466.553	83.8272	466.553	81.8213	466.553	83.1404	466.553	81.206	466.553	82.3351	466.553	80.3402	466.553	81.4213	466.553	79.4358	466.553	80.5196	466.553	79.0235	466.553	79.9868	466.553	79.4634	466.553	80.1818	466.553	80.4153	466.553	80.9088	466.553	81.3258	466.553	81.6284	466.553	81.8882	466.553	81.9923
482.666	87.2877	482.666	87.2362	482.666	87.2922	482.666	87.1568	482.666	87.2301	482.666	87.0628	482.666	87.0855	482.666	86.9536	482.666	86.8511	482.666	86.8055	482.666	86.5334	482.666	86.5691	482.666	86.1473	482.666	86.1771	482.666	85.6911	482.666	85.5658	482.666	85.1115	482.666	84.7041	482.666	84.2875	482.666	83.6082	482.666	83.0433	482.666	82.3107	482.666	81.1582	482.666	80.7896	482.666	78.351	482.666	78.9978	482.666	74.437	482.666	77.2126	482.666	71.5732	482.666	76.4639	482.666	73.8008	482.666	77.1775	482.666	76.5392	482.666	78.1687	482.666	78.0779	482.666	78.5625
500.244	86.0149	500.244	85.8557	500.244	86.1451	500.244	85.7039	500.244	86.2341	500.244	85.6184	500.244	86.2856	500.244	85.6579	500.244	86.3089	500.244	85.8347	500.244	86.3053	500.244	86.0812	500.244	86.2557	500.244	86.2707	500.244	86.1187	500.244	86.2729	500.244	85.8374	500.244	85.9927	500.244	85.3442	500.244	85.3799	500.244	84.5578	500.244	84.4245	500.244	83.3836	500.244	83.1644	500.244	81.7378	500.244	81.7261	500.244	79.6458	500.244	80.3834	500.244	77.5453	500.244	79.4878	500.244	76.5575	500.244	79.1368	500.244	77.0912	500.244	79.0205	500.244	78.0653	500.244	78.7387
517.822	85.9449	517.822	85.9137	517.822	85.8518	517.822	85.7485	517.822	85.6507	517.822	85.4415	517.822	85.3743	517.822	84.9936	517.822	85.083	517.822	84.4325	517.822	84.8532	517.822	83.8346	517.822	84.7312	517.822	83.3117	517.822	84.6843	517.822	82.9341	517.822	84.6111	517.822	82.6563	517.822	84.3917	517.822	82.3565	517.822	83.9175	517.822	81.9534	517.822	83.0993	517.822	81.4867	517.822	81.9061	517.822	81.1221	517.822	80.4898	517.822	81.0401	517.822	79.3815	517.822	81.2434	517.822	79.2517	517.822	81.5269	517.822	79.9736	517.822	81.6453	517.822	80.8437	517.822	81.4359
536.133	86.0291	536.133	86.1551	536.133	85.8097	536.133	86.2264	536.133	85.4914	536.133	86.294	536.133	85.1277	536.133	86.3964	536.133	84.8499	536.133	86.5289	536.133	84.8179	536.133	86.6262	536.133	85.0789	536.133	86.5756	536.133	85.5009	536.133	86.2518	536.133	85.8816	536.133	85.542	536.133	86.0552	536.133	84.3502	536.133	85.8935	536.133	82.5941	536.133	85.2796	536.133	80.2618	536.133	84.1157	536.133	77.7608	536.133	82.3763	536.133	76.5767	536.133	80.2687	536.133	77.4256	536.133	78.5673	536.133	78.6965	536.133	78.2398	536.133	79.4139	536.133	78.8746	536.133	79.4298
554.443	86.4369	554.443	86.3685	554.443	86.2771	554.443	86.1177	554.443	85.8334	554.443	85.7329	554.443	85.0496	554.443	85.2944	554.443	83.921	554.443	84.9385	554.443	82.6348	554.443	84.8071	554.443	81.7561	554.443	84.9008	554.443	81.8905	554.443	85.0287	554.443	82.8022	554.443	84.9476	554.443	83.787	554.443	84.4837	554.443	84.411	554.443	83.5465	554.443	84.4941	554.443	82.1487	554.443	83.9818	554.443	80.5801	554.443	82.9547	554.443	79.6673	554.443	81.7548	554.443	80.0356	554.443	81.0306	554.443	81.0048	554.443	81.1429	554.443	81.7352	554.443	81.6429	554.443	81.9365
574.219	88.0391	574.219	87.9929	574.219	87.9007	574.219	87.7815	574.219	87.5233	574.219	87.3973	574.219	86.8276	574.219	86.832	574.219	85.7374	574.219	86.1167	574.219	84.2342	574.219	85.3511	574.219	82.4711	574.219	84.6721	574.219	80.9533	574.219	84.1412	574.219	80.3956	574.219	83.6552	574.219	80.7976	574.219	82.9803	574.219	81.3833	574.219	81.8444	574.219	81.5436	574.219	80.0441	574.219	81.072	574.219	77.8064	574.219	80.1139	574.219	76.767	574.219	79.2722	574.219	78.1236	574.219	79.3285	574.219	79.937	574.219	80.1728	574.219	81.0651	574.219	81.0278	574.219	81.3948
594.727	87.9191	594.727	87.7678	594.727	87.9418	594.727	87.5096	594.727	87.7801	594.727	87.1319	594.727	87.3584	594.727	86.6009	594.727	86.6063	594.727	85.8929	594.727	85.4912	594.727	85.0398	594.727	84.0563	594.727	84.1602	594.727	82.4559	594.727	83.403	594.727	80.9613	594.727	82.7973	594.727	79.8709	594.727	82.183	594.727	79.2775	594.727	81.321	594.727	78.9347	594.727	80.0434	594.727	78.4953	594.727	78.4198	594.727	77.8341	594.727	77.0359	594.727	77.197	594.727	76.7795	594.727	77.0547	594.727	77.4689	594.727	77.5081	594.727	78.1679	594.727	78.1078	594.727	78.3971
615.234	87.8783	615.234	87.7944	615.234	87.872	615.234	87.6458	615.234	87.7321	615.234	87.4391	615.234	87.4029	615.234	87.1643	615.234	86.8366	615.234	86.8039	615.234	86.0325	615.234	86.3482	615.234	85.0739	615.234	85.7992	615.234	84.1152	615.234	85.1479	615.234	83.2882	615.234	84.3353	615.234	82.5903	615.234	83.2309	615.234	81.8477	615.234	81.6431	615.234	80.781	615.234	79.3471	615.234	79.1468	615.234	76.2001	615.234	76.9359	615.234	73.0436	615.234	74.8389	615.234	73.02	615.234	74.3996	615.234	75.0784	615.234	75.4971	615.234	76.5327	615.234	76.5936	615.234	77.0039
637.207	86.9725	637.207	86.9351	637.207	86.9263	637.207	86.8467	637.207	86.7652	637.207	86.7335	637.207	86.474	637.207	86.6081	637.207	86.0802	637.207	86.4635	637.207	85.6688	637.207	86.2756	637.207	85.3457	637.207	86.0131	637.207	85.1429	637.207	85.6369	637.207	84.959	637.207	85.0734	637.207	84.6	637.207	84.1796	637.207	83.8498	637.207	82.7244	637.207	82.5055	637.207	80.3818	637.207	80.3688	637.207	76.7055	637.207	77.2159	637.207	71.5689	637.207	73.0829	637.207	70.1767	637.207	70.7722	637.207	73.3299	637.207	72.8005	637.207	75.1902	637.207	74.8114	637.207	75.614
659.912	86.7296	659.912	86.6656	659.912	86.6963	659.912	86.5245	659.912	86.4941	659.912	86.2781	659.912	86.0288	659.912	85.891	659.912	85.2501	659.912	85.4005	659.912	84.2484	659.912	84.9672	659.912	83.3349	659.912	84.7682	659.912	82.9443	659.912	84.791	659.912	83.2029	659.912	84.8204	659.912	83.6768	659.912	84.5706	659.912	83.7841	659.912	83.762	659.912	83.1679	659.912	82.1862	659.912	81.6942	659.912	79.8536	659.912	79.3928	659.912	77.4797	659.912	76.75	659.912	76.7382	659.912	75.5201	659.912	77.5647	659.912	76.5195	659.912	78.3707	659.912	77.8456	659.912	78.5042
683.35	86.5307	683.35	86.4485	683.35	86.431	683.35	86.2014	683.35	86.086	683.35	85.7628	683.35	85.4413	683.35	85.1386	683.35	84.5327	683.35	84.4955	683.35	83.5578	683.35	84.2027	683.35	82.894	683.35	84.5168	683.35	82.9224	683.35	85.2059	683.35	83.5601	683.35	85.7912	683.35	84.2313	683.35	85.9035	683.35	84.4545	683.35	85.3267	683.35	84.0482	683.35	83.9379	683.35	82.9655	683.35	81.7095	683.35	81.1919	683.35	78.9778	683.35	78.9468	683.35	77.1847	683.35	77.2605	683.35	77.4836	683.35	77.3015	683.35	78.3555	683.35	78.166	683.35	78.6392
706.787	87.7938	706.787	87.7551	706.787	87.8109	706.787	87.6643	706.787	87.7273	706.787	87.3874	706.787	87.3947	706.787	86.7263	706.787	86.6607	706.787	85.4806	706.787	85.4236	706.787	83.5517	706.787	83.6488	706.787	81.2701	706.787	81.3804	706.787	80.0445	706.787	79.0893	706.787	80.7555	706.787	78.4541	706.787	81.7805	706.787	79.7709	706.787	81.9513	706.787	80.9537	706.787	81.0659	706.787	81.0952	706.787	79.4681	706.787	80.1728	706.787	78.3621	706.787	78.6593	706.787	78.8616	706.787	77.8475	706.787	79.982	706.787	78.5957	706.787	80.6464	706.787	79.8198	706.787	80.5862
731.689	86.3037	731.689	86.1747	731.689	86.5046	731.689	86.2002	731.689	86.6027	731.689	86.3135	731.689	86.4348	731.689	86.3311	731.689	85.9553	731.689	86.045	731.689	85.2957	731.689	85.3045	731.689	84.6278	731.689	84.0884	731.689	83.9064	731.689	82.6521	731.689	83.0184	731.689	81.6397	731.689	82.0928	731.689	81.3306	731.689	81.2635	731.689	80.9071	731.689	80.3344	731.689	79.413	731.689	78.9678	731.689	76.2114	731.689	76.8793	731.689	71.5969	731.689	74.1241	731.689	71.9894	731.689	72.6064	731.689	75.2985	731.689	74.2484	731.689	76.9911	731.689	76.2625	731.689	77.2373
758.057	86.5044	758.057	86.411	758.057	86.4995	758.057	86.3012	758.057	86.3292	758.057	86.2096	758.057	85.9866	758.057	86.0796	758.057	85.5488	758.057	85.7925	758.057	85.127	758.057	85.2625	758.057	84.7217	758.057	84.5243	758.057	84.2393	758.057	83.7441	758.057	83.7365	758.057	83.0875	758.057	83.3282	758.057	82.4851	758.057	82.82	758.057	81.5972	758.057	81.8741	758.057	80.0191	758.057	80.289	758.057	77.4449	758.057	77.9633	758.057	74.227	758.057	75.032	758.057	73.3047	758.057	72.8888	758.057	75.1635	758.057	73.6575	758.057	76.5092	758.057	75.5113	758.057	76.5993
784.424	85.4752	784.424	85.3964	784.424	85.4893	784.424	85.364	784.424	85.3484	784.424	85.4374	784.424	85.0879	784.424	85.5833	784.424	84.9317	784.424	85.6833	784.424	85.1007	784.424	85.6184	784.424	85.428	784.424	85.3432	784.424	85.5073	784.424	84.8768	784.424	85.1314	784.424	84.2748	784.424	84.281	784.424	83.5354	784.424	82.9998	784.424	82.4385	784.424	81.3847	784.424	80.5101	784.424	79.3792	784.424	76.9702	784.424	76.8574	784.424	70.4475	784.424	74.3027	784.424	68.375	784.424	73.033	784.424	73.6597	784.424	73.6397	784.424	75.7873	784.424	75.0302	784.424	75.9909
812.256	86.7435	812.256	86.5979	812.256	86.6566	812.256	86.2626	812.256	86.359	812.256	85.7765	812.256	85.9862	812.256	85.1332	812.256	85.688	812.256	84.3095	812.256	85.343	812.256	83.4002	812.256	84.524	812.256	82.7802	812.256	83.0668	812.256	82.9164	812.256	81.9155	812.256	83.6201	812.256	82.1809	812.256	84.1954	812.256	83.0667	812.256	84.1722	812.256	83.4456	812.256	83.2448	812.256	82.5508	812.256	81.0543	812.256	79.9691	812.256	77.2262	812.256	75.9214	812.256	72.6869	812.256	73.0588	812.256	72.9438	812.256	73.8935	812.256	74.9926	812.256	75.1979	812.256	75.6753
840.82	86.5751	840.82	86.4486	840.82	86.5403	840.82	86.1872	840.82	86.3529	840.82	85.8015	840.82	86.1204	840.82	85.2808	840.82	85.9514	840.82	84.5818	840.82	85.66	840.82	83.612	840.82	84.7263	840.82	82.2886	840.82	82.6874	840.82	80.8763	840.82	79.8205	840.82	80.3851	840.82	78.392	840.82	81.2044	840.82	79.9731	840.82	82.148	840.82	81.7081	840.82	82.2211	840.82	81.8736	840.82	80.9495	840.82	80.2688	840.82	78.0401	840.82	77.3152	840.82	73.5324	840.82	74.5216	840.82	70.5916	840.82	73.6642	840.82	71.9924	840.82	73.6344	840.82	73.2325
870.85	86.7359	870.85	86.4955	870.85	86.6378	870.85	85.9557	870.85	86.2166	870.85	85.2529	870.85	85.5662	870.85	84.6318	870.85	84.8557	870.85	84.2142	870.85	84.1871	870.85	83.8053	870.85	83.4175	870.85	83.0866	870.85	82.2589	870.85	82.0332	870.85	80.7489	870.85	81.2586	870.85	79.826	870.85	81.2141	870.85	80.3881	870.85	81.2462	870.85	81.2369	870.85	80.5323	870.85	80.9027	870.85	78.5678	870.85	78.6923	870.85	75.0345	870.85	74.0832	870.85	70.8714	870.85	69.2087	870.85	71.1551	870.85	71.9859	870.85	73.4535	870.85	74.23	870.85	74.5585
901.611	86.869	901.611	86.8198	901.611	86.6786	901.611	86.4605	901.611	86.2873	901.611	85.7628	901.611	85.7536	901.611	84.8504	901.611	85.1882	901.611	83.9509	901.611	84.5873	901.611	83.127	901.611	83.6878	901.611	82.1069	901.611	82.1642	901.611	80.775	901.611	80.0453	901.611	80.0422	901.611	78.5176	901.611	80.7743	901.611	79.3436	901.611	81.7127	901.611	80.9014	901.611	81.5544	901.611	81.2749	901.611	79.873	901.611	79.9874	901.611	76.8759	901.611	76.9075	901.611	74.066	901.611	72.8739	901.611	73.7006	901.611	72.5889	901.611	74.6037	901.611	74.4178	901.611	75.0619
933.105	85.8875	933.105	85.6967	933.105	85.8407	933.105	85.3331	933.105	85.5363	933.105	84.8611	933.105	85.1359	933.105	84.3516	933.105	84.8834	933.105	83.8083	933.105	84.6305	933.105	83.0688	933.105	83.7582	933.105	81.7924	933.105	81.6637	933.105	79.6099	933.105	78.2333	933.105	77.0406	933.105	74.4098	933.105	77.334	933.105	74.8718	933.105	79.4657	933.105	78.4415	933.105	80.2243	933.105	79.9668	933.105	78.976	933.105	79.1697	933.105	75.7493	933.105	76.3252	933.105	73.0807	933.105	72.7326	933.105	74.7423	933.105	73.2079	933.105	76.3708	933.105	75.4729	933.105	76.58
966.064	86.4177	966.064	86.4108	966.064	86.0169	966.064	86.0134	966.064	85.2476	966.064	85.2692	966.064	84.3665	966.064	84.3466	966.064	83.7612	966.064	83.5903	966.064	83.4888	966.064	83.2017	966.064	83.0656	966.064	82.7926	966.064	82.1364	966.064	81.673	966.064	80.9932	966.064	79.255	966.064	79.0531	966.064	76.388	966.064	76.7719	966.064	76.4789	966.064	77.2793	966.064	77.6157	966.064	77.9786	966.064	77.2	966.064	77.0645	966.064	74.4456	966.064	74.4179	966.064	70.2187	966.064	71.7887	966.064	71.8929	966.064	73.2083	966.064	74.7482	966.064	75.1925	966.064	75.7461
999.756	85.5825	999.756	85.6977	999.756	85.3589	999.756	85.618	999.756	85.0152	999.756	85.1874	999.756	84.5512	999.756	84.377	999.756	83.992	999.756	83.566	999.756	83.3738	999.756	83.3894	999.756	82.8263	999.756	83.5717	999.756	82.4314	999.756	83.0901	999.756	81.9763	999.756	81.4335	999.756	80.5551	999.756	78.789	999.756	77.9309	999.756	76.5737	999.756	76.2082	999.756	76.2124	999.756	76.0801	999.756	75.4527	999.756	75.4426	999.756	72.7391	999.756	72.86	999.756	68.2864	999.756	68.5478	999.756	68.4138	999.756	69.2832	999.756	71.5841	999.756	72.0753	999.756	72.8355
1034.91	85.7502	1034.91	85.7669	1034.91	85.5715	1034.91	85.6206	1034.91	85.2846	1034.91	85.2185	1034.91	85.0048	1034.91	84.3933	1034.91	84.6065	1034.91	83.0817	1034.91	83.5888	1034.91	81.6042	1034.91	81.6417	1034.91	80.7922	1034.91	79.256	1034.91	80.81	1034.91	77.5727	1034.91	81.0522	1034.91	77.4904	1034.91	81.1207	1034.91	78.9535	1034.91	80.8441	1034.91	80.638	1034.91	80.1119	1034.91	81.2192	1034.91	78.6316	1034.91	79.9489	1034.91	75.9332	1034.91	76.28	1034.91	71.4196	1034.91	70.0617	1034.91	67.1418	1034.91	69.2077	1034.91	69.6469	1034.91	71.7156	1034.91	71.7941
1071.53	86.2748	1071.53	86.2928	1071.53	85.9852	1071.53	86.0409	1071.53	85.5551	1071.53	85.5647	1071.53	85.192	1071.53	84.8188	1071.53	84.74	1071.53	83.5223	1071.53	83.5057	1071.53	81.5034	1071.53	81.2558	1071.53	79.5622	1071.53	79.5987	1071.53	78.4583	1071.53	79.5001	1071.53	77.3205	1071.53	77.6002	1071.53	76.8185	1071.53	71.1305	1071.53	78.6703	1071.53	76.3065	1071.53	79.7943	1071.53	80.1379	1071.53	78.9314	1071.53	80.3039	1071.53	75.679	1071.53	77.3088	1071.53	70.2855	1071.53	70.6613	1071.53	68.0471	1071.53	67.7134	1071.53	69.9017	1071.53	70.7588	1071.53	71.1553
1109.62	86.4947	1109.62	86.6025	1109.62	86.0047	1109.62	86.2203	1109.62	85.3526	1109.62	85.4087	1109.62	84.6848	1109.62	84.3682	1109.62	83.7698	1109.62	83.162	1109.62	82.4836	1109.62	81.8159	1109.62	81.8803	1109.62	81.0005	1109.62	82.7496	1109.62	80.7383	1109.62	83.1611	1109.62	79.5875	1109.62	81.0075	1109.62	76.7591	1109.62	74.8813	1109.62	74.8725	1109.62	67.1251	1109.62	76.7483	1109.62	75.3963	1109.62	77.5225	1109.62	78.0437	1109.62	75.6856	1109.62	76.6506	1109.62	71.2459	1109.62	71.5111	1109.62	66.8218	1109.62	67.6852	1109.62	68.9067	1109.62	70.772	1109.62	71.0996
1148.44	85.3826	1148.44	85.5434	1148.44	85.2188	1148.44	85.6221	1148.44	85.0324	1148.44	85.5164	1148.44	84.6256	1148.44	85.1034	1148.44	83.5999	1148.44	83.9454	1148.44	81.9509	1148.44	81.6552	1148.44	81.0057	1148.44	79.4317	1148.44	82.0736	1148.44	79.2431	1148.44	83.4518	1148.44	79.4338	1148.44	82.9721	1148.44	78.0023	1148.44	80.316	1148.44	75.9162	1148.44	75.7093	1148.44	76.4691	1148.44	74.0802	1148.44	77.2536	1148.44	76.5921	1148.44	75.8567	1148.44	75.7454	1148.44	72.0473	1148.44	71.0701	1148.44	68.7189	1148.44	65.6201	1148.44	70.9242	1148.44	70.4138	1148.44	72.2308
1189.45	86.0692	1189.45	86.0313	1189.45	85.8568	1189.45	85.6308	1189.45	85.6241	1189.45	85.1059	1189.45	85.3671	1189.45	84.7501	1189.45	84.7593	1189.45	84.1183	1189.45	83.6342	1189.45	82.4558	1189.45	82.1042	1189.45	80.2229	1189.45	79.9659	1189.45	79.3967	1189.45	78.6841	1189.45	79.5565	1189.45	79.0181	1189.45	78.1114	1189.45	79.056	1189.45	75.3561	1189.45	77.7698	1189.45	75.2131	1189.45	76.7682	1189.45	75.8891	1189.45	77.5822	1189.45	74.594	1189.45	77.1425	1189.45	71.6447	1189.45	73.5664	1189.45	69.2348	1189.45	68.2291	1189.45	69.9658	1189.45	70.2755	1189.45	71.2591
1231.2	85.4381	1231.2	84.8652	1231.2	85.9827	1231.2	84.5789	1231.2	86.1608	1231.2	84.681	1231.2	85.6456	1231.2	84.7162	1231.2	84.5092	1231.2	84.0119	1231.2	83.4865	1231.2	82.4031	1231.2	82.8129	1231.2	80.5602	1231.2	81.5227	1231.2	79.9524	1231.2	79.6943	1231.2	80.3053	1231.2	78.3011	1231.2	79.3478	1231.2	76.5368	1231.2	76.2667	1231.2	73.8902	1231.2	74.5483	1231.2	75.3541	1231.2	76.3953	1231.2	77.6353	1231.2	75.9528	1231.2	77.3186	1231.2	72.349	1231.2	73.8213	1231.2	69.9301	1231.2	66.8487	1231.2	72.0204	1231.2	69.5846	1231.2	72.509
1274.41	86.3333	1274.41	85.8227	1274.41	86.6338	1274.41	85.2209	1274.41	86.5754	1274.41	84.8954	1274.41	85.8424	1274.41	84.9449	1274.41	84.5204	1274.41	84.5215	1274.41	83.5922	1274.41	82.4892	1274.41	82.9176	1274.41	78.3485	1274.41	80.6115	1274.41	74.1991	1274.41	76.9861	1274.41	76.9617	1274.41	76.3319	1274.41	79.3189	1274.41	77.4484	1274.41	79.2981	1274.41	76.3792	1274.41	77.9677	1274.41	74.7606	1274.41	76.426	1274.41	75.9068	1274.41	75.0185	1274.41	76.0984	1274.41	72.9398	1274.41	73.3652	1274.41	70.194	1274.41	67.9231	1274.41	70.0472	1274.41	68.4129	1274.41	70.6556
1319.82	86.171	1319.82	85.714	1319.82	86.2321	1319.82	84.979	1319.82	85.7914	1319.82	84.2385	1319.82	84.7637	1319.82	83.6337	1319.82	83.7331	1319.82	82.9206	1319.82	83.4612	1319.82	81.9617	1319.82	82.9244	1319.82	80.8281	1319.82	80.9553	1319.82	78.9125	1319.82	78.5516	1319.82	76.0751	1319.82	77.3732	1319.82	74.1498	1319.82	76.7611	1319.82	73.3356	1319.82	74.3298	1319.82	74.9642	1319.82	72.7145	1319.82	76.3103	1319.82	75.6244	1319.82	74.8837	1319.82	76.6161	1319.82	70.7804	1319.82	74.0574	1319.82	67.1196	1319.82	68.8083	1319.82	68.6786	1319.82	69.7542	1319.82	70.6429
1365.97	86.8127	1365.97	86.0607	1365.97	86.727	1365.97	84.8164	1365.97	85.765	1365.97	83.8686	1365.97	84.2567	1365.97	83.5497	1365.97	83.4527	1365.97	83.273	1365.97	83.4725	1365.97	82.4353	1365.97	82.8256	1365.97	80.9868	1365.97	81.3791	1365.97	78.9162	1365.97	80.2048	1365.97	77.6922	1365.97	78.9252	1365.97	77.0919	1365.97	76.7594	1365.97	74.5016	1365.97	74.0625	1365.97	71.6233	1365.97	71.0543	1365.97	74.2721	1365.97	73.2753	1365.97	75.0102	1365.97	75.3448	1365.97	73.1336	1365.97	73.8421	1365.97	70.1945	1365.97	67.8161	1365.97	68.3223	1365.97	66.1067	1365.97	68.1618
1414.31	87.2157	1414.31	86.6923	1414.31	87.0225	1414.31	85.5933	1414.31	85.9928	1414.31	84.2472	1414.31	84.6303	1414.31	83.2975	1414.31	83.9548	1414.31	82.6896	1414.31	83.3814	1414.31	81.6543	1414.31	81.3585	1414.31	80.2353	1414.31	77.9745	1414.31	78.5118	1414.31	74.6996	1414.31	75.6721	1414.31	71.2382	1414.31	75.1003	1414.31	73.7671	1414.31	76.4717	1414.31	77.3249	1414.31	76.1421	1414.31	76.9238	1414.31	75.3829	1414.31	75.4306	1414.31	74.9713	1414.31	75.8427	1414.31	72.5528	1414.31	73.821	1414.31	68.9244	1414.31	69.1815	1414.31	70.047	1414.31	69.2644	1414.31	70.8735
1464.11	86.6424	1464.11	85.9677	1464.11	86.6614	1464.11	84.8894	1464.11	85.9883	1464.11	84.1332	1464.11	84.911	1464.11	83.5285	1464.11	84.0257	1464.11	81.5877	1464.11	82.6135	1464.11	78.9232	1464.11	80.0725	1464.11	78.6227	1464.11	78.738	1464.11	78.4114	1464.11	79.879	1464.11	76.1909	1464.11	78.821	1464.11	74.8081	1464.11	72.9382	1464.11	74.2056	1464.11	63.6964	1464.11	73.9933	1464.11	73.9834	1464.11	75.6071	1464.11	76.2347	1464.11	75.6635	1464.11	76.1551	1464.11	73.5744	1464.11	74.652	1464.11	71.341	1464.11	70.5239	1464.11	70.9985	1464.11	68.6226	1464.11	70.7184
1515.38	85.5851	1515.38	85.273	1515.38	85.5672	1515.38	84.8134	1515.38	84.9409	1515.38	84.1375	1515.38	84.4378	1515.38	83.0527	1515.38	84.5648	1515.38	81.5022	1515.38	83.1056	1515.38	79.9293	1515.38	79.4487	1515.38	78.4549	1515.38	77.9353	1515.38	75.6857	1515.38	79.0877	1515.38	71.2866	1515.38	79.7221	1515.38	73.54	1515.38	78.9254	1515.38	75.6052	1515.38	75.4897	1515.38	73.8467	1515.38	60.968	1515.38	73.601	1515.38	70.4605	1515.38	75.0004	1515.38	74.8312	1515.38	73.3781	1515.38	73.6115	1515.38	68.0022	1515.38	66.7421	1515.38	70.2081	1515.38	66.5831	1515.38	71.6204
1568.85	85.7911	1568.85	85.0874	1568.85	85.8449	1568.85	84.22	1568.85	85.2361	1568.85	83.5618	1568.85	84.8695	1568.85	82.8497	1568.85	84.5209	1568.85	81.4148	1568.85	82.5338	1568.85	79.6247	1568.85	79.9459	1568.85	78.9702	1568.85	79.8749	1568.85	78.2593	1568.85	78.2919	1568.85	76.0425	1568.85	75.0963	1568.85	72.8426	1568.85	75.167	1568.85	67.5227	1568.85	76.2297	1568.85	70.1763	1568.85	73.495	1568.85	73.5777	1568.85	69.4759	1568.85	74.2133	1568.85	73.5628	1568.85	73.437	1568.85	74.4285	1568.85	71.5915	1568.85	70.0829	1568.85	69.7926	1568.85	67.6191	1568.85	70.1917
1624.51	86.0798	1624.51	85.6986	1624.51	85.8134	1624.51	84.9431	1624.51	85.099	1624.51	83.7851	1624.51	84.8532	1624.51	81.9056	1624.51	84.115	1624.51	79.532	1624.51	81.6567	1624.51	78.4868	1624.51	80.6004	1624.51	78.2349	1624.51	80.6247	1624.51	75.1243	1624.51	78.8723	1624.51	72.4797	1624.51	77.3883	1624.51	75.4574	1624.51	76.6707	1624.51	75.8746	1624.51	73.2244	1624.51	70.2408	1624.51	70.3967	1624.51	67.8101	1624.51	69.6508	1624.51	74.2354	1624.51	73.0967	1624.51	74.0144	1624.51	74.189	1624.51	73.0523	1624.51	71.2222	1624.51	73.6763	1624.51	67.6383	1624.51	71.8419
1681.64	86.2827	1681.64	85.8134	1681.64	85.9938	1681.64	84.6343	1681.64	85.3416	1681.64	83.1583	1681.64	84.6759	1681.64	81.5959	1681.64	82.9875	1681.64	79.8722	1681.64	80.8442	1681.64	78.5694	1681.64	81.4065	1681.64	77.3478	1681.64	81.1612	1681.64	76.1384	1681.64	77.6101	1681.64	75.8118	1681.64	75.5996	1681.64	73.0118	1681.64	76.3892	1681.64	68.1706	1681.64	74.698	1681.64	68.8779	1681.64	73.3444	1681.64	70.0843	1681.64	72.48	1681.64	72.4807	1681.64	72.3856	1681.64	72.2802	1681.64	73.1038	1681.64	69.3741	1681.64	71.2908	1681.64	71.6627	1681.64	71.1396	1681.64	72.9162
1740.97	85.9737	1740.97	84.8874	1740.97	86.6421	1740.97	84.1311	1740.97	85.9698	1740.97	83.1764	1740.97	84.3335	1740.97	81.0637	1740.97	82.8717	1740.97	78.3811	1740.97	82.3784	1740.97	77.785	1740.97	82.0471	1740.97	77.3005	1740.97	80.2216	1740.97	74.0401	1740.97	78.4511	1740.97	70.4864	1740.97	78.0454	1740.97	74.3234	1740.97	76.6169	1740.97	76.8138	1740.97	73.6195	1740.97	73.8333	1740.97	70.0847	1740.97	63.0702	1740.97	71.5399	1740.97	72.2248	1740.97	74.5639	1740.97	73.0908	1740.97	74.0633	1740.97	67.3075	1740.97	70.1726	1740.97	68.6338	1740.97	67.8147	1740.97	69.1085
1802.49	85.772	1802.49	84.7779	1802.49	85.8786	1802.49	83.4131	1802.49	85.6126	1802.49	82.2597	1802.49	85.4026	1802.49	80.6428	1802.49	83.9875	1802.49	78.8039	1802.49	82.7716	1802.49	78.5101	1802.49	82.6446	1802.49	78.1699	1802.49	79.1974	1802.49	76.9693	1802.49	74.0597	1802.49	75.7879	1802.49	74.0077	1802.49	72.0798	1802.49	76.2587	1802.49	69.2114	1802.49	77.2503	1802.49	72.3109	1802.49	75.6787	1802.49	67.854	1802.49	70.5518	1802.49	69.8604	1802.49	71.9607	1802.49	71.3218	1802.49	73.2865	1802.49	63.317	1802.49	69.7367	1802.49	69.3023	1802.49	67.9645	1802.49	71.0246
1866.21	87.229	1866.21	86.2005	1866.21	86.6626	1866.21	84.2468	1866.21	85.6854	1866.21	82.876	1866.21	84.7279	1866.21	81.3928	1866.21	83.386	1866.21	79.3678	1866.21	83.6059	1866.21	78.0459	1866.21	82.1011	1866.21	77.3636	1866.21	76.5858	1866.21	76.1583	1866.21	75.9794	1866.21	72.328	1866.21	76.4626	1866.21	71.0103	1866.21	73.7045	1866.21	75.6198	1866.21	71.0088	1866.21	75.6444	1866.21	70.6832	1866.21	70.3246	1866.21	68.7716	1866.21	67.8998	1866.21	70.687	1866.21	70.2687	1866.21	72.1254	1866.21	66.6398	1866.21	69.7377	1866.21	69.0381	1866.21	67.304	1866.21	70.447
1932.13	87.5381	1932.13	86.9671	1932.13	86.6778	1932.13	85.2762	1932.13	85.3301	1932.13	83.6515	1932.13	84.2842	1932.13	82.4025	1932.13	83.6608	1932.13	80.4259	1932.13	82.7611	1932.13	77.825	1932.13	80.0024	1932.13	77.4334	1932.13	78.7648	1932.13	77.398	1932.13	78.9329	1932.13	77.3791	1932.13	73.3781	1932.13	75.8027	1932.13	65.6911	1932.13	67.1198	1932.13	74.5452	1932.13	69.8987	1932.13	75.3352	1932.13	72.7053	1932.13	69.0867	1932.13	71.37	1932.13	66.6565	1932.13	71.3087	1932.13	68.7257	1932.13	68.4684	1932.13	67.9677	1932.13	67.7681	1932.13	69.3243	1932.13	69.5634
2000.24	85.7759	2000.24	85.4282	2000.24	86.0086	2000.24	85.4176	2000.24	85.8164	2000.24	84.3134	2000.24	85.1723	2000.24	82.1486	2000.24	83.4916	2000.24	81.4904	2000.24	81.834	2000.24	80.9663	2000.24	79.5212	2000.24	77.9525	2000.24	77.9004	2000.24	76.0496	2000.24	78.5291	2000.24	74.5147	2000.24	78.9055	2000.24	68.2726	2000.24	78.2622	2000.24	72.2414	2000.24	73.4061	2000.24	74.2785	2000.24	64.3304	2000.24	72.4788	2000.24	68.9081	2000.24	69.6361	2000.24	72.1516	2000.24	70.3769	2000.24	71.5247	2000.24	61.7828	2000.24	61.0206	2000.24	65.187	2000.24	65.3886	2000.24	67.6586
2070.56	85.9363	2070.56	85.243	2070.56	86.1047	2070.56	84.7374	2070.56	85.6198	2070.56	84.2316	2070.56	83.5411	2070.56	83.1399	2070.56	82.2444	2070.56	81.8296	2070.56	81.5826	2070.56	80.2605	2070.56	77.5966	2070.56	78.5083	2070.56	78.6645	2070.56	76.1357	2070.56	77.4902	2070.56	75.8139	2070.56	71.877	2070.56	75.4122	2070.56	73.5933	2070.56	73.0164	2070.56	74.1831	2070.56	72.1485	2070.56	72.8172	2070.56	71.5943	2070.56	70.6152	2070.56	67.7132	2070.56	67.6193	2070.56	64.7782	2070.56	71.8898	2070.56	60.3553	2070.56	70.2249	2070.56	67.2256	2070.56	67.1384	2070.56	72.1415
2143.8	87.5793	2143.8	87.1933	2143.8	86.6641	2143.8	85.9847	2143.8	85.2099	2143.8	84.8742	2143.8	84.1215	2143.8	83.8307	2143.8	83.1898	2143.8	82.7864	2143.8	80.2781	2143.8	81.1206	2143.8	79.6125	2143.8	79.991	2143.8	79.3039	2143.8	79.5942	2143.8	77.1067	2143.8	78.2029	2143.8	74.6958	2143.8	75.7075	2143.8	72.4231	2143.8	66.5764	2143.8	72.6893	2143.8	73.0995	2143.8	70.1059	2143.8	73.4362	2143.8	68.2064	2143.8	70.9716	2143.8	70.4739	2143.8	71.0755	2143.8	72.4502	2143.8	66.9078	2143.8	68.5363	2143.8	70.7279	2143.8	57.9662	2143.8	68.725
2219.24	86.5444	2219.24	86.6038	2219.24	86.577	2219.24	85.7429	2219.24	85.7936	2219.24	84.1488	2219.24	84.2922	2219.24	84.4282	2219.24	83.031	2219.24	83.3471	2219.24	81.5023	2219.24	79.8732	2219.24	79.1144	2219.24	78.2516	2219.24	75.7429	2219.24	76.5539	2219.24	75.8415	2219.24	73.6887	2219.24	75.4777	2219.24	73.7904	2219.24	72.8006	2219.24	72.6503	2219.24	70.7974	2219.24	71.7454	2219.24	69.3094	2219.24	70.6563	2219.24	70.1845	2219.24	69.6538	2219.24	67.6048	2219.24	70.019	2219.24	66.0834	2219.24	60.5102	2219.24	66.253	2219.24	64.5528	2219.24	62.5941	2219.24	70.0255
2297.61	86.0934	2297.61	86.0537	2297.61	85.5469	2297.61	85.6035	2297.61	84.916	2297.61	85.1928	2297.61	84.5212	2297.61	84.6764	2297.61	83.1276	2297.61	83.3121	2297.61	81.5541	2297.61	81.1948	2297.61	78.6122	2297.61	78.8532	2297.61	77.8081	2297.61	77.5928	2297.61	78.1723	2297.61	76.5977	2297.61	74.3635	2297.61	73.0652	2297.61	71.3213	2297.61	70.203	2297.61	72.4268	2297.61	71.7	2297.61	71.1726	2297.61	69.0377	2297.61	67.6404	2297.61	65.0688	2297.61	68.9015	2297.61	68.7734	2297.61	68.9111	2297.61	65.6515	2297.61	67.0237	2297.61	61.3617	2297.61	55.1587	2297.61	66.6935
2378.17	87.7462	2378.17	86.9652	2378.17	86.4276	2378.17	85.287	2378.17	85.5112	2378.17	85.1845	2378.17	84.6454	2378.17	85.0146	2378.17	83.8034	2378.17	83.2067	2378.17	81.7456	2378.17	80.161	2378.17	79.6972	2378.17	79.517	2378.17	79.9739	2378.17	78.6348	2378.17	76.76	2378.17	75.5534	2378.17	74.7212	2378.17	75.5195	2378.17	75.1264	2378.17	72.7601	2378.17	72.139	2378.17	69.9477	2378.17	68.7906	2378.17	70.2807	2378.17	69.8155	2378.17	68.2471	2378.17	66.2909	2378.17	68.059	2378.17	67.8268	2378.17	60.5491	2378.17	64.2589	2378.17	65.7348	2378.17	57.5298	2378.17	65.4279
2462.4	87.2688	2462.4	87.2178	2462.4	86.8054	2462.4	85.8642	2462.4	85.7481	2462.4	85.001	2462.4	84.4333	2462.4	85.0936	2462.4	83.5691	2462.4	83.2249	2462.4	81.7635	2462.4	80.8358	2462.4	80.9054	2462.4	79.4773	2462.4	77.773	2462.4	76.9739	2462.4	75.2552	2462.4	76.3334	2462.4	75.5888	2462.4	75.9164	2462.4	70.3797	2462.4	72.1481	2462.4	68.9046	2462.4	71.0981	2462.4	70.0054	2462.4	72.2949	2462.4	68.4982	2462.4	69.6583	2462.4	67.0176	2462.4	67.4848	2462.4	66.926	2462.4	61.5025	2462.4	65.652	2462.4	60.1214	2462.4	49.9348	2462.4	64.717
2548.83	86.455	2548.83	86.0826	2548.83	86.4139	2548.83	85.7716	2548.83	85.5199	2548.83	85.0304	2548.83	84.5164	2548.83	84.557	2548.83	83.2653	2548.83	83.368	2548.83	81.8162	2548.83	80.6342	2548.83	79.7092	2548.83	78.3645	2548.83	78.082	2548.83	76.5398	2548.83	73.7407	2548.83	75.1343	2548.83	69.1371	2548.83	73.9316	2548.83	69.8361	2548.83	69.998	2548.83	71.8729	2548.83	68.0555	2548.83	68.8066	2548.83	72.828	2548.83	68.3682	2548.83	70.1144	2548.83	67.6187	2548.83	67.1805	2548.83	67.3217	2548.83	60.9846	2548.83	67.3577	2548.83	59.988	2548.83	55.1678	2548.83	64.8702
2638.92	87.4727	2638.92	86.9673	2638.92	86.376	2638.92	85.7579	2638.92	85.8774	2638.92	85.1931	2638.92	85.0828	2638.92	84.5806	2638.92	83.8715	2638.92	83.5838	2638.92	82.4205	2638.92	80.2744	2638.92	79.0348	2638.92	76.2756	2638.92	76.5774	2638.92	75.8992	2638.92	74.3871	2638.92	73.2612	2638.92	74.6526	2638.92	72.2603	2638.92	74.3551	2638.92	70.9944	2638.92	69.6613	2638.92	64.6752	2638.92	69.0603	2638.92	71.152	2638.92	66.5808	2638.92	68.6928	2638.92	69.3301	2638.92	67.5232	2638.92	66.514	2638.92	64.5042	2638.92	65.8549	2638.92	54.9414	2638.92	50.6538	2638.92	61.3555
2731.93	87.1042	2731.93	86.7164	2731.93	86.6333	2731.93	86.0935	2731.93	85.4058	2731.93	85.2874	2731.93	84.6159	2731.93	84.488	2731.93	83.7241	2731.93	83.0971	2731.93	81.6283	2731.93	80.4489	2731.93	78.8876	2731.93	77.4881	2731.93	76.6301	2731.93	75.9921	2731.93	75.4269	2731.93	73.4706	2731.93	73.8052	2731.93	69.6734	2731.93	70.1087	2731.93	68.6455	2731.93	67.4987	2731.93	63.2441	2731.93	68.361	2731.93	67.6409	2731.93	65.2328	2731.93	67.6633	2731.93	67.5191	2731.93	66.1019	2731.93	67.2116	2731.93	62.7086	2731.93	66.9088	2731.93	59.5358	2731.93	54.9018	2731.93	61.8094
2828.61	87.0155	2828.61	86.7304	2828.61	86.6046	2828.61	86.3212	2828.61	86.0695	2828.61	85.4923	2828.61	84.4915	2828.61	84.0671	2828.61	83.0381	2828.61	82.0355	2828.61	81.1316	2828.61	79.2535	2828.61	78.656	2828.61	75.5386	2828.61	77.1874	2828.61	72.1175	2828.61	73.6833	2828.61	71.3168	2828.61	71.025	2828.61	70.3608	2828.61	68.1558	2828.61	66.4589	2828.61	67.3401	2828.61	65.6667	2828.61	67.3589	2828.61	64.9285	2828.61	65.6386	2828.61	64.729	2828.61	66.3654	2828.61	64.363	2828.61	65.5859	2828.61	63.3654	2828.61	63.0302	2828.61	45.7999	2828.61	57.7048	2828.61	54.0245
2928.22	86.9204	2928.22	86.9909	2928.22	86.0409	2928.22	85.7941	2928.22	85.4633	2928.22	84.615	2928.22	84.3391	2928.22	83.6047	2928.22	83.2782	2928.22	80.9601	2928.22	80.3166	2928.22	78.1756	2928.22	77.8893	2928.22	76.5921	2928.22	75.4951	2928.22	73.8625	2928.22	73.8711	2928.22	69.6873	2928.22	70.7108	2928.22	70.5969	2928.22	69.5547	2928.22	68.1657	2928.22	67.1215	2928.22	58.4769	2928.22	67.2224	2928.22	60.0032	2928.22	63.8346	2928.22	64.4957	2928.22	65.8906	2928.22	62.7499	2928.22	64.8198	2928.22	60.73	2928.22	64.2827	2928.22	49.1472	2928.22	59.0845	2928.22	58.4574
3031.49	86.0309	3031.49	85.7324	3031.49	85.952	3031.49	85.4888	3031.49	84.8318	3031.49	84.433	3031.49	83.6957	3031.49	83.332	3031.49	82.1856	3031.49	79.7137	3031.49	79.8006	3031.49	76.2207	3031.49	77.1868	3031.49	76.2068	3031.49	73.452	3031.49	73.323	3031.49	69.6337	3031.49	69.2912	3031.49	69.2071	3031.49	66.6501	3031.49	67.243	3031.49	65.736	3031.49	66.1255	3031.49	65.7494	3031.49	64.777	3031.49	61.4288	3031.49	62.2366	3031.49	63.4593	3031.49	63.6907	3031.49	59.8928	3031.49	64.5305	3031.49	62.1609	3031.49	63.9851	3031.49	50.2039	3031.49	56.3016	3031.49	58.6092
3138.43	85.8431	3138.43	85.75	3138.43	85.2813	3138.43	84.7698	3138.43	84.8199	3138.43	83.6734	3138.43	82.9225	3138.43	82.2867	3138.43	81.6613	3138.43	79.0762	3138.43	78.6205	3138.43	77.6655	3138.43	76.1247	3138.43	75.6562	3138.43	72.3798	3138.43	70.3073	3138.43	69.2173	3138.43	67.2252	3138.43	66.4413	3138.43	64.0959	3138.43	64.2682	3138.43	67.9525	3138.43	64.774	3138.43	58.1962	3138.43	63.4018	3138.43	61.5608	3138.43	62.687	3138.43	63.2552	3138.43	61.4635	3138.43	59.3088	3138.43	61.7909	3138.43	59.8937	3138.43	62.2519	3138.43	54.5859	3138.43	53.4931	3138.43	57.2633
3249.02	85.7672	3249.02	85.8772	3249.02	85.3735	3249.02	84.4455	3249.02	83.8465	3249.02	83.0198	3249.02	82.6549	3249.02	81.945	3249.02	80.9542	3249.02	78.6872	3249.02	78.4504	3249.02	78.3921	3249.02	74.1156	3249.02	75.4702	3249.02	71.6086	3249.02	70.924	3249.02	69.5623	3249.02	68.0478	3249.02	66.9773	3249.02	63.4232	3249.02	65.5672	3249.02	65.669	3249.02	63.7238	3249.02	64.0031	3249.02	62.7295	3249.02	58.9547	3249.02	60.7512	3249.02	62.2158	3249.02	60.526	3249.02	61.821	3249.02	61.8043	3249.02	58.8192	3249.02	61.9247	3249.02	57.4975	3249.02	52.4192	3249.02	60.2622
3363.28	85.3208	3363.28	84.938	3363.28	84.988	3363.28	84.2585	3363.28	84.0447	3363.28	82.8005	3363.28	81.9255	3363.28	81.1373	3363.28	80.4104	3363.28	79.294	3363.28	77.2901	3363.28	78.4559	3363.28	75.168	3363.28	74.2374	3363.28	72.9249	3363.28	66.4128	3363.28	69.1305	3363.28	65.9992	3363.28	66.5552	3363.28	65.351	3363.28	64.6686	3363.28	61.221	3363.28	62.5184	3363.28	62.4911	3363.28	60.4815	3363.28	42.1523	3363.28	61.892	3363.28	61.0791	3363.28	57.6847	3363.28	59.2712	3363.28	61.7351	3363.28	58.966	3363.28	61.869	3363.28	57.2509	3363.28	55.5682	3363.28	59.9669
3481.93	86.433	3481.93	85.7623	3481.93	85.496	3481.93	83.4713	3481.93	83.4333	3481.93	82.6015	3481.93	82.3032	3481.93	81.213	3481.93	80.3764	3481.93	79.433	3481.93	77.1144	3481.93	77.0424	3481.93	74.3499	3481.93	67.5765	3481.93	70.5024	3481.93	62.6912	3481.93	68.4573	3481.93	60.7522	3481.93	66.0062	3481.93	65.4591	3481.93	64.9471	3481.93	64.2722	3481.93	62.3437	3481.93	62.5311	3481.93	60.1247	3481.93	58.9707	3481.93	60.4762	3481.93	57.0298	3481.93	57.4315	3481.93	60.389	3481.93	61.8382	3481.93	57.6787	3481.93	59.0982	3481.93	52.1604	3481.93	54.3047	3481.93	57.9764
3604.98	85.2298	3604.98	85.4956	3604.98	85.2382	3604.98	84.4128	3604.98	83.7117	3604.98	82.5275	3604.98	82.2042	3604.98	81.1528	3604.98	80.4705	3604.98	79.5661	3604.98	77.5318	3604.98	74.8055	3604.98	74.6391	3604.98	63.1374	3604.98	70.0814	3604.98	64.2184	3604.98	67.6773	3604.98	61.285	3604.98	67.0791	3604.98	63.2891	3604.98	64.4601	3604.98	62.5315	3604.98	62.1639	3604.98	65.1561	3604.98	60.4955	3604.98	61.0634	3604.98	61.2725	3604.98	57.3207	3604.98	59.7787	3604.98	60.8058	3604.98	61.195	3604.98	60.6133	3604.98	58.5453	3604.98	50.6138	3604.98	54.3077	3604.98	58.5463
3732.42	85.7558	3732.42	85.155	3732.42	84.826	3732.42	83.9794	3732.42	83.5031	3732.42	82.672	3732.42	82.2671	3732.42	81.3273	3732.42	80.2339	3732.42	79.2342	3732.42	77.1574	3732.42	69.9414	3732.42	72.8672	3732.42	67.6764	3732.42	71.2383	3732.42	65.144	3732.42	67.9806	3732.42	63.0548	3732.42	65.7637	3732.42	60.3745	3732.42	64.0767	3732.42	60.4307	3732.42	63.048	3732.42	64.4285	3732.42	62.1985	3732.42	61.5594	3732.42	60.8807	3732.42	58.2198	3732.42	58.8031	3732.42	56.7138	3732.42	61.2961	3732.42	58.0926	3732.42	61.2264	3732.42	51.0587	3732.42	56.6925	3732.42	59.0384
3863.53	85.1061	3863.53	85.6764	3863.53	85.0926	3863.53	84.9769	3863.53	84.0614	3863.53	83.0975	3863.53	82.4766	3863.53	81.3682	3863.53	80.6894	3863.53	79.0255	3863.53	76.3534	3863.53	69.575	3863.53	73.7964	3863.53	71.6759	3863.53	70.6612	3863.53	68.6521	3863.53	68.2704	3863.53	64.9493	3863.53	66.2077	3863.53	62.5333	3863.53	64.3155	3863.53	61.4421	3863.53	63.8963	3863.53	64.3526	3863.53	61.0165	3863.53	62.0354	3863.53	61.0917	3863.53	60.3817	3863.53	60.1278	3863.53	56.2577	3863.53	60.2234	3863.53	57.7747	3863.53	60.6333	3863.53	56.5381	3863.53	52.3107	3863.53	57.3279
3999.76	86.1533	3999.76	85.702	3999.76	85.639	3999.76	85.1247	3999.76	83.9266	3999.76	82.7431	3999.76	82.2677	3999.76	82.4068	3999.76	79.9869	3999.76	77.8695	3999.76	76.4534	3999.76	71.6921	3999.76	72.7099	3999.76	74.9146	3999.76	68.1508	3999.76	72.0866	3999.76	66.6233	3999.76	68.7106	3999.76	64.5288	3999.76	63.5971	3999.76	63.5578	3999.76	59.8429	3999.76	62.5412	3999.76	63.2526	3999.76	62.6503	3999.76	62.0617	3999.76	60.9307	3999.76	60.4235	3999.76	59.0273	3999.76	60.6659	3999.76	61.1774	3999.76	59.3186	3999.76	60.6374	3999.76	45.7609	3999.76	56.8548	3999.76	54.9749
4141.11	86.3472	4141.11	85.4588	4141.11	86.0064	4141.11	84.8578	4141.11	84.2523	4141.11	82.5393	4141.11	82.4152	4141.11	82.6932	4141.11	80.1326	4141.11	75.9431	4141.11	76.2573	4141.11	73.5967	4141.11	73.0714	4141.11	74.0089	4141.11	71.1416	4141.11	72.6427	4141.11	69.1383	4141.11	68.5311	4141.11	66.6842	4141.11	65.6331	4141.11	65.0104	4141.11	64.0149	4141.11	62.7638	4141.11	61.1857	4141.11	63.4466	4141.11	60.7164	4141.11	63.3645	4141.11	60.0188	4141.11	56.5577	4141.11	60.7837	4141.11	62.6768	4141.11	58.7142	4141.11	58.7979	4141.11	45.8274	4141.11	51.5526	4141.11	59.4143
4286.87	86.569	4286.87	85.6628	4286.87	85.6354	4286.87	84.5862	4286.87	84.1021	4286.87	82.89	4286.87	82.6624	4286.87	82.342	4286.87	80.1751	4286.87	72.0496	4286.87	75.8693	4286.87	76.6467	4286.87	73.8283	4286.87	74.7412	4286.87	71.2583	4286.87	72.9273	4286.87	69.7461	4286.87	70.3702	4286.87	67.7625	4286.87	65.1761	4286.87	66.3684	4286.87	62.1372	4286.87	62.8181	4286.87	65.2786	4286.87	62.4387	4286.87	61.3374	4286.87	60.7569	4286.87	62.4745	4286.87	58.5111	4286.87	57.9363	4286.87	61.2687	4286.87	59.4286	4286.87	56.8922	4286.87	48.2178	4286.87	50.2115	4286.87	60.3218
4438.48	86.0472	4438.48	85.5198	4438.48	85.1369	4438.48	83.8977	4438.48	84.5695	4438.48	83.5035	4438.48	82.3859	4438.48	81.7609	4438.48	80.4022	4438.48	70.0044	4438.48	77.3251	4438.48	77.3086	4438.48	74.8342	4438.48	73.1351	4438.48	72.2605	4438.48	73.7445	4438.48	69.6668	4438.48	71.4262	4438.48	66.8777	4438.48	68.0062	4438.48	65.9614	4438.48	61.6347	4438.48	62.6247	4438.48	63.6248	4438.48	64.5311	4438.48	65.8122	4438.48	61.1814	4438.48	58.6657	4438.48	60.7056	4438.48	58.7532	4438.48	62.841	4438.48	60.5473	4438.48	59.0747	4438.48	38.2684	4438.48	57.4372	4438.48	59.2071
4594.48	86.1804	4594.48	85.9607	4594.48	85.9354	4594.48	83.7021	4594.48	84.2773	4594.48	84.4374	4594.48	82.8528	4594.48	80.5252	4594.48	80.7202	4594.48	75.7475	4594.48	77.579	4594.48	76.4674	4594.48	75.2692	4594.48	73.7355	4594.48	73.5528	4594.48	71.1973	4594.48	69.4982	4594.48	72.7444	4594.48	68.2426	4594.48	68.5175	4594.48	66.6741	4594.48	62.3798	4594.48	64.2402	4594.48	57.5612	4594.48	63.5386	4594.48	62.7573	4594.48	61.6403	4594.48	64.0744	4594.48	60.1717	4594.48	59.9252	4594.48	63.1576	4594.48	58.575	4594.48	61.6226	4594.48	55.3931	4594.48	60.5461	4594.48	56.3637
4757.08	86.214	4757.08	86.325	4757.08	86.3556	4757.08	84.0331	4757.08	84.858	4757.08	84.9111	4757.08	82.932	4757.08	78.6049	4757.08	80.9746	4757.08	78.774	4757.08	77.9985	4757.08	75.8132	4757.08	75.6844	4757.08	73.5336	4757.08	73.2773	4757.08	70.5265	4757.08	71.5919	4757.08	70.1199	4757.08	68.0197	4757.08	69.4489	4757.08	65.4007	4757.08	67.7147	4757.08	64.951	4757.08	61.665	4757.08	62.9753	4757.08	62.6628	4757.08	62.0131	4757.08	64.6133	4757.08	61.8354	4757.08	60.5906	4757.08	61.9949	4757.08	59.7411	4757.08	58.9966	4757.08	51.6076	4757.08	60.0761	4757.08	55.587
4924.8	86.5191	4924.8	86.9528	4924.8	86.8184	4924.8	84.5061	4924.8	84.8759	4924.8	84.6994	4924.8	83.007	4924.8	77.5414	4924.8	80.298	4924.8	79.8825	4924.8	78.0626	4924.8	74.5652	4924.8	75.2845	4924.8	73.1973	4924.8	73.3873	4924.8	65.9777	4924.8	68.9429	4924.8	66.79	4924.8	67.2694	4924.8	66.5915	4924.8	65.3794	4924.8	69.148	4924.8	62.6305	4924.8	61.1813	4924.8	62.1101	4924.8	63.3376	4924.8	61.395	4924.8	58.4253	4924.8	61.5037	4924.8	64.2648	4924.8	60.931	4924.8	59.5672	4924.8	59.469	4924.8	38.2344	4924.8	56.4571	4924.8	57.9589
5098.39	86.63	5098.39	86.5486	5098.39	86.4116	5098.39	85.2298	5098.39	84.2067	5098.39	83.9758	5098.39	82.6038	5098.39	79.4535	5098.39	80.7857	5098.39	80.8488	5098.39	78.022	5098.39	76.0835	5098.39	76.0084	5098.39	73.6342	5098.39	72.3311	5098.39	68.9881	5098.39	70.778	5098.39	64.9294	5098.39	67.8119	5098.39	62.5949	5098.39	65.6482	5098.39	64.1789	5098.39	64.5367	5098.39	65.2032	5098.39	61.4365	5098.39	57.0417	5098.39	60.6847	5098.39	53.7677	5098.39	62.2068	5098.39	64.3664	5098.39	62.0592	5098.39	55.6175	5098.39	61.746	5098.39	51.7485	5098.39	59.8259	5098.39	53.9864
5277.83	87.1123	5277.83	87.0096	5277.83	86.1401	5277.83	84.9326	5277.83	84.1094	5277.83	82.9115	5277.83	82.73	5277.83	81.0211	5277.83	81.0051	5277.83	81.14	5277.83	78.4643	5277.83	76.8327	5277.83	75.7353	5277.83	72.8828	5277.83	73.3867	5277.83	69.4481	5277.83	69.7996	5277.83	66.6351	5277.83	66.4932	5277.83	64.7868	5277.83	65.5098	5277.83	62.2712	5277.83	62.1863	5277.83	62.2763	5277.83	61.6857	5277.83	59.3717	5277.83	60.1616	5277.83	60.1342	5277.83	61.6759	5277.83	56.6189	5277.83	57.9805	5277.83	58.4615	5277.83	62.5172	5277.83	52.4869	5277.83	57.7886	5277.83	52.9602
5463.87	86.8018	5463.87	86.71	5463.87	86.408	5463.87	84.7649	5463.87	84.6135	5463.87	82.531	5463.87	83.1981	5463.87	82.4503	5463.87	81.5233	5463.87	80.9702	5463.87	78.7854	5463.87	77.379	5463.87	76.4346	5463.87	72.636	5463.87	72.613	5463.87	71.1413	5463.87	69.7945	5463.87	65.2612	5463.87	67.6331	5463.87	65.6035	5463.87	65.2153	5463.87	60.7871	5463.87	64.0361	5463.87	62.0573	5463.87	61.0943	5463.87	59.9576	5463.87	60.3013	5463.87	57.1627	5463.87	60.6865	5463.87	58.1217	5463.87	59.5306	5463.87	60.5951	5463.87	63.0648	5463.87	57.9241	5463.87	53.6979	5463.87	49.7881
5656.49	86.7274	5656.49	87.1895	5656.49	86.9203	5656.49	84.9344	5656.49	85.1224	5656.49	82.4771	5656.49	83.3506	5656.49	83.3187	5656.49	81.6886	5656.49	80.8919	5656.49	79.2391	5656.49	76.5042	5656.49	76.2271	5656.49	73.4745	5656.49	73.804	5656.49	70.8035	5656.49	70.6311	5656.49	67.8346	5656.49	66.9655	5656.49	66.0883	5656.49	65.8807	5656.49	63.1422	5656.49	62.8087	5656.49	58.2915	5656.49	60.805	5656.49	58.5064	5656.49	61.4283	5656.49	57.5298	5656.49	57.9846	5656.49	58.871	5656.49	60.5481	5656.49	56.6245	5656.49	63.5319	5656.49	51.9784	5656.49	56.1312	5656.49	53.2119
5856.45	87.0495	5856.45	86.9854	5856.45	86.8257	5856.45	85.1052	5856.45	84.5348	5856.45	82.8558	5856.45	83.3175	5856.45	84.1807	5856.45	81.9015	5856.45	80.7442	5856.45	79.3538	5856.45	76.5682	5856.45	76.4042	5856.45	72.738	5856.45	72.9021	5856.45	69.8265	5856.45	69.0863	5856.45	69.0487	5856.45	68.0552	5856.45	62.7529	5856.45	63.1146	5856.45	66.0095	5856.45	62.9103	5856.45	61.7163	5856.45	60.5612	5856.45	60.7424	5856.45	59.9497	5856.45	56.6596	5856.45	59.6495	5856.45	58.1443	5856.45	60.9726	5856.45	58.5626	5856.45	61.041	5856.45	41.3333	5856.45	59.3633	5856.45	50.6706
6062.99	87.4234	6062.99	86.8274	6062.99	86.5582	6062.99	85.1755	6062.99	84.2752	6062.99	82.9519	6062.99	83.6731	6062.99	84.2653	6062.99	82.017	6062.99	79.6652	6062.99	79.3558	6062.99	76.254	6062.99	75.5385	6062.99	73.3209	6062.99	72.5977	6062.99	69.9405	6062.99	69.5916	6062.99	68.5973	6062.99	67.8087	6062.99	63.7597	6062.99	65.0073	6062.99	60.6295	6062.99	63.0081	6062.99	61.9906	6062.99	62.2194	6062.99	58.9821	6062.99	59.3132	6062.99	62.1376	6062.99	59.8717	6062.99	60.4425	6062.99	61.167	6062.99	57.8362	6062.99	59.8052	6062.99	46.271	6062.99	54.5769	6062.99	49.9023
6276.86	87.4195	6276.86	86.3385	6276.86	86.6268	6276.86	84.7276	6276.86	85.1281	6276.86	83.6085	6276.86	83.3976	6276.86	83.9837	6276.86	82.1948	6276.86	77.9705	6276.86	79.1225	6276.86	76.6792	6276.86	75.2654	6276.86	71.668	6276.86	72.7906	6276.86	70.9461	6276.86	69.5099	6276.86	68.2834	6276.86	68.0316	6276.86	65.5227	6276.86	64.6861	6276.86	65.5389	6276.86	63.1603	6276.86	61.8747	6276.86	62.214	6276.86	63.3704	6276.86	59.0807	6276.86	59.0146	6276.86	61.5787	6276.86	60.1733	6276.86	60.1878	6276.86	56.607	6276.86	57.7977	6276.86	55.7724	6276.86	55.2127	6276.86	52.5849
6498.05	86.797	6498.05	86.2625	6498.05	86.57	6498.05	84.3968	6498.05	84.3077	6498.05	84.2189	6498.05	83.2468	6498.05	83.054	6498.05	82.4581	6498.05	77.6358	6498.05	79.0311	6498.05	77.2605	6498.05	75.8105	6498.05	72.4541	6498.05	72.9152	6498.05	70.4759	6498.05	70.7174	6498.05	68.4628	6498.05	68.0085	6498.05	67.4796	6498.05	65.6068	6498.05	62.7548	6498.05	63.0822	6498.05	61.2111	6498.05	62.8922	6498.05	59.0303	6498.05	60.6296	6498.05	59.5566	6498.05	61.3154	6498.05	59.2318	6498.05	62.0771	6498.05	55.3606	6498.05	59.691	6498.05	57.4503	6498.05	58.8163	6498.05	57.968
6727.29	86.8248	6727.29	87.0194	6727.29	86.2958	6727.29	83.5877	6727.29	83.873	6727.29	84.9732	6727.29	84.0575	6727.29	81.5565	6727.29	82.2175	6727.29	78.2092	6727.29	78.7377	6727.29	76.1739	6727.29	76.0402	6727.29	73.3538	6727.29	73.7497	6727.29	71.2405	6727.29	71.5524	6727.29	68.9001	6727.29	68.5259	6727.29	67.4559	6727.29	65.6597	6727.29	66.0436	6727.29	64.0644	6727.29	63.0953	6727.29	60.8325	6727.29	58.6242	6727.29	60.172	6727.29	61.6452	6727.29	61.6865	6727.29	61.095	6727.29	60.7227	6727.29	58.1643	6727.29	60.2179	6727.29	54.288	6727.29	58.628	6727.29	56.9379
6964.6	86.9706	6964.6	86.5878	6964.6	86.3195	6964.6	83.6672	6964.6	84.8705	6964.6	85.3099	6964.6	83.8182	6964.6	81.1873	6964.6	81.8651	6964.6	78.7755	6964.6	78.3939	6964.6	74.2608	6964.6	76.4393	6964.6	74.1299	6964.6	73.5273	6964.6	70.5082	6964.6	70.8765	6964.6	67.7529	6964.6	67.416	6964.6	63.2711	6964.6	64.3472	6964.6	65.7693	6964.6	62.4182	6964.6	62.8124	6964.6	60.2196	6964.6	61.7321	6964.6	58.5838	6964.6	54.3046	6964.6	60.3559	6964.6	58.5843	6964.6	59.0257	6964.6	59.2517	6964.6	61.4611	6964.6	47.3764	6964.6	54.9407	6964.6	48.5123
7209.96	86.4524	7209.96	85.9846	7209.96	85.9682	7209.96	84.3638	7209.96	84.0671	7209.96	84.5183	7209.96	83.4323	7209.96	81.1643	7209.96	81.3241	7209.96	78.1596	7209.96	78.247	7209.96	74.3887	7209.96	75.9741	7209.96	75.0752	7209.96	74.0465	7209.96	70.4712	7209.96	70.2089	7209.96	66.1125	7209.96	65.9356	7209.96	63.407	7209.96	63.5064	7209.96	61.4513	7209.96	62.3985	7209.96	64.1602	7209.96	58.3437	7209.96	60.5619	7209.96	59.6753	7209.96	59.6215	7209.96	59.6484	7209.96	62.0186	7209.96	55.8268	7209.96	55.0212	7209.96	60.7266	7209.96	56.278	7209.96	56.2456	7209.96	48.9437
7464.11	85.7533	7464.11	85.8089	7464.11	85.9014	7464.11	85.0927	7464.11	84.4267	7464.11	83.7257	7464.11	83.3056	7464.11	81.8711	7464.11	80.4613	7464.11	76.6113	7464.11	78.5786	7464.11	77.5252	7464.11	76.6556	7464.11	75.234	7464.11	73.1807	7464.11	69.773	7464.11	70.1841	7464.11	66.0562	7464.11	67.1623	7464.11	62.1021	7464.11	63.9609	7464.11	62.2137	7464.11	61.9815	7464.11	58.4752	7464.11	58.0327	7464.11	59.4391	7464.11	60.3867	7464.11	58.0533	7464.11	59.3984	7464.11	54.5678	7464.11	53.9522	7464.11	55.2712	7464.11	59.1295	7464.11	55.0858	7464.11	55.3352	7464.11	51.9684
7727.78	85.579	7727.78	86.6514	7727.78	86.2701	7727.78	85.2025	7727.78	85.1372	7727.78	82.9785	7727.78	82.4671	7727.78	81.5411	7727.78	80.8363	7727.78	77.3784	7727.78	78.643	7727.78	80.1855	7727.78	76.3093	7727.78	73.855	7727.78	72.7819	7727.78	70.6156	7727.78	68.1226	7727.78	64.5732	7727.78	65.5035	7727.78	63.628	7727.78	63.023	7727.78	56.8435	7727.78	60.5463	7727.78	61.0172	7727.78	59.1339	7727.78	58.4373	7727.78	59.4027	7727.78	56.0377	7727.78	57.0855	7727.78	60.0905	7727.78	56.9189	7727.78	50.6362	7727.78	58.9011	7727.78	54.7871	7727.78	57.3491	7727.78	48.8927
8000.24	86.7154	8000.24	86.4657	8000.24	86.1017	8000.24	85.1889	8000.24	84.485	8000.24	83.226	8000.24	82.7067	8000.24	80.5882	8000.24	80.6369	8000.24	80.2543	8000.24	78.8014	8000.24	80.1379	8000.24	75.6126	8000.24	69.6327	8000.24	71.8788	8000.24	69.5026	8000.24	69.1536	8000.24	66.4502	8000.24	65.0624	8000.24	62.251	8000.24	62.5829	8000.24	60.0138	8000.24	59.2321	8000.24	52.5591	8000.24	60.0125	8000.24	57.3616	8000.24	56.3586	8000.24	54.7203	8000.24	55.6674	8000.24	54.9429	8000.24	57.1575	8000.24	54.6297	8000.24	59.6055	8000.24	49.7111	8000.24	55.29	8000.24	50.8726
8282.23	86.782	8282.23	86.1723	8282.23	87.0007	8282.23	84.2657	8282.23	84.8856	8282.23	83.6781	8282.23	82.2061	8282.23	79.6839	8282.23	80.4471	8282.23	81.7681	8282.23	78.6256	8282.23	76.8859	8282.23	75.436	8282.23	69.175	8282.23	71.4973	8282.23	66.9972	8282.23	67.8293	8282.23	65.8236	8282.23	64.3891	8282.23	61.5232	8282.23	60.6278	8282.23	56.6638	8282.23	58.5031	8282.23	59.5013	8282.23	57.8632	8282.23	55.3126	8282.23	53.8169	8282.23	49.765	8282.23	54.7385	8282.23	52.3755	8282.23	57.6252	8282.23	52.4558	8282.23	58.4432	8282.23	50.5921	8282.23	54.7455	8282.23	42.8147
8574.46	87.1078	8574.46	87.2185	8574.46	87.1535	8574.46	84.6364	8574.46	84.4133	8574.46	83.6572	8574.46	82.6952	8574.46	80.6489	8574.46	81.1717	8574.46	81.0033	8574.46	78.4401	8574.46	68.8309	8574.46	74.4437	8574.46	70.4638	8574.46	70.1614	8574.46	63.9128	8574.46	66.4281	8574.46	60.6973	8574.46	62.9371	8574.46	57.0117	8574.46	59.1184	8574.46	59.279	8574.46	57.8312	8574.46	55.1215	8574.46	54.1906	8574.46	50.3521	8574.46	54.6537	8574.46	54.773	8574.46	54.2272	8574.46	53.9857	8574.46	55.4455	8574.46	49.7116	8574.46	60.277	8574.46	48.6658	8574.46	54.0926	8574.46	44.2998
8876.22	87.457	8876.22	87.7892	8876.22	86.7728	8876.22	85.0701	8876.22	84.9967	8876.22	82.7622	8876.22	83.3519	8876.22	82.5366	8876.22	81.9019	8876.22	79.6899	8876.22	78.8442	8876.22	71.0336	8876.22	75.0876	8876.22	72.89	8876.22	71.136	8876.22	68.3222	8876.22	68.5222	8876.22	62.554	8876.22	64.6256	8876.22	61.1364	8876.22	60.8774	8876.22	58.33	8876.22	59.0932	8876.22	57.6559	8876.22	55.2535	8876.22	54.8814	8876.22	57.1891	8876.22	51.9643	8876.22	56.9172	8876.22	55.7441	8876.22	56.8958	8876.22	52.0997	8876.22	57.9462	8876.22	50.7587	8876.22	48.2803	8876.22	54.2995
9189.7	86.1363	9189.7	87.4001	9189.7	87.0718	9189.7	83.7358	9189.7	84.1923	9189.7	81.8728	9189.7	82.8483	9189.7	83.4679	9189.7	81.9929	9189.7	76.3518	9189.7	79.1514	9189.7	77.0255	9189.7	75.6921	9189.7	71.7625	9189.7	72.0484	9189.7	68.7935	9189.7	67.8951	9189.7	63.3057	9189.7	63.9924	9189.7	61.8881	9189.7	61.2949	9189.7	60.7035	9189.7	58.6614	9189.7	56.5819	9189.7	56.7962	9189.7	56.8968	9189.7	57.0794	9189.7	55.3421	9189.7	56.4736	9189.7	55.9683	9189.7	53.0706	9189.7	50.7639	9189.7	56.3771	9189.7	49.6346	9189.7	54.8217	9189.7	35.8607
9513.43	86.2414	9513.43	86.1714	9513.43	86.6799	9513.43	81.9125	9513.43	84.2771	9513.43	82.809	9513.43	83.2481	9513.43	83.4704	9513.43	81.6767	9513.43	75.8037	9513.43	78.7001	9513.43	78.0356	9513.43	74.9279	9513.43	68.1824	9513.43	70.8586	9513.43	65.655	9513.43	65.9833	9513.43	61.4838	9513.43	61.6852	9513.43	58.1182	9513.43	59.1735	9513.43	54.2859	9513.43	55.5422	9513.43	54.6173	9513.43	56.5821	9513.43	53.386	9513.43	53.9226	9513.43	54.1834	9513.43	53.8341	9513.43	53.5945	9513.43	53.6027	9513.43	56.0642	9513.43	50.3602	9513.43	53.7648	9513.43	51.313	9513.43	47.4954
9848.88	86.8988	9848.88	86.415	9848.88	86.7545	9848.88	83.4279	9848.88	84.2871	9848.88	84.3379	9848.88	83.0145	9848.88	82.4793	9848.88	81.5337	9848.88	78.1546	9848.88	78.5619	9848.88	76.9349	9848.88	74.0879	9848.88	68.3661	9848.88	69.2477	9848.88	66.1599	9848.88	65.2525	9848.88	61.6064	9848.88	62.3586	9848.88	58.8162	9848.88	58.5619	9848.88	57.0457	9848.88	55.8367	9848.88	55.4284	9848.88	57.4361	9848.88	54.5444	9848.88	52.6802	9848.88	51.1529	9848.88	50.2115	9848.88	49.7751	9848.88	51.1378	9848.88	57.1165	9848.88	54.9341	9848.88	54.249	9848.88	58.0371	9848.88	53.5804
10196.8	86.183	10196.8	86.7432	10196.8	86.5734	10196.8	85.8856	10196.8	84.5289	10196.8	84.8192	10196.8	83.5842	10196.8	81.368	10196.8	81.6092	10196.8	80.0838	10196.8	78.7705	10196.8	73.7783	10196.8	74.6706	10196.8	71.5012	10196.8	69.0723	10196.8	67.2294	10196.8	66.2589	10196.8	62.8682	10196.8	62.1879	10196.8	60.8447	10196.8	58.77	10196.8	57.3562	10196.8	58.0862	10196.8	56.8447	10196.8	56.1969	10196.8	51.8105	10196.8	52.0557	10196.8	53.7419	10196.8	50.9498	10196.8	41.2922	10196.8	55.9818	10196.8	58.017	10196.8	59.1039	10196.8	45.9121	10196.8	58.5302	10196.8	56.7463
10556.4	85.7943	10556.4	86.7182	10556.4	86.736	10556.4	85.6741	10556.4	84.3598	10556.4	84.3504	10556.4	83.5286	10556.4	80.7396	10556.4	81.8287	10556.4	80.3271	10556.4	79.0241	10556.4	73.0189	10556.4	74.9401	10556.4	72.52	10556.4	70.2803	10556.4	68.1325	10556.4	67.149	10556.4	63.618	10556.4	63.0775	10556.4	60.3116	10556.4	59.2888	10556.4	59.3574	10556.4	58.7769	10556.4	54.2604	10556.4	53.4834	10556.4	55.2307	10556.4	53.3056	10556.4	54.6293	10556.4	53.8969	10556.4	51.8625	10556.4	56.5013	10556.4	57.6934	10556.4	60.6367	10556.4	53.7268	10556.4	56.6152	10556.4	53.3211
10928.5	86.5179	10928.5	86.0419	10928.5	85.9848	10928.5	83.786	10928.5	84.5101	10928.5	83.8179	10928.5	83.5611	10928.5	81.2756	10928.5	81.8116	10928.5	79.235	10928.5	78.9667	10928.5	74.876	10928.5	75.1228	10928.5	69.3524	10928.5	70.2557	10928.5	64.746	10928.5	67.1215	10928.5	57.9344	10928.5	62.6904	10928.5	60.2043	10928.5	60.7832	10928.5	53.6493	10928.5	57.8259	10928.5	58.8701	10928.5	54.5614	10928.5	54.5709	10928.5	55.9827	10928.5	48.3584	10928.5	54.9325	10928.5	55.7837	10928.5	55.2189	10928.5	57.8871	10928.5	58.1131	10928.5	51.1037	10928.5	56.3451	10928.5	52.3796
11313.7	86.4971	11313.7	85.6541	11313.7	86.3127	11313.7	83.3416	11313.7	84.4155	11313.7	83.9408	11313.7	83.6187	11313.7	81.9406	11313.7	81.7407	11313.7	77.5188	11313.7	78.7876	11313.7	74.7357	11313.7	74.4902	11313.7	67.2762	11313.7	70.7272	11313.7	65.7792	11313.7	66.9434	11313.7	58.7196	11313.7	62.2708	11313.7	59.8616	11313.7	60.0874	11313.7	54.5783	11313.7	56.3367	11313.7	53.4089	11313.7	55.3946	11313.7	48.7267	11313.7	54.9718	11313.7	52.7078	11313.7	54.4428	11313.7	55.046	11313.7	53.4991	11313.7	53.4817	11313.7	55.1102	11313.7	47.5185	11313.7	50.3176	11313.7	48.9202
11712.9	87	11712.9	86.3154	11712.9	86.2199	11712.9	84.0274	11712.9	84.2733	11712.9	84.0352	11712.9	83.5609	11712.9	81.3146	11712.9	81.2962	11712.9	77.0895	11712.9	77.7645	11712.9	73.3885	11712.9	73.8316	11712.9	70.3261	11712.9	69.5336	11712.9	67.3024	11712.9	65.2104	11712.9	61.7341	11712.9	60.5433	11712.9	58.3492	11712.9	58.2934	11712.9	55.5736	11712.9	53.3529	11712.9	55.559	11712.9	54.1194	11712.9	51.8488	11712.9	53.1784	11712.9	45.7326	11712.9	50.3944	11712.9	52.6201	11712.9	52.2928	11712.9	52.1354	11712.9	57.0612	11712.9	46.1101	11712.9	45.9579	11712.9	44.0785
12126	86.7951	12126	86.7152	12126	86.432	12126	84.4178	12126	84.4753	12126	83.6973	12126	83.14	12126	81.0666	12126	80.9224	12126	77.1823	12126	77.035	12126	73.2037	12126	72.8687	12126	69.0912	12126	68.0487	12126	63.2358	12126	63.332	12126	58.7167	12126	59.6651	12126	52.994	12126	55.7182	12126	56.3324	12126	52.7042	12126	47.8035	12126	52.7538	12126	53.6324	12126	51.1051	12126	48.0522	12126	48.4611	12126	46.9362	12126	51.7788	12126	51.8527	12126	54.9008	12126	48.6864	12126	47.4893	12126	44.0386
12553.7	86.7679	12553.7	86.1174	12553.7	85.9633	12553.7	84.3075	12553.7	84.0148	12553.7	82.9581	12553.7	83.0796	12553.7	81.3792	12553.7	80.7335	12553.7	77.5816	12553.7	76.8163	12553.7	73.391	12553.7	72.8217	12553.7	67.1787	12553.7	67.9271	12553.7	63.577	12553.7	63.9129	12553.7	60.222	12553.7	59.1021	12553.7	58.583	12553.7	57.0143	12553.7	55.1296	12553.7	52.8687	12553.7	48.6897	12553.7	52.1325	12553.7	51.1836	12553.7	50.6583	12553.7	51.1083	12553.7	49.6065	12553.7	47.729	12553.7	52.0919	12553.7	57.448	12553.7	54.109	12553.7	53.6717	12553.7	55.1647	12553.7	49.0881
12996.1	86.7634	12996.1	86.1816	12996.1	86.2104	12996.1	84.3758	12996.1	84.5307	12996.1	83.3195	12996.1	83.546	12996.1	81.1921	12996.1	81.1007	12996.1	77.4693	12996.1	78.0229	12996.1	72.2069	12996.1	73.6035	12996.1	68.4532	12996.1	68.7359	12996.1	64.4777	12996.1	65.0443	12996.1	58.43	12996.1	59.6833	12996.1	58.3409	12996.1	57.6935	12996.1	47.2155	12996.1	52.2491	12996.1	55.4355	12996.1	51.4277	12996.1	54.0832	12996.1	52.8985	12996.1	51.5081	12996.1	51.1452	12996.1	49.2722	12996.1	54.4159	12996.1	53.9911	12996.1	55.4004	12996.1	50.4181	12996.1	54.6513	12996.1	50.2399
13454.6	86.8195	13454.6	86.6234	13454.6	86.3577	13454.6	84.387	13454.6	84.8692	13454.6	83.8901	13454.6	83.7548	13454.6	80.7261	13454.6	80.643	13454.6	76.3623	13454.6	77.7652	13454.6	72.7407	13454.6	73.1732	13454.6	69.4146	13454.6	68.418	13454.6	63.5895	13454.6	65.3312	13454.6	60.4477	13454.6	59.2563	13454.6	52.5926	13454.6	57.6992	13454.6	50.9018	13454.6	53.0862	13454.6	56.9916	13454.6	52.1065	13454.6	52.9208	13454.6	53.3285	13454.6	49.6825	13454.6	50.7399	13454.6	53.3	13454.6	51.5891	13454.6	53.087	13454.6	53.9055	13454.6	50.1031	13454.6	53.4383	13454.6	45.6551
13928.5	86.4725	13928.5	86.5146	13928.5	86.3106	13928.5	84.1051	13928.5	84.8238	13928.5	84.4172	13928.5	83.5238	13928.5	79.6561	13928.5	80.0586	13928.5	77.0319	13928.5	77.6718	13928.5	73.4829	13928.5	73.3269	13928.5	68.4243	13928.5	68.5215	13928.5	64.674	13928.5	64.6729	13928.5	62.6483	13928.5	60.4598	13928.5	56.4748	13928.5	57.5228	13928.5	53.9258	13928.5	53.3499	13928.5	54.3415	13928.5	54.0248	13928.5	52.6421	13928.5	52.2754	13928.5	47.6074	13928.5	51.3499	13928.5	52.6762	13928.5	50.1785	13928.5	53.4115	13928.5	55.0756	13928.5	51.8914	13928.5	50.5297	13928.5	46.985
14419.9	86.7514	14419.9	86.5754	14419.9	86.4463	14419.9	84.2911	14419.9	84.6688	14419.9	83.6636	14419.9	83.506	14419.9	79.3927	14419.9	80.0715	14419.9	78.4132	14419.9	77.7251	14419.9	72.9474	14419.9	73.7239	14419.9	70.6105	14419.9	68.6085	14419.9	66.6117	14419.9	64.726	14419.9	58.6201	14419.9	59.9404	14419.9	57.8974	14419.9	56.231	14419.9	54.3997	14419.9	52.1303	14419.9	54.6816	14419.9	54.4822	14419.9	51.5044	14419.9	52.002	14419.9	43.8921	14419.9	51.7875	14419.9	50.0045	14419.9	49.0191	14419.9	50.9528	14419.9	53.3568	14419.9	40.7203	14419.9	48.2377	14419.9	38.9439
14928.2	85.7037	14928.2	86.326	14928.2	85.7859	14928.2	84.1697	14928.2	84.1016	14928.2	82.8094	14928.2	82.8625	14928.2	79.7148	14928.2	79.9357	14928.2	77.7116	14928.2	77.2727	14928.2	73.5833	14928.2	73.8147	14928.2	71.4341	14928.2	69.0634	14928.2	63.7245	14928.2	64.6287	14928.2	59.8169	14928.2	60.2439	14928.2	52.6042	14928.2	56.9947	14928.2	52.9104	14928.2	53.5603	14928.2	51.552	14928.2	52.5768	14928.2	50.3343	14928.2	51.3114	14928.2	49.1319	14928.2	51.5154	14928.2	42.2769	14928.2	51.5381	14928.2	49.7601	14928.2	46.6689	14928.2	52.5839	14928.2	51.02	14928.2	45.8966
15454.8	84.7599	15454.8	85.5592	15454.8	85.0738	15454.8	83.0937	15454.8	83.3667	15454.8	82.8048	15454.8	82.1896	15454.8	79.9567	15454.8	79.7512	15454.8	75.8181	15454.8	76.7158	15454.8	74.3989	15454.8	73.3441	15454.8	67.6638	15454.8	68.6113	15454.8	60.5891	15454.8	63.0093	15454.8	58.2497	15454.8	59.0115	15454.8	54.9479	15454.8	53.7802	15454.8	53.0741	15454.8	48.9022	15454.8	50.779	15454.8	49.9815	15454.8	49.3802	15454.8	51.2228	15454.8	47.5904	15454.8	50.9156	15454.8	41.7284	15454.8	51.1912	15454.8	29.3743	15454.8	42.2861	15454.8	48.0083	15454.8	49.0877	15454.8	42.0016
15999.8	83.7604	15999.8	85.0513	15999.8	84.8643	15999.8	82.7425	15999.8	82.8699	15999.8	82.3526	15999.8	81.5902	15999.8	79.747	15999.8	79.1296	15999.8	75.7977	15999.8	76.4924	15999.8	73.24	15999.8	73.2641	15999.8	66.5734	15999.8	67.3618	15999.8	59.8799	15999.8	62.2126	15999.8	56.4951	15999.8	58.234	15999.8	53.1084	15999.8	53.7671	15999.8	49.6156	15999.8	49.3581	15999.8	48.4948	15999.8	51.2564	15999.8	48.0027	15999.8	51.228	15999.8	44.21	15999.8	46.2052	15999.8	44.3988	15999.8	50.6151	15999.8	46.5704	15999.8	43.699	15999.8	44.358	15999.8	51.013	15999.8	43.1173
16564.5	83.6388	16564.5	85.0932	16564.5	84.831	16564.5	82.4521	16564.5	82.5424	16564.5	81.7126	16564.5	81.0244	16564.5	79.2924	16564.5	79.0139	16564.5	77.3333	16564.5	76.4016	16564.5	70.8564	16564.5	72.6052	16564.5	68.2224	16564.5	65.8092	16564.5	62.323	16564.5	61.8319	16564.5	57.4448	16564.5	55.9872	16564.5	52.8654	16564.5	54.1258	16564.5	50.331	16564.5	47.3495	16564.5	53.3105	16564.5	50.894	16564.5	47.5877	16564.5	48.6851	16564.5	49.5565	16564.5	47.9472	16564.5	48.8375	16564.5	50.5821	16564.5	32.0743	16564.5	47.6995	16564.5	46.7867	16564.5	49.0725	16564.5	45.0323
17148.2	83.6614	17148.2	84.6924	17148.2	84.4834	17148.2	81.2929	17148.2	82.0054	17148.2	80.9139	17148.2	80.8857	17148.2	77.858	17148.2	78.65	17148.2	77.0478	17148.2	76.1063	17148.2	70.3434	17148.2	71.5778	17148.2	66.8821	17148.2	65.5799	17148.2	58.9976	17148.2	60.6773	17148.2	53.8689	17148.2	56.2102	17148.2	43.1208	17148.2	53.2698	17148.2	50.9051	17148.2	48.7241	17148.2	50.6196	17148.2	50.1277	17148.2	50.0658	17148.2	46.9715	17148.2	36.6977	17148.2	45.8391	17148.2	48.2164	17148.2	45.1828	17148.2	27.1024	17148.2	45.4219	17148.2	39.5837	17148.2	46.0806	17148.2	39.656
17753.2	83.4578	17753.2	84.6885	17753.2	84.2972	17753.2	81.0071	17753.2	81.4892	17753.2	80.4252	17753.2	80.4593	17753.2	76.9308	17753.2	77.7818	17753.2	74.9533	17753.2	75.4839	17753.2	69.9998	17753.2	69.9349	17753.2	63.4481	17753.2	65.0041	17753.2	58.745	17753.2	59.4044	17753.2	58.5531	17753.2	55.4181	17753.2	50.9451	17753.2	49.3687	17753.2	50.2729	17753.2	45.5018	17753.2	49.7596	17753.2	48.2944	17753.2	46.2216	17753.2	45.0703	17753.2	36.3642	17753.2	45.6288	17753.2	46.2951	17753.2	44.2921	17753.2	44.5703	17753.2	47.1549	17753.2	48.4873	17753.2	45.3419	17753.2	41.8016
18379.4	82.2921	18379.4	83.7481	18379.4	83.4732	18379.4	80.3544	18379.4	80.7856	18379.4	80.4947	18379.4	79.9704	18379.4	77.8225	18379.4	77.1588	18379.4	73.8632	18379.4	74.3379	18379.4	69.4005	18379.4	68.6847	18379.4	65.9443	18379.4	63.3948	18379.4	57.276	18379.4	57.7005	18379.4	50.8528	18379.4	53.3827	18379.4	45.2631	18379.4	49.3376	18379.4	48.4972	18379.4	44.2503	18379.4	43.1182	18379.4	48.4347	18379.4	28.0745	18379.4	44.8027	18379.4	28.4494	18379.4	44.8654	18379.4	42.6152	18379.4	45.5112	18379.4	46.5413	18379.4	48.1562	18379.4	35.7467	18379.4	42.1466	18379.4	41.1685
19027.6	81.4835	19027.6	82.5176	19027.6	82.534	19027.6	79.2195	19027.6	79.9814	19027.6	79.9547	19027.6	79.3384	19027.6	76.9187	19027.6	76.9496	19027.6	74.1896	19027.6	73.224	19027.6	67.0766	19027.6	68.3107	19027.6	63.7109	19027.6	62.4572	19027.6	54.0404	19027.6	56.5296	19027.6	51.4935	19027.6	52.9078	19027.6	44.8484	19027.6	46.5984	19027.6	44.9251	19027.6	45.355	19027.6	42.453	19027.6	47.6708	19027.6	39.3233	19027.6	44.9667	19027.6	35.1499	19027.6	39.1144	19027.6	41.2819	19027.6	45.4793	19027.6	42.9651	19027.6	49.0037	19027.6	31.5024	19027.6	40.8271	19027.6	36.5128
19698.5	81.0339	19698.5	81.4911	19698.5	81.5272	19698.5	77.0767	19698.5	79.0373	19698.5	79.0917	19698.5	78.5371	19698.5	75.8887	19698.5	76.6765	19698.5	72.8624	19698.5	72.3768	19698.5	66.3061	19698.5	67.496	19698.5	61.9218	19698.5	61.5585	19698.5	52.7584	19698.5	55.3469	19698.5	52.1233	19698.5	51.2411	19698.5	41.2633	19698.5	45.261	19698.5	46.0161	19698.5	43.9096	19698.5	44.2376	19698.5	46.0916	19698.5	37.2585	19698.5	41.453	19698.5	34.3441	19698.5	39.3518	19698.5	46.4384	19698.5	43.8359	19698.5	39.629	19698.5	49.16	19698.5	35.2814	19698.5	39.3443	19698.5	35.8872
19999.5	80.7605	19999.5	81.0987	19999.5	81.2398	19999.5	76.9524	19999.5	78.4394	19999.5	78.974	19999.5	78.4272	19999.5	75.5382	19999.5	76.293	19999.5	71.7747	19999.5	72.2995	19999.5	66.8629	19999.5	66.896	19999.5	60.9371	19999.5	62.6196	19999.5	52.127	19999.5	54.8268	19999.5	54.8313	19999.5	54.3332	19999.5	44.3676	19999.5	50.3109	19999.5	47.8172	19999.5	48.0508	19999.5	46.2144	19999.5	50.1481	19999.5	43.2746	19999.5	45.8985	19999.5	42.2613	19999.5	42.4413	19999.5	48.8265	19999.5	37.7758	19999.5	43.9498	19999.5	45.0683	19999.5	39.2301	19999.5	45.7721	19999.5	34.5829
