"SPL Vertical"
"On-Axis"		"10°"		"-10°"		"20°"		"-20°"		"30°"		"-30°"		"40°"		"-40°"		"50°"		"-50°"		"60°"		"-60°"		"70°"		"-70°"		"80°"		"-80°"		"90°"		"-90°"		"100°"		"-100°"		"110°"		"-110°"		"120°"		"-120°"		"130°"		"-130°"		"140°"		"-140°"		"150°"		"-150°"		"160°"		"-160°"		"170°"		"-170°"		"180°"
"Frequency / Hz"	"Sound Pressure Level / dB (re 20 µPa/V)  [2.83V at 1m]"	"Frequency / Hz"	"Sound Pressure Level / dB (re 20 µPa/V)  [2.83V at 1m]"	"Frequency / Hz"	"Sound Pressure Level / dB (re 20 µPa/V)  [2.83V at 1m]"	"Frequency / Hz"	"Sound Pressure Level / dB (re 20 µPa/V)  [2.83V at 1m]"	"Frequency / Hz"	"Sound Pressure Level / dB (re 20 µPa/V)  [2.83V at 1m]"	"Frequency / Hz"	"Sound Pressure Level / dB (re 20 µPa/V)  [2.83V at 1m]"	"Frequency / Hz"	"Sound Pressure Level / dB (re 20 µPa/V)  [2.83V at 1m]"	"Frequency / Hz"	"Sound Pressure Level / dB (re 20 µPa/V)  [2.83V at 1m]"	"Frequency / Hz"	"Sound Pressure Level / dB (re 20 µPa/V)  [2.83V at 1m]"	"Frequency / Hz"	"Sound Pressure Level / dB (re 20 µPa/V)  [2.83V at 1m]"	"Frequency / Hz"	"Sound Pressure Level / dB (re 20 µPa/V)  [2.83V at 1m]"	"Frequency / Hz"	"Sound Pressure Level / dB (re 20 µPa/V)  [2.83V at 1m]"	"Frequency / Hz"	"Sound Pressure Level / dB (re 20 µPa/V)  [2.83V at 1m]"	"Frequency / Hz"	"Sound Pressure Level / dB (re 20 µPa/V)  [2.83V at 1m]"	"Frequency / Hz"	"Sound Pressure Level / dB (re 20 µPa/V)  [2.83V at 1m]"	"Frequency / Hz"	"Sound Pressure Level / dB (re 20 µPa/V)  [2.83V at 1m]"	"Frequency / Hz"	"Sound Pressure Level / dB (re 20 µPa/V)  [2.83V at 1m]"	"Frequency / Hz"	"Sound Pressure Level / dB (re 20 µPa/V)  [2.83V at 1m]"	"Frequency / Hz"	"Sound Pressure Level / dB (re 20 µPa/V)  [2.83V at 1m]"	"Frequency / Hz"	"Sound Pressure Level / dB (re 20 µPa/V)  [2.83V at 1m]"	"Frequency / Hz"	"Sound Pressure Level / dB (re 20 µPa/V)  [2.83V at 1m]"	"Frequency / Hz"	"Sound Pressure Level / dB (re 20 µPa/V)  [2.83V at 1m]"	"Frequency / Hz"	"Sound Pressure Level / dB (re 20 µPa/V)  [2.83V at 1m]"	"Frequency / Hz"	"Sound Pressure Level / dB (re 20 µPa/V)  [2.83V at 1m]"	"Frequency / Hz"	"Sound Pressure Level / dB (re 20 µPa/V)  [2.83V at 1m]"	"Frequency / Hz"	"Sound Pressure Level / dB (re 20 µPa/V)  [2.83V at 1m]"	"Frequency / Hz"	"Sound Pressure Level / dB (re 20 µPa/V)  [2.83V at 1m]"	"Frequency / Hz"	"Sound Pressure Level / dB (re 20 µPa/V)  [2.83V at 1m]"	"Frequency / Hz"	"Sound Pressure Level / dB (re 20 µPa/V)  [2.83V at 1m]"	"Frequency / Hz"	"Sound Pressure Level / dB (re 20 µPa/V)  [2.83V at 1m]"	"Frequency / Hz"	"Sound Pressure Level / dB (re 20 µPa/V)  [2.83V at 1m]"	"Frequency / Hz"	"Sound Pressure Level / dB (re 20 µPa/V)  [2.83V at 1m]"	"Frequency / Hz"	"Sound Pressure Level / dB (re 20 µPa/V)  [2.83V at 1m]"	"Frequency / Hz"	"Sound Pressure Level / dB (re 20 µPa/V)  [2.83V at 1m]"	"Frequency / Hz"	"Sound Pressure Level / dB (re 20 µPa/V)  [2.83V at 1m]"	"Frequency / Hz"	"Sound Pressure Level / dB (re 20 µPa/V)  [2.83V at 1m]"
20.5078	53.04	20.5078	53.0103	20.5078	53.1037	20.5078	52.9942	20.5078	53.2378	20.5078	52.986	20.5078	53.4907	20.5078	52.9938	20.5078	53.912	20.5078	53.037	20.5078	54.5335	20.5078	53.1442	20.5078	55.3506	20.5078	53.3481	20.5078	56.3182	20.5078	53.6775	20.5078	57.3635	20.5078	54.1484	20.5078	58.4053	20.5078	54.7571	20.5078	59.3691	20.5078	55.4804	20.5078	60.1936	20.5078	56.2819	20.5078	60.8354	20.5078	57.1201	20.5078	61.2711	20.5078	57.9556	20.5078	61.4987	20.5078	58.7546	20.5078	61.5326	20.5078	59.4892	20.5078	61.3944	20.5078	60.1372	20.5078	61.1047	20.5078	60.6807
21.2402	53.6386	21.2402	53.6072	21.2402	53.6916	21.2402	53.579	21.2402	53.8026	21.2402	53.5509	21.2402	54.0243	21.2402	53.5339	21.2402	54.4162	21.2402	53.5512	21.2402	55.0236	21.2402	53.6357	21.2402	55.8528	21.2402	53.8255	21.2402	56.8601	21.2402	54.1543	21.2402	57.9654	21.2402	54.6406	21.2402	59.0769	21.2402	55.2795	21.2402	60.1099	21.2402	56.0439	21.2402	60.9962	21.2402	56.8917	21.2402	61.6877	21.2402	57.7772	21.2402	62.1582	21.2402	58.6581	21.2402	62.4047	21.2402	59.4992	21.2402	62.4416	21.2402	60.2724	21.2402	62.2927	21.2402	60.9556	21.2402	61.9823	21.2402	61.5309
21.9727	54.5788	21.9727	54.5309	21.9727	54.6516	21.9727	54.4899	21.9727	54.784	21.9727	54.4532	21.9727	55.0264	21.9727	54.4321	21.9727	55.4346	21.9727	54.4498	21.9727	56.0503	21.9727	54.5393	21.9727	56.8783	21.9727	54.7378	21.9727	57.8765	21.9727	55.0774	21.9727	58.9681	21.9727	55.5745	21.9727	60.0643	21.9727	56.2223	21.9727	61.0826	21.9727	56.9922	21.9727	61.9561	21.9727	57.8423	21.9727	62.6373	21.9727	58.7273	21.9727	63.1008	21.9727	59.6061	21.9727	63.3433	21.9727	60.4444	21.9727	63.3787	21.9727	61.2149	21.9727	63.2299	21.9727	61.8959	21.9727	62.9201	21.9727	62.4698
22.7051	55.5872	22.7051	55.5663	22.7051	55.6301	22.7051	55.5488	22.7051	55.7317	22.7051	55.5323	22.7051	55.9461	22.7051	55.5277	22.7051	56.3351	22.7051	55.5579	22.7051	56.9461	22.7051	55.6551	22.7051	57.7856	22.7051	55.8555	22.7051	58.8083	22.7051	56.1911	22.7051	59.931	22.7051	56.6789	22.7051	61.0588	22.7051	57.3143	22.7051	62.1051	22.7051	58.0709	22.7051	63.0008	22.7051	58.909	22.7051	63.6977	22.7051	59.7848	22.7051	64.1706	22.7051	60.6574	22.7051	64.4167	22.7051	61.4928	22.7051	64.4512	22.7051	62.2633	22.7051	64.298	22.7051	62.9471	22.7051	63.9822	22.7051	63.5258
23.4375	56.5927	23.4375	56.5317	23.4375	56.7069	23.4375	56.5027	23.4375	56.9116	23.4375	56.4998	23.4375	57.2546	23.4375	56.531	23.4375	57.7808	23.4375	56.6157	23.4375	58.5128	23.4375	56.7808	23.4375	59.4349	23.4375	57.0546	23.4375	60.4936	23.4375	57.4593	23.4375	61.6125	23.4375	58.0026	23.4375	62.7112	23.4375	58.6741	23.4375	63.7165	23.4375	59.4478	23.4375	64.5683	23.4375	60.2879	23.4375	65.2235	23.4375	61.1567	23.4375	65.6587	23.4375	62.0196	23.4375	65.8713	23.4375	62.8467	23.4375	65.8761	23.4375	63.6135	23.4375	65.697	23.4375	64.2998	23.4375	65.36	23.4375	64.8878
24.1699	58.3105	24.1699	58.2402	24.1699	58.4298	24.1699	58.2013	24.1699	58.6286	24.1699	58.189	24.1699	58.9465	24.1699	58.21	24.1699	59.4226	24.1699	58.2806	24.1699	60.0798	24.1699	58.4238	24.1699	60.911	24.1699	58.6645	24.1699	61.8753	24.1699	59.0237	24.1699	62.9075	24.1699	59.511	24.1699	63.9338	24.1699	60.1208	24.1699	64.8833	24.1699	60.8328	24.1699	65.696	24.1699	61.616	24.1699	66.3272	24.1699	62.4357	24.1699	66.7518	24.1699	63.2578	24.1699	66.9645	24.1699	64.0521	24.1699	66.9765	24.1699	64.7929	24.1699	66.8089	24.1699	65.4582	24.1699	66.4855	24.1699	66.0287
25.6348	61.1055	25.6348	61.0281	25.6348	61.2268	25.6348	60.9798	25.6348	61.4164	25.6348	60.9558	25.6348	61.7058	25.6348	60.9605	25.6348	62.1268	25.6348	61.0068	25.6348	62.7008	25.6348	61.1133	25.6348	63.428	25.6348	61.3021	25.6348	64.2813	25.6348	61.5933	25.6348	65.2103	25.6348	61.9998	25.6348	66.1505	25.6348	62.5226	25.6348	67.0344	25.6348	63.1487	25.6348	67.8002	25.6348	63.8541	25.6348	68.3994	25.6348	64.6081	25.6348	68.8021	25.6348	65.3783	25.6348	69.0001	25.6348	66.1338	25.6348	69.0028	25.6348	66.8472	25.6348	68.8305	25.6348	67.4947	25.6348	68.5069	25.6348	68.0546
26.3672	62.4167	26.3672	62.3233	26.3672	62.5525	26.3672	62.2586	26.3672	62.7535	26.3672	62.2184	26.3672	63.0493	26.3672	62.2074	26.3672	63.4699	26.3672	62.2382	26.3672	64.0365	26.3672	62.3295	26.3672	64.7505	26.3672	62.503	26.3672	65.5878	26.3672	62.7786	26.3672	66.5006	26.3672	63.1695	26.3672	67.4257	26.3672	63.6767	26.3672	68.2946	26.3672	64.2881	26.3672	69.0437	26.3672	64.9801	26.3672	69.6228	26.3672	65.7227	26.3672	70.0023	26.3672	66.4837	26.3672	70.1754	26.3672	67.2331	26.3672	70.1541	26.3672	67.9437	26.3672	69.9609	26.3672	68.5922	26.3672	69.6211	26.3672	69.158
27.0996	64.0682	27.0996	63.9604	27.0996	64.2159	27.0996	63.8819	27.0996	64.4227	27.0996	63.8301	27.0996	64.7137	27.0996	63.81	27.0996	65.1161	27.0996	63.8334	27.0996	65.6506	27.0996	63.9172	27.0996	66.3225	27.0996	64.0806	27.0996	67.114	27.0996	64.3414	27.0996	67.9839	27.0996	64.7112	27.0996	68.8733	27.0996	65.1913	27.0996	69.7155	27.0996	65.7715	27.0996	70.4464	27.0996	66.4314	27.0996	71.0138	27.0996	67.144	27.0996	71.3857	27.0996	67.8797	27.0996	71.5526	27.0996	68.6096	27.0996	71.525	27.0996	69.3074	27.0996	71.3255	27.0996	69.9493	27.0996	70.9801	27.0996	70.514
27.832	65.4943	27.832	65.3796	27.832	65.6524	27.832	65.2982	27.832	65.8705	27.832	65.2475	27.832	66.1707	27.832	65.2313	27.832	66.576	27.832	65.2591	27.832	67.1039	27.832	65.3451	27.832	67.7581	27.832	65.5056	27.832	68.5225	27.832	65.756	27.832	69.3596	27.832	66.1067	27.832	70.2153	27.832	66.5604	27.832	71.0269	27.832	67.1095	27.832	71.7325	27.832	67.7373	27.832	72.281	27.832	68.4203	27.832	72.6394	27.832	69.1317	27.832	72.7967	27.832	69.8441	27.832	72.7617	27.832	70.5313	27.832	72.5555	27.832	71.169	27.832	72.2045	27.832	71.7343
29.2969	68.2359	29.2969	68.123	29.2969	68.3927	29.2969	68.0451	29.2969	68.608	29.2969	67.9991	29.2969	68.9008	29.2969	67.9874	29.2969	69.2911	29.2969	68.0174	29.2969	69.7941	29.2969	68.1	29.2969	70.413	29.2969	68.2482	29.2969	71.134	29.2969	68.4749	29.2969	71.9235	29.2969	68.7898	29.2969	72.7322	29.2969	69.1968	29.2969	73.5014	29.2969	69.6923	29.2969	74.1718	29.2969	70.2646	29.2969	74.6927	29.2969	70.8954	29.2969	75.0304	29.2969	71.5617	29.2969	75.1723	29.2969	72.2386	29.2969	75.1254	29.2969	72.9009	29.2969	74.9104	29.2969	73.5238	29.2969	74.5538	29.2969	74.0829
30.0293	69.653	30.0293	69.5336	30.0293	69.8183	30.0293	69.4516	30.0293	70.0426	30.0293	69.4037	30.0293	70.3424	30.0293	69.3912	30.0293	70.7343	30.0293	69.4197	30.0293	71.2305	30.0293	69.4981	30.0293	71.8326	30.0293	69.6374	30.0293	72.5272	30.0293	69.8489	30.0293	73.2836	30.0293	70.1418	30.0293	74.0564	30.0293	70.5208	30.0293	74.7906	30.0293	70.9842	30.0293	75.4296	30.0293	71.5231	30.0293	75.9238	30.0293	72.1222	30.0293	76.2395	30.0293	72.7612	30.0293	76.3636	30.0293	73.4168	30.0293	76.3023	30.0293	74.0645	30.0293	76.076	30.0293	74.6795	30.0293	75.7115	30.0293	75.2371
31.4941	73.2721	31.4941	73.1321	31.4941	73.4544	31.4941	73.028	31.4941	73.6883	31.4941	72.9568	31.4941	73.9854	31.4941	72.9191	31.4941	74.3569	31.4941	72.9185	31.4941	74.8111	31.4941	72.9616	31.4941	75.3488	31.4941	73.0569	31.4941	75.96	31.4941	73.2139	31.4941	76.6214	31.4941	73.4412	31.4941	77.2964	31.4941	73.7453	31.4941	77.9379	31.4941	74.1279	31.4941	78.4944	31.4941	74.5855	31.4941	78.9182	31.4941	75.1081	31.4941	79.1753	31.4941	75.6803	31.4941	79.2513	31.4941	76.2824	31.4941	79.1517	31.4941	76.8917	31.4941	78.8967	31.4941	77.484	31.4941	78.5142	31.4941	78.0338
32.2266	74.8915	32.2266	74.7425	32.2266	75.0792	32.2266	74.6262	32.2266	75.3138	32.2266	74.54	32.2266	75.6054	32.2266	74.4842	32.2266	75.9641	32.2266	74.4622	32.2266	76.3969	32.2266	74.48	32.2266	76.9051	32.2266	74.5459	32.2266	77.4801	32.2266	74.6694	32.2266	78.1013	32.2266	74.8602	32.2266	78.7355	32.2266	75.1259	32.2266	79.3384	32.2266	75.4705	32.2266	79.8603	32.2266	75.8928	32.2266	80.2541	32.2266	76.3849	32.2266	80.4851	32.2266	76.9329	32.2266	80.5383	32.2266	77.5181	32.2266	80.4187	32.2266	78.1179	32.2266	80.1467	32.2266	78.7077	32.2266	79.7507	32.2266	79.2612
33.6914	77.8111	33.6914	77.6373	33.6914	78.0169	33.6914	77.4916	33.6914	78.2603	33.6914	77.3723	33.6914	78.5481	33.6914	77.2797	33.6914	78.887	33.6914	77.2162	33.6914	79.2824	33.6914	77.1866	33.6914	79.7354	33.6914	77.1975	33.6914	80.2405	33.6914	77.2573	33.6914	80.7823	33.6914	77.3754	33.6914	81.3336	33.6914	77.5611	33.6914	81.856	33.6914	77.8219	33.6914	82.3028	33.6914	78.1617	33.6914	82.6282	33.6914	78.5791	33.6914	82.797	33.6914	79.0661	33.6914	82.7926	33.6914	79.6083	33.6914	82.6197	33.6914	80.1855	33.6914	82.2993	33.6914	80.773	33.6914	81.8622	33.6914	81.3423
34.4238	78.3949	34.4238	78.2098	34.4238	78.6073	34.4238	78.0487	34.4238	78.8517	34.4238	77.9104	34.4238	79.1337	34.4238	77.7954	34.4238	79.4596	34.4238	77.7061	34.4238	79.8344	34.4238	77.6471	34.4238	80.2598	34.4238	77.6251	34.4238	80.732	34.4238	77.6484	34.4238	81.2379	34.4238	77.7271	34.4238	81.753	34.4238	77.8717	34.4238	82.2408	34.4238	78.0917	34.4238	82.6562	34.4238	78.3936	34.4238	82.953	34.4238	78.7788	34.4238	83.0952	34.4238	79.2421	34.4238	83.0652	34.4238	79.7706	34.4238	82.8669	34.4238	80.3445	34.4238	82.5216	34.4238	80.9381	34.4238	82.0612	34.4238	81.5215
35.8887	78.3184	35.8887	78.107	35.8887	78.5501	35.8887	77.9138	35.8887	78.8057	35.8887	77.738	35.8887	79.0897	35.8887	77.5804	35.8887	79.4069	35.8887	77.4434	35.8887	79.7619	35.8887	77.3315	35.8887	80.1566	35.8887	77.2511	35.8887	80.5883	35.8887	77.2113	35.8887	81.0464	35.8887	77.2232	35.8887	81.5094	35.8887	77.2996	35.8887	81.9438	35.8887	77.4538	35.8887	82.3063	35.8887	77.697	35.8887	82.5514	35.8887	78.0358	35.8887	82.6424	35.8887	78.4693	35.8887	82.5607	35.8887	78.9872	35.8887	82.3095	35.8887	79.5696	35.8887	81.9108	35.8887	80.1889	35.8887	81.3982	35.8887	80.811
37.3535	77.5767	37.3535	77.3367	37.3535	77.8299	37.3535	77.1086	37.3535	78.0991	37.3535	76.8919	37.3535	78.3876	37.3535	76.6877	37.3535	78.699	37.3535	76.4985	37.3535	79.0369	37.3535	76.3289	37.3535	79.4028	37.3535	76.186	37.3535	79.7944	37.3535	76.0796	37.3535	80.203	37.3535	76.0227	37.3535	80.6099	37.3535	76.0312	37.3535	80.9851	37.3535	76.1222	37.3535	81.2884	37.3535	76.3118	37.3535	81.4766	37.3535	76.6113	37.3535	81.5136	37.3535	77.023	37.3535	81.3805	37.3535	77.5376	37.3535	81.0796	37.3535	78.134	37.3535	80.6321	37.3535	78.7811	37.3535	80.0724	37.3535	79.4411
38.8184	77.2079	38.8184	76.9536	38.8184	77.4692	38.8184	76.7052	38.8184	77.7398	38.8184	76.4626	38.8184	78.0222	38.8184	76.2268	38.8184	78.3196	38.8184	76.0009	38.8184	78.6346	38.8184	75.79	38.8184	78.9685	38.8184	75.602	38.8184	79.3193	38.8184	75.4484	38.8184	79.6796	38.8184	75.3443	38.8184	80.0335	38.8184	75.3084	38.8184	80.3548	38.8184	75.3609	38.8184	80.6072	38.8184	75.5203	38.8184	80.7509	38.8184	75.7991	38.8184	80.7516	38.8184	76.1986	38.8184	80.5909	38.8184	76.7074	38.8184	80.2706	38.8184	77.3016	38.8184	79.8106	38.8184	77.9483	38.8184	79.2438	38.8184	78.6093
39.5508	77.315	39.5508	77.0615	39.5508	77.573	39.5508	76.8118	39.5508	77.8375	39.5508	76.5657	39.5508	78.1106	39.5508	76.3247	39.5508	78.3952	39.5508	76.0918	39.5508	78.6934	39.5508	75.8726	39.5508	79.0065	39.5508	75.6754	39.5508	79.3328	39.5508	75.5123	39.5508	79.6661	39.5508	75.3991	39.5508	79.9921	39.5508	75.355	39.5508	80.2868	39.5508	75.4007	39.5508	80.5168	39.5508	75.5542	39.5508	80.6441	39.5508	75.8266	39.5508	80.6361	39.5508	76.2177	39.5508	80.4749	39.5508	76.7144	39.5508	80.162	39.5508	77.292	39.5508	79.7164	39.5508	77.9183	39.5508	79.169	39.5508	78.5567
41.0156	77.8659	41.0156	77.6286	41.0156	78.1054	41.0156	77.3931	41.0156	78.3482	41.0156	77.16	41.0156	78.5962	41.0156	76.9315	41.0156	78.8515	41.0156	76.7114	41.0156	79.1161	41.0156	76.5061	41.0156	79.3914	41.0156	76.325	41.0156	79.6768	41.0156	76.1809	41.0156	79.9679	41.0156	76.09	41.0156	80.2536	41.0156	76.0706	41.0156	80.5144	41.0156	76.1405	41.0156	80.7216	41.0156	76.3132	41.0156	80.8421	41.0156	76.5938	41.0156	80.8466	41.0156	76.9763	41.0156	80.7186	41.0156	77.4438	41.0156	80.4588	41.0156	77.9712	41.0156	80.0826	41.0156	78.5293	41.0156	79.6157	41.0156	79.0878
42.4805	78.7897	42.4805	78.5773	42.4805	79.0065	42.4805	78.3697	42.4805	79.2282	42.4805	78.1682	42.4805	79.4559	42.4805	77.9753	42.4805	79.6908	42.4805	77.7955	42.4805	79.9346	42.4805	77.6353	42.4805	80.188	42.4805	77.5038	42.4805	80.4505	42.4805	77.4124	42.4805	80.7187	42.4805	77.3751	42.4805	80.9837	42.4805	77.4059	42.4805	81.2293	42.4805	77.5175	42.4805	81.4315	42.4805	77.7174	42.4805	81.5619	42.4805	78.0054	42.4805	81.5951	42.4805	78.3723	42.4805	81.5159	42.4805	78.8008	42.4805	81.3236	42.4805	79.2681	42.4805	81.0298	42.4805	79.7494	42.4805	80.6541	42.4805	80.2194
43.9453	79.6801	43.9453	79.4963	43.9453	79.8717	43.9453	79.3209	43.9453	80.0708	43.9453	79.1555	43.9453	80.2778	43.9453	79.0029	43.9453	80.4935	43.9453	78.8673	43.9453	80.7184	43.9453	78.7545	43.9453	80.953	43.9453	78.6722	43.9453	81.1967	43.9453	78.63	43.9453	81.4465	43.9453	78.6385	43.9453	81.6955	43.9453	78.7081	43.9453	81.9305	43.9453	78.847	43.9453	82.1315	43.9453	79.059	43.9453	82.2743	43.9453	79.3415	43.9453	82.3362	43.9453	79.6847	43.9453	82.3028	43.9453	80.0726	43.9453	82.1713	43.9453	80.4848	43.9453	81.9493	43.9453	80.8995	43.9453	81.6514	43.9453	81.2951
45.4102	80.3801	45.4102	80.2188	45.4102	80.5529	45.4102	80.0701	45.4102	80.7366	45.4102	79.9356	45.4102	80.9311	45.4102	79.8178	45.4102	81.1362	45.4102	79.7201	45.4102	81.3517	45.4102	79.6475	45.4102	81.5772	45.4102	79.6059	45.4102	81.8114	45.4102	79.6027	45.4102	82.0516	45.4102	79.6455	45.4102	82.2914	45.4102	79.7417	45.4102	82.5196	45.4102	79.8965	45.4102	82.7193	45.4102	80.1116	45.4102	82.8692	45.4102	80.3836	45.4102	82.9493	45.4102	80.7033	45.4102	82.9457	45.4102	81.0566	45.4102	82.8545	45.4102	81.4256	45.4102	82.6807	45.4102	81.791	45.4102	82.4356	45.4102	82.1336
47.6074	80.9833	47.6074	80.8474	47.6074	81.1343	47.6074	80.728	47.6074	81.2994	47.6074	80.6264	47.6074	81.4776	47.6074	80.5445	47.6074	81.6676	47.6074	80.4849	47.6074	81.8681	47.6074	80.4507	47.6074	82.0777	47.6074	80.4458	47.6074	82.2941	47.6074	80.4748	47.6074	82.5144	47.6074	80.5425	47.6074	82.7332	47.6074	80.6531	47.6074	82.942	47.6074	80.8097	47.6074	83.1275	47.6074	81.0126	47.6074	83.2729	47.6074	81.2586	47.6074	83.3613	47.6074	81.5404	47.6074	83.38	47.6074	81.8464	47.6074	83.3239	47.6074	82.1621	47.6074	83.1953	47.6074	82.4708	47.6074	83.0022	47.6074	82.7561
49.0723	81.1561	49.0723	81.0325	49.0723	81.2968	49.0723	80.9272	49.0723	81.4534	49.0723	80.8415	49.0723	81.6241	49.0723	80.7767	49.0723	81.8074	49.0723	80.7348	49.0723	82.001	49.0723	80.7178	49.0723	82.2026	49.0723	80.7284	49.0723	82.4094	49.0723	80.7698	49.0723	82.6179	49.0723	80.8453	49.0723	82.8233	49.0723	80.958	49.0723	83.0179	49.0723	81.1098	49.0723	83.1905	49.0723	81.3008	49.0723	83.3268	49.0723	81.5283	49.0723	83.4119	49.0723	81.7861	49.0723	83.4344	49.0723	82.0643	49.0723	83.3892	49.0723	82.3503	49.0723	83.2777	49.0723	82.6293	49.0723	83.1065	49.0723	82.8862
50.5371	81.2782	50.5371	81.1635	50.5371	81.4103	50.5371	81.0674	50.5371	81.5582	50.5371	80.9911	50.5371	81.72	50.5371	80.9357	50.5371	81.8932	50.5371	80.9025	50.5371	82.0752	50.5371	80.893	50.5371	82.2632	50.5371	80.9092	50.5371	82.4538	50.5371	80.9531	50.5371	82.6437	50.5371	81.0272	50.5371	82.8283	50.5371	81.1337	50.5371	83.0017	50.5371	81.2741	50.5371	83.1547	50.5371	81.4484	50.5371	83.2754	50.5371	81.6545	50.5371	83.3512	50.5371	81.8872	50.5371	83.3718	50.5371	82.1381	50.5371	83.3319	50.5371	82.3961	50.5371	83.2323	50.5371	82.6479	50.5371	83.0785	50.5371	82.8799
52.7344	81.558	52.7344	81.4562	52.7344	81.678	52.7344	81.374	52.7344	81.8146	52.7344	81.3123	52.7344	81.9653	52.7344	81.2719	52.7344	82.1276	52.7344	81.2536	52.7344	82.2983	52.7344	81.258	52.7344	82.4741	52.7344	81.2862	52.7344	82.6516	52.7344	81.3392	52.7344	82.8269	52.7344	81.4184	52.7344	82.9963	52.7344	81.5249	52.7344	83.1544	52.7344	81.6596	52.7344	83.2942	52.7344	81.8221	52.7344	83.4062	52.7344	82.0105	52.7344	83.4798	52.7344	82.2204	52.7344	83.5058	52.7344	82.4447	52.7344	83.4789	52.7344	82.6736	52.7344	83.3986	52.7344	82.8955	52.7344	83.269	52.7344	83.0979
54.1992	81.5964	54.1992	81.4993	54.1992	81.7123	54.1992	81.4225	54.1992	81.845	54.1992	81.3667	54.1992	81.992	54.1992	81.3325	54.1992	82.1503	54.1992	81.3204	54.1992	82.3162	54.1992	81.3305	54.1992	82.4858	54.1992	81.3632	54.1992	82.6553	54.1992	81.4189	54.1992	82.8206	54.1992	81.4983	54.1992	82.9778	54.1992	81.6018	54.1992	83.1226	54.1992	81.7299	54.1992	83.249	54.1992	81.8822	54.1992	83.3494	54.1992	82.057	54.1992	83.4147	54.1992	82.2506	54.1992	83.437	54.1992	82.4569	54.1992	83.4111	54.1992	82.6674	54.1992	83.3364	54.1992	82.8717	54.1992	83.2165	54.1992	83.0584
56.3965	81.7116	56.3965	81.6204	56.3965	81.8215	56.3965	81.5496	56.3965	81.9482	56.3965	81.4997	56.3965	82.0886	56.3965	81.4713	56.3965	82.2394	56.3965	81.4641	56.3965	82.3963	56.3965	81.478	56.3965	82.5549	56.3965	81.5124	56.3965	82.7107	56.3965	81.5672	56.3965	82.8594	56.3965	81.642	56.3965	82.9974	56.3965	81.737	56.3965	83.1209	56.3965	81.8521	56.3965	83.2259	56.3965	81.9868	56.3965	83.3068	56.3965	82.1399	56.3965	83.3569	56.3965	82.3088	56.3965	83.37	56.3965	82.4889	56.3965	83.3417	56.3965	82.6735	56.3965	83.2713	56.3965	82.8537	56.3965	83.1619	56.3965	83.0198
58.5938	81.8268	58.5938	81.7382	58.5938	81.9342	58.5938	81.6697	58.5938	82.058	58.5938	81.6224	58.5938	82.1949	58.5938	81.5964	58.5938	82.341	58.5938	81.5912	58.5938	82.4917	58.5938	81.6062	58.5938	82.6419	58.5938	81.6406	58.5938	82.7865	58.5938	81.6934	58.5938	82.9211	58.5938	81.7638	58.5938	83.0419	58.5938	81.8514	58.5938	83.1457	58.5938	81.9557	58.5938	83.23	58.5938	82.0762	58.5938	83.2914	58.5938	82.212	58.5938	83.3255	58.5938	82.361	58.5938	83.3277	58.5938	82.52	58.5938	83.2948	58.5938	82.6835	58.5938	83.2259	58.5938	82.8443	58.5938	83.1238	58.5938	82.994
60.0586	81.9368	60.0586	81.8504	60.0586	82.0416	60.0586	81.7842	60.0586	82.1626	60.0586	81.7388	60.0586	82.2965	60.0586	81.7143	60.0586	82.4392	60.0586	81.7101	60.0586	82.5858	60.0586	81.7254	60.0586	82.7312	60.0586	81.759	60.0586	82.87	60.0586	81.8097	60.0586	82.9973	60.0586	81.8765	60.0586	83.1091	60.0586	81.9585	60.0586	83.2025	60.0586	82.0553	60.0586	83.2754	60.0586	82.1662	60.0586	83.3254	60.0586	82.2906	60.0586	83.3495	60.0586	82.427	60.0586	83.3442	60.0586	82.5729	60.0586	83.3069	60.0586	82.7237	60.0586	83.2372	60.0586	82.8732	60.0586	83.1377	60.0586	83.014
62.2559	82.1429	62.2559	82.0584	62.2559	82.2448	62.2559	81.9931	62.2559	82.3617	62.2559	81.9475	62.2559	82.4904	62.2559	81.9217	62.2559	82.6265	62.2559	81.915	62.2559	82.765	62.2559	81.9263	62.2559	82.9003	62.2559	81.9542	62.2559	83.0266	62.2559	81.9974	62.2559	83.1385	62.2559	82.0543	62.2559	83.2318	62.2559	82.124	62.2559	83.3037	62.2559	82.2057	62.2559	83.3533	62.2559	82.299	62.2559	83.3802	62.2559	82.4034	62.2559	83.3836	62.2559	82.5184	62.2559	83.3621	62.2559	82.6424	62.2559	83.3146	62.2559	82.7724	62.2559	83.2413	62.2559	82.9036	62.2559	83.1448	62.2559	83.0301
64.4531	82.3609	64.4531	82.2791	64.4531	82.4577	64.4531	82.2141	64.4531	82.5671	64.4531	82.1667	64.4531	82.6856	64.4531	82.1369	64.4531	82.8088	64.4531	82.1243	64.4531	82.9316	64.4531	82.1277	64.4531	83.0483	64.4531	82.1457	64.4531	83.1531	64.4531	82.1766	64.4531	83.2407	64.4531	82.219	64.4531	83.307	64.4531	82.2717	64.4531	83.3503	64.4531	82.3337	64.4531	83.371	64.4531	82.4047	64.4531	83.3707	64.4531	82.4847	64.4531	83.3512	64.4531	82.5737	64.4531	83.3132	64.4531	82.671	64.4531	83.2566	64.4531	82.7752	64.4531	83.1821	64.4531	82.8832	64.4531	83.092	64.4531	82.9906
66.6504	82.73	66.6504	82.6514	66.6504	82.8227	66.6504	82.5887	66.6504	82.9268	66.6504	82.5429	66.6504	83.0387	66.6504	82.5138	66.6504	83.1536	66.6504	82.5009	66.6504	83.266	66.6504	82.5029	66.6504	83.3699	66.6504	82.518	66.6504	83.459	66.6504	82.5443	66.6504	83.5278	66.6504	82.5799	66.6504	83.5726	66.6504	82.6233	66.6504	83.5928	66.6504	82.6734	66.6504	83.5906	66.6504	82.7296	66.6504	83.5703	66.6504	82.7921	66.6504	83.5357	66.6504	82.8613	66.6504	83.4891	66.6504	82.9374	66.6504	83.4309	66.6504	83.02	66.6504	83.3614	66.6504	83.1072	66.6504	83.282	66.6504	83.1959
69.5801	82.9797	69.5801	82.9025	69.5801	83.0725	69.5801	82.8425	69.5801	83.1781	69.5801	82.8004	69.5801	83.2927	69.5801	82.7759	69.5801	83.4115	69.5801	82.7682	69.5801	83.5284	69.5801	82.7755	69.5801	83.6368	69.5801	82.7958	69.5801	83.7296	69.5801	82.8268	69.5801	83.8006	69.5801	82.8662	69.5801	83.8458	69.5801	82.912	69.5801	83.8641	69.5801	82.9628	69.5801	83.8584	69.5801	83.0179	69.5801	83.8335	69.5801	83.0774	69.5801	83.7945	69.5801	83.1419	69.5801	83.7443	69.5801	83.2123	69.5801	83.6839	69.5801	83.2886	69.5801	83.6141	69.5801	83.3698	69.5801	83.5363	69.5801	83.4536
71.7773	83.133	71.7773	83.0596	71.7773	83.2224	71.7773	83.0036	71.7773	83.3252	71.7773	82.9654	71.7773	83.4378	71.7773	82.9448	71.7773	83.5552	71.7773	82.9406	71.7773	83.6714	71.7773	82.951	71.7773	83.7795	71.7773	82.9736	71.7773	83.8721	71.7773	83.0061	71.7773	83.9425	71.7773	83.046	71.7773	83.9861	71.7773	83.091	71.7773	84.0017	71.7773	83.1395	71.7773	83.9921	71.7773	83.1907	71.7773	83.9626	71.7773	83.2448	71.7773	83.9191	71.7773	83.3025	71.7773	83.8655	71.7773	83.365	71.7773	83.8037	71.7773	83.433	71.7773	83.7347	71.7773	83.5062	71.7773	83.6602	71.7773	83.5829
73.9746	83.292	73.9746	83.2241	73.9746	83.3754	73.9746	83.1729	73.9746	83.4722	73.9746	83.1386	73.9746	83.579	73.9746	83.1208	73.9746	83.6915	73.9746	83.1182	73.9746	83.8036	73.9746	83.129	73.9746	83.9087	73.9746	83.1509	73.9746	83.9991	73.9746	83.1815	73.9746	84.0679	73.9746	83.218	73.9746	84.1099	73.9746	83.2585	73.9746	84.1232	73.9746	83.3011	73.9746	84.1104	73.9746	83.3451	73.9746	84.0767	73.9746	83.3909	73.9746	84.0285	73.9746	83.4395	73.9746	83.9704	73.9746	83.4925	73.9746	83.9053	73.9746	83.5515	73.9746	83.8349	73.9746	83.6169	73.9746	83.7614	73.9746	83.6876
76.9043	83.5372	76.9043	83.4761	76.9043	83.6118	76.9043	83.4295	76.9043	83.6981	76.9043	83.3974	76.9043	83.7934	76.9043	83.3794	76.9043	83.8936	76.9043	83.3744	76.9043	83.9935	76.9043	83.3806	76.9043	84.0865	76.9043	83.396	76.9043	84.165	76.9043	83.418	76.9043	84.2219	76.9043	83.4442	76.9043	84.2514	76.9043	83.4722	76.9043	84.2515	76.9043	83.5006	76.9043	84.2245	76.9043	83.5286	76.9043	84.1765	76.9043	83.5567	76.9043	84.1149	76.9043	83.5865	76.9043	84.0461	76.9043	83.6204	76.9043	83.9743	76.9043	83.6609	76.9043	83.9022	76.9043	83.7098	76.9043	83.8323	76.9043	83.7674
79.834	84.0045	79.834	83.9386	79.834	84.0828	79.834	83.8862	79.834	84.1716	79.834	83.8478	79.834	84.2676	79.834	83.8231	79.834	84.3665	79.834	83.8113	79.834	84.4622	79.834	83.8112	79.834	84.5477	79.834	83.8208	79.834	84.6155	79.834	83.8377	79.834	84.6589	79.834	83.8595	79.834	84.6737	79.834	83.8838	79.834	84.6589	79.834	83.9087	79.834	84.618	79.834	83.9331	79.834	84.5577	79.834	83.9572	79.834	84.4862	79.834	83.9823	79.834	84.411	79.834	84.0108	79.834	84.3365	79.834	84.0453	79.834	84.2652	79.834	84.0878	79.834	84.1989	79.834	84.1393
82.7637	84.2006	82.7637	84.1408	82.7637	84.2715	82.7637	84.0925	82.7637	84.352	82.7637	84.0559	82.7637	84.4398	82.7637	84.0308	82.7637	84.531	82.7637	84.0163	82.7637	84.6202	82.7637	84.0113	82.7637	84.7005	82.7637	84.0143	82.7637	84.7641	82.7637	84.023	82.7637	84.804	82.7637	84.0353	82.7637	84.8149	82.7637	84.0491	82.7637	84.7952	82.7637	84.0626	82.7637	84.7477	82.7637	84.0751	82.7637	84.6792	82.7637	84.087	82.7637	84.5985	82.7637	84.1001	82.7637	84.5137	82.7637	84.1174	82.7637	84.4308	82.7637	84.1423	82.7637	84.3533	82.7637	84.1775	82.7637	84.2838	82.7637	84.2247
85.6934	84.3854	85.6934	84.3325	85.6934	84.4476	85.6934	84.2889	85.6934	84.5182	85.6934	84.2547	85.6934	84.5957	85.6934	84.2297	85.6934	84.677	85.6934	84.2135	85.6934	84.7576	85.6934	84.2053	85.6934	84.8311	85.6934	84.204	85.6934	84.8902	85.6934	84.208	85.6934	84.9279	85.6934	84.2153	85.6934	84.9391	85.6934	84.2242	85.6934	84.922	85.6934	84.233	85.6934	84.8785	85.6934	84.241	85.6934	84.8145	85.6934	84.2487	85.6934	84.7379	85.6934	84.2579	85.6934	84.6559	85.6934	84.2715	85.6934	84.5743	85.6934	84.2929	85.6934	84.4973	85.6934	84.3252	85.6934	84.4284	85.6934	84.3704
88.623	84.6844	88.623	84.6479	88.623	84.7261	88.623	84.6166	88.623	84.7729	88.623	84.5909	88.623	84.8242	88.623	84.571	88.623	84.8788	88.623	84.5573	88.623	84.9339	88.623	84.5498	88.623	84.9856	88.623	84.548	88.623	85.029	88.623	84.5511	88.623	85.059	88.623	84.5578	88.623	85.072	88.623	84.5665	88.623	85.0664	88.623	84.5759	88.623	85.0435	88.623	84.5854	88.623	85.0073	88.623	84.5951	88.623	84.9623	88.623	84.6062	88.623	84.9126	88.623	84.6211	88.623	84.8602	88.623	84.6422	88.623	84.8071	88.623	84.6715	88.623	84.756	88.623	84.7098
91.5527	85.1177	91.5527	85.0782	91.5527	85.159	91.5527	85.0411	91.5527	85.2017	91.5527	85.007	91.5527	85.2454	91.5527	84.9767	91.5527	85.2887	91.5527	84.9509	91.5527	85.3294	91.5527	84.93	91.5527	85.3643	91.5527	84.9139	91.5527	85.3889	91.5527	84.902	91.5527	85.399	91.5527	84.8931	91.5527	85.3911	91.5527	84.886	91.5527	85.3641	91.5527	84.8793	91.5527	85.3198	91.5527	84.8727	91.5527	85.2629	91.5527	84.8665	91.5527	85.1996	91.5527	84.8624	91.5527	85.1352	91.5527	84.8632	91.5527	85.0732	91.5527	84.872	91.5527	85.0156	91.5527	84.8912	91.5527	84.9644	91.5527	84.9223
94.4824	85.2581	94.4824	85.2157	94.4824	85.3009	94.4824	85.1744	94.4824	85.3434	94.4824	85.135	94.4824	85.3848	94.4824	85.0987	94.4824	85.4235	94.4824	85.0663	94.4824	85.4566	94.4824	85.0384	94.4824	85.4804	94.4824	85.015	94.4824	85.4899	94.4824	84.9955	94.4824	85.4807	94.4824	84.9788	94.4824	85.4494	94.4824	84.9634	94.4824	85.3958	94.4824	84.9477	94.4824	85.3233	94.4824	84.931	94.4824	85.2394	94.4824	84.9133	94.4824	85.1536	94.4824	84.896	94.4824	85.0744	94.4824	84.8816	94.4824	85.007	94.4824	84.8734	94.4824	84.9533	94.4824	84.8745	94.4824	84.9135	94.4824	84.8875
98.1445	85.3262	98.1445	85.2845	98.1445	85.3669	98.1445	85.2422	98.1445	85.4066	98.1445	85.2003	98.1445	85.4448	98.1445	85.1598	98.1445	85.4805	98.1445	85.1221	98.1445	85.5116	98.1445	85.088	98.1445	85.5342	98.1445	85.0582	98.1445	85.5435	98.1445	85.0324	98.1445	85.5345	98.1445	85.0098	98.1445	85.5033	98.1445	84.9893	98.1445	85.4485	98.1445	84.9694	98.1445	85.373	98.1445	84.9495	98.1445	85.2839	98.1445	84.9297	98.1445	85.1911	98.1445	84.911	98.1445	85.1045	98.1445	84.896	98.1445	85.0305	98.1445	84.8875	98.1445	84.9721	98.1445	84.8887	98.1445	84.9295	98.1445	84.9021
101.807	85.3754	101.807	85.3404	101.807	85.4067	101.807	85.3017	101.807	85.435	101.807	85.2599	101.807	85.4608	101.807	85.2163	101.807	85.4845	101.807	85.1726	101.807	85.5049	101.807	85.1303	101.807	85.5191	101.807	85.0904	101.807	85.5229	101.807	85.0534	101.807	85.5107	101.807	85.019	101.807	85.4779	101.807	84.9863	101.807	85.4218	101.807	84.9545	101.807	85.3437	101.807	84.9232	101.807	85.2498	101.807	84.8925	101.807	85.15	101.807	84.8641	101.807	85.0549	101.807	84.8404	101.807	84.9726	101.807	84.825	101.807	84.9075	101.807	84.8214	101.807	84.8609	101.807	84.8327
105.469	85.5519	105.469	85.5244	105.469	85.5695	105.469	85.4875	105.469	85.5779	105.469	85.4423	105.469	85.5781	105.469	85.3908	105.469	85.571	105.469	85.3352	105.469	85.5567	105.469	85.2777	105.469	85.534	105.469	85.22	105.469	85.5001	105.469	85.1632	105.469	85.4516	105.469	85.1075	105.469	85.3851	105.469	85.0524	105.469	85.2993	105.469	84.9974	105.469	85.1966	105.469	84.9423	105.469	85.0843	105.469	84.8874	105.469	84.9733	105.469	84.8344	105.469	84.8749	105.469	84.786	105.469	84.7971	105.469	84.7458	105.469	84.7433	105.469	84.7178	105.469	84.7135	105.469	84.7059
109.131	85.6095	109.131	85.5731	109.131	85.6375	109.131	85.5286	109.131	85.6574	109.131	85.4772	109.131	85.6699	109.131	85.4209	109.131	85.6751	109.131	85.3621	109.131	85.6721	109.131	85.3032	109.131	85.6583	109.131	85.2458	109.131	85.63	109.131	85.1911	109.131	85.583	109.131	85.1392	109.131	85.5143	109.131	85.0895	109.131	85.424	109.131	85.0415	109.131	85.3161	109.131	84.9945	109.131	85.1998	109.131	84.9487	109.131	85.0867	109.131	84.9055	109.131	84.9877	109.131	84.867	109.131	84.9098	109.131	84.8362	109.131	84.8553	109.131	84.8166	109.131	84.8233	109.131	84.8113
112.793	85.4267	112.793	85.4003	112.793	85.4446	112.793	85.3648	112.793	85.4555	112.793	85.3211	112.793	85.4618	112.793	85.2711	112.793	85.4655	112.793	85.2177	112.793	85.467	112.793	85.1634	112.793	85.4647	112.793	85.1106	112.793	85.4543	112.793	85.0607	112.793	85.4305	112.793	85.0141	112.793	85.3878	112.793	84.9703	112.793	85.3232	112.793	84.9287	112.793	85.238	112.793	84.8884	112.793	85.139	112.793	84.8495	112.793	85.0362	112.793	84.813	112.793	84.9408	112.793	84.781	112.793	84.8612	112.793	84.7567	112.793	84.8017	112.793	84.7434	112.793	84.7633	112.793	84.7446
116.455	85.1721	116.455	85.1724	116.455	85.1579	116.455	85.157	116.455	85.1338	116.455	85.1263	116.455	85.105	116.455	85.0824	116.455	85.0773	116.455	85.0284	116.455	85.0546	116.455	84.9682	116.455	85.038	116.455	84.9048	116.455	85.0244	116.455	84.8409	116.455	85.0073	116.455	84.7777	116.455	84.9781	116.455	84.7161	116.455	84.9298	116.455	84.6559	116.455	84.8596	116.455	84.5973	116.455	84.771	116.455	84.5408	116.455	84.6731	116.455	84.4883	116.455	84.5777	116.455	84.4421	116.455	84.4954	116.455	84.4059	116.455	84.4333	116.455	84.3834	116.455	84.3944	116.455	84.3785
120.85	85.5367	120.85	85.5753	120.85	85.465	120.85	85.5812	120.85	85.3633	120.85	85.5573	120.85	85.2378	120.85	85.5082	120.85	85.0976	120.85	85.4396	120.85	84.9537	120.85	85.3573	120.85	84.8166	120.85	85.2661	120.85	84.6937	120.85	85.1697	120.85	84.5875	120.85	85.0703	120.85	84.4955	120.85	84.9688	120.85	84.4118	120.85	84.8651	120.85	84.3316	120.85	84.7589	120.85	84.2541	120.85	84.6504	120.85	84.1839	120.85	84.5411	120.85	84.1289	120.85	84.4336	120.85	84.0968	120.85	84.3322	120.85	84.0925	120.85	84.2419	120.85	84.1171	120.85	84.1684
125.244	86.0398	125.244	86.0414	125.244	86.0077	125.244	86.0146	125.244	85.9457	125.244	85.9637	125.244	85.8571	125.244	85.8943	125.244	85.7485	125.244	85.8128	125.244	85.6285	125.244	85.7254	125.244	85.5067	125.244	85.6375	125.244	85.3922	125.244	85.553	125.244	85.2911	125.244	85.474	125.244	85.2056	125.244	85.4009	125.244	85.1343	125.244	85.3325	125.244	85.0746	125.244	85.2672	125.244	85.0246	125.244	85.2035	125.244	84.9838	125.244	85.1409	125.244	84.9523	125.244	85.0805	125.244	84.9308	125.244	85.0251	125.244	84.9209	125.244	84.9783	125.244	84.9248	125.244	84.944
129.639	85.7591	129.639	85.7588	129.639	85.7255	129.639	85.7261	129.639	85.6595	129.639	85.6651	129.639	85.5655	129.639	85.5818	129.639	85.4513	129.639	85.4837	129.639	85.3274	129.639	85.3784	129.639	85.2057	129.639	85.2732	129.639	85.0976	129.639	85.1743	129.639	85.0111	129.639	85.086	129.639	84.9486	129.639	85.01	129.639	84.906	129.639	84.9464	129.639	84.8753	129.639	84.8931	129.639	84.8482	129.639	84.8475	129.639	84.8192	129.639	84.8072	129.639	84.7872	129.639	84.7711	129.639	84.7547	129.639	84.7403	129.639	84.7271	129.639	84.7176	129.639	84.7099	129.639	84.7066
134.033	85.759	134.033	85.7645	134.033	85.7129	134.033	85.7313	134.033	85.6266	134.033	85.6636	134.033	85.504	134.033	85.5672	134.033	85.3519	134.033	85.4491	134.033	85.1807	134.033	85.3163	134.033	85.0035	134.033	85.176	134.033	84.8343	134.033	85.0342	134.033	84.6851	134.033	84.8959	134.033	84.562	134.033	84.7643	134.033	84.4635	134.033	84.641	134.033	84.3811	134.033	84.5262	134.033	84.3048	134.033	84.419	134.033	84.2282	134.033	84.3187	134.033	84.1522	134.033	84.2258	134.033	84.0847	134.033	84.1429	134.033	84.0369	134.033	84.0758	134.033	84.018	134.033	84.0319
138.428	85.5277	138.428	85.538	138.428	85.4815	138.428	85.5135	138.428	85.4003	138.428	85.4579	138.428	85.2877	138.428	85.3762	138.428	85.1494	138.428	85.2749	138.428	84.9933	138.428	85.1608	138.428	84.8285	138.428	85.0403	138.428	84.6646	138.428	84.9189	138.428	84.5093	138.428	84.8006	138.428	84.367	138.428	84.6871	138.428	84.2374	138.428	84.5787	138.428	84.1173	138.428	84.4733	138.428	84.0037	138.428	84.3681	138.428	83.898	138.428	84.2598	138.428	83.8083	138.428	84.1469	138.428	83.7473	138.428	84.0309	138.428	83.7274	138.428	83.9186	138.428	83.7536	138.428	83.8214
143.555	85.1343	143.555	85.1693	143.555	85.0531	143.555	85.1582	143.555	84.9299	143.555	85.1048	143.555	84.773	143.555	85.0157	143.555	84.5944	143.555	84.8996	143.555	84.4084	143.555	84.7659	143.555	84.2294	143.555	84.6239	143.555	84.0693	143.555	84.4816	143.555	83.9344	143.555	84.3454	143.555	83.8243	143.555	84.2191	143.555	83.7325	143.555	84.1042	143.555	83.6498	143.555	83.9998	143.555	83.5693	143.555	83.903	143.555	83.4902	143.555	83.8097	143.555	83.42	143.555	83.716	143.555	83.3719	143.555	83.6208	143.555	83.3583	143.555	83.5272	143.555	83.384	143.555	83.4441
148.682	85.4626	148.682	85.497	148.682	85.3634	148.682	85.4715	148.682	85.1995	148.682	85.3946	148.682	84.9773	148.682	85.2773	148.682	84.711	148.682	85.1318	148.682	84.4229	148.682	84.9704	148.682	84.1412	148.682	84.8047	148.682	83.8951	148.682	84.644	148.682	83.706	148.682	84.4957	148.682	83.5806	148.682	84.3639	148.682	83.5094	148.682	84.2498	148.682	83.4735	148.682	84.1514	148.682	83.4549	148.682	84.0645	148.682	83.4435	148.682	83.9829	148.682	83.44	148.682	83.9007	148.682	83.4522	148.682	83.8136	148.682	83.488	148.682	83.7219	148.682	83.5494	148.682	83.6307
153.809	85.5517	153.809	85.5384	153.809	85.4998	153.809	85.4677	153.809	85.3785	153.809	85.35	153.809	85.1887	153.809	85.1975	153.809	84.9386	153.809	85.023	153.809	84.6454	153.809	84.8393	153.809	84.3364	153.809	84.6583	153.809	84.0467	153.809	84.4902	153.809	83.8121	153.809	84.3428	153.809	83.6572	153.809	84.2207	153.809	83.5862	153.809	84.1258	153.809	83.5827	153.809	84.0564	153.809	83.6187	153.809	84.008	153.809	83.6677	153.809	83.9735	153.809	83.7132	153.809	83.9454	153.809	83.7505	153.809	83.9172	153.809	83.7833	153.809	83.8856	153.809	83.8163	153.809	83.8511
159.668	85.3111	159.668	85.2715	159.668	85.293	159.668	85.1829	159.668	85.2105	159.668	85.055	159.668	85.06	159.668	84.8979	159.668	84.8435	159.668	84.722	159.668	84.571	159.668	84.5379	159.668	84.2623	159.668	84.3549	159.668	83.9456	159.668	84.1813	159.668	83.6522	159.668	84.0227	159.668	83.4071	159.668	83.882	159.668	83.2211	159.668	83.7588	159.668	83.0896	159.668	83.6494	159.668	82.999	159.668	83.5482	159.668	82.9366	159.668	83.4486	159.668	82.8964	159.668	83.3454	159.668	82.8808	159.668	83.2371	159.668	82.8961	159.668	83.1277	159.668	82.9459	159.668	83.0265
164.795	84.8279	164.795	84.8051	164.795	84.795	164.795	84.7316	164.795	84.704	164.795	84.6145	164.795	84.5552	164.795	84.4634	164.795	84.3533	164.795	84.29	164.795	84.1109	164.795	84.1082	164.795	83.8497	164.795	83.9321	164.795	83.6	164.795	83.7747	164.795	83.3933	164.795	83.6459	164.795	83.2499	164.795	83.5506	164.795	83.1693	164.795	83.4874	164.795	83.131	164.795	83.4481	164.795	83.1082	164.795	83.4199	164.795	83.0814	164.795	83.388	164.795	83.0477	164.795	83.3405	164.795	83.0192	164.795	83.2727	164.795	83.0141	164.795	83.1901	164.795	83.0441	164.795	83.1076
170.654	84.8564	170.654	84.8532	170.654	84.7682	170.654	84.7692	170.654	84.5812	170.654	84.6173	170.654	84.2925	170.654	84.4121	170.654	83.9072	170.654	84.1697	170.654	83.4419	170.654	83.9076	170.654	82.9304	170.654	83.6444	170.654	82.4261	170.654	83.3993	170.654	81.9967	170.654	83.1905	170.654	81.703	170.654	83.0324	170.654	81.569	170.654	82.9314	170.654	81.5682	170.654	82.8824	170.654	81.6429	170.654	82.8668	170.654	81.7399	170.654	82.8563	170.654	81.8361	170.654	82.8209	170.654	81.9399	170.654	82.7383	170.654	82.0716	170.654	82.6022	170.654	82.239	170.654	82.4262
176.514	84.9693	176.514	84.9201	176.514	84.9523	176.514	84.8105	176.514	84.8654	176.514	84.6481	176.514	84.7072	176.514	84.442	176.514	84.48	176.514	84.203	176.514	84.1916	176.514	83.9434	176.514	83.858	176.514	83.6768	176.514	83.5041	176.514	83.4184	176.514	83.1632	176.514	83.1854	176.514	82.872	176.514	82.9964	176.514	82.6615	176.514	82.8693	176.514	82.5481	176.514	82.8164	176.514	82.5299	176.514	82.8378	176.514	82.5899	176.514	82.9169	176.514	82.7035	176.514	83.0231	176.514	82.844	176.514	83.1194	176.514	82.985	176.514	83.1739	176.514	83.1007	176.514	83.1681
183.105	84.7823	183.105	84.7428	183.105	84.7544	183.105	84.6457	183.105	84.6515	183.105	84.5014	183.105	84.4692	183.105	84.321	183.105	84.2098	183.105	84.1157	183.105	83.8854	183.105	83.8965	183.105	83.5207	183.105	83.6743	183.105	83.1539	183.105	83.4598	183.105	82.8317	183.105	83.2631	183.105	82.595	183.105	83.0942	183.105	82.463	183.105	82.962	183.105	82.4248	183.105	82.8725	183.105	82.449	183.105	82.8259	183.105	82.5034	183.105	82.8147	183.105	82.5676	183.105	82.8235	183.105	82.6337	183.105	82.8339	183.105	82.6987	183.105	82.8301	183.105	82.7582	183.105	82.8045
189.697	84.5917	189.697	84.5667	189.697	84.5454	189.697	84.4763	189.697	84.4246	189.697	84.3292	189.697	84.2306	189.697	84.136	189.697	83.9712	189.697	83.9101	189.697	83.6644	189.697	83.6663	189.697	83.3394	189.697	83.4203	189.697	83.035	189.697	83.1873	189.697	82.7924	189.697	82.9812	189.697	82.644	189.697	82.8135	189.697	82.6007	189.697	82.6932	189.697	82.6471	189.697	82.6255	189.697	82.7471	189.697	82.6107	189.697	82.8589	189.697	82.6422	189.697	82.9498	189.697	82.7074	189.697	83.0031	189.697	82.7897	189.697	83.0164	189.697	82.8729	189.697	82.9944	189.697	82.9442
196.289	84.82	196.289	84.7605	196.289	84.806	196.289	84.6359	196.289	84.7106	196.289	84.4552	196.289	84.5284	196.289	84.2293	196.289	84.2603	196.289	83.9713	196.289	83.9189	196.289	83.6974	196.289	83.5345	196.289	83.4256	196.289	83.1555	196.289	83.1748	196.289	82.8401	196.289	82.9624	196.289	82.6368	196.289	82.8014	196.289	82.5631	196.289	82.6975	196.289	82.5983	196.289	82.6474	196.289	82.6947	196.289	82.6394	196.289	82.7991	196.289	82.6578	196.289	82.8719	196.289	82.6879	196.289	82.8969	196.289	82.7211	196.289	82.8803	196.289	82.7562	196.289	82.8407	196.289	82.7962
202.881	84.6432	202.881	84.6588	202.881	84.5391	202.881	84.5896	202.881	84.3472	202.881	84.4439	202.881	84.0735	202.881	84.2338	202.881	83.7312	202.881	83.9753	202.881	83.3441	202.881	83.6871	202.881	82.95	202.881	83.3904	202.881	82.6005	202.881	83.1073	202.881	82.3521	202.881	82.8602	202.881	82.2452	202.881	82.6685	202.881	82.2822	202.881	82.5461	202.881	82.4225	202.881	82.4963	202.881	82.6024	202.881	82.51	202.881	82.764	202.881	82.5674	202.881	82.8731	202.881	82.6449	202.881	82.9222	202.881	82.7228	202.881	82.9227	202.881	82.7907	202.881	82.893	202.881	82.8473
210.205	85.0084	210.205	84.9869	210.205	84.9179	210.205	84.8657	210.205	84.707	210.205	84.6601	210.205	84.3737	210.205	84.3876	210.205	83.9275	210.205	84.0687	210.205	83.3977	210.205	83.7259	210.205	82.8407	210.205	83.3842	210.205	82.341	210.205	83.0697	210.205	81.9925	210.205	82.8077	210.205	81.8589	210.205	82.6188	210.205	81.9383	210.205	82.513	210.205	82.1671	210.205	82.486	210.205	82.4548	210.205	82.5182	210.205	82.7193	210.205	82.5824	210.205	82.906	210.205	82.6545	210.205	82.994	210.205	82.7228	210.205	82.9942	210.205	82.79	210.205	82.9385	210.205	82.863
217.529	85.5504	217.529	85.4849	217.529	85.5238	217.529	85.3435	217.529	85.3871	217.529	85.1399	217.529	85.1235	217.529	84.8855	217.529	84.7217	217.529	84.5917	217.529	84.1828	217.529	84.2711	217.529	83.5306	217.529	83.9394	217.529	82.8236	217.529	83.6168	217.529	82.1621	217.529	83.327	217.529	81.6695	217.529	83.0941	217.529	81.4298	217.529	82.9348	217.529	81.4247	217.529	82.8487	217.529	81.5485	217.529	82.8133	217.529	81.688	217.529	82.7874	217.529	81.7837	217.529	82.7268	217.529	81.8404	217.529	82.6026	217.529	81.9045	217.529	82.4168	217.529	82.023	217.529	82.2057
225.586	85.0955	225.586	85.1011	225.586	84.9996	225.586	85.0213	225.586	84.8108	225.586	84.8624	225.586	84.5304	225.586	84.6334	225.586	84.1682	225.586	84.3468	225.586	83.7461	225.586	84.02	225.586	83.303	225.586	83.6756	225.586	82.8951	225.586	83.3418	225.586	82.5902	225.586	83.0509	225.586	82.4473	225.586	82.8363	225.586	82.4855	225.586	82.7244	225.586	82.6667	225.586	82.725	225.586	82.9153	225.586	82.8238	225.586	83.1578	225.586	82.9858	225.586	83.3492	225.586	83.1671	225.586	83.4754	225.586	83.3302	225.586	83.5412	225.586	83.4526	225.586	83.5567	225.586	83.5275
232.91	85.7407	232.91	85.771	232.91	85.5942	232.91	85.6885	232.91	85.3337	232.91	85.5016	232.91	84.9675	232.91	85.2229	232.91	84.5115	232.91	84.8696	232.91	83.9912	232.91	84.4632	232.91	83.4464	232.91	84.0297	232.91	82.9393	232.91	83.5993	232.91	82.5583	232.91	83.2059	232.91	82.396	232.91	82.8837	232.91	82.4907	232.91	82.6596	232.91	82.782	232.91	82.5447	232.91	83.1427	232.91	82.5304	232.91	83.4529	232.91	82.5932	232.91	83.642	232.91	82.7081	232.91	83.6901	232.91	82.8596	232.91	83.6133	232.91	83.0415	232.91	83.4497	232.91	83.2458
241.699	87.085	241.699	86.9652	241.699	87.0421	241.699	86.7103	241.699	86.8085	241.699	86.346	241.699	86.361	241.699	85.8953	241.699	85.6878	241.699	85.3811	241.699	84.7991	241.699	84.828	241.699	83.7416	241.699	84.2667	241.699	82.6161	241.699	83.7359	241.699	81.5896	241.699	83.2818	241.699	80.8686	241.699	82.9473	241.699	80.5964	241.699	82.7509	241.699	80.7376	241.699	82.6689	241.699	81.1054	241.699	82.6384	241.699	81.498	241.699	82.5868	241.699	81.7869	241.699	82.468	241.699	81.9298	241.699	82.2867	241.699	81.955	241.699	82.0981	241.699	81.9401	241.699	81.973
249.756	86.5835	249.756	86.5652	249.756	86.4698	249.756	86.432	249.756	86.2054	249.756	86.1975	249.756	85.7768	249.756	85.8722	249.756	85.1855	249.756	85.4661	249.756	84.4596	249.756	84.9916	249.756	83.6608	249.756	84.4664	249.756	82.881	249.756	83.917	249.756	82.2238	249.756	83.3819	249.756	81.7753	249.756	82.9098	249.756	81.5697	249.756	82.5463	249.756	81.565	249.756	82.3074	249.756	81.6538	249.756	82.1571	249.756	81.7131	249.756	82.015	249.756	81.6518	249.756	81.7989	249.756	81.4412	249.756	81.4792	249.756	81.1401	249.756	81.1228	249.756	80.9002	249.756	80.8851
258.545	87.7061	258.545	87.6385	258.545	87.628	258.545	87.4498	258.545	87.3782	258.545	87.1599	258.545	86.937	258.545	86.7838	258.545	86.3011	258.545	86.3345	258.545	85.4962	258.545	85.827	258.545	84.5863	258.545	85.2814	258.545	83.6755	258.545	84.7271	258.545	82.8905	258.545	84.2042	258.545	82.34	258.545	83.7623	258.545	82.0635	258.545	83.4487	258.545	82.0051	258.545	83.2863	258.545	82.0453	258.545	83.252	258.545	82.0758	258.545	83.2761	258.545	82.0579	258.545	83.269	258.545	82.0343	258.545	83.1587	258.545	82.0919	258.545	82.9214	258.545	82.2898	258.545	82.5994
268.066	88.3465	268.066	88.1423	268.066	88.4209	268.066	87.8365	268.066	88.3257	268.066	87.447	268.066	88.0136	268.066	86.9862	268.066	87.4398	268.066	86.4669	268.066	86.5775	268.066	85.9071	268.066	85.4416	268.066	85.3342	268.066	84.1263	268.066	84.7879	268.066	82.8417	268.066	84.3214	268.066	81.8694	268.066	83.9933	268.066	81.3622	268.066	83.8447	268.066	81.2024	268.066	83.8701	268.066	81.1614	268.066	84.0045	268.066	81.1081	268.066	84.1427	268.066	81.0662	268.066	84.1729	268.066	81.1739	268.066	84.0053	268.066	81.5651	268.066	83.5945	268.066	82.2203	268.066	82.9619
277.588	87.2645	277.588	87.0031	277.588	87.424	277.588	86.6653	277.588	87.4485	277.588	86.2659	277.588	87.3018	277.588	85.8119	277.588	86.9517	277.588	85.3072	277.588	86.3802	277.588	84.7602	277.588	85.5963	277.588	84.1926	277.588	84.6584	277.588	83.6475	277.588	83.7013	277.588	83.191	277.588	82.9358	277.588	82.8972	277.588	82.5511	277.588	82.8134	277.588	82.5593	277.588	82.9281	277.588	82.799	277.588	83.1768	277.588	83.1016	277.588	83.4792	277.588	83.3896	277.588	83.7693	277.588	83.6523	277.588	84.0001	277.588	83.8869	277.588	84.1374	277.588	84.0686	277.588	84.1603
287.109	87.4615	287.109	87.4803	287.109	87.3038	287.109	87.3553	287.109	87.027	287.109	87.0924	287.109	86.6601	287.109	86.7026	287.109	86.2236	287.109	86.1972	287.109	85.7118	287.109	85.5878	287.109	85.1005	287.109	84.8912	287.109	84.3876	287.109	84.1412	287.109	83.6469	287.109	83.4068	287.109	83.0428	287.109	82.803	287.109	82.7427	287.109	82.461	287.109	82.7739	287.109	82.4389	287.109	83.0096	287.109	82.6556	287.109	83.2858	287.109	82.9454	287.109	83.4824	287.109	83.168	287.109	83.5437	287.109	83.2696	287.109	83.4833	287.109	83.2857	287.109	83.3744	287.109	83.3009
297.363	87.7547	297.363	87.3499	297.363	87.9685	297.363	86.8534	297.363	87.892	297.363	86.335	297.363	87.4532	297.363	85.8194	297.363	86.6304	297.363	85.2956	297.363	85.4768	297.363	84.7417	297.363	84.1411	297.363	84.1481	297.363	82.8551	297.363	83.535	297.363	81.8635	297.363	82.9639	297.363	81.3406	297.363	82.5376	297.363	81.3163	297.363	82.3615	297.363	81.6101	297.363	82.4621	297.363	81.9231	297.363	82.7428	297.363	82.0512	297.363	83.0408	297.363	81.9897	297.363	83.2182	297.363	81.8965	297.363	83.2045	297.363	81.9609	297.363	82.994	297.363	82.2421	297.363	82.637
307.617	86.9084	307.617	86.6807	307.617	87.1144	307.617	86.4408	307.617	87.2302	307.617	86.1565	307.617	87.1485	307.617	85.7892	307.617	86.7666	307.617	85.3175	307.617	86.0244	307.617	84.7418	307.617	84.9382	307.617	84.0817	307.617	83.6398	307.617	83.3775	307.617	82.4007	307.617	82.7033	307.617	81.5458	307.617	82.1838	307.617	81.2301	307.617	81.978	307.617	81.3485	307.617	82.1774	307.617	81.6974	307.617	82.6933	307.617	82.132	307.617	83.3015	307.617	82.5933	307.617	83.7939	307.617	83.0494	307.617	84.0658	307.617	83.4554	307.617	84.1164	307.617	83.7761	307.617	84.0023
318.604	86.5449	318.604	86.2477	318.604	86.8361	318.604	85.9454	318.604	87.0644	318.604	85.6004	318.604	87.1301	318.604	85.1669	318.604	86.9231	318.604	84.6095	318.604	86.3528	318.604	83.908	318.604	85.3675	318.604	83.058	318.604	83.982	318.604	82.0812	318.604	82.3396	318.604	81.0553	318.604	80.8029	318.604	80.1666	318.604	79.8843	318.604	79.715	318.604	79.7965	318.604	79.9217	318.604	80.2658	318.604	80.6681	318.604	80.9422	318.604	81.5994	318.604	81.6184	318.604	82.4117	318.604	82.1929	318.604	82.9493	318.604	82.6347	318.604	83.18	318.604	82.9553	318.604	83.1545
329.59	86.8226	329.59	86.8247	329.59	86.8068	329.59	86.7648	329.59	86.8007	329.59	86.5993	329.59	86.7717	329.59	86.3012	329.59	86.6343	329.59	85.8585	329.59	86.2882	329.59	85.2676	329.59	85.6665	329.59	84.5308	329.59	84.7703	329.59	83.6597	329.59	83.6978	329.59	82.6884	329.59	82.66	329.59	81.6964	329.59	81.917	329.59	80.8282	329.59	81.5921	329.59	80.2682	329.59	81.5794	329.59	80.136	329.59	81.6997	329.59	80.3831	329.59	81.8472	329.59	80.833	329.59	81.9798	329.59	81.3077	329.59	82.0657	329.59	81.6955	329.59	82.0673	329.59	81.9503
341.309	86.2368	341.309	86.286	341.309	86.0952	341.309	86.2106	341.309	85.9044	341.309	85.9941	341.309	85.6988	341.309	85.6359	341.309	85.4721	341.309	85.1493	341.309	85.1627	341.309	84.5598	341.309	84.6884	341.309	83.9028	341.309	84.0198	341.309	83.2233	341.309	83.2476	341.309	82.5776	341.309	82.586	341.309	82.0334	341.309	82.2479	341.309	81.6641	341.309	82.2741	341.309	81.5305	341.309	82.5348	341.309	81.6529	341.309	82.8536	341.309	81.9811	341.309	83.094	341.309	82.3956	341.309	83.2016	341.309	82.7619	341.309	83.2056	341.309	82.9995	341.309	83.1686	341.309	83.1144
353.76	86.6535	353.76	86.5836	353.76	86.558	353.76	86.368	353.76	86.2952	353.76	86.0284	353.76	85.8905	353.76	85.5776	353.76	85.381	353.76	85.018	353.76	84.7784	353.76	84.3446	353.76	84.059	353.76	83.5528	353.76	83.225	353.76	82.6541	353.76	82.4053	353.76	81.7074	353.76	81.8718	353.76	80.8518	353.76	81.8171	353.76	80.2767	353.76	82.1229	353.76	80.0815	353.76	82.5288	353.76	80.1844	353.76	82.8774	353.76	80.4561	353.76	83.1227	353.76	80.8661	353.76	83.2508	353.76	81.4284	353.76	83.2375	353.76	82.0713	353.76	83.0454	353.76	82.6475
366.211	86.2418	366.211	86.1782	366.211	86.1042	366.211	85.9426	366.211	85.7366	366.211	85.5471	366.211	85.1493	366.211	84.993	366.211	84.4209	366.211	84.2879	366.211	83.6667	366.211	83.4613	366.211	82.9345	366.211	82.5729	366.211	82.1702	366.211	81.7165	366.211	81.3766	366.211	81.014	366.211	80.8034	366.211	80.5835	366.211	80.8109	366.211	80.476	366.211	81.3845	366.211	80.6251	366.211	82.1228	366.211	80.8715	366.211	82.6686	366.211	81.0435	366.211	82.847	366.211	81.0351	366.211	82.6159	366.211	80.8649	366.211	82.0481	366.211	80.7113	366.211	81.3529	366.211	80.8399
378.662	86.8072	378.662	86.5055	378.662	86.9707	378.662	86.1101	378.662	86.928	378.662	85.6332	378.662	86.6028	378.662	85.0588	378.662	85.9261	378.662	84.3551	378.662	84.85	378.662	83.4862	378.662	83.3702	378.662	82.4204	378.662	81.5825	378.662	81.1437	378.662	79.7995	378.662	79.6991	378.662	78.5798	378.662	78.2738	378.662	78.2566	378.662	77.2917	378.662	78.5354	378.662	77.1954	378.662	78.9869	378.662	77.8977	378.662	79.3656	378.662	78.8904	378.662	79.5816	378.662	79.7828	378.662	79.7339	378.662	80.4086	378.662	80.0091	378.662	80.7154	378.662	80.4005	378.662	80.6945
392.578	86.3327	392.578	86.3641	392.578	86.1546	392.578	86.2896	392.578	85.7668	392.578	86.0971	392.578	85.1645	392.578	85.7444	392.578	84.4691	392.578	85.194	392.578	83.8585	392.578	84.4302	392.578	83.3407	392.578	83.4681	392.578	82.7054	392.578	82.3762	392.578	81.8005	392.578	81.3265	392.578	80.7866	392.578	80.6007	392.578	80.0997	392.578	80.3824	392.578	79.9597	392.578	80.4886	392.578	80.0729	392.578	80.5222	392.578	80.0923	392.578	80.2138	392.578	79.9142	392.578	79.577	392.578	79.602	392.578	78.935	392.578	79.2818	392.578	78.6762	392.578	79.0213	392.578	78.7921
405.762	86.3002	405.762	86.1246	405.762	86.4408	405.762	85.9605	405.762	86.4098	405.762	85.758	405.762	86.047	405.762	85.4283	405.762	85.2306	405.762	84.8962	405.762	83.9163	405.762	84.1148	405.762	82.1926	405.762	83.0602	405.762	80.4028	405.762	81.7431	405.762	79.1724	405.762	80.2816	405.762	78.8457	405.762	79.0598	405.762	79.05	405.762	78.6856	405.762	79.3395	405.762	79.2659	405.762	79.5199	405.762	80.1922	405.762	79.4692	405.762	80.9332	405.762	79.1448	405.762	81.2974	405.762	78.775	405.762	81.2785	405.762	78.8293	405.762	80.9224	405.762	79.4575	405.762	80.2742
420.41	85.651	420.41	85.8379	420.41	85.4335	420.41	85.8894	420.41	85.2652	420.41	85.7349	420.41	85.1315	420.41	85.3509	420.41	84.9146	420.41	84.7477	420.41	84.4467	420.41	83.9496	420.41	83.5774	420.41	82.9786	420.41	82.2566	420.41	81.8503	420.41	80.7002	420.41	80.5995	420.41	79.5327	420.41	79.3652	420.41	79.2207	420.41	78.523	420.41	79.3423	420.41	78.5367	420.41	79.3709	420.41	79.3096	420.41	79.2821	420.41	80.2105	420.41	79.3001	420.41	80.7773	420.41	79.5567	420.41	80.9199	420.41	79.971	420.41	80.7985	420.41	80.3484	420.41	80.6031
435.059	85.9751	435.059	85.9541	435.059	85.863	435.059	85.8221	435.059	85.5542	435.059	85.5564	435.059	84.995	435.059	85.1226	435.059	84.1923	435.059	84.4996	435.059	83.1989	435.059	83.6809	435.059	82.051	435.059	82.6631	435.059	80.8203	435.059	81.4454	435.059	79.8201	435.059	80.0619	435.059	79.4611	435.059	78.6654	435.059	79.5937	435.059	77.6225	435.059	79.6924	435.059	77.3866	435.059	79.5151	435.059	78.0387	435.059	79.1374	435.059	79.184	435.059	78.7466	435.059	80.3496	435.059	78.6205	435.059	81.1925	435.059	79.1373	435.059	81.4904	435.059	80.194	435.059	81.1301
450.439	84.6207	450.439	85.2553	450.439	83.8102	450.439	85.5121	450.439	83.2162	450.439	85.3664	450.439	83.0918	450.439	84.886	450.439	83.1735	450.439	84.1736	450.439	82.9499	450.439	83.3244	450.439	82.04	450.439	82.3923	450.439	80.2917	450.439	81.3808	450.439	78.0984	450.439	80.2818	450.439	77.1157	450.439	79.1739	450.439	78.099	450.439	78.3376	450.439	79.3302	450.439	78.1466	450.439	80.0041	450.439	78.6025	450.439	80.2918	450.439	79.3013	450.439	80.6324	450.439	79.9768	450.439	81.2776	450.439	80.6907	450.439	82.0126	450.439	81.5127	450.439	82.4008	450.439	82.1992
466.553	87.0334	466.553	86.9227	466.553	86.6078	466.553	86.3873	466.553	85.632	466.553	85.5748	466.553	84.2809	466.553	84.6136	466.553	82.9793	466.553	83.5761	466.553	82.102	466.553	82.4913	466.553	81.4601	466.553	81.3906	466.553	80.5539	466.553	80.3437	466.553	79.1457	466.553	79.4488	466.553	77.6409	466.553	78.7671	466.553	77.3397	466.553	78.2907	466.553	78.5715	466.553	78.056	466.553	79.9701	466.553	78.2315	466.553	80.841	466.553	78.8914	466.553	81.2364	466.553	79.8325	466.553	81.438	466.553	80.7949	466.553	81.6953	466.553	81.5768	466.553	81.9733	466.553	81.9923
482.666	87.2877	482.666	87.0039	482.666	87.2465	482.666	86.5337	482.666	86.6985	482.666	85.9273	482.666	85.5198	482.666	85.1691	482.666	83.8009	482.666	84.2274	482.666	82.0245	482.666	83.0797	482.666	80.7971	482.666	81.7108	482.666	80.0899	482.666	80.1121	482.666	79.5743	482.666	78.313	482.666	79.2749	482.666	76.4825	482.666	79.3172	482.666	75.1163	482.666	79.5664	482.666	74.9518	482.666	79.732	482.666	75.957	482.666	79.7045	482.666	77.1854	482.666	79.6343	482.666	77.9552	482.666	79.6183	482.666	78.1816	482.666	79.495	482.666	78.2367	482.666	79.1016	482.666	78.5625
500.244	86.0149	500.244	85.8254	500.244	85.8397	500.244	85.2331	500.244	85.3624	500.244	84.2596	500.244	84.6243	500.244	82.9883	500.244	83.6225	500.244	81.5272	500.244	82.329	500.244	79.9656	500.244	80.7482	500.244	78.3954	500.244	78.9938	500.244	77.0044	500.244	77.3489	500.244	76.1242	500.244	76.2286	500.244	76.0756	500.244	75.9408	500.244	76.8405	500.244	76.3619	500.244	77.9954	500.244	77.0389	500.244	79.0681	500.244	77.6069	500.244	79.7735	500.244	77.954	500.244	79.9985	500.244	78.1412	500.244	79.765	500.244	78.268	500.244	79.2485	500.244	78.4267	500.244	78.7387
517.822	85.9449	517.822	85.9263	517.822	85.6674	517.822	85.5347	517.822	85.139	517.822	84.6996	517.822	84.367	517.822	83.4116	517.822	83.3581	517.822	81.807	517.822	82.1637	517.822	80.2586	517.822	80.861	517.822	79.2094	517.822	79.4723	517.822	78.6462	517.822	78.0136	517.822	78.0993	517.822	76.7676	517.822	77.1692	517.822	76.213	517.822	75.8163	517.822	76.2483	517.822	74.7737	517.822	76.353	517.822	75.515	517.822	76.4226	517.822	77.6902	517.822	76.7893	517.822	79.775	517.822	77.7383	517.822	81.1481	517.822	79.1222	517.822	81.6934	517.822	80.4938	517.822	81.4359
536.133	86.0291	536.133	85.6233	536.133	86.0583	536.133	84.8895	536.133	85.6914	536.133	83.8985	536.133	84.9507	536.133	82.7342	536.133	83.9087	536.133	81.4786	536.133	82.6633	536.133	80.2138	536.133	81.2725	536.133	79.0474	536.133	79.7368	536.133	78.0992	536.133	78.101	536.133	77.4009	536.133	76.5842	536.133	76.8647	536.133	75.5375	536.133	76.4369	536.133	75.154	536.133	76.2718	536.133	75.3308	536.133	76.6266	536.133	75.8769	536.133	77.4449	536.133	76.654	536.133	78.351	536.133	77.5434	536.133	79.0496	536.133	78.4007	536.133	79.4227	536.133	79.0701	536.133	79.4298
554.443	86.4369	554.443	86.6593	554.443	85.7907	554.443	86.31	554.443	84.9886	554.443	85.3635	554.443	84.2862	554.443	83.8949	554.443	83.7056	554.443	82.0731	554.443	83.0105	554.443	80.1505	554.443	81.8628	554.443	78.4253	554.443	79.9174	554.443	77.1914	554.443	76.872	554.443	76.6744	554.443	72.902	554.443	76.8411	554.443	70.7109	554.443	77.2858	554.443	71.9282	554.443	77.5492	554.443	73.5936	554.443	77.5075	554.443	75.2553	554.443	77.5709	554.443	77.0625	554.443	78.4064	554.443	78.943	554.443	79.9015	554.443	80.6311	554.443	81.2624	554.443	81.7171	554.443	81.9365
574.219	88.0391	574.219	88.0746	574.219	87.1868	574.219	87.2626	574.219	85.6894	574.219	85.6868	574.219	83.9886	574.219	83.6057	574.219	82.7835	574.219	81.4823	574.219	82.2916	574.219	79.7438	574.219	81.8446	574.219	78.4744	574.219	80.7696	574.219	77.5457	574.219	78.8339	574.219	76.7967	574.219	76.2875	574.219	76.2167	574.219	74.2767	574.219	76.1222	574.219	74.3765	574.219	76.6568	574.219	76.0288	574.219	77.2765	574.219	77.7097	574.219	77.3579	574.219	78.9647	574.219	77.0457	574.219	80.1662	574.219	77.7243	574.219	81.3624	574.219	79.719	574.219	81.9354	574.219	81.3948
594.727	87.9191	594.727	87.1815	594.727	87.9388	594.727	85.9823	594.727	87.1295	594.727	84.6547	594.727	85.4692	594.727	83.3366	594.727	83.0483	594.727	81.8988	594.727	80.4276	594.727	80.2694	594.727	78.9067	594.727	78.6073	594.727	78.7024	594.727	77.128	594.727	78.4851	594.727	75.8964	594.727	77.4754	594.727	74.7823	594.727	76.0229	594.727	73.7354	594.727	75.9329	594.727	73.6986	594.727	77.9141	594.727	75.6597	594.727	79.8904	594.727	77.9482	594.727	80.8269	594.727	79.1228	594.727	80.9354	594.727	78.9275	594.727	80.6055	594.727	78.0844	594.727	79.7206	594.727	78.3971
615.234	87.8783	615.234	87.2769	615.234	87.964	615.234	86.3346	615.234	87.4003	615.234	85.1794	615.234	86.1398	615.234	83.8268	615.234	84.2831	615.234	82.2518	615.234	82.1852	615.234	80.5369	615.234	80.415	615.234	78.964	615.234	79.2396	615.234	77.9025	615.234	78.2988	615.234	77.4207	615.234	77.2552	615.234	77.1398	615.234	76.3496	615.234	76.6323	615.234	76.455	615.234	75.8311	615.234	77.8685	615.234	75.3844	615.234	79.2471	615.234	76.1828	615.234	79.6747	615.234	77.5207	615.234	79.2379	615.234	78.1286	615.234	78.3581	615.234	77.6798	615.234	77.3618	615.234	77.0039
637.207	86.9725	637.207	86.3804	637.207	87.2899	637.207	85.8083	637.207	87.0021	637.207	85.1848	637.207	85.9684	637.207	84.1775	637.207	84.2671	637.207	82.5532	637.207	82.1749	637.207	80.3068	637.207	80.1926	637.207	77.6576	637.207	78.8913	637.207	75.1256	637.207	78.1307	637.207	73.6489	637.207	77.3608	637.207	73.8114	637.207	76.5814	637.207	74.7171	637.207	76.2565	637.207	75.502	637.207	76.6013	637.207	76.3699	637.207	77.1866	637.207	77.5569	637.207	77.5486	637.207	78.3683	637.207	77.596	637.207	78.0634	637.207	77.2515	637.207	76.6512	637.207	76.3229	637.207	75.614
659.912	86.7296	659.912	87.0494	659.912	86.42	659.912	86.9187	659.912	86.1824	659.912	85.9969	659.912	85.622	659.912	84.2949	659.912	84.3201	659.912	82.2168	659.912	81.9263	659.912	80.4199	659.912	78.2862	659.912	79.194	659.912	74.8677	659.912	78.1502	659.912	74.6776	659.912	77.0036	659.912	75.9779	659.912	76.1606	659.912	77.3062	659.912	75.8689	659.912	78.7475	659.912	75.4237	659.912	79.9568	659.912	74.2184	659.912	80.1505	659.912	73.8137	659.912	78.9991	659.912	76.5356	659.912	76.8839	659.912	79.0781	659.912	75.0953	659.912	79.7484	659.912	76.0439	659.912	78.5042
683.35	86.5307	683.35	86.7169	683.35	85.8075	683.35	86.1046	683.35	85.1583	683.35	84.8337	683.35	84.8658	683.35	83.2983	683.35	84.395	683.35	81.7598	683.35	83.0462	683.35	80.1259	683.35	80.4634	683.35	78.3742	683.35	76.5929	683.35	76.7943	683.35	72.0108	683.35	75.6301	683.35	71.3258	683.35	74.9864	683.35	74.1936	683.35	75.0693	683.35	76.4562	683.35	75.9173	683.35	77.5455	683.35	76.8442	683.35	77.105	683.35	77.2615	683.35	75.4647	683.35	77.413	683.35	74.4805	683.35	77.9278	683.35	75.7025	683.35	78.6112	683.35	77.5799	683.35	78.6392
706.787	87.7938	706.787	87.5855	706.787	87.2614	706.787	86.7652	706.787	86.0855	706.787	85.5871	706.787	84.5404	706.787	84.1264	706.787	82.9916	706.787	82.1759	706.787	81.685	706.787	79.7202	706.787	80.4518	706.787	77.3663	706.787	78.9415	706.787	75.8658	706.787	76.8089	706.787	75.2684	706.787	73.3351	706.787	75.3209	706.787	67.8483	706.787	75.8171	706.787	69.1391	706.787	76.442	706.787	73.3515	706.787	76.975	706.787	75.4445	706.787	77.2927	706.787	77.0535	706.787	77.5055	706.787	78.6273	706.787	78.2346	706.787	79.8941	706.787	79.5783	706.787	80.6598	706.787	80.5862
731.689	86.3037	731.689	86.3801	731.689	86.1919	731.689	86.336	731.689	85.859	731.689	85.8615	731.689	85.0341	731.689	84.7096	731.689	83.584	731.689	82.8788	731.689	81.6698	731.689	80.6416	731.689	79.7362	731.689	78.5801	731.689	78.2274	731.689	77.4112	731.689	76.9745	731.689	76.8586	731.689	75.2579	731.689	76.0826	731.689	72.9501	731.689	75.1769	731.689	71.0451	731.689	74.9136	731.689	71.1474	731.689	75.5684	731.689	73.7227	731.689	76.7646	731.689	76.6188	731.689	77.7939	731.689	78.2951	731.689	77.9413	731.689	78.6816	731.689	77.3201	731.689	78.1064	731.689	77.2373
758.057	86.5044	758.057	86.5409	758.057	85.9705	758.057	86.178	758.057	85.1181	758.057	85.5536	758.057	84.17	758.057	84.509	758.057	83.0553	758.057	82.8319	758.057	81.5832	758.057	80.6767	758.057	79.9023	758.057	78.5436	758.057	78.5226	758.057	76.7835	758.057	77.3256	758.057	75.3421	758.057	75.5617	758.057	74.3757	758.057	73.4062	758.057	74.3353	758.057	73.3582	758.057	74.8484	758.057	75.5808	758.057	75.1471	758.057	77.1014	758.057	75.1463	758.057	77.8198	758.057	75.3411	758.057	77.9139	758.057	75.9663	758.057	77.3711	758.057	76.4899	758.057	76.7615	758.057	76.5993
784.424	85.4752	784.424	85.7365	784.424	85.1284	784.424	85.5926	784.424	84.8076	784.424	84.7684	784.424	84.4979	784.424	83.4546	784.424	83.9556	784.424	82.1185	784.424	82.6468	784.424	80.7493	784.424	80.1048	784.424	79.1464	784.424	76.8103	784.424	77.5255	784.424	75.2494	784.424	76.1544	784.424	76.0525	784.424	74.8838	784.424	75.7256	784.424	73.7288	784.424	74.2471	784.424	74.1919	784.424	74.7137	784.424	76.2318	784.424	74.8073	784.424	77.3916	784.424	74.124	784.424	76.9436	784.424	74.2948	784.424	75.6482	784.424	75.3548	784.424	75.3201	784.424	76.1264	784.424	75.9909
812.256	86.7435	812.256	87.1876	812.256	85.566	812.256	86.5413	812.256	84.7023	812.256	85.1263	812.256	84.5004	812.256	83.5391	812.256	84.0418	812.256	82.059	812.256	82.6651	812.256	80.4452	812.256	80.4188	812.256	78.8495	812.256	78.2993	812.256	78.0745	812.256	77.6711	812.256	77.8231	812.256	77.6613	812.256	77.1103	812.256	76.7432	812.256	75.6363	812.256	75.0306	812.256	74.4638	812.256	74.4223	812.256	75.3204	812.256	76.7363	812.256	76.7775	812.256	78.4102	812.256	77.0373	812.256	77.656	812.256	76.3999	812.256	75.568	812.256	76.1105	812.256	74.8483	812.256	75.6753
840.82	86.5751	840.82	86.6993	840.82	86.4125	840.82	86.8156	840.82	85.4794	840.82	86.2416	840.82	83.8661	840.82	84.7741	840.82	82.9206	840.82	82.7609	840.82	82.6235	840.82	80.4748	840.82	81.519	840.82	78.0751	840.82	78.9387	840.82	76.4659	840.82	75.9546	840.82	76.5012	840.82	74.7216	840.82	76.9076	840.82	74.7091	840.82	76.6289	840.82	74.8901	840.82	75.8749	840.82	73.6988	840.82	75.253	840.82	71.9005	840.82	76.219	840.82	72.7611	840.82	78.3336	840.82	75.1277	840.82	78.8197	840.82	75.5752	840.82	76.6036	840.82	73.9673	840.82	73.2325
870.85	86.7359	870.85	86.9449	870.85	85.798	870.85	86.4033	870.85	84.5183	870.85	85.4321	870.85	83.4245	870.85	84.266	870.85	82.8648	870.85	82.7964	870.85	82.4496	870.85	80.9789	870.85	81.2561	870.85	78.9889	870.85	78.9744	870.85	77.1732	870.85	76.4664	870.85	76.4816	870.85	74.5962	870.85	76.8056	870.85	73.8253	870.85	76.5335	870.85	74.1701	870.85	75.6622	870.85	74.0326	870.85	75.8014	870.85	74.2496	870.85	77.1113	870.85	76.0001	870.85	78.468	870.85	77.1158	870.85	78.6988	870.85	76.4293	870.85	77.0221	870.85	74.85	870.85	74.5585
901.611	86.869	901.611	86.7132	901.611	86.4692	901.611	86.1729	901.611	85.2024	901.611	85.2089	901.611	83.5625	901.611	84.0417	901.611	82.9993	901.611	82.7891	901.611	82.9195	901.611	81.0773	901.611	81.4705	901.611	78.5702	901.611	78.5762	901.611	75.8529	901.611	76.1655	901.611	74.9526	901.611	75.054	901.611	75.4522	901.611	74.2592	901.611	75.7489	901.611	74.5885	901.611	75.6345	901.611	74.4577	901.611	75.0299	901.611	74.6134	901.611	74.9999	901.611	75.5918	901.611	76.1464	901.611	74.994	901.611	77.3078	901.611	71.817	901.611	77.292	901.611	71.3202	901.611	75.0619
933.105	85.8875	933.105	86.1399	933.105	85.4635	933.105	85.7305	933.105	84.6918	933.105	84.7226	933.105	83.2514	933.105	83.5256	933.105	82.2117	933.105	81.9319	933.105	82.5962	933.105	80.015	933.105	82.3969	933.105	78.5672	933.105	79.9834	933.105	77.5581	933.105	75.6848	933.105	76.7377	933.105	74.3623	933.105	76.7118	933.105	75.5936	933.105	76.7952	933.105	75.5788	933.105	76.1646	933.105	75.4387	933.105	75.1196	933.105	75.0149	933.105	75.1816	933.105	73.6697	933.105	76.9547	933.105	71.5315	933.105	77.5835	933.105	72.8789	933.105	76.9453	933.105	75.5808	933.105	76.58
966.064	86.4177	966.064	86.2032	966.064	85.9657	966.064	85.4831	966.064	85.1673	966.064	84.7618	966.064	84.0769	966.064	83.9937	966.064	82.9997	966.064	83.082	966.064	82.5213	966.064	81.7743	966.064	81.8597	966.064	79.4509	966.064	79.687	966.064	76.4565	966.064	75.7019	966.064	75.6187	966.064	72.1958	966.064	76.9308	966.064	73.1934	966.064	77.1559	966.064	75.7937	966.064	76.4911	966.064	75.252	966.064	76.548	966.064	72.5304	966.064	76.7607	966.064	73.056	966.064	76.9605	966.064	75.5316	966.064	77.2915	966.064	76.1892	966.064	76.8309	966.064	75.6767	966.064	75.7461
999.756	85.5825	999.756	85.4965	999.756	85.6034	999.756	85.1497	999.756	85.5108	999.756	84.5736	999.756	84.4517	999.756	83.7794	999.756	82.5321	999.756	82.8872	999.756	81.9976	999.756	81.5306	999.756	82.3361	999.756	79.37	999.756	81.0764	999.756	76.5844	999.756	78.6756	999.756	73.8214	999.756	76.2168	999.756	74.021	999.756	73.5087	999.756	76.244	999.756	72.5216	999.756	77.3595	999.756	73.5327	999.756	76.3477	999.756	73.4102	999.756	75.1777	999.756	74.0544	999.756	76.6857	999.756	75.2476	999.756	76.5823	999.756	73.9166	999.756	74.5487	999.756	72.2095	999.756	72.8355
1034.91	85.7502	1034.91	85.9658	1034.91	85.6543	1034.91	85.8423	1034.91	85.5592	1034.91	85.2171	1034.91	84.3649	1034.91	83.907	1034.91	82.8847	1034.91	82.4844	1034.91	83.1913	1034.91	81.449	1034.91	82.8809	1034.91	80.3016	1034.91	80.4288	1034.91	79.1499	1034.91	77.894	1034.91	78.5862	1034.91	76.8236	1034.91	77.829	1034.91	74.259	1034.91	76.2827	1034.91	72.9736	1034.91	76.0422	1034.91	71.2477	1034.91	75.3893	1034.91	71.8769	1034.91	74.5668	1034.91	75.2179	1034.91	76.4903	1034.91	74.9438	1034.91	76.211	1034.91	70.5313	1034.91	73.9281	1034.91	69.2708	1034.91	71.7941
1071.53	86.2748	1071.53	85.9756	1071.53	85.9309	1071.53	85.9526	1071.53	85.8323	1071.53	86.1076	1071.53	85.9786	1071.53	85.1863	1071.53	84.9095	1071.53	84.0069	1071.53	83.6492	1071.53	82.7341	1071.53	83.3956	1071.53	80.2637	1071.53	81.9127	1071.53	77.6601	1071.53	78.7446	1071.53	76.0757	1071.53	77.4964	1071.53	75.7461	1071.53	76.0174	1071.53	77.715	1071.53	74.5356	1071.53	78.3994	1071.53	74.3924	1071.53	77.0028	1071.53	72.6168	1071.53	75.1199	1071.53	71.8693	1071.53	74.8822	1071.53	72.2161	1071.53	76.1753	1071.53	72.7828	1071.53	74.6833	1071.53	71.1556	1071.53	71.1553
1109.62	86.4947	1109.62	86.0488	1109.62	86.423	1109.62	86.203	1109.62	86.1933	1109.62	86.3525	1109.62	85.9252	1109.62	85.7913	1109.62	84.5566	1109.62	84.847	1109.62	83.3664	1109.62	83.0247	1109.62	83.5303	1109.62	81.0727	1109.62	82.2316	1109.62	79.3184	1109.62	78.764	1109.62	76.591	1109.62	77.1861	1109.62	75.4647	1109.62	76.9742	1109.62	77.5108	1109.62	76.957	1109.62	77.9661	1109.62	75.6387	1109.62	75.9556	1109.62	73.7935	1109.62	75.5039	1109.62	72.7645	1109.62	75.5716	1109.62	70.9641	1109.62	75.6555	1109.62	71.9793	1109.62	74.26	1109.62	71.9127	1109.62	71.0996
1148.44	85.3826	1148.44	85.8494	1148.44	86.1816	1148.44	86.7714	1148.44	86.754	1148.44	86.5622	1148.44	86.3607	1148.44	85.9619	1148.44	85.0712	1148.44	84.9188	1148.44	84.4307	1148.44	83.2831	1148.44	84.0573	1148.44	81.881	1148.44	82.1143	1148.44	79.9208	1148.44	79.0823	1148.44	77.1535	1148.44	76.7445	1148.44	75.4113	1148.44	74.6754	1148.44	77.2674	1148.44	75.7646	1148.44	79.5704	1148.44	75.8577	1148.44	79.1976	1148.44	73.1779	1148.44	76.8928	1148.44	72.5346	1148.44	74.8634	1148.44	73.1643	1148.44	74.2591	1148.44	73.3776	1148.44	73.8774	1148.44	72.2662	1148.44	72.2308
1189.45	86.0692	1189.45	85.8832	1189.45	86.3465	1189.45	86.4038	1189.45	85.9744	1189.45	86.3585	1189.45	86.3908	1189.45	85.7164	1189.45	85.7599	1189.45	84.4153	1189.45	83.4906	1189.45	83.0424	1189.45	82.9067	1189.45	81.8444	1189.45	82.0165	1189.45	80.027	1189.45	78.8921	1189.45	77.9141	1189.45	77.9307	1189.45	76.3462	1189.45	76.4055	1189.45	75.2701	1189.45	74.5134	1189.45	77.5245	1189.45	74.8192	1189.45	78.6449	1189.45	74.4241	1189.45	75.578	1189.45	71.8636	1189.45	75.6088	1189.45	70.1434	1189.45	75.6532	1189.45	70.2326	1189.45	72.4068	1189.45	71.8397	1189.45	71.2591
1231.2	85.4381	1231.2	85.8679	1231.2	85.5563	1231.2	86.1288	1231.2	85.4496	1231.2	86.2246	1231.2	85.4902	1231.2	85.7241	1231.2	85.1399	1231.2	84.4617	1231.2	83.2662	1231.2	82.7772	1231.2	82.1235	1231.2	80.4109	1231.2	81.4204	1231.2	79.4349	1231.2	78.3207	1231.2	77.8982	1231.2	74.3537	1231.2	75.2716	1231.2	72.2968	1231.2	75.0504	1231.2	73.3725	1231.2	76.9666	1231.2	72.9516	1231.2	77.7674	1231.2	73.9663	1231.2	77.1238	1231.2	73.2844	1231.2	75.9662	1231.2	71.0072	1231.2	73.5451	1231.2	72.6637	1231.2	73.314	1231.2	72.4999	1231.2	72.509
1274.41	86.3333	1274.41	86.1116	1274.41	86.0577	1274.41	85.9201	1274.41	84.8639	1274.41	85.7576	1274.41	84.5913	1274.41	85.549	1274.41	84.7342	1274.41	84.4307	1274.41	83.2559	1274.41	82.4767	1274.41	81.9695	1274.41	80.327	1274.41	80.8458	1274.41	78.7608	1274.41	77.2717	1274.41	77.058	1274.41	76.2027	1274.41	76.8616	1274.41	74.2398	1274.41	76.9552	1274.41	73.4818	1274.41	74.894	1274.41	74.3604	1274.41	78.7113	1274.41	73.9977	1274.41	78.0606	1274.41	72.8437	1274.41	73.9102	1274.41	70.9684	1274.41	74.1877	1274.41	72.2326	1274.41	71.5269	1274.41	72.1008	1274.41	70.6556
1319.82	86.171	1319.82	86.2569	1319.82	86.2132	1319.82	86.129	1319.82	85.6409	1319.82	86.0778	1319.82	85.0901	1319.82	85.9731	1319.82	85.1004	1319.82	84.9999	1319.82	83.9954	1319.82	82.8649	1319.82	82.3345	1319.82	80.9186	1319.82	81.3723	1319.82	79.4927	1319.82	78.7935	1319.82	77.3753	1319.82	73.7437	1319.82	75.3822	1319.82	72.6773	1319.82	74.1848	1319.82	70.8822	1319.82	75.7192	1319.82	71.8903	1319.82	77.1419	1319.82	74.0788	1319.82	76.0253	1319.82	71.7461	1319.82	73.9587	1319.82	68.5326	1319.82	73.6398	1319.82	69.6586	1319.82	70.9978	1319.82	70.5635	1319.82	70.6429
1365.97	86.8127	1365.97	86.6708	1365.97	86.565	1365.97	86.249	1365.97	86.8569	1365.97	86.1661	1365.97	86.0433	1365.97	85.8579	1365.97	85.4501	1365.97	85.1162	1365.97	85.2166	1365.97	83.0344	1365.97	83.5884	1365.97	80.0479	1365.97	81.8644	1365.97	78.2936	1365.97	79.6614	1365.97	76.9923	1365.97	77.4413	1365.97	75.461	1365.97	75.6951	1365.97	73.0241	1365.97	70.8718	1365.97	74.68	1365.97	69.6178	1365.97	73.912	1365.97	71.7262	1365.97	76.2966	1365.97	70.2879	1365.97	73.3896	1365.97	65.9983	1365.97	71.1621	1365.97	70.9678	1365.97	69.5254	1365.97	70.4022	1365.97	68.1618
1414.31	87.2157	1414.31	86.7259	1414.31	87.324	1414.31	86.1693	1414.31	86.2554	1414.31	85.7647	1414.31	85.7245	1414.31	85.9166	1414.31	85.6217	1414.31	84.8373	1414.31	84.9515	1414.31	83.3195	1414.31	83.9983	1414.31	81.0989	1414.31	81.6867	1414.31	77.9523	1414.31	78.8535	1414.31	76.7503	1414.31	75.8717	1414.31	76.3067	1414.31	75.2578	1414.31	76.2175	1414.31	73.6692	1414.31	72.6539	1414.31	70.6108	1414.31	73.7004	1414.31	69.9724	1414.31	76.1267	1414.31	73.0201	1414.31	74.656	1414.31	72.7337	1414.31	69.4976	1414.31	67.1306	1414.31	68.1982	1414.31	71.1701	1414.31	70.8735
1464.11	86.6424	1464.11	86.021	1464.11	86.3115	1464.11	85.4251	1464.11	85.8159	1464.11	85.044	1464.11	84.7769	1464.11	84.5259	1464.11	83.8179	1464.11	84.3976	1464.11	83.5824	1464.11	82.7434	1464.11	83.1007	1464.11	80.483	1464.11	82.1556	1464.11	78.9278	1464.11	78.9549	1464.11	76.6879	1464.11	76.5871	1464.11	76.355	1464.11	75.1702	1464.11	74.3922	1464.11	72.4573	1464.11	74.1819	1464.11	64.9927	1464.11	72.717	1464.11	70.4273	1464.11	75.4749	1464.11	71.6279	1464.11	73.109	1464.11	67.7953	1464.11	69.062	1464.11	70.7039	1464.11	66.8559	1464.11	68.6805	1464.11	70.7184
1515.38	85.5851	1515.38	85.0947	1515.38	85.5838	1515.38	84.7376	1515.38	84.9648	1515.38	83.6764	1515.38	84.1621	1515.38	83.7394	1515.38	82.5987	1515.38	83.503	1515.38	82.354	1515.38	81.9253	1515.38	82.281	1515.38	79.1909	1515.38	80.3043	1515.38	76.0374	1515.38	77.6514	1515.38	73.027	1515.38	74.9392	1515.38	73.9363	1515.38	74.3247	1515.38	75.9449	1515.38	70.4185	1515.38	77.0482	1515.38	64.2424	1515.38	75.6642	1515.38	68.0158	1515.38	75.0551	1515.38	68.8969	1515.38	72.3645	1515.38	67.6764	1515.38	68.8561	1515.38	63.132	1515.38	65.1727	1515.38	70.7911	1515.38	71.6204
1568.85	85.7911	1568.85	85.1505	1568.85	85.9699	1568.85	84.1046	1568.85	84.4121	1568.85	83.4797	1568.85	83.5376	1568.85	83.3587	1568.85	82.4229	1568.85	82.2832	1568.85	82.3945	1568.85	81.2675	1568.85	82.27	1568.85	79.4463	1568.85	80.1517	1568.85	76.1539	1568.85	78.3939	1568.85	73.5578	1568.85	76.2539	1568.85	73.7863	1568.85	74.3722	1568.85	75.7247	1568.85	70.6381	1568.85	76.1851	1568.85	69.7964	1568.85	76.4439	1568.85	65.7538	1568.85	74.8373	1568.85	73.2492	1568.85	72.9326	1568.85	64.1151	1568.85	66.4489	1568.85	67.204	1568.85	66.7712	1568.85	72.8035	1568.85	70.1917
1624.51	86.0798	1624.51	85.6218	1624.51	86.2255	1624.51	84.0835	1624.51	84.6104	1624.51	84.3788	1624.51	83.7987	1624.51	84.2774	1624.51	82.8765	1624.51	84.0356	1624.51	82.439	1624.51	81.6586	1624.51	82.6744	1624.51	79.925	1624.51	80.2912	1624.51	79.0302	1624.51	76.6122	1624.51	75.4104	1624.51	72.2311	1624.51	74.4795	1624.51	71.7485	1624.51	71.9228	1624.51	73.7582	1624.51	74.3162	1624.51	70.3684	1624.51	74.0181	1624.51	67.137	1624.51	72.3955	1624.51	68.9201	1624.51	73.3008	1624.51	61.838	1624.51	67.8972	1624.51	66.9583	1624.51	67.6632	1624.51	69.2251	1624.51	71.8419
1681.64	86.2827	1681.64	85.8095	1681.64	86.0458	1681.64	84.1615	1681.64	84.8964	1681.64	84.2145	1681.64	83.7066	1681.64	83.9646	1681.64	82.0957	1681.64	83.5205	1681.64	82.2675	1681.64	82.4068	1681.64	81.9455	1681.64	79.0549	1681.64	80.7255	1681.64	78.9166	1681.64	76.9411	1681.64	77.7235	1681.64	75.303	1681.64	73.9001	1681.64	75.1875	1681.64	69.4617	1681.64	72.3351	1681.64	74.1672	1681.64	72.6112	1681.64	72.9043	1681.64	71.6812	1681.64	74.1819	1681.64	62.7068	1681.64	71.143	1681.64	66.2252	1681.64	63.5696	1681.64	67.3544	1681.64	61.0859	1681.64	70.0383	1681.64	72.9162
1740.97	85.9737	1740.97	85.549	1740.97	84.8246	1740.97	84.1925	1740.97	83.8256	1740.97	83.0362	1740.97	82.9193	1740.97	83.809	1740.97	81.9339	1740.97	83.5826	1740.97	81.5857	1740.97	82.3999	1740.97	81.4956	1740.97	80.9555	1740.97	79.9972	1740.97	78.4197	1740.97	76.567	1740.97	76.2825	1740.97	72.6536	1740.97	74.0364	1740.97	71.8257	1740.97	72.341	1740.97	69.2003	1740.97	74.4334	1740.97	66.7157	1740.97	74.0186	1740.97	61.7655	1740.97	72.291	1740.97	66.1719	1740.97	73.2946	1740.97	68.6034	1740.97	69.7345	1740.97	66.4968	1740.97	65.4783	1740.97	69.8238	1740.97	69.1085
1802.49	85.772	1802.49	85.8645	1802.49	84.4529	1802.49	83.5981	1802.49	83.1104	1802.49	82.7689	1802.49	80.7814	1802.49	83.307	1802.49	81.4935	1802.49	82.752	1802.49	80.1587	1802.49	81.6107	1802.49	80.0591	1802.49	80.6056	1802.49	78.7666	1802.49	76.9455	1802.49	72.4677	1802.49	74.4859	1802.49	69.0414	1802.49	73.3915	1802.49	71.3703	1802.49	73.8006	1802.49	64.7375	1802.49	73.2724	1802.49	63.4112	1802.49	74.2617	1802.49	59.0818	1802.49	72.6583	1802.49	67.3657	1802.49	72.8328	1802.49	67.9302	1802.49	66.3028	1802.49	66.3797	1802.49	68.2253	1802.49	71.312	1802.49	71.0246
1866.21	87.229	1866.21	87.1974	1866.21	85.5234	1866.21	84.5836	1866.21	83.7525	1866.21	83.176	1866.21	82.5939	1866.21	83.1535	1866.21	83.0547	1866.21	83.187	1866.21	82.3703	1866.21	82.0389	1866.21	81.5888	1866.21	80.3029	1866.21	80.273	1866.21	78.8361	1866.21	77.1674	1866.21	73.0965	1866.21	74.0568	1866.21	73.8941	1866.21	74.4768	1866.21	74.2985	1866.21	68.1905	1866.21	73.5896	1866.21	67.1711	1866.21	75.0784	1866.21	68.8424	1866.21	74.0805	1866.21	64.7669	1866.21	72.2473	1866.21	65.3837	1866.21	62.4049	1866.21	62.3652	1866.21	55.196	1866.21	67.92	1866.21	70.447
1932.13	87.5381	1932.13	87.245	1932.13	86.3179	1932.13	84.8762	1932.13	84.0715	1932.13	83.1125	1932.13	82.7632	1932.13	83.2508	1932.13	83.2977	1932.13	83.6674	1932.13	82.6283	1932.13	82.8733	1932.13	82.4008	1932.13	80.3339	1932.13	80.1137	1932.13	78.3051	1932.13	77.7796	1932.13	77.1946	1932.13	74.9676	1932.13	76.4654	1932.13	71.9096	1932.13	72.5457	1932.13	69.1628	1932.13	73.2644	1932.13	68.9878	1932.13	74.0807	1932.13	69.9589	1932.13	72.6537	1932.13	67.5346	1932.13	70.4243	1932.13	65.2685	1932.13	67.9806	1932.13	70.1265	1932.13	68.91	1932.13	67.1485	1932.13	69.5634
2000.24	85.7759	2000.24	86.172	2000.24	84.9581	2000.24	83.849	2000.24	83.1904	2000.24	81.0127	2000.24	82.0238	2000.24	81.7276	2000.24	81.6007	2000.24	82.2517	2000.24	81.1352	2000.24	81.1488	2000.24	80.684	2000.24	80.3651	2000.24	80.0951	2000.24	78.8616	2000.24	74.0483	2000.24	77.1995	2000.24	69.1402	2000.24	75.0816	2000.24	67.5731	2000.24	73.3506	2000.24	70.6893	2000.24	72.8527	2000.24	65.4825	2000.24	72.4297	2000.24	68.1986	2000.24	70.9802	2000.24	56.6523	2000.24	71.1082	2000.24	66.2209	2000.24	55.6386	2000.24	64.9711	2000.24	68.0027	2000.24	66.7342	2000.24	67.6586
2070.56	85.9363	2070.56	86.6315	2070.56	85.4727	2070.56	85.216	2070.56	84.0271	2070.56	82.1274	2070.56	82.6139	2070.56	81.6169	2070.56	82.0868	2070.56	81.6313	2070.56	81.6872	2070.56	81.5368	2070.56	79.3551	2070.56	79.096	2070.56	79.8934	2070.56	76.1167	2070.56	74.9943	2070.56	75.6348	2070.56	71.027	2070.56	73.0465	2070.56	72.9044	2070.56	73.158	2070.56	65.7624	2070.56	73.1536	2070.56	63.0301	2070.56	72.3716	2070.56	60.8543	2070.56	71.7418	2070.56	63.1073	2070.56	68.0475	2070.56	65.5801	2070.56	54.7419	2070.56	60.3119	2070.56	68.9888	2070.56	68.285	2070.56	72.1415
2143.8	87.5793	2143.8	88.2155	2143.8	86.5158	2143.8	86.3985	2143.8	86.2158	2143.8	83.4952	2143.8	84.917	2143.8	83.2987	2143.8	84.2633	2143.8	82.1516	2143.8	82.6693	2143.8	82.901	2143.8	81.7041	2143.8	79.3534	2143.8	80.4511	2143.8	77.0514	2143.8	78.9023	2143.8	74.2772	2143.8	72.5237	2143.8	73.8684	2143.8	70.7769	2143.8	70.1342	2143.8	66.2563	2143.8	72.0907	2143.8	51.0411	2143.8	70.5513	2143.8	65.6884	2143.8	71.3208	2143.8	67.7049	2143.8	65.0427	2143.8	64.8823	2143.8	62.3982	2143.8	65.0248	2143.8	63.1953	2143.8	62.5401	2143.8	68.725
2219.24	86.5444	2219.24	87.2835	2219.24	86.1313	2219.24	85.8573	2219.24	84.7922	2219.24	84.3941	2219.24	84.6413	2219.24	83.1479	2219.24	83.8677	2219.24	83.0969	2219.24	82.837	2219.24	82.5623	2219.24	81.6824	2219.24	79.7707	2219.24	80.3622	2219.24	77.5701	2219.24	77.8756	2219.24	73.9285	2219.24	73.6649	2219.24	72.9305	2219.24	69.6841	2219.24	72.2342	2219.24	70.6601	2219.24	70.3748	2219.24	61.2188	2219.24	70.3541	2219.24	67.7287	2219.24	70.6422	2219.24	65.0809	2219.24	66.7212	2219.24	64.238	2219.24	60.9444	2219.24	68.101	2219.24	66.3908	2219.24	67.0183	2219.24	70.0255
2297.61	86.0934	2297.61	86.2469	2297.61	85.7547	2297.61	85.3795	2297.61	84.422	2297.61	83.88	2297.61	82.7584	2297.61	83.3459	2297.61	81.8095	2297.61	83.1004	2297.61	81.2077	2297.61	81.7307	2297.61	80.0022	2297.61	79.4039	2297.61	79.7982	2297.61	77.0226	2297.61	75.486	2297.61	73.6067	2297.61	71.7923	2297.61	70.2989	2297.61	69.0186	2297.61	71.8993	2297.61	63.0352	2297.61	70.4552	2297.61	63.4005	2297.61	71.72	2297.61	64.4659	2297.61	69.9329	2297.61	61.2662	2297.61	66.7854	2297.61	61.4715	2297.61	60.8971	2297.61	64.0847	2297.61	68.2153	2297.61	66.5844	2297.61	66.6935
2378.17	87.7462	2378.17	87.3298	2378.17	87.6377	2378.17	87.0381	2378.17	86.792	2378.17	85.8647	2378.17	85.2277	2378.17	84.913	2378.17	84.8904	2378.17	84.1759	2378.17	84.5064	2378.17	83.0888	2378.17	82.8062	2378.17	80.1104	2378.17	81.2258	2378.17	76.4401	2378.17	76.8034	2378.17	73.9121	2378.17	73.363	2378.17	71.4767	2378.17	69.9683	2378.17	71.0162	2378.17	67.1118	2378.17	72.256	2378.17	63.2283	2378.17	70.468	2378.17	66.3983	2378.17	69.6686	2378.17	66.9245	2378.17	66.6218	2378.17	60.2513	2378.17	62.8437	2378.17	64.402	2378.17	67.5094	2378.17	64.6402	2378.17	65.4279
2462.4	87.2688	2462.4	87.6701	2462.4	87.3743	2462.4	87.3948	2462.4	86.716	2462.4	86.0155	2462.4	85.5326	2462.4	84.82	2462.4	84.7488	2462.4	84.8648	2462.4	84.495	2462.4	83.3267	2462.4	83.2594	2462.4	80.994	2462.4	81.4482	2462.4	77.6021	2462.4	76.6024	2462.4	74.8743	2462.4	72.6181	2462.4	71.8247	2462.4	68.6993	2462.4	69.9474	2462.4	67.3968	2462.4	71.5718	2462.4	68.2379	2462.4	70.8008	2462.4	66.7788	2462.4	69.3545	2462.4	68.2998	2462.4	65.7164	2462.4	61.9529	2462.4	62.48	2462.4	64.0097	2462.4	67.8443	2462.4	63.9088	2462.4	64.717
2548.83	86.455	2548.83	86.4378	2548.83	86.5308	2548.83	86.4188	2548.83	85.7174	2548.83	85.1062	2548.83	84.6555	2548.83	84.1801	2548.83	83.7029	2548.83	83.5625	2548.83	83.3027	2548.83	82.3602	2548.83	82.0468	2548.83	80.0954	2548.83	80.7204	2548.83	76.5093	2548.83	75.6656	2548.83	72.4225	2548.83	72.0856	2548.83	71.942	2548.83	69.613	2548.83	72.1887	2548.83	63.4732	2548.83	72.173	2548.83	61.0549	2548.83	71.2177	2548.83	60.7803	2548.83	69.3435	2548.83	58.8133	2548.83	61.3716	2548.83	59.4087	2548.83	63.3868	2548.83	64.4165	2548.83	66.2785	2548.83	66.3524	2548.83	64.8702
2638.92	87.4727	2638.92	87.1565	2638.92	87.4204	2638.92	87.1081	2638.92	87.0753	2638.92	86.068	2638.92	85.6864	2638.92	84.7346	2638.92	84.6984	2638.92	83.761	2638.92	83.5928	2638.92	82.6209	2638.92	82.0358	2638.92	79.5712	2638.92	80.4879	2638.92	76.2171	2638.92	76.6393	2638.92	72.7769	2638.92	70.2763	2638.92	70.835	2638.92	69.089	2638.92	69.2275	2638.92	65.1308	2638.92	68.6675	2638.92	63.3685	2638.92	70.5085	2638.92	64.0516	2638.92	68.8642	2638.92	66.6076	2638.92	62.2508	2638.92	61.6686	2638.92	61.4328	2638.92	61.5483	2638.92	67.2991	2638.92	65.7869	2638.92	61.3555
2731.93	87.1042	2731.93	86.3274	2731.93	87.086	2731.93	87.0292	2731.93	86.4485	2731.93	85.8926	2731.93	85.5028	2731.93	84.0935	2731.93	83.8755	2731.93	83.5988	2731.93	83.2027	2731.93	82.0062	2731.93	81.5296	2731.93	79.6792	2731.93	80.3025	2731.93	76.6258	2731.93	76.5356	2731.93	72.9218	2731.93	70.9889	2731.93	68.7079	2731.93	71.0134	2731.93	70.6054	2731.93	65.1729	2731.93	70.3568	2731.93	62.8305	2731.93	70.2959	2731.93	64.4664	2731.93	67.2725	2731.93	62.507	2731.93	59.1246	2731.93	59.856	2731.93	61.2281	2731.93	63.6022	2731.93	66.684	2731.93	67.2015	2731.93	61.8094
2828.61	87.0155	2828.61	86.4063	2828.61	86.9774	2828.61	86.8328	2828.61	86.3337	2828.61	85.6283	2828.61	85.5916	2828.61	83.8844	2828.61	84.1638	2828.61	82.7552	2828.61	82.5847	2828.61	81.7661	2828.61	81.1624	2828.61	79.0993	2828.61	79.6646	2828.61	74.8148	2828.61	76.6157	2828.61	70.6052	2828.61	69.6986	2828.61	68.9607	2828.61	67.9504	2828.61	70.2761	2828.61	65.4204	2828.61	69.9567	2828.61	60.9664	2828.61	69.353	2828.61	60.7406	2828.61	64.9913	2828.61	62.3972	2828.61	59.8982	2828.61	61.3858	2828.61	61.8417	2828.61	60.1595	2828.61	66.1812	2828.61	63.2884	2828.61	54.0245
2928.22	86.9204	2928.22	86.5921	2928.22	86.7687	2928.22	86.2047	2928.22	86.1832	2928.22	85.2726	2928.22	84.9918	2928.22	83.1596	2928.22	83.3025	2928.22	82.4606	2928.22	81.9682	2928.22	81.3622	2928.22	81.2536	2928.22	78.1377	2928.22	79.3665	2928.22	74.4263	2928.22	75.6591	2928.22	70.6473	2928.22	68.2861	2928.22	68.5406	2928.22	69.0754	2928.22	65.3553	2928.22	64.2165	2928.22	67.6102	2928.22	59.5249	2928.22	68.7379	2928.22	62.8993	2928.22	65.9055	2928.22	58.1868	2928.22	57.2843	2928.22	55.851	2928.22	62.9043	2928.22	59.361	2928.22	64.659	2928.22	63.727	2928.22	58.4574
3031.49	86.0309	3031.49	85.8544	3031.49	86.0415	3031.49	85.8704	3031.49	84.8782	3031.49	84.9401	3031.49	83.7228	3031.49	82.8774	3031.49	82.2701	3031.49	81.7769	3031.49	80.5991	3031.49	80.5557	3031.49	79.2479	3031.49	77.4399	3031.49	77.62	3031.49	73.9932	3031.49	73.9006	3031.49	69.3051	3031.49	67.9814	3031.49	65.9404	3031.49	67.1933	3031.49	65.1488	3031.49	62.8091	3031.49	67.9031	3031.49	42.4024	3031.49	66.1985	3031.49	59.0723	3031.49	66.6173	3031.49	48.7099	3031.49	50.9316	3031.49	55.2034	3031.49	61.1802	3031.49	60.5961	3031.49	63.214	3031.49	58.7764	3031.49	58.6092
3138.43	85.8431	3138.43	85.8225	3138.43	85.9047	3138.43	85.4222	3138.43	84.9985	3138.43	84.5632	3138.43	83.3335	3138.43	82.0489	3138.43	81.6164	3138.43	80.8257	3138.43	79.8047	3138.43	79.1176	3138.43	78.2701	3138.43	76.5277	3138.43	76.5512	3138.43	72.3485	3138.43	73.2898	3138.43	67.9801	3138.43	65.4341	3138.43	66.369	3138.43	63.682	3138.43	66.0567	3138.43	61.2799	3138.43	65.4977	3138.43	51.301	3138.43	65.2395	3138.43	55.3025	3138.43	62.5228	3138.43	59.2597	3138.43	53.8065	3138.43	57.2338	3138.43	62.6663	3138.43	58.2124	3138.43	61.7174	3138.43	60.1473	3138.43	57.2633
3249.02	85.7672	3249.02	85.9317	3249.02	85.594	3249.02	85.0249	3249.02	85.258	3249.02	84.4612	3249.02	83.5393	3249.02	81.9366	3249.02	81.4926	3249.02	79.975	3249.02	79.4686	3249.02	78.7036	3249.02	77.4725	3249.02	75.4761	3249.02	76.005	3249.02	70.905	3249.02	71.5699	3249.02	67.2012	3249.02	65.9567	3249.02	65.2356	3249.02	63.6983	3249.02	64.9341	3249.02	59.4049	3249.02	63.5009	3249.02	54.5589	3249.02	64.1647	3249.02	59.3546	3249.02	61.8587	3249.02	56.9252	3249.02	38.4139	3249.02	52.8253	3249.02	63.3201	3249.02	59.2565	3249.02	61.6411	3249.02	60.0378	3249.02	60.2622
3363.28	85.3208	3363.28	85.3578	3363.28	84.4888	3363.28	84.4754	3363.28	83.8278	3363.28	83.4345	3363.28	81.9902	3363.28	80.912	3363.28	79.7487	3363.28	79.0874	3363.28	77.7309	3363.28	78.1536	3363.28	75.5694	3363.28	74.8456	3363.28	74.8005	3363.28	71.3427	3363.28	71.6012	3363.28	68.2156	3363.28	63.7861	3363.28	64.5423	3363.28	62.4108	3363.28	63.7199	3363.28	58.8627	3363.28	64.8498	3363.28	55.32	3363.28	65.1366	3363.28	60.2259	3363.28	62.969	3363.28	57.7864	3363.28	45.9826	3363.28	53.4992	3363.28	61.7909	3363.28	60.2068	3363.28	55.2451	3363.28	54.4072	3363.28	59.9669
3481.93	86.433	3481.93	86.1093	3481.93	86.0436	3481.93	85.2748	3481.93	85.6532	3481.93	84.1769	3481.93	83.7962	3481.93	81.1077	3481.93	81.3693	3481.93	78.8847	3481.93	79.1175	3481.93	78.2205	3481.93	77.5047	3481.93	75.4638	3481.93	76.1603	3481.93	71.5706	3481.93	73.6581	3481.93	67.812	3481.93	64.8509	3481.93	64.5277	3481.93	61.8762	3481.93	64.688	3481.93	62.7738	3481.93	66.4097	3481.93	54.6942	3481.93	65.606	3481.93	57.2404	3481.93	62.324	3481.93	54.596	3481.93	43.3425	3481.93	54.247	3481.93	58.8207	3481.93	58.6372	3481.93	51.1401	3481.93	55.6038	3481.93	57.9764
3604.98	85.2298	3604.98	85.1095	3604.98	84.5177	3604.98	84.3946	3604.98	83.4606	3604.98	83.2222	3604.98	81.8521	3604.98	80.1499	3604.98	79.3437	3604.98	78.6095	3604.98	77.2679	3604.98	77.8365	3604.98	77.2592	3604.98	75.4985	3604.98	75.9749	3604.98	71.8326	3604.98	72.9719	3604.98	68.3221	3604.98	64.8572	3604.98	63.6009	3604.98	62.0993	3604.98	64.8304	3604.98	61.8352	3604.98	65.5945	3604.98	56.5576	3604.98	66.3029	3604.98	59.2793	3604.98	62.022	3604.98	48.8439	3604.98	53.6122	3604.98	58.6178	3604.98	63.4922	3604.98	57.667	3604.98	54.2391	3604.98	52.7164	3604.98	58.5463
3732.42	85.7558	3732.42	85.564	3732.42	85.8372	3732.42	84.7256	3732.42	84.5443	3732.42	83.7038	3732.42	82.6671	3732.42	80.6626	3732.42	80.0151	3732.42	78.6496	3732.42	78.2249	3732.42	77.5474	3732.42	77.778	3732.42	75.6649	3732.42	76.7831	3732.42	71.5376	3732.42	73.315	3732.42	67.1021	3732.42	64.5131	3732.42	64.4207	3732.42	62.984	3732.42	64.486	3732.42	60.0507	3732.42	64.0592	3732.42	54.54	3732.42	65.3415	3732.42	56.162	3732.42	62.9141	3732.42	58.3524	3732.42	58.253	3732.42	57.2115	3732.42	63.1369	3732.42	58.643	3732.42	56.535	3732.42	56.9032	3732.42	59.0384
3863.53	85.1061	3863.53	85.2069	3863.53	84.789	3863.53	84.3023	3863.53	83.7701	3863.53	83.5488	3863.53	82.2563	3863.53	80.3211	3863.53	79.3456	3863.53	77.9502	3863.53	78.1348	3863.53	77.3796	3863.53	77.1915	3863.53	75.4242	3863.53	77.1615	3863.53	72.6597	3863.53	73.6106	3863.53	68.2599	3863.53	65.1523	3863.53	65.1688	3863.53	64.2245	3863.53	65.4267	3863.53	59.3998	3863.53	66.0671	3863.53	54.7708	3863.53	66.6407	3863.53	53.2041	3863.53	62.5883	3863.53	54.8456	3863.53	62.0138	3863.53	56.3756	3863.53	61.5	3863.53	60.5736	3863.53	56.2293	3863.53	54.4607	3863.53	57.3279
3999.76	86.1533	3999.76	85.7616	3999.76	85.3194	3999.76	84.9993	3999.76	84.7432	3999.76	83.8251	3999.76	83.1235	3999.76	81.0569	3999.76	79.2192	3999.76	76.8278	3999.76	78.4215	3999.76	78.2262	3999.76	76.7594	3999.76	76.8885	3999.76	77.9744	3999.76	73.5461	3999.76	74.7947	3999.76	68.7436	3999.76	67.3029	3999.76	66.6031	3999.76	63.7482	3999.76	64.2683	3999.76	55.6411	3999.76	66.1945	3999.76	55.3536	3999.76	67.9966	3999.76	55.1263	3999.76	60.9336	3999.76	55.0014	3999.76	57.3702	3999.76	53.61	3999.76	64.0281	3999.76	55.6296	3999.76	50.3416	3999.76	54.5508	3999.76	54.9749
4141.11	86.3472	4141.11	86.139	4141.11	85.2454	4141.11	85.0357	4141.11	84.9147	4141.11	83.7068	4141.11	82.9928	4141.11	80.9954	4141.11	79.6097	4141.11	76.6427	4141.11	77.0463	4141.11	78.5851	4141.11	76.6721	4141.11	77.8128	4141.11	78.4825	4141.11	74.9656	4141.11	76.4196	4141.11	70.4626	4141.11	67.2881	4141.11	67.2723	4141.11	64.4441	4141.11	66.5819	4141.11	61.1772	4141.11	67.227	4141.11	54.0924	4141.11	67.5829	4141.11	47.3339	4141.11	61.9593	4141.11	42.5135	4141.11	60.1826	4141.11	55.0587	4141.11	63.1588	4141.11	58.0905	4141.11	52.6897	4141.11	55.4332	4141.11	59.4143
4286.87	86.569	4286.87	86.4242	4286.87	86.2471	4286.87	85.05	4286.87	85.2472	4286.87	83.3678	4286.87	82.9759	4286.87	81.3486	4286.87	80.3226	4286.87	77.0149	4286.87	77.49	4286.87	78.8175	4286.87	77.3322	4286.87	78.3285	4286.87	78.2237	4286.87	75.2185	4286.87	76.1525	4286.87	71.0929	4286.87	67.1215	4286.87	67.3752	4286.87	62.9652	4286.87	66.1938	4286.87	61.1164	4286.87	66.9837	4286.87	40.1174	4286.87	67.8119	4286.87	55.1556	4286.87	60.295	4286.87	53.6606	4286.87	61.0944	4286.87	57.6103	4286.87	62.3555	4286.87	58.7952	4286.87	52.7275	4286.87	55.5419	4286.87	60.3218
4438.48	86.0472	4438.48	85.7983	4438.48	86.1721	4438.48	84.3748	4438.48	83.678	4438.48	82.8664	4438.48	82.522	4438.48	81.4784	4438.48	80.1205	4438.48	77.7058	4438.48	77.7042	4438.48	78.7636	4438.48	77.4956	4438.48	77.7608	4438.48	77.5444	4438.48	75.1895	4438.48	76.5399	4438.48	70.4305	4438.48	67.3005	4438.48	66.6927	4438.48	64.8424	4438.48	66.6764	4438.48	61.2474	4438.48	66.8395	4438.48	50.2181	4438.48	66.3742	4438.48	52.4869	4438.48	53.8266	4438.48	46.1477	4438.48	62.6764	4438.48	57.3466	4438.48	61.3946	4438.48	59.3749	4438.48	60.4649	4438.48	56.374	4438.48	59.2071
4594.48	86.1804	4594.48	85.7399	4594.48	85.8174	4594.48	84.4773	4594.48	82.7875	4594.48	82.8688	4594.48	82.6894	4594.48	81.7213	4594.48	80.4517	4594.48	77.8675	4594.48	78.683	4594.48	77.7439	4594.48	77.5096	4594.48	76.6211	4594.48	77.2151	4594.48	73.9715	4594.48	76.9884	4594.48	69.396	4594.48	67.2845	4594.48	67.9526	4594.48	64.8893	4594.48	65.782	4594.48	57.514	4594.48	66.3645	4594.48	48.7052	4594.48	67.5969	4594.48	58.5535	4594.48	55.592	4594.48	54.3439	4594.48	60.1038	4594.48	58.6068	4594.48	60.5673	4594.48	57.3361	4594.48	54.8871	4594.48	59.7286	4594.48	56.3637
4757.08	86.214	4757.08	85.8363	4757.08	85.5319	4757.08	85.1764	4757.08	83.5094	4757.08	82.652	4757.08	81.9915	4757.08	81.8558	4757.08	79.686	4757.08	78.2829	4757.08	77.5623	4757.08	78.3825	4757.08	76.9069	4757.08	77.5556	4757.08	77.5995	4757.08	74.5355	4757.08	76.3455	4757.08	70.1075	4757.08	67.0038	4757.08	66.197	4757.08	65.5221	4757.08	65.5054	4757.08	57.6217	4757.08	68.4015	4757.08	49.2786	4757.08	65.7415	4757.08	56.1034	4757.08	45.4656	4757.08	53.099	4757.08	60.3413	4757.08	57.8991	4757.08	59.7082	4757.08	53.594	4757.08	53.3506	4757.08	57.5099	4757.08	55.587
4924.8	86.5191	4924.8	86.0925	4924.8	85.1692	4924.8	85.3304	4924.8	84.5283	4924.8	82.7342	4924.8	81.9124	4924.8	81.8606	4924.8	79.6232	4924.8	77.2413	4924.8	77.1842	4924.8	78.213	4924.8	77.8995	4924.8	79.9528	4924.8	78.2399	4924.8	76.3706	4924.8	75.7959	4924.8	72.5515	4924.8	68.2567	4924.8	67.4799	4924.8	65.4808	4924.8	67.6825	4924.8	54.8798	4924.8	68.4551	4924.8	53.9968	4924.8	65.255	4924.8	60.0631	4924.8	39.5808	4924.8	55.2985	4924.8	61.1237	4924.8	57.1039	4924.8	51.389	4924.8	56.4845	4924.8	61.8328	4924.8	63.2015	4924.8	57.9589
5098.39	86.63	5098.39	86.2298	5098.39	85.867	5098.39	85.5772	5098.39	84.4785	5098.39	83.3946	5098.39	81.8285	5098.39	81.5252	5098.39	79.9188	5098.39	78.2734	5098.39	77.2244	5098.39	77.1553	5098.39	76.9249	5098.39	79.6341	5098.39	77.6218	5098.39	75.7163	5098.39	74.8306	5098.39	71.9251	5098.39	68.8703	5098.39	64.9469	5098.39	63.8895	5098.39	63.2944	5098.39	59.0557	5098.39	67.6287	5098.39	47.9262	5098.39	65.0651	5098.39	57.2684	5098.39	58.1612	5098.39	36.7811	5098.39	59.4018	5098.39	56.405	5098.39	56.3961	5098.39	47.6777	5098.39	62.2418	5098.39	59.8782	5098.39	53.9864
5277.83	87.1123	5277.83	86.6646	5277.83	86.2851	5277.83	85.6174	5277.83	84.6203	5277.83	83.7689	5277.83	82.7678	5277.83	81.089	5277.83	80.5292	5277.83	79.1576	5277.83	78.5221	5277.83	74.6047	5277.83	75.5482	5277.83	75.6671	5277.83	75.634	5277.83	72.5231	5277.83	74.1332	5277.83	67.7278	5277.83	68.8477	5277.83	61.5471	5277.83	64.992	5277.83	64.7577	5277.83	58.2986	5277.83	64.6228	5277.83	50.3285	5277.83	62.0613	5277.83	53.7491	5277.83	52.7556	5277.83	48.7669	5277.83	53.8843	5277.83	55.5463	5277.83	55.7783	5277.83	55.869	5277.83	58.3933	5277.83	50.9891	5277.83	52.9602
5463.87	86.8018	5463.87	87.0739	5463.87	86.2993	5463.87	84.7324	5463.87	83.9101	5463.87	83.7893	5463.87	82.4447	5463.87	81.4728	5463.87	80.4798	5463.87	79.3521	5463.87	77.9168	5463.87	75.3414	5463.87	75.6517	5463.87	75.3611	5463.87	75.8824	5463.87	72.9492	5463.87	75.1873	5463.87	67.7356	5463.87	68.1666	5463.87	66.9907	5463.87	63.7841	5463.87	62.5895	5463.87	43.0958	5463.87	62.9809	5463.87	55.8494	5463.87	62.8638	5463.87	47.8995	5463.87	57.1049	5463.87	48.7799	5463.87	55.3648	5463.87	55.9714	5463.87	54.5784	5463.87	55.5114	5463.87	49.4105	5463.87	57.0437	5463.87	49.7881
5656.49	86.7274	5656.49	86.5855	5656.49	86.1422	5656.49	84.0964	5656.49	84.1318	5656.49	82.7556	5656.49	82.66	5656.49	81.5409	5656.49	80.4429	5656.49	79.5334	5656.49	77.4258	5656.49	76.4428	5656.49	76.0476	5656.49	78.0606	5656.49	76.3984	5656.49	75.0469	5656.49	75.6241	5656.49	70.7969	5656.49	64.822	5656.49	67.2501	5656.49	63.1962	5656.49	65.7834	5656.49	52.6588	5656.49	65.3543	5656.49	47.9266	5656.49	63.7085	5656.49	49.5881	5656.49	60.477	5656.49	51.3022	5656.49	57.0252	5656.49	56.6714	5656.49	55.1968	5656.49	52.8043	5656.49	59.3302	5656.49	54.0564	5656.49	53.2119
5856.45	87.0495	5856.45	86.2944	5856.45	86.254	5856.45	85.2665	5856.45	84.3135	5856.45	83.8821	5856.45	82.7789	5856.45	82.4217	5856.45	80.6215	5856.45	79.4481	5856.45	77.1844	5856.45	76.8368	5856.45	75.3686	5856.45	79.2889	5856.45	75.7812	5856.45	75.5844	5856.45	75.2958	5856.45	71.6973	5856.45	64.1329	5856.45	65.7004	5856.45	59.0141	5856.45	64.6875	5856.45	52.2433	5856.45	64.8362	5856.45	27.2873	5856.45	61.2152	5856.45	53.4341	5856.45	57.1928	5856.45	53.4441	5856.45	58.8835	5856.45	54.0803	5856.45	55.2446	5856.45	50.4907	5856.45	60.8703	5856.45	55.6557	5856.45	50.6706
6062.99	87.4234	6062.99	86.4519	6062.99	86.1902	6062.99	86.0744	6062.99	84.5656	6062.99	85.095	6062.99	83.4104	6062.99	82.6756	6062.99	80.8044	6062.99	78.24	6062.99	76.8445	6062.99	75.2876	6062.99	74.1846	6062.99	77.5956	6062.99	75.5107	6062.99	74.6972	6062.99	74.8848	6062.99	70.6179	6062.99	65.6585	6062.99	64.3628	6062.99	59.9567	6062.99	63.2962	6062.99	52.372	6062.99	64.5228	6062.99	52.1721	6062.99	61.6735	6062.99	46.3482	6062.99	57.3374	6062.99	50.9636	6062.99	60.6116	6062.99	49.9226	6062.99	49.8411	6062.99	55.7098	6062.99	53.5963	6062.99	53.2181	6062.99	49.9023
6276.86	87.4195	6276.86	87.3144	6276.86	85.8963	6276.86	86.1473	6276.86	84.9525	6276.86	84.8222	6276.86	83.6186	6276.86	82.8137	6276.86	81.1342	6276.86	79.5888	6276.86	76.6679	6276.86	74.1729	6276.86	73.1397	6276.86	75.2247	6276.86	75.9731	6276.86	74.6261	6276.86	75.4088	6276.86	68.5712	6276.86	68.0151	6276.86	66.1115	6276.86	60.334	6276.86	63.2153	6276.86	56.9037	6276.86	63.0804	6276.86	57.1446	6276.86	61.9565	6276.86	36.6568	6276.86	56.9187	6276.86	48.6384	6276.86	56.0715	6276.86	47.9441	6276.86	47.8514	6276.86	56.1502	6276.86	48.0341	6276.86	51.6576	6276.86	52.5849
6498.05	86.797	6498.05	86.9264	6498.05	86.2513	6498.05	85.2935	6498.05	84.3873	6498.05	83.9013	6498.05	82.5281	6498.05	83.0287	6498.05	80.9646	6498.05	81.2723	6498.05	76.6717	6498.05	74.4417	6498.05	72.1552	6498.05	76.7471	6498.05	76.2782	6498.05	74.9243	6498.05	75.1689	6498.05	68.3216	6498.05	68.2145	6498.05	65.6487	6498.05	63.1914	6498.05	62.8505	6498.05	55.7563	6498.05	63.4377	6498.05	60.6818	6498.05	60.1181	6498.05	48.4112	6498.05	57.4628	6498.05	37.5008	6498.05	57.4144	6498.05	35.78	6498.05	46.0344	6498.05	51.9133	6498.05	59.7414	6498.05	47.4435	6498.05	57.968
6727.29	86.8248	6727.29	86.8239	6727.29	86.865	6727.29	85.4724	6727.29	84.254	6727.29	84.4959	6727.29	83.212	6727.29	82.8834	6727.29	81.265	6727.29	80.4519	6727.29	76.7944	6727.29	75.384	6727.29	73.5292	6727.29	77.4215	6727.29	75.8489	6727.29	74.1071	6727.29	75.2488	6727.29	70.5842	6727.29	66.1485	6727.29	64.5548	6727.29	61.1996	6727.29	60.137	6727.29	52.3341	6727.29	61.6125	6727.29	60.9126	6727.29	59.4587	6727.29	55.3664	6727.29	56.8078	6727.29	47.0308	6727.29	57.4088	6727.29	50.3663	6727.29	52.8137	6727.29	45.9025	6727.29	60.7164	6727.29	52.0357	6727.29	56.9379
6964.6	86.9706	6964.6	87.4065	6964.6	86.7718	6964.6	86.6498	6964.6	85.2758	6964.6	85.1325	6964.6	83.3549	6964.6	82.7665	6964.6	81.5652	6964.6	80.4984	6964.6	78.0913	6964.6	74.3544	6964.6	74.5155	6964.6	76.6717	6964.6	74.4595	6964.6	75.1285	6964.6	76.172	6964.6	72.3679	6964.6	65.568	6964.6	63.2066	6964.6	59.4847	6964.6	57.6166	6964.6	59.4442	6964.6	61.2905	6964.6	59.1209	6964.6	59.693	6964.6	56.3435	6964.6	55.7947	6964.6	53.0806	6964.6	60.9981	6964.6	55.0194	6964.6	52.5163	6964.6	54.9399	6964.6	50.46	6964.6	56.3062	6964.6	48.5123
7209.96	86.4524	7209.96	87.0621	7209.96	85.3146	7209.96	87.027	7209.96	85.8031	7209.96	84.6789	7209.96	83.3115	7209.96	82.9453	7209.96	81.2066	7209.96	81.399	7209.96	78.355	7209.96	74.6685	7209.96	74.3347	7209.96	76.5384	7209.96	76.1393	7209.96	76.0353	7209.96	75.8354	7209.96	71.4779	7209.96	68.7143	7209.96	62.7106	7209.96	59.6399	7209.96	58.1256	7209.96	61.1048	7209.96	61.2588	7209.96	59.0764	7209.96	59.1568	7209.96	49.9557	7209.96	58.9972	7209.96	57.0893	7209.96	61.0705	7209.96	58.6317	7209.96	50.891	7209.96	56.4654	7209.96	61.2743	7209.96	50.5558	7209.96	48.9437
7464.11	85.7533	7464.11	86.3515	7464.11	86.4075	7464.11	86.3778	7464.11	85.6537	7464.11	84.7136	7464.11	82.4246	7464.11	83.0343	7464.11	81.4861	7464.11	81.6952	7464.11	79.776	7464.11	77.265	7464.11	75.2631	7464.11	76.2228	7464.11	76.4002	7464.11	76.1761	7464.11	75.5147	7464.11	69.9566	7464.11	68.4302	7464.11	65.2527	7464.11	61.1466	7464.11	56.604	7464.11	59.7778	7464.11	63.1305	7464.11	53.3389	7464.11	57.5268	7464.11	51.7755	7464.11	56.9728	7464.11	54.8557	7464.11	59.6588	7464.11	56.8191	7464.11	56.3892	7464.11	54.3978	7464.11	57.85	7464.11	52.0279	7464.11	51.9684
7727.78	85.579	7727.78	86.5267	7727.78	87.4802	7727.78	86.5148	7727.78	85.4235	7727.78	85.6116	7727.78	82.3205	7727.78	81.7234	7727.78	81.912	7727.78	81.8674	7727.78	80.6297	7727.78	78.2841	7727.78	76.0278	7727.78	75.6617	7727.78	74.4075	7727.78	75.3709	7727.78	75.6174	7727.78	70.0483	7727.78	66.3883	7727.78	63.5074	7727.78	59.3325	7727.78	54.8714	7727.78	56.8276	7727.78	59.3992	7727.78	49.7746	7727.78	55.3108	7727.78	42.0281	7727.78	55.6822	7727.78	54.9989	7727.78	57.6032	7727.78	53.7874	7727.78	56.9879	7727.78	46.7428	7727.78	47.3571	7727.78	56.659	7727.78	48.8927
8000.24	86.7154	8000.24	86.6707	8000.24	86.8694	8000.24	86.8431	8000.24	86.2979	8000.24	84.6285	8000.24	83.4897	8000.24	81.603	8000.24	81.8523	8000.24	82.2275	8000.24	80.5544	8000.24	77.7418	8000.24	74.174	8000.24	74.6137	8000.24	74.6323	8000.24	74.5444	8000.24	74.7402	8000.24	69.6007	8000.24	64.4919	8000.24	61.87	8000.24	53.0168	8000.24	54.5894	8000.24	58.3474	8000.24	59.177	8000.24	46.491	8000.24	54.9894	8000.24	47.7364	8000.24	48.7047	8000.24	48.0434	8000.24	53.1193	8000.24	51.0679	8000.24	46.9637	8000.24	45.3304	8000.24	56.1278	8000.24	54.8217	8000.24	50.8726
8282.23	86.782	8282.23	86.6271	8282.23	86.4251	8282.23	85.3251	8282.23	85.4229	8282.23	83.4089	8282.23	82.6522	8282.23	82.5146	8282.23	80.5904	8282.23	81.3922	8282.23	80.1635	8282.23	77.1145	8282.23	75.095	8282.23	73.6771	8282.23	73.2273	8282.23	73.2774	8282.23	73.6363	8282.23	67.2295	8282.23	63.3253	8282.23	60.0786	8282.23	54.7129	8282.23	53.1097	8282.23	56.5104	8282.23	56.5885	8282.23	50.8527	8282.23	56.2658	8282.23	41.9703	8282.23	54.9256	8282.23	43.4524	8282.23	54.9288	8282.23	46.5173	8282.23	41.2587	8282.23	48.2071	8282.23	57.0815	8282.23	53.5759	8282.23	42.8147
8574.46	87.1078	8574.46	87.0969	8574.46	86.7578	8574.46	85.8923	8574.46	84.434	8574.46	85.2119	8574.46	82.2537	8574.46	82.3311	8574.46	80.9813	8574.46	81.1532	8574.46	79.6879	8574.46	76.8969	8574.46	75.7627	8574.46	72.8542	8574.46	71.4006	8574.46	71.3098	8574.46	72.1298	8574.46	65.4873	8574.46	62.8148	8574.46	59.391	8574.46	52.5502	8574.46	56.0185	8574.46	51.6552	8574.46	56.9379	8574.46	41.9003	8574.46	57.211	8574.46	48.4991	8574.46	53.9702	8574.46	52.5842	8574.46	47.8473	8574.46	48.4931	8574.46	46.3692	8574.46	47.2013	8574.46	48.0026	8574.46	47.3617	8574.46	44.2998
8876.22	87.457	8876.22	87.4152	8876.22	86.5433	8876.22	86.4609	8876.22	85.5655	8876.22	85.185	8876.22	83.0129	8876.22	82.4824	8876.22	82.2271	8876.22	82.0042	8876.22	80.629	8876.22	78.3188	8876.22	75.338	8876.22	72.9614	8876.22	73.6727	8876.22	73.4753	8876.22	73.7961	8876.22	66.3464	8876.22	64.6136	8876.22	60.4635	8876.22	55.5816	8876.22	57.9255	8876.22	54.8739	8876.22	58.9042	8876.22	53.6486	8876.22	56.7112	8876.22	43.8709	8876.22	52.4691	8876.22	56.4293	8876.22	47.5571	8876.22	44.1192	8876.22	54.4444	8876.22	48.9826	8876.22	55.0045	8876.22	48.2626	8876.22	54.2995
9189.7	86.1363	9189.7	85.5682	9189.7	86.0633	9189.7	85.0909	9189.7	85.1927	9189.7	84.3857	9189.7	83.4823	9189.7	83.4649	9189.7	82.2728	9189.7	82.1542	9189.7	79.6232	9189.7	78.8228	9189.7	77.1145	9189.7	73.9682	9189.7	72.7673	9189.7	72.8134	9189.7	73.4696	9189.7	66.5214	9189.7	64.266	9189.7	60.3528	9189.7	52.5418	9189.7	55.7943	9189.7	49.8651	9189.7	56.5116	9189.7	53.9108	9189.7	55.0103	9189.7	42.9658	9189.7	53.441	9189.7	58.9926	9189.7	48.0785	9189.7	51.6835	9189.7	47.5245	9189.7	46.4287	9189.7	40.2094	9189.7	51.3575	9189.7	35.8607
9513.43	86.2414	9513.43	85.6034	9513.43	85.669	9513.43	85.4968	9513.43	83.5935	9513.43	84.3474	9513.43	83.0156	9513.43	83.2862	9513.43	81.7014	9513.43	81.7487	9513.43	79.8727	9513.43	78.5841	9513.43	76.2475	9513.43	74.8877	9513.43	72.8987	9513.43	72.3518	9513.43	71.2058	9513.43	67.0581	9513.43	64.5285	9513.43	62.0714	9513.43	55.8101	9513.43	56.3654	9513.43	34.5494	9513.43	58.1772	9513.43	52.868	9513.43	53.93	9513.43	43.3112	9513.43	52.1559	9513.43	57.2054	9513.43	48.5271	9513.43	50.7263	9513.43	56.2878	9513.43	39.3172	9513.43	56.5174	9513.43	45.5273	9513.43	47.4954
9848.88	86.8988	9848.88	86.8743	9848.88	85.5867	9848.88	85.8962	9848.88	85.0431	9848.88	85.4391	9848.88	83.4982	9848.88	82.6832	9848.88	81.6146	9848.88	81.3546	9848.88	81.377	9848.88	78.5277	9848.88	75.651	9848.88	73.923	9848.88	72.3786	9848.88	72.2717	9848.88	70.8822	9848.88	64.6914	9848.88	61.3293	9848.88	61.4958	9848.88	50.0383	9848.88	53.1983	9848.88	51.8865	9848.88	56.6874	9848.88	54.3617	9848.88	50.0479	9848.88	24.513	9848.88	50.0502	9848.88	52.6083	9848.88	49.3048	9848.88	51.5619	9848.88	49.3222	9848.88	47.3541	9848.88	55.1961	9848.88	50.8449	9848.88	53.5804
10196.8	86.183	10196.8	86.0077	10196.8	85.6697	10196.8	84.8609	10196.8	85.0052	10196.8	85.3569	10196.8	83.938	10196.8	83.7141	10196.8	82.7127	10196.8	81.3007	10196.8	80.3652	10196.8	78.5619	10196.8	75.8952	10196.8	72.484	10196.8	72.4967	10196.8	71.6685	10196.8	71.2771	10196.8	66.5269	10196.8	62.369	10196.8	60.4518	10196.8	46.8808	10196.8	55.6113	10196.8	56.7158	10196.8	55.0065	10196.8	55.394	10196.8	55.159	10196.8	44.2783	10196.8	53.963	10196.8	42.5151	10196.8	45.3265	10196.8	45.1552	10196.8	47.7629	10196.8	53.9748	10196.8	45.28	10196.8	48.1813	10196.8	56.7463
10556.4	85.7943	10556.4	86.2212	10556.4	85.6062	10556.4	85.6778	10556.4	84.3058	10556.4	85.1323	10556.4	83.8844	10556.4	83.6214	10556.4	82.7123	10556.4	82.0963	10556.4	78.9628	10556.4	78.2902	10556.4	75.7791	10556.4	73.3275	10556.4	72.1833	10556.4	71.9962	10556.4	71.1222	10556.4	64.97	10556.4	63.6895	10556.4	61.3014	10556.4	49.264	10556.4	55.4115	10556.4	52.6965	10556.4	56.2845	10556.4	48.694	10556.4	55.5551	10556.4	49.95	10556.4	52.7006	10556.4	50.8159	10556.4	49.5047	10556.4	44.6384	10556.4	46.1549	10556.4	54.6031	10556.4	52.4573	10556.4	49.0056	10556.4	53.3211
10928.5	86.5179	10928.5	86.4297	10928.5	85.0587	10928.5	85.3606	10928.5	85.0487	10928.5	85.5064	10928.5	83.3222	10928.5	83.7003	10928.5	82.4443	10928.5	81.4858	10928.5	80.282	10928.5	78.2619	10928.5	75.7314	10928.5	72.7949	10928.5	72.7224	10928.5	72.4405	10928.5	71.1777	10928.5	66.2274	10928.5	63.3027	10928.5	60.225	10928.5	39.2238	10928.5	56.5751	10928.5	45.9495	10928.5	56.605	10928.5	42.4661	10928.5	52.9421	10928.5	46.3875	10928.5	53.0421	10928.5	52.7009	10928.5	44.2429	10928.5	52.3028	10928.5	51.674	10928.5	38.8733	10928.5	46.5226	10928.5	31.3341	10928.5	52.3796
11313.7	86.4971	11313.7	85.8435	11313.7	84.7462	11313.7	84.8106	11313.7	84.2793	11313.7	84.8692	11313.7	83.273	11313.7	83.6703	11313.7	82.1222	11313.7	81.059	11313.7	79.9078	11313.7	78.1726	11313.7	76.3063	11313.7	74.3094	11313.7	73.0776	11313.7	72.0751	11313.7	71.8829	11313.7	67.265	11313.7	64.6839	11313.7	57.8998	11313.7	53.6767	11313.7	54.8816	11313.7	49.1838	11313.7	50.9877	11313.7	39.0204	11313.7	49.6791	11313.7	41.0863	11313.7	50.8708	11313.7	44.4987	11313.7	50.8702	11313.7	48.6567	11313.7	38.7834	11313.7	46.0356	11313.7	45.5003	11313.7	30.3742	11313.7	48.9202
11712.9	87	11712.9	86.4796	11712.9	84.9766	11712.9	85.6229	11712.9	84.8071	11712.9	84.9513	11712.9	84.0362	11712.9	83.1763	11712.9	81.8057	11712.9	81.1522	11712.9	78.3931	11712.9	77.5959	11712.9	74.8108	11712.9	73.3665	11712.9	72.8393	11712.9	72.0342	11712.9	70.2956	11712.9	66.0962	11712.9	63.7471	11712.9	59.564	11712.9	47.2824	11712.9	58.5124	11712.9	48.7212	11712.9	55.5012	11712.9	53.0857	11712.9	50.5572	11712.9	52.9186	11712.9	51.3279	11712.9	53.6066	11712.9	39.7558	11712.9	49.1487	11712.9	50.2596	11712.9	48.0387	11712.9	44.0279	11712.9	40.3247	11712.9	44.0785
12126	86.7951	12126	86.527	12126	85.4795	12126	85.1679	12126	84.4904	12126	84.6203	12126	82.7807	12126	82.6012	12126	81.1653	12126	79.6495	12126	78.082	12126	76.6062	12126	73.4863	12126	72.5262	12126	70.317	12126	71.8975	12126	70.2899	12126	65.8587	12126	62.7918	12126	59.6371	12126	50.9776	12126	56.756	12126	44.2144	12126	51.342	12126	47.9886	12126	52.1476	12126	50.2675	12126	50.6262	12126	40.2269	12126	38.9794	12126	42.15	12126	41.3109	12126	41.6863	12126	51.321	12126	44.6088	12126	44.0386
12553.7	86.7679	12553.7	86.2287	12553.7	85.1563	12553.7	85.7243	12553.7	83.5776	12553.7	84.6421	12553.7	82.8157	12553.7	82.4289	12553.7	80.2677	12553.7	79.521	12553.7	78.2137	12553.7	76.5083	12553.7	74.2784	12553.7	73.0631	12553.7	71.2735	12553.7	70.7923	12553.7	70.0136	12553.7	66.1601	12553.7	60.5001	12553.7	53.7875	12553.7	48.0031	12553.7	54.2686	12553.7	50.9733	12553.7	53.9478	12553.7	53.0552	12553.7	46.8524	12553.7	42.571	12553.7	50.6152	12553.7	51.251	12553.7	42.2759	12553.7	37.4597	12553.7	29.9613	12553.7	51.5046	12553.7	49.996	12553.7	50.9393	12553.7	49.0881
12996.1	86.7634	12996.1	86.6016	12996.1	85.2344	12996.1	85.6535	12996.1	84.4854	12996.1	84.9795	12996.1	82.9259	12996.1	83.1311	12996.1	81.4959	12996.1	80.2779	12996.1	78.7818	12996.1	77.1487	12996.1	75.2097	12996.1	72.0875	12996.1	71.2196	12996.1	71.7151	12996.1	70.5379	12996.1	66.2849	12996.1	60.7718	12996.1	60.0008	12996.1	52.0508	12996.1	55.6596	12996.1	49.9776	12996.1	49.6831	12996.1	49.1217	12996.1	50.752	12996.1	20.2925	12996.1	51.3094	12996.1	45.5054	12996.1	48.0707	12996.1	48.5618	12996.1	51.6769	12996.1	48.6879	12996.1	43.1533	12996.1	48.3216	12996.1	50.2399
13454.6	86.8195	13454.6	86.2855	13454.6	84.8443	13454.6	85.8536	13454.6	84.3456	13454.6	85.3904	13454.6	83.4028	13454.6	83.054	13454.6	81.3276	13454.6	80.2874	13454.6	79.1179	13454.6	77.265	13454.6	73.8162	13454.6	71.8872	13454.6	70.3333	13454.6	70.4863	13454.6	70.0935	13454.6	66.5691	13454.6	62.0619	13454.6	58.1742	13454.6	49.8404	13454.6	56.1898	13454.6	41.1639	13454.6	52.7523	13454.6	50.9457	13454.6	53.746	13454.6	46.2054	13454.6	50.7008	13454.6	52.8077	13454.6	55.0831	13454.6	50.6432	13454.6	47.7145	13454.6	50.7781	13454.6	47.4309	13454.6	48.0865	13454.6	45.6551
13928.5	86.4725	13928.5	87.1055	13928.5	85.3964	13928.5	85.8474	13928.5	84.6	13928.5	84.7591	13928.5	82.9321	13928.5	82.5278	13928.5	81.1996	13928.5	80.8328	13928.5	79.1888	13928.5	77.6874	13928.5	73.4133	13928.5	73.4818	13928.5	70.5867	13928.5	72.4869	13928.5	70.712	13928.5	67.0444	13928.5	63.021	13928.5	60.6192	13928.5	47.5977	13928.5	54.2181	13928.5	50.253	13928.5	52.7518	13928.5	42.3031	13928.5	50.4359	13928.5	53.8186	13928.5	47.0537	13928.5	50.9143	13928.5	53.1912	13928.5	48.862	13928.5	51.3149	13928.5	48.3506	13928.5	53.3418	13928.5	51.6823	13928.5	46.985
14419.9	86.7514	14419.9	86.605	14419.9	85.4828	14419.9	85.6607	14419.9	84.7384	14419.9	85.099	14419.9	82.9492	14419.9	83.0571	14419.9	81.568	14419.9	81.4759	14419.9	78.9829	14419.9	78.503	14419.9	74.4109	14419.9	74.5081	14419.9	71.0831	14419.9	72.5708	14419.9	71.5584	14419.9	66.7455	14419.9	61.3521	14419.9	57.6368	14419.9	48.5767	14419.9	54.5262	14419.9	47.5507	14419.9	44.5061	14419.9	49.8665	14419.9	54.3794	14419.9	48.2828	14419.9	39.7011	14419.9	52.8326	14419.9	54.0948	14419.9	51.4931	14419.9	52.9052	14419.9	47.522	14419.9	44.4568	14419.9	46.5012	14419.9	38.9439
14928.2	85.7037	14928.2	86.3447	14928.2	85.363	14928.2	85.7607	14928.2	84.6221	14928.2	84.9268	14928.2	82.8562	14928.2	83.547	14928.2	81.8219	14928.2	81.576	14928.2	79.3872	14928.2	78.1012	14928.2	74.0926	14928.2	74.0863	14928.2	71.7987	14928.2	73.0285	14928.2	71.2416	14928.2	65.8539	14928.2	60.306	14928.2	59.4482	14928.2	46.8129	14928.2	58.1767	14928.2	45.2612	14928.2	42.6344	14928.2	44.8925	14928.2	53.4829	14928.2	42.4482	14928.2	39.4642	14928.2	42.242	14928.2	54.4734	14928.2	48.7667	14928.2	51.4321	14928.2	50.476	14928.2	41.1434	14928.2	48.1094	14928.2	45.8966
15454.8	84.7599	15454.8	85.2922	15454.8	84.5746	15454.8	85.0376	15454.8	84.199	15454.8	84.999	15454.8	82.8518	15454.8	83.4615	15454.8	81.7685	15454.8	80.537	15454.8	78.6672	15454.8	77.5517	15454.8	75.0588	15454.8	73.5427	15454.8	72.0579	15454.8	71.9244	15454.8	72.2894	15454.8	65.2102	15454.8	60.7542	15454.8	57.9293	15454.8	51.2446	15454.8	56.8228	15454.8	46.1076	15454.8	48.7551	15454.8	50.4038	15454.8	51.074	15454.8	44.8954	15454.8	42.6201	15454.8	54.0569	15454.8	53.1954	15454.8	47.9058	15454.8	53.0251	15454.8	49.6298	15454.8	52.6175	15454.8	45.0832	15454.8	42.0016
15999.8	83.7604	15999.8	84.8859	15999.8	83.7473	15999.8	85.1245	15999.8	83.6821	15999.8	84.0935	15999.8	82.0244	15999.8	82.8938	15999.8	81.371	15999.8	80.1838	15999.8	79.7161	15999.8	77.5443	15999.8	76.4155	15999.8	73.0745	15999.8	71.1156	15999.8	71.4184	15999.8	71.6346	15999.8	65.4766	15999.8	63.3267	15999.8	59.5551	15999.8	53.3164	15999.8	58.0024	15999.8	51.1408	15999.8	48.6616	15999.8	45.3877	15999.8	53.3677	15999.8	50.8153	15999.8	43.7344	15999.8	50.4097	15999.8	54.0694	15999.8	45.3112	15999.8	49.5504	15999.8	47.183	15999.8	47.4191	15999.8	53.2729	15999.8	43.1173
16564.5	83.6388	16564.5	84.5918	16564.5	84.0446	16564.5	85.0554	16564.5	83.4917	16564.5	83.6142	16564.5	82.0953	16564.5	82.4091	16564.5	80.5575	16564.5	79.2703	16564.5	79.4084	16564.5	77.7458	16564.5	75.1338	16564.5	72.8209	16564.5	71.0946	16564.5	71.4134	16564.5	71.0814	16564.5	66.332	16564.5	62.4236	16564.5	58.4057	16564.5	54.4979	16564.5	57.2426	16564.5	49.8657	16564.5	51.5985	16564.5	53.3829	16564.5	49.6317	16564.5	50.322	16564.5	33.8087	16564.5	54.8592	16564.5	53.652	16564.5	47.4966	16564.5	50.1124	16564.5	47.0212	16564.5	42.4641	16564.5	47.9951	16564.5	45.0323
17148.2	83.6614	17148.2	84.4119	17148.2	84.1562	17148.2	84.6472	17148.2	82.9912	17148.2	83.354	17148.2	82.2107	17148.2	82.2144	17148.2	80.2394	17148.2	79.8368	17148.2	79.0617	17148.2	77.1715	17148.2	74.9366	17148.2	73.1328	17148.2	70.7959	17148.2	71.1279	17148.2	70.1095	17148.2	64.9953	17148.2	62.5025	17148.2	58.6249	17148.2	52.6674	17148.2	56.1957	17148.2	43.6299	17148.2	50.2334	17148.2	51.7348	17148.2	49.4807	17148.2	36.8913	17148.2	42.5819	17148.2	48.8512	17148.2	52.3237	17148.2	48.8327	17148.2	53.7778	17148.2	44.8254	17148.2	43.4484	17148.2	35.7118	17148.2	39.656
17753.2	83.4578	17753.2	83.9679	17753.2	83.5646	17753.2	84.0981	17753.2	82.3425	17753.2	82.4597	17753.2	81.4205	17753.2	81.331	17753.2	80.2186	17753.2	79.527	17753.2	78.1703	17753.2	76.3348	17753.2	74.805	17753.2	72.9887	17753.2	69.8619	17753.2	71.0555	17753.2	69.5717	17753.2	65.1109	17753.2	61.7502	17753.2	58.7861	17753.2	54.0048	17753.2	57.3324	17753.2	46.2696	17753.2	53.7097	17753.2	46.2841	17753.2	41.8206	17753.2	45.3204	17753.2	46.8934	17753.2	49.955	17753.2	48.4174	17753.2	42.6742	17753.2	53.2224	17753.2	37.799	17753.2	45.7679	17753.2	48.122	17753.2	41.8016
18379.4	82.2921	18379.4	83.0125	18379.4	82.5316	18379.4	83.2054	18379.4	81.5362	18379.4	82.0459	18379.4	80.8932	18379.4	79.9758	18379.4	80.1574	18379.4	78.634	18379.4	77.2611	18379.4	75.233	18379.4	74.2739	18379.4	72.1952	18379.4	69.1717	18379.4	69.4981	18379.4	67.6179	18379.4	63.9981	18379.4	61.6752	18379.4	57.25	18379.4	53.5889	18379.4	54.454	18379.4	46.0742	18379.4	52.0912	18379.4	40.0222	18379.4	42.3529	18379.4	47.2307	18379.4	43.5159	18379.4	48.2209	18379.4	52.0611	18379.4	44.3396	18379.4	51.7418	18379.4	39.7118	18379.4	47.1238	18379.4	47.7503	18379.4	41.1685
19027.6	81.4835	19027.6	82.2562	19027.6	81.6993	19027.6	82.3709	19027.6	81.2538	19027.6	81.6009	19027.6	79.9601	19027.6	79.9564	19027.6	79.5688	19027.6	77.5973	19027.6	76.058	19027.6	73.9628	19027.6	72.6107	19027.6	71.1566	19027.6	68.0017	19027.6	66.7524	19027.6	63.4875	19027.6	62.3948	19027.6	59.9251	19027.6	54.1665	19027.6	51.1569	19027.6	53.4306	19027.6	48.7543	19027.6	51.6283	19027.6	41.891	19027.6	44.3632	19027.6	40.8708	19027.6	44.8127	19027.6	48.3992	19027.6	49.9633	19027.6	48.4944	19027.6	49.7456	19027.6	30.5447	19027.6	42.855	19027.6	43.8452	19027.6	36.5128
19698.5	81.0339	19698.5	81.8089	19698.5	81.1593	19698.5	81.7809	19698.5	80.8396	19698.5	80.9096	19698.5	79.9156	19698.5	79.9754	19698.5	78.6117	19698.5	76.8725	19698.5	74.6288	19698.5	72.5298	19698.5	71.6417	19698.5	69.4509	19698.5	66.86	19698.5	64.5809	19698.5	63.2825	19698.5	59.5043	19698.5	59.3629	19698.5	51.5603	19698.5	48.1324	19698.5	51.2249	19698.5	38.9248	19698.5	49.0079	19698.5	42.837	19698.5	45.1308	19698.5	42.1447	19698.5	43.0946	19698.5	44.7447	19698.5	46.4292	19698.5	47.9533	19698.5	47.8724	19698.5	38.458	19698.5	42.1273	19698.5	42.6901	19698.5	35.8872
19999.5	80.7605	19999.5	81.515	19999.5	80.7124	19999.5	81.6935	19999.5	81.2143	19999.5	81.3033	19999.5	79.6585	19999.5	79.918	19999.5	78.005	19999.5	76.2107	19999.5	74.259	19999.5	72.4765	19999.5	73.0131	19999.5	69.4432	19999.5	66.9429	19999.5	64.4691	19999.5	64.2088	19999.5	62.7002	19999.5	58.5536	19999.5	54.2727	19999.5	48.0498	19999.5	55.8833	19999.5	47.5552	19999.5	47.3494	19999.5	41.2774	19999.5	39.7011	19999.5	50.7182	19999.5	28.0463	19999.5	44.9749	19999.5	49.8285	19999.5	50.7033	19999.5	49.7652	19999.5	42.9462	19999.5	42.0421	19999.5	47.8185	19999.5	34.5829
