"SPL Vertical"
"On-Axis"		"10°"		"-10°"		"20°"		"-20°"		"30°"		"-30°"		"40°"		"-40°"		"50°"		"-50°"		"60°"		"-60°"		"70°"		"-70°"		"80°"		"-80°"		"90°"		"-90°"		"100°"		"-100°"		"110°"		"-110°"		"120°"		"-120°"		"130°"		"-130°"		"140°"		"-140°"		"150°"		"-150°"		"160°"		"-160°"		"170°"		"-170°"		"180°"
"Frequency / Hz"	"Sound Pressure Level / dB (re 20 µPa/V)   /[0.3V at 1m]"	"Frequency / Hz"	"Sound Pressure Level / dB (re 20 µPa/V)   /[0.3V at 1m]"	"Frequency / Hz"	"Sound Pressure Level / dB (re 20 µPa/V)   /[0.3V at 1m]"	"Frequency / Hz"	"Sound Pressure Level / dB (re 20 µPa/V)   /[0.3V at 1m]"	"Frequency / Hz"	"Sound Pressure Level / dB (re 20 µPa/V)   /[0.3V at 1m]"	"Frequency / Hz"	"Sound Pressure Level / dB (re 20 µPa/V)   /[0.3V at 1m]"	"Frequency / Hz"	"Sound Pressure Level / dB (re 20 µPa/V)   /[0.3V at 1m]"	"Frequency / Hz"	"Sound Pressure Level / dB (re 20 µPa/V)   /[0.3V at 1m]"	"Frequency / Hz"	"Sound Pressure Level / dB (re 20 µPa/V)   /[0.3V at 1m]"	"Frequency / Hz"	"Sound Pressure Level / dB (re 20 µPa/V)   /[0.3V at 1m]"	"Frequency / Hz"	"Sound Pressure Level / dB (re 20 µPa/V)   /[0.3V at 1m]"	"Frequency / Hz"	"Sound Pressure Level / dB (re 20 µPa/V)   /[0.3V at 1m]"	"Frequency / Hz"	"Sound Pressure Level / dB (re 20 µPa/V)   /[0.3V at 1m]"	"Frequency / Hz"	"Sound Pressure Level / dB (re 20 µPa/V)   /[0.3V at 1m]"	"Frequency / Hz"	"Sound Pressure Level / dB (re 20 µPa/V)   /[0.3V at 1m]"	"Frequency / Hz"	"Sound Pressure Level / dB (re 20 µPa/V)   /[0.3V at 1m]"	"Frequency / Hz"	"Sound Pressure Level / dB (re 20 µPa/V)   /[0.3V at 1m]"	"Frequency / Hz"	"Sound Pressure Level / dB (re 20 µPa/V)   /[0.3V at 1m]"	"Frequency / Hz"	"Sound Pressure Level / dB (re 20 µPa/V)   /[0.3V at 1m]"	"Frequency / Hz"	"Sound Pressure Level / dB (re 20 µPa/V)   /[0.3V at 1m]"	"Frequency / Hz"	"Sound Pressure Level / dB (re 20 µPa/V)   /[0.3V at 1m]"	"Frequency / Hz"	"Sound Pressure Level / dB (re 20 µPa/V)   /[0.3V at 1m]"	"Frequency / Hz"	"Sound Pressure Level / dB (re 20 µPa/V)   /[0.3V at 1m]"	"Frequency / Hz"	"Sound Pressure Level / dB (re 20 µPa/V)   /[0.3V at 1m]"	"Frequency / Hz"	"Sound Pressure Level / dB (re 20 µPa/V)   /[0.3V at 1m]"	"Frequency / Hz"	"Sound Pressure Level / dB (re 20 µPa/V)   /[0.3V at 1m]"	"Frequency / Hz"	"Sound Pressure Level / dB (re 20 µPa/V)   /[0.3V at 1m]"	"Frequency / Hz"	"Sound Pressure Level / dB (re 20 µPa/V)   /[0.3V at 1m]"	"Frequency / Hz"	"Sound Pressure Level / dB (re 20 µPa/V)   /[0.3V at 1m]"	"Frequency / Hz"	"Sound Pressure Level / dB (re 20 µPa/V)   /[0.3V at 1m]"	"Frequency / Hz"	"Sound Pressure Level / dB (re 20 µPa/V)   /[0.3V at 1m]"	"Frequency / Hz"	"Sound Pressure Level / dB (re 20 µPa/V)   /[0.3V at 1m]"	"Frequency / Hz"	"Sound Pressure Level / dB (re 20 µPa/V)   /[0.3V at 1m]"	"Frequency / Hz"	"Sound Pressure Level / dB (re 20 µPa/V)   /[0.3V at 1m]"	"Frequency / Hz"	"Sound Pressure Level / dB (re 20 µPa/V)   /[0.3V at 1m]"	"Frequency / Hz"	"Sound Pressure Level / dB (re 20 µPa/V)   /[0.3V at 1m]"
20.5078	34.0615	20.5078	34.2293	20.5078	33.9308	20.5078	34.4313	20.5078	33.8394	20.5078	34.6641	20.5078	33.7892	20.5078	34.923	20.5078	33.7822	20.5078	35.2029	20.5078	33.8208	20.5078	35.4974	20.5078	33.9076	20.5078	35.7997	20.5078	34.0456	20.5078	36.1024	20.5078	34.2369	20.5078	36.3976	20.5078	34.4818	20.5078	36.6769	20.5078	34.7771	20.5078	36.9318	20.5078	35.115	20.5078	37.1538	20.5078	35.4832	20.5078	37.3342	20.5078	35.865	20.5078	37.4649	20.5078	36.2419	20.5078	37.5383	20.5078	36.5952	20.5078	37.5483	20.5078	36.908	20.5078	37.4905	20.5078	37.167	20.5078	37.3629
21.9727	37.1701	21.9727	36.9545	21.9727	37.437	21.9727	36.7973	21.9727	37.7458	21.9727	36.7034	21.9727	38.0857	21.9727	36.6749	21.9727	38.4446	21.9727	36.7115	21.9727	38.8101	21.9727	36.8103	21.9727	39.1698	21.9727	36.9666	21.9727	39.5118	21.9727	37.1739	21.9727	39.8254	21.9727	37.4245	21.9727	40.1011	21.9727	37.7099	21.9727	40.3311	21.9727	38.0211	21.9727	40.5093	21.9727	38.3491	21.9727	40.6316	21.9727	38.6848	21.9727	40.6956	21.9727	39.0192	21.9727	40.7008	21.9727	39.3436	21.9727	40.6483	21.9727	39.6497	21.9727	40.5404	21.9727	39.9295	21.9727	40.3812	21.9727	40.1756
23.4375	35.3406	23.4375	34.7964	23.4375	35.9352	23.4375	34.323	23.4375	36.5599	23.4375	33.9403	23.4375	37.1948	23.4375	33.6661	23.4375	37.8208	23.4375	33.5149	23.4375	38.4201	23.4375	33.4955	23.4375	38.9762	23.4375	33.6097	23.4375	39.4745	23.4375	33.851	23.4375	39.9023	23.4375	34.2061	23.4375	40.2493	23.4375	34.6561	23.4375	40.5076	23.4375	35.1795	23.4375	40.6718	23.4375	35.7542	23.4375	40.7391	23.4375	36.3594	23.4375	40.7092	23.4375	36.9759	23.4375	40.5839	23.4375	37.5865	23.4375	40.3674	23.4375	38.176	23.4375	40.0655	23.4375	38.7304	23.4375	39.686	23.4375	39.2375
24.9023	39.0026	24.9023	38.4168	24.9023	39.6409	24.9023	37.9002	24.9023	40.3127	24.9023	37.4673	24.9023	40.9976	24.9023	37.1308	24.9023	41.675	24.9023	36.9017	24.9023	42.3245	24.9023	36.7903	24.9023	42.9272	24.9023	36.8052	24.9023	43.466	24.9023	36.9517	24.9023	43.9263	24.9023	37.2299	24.9023	44.2959	24.9023	37.633	24.9023	44.5651	24.9023	38.1464	24.9023	44.7272	24.9023	38.7492	24.9023	44.7779	24.9023	39.4167	24.9023	44.7158	24.9023	40.1224	24.9023	44.5422	24.9023	40.8408	24.9023	44.2608	24.9023	41.5481	24.9023	43.878	24.9023	42.223	24.9023	43.4029	24.9023	42.8466
26.3672	42.2758	26.3672	41.7594	26.3672	42.846	26.3672	41.3113	26.3672	43.4526	26.3672	40.9421	26.3672	44.0757	26.3672	40.6592	26.3672	44.6943	26.3672	40.4675	26.3672	45.2879	26.3672	40.3702	26.3672	45.8368	26.3672	40.3697	26.3672	46.3234	26.3672	40.4675	26.3672	46.7326	26.3672	40.6637	26.3672	47.0521	26.3672	40.9558	26.3672	47.2724	26.3672	41.3384	26.3672	47.3872	26.3672	41.802	26.3672	47.3933	26.3672	42.3332	26.3672	47.2906	26.3672	42.9154	26.3672	47.0824	26.3672	43.5293	26.3672	46.7746	26.3672	44.1549	26.3672	46.3765	26.3672	44.7716	26.3672	45.9	26.3672	45.3594
27.832	46.8511	27.832	46.4548	27.832	47.2957	27.832	46.1168	27.832	47.775	27.832	45.8431	27.832	48.2726	27.832	45.636	27.832	48.7699	27.832	45.4952	27.832	49.2483	27.832	45.4191	27.832	49.6894	27.832	45.4053	27.832	50.0765	27.832	45.4522	27.832	50.3952	27.832	45.5588	27.832	50.6334	27.832	45.7247	27.832	50.7825	27.832	45.9501	27.832	50.8368	27.832	46.2343	27.832	50.7945	27.832	46.5751	27.832	50.657	27.832	46.9678	27.832	50.4297	27.832	47.4042	27.832	50.1213	27.832	47.8729	27.832	49.7441	27.832	48.3589	27.832	49.3129	27.832	48.845
29.2969	51.8606	29.2969	51.5432	29.2969	52.2125	29.2969	51.2665	29.2969	52.5897	29.2969	51.0342	29.2969	52.981	29.2969	50.848	29.2969	53.3727	29.2969	50.7085	29.2969	53.7503	29.2969	50.6153	29.2969	54.0984	29.2969	50.5679	29.2969	54.4024	29.2969	50.5663	29.2969	54.649	29.2969	50.611	29.2969	54.8271	29.2969	50.703	29.2969	54.928	29.2969	50.8436	29.2969	54.9464	29.2969	51.0342	29.2969	54.8806	29.2969	51.2751	29.2969	54.7325	29.2969	51.5648	29.2969	54.5079	29.2969	51.8992	29.2969	54.2162	29.2969	52.271	29.2969	53.8704	29.2969	52.6691	29.2969	53.4858	29.2969	53.0796
30.7617	55.9623	30.7617	55.6777	30.7617	56.2763	30.7617	55.4282	30.7617	56.6117	30.7617	55.2172	30.7617	56.9586	30.7617	55.0468	30.7617	57.3048	30.7617	54.9173	30.7617	57.6374	30.7617	54.8289	30.7617	57.9427	30.7617	54.781	30.7617	58.2075	30.7617	54.7733	30.7617	58.4196	30.7617	54.8061	30.7617	58.5687	30.7617	54.8799	30.7617	58.6472	30.7617	54.9955	30.7617	58.6503	30.7617	55.1539	30.7617	58.5771	30.7617	55.3556	30.7617	58.4298	30.7617	55.6	30.7617	58.2149	30.7617	55.8846	30.7617	57.9419	30.7617	56.2043	30.7617	57.6237	30.7617	56.5507	30.7617	57.2752	30.7617	56.9123
32.2266	59.7235	32.2266	59.4536	32.2266	60.0205	32.2266	59.2166	32.2266	60.3369	32.2266	59.0166	32.2266	60.6629	32.2266	58.8558	32.2266	60.9874	32.2266	58.7352	32.2266	61.2981	32.2266	58.6552	32.2266	61.5824	32.2266	58.6152	32.2266	61.8282	32.2266	58.615	32.2266	62.0243	32.2266	58.654	32.2266	62.1614	32.2266	58.7319	32.2266	62.2325	32.2266	58.8486	32.2266	62.2336	32.2266	59.0039	32.2266	62.1641	32.2266	59.1975	32.2266	62.0267	32.2266	59.428	32.2266	61.8276	32.2266	59.6928	32.2266	61.5762	32.2266	59.9873	32.2266	61.2844	32.2266	60.3045	32.2266	60.9658	32.2266	60.6347
33.6914	64.0354	33.6914	63.8004	33.6914	64.2903	33.6914	63.5903	33.6914	64.5585	33.6914	63.4087	33.6914	64.8323	33.6914	63.2578	33.6914	65.1022	33.6914	63.139	33.6914	65.3582	33.6914	63.053	33.6914	65.5895	33.6914	63.0001	33.6914	65.7858	33.6914	62.9802	33.6914	65.9374	33.6914	62.9935	33.6914	66.0364	33.6914	63.0399	33.6914	66.0769	33.6914	63.1197	33.6914	66.0557	33.6914	63.2332	33.6914	65.973	33.6914	63.3805	33.6914	65.8319	33.6914	63.5612	33.6914	65.6391	33.6914	63.774	33.6914	65.4038	33.6914	64.0159	33.6914	65.1378	33.6914	64.2819	33.6914	64.8537	33.6914	64.5645
35.1562	67.1752	35.1562	66.9517	35.1562	67.417	35.1562	66.7512	35.1562	67.671	35.1562	66.5772	35.1562	67.9296	35.1562	66.432	35.1562	68.1839	35.1562	66.3167	35.1562	68.4242	35.1562	66.2321	35.1562	68.6404	35.1562	66.1784	35.1562	68.8225	35.1562	66.1557	35.1562	68.9615	35.1562	66.1638	35.1562	69.0497	35.1562	66.2029	35.1562	69.0816	35.1562	66.2732	35.1562	69.0546	35.1562	66.3749	35.1562	68.9688	35.1562	66.5085	35.1562	68.8279	35.1562	66.6737	35.1562	68.6385	35.1562	66.8697	35.1562	68.41	35.1562	67.0942	35.1562	68.1539	35.1562	67.3426	35.1562	67.8827	35.1562	67.6085
36.6211	70.3508	36.6211	70.1342	36.6211	70.5837	36.6211	69.9386	36.6211	70.827	36.6211	69.7677	36.6211	71.0732	36.6211	69.6238	36.6211	71.3139	36.6211	69.5085	36.6211	71.5399	36.6211	69.4226	36.6211	71.7418	36.6211	69.3666	36.6211	71.91	36.6211	69.3404	36.6211	72.0363	36.6211	69.3442	36.6211	72.1134	36.6211	69.3778	36.6211	72.1366	36.6211	69.4416	36.6211	72.1034	36.6211	69.5355	36.6211	72.0145	36.6211	69.6599	36.6211	71.8737	36.6211	69.8145	36.6211	71.6876	36.6211	69.9985	36.6211	71.4655	36.6211	70.21	36.6211	71.2185	36.6211	70.4448	36.6211	70.9585	36.6211	70.6971
38.0859	73.2218	38.0859	73.0105	38.0859	73.4481	38.0859	72.8188	38.0859	73.6832	38.0859	72.6506	38.0859	73.92	38.0859	72.5084	38.0859	74.1502	38.0859	72.3939	38.0859	74.3651	38.0859	72.3081	38.0859	74.5554	38.0859	72.2514	38.0859	74.7124	38.0859	72.2239	38.0859	74.8281	38.0859	72.2254	38.0859	74.8959	38.0859	72.256	38.0859	74.9115	38.0859	72.3155	38.0859	74.873	38.0859	72.4038	38.0859	74.7814	38.0859	72.5211	38.0859	74.6407	38.0859	72.6672	38.0859	74.4576	38.0859	72.8411	38.0859	74.2414	38.0859	73.0411	38.0859	74.0028	38.0859	73.2638	38.0859	73.7532	38.0859	73.5037
39.5508	75.8345	39.5508	75.6269	39.5508	76.0552	39.5508	75.4372	39.5508	76.2828	39.5508	75.2693	39.5508	76.5105	39.5508	75.1261	39.5508	76.7301	39.5508	75.0094	39.5508	76.9333	39.5508	74.9205	39.5508	77.1115	39.5508	74.8599	39.5508	77.2561	39.5508	74.8278	39.5508	77.36	39.5508	74.8242	39.5508	77.417	39.5508	74.8489	39.5508	77.4232	39.5508	74.9019	39.5508	77.3772	39.5508	74.9829	39.5508	77.2803	39.5508	75.0919	39.5508	77.1369	39.5508	75.2288	39.5508	76.9538	39.5508	75.3928	39.5508	76.7403	39.5508	75.5823	39.5508	76.507	39.5508	75.7945	39.5508	76.2648	39.5508	76.0243
41.0156	78.4563	41.0156	78.2343	41.0156	78.6877	41.0156	78.0274	41.0156	78.9215	41.0156	77.8402	41.0156	79.1502	41.0156	77.6765	41.0156	79.3652	41.0156	77.5388	41.0156	79.5578	41.0156	77.429	41.0156	79.719	41.0156	77.3481	41.0156	79.8407	41.0156	77.2966	41.0156	79.9158	41.0156	77.2745	41.0156	79.9393	41.0156	77.2814	41.0156	79.9083	41.0156	77.3169	41.0156	79.8234	41.0156	77.3805	41.0156	79.6879	41.0156	77.4718	41.0156	79.5088	41.0156	77.5906	41.0156	79.2954	41.0156	77.7366	41.0156	79.059	41.0156	77.9093	41.0156	78.8116	41.0156	78.107	41.0156	78.5644	41.0156	78.3271
42.4805	80.2432	42.4805	80.025	42.4805	80.4693	42.4805	79.8203	42.4805	80.6964	42.4805	79.634	42.4805	80.917	42.4805	79.4698	42.4805	81.1229	42.4805	79.3306	42.4805	81.3056	42.4805	79.2184	42.4805	81.4566	42.4805	79.1345	42.4805	81.5682	42.4805	79.0793	42.4805	81.6337	42.4805	79.0529	42.4805	81.6484	42.4805	79.0551	42.4805	81.6102	42.4805	79.0854	42.4805	81.5196	42.4805	79.1432	42.4805	81.3806	42.4805	79.2282	42.4805	81.2002	42.4805	79.3399	42.4805	80.9879	42.4805	79.4782	42.4805	80.7548	42.4805	79.6426	42.4805	80.5127	42.4805	79.8317	42.4805	80.2724	42.4805	80.0432
43.9453	81.5844	43.9453	81.371	43.9453	81.8042	43.9453	81.1698	43.9453	82.024	43.9453	80.9858	43.9453	82.2362	43.9453	80.8227	43.9453	82.4329	43.9453	80.6836	43.9453	82.6059	43.9453	80.5705	43.9453	82.747	43.9453	80.4849	43.9453	82.8489	43.9453	80.4273	43.9453	82.9054	43.9453	80.3978	43.9453	82.9122	43.9453	80.3961	43.9453	82.8674	43.9453	80.4218	43.9453	82.7722	43.9453	80.4742	43.9453	82.6307	43.9453	80.5528	43.9453	82.4501	43.9453	80.6572	43.9453	82.2401	43.9453	80.7873	43.9453	82.0116	43.9453	80.9426	43.9453	81.7761	43.9453	81.1222	43.9453	81.544	43.9453	81.324
45.4102	82.4816	45.4102	82.2714	45.4102	82.6974	45.4102	82.0724	45.4102	82.9121	45.4102	81.8896	45.4102	83.1185	45.4102	81.7268	45.4102	83.3088	45.4102	81.5872	45.4102	83.4749	45.4102	81.473	45.4102	83.6091	45.4102	81.3856	45.4102	83.7041	45.4102	81.3257	45.4102	83.7542	45.4102	81.2934	45.4102	83.7554	45.4102	81.2886	45.4102	83.706	45.4102	81.3106	45.4102	83.6074	45.4102	81.3588	45.4102	83.464	45.4102	81.4328	45.4102	83.2831	45.4102	81.5322	45.4102	83.0742	45.4102	81.6568	45.4102	82.8485	45.4102	81.8063	45.4102	82.617	45.4102	81.9799	45.4102	82.39	45.4102	82.1756
46.875	83.1063	46.875	82.8989	46.875	83.3183	46.875	82.7021	46.875	83.5284	46.875	82.5206	46.875	83.7293	46.875	82.3587	46.875	83.9136	46.875	82.2194	46.875	84.0732	46.875	82.1052	46.875	84.2008	46.875	82.0174	46.875	84.2894	46.875	81.9569	46.875	84.3335	46.875	81.9238	46.875	84.3295	46.875	81.9177	46.875	84.2763	46.875	81.9382	46.875	84.1753	46.875	81.9843	46.875	84.0313	46.875	82.0556	46.875	83.8516	46.875	82.1514	46.875	83.6459	46.875	82.2715	46.875	83.4249	46.875	82.4156	46.875	83.1994	46.875	82.5829	46.875	82.9792	46.875	82.7719
48.3398	83.4092	48.3398	83.2045	48.3398	83.618	48.3398	83.01	48.3398	83.8244	48.3398	82.8305	48.3398	84.0213	48.3398	82.6704	48.3398	84.201	48.3398	82.5328	48.3398	84.356	48.3398	82.4202	48.3398	84.4788	48.3398	82.334	48.3398	84.5629	48.3398	82.275	48.3398	84.603	48.3398	82.2433	48.3398	84.5959	48.3398	82.2384	48.3398	84.5405	48.3398	82.2595	48.3398	84.4389	48.3398	82.3056	48.3398	84.2958	48.3398	82.3759	48.3398	84.1187	48.3398	82.4697	48.3398	83.9173	48.3398	82.5865	48.3398	83.7019	48.3398	82.7261	48.3398	83.4831	48.3398	82.8877	48.3398	83.2701	48.3398	83.07
51.2695	83.7569	51.2695	83.555	51.2695	83.9612	51.2695	83.3615	51.2695	84.1613	51.2695	83.1817	51.2695	84.3499	51.2695	83.0201	51.2695	84.5198	51.2695	82.8803	51.2695	84.6637	51.2695	82.765	51.2695	84.7747	51.2695	82.676	51.2695	84.8469	51.2695	82.6142	51.2695	84.8755	51.2695	82.5797	51.2695	84.858	51.2695	82.572	51.2695	84.7942	51.2695	82.5901	51.2695	84.6866	51.2695	82.6329	51.2695	84.5406	51.2695	82.6991	51.2695	84.3637	51.2695	82.7878	51.2695	84.1658	51.2695	82.8982	51.2695	83.9568	51.2695	83.0299	51.2695	83.7468	51.2695	83.1823	51.2695	83.5439	51.2695	83.3543
52.7344	83.7793	52.7344	83.5811	52.7344	83.9794	52.7344	83.3909	52.7344	84.1747	52.7344	83.214	52.7344	84.3583	52.7344	83.0549	52.7344	84.5228	52.7344	82.9174	52.7344	84.6612	52.7344	82.8042	52.7344	84.7668	52.7344	82.7171	52.7344	84.8338	52.7344	82.6568	52.7344	84.858	52.7344	82.6236	52.7344	84.837	52.7344	82.6167	52.7344	84.7709	52.7344	82.635	52.7344	84.6627	52.7344	82.6771	52.7344	84.5177	52.7344	82.7417	52.7344	84.344	52.7344	82.8276	52.7344	84.1509	52.7344	82.9339	52.7344	83.9485	52.7344	83.0601	52.7344	83.7461	52.7344	83.2058	52.7344	83.5514	52.7344	83.3702
54.1992	83.7544	54.1992	83.5582	54.1992	83.9519	54.1992	83.3693	54.1992	84.1441	54.1992	83.1934	54.1992	84.3237	54.1992	83.0349	54.1992	84.4838	54.1992	82.8978	54.1992	84.6174	54.1992	82.7849	54.1992	84.7179	54.1992	82.698	54.1992	84.7798	54.1992	82.638	54.1992	84.7993	54.1992	82.605	54.1992	84.7742	54.1992	82.5982	54.1992	84.7051	54.1992	82.6162	54.1992	84.595	54.1992	82.6577	54.1992	84.4497	54.1992	82.721	54.1992	84.2773	54.1992	82.8047	54.1992	84.0872	54.1992	82.9078	54.1992	83.8893	54.1992	83.0299	54.1992	83.6924	54.1992	83.1704	54.1992	83.504	54.1992	83.329
55.6641	83.6763	55.6641	83.4812	55.6641	83.8719	55.6641	83.2928	55.6641	84.0614	55.6641	83.1169	55.6641	84.2377	55.6641	82.958	55.6641	84.3938	55.6641	82.8203	55.6641	84.5228	55.6641	82.7066	55.6641	84.6183	55.6641	82.619	55.6641	84.6752	55.6641	82.5582	55.6641	84.6898	55.6641	82.5244	55.6641	84.6602	55.6641	82.5168	55.6641	84.5873	55.6641	82.534	55.6641	84.4745	55.6641	82.5742	55.6641	84.3279	55.6641	82.6358	55.6641	84.1556	55.6641	82.7172	55.6641	83.9671	55.6641	82.8174	55.6641	83.7722	55.6641	82.9358	55.6641	83.5794	55.6641	83.072	55.6641	83.3957	55.6641	83.2257
58.5938	83.5116	58.5938	83.3187	58.5938	83.7036	58.5938	83.1314	58.5938	83.888	58.5938	82.9554	58.5938	84.0578	58.5938	82.7958	58.5938	84.2061	58.5938	82.6568	58.5938	84.3262	58.5938	82.5416	58.5938	84.4123	58.5938	82.4524	58.5938	84.4595	58.5938	82.3901	58.5938	84.4646	58.5938	82.3549	58.5938	84.4265	58.5938	82.3458	58.5938	84.3465	58.5938	82.3612	58.5938	84.2288	58.5938	82.3992	58.5938	84.0797	58.5938	82.4578	58.5938	83.9078	58.5938	82.5351	58.5938	83.7227	58.5938	82.6299	58.5938	83.5336	58.5938	82.7414	58.5938	83.3488	58.5938	82.8694	58.5938	83.1744	58.5938	83.0139
60.0586	83.4222	60.0586	83.2294	60.0586	83.6135	60.0586	83.0414	60.0586	83.7964	60.0586	82.8643	60.0586	83.9639	60.0586	82.7033	60.0586	84.1093	60.0586	82.5626	60.0586	84.2259	60.0586	82.4457	60.0586	84.308	60.0586	82.3549	60.0586	84.351	60.0586	82.2912	60.0586	84.3519	60.0586	82.2548	60.0586	84.3098	60.0586	82.2447	60.0586	84.2264	60.0586	82.2593	60.0586	84.106	60.0586	82.2965	60.0586	83.9553	60.0586	82.3541	60.0586	83.7829	60.0586	82.4302	60.0586	83.5984	60.0586	82.5233	60.0586	83.411	60.0586	82.6327	60.0586	83.2287	60.0586	82.7582	60.0586	83.0571	60.0586	82.8998
62.9883	83.2966	62.9883	83.1069	62.9883	83.4832	62.9883	82.9208	62.9883	83.6599	62.9883	82.7441	62.9883	83.82	62.9883	82.5823	62.9883	83.9566	62.9883	82.4401	62.9883	84.0636	62.9883	82.3211	62.9883	84.1356	62.9883	82.2276	62.9883	84.1683	62.9883	82.1611	62.9883	84.1594	62.9883	82.1218	62.9883	84.1084	62.9883	82.1087	62.9883	84.0178	62.9883	82.1201	62.9883	83.8923	62.9883	82.1539	62.9883	83.7392	62.9883	82.2076	62.9883	83.5674	62.9883	82.279	62.9883	83.3862	62.9883	82.3665	62.9883	83.2048	62.9883	82.4692	62.9883	83.0303	62.9883	82.5868	62.9883	82.8677	62.9883	82.7196
64.4531	83.2494	64.4531	83.0622	64.4531	83.4332	64.4531	82.8779	64.4531	83.6067	64.4531	82.7028	64.4531	83.7631	64.4531	82.5421	64.4531	83.8957	64.4531	82.4007	64.4531	83.9984	64.4531	82.282	64.4531	84.0658	64.4531	82.1885	64.4531	84.094	64.4531	82.1217	64.4531	84.0807	64.4531	82.0816	64.4531	84.0259	64.4531	82.0673	64.4531	83.932	64.4531	82.077	64.4531	83.8042	64.4531	82.1086	64.4531	83.6499	64.4531	82.1594	64.4531	83.4782	64.4531	82.2274	64.4531	83.2986	64.4531	82.3108	64.4531	83.1201	64.4531	82.4088	64.4531	82.9495	64.4531	82.5213	64.4531	82.7917	64.4531	82.6488
67.3828	83.1498	67.3828	82.9634	67.3828	83.3324	67.3828	82.7799	67.3828	83.5042	67.3828	82.6054	67.3828	83.6583	67.3828	82.4457	67.3828	83.7882	67.3828	82.3055	67.3828	83.8877	67.3828	82.1885	67.3828	83.9517	67.3828	82.0972	67.3828	83.9765	67.3828	82.0329	67.3828	83.96	67.3828	81.9956	67.3828	83.9026	67.3828	81.9842	67.3828	83.8071	67.3828	81.9965	67.3828	83.679	67.3828	82.0301	67.3828	83.526	67.3828	82.0821	67.3828	83.3572	67.3828	82.1501	67.3828	83.1822	67.3828	82.2322	67.3828	83.0094	67.3828	82.3274	67.3828	82.8455	67.3828	82.4357	67.3828	82.6944	67.3828	82.5578
68.8477	83.1199	68.8477	82.9335	68.8477	83.3021	68.8477	82.7497	68.8477	83.4733	68.8477	82.5749	68.8477	83.6264	68.8477	82.415	68.8477	83.7548	68.8477	82.2747	68.8477	83.8525	68.8477	82.158	68.8477	83.9146	68.8477	82.0673	68.8477	83.9373	68.8477	82.0041	68.8477	83.9189	68.8477	81.9681	68.8477	83.8599	68.8477	81.9582	68.8477	83.7634	68.8477	81.9721	68.8477	83.6351	68.8477	82.0072	68.8477	83.4827	68.8477	82.0604	68.8477	83.3156	68.8477	82.1291	68.8477	83.1431	68.8477	82.2112	68.8477	82.9735	68.8477	82.3057	68.8477	82.8131	68.8477	82.4124	68.8477	82.6654	68.8477	82.532
71.7773	83.1024	71.7773	82.9157	71.7773	83.2842	71.7773	82.7312	71.7773	83.454	71.7773	82.5555	71.7773	83.6049	71.7773	82.3945	71.7773	83.7303	71.7773	82.2536	71.7773	83.8242	71.7773	82.1367	71.7773	83.8819	71.7773	82.0466	71.7773	83.9001	71.7773	81.9846	71.7773	83.8773	71.7773	81.9506	71.7773	83.8145	71.7773	81.9431	71.7773	83.7153	71.7773	81.9598	71.7773	83.5858	71.7773	81.9974	71.7773	83.4341	71.7773	82.0527	71.7773	83.2697	71.7773	82.1226	71.7773	83.1016	71.7773	82.2046	71.7773	82.9379	71.7773	82.2975	71.7773	82.7842	71.7773	82.4009	71.7773	82.6433	71.7773	82.5158
74.707	83.1257	74.707	82.94	74.707	83.3039	74.707	82.7538	74.707	83.4675	74.707	82.5741	74.707	83.6097	74.707	82.4071	74.707	83.724	74.707	82.2585	74.707	83.805	74.707	82.1329	74.707	83.8485	74.707	82.0337	74.707	83.8517	74.707	81.963	74.707	83.8145	74.707	81.9213	74.707	83.7389	74.707	81.9077	74.707	83.6298	74.707	81.9203	74.707	83.4944	74.707	81.9559	74.707	83.3417	74.707	82.011	74.707	83.1809	74.707	82.0819	74.707	83.0207	74.707	82.1653	74.707	82.8672	74.707	82.2588	74.707	82.7242	74.707	82.3611	74.707	82.5927	74.707	82.4721
77.6367	83.138	77.6367	82.952	77.6367	83.3156	77.6367	82.7648	77.6367	83.4775	77.6367	82.5835	77.6367	83.617	77.6367	82.4146	77.6367	83.7276	77.6367	82.2642	77.6367	83.8041	77.6367	82.1369	77.6367	83.8423	77.6367	82.0366	77.6367	83.8402	77.6367	81.9654	77.6367	83.7977	77.6367	81.9238	77.6367	83.7175	77.6367	81.9109	77.6367	83.605	77.6367	81.9246	77.6367	83.4677	77.6367	81.9614	77.6367	83.3149	77.6367	82.0176	77.6367	83.1561	77.6367	82.0891	77.6367	82.9995	77.6367	82.1723	77.6367	82.851	77.6367	82.2645	77.6367	82.7134	77.6367	82.3643	77.6367	82.5873	77.6367	82.4715
79.1016	83.1529	79.1016	82.9668	79.1016	83.3301	79.1016	82.779	79.1016	83.4911	79.1016	82.5967	79.1016	83.629	79.1016	82.4267	79.1016	83.7376	79.1016	82.2749	79.1016	83.8116	79.1016	82.1464	79.1016	83.8471	79.1016	82.0449	79.1016	83.8419	79.1016	81.9727	79.1016	83.7964	79.1016	81.9303	79.1016	83.7134	79.1016	81.917	79.1016	83.5986	79.1016	81.9303	79.1016	83.4597	79.1016	81.967	79.1016	83.3062	79.1016	82.0229	79.1016	83.1476	79.1016	82.0941	79.1016	82.9921	79.1016	82.1767	79.1016	82.8452	79.1016	82.268	79.1016	82.7097	79.1016	82.3665	79.1016	82.5858	79.1016	82.472
82.0312	83.1696	82.0312	82.9827	82.0312	83.3468	82.0312	82.7936	82.0312	83.5067	82.0312	82.6095	82.0312	83.6426	82.0312	82.4376	82.0312	83.7482	82.0312	82.284	82.0312	83.8184	82.0312	82.154	82.0312	83.8493	82.0312	82.0516	82.0312	83.8394	82.0312	81.979	82.0312	83.7891	82.0312	81.937	82.0312	83.7019	82.0312	81.9245	82.0312	83.5838	82.0312	81.939	82.0312	83.4431	82.0312	81.9769	82.0312	83.2895	82.0312	82.034	82.0312	83.1325	82.0312	82.1058	82.0312	82.9801	82.0312	82.1884	82.0312	82.8374	82.0312	82.2787	82.0312	82.7067	82.0312	82.3751	82.0312	82.5874	82.0312	82.4776
84.9609	83.2451	84.9609	83.057	84.9609	83.4228	84.9609	82.8661	84.9609	83.5826	84.9609	82.6802	84.9609	83.7174	84.9609	82.5066	84.9609	83.8212	84.9609	82.3519	84.9609	83.8888	84.9609	82.2217	84.9609	83.9168	84.9609	82.1201	84.9609	83.9039	84.9609	82.0494	84.9609	83.8511	84.9609	82.0105	84.9609	83.7622	84.9609	82.0019	84.9609	83.6437	84.9609	82.0209	84.9609	83.5043	84.9609	82.0636	84.9609	83.3537	84.9609	82.1251	84.9609	83.2014	84.9609	82.2007	84.9609	83.0548	84.9609	82.286	84.9609	82.9185	84.9609	82.3776	84.9609	82.7939	84.9609	82.4736	84.9609	82.6799	84.9609	82.5739
87.8906	83.3605	87.8906	83.1708	87.8906	83.5384	87.8906	82.9774	87.8906	83.697	87.8906	82.7882	87.8906	83.8293	87.8906	82.6109	87.8906	83.9292	87.8906	82.4527	87.8906	83.9919	87.8906	82.3196	87.8906	84.0144	87.8906	82.216	87.8906	83.9958	87.8906	82.1449	87.8906	83.9376	87.8906	82.1068	87.8906	83.8443	87.8906	82.1006	87.8906	83.723	87.8906	82.1231	87.8906	83.583	87.8906	82.1699	87.8906	83.4343	87.8906	82.2358	87.8906	83.2862	87.8906	82.3153	87.8906	83.1457	87.8906	82.4036	87.8906	83.0165	87.8906	82.4966	87.8906	82.8991	87.8906	82.5922	87.8906	82.7913	87.8906	82.6899
90.8203	83.4772	90.8203	83.2867	90.8203	83.6545	90.8203	83.0911	90.8203	83.8109	90.8203	82.8987	90.8203	83.9395	90.8203	82.7174	90.8203	84.0343	90.8203	82.5548	90.8203	84.0906	90.8203	82.4173	90.8203	84.1056	90.8203	82.3099	90.8203	84.0787	90.8203	82.2355	90.8203	84.0121	90.8203	82.1952	90.8203	83.9108	90.8203	82.1877	90.8203	83.7827	90.8203	82.2098	90.8203	83.6376	90.8203	82.2568	90.8203	83.4862	90.8203	82.3231	90.8203	83.3381	90.8203	82.4027	90.8203	83.2003	90.8203	82.4903	90.8203	83.0759	90.8203	82.5815	90.8203	82.9643	90.8203	82.6739	90.8203	82.8627	90.8203	82.767
95.2148	83.5728	95.2148	83.3806	95.2148	83.7502	95.2148	83.1819	95.2148	83.9048	95.2148	82.9852	95.2148	84.0299	95.2148	82.7989	95.2148	84.1193	95.2148	82.631	95.2148	84.1686	95.2148	82.4883	95.2148	84.1753	95.2148	82.3763	95.2148	84.1391	95.2148	82.2984	95.2148	84.0629	95.2148	82.2556	95.2148	83.9522	95.2148	82.2469	95.2148	83.8159	95.2148	82.2688	95.2148	83.6647	95.2148	82.3162	95.2148	83.5099	95.2148	82.383	95.2148	83.3614	95.2148	82.4627	95.2148	83.2261	95.2148	82.5495	95.2148	83.1064	95.2148	82.6388	95.2148	83.0009	95.2148	82.7277	95.2148	82.9058	95.2148	82.8161
98.1445	83.6616	98.1445	83.4684	98.1445	83.8386	98.1445	83.2673	98.1445	83.9914	98.1445	83.067	98.1445	84.1131	98.1445	82.8762	98.1445	84.1978	98.1445	82.7033	98.1445	84.2411	98.1445	82.5553	98.1445	84.2406	98.1445	82.438	98.1445	84.1964	98.1445	82.3554	98.1445	84.1118	98.1445	82.3086	98.1445	83.9929	98.1445	82.2967	98.1445	83.8492	98.1445	82.3162	98.1445	83.6918	98.1445	82.3618	98.1445	83.5329	98.1445	82.4273	98.1445	83.3825	98.1445	82.5059	98.1445	83.2474	98.1445	82.5913	98.1445	83.1298	98.1445	82.6786	98.1445	83.0276	98.1445	82.765	98.1445	82.9362	98.1445	82.8502
101.074	83.747	101.074	83.5541	101.074	83.9226	101.074	83.3526	101.074	84.0732	101.074	83.1511	101.074	84.1917	101.074	82.9585	101.074	84.2721	101.074	82.783	101.074	84.3102	101.074	82.6322	101.074	84.3038	101.074	82.5119	101.074	84.2532	101.074	82.426	101.074	84.1617	101.074	82.3761	101.074	84.0361	101.074	82.3611	101.074	83.8862	101.074	82.3776	101.074	83.724	101.074	82.4205	101.074	83.5616	101.074	82.4832	101.074	83.4096	101.074	82.559	101.074	83.2748	101.074	82.6414	101.074	83.159	101.074	82.7255	101.074	83.0598	101.074	82.8084	101.074	82.972	101.074	82.8898
105.469	83.8022	105.469	83.6097	105.469	83.9771	105.469	83.4085	105.469	84.1262	105.469	83.2076	105.469	84.2424	105.469	83.0162	105.469	84.3196	105.469	82.8426	105.469	84.3535	105.469	82.6946	105.469	84.3422	105.469	82.5779	105.469	84.2861	105.469	82.4964	105.469	84.1893	105.469	82.4513	105.469	84.0592	105.469	82.4411	105.469	83.9063	105.469	82.4622	105.469	83.7435	105.469	82.5088	105.469	83.5835	105.469	82.574	105.469	83.437	105.469	82.6507	105.469	83.3102	105.469	82.7322	105.469	83.2044	105.469	82.8133	105.469	83.1158	105.469	82.891	105.469	83.0383	105.469	82.9651
108.398	83.767	108.398	83.5733	108.398	83.9431	108.398	83.3713	108.398	84.0932	108.398	83.1706	108.398	84.2097	108.398	82.9806	108.398	84.2864	108.398	82.8104	108.398	84.3191	108.398	82.6674	108.398	84.3058	108.398	82.5577	108.398	84.2473	108.398	82.4846	108.398	84.1481	108.398	82.4488	108.398	84.0161	108.398	82.4482	108.398	83.8627	108.398	82.4783	108.398	83.7012	108.398	82.5326	108.398	83.5451	108.398	82.6036	108.398	83.405	108.398	82.6836	108.398	83.2872	108.398	82.7656	108.398	83.1918	108.398	82.8446	108.398	83.1144	108.398	82.9173	108.398	83.0477	108.398	82.984
112.793	83.7562	112.793	83.5491	112.793	83.944	112.793	83.3327	112.793	84.1034	112.793	83.1177	112.793	84.2264	112.793	82.9148	112.793	84.3067	112.793	82.734	112.793	84.3401	112.793	82.5843	112.793	84.3248	112.793	82.4722	112.793	84.2619	112.793	82.4016	112.793	84.1564	112.793	82.3727	112.793	84.0171	112.793	82.3828	112.793	83.8564	112.793	82.4258	112.793	83.6887	112.793	82.494	112.793	83.5285	112.793	82.5783	112.793	83.3872	112.793	82.6698	112.793	83.271	112.793	82.7607	112.793	83.1796	112.793	82.8451	112.793	83.1074	112.793	82.9199	112.793	83.0456	112.793	82.9855
117.188	83.7938	117.188	83.5716	117.188	83.9931	117.188	83.3371	117.188	84.1603	117.188	83.1016	117.188	84.2873	117.188	82.877	117.188	84.3681	117.188	82.6748	117.188	84.3986	117.188	82.5055	117.188	84.3772	117.188	82.3771	117.188	84.3056	117.188	82.2945	117.188	84.189	117.188	82.2586	117.188	84.0367	117.188	82.2663	117.188	83.8616	117.188	82.311	117.188	83.6792	117.188	82.3836	117.188	83.5046	117.188	82.474	117.188	83.3501	117.188	82.5721	117.188	83.2224	117.188	82.6693	117.188	83.1217	117.188	82.7594	117.188	83.0421	117.188	82.8393	117.188	82.9746	117.188	82.9095
120.117	83.8936	120.117	83.6781	120.117	84.0825	120.117	83.4456	120.117	84.2364	120.117	83.2067	120.117	84.3486	120.117	82.9726	120.117	84.414	120.117	82.7549	120.117	84.43	120.117	82.5643	120.117	84.3964	120.117	82.4101	120.117	84.3164	120.117	82.299	120.117	84.1965	120.117	82.2343	120.117	84.047	120.117	82.2159	120.117	83.8805	120.117	82.2395	120.117	83.7106	120.117	82.2983	120.117	83.5496	120.117	82.3831	120.117	83.4059	120.117	82.4845	120.117	83.2823	120.117	82.5934	120.117	83.1766	120.117	82.7024	120.117	83.0829	120.117	82.8063	120.117	82.9939	120.117	82.9031
124.512	84.0241	124.512	83.8165	124.512	84.2041	124.512	83.591	124.512	84.3484	124.512	83.358	124.512	84.4503	124.512	83.1289	124.512	84.5053	124.512	82.9154	124.512	84.511	124.512	82.7283	124.512	84.4681	124.512	82.5775	124.512	84.3807	124.512	82.4701	124.512	84.2567	124.512	82.4099	124.512	84.1078	124.512	82.397	124.512	83.9477	124.512	82.4274	124.512	83.7909	124.512	82.494	124.512	83.6491	124.512	82.5872	124.512	83.5289	124.512	82.6966	124.512	83.4307	124.512	82.8122	124.512	83.3495	124.512	82.9254	124.512	83.2766	124.512	83.0298	124.512	83.2033	124.512	83.1224
128.906	84.0405	128.906	83.8292	128.906	84.2219	128.906	83.5978	128.906	84.3649	128.906	83.3573	128.906	84.4627	128.906	83.1196	128.906	84.5104	128.906	82.8966	128.906	84.5056	128.906	82.7001	128.906	84.449	128.906	82.5405	128.906	84.345	128.906	82.4255	128.906	84.2022	128.906	82.3594	128.906	84.0335	128.906	82.3425	128.906	83.8543	128.906	82.3706	128.906	83.6812	128.906	82.4359	128.906	83.5279	128.906	82.5281	128.906	83.4022	128.906	82.6359	128.906	83.3049	128.906	82.7484	128.906	83.2298	128.906	82.8562	128.906	83.1668	128.906	82.9529	128.906	83.105	128.906	83.0355
133.301	84.0469	133.301	83.8304	133.301	84.2319	133.301	83.5924	133.301	84.3769	133.301	83.344	133.301	84.475	133.301	83.0973	133.301	84.5212	133.301	82.8646	133.301	84.513	133.301	82.6579	133.301	84.4509	133.301	82.4881	133.301	84.3393	133.301	82.3631	133.301	84.1865	133.301	82.2878	133.301	84.0054	133.301	82.2623	133.301	83.8117	133.301	82.2826	133.301	83.6225	133.301	82.3407	133.301	83.4526	133.301	82.4263	133.301	83.3111	133.301	82.5278	133.301	83.2001	133.301	82.6345	133.301	83.1145	133.301	82.7371	133.301	83.0447	133.301	82.8298	133.301	82.9796	133.301	82.91
139.16	83.9844	139.16	83.7612	139.16	84.1764	139.16	83.517	139.16	84.3285	139.16	83.2635	139.16	84.4339	139.16	83.0133	139.16	84.4878	139.16	82.7794	139.16	84.488	139.16	82.5744	139.16	84.4354	139.16	82.4092	139.16	84.3345	139.16	82.2919	139.16	84.1936	139.16	82.2265	139.16	84.0251	139.16	82.2124	139.16	83.844	139.16	82.2445	139.16	83.6659	139.16	82.3139	139.16	83.504	139.16	82.4097	139.16	83.3664	139.16	82.5204	139.16	83.2548	139.16	82.6352	139.16	83.1647	139.16	82.7457	139.16	83.0875	139.16	82.8464	139.16	83.0137	139.16	82.9351
143.555	83.7096	143.555	83.4777	143.555	83.9076	143.555	83.2224	143.555	84.0632	143.555	82.9563	143.555	84.1702	143.555	82.6933	143.555	84.2247	143.555	82.4484	143.555	84.2256	143.555	82.2365	143.555	84.1755	143.555	82.0707	143.555	84.0805	143.555	81.961	143.555	83.9508	143.555	81.9119	143.555	83.7999	143.555	81.9222	143.555	83.6432	143.555	81.9853	143.555	83.4953	143.555	82.0899	143.555	83.3669	143.555	82.2223	143.555	83.2623	143.555	82.3688	143.555	83.1791	143.555	82.5167	143.555	83.1096	143.555	82.6559	143.555	83.0436	143.555	82.7797	143.555	82.9711	143.555	82.8846
147.949	83.7478	147.949	83.5133	147.949	83.943	147.949	83.25	147.949	84.0907	147.949	82.9704	147.949	84.185	147.949	82.6891	147.949	84.2225	147.949	82.4223	147.949	84.2029	147.949	82.1871	147.949	84.1296	147.949	81.9994	147.949	84.0102	147.949	81.872	147.949	83.8572	147.949	81.8122	147.949	83.6868	147.949	81.8204	147.949	83.5176	147.949	81.8897	147.949	83.3665	147.949	82.0074	147.949	83.2452	147.949	82.1574	147.949	83.1569	147.949	82.3227	147.949	83.0961	147.949	82.4878	147.949	83.051	147.949	82.6399	147.949	83.007	147.949	82.7701	147.949	82.9512	147.949	82.8739
153.809	83.8912	153.809	83.6603	153.809	84.0802	153.809	83.3975	153.809	84.2194	153.809	83.1143	153.809	84.3024	153.809	82.8245	153.809	84.3253	153.809	82.5432	153.809	84.287	153.809	82.2867	153.809	84.1898	153.809	82.0713	153.809	84.0406	153.809	81.9115	153.809	83.8515	153.809	81.8171	153.809	83.6399	153.809	81.7915	153.809	83.4265	153.809	81.8305	153.809	83.2324	153.809	81.9229	153.809	83.074	153.809	82.0526	153.809	82.9588	153.809	82.2016	153.809	82.8834	153.809	82.3523	153.809	82.8355	153.809	82.4903	153.809	82.7984	153.809	82.6056	153.809	82.7554	153.809	82.6936
159.668	83.6792	159.668	83.4404	159.668	83.8793	159.668	83.1735	159.668	84.0321	159.668	82.8908	159.668	84.1311	159.668	82.6066	159.668	84.172	159.668	82.3363	159.668	84.1536	159.668	82.0956	159.668	84.0777	159.668	81.8996	159.668	83.9502	159.668	81.7603	159.668	83.7815	159.668	81.6847	159.668	83.5864	159.668	81.6735	159.668	83.3825	159.668	81.7204	159.668	83.1881	159.668	81.8136	159.668	83.0187	159.668	81.9375	159.668	82.8829	159.668	82.0757	159.668	82.7817	159.668	82.213	159.668	82.708	159.668	82.338	159.668	82.6498	159.668	82.4435	159.668	82.5936	159.668	82.5276
165.527	83.3651	165.527	83.0901	165.527	83.5951	165.527	82.7812	165.527	83.7719	165.527	82.4526	165.527	83.89	165.527	82.1221	165.527	83.947	165.527	81.8102	165.527	83.943	165.527	81.539	165.527	83.8818	165.527	81.3294	165.527	83.7706	165.527	81.1976	165.527	83.6203	165.527	81.151	165.527	83.4449	165.527	81.1867	165.527	83.2602	165.527	81.2914	165.527	83.0817	165.527	81.4453	165.527	82.9216	165.527	81.6259	165.527	82.7872	165.527	81.8121	165.527	82.6796	165.527	81.9873	165.527	82.594	165.527	82.1406	165.527	82.5212	165.527	82.2673	165.527	82.4498	165.527	82.3683
171.387	83.3222	171.387	83.0467	171.387	83.5438	171.387	82.7241	171.387	83.7076	171.387	82.365	171.387	83.8126	171.387	81.9839	171.387	83.8606	171.387	81.6004	171.387	83.8566	171.387	81.2391	171.387	83.8084	171.387	80.9283	171.387	83.7267	171.387	80.696	171.387	83.6235	171.387	80.5644	171.387	83.5103	171.387	80.5432	171.387	83.3956	171.387	80.6267	171.387	83.2833	171.387	80.7954	171.387	83.1723	171.387	81.0222	171.387	83.0577	171.387	81.2796	171.387	82.9334	171.387	81.5447	171.387	82.7944	171.387	81.8019	171.387	82.6371	171.387	82.0422	171.387	82.4599	171.387	82.2617
177.246	83.1267	177.246	82.9177	177.246	83.2735	177.246	82.6521	177.246	83.3549	177.246	82.3387	177.246	83.3712	177.246	81.9892	177.246	83.3268	177.246	81.6197	177.246	83.2318	177.246	81.2509	177.246	83.1025	177.246	80.909	177.246	82.9611	177.246	80.6236	177.246	82.833	177.246	80.424	177.246	82.7406	177.246	80.3327	177.246	82.6958	177.246	80.3587	177.246	82.6951	177.246	80.4945	177.246	82.7198	177.246	80.7187	177.246	82.7436	177.246	81.0021	177.246	82.7402	177.246	81.3151	177.246	82.6901	177.246	81.6316	177.246	82.5831	177.246	81.9308	177.246	82.4171	177.246	82.1967
183.105	83.2537	183.105	83.0721	183.105	83.373	183.105	82.8347	183.105	83.4256	183.105	82.5499	183.105	83.4098	183.105	82.2279	183.105	83.328	183.105	81.8821	183.105	83.1882	183.105	81.5293	183.105	83.0059	183.105	81.1907	183.105	82.8046	183.105	80.8917	183.105	82.6139	183.105	80.6594	183.105	82.4636	183.105	80.5182	183.105	82.3744	183.105	80.4833	183.105	82.3493	183.105	80.5562	183.105	82.3719	183.105	80.7234	183.105	82.4127	183.105	80.9603	183.105	82.4395	183.105	81.2371	183.105	82.4264	183.105	81.5248	183.105	82.3573	183.105	81.7981	183.105	82.2266	183.105	82.0371
188.965	83.2901	188.965	83.1359	188.965	83.3836	188.965	82.9286	188.965	83.4107	188.965	82.6771	188.965	83.3687	188.965	82.3919	188.965	83.259	188.965	82.0855	188.965	83.0897	188.965	81.7731	188.965	82.8776	188.965	81.4733	188.965	82.6492	188.965	81.2077	188.965	82.4391	188.965	80.9993	188.965	82.2825	188.965	80.8692	188.965	82.2038	188.965	80.8313	188.965	82.206	188.965	80.8885	188.965	82.2684	188.965	81.0306	188.965	82.3553	188.965	81.2372	188.965	82.4293	188.965	81.4819	188.965	82.461	188.965	81.7372	188.965	82.4329	188.965	81.9784	188.965	82.3395	188.965	82.1845
196.289	82.7817	196.289	82.6586	196.289	82.8473	196.289	82.4889	196.289	82.8459	196.289	82.2849	196.289	82.7717	196.289	82.0593	196.289	82.6243	196.289	81.8254	196.289	82.4118	196.289	81.5975	196.289	82.1545	196.289	81.3906	196.289	81.8874	196.289	81.2201	196.289	81.6577	196.289	81.1008	196.289	81.5144	196.289	81.0446	196.289	81.4897	196.289	81.058	196.289	81.582	196.289	81.14	196.289	81.7565	196.289	81.2814	196.289	81.9605	196.289	81.4661	196.289	82.1446	196.289	81.6737	196.289	82.2735	196.289	81.8823	196.289	82.3294	196.289	82.0703	196.289	82.3088	196.289	82.2181
203.613	82.5043	203.613	82.2784	203.613	82.6497	203.613	81.9904	203.613	82.6992	203.613	81.6615	203.613	82.6404	203.613	81.3164	203.613	82.4659	203.613	80.9836	203.613	82.1761	203.613	80.6945	203.613	81.7859	203.613	80.4808	203.613	81.3328	203.613	80.369	203.613	80.8862	203.613	80.3747	203.613	80.5448	203.613	80.4972	203.613	80.4075	203.613	80.7195	203.613	80.5189	203.613	81.0125	203.613	80.8381	203.613	81.342	203.613	81.2656	203.613	81.6739	203.613	81.6989	203.613	81.9782	203.613	82.0651	203.613	82.2294	203.613	82.3256	203.613	82.406	203.613	82.4667	203.613	82.4901
210.938	83.1542	210.938	82.9069	210.938	83.3125	210.938	82.5818	210.938	83.3709	210.938	82.1908	210.938	83.3192	210.938	81.7482	210.938	83.1488	210.938	81.2723	210.938	82.8546	210.938	80.7886	210.938	82.4393	210.938	80.3317	210.938	81.9198	210.938	79.9458	210.938	81.3373	210.938	79.6784	210.938	80.7658	210.938	79.5676	210.938	80.3093	210.938	79.626	210.938	80.0688	210.938	79.8331	210.938	80.0857	210.938	80.1421	210.938	80.3117	210.938	80.4949	210.938	80.6428	210.938	80.8373	210.938	80.9752	210.938	81.1252	210.938	81.2368	210.938	81.3262	210.938	81.3892	210.938	81.4184
218.262	83.184	218.262	82.9487	218.262	83.3375	218.262	82.642	218.262	83.3991	218.262	82.2745	218.262	83.3592	218.262	81.8579	218.262	83.2101	218.262	81.4067	218.262	82.9474	218.262	80.9404	218.262	82.5741	218.262	80.486	218.262	82.1052	218.262	80.0789	218.262	81.575	218.262	79.7604	218.262	81.0431	218.262	79.569	218.262	80.591	218.262	79.5273	218.262	80.2996	218.262	79.6307	218.262	80.2109	218.262	79.8473	218.262	80.3016	218.262	80.1281	218.262	80.4987	218.262	80.4215	218.262	80.7183	218.262	80.6825	218.262	80.8949	218.262	80.8773	218.262	80.9889	218.262	80.9833
225.586	83.0186	225.586	82.8021	225.586	83.1547	225.586	82.5158	225.586	83.1992	225.586	82.1695	225.586	83.1411	225.586	81.7733	225.586	82.9704	225.586	81.339	225.586	82.6812	225.586	80.8833	225.586	82.2751	225.586	80.4307	225.586	81.7683	225.586	80.0162	225.586	81.2007	225.586	79.6843	225.586	80.6445	225.586	79.4804	225.586	80.2002	225.586	79.4357	225.586	79.9641	225.586	79.5519	225.586	79.9741	225.586	79.7978	225.586	80.1822	225.586	80.1196	225.586	80.4868	225.586	80.4586	225.586	80.7872	225.586	80.7629	225.586	81.0133	225.586	80.9926	225.586	81.1283	225.586	81.1199
232.91	82.9221	232.91	82.692	232.91	83.0756	232.91	82.3982	232.91	83.1382	232.91	82.0519	232.91	83.0947	232.91	81.6623	232.91	82.9308	232.91	81.2384	232.91	82.6342	232.91	80.7909	232.91	82.1978	232.91	80.3361	232.91	81.6257	232.91	79.8999	232.91	80.9427	232.91	79.5189	232.91	80.2092	232.91	79.2376	232.91	79.5339	232.91	79.0959	232.91	79.0588	232.91	79.1123	232.91	78.8938	232.91	79.2713	232.91	79.0354	232.91	79.5265	232.91	79.3691	232.91	79.8161	232.91	79.7506	232.91	80.0789	232.91	80.0719	232.91	80.2647	232.91	80.2742	232.91	80.3371
241.699	82.9076	241.699	82.6348	241.699	83.1096	241.699	82.3081	241.699	83.2235	241.699	81.9429	241.699	83.2323	241.699	81.5528	241.699	83.1202	241.699	81.1492	241.699	82.8732	241.699	80.7435	241.699	82.4813	241.699	80.3494	241.699	81.9416	241.699	79.9861	241.699	81.2658	241.699	79.68	241.699	80.4931	241.699	79.4618	241.699	79.7074	241.699	79.3578	241.699	79.0448	241.699	79.378	241.699	78.6584	241.699	79.5069	241.699	78.6253	241.699	79.7048	241.699	78.8832	241.699	79.9181	241.699	79.2812	241.699	80.0923	241.699	79.6763	241.699	80.1803	241.699	79.9785	241.699	80.1483
250.488	82.7172	250.488	82.3883	250.488	82.9549	250.488	81.9824	250.488	83.089	250.488	81.5157	250.488	83.1091	250.488	81.0053	250.488	83.0072	250.488	80.47	250.488	82.7775	250.488	79.9297	250.488	82.4179	250.488	79.4075	250.488	81.9318	250.488	78.9305	250.488	81.3319	250.488	78.5312	250.488	80.6463	250.488	78.2431	250.488	79.9253	250.488	78.0924	250.488	79.2468	250.488	78.0854	250.488	78.7058	250.488	78.2001	250.488	78.3821	250.488	78.3904	250.488	78.2953	250.488	78.5985	250.488	78.3908	250.488	78.7697	250.488	78.5725	250.488	78.8625	250.488	78.7483	250.488	78.855
259.277	83.0177	259.277	82.7292	259.277	83.2222	259.277	82.3685	259.277	83.3318	259.277	81.9478	259.277	83.337	259.277	81.4794	259.277	83.2296	259.277	80.9759	259.277	83.0041	259.277	80.4514	259.277	82.658	259.277	79.9229	259.277	82.1944	259.277	79.4135	259.277	81.625	259.277	78.9539	259.277	80.9754	259.277	78.5809	259.277	80.2905	259.277	78.3293	259.277	79.6374	259.277	78.2188	259.277	79.0963	259.277	78.2419	259.277	78.7348	259.277	78.3626	259.277	78.5741	259.277	78.5275	259.277	78.5758	259.277	78.6823	259.277	78.6641	259.277	78.7844	259.277	78.7611	259.277	78.8105
268.066	82.6244	268.066	82.3549	268.066	82.814	268.066	82.018	268.066	82.9131	268.066	81.6276	268.066	82.9137	268.066	81.1985	268.066	82.8114	268.066	80.7467	268.066	82.6061	268.066	80.2904	268.066	82.304	268.066	79.8513	268.066	81.9202	268.066	79.4564	268.066	81.4804	268.066	79.1371	268.066	81.0227	268.066	78.9249	268.066	80.5947	268.066	78.8419	268.066	80.2449	268.066	78.8901	268.066	80.0082	268.066	79.0474	268.066	79.8934	268.066	79.2725	268.066	79.8799	268.066	79.5174	268.066	79.9272	268.066	79.7385	268.066	79.9884	268.066	79.9046	268.066	80.0223	268.066	79.9994
276.855	82.0929	276.855	81.7945	276.855	82.2991	276.855	81.417	276.855	82.401	276.855	80.9733	276.855	82.3876	276.855	80.4765	276.855	82.25	276.855	79.9407	276.855	81.9829	276.855	79.3834	276.855	81.5868	276.855	78.83	276.855	81.073	276.855	78.3189	276.855	80.4709	276.855	77.9045	276.855	79.837	276.855	77.6489	276.855	79.2598	276.855	77.6007	276.855	78.8453	276.855	77.7665	276.855	78.6717	276.855	78.101	276.855	78.7412	276.855	78.5249	276.855	78.9769	276.855	78.9544	276.855	79.2696	276.855	79.3212	276.855	79.5248	276.855	79.5788	276.855	79.6796	276.855	79.701
287.109	81.8631	287.109	81.5784	287.109	82.0547	287.109	81.2129	287.109	82.1426	287.109	80.7801	287.109	82.1187	287.109	80.2945	287.109	81.9774	287.109	79.7707	287.109	81.7167	287.109	79.2249	287.109	81.3387	287.109	78.6766	287.109	80.8524	287.109	78.153	287.109	80.2766	287.109	77.6916	287.109	79.6453	287.109	77.3393	287.109	79.0118	287.109	77.141	287.109	78.4484	287.109	77.1195	287.109	78.0326	287.109	77.2589	287.109	77.8164	287.109	77.5056	287.109	77.7966	287.109	77.788	287.109	77.9135	287.109	78.0384	287.109	78.0798	287.109	78.2068	287.109	78.2157	287.109	78.2665
297.363	82.4693	297.363	82.2224	297.363	82.6207	297.363	81.8903	297.363	82.6666	297.363	81.4826	297.363	82.5975	297.363	81.0079	297.363	82.4061	297.363	80.4742	297.363	82.0883	297.363	79.8917	297.363	81.6452	297.363	79.2768	297.363	81.0867	297.363	78.6582	297.363	80.4364	297.363	78.0834	297.363	79.7383	297.363	77.6178	297.363	79.0612	297.363	77.3306	297.363	78.4933	297.363	77.2628	297.363	78.1174	297.363	77.4	297.363	77.9714	297.363	77.6749	297.363	78.0249	297.363	77.9975	297.363	78.1958	297.363	78.2875	297.363	78.3901	297.363	78.4886	297.363	78.5314	297.363	78.5713
307.617	82.2839	307.617	82.0314	307.617	82.4537	307.617	81.7099	307.617	82.5278	307.617	81.3324	307.617	82.4952	307.617	80.91	307.617	82.3481	307.617	80.452	307.617	82.0826	307.617	79.968	307.617	81.7017	307.617	79.4721	307.617	81.2175	307.617	78.9887	307.617	80.6564	307.617	78.5578	307.617	80.0643	307.617	78.2329	307.617	79.5083	307.617	78.067	307.617	79.0681	307.617	78.0876	307.617	78.8103	307.617	78.2762	307.617	78.7557	307.617	78.5723	307.617	78.8667	307.617	78.8984	307.617	79.0664	307.617	79.1842	307.617	79.2718	307.617	79.3799	307.617	79.4166	307.617	79.4587
319.336	82.0365	319.336	81.7538	319.336	82.2294	319.336	81.3983	319.336	82.3166	319.336	80.9867	319.336	82.2852	319.336	80.533	319.336	82.1256	319.336	80.0473	319.336	81.8323	319.336	79.5382	319.336	81.4055	319.336	79.0173	319.336	80.8536	319.336	78.5081	319.336	80.1995	319.336	78.0549	319.336	79.4895	319.336	77.7236	319.336	78.8047	319.336	77.584	319.336	78.2605	319.336	77.673	319.336	77.9743	319.336	77.9636	319.336	77.9972	319.336	78.373	319.336	78.271	319.336	78.7991	319.336	78.6647	319.336	79.1544	319.336	79.0456	319.336	79.3781	319.336	79.3197	319.336	79.4363
329.59	82.5275	329.59	82.2267	329.59	82.7254	329.59	81.8395	329.59	82.8058	329.59	81.383	329.59	82.7572	329.59	80.8724	329.59	82.5716	329.59	80.3198	329.59	82.2457	329.59	79.7355	329.59	81.7817	329.59	79.1325	329.59	81.1903	329.59	78.5358	329.59	80.4957	329.59	77.9934	329.59	79.7427	329.59	77.58	329.59	79.0056	329.59	77.3796	329.59	78.3887	329.59	77.4397	329.59	78.0042	329.59	77.7316	329.59	77.9176	329.59	78.1578	329.59	78.0998	329.59	78.6006	329.59	78.4398	329.59	78.9624	329.59	78.8044	329.59	79.1798	329.59	79.0871	329.59	79.2219
341.309	82.7444	341.309	82.435	341.309	82.9542	341.309	82.0457	341.309	83.0475	341.309	81.5972	341.309	83.0117	341.309	81.1076	341.309	82.8388	341.309	80.5902	341.309	82.5264	341.309	80.0535	341.309	82.0781	341.309	79.5053	341.309	81.5059	341.309	78.962	341.309	80.8341	341.309	78.4599	341.309	80.1055	341.309	78.0609	341.309	79.3885	341.309	77.8411	341.309	78.7791	341.309	77.854	341.309	78.3828	341.309	78.0889	341.309	78.2684	341.309	78.4668	341.309	78.4186	341.309	78.878	341.309	78.7325	341.309	79.2238	341.309	79.0798	341.309	79.4363	341.309	79.3517	341.309	79.4803
353.027	83.2269	353.027	82.8697	353.027	83.4567	353.027	82.4022	353.027	83.545	353.027	81.8442	353.027	83.4815	353.027	81.2158	353.027	83.2593	353.027	80.5363	353.027	82.8755	353.027	79.8243	353.027	82.3324	353.027	79.1024	353.027	81.6405	353.027	78.4091	353.027	80.825	353.027	77.8125	353.027	79.9359	353.027	77.4133	353.027	79.0617	353.027	77.3119	353.027	78.3367	353.027	77.5396	353.027	77.914	353.027	78.0194	353.027	77.8839	353.027	78.6073	353.027	78.1988	353.027	79.1627	353.027	78.6999	353.027	79.5844	353.027	79.2133	353.027	79.8132	353.027	79.6117	353.027	79.822
366.211	83.5493	366.211	83.2123	366.211	83.7792	366.211	82.7828	366.211	83.8885	366.211	82.2745	366.211	83.8662	366.211	81.6978	366.211	83.7039	366.211	81.0576	366.211	83.3962	366.211	80.3533	366.211	82.9416	366.211	79.5844	366.211	82.345	366.211	78.7625	366.211	81.6216	366.211	77.9329	366.211	80.8042	366.211	77.1989	366.211	79.9524	366.211	76.721	366.211	79.159	366.211	76.6413	366.211	78.5423	366.211	76.9601	366.211	78.2058	366.211	77.5195	366.211	78.1758	366.211	78.1192	366.211	78.3748	366.211	78.6113	366.211	78.6642	366.211	78.9171	366.211	78.9087	366.211	79.0111
379.395	82.7906	379.395	82.4693	379.395	83.0171	379.395	82.0731	379.395	83.1315	379.395	81.6218	379.395	83.1213	379.395	81.1294	379.395	82.9778	379.395	80.6004	379.395	82.6959	379.395	80.0278	379.395	82.2729	379.395	79.3995	379.395	81.7088	379.395	78.7109	379.395	81.0094	379.395	77.9868	379.395	80.1945	379.395	77.3088	379.395	79.316	379.395	76.8279	379.395	78.485	379.395	76.7113	379.395	77.8807	379.395	77.0118	379.395	77.6777	379.395	77.6021	379.395	77.8967	379.395	78.2719	379.395	78.3676	379.395	78.8467	379.395	78.8637	379.395	79.2221	379.395	79.2198	379.395	79.3494
392.578	82.839	392.578	82.5276	392.578	83.0327	392.578	82.117	392.578	83.0953	392.578	81.6283	392.578	83.0187	392.578	81.0827	392.578	82.8001	392.578	80.4964	392.578	82.4424	392.578	79.8781	392.578	81.9552	392.578	79.2301	392.578	81.3559	392.578	78.5577	392.578	80.6715	392.578	77.8859	392.578	79.9395	392.578	77.2802	392.578	79.2091	392.578	76.8515	392.578	78.5441	392.578	76.7164	392.578	78.0242	392.578	76.9103	392.578	77.7318	392.578	77.3411	392.578	77.7084	392.578	77.8467	392.578	77.9091	392.578	78.28	392.578	78.213	392.578	78.5484	392.578	78.4825	392.578	78.6129
405.762	82.9272	405.762	82.6304	405.762	83.1165	405.762	82.2508	405.762	83.1782	405.762	81.8133	405.762	83.0993	405.762	81.3359	405.762	82.8732	405.762	80.823	405.762	82.4993	405.762	80.2634	405.762	81.9818	405.762	79.6375	405.762	81.3298	405.762	78.9336	405.762	80.5594	405.762	78.1737	405.762	79.7007	405.762	77.4488	405.762	78.8153	405.762	76.9368	405.762	78.0241	405.762	76.8378	405.762	77.5141	405.762	77.2051	405.762	77.4524	405.762	77.8743	405.762	77.8288	405.762	78.6014	405.762	78.4399	405.762	79.2011	405.762	79.046	405.762	79.5714	405.762	79.4828	405.762	79.6676
420.41	83.4574	420.41	83.1544	420.41	83.6258	420.41	82.7381	420.41	83.6454	420.41	82.2346	420.41	83.5093	420.41	81.6707	420.41	83.2177	420.41	81.0675	420.41	82.7779	420.41	80.4346	420.41	82.2039	420.41	79.7692	420.41	81.5159	420.41	79.0644	420.41	80.7369	420.41	78.3288	420.41	79.8884	420.41	77.6134	420.41	78.991	420.41	77.0332	420.41	78.0813	420.41	76.7425	420.41	77.2537	420.41	76.8316	420.41	76.6915	420.41	77.2277	420.41	76.5852	420.41	77.7381	420.41	76.9335	420.41	78.1708	420.41	77.5054	420.41	78.397	420.41	78.0343	420.41	78.3533
435.059	83.5535	435.059	83.2282	435.059	83.7445	435.059	82.7934	435.059	83.7824	435.059	82.2767	435.059	83.6549	435.059	81.7017	435.059	83.3556	435.059	81.079	435.059	82.8823	435.059	80.4017	435.059	82.2376	435.059	79.6502	435.059	81.4303	435.059	78.8108	435.059	80.4789	435.059	77.9109	435.059	79.4175	435.059	77.0698	435.059	78.309	435.059	76.5262	435.059	77.2713	435.059	76.5241	435.059	76.5082	435.059	77.0618	435.059	76.2669	435.059	77.8679	435.059	76.6367	435.059	78.6442	435.059	77.413	435.059	79.2046	435.059	78.2702	435.059	79.4607	435.059	78.9673	435.059	79.3802
451.172	82.9754	451.172	82.681	451.172	83.1507	451.172	82.2989	451.172	83.1837	451.172	81.8619	451.172	83.0606	451.172	81.3936	451.172	82.7774	451.172	80.8977	451.172	82.3384	451.172	80.354	451.172	81.7562	451.172	79.7275	451.172	81.0509	451.172	78.9881	451.172	80.2482	451.172	78.1414	451.172	79.3753	451.172	77.2711	451.172	78.461	451.172	76.5779	451.172	77.5517	451.172	76.3244	451.172	76.7543	451.172	76.6125	451.172	76.269	451.172	77.2514	451.172	76.2932	451.172	77.9387	451.172	76.8008	451.172	78.4539	451.172	77.5244	451.172	78.6846	451.172	78.1783	451.172	78.5894
465.82	83.3088	465.82	82.997	465.82	83.4814	465.82	82.5809	465.82	83.4913	465.82	82.1014	465.82	83.3269	465.82	81.5943	465.82	82.9878	465.82	81.0752	465.82	82.4843	465.82	80.5306	465.82	81.8384	465.82	79.9236	465.82	81.084	465.82	79.2137	465.82	80.262	465.82	78.3852	465.82	79.4062	465.82	77.4867	465.82	78.5256	465.82	76.6721	465.82	77.6038	465.82	76.1897	465.82	76.6454	465.82	76.2128	465.82	75.7715	465.82	76.6416	465.82	75.2787	465.82	77.1864	465.82	75.4311	465.82	77.5883	465.82	76.0981	465.82	77.6974	465.82	76.876	465.82	77.4538
483.398	83.4237	483.398	83.0917	483.398	83.5804	483.398	82.6174	483.398	83.5408	483.398	82.0456	483.398	83.2951	483.398	81.4245	483.398	82.842	483.398	80.7907	483.398	82.1906	483.398	80.1541	483.398	81.3656	483.398	79.496	483.398	80.4167	483.398	78.7892	483.398	79.426	483.398	78.0354	483.398	78.4944	483.398	77.3102	483.398	77.6934	483.398	76.7875	483.398	77.0229	483.398	76.6682	483.398	76.4489	483.398	76.9946	483.398	76.0154	483.398	77.5779	483.398	75.8978	483.398	78.1539	483.398	76.2475	483.398	78.5272	483.398	76.9573	483.398	78.5936	483.398	77.7309	483.398	78.3179
499.512	83.2945	499.512	82.9566	499.512	83.4869	499.512	82.5125	499.512	83.5039	499.512	82.0046	499.512	83.326	499.512	81.4643	499.512	82.9416	499.512	80.896	499.512	82.3459	499.512	80.2719	499.512	81.5425	499.512	79.5429	499.512	80.5514	499.512	78.6664	499.512	79.4227	499.512	77.6483	499.512	78.2511	499.512	76.6092	499.512	77.1717	499.512	75.849	499.512	76.3162	499.512	75.7265	499.512	75.766	499.512	76.2722	499.512	75.5683	499.512	77.122	499.512	75.7654	499.512	77.9004	499.512	76.3283	499.512	78.4037	499.512	77.0916	499.512	78.5559	499.512	77.8262	499.512	78.3492
517.09	83.2164	517.09	82.7502	517.09	83.4888	517.09	82.1411	517.09	83.5436	517.09	81.4698	517.09	83.3763	517.09	80.8338	517.09	82.9975	517.09	80.3051	517.09	82.4324	517.09	79.8816	517.09	81.7239	517.09	79.4824	517.09	80.9335	517.09	78.9952	517.09	80.1281	517.09	78.3335	517.09	79.3431	517.09	77.4852	517.09	78.5411	517.09	76.5717	517.09	77.6158	517.09	75.9008	517.09	76.4764	517.09	75.8261	517.09	75.2254	517.09	76.3521	517.09	74.3945	517.09	77.0979	517.09	74.6459	517.09	77.6823	517.09	75.7337	517.09	77.8911	517.09	76.8716	517.09	77.6275
536.133	82.967	536.133	82.4484	536.133	83.2562	536.133	81.7361	536.133	83.3014	536.133	80.8955	536.133	83.1014	536.133	80.0239	536.133	82.6655	536.133	79.2248	536.133	82.0149	536.133	78.5545	536.133	81.1927	536.133	77.98	536.133	80.2773	536.133	77.4031	536.133	79.3848	536.133	76.7373	536.133	78.6267	536.133	75.9931	536.133	78.0236	536.133	75.3571	536.133	77.4757	536.133	75.1765	536.133	76.8684	536.133	75.6549	536.133	76.2406	536.133	76.5637	536.133	75.8809	536.133	77.4907	536.133	76.1164	536.133	78.1528	536.133	76.8588	536.133	78.4199	536.133	77.6834	536.133	78.2528
555.176	82.9987	555.176	82.5971	555.176	83.1715	555.176	81.9871	555.176	83.107	555.176	81.2054	555.176	82.8046	555.176	80.3095	555.176	82.271	555.176	79.3735	555.176	81.5222	555.176	78.4667	555.176	80.5923	555.176	77.6179	555.176	79.5468	555.176	76.7975	555.176	78.4937	555.176	75.9486	555.176	77.5578	555.176	75.0735	555.176	76.8066	555.176	74.3491	555.176	76.2014	555.176	74.1491	555.176	75.6759	555.176	74.7035	555.176	75.2849	555.176	75.7367	555.176	75.2406	555.176	76.7761	555.176	75.6891	555.176	77.5205	555.176	76.4655	555.176	77.8487	555.176	77.2343	555.176	77.7386
574.219	83.4851	574.219	83.0627	574.219	83.6282	574.219	82.3773	574.219	83.4879	574.219	81.4671	574.219	83.0677	574.219	80.4064	574.219	82.3795	574.219	79.3133	574.219	81.4521	574.219	78.3241	574.219	80.3525	574.219	77.5179	574.219	79.2184	574.219	76.8507	574.219	78.2533	574.219	76.1937	574.219	77.5953	574.219	75.4549	574.219	77.137	574.219	74.7112	574.219	76.5789	574.219	74.2968	574.219	75.6762	574.219	74.5976	574.219	74.4906	574.219	75.531	574.219	73.6938	574.219	76.6045	574.219	74.1648	574.219	77.4141	574.219	75.5168	574.219	77.7624	574.219	76.7907	574.219	77.5645
594.727	83.338	594.727	82.9048	594.727	83.5234	594.727	82.2616	594.727	83.4429	594.727	81.4718	594.727	83.0902	594.727	80.6228	594.727	82.467	594.727	79.8035	594.727	81.5823	594.727	79.0587	594.727	80.4631	594.727	78.3498	594.727	79.1819	594.727	77.5637	594.727	77.8905	594.727	76.5627	594.727	76.7947	594.727	75.2567	594.727	75.991	594.727	73.752	594.727	75.3364	594.727	72.6767	594.727	74.6219	594.727	72.9912	594.727	73.9057	594.727	74.4415	594.727	73.6841	594.727	75.9662	594.727	74.378	594.727	77.0316	594.727	75.6038	594.727	77.509	594.727	76.7203	594.727	77.3932
615.234	83.1704	615.234	82.5819	615.234	83.4541	615.234	81.6987	615.234	83.4391	615.234	80.5699	615.234	83.134	615.234	79.3199	615.234	82.5433	615.234	78.1679	615.234	81.6659	615.234	77.3396	615.234	80.5093	615.234	76.8615	615.234	79.1315	615.234	76.5075	615.234	77.716	615.234	75.994	615.234	76.5825	615.234	75.161	615.234	75.9194	615.234	74.1097	615.234	75.4955	615.234	73.433	615.234	74.9552	615.234	73.948	615.234	74.33	615.234	75.4272	615.234	74.2451	615.234	76.9601	615.234	75.1865	615.234	78.0529	615.234	76.6115	615.234	78.5685	615.234	77.8087	615.234	78.4842
637.207	83.3578	637.207	82.5923	637.207	83.8618	637.207	81.563	637.207	84.1119	637.207	80.2876	637.207	84.1137	637.207	78.8308	637.207	83.8666	637.207	77.3395	637.207	83.363	637.207	76.0355	637.207	82.5947	637.207	75.0705	637.207	81.5698	637.207	74.3325	637.207	80.3455	637.207	73.4828	637.207	79.057	637.207	72.1554	637.207	77.8678	637.207	70.1499	637.207	76.7984	637.207	68.2281	637.207	75.6457	637.207	69.124	637.207	74.2292	637.207	72.0572	637.207	72.9122	637.207	74.527	637.207	72.8499	637.207	76.0653	637.207	74.1922	637.207	76.7268	637.207	75.6756	637.207	76.5793
659.18	81.6855	659.18	80.4223	659.18	82.6658	659.18	78.8754	659.18	83.3652	659.18	77.0499	659.18	83.7861	659.18	74.979	659.18	83.9305	659.18	72.7995	659.18	83.8002	659.18	70.9037	659.18	83.4022	659.18	69.8967	659.18	82.7627	659.18	69.8572	659.18	81.9452	659.18	70.0669	659.18	81.0504	659.18	69.7692	659.18	80.1567	659.18	68.3476	659.18	79.231	659.18	64.8735	659.18	78.1623	659.18	59.4283	659.18	77.0096	659.18	65.6905	659.18	76.2839	659.18	71.3681	659.18	76.5137	659.18	74.7256	659.18	77.2796	659.18	76.7001	659.18	77.8005	659.18	77.666
682.617	80.7949	682.617	80.1202	682.617	81.3877	682.617	79.3685	682.617	81.8699	682.617	78.5218	682.617	82.2011	682.617	77.5558	682.617	82.3408	682.617	76.4715	682.617	82.2588	682.617	75.3424	682.617	81.9458	682.617	74.3575	682.617	81.4339	682.617	73.7624	682.617	80.8195	682.617	73.6003	682.617	80.2383	682.617	73.5502	682.617	79.732	682.617	73.1164	682.617	79.1234	682.617	71.7803	682.617	78.127	682.617	68.9455	682.617	76.6929	682.617	65.4673	682.617	75.5786	682.617	68.8547	682.617	75.9817	682.617	73.5072	682.617	77.2204	682.617	76.34	682.617	77.9733	682.617	77.7412
707.52	82.1289	707.52	82.069	707.52	82.0088	707.52	81.7852	707.52	81.7529	707.52	81.2392	707.52	81.3961	707.52	80.4035	707.52	80.949	707.52	79.2803	707.52	80.387	707.52	77.9534	707.52	79.6539	707.52	76.6756	707.52	78.6942	707.52	75.8454	707.52	77.535	707.52	75.6121	707.52	76.4128	707.52	75.5826	707.52	75.7169	707.52	75.1808	707.52	75.4396	707.52	73.9172	707.52	74.9694	707.52	71.303	707.52	73.7231	707.52	67.4066	707.52	71.8942	707.52	68.0474	707.52	71.6248	707.52	72.2393	707.52	73.612	707.52	74.8192	707.52	75.3153	707.52	75.7721
732.422	83.1309	732.422	82.9745	732.422	83.0748	732.422	82.6021	732.422	82.8196	732.422	82.0125	732.422	82.3914	732.422	81.2004	732.422	81.8258	732.422	80.1619	732.422	81.157	732.422	78.9261	732.422	80.4027	732.422	77.6262	732.422	79.5548	732.422	76.5534	732.422	78.5964	732.422	75.9842	732.422	77.5599	732.422	75.7979	732.422	76.5835	732.422	75.5142	732.422	75.815	732.422	74.6585	732.422	75.1323	732.422	72.895	732.422	74.1235	732.422	70.2504	732.422	72.5045	732.422	68.6347	732.422	70.871	732.422	70.2519	732.422	70.9226	732.422	72.1552	732.422	72.1752	732.422	72.8037
757.324	83.9993	757.324	83.6385	757.324	84.0762	757.324	82.9932	757.324	83.8837	757.324	82.0751	757.324	83.4492	757.324	80.9091	757.324	82.8061	757.324	79.5464	757.324	81.9843	757.324	78.1131	757.324	81.0023	757.324	76.8878	757.324	79.8733	757.324	76.2427	757.324	78.6432	757.324	76.2487	757.324	77.4627	757.324	76.4872	757.324	76.5939	757.324	76.4383	757.324	76.1448	757.324	75.7307	757.324	75.804	757.324	74.1334	757.324	75.1497	757.324	71.8403	757.324	74.205	757.324	70.8697	757.324	73.7994	757.324	72.7443	757.324	74.538	757.324	74.7667	757.324	75.4909	757.324	75.6896
785.156	83.4009	785.156	83.0947	785.156	83.4948	785.156	82.5672	785.156	83.3959	785.156	81.8148	785.156	83.1315	785.156	80.8298	785.156	82.7269	785.156	79.5954	785.156	82.1898	785.156	78.1073	785.156	81.4987	785.156	76.4708	785.156	80.6063	785.156	75.0949	785.156	79.474	785.156	74.5979	785.156	78.1494	785.156	74.924	785.156	76.8462	785.156	75.2642	785.156	75.8098	785.156	74.9457	785.156	74.8914	785.156	73.606	785.156	73.583	785.156	71.3152	785.156	71.8597	785.156	70.1525	785.156	71.4523	785.156	72.2296	785.156	73.2374	785.156	74.4516	785.156	74.9109	785.156	75.3745
811.523	82.6141	811.523	82.485	811.523	82.5145	811.523	82.1096	811.523	82.2319	811.523	81.4952	811.523	81.8334	811.523	80.6615	811.523	81.3879	811.523	79.621	811.523	80.935	811.523	78.3715	811.523	80.4539	811.523	76.9458	811.523	79.8559	811.523	75.5736	811.523	79.0235	811.523	74.8006	811.523	77.9138	811.523	74.9346	811.523	76.7354	811.523	75.4064	811.523	75.9528	811.523	75.4416	811.523	75.6125	811.523	74.574	811.523	74.9965	811.523	72.6252	811.523	73.4182	811.523	70.3271	811.523	71.0872	811.523	70.3507	811.523	70.4325	811.523	72.0285	811.523	71.9272	811.523	72.7374
840.82	83.9351	840.82	83.8007	840.82	83.8232	840.82	83.3976	840.82	83.5135	840.82	82.7263	840.82	83.0784	840.82	81.807	840.82	82.5984	840.82	80.6754	840.82	82.1302	840.82	79.3762	840.82	81.6689	840.82	77.9748	840.82	81.1313	840.82	76.633	840.82	80.3848	840.82	75.709	840.82	79.3367	840.82	75.5198	840.82	78.0924	840.82	75.7865	840.82	77.0415	840.82	75.8296	840.82	76.398	840.82	75.1248	840.82	75.6882	840.82	73.517	840.82	74.4593	840.82	71.95	840.82	73.4235	840.82	72.6759	840.82	74.0091	840.82	74.5612	840.82	75.2234	840.82	75.5435
870.117	82.2059	870.117	82.3019	870.117	81.9604	870.117	82.1955	870.117	81.6359	870.117	81.8496	870.117	81.3151	870.117	81.2399	870.117	81.0712	870.117	80.3535	870.117	80.9292	870.117	79.1847	870.117	80.8316	870.117	77.736	870.117	80.6387	870.117	76.0836	870.117	80.1764	870.117	74.6099	870.117	79.3365	870.117	74.092	870.117	78.2362	870.117	74.6194	870.117	77.2862	870.117	75.1777	870.117	76.6459	870.117	74.8945	870.117	75.6778	870.117	73.2774	870.117	73.6364	870.117	70.2786	870.117	71.0564	870.117	68.9274	870.117	71.2297	870.117	71.4562	870.117	72.9227	870.117	73.162
900.879	80.5945	900.879	81.5896	900.879	79.3331	900.879	82.1545	900.879	78.1825	900.879	82.2677	900.879	77.5897	900.879	81.9839	900.879	77.6403	900.879	81.402	900.879	78.0051	900.879	80.6383	900.879	78.3263	900.879	79.777	900.879	78.3765	900.879	78.8344	900.879	78.0386	900.879	77.8228	900.879	77.3445	900.879	76.9079	900.879	76.6104	900.879	76.3998	900.879	76.3111	900.879	76.3022	900.879	76.3077	900.879	76.0736	900.879	75.7926	900.879	75.0545	900.879	74.1752	900.879	72.7768	900.879	71.9075	900.879	69.7175	900.879	71.2591	900.879	69.5265	900.879	71.9132	900.879	71.4044
933.105	83.7239	933.105	85.0245	933.105	81.6312	933.105	85.6597	933.105	78.5219	933.105	85.7094	933.105	73.848	933.105	85.2183	933.105	65.3805	933.105	84.2133	933.105	57.4819	933.105	82.749	933.105	68.3746	933.105	80.9912	933.105	71.7181	933.105	79.2933	933.105	72.7061	933.105	78.0812	933.105	72.2119	933.105	77.5182	933.105	70.9444	933.105	77.4815	933.105	70.1583	933.105	77.7713	933.105	70.0587	933.105	78.082	933.105	69.1529	933.105	78.0109	933.105	66.4179	933.105	77.1939	933.105	63.3945	933.105	75.3809	933.105	64.9438	933.105	72.562	933.105	67.1925	933.105	69.4484
965.332	84.2593	965.332	84.8919	965.332	83.0816	965.332	85.0037	965.332	81.3878	965.332	84.6509	965.332	79.2636	965.332	83.8957	965.332	76.7949	965.332	82.7827	965.332	73.9354	965.332	81.343	965.332	70.413	965.332	79.65	965.332	65.7885	965.332	77.9187	965.332	59.5726	965.332	76.5145	965.332	51.9217	965.332	75.6601	965.332	53.5886	965.332	75.1857	965.332	59.5612	965.332	74.8444	965.332	63.2384	965.332	74.6168	965.332	65.0959	965.332	74.536	965.332	65.3269	965.332	74.3652	965.332	63.5292	965.332	73.6332	965.332	58.9442	965.332	71.8227	965.332	61.9769	965.332	68.2891
1000.49	83.0869	1000.49	83.5448	1000.49	82.0521	1000.49	83.434	1000.49	80.5324	1000.49	82.8311	1000.49	78.7171	1000.49	81.8442	1000.49	76.7801	1000.49	80.565	1000.49	74.7413	1000.49	79.0313	1000.49	72.6028	1000.49	77.2576	1000.49	70.6581	1000.49	75.371	1000.49	69.2117	1000.49	73.7646	1000.49	67.8083	1000.49	72.8666	1000.49	65.4828	1000.49	72.5104	1000.49	60.9924	1000.49	72.1731	1000.49	51.809	1000.49	71.7503	1000.49	55.8255	1000.49	71.6831	1000.49	59.7908	1000.49	72.1402	1000.49	59.2757	1000.49	72.442	1000.49	59.5492	1000.49	71.8044	1000.49	65.4458	1000.49	69.6672
1035.64	83.1234	1035.64	83.3752	1035.64	82.312	1035.64	83.0864	1035.64	81.0461	1035.64	82.3593	1035.64	79.5321	1035.64	81.2974	1035.64	77.9392	1035.64	79.9007	1035.64	76.267	1035.64	78.0295	1035.64	74.5019	1035.64	75.5191	1035.64	72.9278	1035.64	72.6287	1035.64	71.9489	1035.64	71.1241	1035.64	71.3155	1035.64	72.043	1035.64	70.1545	1035.64	73.1592	1035.64	67.379	1035.64	73.289	1035.64	60.8365	1035.64	72.3835	1035.64	57.7731	1035.64	71.1662	1035.64	64.7173	1035.64	71.0102	1035.64	66.1545	1035.64	71.5606	1035.64	64.5667	1035.64	71.1976	1035.64	65.171	1035.64	69.0114
1072.27	83.7221	1072.27	83.7657	1072.27	83.0793	1072.27	83.1196	1072.27	82.092	1072.27	81.8712	1072.27	81.0616	1072.27	80.3067	1072.27	80.0578	1072.27	78.8004	1072.27	78.8667	1072.27	77.4247	1072.27	77.3049	1072.27	75.7964	1072.27	75.4858	1072.27	73.4052	1072.27	73.8525	1072.27	69.8839	1072.27	72.8092	1072.27	66.2472	1072.27	72.1814	1072.27	66.7836	1072.27	71.2813	1072.27	68.8574	1072.27	69.3414	1072.27	69.7745	1072.27	66.622	1072.27	70.124	1072.27	66.5392	1072.27	70.8596	1072.27	67.5896	1072.27	71.5309	1072.27	66.3085	1072.27	70.9419	1072.27	64.8744	1072.27	68.2957
1108.89	83.8865	1108.89	83.6192	1108.89	83.5897	1108.89	82.6499	1108.89	82.9782	1108.89	80.9455	1108.89	82.3153	1108.89	78.6134	1108.89	81.663	1108.89	76.0685	1108.89	80.8599	1108.89	74.1145	1108.89	79.7715	1108.89	73.1305	1108.89	78.4582	1108.89	72.4148	1108.89	77.0901	1108.89	71.1387	1108.89	75.7347	1108.89	69.0737	1108.89	74.4434	1108.89	67.3386	1108.89	73.4498	1108.89	67.2048	1108.89	72.6002	1108.89	66.5524	1108.89	71.3813	1108.89	64.0058	1108.89	70.2192	1108.89	65.9606	1108.89	69.7456	1108.89	70.4723	1108.89	69.512	1108.89	72.4174	1108.89	70.4085	1108.89	72.0728
1148.44	83.895	1148.44	83.9164	1148.44	83.3568	1148.44	83.3429	1148.44	82.5446	1148.44	82.1931	1148.44	81.7764	1148.44	80.517	1148.44	81.1238	1148.44	78.4086	1148.44	80.3674	1148.44	76.2192	1148.44	79.4043	1148.44	74.8295	1148.44	78.4161	1148.44	74.6344	1148.44	77.4701	1148.44	74.6127	1148.44	76.2157	1148.44	73.9155	1148.44	74.4459	1148.44	72.6105	1148.44	72.8619	1148.44	71.5381	1148.44	72.2032	1148.44	70.9271	1148.44	71.9179	1148.44	69.7489	1148.44	71.7516	1148.44	68.5123	1148.44	71.2265	1148.44	69.8556	1148.44	69.832	1148.44	71.4848	1148.44	69.6515	1148.44	71.2131
1189.45	84.6979	1189.45	84.7804	1189.45	84.1346	1189.45	84.3024	1189.45	83.3354	1189.45	83.296	1189.45	82.5917	1189.45	81.8068	1189.45	81.946	1189.45	79.8094	1189.45	81.1889	1189.45	77.2389	1189.45	80.2039	1189.45	74.3886	1189.45	79.0714	1189.45	72.6778	1189.45	77.7952	1189.45	72.7773	1189.45	76.2181	1189.45	73.0898	1189.45	74.5786	1189.45	73.0482	1189.45	73.5004	1189.45	73.0603	1189.45	72.4678	1189.45	72.8588	1189.45	71.2598	1189.45	71.3925	1189.45	71.4162	1189.45	68.8083	1189.45	71.7145	1189.45	70.1104	1189.45	71.1875	1189.45	72.9038	1189.45	72.056	1189.45	73.4291
1230.47	84.8876	1230.47	84.8754	1230.47	84.3775	1230.47	84.2991	1230.47	83.5889	1230.47	83.2558	1230.47	82.8899	1230.47	81.8977	1230.47	82.3991	1230.47	80.3018	1230.47	81.8794	1230.47	78.3671	1230.47	81.1827	1230.47	75.918	1230.47	80.362	1230.47	73.1103	1230.47	79.2426	1230.47	70.9703	1230.47	77.287	1230.47	70.4746	1230.47	74.3076	1230.47	71.384	1230.47	72.071	1230.47	73.0793	1230.47	71.6715	1230.47	74.2797	1230.47	71.3922	1230.47	73.9228	1230.47	71.8368	1230.47	71.8794	1230.47	71.5673	1230.47	71.1662	1230.47	69.8723	1230.47	73.1551	1230.47	71.3223	1230.47	73.5116
1274.41	84.9674	1274.41	84.9191	1274.41	84.468	1274.41	84.3068	1274.41	83.6675	1274.41	83.2267	1274.41	82.9969	1274.41	81.7966	1274.41	82.584	1274.41	80.0894	1274.41	82.0978	1274.41	78.1397	1274.41	81.3771	1274.41	76.1359	1274.41	80.6443	1274.41	74.6032	1274.41	79.8942	1274.41	73.6308	1274.41	78.5424	1274.41	72.1965	1274.41	76.1865	1274.41	69.6031	1274.41	73.875	1274.41	69.0209	1274.41	72.7655	1274.41	71.7216	1274.41	71.3829	1274.41	72.8294	1274.41	70.6521	1274.41	71.7495	1274.41	70.1807	1274.41	71.0784	1274.41	67.5192	1274.41	72.6016	1274.41	69.2767	1274.41	72.5292
1319.82	84.8039	1319.82	84.8096	1319.82	84.2192	1319.82	84.3325	1319.82	83.3512	1319.82	83.5928	1319.82	82.7985	1319.82	82.751	1319.82	82.5456	1319.82	81.7807	1319.82	82.0253	1319.82	80.3458	1319.82	81.2212	1319.82	77.8575	1319.82	80.6019	1319.82	73.9822	1319.82	79.9696	1319.82	71.5609	1319.82	78.4339	1319.82	73.0907	1319.82	75.9574	1319.82	73.6955	1319.82	74.89	1319.82	72.9085	1319.82	74.5727	1319.82	73.0668	1319.82	72.7413	1319.82	73.9108	1319.82	72.9511	1319.82	72.733	1319.82	73.6098	1319.82	70.148	1319.82	71.0293	1319.82	71.8728	1319.82	70.3292	1319.82	72.7972
1366.7	84.1867	1366.7	84.6008	1366.7	83.4891	1366.7	84.6713	1366.7	82.825	1366.7	84.3177	1366.7	82.6404	1366.7	83.5223	1366.7	82.6263	1366.7	82.5398	1366.7	82.1152	1366.7	81.5732	1366.7	81.166	1366.7	80.1661	1366.7	80.5727	1366.7	77.5418	1366.7	80.2869	1366.7	73.3688	1366.7	78.9187	1366.7	69.7723	1366.7	75.2817	1366.7	69.4435	1366.7	71.9892	1366.7	69.9399	1366.7	72.898	1366.7	72.5773	1366.7	71.9297	1366.7	74.8245	1366.7	72.4062	1366.7	74.2649	1366.7	73.2179	1366.7	70.877	1366.7	70.6199	1366.7	71.1338	1366.7	70.6718	1366.7	72.7683
1413.57	84.0304	1413.57	84.8439	1413.57	83.064	1413.57	85.2778	1413.57	82.1591	1413.57	85.0737	1413.57	81.5864	1413.57	84.0915	1413.57	81.291	1413.57	82.5606	1413.57	80.7557	1413.57	81.1613	1413.57	79.8259	1413.57	80.0773	1413.57	79.3016	1413.57	78.5714	1413.57	79.6049	1413.57	76.3755	1413.57	79.3907	1413.57	74.3921	1413.57	77.2927	1413.57	72.8985	1413.57	72.96	1413.57	69.9368	1413.57	69.495	1413.57	67.7656	1413.57	67.8297	1413.57	72.1393	1413.57	68.1157	1413.57	73.651	1413.57	70.0606	1413.57	71.5472	1413.57	69.2903	1413.57	69.3084	1413.57	69.4687	1413.57	70.3272
1463.38	83.5846	1463.38	84.5719	1463.38	82.4461	1463.38	85.1578	1463.38	81.3139	1463.38	85.0851	1463.38	80.46	1463.38	84.1847	1463.38	80.078	1463.38	82.4851	1463.38	79.6218	1463.38	80.3779	1463.38	78.5488	1463.38	78.2347	1463.38	77.4099	1463.38	75.7668	1463.38	77.4161	1463.38	73.7812	1463.38	77.7075	1463.38	74.649	1463.38	76.8444	1463.38	75.8307	1463.38	75.0048	1463.38	75.0094	1463.38	72.7107	1463.38	72.2328	1463.38	67.9899	1463.38	71.7579	1463.38	64.6145	1463.38	72.9026	1463.38	67.9219	1463.38	71.1967	1463.38	66.5365	1463.38	67.9527	1463.38	66.3201	1463.38	67.8161
1516.11	82.8792	1516.11	84.6449	1516.11	80.2368	1516.11	85.3626	1516.11	77.3875	1516.11	85.0816	1516.11	75.1486	1516.11	83.8202	1516.11	73.8382	1516.11	81.5364	1516.11	73.1632	1516.11	78.5476	1516.11	72.305	1516.11	75.9888	1516.11	71.9876	1516.11	73.7587	1516.11	73.5231	1516.11	69.8089	1516.11	74.6113	1516.11	66.6742	1516.11	73.4666	1516.11	70.7007	1516.11	70.3907	1516.11	72.4915	1516.11	68.3923	1516.11	71.6171	1516.11	65.9079	1516.11	70.7036	1516.11	57.5833	1516.11	71.319	1516.11	60.0741	1516.11	70.37	1516.11	63.8285	1516.11	66.9348	1516.11	63.618	1516.11	63.5572
1568.85	84.251	1568.85	85.2007	1568.85	81.6484	1568.85	84.7698	1568.85	77.0964	1568.85	83.2036	1568.85	70.7821	1568.85	80.6729	1568.85	67.6586	1568.85	77.1336	1568.85	69.4289	1568.85	72.2975	1568.85	70.2962	1568.85	66.7448	1568.85	69.0018	1568.85	64.0649	1568.85	66.5739	1568.85	62.322	1568.85	67.693	1568.85	60.3158	1568.85	68.5754	1568.85	61.8618	1568.85	66.9357	1568.85	63.1132	1568.85	65.4228	1568.85	62.8532	1568.85	64.5333	1568.85	62.4708	1568.85	61.2838	1568.85	63.3282	1568.85	50.2892	1568.85	65.3484	1568.85	58.8691	1568.85	67.2408	1568.85	65.7776	1568.85	67.7603
1624.51	84.1636	1624.51	84.3655	1624.51	82.3441	1624.51	83.1887	1624.51	78.468	1624.51	80.812	1624.51	72.1289	1624.51	77.4362	1624.51	69.01	1624.51	73.134	1624.51	71.5447	1624.51	67.3051	1624.51	73.0093	1624.51	57.2737	1624.51	73.1297	1624.51	45.1033	1624.51	71.8364	1624.51	52.2221	1624.51	70.9208	1624.51	49.8822	1624.51	71.2866	1624.51	54.7746	1624.51	70.0358	1624.51	56.4587	1624.51	67.813	1624.51	48.1149	1624.51	67.6487	1624.51	56.7756	1624.51	66.3112	1624.51	62.6763	1624.51	61.4323	1624.51	64.4186	1624.51	52.627	1624.51	66.2504	1624.51	64.5668	1624.51	67.3028
1681.64	83.853	1681.64	83.8969	1681.64	82.2387	1681.64	82.6374	1681.64	78.0467	1681.64	79.9485	1681.64	67.0053	1681.64	75.399	1681.64	68.0299	1681.64	67.9135	1681.64	72.7558	1681.64	51.801	1681.64	72.4721	1681.64	54.8431	1681.64	71.4826	1681.64	61.3205	1681.64	71.3033	1681.64	64.5802	1681.64	71.2294	1681.64	64.6396	1681.64	70.6897	1681.64	61.2155	1681.64	68.94	1681.64	51.9056	1681.64	66.1974	1681.64	47.4121	1681.64	65.1795	1681.64	56.4977	1681.64	64.7823	1681.64	61.1215	1681.64	59.4287	1681.64	63.191	1681.64	57.4698	1681.64	64.6263	1681.64	65.8519	1681.64	66.6889
1741.7	83.1491	1741.7	82.9779	1741.7	81.4031	1741.7	81.321	1741.7	76.5388	1741.7	78.3601	1741.7	59.6436	1741.7	74.1627	1741.7	71.2829	1741.7	68.9173	1741.7	75.3834	1741.7	64.7122	1741.7	75.1807	1741.7	63.4546	1741.7	72.6383	1741.7	61.4335	1741.7	70.2961	1741.7	62.5537	1741.7	70.5	1741.7	66.0661	1741.7	70.2445	1741.7	67.1482	1741.7	69.2609	1741.7	65.5011	1741.7	68.3034	1741.7	62.8785	1741.7	66.6316	1741.7	60.573	1741.7	66.2453	1741.7	51.3542	1741.7	63.2039	1741.7	53.2731	1741.7	52.4186	1741.7	61.642	1741.7	65.9272	1741.7	66.5147
1803.22	82.3726	1803.22	82.6297	1803.22	80.0995	1803.22	81.2202	1803.22	74.3736	1803.22	78.1739	1803.22	54.1273	1803.22	73.3264	1803.22	73.6006	1803.22	66.6747	1803.22	77.316	1803.22	61.0957	1803.22	77.648	1803.22	63.3427	1803.22	75.7938	1803.22	65.67	1803.22	72.2477	1803.22	64.6221	1803.22	70.1192	1803.22	62.1034	1803.22	70.6609	1803.22	64.0393	1803.22	69.8103	1803.22	65.4934	1803.22	67.5084	1803.22	65.5862	1803.22	64.0387	1803.22	63.5045	1803.22	65.0365	1803.22	55.32	1803.22	64.6514	1803.22	61.2545	1803.22	53.9919	1803.22	63.8391	1803.22	64.4857	1803.22	65.7202
1866.21	82.6888	1866.21	82.2907	1866.21	81.2059	1866.21	80.6732	1866.21	75.5738	1866.21	77.5637	1866.21	62.5761	1866.21	72.1644	1866.21	76.306	1866.21	67.1838	1866.21	78.7252	1866.21	68.8081	1866.21	78.3475	1866.21	69.306	1866.21	76.4177	1866.21	69.2318	1866.21	72.6952	1866.21	68.8079	1866.21	68.9179	1866.21	66.8057	1866.21	70.0851	1866.21	64.5914	1866.21	70.6793	1866.21	65.519	1866.21	70.4484	1866.21	67.0519	1866.21	67.7669	1866.21	65.7164	1866.21	63.3175	1866.21	56.9013	1866.21	64.8067	1866.21	61.6016	1866.21	54.6915	1866.21	65.9744	1866.21	62.7983	1866.21	66.9814
1932.13	83.5952	1932.13	81.4935	1932.13	82.5798	1932.13	77.7882	1932.13	75.9071	1932.13	74.2623	1932.13	66.3044	1932.13	71.4897	1932.13	75.6581	1932.13	71.4875	1932.13	76.6087	1932.13	73.9457	1932.13	76.4448	1932.13	74.6086	1932.13	75.8503	1932.13	74.6529	1932.13	73.6648	1932.13	75.3548	1932.13	68.803	1932.13	75.1384	1932.13	63.3767	1932.13	73.2626	1932.13	63.3388	1932.13	70.8984	1932.13	69.4368	1932.13	70.4342	1932.13	71.5114	1932.13	68.5992	1932.13	66.4191	1932.13	59.707	1932.13	56.7104	1932.13	57.5917	1932.13	54.1116	1932.13	61.005	1932.13	63.5949	1932.13	67.2532
1999.51	82.2092	1999.51	81.2773	1999.51	81.0896	1999.51	78.9248	1999.51	76.0069	1999.51	74.6436	1999.51	63.6438	1999.51	69.4651	1999.51	73.698	1999.51	70.4063	1999.51	77.4444	1999.51	73.7778	1999.51	78.6484	1999.51	74.3782	1999.51	78.4459	1999.51	72.8814	1999.51	76.1575	1999.51	72.6788	1999.51	72.6868	1999.51	74.0994	1999.51	70.7355	1999.51	74.3626	1999.51	65.3588	1999.51	71.9606	1999.51	70.7724	1999.51	66.845	1999.51	72.3487	1999.51	67.946	1999.51	68.769	1999.51	66.8099	1999.51	65.1052	1999.51	56.1397	1999.51	58.6206	1999.51	56.5663	1999.51	61.8672	1999.51	62.1733
2069.82	80.4667	2069.82	80.8555	2069.82	79.0065	2069.82	79.4406	2069.82	75.528	2069.82	75.5787	2069.82	68.9206	2069.82	72.5831	2069.82	75.395	2069.82	73.824	2069.82	79.0338	2069.82	74.1554	2069.82	79.0614	2069.82	73.2742	2069.82	77.5834	2069.82	72.025	2069.82	74.8715	2069.82	70.3686	2069.82	71.7119	2069.82	67.0392	2069.82	72.117	2069.82	66.939	2069.82	68.006	2069.82	70.3759	2069.82	63.9799	2069.82	70.7383	2069.82	69.4315	2069.82	67.1594	2069.82	66.3157	2069.82	63.1114	2069.82	67.1267	2069.82	63.4073	2069.82	60.2038	2069.82	48.3092	2069.82	63.4569	2069.82	65.4391
2143.07	81.5653	2143.07	81.0273	2143.07	78.7397	2143.07	77.4834	2143.07	72.5336	2143.07	72.0209	2143.07	69.487	2143.07	72.4277	2143.07	72.7286	2143.07	76.0994	2143.07	76.1375	2143.07	77.9262	2143.07	77.8334	2143.07	77.7582	2143.07	77.2686	2143.07	76.3313	2143.07	75.3471	2143.07	75.4199	2143.07	73.2299	2143.07	74.6287	2143.07	70.2089	2143.07	72.9434	2143.07	64.4391	2143.07	71.6479	2143.07	66.8179	2143.07	71.0977	2143.07	69.5297	2143.07	70.2797	2143.07	64.9323	2143.07	65.7342	2143.07	57.3117	2143.07	62.5861	2143.07	53.475	2143.07	60.109	2143.07	56.6413	2143.07	50.9899
2219.24	81.4228	2219.24	81.0815	2219.24	79.3498	2219.24	78.3089	2219.24	75.085	2219.24	75.9617	2219.24	73.035	2219.24	77.2849	2219.24	76.7858	2219.24	77.7488	2219.24	78.3798	2219.24	76.7116	2219.24	77.614	2219.24	74.5684	2219.24	75.209	2219.24	71.4359	2219.24	72.0722	2219.24	70.0992	2219.24	71.816	2219.24	70.1457	2219.24	72.7273	2219.24	68.3314	2219.24	69.6158	2219.24	68.2723	2219.24	65.7469	2219.24	70.2263	2219.24	69.391	2219.24	70.1133	2219.24	65.0599	2219.24	66.6106	2219.24	57.3607	2219.24	63.2102	2219.24	46.9242	2219.24	64.9112	2219.24	59.5085	2219.24	59.258
2296.88	81.4509	2296.88	80.648	2296.88	78.8219	2296.88	77.1887	2296.88	73.5895	2296.88	75.9695	2296.88	72.9329	2296.88	77.937	2296.88	75.8361	2296.88	78.3673	2296.88	77.7848	2296.88	77.2789	2296.88	77.8947	2296.88	75.4604	2296.88	75.6644	2296.88	72.6862	2296.88	71.9693	2296.88	69.0378	2296.88	71.7504	2296.88	68.8014	2296.88	71.8959	2296.88	68.723	2296.88	66.9968	2296.88	66.2886	2296.88	64.6374	2296.88	67.5992	2296.88	68.1948	2296.88	69.7242	2296.88	64.5289	2296.88	66.3405	2296.88	58.1067	2296.88	55.7186	2296.88	49.4553	2296.88	62.9691	2296.88	50.6217	2296.88	56.6261
2378.91	81.3892	2378.91	79.8847	2378.91	79.2848	2378.91	76.7854	2378.91	73.7192	2378.91	77.1657	2378.91	73.2487	2378.91	76.9783	2378.91	77.7374	2378.91	75.3481	2378.91	79.0119	2378.91	74.257	2378.91	78.131	2378.91	74.1948	2378.91	74.4494	2378.91	73.5336	2378.91	68.5254	2378.91	72.2141	2378.91	67.2406	2378.91	71.0433	2378.91	69.2701	2378.91	68.6645	2378.91	68.2233	2378.91	67.1399	2378.91	64.6898	2378.91	68.3889	2378.91	67.4931	2378.91	68.8205	2378.91	65.6546	2378.91	68.5071	2378.91	59.7296	2378.91	62.8806	2378.91	57.4525	2378.91	62.9808	2378.91	61.2683	2378.91	63.7158
2462.4	82.6719	2462.4	80.1481	2462.4	82.5897	2462.4	79.3004	2462.4	78.2391	2462.4	79.5214	2462.4	74.0692	2462.4	78.1552	2462.4	78.0864	2462.4	75.758	2462.4	78.7231	2462.4	73.7702	2462.4	77.6807	2462.4	73.2214	2462.4	75.5767	2462.4	72.5252	2462.4	71.2201	2462.4	69.2105	2462.4	66.5693	2462.4	68.7361	2462.4	67.9097	2462.4	69.5025	2462.4	67.8083	2462.4	66.4716	2462.4	63.8377	2462.4	66.9687	2462.4	67.3997	2462.4	66.2303	2462.4	63.0767	2462.4	65.3165	2462.4	60.8109	2462.4	60.5526	2462.4	63.545	2462.4	56.4252	2462.4	65.83	2462.4	62.3898
2548.83	81.6623	2548.83	80.5649	2548.83	82.1027	2548.83	80.7068	2548.83	79.7291	2548.83	80.2095	2548.83	75.3323	2548.83	78.1763	2548.83	77.7427	2548.83	76.2494	2548.83	79.3597	2548.83	75.6415	2548.83	78.5366	2548.83	75.0505	2548.83	76.8389	2548.83	74.2451	2548.83	73.0471	2548.83	73.4919	2548.83	66.5615	2548.83	73.0322	2548.83	68.2517	2548.83	71.6671	2548.83	67.1261	2548.83	68.3057	2548.83	63.112	2548.83	68.1671	2548.83	68.2285	2548.83	67.7653	2548.83	64.9268	2548.83	66.37	2548.83	62.1742	2548.83	62.4111	2548.83	64.9945	2548.83	59.3631	2548.83	66.5423	2548.83	62.602
2639.65	81.7045	2639.65	81.3172	2639.65	81.9457	2639.65	81.3041	2639.65	80.2751	2639.65	80.6242	2639.65	76.682	2639.65	79.2367	2639.65	77.7951	2639.65	77.877	2639.65	79.9602	2639.65	76.5857	2639.65	79.5402	2639.65	75.2742	2639.65	77.1727	2639.65	74.6446	2639.65	73.249	2639.65	73.3616	2639.65	68.4512	2639.65	71.0248	2639.65	68.5474	2639.65	71.5832	2639.65	69.5771	2639.65	68.7343	2639.65	60.8169	2639.65	67.5325	2639.65	67.5717	2639.65	68.8319	2639.65	66.9514	2639.65	65.774	2639.65	62.4224	2639.65	62.5072	2639.65	64.4408	2639.65	59.5592	2639.65	66.6939	2639.65	63.424
2731.93	81.9924	2731.93	81.6009	2731.93	81.8972	2731.93	81.3868	2731.93	80.3756	2731.93	80.8109	2731.93	77.1705	2731.93	79.4403	2731.93	77.3824	2731.93	78.0187	2731.93	79.9357	2731.93	77.0312	2731.93	79.9828	2731.93	75.6976	2731.93	78.1253	2731.93	73.9567	2731.93	75.0894	2731.93	72.4837	2731.93	71.0595	2731.93	71.6068	2731.93	65.8339	2731.93	71.677	2731.93	68.4702	2731.93	69.9152	2731.93	67.2337	2731.93	67.1109	2731.93	64.9036	2731.93	68.1621	2731.93	65.7305	2731.93	67.8664	2731.93	63.9267	2731.93	63.1383	2731.93	65.8589	2731.93	62.5094	2731.93	67.5702	2731.93	63.5978
2828.61	82.3148	2828.61	81.8972	2828.61	82.089	2828.61	81.8083	2828.61	80.5049	2828.61	80.5147	2828.61	77.7234	2828.61	78.4303	2828.61	76.34	2828.61	77.9938	2828.61	79.1212	2828.61	77.9628	2828.61	79.5602	2828.61	76.4778	2828.61	77.6	2828.61	74.5799	2828.61	74.0889	2828.61	73.7374	2828.61	69.7176	2828.61	71.3836	2828.61	70.4573	2828.61	69.8504	2828.61	68.6529	2828.61	68.3699	2828.61	67.654	2828.61	66.2423	2828.61	65.7614	2828.61	66.905	2828.61	66.7533	2828.61	65.6684	2828.61	60.4524	2828.61	63.4522	2828.61	64.2151	2828.61	61.0654	2828.61	67.8209	2828.61	65.2313
2928.22	81.8085	2928.22	81.5853	2928.22	82.4813	2928.22	81.9924	2928.22	80.9951	2928.22	80.2064	2928.22	78.1485	2928.22	78.4295	2928.22	75.9495	2928.22	78.5205	2928.22	78.0028	2928.22	77.9895	2928.22	79.2284	2928.22	76.0919	2928.22	77.9645	2928.22	73.4558	2928.22	75.2442	2928.22	71.5545	2928.22	68.2121	2928.22	69.5314	2928.22	68.0898	2928.22	68.7987	2928.22	68.1808	2928.22	66.9283	2928.22	68.5319	2928.22	62.6997	2928.22	61.9539	2928.22	64.2819	2928.22	65.8027	2928.22	61.3826	2928.22	57.9028	2928.22	61.2673	2928.22	61.9361	2928.22	60.8339	2928.22	67.2439	2928.22	64.3094
3030.76	81.6203	3030.76	83.0288	3030.76	83.023	3030.76	82.6485	3030.76	82.3939	3030.76	79.6941	3030.76	79.9297	3030.76	79.1211	3030.76	78.7442	3030.76	78.3921	3030.76	78.8792	3030.76	76.1971	3030.76	80.047	3030.76	74.5882	3030.76	78.3353	3030.76	72.2807	3030.76	75.6262	3030.76	70.6441	3030.76	72.752	3030.76	69.6624	3030.76	68.9501	3030.76	66.9782	3030.76	66.081	3030.76	66.8636	3030.76	67.2708	3030.76	61.7701	3030.76	64.7794	3030.76	60.0136	3030.76	64.62	3030.76	58.8363	3030.76	55.7996	3030.76	46.1043	3030.76	60.6298	3030.76	53.9715	3030.76	65.8292	3030.76	59.2803
3137.7	82.2351	3137.7	83.8116	3137.7	82.3365	3137.7	82.1552	3137.7	82.8055	3137.7	80.2527	3137.7	79.4655	3137.7	80.2696	3137.7	78.0372	3137.7	78.2952	3137.7	79.2943	3137.7	74.8239	3137.7	79.51	3137.7	72.6346	3137.7	78.0718	3137.7	71.9698	3137.7	74.5461	3137.7	71.2415	3137.7	70.6763	3137.7	70.8511	3137.7	69.1845	3137.7	69.4796	3137.7	68.0442	3137.7	68.6555	3137.7	65.6156	3137.7	65.9826	3137.7	63.1832	3137.7	64.2947	3137.7	61.6501	3137.7	61.832	3137.7	52.1845	3137.7	56.8077	3137.7	61.9374	3137.7	52.5485	3137.7	64.3386	3137.7	56.0605
3249.02	81.9787	3249.02	82.7154	3249.02	81.1659	3249.02	80.911	3249.02	82.2451	3249.02	80.3626	3249.02	80.1433	3249.02	79.9235	3249.02	76.3907	3249.02	77.4865	3249.02	78.3089	3249.02	75.1109	3249.02	79.1454	3249.02	73.7916	3249.02	77.3459	3249.02	73.1882	3249.02	73.4566	3249.02	71.7474	3249.02	67.7239	3249.02	69.7513	3249.02	67.354	3249.02	69.353	3249.02	65.9661	3249.02	67.8228	3249.02	66.2276	3249.02	66.5519	3249.02	63.2341	3249.02	64.4924	3249.02	64.6575	3249.02	61.246	3249.02	57.0066	3249.02	56.2632	3249.02	62.8288	3249.02	55.2688	3249.02	64.2388	3249.02	58.7245
3363.28	82.1848	3363.28	82.672	3363.28	80.5943	3363.28	80.9769	3363.28	81.5845	3363.28	80.1748	3363.28	80.1856	3363.28	78.571	3363.28	76.4549	3363.28	76.7179	3363.28	77.2672	3363.28	75.6719	3363.28	78.3296	3363.28	73.5746	3363.28	76.3788	3363.28	70.7779	3363.28	71.865	3363.28	67.7864	3363.28	62.6095	3363.28	66.5866	3363.28	65.1562	3363.28	66.7721	3363.28	64.9816	3363.28	66.0088	3363.28	62.7107	3363.28	64.3345	3363.28	60.377	3363.28	65.4007	3363.28	61.826	3363.28	60.6391	3363.28	55.4111	3363.28	57.3382	3363.28	59.3746	3363.28	46.6657	3363.28	61.4999	3363.28	56.1084
3481.93	82.0759	3481.93	81.9034	3481.93	80.4352	3481.93	80.3782	3481.93	81.2673	3481.93	80.2777	3481.93	80.3061	3481.93	79.1858	3481.93	76.6936	3481.93	76.9072	3481.93	76.8729	3481.93	74.6121	3481.93	78.1454	3481.93	72.5155	3481.93	76.8341	3481.93	70.6034	3481.93	72.0681	3481.93	69.6839	3481.93	64.4552	3481.93	69.4637	3481.93	54.1421	3481.93	67.545	3481.93	63.1967	3481.93	66.1058	3481.93	64.1518	3481.93	63.1132	3481.93	58.1942	3481.93	65.1455	3481.93	60.6819	3481.93	62.3952	3481.93	49.2204	3481.93	51.9446	3481.93	59.1413	3481.93	51.9306	3481.93	61.836	3481.93	57.8726
3604.98	82.4191	3604.98	81.9733	3604.98	80.5008	3604.98	80.514	3604.98	81.4085	3604.98	80.3322	3604.98	80.6149	3604.98	78.7009	3604.98	76.6147	3604.98	76.8272	3604.98	76.8467	3604.98	75.0427	3604.98	78.1216	3604.98	72.4751	3604.98	76.9899	3604.98	69.8307	3604.98	72.7631	3604.98	67.9244	3604.98	66.4264	3604.98	67.0662	3604.98	47.6979	3604.98	65.2423	3604.98	62.9953	3604.98	64.1838	3604.98	63.4985	3604.98	59.9342	3604.98	60.6883	3604.98	62.7225	3604.98	54.2847	3604.98	62.5213	3604.98	49.7199	3604.98	54.1017	3604.98	59.6447	3604.98	45.1687	3604.98	63.2363	3604.98	57.8636
3732.42	82.9634	3732.42	81.5378	3732.42	80.8434	3732.42	81.1474	3732.42	81.3174	3732.42	80.9814	3732.42	81.0855	3732.42	78.2336	3732.42	76.4333	3732.42	76.5776	3732.42	76.2969	3732.42	74.8875	3732.42	77.5617	3732.42	71.744	3732.42	77.3929	3732.42	68.5336	3732.42	74.5777	3732.42	68.142	3732.42	70.2439	3732.42	67.8448	3732.42	59.7599	3732.42	66.1853	3732.42	58.4357	3732.42	65.3241	3732.42	64.8766	3732.42	63.2402	3732.42	63.753	3732.42	60.3022	3732.42	62.0801	3732.42	60.3389	3732.42	52.8376	3732.42	55.8343	3732.42	58.7374	3732.42	52.4422	3732.42	60.5442	3732.42	55.9495
3864.26	83.3445	3864.26	82.0762	3864.26	81.9683	3864.26	82.1796	3864.26	81.4419	3864.26	80.3798	3864.26	82.1863	3864.26	78.6871	3864.26	76.7996	3864.26	77.0827	3864.26	76.0252	3864.26	73.6008	3864.26	77.3307	3864.26	71.9232	3864.26	76.9636	3864.26	70.6592	3864.26	74.9915	3864.26	68.6014	3864.26	71.7068	3864.26	67.1504	3864.26	63.5526	3864.26	66.3604	3864.26	63.0999	3864.26	65.0699	3864.26	63.3641	3864.26	64.0387	3864.26	61.9436	3864.26	63.1463	3864.26	62.8943	3864.26	62.7354	3864.26	57.9105	3864.26	58.6446	3864.26	59.4004	3864.26	53.0654	3864.26	59.708	3864.26	56.3281
4000.49	83.5658	4000.49	82.5113	4000.49	82.858	4000.49	82.2245	4000.49	81.1299	4000.49	80.5887	4000.49	82.5505	4000.49	78.713	4000.49	78.4711	4000.49	76.3195	4000.49	74.9391	4000.49	74.4375	4000.49	77.7804	4000.49	72.8221	4000.49	76.1303	4000.49	70.4626	4000.49	73.0175	4000.49	68.5388	4000.49	69.2807	4000.49	66.3222	4000.49	60.6771	4000.49	66.0329	4000.49	63.3351	4000.49	64.8839	4000.49	63.1596	4000.49	64.5123	4000.49	60.3905	4000.49	63.6055	4000.49	62.1787	4000.49	62.4394	4000.49	56.3267	4000.49	58.0468	4000.49	57.9658	4000.49	49.2612	4000.49	61.2914	4000.49	57.4626
4141.11	83.7253	4141.11	83.0541	4141.11	83.3987	4141.11	82.4561	4141.11	81.4891	4141.11	80.1756	4141.11	82.377	4141.11	78.4053	4141.11	79.4738	4141.11	76.4704	4141.11	73.9579	4141.11	74.6485	4141.11	76.4332	4141.11	72.3998	4141.11	76.5806	4141.11	69.7426	4141.11	72.9368	4141.11	68.5789	4141.11	68.4267	4141.11	67.0031	4141.11	62.0656	4141.11	65.135	4141.11	57.9166	4141.11	63.9057	4141.11	64.2789	4141.11	61.9534	4141.11	60.6284	4141.11	63.5011	4141.11	61.1418	4141.11	61.7121	4141.11	52.3222	4141.11	58.4319	4141.11	53.5712	4141.11	48.5887	4141.11	59.8621	4141.11	53.7964
4287.6	83.6306	4287.6	82.9516	4287.6	83.6882	4287.6	82.0979	4287.6	81.492	4287.6	80.4696	4287.6	82.0369	4287.6	78.9416	4287.6	78.976	4287.6	76.0363	4287.6	74.742	4287.6	74.0383	4287.6	74.7884	4287.6	71.5327	4287.6	74.6937	4287.6	67.6302	4287.6	72.3848	4287.6	65.7837	4287.6	65.845	4287.6	64.1347	4287.6	59.2421	4287.6	62.8985	4287.6	51.914	4287.6	63.7629	4287.6	61.0254	4287.6	61.3072	4287.6	59.3526	4287.6	61.5835	4287.6	59.6281	4287.6	60.6467	4287.6	56.2532	4287.6	56.1558	4287.6	57.9535	4287.6	50.0725	4287.6	59.8882	4287.6	54.437
4438.48	83.6474	4438.48	83.3263	4438.48	83.9451	4438.48	82.3605	4438.48	81.7812	4438.48	80.4413	4438.48	81.7257	4438.48	78.4503	4438.48	78.9101	4438.48	76.4835	4438.48	73.2967	4438.48	73.8466	4438.48	74.6454	4438.48	71.1576	4438.48	72.1277	4438.48	69.3126	4438.48	69.543	4438.48	66.7045	4438.48	61.5438	4438.48	65.5654	4438.48	54.7282	4438.48	62.1355	4438.48	58.2146	4438.48	62.0389	4438.48	46.6935	4438.48	62.2447	4438.48	55.1699	4438.48	61.1461	4438.48	57.6037	4438.48	61.3129	4438.48	55.3927	4438.48	56.1952	4438.48	54.9564	4438.48	50.8192	4438.48	56.8219	4438.48	50.0642
4595.21	83.1877	4595.21	82.9936	4595.21	83.8327	4595.21	81.8577	4595.21	81.9971	4595.21	80.5691	4595.21	81.7211	4595.21	78.8722	4595.21	79.0235	4595.21	76.0449	4595.21	72.5653	4595.21	72.8368	4595.21	75.2478	4595.21	70.155	4595.21	72.8099	4595.21	67.4064	4595.21	70.4074	4595.21	64.8755	4595.21	64.5165	4595.21	64.8492	4595.21	62.1674	4595.21	62.5855	4595.21	60.2157	4595.21	61.6162	4595.21	61.066	4595.21	60.2721	4595.21	49.0128	4595.21	61.0625	4595.21	56.2586	4595.21	60.4797	4595.21	55.3902	4595.21	58.5874	4595.21	54.089	4595.21	48.8868	4595.21	57.5483	4595.21	53.4732
4756.35	83.2763	4756.35	83.17	4756.35	83.5599	4756.35	82.0483	4756.35	81.8333	4756.35	80.5779	4756.35	81.4216	4756.35	78.3885	4756.35	79.3433	4756.35	75.6145	4756.35	70.152	4756.35	72.1114	4756.35	74.6412	4756.35	69.7805	4756.35	73.3582	4756.35	68.2799	4756.35	71.1154	4756.35	65.3905	4756.35	66.2035	4756.35	63.4827	4756.35	58.002	4756.35	61.6991	4756.35	60.302	4756.35	60.7931	4756.35	63.3393	4756.35	61.0145	4756.35	58.8585	4756.35	59.5873	4756.35	57.7323	4756.35	60.554	4756.35	53.6057	4756.35	59.3852	4756.35	55.008	4756.35	53.5605	4756.35	55.8086	4756.35	51.0721
4924.8	83.1646	4924.8	83.0752	4924.8	83.487	4924.8	81.6961	4924.8	81.9602	4924.8	80.4855	4924.8	80.637	4924.8	78.0578	4924.8	79.8182	4924.8	75.2395	4924.8	70.2645	4924.8	72.6386	4924.8	73.0636	4924.8	69.9389	4924.8	72.7706	4924.8	67.3899	4924.8	70.3779	4924.8	65.6863	4924.8	66.6431	4924.8	64.8965	4924.8	62.3841	4924.8	62.4692	4924.8	48.5741	4924.8	60.7133	4924.8	60.2341	4924.8	61.3927	4924.8	58.6905	4924.8	60.1691	4924.8	57.8256	4924.8	60.7467	4924.8	53.4857	4924.8	60.4698	4924.8	54.3907	4924.8	56.2802	4924.8	56.1938	4924.8	55.4803
5097.66	82.8705	5097.66	82.7505	5097.66	83.0141	5097.66	81.8672	5097.66	81.6053	5097.66	80.6517	5097.66	80.3206	5097.66	77.7856	5097.66	79.0348	5097.66	74.6277	5097.66	71.349	5097.66	72.2434	5097.66	70.6456	5097.66	69.9243	5097.66	70.3353	5097.66	67.7424	5097.66	69.2155	5097.66	65.1725	5097.66	64.2216	5097.66	63.804	5097.66	58.702	5097.66	63.7088	5097.66	44.3597	5097.66	61.8278	5097.66	58.0478	5097.66	61.6927	5097.66	57.613	5097.66	62.0514	5097.66	56.9172	5097.66	60.5676	5097.66	51.2515	5097.66	60.8265	5097.66	53.9769	5097.66	55.6848	5097.66	54.1961	5097.66	51.6578
5277.83	82.4399	5277.83	82.5499	5277.83	82.6774	5277.83	81.7385	5277.83	81.7739	5277.83	80.1797	5277.83	79.5587	5277.83	77.3616	5277.83	79.1758	5277.83	74.8606	5277.83	71.1024	5277.83	72.3863	5277.83	70.4546	5277.83	69.5284	5277.83	70.1193	5277.83	67.3209	5277.83	68.916	5277.83	66.0521	5277.83	65.3644	5277.83	63.4856	5277.83	62.5594	5277.83	62.9357	5277.83	46.6932	5277.83	61.0344	5277.83	50.4414	5277.83	60.8549	5277.83	53.9179	5277.83	61.5845	5277.83	53.3178	5277.83	61.0863	5277.83	51.904	5277.83	61.5106	5277.83	54.0893	5277.83	57.2615	5277.83	54.9486	5277.83	53.8828
5463.87	82.6227	5463.87	82.3409	5463.87	82.169	5463.87	81.3992	5463.87	81.3835	5463.87	79.6094	5463.87	79.161	5463.87	77.26	5463.87	78.7765	5463.87	74.7468	5463.87	72.1781	5463.87	71.893	5463.87	69.4472	5463.87	69.5823	5463.87	70.0538	5463.87	67.4534	5463.87	67.5297	5463.87	65.9942	5463.87	66.1218	5463.87	62.8479	5463.87	60.346	5463.87	63.0446	5463.87	48.6989	5463.87	60.8658	5463.87	51.4325	5463.87	59.313	5463.87	54.1502	5463.87	60.334	5463.87	53.9552	5463.87	60.9586	5463.87	52.0999	5463.87	61.2161	5463.87	48.4901	5463.87	57.9127	5463.87	52.1554	5463.87	53.0116
5657.23	82.3513	5657.23	81.8454	5657.23	81.7462	5657.23	81.0733	5657.23	81.4706	5657.23	79.0653	5657.23	78.4872	5657.23	76.7893	5657.23	78.9664	5657.23	74.108	5657.23	73.5023	5657.23	71.4337	5657.23	66.9722	5657.23	68.9347	5657.23	70.9214	5657.23	66.8673	5657.23	66.7892	5657.23	64.5948	5657.23	64.0325	5657.23	61.6291	5657.23	63.5937	5657.23	62.7749	5657.23	48.5098	5657.23	60.2	5657.23	50.8562	5657.23	59.4943	5657.23	57.4153	5657.23	59.8776	5657.23	53.8222	5657.23	59.6841	5657.23	53.9616	5657.23	60.6062	5657.23	54.2839	5657.23	57.1904	5657.23	52.4603	5657.23	53.853
5856.45	82.2579	5856.45	81.6496	5856.45	81.9997	5856.45	80.881	5856.45	81.2768	5856.45	78.7207	5856.45	77.6877	5856.45	76.9089	5856.45	78.2489	5856.45	73.5326	5856.45	74.7094	5856.45	71.6174	5856.45	66.4987	5856.45	67.8068	5856.45	70.9774	5856.45	66.7251	5856.45	67.9365	5856.45	64.5145	5856.45	65.5596	5856.45	60.5261	5856.45	59.9667	5856.45	61.9793	5856.45	44.7166	5856.45	59.0139	5856.45	57.9625	5856.45	59.2334	5856.45	50.0819	5856.45	59.2603	5856.45	53.9108	5856.45	60.7204	5856.45	50.5671	5856.45	61.6311	5856.45	49.6797	5856.45	57.5019	5856.45	50.3773	5856.45	54.1333
6062.99	82.2876	6062.99	81.5524	6062.99	81.7123	6062.99	80.4137	6062.99	81.2669	6062.99	78.5909	6062.99	77.4704	6062.99	76.1837	6062.99	77.6226	6062.99	73.5804	6062.99	75.8523	6062.99	70.7081	6062.99	65.0517	6062.99	69.1185	6062.99	71.9419	6062.99	67.9986	6062.99	67.9692	6062.99	64.1998	6062.99	68.0838	6062.99	62.0038	6062.99	56.8323	6062.99	60.5107	6062.99	44.8121	6062.99	59.5155	6062.99	57.1571	6062.99	57.4241	6062.99	43.6901	6062.99	56.328	6062.99	51.3231	6062.99	60.207	6062.99	48.8803	6062.99	61.5474	6062.99	49.6443	6062.99	57.8444	6062.99	49.9776	6062.99	53.205
6276.86	82.1323	6276.86	81.178	6276.86	81.7707	6276.86	79.9324	6276.86	80.9911	6276.86	78.0685	6276.86	77.3552	6276.86	75.7205	6276.86	76.6425	6276.86	73.3747	6276.86	76.5429	6276.86	71.3863	6276.86	65.2375	6276.86	69.1656	6276.86	71.6579	6276.86	67.835	6276.86	67.7318	6276.86	63.7667	6276.86	66.9227	6276.86	60.4098	6276.86	61.6199	6276.86	60.4266	6276.86	55.4909	6276.86	59.3145	6276.86	54.6081	6276.86	58.4436	6276.86	52.3234	6276.86	55.5957	6276.86	46.7138	6276.86	59.543	6276.86	51.4914	6276.86	61.0876	6276.86	50.8926	6276.86	57.6725	6276.86	46.7458	6276.86	53.5948
6498.05	82.1065	6498.05	81.13	6498.05	81.9865	6498.05	79.5589	6498.05	80.8037	6498.05	77.7727	6498.05	77.7309	6498.05	75.6558	6498.05	75.6976	6498.05	73.3876	6498.05	76.8478	6498.05	72.0354	6498.05	66.7932	6498.05	68.1888	6498.05	71.4646	6498.05	66.9238	6498.05	69.065	6498.05	63.8203	6498.05	67.8124	6498.05	61.9593	6498.05	59.4978	6498.05	58.6076	6498.05	42.0147	6498.05	57.9229	6498.05	50.8181	6498.05	57.6385	6498.05	52.9571	6498.05	55.5377	6498.05	54.8405	6498.05	59.0294	6498.05	48.2684	6498.05	61.1356	6498.05	47.0531	6498.05	57.422	6498.05	48.748	6498.05	51.6723
6726.56	81.9305	6726.56	81.1142	6726.56	81.8722	6726.56	79.1205	6726.56	80.7717	6726.56	77.7185	6726.56	77.6128	6726.56	75.0294	6726.56	75.6481	6726.56	74.1289	6726.56	77.0203	6726.56	70.9212	6726.56	66.7154	6726.56	69.9794	6726.56	71.6111	6726.56	68.3287	6726.56	66.9736	6726.56	64.9343	6726.56	68.1069	6726.56	62.3097	6726.56	60.0802	6726.56	60.4254	6726.56	53.5385	6726.56	58.6928	6726.56	50.5202	6726.56	55.9694	6726.56	53.5769	6726.56	56.6812	6726.56	52.8015	6726.56	58.3545	6726.56	53.1619	6726.56	60.4509	6726.56	48.1995	6726.56	57.9384	6726.56	47.768	6726.56	52.0096
6963.87	82.1104	6963.87	81.0929	6963.87	82.2045	6963.87	79.2117	6963.87	80.7655	6963.87	77.4115	6963.87	77.8825	6963.87	75.1954	6963.87	74.9544	6963.87	73.5624	6963.87	77.0484	6963.87	71.3161	6963.87	68.1282	6963.87	70.0681	6963.87	71.7604	6963.87	66.9728	6963.87	68.0767	6963.87	63.4714	6963.87	66.8053	6963.87	61.1375	6963.87	59.7596	6963.87	59.7464	6963.87	55.2236	6963.87	58.5407	6963.87	50.9401	6963.87	54.5645	6963.87	53.427	6963.87	54.9736	6963.87	52.581	6963.87	57.7957	6963.87	51.0572	6963.87	60.5399	6963.87	46.1484	6963.87	57.0726	6963.87	51.1272	6963.87	51.6111
7209.96	82.5089	7209.96	81.1739	7209.96	82.4702	7209.96	79.3208	7209.96	80.4534	7209.96	77.4468	7209.96	78.2393	7209.96	75.688	7209.96	74.3506	7209.96	73.5336	7209.96	77.0586	7209.96	71.1894	7209.96	69.9274	7209.96	69.5748	7209.96	70.3999	7209.96	66.8301	7209.96	67.8175	7209.96	65.3732	7209.96	63.8676	7209.96	62.0516	7209.96	58.3864	7209.96	60.9103	7209.96	51.9804	7209.96	58.7958	7209.96	48.4003	7209.96	55.8549	7209.96	51.4599	7209.96	55.6069	7209.96	55.8624	7209.96	56.5715	7209.96	53.0073	7209.96	60.2623	7209.96	47.9633	7209.96	57.5897	7209.96	47.0853	7209.96	52.8035
7464.84	82.5169	7464.84	81.0647	7464.84	82.378	7464.84	79.4236	7464.84	80.1768	7464.84	77.9662	7464.84	78.5156	7464.84	75.3197	7464.84	74.4992	7464.84	73.9674	7464.84	76.5228	7464.84	71.7146	7464.84	70.8648	7464.84	70.416	7464.84	68.6625	7464.84	66.4768	7464.84	67.4348	7464.84	64.5491	7464.84	61.7051	7464.84	60.8378	7464.84	56.7901	7464.84	60.729	7464.84	50.9331	7464.84	59.1036	7464.84	30.6963	7464.84	54.3636	7464.84	49.5006	7464.84	56.3982	7464.84	52.8588	7464.84	56.2596	7464.84	50.1315	7464.84	59.8299	7464.84	46.6999	7464.84	56.8739	7464.84	50.327	7464.84	52.7559
7727.05	82.3168	7727.05	81.2022	7727.05	82.4328	7727.05	79.9166	7727.05	80.2667	7727.05	77.9918	7727.05	78.6846	7727.05	75.6599	7727.05	74.9487	7727.05	74.6815	7727.05	75.6255	7727.05	71.6984	7727.05	71.8914	7727.05	69.6083	7727.05	68.8323	7727.05	64.8043	7727.05	70.137	7727.05	62.7653	7727.05	60.2004	7727.05	59.7864	7727.05	56.5146	7727.05	60.5445	7727.05	56.3714	7727.05	57.7306	7727.05	54.5636	7727.05	52.6262	7727.05	48.8113	7727.05	56.283	7727.05	49.3072	7727.05	53.0698	7727.05	46.732	7727.05	58.3278	7727.05	47.1637	7727.05	56.1026	7727.05	49.1927	7727.05	54.9327
7999.51	82.4887	7999.51	81.6548	7999.51	82.5349	7999.51	80.0644	7999.51	80.2488	7999.51	78.0742	7999.51	78.9804	7999.51	76.8903	7999.51	75.3364	7999.51	74.5636	7999.51	74.742	7999.51	72.0105	7999.51	72.5471	7999.51	69.1468	7999.51	65.7341	7999.51	66.1395	7999.51	69.4986	7999.51	62.6994	7999.51	61.0405	7999.51	60.7	7999.51	56.751	7999.51	60.7516	7999.51	54.7505	7999.51	58.3108	7999.51	51.3925	7999.51	54.703	7999.51	48.9243	7999.51	58.0744	7999.51	51.8455	7999.51	52.9419	7999.51	44.0645	7999.51	57.939	7999.51	47.7885	7999.51	56.1255	7999.51	50.602	7999.51	55.4943
8282.23	82.413	8282.23	81.7107	8282.23	82.4767	8282.23	79.9761	8282.23	80.1405	8282.23	78.5711	8282.23	79.3074	8282.23	76.7339	8282.23	76.0656	8282.23	74.8092	8282.23	74.1424	8282.23	72.1077	8282.23	72.927	8282.23	70.003	8282.23	65.0046	8282.23	66.4822	8282.23	68.5397	8282.23	62.486	8282.23	61.0067	8282.23	60.5947	8282.23	58.6184	8282.23	59.3325	8282.23	51.8312	8282.23	58.6449	8282.23	49.9476	8282.23	55.1623	8282.23	52.7209	8282.23	57.9359	8282.23	49.9974	8282.23	53.5083	8282.23	33.0694	8282.23	57.0867	8282.23	49.1931	8282.23	55.3878	8282.23	48.4631	8282.23	54.3373
8573.73	82.2089	8573.73	81.4612	8573.73	82.0806	8573.73	80.014	8573.73	80.2323	8573.73	78.6166	8573.73	79.1125	8573.73	76.81	8573.73	76.9597	8573.73	75.0953	8573.73	73.1351	8573.73	72.5779	8573.73	73.1851	8573.73	68.5825	8573.73	65.4176	8573.73	65.402	8573.73	67.2322	8573.73	61.7689	8573.73	62.7059	8573.73	60.2635	8573.73	57.9635	8573.73	57.2195	8573.73	50.2077	8573.73	58.8671	8573.73	35.282	8573.73	54.2251	8573.73	50.2398	8573.73	57.0936	8573.73	50.2284	8573.73	52.5083	8573.73	40.693	8573.73	55.9858	8573.73	50.6492	8573.73	54.6577	8573.73	47.2462	8573.73	54.105
8876.95	81.952	8876.95	81.2231	8876.95	81.6608	8876.95	80.1462	8876.95	80.5821	8876.95	78.0412	8876.95	79.1083	8876.95	77.455	8876.95	76.8612	8876.95	75.1227	8876.95	72.8974	8876.95	71.9202	8876.95	72.7142	8876.95	68.3681	8876.95	66.3666	8876.95	65.1495	8876.95	66.815	8876.95	61.1653	8876.95	52.2345	8876.95	59.2828	8876.95	56.5249	8876.95	55.8054	8876.95	54.1876	8876.95	58.9491	8876.95	53.7767	8876.95	55.6526	8876.95	39.1926	8876.95	56.1887	8876.95	48.4794	8876.95	53.3637	8876.95	39.4559	8876.95	54.2158	8876.95	47.0865	8876.95	54.4378	8876.95	43.1784	8876.95	52.8076
9188.96	81.762	9188.96	81.4911	9188.96	81.2621	9188.96	79.612	9188.96	80.3868	9188.96	78.8605	9188.96	79.1518	9188.96	77.4576	9188.96	76.8987	9188.96	75.1884	9188.96	73.0046	9188.96	72.0641	9188.96	73.5202	9188.96	67.5823	9188.96	66.7609	9188.96	64.945	9188.96	68.3128	9188.96	61.7601	9188.96	61.6728	9188.96	59.759	9188.96	51.4451	9188.96	55.7984	9188.96	51.057	9188.96	58.4278	9188.96	52.0434	9188.96	56.7256	9188.96	50.0298	9188.96	55.9168	9188.96	49.0129	9188.96	54.4423	9188.96	39.4266	9188.96	53.6108	9188.96	49.4828	9188.96	53.8547	9188.96	45.5682	9188.96	50.321
9514.16	81.6931	9514.16	81.3298	9514.16	80.8856	9514.16	79.9209	9514.16	80.3497	9514.16	78.7185	9514.16	79.1214	9514.16	78.0462	9514.16	76.9433	9514.16	74.9102	9514.16	72.9416	9514.16	71.5793	9514.16	72.5968	9514.16	68.1896	9514.16	65.4334	9514.16	64.3012	9514.16	67.2685	9514.16	61.6582	9514.16	60.6804	9514.16	58.8708	9514.16	52.8102	9514.16	54.9506	9514.16	50.9269	9514.16	58.2482	9514.16	50.2601	9514.16	55.7263	9514.16	46.8163	9514.16	54.5457	9514.16	45.9159	9514.16	54.3122	9514.16	43.7971	9514.16	53.5016	9514.16	49.2817	9514.16	53.2659	9514.16	37.6858	9514.16	50.1453
9849.61	81.5998	9849.61	81.4803	9849.61	80.7404	9849.61	80.1756	9849.61	80.3845	9849.61	79.1618	9849.61	79.1844	9849.61	78.4893	9849.61	76.6331	9849.61	74.2613	9849.61	72.9354	9849.61	72.2194	9849.61	71.1062	9849.61	68.5094	9849.61	64.7903	9849.61	65.277	9849.61	65.2733	9849.61	62.4568	9849.61	60.4534	9849.61	60.0209	9849.61	50.4753	9849.61	54.2314	9849.61	52.1293	9849.61	57.8545	9849.61	48.8111	9849.61	55.6469	9849.61	35.6567	9849.61	52.7815	9849.61	35.8421	9849.61	54.415	9849.61	47.362	9849.61	53.2479	9849.61	47.88	9849.61	52.9752	9849.61	32.5163	9849.61	49.7977
10196.8	81.8607	10196.8	81.8746	10196.8	80.9866	10196.8	80.2652	10196.8	80.661	10196.8	79.946	10196.8	79.3153	10196.8	77.7087	10196.8	76.3738	10196.8	75.0221	10196.8	72.4331	10196.8	72.0334	10196.8	69.6266	10196.8	69.7722	10196.8	63.2741	10196.8	66.3519	10196.8	64.3979	10196.8	62.8289	10196.8	61.4506	10196.8	58.77	10196.8	51.2904	10196.8	55.186	10196.8	51.1548	10196.8	56.4539	10196.8	54.9793	10196.8	54.9308	10196.8	48.0947	10196.8	50.6851	10196.8	36.9382	10196.8	53.9297	10196.8	46.3146	10196.8	53.3533	10196.8	45.0616	10196.8	52.977	10196.8	28.3405	10196.8	49.6106
10555.7	81.3267	10555.7	81.404	10555.7	80.6305	10555.7	80.7066	10555.7	81.0337	10555.7	79.7411	10555.7	79.4609	10555.7	77.8775	10555.7	75.9737	10555.7	74.0293	10555.7	72.3344	10555.7	73.024	10555.7	68.2135	10555.7	69.5122	10555.7	63.0592	10555.7	65.1846	10555.7	61.2561	10555.7	61.9583	10555.7	64.5393	10555.7	58.6284	10555.7	46.3837	10555.7	52.3938	10555.7	46.8508	10555.7	55.4531	10555.7	53.0561	10555.7	52.6761	10555.7	48.6497	10555.7	50.1955	10555.7	41.7611	10555.7	53.7958	10555.7	47.1262	10555.7	53.4246	10555.7	46.6896	10555.7	51.2629	10555.7	29.9916	10555.7	49.6797
10927.7	81.1026	10927.7	81.4512	10927.7	81.1548	10927.7	80.7402	10927.7	81.0522	10927.7	79.9685	10927.7	79.5105	10927.7	76.8916	10927.7	75.9859	10927.7	74.6049	10927.7	72.8569	10927.7	72.4463	10927.7	68.1263	10927.7	68.9372	10927.7	59.7457	10927.7	64.5376	10927.7	58.9609	10927.7	60.8972	10927.7	60.3038	10927.7	57.3118	10927.7	43.2166	10927.7	53.8281	10927.7	37.2706	10927.7	52.6966	10927.7	49.462	10927.7	50.7489	10927.7	45.0056	10927.7	47.2605	10927.7	40.6456	10927.7	51.2665	10927.7	44.596	10927.7	51.4491	10927.7	40.4786	10927.7	49.7375	10927.7	25.1397	10927.7	47.2992
11313	81.5475	11313	81.4944	11313	81.4928	11313	81.5951	11313	81.1369	11313	79.8889	11313	79.8607	11313	77.4999	11313	76.9641	11313	74.7425	11313	73.6995	11313	72.1158	11313	68.3085	11313	68.0164	11313	59.6863	11313	63.5135	11313	51.047	11313	59.7043	11313	59.421	11313	57.8691	11313	50.1843	11313	53.9001	11313	39.0346	11313	51.5731	11313	52.4832	11313	49.8608	11313	45.7336	11313	50.1051	11313	32.6994	11313	51.4678	11313	43.4892	11313	51.4824	11313	38.6963	11313	48.8854	11313	32.8166	11313	48.3725
11712.9	81.403	11712.9	81.397	11712.9	81.1832	11712.9	81.9666	11712.9	80.9435	11712.9	80.3606	11712.9	79.7556	11712.9	77.5451	11712.9	77.6726	11712.9	75.3447	11712.9	74.1441	11712.9	71.9418	11712.9	69.7392	11712.9	68.039	11712.9	59.4967	11712.9	62.6823	11712.9	58.6327	11712.9	59.2927	11712.9	61.2917	11712.9	57.079	11712.9	42.6271	11712.9	54.5052	11712.9	35.6695	11712.9	50.5838	11712.9	53.6852	11712.9	47.7007	11712.9	49.6362	11712.9	49.5625	11712.9	44.8573	11712.9	51.7957	11712.9	44.3781	11712.9	51.2972	11712.9	44.2616	11712.9	47.1364	11712.9	37.4056	11712.9	48.5358
12126	81.2135	12126	81.6406	12126	81.7327	12126	82.1746	12126	80.8069	12126	80.422	12126	79.7289	12126	77.9447	12126	77.7689	12126	75.3666	12126	74.1154	12126	71.9695	12126	69.7311	12126	67.254	12126	60.6063	12126	62.9433	12126	56.3559	12126	58.5125	12126	54.2878	12126	56.4704	12126	49.5038	12126	54.7088	12126	42.6669	12126	51.0435	12126	51.3909	12126	50.1566	12126	51.1688	12126	49.0483	12126	39.6257	12126	52.3244	12126	42.2659	12126	51.5691	12126	44.1867	12126	47.4078	12126	39.1796	12126	49.3776
12553.7	81.4691	12553.7	82.0647	12553.7	82.2695	12553.7	82.5984	12553.7	81.2061	12553.7	80.0584	12553.7	79.7054	12553.7	77.972	12553.7	77.3284	12553.7	75.3878	12553.7	73.687	12553.7	70.7879	12553.7	70.4328	12553.7	67.0751	12553.7	61.8464	12553.7	62.4122	12553.7	49.3039	12553.7	58.6315	12553.7	52.891	12553.7	55.5501	12553.7	51.9927	12553.7	53.7796	12553.7	50.0618	12553.7	49.6089	12553.7	51.9873	12553.7	47.8013	12553.7	47.3077	12553.7	46.9658	12553.7	43.8895	12553.7	53.2122	12553.7	44.3227	12553.7	51.5248	12553.7	45.1873	12553.7	45.3594	12553.7	40.0655	12553.7	49.466
12996.1	82.4499	12996.1	82.8435	12996.1	82.7419	12996.1	82.7814	12996.1	81.5229	12996.1	80.2186	12996.1	79.7095	12996.1	77.895	12996.1	77.1605	12996.1	74.4991	12996.1	73.2191	12996.1	70.584	12996.1	70.8653	12996.1	65.9774	12996.1	61.0624	12996.1	61.3461	12996.1	52.9465	12996.1	55.7966	12996.1	48.0835	12996.1	53.9731	12996.1	50.7322	12996.1	53.0074	12996.1	50.5545	12996.1	47.9846	12996.1	47.5918	12996.1	48.7325	12996.1	40.1453	12996.1	47.1272	12996.1	45.0819	12996.1	52.6637	12996.1	41.7717	12996.1	49.2518	12996.1	42.2712	12996.1	40.3381	12996.1	37.1463	12996.1	48.6224
13454.6	83.2187	13454.6	83.3655	13454.6	83.2351	13454.6	83.2097	13454.6	82.4086	13454.6	80.8231	13454.6	80.3904	13454.6	77.6136	13454.6	77.1245	13454.6	73.9835	13454.6	72.3612	13454.6	69.9399	13454.6	70.4002	13454.6	65.0464	13454.6	61.4238	13454.6	60.7618	13454.6	51.9069	13454.6	56.559	13454.6	46.8279	13454.6	53.522	13454.6	51.5922	13454.6	52.296	13454.6	54.3513	13454.6	47.998	13454.6	48.6197	13454.6	48.2485	13454.6	43.0342	13454.6	47.6203	13454.6	39.3977	13454.6	51.7067	13454.6	36.8665	13454.6	48.9351	13454.6	40.2534	13454.6	38.4119	13454.6	37.8717	13454.6	45.4541
13929.2	82.9187	13929.2	83.4637	13929.2	83.5282	13929.2	83.1118	13929.2	82.5669	13929.2	80.7775	13929.2	80.5286	13929.2	77.2535	13929.2	77.3911	13929.2	73.3962	13929.2	72.2507	13929.2	69.4412	13929.2	69.931	13929.2	63.9971	13929.2	59.2592	13929.2	59.5197	13929.2	53.5294	13929.2	53.9851	13929.2	46.0332	13929.2	52.1001	13929.2	53.4737	13929.2	51.976	13929.2	54.9994	13929.2	47.0943	13929.2	44.565	13929.2	48.4575	13929.2	36.4963	13929.2	48.6902	13929.2	37.9647	13929.2	49.5187	13929.2	41.3834	13929.2	49.5202	13929.2	39.7679	13929.2	40.2109	13929.2	33.7516	13929.2	45.6177
14419.9	83.7606	14419.9	83.6386	14419.9	83.5009	14419.9	82.6987	14419.9	82.6803	14419.9	80.6382	14419.9	80.069	14419.9	76.8586	14419.9	77.2546	14419.9	72.7343	14419.9	71.0929	14419.9	68.3641	14419.9	68.8837	14419.9	63.5896	14419.9	59.8249	14419.9	58.4998	14419.9	54.9465	14419.9	54.1971	14419.9	40.9203	14419.9	49.9322	14419.9	54.1758	14419.9	50.8831	14419.9	52.845	14419.9	45.6661	14419.9	46.6152	14419.9	47.4425	14419.9	40.3479	14419.9	46.2866	14419.9	33.5433	14419.9	45.2692	14419.9	35.4257	14419.9	48.8284	14419.9	31.8342	14419.9	41.703	14419.9	37.3237	14419.9	41.8487
14928.2	83.682	14928.2	83.2962	14928.2	83.3388	14928.2	82.1388	14928.2	82.3737	14928.2	79.6544	14928.2	79.131	14928.2	75.8204	14928.2	76.1762	14928.2	71.3389	14928.2	69.5451	14928.2	66.5819	14928.2	66.1947	14928.2	61.1945	14928.2	59.3561	14928.2	56.591	14928.2	53.3473	14928.2	50.309	14928.2	33.5699	14928.2	47.2704	14928.2	50.4869	14928.2	46.4426	14928.2	50.9032	14928.2	42.6739	14928.2	45.9145	14928.2	45.2711	14928.2	38.6448	14928.2	41.6644	14928.2	41.2226	14928.2	41.3421	14928.2	23.5927	14928.2	48.815	14928.2	31.1065	14928.2	41.8101	14928.2	34.5356	14928.2	26.7821
15455.6	83.4252	15455.6	82.8855	15455.6	82.8175	15455.6	81.6439	15455.6	81.9774	15455.6	78.8503	15455.6	78.2322	15455.6	74.7019	15455.6	75.0639	15455.6	70.1245	15455.6	68.0711	15455.6	64.7211	15455.6	64.104	15455.6	59.5288	15455.6	56.8016	15455.6	53.3672	15455.6	52.7745	15455.6	48.7738	15455.6	35.5241	15455.6	44.4779	15455.6	49.5198	15455.6	43.9147	15455.6	50.3077	15455.6	40.3073	15455.6	35.9594	15455.6	42.4407	15455.6	34.4674	15455.6	39.496	15455.6	37.8184	15455.6	39.7735	15455.6	30.2577	15455.6	44.7878	15455.6	26.8886	15455.6	32.9979	15455.6	35.3738	15455.6	34.7389
16000.5	84.2042	16000.5	83.433	16000.5	83.2765	16000.5	81.9129	16000.5	81.9641	16000.5	78.9084	16000.5	78.2478	16000.5	74.5602	16000.5	74.7788	16000.5	69.6337	16000.5	67.2663	16000.5	64.4212	16000.5	62.1307	16000.5	57.9099	16000.5	59.0443	16000.5	52.5608	16000.5	49.8841	16000.5	46.4949	16000.5	39.3724	16000.5	43.4436	16000.5	47.8857	16000.5	39.4341	16000.5	49.5011	16000.5	38.9051	16000.5	41.5604	16000.5	39.2191	16000.5	34.9734	16000.5	37.5803	16000.5	37.113	16000.5	37.124	16000.5	20.3503	16000.5	43.7873	16000.5	33.4891	16000.5	40.3476	16000.5	37.4789	16000.5	30.1653
16564.5	85.1253	16564.5	84.2339	16564.5	84.1994	16564.5	82.4963	16564.5	82.4195	16564.5	79.371	16564.5	78.5318	16564.5	74.4548	16564.5	74.6236	16564.5	69.2653	16564.5	67.4117	16564.5	63.651	16564.5	61.8166	16564.5	55.7372	16564.5	57.4608	16564.5	51.3394	16564.5	48.6265	16564.5	45.5595	16564.5	36.86	16564.5	43.1928	16564.5	43.141	16564.5	36.4621	16564.5	46.2452	16564.5	38.3631	16564.5	32.9574	16564.5	37.5711	16564.5	29.8762	16564.5	38.8661	16564.5	38.6118	16564.5	40.7914	16564.5	32.9671	16564.5	41.7922	16564.5	30.5496	16564.5	36.1465	16564.5	32.685	16564.5	37.2615
17148.9	85.4227	17148.9	84.634	17148.9	84.6554	17148.9	82.3579	17148.9	82.4378	17148.9	78.8073	17148.9	78.0057	17148.9	73.4231	17148.9	73.5264	17148.9	67.9224	17148.9	66.2247	17148.9	61.7151	17148.9	61.4604	17148.9	53.7147	17148.9	55.8214	17148.9	48.2208	17148.9	48.4891	17148.9	42.3848	17148.9	37.9442	17148.9	35.7692	17148.9	43.5837	17148.9	34.6638	17148.9	41.7302	17148.9	31.3034	17148.9	36.0219	17148.9	18.5067	17148.9	27.2522	17148.9	30.3745	17148.9	25.8368	17148.9	29.8805	17148.9	18.9332	17148.9	37.0709	17148.9	35.9775	17148.9	42.8425	17148.9	30.4325	17148.9	36.3612
17752.4	85.9699	17752.4	84.7057	17752.4	85.004	17752.4	82.0616	17752.4	82.3712	17752.4	77.8958	17752.4	77.4816	17752.4	72.4541	17752.4	72.3586	17752.4	66.0685	17752.4	65.4608	17752.4	58.8241	17752.4	61.9924	17752.4	52.2451	17752.4	54.7944	17752.4	46.2453	17752.4	49.7248	17752.4	35.542	17752.4	43.0331	17752.4	34.5158	17752.4	52.5567	17752.4	28.4771	17752.4	48.3946	17752.4	31.528	17752.4	44.7183	17752.4	27.4346	17752.4	30.7038	17752.4	32.3418	17752.4	28.8848	17752.4	29.7993	17752.4	32.9598	17752.4	35.5408	17752.4	28.0918	17752.4	38.4889	17752.4	35.5999	17752.4	42.7388
18379.4	85.2631	18379.4	84.2999	18379.4	84.9675	18379.4	81.7108	18379.4	82.2993	18379.4	76.5737	18379.4	76.4422	18379.4	70.5721	18379.4	70.9004	18379.4	63.6127	18379.4	63.6982	18379.4	57.7437	18379.4	62.7708	18379.4	52.8529	18379.4	56.2614	18379.4	45.3765	18379.4	52.3845	18379.4	39.9362	18379.4	45.9696	18379.4	36.8777	18379.4	56.3232	18379.4	32.3662	18379.4	52.7002	18379.4	19.9494	18379.4	46.2115	18379.4	30.5795	18379.4	38.8095	18379.4	32.2715	18379.4	36.0018	18379.4	26.2199	18379.4	29.3094	18379.4	37.5013	18379.4	22.9938	18379.4	43.251	18379.4	30.2853	18379.4	35.4952
19026.9	85.145	19026.9	83.8935	19026.9	84.4848	19026.9	80.7998	19026.9	81.2462	19026.9	74.9127	19026.9	74.4117	19026.9	67.4981	19026.9	68.3133	19026.9	62.4313	19026.9	62.4181	19026.9	58.1313	19026.9	62.3509	19026.9	54.5957	19026.9	57.0229	19026.9	46.924	19026.9	50.9694	19026.9	41.9757	19026.9	45.5237	19026.9	39.1736	19026.9	57.2664	19026.9	35.1355	19026.9	52.6537	19026.9	24.8773	19026.9	42.3642	19026.9	26.5661	19026.9	34.8449	19026.9	34.1139	19026.9	30.7102	19026.9	32.5824	19026.9	29.4005	19026.9	40.5417	19026.9	33.8483	19026.9	40.5595	19026.9	36.4486	19026.9	40.6599
19697.8	84.9354	19697.8	83.4453	19697.8	84.1733	19697.8	80.0649	19697.8	80.4321	19697.8	72.9407	19697.8	72.24	19697.8	64.8285	19697.8	66.2762	19697.8	61.7063	19697.8	62.2513	19697.8	58.2148	19697.8	62.2384	19697.8	54.1331	19697.8	58.4051	19697.8	48.3329	19697.8	51.2156	19697.8	42.6951	19697.8	45.3689	19697.8	40.4424	19697.8	58.2454	19697.8	34.0671	19697.8	53.6315	19697.8	25.8605	19697.8	38.6203	19697.8	27.2242	19697.8	36.4162	19697.8	33.5699	19697.8	33.958	19697.8	35.5006	19697.8	22.3455	19697.8	41.1456	19697.8	27.8069	19697.8	41.4567	19697.8	33.9576	19697.8	41.013
19999.5	84.9272	19999.5	83.2217	19999.5	83.8746	19999.5	79.6616	19999.5	79.967	19999.5	72.2537	19999.5	71.4597	19999.5	63.4339	19999.5	65.9043	19999.5	61.8802	19999.5	61.4155	19999.5	57.0805	19999.5	60.4707	19999.5	53.339	19999.5	61.6093	19999.5	49.0337	19999.5	52.1886	19999.5	44.5557	19999.5	44.9504	19999.5	43.0378	19999.5	59.507	19999.5	37.7244	19999.5	55.6641	19999.5	32.0624	19999.5	42.2811	19999.5	40.8926	19999.5	37.1466	19999.5	37.2697	19999.5	27.9214	19999.5	38.9195	19999.5	42.8787	19999.5	26.5665	19999.5	23.3623	19999.5	45.2036	19999.5	44.9501	19999.5	45.7331
