"SPL Horizontal"
"On-Axis"		"10°"		"-10°"		"20°"		"-20°"		"30°"		"-30°"		"40°"		"-40°"		"50°"		"-50°"		"60°"		"-60°"		"70°"		"-70°"		"80°"		"-80°"		"90°"		"-90°"		"100°"		"-100°"		"110°"		"-110°"		"120°"		"-120°"		"130°"		"-130°"		"140°"		"-140°"		"150°"		"-150°"		"160°"		"-160°"		"170°"		"-170°"		"180°"
"Frequency / Hz"	"Sound Pressure Level / dB (re 20 µPa/V)  [0.3V at 1m]"	"Frequency / Hz"	"Sound Pressure Level / dB (re 20 µPa/V)  [0.3V at 1m]"	"Frequency / Hz"	"Sound Pressure Level / dB (re 20 µPa/V)  [0.3V at 1m]"	"Frequency / Hz"	"Sound Pressure Level / dB (re 20 µPa/V)  [0.3V at 1m]"	"Frequency / Hz"	"Sound Pressure Level / dB (re 20 µPa/V)  [0.3V at 1m]"	"Frequency / Hz"	"Sound Pressure Level / dB (re 20 µPa/V)  [0.3V at 1m]"	"Frequency / Hz"	"Sound Pressure Level / dB (re 20 µPa/V)  [0.3V at 1m]"	"Frequency / Hz"	"Sound Pressure Level / dB (re 20 µPa/V)  [0.3V at 1m]"	"Frequency / Hz"	"Sound Pressure Level / dB (re 20 µPa/V)  [0.3V at 1m]"	"Frequency / Hz"	"Sound Pressure Level / dB (re 20 µPa/V)  [0.3V at 1m]"	"Frequency / Hz"	"Sound Pressure Level / dB (re 20 µPa/V)  [0.3V at 1m]"	"Frequency / Hz"	"Sound Pressure Level / dB (re 20 µPa/V)  [0.3V at 1m]"	"Frequency / Hz"	"Sound Pressure Level / dB (re 20 µPa/V)  [0.3V at 1m]"	"Frequency / Hz"	"Sound Pressure Level / dB (re 20 µPa/V)  [0.3V at 1m]"	"Frequency / Hz"	"Sound Pressure Level / dB (re 20 µPa/V)  [0.3V at 1m]"	"Frequency / Hz"	"Sound Pressure Level / dB (re 20 µPa/V)  [0.3V at 1m]"	"Frequency / Hz"	"Sound Pressure Level / dB (re 20 µPa/V)  [0.3V at 1m]"	"Frequency / Hz"	"Sound Pressure Level / dB (re 20 µPa/V)  [0.3V at 1m]"	"Frequency / Hz"	"Sound Pressure Level / dB (re 20 µPa/V)  [0.3V at 1m]"	"Frequency / Hz"	"Sound Pressure Level / dB (re 20 µPa/V)  [0.3V at 1m]"	"Frequency / Hz"	"Sound Pressure Level / dB (re 20 µPa/V)  [0.3V at 1m]"	"Frequency / Hz"	"Sound Pressure Level / dB (re 20 µPa/V)  [0.3V at 1m]"	"Frequency / Hz"	"Sound Pressure Level / dB (re 20 µPa/V)  [0.3V at 1m]"	"Frequency / Hz"	"Sound Pressure Level / dB (re 20 µPa/V)  [0.3V at 1m]"	"Frequency / Hz"	"Sound Pressure Level / dB (re 20 µPa/V)  [0.3V at 1m]"	"Frequency / Hz"	"Sound Pressure Level / dB (re 20 µPa/V)  [0.3V at 1m]"	"Frequency / Hz"	"Sound Pressure Level / dB (re 20 µPa/V)  [0.3V at 1m]"	"Frequency / Hz"	"Sound Pressure Level / dB (re 20 µPa/V)  [0.3V at 1m]"	"Frequency / Hz"	"Sound Pressure Level / dB (re 20 µPa/V)  [0.3V at 1m]"	"Frequency / Hz"	"Sound Pressure Level / dB (re 20 µPa/V)  [0.3V at 1m]"	"Frequency / Hz"	"Sound Pressure Level / dB (re 20 µPa/V)  [0.3V at 1m]"	"Frequency / Hz"	"Sound Pressure Level / dB (re 20 µPa/V)  [0.3V at 1m]"	"Frequency / Hz"	"Sound Pressure Level / dB (re 20 µPa/V)  [0.3V at 1m]"	"Frequency / Hz"	"Sound Pressure Level / dB (re 20 µPa/V)  [0.3V at 1m]"	"Frequency / Hz"	"Sound Pressure Level / dB (re 20 µPa/V)  [0.3V at 1m]"	"Frequency / Hz"	"Sound Pressure Level / dB (re 20 µPa/V)  [0.3V at 1m]"
20.5078	34.0615	20.5078	33.2469	20.5078	34.8721	20.5078	32.4619	20.5078	35.6538	20.5078	31.7482	20.5078	36.389	20.5078	31.1523	20.5078	37.0653	20.5078	30.718	20.5078	37.674	20.5078	30.4759	20.5078	38.2087	20.5078	30.437	20.5078	38.6642	20.5078	30.5924	20.5078	39.0362	20.5078	30.9206	20.5078	39.3205	20.5078	31.3951	20.5078	39.5129	20.5078	31.99	20.5078	39.6092	20.5078	32.6805	20.5078	39.6052	20.5078	33.4418	20.5078	39.4971	20.5078	34.2477	20.5078	39.2818	20.5078	35.0702	20.5078	38.958	20.5078	35.8809	20.5078	38.5266	20.5078	36.653	20.5078	37.992	20.5078	37.3629
21.9727	37.1701	21.9727	36.7461	21.9727	37.6243	21.9727	36.3685	21.9727	38.0933	21.9727	36.0535	21.9727	38.5637	21.9727	35.8166	21.9727	39.0231	21.9727	35.6708	21.9727	39.461	21.9727	35.625	21.9727	39.868	21.9727	35.6829	21.9727	40.236	21.9727	35.8428	21.9727	40.5577	21.9727	36.0974	21.9727	40.8265	21.9727	36.4353	21.9727	41.0365	21.9727	36.8416	21.9727	41.1822	21.9727	37.2998	21.9727	41.2592	21.9727	37.7922	21.9727	41.2637	21.9727	38.3014	21.9727	41.1932	21.9727	38.81	21.9727	41.0468	21.9727	39.3017	21.9727	40.8257	21.9727	39.7613	21.9727	40.5333	21.9727	40.1756
23.4375	35.3406	23.4375	35.0727	23.4375	35.6814	23.4375	34.8846	23.4375	36.0829	23.4375	34.7777	23.4375	36.5291	23.4375	34.7483	23.4375	37.0019	23.4375	34.7901	23.4375	37.4832	23.4375	34.8958	23.4375	37.956	23.4375	35.0593	23.4375	38.4052	23.4375	35.276	23.4375	38.8176	23.4375	35.5436	23.4375	39.1822	23.4375	35.8605	23.4375	39.4894	23.4375	36.2242	23.4375	39.7313	23.4375	36.6302	23.4375	39.9012	23.4375	37.07	23.4375	39.9938	23.4375	37.5308	23.4375	40.0053	23.4375	37.9963	23.4375	39.9336	23.4375	38.4479	23.4375	39.7791	23.4375	38.8673	23.4375	39.5449	23.4375	39.2375
24.9023	39.0026	24.9023	39.0252	24.9023	39.0414	24.9023	39.105	24.9023	39.1434	24.9023	39.2366	24.9023	39.3072	24.9023	39.4138	24.9023	39.5282	24.9023	39.6304	24.9023	39.7984	24.9023	39.8804	24.9023	40.1072	24.9023	40.1576	24.9023	40.4425	24.9023	40.4558	24.9023	40.7917	24.9023	40.768	24.9023	41.1423	24.9023	41.0868	24.9023	41.4829	24.9023	41.4037	24.9023	41.8029	24.9023	41.7101	24.9023	42.093	24.9023	41.9966	24.9023	42.3454	24.9023	42.2545	24.9023	42.5531	24.9023	42.4751	24.9023	42.7105	24.9023	42.6511	24.9023	42.8135	24.9023	42.7764	24.9023	42.8592	24.9023	42.8466
26.3672	42.2758	26.3672	42.3656	26.3672	42.2304	26.3672	42.496	26.3672	42.2322	26.3672	42.6626	26.3672	42.2826	26.3672	42.8601	26.3672	42.3815	26.3672	43.0831	26.3672	42.5267	26.3672	43.3253	26.3672	42.7143	26.3672	43.5806	26.3672	42.9385	26.3672	43.8421	26.3672	43.1918	26.3672	44.1031	26.3672	43.4656	26.3672	44.3565	26.3672	43.7505	26.3672	44.5956	26.3672	44.0369	26.3672	44.8134	26.3672	44.315	26.3672	45.0036	26.3672	44.5756	26.3672	45.1602	26.3672	44.8103	26.3672	45.2779	26.3672	45.0114	26.3672	45.3523	26.3672	45.1729	26.3672	45.3801	26.3672	45.2899	26.3672	45.3594
27.832	46.8511	27.832	46.9455	27.832	46.7837	27.832	47.0638	27.832	46.7461	27.832	47.2025	27.832	46.7401	27.832	47.3579	27.832	46.767	27.832	47.5259	27.832	46.8268	27.832	47.7023	27.832	46.9185	27.832	47.8827	27.832	47.04	27.832	48.0624	27.832	47.1878	27.832	48.2368	27.832	47.3572	27.832	48.4011	27.832	47.5428	27.832	48.5504	27.832	47.7384	27.832	48.6801	27.832	47.9375	27.832	48.7857	27.832	48.1331	27.832	48.8634	27.832	48.3187	27.832	48.9099	27.832	48.4879	27.832	48.923	27.832	48.6351	27.832	48.9013	27.832	48.7554	27.832	48.845
29.2969	51.8606	29.2969	51.915	29.2969	51.8223	29.2969	51.9838	29.2969	51.8013	29.2969	52.0653	29.2969	51.7985	29.2969	52.1575	29.2969	51.8146	29.2969	52.2582	29.2969	51.8496	29.2969	52.3648	29.2969	51.9032	29.2969	52.4749	29.2969	51.9742	29.2969	52.5854	29.2969	52.0612	29.2969	52.6934	29.2969	52.1617	29.2969	52.7959	29.2969	52.2729	29.2969	52.8897	29.2969	52.3913	29.2969	52.9716	29.2969	52.5129	29.2969	53.0388	29.2969	52.6336	29.2969	53.0886	29.2969	52.749	29.2969	53.1188	29.2969	52.8549	29.2969	53.1278	29.2969	52.9474	29.2969	53.1147	29.2969	53.0232	29.2969	53.0796
30.7617	55.9623	30.7617	55.9891	30.7617	55.9481	30.7617	56.0276	30.7617	55.9469	30.7617	56.077	30.7617	55.9589	30.7617	56.1361	30.7617	55.9842	30.7617	56.2036	30.7617	56.0224	30.7617	56.2779	30.7617	56.0729	30.7617	56.3571	30.7617	56.1345	30.7617	56.4393	30.7617	56.2059	30.7617	56.5223	30.7617	56.2851	30.7617	56.6037	30.7617	56.3699	30.7617	56.6809	30.7617	56.4578	30.7617	56.7516	30.7617	56.5458	30.7617	56.813	30.7617	56.631	30.7617	56.8629	30.7617	56.7101	30.7617	56.8992	30.7617	56.7803	30.7617	56.9201	30.7617	56.8388	30.7617	56.9247	30.7617	56.8834	30.7617	56.9123
32.2266	59.7235	32.2266	59.7307	32.2266	59.7286	32.2266	59.75	32.2266	59.746	32.2266	59.781	32.2266	59.7753	32.2266	59.823	32.2266	59.8159	32.2266	59.875	32.2266	59.8671	32.2266	59.9359	32.2266	59.9275	32.2266	60.0041	32.2266	59.9958	32.2266	60.078	32.2266	60.0702	32.2266	60.1555	32.2266	60.1486	32.2266	60.2346	32.2266	60.2288	32.2266	60.3127	32.2266	60.3082	32.2266	60.3875	32.2266	60.3842	32.2266	60.4563	32.2266	60.4542	32.2266	60.5168	32.2266	60.5156	32.2266	60.5667	32.2266	60.5661	32.2266	60.6039	32.2266	60.6037	32.2266	60.6269	32.2266	60.6268	32.2266	60.6347
33.6914	64.0354	33.6914	64.0458	33.6914	64.0323	33.6914	64.0634	33.6914	64.0367	33.6914	64.0876	33.6914	64.0485	33.6914	64.118	33.6914	64.0673	33.6914	64.1536	33.6914	64.0928	33.6914	64.1937	33.6914	64.1244	33.6914	64.2371	33.6914	64.1612	33.6914	64.2826	33.6914	64.2023	33.6914	64.329	33.6914	64.2467	33.6914	64.3749	33.6914	64.293	33.6914	64.4188	33.6914	64.3399	33.6914	64.4593	33.6914	64.386	33.6914	64.495	33.6914	64.4297	33.6914	64.5247	33.6914	64.4695	33.6914	64.5472	33.6914	64.5041	33.6914	64.5617	33.6914	64.5321	33.6914	64.5676	33.6914	64.5525	33.6914	64.5645
35.1562	67.1752	35.1562	67.1799	35.1562	67.1765	35.1562	67.1905	35.1562	67.1838	35.1562	67.2067	35.1562	67.1969	35.1562	67.2282	35.1562	67.2156	35.1562	67.2543	35.1562	67.2393	35.1562	67.2845	35.1562	67.2675	35.1562	67.318	35.1562	67.2996	35.1562	67.3539	35.1562	67.3345	35.1562	67.3912	35.1562	67.3715	35.1562	67.4287	35.1562	67.4094	35.1562	67.4655	35.1562	67.4471	35.1562	67.5003	35.1562	67.4834	35.1562	67.5319	35.1562	67.517	35.1562	67.5593	35.1562	67.5468	35.1562	67.5814	35.1562	67.5717	35.1562	67.5973	35.1562	67.5908	35.1562	67.6065	35.1562	67.6032	35.1562	67.6085
36.6211	70.3508	36.6211	70.3524	36.6211	70.354	36.6211	70.3589	36.6211	70.362	36.6211	70.3701	36.6211	70.3746	36.6211	70.3856	36.6211	70.3916	36.6211	70.4051	36.6211	70.4123	36.6211	70.4281	36.6211	70.4365	36.6211	70.4539	36.6211	70.4633	36.6211	70.482	36.6211	70.4921	36.6211	70.5115	36.6211	70.522	36.6211	70.5415	36.6211	70.5522	36.6211	70.5712	36.6211	70.5818	36.6211	70.5997	36.6211	70.6098	36.6211	70.6261	36.6211	70.6352	36.6211	70.6493	36.6211	70.6572	36.6211	70.6687	36.6211	70.675	36.6211	70.6835	36.6211	70.6879	36.6211	70.6931	36.6211	70.6954	36.6211	70.6971
38.0859	73.2218	38.0859	73.2229	38.0859	73.2247	38.0859	73.2279	38.0859	73.2315	38.0859	73.2368	38.0859	73.242	38.0859	73.2492	38.0859	73.2559	38.0859	73.265	38.0859	73.273	38.0859	73.2836	38.0859	73.2927	38.0859	73.3046	38.0859	73.3146	38.0859	73.3274	38.0859	73.338	38.0859	73.3515	38.0859	73.3623	38.0859	73.376	38.0859	73.3867	38.0859	73.4004	38.0859	73.4107	38.0859	73.4237	38.0859	73.4333	38.0859	73.4453	38.0859	73.4538	38.0859	73.4644	38.0859	73.4716	38.0859	73.4803	38.0859	73.486	38.0859	73.4925	38.0859	73.4964	38.0859	73.5004	38.0859	73.5023	38.0859	73.5037
39.5508	75.8345	39.5508	75.8348	39.5508	75.8369	39.5508	75.8379	39.5508	75.842	39.5508	75.8435	39.5508	75.8496	39.5508	75.8517	39.5508	75.8596	39.5508	75.8622	39.5508	75.8716	39.5508	75.8747	39.5508	75.8853	39.5508	75.8888	39.5508	75.9004	39.5508	75.9042	39.5508	75.9163	39.5508	75.9204	39.5508	75.9327	39.5508	75.9369	39.5508	75.9491	39.5508	75.9534	39.5508	75.965	39.5508	75.9691	39.5508	75.9799	39.5508	75.9838	39.5508	75.9933	39.5508	75.9968	39.5508	76.0047	39.5508	76.0077	39.5508	76.0139	39.5508	76.0161	39.5508	76.0203	39.5508	76.0217	39.5508	76.0238	39.5508	76.0243
41.0156	78.4563	41.0156	78.4551	41.0156	78.4558	41.0156	78.4521	41.0156	78.4536	41.0156	78.4474	41.0156	78.4496	41.0156	78.4411	41.0156	78.4441	41.0156	78.4334	41.0156	78.437	41.0156	78.4243	41.0156	78.4287	41.0156	78.4142	41.0156	78.4192	41.0156	78.4033	41.0156	78.4088	41.0156	78.3918	41.0156	78.3979	41.0156	78.3803	41.0156	78.3867	41.0156	78.3691	41.0156	78.3755	41.0156	78.3585	41.0156	78.3648	41.0156	78.349	41.0156	78.3548	41.0156	78.3408	41.0156	78.3459	41.0156	78.3344	41.0156	78.3385	41.0156	78.3298	41.0156	78.3327	41.0156	78.3274	41.0156	78.3289	41.0156	78.3271
42.4805	80.2432	42.4805	80.2423	42.4805	80.2414	42.4805	80.2386	42.4805	80.2368	42.4805	80.2322	42.4805	80.2296	42.4805	80.2232	42.4805	80.2198	42.4805	80.212	42.4805	80.2079	42.4805	80.1986	42.4805	80.1939	42.4805	80.1836	42.4805	80.1784	42.4805	80.1672	42.4805	80.1617	42.4805	80.15	42.4805	80.1443	42.4805	80.1324	42.4805	80.1267	42.4805	80.1151	42.4805	80.1096	42.4805	80.0986	42.4805	80.0934	42.4805	80.0834	42.4805	80.0787	42.4805	80.07	42.4805	80.0661	42.4805	80.059	42.4805	80.0559	42.4805	80.0507	42.4805	80.0486	42.4805	80.0453	42.4805	80.0443	42.4805	80.0432
43.9453	81.5844	43.9453	81.583	43.9453	81.5821	43.9453	81.578	43.9453	81.5762	43.9453	81.5695	43.9453	81.5669	43.9453	81.5577	43.9453	81.5544	43.9453	81.5429	43.9453	81.5389	43.9453	81.5254	43.9453	81.5209	43.9453	81.5056	43.9453	81.5008	43.9453	81.4842	43.9453	81.4792	43.9453	81.4617	43.9453	81.4567	43.9453	81.4389	43.9453	81.434	43.9453	81.4163	43.9453	81.4118	43.9453	81.3948	43.9453	81.3907	43.9453	81.3752	43.9453	81.3716	43.9453	81.3579	43.9453	81.355	43.9453	81.3438	43.9453	81.3415	43.9453	81.3332	43.9453	81.3316	43.9453	81.3265	43.9453	81.3257	43.9453	81.324
45.4102	82.4816	45.4102	82.4806	45.4102	82.4783	45.4102	82.4754	45.4102	82.4708	45.4102	82.4661	45.4102	82.4593	45.4102	82.4528	45.4102	82.444	45.4102	82.4359	45.4102	82.4253	45.4102	82.4159	45.4102	82.4037	45.4102	82.3932	45.4102	82.3797	45.4102	82.3684	45.4102	82.3541	45.4102	82.3422	45.4102	82.3274	45.4102	82.3155	45.4102	82.3007	45.4102	82.2889	45.4102	82.2746	45.4102	82.2635	45.4102	82.2501	45.4102	82.2399	45.4102	82.2279	45.4102	82.2191	45.4102	82.2089	45.4102	82.2017	45.4102	82.1937	45.4102	82.1883	45.4102	82.1828	45.4102	82.1796	45.4102	82.1768	45.4102	82.1756
46.875	83.1063	46.875	83.1063	46.875	83.1015	46.875	83.1015	46.875	83.0921	46.875	83.0922	46.875	83.0782	46.875	83.0784	46.875	83.0602	46.875	83.0607	46.875	83.0386	46.875	83.0393	46.875	83.0138	46.875	83.015	46.875	82.9866	46.875	82.9883	46.875	82.9578	46.875	82.9601	46.875	82.9282	46.875	82.931	46.875	82.8988	46.875	82.9021	46.875	82.8705	46.875	82.8741	46.875	82.8442	46.875	82.848	46.875	82.8209	46.875	82.8246	46.875	82.8014	46.875	82.8046	46.875	82.7863	46.875	82.7888	46.875	82.7762	46.875	82.7778	46.875	82.7713	46.875	82.7719
48.3398	83.4092	48.3398	83.4074	48.3398	83.4059	48.3398	83.4007	48.3398	83.3977	48.3398	83.3892	48.3398	83.3848	48.3398	83.3733	48.3398	83.3675	48.3398	83.3533	48.3398	83.3464	48.3398	83.3299	48.3398	83.3219	48.3398	83.3037	48.3398	83.2949	48.3398	83.2755	48.3398	83.2662	48.3398	83.2461	48.3398	83.2365	48.3398	83.2165	48.3398	83.2069	48.3398	83.1875	48.3398	83.1783	48.3398	83.1601	48.3398	83.1515	48.3398	83.1352	48.3398	83.1275	48.3398	83.1134	48.3398	83.1069	48.3398	83.0955	48.3398	83.0905	48.3398	83.0821	48.3398	83.0786	48.3398	83.0735	48.3398	83.0717	48.3398	83.07
51.2695	83.7569	51.2695	83.757	51.2695	83.7505	51.2695	83.7509	51.2695	83.738	51.2695	83.7386	51.2695	83.7197	51.2695	83.7207	51.2695	83.6963	51.2695	83.6977	51.2695	83.6683	51.2695	83.6702	51.2695	83.6367	51.2695	83.6393	51.2695	83.6026	51.2695	83.6058	51.2695	83.567	51.2695	83.5708	51.2695	83.5311	51.2695	83.5355	51.2695	83.4961	51.2695	83.501	51.2695	83.4631	51.2695	83.4682	51.2695	83.4332	51.2695	83.4383	51.2695	83.4072	51.2695	83.4119	51.2695	83.3858	51.2695	83.3899	51.2695	83.3695	51.2695	83.3727	51.2695	83.3587	51.2695	83.3607	51.2695	83.3536	51.2695	83.3543
52.7344	83.7793	52.7344	83.7776	52.7344	83.7744	52.7344	83.7695	52.7344	83.7631	52.7344	83.7552	52.7344	83.7458	52.7344	83.7353	52.7344	83.723	52.7344	83.7102	52.7344	83.6954	52.7344	83.6809	52.7344	83.664	52.7344	83.6484	52.7344	83.6297	52.7344	83.6137	52.7344	83.5937	52.7344	83.5779	52.7344	83.5572	52.7344	83.5422	52.7344	83.5215	52.7344	83.5078	52.7344	83.4877	52.7344	83.4756	52.7344	83.4567	52.7344	83.4466	52.7344	83.4296	52.7344	83.4215	52.7344	83.4071	52.7344	83.4009	52.7344	83.3896	52.7344	83.3853	52.7344	83.3775	52.7344	83.375	52.7344	83.371	52.7344	83.3702
54.1992	83.7544	54.1992	83.7525	54.1992	83.7494	54.1992	83.7437	54.1992	83.7376	54.1992	83.7283	54.1992	83.7193	54.1992	83.707	54.1992	83.6952	54.1992	83.6803	54.1992	83.666	54.1992	83.6493	54.1992	83.6328	54.1992	83.6149	54.1992	83.5967	54.1992	83.5785	54.1992	83.5589	54.1992	83.5411	54.1992	83.5208	54.1992	83.5041	54.1992	83.4837	54.1992	83.4685	54.1992	83.4487	54.1992	83.4355	54.1992	83.4168	54.1992	83.4059	54.1992	83.3891	54.1992	83.3805	54.1992	83.3662	54.1992	83.3597	54.1992	83.3485	54.1992	83.3441	54.1992	83.3363	54.1992	83.3338	54.1992	83.3298	54.1992	83.329
55.6641	83.6763	55.6641	83.6743	55.6641	83.6707	55.6641	83.665	55.6641	83.6579	55.6641	83.6485	55.6641	83.6381	55.6641	83.6256	55.6641	83.6121	55.6641	83.597	55.6641	83.5807	55.6641	83.5637	55.6641	83.5452	55.6641	83.527	55.6641	83.5066	55.6641	83.488	55.6641	83.4664	55.6641	83.4482	55.6641	83.426	55.6641	83.4089	55.6641	83.3868	55.6641	83.3712	55.6641	83.35	55.6641	83.3365	55.6641	83.3168	55.6641	83.3054	55.6641	83.2879	55.6641	83.2789	55.6641	83.2641	55.6641	83.2574	55.6641	83.2458	55.6641	83.2412	55.6641	83.2333	55.6641	83.2306	55.6641	83.2266	55.6641	83.2257
58.5938	83.5116	58.5938	83.5083	58.5938	83.5063	58.5938	83.4966	58.5938	83.4926	58.5938	83.4769	58.5938	83.471	58.5938	83.4499	58.5938	83.4423	58.5938	83.4167	58.5938	83.4075	58.5938	83.3784	58.5938	83.3679	58.5938	83.3365	58.5938	83.325	58.5938	83.2925	58.5938	83.2803	58.5938	83.248	58.5938	83.2356	58.5938	83.2046	58.5938	83.1922	58.5938	83.1636	58.5938	83.1517	58.5938	83.1262	58.5938	83.1153	58.5938	83.0935	58.5938	83.0838	58.5938	83.066	58.5938	83.0578	58.5938	83.0441	58.5938	83.0378	58.5938	83.0281	58.5938	83.0238	58.5938	83.018	58.5938	83.0158	58.5938	83.0139
60.0586	83.4222	60.0586	83.4183	60.0586	83.417	60.0586	83.4054	60.0586	83.4029	60.0586	83.3841	60.0586	83.3804	60.0586	83.355	60.0586	83.3503	60.0586	83.3194	60.0586	83.3138	60.0586	83.2785	60.0586	83.2721	60.0586	83.2339	60.0586	83.227	60.0586	83.1872	60.0586	83.1801	60.0586	83.1402	60.0586	83.1331	60.0586	83.0946	60.0586	83.0877	60.0586	83.0517	60.0586	83.0453	60.0586	83.0129	60.0586	83.0071	60.0586	82.9792	60.0586	82.9741	60.0586	82.9511	60.0586	82.947	60.0586	82.929	60.0586	82.9259	60.0586	82.9131	60.0586	82.911	60.0586	82.9034	60.0586	82.9023	60.0586	82.8998
62.9883	83.2966	62.9883	83.2914	62.9883	83.2915	62.9883	83.2762	62.9883	83.2764	62.9883	83.2515	62.9883	83.2518	62.9883	83.2182	62.9883	83.2186	62.9883	83.1776	62.9883	83.1782	62.9883	83.1313	62.9883	83.1321	62.9883	83.0811	62.9883	83.082	62.9883	83.0288	62.9883	83.03	62.9883	82.9765	62.9883	82.9779	62.9883	82.9261	62.9883	82.9276	62.9883	82.8792	62.9883	82.8808	62.9883	82.8371	62.9883	82.8388	62.9883	82.8009	62.9883	82.8026	62.9883	82.7712	62.9883	82.7727	62.9883	82.7483	62.9883	82.7495	62.9883	82.7321	62.9883	82.733	62.9883	82.7226	62.9883	82.7231	62.9883	82.7196
64.4531	83.2494	64.4531	83.244	64.4531	83.2442	64.4531	83.2282	64.4531	83.2285	64.4531	83.2025	64.4531	83.203	64.4531	83.168	64.4531	83.1686	64.4531	83.1258	64.4531	83.1267	64.4531	83.0777	64.4531	83.0787	64.4531	83.0256	64.4531	83.0267	64.4531	82.9713	64.4531	82.9725	64.4531	82.917	64.4531	82.9183	64.4531	82.8645	64.4531	82.8658	64.4531	82.8157	64.4531	82.817	64.4531	82.7719	64.4531	82.7731	64.4531	82.7341	64.4531	82.7353	64.4531	82.7031	64.4531	82.7041	64.4531	82.6791	64.4531	82.6799	64.4531	82.6621	64.4531	82.6626	64.4531	82.652	64.4531	82.6523	64.4531	82.6488
67.3828	83.1498	67.3828	83.1436	67.3828	83.1452	67.3828	83.1268	67.3828	83.13	67.3828	83.1001	67.3828	83.1049	67.3828	83.0644	67.3828	83.0707	67.3828	83.0212	67.3828	83.0291	67.3828	82.9721	67.3828	82.9815	67.3828	82.9193	67.3828	82.9299	67.3828	82.8647	67.3828	82.8764	67.3828	82.8106	67.3828	82.8231	67.3828	82.7588	67.3828	82.7717	67.3828	82.7111	67.3828	82.724	67.3828	82.669	67.3828	82.6813	67.3828	82.6332	67.3828	82.6445	67.3828	82.6044	67.3828	82.6141	67.3828	82.5826	67.3828	82.5903	67.3828	82.5677	67.3828	82.5731	67.3828	82.5596	67.3828	82.5623	67.3828	82.5578
68.8477	83.1199	68.8477	83.1136	68.8477	83.1151	68.8477	83.0965	68.8477	83.0995	68.8477	83.0692	68.8477	83.0738	68.8477	83.0328	68.8477	83.039	68.8477	82.9888	68.8477	82.9966	68.8477	82.9391	68.8477	82.9485	68.8477	82.8856	68.8477	82.8965	68.8477	82.8307	68.8477	82.8429	68.8477	82.7764	68.8477	82.7897	68.8477	82.7249	68.8477	82.7389	68.8477	82.6779	68.8477	82.6921	68.8477	82.6367	68.8477	82.6505	68.8477	82.6021	68.8477	82.615	68.8477	82.5747	68.8477	82.5859	68.8477	82.5542	68.8477	82.5633	68.8477	82.5406	68.8477	82.5469	68.8477	82.5333	68.8477	82.5365	68.8477	82.532
71.7773	83.1024	71.7773	83.0964	71.7773	83.0967	71.7773	83.079	71.7773	83.0797	71.7773	83.051	71.7773	83.0521	71.7773	83.0135	71.7773	83.015	71.7773	82.9683	71.7773	82.9703	71.7773	82.9173	71.7773	82.9198	71.7773	82.8628	71.7773	82.8658	71.7773	82.8071	71.7773	82.8106	71.7773	82.7527	71.7773	82.7567	71.7773	82.7015	71.7773	82.7059	71.7773	82.6554	71.7773	82.66	71.7773	82.6155	71.7773	82.6201	71.7773	82.5826	71.7773	82.587	71.7773	82.5567	71.7773	82.5607	71.7773	82.5376	71.7773	82.5409	71.7773	82.5248	71.7773	82.5271	71.7773	82.5177	71.7773	82.5189	71.7773	82.5158
74.707	83.1257	74.707	83.1182	74.707	83.1193	74.707	83.097	74.707	83.0992	74.707	83.0633	74.707	83.0664	74.707	83.0185	74.707	83.0223	74.707	82.9647	74.707	82.9691	74.707	82.9045	74.707	82.9092	74.707	82.8408	74.707	82.8455	74.707	82.7765	74.707	82.781	74.707	82.7147	74.707	82.7187	74.707	82.6578	74.707	82.6611	74.707	82.608	74.707	82.6104	74.707	82.5664	74.707	82.5679	74.707	82.5334	74.707	82.5341	74.707	82.5088	74.707	82.5089	74.707	82.4915	74.707	82.4912	74.707	82.4803	74.707	82.48	74.707	82.4741	74.707	82.4739	74.707	82.4721
77.6367	83.138	77.6367	83.1291	77.6367	83.1321	77.6367	83.1058	77.6367	83.1118	77.6367	83.0693	77.6367	83.078	77.6367	83.0213	77.6367	83.0323	77.6367	82.9641	77.6367	82.9769	77.6367	82.9005	77.6367	82.9146	77.6367	82.8337	77.6367	82.8483	77.6367	82.767	77.6367	82.7815	77.6367	82.7034	77.6367	82.7172	77.6367	82.6458	77.6367	82.6582	77.6367	82.5961	77.6367	82.6067	77.6367	82.5555	77.6367	82.5641	77.6367	82.5243	77.6367	82.5309	77.6367	82.5017	77.6367	82.5064	77.6367	82.4866	77.6367	82.4897	77.6367	82.4774	77.6367	82.4793	77.6367	82.4727	77.6367	82.4735	77.6367	82.4715
79.1016	83.1529	79.1016	83.1435	79.1016	83.1471	79.1016	83.1193	79.1016	83.1265	79.1016	83.0814	79.1016	83.0919	79.1016	83.0317	79.1016	83.045	79.1016	82.9727	79.1016	82.9882	79.1016	82.9071	79.1016	82.9242	79.1016	82.8384	79.1016	82.8563	79.1016	82.7699	79.1016	82.7878	79.1016	82.7048	79.1016	82.722	79.1016	82.646	79.1016	82.6617	79.1016	82.5955	79.1016	82.6092	79.1016	82.5545	79.1016	82.5658	79.1016	82.5232	79.1016	82.5321	79.1016	82.5008	79.1016	82.5074	79.1016	82.4861	79.1016	82.4906	79.1016	82.4773	79.1016	82.48	79.1016	82.4729	79.1016	82.4742	79.1016	82.472
82.0312	83.1696	82.0312	83.1592	82.0312	83.1641	82.0312	83.1333	82.0312	83.1429	82.0312	83.0931	82.0312	83.1071	82.0312	83.0406	82.0312	83.0584	82.0312	82.9785	82.0312	82.9994	82.0312	82.9099	82.0312	82.9331	82.0312	82.8383	82.0312	82.8628	82.0312	82.7674	82.0312	82.7922	82.0312	82.7007	82.0312	82.7248	82.0312	82.6412	82.0312	82.6634	82.0312	82.5908	82.0312	82.6105	82.0312	82.5507	82.0312	82.5674	82.0312	82.5209	82.0312	82.5344	82.0312	82.5005	82.0312	82.5107	82.0312	82.4877	82.0312	82.495	82.0312	82.4807	82.0312	82.4853	82.0312	82.4777	82.0312	82.4799	82.0312	82.4776
84.9609	83.2451	84.9609	83.2331	84.9609	83.2406	84.9609	83.2051	84.9609	83.2198	84.9609	83.1623	84.9609	83.1839	84.9609	83.1071	84.9609	83.1349	84.9609	83.0424	84.9609	83.0754	84.9609	82.9715	84.9609	83.0086	84.9609	82.8985	84.9609	82.9383	84.9609	82.8271	84.9609	82.8682	84.9609	82.7612	84.9609	82.8019	84.9609	82.7037	84.9609	82.7425	84.9609	82.6568	84.9609	82.6923	84.9609	82.6212	84.9609	82.6524	84.9609	82.5966	84.9609	82.6228	84.9609	82.5817	84.9609	82.6024	84.9609	82.5741	84.9609	82.5894	84.9609	82.5716	84.9609	82.5816	84.9609	82.572	84.9609	82.5769	84.9609	82.5739
87.8906	83.3605	87.8906	83.3488	87.8906	83.3544	87.8906	83.32	87.8906	83.3311	87.8906	83.2755	87.8906	83.2919	87.8906	83.2177	87.8906	83.239	87.8906	83.1496	87.8906	83.1754	87.8906	83.0751	87.8906	83.1048	87.8906	82.9986	87.8906	83.0311	87.8906	82.9243	87.8906	82.9587	87.8906	82.8565	87.8906	82.8915	87.8906	82.7984	87.8906	82.8326	87.8906	82.7522	87.8906	82.7845	87.8906	82.7189	87.8906	82.748	87.8906	82.6976	87.8906	82.7228	87.8906	82.6866	87.8906	82.7072	87.8906	82.6832	87.8906	82.6987	87.8906	82.6842	87.8906	82.6945	87.8906	82.687	87.8906	82.6922	87.8906	82.6899
90.8203	83.4772	90.8203	83.4655	90.8203	83.4699	90.8203	83.4354	90.8203	83.444	90.8203	83.3884	90.8203	83.4011	90.8203	83.3269	90.8203	83.3436	90.8203	83.2543	90.8203	83.2746	90.8203	83.1747	90.8203	83.1982	90.8203	83.0927	90.8203	83.1189	90.8203	83.0131	90.8203	83.0411	90.8203	82.9404	90.8203	82.9693	90.8203	82.8782	90.8203	82.907	90.8203	82.829	90.8203	82.8567	90.8203	82.7939	90.8203	82.8194	90.8203	82.7719	90.8203	82.7944	90.8203	82.7612	90.8203	82.7799	90.8203	82.7584	90.8203	82.7729	90.8203	82.7604	90.8203	82.7701	90.8203	82.7639	90.8203	82.7689	90.8203	82.767
95.2148	83.5728	95.2148	83.5619	95.2148	83.5632	95.2148	83.531	95.2148	83.5335	95.2148	83.4818	95.2148	83.4853	95.2148	83.4169	95.2148	83.4212	95.2148	83.34	95.2148	83.3448	95.2148	83.2555	95.2148	83.2604	95.2148	83.1684	95.2148	83.1729	95.2148	83.0837	95.2148	83.0876	95.2148	83.0064	95.2148	83.0093	95.2148	82.9404	95.2148	82.9421	95.2148	82.8883	95.2148	82.8888	95.2148	82.8511	95.2148	82.8506	95.2148	82.8279	95.2148	82.8266	95.2148	82.8163	95.2148	82.8145	95.2148	82.8128	95.2148	82.811	95.2148	82.8136	95.2148	82.8122	95.2148	82.8155	95.2148	82.8147	95.2148	82.8161
98.1445	83.6616	98.1445	83.6494	98.1445	83.652	98.1445	83.616	98.1445	83.6209	98.1445	83.5631	98.1445	83.5701	98.1445	83.4936	98.1445	83.5021	98.1445	83.4113	98.1445	83.4206	98.1445	83.321	98.1445	83.3303	98.1445	83.2279	98.1445	83.2364	98.1445	83.1375	98.1445	83.1444	98.1445	83.055	98.1445	83.0596	98.1445	82.9847	98.1445	82.9865	98.1445	82.9293	98.1445	82.9283	98.1445	82.8897	98.1445	82.8863	98.1445	82.865	98.1445	82.8598	98.1445	82.8526	98.1445	82.8466	98.1445	82.8486	98.1445	82.8428	98.1445	82.849	98.1445	82.8445	98.1445	82.8503	98.1445	82.8479	98.1445	82.8502
101.074	83.747	101.074	83.733	101.074	83.7382	101.074	83.6968	101.074	83.7071	101.074	83.6402	101.074	83.6553	101.074	83.5662	101.074	83.5857	101.074	83.4787	101.074	83.502	101.074	83.3827	101.074	83.4089	101.074	83.2837	101.074	83.3118	101.074	83.1875	101.074	83.2163	101.074	83.0996	101.074	83.1279	101.074	83.0246	101.074	83.0511	101.074	82.9655	101.074	82.9893	101.074	82.9235	101.074	82.9438	101.074	82.8977	101.074	82.9141	101.074	82.8851	101.074	82.8976	101.074	82.882	101.074	82.8908	101.074	82.884	101.074	82.8896	101.074	82.8875	101.074	82.8901	101.074	82.8898
105.469	83.8022	105.469	83.7881	105.469	83.7927	105.469	83.7512	105.469	83.7603	105.469	83.6933	105.469	83.7068	105.469	83.6174	105.469	83.6352	105.469	83.5278	105.469	83.5497	105.469	83.4296	105.469	83.4551	105.469	83.3288	105.469	83.3574	105.469	83.2315	105.469	83.2624	105.469	83.1434	105.469	83.1757	105.469	83.0694	105.469	83.1021	105.469	83.0126	105.469	83.0444	105.469	82.974	105.469	83.0038	105.469	82.9524	105.469	82.9791	105.469	82.9447	105.469	82.9673	105.469	82.9466	105.469	82.9642	105.469	82.9532	105.469	82.9652	105.469	82.9603	105.469	82.9665	105.469	82.9651
108.398	83.767	108.398	83.7523	108.398	83.7575	108.398	83.7143	108.398	83.7246	108.398	83.655	108.398	83.6701	108.398	83.5777	108.398	83.5973	108.398	83.487	108.398	83.5107	108.398	83.3885	108.398	83.4156	108.398	83.2884	108.398	83.3182	108.398	83.1931	108.398	83.225	108.398	83.1087	108.398	83.1417	108.398	83.04	108.398	83.0731	108.398	82.9899	108.398	83.022	108.398	82.9591	108.398	82.9892	108.398	82.9457	108.398	82.9728	108.398	82.946	108.398	82.969	108.398	82.9549	108.398	82.9731	108.398	82.9671	108.398	82.9796	108.398	82.9778	108.398	82.9843	108.398	82.984
112.793	83.7562	112.793	83.7425	112.793	83.7441	112.793	83.7037	112.793	83.7068	112.793	83.6421	112.793	83.6464	112.793	83.5613	112.793	83.5666	112.793	83.4664	112.793	83.4721	112.793	83.3636	112.793	83.3691	112.793	83.2598	112.793	83.2645	112.793	83.1621	112.793	83.1656	112.793	83.0771	112.793	83.0789	112.793	83.0101	112.793	83.01	112.793	82.964	112.793	82.9621	112.793	82.9389	112.793	82.9356	112.793	82.9324	112.793	82.9281	112.793	82.9397	112.793	82.935	112.793	82.9544	112.793	82.9501	112.793	82.9703	112.793	82.967	112.793	82.9818	112.793	82.9801	112.793	82.9855
117.188	83.7938	117.188	83.7796	117.188	83.7793	117.188	83.7373	117.188	83.7367	117.188	83.6693	117.188	83.6684	117.188	83.5796	117.188	83.5784	117.188	83.4735	117.188	83.472	117.188	83.3579	117.188	83.3559	117.188	83.2403	117.188	83.2377	117.188	83.1289	117.188	83.1256	117.188	83.0311	117.188	83.027	117.188	82.9531	117.188	82.9481	117.188	82.8984	117.188	82.8924	117.188	82.8673	117.188	82.8608	117.188	82.8573	117.188	82.8505	117.188	82.863	117.188	82.8565	117.188	82.8775	117.188	82.872	117.188	82.8938	117.188	82.8898	117.188	82.9058	117.188	82.9037	117.188	82.9095
120.117	83.8936	120.117	83.876	120.117	83.8804	120.117	83.8284	120.117	83.837	120.117	83.7534	120.117	83.766	120.117	83.655	120.117	83.6711	120.117	83.539	120.117	83.558	120.117	83.4125	120.117	83.4334	120.117	83.2837	120.117	83.3055	120.117	83.1614	120.117	83.1825	120.117	83.0535	120.117	83.0728	120.117	82.9667	120.117	82.9828	120.117	82.9048	120.117	82.917	120.117	82.8685	120.117	82.8764	120.117	82.8548	120.117	82.8589	120.117	82.8582	120.117	82.8593	120.117	82.8715	120.117	82.8707	120.117	82.8872	120.117	82.8858	120.117	82.8991	120.117	82.8981	120.117	82.9031
124.512	84.0241	124.512	84.007	124.512	84.0096	124.512	83.9592	124.512	83.9647	124.512	83.883	124.512	83.8918	124.512	83.7829	124.512	83.7955	124.512	83.6648	124.512	83.6817	124.512	83.5362	124.512	83.558	124.512	83.4061	124.512	83.4329	124.512	83.2838	124.512	83.3154	124.512	83.1782	124.512	83.2138	124.512	83.0964	124.512	83.1347	124.512	83.0425	124.512	83.0818	124.512	83.0171	124.512	83.0553	124.512	83.0164	124.512	83.0516	124.512	83.034	124.512	83.0642	124.512	83.0613	124.512	83.0851	124.512	83.0896	124.512	83.106	124.512	83.1116	124.512	83.12	124.512	83.1224
128.906	84.0405	128.906	84.0221	128.906	84.0246	128.906	83.9702	128.906	83.9755	128.906	83.8871	128.906	83.8959	128.906	83.7774	128.906	83.7907	128.906	83.6473	128.906	83.666	128.906	83.5049	128.906	83.53	128.906	83.3598	128.906	83.3919	128.906	83.2225	128.906	83.2615	128.906	83.1029	128.906	83.148	128.906	83.0094	128.906	83.0591	128.906	82.9471	128.906	82.9989	128.906	82.9169	128.906	82.9679	128.906	82.9151	128.906	82.9624	128.906	82.9343	128.906	82.9752	128.906	82.9649	128.906	82.9973	128.906	82.9972	128.906	83.0194	128.906	83.0226	128.906	83.0339	128.906	83.0355
133.301	84.0469	133.301	84.0352	133.301	84.0228	133.301	83.9883	133.301	83.9641	133.301	83.9087	133.301	83.8736	133.301	83.8005	133.301	83.7562	133.301	83.6696	133.301	83.6183	133.301	83.5237	133.301	83.4684	133.301	83.372	133.301	83.3162	133.301	83.2249	133.301	83.1722	133.301	83.0925	133.301	83.0464	133.301	82.9836	133.301	82.9468	133.301	82.9044	133.301	82.8783	133.301	82.8569	133.301	82.8413	133.301	82.8385	133.301	82.832	133.301	82.843	133.301	82.843	133.301	82.8614	133.301	82.8649	133.301	82.884	133.301	82.8881	133.301	82.9022	133.301	82.9048	133.301	82.91
139.16	83.9844	139.16	83.9717	139.16	83.9618	139.16	83.9251	139.16	83.9045	139.16	83.8476	139.16	83.815	139.16	83.744	139.16	83.6978	139.16	83.621	139.16	83.5594	139.16	83.4866	139.16	83.4085	139.16	83.3499	139.16	83.2551	139.16	83.2207	139.16	83.1103	139.16	83.1078	139.16	82.9847	139.16	83.0182	139.16	82.8868	139.16	82.9557	139.16	82.822	139.16	82.9205	139.16	82.791	139.16	82.9087	139.16	82.7898	139.16	82.9135	139.16	82.8111	139.16	82.9261	139.16	82.8452	139.16	82.9383	139.16	82.8823	139.16	82.9427	139.16	82.9142	139.16	82.9351
143.555	83.7096	143.555	83.6855	143.555	83.6964	143.555	83.6256	143.555	83.6466	143.555	83.5336	143.555	83.5631	143.555	83.4153	143.555	83.451	143.555	83.2788	143.555	83.3178	143.555	83.1341	143.555	83.1733	143.555	82.9925	143.555	83.0288	143.555	82.8658	143.555	82.8966	143.555	82.7646	143.555	82.788	143.555	82.6967	143.555	82.712	143.555	82.6651	143.555	82.6726	143.555	82.668	143.555	82.669	143.555	82.6982	143.555	82.6947	143.555	82.7454	143.555	82.7395	143.555	82.7976	143.555	82.7914	143.555	82.8438	143.555	82.8386	143.555	82.8746	143.555	82.8718	143.555	82.8846
147.949	83.7478	147.949	83.7235	147.949	83.731	147.949	83.6596	147.949	83.674	147.949	83.5598	147.949	83.5797	147.949	83.4302	147.949	83.4536	147.949	83.2791	147.949	83.3035	147.949	83.1175	147.949	83.1399	147.949	82.9583	147.949	82.9755	147.949	82.8151	147.949	82.8243	147.949	82.7007	147.949	82.7001	147.949	82.6247	147.949	82.614	147.949	82.5917	147.949	82.5722	147.949	82.5997	147.949	82.5741	147.949	82.6405	147.949	82.6123	147.949	82.7015	147.949	82.6744	147.949	82.7679	147.949	82.7449	147.949	82.8257	147.949	82.8092	147.949	82.8634	147.949	82.8548	147.949	82.8739
153.809	83.8912	153.809	83.862	153.809	83.8766	153.809	83.7902	153.809	83.8191	153.809	83.6792	153.809	83.7213	153.809	83.5343	153.809	83.5882	153.809	83.3636	153.809	83.4269	153.809	83.1776	153.809	83.247	153.809	82.9889	153.809	83.0605	153.809	82.8121	153.809	82.8813	153.809	82.6616	153.809	82.7237	153.809	82.5496	153.809	82.6006	153.809	82.4834	153.809	82.5209	153.809	82.4636	153.809	82.4873	153.809	82.4835	153.809	82.495	153.809	82.5306	153.809	82.5332	153.809	82.5892	153.809	82.5867	153.809	82.6437	153.809	82.6397	153.809	82.6812	153.809	82.6785	153.809	82.6936
159.668	83.6792	159.668	83.6514	159.668	83.6659	159.668	83.5838	159.668	83.6127	159.668	83.4797	159.668	83.5224	159.668	83.3446	159.668	83.4005	159.668	83.1864	159.668	83.254	159.668	83.0151	159.668	83.0924	159.668	82.8425	159.668	82.9266	159.668	82.6812	159.668	82.7686	159.668	82.5435	159.668	82.6301	159.668	82.4393	159.668	82.521	159.668	82.3743	159.668	82.4478	159.668	82.349	159.668	82.4117	159.668	82.358	159.668	82.4086	159.668	82.3913	159.668	82.4299	159.668	82.4363	159.668	82.4637	159.668	82.4805	159.668	82.4979	159.668	82.5132	159.668	82.5216	159.668	82.5276
165.527	83.3651	165.527	83.33	165.527	83.3534	165.527	83.2496	165.527	83.296	165.527	83.1285	165.527	83.197	165.527	82.9742	165.527	83.0631	165.527	82.7974	165.527	82.9041	165.527	82.6114	165.527	82.732	165.527	82.4316	165.527	82.5607	165.527	82.2736	165.527	82.4047	165.527	82.1511	165.527	82.2773	165.527	82.0736	165.527	82.1884	165.527	82.044	165.527	82.1425	165.527	82.0581	165.527	82.1377	165.527	82.1057	165.527	82.1663	165.527	82.1729	165.527	82.2161	165.527	82.2447	165.527	82.2733	165.527	82.3074	165.527	82.3245	165.527	82.3507	165.527	82.3586	165.527	82.3683
171.387	83.3222	171.387	83.2832	171.387	83.311	171.387	83.1953	171.387	83.2511	171.387	83.0628	171.387	83.1472	171.387	82.8934	171.387	83.0063	171.387	82.6982	171.387	82.8385	171.387	82.4918	171.387	82.6564	171.387	82.2914	171.387	82.4745	171.387	82.1149	171.387	82.3082	171.387	81.9787	171.387	82.1718	171.387	81.8941	171.387	82.076	171.387	81.8648	171.387	82.026	171.387	81.8859	171.387	82.0202	171.387	81.9452	171.387	82.0504	171.387	82.0264	171.387	82.1036	171.387	82.112	171.387	82.1646	171.387	82.1867	171.387	82.2187	171.387	82.2388	171.387	82.2539	171.387	82.2617
177.246	83.1267	177.246	83.0982	177.246	83.0969	177.246	83.012	177.246	83.0114	177.246	82.8722	177.246	82.8761	177.246	82.6866	177.246	82.7007	177.246	82.4674	177.246	82.4987	177.246	82.2315	177.246	82.2875	177.246	82.0002	177.246	82.0871	177.246	81.797	177.246	81.918	177.246	81.6447	177.246	81.7977	177.246	81.5596	177.246	81.7367	177.246	81.5475	177.246	81.7362	177.246	81.6016	177.246	81.7871	177.246	81.7044	177.246	81.8732	177.246	81.8328	177.246	81.9749	177.246	81.9634	177.246	82.0725	177.246	82.0762	177.246	82.1495	177.246	82.1567	177.246	82.1935	177.246	82.1967
183.105	83.2537	183.105	83.2256	183.105	83.2208	183.105	83.1378	183.105	83.1287	183.105	82.9947	183.105	82.9823	183.105	82.8039	183.105	82.79	183.105	82.577	183.105	82.5644	183.105	82.3296	183.105	82.3224	183.105	82.0815	183.105	82.0847	183.105	81.855	183.105	81.8743	183.105	81.6724	183.105	81.7128	183.105	81.5516	183.105	81.6154	183.105	81.5015	183.105	81.5872	183.105	81.5196	183.105	81.6213	183.105	81.5923	183.105	81.7005	183.105	81.6986	183.105	81.8023	183.105	81.8152	183.105	81.9036	183.105	81.9207	183.105	81.985	183.105	81.9984	183.105	82.0321	183.105	82.0371
188.965	83.2901	188.965	83.2591	188.965	83.26	188.965	83.1681	188.965	83.171	188.965	83.0216	188.965	83.0287	188.965	82.8276	188.965	82.8421	188.965	82.5988	188.965	82.6244	188.965	82.352	188.965	82.3929	188.965	82.1086	188.965	82.1683	188.965	81.8919	188.965	81.9728	188.965	81.7244	188.965	81.8263	188.965	81.6229	188.965	81.7427	188.965	81.5937	188.965	81.7252	188.965	81.6312	188.965	81.7663	188.965	81.7195	188.965	81.849	188.965	81.8366	188.965	81.9517	188.965	81.9594	188.965	82.0525	188.965	82.0676	188.965	82.133	188.965	82.1459	188.965	82.1795	188.965	82.1845
196.289	82.7817	196.289	82.7616	196.289	82.7368	196.289	82.6787	196.289	82.6292	196.289	82.5398	196.289	82.4666	196.289	82.3571	196.289	82.2621	196.289	82.1476	196.289	82.0347	196.289	81.9331	196.289	81.8088	196.289	81.7381	196.289	81.6118	196.289	81.5866	196.289	81.4697	196.289	81.4969	196.289	81.4008	196.289	81.4768	196.289	81.4103	196.289	81.5225	196.289	81.489	196.289	81.6195	196.289	81.6166	196.289	81.7473	196.289	81.7678	196.289	81.8846	196.289	81.9186	196.289	82.0128	196.289	82.0496	196.289	82.1172	196.289	82.1476	196.289	82.1878	196.289	82.2048	196.289	82.2181
203.613	82.5043	203.613	82.4473	203.613	82.4592	203.613	82.29	203.613	82.314	203.613	82.0386	203.613	82.0752	203.613	81.7063	203.613	81.7557	203.613	81.3171	203.613	81.3784	203.613	80.91	203.613	80.9805	203.613	80.5413	203.613	80.6154	203.613	80.2784	203.613	80.3484	203.613	80.1811	203.613	80.2385	203.613	80.2748	203.613	80.3142	203.613	80.5369	203.613	80.5578	203.613	80.9081	203.613	80.914	203.613	81.3187	203.613	81.315	203.613	81.7101	203.613	81.7019	203.613	82.0415	203.613	82.0327	203.613	82.2892	203.613	82.2821	203.613	82.4405	203.613	82.4367	203.613	82.4901
210.938	83.1542	210.938	83.1239	210.938	83.0867	210.938	82.9952	210.938	82.9221	210.938	82.7678	210.938	82.662	210.938	82.4432	210.938	82.3102	210.938	82.0271	210.938	81.8757	210.938	81.5333	210.938	81.3772	210.938	80.9901	210.938	80.8491	210.938	80.4469	210.938	80.3467	210.938	79.9761	210.938	79.9444	210.938	79.6621	210.938	79.7177	210.938	79.5684	210.938	79.7092	210.938	79.7019	210.938	79.9029	210.938	80.0067	210.938	80.231	210.938	80.3942	210.938	80.6073	210.938	80.7799	210.938	80.9567	210.938	81.1018	210.938	81.2266	210.938	81.3214	210.938	81.3856	210.938	81.4184
218.262	83.184	218.262	83.1526	218.262	83.1277	218.262	83.0338	218.262	82.9838	218.262	82.8283	218.262	82.7528	218.262	82.5382	218.262	82.437	218.262	82.1692	218.262	82.0425	218.262	81.733	218.262	81.5827	218.262	81.2524	218.262	81.0824	218.262	80.7646	218.262	80.5832	218.262	80.3236	218.262	80.1438	218.262	79.9925	218.262	79.8309	218.262	79.8244	218.262	79.6963	218.262	79.8369	218.262	79.7502	218.262	80.0013	218.262	79.9538	218.262	80.2557	218.262	80.2378	218.262	80.5305	218.262	80.5299	218.262	80.7673	218.262	80.7733	218.262	80.9259	218.262	80.9308	218.262	80.9833
225.586	83.0186	225.586	83.0061	225.586	82.9428	225.586	82.9061	225.586	82.778	225.586	82.7194	225.586	82.5234	225.586	82.4479	225.586	82.1802	225.586	82.0961	225.586	81.7537	225.586	81.6748	225.586	81.2575	225.586	81.2051	225.586	80.7197	225.586	80.7238	225.586	80.1891	225.586	80.286	225.586	79.7374	225.586	79.9584	225.586	79.4459	225.586	79.7994	225.586	79.3731	225.586	79.8308	225.586	79.5204	225.586	80.0236	225.586	79.8281	225.586	80.3115	225.586	80.2069	225.586	80.6189	225.586	80.5737	225.586	80.8825	225.586	80.8687	225.586	81.0582	225.586	81.0562	225.586	81.1199
232.91	82.9221	232.91	82.8747	232.91	82.8836	232.91	82.7421	232.91	82.7572	232.91	82.5239	232.91	82.5399	232.91	82.2198	232.91	82.2285	232.91	81.8311	232.91	81.8212	232.91	81.364	232.91	81.3208	232.91	80.8347	232.91	80.74	232.91	80.2766	232.91	80.11	232.91	79.7463	232.91	79.4903	232.91	79.3215	232.91	78.9715	232.91	79.0806	232.91	78.6564	232.91	79.064	232.91	78.6106	232.91	79.2464	232.91	78.817	232.91	79.5481	232.91	79.1835	232.91	79.8744	232.91	79.5958	232.91	80.146	232.91	79.9604	232.91	80.31	232.91	80.2177	232.91	80.3371
241.699	82.9076	241.699	82.8699	241.699	82.8635	241.699	82.7509	241.699	82.7359	241.699	82.5503	241.699	82.522	241.699	82.2672	241.699	82.2192	241.699	81.9014	241.699	81.826	241.699	81.4558	241.699	81.3451	241.699	80.9408	241.699	80.7879	241.699	80.3809	241.699	80.1828	241.699	79.8223	241.699	79.5832	241.699	79.3363	241.699	79.0712	241.699	79.0071	241.699	78.7417	241.699	78.8974	241.699	78.6602	241.699	79.0091	241.699	78.8191	241.699	79.2765	241.699	79.1382	241.699	79.6017	241.699	79.5089	241.699	79.8937	241.699	79.8377	241.699	80.088	241.699	80.0618	241.699	80.1483
250.488	82.7172	250.488	82.6526	250.488	82.7031	250.488	82.5106	250.488	82.6086	250.488	82.292	250.488	82.4307	250.488	81.9971	250.488	82.1653	250.488	81.6264	250.488	81.8077	250.488	81.1818	250.488	81.3534	250.488	80.6694	250.488	80.8013	250.488	80.1042	250.488	80.1599	250.488	79.517	250.488	79.457	250.488	78.9608	250.488	78.7523	250.488	78.5085	250.488	78.1442	250.488	78.2326	250.488	77.7493	250.488	78.1676	250.488	77.6433	250.488	78.283	250.488	77.8026	250.488	78.4959	250.488	78.1168	250.488	78.7099	250.488	78.4555	250.488	78.8459	250.488	78.7197	250.488	78.855
259.277	83.0177	259.277	82.9531	259.277	83.006	259.277	82.8117	259.277	82.9186	259.277	82.5926	259.277	82.7556	259.277	82.2955	259.277	82.5165	259.277	81.9209	259.277	82.2001	259.277	81.4715	259.277	81.8056	259.277	80.9548	259.277	81.3348	259.277	80.3871	259.277	80.7954	259.277	79.799	259.277	80.2073	259.277	79.2398	259.277	79.609	259.277	78.7741	259.277	79.0605	259.277	78.4644	259.277	78.6351	259.277	78.3413	259.277	78.3917	259.277	78.3825	259.277	78.3413	259.277	78.5217	259.277	78.4363	259.277	78.6788	259.277	78.5952	259.277	78.788	259.277	78.7383	259.277	78.8105
268.066	82.6244	268.066	82.5829	268.066	82.5913	268.066	82.466	268.066	82.486	268.066	82.2744	268.066	82.3122	268.066	82.0106	268.066	82.0752	268.066	81.6799	268.066	81.7817	268.066	81.2912	268.066	81.4412	268.066	80.86	268.066	81.0671	268.066	80.4107	268.066	80.6787	268.066	79.9794	268.066	80.3033	268.066	79.6124	268.066	79.9753	268.066	79.3569	268.066	79.731	268.066	79.2444	268.066	79.5972	268.066	79.2747	268.066	79.5784	268.066	79.4133	268.066	79.6522	268.066	79.6048	268.066	79.7761	268.066	79.7928	268.066	79.9012	268.066	79.933	268.066	79.985	268.066	79.9994
276.855	82.0929	276.855	82.0334	276.855	82.0577	276.855	81.8791	276.855	81.9278	276.855	81.6301	276.855	81.703	276.855	81.287	276.855	81.3837	276.855	80.8533	276.855	80.9716	276.855	80.3382	276.855	80.4731	276.855	79.7622	276.855	79.9042	276.855	79.1653	276.855	79.2983	276.855	78.6143	276.855	78.7155	276.855	78.1988	276.855	78.2438	276.855	78.0042	276.855	77.9784	276.855	78.0648	276.855	77.9749	276.855	78.3371	276.855	78.2089	276.855	78.723	276.855	78.5879	276.855	79.1184	276.855	79.0012	276.855	79.4427	276.855	79.3585	276.855	79.6456	276.855	79.602	276.855	79.701
287.109	81.8631	287.109	81.8155	287.109	81.8232	287.109	81.6756	287.109	81.7009	287.109	81.4391	287.109	81.5014	287.109	81.102	287.109	81.2299	287.109	80.6617	287.109	80.8911	287.109	80.1187	287.109	80.4896	287.109	79.4809	287.109	80.0321	287.109	78.7717	287.109	79.5311	287.109	78.0417	287.109	79.01	287.109	77.3794	287.109	78.5094	287.109	76.903	287.109	78.0869	287.109	76.7124	287.109	77.8041	287.109	76.821	287.109	77.6987	287.109	77.1405	287.109	77.7592	287.109	77.5378	287.109	77.9246	287.109	77.8985	287.109	78.1117	287.109	78.1517	287.109	78.2437	287.109	78.2665
297.363	82.4693	297.363	82.4765	297.363	82.373	297.363	82.3963	297.363	82.1848	297.363	82.2286	297.363	81.9008	297.363	81.9712	297.363	81.5175	297.363	81.6199	297.363	81.033	297.363	81.1704	297.363	80.4506	297.363	80.6209	297.363	79.7843	297.363	79.9788	297.363	79.0683	297.363	79.2701	297.363	78.3679	297.363	78.5526	297.363	77.7816	297.363	77.9229	297.363	77.4176	297.363	77.4987	297.363	77.3366	297.363	77.3616	297.363	77.5065	297.363	77.4965	297.363	77.8211	297.363	77.7988	297.363	78.1598	297.363	78.1395	297.363	78.4298	297.363	78.4172	297.363	78.5754	297.363	78.5713
307.617	82.2839	307.617	82.2534	307.617	82.2377	307.617	82.1474	307.617	82.114	307.617	81.9668	307.617	81.9115	307.617	81.7126	307.617	81.6292	307.617	81.3855	307.617	81.2663	307.617	80.9877	307.617	80.8242	307.617	80.5257	307.617	80.31	307.617	80.016	307.617	79.744	307.617	79.4918	307.617	79.1684	307.617	79.0086	307.617	78.654	307.617	78.6397	307.617	78.2917	307.617	78.4525	307.617	78.1563	307.617	78.4717	307.617	78.2588	307.617	78.6592	307.617	78.5331	307.617	78.9321	307.617	78.873	307.617	79.1997	307.617	79.1799	307.617	79.3902	307.617	79.3866	307.617	79.4587
319.336	82.0365	319.336	81.9958	319.336	81.987	319.336	81.868	319.336	81.8442	319.336	81.656	319.336	81.605	319.336	81.3621	319.336	81.2657	319.336	80.9881	319.336	80.8229	319.336	80.5363	319.336	80.2749	319.336	80.0133	319.336	79.6276	319.336	79.4378	319.336	78.9054	319.336	78.8515	319.336	78.1686	319.336	78.3286	319.336	77.5297	319.336	77.9692	319.336	77.1409	319.336	77.8597	319.336	77.1168	319.336	78.0146	319.336	77.4402	319.336	78.3582	319.336	77.9676	319.336	78.7681	319.336	78.5292	319.336	79.1314	319.336	79.0006	319.336	79.3692	319.336	79.3127	319.336	79.4363
329.59	82.5275	329.59	82.4211	329.59	82.5383	329.59	82.2211	329.59	82.452	329.59	81.9305	329.59	82.2671	329.59	81.5531	329.59	81.9803	329.59	81.0943	329.59	81.5862	329.59	80.5614	329.59	81.0775	329.59	79.9678	329.59	80.4476	329.59	79.3396	329.59	79.6994	329.59	78.7256	329.59	78.8599	329.59	78.2048	329.59	78.0071	329.59	77.8742	329.59	77.2926	329.59	77.8056	329.59	76.9128	329.59	77.9928	329.59	76.9822	329.59	78.3456	329.59	77.4195	329.59	78.7385	329.59	78.016	329.59	79.0608	329.59	78.581	329.59	79.2365	329.59	78.9999	329.59	79.2219
341.309	82.7444	341.309	82.6756	341.309	82.7146	341.309	82.5048	341.309	82.59	341.309	82.2287	341.309	82.3749	341.309	81.8446	341.309	82.0729	341.309	81.3504	341.309	81.6871	341.309	80.7469	341.309	81.2205	341.309	80.0433	341.309	80.6784	341.309	79.2679	341.309	80.0747	341.309	78.4859	341.309	79.4413	341.309	77.8146	341.309	78.8399	341.309	77.4063	341.309	78.3639	341.309	77.3685	341.309	78.1129	341.309	77.6732	341.309	78.1356	341.309	78.1722	341.309	78.3881	341.309	78.6974	341.309	78.7566	341.309	79.1278	341.309	79.1178	341.309	79.3975	341.309	79.3781	341.309	79.4803
353.027	83.2269	353.027	83.1654	353.027	83.1783	353.027	82.9901	353.027	83.0213	353.027	82.6954	353.027	82.7562	353.027	82.2729	353.027	82.3807	353.027	81.7117	353.027	81.8902	353.027	80.9992	353.027	81.2795	353.027	80.1271	353.027	80.5469	353.027	79.106	353.027	79.7059	353.027	77.9984	353.027	78.8059	353.027	76.9747	353.027	77.963	353.027	76.3361	353.027	77.3693	353.027	76.3467	353.027	77.2139	353.027	76.9459	353.027	77.5228	353.027	77.8081	353.027	78.1222	353.027	78.6401	353.027	78.7829	353.027	79.2862	353.027	79.3392	353.027	79.6855	353.027	79.7001	353.027	79.822
366.211	83.5493	366.211	83.5648	366.211	83.4487	366.211	83.4934	366.211	83.2642	366.211	83.3323	366.211	82.9967	366.211	83.0751	366.211	82.6461	366.211	82.7107	366.211	82.2095	366.211	82.2224	366.211	81.6817	366.211	81.5897	366.211	81.057	366.211	80.7941	366.211	80.3376	366.211	79.8319	366.211	79.5478	366.211	78.7417	366.211	78.7562	366.211	77.6532	366.211	78.0921	366.211	76.8263	366.211	77.7159	366.211	76.5521	366.211	77.7158	366.211	76.8758	366.211	78.0209	366.211	77.5326	366.211	78.4502	366.211	78.2134	366.211	78.8274	366.211	78.732	366.211	79.0353	366.211	79.0111
379.395	82.7906	379.395	82.7555	379.395	82.7399	379.395	82.638	379.395	82.5982	379.395	82.4392	379.395	82.3582	379.395	82.1553	379.395	82.0094	379.395	81.776	379.395	81.5359	379.395	81.2844	379.395	80.9166	379.395	80.6596	379.395	80.1283	379.395	79.887	379.395	79.1564	379.395	78.9774	379.395	78.023	379.395	78.0049	379.395	76.8474	379.395	77.1532	379.395	75.9259	379.395	76.7008	379.395	75.6591	379.395	76.8258	379.395	76.1546	379.395	77.4045	379.395	77.0704	379.395	78.1369	379.395	78.0067	379.395	78.7794	379.395	78.7434	379.395	79.2024	379.395	79.1978	379.395	79.3494
392.578	82.839	392.578	82.7827	392.578	82.8124	392.578	82.6458	392.578	82.7033	392.578	82.4321	392.578	82.513	392.578	82.1447	392.578	82.2408	392.578	81.7825	392.578	81.8807	392.578	81.3367	392.578	81.419	392.578	80.791	392.578	80.8355	392.578	80.1264	392.578	80.1096	392.578	79.3343	392.578	79.2352	392.578	78.4422	392.578	78.2501	392.578	77.5528	392.578	77.2835	392.578	76.8726	392.578	76.5858	392.578	76.6369	392.578	76.4163	392.578	76.9006	392.578	76.7863	392.578	77.4619	392.578	77.4294	392.578	78.0457	392.578	78.0506	392.578	78.4609	392.578	78.4709	392.578	78.6129
405.762	82.9272	405.762	82.8562	405.762	82.897	405.762	82.6858	405.762	82.7683	405.762	82.4211	405.762	82.5465	405.762	82.0681	405.762	82.2367	405.762	81.6293	405.762	81.8387	405.762	81.1008	405.762	81.3438	405.762	80.4723	405.762	80.7343	405.762	79.736	405.762	79.9908	405.762	78.9064	405.762	79.1097	405.762	78.0567	405.762	78.1407	405.762	77.3578	405.762	77.2443	405.762	77.0487	405.762	76.7111	405.762	77.2602	405.762	76.7881	405.762	77.8619	405.762	77.3993	405.762	78.5804	405.762	78.2176	405.762	79.1922	405.762	78.9544	405.762	79.5732	405.762	79.4574	405.762	79.6676
420.41	83.4574	420.41	83.4114	420.41	83.3893	420.41	83.2489	420.41	83.2132	420.41	82.9698	420.41	82.938	420.41	82.575	420.41	82.5729	420.41	82.0633	420.41	82.1234	420.41	81.4291	420.41	81.5874	420.41	80.6621	420.41	80.9526	420.41	79.7511	420.41	80.1993	420.41	78.6998	420.41	79.3127	420.41	77.5612	420.41	78.3092	420.41	76.4994	420.41	77.2839	420.41	75.8191	420.41	76.46	420.41	75.7906	420.41	76.1283	420.41	76.3386	420.41	76.3887	420.41	77.1101	420.41	77.0132	420.41	77.7947	420.41	77.6757	420.41	78.2298	420.41	78.1569	420.41	78.3533
435.059	83.5535	435.059	83.5205	435.059	83.4725	435.059	83.3757	435.059	83.2774	435.059	83.1222	435.059	82.9698	435.059	82.7608	435.059	82.5506	435.059	82.2853	435.059	82.0167	435.059	81.6793	435.059	81.3571	435.059	80.9145	435.059	80.5524	435.059	79.9558	435.059	79.5814	435.059	78.7765	435.059	78.4421	435.059	77.4051	435.059	77.2055	435.059	76.0371	435.059	76.1133	435.059	75.1698	435.059	75.6048	435.059	75.3204	435.059	75.9569	435.059	76.3048	435.059	76.8929	435.059	77.4944	435.059	77.9259	435.059	78.4829	435.059	78.7535	435.059	79.1234	435.059	79.2523	435.059	79.3802
451.172	82.9754	451.172	82.9496	451.172	82.901	451.172	82.8257	451.172	82.7284	451.172	82.6068	451.172	82.4622	451.172	82.2929	451.172	82.1062	451.172	81.8753	451.172	81.6581	451.172	81.3325	451.172	81.1046	451.172	80.6304	451.172	80.4204	451.172	79.7282	451.172	79.5744	451.172	78.5955	451.172	78.5477	451.172	77.255	451.172	77.3739	451.172	75.8848	451.172	76.2206	451.172	74.945	451.172	75.4586	451.172	74.9507	451.172	75.4638	451.172	75.7911	451.172	76.1584	451.172	76.8775	451.172	77.0943	451.172	77.7933	451.172	77.9069	451.172	78.378	451.172	78.4258	451.172	78.5894
465.82	83.3088	465.82	83.2529	465.82	83.2695	465.82	83.1106	465.82	83.1327	465.82	82.8955	465.82	82.9014	465.82	82.6194	465.82	82.5788	465.82	82.2846	465.82	82.1625	465.82	81.8766	465.82	81.637	465.82	81.3611	465.82	80.9695	465.82	80.688	465.82	80.1111	465.82	79.8011	465.82	79.004	465.82	78.6577	465.82	77.6057	465.82	77.2742	465.82	75.9617	465.82	75.8356	465.82	74.3981	465.82	74.8343	465.82	73.6807	465.82	74.8035	465.82	74.251	465.82	75.5769	465.82	75.4542	465.82	76.5158	465.82	76.5497	465.82	77.1958	465.82	77.2396	465.82	77.4538
483.398	83.4237	483.398	83.3211	483.398	83.4003	483.398	83.0987	483.398	83.2555	483.398	82.7746	483.398	83.0026	483.398	82.3735	483.398	82.6579	483.398	81.9188	483.398	82.2325	483.398	81.4196	483.398	81.723	483.398	80.8601	483.398	81.1056	483.398	80.1994	483.398	80.3364	483.398	79.3859	483.398	79.3615	483.398	78.3884	483.398	78.1444	483.398	77.2551	483.398	76.733	483.398	76.2115	483.398	75.4095	483.398	75.6861	483.398	74.783	483.398	75.9557	483.398	75.234	483.398	76.7502	483.398	76.3015	483.398	77.5839	483.398	77.3437	483.398	78.1495	483.398	78.0469	483.398	78.3179
499.512	83.2945	499.512	83.2426	499.512	83.2305	499.512	83.0728	499.512	83.0606	499.512	82.7887	499.512	82.8009	499.512	82.3956	499.512	82.4679	499.512	81.8932	499.512	82.0702	499.512	81.2706	499.512	81.5996	499.512	80.5032	499.512	81.0271	499.512	79.5574	499.512	80.3072	499.512	78.4081	499.512	79.3909	499.512	77.0846	499.512	78.2534	499.512	75.7727	499.512	76.955	499.512	74.9233	499.512	75.7588	499.512	74.9955	499.512	75.1729	499.512	75.8386	499.512	75.5104	499.512	76.8853	499.512	76.424	499.512	77.7402	499.512	77.3712	499.512	78.2442	499.512	78.049	499.512	78.3492
517.09	83.2164	517.09	83.1331	517.09	83.1645	517.09	82.9247	517.09	82.9806	517.09	82.6129	517.09	82.6801	517.09	82.2242	517.09	82.2856	517.09	81.7783	517.09	81.8169	517.09	81.2734	517.09	81.2788	517.09	80.6751	517.09	80.6482	517.09	79.9165	517.09	79.871	517.09	78.9097	517.09	78.8703	517.09	77.5706	517.09	77.5691	517.09	75.8861	517.09	75.9544	517.09	74.1284	517.09	74.2678	517.09	73.1962	517.09	73.3104	517.09	73.8381	517.09	73.8271	517.09	75.2806	517.09	75.197	517.09	76.5718	517.09	76.4888	517.09	77.375	517.09	77.3274	517.09	77.6275
536.133	82.967	536.133	82.896	536.133	82.8856	536.133	82.6823	536.133	82.662	536.133	82.3543	536.133	82.3242	536.133	81.953	536.133	81.9116	536.133	81.5165	536.133	81.4609	536.133	81.0575	536.133	80.9863	536.133	80.5443	536.133	80.4618	536.133	79.9003	536.133	79.821	536.133	79.0224	536.133	78.9749	536.133	77.8131	536.133	77.8457	536.133	76.2484	536.133	76.4384	536.133	74.5851	536.133	75.0147	536.133	73.6953	536.133	74.2897	536.133	74.3439	536.133	74.8201	536.133	75.8045	536.133	76.0657	536.133	77.125	536.133	77.2434	536.133	77.9614	536.133	78.0048	536.133	78.2528
555.176	82.9987	555.176	82.9046	555.176	82.9258	555.176	82.6567	555.176	82.6918	555.176	82.2863	555.176	82.3218	555.176	81.8378	555.176	81.8569	555.176	81.3551	555.176	81.3434	555.176	80.8574	555.176	80.8087	555.176	80.3167	555.176	80.236	555.176	79.6537	555.176	79.5531	555.176	78.7557	555.176	78.6486	555.176	77.5074	555.176	77.4075	555.176	75.8544	555.176	75.7837	555.176	74.0105	555.176	74.0224	555.176	72.9	555.176	73.0605	555.176	73.5174	555.176	73.7579	555.176	75.0908	555.176	75.2952	555.176	76.5143	555.176	76.6499	555.176	77.4159	555.176	77.4825	555.176	77.7386
574.219	83.4851	574.219	83.3697	574.219	83.4188	574.219	83.0789	574.219	83.1793	574.219	82.6358	574.219	82.7885	574.219	82.0813	574.219	82.2805	574.219	81.4664	574.219	81.6953	574.219	80.832	574.219	81.0622	574.219	80.1756	574.219	80.3766	574.219	79.4294	574.219	79.5797	574.219	78.4648	574.219	78.5563	574.219	77.1184	574.219	77.1492	574.219	75.2404	574.219	75.1973	574.219	72.906	574.219	72.7379	574.219	71.2608	574.219	70.9312	574.219	72.1798	574.219	71.893	574.219	74.3689	574.219	74.2139	574.219	76.1632	574.219	76.0882	574.219	77.2255	574.219	77.1951	574.219	77.5645
594.727	83.338	594.727	83.2109	594.727	83.2747	594.727	82.9111	594.727	83.0381	594.727	82.4931	594.727	82.6784	594.727	82.0445	594.727	82.273	594.727	81.6577	594.727	81.9013	594.727	81.3709	594.727	81.5957	594.727	81.1203	594.727	81.3026	594.727	80.7543	594.727	80.889	594.727	80.0848	594.727	80.1818	594.727	78.9166	594.727	78.993	594.727	77.0427	594.727	77.1165	594.727	74.2867	594.727	74.3654	594.727	71.1739	594.727	71.198	594.727	70.9212	594.727	70.7923	594.727	73.5228	594.727	73.3956	594.727	75.7396	594.727	75.6623	594.727	77.0007	594.727	76.9653	594.727	77.3932
615.234	83.1704	615.234	83.0313	615.234	83.0176	615.234	82.6035	615.234	82.5785	615.234	81.9063	615.234	81.8767	615.234	81.0027	615.234	80.9802	615.234	80.0417	615.234	80.0402	615.234	79.2646	615.234	79.2861	615.234	78.8584	615.234	78.8808	615.234	78.7338	615.234	78.7283	615.234	78.5662	615.234	78.5235	615.234	78.0249	615.234	77.9582	615.234	76.8847	615.234	76.8234	615.234	75.1089	615.234	75.1	615.234	73.324	615.234	73.4135	615.234	73.3252	615.234	73.4333	615.234	75.1487	615.234	75.1832	615.234	76.9771	615.234	76.9706	615.234	78.1136	615.234	78.1024	615.234	78.4842
637.207	83.3578	637.207	83.2498	637.207	83.251	637.207	82.9243	637.207	82.9317	637.207	82.3822	637.207	82.4052	637.207	81.6427	637.207	81.694	637.207	80.7669	637.207	80.8604	637.207	79.8768	637.207	80.0222	637.207	79.1257	637.207	79.3171	637.207	78.5761	637.207	78.7849	637.207	78.0892	637.207	78.2726	637.207	77.3714	637.207	77.4853	637.207	76.0865	637.207	76.0826	637.207	73.8985	637.207	73.7037	637.207	70.6986	637.207	70.2295	637.207	68.8221	637.207	68.5597	637.207	71.4271	637.207	71.6153	637.207	74.3153	637.207	74.5079	637.207	76.0052	637.207	76.1079	637.207	76.5793
659.18	81.6855	659.18	81.5485	659.18	81.6059	659.18	81.1923	659.18	81.3045	659.18	80.6149	659.18	80.773	659.18	79.8376	659.18	80.0178	659.18	78.9453	659.18	79.0988	659.18	78.1245	659.18	78.1815	659.18	77.6039	659.18	77.5249	659.18	77.4312	659.18	77.2745	659.18	77.352	659.18	77.2387	659.18	76.9897	659.18	77.0193	659.18	76.028	659.18	76.2579	659.18	74.2856	659.18	74.7301	659.18	72.1193	659.18	72.6199	659.18	71.6295	659.18	71.6496	659.18	73.7152	659.18	73.3948	659.18	75.9251	659.18	75.6648	659.18	77.2665	659.18	77.138	659.18	77.666
682.617	80.7949	682.617	80.7473	682.617	80.694	682.617	80.5397	682.617	80.4383	682.617	80.1428	682.617	80.0061	682.617	79.5149	682.617	79.3668	682.617	78.6211	682.617	78.4998	682.617	77.481	682.617	77.4376	682.617	76.2516	682.617	76.3265	682.617	75.2622	682.617	75.4245	682.617	74.7406	682.617	74.8692	682.617	74.4088	682.617	74.4053	682.617	73.6652	682.617	73.5207	682.617	71.9929	682.617	71.7484	682.617	69.5217	682.617	69.2576	682.617	69.4466	682.617	69.2744	682.617	72.7799	682.617	72.6371	682.617	75.6312	682.617	75.5145	682.617	77.2468	682.617	77.1814	682.617	77.7412
707.52	82.1289	707.52	82.0716	707.52	82.0383	707.52	81.8617	707.52	81.808	707.52	81.4954	707.52	81.4439	707.52	80.9633	707.52	80.9387	707.52	80.2491	707.52	80.2687	707.52	79.3444	707.52	79.4085	707.52	78.2794	707.52	78.3614	707.52	77.1466	707.52	77.1919	707.52	76.054	707.52	76.0028	707.52	74.9615	707.52	74.7938	707.52	73.5314	707.52	73.2766	707.52	71.0878	707.52	70.7995	707.52	66.3263	707.52	66.2581	707.52	60.8939	707.52	62.9383	707.52	68.2822	707.52	69.0805	707.52	72.8223	707.52	73.153	707.52	75.0512	707.52	75.1865	707.52	75.7721
732.422	83.1309	732.422	83.0535	732.422	82.9532	732.422	82.7388	732.422	82.5358	732.422	82.2335	732.422	81.9312	732.422	81.6072	732.422	81.2307	732.422	80.937	732.422	80.5459	732.422	80.2828	732.422	79.9633	732.422	79.6666	732.422	79.4923	732.422	79.0659	732.422	79.0544	732.422	78.4168	732.422	78.5134	732.422	77.6058	732.422	77.6995	732.422	76.4515	732.422	76.3985	732.422	74.6811	732.422	74.2971	732.422	71.9149	732.422	70.8565	732.422	68.0138	732.422	65.4556	732.422	66.5081	732.422	64.7399	732.422	69.635	732.422	69.464	732.422	72.0173	732.422	72.0429	732.422	72.8037
757.324	83.9993	757.324	83.8141	757.324	83.8817	757.324	83.329	757.324	83.4558	757.324	82.5511	757.324	82.7156	757.324	81.5111	757.324	81.668	757.324	80.3057	757.324	80.3748	757.324	79.1576	757.324	79.0404	757.324	78.3867	757.324	78.0675	757.324	78.1299	757.324	77.774	757.324	78.1138	757.324	77.9268	757.324	77.8817	757.324	77.9586	757.324	77.0465	757.324	77.403	757.324	75.2883	757.324	75.9084	757.324	72.3627	757.324	73.1098	757.324	69.3175	757.324	69.1852	757.324	70.5081	757.324	69.0578	757.324	73.452	757.324	72.5724	757.324	75.2273	757.324	74.8611	757.324	75.6896
785.156	83.4009	785.156	83.2285	785.156	83.3497	785.156	82.8339	785.156	83.074	785.156	82.2143	785.156	82.5713	785.156	81.3559	785.156	81.8313	785.156	80.2365	785.156	80.8349	785.156	78.8535	785.156	79.5697	785.156	77.2989	785.156	78.0786	785.156	75.8525	785.156	76.5412	785.156	74.8586	785.156	75.2719	785.156	74.2291	785.156	74.3987	785.156	73.3366	785.156	73.5384	785.156	71.4163	785.156	72.0495	785.156	67.6837	785.156	69.4632	785.156	64.4591	785.156	67.0988	785.156	69.0079	785.156	69.299	785.156	72.8676	785.156	72.6351	785.156	74.8313	785.156	74.6628	785.156	75.3745
811.523	82.6141	811.523	82.502	811.523	82.485	811.523	82.1471	811.523	82.1165	811.523	81.5484	811.523	81.5093	811.523	80.7085	811.523	80.6664	811.523	79.6402	811.523	79.6045	811.523	78.3876	811.523	78.3825	811.523	77.0718	811.523	77.1437	811.523	75.9354	811.523	76.1169	811.523	75.2305	811.523	75.4564	811.523	74.8899	811.523	75.0054	811.523	74.4507	811.523	74.3326	811.523	73.3365	811.523	72.9292	811.523	70.9491	811.523	70.2239	811.523	66.6909	811.523	65.8758	811.523	64.4933	811.523	65.2732	811.523	68.8457	811.523	69.504	811.523	71.7617	811.523	72.0335	811.523	72.7374
840.82	83.9351	840.82	83.8265	840.82	83.7561	840.82	83.4298	840.82	83.2896	840.82	82.7408	840.82	82.536	840.82	81.7503	840.82	81.4969	840.82	80.4573	840.82	80.1878	840.82	78.9277	840.82	78.6892	840.82	77.4296	840.82	77.2587	840.82	76.4908	840.82	76.363	840.82	76.3609	840.82	76.2135	840.82	76.498	840.82	76.3226	840.82	76.1515	840.82	75.9737	840.82	74.747	840.82	74.5705	840.82	71.6353	840.82	71.3885	840.82	66.2298	840.82	65.4586	840.82	67.2303	840.82	66.6604	840.82	72.2271	840.82	72.0904	840.82	74.7839	840.82	74.7436	840.82	75.5435
870.117	82.2059	870.117	82.1508	870.117	82.0735	870.117	81.9034	870.117	81.7618	870.117	81.4577	870.117	81.2726	870.117	80.7921	870.117	80.5865	870.117	79.8552	870.117	79.6536	870.117	78.5682	870.117	78.403	870.117	76.8674	870.117	76.7831	870.117	74.8491	870.117	74.872	870.117	73.0653	870.117	73.0918	870.117	72.2863	870.117	72.0897	870.117	72.1014	870.117	71.69	870.117	71.2524	870.117	70.8176	870.117	68.6144	870.117	68.3288	870.117	62.7586	870.117	62.7733	870.117	63.3795	870.117	62.7755	870.117	69.4997	870.117	69.1062	870.117	72.3708	870.117	72.1905	870.117	73.162
900.879	80.5945	900.879	80.4766	900.879	80.4431	900.879	80.1002	900.879	80.0299	900.879	79.4894	900.879	79.3769	900.879	78.672	900.879	78.5119	900.879	77.6664	900.879	77.4592	900.879	76.4824	900.879	76.2415	900.879	75.1522	900.879	74.9171	900.879	73.7904	900.879	73.6477	900.879	72.6031	900.879	72.6834	900.879	71.6723	900.879	72.0644	900.879	70.6602	900.879	71.3456	900.879	68.8262	900.879	69.7611	900.879	64.8475	900.879	66.1304	900.879	52.3954	900.879	55.8011	900.879	60.8353	900.879	60.0127	900.879	67.7647	900.879	67.6167	900.879	70.5848	900.879	70.5579	900.879	71.4044
933.105	83.7239	933.105	83.5909	933.105	83.5766	933.105	83.1913	933.105	83.1659	933.105	82.5625	933.105	82.5327	933.105	81.7434	933.105	81.7193	933.105	80.7434	933.105	80.738	933.105	79.5258	933.105	79.5532	933.105	78.0455	933.105	78.1149	933.105	76.3792	933.105	76.4718	933.105	74.9228	933.105	74.9436	933.105	74.2012	933.105	74.0023	933.105	73.9809	933.105	73.5153	933.105	73.3483	933.105	72.6387	933.105	71.4253	933.105	70.4172	933.105	66.9569	933.105	65.2817	933.105	52.7539	933.105	43.4457	933.105	62.1468	933.105	63.5656	933.105	67.9402	933.105	68.332	933.105	69.4484
965.332	84.2593	965.332	84.1268	965.332	84.1026	965.332	83.7188	965.332	83.663	965.332	83.0668	965.332	82.9621	965.332	82.2072	965.332	82.0266	965.332	81.1566	965.332	80.8747	965.332	79.8929	965.332	79.5139	965.332	78.3808	965.332	77.9788	965.332	76.6908	965.332	76.4381	965.332	75.2068	965.332	75.2844	965.332	74.4914	965.332	74.8229	965.332	74.3878	965.332	74.7115	965.332	74.0106	965.332	74.2198	965.332	72.552	965.332	72.6779	965.332	69.1722	965.332	69.2665	965.332	62.0932	965.332	61.9742	965.332	61.0123	965.332	60.1882	965.332	66.7795	965.332	66.5852	965.332	68.2891
1000.49	83.0869	1000.49	82.9528	1000.49	82.8793	1000.49	82.4815	1000.49	82.3564	1000.49	81.7086	1000.49	81.5722	1000.49	80.6958	1000.49	80.5929	1000.49	79.5143	1000.49	79.4623	1000.49	78.2182	1000.49	78.1641	1000.49	76.844	1000.49	76.6363	1000.49	75.4948	1000.49	74.9054	1000.49	74.4665	1000.49	73.3741	1000.49	74.0569	1000.49	72.7639	1000.49	74.0005	1000.49	72.9223	1000.49	73.5609	1000.49	72.7465	1000.49	71.9901	1000.49	71.2579	1000.49	68.3065	1000.49	67.2577	1000.49	59.7998	1000.49	56.4558	1000.49	62.01	1000.49	63.0048	1000.49	67.9962	1000.49	68.4298	1000.49	69.6672
1035.64	83.1234	1035.64	82.9558	1035.64	82.9607	1035.64	82.4764	1035.64	82.4801	1035.64	81.7317	1035.64	81.7168	1035.64	80.7785	1035.64	80.7122	1035.64	79.6434	1035.64	79.4898	1035.64	78.2774	1035.64	78.0396	1035.64	76.5605	1035.64	76.3436	1035.64	74.429	1035.64	74.4803	1035.64	72.2904	1035.64	72.8388	1035.64	71.3821	1035.64	72.0814	1035.64	71.821	1035.64	72.18	1035.64	72.0066	1035.64	72.1797	1035.64	70.8534	1035.64	71.1538	1035.64	67.6151	1035.64	68.2168	1035.64	62.2509	1035.64	61.9261	1035.64	64.3037	1035.64	61.7984	1035.64	68.076	1035.64	67.2317	1035.64	69.0114
1072.27	83.7221	1072.27	83.58	1072.27	83.529	1072.27	83.1081	1072.27	83.016	1072.27	82.3326	1072.27	82.2232	1072.27	81.3029	1072.27	81.214	1072.27	80.084	1072.27	80.0537	1072.27	78.7292	1072.27	78.7621	1072.27	77.2503	1072.27	77.2802	1072.27	75.6565	1072.27	75.5316	1072.27	74.1356	1072.27	73.6905	1072.27	73.2037	1072.27	72.581	1072.27	73.0863	1072.27	72.777	1072.27	73.0325	1072.27	73.2003	1072.27	72.0563	1072.27	72.6178	1072.27	69.3269	1072.27	70.2078	1072.27	64.1763	1072.27	64.7406	1072.27	63.3488	1072.27	60.3928	1072.27	67.2622	1072.27	66.1826	1072.27	68.2957
1108.89	83.8865	1108.89	83.6937	1108.89	83.711	1108.89	83.1493	1108.89	83.1886	1108.89	82.3077	1108.89	82.3769	1108.89	81.2513	1108.89	81.3592	1108.89	80.0494	1108.89	80.2111	1108.89	78.696	1108.89	78.9474	1108.89	77.0794	1108.89	77.4987	1108.89	75.0604	1108.89	75.7749	1108.89	72.8008	1108.89	73.8796	1108.89	71.4656	1108.89	72.4738	1108.89	71.9501	1108.89	72.252	1108.89	72.6124	1108.89	72.4188	1108.89	71.9187	1108.89	71.6371	1108.89	68.9103	1108.89	68.9184	1108.89	63.6523	1108.89	64.2703	1108.89	67.0626	1108.89	66.5876	1108.89	71.0233	1108.89	70.6656	1108.89	72.0728
1148.44	83.895	1148.44	83.6895	1148.44	83.7054	1148.44	83.1058	1148.44	83.1412	1148.44	82.2099	1148.44	82.2619	1148.44	81.1325	1148.44	81.1679	1148.44	80.0416	1148.44	79.9769	1148.44	79.0207	1148.44	78.7527	1148.44	77.9458	1148.44	77.432	1148.44	76.5469	1148.44	75.8501	1148.44	74.6547	1148.44	73.9449	1148.44	72.6664	1148.44	72.2239	1148.44	71.758	1148.44	71.7254	1148.44	71.7695	1148.44	71.9969	1148.44	70.9277	1148.44	71.4604	1148.44	67.7001	1148.44	68.9892	1148.44	60.9232	1148.44	64.1821	1148.44	65.4303	1148.44	65.5603	1148.44	70.0086	1148.44	69.7942	1148.44	71.2131
1189.45	84.6979	1189.45	84.5433	1189.45	84.4604	1189.45	84.0058	1189.45	83.8403	1189.45	83.1203	1189.45	82.8727	1189.45	81.9585	1189.45	81.6367	1189.45	80.6214	1189.45	80.267	1189.45	79.1875	1189.45	78.9057	1189.45	77.6397	1189.45	77.5641	1189.45	75.8737	1189.45	76.0365	1189.45	73.912	1189.45	74.1026	1189.45	72.4094	1189.45	72.2328	1189.45	72.321	1189.45	71.9684	1189.45	72.8085	1189.45	72.7552	1189.45	72.2269	1189.45	72.3954	1189.45	69.2067	1189.45	69.2617	1189.45	61.5659	1189.45	59.7838	1189.45	66.5195	1189.45	66.743	1189.45	71.8742	1189.45	72.1142	1189.45	73.4291
1230.47	84.8876	1230.47	84.7613	1230.47	84.6653	1230.47	84.2827	1230.47	84.0965	1230.47	83.4433	1230.47	83.1931	1230.47	82.2495	1230.47	81.9873	1230.47	80.7827	1230.47	80.5337	1230.47	79.269	1230.47	78.9075	1230.47	77.9781	1230.47	77.1979	1230.47	76.8485	1230.47	75.4686	1230.47	75.4427	1230.47	73.7529	1230.47	73.5881	1230.47	72.3813	1230.47	72.2721	1230.47	72.2031	1230.47	72.4048	1230.47	72.8846	1230.47	72.2284	1230.47	72.7287	1230.47	69.6757	1230.47	70.1251	1230.47	61.3224	1230.47	61.4501	1230.47	65.5634	1230.47	65.725	1230.47	71.8307	1230.47	71.9855	1230.47	73.5116
1274.41	84.9674	1274.41	84.8048	1274.41	84.7507	1274.41	84.2756	1274.41	84.1536	1274.41	83.4	1274.41	83.1993	1274.41	82.2113	1274.41	81.9467	1274.41	80.7689	1274.41	80.494	1274.41	79.1591	1274.41	78.9619	1274.41	77.4416	1274.41	77.445	1274.41	75.5452	1274.41	75.9018	1274.41	73.318	1274.41	74.0764	1274.41	71.3359	1274.41	71.8626	1274.41	71.651	1274.41	70.7386	1274.41	73.3077	1274.41	72.0153	1274.41	73.7505	1274.41	72.9189	1274.41	71.7391	1274.41	71.4425	1274.41	64.878	1274.41	65.2461	1274.41	63.2803	1274.41	61.8826	1274.41	70.8165	1274.41	70.4172	1274.41	72.5292
1319.82	84.8039	1319.82	84.6492	1319.82	84.5235	1319.82	84.0627	1319.82	83.8386	1319.82	83.0738	1319.82	82.8262	1319.82	81.7378	1319.82	81.6113	1319.82	80.1537	1319.82	80.3183	1319.82	78.5095	1319.82	78.9705	1319.82	77.0697	1319.82	77.4501	1319.82	75.9076	1319.82	75.5955	1319.82	74.6285	1319.82	73.3204	1319.82	72.7177	1319.82	70.8684	1319.82	70.7005	1319.82	69.6314	1319.82	70.6909	1319.82	70.3192	1319.82	71.2194	1319.82	70.5623	1319.82	69.1737	1319.82	68.3369	1319.82	60.3672	1319.82	60.6862	1319.82	65.2737	1319.82	64.5646	1319.82	71.4493	1319.82	70.9256	1319.82	72.7972
1366.7	84.1867	1366.7	84.02	1366.7	84.0175	1366.7	83.5133	1366.7	83.5239	1366.7	82.6722	1366.7	82.7223	1366.7	81.5152	1366.7	81.6328	1366.7	80.0747	1366.7	80.2923	1366.7	78.3981	1366.7	78.7887	1366.7	76.5885	1366.7	77.2707	1366.7	74.826	1366.7	75.8033	1366.7	73.0607	1366.7	74.1237	1366.7	70.7419	1366.7	71.8315	1366.7	68.5226	1366.7	69.6286	1366.7	69.7989	1366.7	69.664	1366.7	71.3088	1366.7	70.0598	1366.7	69.6537	1366.7	67.7476	1366.7	60.2497	1366.7	56.7414	1366.7	64.0396	1366.7	64.2906	1366.7	71.2174	1366.7	71.0015	1366.7	72.7683
1413.57	84.0304	1413.57	83.8365	1413.57	83.8911	1413.57	83.3219	1413.57	83.412	1413.57	82.5078	1413.57	82.5965	1413.57	81.417	1413.57	81.4852	1413.57	80.046	1413.57	80.1857	1413.57	78.3552	1413.57	78.8163	1413.57	76.3925	1413.57	77.3406	1413.57	74.5431	1413.57	75.5491	1413.57	73.1784	1413.57	73.265	1413.57	71.6404	1413.57	70.5488	1413.57	69.4137	1413.57	68.6681	1413.57	69.2225	1413.57	69.8531	1413.57	70.9378	1413.57	71.4643	1413.57	70.561	1413.57	70.8043	1413.57	65.8591	1413.57	65.5867	1413.57	56.4339	1413.57	54.5151	1413.57	67.7426	1413.57	68.072	1413.57	70.3272
1463.38	83.5846	1463.38	83.409	1463.38	83.4126	1463.38	82.9098	1463.38	82.8831	1463.38	82.1056	1463.38	82.0161	1463.38	81.0321	1463.38	80.8663	1463.38	79.7973	1463.38	79.5227	1463.38	78.5311	1463.38	78.0648	1463.38	77.1797	1463.38	76.4655	1463.38	75.5109	1463.38	74.6571	1463.38	73.4329	1463.38	72.7923	1463.38	70.9983	1463.38	71.0704	1463.38	68.2169	1463.38	69.5609	1463.38	67.7462	1463.38	69.6402	1463.38	70.3324	1463.38	71.2078	1463.38	71.0826	1463.38	71.2748	1463.38	68.0562	1463.38	67.6296	1463.38	53.4446	1463.38	49.1278	1463.38	63.8456	1463.38	64.8512	1463.38	67.8161
1516.11	82.8792	1516.11	82.7275	1516.11	82.7136	1516.11	82.2269	1516.11	82.2739	1516.11	81.3956	1516.11	81.5676	1516.11	80.3226	1516.11	80.5562	1516.11	79.1487	1516.11	79.25	1516.11	77.9623	1516.11	77.8689	1516.11	76.6693	1516.11	76.6914	1516.11	75.0803	1516.11	75.515	1516.11	73.1963	1516.11	73.7768	1516.11	71.1058	1516.11	71.0333	1516.11	68.7252	1516.11	67.1484	1516.11	68.1688	1516.11	65.9211	1516.11	70.2619	1516.11	69.1296	1516.11	70.7078	1516.11	70.3549	1516.11	67.5654	1516.11	68.2547	1516.11	58.2081	1516.11	60.2987	1516.11	61.6369	1516.11	56.2808	1516.11	63.5572
1568.85	84.251	1568.85	84.0292	1568.85	84.0796	1568.85	83.4241	1568.85	83.5301	1568.85	82.4588	1568.85	82.6327	1568.85	81.1489	1568.85	81.4131	1568.85	79.5328	1568.85	79.9005	1568.85	77.7863	1568.85	78.173	1568.85	76.2425	1568.85	76.3392	1568.85	75.0209	1568.85	74.4026	1568.85	73.8063	1568.85	72.376	1568.85	72.1627	1568.85	70.4919	1568.85	69.6681	1568.85	68.5552	1568.85	67.328	1568.85	66.6645	1568.85	68.3855	1568.85	67.1729	1568.85	69.1696	1568.85	68.0366	1568.85	66.3645	1568.85	65.8829	1568.85	60.2612	1568.85	60.8002	1568.85	65.623	1568.85	65.2111	1568.85	67.7603
1624.51	84.1636	1624.51	83.9045	1624.51	83.9765	1624.51	83.239	1624.51	83.3548	1624.51	82.2148	1624.51	82.3773	1624.51	80.8521	1624.51	81.1574	1624.51	79.1712	1624.51	79.7671	1624.51	77.3099	1624.51	78.2	1624.51	75.5608	1624.51	76.4621	1624.51	73.9913	1624.51	74.6811	1624.51	72.2146	1624.51	73.014	1624.51	69.9952	1624.51	71.3784	1624.51	67.4936	1624.51	69.3198	1624.51	65.8425	1624.51	67.1027	1624.51	67.4045	1624.51	67.6705	1624.51	68.6723	1624.51	68.88	1624.51	66.3722	1624.51	66.646	1624.51	56.8479	1624.51	56.9969	1624.51	63.9567	1624.51	64.1631	1624.51	67.3028
1681.64	83.853	1681.64	83.6716	1681.64	83.6408	1681.64	83.0897	1681.64	83.0518	1681.64	82.1403	1681.64	82.0929	1681.64	80.8663	1681.64	80.7739	1681.64	79.2487	1681.64	79.1531	1681.64	77.3166	1681.64	77.435	1681.64	75.4744	1681.64	75.9911	1681.64	74.2232	1681.64	74.9206	1681.64	73.0443	1681.64	73.7478	1681.64	71.219	1681.64	72.1802	1681.64	68.5683	1681.64	70.3331	1681.64	64.6841	1681.64	68.4236	1681.64	64.7505	1681.64	68.827	1681.64	67.6118	1681.64	70.2457	1681.64	66.3779	1681.64	68.7017	1681.64	58.9859	1681.64	61.32	1681.64	63.7373	1681.64	62.8706	1681.64	66.6889
1741.7	83.1491	1741.7	83.0197	1741.7	82.9453	1741.7	82.5334	1741.7	82.4436	1741.7	81.7212	1741.7	81.6668	1741.7	80.6575	1741.7	80.6165	1741.7	79.3601	1741.7	79.2573	1741.7	77.771	1741.7	77.5761	1741.7	76.02	1741.7	75.7299	1741.7	74.5248	1741.7	73.924	1741.7	73.228	1741.7	72.0943	1741.7	71.7603	1741.7	70.5272	1741.7	69.9335	1741.7	69.3054	1741.7	67.0909	1741.7	67.277	1741.7	65.1992	1741.7	66.3974	1741.7	67.031	1741.7	68.1	1741.7	66.1304	1741.7	67.3132	1741.7	58.8881	1741.7	61.9562	1741.7	63.5071	1741.7	63.3015	1741.7	66.5147
1803.22	82.3726	1803.22	82.2273	1803.22	82.2076	1803.22	81.8121	1803.22	81.7401	1803.22	81.1743	1803.22	81.0223	1803.22	80.3335	1803.22	80.073	1803.22	79.2315	1803.22	78.8	1803.22	77.7188	1803.22	77.0635	1803.22	75.8565	1803.22	74.9846	1803.22	74.1686	1803.22	73.1326	1803.22	72.6192	1803.22	71.6183	1803.22	70.7886	1803.22	70.0324	1803.22	69.339	1803.22	68.6813	1803.22	67.8782	1803.22	67.1828	1803.22	66.3113	1803.22	66.7028	1803.22	67.35	1803.22	68.7014	1803.22	66.8862	1803.22	68.253	1803.22	61.0124	1803.22	62.909	1803.22	61.8793	1803.22	62.9521	1803.22	65.7202
1866.21	82.6888	1866.21	82.5165	1866.21	82.4913	1866.21	82.0424	1866.21	81.9702	1866.21	81.376	1866.21	81.2825	1866.21	80.6072	1866.21	80.5449	1866.21	79.6791	1866.21	79.6313	1866.21	78.2329	1866.21	78.1946	1866.21	75.9992	1866.21	76.132	1866.21	73.7555	1866.21	74.11	1866.21	72.2548	1866.21	72.3978	1866.21	70.4984	1866.21	70.1015	1866.21	68.5552	1866.21	68.3467	1866.21	66.7855	1866.21	68.0068	1866.21	65.8949	1866.21	67.005	1866.21	68.6259	1866.21	68.7195	1866.21	68.6921	1866.21	69.1481	1866.21	63.38	1866.21	63.4543	1866.21	64.0162	1866.21	62.575	1866.21	66.9814
1932.13	83.5952	1932.13	83.3027	1932.13	83.5435	1932.13	82.6766	1932.13	83.0747	1932.13	81.7559	1932.13	82.1153	1932.13	80.7108	1932.13	80.8315	1932.13	79.7747	1932.13	79.7047	1932.13	78.7867	1932.13	78.994	1932.13	77.1598	1932.13	78.2837	1932.13	74.9984	1932.13	77.2074	1932.13	73.2406	1932.13	75.3508	1932.13	70.8839	1932.13	72.1442	1932.13	68.18	1932.13	69.3849	1932.13	66.6929	1932.13	67.2244	1932.13	63.3078	1932.13	62.4211	1932.13	63.9176	1932.13	60.2161	1932.13	66.7586	1932.13	61.0021	1932.13	61.4652	1932.13	52.6475	1932.13	62.5055	1932.13	64.0111	1932.13	67.2532
1999.51	82.2092	1999.51	82.3513	1999.51	81.7382	1999.51	82.194	1999.51	80.9045	1999.51	81.7431	1999.51	79.8202	1999.51	81.068	1999.51	78.894	1999.51	80.3566	1999.51	78.489	1999.51	79.4848	1999.51	78.1229	1999.51	77.5928	1999.51	76.6302	1999.51	74.4484	1999.51	73.578	1999.51	72.2869	1999.51	70.4745	1999.51	71.4214	1999.51	68.2407	1999.51	70.8015	1999.51	67.1464	1999.51	71.2021	1999.51	67.4878	1999.51	70.255	1999.51	66.1549	1999.51	68.8011	1999.51	65.0456	1999.51	70.1453	1999.51	66.591	1999.51	67.6411	1999.51	62.1822	1999.51	59.365	1999.51	55.5172	1999.51	62.1733
2069.82	80.4667	2069.82	80.8127	2069.82	80.31	2069.82	81.1609	2069.82	80.3213	2069.82	81.2126	2069.82	80.2065	2069.82	80.7226	2069.82	79.6239	2069.82	79.743	2069.82	78.6779	2069.82	78.5246	2069.82	77.6355	2069.82	76.542	2069.82	75.7766	2069.82	73.1521	2069.82	72.655	2069.82	71.1337	2069.82	70.5694	2069.82	71.2974	2069.82	69.3988	2069.82	70.0763	2069.82	66.4526	2069.82	69.8699	2069.82	66.5632	2069.82	70.2298	2069.82	67.9183	2069.82	69.9821	2069.82	67.9467	2069.82	69.1966	2069.82	68.9211	2069.82	64.9756	2069.82	64.4446	2069.82	63.1325	2069.82	58.7824	2069.82	65.4391
2143.07	81.5653	2143.07	81.7664	2143.07	81.4854	2143.07	82.0184	2143.07	81.4149	2143.07	82.0601	2143.07	81.118	2143.07	81.5648	2143.07	80.4113	2143.07	80.518	2143.07	79.3341	2143.07	79.3197	2143.07	78.1155	2143.07	77.7402	2143.07	76.593	2143.07	74.9806	2143.07	74.0973	2143.07	72.4322	2143.07	71.3359	2143.07	71.6574	2143.07	69.4145	2143.07	70.1733	2143.07	66.4187	2143.07	69.3875	2143.07	65.2793	2143.07	69.2407	2143.07	66.7705	2143.07	67.3543	2143.07	66.4513	2143.07	66.1031	2143.07	68.4713	2143.07	61.6623	2143.07	67.3062	2143.07	45.2521	2143.07	58.1909	2143.07	50.9899
2219.24	81.4228	2219.24	81.787	2219.24	81.0174	2219.24	82.0216	2219.24	80.4859	2219.24	81.8586	2219.24	79.793	2219.24	81.0459	2219.24	79.0983	2219.24	79.658	2219.24	78.3633	2219.24	78.2921	2219.24	77.2643	2219.24	77.1322	2219.24	75.6716	2219.24	74.911	2219.24	73.5044	2219.24	71.7428	2219.24	71.1577	2219.24	69.9635	2219.24	69.2164	2219.24	68.4953	2219.24	66.7034	2219.24	67.9161	2219.24	65.2081	2219.24	68.8321	2219.24	67.3268	2219.24	68.886	2219.24	66.6048	2219.24	68.4193	2219.24	68.0246	2219.24	65.0067	2219.24	67.0508	2219.24	57.6008	2219.24	60.9355	2219.24	59.258
2296.88	81.4509	2296.88	81.3722	2296.88	81.2919	2296.88	81.1343	2296.88	80.8321	2296.88	80.7931	2296.88	80.1499	2296.88	80.359	2296.88	79.4503	2296.88	79.5703	2296.88	78.7297	2296.88	78.1768	2296.88	77.4238	2296.88	76.5631	2296.88	74.8776	2296.88	74.2502	2296.88	71.4215	2296.88	70.5664	2296.88	68.6023	2296.88	68.4069	2296.88	67.9962	2296.88	67.3573	2296.88	67.7103	2296.88	66.1364	2296.88	66.932	2296.88	68.4386	2296.88	68.7956	2296.88	69.4247	2296.88	67.1785	2296.88	70.4562	2296.88	67.8504	2296.88	68.8431	2296.88	67.0016	2296.88	62.4657	2296.88	60.288	2296.88	56.6261
2378.91	81.3892	2378.91	81.4422	2378.91	81.1767	2378.91	81.4529	2378.91	80.8245	2378.91	81.2644	2378.91	80.5772	2378.91	80.6432	2378.91	80.2988	2378.91	79.4334	2378.91	79.4209	2378.91	77.5464	2378.91	77.6181	2378.91	75.3543	2378.91	75.0709	2378.91	73.0909	2378.91	72.0893	2378.91	70.1326	2378.91	69.3394	2378.91	68.5346	2378.91	69.3703	2378.91	67.7924	2378.91	70.1826	2378.91	65.381	2378.91	68.8851	2378.91	67.5311	2378.91	70.4915	2378.91	67.8593	2378.91	69.4477	2378.91	68.9344	2378.91	69.9598	2378.91	68.5368	2378.91	69.8459	2378.91	64.8651	2378.91	65.7894	2378.91	63.7158
2462.4	82.6719	2462.4	82.6284	2462.4	82.5595	2462.4	82.3854	2462.4	82.2404	2462.4	81.8571	2462.4	81.6308	2462.4	81.0428	2462.4	80.6995	2462.4	79.8917	2462.4	79.4182	2462.4	78.2314	2462.4	77.6183	2462.4	76.2469	2462.4	75.5267	2462.4	74.409	2462.4	73.8328	2462.4	72.067	2462.4	71.6189	2462.4	69.9796	2462.4	69.4633	2462.4	69.0792	2462.4	68.6916	2462.4	65.6193	2462.4	66.1919	2462.4	66.2409	2462.4	67.0167	2462.4	66.1195	2462.4	66.2883	2462.4	66.2757	2462.4	66.9537	2462.4	66.1635	2462.4	66.7628	2462.4	59.9535	2462.4	61.7753	2462.4	62.3898
2548.83	81.6623	2548.83	81.8216	2548.83	81.7185	2548.83	81.9781	2548.83	81.7921	2548.83	81.7192	2548.83	81.5075	2548.83	80.9132	2548.83	80.6994	2548.83	79.7334	2548.83	79.4458	2548.83	78.0937	2548.83	77.6341	2548.83	75.9715	2548.83	75.3117	2548.83	74.2129	2548.83	73.4425	2548.83	72.198	2548.83	71.3461	2548.83	69.9519	2548.83	69.3085	2548.83	69.4616	2548.83	68.9734	2548.83	66.9649	2548.83	65.8365	2548.83	67.0448	2548.83	66.3477	2548.83	67.0075	2548.83	65.8657	2548.83	67.0688	2548.83	66.0934	2548.83	66.6614	2548.83	66.4162	2548.83	61.6085	2548.83	61.6173	2548.83	62.602
2639.65	81.7045	2639.65	81.9632	2639.65	81.876	2639.65	82.2794	2639.65	82.1287	2639.65	82.0644	2639.65	81.9216	2639.65	81.145	2639.65	81.1246	2639.65	79.8476	2639.65	80.003	2639.65	78.3095	2639.65	78.4631	2639.65	76.0545	2639.65	76.2639	2639.65	74.0531	2639.65	74.4055	2639.65	72.4417	2639.65	72.5907	2639.65	69.6034	2639.65	69.9116	2639.65	68.8979	2639.65	69.6105	2639.65	66.5779	2639.65	67.3753	2639.65	66.9071	2639.65	66.7387	2639.65	67.1133	2639.65	67.3713	2639.65	67.1036	2639.65	66.9366	2639.65	66.782	2639.65	66.4546	2639.65	61.1203	2639.65	62.0992	2639.65	63.424
2731.93	81.9924	2731.93	82.2359	2731.93	82.1242	2731.93	82.5391	2731.93	82.4227	2731.93	82.4443	2731.93	82.3354	2731.93	81.6453	2731.93	81.4246	2731.93	80.1657	2731.93	79.8935	2731.93	78.4986	2731.93	78.297	2731.93	76.3502	2731.93	76.11	2731.93	73.6751	2731.93	73.45	2731.93	72.0841	2731.93	71.8876	2731.93	69.2932	2731.93	69.1495	2731.93	67.9304	2731.93	68.3676	2731.93	66.9211	2731.93	67.7219	2731.93	66.7567	2731.93	66.7102	2731.93	66.4819	2731.93	66.4164	2731.93	66.7412	2731.93	67.2087	2731.93	67.1971	2731.93	67.4159	2731.93	61.6883	2731.93	62.7295	2731.93	63.5978
2828.61	82.3148	2828.61	82.5296	2828.61	82.4118	2828.61	82.8297	2828.61	82.5403	2828.61	82.7276	2828.61	82.3378	2828.61	81.9603	2828.61	81.5166	2828.61	80.5152	2828.61	79.9209	2828.61	78.7927	2828.61	78.0467	2828.61	76.9774	2828.61	76.182	2828.61	74.3049	2828.61	73.6524	2828.61	72.0283	2828.61	71.5487	2828.61	70.0462	2828.61	69.1814	2828.61	67.7356	2828.61	67.1907	2828.61	66.1632	2828.61	65.6413	2828.61	66.7472	2828.61	66.548	2828.61	68.3824	2828.61	67.1356	2828.61	66.696	2828.61	67.1403	2828.61	68.3279	2828.61	67.9344	2828.61	61.9676	2828.61	63.2019	2828.61	65.2313
2928.22	81.8085	2928.22	81.9181	2928.22	82.0199	2928.22	82.1407	2928.22	82.2132	2928.22	81.9711	2928.22	81.9353	2928.22	81.1604	2928.22	80.9259	2928.22	79.7171	2928.22	79.2508	2928.22	77.9733	2928.22	77.1379	2928.22	76.4545	2928.22	75.0341	2928.22	74.5685	2928.22	72.9882	2928.22	72.2879	2928.22	70.9156	2928.22	70.62	2928.22	69.0532	2928.22	68.8586	2928.22	67.2909	2928.22	67.6243	2928.22	66.0843	2928.22	65.2651	2928.22	64.0446	2928.22	67.7751	2928.22	66.9532	2928.22	66.6016	2928.22	66.065	2928.22	68.4297	2928.22	67.2732	2928.22	61.9367	2928.22	61.4009	2928.22	64.3094
3030.76	81.6203	3030.76	81.8866	3030.76	81.4894	3030.76	81.9976	3030.76	81.5701	3030.76	81.6794	3030.76	81.4919	3030.76	80.905	3030.76	80.8941	3030.76	79.5471	3030.76	79.5675	3030.76	77.5037	3030.76	77.504	3030.76	75.2649	3030.76	75.3846	3030.76	73.2596	3030.76	72.6989	3030.76	70.7448	3030.76	70.012	3030.76	68.4268	3030.76	68.508	3030.76	66.9904	3030.76	65.5239	3030.76	66.8429	3030.76	66.1026	3030.76	65.6751	3030.76	62.9274	3030.76	66.4237	3030.76	63.3606	3030.76	64.0649	3030.76	63.0136	3030.76	65.8439	3030.76	64.9354	3030.76	59.3267	3030.76	54.9228	3030.76	59.2803
3137.7	82.2351	3137.7	82.318	3137.7	81.9572	3137.7	82.1419	3137.7	81.5979	3137.7	81.6851	3137.7	81.2643	3137.7	80.9771	3137.7	80.5502	3137.7	79.85	3137.7	79.2352	3137.7	78.1771	3137.7	77.2249	3137.7	76.0753	3137.7	74.7954	3137.7	73.7682	3137.7	72.6779	3137.7	71.5039	3137.7	69.4891	3137.7	68.8325	3137.7	67.1871	3137.7	65.7505	3137.7	64.3634	3137.7	64.6971	3137.7	63.9171	3137.7	64.1762	3137.7	63.2564	3137.7	65.5724	3137.7	63.2644	3137.7	63.5255	3137.7	60.4598	3137.7	64.3391	3137.7	63.2685	3137.7	60.7903	3137.7	56.5788	3137.7	56.0605
3249.02	81.9787	3249.02	81.939	3249.02	82.3546	3249.02	81.9171	3249.02	82.2688	3249.02	81.1844	3249.02	81.3608	3249.02	79.886	3249.02	80.0546	3249.02	78.3634	3249.02	78.5388	3249.02	76.6344	3249.02	76.6846	3249.02	74.4154	3249.02	74.0777	3249.02	72.3376	3249.02	71.9406	3249.02	70.9123	3249.02	69.784	3249.02	68.9607	3249.02	67.1738	3249.02	66.2515	3249.02	65.2994	3249.02	64.8986	3249.02	62.6399	3249.02	65.1409	3249.02	63.8099	3249.02	66.6367	3249.02	65.2649	3249.02	64.2225	3249.02	62.2631	3249.02	64.3526	3249.02	64.1133	3249.02	58.7001	3249.02	58.3	3249.02	58.7245
3363.28	82.1848	3363.28	82.25	3363.28	82.0831	3363.28	82.1744	3363.28	81.8448	3363.28	81.5062	3363.28	81.0203	3363.28	80.1008	3363.28	79.5453	3363.28	78.292	3363.28	77.678	3363.28	76.4765	3363.28	75.7828	3363.28	74.7234	3363.28	73.7895	3363.28	71.9874	3363.28	71.4576	3363.28	69.2648	3363.28	69.3062	3363.28	67.0915	3363.28	66.6539	3363.28	65.2281	3363.28	64.465	3363.28	62.7914	3363.28	61.6563	3363.28	63.2235	3363.28	61.357	3363.28	65.5397	3363.28	64.983	3363.28	64.1496	3363.28	62.8176	3363.28	64.6006	3363.28	63.457	3363.28	59.217	3363.28	60.0516	3363.28	56.1084
3481.93	82.0759	3481.93	81.8173	3481.93	81.9519	3481.93	81.3706	3481.93	81.6082	3481.93	80.6773	3481.93	80.5674	3481.93	79.2482	3481.93	79.0107	3481.93	77.3438	3481.93	77.4393	3481.93	75.2981	3481.93	75.6607	3481.93	73.6587	3481.93	73.8925	3481.93	71.9139	3481.93	71.8588	3481.93	69.8719	3481.93	69.1698	3481.93	67.003	3481.93	66.6445	3481.93	65.0251	3481.93	64.4078	3481.93	62.7236	3481.93	62.1613	3481.93	63.7253	3481.93	60.5172	3481.93	65.3783	3481.93	63.0276	3481.93	64.5041	3481.93	61.975	3481.93	63.9438	3481.93	63.5497	3481.93	60.916	3481.93	58.1573	3481.93	57.8726
3604.98	82.4191	3604.98	82.3612	3604.98	81.9226	3604.98	81.6916	3604.98	81.1391	3604.98	80.6147	3604.98	80.2654	3604.98	79.2372	3604.98	78.7774	3604.98	77.6203	3604.98	76.8728	3604.98	75.7058	3604.98	75.2179	3604.98	73.7498	3604.98	73.5009	3604.98	71.4551	3604.98	71.1563	3604.98	68.9762	3604.98	68.6526	3604.98	66.8748	3604.98	66.1163	3604.98	64.7115	3604.98	64.4818	3604.98	61.9256	3604.98	61.7856	3604.98	60.8546	3604.98	60.7951	3604.98	64.6361	3604.98	63.354	3604.98	65.1287	3604.98	63.3114	3604.98	64.5729	3604.98	62.9962	3604.98	60.5403	3604.98	59.1769	3604.98	57.8636
3732.42	82.9634	3732.42	82.5752	3732.42	82.8775	3732.42	81.6919	3732.42	82.0089	3732.42	80.5325	3732.42	80.7072	3732.42	79.3925	3732.42	79.5228	3732.42	77.9715	3732.42	78.0323	3732.42	76.136	3732.42	76.1395	3732.42	74.5862	3732.42	74.3248	3732.42	72.8683	3732.42	72.1654	3732.42	70.4835	3732.42	69.2003	3732.42	67.5818	3732.42	66.5505	3732.42	65.2099	3732.42	63.9979	3732.42	63.2615	3732.42	62.0495	3732.42	63.291	3732.42	60.7047	3732.42	63.1103	3732.42	62.0818	3732.42	63.6127	3732.42	63.5318	3732.42	63.5283	3732.42	61.5376	3732.42	59.0634	3732.42	57.8939	3732.42	55.9495
3864.26	83.3445	3864.26	83.1153	3864.26	83.0774	3864.26	82.4488	3864.26	82.3664	3864.26	81.4193	3864.26	81.1389	3864.26	80.3486	3864.26	80.0883	3864.26	79.3659	3864.26	79.1803	3864.26	77.818	3864.26	77.5251	3864.26	75.567	3864.26	75.3339	3864.26	72.9699	3864.26	73.2314	3864.26	70.3355	3864.26	70.357	3864.26	67.3069	3864.26	67.8813	3864.26	65.6185	3864.26	65.0447	3864.26	63.8446	3864.26	63.4207	3864.26	63.4853	3864.26	61.1239	3864.26	64.5467	3864.26	63.2631	3864.26	64.9413	3864.26	64.2929	3864.26	64.7156	3864.26	63.4867	3864.26	60.4204	3864.26	61.1295	3864.26	56.3281
4000.49	83.5658	4000.49	82.9497	4000.49	83.0483	4000.49	81.9961	4000.49	82.0775	4000.49	81.1819	4000.49	81.1442	4000.49	80.2472	4000.49	80.3161	4000.49	79.1927	4000.49	79.3822	4000.49	77.6494	4000.49	77.7435	4000.49	75.6249	4000.49	75.4573	4000.49	73.5299	4000.49	72.6798	4000.49	70.7618	4000.49	70.2703	4000.49	68.2657	4000.49	67.2194	4000.49	64.6849	4000.49	65.2413	4000.49	63.0563	4000.49	63.3781	4000.49	63.6036	4000.49	62.3222	4000.49	64.0743	4000.49	63.9496	4000.49	65.3454	4000.49	65.6685	4000.49	64.9461	4000.49	64.0757	4000.49	59.9286	4000.49	61.1288	4000.49	57.4626
4141.11	83.7253	4141.11	83.1	4141.11	83.1206	4141.11	82.0743	4141.11	81.9974	4141.11	81.4462	4141.11	81.1306	4141.11	80.6897	4141.11	80.4506	4141.11	79.5268	4141.11	79.4674	4141.11	77.7928	4141.11	77.6744	4141.11	75.2116	4141.11	75.1457	4141.11	72.5858	4141.11	72.4968	4141.11	69.4951	4141.11	69.8297	4141.11	67.7114	4141.11	67.4977	4141.11	65.8296	4141.11	64.5271	4141.11	64.6672	4141.11	63.7434	4141.11	64.1361	4141.11	60.8233	4141.11	63.4277	4141.11	63.0374	4141.11	65.3317	4141.11	64.5107	4141.11	64.3026	4141.11	63.1778	4141.11	61.2084	4141.11	59.6448	4141.11	53.7964
4287.6	83.6306	4287.6	82.7117	4287.6	82.9094	4287.6	81.174	4287.6	81.4194	4287.6	80.4209	4287.6	80.7285	4287.6	80.1282	4287.6	80.3881	4287.6	79.1411	4287.6	79.3445	4287.6	77.5648	4287.6	77.6232	4287.6	75.3149	4287.6	75.4222	4287.6	72.915	4287.6	72.625	4287.6	70.2113	4287.6	70.1623	4287.6	67.7313	4287.6	67.4502	4287.6	64.8457	4287.6	65.1642	4287.6	62.7036	4287.6	62.6762	4287.6	64.1444	4287.6	62.2682	4287.6	62.7378	4287.6	62.1076	4287.6	64.7606	4287.6	65.3507	4287.6	63.5188	4287.6	63.1801	4287.6	60.6313	4287.6	60.4318	4287.6	54.437
4438.48	83.6474	4438.48	82.8845	4438.48	82.9396	4438.48	81.5086	4438.48	81.3307	4438.48	80.9042	4438.48	80.5411	4438.48	80.4591	4438.48	80.3899	4438.48	79.3702	4438.48	79.3642	4438.48	77.6006	4438.48	77.3557	4438.48	74.8686	4438.48	74.872	4438.48	71.7731	4438.48	71.9007	4438.48	67.799	4438.48	69.5968	4438.48	66.0108	4438.48	66.7552	4438.48	64.5575	4438.48	64.5054	4438.48	62.616	4438.48	62.1249	4438.48	64.7882	4438.48	60.9842	4438.48	63.0079	4438.48	62.8837	4438.48	64.576	4438.48	64.1717	4438.48	62.7916	4438.48	62.1982	4438.48	59.5459	4438.48	60.841	4438.48	50.0642
4595.21	83.1877	4595.21	82.4349	4595.21	82.5633	4595.21	80.8755	4595.21	81.1158	4595.21	80.0795	4595.21	80.5325	4595.21	80.0244	4595.21	80.4497	4595.21	78.6526	4595.21	79.3085	4595.21	76.8373	4595.21	77.2924	4595.21	74.6643	4595.21	75.178	4595.21	72.4859	4595.21	72.3114	4595.21	69.5646	4595.21	69.8943	4595.21	67.6299	4595.21	67.0057	4595.21	64.395	4595.21	64.0734	4595.21	62.0097	4595.21	62.2721	4595.21	62.9367	4595.21	60.2159	4595.21	62.5393	4595.21	61.9087	4595.21	63.6182	4595.21	64.7607	4595.21	61.2121	4595.21	62.0449	4595.21	58.3595	4595.21	58.956	4595.21	53.4732
4756.35	83.2763	4756.35	82.5398	4756.35	82.4254	4756.35	81.3307	4756.35	81.1244	4756.35	80.4702	4756.35	80.657	4756.35	80.212	4756.35	80.2408	4756.35	79.4211	4756.35	79.2272	4756.35	77.451	4756.35	77.0193	4756.35	75.0141	4756.35	74.5436	4756.35	72.0566	4756.35	71.4961	4756.35	68.6859	4756.35	69.2361	4756.35	65.5605	4756.35	66.0611	4756.35	63.5133	4756.35	63.3865	4756.35	62.2895	4756.35	60.4673	4756.35	61.8472	4756.35	59.8422	4756.35	63.2847	4756.35	62.3856	4756.35	63.8689	4756.35	63.8056	4756.35	60.6502	4756.35	61.8325	4756.35	58.2579	4756.35	59.968	4756.35	51.0721
4924.8	83.1646	4924.8	82.4951	4924.8	82.4284	4924.8	81.4363	4924.8	81.1909	4924.8	80.7637	4924.8	80.8554	4924.8	79.8959	4924.8	80.176	4924.8	78.8172	4924.8	78.9384	4924.8	76.9156	4924.8	76.9591	4924.8	74.3732	4924.8	74.7987	4924.8	71.5806	4924.8	72.0574	4924.8	69.5122	4924.8	69.8517	4924.8	67.6097	4924.8	67.07	4924.8	65.3171	4924.8	64.7871	4924.8	62.3807	4924.8	61.0668	4924.8	62.5046	4924.8	59.8517	4924.8	63.2121	4924.8	61.2813	4924.8	64.5898	4924.8	64.6459	4924.8	61.6157	4924.8	61.9995	4924.8	58.4255	4924.8	59.5573	4924.8	55.4803
5097.66	82.8705	5097.66	82.3385	5097.66	82.44	5097.66	81.4233	5097.66	81.4376	5097.66	80.7273	5097.66	80.9746	5097.66	79.8784	5097.66	80.2227	5097.66	78.7379	5097.66	78.8899	5097.66	77.2714	5097.66	77.2105	5097.66	75.0075	5097.66	74.894	5097.66	72.0973	5097.66	72.0813	5097.66	69.4106	5097.66	69.4432	5097.66	66.8501	5097.66	66.9531	5097.66	63.2356	5097.66	64.5576	5097.66	60.6426	5097.66	60.8705	5097.66	60.762	5097.66	60.0858	5097.66	62.0945	5097.66	60.8103	5097.66	62.6972	5097.66	63.4442	5097.66	60.3421	5097.66	61.9347	5097.66	57.0176	5097.66	59.1481	5097.66	51.6578
5277.83	82.4399	5277.83	82.1849	5277.83	82.233	5277.83	81.599	5277.83	81.3813	5277.83	80.7769	5277.83	80.5899	5277.83	79.9333	5277.83	79.714	5277.83	78.8245	5277.83	78.6	5277.83	77.0921	5277.83	77.0292	5277.83	74.4579	5277.83	74.7477	5277.83	71.297	5277.83	71.9193	5277.83	68.0847	5277.83	69.3122	5277.83	66.1882	5277.83	66.6506	5277.83	64.3757	5277.83	64.1446	5277.83	61.6063	5277.83	61.4593	5277.83	60.8142	5277.83	59.6882	5277.83	61.8646	5277.83	59.9938	5277.83	62.8666	5277.83	63.151	5277.83	60.4265	5277.83	62.0536	5277.83	56.6016	5277.83	58.0784	5277.83	53.8828
5463.87	82.6227	5463.87	82.5985	5463.87	82.7578	5463.87	82.1786	5463.87	82.051	5463.87	80.786	5463.87	80.841	5463.87	79.5643	5463.87	79.8214	5463.87	78.5975	5463.87	78.8714	5463.87	77.0104	5463.87	77.3366	5463.87	74.3745	5463.87	74.7733	5463.87	70.9799	5463.87	71.9595	5463.87	68.6525	5463.87	69.1552	5463.87	66.4504	5463.87	66.5184	5463.87	63.9405	5463.87	63.7434	5463.87	61.3981	5463.87	61.1785	5463.87	59.4027	5463.87	60.4002	5463.87	59.2861	5463.87	58.6062	5463.87	60.9567	5463.87	62.1462	5463.87	60.4319	5463.87	61.2227	5463.87	56.5423	5463.87	57.4852	5463.87	53.0116
5657.23	82.3513	5657.23	82.3437	5657.23	82.6127	5657.23	81.8668	5657.23	82.0055	5657.23	80.0899	5657.23	80.5691	5657.23	78.8766	5657.23	79.5184	5657.23	78.2591	5657.23	78.6509	5657.23	76.8498	5657.23	77.0338	5657.23	74.397	5657.23	74.3896	5657.23	71.1564	5657.23	71.3951	5657.23	68.5439	5657.23	68.7223	5657.23	65.1469	5657.23	65.8486	5657.23	62.3631	5657.23	62.877	5657.23	59.4794	5657.23	61.0336	5657.23	60.7805	5657.23	59.0474	5657.23	59.3339	5657.23	59.9257	5657.23	60.4605	5657.23	61.5134	5657.23	58.8091	5657.23	61.6187	5657.23	56.0511	5657.23	56.1162	5657.23	53.853
5856.45	82.2579	5856.45	82.3521	5856.45	82.6107	5856.45	81.8824	5856.45	81.9664	5856.45	80.1743	5856.45	80.4906	5856.45	79.0727	5856.45	79.3716	5856.45	78.3857	5856.45	78.3721	5856.45	76.6971	5856.45	76.4833	5856.45	73.9017	5856.45	73.5703	5856.45	70.1189	5856.45	70.6585	5856.45	66.9971	5856.45	67.9262	5856.45	63.7284	5856.45	64.3074	5856.45	61.3449	5856.45	62.3125	5856.45	60.3452	5856.45	59.981	5856.45	58.6486	5856.45	58.5218	5856.45	59.0934	5856.45	58.2541	5856.45	60.8516	5856.45	60.438	5856.45	59.3045	5856.45	61.152	5856.45	53.8694	5856.45	55.5276	5856.45	54.1333
6062.99	82.2876	6062.99	82.3676	6062.99	82.5924	6062.99	81.7959	6062.99	81.9228	6062.99	80.1835	6062.99	80.2152	6062.99	78.8377	6062.99	78.9228	6062.99	77.9447	6062.99	77.8605	6062.99	75.9179	6062.99	76.1224	6062.99	72.7163	6062.99	73.0129	6062.99	69.1541	6062.99	70.4368	6062.99	66.6169	6062.99	67.5522	6062.99	63.9198	6062.99	64.237	6062.99	61.4792	6062.99	62.1494	6062.99	60.0476	6062.99	59.9362	6062.99	57.8611	6062.99	56.4868	6062.99	56.0222	6062.99	58.2908	6062.99	58.953	6062.99	60.269	6062.99	59.2681	6062.99	59.7289	6062.99	54.1562	6062.99	54.5972	6062.99	53.205
6276.86	82.1323	6276.86	82.2721	6276.86	82.4412	6276.86	81.6113	6276.86	81.8072	6276.86	80.0753	6276.86	80.0509	6276.86	78.7443	6276.86	78.93	6276.86	77.6933	6276.86	77.8819	6276.86	75.5368	6276.86	75.9403	6276.86	72.7696	6276.86	72.6683	6276.86	69.852	6276.86	70.6655	6276.86	67.3335	6276.86	67.5354	6276.86	64.1226	6276.86	64.484	6276.86	61.541	6276.86	61.5308	6276.86	59.9564	6276.86	58.9511	6276.86	55.8319	6276.86	56.9657	6276.86	53.3374	6276.86	56.5894	6276.86	58.337	6276.86	59.941	6276.86	59.4616	6276.86	59.3215	6276.86	53.7799	6276.86	54.0743	6276.86	53.5948
6498.05	82.1065	6498.05	82.2737	6498.05	82.438	6498.05	81.7064	6498.05	82.0552	6498.05	80.438	6498.05	80.3661	6498.05	78.8788	6498.05	79.109	6498.05	77.6134	6498.05	77.7718	6498.05	75.394	6498.05	75.393	6498.05	72.5225	6498.05	72.1729	6498.05	70.2504	6498.05	69.9489	6498.05	66.9483	6498.05	66.2081	6498.05	62.872	6498.05	62.9783	6498.05	61.3054	6498.05	59.8628	6498.05	59.2005	6498.05	57.8242	6498.05	56.7369	6498.05	54.7907	6498.05	54.406	6498.05	55.3961	6498.05	57.5617	6498.05	57.9394	6498.05	58.8972	6498.05	58.4365	6498.05	53.063	6498.05	51.4616	6498.05	51.6723
6726.56	81.9305	6726.56	82.179	6726.56	82.3185	6726.56	81.6894	6726.56	81.9568	6726.56	80.5589	6726.56	80.6262	6726.56	78.9795	6726.56	79.156	6726.56	77.4654	6726.56	77.4955	6726.56	75.248	6726.56	75.1442	6726.56	72.5115	6726.56	72.2008	6726.56	69.9809	6726.56	70.0715	6726.56	66.5822	6726.56	65.806	6726.56	62.5664	6726.56	63.383	6726.56	60.5983	6726.56	60.0041	6726.56	58.1472	6726.56	58.1154	6726.56	55.1145	6726.56	54.1092	6726.56	54.8895	6726.56	55.5409	6726.56	57.4611	6726.56	57.4231	6726.56	59.508	6726.56	57.4032	6726.56	52.2153	6726.56	52.5397	6726.56	52.0096
6963.87	82.1104	6963.87	82.1692	6963.87	82.2931	6963.87	81.7537	6963.87	81.999	6963.87	80.6634	6963.87	80.8599	6963.87	78.9467	6963.87	79.0764	6963.87	77.3372	6963.87	77.5233	6963.87	75.3802	6963.87	75.5612	6963.87	72.6173	6963.87	73.2698	6963.87	70.1179	6963.87	70.404	6963.87	65.8919	6963.87	66.4646	6963.87	63.1961	6963.87	63.9726	6963.87	61.2012	6963.87	60.7146	6963.87	57.7328	6963.87	56.8946	6963.87	53.9188	6963.87	55.2748	6963.87	51.2661	6963.87	55.255	6963.87	55.3911	6963.87	57.5892	6963.87	59.2868	6963.87	58.0781	6963.87	52.9428	6963.87	51.498	6963.87	51.6111
7209.96	82.5089	7209.96	82.2944	7209.96	82.4168	7209.96	81.9706	7209.96	82.2423	7209.96	80.9463	7209.96	81.2993	7209.96	78.9894	7209.96	79.1397	7209.96	77.2265	7209.96	77.6416	7209.96	75.6574	7209.96	75.9121	7209.96	72.7467	7209.96	73.7249	7209.96	70.0142	7209.96	70.3262	7209.96	65.5411	7209.96	66.373	7209.96	62.5555	7209.96	63.583	7209.96	60.7783	7209.96	60.5896	7209.96	55.3427	7209.96	57.086	7209.96	51.3786	7209.96	54.2243	7209.96	52.1631	7209.96	55.7103	7209.96	54.068	7209.96	58.0527	7209.96	58.5015	7209.96	56.8989	7209.96	51.828	7209.96	51.0145	7209.96	52.8035
7464.84	82.5169	7464.84	82.41	7464.84	82.4566	7464.84	82.2355	7464.84	82.4619	7464.84	81.1089	7464.84	81.4049	7464.84	78.9897	7464.84	79.0363	7464.84	77.2151	7464.84	77.4684	7464.84	75.5571	7464.84	75.7977	7464.84	72.4578	7464.84	73.3801	7464.84	69.5915	7464.84	69.8571	7464.84	64.9482	7464.84	66.0637	7464.84	62.6226	7464.84	63.1007	7464.84	60.1999	7464.84	59.7941	7464.84	54.6008	7464.84	56.769	7464.84	48.6029	7464.84	55.2578	7464.84	54.1447	7464.84	55.6425	7464.84	55.6158	7464.84	58.5999	7464.84	59.2349	7464.84	57.6918	7464.84	50.914	7464.84	49.4928	7464.84	52.7559
7727.05	82.3168	7727.05	82.3202	7727.05	82.3539	7727.05	82.4557	7727.05	82.5011	7727.05	81.187	7727.05	81.3347	7727.05	78.9284	7727.05	78.9124	7727.05	77.2439	7727.05	77.3584	7727.05	75.1867	7727.05	75.4612	7727.05	72.227	7727.05	72.9919	7727.05	69.0208	7727.05	68.8996	7727.05	64.6533	7727.05	65.8889	7727.05	62.7904	7727.05	62.3798	7727.05	59.2952	7727.05	58.9318	7727.05	54.8087	7727.05	56.4178	7727.05	49.5996	7727.05	55.764	7727.05	53.737	7727.05	55.0382	7727.05	56.5296	7727.05	58.3527	7727.05	60.0959	7727.05	58.1271	7727.05	50.735	7727.05	50.0558	7727.05	54.9327
7999.51	82.4887	7999.51	82.2241	7999.51	82.2116	7999.51	82.4957	7999.51	82.4354	7999.51	81.1961	7999.51	81.3982	7999.51	78.943	7999.51	78.9005	7999.51	77.1744	7999.51	77.2397	7999.51	74.7333	7999.51	75.2028	7999.51	72.2607	7999.51	72.6428	7999.51	68.5188	7999.51	68.649	7999.51	65.0722	7999.51	65.7261	7999.51	62.7543	7999.51	62.2413	7999.51	58.9748	7999.51	59.6058	7999.51	55.1237	7999.51	55.6397	7999.51	50.8316	7999.51	56.0411	7999.51	53.1805	7999.51	54.8996	7999.51	55.8522	7999.51	57.195	7999.51	59.7434	7999.51	57.4771	7999.51	48.1928	7999.51	46.2617	7999.51	55.4943
8282.23	82.413	8282.23	82.1439	8282.23	82.0099	8282.23	82.2438	8282.23	82.2701	8282.23	81.1576	8282.23	81.2174	8282.23	79.0869	8282.23	78.8624	8282.23	77.04	8282.23	77.0233	8282.23	74.5961	8282.23	74.8986	8282.23	72.0767	8282.23	72.4328	8282.23	68.5962	8282.23	68.6547	8282.23	65.1494	8282.23	65.5093	8282.23	62.8527	8282.23	61.7865	8282.23	58.679	8282.23	59.4897	8282.23	55.3116	8282.23	55.5575	8282.23	52.2232	8282.23	55.8253	8282.23	53.5672	8282.23	54.8667	8282.23	55.2495	8282.23	56.1112	8282.23	58.7814	8282.23	56.9752	8282.23	48.0983	8282.23	45.096	8282.23	54.3373
8573.73	82.2089	8573.73	82.202	8573.73	82.1149	8573.73	82.1209	8573.73	82.1591	8573.73	80.9895	8573.73	81.0857	8573.73	78.9819	8573.73	78.7587	8573.73	76.8019	8573.73	76.7388	8573.73	74.1811	8573.73	74.4418	8573.73	71.9484	8573.73	71.8406	8573.73	68.0166	8573.73	68.422	8573.73	64.7732	8573.73	64.7879	8573.73	61.6767	8573.73	61.2519	8573.73	57.758	8573.73	58.7483	8573.73	55.8055	8573.73	56.0781	8573.73	55.0113	8573.73	56.1822	8573.73	52.3871	8573.73	52.7281	8573.73	55.4358	8573.73	54.9521	8573.73	58.538	8573.73	56.1432	8573.73	47.205	8573.73	41.5401	8573.73	54.105
8876.95	81.952	8876.95	82.1673	8876.95	82.1689	8876.95	81.8903	8876.95	81.9183	8876.95	80.9134	8876.95	81.0359	8876.95	78.8231	8876.95	78.6781	8876.95	76.3384	8876.95	76.2876	8876.95	73.8246	8876.95	74.2169	8876.95	71.4212	8876.95	71.1683	8876.95	67.2073	8876.95	67.7273	8876.95	64.4975	8876.95	64.0171	8876.95	60.6403	8876.95	60.3183	8876.95	57.5231	8876.95	57.8204	8876.95	54.9294	8876.95	56.5454	8876.95	54.6963	8876.95	54.599	8876.95	51.346	8876.95	50.4565	8876.95	54.6922	8876.95	53.5303	8876.95	57.8889	8876.95	55.3337	8876.95	43.3207	8876.95	38.8508	8876.95	52.8076
9188.96	81.762	9188.96	82.0891	9188.96	82.0224	9188.96	81.6867	9188.96	81.6666	9188.96	80.8744	9188.96	80.9795	9188.96	78.7249	9188.96	78.5527	9188.96	76.0985	9188.96	75.8393	9188.96	73.3434	9188.96	73.8709	9188.96	70.6263	9188.96	70.4951	9188.96	66.7461	9188.96	66.9015	9188.96	63.7598	9188.96	62.4643	9188.96	59.8067	9188.96	59.6261	9188.96	57.3411	9188.96	57.097	9188.96	55.2132	9188.96	55.9943	9188.96	53.4076	9188.96	52.6296	9188.96	49.8775	9188.96	48.6767	9188.96	54.1343	9188.96	51.8519	9188.96	57.0045	9188.96	54.236	9188.96	43.0643	9188.96	39.3576	9188.96	50.321
9514.16	81.6931	9514.16	82.0909	9514.16	82.0732	9514.16	81.5836	9514.16	81.4851	9514.16	81.005	9514.16	80.9507	9514.16	78.7147	9514.16	78.5159	9514.16	75.9693	9514.16	75.6107	9514.16	72.9721	9514.16	73.3616	9514.16	70.4719	9514.16	70.0173	9514.16	67.0301	9514.16	66.6972	9514.16	63.7048	9514.16	62.5983	9514.16	60.6177	9514.16	59.6685	9514.16	56.7614	9514.16	55.0969	9514.16	55.7779	9514.16	55.4742	9514.16	52.6846	9514.16	48.9787	9514.16	48.3344	9514.16	45.6726	9514.16	53.1049	9514.16	52.0489	9514.16	55.7479	9514.16	54.195	9514.16	39.5054	9514.16	38.1832	9514.16	50.1453
9849.61	81.5998	9849.61	81.9906	9849.61	81.9625	9849.61	81.5143	9849.61	81.5333	9849.61	81.2537	9849.61	81.0774	9849.61	79.1043	9849.61	78.8407	9849.61	76.2252	9849.61	75.9184	9849.61	73.4551	9849.61	73.6494	9849.61	70.8686	9849.61	70.7438	9849.61	67.0972	9849.61	67.2057	9849.61	63.9805	9849.61	63.1244	9849.61	60.6487	9849.61	59.8758	9849.61	57.9035	9849.61	56.52	9849.61	54.287	9849.61	55.5214	9849.61	51.3266	9849.61	44.1434	9849.61	45.0834	9849.61	39.8657	9849.61	52.2165	9849.61	49.699	9849.61	54.4263	9849.61	55.0216	9849.61	35.1296	9849.61	35.1177	9849.61	49.7977
10196.8	81.8607	10196.8	81.7458	10196.8	81.677	10196.8	81.6506	10196.8	81.5962	10196.8	81.6432	10196.8	81.2112	10196.8	79.4909	10196.8	79.1558	10196.8	76.6844	10196.8	76.1498	10196.8	74.1058	10196.8	73.9388	10196.8	71.5156	10196.8	71.5269	10196.8	67.1475	10196.8	66.916	10196.8	63.4533	10196.8	62.3352	10196.8	59.7142	10196.8	60.038	10196.8	57.7826	10196.8	56.9789	10196.8	54.3168	10196.8	53.7903	10196.8	50.9097	10196.8	44.4239	10196.8	40.6069	10196.8	38.2543	10196.8	50.6343	10196.8	48.0441	10196.8	53.3021	10196.8	54.4932	10196.8	28.7974	10196.8	39.0965	10196.8	49.6106
10555.7	81.3267	10555.7	81.6404	10555.7	81.5975	10555.7	81.4909	10555.7	81.4053	10555.7	81.6834	10555.7	81.1701	10555.7	79.732	10555.7	79.3184	10555.7	76.939	10555.7	76.4857	10555.7	74.3095	10555.7	74.1296	10555.7	71.2803	10555.7	71.3862	10555.7	67.1307	10555.7	66.4122	10555.7	63.0992	10555.7	62.4768	10555.7	59.5859	10555.7	59.1075	10555.7	57.2915	10555.7	55.0166	10555.7	52.2595	10555.7	53.1554	10555.7	50.2539	10555.7	42.2343	10555.7	36.96	10555.7	40.9553	10555.7	49.4579	10555.7	46.1232	10555.7	51.1444	10555.7	53.1704	10555.7	31.0142	10555.7	42.3771	10555.7	49.6797
10927.7	81.1026	10927.7	81.1761	10927.7	81.1026	10927.7	81.4499	10927.7	81.6214	10927.7	81.713	10927.7	80.9698	10927.7	79.7847	10927.7	79.4826	10927.7	76.9099	10927.7	76.7749	10927.7	74.4219	10927.7	74.1643	10927.7	71.2053	10927.7	71.0248	10927.7	66.8151	10927.7	66.759	10927.7	64.1121	10927.7	63.4404	10927.7	59.4665	10927.7	59.2097	10927.7	56.2335	10927.7	54.7762	10927.7	53.7612	10927.7	52.507	10927.7	51.3479	10927.7	48.6627	10927.7	38.9526	10927.7	44.5244	10927.7	48.4848	10927.7	44.7722	10927.7	49.9434	10927.7	54.167	10927.7	33.7223	10927.7	43.1526	10927.7	47.2992
11313	81.5475	11313	80.9575	11313	80.9387	11313	81.5112	11313	81.494	11313	81.7357	11313	80.9876	11313	79.7356	11313	79.384	11313	76.9776	11313	77.0003	11313	74.6605	11313	74.002	11313	70.9118	11313	71.0037	11313	66.5105	11313	65.922	11313	62.4542	11313	62.245	11313	59.2148	11313	58.5634	11313	57.0323	11313	55.3408	11313	52.704	11313	53.0096	11313	50.5628	11313	51.5109	11313	41.0279	11313	47.8753	11313	47.0897	11313	47.709	11313	50.5224	11313	54.5831	11313	34.1755	11313	43.3251	11313	48.3725
11712.9	81.403	11712.9	80.83	11712.9	80.8708	11712.9	81.3021	11712.9	81.5018	11712.9	81.8657	11712.9	81.1565	11712.9	80.3251	11712.9	79.801	11712.9	77.5133	11712.9	77.2837	11712.9	74.7709	11712.9	73.9079	11712.9	71.1752	11712.9	71.0124	11712.9	67.7457	11712.9	67.0823	11712.9	63.9949	11712.9	63.9477	11712.9	60.8714	11712.9	58.4718	11712.9	55.9075	11712.9	56.2731	11712.9	52.8271	11712.9	53.3521	11712.9	50.8401	11712.9	51.9306	11712.9	41.0322	11712.9	47.7544	11712.9	49.2925	11712.9	47.2888	11712.9	50.952	11712.9	54.3631	11712.9	36.7354	11712.9	42.1727	11712.9	48.5358
12126	81.2135	12126	80.8498	12126	80.7746	12126	81.4202	12126	81.4006	12126	82.1056	12126	81.1554	12126	80.8598	12126	80.1939	12126	77.8645	12126	77.3627	12126	75.3722	12126	74.5421	12126	72.125	12126	71.6788	12126	67.7926	12126	66.7069	12126	63.5408	12126	62.1188	12126	59.3073	12126	58.336	12126	56.4088	12126	56.423	12126	54.7098	12126	52.2057	12126	52.0048	12126	49.7953	12126	43.5294	12126	49.0905	12126	47.3162	12126	46.9833	12126	50.256	12126	54.4058	12126	27.8079	12126	40.4042	12126	49.3776
12553.7	81.4691	12553.7	81.3207	12553.7	81.4136	12553.7	81.462	12553.7	81.5119	12553.7	82.2445	12553.7	81.2164	12553.7	81.3741	12553.7	80.3881	12553.7	78.356	12553.7	77.6942	12553.7	75.9511	12553.7	74.6458	12553.7	72.3031	12553.7	71.6348	12553.7	68.5531	12553.7	66.5693	12553.7	63.1613	12553.7	61.2729	12553.7	59.7876	12553.7	57.6841	12553.7	56.3888	12553.7	55.5161	12553.7	53.7146	12553.7	52.2347	12553.7	50.1043	12553.7	49.5365	12553.7	41.3032	12553.7	47.7555	12553.7	47.2367	12553.7	46.8305	12553.7	50.048	12553.7	54.4033	12553.7	32.0473	12553.7	43.2425	12553.7	49.466
12996.1	82.4499	12996.1	81.9814	12996.1	81.9753	12996.1	81.6905	12996.1	81.6236	12996.1	82.084	12996.1	80.993	12996.1	81.3079	12996.1	80.1558	12996.1	78.169	12996.1	77.497	12996.1	75.5491	12996.1	74.1515	12996.1	71.7423	12996.1	70.7472	12996.1	68.2202	12996.1	66.5951	12996.1	63.6889	12996.1	61.8061	12996.1	59.7028	12996.1	56.9582	12996.1	55.3288	12996.1	54.5203	12996.1	52.2238	12996.1	51.6731	12996.1	47.9577	12996.1	47.4661	12996.1	37.3954	12996.1	48.0222	12996.1	45.8501	12996.1	43.2007	12996.1	48.624	12996.1	52.3902	12996.1	38.6746	12996.1	38.9867	12996.1	48.6224
13454.6	83.2187	13454.6	82.5259	13454.6	82.6083	13454.6	81.5703	13454.6	81.6535	13454.6	81.5476	13454.6	80.514	13454.6	80.5637	13454.6	79.2878	13454.6	77.7555	13454.6	76.6431	13454.6	74.6023	13454.6	72.703	13454.6	70.9803	13454.6	69.6792	13454.6	67.1613	13454.6	64.3745	13454.6	61.6458	13454.6	58.0234	13454.6	57.5103	13454.6	55.9327	13454.6	54.368	13454.6	53.3923	13454.6	50.4381	13454.6	47.4818	13454.6	46.2118	13454.6	46.0105	13454.6	36.0873	13454.6	45.361	13454.6	44.0925	13454.6	46.8466	13454.6	44.1821	13454.6	51.1691	13454.6	30.1905	13454.6	40.3318	13454.6	45.4541
13929.2	82.9187	13929.2	82.621	13929.2	82.9634	13929.2	81.2237	13929.2	81.3112	13929.2	80.5323	13929.2	79.6186	13929.2	79.3448	13929.2	77.8418	13929.2	76.47	13929.2	75.1908	13929.2	73.4017	13929.2	71.1811	13929.2	69.8177	13929.2	67.6408	13929.2	66.2809	13929.2	63.217	13929.2	60.9442	13929.2	56.993	13929.2	55.1433	13929.2	52.889	13929.2	51.889	13929.2	48.6813	13929.2	48.3327	13929.2	46.6385	13929.2	42.5797	13929.2	42.7726	13929.2	33.2931	13929.2	41.6269	13929.2	39.5474	13929.2	43.5256	13929.2	42.9463	13929.2	46.8753	13929.2	35.0854	13929.2	39.2437	13929.2	45.6177
14419.9	83.7606	14419.9	82.6945	14419.9	83.0617	14419.9	81.1209	14419.9	81.364	14419.9	79.149	14419.9	78.5972	14419.9	77.4625	14419.9	75.8099	14419.9	74.3732	14419.9	72.6935	14419.9	71.1714	14419.9	68.2343	14419.9	67.5685	14419.9	64.5441	14419.9	63.2384	14419.9	60.0907	14419.9	59.2777	14419.9	54.8287	14419.9	52.7709	14419.9	49.4522	14419.9	49.398	14419.9	47.6391	14419.9	45.8205	14419.9	42.5584	14419.9	40.1167	14419.9	34.0782	14419.9	32.817	14419.9	38.4992	14419.9	36.7112	14419.9	41.6969	14419.9	42.6951	14419.9	47.7697	14419.9	16.4922	14419.9	40.5084	14419.9	41.8487
14928.2	83.682	14928.2	82.5972	14928.2	83.0818	14928.2	80.7606	14928.2	81.1955	14928.2	77.4902	14928.2	77.7973	14928.2	75.1488	14928.2	73.5331	14928.2	71.6135	14928.2	69.3014	14928.2	68.1868	14928.2	64.0224	14928.2	64.8731	14928.2	60.9976	14928.2	61.0241	14928.2	55.7635	14928.2	55.5501	14928.2	47.6012	14928.2	49.9407	14928.2	44.7091	14928.2	46.9972	14928.2	46.5916	14928.2	42.4896	14928.2	36.1532	14928.2	41.695	14928.2	32.6227	14928.2	38.4838	14928.2	36.6424	14928.2	24.6052	14928.2	40.1945	14928.2	35.9619	14928.2	47.8871	14928.2	37.9597	14928.2	40.6733	14928.2	26.7821
15455.6	83.4252	15455.6	82.5716	15455.6	83.0875	15455.6	80.5906	15455.6	81.0501	15455.6	76.799	15455.6	77.7386	15455.6	73.0129	15455.6	71.8806	15455.6	68.8124	15455.6	66.0441	15455.6	65.622	15455.6	59.4461	15455.6	62.131	15455.6	58.4552	15455.6	58.1465	15455.6	53.2581	15455.6	54.3098	15455.6	46.4761	15455.6	46.1237	15455.6	41.7523	15455.6	43.0908	15455.6	41.8295	15455.6	36.7782	15455.6	8.01124	15455.6	32.5167	15455.6	28.1875	15455.6	38.9669	15455.6	36.4364	15455.6	23.1902	15455.6	34.8899	15455.6	37.0282	15455.6	46.5306	15455.6	36.814	15455.6	38.827	15455.6	34.7389
16000.5	84.2042	16000.5	83.2624	16000.5	83.5979	16000.5	81.3783	16000.5	81.7421	16000.5	77.1353	16000.5	78.1184	16000.5	72.5454	16000.5	71.8616	16000.5	67.6829	16000.5	63.9398	16000.5	64.0382	16000.5	58.1063	16000.5	61.7383	16000.5	57.5099	16000.5	57.5788	16000.5	54.3785	16000.5	52.7544	16000.5	45.8033	16000.5	47.1934	16000.5	44.4347	16000.5	41.1299	16000.5	44.2073	16000.5	36.6563	16000.5	21.2956	16000.5	30.5038	16000.5	27.3278	16000.5	36.7064	16000.5	37.729	16000.5	21.2766	16000.5	31.5793	16000.5	40.5858	16000.5	46.1977	16000.5	27.9621	16000.5	42.6148	16000.5	30.1653
16564.5	85.1253	16564.5	84.313	16564.5	84.6368	16564.5	82.355	16564.5	82.5118	16564.5	78.0904	16564.5	79.2718	16564.5	72.0967	16564.5	71.967	16564.5	66.568	16564.5	62.4038	16564.5	64.897	16564.5	59.0475	16564.5	61.6666	16564.5	59.726	16564.5	58.0619	16564.5	56.4138	16564.5	53.891	16564.5	49.7361	16564.5	47.5145	16564.5	45.4535	16564.5	43.4118	16564.5	44.8921	16564.5	41.099	16564.5	32.978	16564.5	35.5677	16564.5	36.4444	16564.5	41.0724	16564.5	39.8266	16564.5	23.9845	16564.5	34.9224	16564.5	39.978	16564.5	47.0519	16564.5	32.3948	16564.5	39.6331	16564.5	37.2615
17148.9	85.4227	17148.9	84.9918	17148.9	85.1606	17148.9	82.9837	17148.9	83.0275	17148.9	78.4854	17148.9	79.5116	17148.9	71.7412	17148.9	71.2375	17148.9	65.7688	17148.9	60.9888	17148.9	64.7716	17148.9	61.3969	17148.9	62.917	17148.9	62.7629	17148.9	59.2583	17148.9	58.9422	17148.9	54.0142	17148.9	52.5134	17148.9	50.3373	17148.9	48.3133	17148.9	46.4649	17148.9	45.9041	17148.9	43.9511	17148.9	37.5323	17148.9	42.9953	17148.9	39.0056	17148.9	42.0913	17148.9	33.4264	17148.9	35.1056	17148.9	37.5526	17148.9	44.2915	17148.9	44.7085	17148.9	27.9216	17148.9	36.1155	17148.9	36.3612
17752.4	85.9699	17752.4	85.2113	17752.4	85.1621	17752.4	83.3043	17752.4	82.9043	17752.4	78.7107	17752.4	79.2844	17752.4	70.887	17752.4	70.2825	17752.4	66.2358	17752.4	62.1298	17752.4	65.6194	17752.4	63.7522	17752.4	64.1737	17752.4	64.0716	17752.4	61.0331	17752.4	60.5793	17752.4	56.51	17752.4	55.5693	17752.4	50.0051	17752.4	50.7279	17752.4	46.7355	17752.4	46.4983	17752.4	42.9426	17752.4	34.5175	17752.4	46.6999	17752.4	38.9937	17752.4	45.1204	17752.4	38.6881	17752.4	37.182	17752.4	41.64	17752.4	42.5712	17752.4	47.4726	17752.4	31.4782	17752.4	41.3602	17752.4	42.7388
18379.4	85.2631	18379.4	85.0085	18379.4	84.7448	18379.4	82.8903	18379.4	82.1688	18379.4	78.2163	18379.4	78.5796	18379.4	69.6563	18379.4	68.3169	18379.4	66.6485	18379.4	63.8899	18379.4	66.9295	18379.4	65.0026	18379.4	65.3477	18379.4	64.65	18379.4	61.688	18379.4	61.542	18379.4	56.542	18379.4	56.4817	18379.4	52.0221	18379.4	51.3171	18379.4	48.1584	18379.4	45.8458	18379.4	44.7037	18379.4	42.585	18379.4	44.479	18379.4	36.1503	18379.4	38.7276	18379.4	32.2635	18379.4	37.7391	18379.4	40.4126	18379.4	42.5631	18379.4	40.898	18379.4	33.1968	18379.4	27.1899	18379.4	35.4952
19026.9	85.145	19026.9	84.517	19026.9	84.2164	19026.9	81.9775	19026.9	81.2711	19026.9	76.9293	19026.9	77.1276	19026.9	67.7114	19026.9	66.1169	19026.9	67.4177	19026.9	65.2403	19026.9	67.0606	19026.9	65.1961	19026.9	65.1076	19026.9	64.7522	19026.9	61.6479	19026.9	61.363	19026.9	56.5465	19026.9	55.9974	19026.9	51.4942	19026.9	50.8468	19026.9	47.5111	19026.9	44.5907	19026.9	42.4729	19026.9	39.085	19026.9	44.0304	19026.9	29.5866	19026.9	41.3138	19026.9	28.0674	19026.9	40.1648	19026.9	41.6567	19026.9	40.3215	19026.9	44.2724	19026.9	35.5659	19026.9	35.7847	19026.9	40.6599
19697.8	84.9354	19697.8	84.0153	19697.8	83.8131	19697.8	80.7727	19697.8	80.22	19697.8	74.9591	19697.8	75.5968	19697.8	65.8196	19697.8	63.8819	19697.8	67.7061	19697.8	66.1997	19697.8	67.1115	19697.8	66.0702	19697.8	64.484	19697.8	64.1961	19697.8	60.4525	19697.8	60.5225	19697.8	54.4239	19697.8	54.811	19697.8	51.1067	19697.8	49.5663	19697.8	46.0896	19697.8	42.488	19697.8	41.0173	19697.8	40.2936	19697.8	43.6138	19697.8	23.515	19697.8	38.3741	19697.8	35.9855	19697.8	37.6116	19697.8	38.6094	19697.8	41.0387	19697.8	42.0622	19697.8	34.4456	19697.8	37.1477	19697.8	41.013
19999.5	84.9272	19999.5	83.8784	19999.5	83.7114	19999.5	80.5277	19999.5	79.951	19999.5	73.9598	19999.5	75.0016	19999.5	65.5455	19999.5	62.3141	19999.5	67.3102	19999.5	66.546	19999.5	67.2662	19999.5	66.2123	19999.5	63.9476	19999.5	63.7587	19999.5	59.9093	19999.5	59.777	19999.5	54.0262	19999.5	56.7217	19999.5	50.2859	19999.5	48.3777	19999.5	40.9498	19999.5	45.7962	19999.5	44.5808	19999.5	44.2769	19999.5	41.9937	19999.5	37.295	19999.5	35.8394	19999.5	30.6143	19999.5	31.3426	19999.5	37.2229	19999.5	44.5151	19999.5	36.1912	19999.5	44.0961	19999.5	44.8975	19999.5	45.7331
