"SPL Vertical"
"On-Axis"		"10°"		"-10°"		"20°"		"-20°"		"30°"		"-30°"		"40°"		"-40°"		"50°"		"-50°"		"60°"		"-60°"		"70°"		"-70°"		"80°"		"-80°"		"90°"		"-90°"		"100°"		"-100°"		"110°"		"-110°"		"120°"		"-120°"		"130°"		"-130°"		"140°"		"-140°"		"150°"		"-150°"		"160°"		"-160°"		"170°"		"-170°"		"180°"
"Frequency [Hz]"	"Sound Pessure Level [dB]  / [2.83V 1m] "	"Frequency [Hz]"	"Sound Pessure Level [dB]  / [2.83V 1m] "	"Frequency [Hz]"	"Sound Pessure Level [dB]  / [2.83V 1m] "	"Frequency [Hz]"	"Sound Pessure Level [dB]  / [2.83V 1m] "	"Frequency [Hz]"	"Sound Pessure Level [dB]  / [2.83V 1m] "	"Frequency [Hz]"	"Sound Pessure Level [dB]  / [2.83V 1m] "	"Frequency [Hz]"	"Sound Pessure Level [dB]  / [2.83V 1m] "	"Frequency [Hz]"	"Sound Pessure Level [dB]  / [2.83V 1m] "	"Frequency [Hz]"	"Sound Pessure Level [dB]  / [2.83V 1m] "	"Frequency [Hz]"	"Sound Pessure Level [dB]  / [2.83V 1m] "	"Frequency [Hz]"	"Sound Pessure Level [dB]  / [2.83V 1m] "	"Frequency [Hz]"	"Sound Pessure Level [dB]  / [2.83V 1m] "	"Frequency [Hz]"	"Sound Pessure Level [dB]  / [2.83V 1m] "	"Frequency [Hz]"	"Sound Pessure Level [dB]  / [2.83V 1m] "	"Frequency [Hz]"	"Sound Pessure Level [dB]  / [2.83V 1m] "	"Frequency [Hz]"	"Sound Pessure Level [dB]  / [2.83V 1m] "	"Frequency [Hz]"	"Sound Pessure Level [dB]  / [2.83V 1m] "	"Frequency [Hz]"	"Sound Pessure Level [dB]  / [2.83V 1m] "	"Frequency [Hz]"	"Sound Pessure Level [dB]  / [2.83V 1m] "	"Frequency [Hz]"	"Sound Pessure Level [dB]  / [2.83V 1m] "	"Frequency [Hz]"	"Sound Pessure Level [dB]  / [2.83V 1m] "	"Frequency [Hz]"	"Sound Pessure Level [dB]  / [2.83V 1m] "	"Frequency [Hz]"	"Sound Pessure Level [dB]  / [2.83V 1m] "	"Frequency [Hz]"	"Sound Pessure Level [dB]  / [2.83V 1m] "	"Frequency [Hz]"	"Sound Pessure Level [dB]  / [2.83V 1m] "	"Frequency [Hz]"	"Sound Pessure Level [dB]  / [2.83V 1m] "	"Frequency [Hz]"	"Sound Pessure Level [dB]  / [2.83V 1m] "	"Frequency [Hz]"	"Sound Pessure Level [dB]  / [2.83V 1m] "	"Frequency [Hz]"	"Sound Pessure Level [dB]  / [2.83V 1m] "	"Frequency [Hz]"	"Sound Pessure Level [dB]  / [2.83V 1m] "	"Frequency [Hz]"	"Sound Pessure Level [dB]  / [2.83V 1m] "	"Frequency [Hz]"	"Sound Pessure Level [dB]  / [2.83V 1m] "	"Frequency [Hz]"	"Sound Pessure Level [dB]  / [2.83V 1m] "	"Frequency [Hz]"	"Sound Pessure Level [dB]  / [2.83V 1m] "	"Frequency [Hz]"	"Sound Pessure Level [dB]  / [2.83V 1m] "	"Frequency [Hz]"	"Sound Pessure Level [dB]  / [2.83V 1m] "
20.5078	60.4861	20.5078	60.2038	20.5078	60.6871	20.5078	59.8505	20.5078	60.8005	20.5078	59.4421	20.5078	60.8241	20.5078	59.0031	20.5078	60.7621	20.5078	58.5714	20.5078	60.6287	20.5078	58.2036	20.5078	60.4543	20.5078	57.9747	20.5078	60.2931	20.5078	57.9659	20.5078	60.2247	20.5078	58.2339	20.5078	60.3383	20.5078	58.7797	20.5078	60.6924	20.5078	59.5451	20.5078	61.2749	20.5078	60.4389	20.5078	62.0028	20.5078	61.3694	20.5078	62.7635	20.5078	62.2604	20.5078	63.4557	20.5078	63.0536	20.5078	64.0063	20.5078	63.705	20.5078	64.3702	20.5078	64.1815	20.5078	64.5237	20.5078	64.4593
21.9727	61.6367	21.9727	61.3837	21.9727	61.8125	21.9727	61.0601	21.9727	61.9073	21.9727	60.6775	21.9727	61.9214	21.9727	60.2544	21.9727	61.8608	21.9727	59.8218	21.9727	61.7414	21.9727	59.4283	21.9727	61.5949	21.9727	59.1433	21.9727	61.4746	21.9727	59.0488	21.9727	61.4547	21.9727	59.2144	21.9727	61.6123	21.9727	59.6629	21.9727	61.9914	21.9727	60.3547	21.9727	62.5709	21.9727	61.2062	21.9727	63.27	21.9727	62.1235	21.9727	63.9847	21.9727	63.0245	21.9727	64.6218	21.9727	63.8447	21.9727	65.1138	21.9727	64.5354	21.9727	65.4181	21.9727	65.0597	21.9727	65.5126	21.9727	65.3911
23.4375	63.3089	23.4375	63.0735	23.4375	63.4908	23.4375	62.7945	23.4375	63.6131	23.4375	62.4865	23.4375	63.6742	23.4375	62.17	23.4375	63.6786	23.4375	61.8729	23.4375	63.6389	23.4375	61.6312	23.4375	63.5804	23.4375	61.4879	23.4375	63.5426	23.4375	61.4862	23.4375	63.5779	23.4375	61.659	23.4375	63.7391	23.4375	62.0167	23.4375	64.0575	23.4375	62.5411	23.4375	64.5229	23.4375	63.1899	23.4375	65.0823	23.4375	63.9083	23.4375	65.6591	23.4375	64.639	23.4375	66.1767	23.4375	65.3288	23.4375	66.5736	23.4375	65.9308	23.4375	66.8086	23.4375	66.4057	23.4375	66.8598	23.4375	66.7225
24.9023	64.7712	24.9023	64.5498	24.9023	64.936	24.9023	64.2783	24.9023	65.041	24.9023	63.9667	24.9023	65.0865	24.9023	63.6308	24.9023	65.0773	24.9023	63.2944	24.9023	65.0256	24.9023	62.9918	24.9023	64.9535	24.9023	62.7686	24.9023	64.8956	24.9023	62.6765	24.9023	64.898	24.9023	62.7615	24.9023	65.0089	24.9023	63.0466	24.9023	65.2606	24.9023	63.5201	24.9023	65.6506	24.9023	64.1383	24.9023	66.1368	24.9023	64.8392	24.9023	66.651	24.9023	65.5583	24.9023	67.1205	24.9023	66.2379	24.9023	67.4843	24.9023	66.8295	24.9023	67.6996	24.9023	67.2949	24.9023	67.7424	24.9023	67.6053
26.3672	66.4666	26.3672	66.2595	26.3672	66.6334	26.3672	66.0199	26.3672	66.7548	26.3672	65.7587	26.3672	66.8287	26.3672	65.4897	26.3672	66.8572	26.3672	65.231	26.3672	66.8475	26.3672	65.0049	26.3672	66.8144	26.3672	64.8378	26.3672	66.7819	26.3672	64.7584	26.3672	66.7824	26.3672	64.7934	26.3672	66.8516	26.3672	64.9609	26.3672	67.0172	26.3672	65.2644	26.3672	67.2851	26.3672	65.6891	26.3672	67.6319	26.3672	66.2039	26.3672	68.0091	26.3672	66.7665	26.3672	68.3575	26.3672	67.3301	26.3672	68.6222	26.3672	67.8482	26.3672	68.7617	26.3672	68.2788	26.3672	68.7523	26.3672	68.588
27.832	67.9661	27.832	67.7677	27.832	68.1163	27.832	67.5272	27.832	68.2141	27.832	67.2524	27.832	68.257	27.832	66.954	27.832	68.2455	27.832	66.6458	27.832	68.1846	27.832	66.3468	27.832	68.0864	27.832	66.0817	27.832	67.9717	27.832	65.8807	27.832	67.8715	27.832	65.7769	27.832	67.8239	27.832	65.7998	27.832	67.8643	27.832	65.9667	27.832	68.0108	27.832	66.2753	27.832	68.2519	27.832	66.7012	27.832	68.5457	27.832	67.2027	27.832	68.8335	27.832	67.7289	27.832	69.0562	27.832	68.2277	27.832	69.1674	27.832	68.6522	27.832	69.1396	27.832	68.9646
29.2969	68.8559	29.2969	68.6657	29.2969	69.0031	29.2969	68.4383	29.2969	69.1032	29.2969	68.1815	29.2969	69.1542	29.2969	67.9053	29.2969	69.1572	29.2969	67.6232	29.2969	69.1177	29.2969	67.3527	29.2969	69.0476	29.2969	67.1169	29.2969	68.9668	29.2969	66.9428	29.2969	68.9037	29.2969	66.8601	29.2969	68.8918	29.2969	66.8947	29.2969	68.9606	29.2969	67.0619	29.2969	69.123	29.2969	67.3599	29.2969	69.3656	29.2969	67.7678	29.2969	69.6489	29.2969	68.2487	29.2969	69.9184	29.2969	68.7564	29.2969	70.1199	29.2969	69.2428	29.2969	70.2105	29.2969	69.6628	29.2969	70.1656	29.2969	69.9791
30.7617	69.8243	30.7617	69.6464	30.7617	69.9624	30.7617	69.4338	30.7617	70.0569	30.7617	69.1933	30.7617	70.1061	30.7617	68.9337	30.7617	70.1111	30.7617	68.6666	30.7617	70.0769	30.7617	68.4071	30.7617	70.0139	30.7617	68.1744	30.7617	69.9399	30.7617	67.9921	30.7617	69.8789	30.7617	67.8858	30.7617	69.8591	30.7617	67.8798	30.7617	69.9056	30.7617	67.9909	30.7617	70.0301	30.7617	68.2224	30.7617	70.2227	30.7617	68.5615	30.7617	70.4506	30.7617	68.9794	30.7617	70.6666	30.7617	69.4367	30.7617	70.8213	30.7617	69.8885	30.7617	70.8751	30.7617	70.2909	30.7617	70.8046	30.7617	70.6055
32.2266	70.8124	32.2266	70.6491	32.2266	70.9384	32.2266	70.4524	32.2266	71.0246	32.2266	70.2282	32.2266	71.0705	32.2266	69.9844	32.2266	71.0776	32.2266	69.7317	32.2266	71.0506	32.2266	69.4846	32.2266	70.9983	32.2266	69.2614	32.2266	70.9343	32.2266	69.084	32.2266	70.878	32.2266	68.9763	32.2266	70.852	32.2266	68.9609	32.2266	70.8779	32.2266	69.0538	32.2266	70.9681	32.2266	69.2595	32.2266	71.118	32.2266	69.5668	32.2266	71.3033	32.2266	69.9494	32.2266	71.4851	32.2266	70.3692	32.2266	71.6196	32.2266	70.7834	32.2266	71.6691	32.2266	71.1499	32.2266	71.6095	32.2266	71.4333
33.6914	71.7347	33.6914	71.5622	33.6914	71.8738	33.6914	71.3603	33.6914	71.9761	33.6914	71.1346	33.6914	72.0399	33.6914	70.8918	33.6914	72.0649	33.6914	70.6411	33.6914	72.053	33.6914	70.3942	33.6914	72.0101	33.6914	70.1662	33.6914	71.9461	33.6914	69.9755	33.6914	71.8768	33.6914	69.8431	33.6914	71.822	33.6914	69.7899	33.6914	71.8021	33.6914	69.8331	33.6914	71.8319	33.6914	69.981	33.6914	71.9124	33.6914	70.2283	33.6914	72.0268	33.6914	70.5553	33.6914	72.1429	33.6914	70.9298	33.6914	72.2216	33.6914	71.3125	33.6914	72.2277	33.6914	71.6631	33.6914	72.1382	33.6914	71.9466
35.1562	72.5548	35.1562	72.3789	35.1562	72.6987	35.1562	72.1762	35.1562	72.8064	35.1562	71.953	35.1562	72.8744	35.1562	71.7165	35.1562	72.9012	35.1562	71.4756	35.1562	72.8877	35.1562	71.2412	35.1562	72.8382	35.1562	71.0265	35.1562	72.762	35.1562	70.8475	35.1562	72.6735	35.1562	70.7218	35.1562	72.5921	35.1562	70.6673	35.1562	72.5392	35.1562	70.6986	35.1562	72.5315	35.1562	70.823	35.1562	72.5741	35.1562	71.0366	35.1562	72.6549	35.1562	71.323	35.1562	72.7459	35.1562	71.6543	35.1562	72.8106	35.1562	71.9953	35.1562	72.8146	35.1562	72.3091	35.1562	72.7347	35.1562	72.5632
36.6211	73.2482	36.6211	73.0883	36.6211	73.3784	36.6211	72.9031	36.6211	73.4755	36.6211	72.6973	36.6211	73.5369	36.6211	72.4769	36.6211	73.5613	36.6211	72.2489	36.6211	73.5495	36.6211	72.0227	36.6211	73.5054	36.6211	71.8099	36.6211	73.4371	36.6211	71.6249	36.6211	73.3572	36.6211	71.4847	36.6211	73.2828	36.6211	71.4071	36.6211	73.2322	36.6211	71.4081	36.6211	73.22	36.6211	71.4978	36.6211	73.2505	36.6211	71.6764	36.6211	73.3127	36.6211	71.9314	36.6211	73.3812	36.6211	72.2382	36.6211	73.4227	36.6211	72.5636	36.6211	73.4058	36.6211	72.8712	36.6211	73.3095	36.6211	73.1279
38.0859	74.0823	38.0859	73.9253	38.0859	74.2124	38.0859	73.7456	38.0859	74.3123	38.0859	73.5475	38.0859	74.3793	38.0859	73.3363	38.0859	74.4118	38.0859	73.1186	38.0859	74.4099	38.0859	72.9022	38.0859	74.3762	38.0859	72.6973	38.0859	74.3167	38.0859	72.5162	38.0859	74.2414	38.0859	72.3735	38.0859	74.1639	38.0859	72.2847	38.0859	74.0998	38.0859	72.2642	38.0859	74.062	38.0859	72.3222	38.0859	74.0559	38.0859	72.4608	38.0859	74.0744	38.0859	72.6719	38.0859	74.098	38.0859	72.936	38.0859	74.0994	38.0859	73.2253	38.0859	74.052	38.0859	73.5077	38.0859	73.9378	38.0859	73.7528
39.5508	74.7811	39.5508	74.6178	39.5508	74.9177	39.5508	74.4318	39.5508	75.0239	39.5508	74.2274	39.5508	75.0969	39.5508	74.0095	39.5508	75.1345	39.5508	73.7842	39.5508	75.136	39.5508	73.5585	39.5508	75.1031	39.5508	73.3416	39.5508	75.0404	39.5508	73.1445	39.5508	74.9561	39.5508	72.9808	39.5508	74.8622	39.5508	72.8651	39.5508	74.7725	39.5508	72.8124	39.5508	74.7001	39.5508	72.8342	39.5508	74.6519	39.5508	72.9359	39.5508	74.6242	39.5508	73.1128	39.5508	74.602	39.5508	73.3493	39.5508	74.562	39.5508	73.6201	39.5508	74.4807	39.5508	73.8946	39.5508	74.3421	39.5508	74.143
41.0156	75.7031	41.0156	75.5337	41.0156	75.8471	41.0156	75.3428	41.0156	75.9622	41.0156	75.1342	41.0156	76.0448	41.0156	74.9125	41.0156	76.0923	41.0156	74.6826	41.0156	76.1029	41.0156	74.451	41.0156	76.0768	41.0156	74.2258	41.0156	76.0167	41.0156	74.0172	41.0156	75.9282	41.0156	73.8381	41.0156	75.8207	41.0156	73.7029	41.0156	75.7057	41.0156	73.6266	41.0156	75.5955	41.0156	73.6219	41.0156	75.4989	41.0156	73.6952	41.0156	75.4174	41.0156	73.8434	41.0156	75.3427	41.0156	74.0523	41.0156	75.2586	41.0156	74.2986	41.0156	75.1464	41.0156	74.554	41.0156	74.9921	41.0156	74.7918
42.4805	76.0635	42.4805	75.9192	42.4805	76.1821	42.4805	75.7527	42.4805	76.2715	42.4805	75.5678	42.4805	76.3285	42.4805	75.3685	42.4805	76.3503	42.4805	75.1596	42.4805	76.3354	42.4805	74.9472	42.4805	76.2836	42.4805	74.7386	42.4805	76.1976	42.4805	74.5435	42.4805	76.0834	42.4805	74.3734	42.4805	75.9508	42.4805	74.2416	42.4805	75.8134	42.4805	74.1615	42.4805	75.6857	42.4805	74.1437	42.4805	75.5796	42.4805	74.1936	42.4805	75.4991	42.4805	74.3076	42.4805	75.4377	42.4805	74.4727	42.4805	75.3793	42.4805	74.6676	42.4805	75.3043	42.4805	74.8675	42.4805	75.1964	42.4805	75.0491
43.9453	76.6892	43.9453	76.5438	43.9453	76.8113	43.9453	76.3785	43.9453	76.9066	43.9453	76.1967	43.9453	76.9716	43.9453	76.0021	43.9453	77.0035	43.9453	75.7988	43.9453	76.9999	43.9453	75.5923	43.9453	76.96	43.9453	75.3891	43.9453	76.8854	43.9453	75.1979	43.9453	76.7807	43.9453	75.0291	43.9453	76.6541	43.9453	74.895	43.9453	76.5173	43.9453	74.8082	43.9453	76.3836	43.9453	74.7798	43.9453	76.2645	43.9453	74.816	43.9453	76.1651	43.9453	74.9152	43.9453	76.0816	43.9453	75.0668	43.9453	76.0013	43.9453	75.2518	43.9453	75.9073	43.9453	75.447	43.9453	75.7854	43.9453	75.6301
45.4102	77.1849	45.4102	77.0381	45.4102	77.309	45.4102	76.872	45.4102	77.4071	45.4102	76.6898	45.4102	77.4755	45.4102	76.4951	45.4102	77.511	45.4102	76.2915	45.4102	77.5109	45.4102	76.084	45.4102	77.4739	45.4102	75.8785	45.4102	77.4006	45.4102	75.6827	45.4102	77.2945	45.4102	75.5064	45.4102	77.1626	45.4102	75.361	45.4102	77.0154	45.4102	75.2589	45.4102	76.8653	45.4102	75.2112	45.4102	76.7241	45.4102	75.2251	45.4102	76.5983	45.4102	75.3012	45.4102	76.4867	45.4102	75.4313	45.4102	76.3799	45.4102	75.5991	45.4102	76.2639	45.4102	75.784	45.4102	76.127	45.4102	75.965
46.875	77.7195	46.875	77.5709	46.875	77.846	46.875	77.4035	46.875	77.9468	46.875	77.2206	46.875	78.0181	46.875	77.0253	46.875	78.0566	46.875	76.8213	46.875	78.0591	46.875	76.6129	46.875	78.0237	46.875	76.4055	46.875	77.9506	46.875	76.2061	46.875	77.8423	46.875	76.0236	46.875	77.705	46.875	75.8686	46.875	77.5482	46.875	75.7527	46.875	77.3838	46.875	75.6872	46.875	77.2233	46.875	75.6803	46.875	77.0746	46.875	75.7343	46.875	76.9383	46.875	75.8439	46.875	76.8077	46.875	75.9959	46.875	76.6715	46.875	76.1715	46.875	76.5204	46.875	76.3514
48.3398	78.2497	48.3398	78.1027	48.3398	78.3757	48.3398	77.9381	48.3398	78.4772	48.3398	77.759	48.3398	78.5502	48.3398	77.5684	48.3398	78.5911	48.3398	77.3693	48.3398	78.5962	48.3398	77.1656	48.3398	78.5634	48.3398	76.9618	48.3398	78.4917	48.3398	76.764	48.3398	78.3829	48.3398	76.58	48.3398	78.2422	48.3398	76.4195	48.3398	78.0779	48.3398	76.2935	48.3398	77.9013	48.3398	76.2129	48.3398	77.7241	48.3398	76.1868	48.3398	77.5553	48.3398	76.2191	48.3398	77.398	48.3398	76.3067	48.3398	77.2484	48.3398	76.439	48.3398	77.0982	48.3398	76.5998	48.3398	76.9398	48.3398	76.7714
51.2695	79.1546	51.2695	79.0142	51.2695	79.2753	51.2695	78.8569	51.2695	79.3729	51.2695	78.6853	51.2695	79.4436	51.2695	78.502	51.2695	79.4837	51.2695	78.3093	51.2695	79.4894	51.2695	78.1103	51.2695	79.4578	51.2695	77.9088	51.2695	79.387	51.2695	77.71	51.2695	79.2775	51.2695	77.5207	51.2695	79.1327	51.2695	77.3498	51.2695	78.9596	51.2695	77.2076	51.2695	78.768	51.2695	77.1053	51.2695	78.5695	51.2695	77.0527	51.2695	78.3749	51.2695	77.0557	51.2695	78.1902	51.2695	77.1137	51.2695	78.0161	51.2695	77.2191	51.2695	77.8483	51.2695	77.3585	51.2695	77.6822	51.2695	77.5169
52.7344	79.5863	52.7344	79.4491	52.7344	79.7051	52.7344	79.2962	52.7344	79.8022	52.7344	79.1301	52.7344	79.8739	52.7344	78.9529	52.7344	79.9162	52.7344	78.7668	52.7344	79.9251	52.7344	78.5743	52.7344	79.8972	52.7344	78.3787	52.7344	79.8303	52.7344	78.1847	52.7344	79.724	52.7344	77.9983	52.7344	79.5808	52.7344	77.8278	52.7344	79.4068	52.7344	77.6829	52.7344	79.2111	52.7344	77.5744	52.7344	79.0052	52.7344	77.512	52.7344	78.8	52.7344	77.5021	52.7344	78.6035	52.7344	77.5454	52.7344	78.4184	52.7344	77.636	52.7344	78.2429	52.7344	77.7626	52.7344	78.0742	52.7344	77.9123
54.1992	79.9572	54.1992	79.8214	54.1992	80.0754	54.1992	79.6707	54.1992	80.1728	54.1992	79.5074	54.1992	80.2455	54.1992	79.3334	54.1992	80.2894	54.1992	79.1506	54.1992	80.3003	54.1992	78.9612	54.1992	80.2742	54.1992	78.7682	54.1992	80.2085	54.1992	78.5758	54.1992	80.1022	54.1992	78.3895	54.1992	79.9572	54.1992	78.217	54.1992	79.7788	54.1992	78.0675	54.1992	79.5757	54.1992	77.9514	54.1992	79.3594	54.1992	77.8784	54.1992	79.1416	54.1992	77.8553	54.1992	78.9316	54.1992	77.8839	54.1992	78.7341	54.1992	77.9602	54.1992	78.5498	54.1992	78.075	54.1992	78.3772	54.1992	78.2172
55.6641	80.3469	55.6641	80.2113	55.6641	80.4659	55.6641	80.0619	55.6641	80.5649	55.6641	79.9008	55.6641	80.6399	55.6641	79.7298	55.6641	80.6864	55.6641	79.5503	55.6641	80.6998	55.6641	79.3642	55.6641	80.6758	55.6641	79.1739	55.6641	80.6113	55.6641	78.9828	55.6641	80.5047	55.6641	78.7959	55.6641	80.3573	55.6641	78.62	55.6641	80.1737	55.6641	78.4638	55.6641	79.9623	55.6641	78.3372	55.6641	79.7341	55.6641	78.2501	55.6641	79.5014	55.6641	78.2104	55.6641	79.2747	55.6641	78.2216	55.6641	79.061	55.6641	78.2819	55.6641	78.8633	55.6641	78.3849	55.6641	78.6826	55.6641	78.5213
58.5938	80.9681	58.5938	80.8348	58.5938	81.0863	58.5938	80.6886	58.5938	81.186	58.5938	80.5314	58.5938	81.2634	58.5938	80.3643	58.5938	81.3138	58.5938	80.1882	58.5938	81.3324	58.5938	80.0044	58.5938	81.3143	58.5938	79.8142	58.5938	81.2554	58.5938	79.6203	58.5938	81.1529	58.5938	79.4266	58.5938	81.0066	58.5938	79.239	58.5938	80.8195	58.5938	79.0656	58.5938	80.5984	58.5938	78.9166	58.5938	80.3533	58.5938	78.8031	58.5938	80.0968	58.5938	78.7355	58.5938	79.8412	58.5938	78.7209	58.5938	79.5966	58.5938	78.7618	58.5938	79.3701	58.5938	78.8549	58.5938	79.167	58.5938	78.9928
60.0586	81.2628	60.0586	81.1289	60.0586	81.3829	60.0586	80.9838	60.0586	81.4859	60.0586	80.8292	60.0586	81.5674	60.0586	80.6662	60.0586	81.6226	60.0586	80.4957	60.0586	81.6464	60.0586	80.3182	60.0586	81.6336	60.0586	80.1347	60.0586	81.5795	60.0586	79.9471	60.0586	81.4811	60.0586	79.7586	60.0586	81.3376	60.0586	79.5742	60.0586	81.1515	60.0586	79.4012	60.0586	80.9288	60.0586	79.2493	60.0586	80.6795	60.0586	79.1296	60.0586	80.416	60.0586	79.053	60.0586	80.1515	60.0586	79.0283	60.0586	79.8975	60.0586	79.0594	60.0586	79.6629	60.0586	79.1451	60.0586	79.4546	60.0586	79.2795
62.9883	81.8909	62.9883	81.7582	62.9883	82.0114	62.9883	81.6156	62.9883	82.1163	62.9883	81.4645	62.9883	82.2013	62.9883	81.3056	62.9883	82.2614	62.9883	81.1393	62.9883	82.2911	62.9883	80.9655	62.9883	82.2846	62.9883	80.7846	62.9883	82.2368	62.9883	80.5978	62.9883	82.1437	62.9883	80.4076	62.9883	82.0035	62.9883	80.2187	62.9883	81.8174	62.9883	80.0381	62.9883	81.5905	62.9883	79.8753	62.9883	81.3321	62.9883	79.7422	62.9883	81.0546	62.9883	79.6507	62.9883	80.7722	62.9883	79.6115	62.9883	80.4989	62.9883	79.6308	62.9883	80.2466	62.9883	79.7094	62.9883	80.0251	62.9883	79.8432
64.4531	82.1542	64.4531	82.0219	64.4531	82.275	64.4531	81.8803	64.4531	82.381	64.4531	81.7308	64.4531	82.4678	64.4531	81.5738	64.4531	82.5303	64.4531	81.4094	64.4531	82.5626	64.4531	81.2373	64.4531	82.5588	64.4531	81.0575	64.4531	82.5133	64.4531	80.8709	64.4531	82.4217	64.4531	80.6796	64.4531	82.2816	64.4531	80.4879	64.4531	82.0939	64.4531	80.3024	64.4531	81.863	64.4531	80.1327	64.4531	81.598	64.4531	79.9908	64.4531	81.3114	64.4531	79.8893	64.4531	81.0181	64.4531	79.8401	64.4531	80.7334	64.4531	79.8509	64.4531	80.4708	64.4531	79.9242	64.4531	80.2419	64.4531	80.0567
67.3828	82.6422	67.3828	82.5087	67.3828	82.7637	67.3828	82.3654	67.3828	82.87	67.3828	82.2134	67.3828	82.9569	67.3828	82.0532	67.3828	83.0191	67.3828	81.8846	67.3828	83.0509	67.3828	81.707	67.3828	83.0461	67.3828	81.5202	67.3828	82.9988	67.3828	81.3247	67.3828	82.9038	67.3828	81.1224	67.3828	82.7582	67.3828	80.9172	67.3828	82.5617	67.3828	80.7158	67.3828	82.318	67.3828	80.5279	67.3828	82.0356	67.3828	80.3662	67.3828	81.7272	67.3828	80.245	67.3828	81.4093	67.3828	80.1778	67.3828	81.0993	67.3828	80.1747	67.3828	80.814	67.3828	80.2405	67.3828	80.5681	67.3828	80.3737
68.8477	82.7876	68.8477	82.653	68.8477	82.9109	68.8477	82.5094	68.8477	83.0198	68.8477	82.3579	68.8477	83.1102	68.8477	82.1988	68.8477	83.1767	68.8477	82.032	68.8477	83.2135	68.8477	81.8568	68.8477	83.2142	68.8477	81.673	68.8477	83.1727	68.8477	81.4808	68.8477	83.0835	68.8477	81.2822	68.8477	82.943	68.8477	81.0807	68.8477	82.7506	68.8477	80.8829	68.8477	82.5096	68.8477	80.6984	68.8477	82.2281	68.8477	80.5396	68.8477	81.9189	68.8477	80.4206	68.8477	81.5986	68.8477	80.3547	68.8477	81.2854	68.8477	80.3524	68.8477	80.9969	68.8477	80.4185	68.8477	80.7484	68.8477	80.5524
71.7773	83.1799	71.7773	83.0473	71.7773	83.3038	71.7773	82.9083	71.7773	83.4158	71.7773	82.7638	71.7773	83.5113	71.7773	82.6141	71.7773	83.5849	71.7773	82.4587	71.7773	83.63	71.7773	82.2966	71.7773	83.6397	71.7773	82.127	71.7773	83.6069	71.7773	81.9497	71.7773	83.5256	71.7773	81.7654	71.7773	83.3914	71.7773	81.5768	71.7773	83.2029	71.7773	81.3893	71.7773	82.963	71.7773	81.2108	71.7773	82.6795	71.7773	81.0524	71.7773	82.3656	71.7773	80.9275	71.7773	82.0392	71.7773	80.8497	71.7773	81.7206	71.7773	80.8312	71.7773	81.43	71.7773	80.88	71.7773	81.185	71.7773	80.9989
74.707	83.5503	74.707	83.4232	74.707	83.6703	74.707	83.2907	74.707	83.7799	74.707	83.1535	74.707	83.8745	74.707	83.0113	74.707	83.9485	74.707	82.8628	74.707	83.995	74.707	82.7064	74.707	84.0067	74.707	82.5406	74.707	83.9761	74.707	82.3644	74.707	83.8966	74.707	82.1778	74.707	83.763	74.707	81.9828	74.707	83.5731	74.707	81.7842	74.707	83.3289	74.707	81.5899	74.707	83.0374	74.707	81.4115	74.707	82.7117	74.707	81.2638	74.707	82.3701	74.707	81.1634	74.707	82.0343	74.707	81.1257	74.707	81.7272	74.707	81.1622	74.707	81.4695	74.707	81.2778
77.6367	83.8459	77.6367	83.7191	77.6367	83.967	77.6367	83.5884	77.6367	84.0793	77.6367	83.4541	77.6367	84.1783	77.6367	83.3156	77.6367	84.258	77.6367	83.1711	77.6367	84.3115	77.6367	83.0185	77.6367	84.3312	77.6367	82.8557	77.6367	84.309	77.6367	82.6808	77.6367	84.2377	77.6367	82.4936	77.6367	84.1114	77.6367	82.2956	77.6367	83.9269	77.6367	82.0914	77.6367	83.6851	77.6367	81.8893	77.6367	83.3923	77.6367	81.7017	77.6367	83.0607	77.6367	81.5448	77.6367	82.7086	77.6367	81.4371	77.6367	82.3586	77.6367	81.396	77.6367	82.0354	77.6367	81.4344	77.6367	81.762	77.6367	81.5576
79.1016	83.9548	79.1016	83.8287	79.1016	84.0757	79.1016	83.6993	79.1016	84.1883	79.1016	83.5668	79.1016	84.2881	79.1016	83.4303	79.1016	84.3689	79.1016	83.2878	79.1016	84.4238	79.1016	83.137	79.1016	84.4449	79.1016	82.9754	79.1016	84.4241	79.1016	82.8009	79.1016	84.3539	79.1016	82.613	79.1016	84.2281	79.1016	82.4132	79.1016	84.0432	79.1016	82.2057	79.1016	83.7999	79.1016	81.9991	79.1016	83.504	79.1016	81.8059	79.1016	83.1678	79.1016	81.6428	79.1016	82.8099	79.1016	81.5289	79.1016	82.4536	79.1016	81.4826	79.1016	82.1243	79.1016	81.5176	79.1016	81.8465	79.1016	81.6401
82.0312	84.1775	82.0312	84.0535	82.0312	84.2982	82.0312	83.9282	82.0312	84.4123	82.0312	83.8015	82.0312	84.515	82.0312	83.6723	82.0312	84.5999	82.0312	83.5382	82.0312	84.6596	82.0312	83.3961	82.0312	84.686	82.0312	83.2428	82.0312	84.6706	82.0312	83.0756	82.0312	84.6052	82.0312	82.8932	82.0312	84.483	82.0312	82.6962	82.0312	84.3001	82.0312	82.4887	82.0312	84.0564	82.0312	82.2785	82.0312	83.7576	82.0312	82.0783	82.0312	83.416	82.0312	81.9054	82.0312	83.0509	82.0312	81.78	82.0312	82.6868	82.0312	81.7222	82.0312	82.351	82.0312	81.7477	82.0312	82.0698	82.0312	81.8644
84.9609	84.3901	84.9609	84.2573	84.9609	84.5202	84.9609	84.1245	84.9609	84.6435	84.9609	83.9925	84.9609	84.7543	84.9609	83.8605	84.9609	84.8456	84.9609	83.7263	84.9609	84.9096	84.9609	83.5866	84.9609	84.9377	84.9609	83.4379	84.9609	84.9213	84.9609	83.277	84.9609	84.8522	84.9609	83.1017	84.9609	84.7234	84.9609	82.9119	84.9609	84.5308	84.9609	82.7105	84.9609	84.2746	84.9609	82.5042	84.9609	83.961	84.9609	82.3044	84.9609	83.6036	84.9609	82.127	84.9609	83.2234	84.9609	81.9918	84.9609	82.8475	84.9609	81.9196	84.9609	82.5059	84.9609	81.9288	84.9609	82.2266	84.9609	82.0307
87.8906	84.3633	87.8906	84.2395	87.8906	84.4869	87.8906	84.1172	87.8906	84.607	87.8906	83.997	87.8906	84.7191	87.8906	83.878	87.8906	84.8173	87.8906	83.7583	87.8906	84.8945	87.8906	83.6349	87.8906	84.9426	87.8906	83.5042	87.8906	84.9525	87.8906	83.363	87.8906	84.915	87.8906	83.2086	87.8906	84.8219	87.8906	83.0402	87.8906	84.6669	87.8906	82.86	87.8906	84.4479	87.8906	82.6738	87.8906	84.1687	87.8906	82.4922	87.8906	83.8401	87.8906	82.331	87.8906	83.4809	87.8906	82.21	87.8906	83.1168	87.8906	82.1509	87.8906	82.7778	87.8906	82.1728	87.8906	82.4932	87.8906	82.2871
90.8203	84.3839	90.8203	84.2654	90.8203	84.5065	90.8203	84.1519	90.8203	84.6305	90.8203	84.0425	90.8203	84.7514	90.8203	83.9348	90.8203	84.8627	90.8203	83.8253	90.8203	84.9563	90.8203	83.7101	90.8203	85.0228	90.8203	83.585	90.8203	85.0517	90.8203	83.4464	90.8203	85.0327	90.8203	83.2921	90.8203	84.9564	90.8203	83.1218	90.8203	84.8158	90.8203	82.9384	90.8203	84.608	90.8203	82.7488	90.8203	84.3362	90.8203	82.5649	90.8203	84.0105	90.8203	82.404	90.8203	83.6493	90.8203	82.2874	90.8203	83.2782	90.8203	82.2376	90.8203	82.9274	90.8203	82.2732	90.8203	82.6274	90.8203	82.4041
95.2148	84.4962	95.2148	84.374	95.2148	84.6242	95.2148	84.2591	95.2148	84.7546	95.2148	84.1513	95.2148	84.8824	95.2148	84.0489	95.2148	85.001	95.2148	83.9485	95.2148	85.1022	95.2148	83.846	95.2148	85.177	95.2148	83.7366	95.2148	85.215	95.2148	83.6159	95.2148	85.2056	95.2148	83.48	95.2148	85.139	95.2148	83.3272	95.2148	85.0072	95.2148	83.1587	95.2148	84.8061	95.2148	82.9799	95.2148	84.5375	95.2148	82.8014	95.2148	84.2112	95.2148	82.6398	95.2148	83.846	95.2148	82.5165	95.2148	83.4695	95.2148	82.4555	95.2148	83.1148	95.2148	82.4783	95.2148	82.8153	95.2148	82.5983
98.1445	84.7251	98.1445	84.6119	98.1445	84.8407	98.1445	84.5025	98.1445	84.9559	98.1445	84.3967	98.1445	85.0663	98.1445	84.2922	98.1445	85.1662	98.1445	84.1857	98.1445	85.2484	98.1445	84.0727	98.1445	85.3042	98.1445	83.9482	98.1445	85.3241	98.1445	83.8078	98.1445	85.2974	98.1445	83.6483	98.1445	85.2144	98.1445	83.4686	98.1445	85.0667	98.1445	83.2713	98.1445	84.8503	98.1445	83.0629	98.1445	84.5667	98.1445	82.8557	98.1445	84.2259	98.1445	82.6677	98.1445	83.8471	98.1445	82.5218	98.1445	83.4584	98.1445	82.4434	98.1445	83.094	98.1445	82.455	98.1445	82.7884	98.1445	82.5702
101.074	84.7452	101.074	84.6388	101.074	84.8504	101.074	84.532	101.074	84.9524	101.074	84.4238	101.074	85.0473	101.074	84.312	101.074	85.1301	101.074	84.1933	101.074	85.1943	101.074	84.0634	101.074	85.2317	101.074	83.9183	101.074	85.233	101.074	83.7547	101.074	85.1883	101.074	83.5708	101.074	85.0878	101.074	83.3669	101.074	84.9237	101.074	83.1468	101.074	84.6918	101.074	82.9183	101.074	84.3944	101.074	82.694	101.074	84.0416	101.074	82.4922	101.074	83.6531	101.074	82.3356	101.074	83.2573	101.074	82.249	101.074	82.8887	101.074	82.2544	101.074	82.5821	101.074	82.3655
105.469	84.5268	105.469	84.412	105.469	84.648	105.469	84.3055	105.469	84.7718	105.469	84.2076	105.469	84.8928	105.469	84.1169	105.469	85.0041	105.469	84.0299	105.469	85.0973	105.469	83.942	105.469	85.163	105.469	83.8478	105.469	85.1904	105.469	83.7415	105.469	85.1689	105.469	83.6183	105.469	85.0887	105.469	83.475	105.469	84.9425	105.469	83.3113	105.469	84.7278	105.469	83.1314	105.469	84.4484	105.469	82.945	105.469	84.1167	105.469	82.768	105.469	83.7539	105.469	82.6219	105.469	83.3892	105.469	82.5315	105.469	83.0558	105.469	82.52	105.469	82.7859	105.469	82.6036
108.398	84.7133	108.398	84.587	108.398	84.8457	108.398	84.4704	108.398	84.9786	108.398	84.3649	108.398	85.1051	108.398	84.2696	108.398	85.2173	108.398	84.1814	108.398	85.306	108.398	84.0952	108.398	85.3617	108.398	84.0044	108.398	85.3738	108.398	83.9019	108.398	85.3322	108.398	83.7812	108.398	85.2273	108.398	83.6374	108.398	85.0526	108.398	83.4687	108.398	84.8062	108.398	83.2782	108.398	84.4937	108.398	83.075	108.398	84.1298	108.398	82.8748	108.398	83.7392	108.398	82.6999	108.398	83.3551	108.398	82.577	108.398	83.0144	108.398	82.5327	108.398	82.7509	108.398	82.5879
112.793	84.8995	112.793	84.7808	112.793	85.0244	112.793	84.6717	112.793	85.1511	112.793	84.5734	112.793	85.2737	112.793	84.485	112.793	85.3854	112.793	84.4032	112.793	85.4777	112.793	84.3223	112.793	85.5408	112.793	84.235	112.793	85.563	112.793	84.1334	112.793	85.5324	112.793	84.0103	112.793	85.4371	112.793	83.8602	112.793	85.2682	112.793	83.681	112.793	85.0217	112.793	83.4754	112.793	84.7017	112.793	83.2528	112.793	84.3224	112.793	83.03	112.793	83.9097	112.793	82.8315	112.793	83.4996	112.793	82.6874	112.793	83.1339	112.793	82.6288	112.793	82.8516	112.793	82.6801
117.188	84.8054	117.188	84.6873	117.188	84.9311	117.188	84.5799	117.188	85.0602	117.188	84.4841	117.188	85.1871	117.188	84.399	117.188	85.3051	117.188	84.3215	117.188	85.406	117.188	84.2464	117.188	85.4805	117.188	84.1673	117.188	85.5176	117.188	84.0772	117.188	85.5059	117.188	83.9698	117.188	85.4342	117.188	83.8405	117.188	85.2936	117.188	83.6877	117.188	85.0798	117.188	83.5145	117.188	84.796	117.188	83.3294	117.188	84.4546	117.188	83.1472	117.188	84.079	117.188	82.9894	117.188	83.7018	117.188	82.8821	117.188	83.3608	117.188	82.8517	117.188	83.0914	117.188	82.9188
120.117	84.7576	120.117	84.6406	120.117	84.8805	120.117	84.5328	120.117	85.0042	120.117	84.4353	120.117	85.1228	120.117	84.3471	120.117	85.2288	120.117	84.2645	120.117	85.3142	120.117	84.1819	120.117	85.3695	120.117	84.0926	120.117	85.3845	120.117	83.9896	120.117	85.3485	120.117	83.8672	120.117	85.2515	120.117	83.722	120.117	85.0863	120.117	83.5543	120.117	84.8507	120.117	83.3686	120.117	84.5502	120.117	83.1747	120.117	84.1997	120.117	82.9877	120.117	83.8244	120.117	82.8274	120.117	83.4573	120.117	82.7167	120.117	83.134	120.117	82.6788	120.117	82.8856	120.117	82.7322
124.512	85.1243	124.512	84.9982	124.512	85.2493	124.512	84.8744	124.512	85.3686	124.512	84.7548	124.512	85.4769	124.512	84.6387	124.512	85.5678	124.512	84.5236	124.512	85.6337	124.512	84.4047	124.512	85.6655	124.512	84.2762	124.512	85.6522	124.512	84.1322	124.512	85.5816	124.512	83.9678	124.512	85.4418	124.512	83.7805	124.512	85.2234	124.512	83.5709	124.512	84.923	124.512	83.3433	124.512	84.5468	124.512	83.1066	124.512	84.1136	124.512	82.8746	124.512	83.6561	124.512	82.6663	124.512	83.2184	124.512	82.506	124.512	82.8474	124.512	82.4216	124.512	82.5816	124.512	82.4404
128.906	84.9715	128.906	84.8735	128.906	85.0686	128.906	84.7748	128.906	85.1636	128.906	84.6745	128.906	85.2543	128.906	84.5702	128.906	85.3369	128.906	84.4578	128.906	85.4051	128.906	84.3313	128.906	85.4497	128.906	84.184	128.906	85.4579	128.906	84.0097	128.906	85.4146	128.906	83.8037	128.906	85.3035	128.906	83.5646	128.906	85.1102	128.906	83.2952	128.906	84.8255	128.906	83.0035	128.906	84.4495	128.906	82.7031	128.906	83.9956	128.906	82.4144	128.906	83.493	128.906	82.1641	128.906	82.9871	128.906	81.9845	128.906	82.5325	128.906	81.9102	128.906	82.1819	128.906	81.9711
133.301	84.6543	133.301	84.5505	133.301	84.7637	133.301	84.4536	133.301	84.8764	133.301	84.3636	133.301	84.9893	133.301	84.279	133.301	85.0978	133.301	84.1958	133.301	85.195	133.301	84.1076	133.301	85.2713	133.301	84.0058	133.301	85.3142	133.301	83.8813	133.301	85.3085	133.301	83.7257	133.301	85.2381	133.301	83.5332	133.301	85.0881	133.301	83.3028	133.301	84.848	133.301	83.0396	133.301	84.5156	133.301	82.7567	133.301	84.1005	133.301	82.4766	133.301	83.6272	133.301	82.2308	133.301	83.1362	133.301	82.058	133.301	82.6801	133.301	81.9977	133.301	82.3136	133.301	82.0799
139.16	84.3766	139.16	84.2463	139.16	84.5206	139.16	84.1331	139.16	84.6728	139.16	84.0382	139.16	84.8259	139.16	83.9599	139.16	84.9712	139.16	83.8935	139.16	85.0988	139.16	83.832	139.16	85.1976	139.16	83.766	139.16	85.255	139.16	83.6851	139.16	85.2577	139.16	83.5793	139.16	85.1929	139.16	83.4408	139.16	85.0497	139.16	83.2658	139.16	84.8219	139.16	83.0568	139.16	84.5108	139.16	82.8243	139.16	84.128	139.16	82.5888	139.16	83.6965	139.16	82.3806	139.16	83.2518	139.16	82.2369	139.16	82.8382	139.16	82.195	139.16	82.5021	139.16	82.2815
143.555	84.4978	143.555	84.3254	143.555	84.6715	143.555	84.1627	143.555	84.8374	143.555	84.0164	143.555	84.9871	143.555	83.8902	143.555	85.1127	143.555	83.7842	143.555	85.2066	143.555	83.6941	143.555	85.2607	143.555	83.6122	143.555	85.2659	143.555	83.5283	143.555	85.2125	143.555	83.4315	143.555	85.0915	143.555	83.3126	143.555	84.8971	143.555	83.1664	143.555	84.6291	143.555	82.9933	143.555	84.2961	143.555	82.8016	143.555	83.9159	143.555	82.6081	143.555	83.515	143.555	82.4374	143.555	83.1258	143.555	82.319	143.555	82.782	143.555	82.2811	143.555	82.514	143.555	82.344
147.949	84.7783	147.949	84.6236	147.949	84.927	147.949	84.4675	147.949	85.0643	147.949	84.314	147.949	85.1854	147.949	84.1646	147.949	85.2846	147.949	84.0182	147.949	85.3551	147.949	83.8707	147.949	85.3875	147.949	83.7159	147.949	85.3694	147.949	83.5467	147.949	85.2865	147.949	83.3569	147.949	85.1244	147.949	83.1428	147.949	84.8724	147.949	82.905	147.949	84.5274	147.949	82.6492	147.949	84.0983	147.949	82.3871	147.949	83.6095	147.949	82.1366	147.949	83.0999	147.949	81.9206	147.949	82.6178	147.949	81.7656	147.949	82.2104	147.949	81.6986	147.949	81.9131	147.949	81.7429
153.809	84.6682	153.809	84.5554	153.809	84.7788	153.809	84.4406	153.809	84.8853	153.809	84.3227	153.809	84.9848	153.809	84.1983	153.809	85.0728	153.809	84.0618	153.809	85.1421	153.809	83.9063	153.809	85.1822	153.809	83.7244	153.809	85.1791	153.809	83.5105	153.809	85.1159	153.809	83.2622	153.809	84.9745	153.809	82.9813	153.809	84.7391	153.809	82.675	153.809	84.4011	153.809	82.3561	153.809	83.9646	153.809	82.0418	153.809	83.451	153.809	81.7538	153.809	82.9003	153.809	81.5164	153.809	82.3668	153.809	81.3554	153.809	81.9069	153.809	81.296	153.809	81.5643	153.809	81.3607
159.668	84.3962	159.668	84.2913	159.668	84.5119	159.668	84.1971	159.668	84.6369	159.668	84.1112	159.668	84.7682	159.668	84.0275	159.668	84.9017	159.668	83.9363	159.668	85.0305	159.668	83.8248	159.668	85.144	159.668	83.6792	159.668	85.2265	159.668	83.4869	159.668	85.2577	159.668	83.2399	159.668	85.2146	159.668	82.9372	159.668	85.0746	159.668	82.5873	159.668	84.82	159.668	82.2099	159.668	84.443	159.668	81.8347	159.668	83.951	159.668	81.4996	159.668	83.3709	159.668	81.2448	159.668	82.7509	159.668	81.1079	159.668	82.1563	159.668	81.1199	159.668	81.6555	159.668	81.3017
165.527	84.1348	165.527	83.9973	165.527	84.28	165.527	83.8757	165.527	84.4247	165.527	83.7758	165.527	84.5625	165.527	83.6991	165.527	84.6884	165.527	83.6413	165.527	84.7979	165.527	83.592	165.527	84.885	165.527	83.5365	165.527	84.9406	165.527	83.4575	165.527	84.9519	165.527	83.3386	165.527	84.9037	165.527	83.1676	165.527	84.7811	165.527	82.9402	165.527	84.5731	165.527	82.6632	165.527	84.2764	165.527	82.3581	165.527	83.8983	165.527	82.0608	165.527	83.4578	165.527	81.8182	165.527	82.9864	165.527	81.6784	165.527	82.5261	165.527	81.6781	165.527	82.1255	165.527	81.8313
171.387	83.9123	171.387	83.7181	171.387	84.1096	171.387	83.5413	171.387	84.2978	171.387	83.3956	171.387	84.4686	171.387	83.2899	171.387	84.6169	171.387	83.2259	171.387	84.7393	171.387	83.1965	171.387	84.8305	171.387	83.187	171.387	84.8812	171.387	83.1778	171.387	84.877	171.387	83.1484	171.387	84.8005	171.387	83.0815	171.387	84.6363	171.387	82.9666	171.387	84.3769	171.387	82.803	171.387	84.0294	171.387	82.6018	171.387	83.6178	171.387	82.3859	171.387	83.1815	171.387	82.1868	171.387	82.7671	171.387	82.0392	171.387	82.4164	171.387	81.9735	171.387	82.1591	171.387	82.0105
177.246	84.0299	177.246	83.8601	177.246	84.1846	177.246	83.6872	177.246	84.3183	177.246	83.5264	177.246	84.4316	177.246	83.3915	177.246	84.5295	177.246	83.2897	177.246	84.6168	177.246	83.2184	177.246	84.6932	177.246	83.1652	177.246	84.7499	177.246	83.1111	177.246	84.7683	177.246	83.0353	177.246	84.7225	177.246	82.9206	177.246	84.5859	177.246	82.7573	177.246	84.3378	177.246	82.5458	177.246	83.9725	177.246	82.2982	177.246	83.5062	177.246	82.0373	177.246	82.9806	177.246	81.7944	177.246	82.4589	177.246	81.6049	177.246	82.0111	177.246	81.5044	177.246	81.692	177.246	81.5252
183.105	84.0472	183.105	83.9037	183.105	84.1723	183.105	83.7445	183.105	84.2794	183.105	83.5764	183.105	84.3713	183.105	83.4088	183.105	84.45	183.105	83.2509	183.105	84.5151	183.105	83.1087	183.105	84.5621	183.105	82.9826	183.105	84.581	183.105	82.8658	183.105	84.5566	183.105	82.7462	183.105	84.47	183.105	82.6087	183.105	84.3017	183.105	82.4402	183.105	84.0366	183.105	82.2346	183.105	83.6696	183.105	81.9963	183.105	83.2121	183.105	81.7421	183.105	82.6972	183.105	81.5	183.105	82.1795	183.105	81.3063	183.105	81.7261	183.105	81.2008	183.105	81.3962	183.105	81.2218
188.965	83.6627	188.965	83.5944	188.965	83.74	188.965	83.5363	188.965	83.8225	188.965	83.4855	188.965	83.906	188.965	83.4342	188.965	83.9865	188.965	83.3706	188.965	84.0602	188.965	83.2805	188.965	84.121	188.965	83.15	188.965	84.1588	188.965	82.9686	188.965	84.1577	188.965	82.7308	188.965	84.0977	188.965	82.4374	188.965	83.9586	188.965	82.0973	188.965	83.7247	188.965	81.7273	188.965	83.3901	188.965	81.3536	188.965	82.962	188.965	81.0107	188.965	82.4636	188.965	80.7386	188.965	81.9343	188.965	80.5772	188.965	81.4271	188.965	80.5587	188.965	80.9996	188.965	80.7007
196.289	83.5162	196.289	83.399	196.289	83.631	196.289	83.294	196.289	83.7333	196.289	83.2146	196.289	83.8197	196.289	83.1675	196.289	83.893	196.289	83.1479	196.289	83.9589	196.289	83.1399	196.289	84.0207	196.289	83.1202	196.289	84.0735	196.289	83.0645	196.289	84.1016	196.289	82.9522	196.289	84.0791	196.289	82.7706	196.289	83.9759	196.289	82.5177	196.289	83.7665	196.289	82.2038	196.289	83.4393	196.289	81.8538	196.289	83.0045	196.289	81.5046	196.289	82.4982	196.289	81.2012	196.289	81.9786	196.289	80.987	196.289	81.5131	196.289	80.8963	196.289	81.1594	196.289	80.9508
203.613	83.4131	203.613	83.278	203.613	83.5444	203.613	83.1534	203.613	83.6588	203.613	83.0504	203.613	83.7471	203.613	82.9726	203.613	83.8053	203.613	82.9138	203.613	83.8341	203.613	82.8596	203.613	83.8367	203.613	82.7914	203.613	83.8156	203.613	82.6923	203.613	83.7694	203.613	82.5516	203.613	83.6911	203.613	82.3664	203.613	83.569	203.613	82.1409	203.613	83.3891	203.613	81.8859	203.613	83.1402	203.613	81.6183	203.613	82.8194	203.613	81.3619	203.613	82.4382	203.613	81.1467	203.613	82.0257	203.613	81.0068	203.613	81.6272	203.613	80.974	203.613	81.2942	203.613	81.0691
210.938	83.3698	210.938	83.1852	210.938	83.5391	210.938	83.0116	210.938	83.674	210.938	82.8758	210.938	83.765	210.938	82.7948	210.938	83.8109	210.938	82.7678	210.938	83.8158	210.938	82.774	210.938	83.7834	210.938	82.7797	210.938	83.7133	210.938	82.7487	210.938	83.598	210.938	82.6537	210.938	83.4252	210.938	82.4824	210.938	83.1837	210.938	82.2403	210.938	82.8722	210.938	81.9503	210.938	82.5059	210.938	81.6475	210.938	82.1174	210.938	81.3706	210.938	81.7478	210.938	81.1516	210.938	81.4336	210.938	81.008	210.938	81.1951	210.938	80.9432	210.938	81.0365	210.938	80.9535
218.262	83.1157	218.262	82.9522	218.262	83.2565	218.262	82.7908	218.262	83.3613	218.262	82.6613	218.262	83.4284	218.262	82.5871	218.262	83.4653	218.262	82.5738	218.262	83.483	218.262	82.6032	218.262	83.4906	218.262	82.6393	218.262	83.4882	218.262	82.6414	218.262	83.4641	218.262	82.576	218.262	83.3948	218.262	82.4253	218.262	83.252	218.262	82.1906	218.262	83.0123	218.262	81.8913	218.262	82.6683	218.262	81.5616	218.262	82.2377	218.262	81.2432	218.262	81.767	218.262	80.9735	218.262	81.3229	218.262	80.7773	218.262	80.9703	218.262	80.6667	218.262	80.746	218.262	80.6508
225.586	83.0014	225.586	82.787	225.586	83.1751	225.586	82.5598	225.586	83.2952	225.586	82.3603	225.586	83.3621	225.586	82.2308	225.586	83.3852	225.586	82.1966	225.586	83.3795	225.586	82.2502	225.586	83.3589	225.586	82.3515	225.586	83.3303	225.586	82.444	225.586	83.2873	225.586	82.4756	225.586	83.2114	225.586	82.4117	225.586	83.0776	225.586	82.2424	225.586	82.8661	225.586	81.9834	225.586	82.5717	225.586	81.6732	225.586	82.2102	225.586	81.3632	225.586	81.8186	225.586	81.1021	225.586	81.4465	225.586	80.9209	225.586	81.1422	225.586	80.8307	225.586	80.9356	225.586	80.8339
232.91	83.2475	232.91	83.0026	232.91	83.4366	232.91	82.7225	232.91	83.5612	232.91	82.4422	232.91	83.6218	232.91	82.2075	232.91	83.625	232.91	82.064	232.91	83.5807	232.91	82.0379	232.91	83.4983	232.91	82.1188	232.91	83.3835	232.91	82.2605	232.91	83.2351	232.91	82.3981	232.91	83.0466	232.91	82.471	232.91	82.8117	232.91	82.4393	232.91	82.5317	232.91	82.2911	232.91	82.2209	232.91	82.0445	232.91	81.9044	232.91	81.744	232.91	81.6099	232.91	81.4487	232.91	81.3607	232.91	81.2127	232.91	81.1724	232.91	81.0669	232.91	81.0552	232.91	81.017
241.699	83.3188	241.699	83.0097	241.699	83.5845	241.699	82.6858	241.699	83.7894	241.699	82.3849	241.699	83.9256	241.699	82.1463	241.699	83.9922	241.699	81.9976	241.699	83.993	241.699	81.9428	241.699	83.9326	241.699	81.9602	241.699	83.8134	241.699	82.0125	241.699	83.6313	241.699	82.0608	241.699	83.3743	241.699	82.0763	241.699	83.0263	241.699	82.0438	241.699	82.5764	241.699	81.9615	241.699	82.0358	241.699	81.8362	241.699	81.4578	241.699	81.6784	241.699	80.9444	241.699	81.497	241.699	80.6132	241.699	81.2954	241.699	80.5222	241.699	81.0735	241.699	80.6294	241.699	80.8393
250.488	83.9054	250.488	83.481	250.488	84.2425	250.488	82.9922	250.488	84.4822	250.488	82.477	250.488	84.624	250.488	81.9869	250.488	84.6743	250.488	81.5763	250.488	84.6439	250.488	81.2827	250.488	84.5445	250.488	81.1087	250.488	84.3826	250.488	81.0196	250.488	84.1556	250.488	80.9614	250.488	83.8522	250.488	80.8868	250.488	83.4577	250.488	80.7723	250.488	82.9637	250.488	80.6223	250.488	82.3774	250.488	80.4605	250.488	81.73	250.488	80.3131	250.488	81.0828	250.488	80.1914	250.488	80.5232	250.488	80.0892	250.488	80.1361	250.488	79.9976	250.488	79.9535	250.488	79.9332
259.277	83.8493	259.277	83.5373	259.277	84.0762	259.277	83.1499	259.277	84.2218	259.277	82.7152	259.277	84.2978	259.277	82.2817	259.277	84.3188	259.277	81.9091	259.277	84.2966	259.277	81.6461	259.277	84.2351	259.277	81.5043	259.277	84.1259	259.277	81.4498	259.277	83.9487	259.277	81.422	259.277	83.6766	259.277	81.3636	259.277	83.2843	259.277	81.242	259.277	82.7583	259.277	81.0573	259.277	82.1071	259.277	80.8383	259.277	81.3749	259.277	80.6251	259.277	80.6564	259.277	80.4413	259.277	80.0901	259.277	80.2772	259.277	79.7935	259.277	80.104	259.277	79.7716	259.277	79.9158
268.066	83.4625	268.066	83.168	268.066	83.6701	268.066	82.7917	268.066	83.7963	268.066	82.3482	268.066	83.857	268.066	81.8599	268.066	83.8746	268.066	81.3568	268.066	83.8708	268.066	80.8779	268.066	83.8568	268.066	80.4688	268.066	83.8249	268.066	80.1706	268.066	83.7456	268.066	79.9988	268.066	83.5754	268.066	79.9279	268.066	83.2736	268.066	79.9004	268.066	82.8202	268.066	79.8565	268.066	82.2277	268.066	79.7625	268.066	81.5414	268.066	79.6191	268.066	80.8282	268.066	79.4498	268.066	80.1627	268.066	79.2844	268.066	79.622	268.066	79.1595	268.066	79.2716	268.066	79.1316
276.855	83.5546	276.855	83.3061	276.855	83.7291	276.855	82.9896	276.855	83.838	276.855	82.6285	276.855	83.8971	276.855	82.2571	276.855	83.9232	276.855	81.9053	276.855	83.9287	276.855	81.582	276.855	83.9165	276.855	81.268	276.855	83.8746	276.855	80.9281	276.855	83.7741	276.855	80.5331	276.855	83.5747	276.855	80.0819	276.855	83.2372	276.855	79.614	276.855	82.7396	276.855	79.2026	276.855	82.0936	276.855	78.9229	276.855	81.3593	276.855	78.8101	276.855	80.6445	276.855	78.8427	276.855	80.067	276.855	78.9657	276.855	79.6819	276.855	79.1231	276.855	79.4484	276.855	79.2816
287.109	83.1942	287.109	83.0157	287.109	83.2982	287.109	82.765	287.109	83.3358	287.109	82.4559	287.109	83.3236	287.109	82.1143	287.109	83.2842	287.109	81.7733	287.109	83.2403	287.109	81.4603	287.109	83.2035	287.109	81.1809	287.109	83.164	287.109	80.9101	287.109	83.0878	287.109	80.6021	287.109	82.9256	287.109	80.2146	287.109	82.6318	287.109	79.7379	287.109	82.1839	287.109	79.2189	287.109	81.5987	287.109	78.7674	287.109	80.9387	287.109	78.5117	287.109	80.3037	287.109	78.5053	287.109	79.7945	287.109	78.6776	287.109	79.4575	287.109	78.9016	287.109	79.2539	287.109	79.0931
297.363	83.4192	297.363	83.2179	297.363	83.5563	297.363	82.9742	297.363	83.6215	297.363	82.7142	297.363	83.625	297.363	82.4563	297.363	83.5935	297.363	82.2025	297.363	83.558	297.363	81.9356	297.363	83.5345	297.363	81.6239	297.363	83.5021	297.363	81.229	297.363	83.3972	297.363	80.7157	297.363	83.1319	297.363	80.0669	297.363	82.6316	297.363	79.3033	297.363	81.8805	297.363	78.5096	297.363	80.9697	297.363	77.8447	297.363	80.1115	297.363	77.4903	297.363	79.5289	297.363	77.5228	297.363	79.2544	297.363	77.8443	297.363	79.1206	297.363	78.2742	297.363	78.9517	297.363	78.6678
307.617	83.2289	307.617	82.994	307.617	83.413	307.617	82.735	307.617	83.5369	307.617	82.4953	307.617	83.6041	307.617	82.319	307.617	83.6279	307.617	82.2247	307.617	83.6266	307.617	82.1862	307.617	83.6132	307.617	82.1371	307.617	83.579	307.617	81.9947	307.617	83.4811	307.617	81.6837	307.617	83.2423	307.617	81.1533	307.617	82.7653	307.617	80.3918	307.617	81.955	307.617	79.4515	307.617	80.7581	307.617	78.4886	307.617	79.2571	307.617	77.769	307.617	77.8467	307.617	77.517	307.617	77.1815	307.617	77.6776	307.617	77.3784	307.617	77.953	307.617	77.8273	307.617	78.051
319.336	82.5701	319.336	82.2975	319.336	82.7576	319.336	81.9813	319.336	82.8592	319.336	81.6993	319.336	82.9114	319.336	81.5416	319.336	82.9726	319.336	81.5616	319.336	83.092	319.336	81.7306	319.336	83.2729	319.336	81.9449	319.336	83.454	319.336	82.0764	319.336	83.5253	319.336	82.0163	319.336	83.3638	319.336	81.6895	319.336	82.8616	319.336	81.0561	319.336	81.9405	319.336	80.1279	319.336	80.5637	319.336	79.0169	319.336	78.786	319.336	77.9984	319.336	76.9214	319.336	77.4203	319.336	75.7469	319.336	77.3343	319.336	75.8343	319.336	77.3825	319.336	76.5757	319.336	77.1768
329.59	81.6262	329.59	81.3191	329.59	81.8238	329.59	80.9502	329.59	81.9238	329.59	80.6315	329.59	81.9892	329.59	80.5135	329.59	82.1212	329.59	80.697	329.59	82.4181	329.59	81.1398	329.59	82.9012	329.59	81.6698	329.59	83.4725	329.59	82.0846	329.59	83.9572	329.59	82.2196	329.59	84.177	329.59	81.958	329.59	83.9847	329.59	81.2189	329.59	83.2621	329.59	79.9579	329.59	81.9084	329.59	78.2123	329.59	79.8403	329.59	76.2541	329.59	77.0638	329.59	74.767	329.59	74.0792	329.59	74.2864	329.59	72.5836	329.59	74.2919	329.59	73.1497	329.59	73.9897
341.309	82.1225	341.309	81.6023	341.309	82.3099	341.309	80.7786	341.309	82.193	341.309	79.7908	341.309	81.8584	341.309	78.9834	341.309	81.487	341.309	78.8407	341.309	81.367	341.309	79.4958	341.309	81.7441	341.309	80.5264	341.309	82.558	341.309	81.4574	341.309	83.4742	341.309	82.0336	341.309	84.157	341.309	82.1508	341.309	84.3874	341.309	81.7641	341.309	84.0298	341.309	80.8435	341.309	82.9768	341.309	79.3676	341.309	81.1121	341.309	77.3705	341.309	78.3076	341.309	75.097	341.309	74.6054	341.309	73.207	341.309	71.2779	341.309	72.2399	341.309	70.8057	341.309	71.6319
353.027	83.2087	353.027	82.9009	353.027	83.1356	353.027	82.1894	353.027	82.7027	353.027	81.0652	353.027	81.9347	353.027	79.6009	353.027	80.906	353.027	78.155	353.027	79.8823	353.027	77.5769	353.027	79.4748	353.027	78.3674	353.027	80.1649	353.027	79.7892	353.027	81.5284	353.027	81.0382	353.027	82.8477	353.027	81.7968	353.027	83.7453	353.027	81.9727	353.027	84.08	353.027	81.5291	353.027	83.7803	353.027	80.4367	353.027	82.7747	353.027	78.6734	353.027	80.971	353.027	76.2616	353.027	78.2664	353.027	73.3889	353.027	74.6607	353.027	70.6302	353.027	70.8435	353.027	69.19
366.211	84.5902	366.211	84.392	366.211	84.5652	366.211	83.9295	366.211	84.3181	366.211	83.1378	366.211	83.8025	366.211	81.9455	366.211	82.9391	366.211	80.3206	366.211	81.6693	366.211	78.4505	366.211	80.1024	366.211	77.1781	366.211	78.8794	366.211	77.5821	366.211	79.1021	366.211	79.0542	366.211	80.5937	366.211	80.422	366.211	82.1664	366.211	81.2459	366.211	83.2062	366.211	81.4563	366.211	83.5551	366.211	81.0719	366.211	83.1923	366.211	80.1334	366.211	82.1404	366.211	78.7223	366.211	80.4716	366.211	77.0534	366.211	78.3845	366.211	75.6326	366.211	76.367	366.211	75.2612
379.395	84.6499	379.395	84.3734	379.395	84.7292	379.395	83.9088	379.395	84.5837	379.395	83.2489	379.395	84.1755	379.395	82.3829	379.395	83.4714	379.395	81.3225	379.395	82.4645	379.395	80.1642	379.395	81.2212	379.395	79.1906	379.395	80.0029	379.395	78.8337	379.395	79.3813	379.395	79.2293	379.395	79.7889	379.395	79.9831	379.395	80.8254	379.395	80.6349	379.395	81.8076	379.395	80.9474	379.395	82.3752	379.395	80.8544	379.395	82.4272	379.395	80.3897	379.395	81.9834	379.395	79.6761	379.395	81.1422	379.395	78.9364	379.395	80.09	379.395	78.4629	379.395	79.1071	379.395	78.5024
392.578	84.3595	392.578	84.1148	392.578	84.4054	392.578	83.6738	392.578	84.2362	392.578	83.0262	392.578	83.8283	392.578	82.1655	392.578	83.1584	392.578	81.1269	392.578	82.2152	392.578	80.0486	392.578	81.0407	392.578	79.2162	392.578	79.8456	392.578	78.9499	392.578	79.1329	392.578	79.305	392.578	79.3418	392.578	80.0024	392.578	80.161	392.578	80.695	392.578	80.9217	392.578	81.1418	392.578	81.2269	392.578	81.2169	392.578	80.9595	392.578	80.8899	392.578	80.1803	392.578	80.2223	392.578	79.1225	392.578	79.3657	392.578	78.1896	392.578	78.5306	392.578	77.7642	392.578	77.9301
405.762	85.0883	405.762	84.8243	405.762	85.1071	405.762	84.3199	405.762	84.8739	405.762	83.5686	405.762	84.3831	405.762	82.5465	405.762	83.6262	405.762	81.2372	405.762	82.5973	405.762	79.7378	405.762	81.3263	405.762	78.4801	405.762	79.9748	405.762	78.1916	405.762	78.974	405.762	78.952	405.762	78.8486	405.762	80.0243	405.762	79.5138	405.762	80.8571	405.762	80.3332	405.762	81.2782	405.762	80.8204	405.762	81.2859	405.762	80.7783	405.762	80.9367	405.762	80.1902	405.762	80.3123	405.762	79.2083	405.762	79.5147	405.762	78.2202	405.762	78.6732	405.762	77.7457	405.762	77.9811
420.41	84.4084	420.41	84.2203	420.41	84.4359	420.41	83.873	420.41	84.3008	420.41	83.3647	420.41	83.9972	420.41	82.6845	420.41	83.5097	420.41	81.8123	420.41	82.812	420.41	80.7428	420.41	81.8826	420.41	79.5685	420.41	80.7676	420.41	78.6193	420.41	79.7321	420.41	78.3804	420.41	79.3416	420.41	78.8844	420.41	79.876	420.41	79.604	420.41	80.7869	420.41	80.0996	420.41	81.4064	420.41	80.2338	420.41	81.4153	420.41	80.0448	420.41	80.7518	420.41	79.6314	420.41	79.5636	420.41	79.081	420.41	78.3074	420.41	78.4494	420.41	77.6663	420.41	77.856
435.059	84.5798	435.059	84.398	435.059	84.5872	435.059	84.002	435.059	84.445	435.059	83.3535	435.059	84.1424	435.059	82.4276	435.059	83.6302	435.059	81.2422	435.059	82.8488	435.059	79.9232	435.059	81.7856	435.059	78.7784	435.059	80.5637	435.059	78.2042	435.059	79.5415	435.059	78.3219	435.059	79.1965	435.059	78.8505	435.059	79.621	435.059	79.4263	435.059	80.3922	435.059	79.8048	435.059	81.0279	435.059	79.8514	435.059	81.1968	435.059	79.5113	435.059	80.6946	435.059	78.8053	435.059	79.4536	435.059	77.8259	435.059	77.6908	435.059	76.7423	435.059	76.1965	435.059	75.9443
451.172	84.7343	451.172	84.4455	451.172	84.9256	451.172	84.0535	451.172	84.9733	451.172	83.5095	451.172	84.7992	451.172	82.739	451.172	84.326	451.172	81.6541	451.172	83.4961	451.172	80.1732	451.172	82.2617	451.172	78.2919	451.172	80.5761	451.172	76.3364	451.172	78.5131	451.172	75.3601	451.172	76.8469	451.172	76.0999	451.172	77.0925	451.172	77.5419	451.172	78.6106	451.172	78.6942	451.172	79.7596	451.172	79.2775	451.172	80.0309	451.172	79.335	451.172	79.4946	451.172	79.0446	451.172	78.51	451.172	78.6191	451.172	77.6937	451.172	78.1892	451.172	77.5044	451.172	77.7818
465.82	84.0403	465.82	83.8479	465.82	84.0658	465.82	83.5009	465.82	83.9205	465.82	82.9936	465.82	83.6237	465.82	82.289	465.82	83.2002	465.82	81.3325	465.82	82.6435	465.82	80.0943	465.82	81.8993	465.82	78.6445	465.82	80.893	465.82	77.2503	465.82	79.6092	465.82	76.3627	465.82	78.2575	465.82	76.2661	465.82	77.4661	465.82	76.7652	465.82	77.7987	465.82	77.4473	465.82	78.7886	465.82	77.9935	465.82	79.5874	465.82	78.2325	465.82	79.7432	465.82	78.1091	465.82	79.1456	465.82	77.6579	465.82	77.9841	465.82	77.0201	465.82	76.8747	465.82	76.5654
483.398	83.6927	483.398	83.5435	483.398	83.7032	483.398	83.2614	483.398	83.6124	483.398	82.8779	483.398	83.4622	483.398	82.3955	483.398	83.2469	483.398	81.7555	483.398	82.9087	483.398	80.8653	483.398	82.3772	483.398	79.662	483.398	81.6041	483.398	78.183	483.398	80.592	483.398	76.6636	483.398	79.4836	483.398	75.616	483.398	78.7126	483.398	75.5322	483.398	78.7624	483.398	76.2473	483.398	79.4033	483.398	77.1692	483.398	79.9398	483.398	77.9088	483.398	79.9607	483.398	78.3483	483.398	79.4346	483.398	78.4855	483.398	78.6492	483.398	78.3575	483.398	78.1191	483.398	78.1148
499.512	84.2465	499.512	83.9211	499.512	84.4085	499.512	83.4216	499.512	84.4185	499.512	82.7659	499.512	84.2664	499.512	82.0081	499.512	83.9287	499.512	81.2148	499.512	83.3921	499.512	80.4205	499.512	82.6587	499.512	79.6116	499.512	81.736	499.512	78.762	499.512	80.6578	499.512	77.8858	499.512	79.5633	499.512	77.0653	499.512	78.7691	499.512	76.4476	499.512	78.5977	499.512	76.1877	499.512	78.9527	499.512	76.3168	499.512	79.3479	499.512	76.6804	499.512	79.3585	499.512	77.0499	499.512	78.8368	499.512	77.245	499.512	77.9649	499.512	77.1988	499.512	77.2441	499.512	77.0623
517.09	84.5784	517.09	84.3143	517.09	84.5893	517.09	83.7952	517.09	84.3965	517.09	83.0804	517.09	84.0516	517.09	82.2518	517.09	83.57	517.09	81.361	517.09	82.929	517.09	80.4408	517.09	82.1079	517.09	79.5822	517.09	81.1575	517.09	78.9503	517.09	80.2718	517.09	78.6426	517.09	79.7531	517.09	78.5522	517.09	79.7509	517.09	78.4511	517.09	80.0548	517.09	78.1574	517.09	80.2686	517.09	77.6226	517.09	80.0329	517.09	76.9737	517.09	79.1018	517.09	76.4812	517.09	77.4899	517.09	76.3008	517.09	75.8924	517.09	76.2188	517.09	75.4638	517.09	75.8966
536.133	83.9952	536.133	83.6441	536.133	84.1109	536.133	83.0722	536.133	83.9999	536.133	82.3177	536.133	83.6929	536.133	81.45	536.133	83.211	536.133	80.5429	536.133	82.5199	536.133	79.629	536.133	81.5209	536.133	78.7263	536.133	80.0903	536.133	77.9385	536.133	78.2485	536.133	77.4565	536.133	76.7706	536.133	77.3903	536.133	77.211	536.133	77.6723	536.133	78.9208	536.133	78.1306	536.133	80.32	536.133	78.5591	536.133	80.9898	536.133	78.7853	536.133	80.9687	536.133	78.7403	536.133	80.322	536.133	78.4583	536.133	79.2027	536.133	78.0444	536.133	78.1309	536.133	77.7682
555.176	84.178	555.176	83.8966	555.176	84.2312	555.176	83.3563	555.176	84.1621	555.176	82.6293	555.176	84.0289	555.176	81.8006	555.176	83.7874	555.176	80.8615	555.176	83.3715	555.176	79.7248	555.176	82.7469	555.176	78.3934	555.176	81.8407	555.176	77.1821	555.176	80.439	555.176	76.6206	555.176	78.2261	555.176	76.7609	555.176	75.5348	555.176	77.1338	555.176	75.5718	555.176	77.4637	555.176	78.2852	555.176	77.7767	555.176	80.2242	555.176	78.128	555.176	80.7785	555.176	78.4642	555.176	80.0825	555.176	78.6294	555.176	78.5976	555.176	78.4161	555.176	77.5495	555.176	77.808
574.219	84.8402	574.219	84.4859	574.219	84.9624	574.219	83.8198	574.219	84.8773	574.219	82.8355	574.219	84.5471	574.219	81.7095	574.219	83.9681	574.219	80.7186	574.219	83.225	574.219	79.8958	574.219	82.4437	574.219	78.9364	574.219	81.677	574.219	77.6844	574.219	80.8029	574.219	76.6144	574.219	79.5356	574.219	76.3896	574.219	77.5909	574.219	76.7123	574.219	75.2946	574.219	77.0445	574.219	74.9498	574.219	77.4521	574.219	76.9661	574.219	78.141	574.219	78.6226	574.219	78.9283	574.219	79.1569	574.219	79.4226	574.219	78.8996	574.219	79.3951	574.219	78.6522	574.219	78.9564
594.727	84.5522	594.727	84.3181	594.727	84.5624	594.727	83.8654	594.727	84.3259	594.727	83.156	594.727	83.8744	594.727	82.184	594.727	83.2781	594.727	81.0498	594.727	82.5506	594.727	79.9029	594.727	81.6443	594.727	78.7367	594.727	80.5644	594.727	77.3506	594.727	79.4478	594.727	75.7767	594.727	78.5381	594.727	74.8604	594.727	78.0363	594.727	75.2923	594.727	77.809	594.727	76.1767	594.727	77.4367	594.727	76.8169	594.727	76.9417	594.727	77.3486	594.727	77.1426	594.727	77.9758	594.727	77.9831	594.727	78.4616	594.727	78.3773	594.727	78.4623	594.727	78.1805	594.727	78.1564
615.234	84.2343	615.234	84.0599	615.234	84.2888	615.234	83.6873	615.234	84.2658	615.234	83.0758	615.234	84.1076	615.234	82.2353	615.234	83.7047	615.234	81.2195	615.234	82.9971	615.234	80.1012	615.234	82.02	615.234	78.8967	615.234	80.8809	615.234	77.5857	615.234	79.6826	615.234	76.3717	615.234	78.4478	615.234	75.7288	615.234	77.341	615.234	75.7082	615.234	77.133	615.234	75.7996	615.234	78.0455	615.234	75.7398	615.234	78.8092	615.234	75.7984	615.234	78.5211	615.234	76.2662	615.234	77.0964	615.234	76.8422	615.234	75.3791	615.234	76.9531	615.234	75.2047	615.234	76.2768
637.207	84.6926	637.207	84.3346	637.207	84.7979	637.207	83.7287	637.207	84.6677	637.207	82.8759	637.207	84.3569	637.207	81.8005	637.207	83.9113	637.207	80.5868	637.207	83.3107	637.207	79.3654	637.207	82.4829	637.207	78.2675	637.207	81.3718	637.207	77.3331	637.207	79.9577	637.207	76.4575	637.207	78.2117	637.207	75.6257	637.207	76.2067	637.207	75.1555	637.207	74.8505	637.207	75.3024	637.207	75.6955	637.207	75.7796	637.207	77.3985	637.207	76.2917	637.207	78.0759	637.207	76.9227	637.207	77.3696	637.207	77.668	637.207	76.2931	637.207	78.1075	637.207	76.6966	637.207	77.7664
659.18	83.6012	659.18	83.6648	659.18	83.4742	659.18	83.5448	659.18	83.2541	659.18	83.0954	659.18	82.8251	659.18	82.2678	659.18	82.1504	659.18	81.1502	659.18	81.3203	659.18	79.9195	659.18	80.4879	659.18	78.6837	659.18	79.7853	659.18	77.4661	659.18	79.2157	659.18	76.4319	659.18	78.5977	659.18	75.7936	659.18	77.7224	659.18	75.4321	659.18	76.6565	659.18	75.129	659.18	75.8751	659.18	74.9508	659.18	75.7624	659.18	75.0004	659.18	76.0549	659.18	75.1916	659.18	75.9783	659.18	75.1999	659.18	74.5985	659.18	74.3488	659.18	72.082	659.18	72.3069
682.617	83.7149	682.617	83.4438	682.617	83.8287	682.617	83.068	682.617	83.724	682.617	82.5209	682.617	83.4282	682.617	81.6735	682.617	83.0066	682.617	80.5096	682.617	82.4292	682.617	79.1977	682.617	81.5633	682.617	77.9059	682.617	80.3762	682.617	76.7032	682.617	79.2266	682.617	75.9705	682.617	78.6931	682.617	76.0865	682.617	78.6104	682.617	76.4116	682.617	78.466	682.617	76.2191	682.617	78.5571	682.617	75.6486	682.617	79.1008	682.617	75.5639	682.617	79.1956	682.617	76.2798	682.617	78.0348	682.617	76.9585	682.617	75.7505	682.617	76.8082	682.617	74.417	682.617	75.5901
707.52	84.7334	707.52	84.3687	707.52	84.93	707.52	83.9381	707.52	84.8407	707.52	83.4373	707.52	84.4443	707.52	82.7832	707.52	83.7958	707.52	81.8404	707.52	82.9504	707.52	80.4943	707.52	81.9197	707.52	78.8385	707.52	80.6459	707.52	77.1991	707.52	79.0509	707.52	75.8022	707.52	77.2806	707.52	74.9065	707.52	75.7583	707.52	74.9122	707.52	74.4947	707.52	75.2791	707.52	74.5037	707.52	75.2135	707.52	76.75	707.52	74.8489	707.52	78.2357	707.52	75.2969	707.52	77.688	707.52	76.5197	707.52	76.0326	707.52	77.166	707.52	75.849	707.52	76.8003
732.422	84.2756	732.422	84.1772	732.422	84.1206	732.422	83.9605	732.422	83.6811	732.422	83.6219	732.422	83.0898	732.422	82.9938	732.422	82.5093	732.422	82.0247	732.422	81.9687	732.422	80.9217	732.422	81.367	732.422	79.7574	732.422	80.5969	732.422	78.1693	732.422	79.4542	732.422	76.0495	732.422	77.548	732.422	74.4064	732.422	75.0058	732.422	74.493	732.422	74.063	732.422	75.4397	732.422	74.7551	732.422	75.8822	732.422	74.7424	732.422	75.2435	732.422	75.1641	732.422	73.8216	732.422	76.1847	732.422	73.0329	732.422	75.8486	732.422	73.1807	732.422	74.3155	732.422	73.377
757.324	84.2589	757.324	84.1921	757.324	84.0865	757.324	83.9953	757.324	83.7657	757.324	83.7818	757.324	83.4103	757.324	83.3704	757.324	82.9295	757.324	82.4375	757.324	82.191	757.324	80.981	757.324	81.2586	757.324	79.4144	757.324	80.2559	757.324	77.8291	757.324	79.2927	757.324	75.8618	757.324	78.5097	757.324	74.4688	757.324	77.5937	757.324	75.3128	757.324	76.2213	757.324	76.4721	757.324	76.1026	757.324	76.7778	757.324	77.761	757.324	76.7465	757.324	78.535	757.324	76.9153	757.324	77.7301	757.324	76.907	757.324	75.3992	757.324	75.7574	757.324	71.9281	757.324	72.7953
785.156	84.5907	785.156	84.6304	785.156	84.2924	785.156	84.3232	785.156	83.8068	785.156	83.8917	785.156	82.9877	785.156	83.5487	785.156	82.0145	785.156	83.0625	785.156	81.3885	785.156	82.0925	785.156	80.9176	785.156	80.7086	785.156	80.0214	785.156	79.2117	785.156	78.6367	785.156	77.3777	785.156	77.0122	785.156	74.7146	785.156	75.4581	785.156	72.5754	785.156	73.9019	785.156	73.8607	785.156	71.0872	785.156	75.2571	785.156	71.6354	785.156	74.9882	785.156	75.7049	785.156	74.3657	785.156	76.4612	785.156	75.1501	785.156	73.8029	785.156	75.7253	785.156	72.0848	785.156	74.5789
811.523	84.8056	811.523	84.776	811.523	84.5106	811.523	84.3755	811.523	83.8456	811.523	83.5836	811.523	83.1134	811.523	82.6547	811.523	82.7116	811.523	81.9133	811.523	82.1722	811.523	81.2883	811.523	81.0227	811.523	80.3513	811.523	79.8342	811.523	78.8577	811.523	79.2237	811.523	76.9812	811.523	78.3177	811.523	74.9315	811.523	76.0863	811.523	72.8706	811.523	74.2256	811.523	72.4723	811.523	74.9428	811.523	73.8587	811.523	75.0399	811.523	74.685	811.523	74.9664	811.523	74.4457	811.523	76.0184	811.523	73.9078	811.523	75.7699	811.523	73.6793	811.523	74.0791	811.523	73.4119
840.82	85.2257	840.82	85.0964	840.82	84.9602	840.82	84.8669	840.82	84.3327	840.82	84.7572	840.82	83.4935	840.82	84.4881	840.82	82.3736	840.82	83.5376	840.82	81.1323	840.82	81.6969	840.82	80.5177	840.82	79.5588	840.82	80.7041	840.82	78.5252	840.82	80.8395	840.82	78.6758	840.82	80.1109	840.82	78.1586	840.82	78.1221	840.82	75.8866	840.82	74.4287	840.82	73.6652	840.82	69.2037	840.82	74.6328	840.82	72.1649	840.82	75.8353	840.82	75.8678	840.82	75.5413	840.82	76.3563	840.82	74.6178	840.82	74.7696	840.82	73.7737	840.82	73.3275	840.82	73.1568
870.117	85.3979	870.117	85.3821	870.117	84.8374	870.117	84.8312	870.117	83.9071	870.117	83.9703	870.117	83.1568	870.117	83.0174	870.117	82.745	870.117	81.762	870.117	82.1785	870.117	80.1119	870.117	81.1323	870.117	78.721	870.117	79.6038	870.117	78.1325	870.117	78.0828	870.117	77.9341	870.117	77.575	870.117	77.5838	870.117	77.6785	870.117	76.7438	870.117	77.338	870.117	75.3156	870.117	76.197	870.117	74.4013	870.117	73.8872	870.117	75.2665	870.117	72.198	870.117	75.9892	870.117	74.3153	870.117	75.9827	870.117	74.4977	870.117	74.9472	870.117	70.9618	870.117	71.6292
900.879	85.9334	900.879	85.8946	900.879	85.753	900.879	85.5183	900.879	85.1408	900.879	84.7822	900.879	83.8188	900.879	83.7698	900.879	82.2334	900.879	82.4817	900.879	81.2684	900.879	80.5614	900.879	80.7882	900.879	77.8431	900.879	79.9326	900.879	75.7243	900.879	78.692	900.879	75.5864	900.879	77.6239	900.879	75.8729	900.879	76.4669	900.879	75.7258	900.879	74.9348	900.879	75.9437	900.879	74.5238	900.879	76.1298	900.879	75.3817	900.879	75.3857	900.879	77.0464	900.879	74.1697	900.879	78.025	900.879	74.1972	900.879	76.5333	900.879	74.1269	900.879	72.9426	900.879	72.463
933.105	85.8981	933.105	85.7461	933.105	85.1644	933.105	85.3292	933.105	83.847	933.105	84.8144	933.105	83.1517	933.105	83.5412	933.105	82.3953	933.105	81.2179	933.105	81.0349	933.105	79.3109	933.105	80.2559	933.105	79.0155	933.105	79.9513	933.105	78.0429	933.105	79.0651	933.105	74.6681	933.105	77.8716	933.105	73.0267	933.105	77.0047	933.105	74.2333	933.105	76.8528	933.105	74.5445	933.105	77.4696	933.105	73.4829	933.105	75.8482	933.105	72.2575	933.105	68.9571	933.105	72.6702	933.105	73.133	933.105	74.066	933.105	75.0877	933.105	74.7279	933.105	71.1588	933.105	72.4575
965.332	86.0035	965.332	86.318	965.332	85.5967	965.332	85.9807	965.332	85.0588	965.332	84.8777	965.332	83.6227	965.332	83.4565	965.332	81.634	965.332	82.2125	965.332	80.8947	965.332	80.7963	965.332	81.0762	965.332	78.8323	965.332	80.3522	965.332	77.5178	965.332	78.51	965.332	77.4219	965.332	76.9262	965.332	76.5995	965.332	76.4551	965.332	73.4937	965.332	74.923	965.332	73.6506	965.332	73.0082	965.332	76.8725	965.332	77.6852	965.332	77.3405	965.332	79.74	965.332	75.0558	965.332	78.4683	965.332	73.0603	965.332	75.9249	965.332	73.7795	965.332	72.3659	965.332	71.6458
1,000.49	85.7099	1,000.49	85.879	1,000.49	85.2793	1,000.49	85.7731	1,000.49	84.65	1,000.49	85.2137	1,000.49	83.7262	1,000.49	84.1514	1,000.49	82.985	1,000.49	82.4031	1,000.49	82.7904	1,000.49	79.4554	1,000.49	81.6583	1,000.49	76.2099	1,000.49	79.0425	1,000.49	75.7345	1,000.49	77.5575	1,000.49	76.478	1,000.49	78.332	1,000.49	75.4221	1,000.49	78.6103	1,000.49	74.1043	1,000.49	77.1016	1,000.49	73.1033	1,000.49	75.3495	1,000.49	72.9223	1,000.49	70.9556	1,000.49	73.041	1,000.49	64.0964	1,000.49	72.2202	1,000.49	74.031	1,000.49	72.3532	1,000.49	74.7134	1,000.49	73.208	1,000.49	72.4534	1,000.49	72.8847
1,035.64	85.0452	1,035.64	85.8915	1,035.64	85.226	1,035.64	86.2675	1,035.64	84.9383	1,035.64	84.9071	1,035.64	83.4542	1,035.64	82.4118	1,035.64	82.2523	1,035.64	81.8226	1,035.64	81.6385	1,035.64	81.9713	1,035.64	80.842	1,035.64	78.9415	1,035.64	79.656	1,035.64	70.277	1,035.64	77.4641	1,035.64	67.6081	1,035.64	76.3964	1,035.64	70.4265	1,035.64	77.5154	1,035.64	73.1841	1,035.64	75.6381	1,035.64	76.1384	1,035.64	73.4175	1,035.64	76.3024	1,035.64	77.6289	1,035.64	75.5141	1,035.64	78.4559	1,035.64	75.2761	1,035.64	76.7335	1,035.64	75.071	1,035.64	76.729	1,035.64	73.932	1,035.64	74.3647	1,035.64	71.7378
1,072.27	85.0839	1,072.27	85.2393	1,072.27	84.4228	1,072.27	85.3029	1,072.27	84.1204	1,072.27	85.6225	1,072.27	83.227	1,072.27	84.8471	1,072.27	82.1116	1,072.27	82.2822	1,072.27	82.6138	1,072.27	79.923	1,072.27	82.4094	1,072.27	79.5417	1,072.27	80.1339	1,072.27	77.6898	1,072.27	78.275	1,072.27	71.191	1,072.27	76.9362	1,072.27	73.7406	1,072.27	78.5389	1,072.27	74.7879	1,072.27	78.0231	1,072.27	68.8614	1,072.27	76.4866	1,072.27	66.8111	1,072.27	74.3677	1,072.27	74.0446	1,072.27	70.0448	1,072.27	73.4929	1,072.27	76.1171	1,072.27	68.4845	1,072.27	77.0378	1,072.27	68.1662	1,072.27	73.3403	1,072.27	70.6283
1,108.89	83.8448	1,108.89	84.3856	1,108.89	84.0685	1,108.89	84.8095	1,108.89	84.9584	1,108.89	84.8186	1,108.89	84.7883	1,108.89	84.3303	1,108.89	83.704	1,108.89	82.5447	1,108.89	82.6846	1,108.89	79.2389	1,108.89	81.1926	1,108.89	77.8673	1,108.89	79.4358	1,108.89	79.3375	1,108.89	78.261	1,108.89	77.5572	1,108.89	76.427	1,108.89	71.2322	1,108.89	71.7473	1,108.89	70.575	1,108.89	72.7181	1,108.89	72.6957	1,108.89	74.4745	1,108.89	73.4185	1,108.89	74.2435	1,108.89	75.7403	1,108.89	78.2048	1,108.89	76.4999	1,108.89	76.411	1,108.89	75.2124	1,108.89	76.2571	1,108.89	71.7719	1,108.89	75.252	1,108.89	62.083
1,148.44	84.1139	1,148.44	84.2324	1,148.44	83.7492	1,148.44	84.3362	1,148.44	83.7943	1,148.44	84.2751	1,148.44	83.9718	1,148.44	82.7623	1,148.44	82.9188	1,148.44	80.4662	1,148.44	81.5243	1,148.44	80.7377	1,148.44	80.5332	1,148.44	80.5746	1,148.44	79.2962	1,148.44	76.5571	1,148.44	77.9909	1,148.44	74.2221	1,148.44	75.9079	1,148.44	74.235	1,148.44	73.4183	1,148.44	70.7999	1,148.44	72.9453	1,148.44	70.8477	1,148.44	77.0797	1,148.44	71.5684	1,148.44	78.3116	1,148.44	70.2737	1,148.44	71.1318	1,148.44	73.3767	1,148.44	76.3157	1,148.44	70.862	1,148.44	75.9387	1,148.44	67.0565	1,148.44	69.3493	1,148.44	69.3342
1,189.45	84.0134	1,189.45	83.9797	1,189.45	83.6064	1,189.45	83.885	1,189.45	83.8579	1,189.45	83.9118	1,189.45	83.9591	1,189.45	82.7407	1,189.45	83.5954	1,189.45	80.7353	1,189.45	82.7538	1,189.45	79.3624	1,189.45	80.7237	1,189.45	78.6631	1,189.45	79.5258	1,189.45	75.8543	1,189.45	78.6867	1,189.45	75.6542	1,189.45	76.4076	1,189.45	77.0148	1,189.45	72.2493	1,189.45	74.8828	1,189.45	67.8245	1,189.45	71.5919	1,189.45	69.1018	1,189.45	70.711	1,189.45	69.4672	1,189.45	71.5624	1,189.45	75.1996	1,189.45	73.481	1,189.45	74.2484	1,189.45	74.0493	1,189.45	74.0759	1,189.45	72.2447	1,189.45	73.9896	1,189.45	66.6758
1,230.47	84.0169	1,230.47	84.265	1,230.47	84.2663	1,230.47	84.3358	1,230.47	84.4764	1,230.47	83.6832	1,230.47	83.9142	1,230.47	82.54	1,230.47	82.5308	1,230.47	81.3152	1,230.47	80.6973	1,230.47	79.3914	1,230.47	80.3901	1,230.47	78.3802	1,230.47	80.0738	1,230.47	77.1747	1,230.47	78.1122	1,230.47	72.7232	1,230.47	76.3213	1,230.47	73.6756	1,230.47	73.8444	1,230.47	74.5367	1,230.47	70.657	1,230.47	73.7629	1,230.47	70.7294	1,230.47	72.5698	1,230.47	76.269	1,230.47	71.5721	1,230.47	75.0967	1,230.47	72.67	1,230.47	71.6615	1,230.47	72.0773	1,230.47	74.7245	1,230.47	67.7183	1,230.47	72.6854	1,230.47	68.4334
1,274.41	84.5685	1,274.41	84.5573	1,274.41	84.2236	1,274.41	83.8444	1,274.41	84.1061	1,274.41	82.3758	1,274.41	83.8145	1,274.41	81.5255	1,274.41	82.9569	1,274.41	80.9493	1,274.41	81.9275	1,274.41	78.9472	1,274.41	79.672	1,274.41	77.6504	1,274.41	78.901	1,274.41	77.641	1,274.41	78.8669	1,274.41	74.1038	1,274.41	76.4439	1,274.41	69.6056	1,274.41	72.3223	1,274.41	70.65	1,274.41	71.26	1,274.41	73.9809	1,274.41	73.7054	1,274.41	75.1849	1,274.41	71.8391	1,274.41	72.1984	1,274.41	65.3611	1,274.41	69.0895	1,274.41	74.2826	1,274.41	71.1497	1,274.41	73.635	1,274.41	67.4516	1,274.41	73.8741	1,274.41	69.4683
1,319.82	85.0746	1,319.82	85.5275	1,319.82	84.8926	1,319.82	84.4477	1,319.82	84.7024	1,319.82	82.4645	1,319.82	84.2888	1,319.82	81.8298	1,319.82	83.9334	1,319.82	81.0085	1,319.82	82.3645	1,319.82	79.0711	1,319.82	79.7015	1,319.82	75.9096	1,319.82	77.2067	1,319.82	74.2934	1,319.82	76.9693	1,319.82	74.7684	1,319.82	75.175	1,319.82	70.3962	1,319.82	70.3392	1,319.82	68.503	1,319.82	68.8547	1,319.82	69.7384	1,319.82	66.2711	1,319.82	70.3684	1,319.82	70.83	1,319.82	71.9341	1,319.82	76.1102	1,319.82	69.2342	1,319.82	71.5605	1,319.82	69.1915	1,319.82	71.4959	1,319.82	71.6658	1,319.82	74.144	1,319.82	72.0921
1,366.7	84.8628	1,366.7	84.8327	1,366.7	84.6922	1,366.7	84.2038	1,366.7	84.2969	1,366.7	82.7036	1,366.7	84.5197	1,366.7	82.0837	1,366.7	83.6257	1,366.7	81.4954	1,366.7	82.4268	1,366.7	78.4396	1,366.7	79.6093	1,366.7	75.3248	1,366.7	79.0425	1,366.7	72.007	1,366.7	78.7442	1,366.7	68.1597	1,366.7	76.0874	1,366.7	72.4893	1,366.7	73.5184	1,366.7	73.7371	1,366.7	65.7795	1,366.7	68.9298	1,366.7	67.2765	1,366.7	73.9306	1,366.7	72.6364	1,366.7	75.1984	1,366.7	74.4142	1,366.7	72.7824	1,366.7	73.044	1,366.7	69.78	1,366.7	75.8052	1,366.7	65.1277	1,366.7	72.9138	1,366.7	70.7722
1,413.57	83.7605	1,413.57	84.0462	1,413.57	84.2903	1,413.57	83.9802	1,413.57	83.9184	1,413.57	82.2073	1,413.57	83.6597	1,413.57	81.5131	1,413.57	82.3327	1,413.57	80.8746	1,413.57	80.6683	1,413.57	79.5487	1,413.57	78.3905	1,413.57	75.2417	1,413.57	75.7926	1,413.57	73.4653	1,413.57	77.1177	1,413.57	72.894	1,413.57	75.6118	1,413.57	69.6656	1,413.57	72.8611	1,413.57	71.404	1,413.57	69.1144	1,413.57	67.1634	1,413.57	69.9276	1,413.57	68.5146	1,413.57	71.1962	1,413.57	71.7719	1,413.57	67.8574	1,413.57	70.5989	1,413.57	76.4378	1,413.57	68.1899	1,413.57	72.5835	1,413.57	67.4532	1,413.57	74.5969	1,413.57	68.8807
1,463.38	83.2756	1,463.38	83.2124	1,463.38	84.1693	1,463.38	82.891	1,463.38	84.6193	1,463.38	82.3603	1,463.38	84.2636	1,463.38	82.0353	1,463.38	82.4419	1,463.38	81.6086	1,463.38	80.1567	1,463.38	77.0322	1,463.38	77.5594	1,463.38	74.929	1,463.38	77.27	1,463.38	75.2106	1,463.38	75.4622	1,463.38	73.6926	1,463.38	73.8382	1,463.38	72.5786	1,463.38	75.1149	1,463.38	61.7796	1,463.38	69.3815	1,463.38	69.6235	1,463.38	66.8726	1,463.38	70.3127	1,463.38	60.4509	1,463.38	73.8092	1,463.38	71.9782	1,463.38	70.663	1,463.38	71.9926	1,463.38	67.0556	1,463.38	75.5223	1,463.38	66.7306	1,463.38	73.2111	1,463.38	69.6208
1,516.11	81.9932	1,516.11	81.7938	1,516.11	82.7661	1,516.11	81.595	1,516.11	83.539	1,516.11	82.1516	1,516.11	83.4172	1,516.11	81.1052	1,516.11	82.5986	1,516.11	78.3836	1,516.11	80.5671	1,516.11	76.1024	1,516.11	78.3558	1,516.11	74.9284	1,516.11	74.9634	1,516.11	75.0102	1,516.11	73.7106	1,516.11	74.0471	1,516.11	75.0361	1,516.11	73.8678	1,516.11	72.6024	1,516.11	71.0132	1,516.11	70.6986	1,516.11	69.2245	1,516.11	65.5355	1,516.11	62.2108	1,516.11	69.5931	1,516.11	70.6476	1,516.11	71.7995	1,516.11	70.8507	1,516.11	62.2976	1,516.11	69.0305	1,516.11	70.1329	1,516.11	66.0604	1,516.11	72.1082	1,516.11	70.6897
1,568.85	81.6282	1,568.85	79.7899	1,568.85	83.2038	1,568.85	79.742	1,568.85	83.6504	1,568.85	81.6158	1,568.85	82.9084	1,568.85	81.3968	1,568.85	82.3066	1,568.85	77.4621	1,568.85	79.9729	1,568.85	76.8343	1,568.85	77.1005	1,568.85	76.8252	1,568.85	73.0405	1,568.85	73.2276	1,568.85	70.825	1,568.85	71.3039	1,568.85	70.8978	1,568.85	66.1448	1,568.85	68.0762	1,568.85	73.9513	1,568.85	70.353	1,568.85	71.7233	1,568.85	66.7326	1,568.85	61.7249	1,568.85	71.5449	1,568.85	71.4564	1,568.85	63.0506	1,568.85	71.235	1,568.85	67.8855	1,568.85	52.7732	1,568.85	70.3071	1,568.85	61.1113	1,568.85	71.5612	1,568.85	64.9956
1,624.51	81.7786	1,624.51	79.7694	1,624.51	82.3843	1,624.51	79.2521	1,624.51	83.652	1,624.51	79.8818	1,624.51	82.8733	1,624.51	79.8506	1,624.51	81.3654	1,624.51	77.7136	1,624.51	78.3497	1,624.51	77.4642	1,624.51	74.2564	1,624.51	75.9602	1,624.51	72.972	1,624.51	71.7177	1,624.51	74.7764	1,624.51	73.9678	1,624.51	70.6518	1,624.51	70.048	1,624.51	69.5642	1,624.51	67.3172	1,624.51	69.3468	1,624.51	73.345	1,624.51	59.8493	1,624.51	71.6802	1,624.51	71.3625	1,624.51	69.329	1,624.51	60.5325	1,624.51	72.0686	1,624.51	71.1269	1,624.51	62.8829	1,624.51	67.7206	1,624.51	52.1452	1,624.51	69.5197	1,624.51	68.0767
1,681.64	82.2306	1,681.64	80.6101	1,681.64	83.6752	1,681.64	78.6557	1,681.64	83.6454	1,681.64	80.4648	1,681.64	83.309	1,681.64	79.96	1,681.64	80.5715	1,681.64	76.9086	1,681.64	77.1199	1,681.64	77.2199	1,681.64	72.8344	1,681.64	77.1142	1,681.64	68.9376	1,681.64	75.1198	1,681.64	72.0122	1,681.64	70.5087	1,681.64	73.7734	1,681.64	71.5881	1,681.64	68.5647	1,681.64	70.5257	1,681.64	63.9756	1,681.64	71.8835	1,681.64	65.4221	1,681.64	73.2602	1,681.64	71.5905	1,681.64	64.2299	1,681.64	57.6849	1,681.64	70.2208	1,681.64	73.2767	1,681.64	65.8338	1,681.64	66.4778	1,681.64	48.4499	1,681.64	69.115	1,681.64	66.3643
1,741.7	82.2744	1,741.7	80.0588	1,741.7	84.2154	1,741.7	79.2741	1,741.7	84.575	1,741.7	78.147	1,741.7	83.4332	1,741.7	78.7619	1,741.7	79.3028	1,741.7	79.5346	1,741.7	75.9856	1,741.7	77.5521	1,741.7	72.1545	1,741.7	77.5358	1,741.7	72.4754	1,741.7	75.3534	1,741.7	68.1386	1,741.7	70.0369	1,741.7	72.2112	1,741.7	70.1212	1,741.7	66.8798	1,741.7	60.4545	1,741.7	65.1143	1,741.7	64.2623	1,741.7	67.4475	1,741.7	69.8732	1,741.7	66.4184	1,741.7	56.4594	1,741.7	69.6507	1,741.7	66.9478	1,741.7	65.0682	1,741.7	63.2101	1,741.7	69.0605	1,741.7	62.6696	1,741.7	72.9436	1,741.7	68.0362
1,803.22	81.5821	1,803.22	79.4732	1,803.22	83.0944	1,803.22	78.7947	1,803.22	84.7264	1,803.22	77.3379	1,803.22	83.586	1,803.22	78.6497	1,803.22	78.6478	1,803.22	78.9327	1,803.22	75.1343	1,803.22	78.2032	1,803.22	72.9471	1,803.22	74.0915	1,803.22	73.9528	1,803.22	71.1603	1,803.22	70.3994	1,803.22	69.9016	1,803.22	67.3026	1,803.22	66.1093	1,803.22	73.1145	1,803.22	64.3924	1,803.22	63.1645	1,803.22	63.2139	1,803.22	68.0352	1,803.22	70.6181	1,803.22	53.7199	1,803.22	65.5767	1,803.22	71.0498	1,803.22	70.2415	1,803.22	60.8751	1,803.22	68.6239	1,803.22	67.4294	1,803.22	48.7678	1,803.22	70.6626	1,803.22	69.474
1,866.21	80.8996	1,866.21	77.8347	1,866.21	82.9692	1,866.21	77.0609	1,866.21	83.9568	1,866.21	77.9666	1,866.21	82.5088	1,866.21	77.667	1,866.21	77.4162	1,866.21	78.3958	1,866.21	72.6764	1,866.21	77.425	1,866.21	73.2628	1,866.21	74.5663	1,866.21	72.3835	1,866.21	70.0588	1,866.21	70.2725	1,866.21	73.0348	1,866.21	71.5016	1,866.21	73.2007	1,866.21	75.3797	1,866.21	68.7911	1,866.21	64.9593	1,866.21	56.0288	1,866.21	62.6534	1,866.21	69.5078	1,866.21	63.932	1,866.21	70.7549	1,866.21	65.601	1,866.21	69.1615	1,866.21	58.0338	1,866.21	62.8683	1,866.21	60.9844	1,866.21	59.5755	1,866.21	68.2812	1,866.21	68.9343
1,932.13	81.3413	1,932.13	77.8929	1,932.13	82.4121	1,932.13	75.2226	1,932.13	81.9372	1,932.13	78.0149	1,932.13	81.5593	1,932.13	76.2106	1,932.13	76.127	1,932.13	79.5799	1,932.13	72.6133	1,932.13	76.7957	1,932.13	70.6361	1,932.13	74.4457	1,932.13	70.9135	1,932.13	74.7216	1,932.13	74.5857	1,932.13	66.6031	1,932.13	76.3844	1,932.13	69.9056	1,932.13	71.8461	1,932.13	69.6243	1,932.13	65.7968	1,932.13	66.7944	1,932.13	60.3717	1,932.13	71.1103	1,932.13	59.3203	1,932.13	71.2252	1,932.13	64.2986	1,932.13	66.3156	1,932.13	59.0177	1,932.13	65.1585	1,932.13	62.3589	1,932.13	50.8535	1,932.13	61.4446	1,932.13	68.8772
1,999.51	82.5928	1,999.51	78.5646	1,999.51	84.3438	1,999.51	73.596	1,999.51	80.5415	1,999.51	78.9133	1,999.51	78.3893	1,999.51	78.2873	1,999.51	77.6478	1,999.51	80.1334	1,999.51	76.1658	1,999.51	77.1434	1,999.51	74.625	1,999.51	76.9407	1,999.51	72.0927	1,999.51	72.8664	1,999.51	71.0446	1,999.51	72.4768	1,999.51	74.4789	1,999.51	72.8553	1,999.51	72.7078	1,999.51	70.4041	1,999.51	67.0668	1,999.51	73.5545	1,999.51	61.556	1,999.51	63.2121	1,999.51	53.9826	1,999.51	70.6954	1,999.51	63.0076	1,999.51	65.948	1,999.51	54.4687	1,999.51	64.4402	1,999.51	65.3628	1,999.51	64.0154	1,999.51	68.8923	1,999.51	69.4555
2,069.82	83.1018	2,069.82	76.0642	2,069.82	85.9937	2,069.82	72.9675	2,069.82	83.4119	2,069.82	75.0037	2,069.82	76.8388	2,069.82	78.8075	2,069.82	76.9071	2,069.82	78.5044	2,069.82	76.3946	2,069.82	77.6609	2,069.82	76.2906	2,069.82	78.7221	2,069.82	75.2677	2,069.82	69.013	2,069.82	69.8693	2,069.82	70.3763	2,069.82	71.5377	2,069.82	70.2161	2,069.82	72.8258	2,069.82	66.3434	2,069.82	72.2434	2,069.82	71.1422	2,069.82	65.9207	2,069.82	65.356	2,069.82	67.6308	2,069.82	65.2642	2,069.82	67.5583	2,069.82	65.354	2,069.82	68.0001	2,069.82	59.4682	2,069.82	65.0627	2,069.82	65.4896	2,069.82	65.7436	2,069.82	68.2213
2,143.07	82.8856	2,143.07	79.61	2,143.07	85.4923	2,143.07	71.2836	2,143.07	82.6199	2,143.07	72.4507	2,143.07	76.6147	2,143.07	78.6484	2,143.07	74.0326	2,143.07	77.907	2,143.07	75.6087	2,143.07	76.8003	2,143.07	77.1456	2,143.07	75.1077	2,143.07	72.8642	2,143.07	74.8622	2,143.07	71.83	2,143.07	72.2878	2,143.07	69.4937	2,143.07	64.7857	2,143.07	70.1793	2,143.07	60.9604	2,143.07	74.0171	2,143.07	65.5495	2,143.07	61.5403	2,143.07	71.2274	2,143.07	63.7324	2,143.07	67.5068	2,143.07	64.2607	2,143.07	64.9055	2,143.07	63.3361	2,143.07	68.8344	2,143.07	68.7421	2,143.07	65.7401	2,143.07	66.9682	2,143.07	63.2766
2,219.24	82.7917	2,219.24	78.8741	2,219.24	83.3711	2,219.24	62.9506	2,219.24	83.0996	2,219.24	72.8641	2,219.24	76.9158	2,219.24	78.4796	2,219.24	75.6478	2,219.24	78.0863	2,219.24	75.4916	2,219.24	78.8648	2,219.24	77.2682	2,219.24	78.1242	2,219.24	74.4808	2,219.24	73.7452	2,219.24	68.4673	2,219.24	70.118	2,219.24	64.8766	2,219.24	64.4994	2,219.24	73.3524	2,219.24	72.5811	2,219.24	65.3555	2,219.24	50.0454	2,219.24	68.8705	2,219.24	67.6876	2,219.24	64.7909	2,219.24	67.8265	2,219.24	65.4974	2,219.24	68.9951	2,219.24	56.9738	2,219.24	64.0987	2,219.24	66.4925	2,219.24	64.3727	2,219.24	65.5244	2,219.24	64.7764
2,296.88	82.53	2,296.88	76.3317	2,296.88	82.3925	2,296.88	72.6448	2,296.88	79.7881	2,296.88	74.2239	2,296.88	77.1777	2,296.88	77.8969	2,296.88	73.463	2,296.88	79.868	2,296.88	74.6715	2,296.88	78.765	2,296.88	75.3069	2,296.88	75.7081	2,296.88	77.663	2,296.88	70.5701	2,296.88	73.1936	2,296.88	71.1509	2,296.88	69.2931	2,296.88	68.5227	2,296.88	69.1095	2,296.88	68.919	2,296.88	65.3409	2,296.88	70.6673	2,296.88	69.2366	2,296.88	67.6202	2,296.88	61.5315	2,296.88	66.2289	2,296.88	67.4195	2,296.88	65.173	2,296.88	56.8617	2,296.88	60.8973	2,296.88	67.4785	2,296.88	54.5907	2,296.88	62.6035	2,296.88	60.2824
2,378.91	81.9983	2,378.91	77.0778	2,378.91	82.7028	2,378.91	68.0693	2,378.91	78.0118	2,378.91	75.5245	2,378.91	73.4962	2,378.91	78.0912	2,378.91	73.7477	2,378.91	79.3911	2,378.91	76.0222	2,378.91	78.0432	2,378.91	78.2573	2,378.91	73.7088	2,378.91	77.0304	2,378.91	72.85	2,378.91	75.9449	2,378.91	65.2108	2,378.91	70.7228	2,378.91	69.2526	2,378.91	72.5337	2,378.91	72.2723	2,378.91	69.6947	2,378.91	68.7873	2,378.91	63.7265	2,378.91	62.8327	2,378.91	66.1799	2,378.91	67.4253	2,378.91	65.231	2,378.91	58.6921	2,378.91	60.6456	2,378.91	68.4149	2,378.91	64.8827	2,378.91	64.3199	2,378.91	59.4061	2,378.91	65.7696
2,462.4	83.5457	2,462.4	80.1299	2,462.4	83.4774	2,462.4	67.6987	2,462.4	78.7045	2,462.4	74.7192	2,462.4	73.0791	2,462.4	77.6429	2,462.4	71.607	2,462.4	78.1056	2,462.4	76.7918	2,462.4	76.8359	2,462.4	78.5224	2,462.4	77.0457	2,462.4	77.0923	2,462.4	71.7162	2,462.4	72.7952	2,462.4	68.5292	2,462.4	69.6382	2,462.4	67.4818	2,462.4	71.4209	2,462.4	64.1048	2,462.4	68.424	2,462.4	63.9344	2,462.4	63.0007	2,462.4	59.7539	2,462.4	65.1662	2,462.4	64.7053	2,462.4	63.0953	2,462.4	64.3948	2,462.4	62.3097	2,462.4	44.3877	2,462.4	65.1517	2,462.4	62.2847	2,462.4	63.236	2,462.4	64.693
2,548.83	82.7976	2,548.83	80.0313	2,548.83	83.208	2,548.83	59.3213	2,548.83	80.369	2,548.83	74.0304	2,548.83	73.34	2,548.83	78.9771	2,548.83	71.1121	2,548.83	77.861	2,548.83	76.2255	2,548.83	77.4965	2,548.83	77.9613	2,548.83	75.0559	2,548.83	75.3249	2,548.83	72.9879	2,548.83	74.691	2,548.83	71.7125	2,548.83	72.2623	2,548.83	64.1014	2,548.83	73.1168	2,548.83	63.0798	2,548.83	67.0242	2,548.83	63.069	2,548.83	62.3227	2,548.83	57.3844	2,548.83	67.072	2,548.83	62.1908	2,548.83	65.1942	2,548.83	62.8362	2,548.83	52.96	2,548.83	56.248	2,548.83	64.1521	2,548.83	60.1703	2,548.83	62.0459	2,548.83	65.3988
2,639.65	82.1171	2,639.65	78.9179	2,639.65	82.2708	2,639.65	59.1388	2,639.65	80.671	2,639.65	74.7518	2,639.65	72.5043	2,639.65	80.1383	2,639.65	75.0769	2,639.65	78.6185	2,639.65	78.1287	2,639.65	77.3808	2,639.65	78.7906	2,639.65	72.2883	2,639.65	76.4299	2,639.65	69.572	2,639.65	73.7108	2,639.65	64.3327	2,639.65	71.6499	2,639.65	62.6667	2,639.65	73.3262	2,639.65	63.1031	2,639.65	61.8956	2,639.65	60.428	2,639.65	67.0785	2,639.65	59.4614	2,639.65	64.7334	2,639.65	63.2553	2,639.65	66.5862	2,639.65	62.3258	2,639.65	59.0527	2,639.65	54.6399	2,639.65	61.6878	2,639.65	60.3855	2,639.65	62.3719	2,639.65	61.0671
2,731.93	82.1172	2,731.93	77.8885	2,731.93	80.9597	2,731.93	62.2505	2,731.93	78.1342	2,731.93	76.368	2,731.93	69.4179	2,731.93	79.0747	2,731.93	74.2465	2,731.93	78.5392	2,731.93	77.4874	2,731.93	75.1045	2,731.93	78.0609	2,731.93	73.3425	2,731.93	75.3125	2,731.93	69.4722	2,731.93	73.8103	2,731.93	65.2437	2,731.93	72.2568	2,731.93	65.5785	2,731.93	71.5213	2,731.93	58.6433	2,731.93	61.9914	2,731.93	58.3778	2,731.93	66.1559	2,731.93	58.5368	2,731.93	64.5585	2,731.93	61.7114	2,731.93	63.9639	2,731.93	59.6056	2,731.93	56.8579	2,731.93	57.557	2,731.93	59.7394	2,731.93	57.8696	2,731.93	61.191	2,731.93	61.998
2,828.61	81.8957	2,828.61	78.7957	2,828.61	81.7628	2,828.61	55.8009	2,828.61	76.6698	2,828.61	77.3214	2,828.61	69.3886	2,828.61	78.9976	2,828.61	74.2468	2,828.61	78.7613	2,828.61	77.6528	2,828.61	74.6998	2,828.61	76.0761	2,828.61	72.7416	2,828.61	75.0176	2,828.61	70.4573	2,828.61	74.6425	2,828.61	67.8067	2,828.61	73.5878	2,828.61	63.9068	2,828.61	65.6445	2,828.61	60.543	2,828.61	60.1734	2,828.61	54.7225	2,828.61	67.0786	2,828.61	54.3995	2,828.61	64.6246	2,828.61	57.951	2,828.61	56.4875	2,828.61	60.9651	2,828.61	57.6853	2,828.61	57.9867	2,828.61	61.0647	2,828.61	53.8534	2,828.61	60.0796	2,828.61	58.245
2,928.22	82.6796	2,928.22	79.3152	2,928.22	82.0878	2,928.22	64.0107	2,928.22	78.183	2,928.22	78.8582	2,928.22	70.3251	2,928.22	79.5592	2,928.22	74.9331	2,928.22	77.8701	2,928.22	78.8293	2,928.22	75.2587	2,928.22	77.518	2,928.22	72.5099	2,928.22	75.0848	2,928.22	69.2732	2,928.22	73.975	2,928.22	65.7986	2,928.22	69.8741	2,928.22	63.3597	2,928.22	51.3926	2,928.22	60.4239	2,928.22	61.9068	2,928.22	60.0049	2,928.22	66.447	2,928.22	52.9744	2,928.22	60.2273	2,928.22	56.978	2,928.22	58.9274	2,928.22	60.5114	2,928.22	58.9371	2,928.22	57.6261	2,928.22	58.7802	2,928.22	57.0663	2,928.22	58.519	2,928.22	55.8825
3,030.76	83.0554	3,030.76	77.3345	3,030.76	82.6643	3,030.76	70.9903	3,030.76	79.0181	3,030.76	79.3694	3,030.76	67.4467	3,030.76	80.3093	3,030.76	74.3478	3,030.76	76.7809	3,030.76	79.3204	3,030.76	75.3792	3,030.76	78.7594	3,030.76	69.532	3,030.76	76.4186	3,030.76	68.1333	3,030.76	74.2017	3,030.76	67.1942	3,030.76	63.6572	3,030.76	65.1926	3,030.76	58.1028	3,030.76	59.6725	3,030.76	65.3708	3,030.76	57.1294	3,030.76	58.9196	3,030.76	51.7415	3,030.76	64.9249	3,030.76	55.8723	3,030.76	59.12	3,030.76	60	3,030.76	58.2753	3,030.76	58.062	3,030.76	58.1603	3,030.76	57.4676	3,030.76	56.5392	3,030.76	54.2538
3,137.7	82.9425	3,137.7	75.9412	3,137.7	82.7586	3,137.7	73.5789	3,137.7	79.1677	3,137.7	80.6672	3,137.7	66.424	3,137.7	80.8589	3,137.7	75.5853	3,137.7	77.1442	3,137.7	79.4923	3,137.7	74.1883	3,137.7	78.1003	3,137.7	69.79	3,137.7	76.4477	3,137.7	69.343	3,137.7	73.9569	3,137.7	65.9962	3,137.7	59.9795	3,137.7	61.2201	3,137.7	63.2826	3,137.7	58.9585	3,137.7	61.8425	3,137.7	59.3954	3,137.7	67.1249	3,137.7	53.1028	3,137.7	64.8798	3,137.7	50.1021	3,137.7	60.2327	3,137.7	54.9233	3,137.7	52.1465	3,137.7	58.345	3,137.7	59.3917	3,137.7	57.8713	3,137.7	54.8623	3,137.7	45.0864
3,249.02	83.2155	3,249.02	74.6434	3,249.02	83.1683	3,249.02	74.9389	3,249.02	78.6685	3,249.02	81.5864	3,249.02	68.5274	3,249.02	80.683	3,249.02	73.5375	3,249.02	77.4143	3,249.02	78.9754	3,249.02	71.7311	3,249.02	78.303	3,249.02	71.616	3,249.02	78.5968	3,249.02	63.9195	3,249.02	73.1095	3,249.02	66.1593	3,249.02	64.0262	3,249.02	63.0247	3,249.02	67.3675	3,249.02	61.0442	3,249.02	66.2828	3,249.02	58.6306	3,249.02	66.654	3,249.02	54.9469	3,249.02	66.1703	3,249.02	41.6448	3,249.02	60.0204	3,249.02	56.0821	3,249.02	53.8297	3,249.02	56.0596	3,249.02	56.8824	3,249.02	51.7725	3,249.02	44.7443	3,249.02	47.0275
3,363.28	82.6974	3,363.28	75.0159	3,363.28	83.7451	3,363.28	75.4929	3,363.28	77.9712	3,363.28	81.1978	3,363.28	71.6101	3,363.28	80.0372	3,363.28	72.7705	3,363.28	75.2742	3,363.28	77.5441	3,363.28	72.8416	3,363.28	77.8222	3,363.28	70.3271	3,363.28	80.0793	3,363.28	71.418	3,363.28	74.1311	3,363.28	69.9452	3,363.28	72.7425	3,363.28	65.9925	3,363.28	72.0479	3,363.28	62.4981	3,363.28	67.044	3,363.28	58.4964	3,363.28	65.0278	3,363.28	57.0925	3,363.28	65.5523	3,363.28	49.4593	3,363.28	60.4517	3,363.28	54.0402	3,363.28	53.4806	3,363.28	57.8376	3,363.28	58.4505	3,363.28	43.9019	3,363.28	35.9225	3,363.28	52.6106
3,481.93	82.4784	3,481.93	73.6139	3,481.93	83.8974	3,481.93	79.0789	3,481.93	79.3345	3,481.93	82.1511	3,481.93	74.7702	3,481.93	80.6153	3,481.93	74.3742	3,481.93	76.0353	3,481.93	76.5286	3,481.93	74.1817	3,481.93	76.8367	3,481.93	73.3308	3,481.93	80.7842	3,481.93	72.3061	3,481.93	74.4022	3,481.93	65.877	3,481.93	75.9289	3,481.93	67.8204	3,481.93	69.7716	3,481.93	64.2445	3,481.93	55.2454	3,481.93	61.0855	3,481.93	58.5042	3,481.93	59.9274	3,481.93	65.8665	3,481.93	54.5742	3,481.93	59.0039	3,481.93	57.1301	3,481.93	50.2359	3,481.93	55.4035	3,481.93	58.07	3,481.93	52.2816	3,481.93	50.0208	3,481.93	51.679
3,604.98	82.763	3,604.98	74.3227	3,604.98	83.6752	3,604.98	80.5915	3,604.98	79.2594	3,604.98	82.3745	3,604.98	76.8425	3,604.98	79.9357	3,604.98	77.8515	3,604.98	75.518	3,604.98	75.1168	3,604.98	75.9806	3,604.98	79.433	3,604.98	74.1465	3,604.98	79.5234	3,604.98	69.8243	3,604.98	75.2358	3,604.98	70.6536	3,604.98	77.6163	3,604.98	66.7688	3,604.98	71.5884	3,604.98	61.2944	3,604.98	45.396	3,604.98	59.6743	3,604.98	60.5228	3,604.98	59.5292	3,604.98	64.3811	3,604.98	53.7177	3,604.98	60.4237	3,604.98	55.4599	3,604.98	49.5041	3,604.98	55.2196	3,604.98	52.1965	3,604.98	55.4499	3,604.98	58.3456	3,604.98	51.3
3,732.42	82.7884	3,732.42	77.1432	3,732.42	84.748	3,732.42	79.9872	3,732.42	79.3514	3,732.42	82.577	3,732.42	78.2629	3,732.42	79.5864	3,732.42	79.4838	3,732.42	76.6347	3,732.42	74.5207	3,732.42	73.9034	3,732.42	78.2299	3,732.42	74.6548	3,732.42	79.4783	3,732.42	73.1545	3,732.42	74.9083	3,732.42	68.5378	3,732.42	76.3273	3,732.42	62.9593	3,732.42	70.2857	3,732.42	64.5057	3,732.42	62.7427	3,732.42	61.6568	3,732.42	64.1944	3,732.42	50.7952	3,732.42	60.649	3,732.42	54.7895	3,732.42	57.7381	3,732.42	54.2891	3,732.42	47.6976	3,732.42	56.1678	3,732.42	55.4254	3,732.42	52.0421	3,732.42	58.78	3,732.42	47.5386
3,864.26	80.8571	3,864.26	76.667	3,864.26	83.5686	3,864.26	80.1423	3,864.26	80.6039	3,864.26	81.6954	3,864.26	79.2905	3,864.26	78.6802	3,864.26	80.4237	3,864.26	75.9672	3,864.26	73.4184	3,864.26	76.5377	3,864.26	78.7374	3,864.26	74.3528	3,864.26	77.0896	3,864.26	70.35	3,864.26	74.5653	3,864.26	65.3982	3,864.26	72.8028	3,864.26	63.0042	3,864.26	62.1881	3,864.26	64.6637	3,864.26	65.1806	3,864.26	55.5225	3,864.26	63.9391	3,864.26	57.4703	3,864.26	57.3788	3,864.26	58.1885	3,864.26	53.3792	3,864.26	54.9745	3,864.26	55.3075	3,864.26	55.5519	3,864.26	58.0043	3,864.26	41.4322	3,864.26	53.8811	3,864.26	52.4308
4,000.49	81.382	4,000.49	76.3641	4,000.49	81.6332	4,000.49	80.6256	4,000.49	77.967	4,000.49	81.0626	4,000.49	79.5041	4,000.49	78.5884	4,000.49	79.2924	4,000.49	76.9096	4,000.49	74.528	4,000.49	77.1579	4,000.49	77.3181	4,000.49	72.3846	4,000.49	74.6466	4,000.49	71.4948	4,000.49	75.45	4,000.49	67.6955	4,000.49	72.0012	4,000.49	67.518	4,000.49	62.5558	4,000.49	63.2229	4,000.49	63.8879	4,000.49	57.8939	4,000.49	62.1095	4,000.49	61.4408	4,000.49	60.3891	4,000.49	52.5208	4,000.49	46.2303	4,000.49	52.9478	4,000.49	57.6078	4,000.49	49.9827	4,000.49	61.0143	4,000.49	50.5017	4,000.49	48.17	4,000.49	53.7816
4,141.11	81.566	4,141.11	78.2081	4,141.11	82.6073	4,141.11	80.9425	4,141.11	76.4109	4,141.11	80.6413	4,141.11	80.4247	4,141.11	78.2599	4,141.11	80.2959	4,141.11	77.3049	4,141.11	76.4418	4,141.11	73.5063	4,141.11	77.0632	4,141.11	72.7553	4,141.11	73.76	4,141.11	69.7082	4,141.11	73.9648	4,141.11	60.7149	4,141.11	73.956	4,141.11	66.113	4,141.11	62.1984	4,141.11	54.4402	4,141.11	60.7916	4,141.11	62.3271	4,141.11	55.0047	4,141.11	58.0166	4,141.11	58.5191	4,141.11	45.3485	4,141.11	53.981	4,141.11	44.2458	4,141.11	58.8379	4,141.11	50.2871	4,141.11	56.4864	4,141.11	58.5749	4,141.11	57.9214	4,141.11	43.03
4,287.6	80.1466	4,287.6	78.7457	4,287.6	81.6418	4,287.6	81.0267	4,287.6	77.9535	4,287.6	79.2145	4,287.6	79.4011	4,287.6	78.8248	4,287.6	80.8267	4,287.6	76.7651	4,287.6	77.2387	4,287.6	73.9716	4,287.6	77.9803	4,287.6	70.5591	4,287.6	75.0344	4,287.6	68.5317	4,287.6	73.7543	4,287.6	71.1777	4,287.6	72.3817	4,287.6	60.3974	4,287.6	59.0401	4,287.6	66.5062	4,287.6	60.3677	4,287.6	61.7588	4,287.6	55.8389	4,287.6	55.3969	4,287.6	55.3946	4,287.6	55.3369	4,287.6	54.9745	4,287.6	52.1493	4,287.6	55.1108	4,287.6	48.675	4,287.6	51.2375	4,287.6	54.3721	4,287.6	57.6888	4,287.6	54.977
4,438.48	81.3856	4,438.48	76.7338	4,438.48	81.3079	4,438.48	80.6357	4,438.48	78.3875	4,438.48	80.8575	4,438.48	78.7736	4,438.48	79.9665	4,438.48	80.2488	4,438.48	74.7483	4,438.48	78.4496	4,438.48	74.9862	4,438.48	78.0996	4,438.48	72.3416	4,438.48	78.2132	4,438.48	71.8625	4,438.48	74.0511	4,438.48	60.3495	4,438.48	67.5434	4,438.48	64.6847	4,438.48	65.1537	4,438.48	62.3803	4,438.48	55.5673	4,438.48	60.4186	4,438.48	61.7671	4,438.48	59.0875	4,438.48	55.9108	4,438.48	56.3631	4,438.48	55.7252	4,438.48	47.021	4,438.48	48.8444	4,438.48	52.4268	4,438.48	55.6678	4,438.48	49.4804	4,438.48	55.5831	4,438.48	57.1612
4,595.21	80.532	4,595.21	78.9977	4,595.21	80.549	4,595.21	80.3437	4,595.21	77.7234	4,595.21	79.0553	4,595.21	78.9937	4,595.21	77.7557	4,595.21	78.8109	4,595.21	75.9724	4,595.21	77.3627	4,595.21	74.1393	4,595.21	77.0176	4,595.21	71.0917	4,595.21	77.4268	4,595.21	68.7815	4,595.21	72.3881	4,595.21	70.6882	4,595.21	64.2718	4,595.21	67.1923	4,595.21	66.696	4,595.21	61.5377	4,595.21	58.8677	4,595.21	60.0609	4,595.21	59.5637	4,595.21	58.5716	4,595.21	56.8825	4,595.21	55.0901	4,595.21	56.7663	4,595.21	39.9783	4,595.21	54.7386	4,595.21	51.0453	4,595.21	55.9884	4,595.21	50.6497	4,595.21	52.9994	4,595.21	54.6997
4,756.35	79.6651	4,756.35	78.0423	4,756.35	79.8825	4,756.35	79.8993	4,756.35	76.7751	4,756.35	80.3345	4,756.35	78.7701	4,756.35	77.9547	4,756.35	77.8708	4,756.35	75.9053	4,756.35	74.8285	4,756.35	74.1583	4,756.35	75.9025	4,756.35	73.4291	4,756.35	74.3559	4,756.35	70.3097	4,756.35	70.8193	4,756.35	65.0947	4,756.35	67.8515	4,756.35	64.0561	4,756.35	57.5829	4,756.35	62.1135	4,756.35	54.1781	4,756.35	59.5176	4,756.35	59.9827	4,756.35	59.8884	4,756.35	54.4518	4,756.35	53.5434	4,756.35	55.7089	4,756.35	50.6089	4,756.35	56.5734	4,756.35	49.285	4,756.35	57.4225	4,756.35	52.5368	4,756.35	50.7117	4,756.35	57.05
4,924.8	79.8952	4,924.8	78.4445	4,924.8	80.8937	4,924.8	79.7254	4,924.8	77.8515	4,924.8	79.3929	4,924.8	77.9253	4,924.8	76.9688	4,924.8	78.9714	4,924.8	75.868	4,924.8	73.8343	4,924.8	75.0322	4,924.8	74.6707	4,924.8	71.5879	4,924.8	72.8592	4,924.8	69.9067	4,924.8	67.9994	4,924.8	68.7709	4,924.8	64.4084	4,924.8	62.9956	4,924.8	64.2141	4,924.8	60.8252	4,924.8	55.9162	4,924.8	59.6878	4,924.8	58.2341	4,924.8	58.5763	4,924.8	60.6667	4,924.8	52.7024	4,924.8	54.2082	4,924.8	36.4878	4,924.8	57.528	4,924.8	54.1687	4,924.8	54.1565	4,924.8	56.2751	4,924.8	55.2675	4,924.8	54
5,097.66	81.1317	5,097.66	80.642	5,097.66	81.9684	5,097.66	81.615	5,097.66	81.2749	5,097.66	79.7971	5,097.66	80.2405	5,097.66	78.1218	5,097.66	80.2475	5,097.66	77.1519	5,097.66	76.8691	5,097.66	73.9683	5,097.66	72.8089	5,097.66	72.8109	5,097.66	69.2963	5,097.66	69.6181	5,097.66	66.2614	5,097.66	64.4495	5,097.66	63.6188	5,097.66	64.8766	5,097.66	66.7616	5,097.66	60.4444	5,097.66	56.1095	5,097.66	59.262	5,097.66	57.1131	5,097.66	57.9511	5,097.66	60.4899	5,097.66	51.9448	5,097.66	48.1538	5,097.66	47.2235	5,097.66	54.8	5,097.66	47.8156	5,097.66	58.3959	5,097.66	43.8524	5,097.66	55.2976	5,097.66	56.303
5,277.83	82.1677	5,277.83	81.4462	5,277.83	81.7283	5,277.83	82.1084	5,277.83	82.5255	5,277.83	80.5511	5,277.83	82.7848	5,277.83	79.5197	5,277.83	80.7802	5,277.83	76.2553	5,277.83	77.9991	5,277.83	76.0474	5,277.83	67.6859	5,277.83	73.1619	5,277.83	71.3936	5,277.83	70.419	5,277.83	70.1968	5,277.83	68.3394	5,277.83	66.9826	5,277.83	65.2366	5,277.83	67.3679	5,277.83	62.2604	5,277.83	63.9071	5,277.83	60.3251	5,277.83	57.6283	5,277.83	57.2347	5,277.83	58.854	5,277.83	49.4202	5,277.83	40.9161	5,277.83	52.6296	5,277.83	48.5783	5,277.83	50.945	5,277.83	62.0763	5,277.83	57.0713	5,277.83	55.0354	5,277.83	56.1693
5,463.87	82.9343	5,463.87	81.6624	5,463.87	81.8895	5,463.87	82.8629	5,463.87	82.1363	5,463.87	80.1675	5,463.87	83.214	5,463.87	79.5812	5,463.87	81.7917	5,463.87	77.1404	5,463.87	77.6548	5,463.87	75.3654	5,463.87	66.9052	5,463.87	73.6639	5,463.87	71.4976	5,463.87	67.3513	5,463.87	71.5659	5,463.87	65.932	5,463.87	67.0082	5,463.87	59.9647	5,463.87	61.8403	5,463.87	57.4855	5,463.87	62.252	5,463.87	59.506	5,463.87	39.5421	5,463.87	47.5514	5,463.87	57.6893	5,463.87	51.1787	5,463.87	51.3702	5,463.87	48.9814	5,463.87	47.6337	5,463.87	45.8611	5,463.87	53.9501	5,463.87	56.568	5,463.87	54.0989	5,463.87	56.6343
5,657.23	82.9654	5,657.23	81.8695	5,657.23	82.8973	5,657.23	82.3277	5,657.23	81.3855	5,657.23	80.891	5,657.23	81.1079	5,657.23	79.7041	5,657.23	82.4363	5,657.23	77.1643	5,657.23	77.4907	5,657.23	75.1464	5,657.23	66.1224	5,657.23	70.6589	5,657.23	71.459	5,657.23	66.358	5,657.23	71.7524	5,657.23	61.7665	5,657.23	66.1583	5,657.23	59.0243	5,657.23	41.323	5,657.23	57.3847	5,657.23	57.9246	5,657.23	53.6169	5,657.23	52.1541	5,657.23	54.2902	5,657.23	54.4663	5,657.23	51.8391	5,657.23	46.9665	5,657.23	47.6439	5,657.23	48.0223	5,657.23	51.6986	5,657.23	48.5508	5,657.23	54.6674	5,657.23	54.8243	5,657.23	55.0494
5,856.45	81.8846	5,856.45	82.4222	5,856.45	82.245	5,856.45	82.2834	5,856.45	80.6431	5,856.45	80.6318	5,856.45	80.2631	5,856.45	78.6816	5,856.45	81.3736	5,856.45	77.5216	5,856.45	76.7417	5,856.45	73.3064	5,856.45	69.1986	5,856.45	70.209	5,856.45	72.5679	5,856.45	66.8266	5,856.45	70.6807	5,856.45	65.8092	5,856.45	66.392	5,856.45	62.7439	5,856.45	58.8667	5,856.45	56.3221	5,856.45	56.7804	5,856.45	54.6659	5,856.45	41.7576	5,856.45	54.4308	5,856.45	50.4376	5,856.45	49.7419	5,856.45	30.2427	5,856.45	48.0547	5,856.45	45.4249	5,856.45	45.4119	5,856.45	54.9511	5,856.45	55.4993	5,856.45	52.2675	5,856.45	50.9134
6,062.99	82.206	6,062.99	82.7254	6,062.99	83.5067	6,062.99	81.9244	6,062.99	81.6036	6,062.99	81.033	6,062.99	80.3308	6,062.99	78.6871	6,062.99	79.5085	6,062.99	76.635	6,062.99	74.6911	6,062.99	73.1003	6,062.99	70.321	6,062.99	69.9286	6,062.99	73.683	6,062.99	64.99	6,062.99	68.7907	6,062.99	59.4786	6,062.99	60.4416	6,062.99	58.7569	6,062.99	43.2189	6,062.99	47.3657	6,062.99	60.3	6,062.99	51.9505	6,062.99	50.5344	6,062.99	53.0364	6,062.99	54.9476	6,062.99	47.0295	6,062.99	41.9367	6,062.99	44.104	6,062.99	49.3327	6,062.99	48.8361	6,062.99	58.8127	6,062.99	55.2617	6,062.99	53.7725	6,062.99	52.5119
6,276.86	82.1154	6,276.86	82.3573	6,276.86	82.9117	6,276.86	81.613	6,276.86	82.1634	6,276.86	80.7513	6,276.86	80.6973	6,276.86	78.6906	6,276.86	78.7838	6,276.86	75.1419	6,276.86	72.8026	6,276.86	72.2828	6,276.86	71.4859	6,276.86	65.7541	6,276.86	74.4137	6,276.86	63.0498	6,276.86	67.5241	6,276.86	55.6294	6,276.86	63.0967	6,276.86	55.772	6,276.86	52.5706	6,276.86	45.9286	6,276.86	53.3508	6,276.86	52.5796	6,276.86	44.0069	6,276.86	53.8002	6,276.86	48.8184	6,276.86	44.1982	6,276.86	39.6668	6,276.86	47.7399	6,276.86	45.9142	6,276.86	43.8235	6,276.86	55.8517	6,276.86	53.6027	6,276.86	54.5126	6,276.86	51.2503
6,498.05	82.4907	6,498.05	82.7962	6,498.05	82.1377	6,498.05	81.7843	6,498.05	80.6985	6,498.05	80.5053	6,498.05	81.1652	6,498.05	78.1375	6,498.05	74.8028	6,498.05	74.3851	6,498.05	74.6887	6,498.05	69.9137	6,498.05	69.0467	6,498.05	64.6298	6,498.05	71.6362	6,498.05	60.2541	6,498.05	66.3312	6,498.05	61.853	6,498.05	68.1133	6,498.05	56.146	6,498.05	60.1865	6,498.05	57.4661	6,498.05	54.3123	6,498.05	56.1808	6,498.05	23.486	6,498.05	53.1729	6,498.05	55.6085	6,498.05	48.9719	6,498.05	50.499	6,498.05	49.3947	6,498.05	44.03	6,498.05	38.5369	6,498.05	47.8564	6,498.05	57.2999	6,498.05	51.7084	6,498.05	48.5233
6,726.56	82.5225	6,726.56	82.4421	6,726.56	83.0386	6,726.56	81.2103	6,726.56	79.3245	6,726.56	80.7732	6,726.56	81.4719	6,726.56	78.3605	6,726.56	71.7359	6,726.56	73.3297	6,726.56	75.9867	6,726.56	69.6807	6,726.56	66.7649	6,726.56	64.5496	6,726.56	71.4021	6,726.56	61.5983	6,726.56	67.1331	6,726.56	62.4288	6,726.56	69.1865	6,726.56	54.5023	6,726.56	61.1705	6,726.56	56.8743	6,726.56	46.8316	6,726.56	53.9863	6,726.56	31.3969	6,726.56	44.7712	6,726.56	56.3648	6,726.56	52.7272	6,726.56	50.2075	6,726.56	51.5358	6,726.56	46.1946	6,726.56	46.8443	6,726.56	50.9762	6,726.56	54.655	6,726.56	50.8642	6,726.56	47.7526
6,963.87	81.5722	6,963.87	81.2481	6,963.87	82.64	6,963.87	80.4494	6,963.87	81.4958	6,963.87	80.4061	6,963.87	79.9627	6,963.87	77.7794	6,963.87	77.0508	6,963.87	73.326	6,963.87	77.9264	6,963.87	71.489	6,963.87	68.7972	6,963.87	70.6463	6,963.87	70.2845	6,963.87	66.3896	6,963.87	70.2475	6,963.87	64.1355	6,963.87	69.5944	6,963.87	56.2636	6,963.87	54.1191	6,963.87	60.1698	6,963.87	44.3721	6,963.87	55.8167	6,963.87	53.0373	6,963.87	49.3297	6,963.87	44.7825	6,963.87	53.5093	6,963.87	42.5748	6,963.87	50.1366	6,963.87	44.7588	6,963.87	49.4109	6,963.87	56.8142	6,963.87	56.3366	6,963.87	55.6854	6,963.87	47.8724
7,209.96	82.9121	7,209.96	81.9805	7,209.96	82.6696	7,209.96	81.5585	7,209.96	80.7367	7,209.96	79.8945	7,209.96	80.7938	7,209.96	77.6741	7,209.96	81.3272	7,209.96	74.8755	7,209.96	79.3576	7,209.96	73.3171	7,209.96	72.1292	7,209.96	70.6425	7,209.96	69.7891	7,209.96	67.2062	7,209.96	70.55	7,209.96	64.1545	7,209.96	70.2944	7,209.96	60.5749	7,209.96	62.2064	7,209.96	58.5322	7,209.96	53.1366	7,209.96	53.5082	7,209.96	55.5656	7,209.96	53.0639	7,209.96	55.0894	7,209.96	51.9184	7,209.96	43.9492	7,209.96	48.4776	7,209.96	46.715	7,209.96	47.7715	7,209.96	50.8704	7,209.96	47.9488	7,209.96	53.8213	7,209.96	52.5006
7,464.84	84.8578	7,464.84	84.5722	7,464.84	85.3007	7,464.84	82.9174	7,464.84	83.232	7,464.84	81.3841	7,464.84	81.0221	7,464.84	78.0484	7,464.84	81.0334	7,464.84	74.737	7,464.84	76.1797	7,464.84	72.4265	7,464.84	72.2988	7,464.84	68.1917	7,464.84	67.7413	7,464.84	60.0367	7,464.84	65.2489	7,464.84	63.1682	7,464.84	63.0588	7,464.84	44.3946	7,464.84	55.1369	7,464.84	54.4638	7,464.84	48.9532	7,464.84	51.3458	7,464.84	30.7893	7,464.84	42.7659	7,464.84	52.7821	7,464.84	45.4087	7,464.84	46.7636	7,464.84	42.4789	7,464.84	43.1163	7,464.84	48.9898	7,464.84	53.6331	7,464.84	44.8747	7,464.84	49.9807	7,464.84	54.8758
7,727.05	86.3837	7,727.05	86.006	7,727.05	85.727	7,727.05	84.2459	7,727.05	83.7846	7,727.05	81.6168	7,727.05	80.8715	7,727.05	77.3939	7,727.05	78.4492	7,727.05	72.5119	7,727.05	71.8107	7,727.05	67.2645	7,727.05	66.6009	7,727.05	62.4005	7,727.05	53.1397	7,727.05	59.1777	7,727.05	59.2403	7,727.05	42.3223	7,727.05	44.3563	7,727.05	54.6391	7,727.05	43.7262	7,727.05	51.0795	7,727.05	50.742	7,727.05	37.0003	7,727.05	49.2592	7,727.05	42.9438	7,727.05	44.3533	7,727.05	42.5183	7,727.05	50.8014	7,727.05	38.6822	7,727.05	45.7649	7,727.05	50.0705	7,727.05	50.9228	7,727.05	47.7852	7,727.05	53.5254	7,727.05	54.8587
7,999.51	85.9905	7,999.51	85.4059	7,999.51	85.7148	7,999.51	83.6901	7,999.51	83.3852	7,999.51	80.7895	7,999.51	79.637	7,999.51	75.161	7,999.51	75.6072	7,999.51	67.0282	7,999.51	68.1153	7,999.51	57.151	7,999.51	54.5936	7,999.51	52.9658	7,999.51	56.5753	7,999.51	49.4452	7,999.51	54.4637	7,999.51	52.0943	7,999.51	49.7747	7,999.51	53.9795	7,999.51	56.6731	7,999.51	40.0125	7,999.51	45.4662	7,999.51	44.2522	7,999.51	42.3836	7,999.51	39.3235	7,999.51	45.4384	7,999.51	30.1065	7,999.51	51.0977	7,999.51	30.6803	7,999.51	47.4099	7,999.51	45.7177	7,999.51	48.2277	7,999.51	49.1764	7,999.51	54.8368	7,999.51	52.2957
8,282.23	85.5502	8,282.23	85.1563	8,282.23	84.8759	8,282.23	83.1991	8,282.23	82.5927	8,282.23	80.2297	8,282.23	77.8772	8,282.23	72.2279	8,282.23	72.8908	8,282.23	65.5358	8,282.23	68.9924	8,282.23	59.035	8,282.23	66.61	8,282.23	49.5677	8,282.23	51.1938	8,282.23	62.4261	8,282.23	56.1616	8,282.23	61.1754	8,282.23	47.6856	8,282.23	52.4451	8,282.23	55.1931	8,282.23	54.1739	8,282.23	50.4627	8,282.23	47.7398	8,282.23	48.1934	8,282.23	39.5148	8,282.23	46.4373	8,282.23	41.346	8,282.23	49.4278	8,282.23	44.83	8,282.23	48.2436	8,282.23	47.7301	8,282.23	48.5587	8,282.23	37.1292	8,282.23	52.001	8,282.23	52.7583
8,573.73	85.0956	8,573.73	84.355	8,573.73	84.8353	8,573.73	82.35	8,573.73	82.1	8,573.73	78.5689	8,573.73	78.6762	8,573.73	71.1656	8,573.73	74.0052	8,573.73	64.4501	8,573.73	73.0263	8,573.73	63.0387	8,573.73	64.4896	8,573.73	64.1036	8,573.73	50.8451	8,573.73	54.5137	8,573.73	65.2322	8,573.73	53.2716	8,573.73	58.3247	8,573.73	53.3729	8,573.73	57.5231	8,573.73	52.1465	8,573.73	44.3271	8,573.73	52.2988	8,573.73	47.5397	8,573.73	40.2935	8,573.73	40.774	8,573.73	43.7412	8,573.73	45.097	8,573.73	40.3577	8,573.73	40.9416	8,573.73	44.3704	8,573.73	41.8772	8,573.73	46.7671	8,573.73	51.8351	8,573.73	52.182
8,876.95	84.934	8,876.95	83.7088	8,876.95	84.3122	8,876.95	81.2859	8,876.95	81.979	8,876.95	77.0224	8,876.95	79.7341	8,876.95	71.5331	8,876.95	73.1862	8,876.95	68.8283	8,876.95	72.7521	8,876.95	66.16	8,876.95	65.2583	8,876.95	62.0543	8,876.95	59.4207	8,876.95	64.5096	8,876.95	66.7151	8,876.95	59.5285	8,876.95	61.7074	8,876.95	58.2295	8,876.95	49.7168	8,876.95	54.5802	8,876.95	40.0236	8,876.95	46.9273	8,876.95	44.8868	8,876.95	44.7362	8,876.95	40.2354	8,876.95	40.0608	8,876.95	50.45	8,876.95	29.9782	8,876.95	48.7322	8,876.95	26.4889	8,876.95	43.8889	8,876.95	43.7086	8,876.95	51.8923	8,876.95	50.9912
9,188.96	84.0604	9,188.96	83.1237	9,188.96	83.7949	9,188.96	80.1837	9,188.96	80.6865	9,188.96	76.7245	9,188.96	78.7513	9,188.96	74.0122	9,188.96	73.1606	9,188.96	70.1702	9,188.96	71.1246	9,188.96	67.0638	9,188.96	65.6029	9,188.96	63.1986	9,188.96	62.0961	9,188.96	60.4036	9,188.96	60.6776	9,188.96	58.5344	9,188.96	56.9331	9,188.96	52.5559	9,188.96	53.7739	9,188.96	53.6612	9,188.96	45.3713	9,188.96	51.216	9,188.96	39.2845	9,188.96	43.3358	9,188.96	34.211	9,188.96	35.6142	9,188.96	50.0961	9,188.96	29.7148	9,188.96	47.9726	9,188.96	37.2589	9,188.96	41.0052	9,188.96	38.2351	9,188.96	53.0126	9,188.96	48.3872
9,514.16	83.9206	9,514.16	83.0928	9,514.16	83.2734	9,514.16	80.1418	9,514.16	80.8934	9,514.16	77.204	9,514.16	77.7007	9,514.16	74.1789	9,514.16	75.3896	9,514.16	69.7624	9,514.16	69.3055	9,514.16	65.8231	9,514.16	66.4908	9,514.16	63.1101	9,514.16	57.8464	9,514.16	58.5289	9,514.16	58.482	9,514.16	51.8071	9,514.16	55.2992	9,514.16	54.5352	9,514.16	50.6034	9,514.16	49.8248	9,514.16	50.1951	9,514.16	37.3665	9,514.16	41.2405	9,514.16	44.0913	9,514.16	36.3226	9,514.16	37.2351	9,514.16	47.9175	9,514.16	36.5	9,514.16	41.8341	9,514.16	40.0065	9,514.16	40.3693	9,514.16	42.0789	9,514.16	50.4209	9,514.16	45.6457
9,849.61	84.1823	9,849.61	83.3518	9,849.61	83.7144	9,849.61	80.558	9,849.61	81.4086	9,849.61	76.9391	9,849.61	78.3673	9,849.61	71.9732	9,849.61	74.0552	9,849.61	65.8786	9,849.61	64.8406	9,849.61	57.0863	9,849.61	60.9299	9,849.61	49.2113	9,849.61	51.1177	9,849.61	43.9488	9,849.61	40.5221	9,849.61	50.0012	9,849.61	40.5144	9,849.61	48.7406	9,849.61	44.6677	9,849.61	43.3699	9,849.61	46.2345	9,849.61	28.8755	9,849.61	42.5186	9,849.61	30.0917	9,849.61	30.4594	9,849.61	36.0574	9,849.61	45.4391	9,849.61	36.8355	9,849.61	41.8187	9,849.61	38.2682	9,849.61	40.2531	9,849.61	39.6112	9,849.61	49.3666	9,849.61	47.0528
10,196.8	84.8399	10,196.8	83.7564	10,196.8	84.2677	10,196.8	80.1423	10,196.8	81.6181	10,196.8	75.6585	10,196.8	78.6339	10,196.8	70.0533	10,196.8	73.3675	10,196.8	61.9234	10,196.8	57.5045	10,196.8	52.4498	10,196.8	54.3464	10,196.8	57.3344	10,196.8	59.114	10,196.8	57.2344	10,196.8	56.2739	10,196.8	51.6891	10,196.8	47.4606	10,196.8	50.5165	10,196.8	51.3147	10,196.8	41.0593	10,196.8	49.8725	10,196.8	40.3297	10,196.8	41.2241	10,196.8	42.2656	10,196.8	37.0284	10,196.8	37.8212	10,196.8	42.3381	10,196.8	37.7599	10,196.8	41.647	10,196.8	43.2324	10,196.8	43.2542	10,196.8	41.2645	10,196.8	47.9325	10,196.8	46.4359
10,555.7	84.732	10,555.7	83.6934	10,555.7	83.9935	10,555.7	79.9491	10,555.7	81.0041	10,555.7	76.5675	10,555.7	77.0766	10,555.7	70.5821	10,555.7	71.2667	10,555.7	60.0759	10,555.7	60.8215	10,555.7	51.1996	10,555.7	55.4196	10,555.7	53.8145	10,555.7	65.5981	10,555.7	55.6423	10,555.7	59.7803	10,555.7	58.2708	10,555.7	57.4605	10,555.7	56.4752	10,555.7	58.6096	10,555.7	50.4714	10,555.7	43.1077	10,555.7	45.2025	10,555.7	43.5765	10,555.7	41.0407	10,555.7	41.0922	10,555.7	42.8399	10,555.7	39.6545	10,555.7	36.8914	10,555.7	37.5025	10,555.7	42.1696	10,555.7	38.7712	10,555.7	42.0857	10,555.7	48.7736	10,555.7	46.519
10,927.7	84.4262	10,927.7	83.4691	10,927.7	83.2064	10,927.7	79.7111	10,927.7	79.8644	10,927.7	77.3958	10,927.7	74.1141	10,927.7	70.5446	10,927.7	70.7542	10,927.7	62.0492	10,927.7	67.4041	10,927.7	59.3612	10,927.7	62.8322	10,927.7	59.1907	10,927.7	68.427	10,927.7	60.1446	10,927.7	61.6838	10,927.7	54.2492	10,927.7	58.9628	10,927.7	47.3884	10,927.7	55.9786	10,927.7	48.7133	10,927.7	43.0354	10,927.7	47.5181	10,927.7	31.2533	10,927.7	45.4427	10,927.7	45.1044	10,927.7	43.5679	10,927.7	44.5039	10,927.7	42.7458	10,927.7	37.2364	10,927.7	46.8377	10,927.7	43.0613	10,927.7	39.1514	10,927.7	47.5324	10,927.7	43.7976
11,313	83.792	11,313	82.5654	11,313	82.2201	11,313	79.7067	11,313	79.6737	11,313	76.9562	11,313	75.0644	11,313	70.641	11,313	69.776	11,313	61.4531	11,313	68.1244	11,313	57.8756	11,313	63.6881	11,313	63.1473	11,313	66.6498	11,313	58.1247	11,313	50.4054	11,313	55.3331	11,313	56.0924	11,313	55.5824	11,313	57.3662	11,313	50.5712	11,313	45.3128	11,313	43.7265	11,313	34.4591	11,313	37.9669	11,313	46.0379	11,313	32.2029	11,313	38.1526	11,313	38.5357	11,313	34.7199	11,313	43.9117	11,313	44.6154	11,313	33.8251	11,313	46.6593	11,313	44.6343
11,712.9	83.242	11,712.9	82.3113	11,712.9	82.1352	11,712.9	79.8915	11,712.9	79.7308	11,712.9	76.8445	11,712.9	76.4669	11,712.9	69.8692	11,712.9	69.0809	11,712.9	58.5233	11,712.9	65.4703	11,712.9	55.4161	11,712.9	62.9309	11,712.9	57.8762	11,712.9	59.1739	11,712.9	52.7175	11,712.9	52.4418	11,712.9	49.8429	11,712.9	49.3597	11,712.9	32.0258	11,712.9	44.8071	11,712.9	30.0921	11,712.9	45.0018	11,712.9	37.8078	11,712.9	32.8552	11,712.9	33.3504	11,712.9	37.4878	11,712.9	30.1501	11,712.9	30.5425	11,712.9	31.2223	11,712.9	37.5217	11,712.9	35.8199	11,712.9	39.518	11,712.9	34.0952	11,712.9	41.5715	11,712.9	42.4772
12,126	83.4404	12,126	82.6777	12,126	82.1957	12,126	80.2873	12,126	79.5426	12,126	76.7555	12,126	75.302	12,126	69.0069	12,126	69.8167	12,126	44.9078	12,126	59.424	12,126	58.2528	12,126	55.5017	12,126	56.5639	12,126	53.4832	12,126	53.5484	12,126	48.3977	12,126	52.3101	12,126	42.3325	12,126	50.4715	12,126	41.6338	12,126	46.0738	12,126	33.3428	12,126	43.5013	12,126	33.3762	12,126	38.8438	12,126	31.2301	12,126	33.3613	12,126	25.7044	12,126	35.1979	12,126	30.686	12,126	33.2614	12,126	35.0435	12,126	39.5405	12,126	38.6432	12,126	33.9869
12,553.7	83.9577	12,553.7	83.4311	12,553.7	82.2542	12,553.7	80.3914	12,553.7	79.4726	12,553.7	76.3254	12,553.7	74.7392	12,553.7	66.5902	12,553.7	67.2575	12,553.7	58.0636	12,553.7	47.4638	12,553.7	65.1557	12,553.7	49.1074	12,553.7	62.4977	12,553.7	52.1069	12,553.7	58.4	12,553.7	42.1036	12,553.7	57.0298	12,553.7	43.8575	12,553.7	49.5337	12,553.7	45.7967	12,553.7	47.7458	12,553.7	21.1129	12,553.7	46.4416	12,553.7	32.0171	12,553.7	44.4271	12,553.7	33.0244	12,553.7	40.685	12,553.7	35.3885	12,553.7	40.1034	12,553.7	32.2577	12,553.7	35.3883	12,553.7	37.669	12,553.7	34.3135	12,553.7	38.285	12,553.7	29.1249
12,996.1	84.4427	12,996.1	83.7796	12,996.1	82.469	12,996.1	80.2286	12,996.1	79.4068	12,996.1	75.1438	12,996.1	74.5219	12,996.1	62.8834	12,996.1	64.6589	12,996.1	65.3959	12,996.1	52.0085	12,996.1	67.6679	12,996.1	62.103	12,996.1	64.54	12,996.1	61.9407	12,996.1	59.6452	12,996.1	51.7307	12,996.1	57.9929	12,996.1	50.8396	12,996.1	52.4681	12,996.1	49.4071	12,996.1	49.3136	12,996.1	45.4187	12,996.1	46.613	12,996.1	38.7438	12,996.1	46.8367	12,996.1	30.4086	12,996.1	39.4795	12,996.1	39.3083	12,996.1	42.2217	12,996.1	35.6854	12,996.1	36.324	12,996.1	34.8084	12,996.1	39.8246	12,996.1	31.8032	12,996.1	31.0756
13,454.6	84.4973	13,454.6	83.6626	13,454.6	82.7778	13,454.6	80.1073	13,454.6	79.398	13,454.6	73.5441	13,454.6	71.669	13,454.6	58.3023	13,454.6	57.8992	13,454.6	67.1104	13,454.6	60.2403	13,454.6	67.683	13,454.6	64.6473	13,454.6	64.7167	13,454.6	62.6197	13,454.6	61.7577	13,454.6	57.0822	13,454.6	59.0871	13,454.6	49.889	13,454.6	55.794	13,454.6	50.9178	13,454.6	50.8064	13,454.6	47.1168	13,454.6	46.4485	13,454.6	42.7032	13,454.6	45.627	13,454.6	39.0052	13,454.6	40.7352	13,454.6	30.9042	13,454.6	45.8162	13,454.6	24.8116	13,454.6	41.3159	13,454.6	35.6688	13,454.6	38.8452	13,454.6	29.4902	13,454.6	15.8649
13,929.2	84.1388	13,929.2	83.5255	13,929.2	82.7107	13,929.2	79.9922	13,929.2	79.449	13,929.2	72.0015	13,929.2	69.3477	13,929.2	57.1019	13,929.2	42.2246	13,929.2	66.6011	13,929.2	60.5195	13,929.2	67.0328	13,929.2	64.9577	13,929.2	64.995	13,929.2	60.0365	13,929.2	60.1729	13,929.2	58.5173	13,929.2	56.8231	13,929.2	52.2553	13,929.2	47.3916	13,929.2	43.8041	13,929.2	48.7109	13,929.2	51.3695	13,929.2	46.7636	13,929.2	41.1363	13,929.2	45.9945	13,929.2	41.0278	13,929.2	41.5059	13,929.2	37.2139	13,929.2	45.181	13,929.2	38.9783	13,929.2	42.061	13,929.2	35.1189	13,929.2	39.0518	13,929.2	33.1242	13,929.2	26.5416
14,419.9	83.7447	14,419.9	82.9906	14,419.9	82.6347	14,419.9	79.3564	14,419.9	78.5932	14,419.9	69.4818	14,419.9	68.7884	14,419.9	60.6331	14,419.9	31.7523	14,419.9	65.417	14,419.9	61.1304	14,419.9	66.4976	14,419.9	64.5473	14,419.9	63.9306	14,419.9	55.0942	14,419.9	58.7237	14,419.9	54.1409	14,419.9	54.2841	14,419.9	40.3152	14,419.9	49.7514	14,419.9	44.8622	14,419.9	43.1111	14,419.9	49.8253	14,419.9	42.4022	14,419.9	41.4883	14,419.9	43.5435	14,419.9	36.0215	14,419.9	38.8091	14,419.9	34.3042	14,419.9	39.8935	14,419.9	35.1499	14,419.9	36.6299	14,419.9	36.7336	14,419.9	34.4225	14,419.9	29.4142	14,419.9	27.5619
14,928.2	83.3757	14,928.2	82.1671	14,928.2	82.4036	14,928.2	78.1349	14,928.2	77.9195	14,928.2	66.8326	14,928.2	66.2707	14,928.2	62.3559	14,928.2	49.7706	14,928.2	61.923	14,928.2	65.1294	14,928.2	64.3251	14,928.2	64.5323	14,928.2	61.1345	14,928.2	58.7567	14,928.2	54.5885	14,928.2	56.0559	14,928.2	50.2349	14,928.2	46.04	14,928.2	45.0973	14,928.2	46.0824	14,928.2	35.6754	14,928.2	49.2114	14,928.2	40.072	14,928.2	43.7316	14,928.2	43.045	14,928.2	42.9385	14,928.2	39.3422	14,928.2	43.283	14,928.2	39.2132	14,928.2	41.2753	14,928.2	30.2742	14,928.2	42.2486	14,928.2	37.9813	14,928.2	33.4471	14,928.2	30.3295
15,455.6	82.8091	15,455.6	81.8412	15,455.6	82.2659	15,455.6	77.1787	15,455.6	77.3833	15,455.6	64.1367	15,455.6	67.2364	15,455.6	63.2061	15,455.6	58.7287	15,455.6	64.3567	15,455.6	65.974	15,455.6	63.9571	15,455.6	66.1352	15,455.6	58.9185	15,455.6	61.7518	15,455.6	45.0901	15,455.6	57.8129	15,455.6	43.9458	15,455.6	52.1858	15,455.6	33.9733	15,455.6	49.9938	15,455.6	36.944	15,455.6	51.2836	15,455.6	37.9482	15,455.6	34.583	15,455.6	38.605	15,455.6	44.4061	15,455.6	38.2364	15,455.6	43.098	15,455.6	34.3497	15,455.6	41.2455	15,455.6	33.0209	15,455.6	42.6538	15,455.6	33.6227	15,455.6	35.4186	15,455.6	31.4697
16,000.5	82.4734	16,000.5	81.6218	16,000.5	81.8242	16,000.5	76.0704	16,000.5	76.4065	16,000.5	57.8955	16,000.5	61.2741	16,000.5	63.2503	16,000.5	60.7281	16,000.5	66.4867	16,000.5	65.7379	16,000.5	62.1465	16,000.5	66.1011	16,000.5	54.6368	16,000.5	56.1656	16,000.5	33.1999	16,000.5	58.9274	16,000.5	34.5037	16,000.5	50.3144	16,000.5	38.7964	16,000.5	52.1303	16,000.5	40.0979	16,000.5	51.345	16,000.5	36.4519	16,000.5	33.7964	16,000.5	39.5336	16,000.5	35.8053	16,000.5	38.715	16,000.5	40.3784	16,000.5	35.7507	16,000.5	35.7263	16,000.5	29.124	16,000.5	40.1917	16,000.5	32.3529	16,000.5	27.9111	16,000.5	29.9173
16,564.5	82.2147	16,564.5	81.2098	16,564.5	81.3452	16,564.5	74.7763	16,564.5	75.8028	16,564.5	45.7901	16,564.5	61.2464	16,564.5	64.7101	16,564.5	62.0053	16,564.5	66.9813	16,564.5	64.3141	16,564.5	57.4404	16,564.5	60.9341	16,564.5	47.4076	16,564.5	60.5356	16,564.5	41.0078	16,564.5	55.6862	16,564.5	34.2413	16,564.5	47.9831	16,564.5	37.8796	16,564.5	49.1647	16,564.5	36.9066	16,564.5	49.8093	16,564.5	32.1634	16,564.5	35.3917	16,564.5	39.0836	16,564.5	28.397	16,564.5	37.1258	16,564.5	36.0572	16,564.5	36.5295	16,564.5	32.4273	16,564.5	30.308	16,564.5	36.7177	16,564.5	31.7851	16,564.5	25.4627	16,564.5	18.7439
17,148.9	82.1545	17,148.9	80.7748	17,148.9	80.5835	17,148.9	73.3486	17,148.9	74.9055	17,148.9	49.0162	17,148.9	56.8014	17,148.9	66.4723	17,148.9	63.5278	17,148.9	64.7146	17,148.9	62.5182	17,148.9	52.1849	17,148.9	59.4607	17,148.9	39.7374	17,148.9	59.8887	17,148.9	45.5044	17,148.9	56.1013	17,148.9	42.869	17,148.9	41.9519	17,148.9	37.6525	17,148.9	45.3475	17,148.9	32.5635	17,148.9	50.3688	17,148.9	29.9399	17,148.9	23.6456	17,148.9	37.4018	17,148.9	30.3558	17,148.9	32.1477	17,148.9	31.7814	17,148.9	22.2756	17,148.9	30.0002	17,148.9	27.7226	17,148.9	28.8197	17,148.9	33.9177	17,148.9	20.5317	17,148.9	23.9665
17,752.4	81.3954	17,752.4	79.7186	17,752.4	79.5079	17,752.4	72.1029	17,752.4	72.7434	17,752.4	51.7632	17,752.4	55.4078	17,752.4	65.2505	17,752.4	63.6929	17,752.4	60.671	17,752.4	60.1353	17,752.4	50.1912	17,752.4	58.0916	17,752.4	52.7277	17,752.4	53.9422	17,752.4	50.8803	17,752.4	55.0382	17,752.4	47.3905	17,752.4	41.8074	17,752.4	41.637	17,752.4	45.067	17,752.4	21.8052	17,752.4	45.5954	17,752.4	28.1745	17,752.4	31.1516	17,752.4	30.1086	17,752.4	28.3232	17,752.4	29.3168	17,752.4	31.9181	17,752.4	21.0543	17,752.4	21.228	17,752.4	25.9181	17,752.4	20.3731	17,752.4	27.471	17,752.4	19.5112	17,752.4	22.7459
18,379.4	80.6612	18,379.4	78.6579	18,379.4	78.424	18,379.4	71.6012	18,379.4	71.4858	18,379.4	51.3623	18,379.4	53.2184	18,379.4	63.2079	18,379.4	61.3453	18,379.4	59.435	18,379.4	59.2756	18,379.4	54.2863	18,379.4	56.9766	18,379.4	54.1018	18,379.4	53.3475	18,379.4	50.9614	18,379.4	46.0452	18,379.4	45.9991	18,379.4	40.4677	18,379.4	42.0436	18,379.4	39.4676	18,379.4	27.8316	18,379.4	43.6903	18,379.4	28.1632	18,379.4	31.6471	18,379.4	24.5841	18,379.4	26.7128	18,379.4	28.2999	18,379.4	26.7372	18,379.4	24.8585	18,379.4	24.6649	18,379.4	28.4554	18,379.4	20.3908	18,379.4	28.7452	18,379.4	26.2419	18,379.4	17.9913
19,026.9	80.6422	19,026.9	78.2506	19,026.9	78.2544	19,026.9	70.488	19,026.9	70.2776	19,026.9	56.2579	19,026.9	56.9173	19,026.9	62.8031	19,026.9	62.8901	19,026.9	58.0129	19,026.9	59.7902	19,026.9	53.6938	19,026.9	52.8172	19,026.9	52.6676	19,026.9	44.5207	19,026.9	47.7545	19,026.9	39.4867	19,026.9	42.6057	19,026.9	36.2213	19,026.9	39.46	19,026.9	33.321	19,026.9	11.1729	19,026.9	37.1992	19,026.9	22.8972	19,026.9	23.4003	19,026.9	3.1661	19,026.9	26.2626	19,026.9	27.7705	19,026.9	15.1996	19,026.9	29.1387	19,026.9	19.2295	19,026.9	28.2305	19,026.9	26.1493	19,026.9	22.3477	19,026.9	25.1477	19,026.9	23.6081
19,697.8	80.8302	19,697.8	78.2418	19,697.8	78.4667	19,697.8	68.1187	19,697.8	68.5729	19,697.8	61.4123	19,697.8	60.863	19,697.8	63.7694	19,697.8	64.2625	19,697.8	57.6318	19,697.8	59.9688	19,697.8	48.2866	19,697.8	43.3961	19,697.8	49.5412	19,697.8	47.1376	19,697.8	41.7463	19,697.8	43.1851	19,697.8	39.9782	19,697.8	36.2702	19,697.8	20.8232	19,697.8	40.7342	19,697.8	25.1279	19,697.8	41.8667	19,697.8	25.717	19,697.8	29.2058	19,697.8	22.7523	19,697.8	19.6346	19,697.8	29.4042	19,697.8	21.2524	19,697.8	27.3753	19,697.8	23.1342	19,697.8	17.564	19,697.8	32.0183	19,697.8	23.7331	19,697.8	27.9731	19,697.8	14.2811
19,999.5	80.6821	19,999.5	78.2504	19,999.5	78.4962	19,999.5	67.5188	19,999.5	68.3759	19,999.5	63.7036	19,999.5	61.6578	19,999.5	65.344	19,999.5	65.2826	19,999.5	57.5977	19,999.5	61.0623	19,999.5	40.2727	19,999.5	46.9775	19,999.5	47.0126	19,999.5	49.0062	19,999.5	41.8842	19,999.5	46.8884	19,999.5	41.0698	19,999.5	42.2391	19,999.5	32.5019	19,999.5	41.8804	19,999.5	42.727	19,999.5	35.1351	19,999.5	39.8322	19,999.5	46.023	19,999.5	40.0678	19,999.5	40.3067	19,999.5	38.4434	19,999.5	46.4603	19,999.5	39.8701	19,999.5	42.2243	19,999.5	39.1631	19,999.5	38.4537	19,999.5	29.4	19,999.5	31.0441	19,999.5	22.0713
