"SPL Horizontal"
"On-Axis"		"10°"		"-10°"		"20°"		"-20°"		"30°"		"-30°"		"40°"		"-40°"		"50°"		"-50°"		"60°"		"-60°"		"70°"		"-70°"		"80°"		"-80°"		"90°"		"-90°"		"100°"		"-100°"		"110°"		"-110°"		"120°"		"-120°"		"130°"		"-130°"		"140°"		"-140°"		"150°"		"-150°"		"160°"		"-160°"		"170°"		"-170°"		"180°"
"Frequency [Hz]"	"Sound Pessure Level [dB]  / [2.83V 1m] "	"Frequency [Hz]"	"Sound Pessure Level [dB]  / [2.83V 1m] "	"Frequency [Hz]"	"Sound Pessure Level [dB]  / [2.83V 1m] "	"Frequency [Hz]"	"Sound Pessure Level [dB]  / [2.83V 1m] "	"Frequency [Hz]"	"Sound Pessure Level [dB]  / [2.83V 1m] "	"Frequency [Hz]"	"Sound Pessure Level [dB]  / [2.83V 1m] "	"Frequency [Hz]"	"Sound Pessure Level [dB]  / [2.83V 1m] "	"Frequency [Hz]"	"Sound Pessure Level [dB]  / [2.83V 1m] "	"Frequency [Hz]"	"Sound Pessure Level [dB]  / [2.83V 1m] "	"Frequency [Hz]"	"Sound Pessure Level [dB]  / [2.83V 1m] "	"Frequency [Hz]"	"Sound Pessure Level [dB]  / [2.83V 1m] "	"Frequency [Hz]"	"Sound Pessure Level [dB]  / [2.83V 1m] "	"Frequency [Hz]"	"Sound Pessure Level [dB]  / [2.83V 1m] "	"Frequency [Hz]"	"Sound Pessure Level [dB]  / [2.83V 1m] "	"Frequency [Hz]"	"Sound Pessure Level [dB]  / [2.83V 1m] "	"Frequency [Hz]"	"Sound Pessure Level [dB]  / [2.83V 1m] "	"Frequency [Hz]"	"Sound Pessure Level [dB]  / [2.83V 1m] "	"Frequency [Hz]"	"Sound Pessure Level [dB]  / [2.83V 1m] "	"Frequency [Hz]"	"Sound Pessure Level [dB]  / [2.83V 1m] "	"Frequency [Hz]"	"Sound Pessure Level [dB]  / [2.83V 1m] "	"Frequency [Hz]"	"Sound Pessure Level [dB]  / [2.83V 1m] "	"Frequency [Hz]"	"Sound Pessure Level [dB]  / [2.83V 1m] "	"Frequency [Hz]"	"Sound Pessure Level [dB]  / [2.83V 1m] "	"Frequency [Hz]"	"Sound Pessure Level [dB]  / [2.83V 1m] "	"Frequency [Hz]"	"Sound Pessure Level [dB]  / [2.83V 1m] "	"Frequency [Hz]"	"Sound Pessure Level [dB]  / [2.83V 1m] "	"Frequency [Hz]"	"Sound Pessure Level [dB]  / [2.83V 1m] "	"Frequency [Hz]"	"Sound Pessure Level [dB]  / [2.83V 1m] "	"Frequency [Hz]"	"Sound Pessure Level [dB]  / [2.83V 1m] "	"Frequency [Hz]"	"Sound Pessure Level [dB]  / [2.83V 1m] "	"Frequency [Hz]"	"Sound Pessure Level [dB]  / [2.83V 1m] "	"Frequency [Hz]"	"Sound Pessure Level [dB]  / [2.83V 1m] "	"Frequency [Hz]"	"Sound Pessure Level [dB]  / [2.83V 1m] "	"Frequency [Hz]"	"Sound Pessure Level [dB]  / [2.83V 1m] "	"Frequency [Hz]"	"Sound Pessure Level [dB]  / [2.83V 1m] "	"Frequency [Hz]"	"Sound Pessure Level [dB]  / [2.83V 1m] "
20.5078	60.4861	20.5078	60.4335	20.5078	60.4534	20.5078	60.2974	20.5078	60.3373	20.5078	60.0847	20.5078	60.144	20.5078	59.8106	20.5078	59.8862	20.5078	59.5042	20.5078	59.5882	20.5078	59.2157	20.5078	59.2911	20.5078	59.0204	20.5078	59.0587	20.5078	59.01	20.5078	58.9744	20.5078	59.2595	20.5078	59.1195	20.5078	59.7841	20.5078	59.5346	20.5078	60.5242	20.5078	60.1912	20.5078	61.376	20.5078	61.0035	20.5078	62.2334	20.5078	61.8672	20.5078	63.0126	20.5078	62.6895	20.5078	63.6553	20.5078	63.4001	20.5078	64.1242	20.5078	63.9502	20.5078	64.3964	20.5078	64.3088	20.5078	64.4593
21.9727	61.6367	21.9727	61.5812	21.9727	61.6096	21.9727	61.4451	21.9727	61.502	21.9727	61.2356	21.9727	61.3203	21.9727	60.9686	21.9727	61.0777	21.9727	60.6733	21.9727	60.7976	21.9727	60.399	21.9727	60.5187	21.9727	60.2177	21.9727	60.2985	21.9727	60.2149	21.9727	60.2108	21.9727	60.4591	21.9727	60.3274	21.9727	60.963	21.9727	60.6875	21.9727	61.6711	21.9727	61.2735	21.9727	62.4862	21.9727	62.016	21.9727	63.3075	21.9727	62.823	21.9727	64.0537	21.9727	63.6075	21.9727	64.6667	21.9727	64.2999	21.9727	65.1078	21.9727	64.849	21.9727	65.3533	21.9727	65.2198	21.9727	65.3911
23.4375	63.3089	23.4375	63.2771	23.4375	63.2827	23.4375	63.1891	23.4375	63.201	23.4375	63.0521	23.4375	63.0709	23.4375	62.8805	23.4375	62.9055	23.4375	62.6982	23.4375	62.7257	23.4375	62.5417	23.4375	62.5621	23.4375	62.4594	23.4375	62.4553	23.4375	62.5047	23.4375	62.452	23.4375	62.7196	23.4375	62.5939	23.4375	63.115	23.4375	62.9026	23.4375	63.6625	23.4375	63.3677	23.4375	64.3029	23.4375	63.9486	23.4375	64.9652	23.4375	64.5866	23.4375	65.5828	23.4375	65.2198	23.4375	66.1009	23.4375	65.7915	23.4375	66.4792	23.4375	66.2546	23.4375	66.6909	23.4375	66.5731	23.4375	66.7225
24.9023	64.7712	24.9023	64.7379	24.9023	64.7434	24.9023	64.6453	24.9023	64.6568	24.9023	64.4997	24.9023	64.5176	24.9023	64.3139	24.9023	64.3373	24.9023	64.1098	24.9023	64.1344	24.9023	63.921	24.9023	63.9366	24.9023	63.7935	24.9023	63.7819	24.9023	63.7804	24.9023	63.7159	24.9023	63.927	24.9023	63.7835	24.9023	64.2519	24.9023	64.0139	24.9023	64.7349	24.9023	64.407	24.9023	65.3218	24.9023	64.9294	24.9023	65.9426	24.9023	65.525	24.9023	66.5287	24.9023	66.1297	24.9023	67.023	24.9023	66.6838	24.9023	67.3833	24.9023	67.1375	24.9023	67.5819	24.9023	67.453	24.9023	67.6053
26.3672	66.4666	26.3672	66.426	26.3672	66.464	26.3672	66.3449	26.3672	66.4187	26.3672	66.2295	26.3672	66.3343	26.3672	66.0907	26.3672	66.2178	26.3672	65.9449	26.3672	66.0813	26.3672	65.8157	26.3672	65.9423	26.3672	65.7329	26.3672	65.8246	26.3672	65.7296	26.3672	65.7576	26.3672	65.8345	26.3672	65.7722	26.3672	66.0625	26.3672	65.8939	26.3672	66.4063	26.3672	66.1331	26.3672	66.8359	26.3672	66.4795	26.3672	67.3044	26.3672	66.9025	26.3672	67.7589	26.3672	67.3577	26.3672	68.149	26.3672	67.7962	26.3672	68.4337	26.3672	68.1718	26.3672	68.5846	26.3672	68.4452	26.3672	68.588
27.832	67.9661	27.832	67.9509	27.832	67.9306	27.832	67.8864	27.832	67.8452	27.832	67.7763	27.832	67.7127	27.832	67.6278	27.832	67.5387	27.832	67.4525	27.832	67.3329	27.832	67.268	27.832	67.1104	27.832	67.0993	27.832	66.8937	27.832	66.9781	27.832	66.7127	27.832	66.9385	27.832	66.6034	27.832	67.0086	27.832	66.6003	27.832	67.1993	27.832	66.7261	27.832	67.4966	27.832	66.981	27.832	67.8626	27.832	67.3393	27.832	68.2443	27.832	67.755	27.832	68.5862	27.832	68.1734	27.832	68.8404	27.832	68.5416	27.832	68.9725	27.832	68.8157	27.832	68.9646
29.2969	68.8559	29.2969	68.835	29.2969	68.8303	29.2969	68.7687	29.2969	68.7596	29.2969	68.6606	29.2969	68.6472	29.2969	68.5177	29.2969	68.4995	29.2969	68.3515	29.2969	68.3268	29.2969	68.1795	29.2969	68.1442	29.2969	68.0257	29.2969	67.9731	29.2969	67.9204	29.2969	67.8404	29.2969	67.8956	29.2969	67.7764	29.2969	67.9769	29.2969	67.8085	29.2969	68.1737	29.2969	67.9524	29.2969	68.4723	29.2969	68.2048	29.2969	68.8364	29.2969	68.5412	29.2969	69.2162	29.2969	68.9213	29.2969	69.5591	29.2969	69.2977	29.2969	69.8196	29.2969	69.6238	29.2969	69.9653	29.2969	69.8604	29.2969	69.9791
30.7617	69.8243	30.7617	69.7921	30.7617	69.8135	30.7617	69.7176	30.7617	69.7609	30.7617	69.6041	30.7617	69.6694	30.7617	69.4576	30.7617	69.5445	30.7617	69.2883	30.7617	69.3945	30.7617	69.1119	30.7617	69.2317	30.7617	68.9502	30.7617	69.073	30.7617	68.8306	30.7617	68.9405	30.7617	68.7826	30.7617	68.8594	30.7617	68.8312	30.7617	68.8542	30.7617	68.9875	30.7617	68.9417	30.7617	69.2416	30.7617	69.1243	30.7617	69.5623	30.7617	69.3864	30.7617	69.9039	30.7617	69.6963	30.7617	70.2165	30.7617	70.0132	30.7617	70.4559	30.7617	70.2942	30.7617	70.5908	30.7617	70.5013	30.7617	70.6055
32.2266	70.8124	32.2266	70.7856	32.2266	70.7996	32.2266	70.7199	32.2266	70.7479	32.2266	70.6185	32.2266	70.6599	32.2266	70.4868	32.2266	70.5403	32.2266	70.3342	32.2266	70.3965	32.2266	70.1743	32.2266	70.2396	32.2266	70.0263	32.2266	70.085	32.2266	69.9139	32.2266	69.9527	32.2266	69.8629	32.2266	69.8661	32.2266	69.8955	32.2266	69.8484	32.2266	70.0226	32.2266	69.9162	32.2266	70.2375	32.2266	70.0732	32.2266	70.5146	32.2266	70.3066	32.2266	70.8141	32.2266	70.588	32.2266	71.091	32.2266	70.8794	32.2266	71.3041	32.2266	71.1401	32.2266	71.4234	32.2266	71.3339	32.2266	71.4333
33.6914	71.7347	33.6914	71.7131	33.6914	71.7192	33.6914	71.6551	33.6914	71.6671	33.6914	71.5633	33.6914	71.5805	33.6914	71.4423	33.6914	71.4634	33.6914	71.2998	33.6914	71.3221	33.6914	71.1469	33.6914	71.1656	33.6914	70.9992	33.6914	71.007	33.6914	70.8763	33.6914	70.8631	33.6914	70.8	33.6914	70.7538	33.6914	70.7906	33.6914	70.7	33.6914	70.8605	33.6914	70.7187	33.6914	71.0084	33.6914	70.8173	33.6914	71.2161	33.6914	70.9891	33.6914	71.4515	33.6914	71.2128	33.6914	71.6753	33.6914	71.4559	33.6914	71.8494	33.6914	71.6813	33.6914	71.9451	33.6914	71.8538	33.6914	71.9466
35.1562	72.5548	35.1562	72.5378	35.1562	72.5362	35.1562	72.4855	35.1562	72.4829	35.1562	72.3999	35.1562	72.3969	35.1562	72.2849	35.1562	72.2819	35.1562	72.1468	35.1562	72.1437	35.1562	71.9954	35.1562	71.9904	35.1562	71.8447	35.1562	71.8337	35.1562	71.7124	35.1562	71.6886	35.1562	71.6191	35.1562	71.5732	35.1562	71.5848	35.1562	71.5065	35.1562	71.6231	35.1562	71.5048	35.1562	71.7357	35.1562	71.576	35.1562	71.9088	35.1562	71.7162	35.1562	72.1138	35.1562	71.9075	35.1562	72.314	35.1562	72.1213	35.1562	72.4727	35.1562	72.3229	35.1562	72.561	35.1562	72.479	35.1562	72.5632
36.6211	73.2482	36.6211	73.2292	36.6211	73.2334	36.6211	73.1772	36.6211	73.1856	36.6211	73.0939	36.6211	73.1064	36.6211	72.9831	36.6211	72.9991	36.6211	72.8506	36.6211	72.8688	36.6211	72.7054	36.6211	72.7226	36.6211	72.5599	36.6211	72.5709	36.6211	72.4303	36.6211	72.4269	36.6211	72.3354	36.6211	72.3068	36.6211	72.2934	36.6211	72.2279	36.6211	72.3176	36.6211	72.2059	36.6211	72.4104	36.6211	72.2505	36.6211	72.5598	36.6211	72.3609	36.6211	72.7402	36.6211	72.5235	36.6211	72.9174	36.6211	72.7132	36.6211	73.0572	36.6211	72.8978	36.6211	73.1322	36.6211	73.0448	36.6211	73.1279
38.0859	74.0823	38.0859	74.0694	38.0859	74.0644	38.0859	74.0263	38.0859	74.0163	38.0859	73.9543	38.0859	73.9396	38.0859	73.8564	38.0859	73.8368	38.0859	73.7376	38.0859	73.7121	38.0859	73.6051	38.0859	73.5714	38.0859	73.4693	38.0859	73.4229	38.0859	73.3436	38.0859	73.278	38.0859	73.244	38.0859	73.1503	38.0859	73.1863	38.0859	73.0554	38.0859	73.1829	38.0859	73.0085	38.0859	73.2375	38.0859	73.0207	38.0859	73.3422	38.0859	73.0943	38.0859	73.4764	38.0859	73.2202	38.0859	73.6114	38.0859	73.3775	38.0859	73.7169	38.0859	73.5378	38.0859	73.7684	38.0859	73.6712	38.0859	73.7528
39.5508	74.7811	39.5508	74.7691	39.5508	74.7626	39.5508	74.7268	39.5508	74.7141	39.5508	74.6552	39.5508	74.6371	39.5508	74.5568	39.5508	74.5338	39.5508	74.4354	39.5508	74.4078	39.5508	74.2974	39.5508	74.264	39.5508	74.1519	39.5508	74.1097	39.5508	74.0111	39.5508	73.9544	39.5508	73.8896	39.5508	73.8104	39.5508	73.803	39.5508	73.6921	39.5508	73.7643	39.5508	73.6145	39.5508	73.7792	39.5508	73.5893	39.5508	73.8429	39.5508	73.6217	39.5508	73.9389	39.5508	73.7062	39.5508	74.0417	39.5508	73.8262	39.5508	74.1234	39.5508	73.9566	39.5508	74.1612	39.5508	74.0701	39.5508	74.143
41.0156	75.7031	41.0156	75.6867	41.0156	75.6908	41.0156	75.6418	41.0156	75.6503	41.0156	75.5689	41.0156	75.5828	41.0156	75.4698	41.0156	75.4898	41.0156	75.3476	41.0156	75.3744	41.0156	75.207	41.0156	75.2408	41.0156	75.0552	41.0156	75.0954	41.0156	74.9021	41.0156	74.9472	41.0156	74.7596	41.0156	74.8077	41.0156	74.6415	41.0156	74.69	41.0156	74.5605	41.0156	74.6065	41.0156	74.5254	41.0156	74.5658	41.0156	74.5376	41.0156	74.5685	41.0156	74.588	41.0156	74.6068	41.0156	74.6587	41.0156	74.6656	41.0156	74.7279	41.0156	74.7267	41.0156	74.7761	41.0156	74.7731	41.0156	74.7918
42.4805	76.0635	42.4805	76.042	42.4805	76.0568	42.4805	75.9921	42.4805	76.0222	42.4805	75.9147	42.4805	75.9606	42.4805	75.8111	42.4805	75.8733	42.4805	75.6842	42.4805	75.7626	42.4805	75.5386	42.4805	75.6319	42.4805	75.3816	42.4805	75.4864	42.4805	75.2232	42.4805	75.3335	42.4805	75.0762	42.4805	75.1832	42.4805	74.9549	42.4805	75.0472	42.4805	74.8727	42.4805	74.9379	42.4805	74.8378	42.4805	74.8659	42.4805	74.8499	42.4805	74.837	42.4805	74.8977	42.4805	74.85	42.4805	74.9616	42.4805	74.8951	42.4805	75.0191	42.4805	74.9562	42.4805	75.0515	42.4805	75.0135	42.4805	75.0491
43.9453	76.6892	43.9453	76.6809	43.9453	76.6711	43.9453	76.6458	43.9453	76.627	43.9453	76.5843	43.9453	76.5581	43.9453	76.4972	43.9453	76.4658	43.9453	76.3868	43.9453	76.3525	43.9453	76.2565	43.9453	76.2216	43.9453	76.1119	43.9453	76.0781	43.9453	75.9611	43.9453	75.9289	43.9453	75.8148	43.9453	75.7829	43.9453	75.6855	43.9453	75.6512	43.9453	75.5858	43.9453	75.5452	43.9453	75.5253	43.9453	75.475	43.9453	75.5069	43.9453	75.4462	43.9453	75.5243	43.9453	75.4572	43.9453	75.5631	43.9453	75.498	43.9453	75.6044	43.9453	75.5522	43.9453	75.6305	43.9453	75.6014	43.9453	75.6301
45.4102	77.1849	45.4102	77.1819	45.4102	77.1622	45.4102	77.1528	45.4102	77.1147	45.4102	77.0975	45.4102	77.0431	45.4102	77.0164	45.4102	76.9489	45.4102	76.9108	45.4102	76.8338	45.4102	76.7833	45.4102	76.7007	45.4102	76.6384	45.4102	76.5538	45.4102	76.4831	45.4102	76.3992	45.4102	76.327	45.4102	76.2452	45.4102	76.1821	45.4102	76.1019	45.4102	76.0611	45.4102	75.9808	45.4102	75.9747	45.4102	75.8924	45.4102	75.9281	45.4102	75.8436	45.4102	75.918	45.4102	75.8344	45.4102	75.9329	45.4102	75.8572	45.4102	75.9559	45.4102	75.8975	45.4102	75.9703	45.4102	75.9383	45.4102	75.965
46.875	77.7195	46.875	77.7136	46.875	77.6998	46.875	77.6816	46.875	77.6549	46.875	77.6232	46.875	77.5859	46.875	77.5389	46.875	77.4938	46.875	77.4297	46.875	77.3802	46.875	77.2981	46.875	77.2474	46.875	77.1485	46.875	77.0993	46.875	76.9875	46.875	76.941	46.875	76.8244	46.875	76.78	46.875	76.6704	46.875	76.6258	46.875	76.5379	46.875	76.4893	46.875	76.4372	46.875	76.3811	46.875	76.3741	46.875	76.3093	46.875	76.3466	46.875	76.2761	46.875	76.3449	46.875	76.2765	46.875	76.3542	46.875	76.2991	46.875	76.3596	46.875	76.3287	46.875	76.3514
48.3398	78.2497	48.3398	78.2418	48.3398	78.2331	48.3398	78.209	48.3398	78.1927	48.3398	78.1512	48.3398	78.1289	48.3398	78.0684	48.3398	78.0425	48.3398	77.9613	48.3398	77.9347	48.3398	77.832	48.3398	77.8072	48.3398	77.6838	48.3398	77.6631	48.3398	77.5224	48.3398	77.5068	48.3398	77.3558	48.3398	77.3446	48.3398	77.1944	48.3398	77.1849	48.3398	77.0496	48.3398	77.038	48.3398	76.9324	48.3398	76.9142	48.3398	76.8496	48.3398	76.8221	48.3398	76.8019	48.3398	76.7658	48.3398	76.7823	48.3398	76.7428	48.3398	76.7787	48.3398	76.7444	48.3398	76.778	48.3398	76.758	48.3398	76.7714
51.2695	79.1546	51.2695	79.1513	51.2695	79.1354	51.2695	79.1247	51.2695	79.0939	51.2695	79.0742	51.2695	79.0306	51.2695	78.9995	51.2695	78.9457	51.2695	78.9004	51.2695	78.8398	51.2695	78.7777	51.2695	78.714	51.2695	78.6337	51.2695	78.5702	51.2695	78.4725	51.2695	78.4119	51.2695	78.3005	51.2695	78.2444	51.2695	78.1268	51.2695	78.075	51.2695	77.9625	51.2695	77.9133	51.2695	77.8189	51.2695	77.7699	51.2695	77.7049	51.2695	77.6544	51.2695	77.6243	51.2695	77.573	51.2695	77.5741	51.2695	77.5259	51.2695	77.5459	51.2695	77.5075	51.2695	77.5292	51.2695	77.5078	51.2695	77.5169
52.7344	79.5863	52.7344	79.5836	52.7344	79.5676	52.7344	79.5588	52.7344	79.5281	52.7344	79.5111	52.7344	79.4681	52.7344	79.4398	52.7344	79.3877	52.7344	79.3446	52.7344	79.2875	52.7344	79.2258	52.7344	79.168	52.7344	79.085	52.7344	79.0308	52.7344	78.9259	52.7344	78.8786	52.7344	78.7542	52.7344	78.7158	52.7344	78.5783	52.7344	78.549	52.7344	78.4087	52.7344	78.3866	52.7344	78.2567	52.7344	78.2385	52.7344	78.1319	52.7344	78.1141	52.7344	78.0392	52.7344	78.02	52.7344	77.9778	52.7344	77.958	52.7344	77.9415	52.7344	77.9244	52.7344	77.9218	52.7344	77.9118	52.7344	77.9123
54.1992	79.9572	54.1992	79.9552	54.1992	79.9384	54.1992	79.9318	54.1992	79.8996	54.1992	79.886	54.1992	79.8409	54.1992	79.8169	54.1992	79.7625	54.1992	79.7238	54.1992	79.6647	54.1992	79.6068	54.1992	79.5478	54.1992	79.467	54.1992	79.413	54.1992	79.3075	54.1992	79.2625	54.1992	79.1335	54.1992	79.1001	54.1992	78.9529	54.1992	78.9318	54.1992	78.7758	54.1992	78.7653	54.1992	78.6134	54.1992	78.6101	54.1992	78.4761	54.1992	78.4755	54.1992	78.3702	54.1992	78.3687	54.1992	78.2965	54.1992	78.2928	54.1992	78.2507	54.1992	78.2459	54.1992	78.2261	54.1992	78.2227	54.1992	78.2172
55.6641	80.3469	55.6641	80.3446	55.6641	80.3294	55.6641	80.3217	55.6641	80.2925	55.6641	80.2771	55.6641	80.2363	55.6641	80.2099	55.6641	80.1609	55.6641	80.119	55.6641	80.0658	55.6641	80.0042	55.6641	79.9513	55.6641	79.8661	55.6641	79.8179	55.6641	79.707	55.6641	79.6673	55.6641	79.5315	55.6641	79.5028	55.6641	79.3468	55.6641	79.3295	55.6641	79.1624	55.6641	79.1549	55.6641	78.9895	55.6641	78.988	55.6641	78.8385	55.6641	78.8387	55.6641	78.717	55.6641	78.7153	55.6641	78.6275	55.6641	78.6229	55.6641	78.568	55.6641	78.5621	55.6641	78.5339	55.6641	78.5297	55.6641	78.5213
58.5938	80.9681	58.5938	80.9669	58.5938	80.9511	58.5938	80.9466	58.5938	80.9161	58.5938	80.906	58.5938	80.8631	58.5938	80.8435	58.5938	80.7915	58.5938	80.7577	58.5938	80.7005	58.5938	80.6474	58.5938	80.5893	58.5938	80.5126	58.5938	80.4576	58.5938	80.3543	58.5938	80.3061	58.5938	80.176	58.5938	80.1368	58.5938	79.9835	58.5938	79.9539	58.5938	79.7854	58.5938	79.7642	58.5938	79.5925	58.5938	79.5767	58.5938	79.416	58.5938	79.4021	58.5938	79.2657	58.5938	79.2512	58.5938	79.1478	58.5938	79.1324	58.5938	79.0639	58.5938	79.0501	58.5938	79.0128	58.5938	79.0044	58.5938	78.9928
60.0586	81.2628	60.0586	81.2628	60.0586	81.2459	60.0586	81.2449	60.0586	81.2122	60.0586	81.2078	60.0586	81.1617	60.0586	81.1497	60.0586	81.0935	60.0586	81.069	60.0586	81.0067	60.0586	80.9641	60.0586	80.9003	60.0586	80.8344	60.0586	80.7737	60.0586	80.6805	60.0586	80.6269	60.0586	80.5051	60.0586	80.4618	60.0586	80.3136	60.0586	80.2818	60.0586	80.1139	60.0586	80.0929	60.0586	79.9166	60.0586	79.9038	60.0586	79.7331	60.0586	79.7248	60.0586	79.5741	60.0586	79.5668	60.0586	79.447	60.0586	79.4392	60.0586	79.3555	60.0586	79.3479	60.0586	79.2998	60.0586	79.295	60.0586	79.2795
62.9883	81.8909	62.9883	81.8903	62.9883	81.876	62.9883	81.8733	62.9883	81.8458	62.9883	81.8384	62.9883	81.8	62.9883	81.7835	62.9883	81.7376	62.9883	81.7067	62.9883	81.6572	62.9883	81.6058	62.9883	81.5575	62.9883	81.4795	62.9883	81.4371	62.9883	81.3277	62.9883	81.2956	62.9883	81.1523	62.9883	81.1336	62.9883	80.9575	62.9883	80.9538	62.9883	80.7509	62.9883	80.7612	62.9883	80.5426	62.9883	80.5637	62.9883	80.3447	62.9883	80.3713	62.9883	80.1694	62.9883	80.1959	62.9883	80.0266	62.9883	80.0485	62.9883	79.9229	62.9883	79.9377	62.9883	79.8615	62.9883	79.8687	62.9883	79.8432
64.4531	82.1542	64.4531	82.1567	64.4531	82.1368	64.4531	82.1432	64.4531	82.1049	64.4531	82.1122	64.4531	82.058	64.4531	82.0614	64.4531	81.9951	64.4531	81.9886	64.4531	81.9148	64.4531	81.8914	64.4531	81.8154	64.4531	81.7682	64.4531	81.6954	64.4531	81.6184	64.4531	81.5538	64.4531	81.4433	64.4531	81.391	64.4531	81.2469	64.4531	81.209	64.4531	81.0359	64.4531	81.0126	64.4531	80.8203	64.4531	80.8093	64.4531	80.6123	64.4531	80.6096	64.4531	80.4246	64.4531	80.4258	64.4531	80.2685	64.4531	80.2701	64.4531	80.1523	64.4531	80.153	64.4531	80.0809	64.4531	80.0809	64.4531	80.0567
67.3828	82.6422	67.3828	82.6486	67.3828	82.6209	67.3828	82.6391	67.3828	82.5852	67.3828	82.6117	67.3828	82.5345	67.3828	82.564	67.3828	82.4677	67.3828	82.4932	67.3828	82.3829	67.3828	82.3962	67.3828	82.2783	67.3828	82.2707	67.3828	82.152	67.3828	82.1154	67.3828	82.0027	67.3828	81.9308	67.3828	81.8303	67.3828	81.7202	67.3828	81.637	67.3828	81.4903	67.3828	81.4272	67.3828	81.2513	67.3828	81.2087	67.3828	81.0169	67.3828	80.9923	67.3828	80.8018	67.3828	80.791	67.3828	80.6206	67.3828	80.6182	67.3828	80.4846	67.3828	80.4859	67.3828	80.4012	67.3828	80.4026	67.3828	80.3737
68.8477	82.7876	68.8477	82.7851	68.8477	82.7765	68.8477	82.7681	68.8477	82.752	68.8477	82.7347	68.8477	82.7133	68.8477	82.6824	68.8477	82.6589	68.8477	82.6081	68.8477	82.5866	68.8477	82.5088	68.8477	82.4941	68.8477	82.3819	68.8477	82.379	68.8477	82.2259	68.8477	82.2396	68.8477	82.0411	68.8477	82.0755	68.8477	81.8309	68.8477	81.8883	68.8477	81.6021	68.8477	81.6821	68.8477	81.3651	68.8477	81.4641	68.8477	81.1342	68.8477	81.2445	68.8477	80.925	68.8477	81.0357	68.8477	80.7526	68.8477	80.851	68.8477	80.629	68.8477	80.7027	68.8477	80.5614	68.8477	80.6009	68.8477	80.5524
71.7773	83.1799	71.7773	83.1764	71.7773	83.1719	71.7773	83.1603	71.7773	83.1526	71.7773	83.1295	71.7773	83.1213	71.7773	83.0811	71.7773	83.0763	71.7773	83.0121	71.7773	83.0153	71.7773	82.9189	71.7773	82.9356	71.7773	82.7986	71.7773	82.8342	71.7773	82.6494	71.7773	82.7088	71.7773	82.4712	71.7773	82.558	71.7773	82.2669	71.7773	82.3823	71.7773	82.0426	71.7773	82.1845	71.7773	81.8083	71.7773	81.9706	71.7773	81.5777	71.7773	81.7499	71.7773	81.3668	71.7773	81.5345	71.7773	81.1918	71.7773	81.3382	71.7773	81.0667	71.7773	81.1755	71.7773	81.001	71.7773	81.0591	71.7773	80.9989
74.707	83.5503	74.707	83.5508	74.707	83.5399	74.707	83.5402	74.707	83.5198	74.707	83.5163	74.707	83.4889	74.707	83.4758	74.707	83.4452	74.707	83.4152	74.707	83.386	74.707	83.3302	74.707	83.3081	74.707	83.2173	74.707	83.208	74.707	83.0736	74.707	83.0825	74.707	82.8981	74.707	82.9297	74.707	82.6925	74.707	82.7489	74.707	82.462	74.707	82.5425	74.707	82.2158	74.707	82.3158	74.707	81.9675	74.707	82.0786	74.707	81.7339	74.707	81.8445	74.707	81.5332	74.707	81.6305	74.707	81.3823	74.707	81.4546	74.707	81.2946	74.707	81.333	74.707	81.2778
77.6367	83.8459	77.6367	83.8532	77.6367	83.8303	77.6367	83.8508	77.6367	83.8065	77.6367	83.8364	77.6367	83.7736	77.6367	83.8064	77.6367	83.7295	77.6367	83.7568	77.6367	83.6709	77.6367	83.6831	77.6367	83.5943	77.6367	83.5809	77.6367	83.4955	77.6367	83.4467	77.6367	83.3709	77.6367	83.2787	77.6367	83.2176	77.6367	83.0777	77.6367	83.0348	77.6367	82.8479	77.6367	82.8243	77.6367	82.5978	77.6367	82.592	77.6367	82.3404	77.6367	82.3482	77.6367	82.0925	77.6367	82.1079	77.6367	81.8733	77.6367	81.89	77.6367	81.7014	77.6367	81.7147	77.6367	81.5927	77.6367	81.5998	77.6367	81.5576
79.1016	83.9548	79.1016	83.9661	79.1016	83.9359	79.1016	83.9685	79.1016	83.9097	79.1016	83.9594	79.1016	83.875	79.1016	83.935	79.1016	83.8297	79.1016	83.8912	79.1016	83.7705	79.1016	83.823	79.1016	83.6934	79.1016	83.7258	79.1016	83.5941	79.1016	83.5956	79.1016	83.4688	79.1016	83.4301	79.1016	83.3143	79.1016	83.2295	79.1016	83.1297	79.1016	82.9976	79.1016	82.9168	79.1016	82.7424	79.1016	82.6812	79.1016	82.4769	79.1016	82.4337	79.1016	82.2184	79.1016	82.1896	79.1016	81.9869	79.1016	81.9686	79.1016	81.8027	79.1016	81.7917	79.1016	81.6831	79.1016	81.6779	79.1016	81.6401
82.0312	84.1775	82.0312	84.1923	82.0312	84.1568	82.0312	84.1997	82.0312	84.1305	82.0312	84.1967	82.0312	84.0975	82.0312	84.1794	82.0312	84.0554	82.0312	84.1427	82.0312	84.0005	82.0312	84.0816	82.0312	83.9285	82.0312	83.9908	82.0312	83.8347	82.0312	83.8659	82.0312	83.7146	82.0312	83.704	82.0312	83.5647	82.0312	83.5047	82.0312	83.3833	82.0312	83.2712	82.0312	83.1718	82.0312	83.0115	82.0312	82.9355	82.0312	82.7384	82.0312	82.6847	82.0312	82.4701	82.0312	82.4353	82.0312	82.2281	82.0312	82.2075	82.0312	82.0347	82.0312	82.0237	82.0312	81.9091	82.0312	81.9045	82.0312	81.8644
84.9609	84.3901	84.9609	84.4035	84.9609	84.3717	84.9609	84.4101	84.9609	84.3484	84.9609	84.4072	84.9609	84.3188	84.9609	84.3903	84.9609	84.2803	84.9609	84.3543	84.9609	84.229	84.9609	84.2937	84.9609	84.1602	84.9609	84.2028	84.9609	84.0687	84.9609	84.0767	84.9609	83.9499	84.9609	83.912	84.9609	83.7998	84.9609	83.708	84.9609	83.6164	84.9609	83.4681	84.9609	83.4011	84.9609	83.2003	84.9609	83.159	84.9609	82.9183	84.9609	82.9007	84.9609	82.6415	84.9609	82.642	84.9609	82.3927	84.9609	82.4038	84.9609	82.1956	84.9609	82.209	84.9609	82.0706	84.9609	82.0792	84.9609	82.0307
87.8906	84.3633	87.8906	84.3608	87.8906	84.3651	87.8906	84.3564	87.8906	84.3654	87.8906	84.3472	87.8906	84.3623	87.8906	84.3291	87.8906	84.3521	87.8906	84.2965	87.8906	84.3305	87.8906	84.2433	87.8906	84.2919	87.8906	84.1631	87.8906	84.2309	87.8906	84.0505	87.8906	84.142	87.8906	83.9017	87.8906	84.0211	87.8906	83.7161	87.8906	83.8655	87.8906	83.4971	87.8906	83.6753	87.8906	83.2534	87.8906	83.4547	87.8906	82.9993	87.8906	83.2121	87.8906	82.754	87.8906	82.9616	87.8906	82.54	87.8906	82.7222	87.8906	82.38	87.8906	82.516	87.8906	82.2922	87.8906	82.365	87.8906	82.2871
90.8203	84.3839	90.8203	84.3885	90.8203	84.3806	90.8203	84.393	90.8203	84.3786	90.8203	84.3943	90.8203	84.3758	90.8203	84.3875	90.8203	84.3686	90.8203	84.367	90.8203	84.3521	90.8203	84.3263	90.8203	84.3204	90.8203	84.259	90.8203	84.2672	90.8203	84.1594	90.8203	84.1866	90.8203	84.0234	90.8203	84.0739	90.8203	83.8498	90.8203	83.9261	90.8203	83.6411	90.8203	83.7432	90.8203	83.405	90.8203	83.5293	90.8203	83.1544	90.8203	83.293	90.8203	82.9081	90.8203	83.0486	90.8203	82.6884	90.8203	82.8153	90.8203	82.5191	90.8203	82.6157	90.8203	82.4202	90.8203	82.4725	90.8203	82.4041
95.2148	84.4962	95.2148	84.5081	95.2148	84.4877	95.2148	84.5223	95.2148	84.4819	95.2148	84.5367	95.2148	84.4765	95.2148	84.5471	95.2148	84.4681	95.2148	84.5478	95.2148	84.4522	95.2148	84.532	95.2148	84.4231	95.2148	84.492	95.2148	84.3747	95.2148	84.4203	95.2148	84.3007	95.2148	84.3104	95.2148	84.1957	95.2148	84.1584	95.2148	84.0556	95.2148	83.9645	95.2148	83.8795	95.2148	83.734	95.2148	83.6706	95.2148	83.4786	95.2148	83.4376	95.2148	83.2168	95.2148	83.1955	95.2148	82.9728	95.2148	82.9656	95.2148	82.7733	95.2148	82.7736	95.2148	82.6428	95.2148	82.6446	95.2148	82.5983
98.1445	84.7251	98.1445	84.7465	98.1445	84.7023	98.1445	84.7658	98.1445	84.6778	98.1445	84.7809	98.1445	84.6503	98.1445	84.7884	98.1445	84.6171	98.1445	84.7834	98.1445	84.5747	98.1445	84.7597	98.1445	84.5185	98.1445	84.7103	98.1445	84.4432	98.1445	84.6278	98.1445	84.3433	98.1445	84.5057	98.1445	84.2136	98.1445	84.3397	98.1445	84.0508	98.1445	84.1293	98.1445	83.8542	98.1445	83.879	98.1445	83.6279	98.1445	83.6001	98.1445	83.3812	98.1445	83.3108	98.1445	83.1304	98.1445	83.036	98.1445	82.8983	98.1445	82.8041	98.1445	82.7113	98.1445	82.6422	98.1445	82.5955	98.1445	82.5702
101.074	84.7452	101.074	84.7639	101.074	84.7247	101.074	84.7798	101.074	84.7019	101.074	84.7901	101.074	84.6746	101.074	84.7906	101.074	84.6394	101.074	84.7755	101.074	84.5917	101.074	84.7379	101.074	84.5261	101.074	84.6703	101.074	84.4372	101.074	84.5654	101.074	84.3198	101.074	84.4175	101.074	84.1697	101.074	84.2234	101.074	83.9849	101.074	83.984	101.074	83.7663	101.074	83.7061	101.074	83.5192	101.074	83.4034	101.074	83.2539	101.074	83.0966	101.074	82.9866	101.074	82.8124	101.074	82.7391	101.074	82.5798	101.074	82.5371	101.074	82.4249	101.074	82.4059	101.074	82.3655
105.469	84.5268	105.469	84.5401	105.469	84.5231	105.469	84.5601	105.469	84.5295	105.469	84.5822	105.469	84.5446	105.469	84.6002	105.469	84.5644	105.469	84.6066	105.469	84.5825	105.469	84.5932	105.469	84.5907	105.469	84.5515	105.469	84.5793	105.469	84.4738	105.469	84.5381	105.469	84.354	105.469	84.4578	105.469	84.1889	105.469	84.3312	105.469	83.9795	105.469	84.1548	105.469	83.7328	105.469	83.9306	105.469	83.4622	105.469	83.668	105.469	83.1885	105.469	83.3844	105.469	82.9382	105.469	83.1054	105.469	82.7407	105.469	82.8625	105.469	82.623	105.469	82.6871	105.469	82.6036
108.398	84.7133	108.398	84.738	108.398	84.6942	108.398	84.7647	108.398	84.682	108.398	84.7884	108.398	84.6766	108.398	84.8028	108.398	84.675	108.398	84.8004	108.398	84.6725	108.398	84.773	108.398	84.6618	108.398	84.7125	108.398	84.6343	108.398	84.6114	108.398	84.5806	108.398	84.4643	108.398	84.4916	108.398	84.2687	108.398	84.3603	108.398	84.0271	108.398	84.1828	108.398	83.7484	108.398	83.9601	108.398	83.4491	108.398	83.6999	108.398	83.1535	108.398	83.4173	108.398	82.8915	108.398	83.1353	108.398	82.6945	108.398	82.8829	108.398	82.5885	108.398	82.6915	108.398	82.5879
112.793	84.8995	112.793	84.9354	112.793	84.8695	112.793	84.975	112.793	84.8459	112.793	85.0142	112.793	84.8273	112.793	85.0471	112.793	84.8104	112.793	85.0657	112.793	84.7904	112.793	85.0608	112.793	84.761	112.793	85.0224	112.793	84.7146	112.793	84.9407	112.793	84.6431	112.793	84.8076	112.793	84.5387	112.793	84.6181	112.793	84.3951	112.793	84.3726	112.793	84.209	112.793	84.0786	112.793	83.9817	112.793	83.7524	112.793	83.721	112.793	83.4195	112.793	83.4418	112.793	83.1129	112.793	83.1673	112.793	82.8686	112.793	82.9277	112.793	82.718	112.793	82.7557	112.793	82.6801
117.188	84.8054	117.188	84.8498	117.188	84.77	117.188	84.9008	117.188	84.7445	117.188	84.9537	117.188	84.7277	117.188	85.0025	117.188	84.7163	117.188	85.0392	117.188	84.705	117.188	85.0545	117.188	84.6866	117.188	85.0385	117.188	84.6528	117.188	84.9813	117.188	84.5948	117.188	84.8749	117.188	84.5048	117.188	84.7145	117.188	84.3769	117.188	84.5004	117.188	84.2091	117.188	84.2392	117.188	84.004	117.188	83.9457	117.188	83.7708	117.188	83.6427	117.188	83.5254	117.188	83.3594	117.188	83.2907	117.188	83.1275	117.188	83.0938	117.188	82.9748	117.188	82.9623	117.188	82.9188
120.117	84.7576	120.117	84.7969	120.117	84.7213	120.117	84.8361	120.117	84.6896	120.117	84.8715	120.117	84.6631	120.117	84.8981	120.117	84.6405	120.117	84.9094	120.117	84.6182	120.117	84.898	120.117	84.5902	120.117	84.8553	120.117	84.5487	120.117	84.7731	120.117	84.4845	120.117	84.6448	120.117	84.3889	120.117	84.4667	120.117	84.2553	120.117	84.2404	120.117	84.0807	120.117	83.9738	120.117	83.8678	120.117	83.6823	120.117	83.6263	120.117	83.3887	120.117	83.373	120.117	83.1207	120.117	83.1309	120.117	82.9073	120.117	82.927	120.117	82.7729	120.117	82.7872	120.117	82.7322
124.512	85.1243	124.512	85.1398	124.512	85.0996	124.512	85.1449	124.512	85.0664	124.512	85.1379	124.512	85.025	124.512	85.1159	124.512	84.9753	124.512	85.0747	124.512	84.9157	124.512	85.0089	124.512	84.843	124.512	84.9119	124.512	84.7522	124.512	84.7775	124.512	84.6368	124.512	84.6002	124.512	84.4895	124.512	84.3775	124.512	84.3044	124.512	84.1113	124.512	84.0782	124.512	83.809	124.512	83.8133	124.512	83.4852	124.512	83.5192	124.512	83.1618	124.512	83.2139	124.512	82.8668	124.512	82.9232	124.512	82.6311	124.512	82.6781	124.512	82.4826	124.512	82.5092	124.512	82.4404
128.906	84.9715	128.906	84.9648	128.906	84.9793	128.906	84.9588	128.906	84.986	128.906	84.951	128.906	84.988	128.906	84.9363	128.906	84.98	128.906	84.9072	128.906	84.9555	128.906	84.8539	128.906	84.907	128.906	84.7656	128.906	84.8266	128.906	84.6317	128.906	84.7065	128.906	84.4432	128.906	84.5397	128.906	84.1953	128.906	84.3214	128.906	83.889	128.906	84.0501	128.906	83.5336	128.906	83.7302	128.906	83.1485	128.906	83.3728	128.906	82.7633	128.906	82.9979	128.906	82.4159	128.906	82.6343	128.906	82.147	128.906	82.3178	128.906	81.9918	128.906	82.0859	128.906	81.9711
133.301	84.6543	133.301	84.6812	133.301	84.6348	133.301	84.7129	133.301	84.6232	133.301	84.745	133.301	84.6177	133.301	84.7708	133.301	84.6144	133.301	84.7822	133.301	84.6067	133.301	84.7691	133.301	84.5862	133.301	84.7206	133.301	84.5427	133.301	84.6258	133.301	84.4656	133.301	84.4752	133.301	84.345	133.301	84.2629	133.301	84.1732	133.301	83.9883	133.301	83.9467	133.301	83.659	133.301	83.668	133.301	83.2925	133.301	83.3473	133.301	82.9169	133.301	83.0048	133.301	82.5695	133.301	82.6698	133.301	82.2919	133.301	82.3793	133.301	82.121	133.301	82.1718	133.301	82.0799
139.16	84.3766	139.16	84.4453	139.16	84.321	139.16	84.5225	139.16	84.2814	139.16	84.6022	139.16	84.2582	139.16	84.677	139.16	84.2486	139.16	84.7374	139.16	84.2461	139.16	84.7722	139.16	84.2411	139.16	84.7691	139.16	84.2215	139.16	84.7154	139.16	84.1749	139.16	84.6005	139.16	84.0904	139.16	84.4177	139.16	83.9598	139.16	84.167	139.16	83.7796	139.16	83.8567	139.16	83.5526	139.16	83.5053	139.16	83.2887	139.16	83.1414	139.16	83.0064	139.16	82.8014	139.16	82.7321	139.16	82.5243	139.16	82.4981	139.16	82.3442	139.16	82.3383	139.16	82.2815
143.555	84.4978	143.555	84.5487	143.555	84.443	143.555	84.5914	143.555	84.3892	143.555	84.6226	143.555	84.3419	143.555	84.6393	143.555	84.3048	143.555	84.6373	143.555	84.2781	143.555	84.6113	143.555	84.2569	143.555	84.5539	143.555	84.2311	143.555	84.4572	143.555	84.1872	143.555	84.3139	143.555	84.1112	143.555	84.1201	143.555	83.9914	143.555	83.8772	143.555	83.8217	143.555	83.5945	143.555	83.6035	143.555	83.2892	143.555	83.347	143.555	82.9862	143.555	83.0717	143.555	82.7142	143.555	82.8043	143.555	82.5022	143.555	82.5756	143.555	82.374	143.555	82.4148	143.555	82.344
147.949	84.7783	147.949	84.8011	147.949	84.7455	147.949	84.8138	147.949	84.7028	147.949	84.8154	147.949	84.6516	147.949	84.8031	147.949	84.5936	147.949	84.7712	147.949	84.5302	147.949	84.711	147.949	84.4604	147.949	84.6115	147.949	84.3792	147.949	84.4614	147.949	84.2775	147.949	84.2509	147.949	84.1435	147.949	83.9749	147.949	83.9655	147.949	83.6363	147.949	83.7355	147.949	83.2486	147.949	83.4527	147.949	82.8379	147.949	83.1256	147.949	82.4413	147.949	82.7732	147.949	82.1014	147.949	82.4241	147.949	81.857	147.949	82.1131	147.949	81.7343	147.949	81.8759	147.949	81.7429
153.809	84.6682	153.809	84.6895	153.809	84.6387	153.809	84.7043	153.809	84.5982	153.809	84.7121	153.809	84.543	153.809	84.7101	153.809	84.4697	153.809	84.6924	153.809	84.3749	153.809	84.6499	153.809	84.2558	153.809	84.5711	153.809	84.1094	153.809	84.4432	153.809	83.9326	153.809	84.2542	153.809	83.7219	153.809	83.9958	153.809	83.4743	153.809	83.6667	153.809	83.1889	153.809	83.2752	153.809	82.8693	153.809	82.8419	153.809	82.5261	153.809	82.3999	153.809	82.1786	153.809	81.9912	153.809	81.855	153.809	81.66	153.809	81.589	153.809	81.4429	153.809	81.4147	153.809	81.3607
159.668	84.3962	159.668	84.4242	159.668	84.3766	159.668	84.4619	159.668	84.3622	159.668	84.508	159.668	84.348	159.668	84.5572	159.668	84.3275	159.668	84.5997	159.668	84.2925	159.668	84.6215	159.668	84.2333	159.668	84.6056	159.668	84.1394	159.668	84.5343	159.668	84.0009	159.668	84.3918	159.668	83.8095	159.668	84.1671	159.668	83.5604	159.668	83.8568	159.668	83.254	159.668	83.4678	159.668	82.8983	159.668	83.0198	159.668	82.5111	159.668	82.5462	159.668	82.1208	159.668	82.0918	159.668	81.7652	159.668	81.7059	159.668	81.4864	159.668	81.4327	159.668	81.3229	159.668	81.3017
165.527	84.1348	165.527	84.1372	165.527	84.1465	165.527	84.1535	165.527	84.1714	165.527	84.1814	165.527	84.2066	165.527	84.2164	165.527	84.2469	165.527	84.2503	165.527	84.2837	165.527	84.271	165.527	84.3051	165.527	84.2635	165.527	84.297	165.527	84.2118	165.527	84.2448	165.527	84.1018	165.527	84.1362	165.527	83.9241	165.527	83.9632	165.527	83.6773	165.527	83.7245	165.527	83.3696	165.527	83.4272	165.527	83.0203	165.527	83.0877	165.527	82.6589	165.527	82.7316	165.527	82.3227	165.527	82.3922	165.527	82.0515	165.527	82.1068	165.527	81.8801	165.527	81.9109	165.527	81.8313
171.387	83.9123	171.387	83.9068	171.387	83.9254	171.387	83.9076	171.387	83.9477	171.387	83.914	171.387	83.9803	171.387	83.9244	171.387	84.0221	171.387	83.9354	171.387	84.0685	171.387	83.9401	171.387	84.1098	171.387	83.9275	171.387	84.1326	171.387	83.884	171.387	84.1208	171.387	83.7953	171.387	84.0587	171.387	83.6504	171.387	83.9342	171.387	83.4453	171.387	83.7419	171.387	83.1869	171.387	83.4865	171.387	82.8944	171.387	83.184	171.387	82.5977	171.387	82.8613	171.387	82.3324	171.387	82.5519	171.387	82.1319	171.387	82.29	171.387	82.0204	171.387	82.1033	171.387	82.0105
177.246	84.0299	177.246	84.0829	177.246	83.9802	177.246	84.1369	177.246	83.9364	177.246	84.1887	177.246	83.9011	177.246	84.2332	177.246	83.8763	177.246	84.2616	177.246	83.8612	177.246	84.2618	177.246	83.8506	177.246	84.2191	177.246	83.8344	177.246	84.1187	177.246	83.7985	177.246	83.9487	177.246	83.7272	177.246	83.7033	177.246	83.6062	177.246	83.386	177.246	83.4252	177.246	83.012	177.246	83.1813	177.246	82.6095	177.246	82.8814	177.246	82.2177	177.246	82.5447	177.246	81.8808	177.246	82.2025	177.246	81.6385	177.246	81.8937	177.246	81.5169	177.246	81.6574	177.246	81.5252
183.105	84.0472	183.105	84.0911	183.105	83.9939	183.105	84.126	183.105	83.9317	183.105	84.1522	183.105	83.8622	183.105	84.1685	183.105	83.7873	183.105	84.1703	183.105	83.7073	183.105	84.1489	183.105	83.6199	183.105	84.0917	183.105	83.5188	183.105	83.9839	183.105	83.3952	183.105	83.8114	183.105	83.2396	183.105	83.5642	183.105	83.0455	183.105	83.2414	183.105	82.8121	183.105	82.8547	183.105	82.5456	183.105	82.4314	183.105	82.2594	183.105	82.0134	183.105	81.9716	183.105	81.6503	183.105	81.7029	183.105	81.3855	183.105	81.4742	183.105	81.2427	183.105	81.3065	183.105	81.2218
188.965	83.6627	188.965	83.7182	188.965	83.6158	188.965	83.782	188.965	83.577	188.965	83.8522	188.965	83.5448	188.965	83.9239	188.965	83.5155	188.965	83.9877	188.965	83.4826	188.965	84.0292	188.965	83.4355	188.965	84.0302	188.965	83.3605	188.965	83.9718	188.965	83.2425	188.965	83.8375	188.965	83.0673	188.965	83.6167	188.965	82.8258	188.965	83.3077	188.965	82.5173	188.965	82.9197	188.965	82.1535	188.965	82.4736	188.965	81.7601	188.965	82.0022	188.965	81.3745	188.965	81.5473	188.965	81.0405	188.965	81.1542	188.965	80.799	188.965	80.8628	188.965	80.6802	188.965	80.7007
196.289	83.5162	196.289	83.5353	196.289	83.4976	196.289	83.5583	196.289	83.4795	196.289	83.5905	196.289	83.4644	196.289	83.6354	196.289	83.4546	196.289	83.6903	196.289	83.4479	196.289	83.7438	196.289	83.4357	196.289	83.7763	196.289	83.4033	196.289	83.7639	196.289	83.3317	196.289	83.6839	196.289	83.2026	196.289	83.5201	196.289	83.0023	196.289	83.2674	196.289	82.7264	196.289	82.9343	196.289	82.384	196.289	82.5429	196.289	82.0002	196.289	82.1264	196.289	81.6153	196.289	81.7237	196.289	81.279	196.289	81.3727	196.289	81.0384	196.289	81.1063	196.289	80.9255	196.289	80.9508
203.613	83.4131	203.613	83.4194	203.613	83.3913	203.613	83.4116	203.613	83.3579	203.613	83.3952	203.613	83.3206	203.613	83.3775	203.613	83.2884	203.613	83.363	203.613	83.2668	203.613	83.3492	203.613	83.2545	203.613	83.324	203.613	83.2418	203.613	83.2675	203.613	83.2118	203.613	83.1576	203.613	83.1451	203.613	82.9776	203.613	83.0242	203.613	82.7235	203.613	82.8382	203.613	82.4082	203.613	82.5861	203.613	82.0613	203.613	82.2801	203.613	81.7221	203.613	81.9463	203.613	81.4295	203.613	81.6217	203.613	81.2128	203.613	81.3472	203.613	81.0894	203.613	81.1566	203.613	81.0691
210.938	83.3698	210.938	83.3878	210.938	83.3392	210.938	83.395	210.938	83.2977	210.938	83.3955	210.938	83.2513	210.938	83.3929	210.938	83.2075	210.938	83.3871	210.938	83.1719	210.938	83.3716	210.938	83.1434	210.938	83.3332	210.938	83.111	210.938	83.2534	210.938	83.0554	210.938	83.1136	210.938	82.9542	210.938	82.901	210.938	82.7891	210.938	82.6156	210.938	82.5539	210.938	82.274	210.938	82.2593	210.938	81.9095	210.938	81.9332	210.938	81.5656	210.938	81.6139	210.938	81.2828	210.938	81.3391	210.938	81.0855	210.938	81.1333	210.938	80.9781	210.938	81.0052	210.938	80.9535
218.262	83.1157	218.262	83.1204	218.262	83.0947	218.262	83.1133	218.262	83.0584	218.262	83.1025	218.262	83.0125	218.262	83.0958	218.262	82.9654	218.262	83.0965	218.262	82.9243	218.262	83.0997	218.262	82.8907	218.262	83.0904	218.262	82.8579	218.262	83.0464	218.262	82.8117	218.262	82.9429	218.262	82.7331	218.262	82.761	218.262	82.603	218.262	82.4941	218.262	82.4075	218.262	82.1545	218.262	82.1436	218.262	81.774	218.262	81.8236	218.262	81.3985	218.262	81.4775	218.262	81.0746	218.262	81.1492	218.262	80.8345	218.262	80.8841	218.262	80.6921	218.262	80.7142	218.262	80.6508
225.586	83.0014	225.586	83.06	225.586	82.9148	225.586	83.0942	225.586	82.8046	225.586	83.1136	225.586	82.6837	225.586	83.1288	225.586	82.5697	225.586	83.1459	225.586	82.479	225.586	83.1621	225.586	82.419	225.586	83.1637	225.586	82.3837	225.586	83.129	225.586	82.3552	225.586	83.0345	225.586	82.3101	225.586	82.8626	225.586	82.2281	225.586	82.6083	225.586	82.0973	225.586	82.2832	225.586	81.9176	225.586	81.9161	225.586	81.6997	225.586	81.5493	225.586	81.4633	225.586	81.2294	225.586	81.2335	225.586	80.9942	225.586	81.0369	225.586	80.8624	225.586	80.8973	225.586	80.8339
232.91	83.2475	232.91	83.2713	232.91	83.1885	232.91	83.2699	232.91	83.0899	232.91	83.2565	232.91	82.9541	232.91	83.243	232.91	82.7908	232.91	83.2359	232.91	82.6133	232.91	83.2321	232.91	82.434	232.91	83.2178	232.91	82.2593	232.91	83.1709	232.91	82.0866	232.91	83.0682	232.91	81.9076	232.91	82.8941	232.91	81.7156	232.91	82.6483	232.91	81.5133	232.91	82.3493	232.91	81.3158	232.91	82.0294	232.91	81.1466	232.91	81.7245	232.91	81.0252	232.91	81.4627	232.91	80.9587	232.91	81.2584	232.91	80.9407	232.91	81.1125	232.91	80.9614	232.91	81.017
241.699	83.3188	241.699	83.2497	241.699	83.3372	241.699	83.1423	241.699	83.302	241.699	83.0165	241.699	83.2191	241.699	82.8951	241.699	83.1001	241.699	82.7963	241.699	82.9569	241.699	82.7261	241.699	82.7961	241.699	82.6733	241.699	82.6156	241.699	82.6122	241.699	82.4048	241.699	82.512	241.699	82.1505	241.699	82.3497	241.699	81.8446	241.699	82.1232	241.699	81.4938	241.699	81.8564	241.699	81.1278	241.699	81.5926	241.699	80.8007	241.699	81.3733	241.699	80.5761	241.699	81.2132	241.699	80.495	241.699	81.0931	241.699	80.5484	241.699	80.9771	241.699	80.6836	241.699	80.8393
250.488	83.9054	250.488	83.8378	250.488	83.899	250.488	83.7029	250.488	83.8196	250.488	83.5154	250.488	83.6749	250.488	83.2963	250.488	83.4779	250.488	83.0678	250.488	83.2445	250.488	82.846	250.488	82.9895	250.488	82.6329	250.488	82.7212	250.488	82.4151	250.488	82.4371	250.488	82.1696	250.488	82.1251	250.488	81.8748	250.488	81.7723	250.488	81.5233	250.488	81.3776	250.488	81.1314	250.488	80.961	250.488	80.7401	250.488	80.5652	250.488	80.4033	250.488	80.2432	250.488	80.1634	250.488	80.0333	250.488	80.0268	250.488	79.9366	250.488	79.9636	250.488	79.9178	250.488	79.9332
259.277	83.8493	259.277	83.8501	259.277	83.7947	259.277	83.797	259.277	83.6934	259.277	83.6956	259.277	83.5579	259.277	83.5551	259.277	83.4021	259.277	83.3838	259.277	83.2361	259.277	83.1845	259.277	83.059	259.277	82.9515	259.277	82.857	259.277	82.672	259.277	82.6066	259.277	82.3317	259.277	82.2836	259.277	81.9248	259.277	81.8754	259.277	81.4644	259.277	81.392	259.277	80.9914	259.277	80.8751	259.277	80.5692	259.277	80.3969	259.277	80.2586	259.277	80.0381	259.277	80.0802	259.277	79.8463	259.277	80.0015	259.277	79.8057	259.277	79.9626	259.277	79.8516	259.277	79.9158
268.066	83.4625	268.066	83.383	268.066	83.5015	268.066	83.2687	268.066	83.4996	268.066	83.1301	268.066	83.4601	268.066	82.9797	268.066	83.3868	268.066	82.8252	268.066	83.282	268.066	82.6636	268.066	83.1424	268.066	82.4794	268.066	82.9546	268.066	82.2501	268.066	82.6925	268.066	81.9575	268.066	82.3216	268.066	81.5983	268.066	81.8117	268.066	81.1911	268.066	81.1559	268.066	80.775	268.066	80.3934	268.066	80.3963	268.066	79.6275	268.066	80.085	268.066	79.0147	268.066	79.8367	268.066	78.6915	268.066	79.6179	268.066	78.6768	268.066	79.3894	268.066	78.8668	268.066	79.1316
276.855	83.5546	276.855	83.5744	276.855	83.4984	276.855	83.5463	276.855	83.4222	276.855	83.4675	276.855	83.3385	276.855	83.3438	276.855	83.2488	276.855	83.1827	276.855	83.1402	276.855	82.9826	276.855	82.9924	276.855	82.7237	276.855	82.7868	276.855	82.3689	276.855	82.5149	276.855	81.88	276.855	82.1789	276.855	81.2446	276.855	81.7893	276.855	80.51	276.855	81.3626	276.855	79.8042	276.855	80.9217	276.855	79.299	276.855	80.493	276.855	79.087	276.855	80.1007	276.855	79.0967	276.855	79.7668	276.855	79.1789	276.855	79.5138	276.855	79.2402	276.855	79.3565	276.855	79.2816
287.109	83.1942	287.109	83.2098	287.109	83.1428	287.109	83.1944	287.109	83.0668	287.109	83.1603	287.109	82.9951	287.109	83.1173	287.109	82.9639	287.109	83.0644	287.109	82.9908	287.109	82.9846	287.109	83.051	287.109	82.8436	287.109	83.0731	287.109	82.5933	287.109	82.9629	287.109	82.1809	287.109	82.6344	287.109	81.5667	287.109	82.0357	287.109	80.7568	287.109	81.1736	287.109	79.8535	287.109	80.1494	287.109	79.0873	287.109	79.1902	287.109	78.7089	287.109	78.5808	287.109	78.7415	287.109	78.4436	287.109	78.9549	287.109	78.6322	287.109	79.1094	287.109	78.9062	287.109	79.0931
297.363	83.4192	297.363	83.4518	297.363	83.3608	297.363	83.4548	297.363	83.2815	297.363	83.432	297.363	83.183	297.363	83.3973	297.363	83.0634	297.363	83.3659	297.363	82.916	297.363	83.3377	297.363	82.7274	297.363	83.2859	297.363	82.4771	297.363	83.1597	297.363	82.1408	297.363	82.8976	297.363	81.6937	297.363	82.4413	297.363	81.1108	297.363	81.7479	297.363	80.3734	297.363	80.8159	297.363	79.4997	297.363	79.7466	297.363	78.6096	297.363	78.8113	297.363	77.9622	297.363	78.347	297.363	77.8029	297.363	78.3897	297.363	78.0747	297.363	78.6064	297.363	78.4576	297.363	78.6678
307.617	83.2289	307.617	83.2599	307.617	83.1483	307.617	83.2328	307.617	83.0468	307.617	83.1592	307.617	82.9649	307.617	83.0599	307.617	82.9393	307.617	82.9474	307.617	82.9857	307.617	82.8091	307.617	83.0826	307.617	82.6035	307.617	83.1635	307.617	82.2753	307.617	83.1291	307.617	81.7823	307.617	82.8756	307.617	81.1233	307.617	82.3233	307.617	80.3531	307.617	81.437	307.617	79.5723	307.617	80.2495	307.617	78.893	307.617	78.9089	307.617	78.4102	307.617	77.7426	307.617	78.1801	307.617	77.1648	307.617	78.1606	307.617	77.2696	307.617	78.1823	307.617	77.6956	307.617	78.051
319.336	82.5701	319.336	82.5351	319.336	82.536	319.336	82.4549	319.336	82.445	319.336	82.376	319.336	82.3472	319.336	82.3457	319.336	82.3106	319.336	82.3858	319.336	82.3812	319.336	82.4687	319.336	82.5467	319.336	82.5097	319.336	82.7352	319.336	82.3853	319.336	82.842	319.336	81.9644	319.336	82.7575	319.336	81.1404	319.336	82.3812	319.336	79.8725	319.336	81.6322	319.336	78.2787	319.336	80.4722	319.336	76.7907	319.336	78.9725	319.336	76.0542	319.336	77.4575	319.336	76.1975	319.336	76.5408	319.336	76.6991	319.336	76.5186	319.336	77.0952	319.336	76.9143	319.336	77.1768
329.59	81.6262	329.59	81.6313	329.59	81.5639	329.59	81.6268	329.59	81.4412	329.59	81.6899	329.59	81.3041	329.59	81.8915	329.59	81.2402	329.59	82.2468	329.59	81.3392	329.59	82.6892	329.59	81.6256	329.59	83.0923	329.59	82.0188	329.59	83.311	329.59	82.3647	329.59	83.2047	329.59	82.4979	329.59	82.6395	329.59	82.2761	329.59	81.4852	329.59	81.5837	329.59	79.6278	329.59	80.3217	329.59	77.0622	329.59	78.4131	329.59	74.3104	329.59	75.9004	329.59	72.9673	329.59	73.3984	329.59	73.4298	329.59	72.4839	329.59	74.0481	329.59	73.2273	329.59	73.9897
341.309	82.1225	341.309	82.0797	341.309	81.8933	341.309	81.8022	341.309	81.4065	341.309	81.3982	341.309	80.7404	341.309	81.074	341.309	80.0779	341.309	81.0788	341.309	79.7116	341.309	81.5098	341.309	79.8876	341.309	82.1965	341.309	80.5579	341.309	82.848	341.309	81.4131	341.309	83.2194	341.309	82.1321	341.309	83.1417	341.309	82.4973	341.309	82.4908	341.309	82.3768	341.309	81.1573	341.309	81.686	341.309	79.0289	341.309	80.3684	341.309	76.0353	341.309	78.4151	341.309	72.5552	341.309	75.982	341.309	70.5127	341.309	73.654	341.309	70.8884	341.309	72.2688	341.309	71.6319
353.027	83.2087	353.027	82.9277	353.027	83.2009	353.027	82.371	353.027	82.9021	353.027	81.5912	353.027	82.3273	353.027	80.7542	353.027	81.5483	353.027	80.2187	353.027	80.7604	353.027	80.3796	353.027	80.2981	353.027	81.203	353.027	80.4178	353.027	82.2318	353.027	80.9971	353.027	83.0523	353.027	81.6618	353.027	83.4477	353.027	82.0921	353.027	83.317	353.027	82.0931	353.027	82.5987	353.027	81.5412	353.027	81.2391	353.027	80.341	353.027	79.1984	353.027	78.419	353.027	76.5042	353.027	75.769	353.027	73.3999	353.027	72.641	353.027	70.5981	353.027	69.973	353.027	69.19
366.211	84.5902	366.211	84.4171	366.211	84.5429	366.211	84.0103	366.211	84.2713	366.211	83.346	366.211	83.7534	366.211	82.4084	366.211	82.9657	366.211	81.2472	366.211	81.94	366.211	80.1085	366.211	80.8807	366.211	79.5113	366.211	80.2393	366.211	79.7945	366.211	80.3783	366.211	80.5863	366.211	81.0693	366.211	81.3058	366.211	81.8003	366.211	81.6333	366.211	82.2396	366.211	81.4509	366.211	82.2465	366.211	80.7304	366.211	81.774	366.211	79.5102	366.211	80.8257	366.211	77.9378	366.211	79.4595	366.211	76.3515	366.211	77.8289	366.211	75.2961	366.211	76.2582	366.211	75.2612
379.395	84.6499	379.395	84.5967	379.395	84.5186	379.395	84.3657	379.395	84.1988	379.395	83.9581	379.395	83.6967	379.395	83.3718	379.395	83.0286	379.395	82.628	379.395	82.2241	379.395	81.827	379.395	81.3574	379.395	81.1957	379.395	80.6181	379.395	80.9902	379.395	80.3094	379.395	81.225	379.395	80.5832	379.395	81.6132	379.395	81.2076	379.395	81.8282	379.395	81.802	379.395	81.6815	379.395	82.1068	379.395	81.1397	379.395	82.0078	379.395	80.313	379.395	81.4968	379.395	79.4345	379.395	80.6686	379.395	78.7649	379.395	79.7291	379.395	78.4466	379.395	78.9438	379.395	78.5024
392.578	84.3595	392.578	84.1766	392.578	84.3595	392.578	83.7978	392.578	84.1649	392.578	83.2128	392.578	83.7351	392.578	82.4582	392.578	83.0212	392.578	81.674	392.578	82.017	392.578	81.1321	392.578	80.8453	392.578	81.1047	392.578	79.8526	392.578	81.5783	392.578	79.4897	392.578	82.2369	392.578	79.8347	392.578	82.7499	392.578	80.4949	392.578	82.9287	392.578	81.0604	392.578	82.7052	392.578	81.3103	392.578	82.0759	392.578	81.1702	392.578	81.0847	392.578	80.6635	392.578	79.8687	392.578	79.8924	392.578	78.7303	392.578	79.0335	392.578	78.0373	392.578	78.3123	392.578	77.9301
405.762	85.0883	405.762	84.7891	405.762	85.11	405.762	84.1973	405.762	84.8695	405.762	83.2881	405.762	84.384	405.762	82.0172	405.762	83.6622	405.762	80.3465	405.762	82.6915	405.762	78.416	405.762	81.452	405.762	77.0678	405.762	80.0189	405.762	77.5852	405.762	78.8035	405.762	79.3194	405.762	78.5322	405.762	80.91	405.762	79.2337	405.762	81.8943	405.762	80.0947	405.762	82.2302	405.762	80.5595	405.762	81.977	405.762	80.5128	405.762	81.2457	405.762	80.0519	405.762	80.2196	405.762	79.3579	405.762	79.1583	405.762	78.641	405.762	78.3439	405.762	78.1169	405.762	77.9811
420.41	84.4084	420.41	84.325	420.41	84.4129	420.41	84.1445	420.41	84.3314	420.41	83.821	420.41	84.1394	420.41	83.2831	420.41	83.8054	420.41	82.439	420.41	83.3039	420.41	81.1978	420.41	82.6289	420.41	79.5386	420.41	81.8077	420.41	77.7153	420.41	80.9087	420.41	76.5593	420.41	80.0345	420.41	76.8337	420.41	79.2839	420.41	77.9372	420.41	78.6862	420.41	78.9656	420.41	78.1712	420.41	79.5609	420.41	77.6441	420.41	79.6806	420.41	77.1239	420.41	79.4209	420.41	76.8044	420.41	78.947	420.41	76.8849	420.41	78.407	420.41	77.3085	420.41	77.856
435.059	84.5798	435.059	84.5645	435.059	84.4639	435.059	84.4078	435.059	84.2042	435.059	84.072	435.059	83.7796	435.059	83.4991	435.059	83.1778	435.059	82.6232	435.059	82.4131	435.059	81.3913	435.059	81.5411	435.059	79.8175	435.059	80.6712	435.059	78.1508	435.059	79.9868	435.059	77.0986	435.059	79.713	435.059	77.2352	435.059	79.8975	435.059	77.9808	435.059	80.2454	435.059	78.5162	435.059	80.3553	435.059	78.5508	435.059	79.9858	435.059	78.1497	435.059	79.1012	435.059	77.5325	435.059	77.8618	435.059	76.9095	435.059	76.6454	435.059	76.358	435.059	75.9452	435.059	75.9443
451.172	84.7343	451.172	84.7831	451.172	84.6033	451.172	84.7314	451.172	84.3866	451.172	84.5436	451.172	84.0573	451.172	84.1726	451.172	83.5706	451.172	83.5695	451.172	82.8841	451.172	82.6959	451.172	81.9921	451.172	81.5471	451.172	80.9657	451.172	80.1895	451.172	79.98	451.172	78.7764	451.172	79.2981	451.172	77.5051	451.172	79.1504	451.172	76.6115	451.172	79.4907	451.172	76.36	451.172	79.9446	451.172	76.7187	451.172	80.1095	451.172	77.2593	451.172	79.7922	451.172	77.6359	451.172	79.0677	451.172	77.7957	451.172	78.2864	451.172	77.8176	451.172	77.8514	451.172	77.7818
465.82	84.0403	465.82	84.1306	465.82	83.8752	465.82	84.1131	465.82	83.6607	465.82	83.9622	465.82	83.3973	465.82	83.6609	465.82	83.0491	465.82	83.1867	465.82	82.5492	465.82	82.4992	465.82	81.8331	465.82	81.5549	465.82	80.9072	465.82	80.377	465.82	79.9388	465.82	79.1761	465.82	79.2488	465.82	78.3433	465.82	79.0334	465.82	78.0284	465.82	79.1372	465.82	77.8934	465.82	79.2886	465.82	77.6046	465.82	79.3135	465.82	77.1574	465.82	79.0985	465.82	76.7327	465.82	78.5783	465.82	76.4605	465.82	77.8233	465.82	76.3843	465.82	77.0699	465.82	76.5654
483.398	83.6927	483.398	83.7031	483.398	83.614	483.398	83.6512	483.398	83.4475	483.398	83.5136	483.398	83.1834	483.398	83.2523	483.398	82.8133	483.398	82.8422	483.398	82.299	483.398	82.2778	483.398	81.5699	483.398	81.5663	483.398	80.5937	483.398	80.7195	483.398	79.5058	483.398	79.7194	483.398	78.6635	483.398	78.4839	483.398	78.3512	483.398	76.9909	483.398	78.4289	483.398	75.6887	483.398	78.5918	483.398	75.4932	483.398	78.7017	483.398	76.2729	483.398	78.7399	483.398	77.0797	483.398	78.6887	483.398	77.5786	483.398	78.5408	483.398	77.8794	483.398	78.3355	483.398	78.1148
499.512	84.2465	499.512	84.0403	499.512	84.2982	499.512	83.7534	499.512	84.1428	499.512	83.4252	499.512	83.7662	499.512	83.0222	499.512	83.1809	499.512	82.4845	499.512	82.4155	499.512	81.8075	499.512	81.5199	499.512	81.0482	499.512	80.5734	499.512	80.272	499.512	79.6933	499.512	79.5585	499.512	79.0557	499.512	78.9926	499.512	78.8379	499.512	78.4727	499.512	78.9791	499.512	77.6892	499.512	79.109	499.512	76.6007	499.512	78.8588	499.512	75.9251	499.512	78.1301	499.512	76.3079	499.512	77.1958	499.512	77.0277	499.512	76.6051	499.512	77.3027	499.512	76.6588	499.512	77.0623
517.09	84.5784	517.09	84.4364	517.09	84.5891	517.09	84.1353	517.09	84.4871	517.09	83.6804	517.09	84.2477	517.09	83.0911	517.09	83.8237	517.09	82.3564	517.09	83.1749	517.09	81.4581	517.09	82.2594	517.09	80.4826	517.09	81.0611	517.09	79.7053	517.09	79.7804	517.09	79.3961	517.09	79.0201	517.09	79.413	517.09	79.1493	517.09	79.2847	517.09	79.6071	517.09	78.6316	517.09	79.7689	517.09	77.3285	517.09	79.4463	517.09	75.5924	517.09	78.6929	517.09	74.2452	517.09	77.7094	517.09	74.2515	517.09	76.8496	517.09	75.1355	517.09	76.3378	517.09	75.8966
536.133	83.9952	536.133	83.8692	536.133	84.015	536.133	83.6493	536.133	83.9585	536.133	83.3868	536.133	83.8355	536.133	83.104	536.133	83.5805	536.133	82.7223	536.133	83.0897	536.133	82.077	536.133	82.288	536.133	81.0126	536.133	81.1076	536.133	79.4679	536.133	79.4248	536.133	77.5935	536.133	77.2258	536.133	76.0974	536.133	75.4806	536.133	76.0617	536.133	76.0271	536.133	77.0534	536.133	77.7422	536.133	77.8602	536.133	78.9843	536.133	78.1064	536.133	79.4883	536.133	77.9596	536.133	79.4032	536.133	77.7033	536.133	78.9272	536.133	77.5783	536.133	78.2887	536.133	77.7682
555.176	84.178	555.176	84.0679	555.176	84.1687	555.176	83.8824	555.176	84.0275	555.176	83.647	555.176	83.8348	555.176	83.3774	555.176	83.7013	555.176	83.0661	555.176	83.6006	555.176	82.6183	555.176	83.3506	555.176	81.8532	555.176	82.7588	555.176	80.6303	555.176	81.7077	555.176	79.0085	555.176	80.1272	555.176	77.3177	555.176	77.9719	555.176	75.9767	555.176	75.4993	555.176	75.2085	555.176	74.1002	555.176	75.0378	555.176	74.8884	555.176	75.335	555.176	76.2931	555.176	75.9425	555.176	77.2314	555.176	76.7282	555.176	77.6764	555.176	77.4322	555.176	77.8505	555.176	77.808
574.219	84.8402	574.219	84.5458	574.219	84.9475	574.219	84.13	574.219	84.7948	574.219	83.6463	574.219	84.3494	574.219	83.1618	574.219	83.6965	574.219	82.7944	574.219	83.0525	574.219	82.6227	574.219	82.5869	574.219	82.4842	574.219	82.1827	574.219	82.0421	574.219	81.5567	574.219	81.0573	574.219	80.5652	574.219	79.4604	574.219	79.286	574.219	77.2419	574.219	77.8701	574.219	74.6891	574.219	76.4219	574.219	73.6027	574.219	75.3169	574.219	75.0384	574.219	75.412	574.219	76.8225	574.219	76.6188	574.219	78.055	574.219	77.8776	574.219	78.7497	574.219	78.6742	574.219	78.9564
594.727	84.5522	594.727	84.5155	594.727	84.4328	594.727	84.244	594.727	84.2541	594.727	83.725	594.727	84.0503	594.727	83.0065	594.727	83.7503	594.727	82.1769	594.727	83.2405	594.727	81.4038	594.727	82.5078	594.727	80.9221	594.727	81.7266	594.727	80.7271	594.727	81.0714	594.727	80.4442	594.727	80.3785	594.727	79.7614	594.727	79.231	594.727	78.7228	594.727	77.3629	594.727	77.5413	594.727	75.0257	594.727	76.2481	594.727	73.4593	594.727	75.1914	594.727	74.0339	594.727	75.6353	594.727	75.7057	594.727	77.1129	594.727	77.0314	594.727	78.0413	594.727	77.7849	594.727	78.1564
615.234	84.2343	615.234	84.0932	615.234	84.2594	615.234	83.8491	615.234	84.1462	615.234	83.4874	615.234	83.8806	615.234	82.9969	615.234	83.4568	615.234	82.4034	615.234	82.904	615.234	81.7508	615.234	82.2914	615.234	81.0938	615.234	81.6453	615.234	80.5113	615.234	80.9258	615.234	79.9667	615.234	80.1422	615.234	79.1824	615.234	79.3129	615.234	77.8681	615.234	78.234	615.234	76.0056	615.234	76.6133	615.234	73.983	615.234	74.6227	615.234	72.5934	615.234	73.2048	615.234	72.5571	615.234	73.3279	615.234	73.8031	615.234	74.7127	615.234	75.3724	615.234	76.0138	615.234	76.2768
637.207	84.6926	637.207	84.5775	637.207	84.5622	637.207	84.2373	637.207	84.2096	637.207	83.7093	637.207	83.6748	637.207	82.9953	637.207	83.0023	637.207	82.1171	637.207	82.2451	637.207	81.2144	637.207	81.4602	637.207	80.4823	637.207	80.7201	637.207	80.0238	637.207	80.0994	637.207	79.7907	637.207	79.6014	637.207	79.4795	637.207	79.1331	637.207	78.6006	637.207	78.5003	637.207	76.7775	637.207	77.4156	637.207	73.9708	637.207	75.6129	637.207	71.4749	637.207	73.3293	637.207	72.9219	637.207	72.7334	637.207	75.8972	637.207	74.7026	637.207	77.5774	637.207	76.7114	637.207	77.7664
659.18	83.6012	659.18	83.6023	659.18	83.5109	659.18	83.4215	659.18	83.3915	659.18	83.0512	659.18	83.2333	659.18	82.5809	659.18	82.9925	659.18	82.0195	659.18	82.6048	659.18	81.2722	659.18	81.9717	659.18	80.3505	659.18	81.0138	659.18	79.3692	659.18	79.7915	659.18	78.4111	659.18	78.5216	659.18	77.6142	659.18	77.3896	659.18	76.9753	659.18	76.3807	659.18	75.9859	659.18	75.287	659.18	74.2726	659.18	73.8645	659.18	72.8141	659.18	72.2088	659.18	72.7823	659.18	71.1381	659.18	72.8927	659.18	71.3714	659.18	72.5274	659.18	72.0525	659.18	72.3069
682.617	83.7149	682.617	83.6378	682.617	83.612	682.617	83.375	682.617	83.3623	682.617	82.9415	682.617	82.9594	682.617	82.319	682.617	82.3972	682.617	81.5403	682.617	81.7584	682.617	80.8181	682.617	81.1866	682.617	80.4014	682.617	80.78	682.617	80.2048	682.617	80.4739	682.617	79.9238	682.617	80.0242	682.617	79.3974	682.617	79.2021	682.617	78.4943	682.617	77.9717	682.617	76.9132	682.617	76.4036	682.617	74.4221	682.617	74.3895	682.617	71.4906	682.617	71.7069	682.617	70.4378	682.617	70.1472	682.617	72.4806	682.617	72.4762	682.617	74.6981	682.617	74.8382	682.617	75.5901
707.52	84.7334	707.52	84.5526	707.52	84.6729	707.52	84.2156	707.52	84.3223	707.52	83.7173	707.52	83.7482	707.52	82.9849	707.52	83.0484	707.52	81.9794	707.52	82.2711	707.52	80.6967	707.52	81.4268	707.52	79.2438	707.52	80.481	707.52	78.3358	707.52	79.4585	707.52	78.7504	707.52	78.7397	707.52	79.5295	707.52	78.683	707.52	79.5262	707.52	78.7551	707.52	78.3215	707.52	78.1401	707.52	75.6921	707.52	76.3143	707.52	71.186	707.52	73.0535	707.52	68.1738	707.52	69.5321	707.52	73.0945	707.52	71.2509	707.52	76.2437	707.52	75.0017	707.52	76.8003
732.422	84.2756	732.422	84.2121	732.422	84.0931	732.422	83.8666	732.422	83.7309	732.422	83.3234	732.422	83.2912	732.422	82.7376	732.422	82.8543	732.422	82.0753	732.422	82.372	732.422	81.2001	732.422	81.7453	732.422	80.1854	732.422	80.9108	732.422	79.204	732.422	79.9005	732.422	78.3726	732.422	79.0344	732.422	77.975	732.422	78.6861	732.422	77.9024	732.422	78.5904	732.422	77.3204	732.422	78.1217	732.422	75.5058	732.422	76.7736	732.422	72.1596	732.422	73.9373	732.422	70.039	732.422	69.6392	732.422	72.4838	732.422	69.3072	732.422	73.9025	732.422	71.7357	732.422	73.377
757.324	84.2589	757.324	84.1721	757.324	84.22	757.324	83.9193	757.324	83.9851	757.324	83.4011	757.324	83.5007	757.324	82.5775	757.324	82.8906	757.324	81.5625	757.324	82.2291	757.324	80.4888	757.324	81.3267	757.324	79.3019	757.324	80.1974	757.324	78.1496	757.324	79.2028	757.324	77.7157	757.324	78.294	757.324	78.0088	757.324	77.4714	757.324	78.1235	757.324	77.5389	757.324	77.4111	757.324	77.8839	757.324	75.4791	757.324	76.9863	757.324	72.4311	757.324	74.536	757.324	70.5684	757.324	71.6256	757.324	71.2626	757.324	70.5637	757.324	72.3587	757.324	71.8413	757.324	72.7953
785.156	84.5907	785.156	84.2089	785.156	84.6337	785.156	83.7409	785.156	84.3081	785.156	83.292	785.156	83.7587	785.156	82.7626	785.156	83.0427	785.156	82.0767	785.156	82.2789	785.156	81.2031	785.156	81.6629	785.156	80.2365	785.156	81.0436	785.156	79.2403	785.156	80.22	785.156	77.8903	785.156	79.3031	785.156	76.4766	785.156	78.0429	785.156	76.4808	785.156	76.2555	785.156	76.6531	785.156	75.2762	785.156	74.7566	785.156	75.175	785.156	70.6084	785.156	73.4504	785.156	68.0761	785.156	68.6966	785.156	70.2778	785.156	70.2456	785.156	73.3373	785.156	73.8099	785.156	74.5789
811.523	84.8056	811.523	84.6832	811.523	84.6833	811.523	84.1727	811.523	84.2927	811.523	83.3819	811.523	83.578	811.523	82.5949	811.523	82.8027	811.523	81.7677	811.523	82.0679	811.523	80.7398	811.523	81.2791	811.523	79.5445	811.523	80.6513	811.523	78.4612	811.523	79.8962	811.523	78.1223	811.523	78.616	811.523	78.2984	811.523	78.0517	811.523	78.0532	811.523	78.602	811.523	77.4172	811.523	78.3455	811.523	76.4154	811.523	76.8402	811.523	73.5813	811.523	74.9129	811.523	68.4416	811.523	71.5611	811.523	70.9292	811.523	66.6996	811.523	73.5939	811.523	70.5361	811.523	73.4119
840.82	85.2257	840.82	85.0162	840.82	85.0751	840.82	84.5071	840.82	84.6274	840.82	83.7468	840.82	84.0142	840.82	82.763	840.82	83.223	840.82	81.5906	840.82	82.2405	840.82	80.4017	840.82	81.227	840.82	79.4738	840.82	80.324	840.82	78.3591	840.82	79.4612	840.82	76.4343	840.82	78.4069	840.82	75.7606	840.82	77.3529	840.82	77.245	840.82	77.1233	840.82	77.7048	840.82	77.1315	840.82	76.3375	840.82	76.1945	840.82	73.6628	840.82	73.8278	840.82	69.8727	840.82	69.7595	840.82	68.3162	840.82	69.2064	840.82	71.6844	840.82	72.1736	840.82	73.1568
870.117	85.3979	870.117	85.2516	870.117	85.2563	870.117	84.8188	870.117	84.819	870.117	83.908	870.117	84.1275	870.117	82.691	870.117	83.0677	870.117	81.9365	870.117	81.8795	870.117	81.3224	870.117	81.2387	870.117	79.6546	870.117	80.7145	870.117	77.8498	870.117	79.7252	870.117	77.5583	870.117	78.8556	870.117	76.4894	870.117	77.7048	870.117	75.6976	870.117	75.9143	870.117	77.4918	870.117	76.6745	870.117	77.1901	870.117	78.1879	870.117	73.1074	870.117	76.3897	870.117	67.3687	870.117	70.9146	870.117	66.2107	870.117	68.5919	870.117	70.249	870.117	70.2664	870.117	71.6292
900.879	85.9334	900.879	85.7182	900.879	85.8322	900.879	85.1805	900.879	85.4764	900.879	84.5333	900.879	84.7664	900.879	83.7362	900.879	83.8208	900.879	82.3916	900.879	82.7996	900.879	80.7358	900.879	81.4134	900.879	79.799	900.879	79.9707	900.879	78.7685	900.879	79.1438	900.879	76.3519	900.879	77.9434	900.879	75.7455	900.879	76.643	900.879	77.3605	900.879	77.4916	900.879	76.8714	900.879	78.115	900.879	75.7195	900.879	76.831	900.879	74.7756	900.879	75.1154	900.879	70.8326	900.879	72.8879	900.879	67.4669	900.879	69.5655	900.879	70.6748	900.879	72.3463	900.879	72.463
933.105	85.8981	933.105	85.7829	933.105	85.6865	933.105	85.302	933.105	85.111	933.105	84.3848	933.105	84.3714	933.105	83.3432	933.105	83.3816	933.105	82.3258	933.105	81.9528	933.105	80.934	933.105	80.6486	933.105	79.1036	933.105	79.5793	933.105	77.7888	933.105	78.3	933.105	77.2831	933.105	77.5179	933.105	76.4416	933.105	76.9999	933.105	75.8659	933.105	76.0226	933.105	76.9876	933.105	76.1526	933.105	77.5016	933.105	76.9255	933.105	74.9643	933.105	75.8766	933.105	69.1365	933.105	72.3215	933.105	67.8931	933.105	67.3178	933.105	72.0721	933.105	68.344	933.105	72.4575
965.332	86.0035	965.332	85.842	965.332	85.9698	965.332	85.4805	965.332	85.6508	965.332	84.8422	965.332	84.8478	965.332	83.7116	965.332	83.6346	965.332	82.1003	965.332	82.2559	965.332	80.5952	965.332	80.6676	965.332	79.6255	965.332	79.2793	965.332	78.7469	965.332	78.7672	965.332	77.5923	965.332	78.27	965.332	76.0187	965.332	76.9784	965.332	74.7985	965.332	75.6648	965.332	74.562	965.332	75.2452	965.332	73.624	965.332	75.0887	965.332	72.2133	965.332	72.7549	965.332	69.7121	965.332	69.2824	965.332	65.7625	965.332	67.4521	965.332	70.4898	965.332	69.6332	965.332	71.6458
1,000.49	85.7099	1,000.49	85.6398	1,000.49	85.2042	1,000.49	85.0436	1,000.49	84.6596	1,000.49	84.2238	1,000.49	84.2874	1,000.49	83.1743	1,000.49	83.4075	1,000.49	81.8078	1,000.49	81.6351	1,000.49	80.1219	1,000.49	79.7058	1,000.49	78.1211	1,000.49	78.3012	1,000.49	76.7219	1,000.49	77.0509	1,000.49	76.8122	1,000.49	76.2305	1,000.49	76.6857	1,000.49	76.117	1,000.49	76.0137	1,000.49	74.9801	1,000.49	76.9137	1,000.49	73.1832	1,000.49	78.1911	1,000.49	74.3377	1,000.49	76.6691	1,000.49	76.2148	1,000.49	70.9063	1,000.49	74.4306	1,000.49	68.7455	1,000.49	67.2304	1,000.49	73.1346	1,000.49	68.8671	1,000.49	72.8847
1,035.64	85.0452	1,035.64	84.7201	1,035.64	84.9758	1,035.64	84.1535	1,035.64	84.5342	1,035.64	83.5278	1,035.64	83.6985	1,035.64	82.7962	1,035.64	82.5971	1,035.64	81.6699	1,035.64	81.3983	1,035.64	79.9543	1,035.64	79.4747	1,035.64	78.1332	1,035.64	76.5512	1,035.64	76.8599	1,035.64	75.1882	1,035.64	75.346	1,035.64	75.7757	1,035.64	73.0651	1,035.64	73.7631	1,035.64	73.355	1,035.64	71.2416	1,035.64	75.1572	1,035.64	73.0363	1,035.64	74.2114	1,035.64	75.0342	1,035.64	73.2145	1,035.64	73.999	1,035.64	72.966	1,035.64	70.0975	1,035.64	69.7328	1,035.64	68.3243	1,035.64	70.524	1,035.64	70.5651	1,035.64	71.7378
1,072.27	85.0839	1,072.27	84.9746	1,072.27	84.8781	1,072.27	84.4055	1,072.27	84.6579	1,072.27	83.7125	1,072.27	84.0302	1,072.27	82.7097	1,072.27	83.0966	1,072.27	81.5575	1,072.27	82.0262	1,072.27	80.3719	1,072.27	80.441	1,072.27	78.5222	1,072.27	78.6072	1,072.27	76.1493	1,072.27	76.3022	1,072.27	73.1665	1,072.27	73.9158	1,072.27	71.809	1,072.27	73.3878	1,072.27	72.7959	1,072.27	72.1206	1,072.27	71.6737	1,072.27	70.8798	1,072.27	73.8079	1,072.27	70.589	1,072.27	75.2526	1,072.27	69.7077	1,072.27	69.3375	1,072.27	69.6869	1,072.27	68.3427	1,072.27	68.2177	1,072.27	70.5118	1,072.27	70.6211	1,072.27	70.6283
1,108.89	83.8448	1,108.89	83.6791	1,108.89	84.0665	1,108.89	83.6085	1,108.89	83.6056	1,108.89	82.7381	1,108.89	82.9945	1,108.89	81.7495	1,108.89	82.0953	1,108.89	81.1203	1,108.89	80.7601	1,108.89	80.0843	1,108.89	79.8522	1,108.89	78.3305	1,108.89	78.1936	1,108.89	75.8686	1,108.89	75.1751	1,108.89	74.3964	1,108.89	73.9485	1,108.89	73.925	1,108.89	73.3935	1,108.89	72.9707	1,108.89	71.4794	1,108.89	73.4592	1,108.89	70.5248	1,108.89	72.5919	1,108.89	72.2729	1,108.89	69.4745	1,108.89	73.4532	1,108.89	68.0369	1,108.89	69.4078	1,108.89	63.4629	1,108.89	64.071	1,108.89	62.3432	1,108.89	62.9737	1,108.89	62.083
1,148.44	84.1139	1,148.44	83.896	1,148.44	84.4857	1,148.44	83.6731	1,148.44	83.9457	1,148.44	82.8557	1,148.44	82.9309	1,148.44	81.9372	1,148.44	82.4377	1,148.44	80.8609	1,148.44	81.5116	1,148.44	79.2105	1,148.44	80.1147	1,148.44	78.1164	1,148.44	78.4812	1,148.44	76.9383	1,148.44	75.7463	1,148.44	74.4589	1,148.44	73.9726	1,148.44	72.5714	1,148.44	73.3696	1,148.44	70.8518	1,148.44	71.8683	1,148.44	71.1252	1,148.44	70.3346	1,148.44	72.8585	1,148.44	66.8244	1,148.44	73.5492	1,148.44	68.5839	1,148.44	71.1487	1,148.44	71.8697	1,148.44	68.4646	1,148.44	71.053	1,148.44	70.3446	1,148.44	70.1479	1,148.44	69.3342
1,189.45	84.0134	1,189.45	83.8304	1,189.45	83.7285	1,189.45	82.937	1,189.45	83.3501	1,189.45	81.7996	1,189.45	82.8925	1,189.45	80.7612	1,189.45	81.8173	1,189.45	79.4587	1,189.45	80.258	1,189.45	78.3788	1,189.45	79.1606	1,189.45	77.4836	1,189.45	77.989	1,189.45	75.7939	1,189.45	76.2339	1,189.45	73.1308	1,189.45	73.9187	1,189.45	71.6835	1,189.45	71.1654	1,189.45	72.5869	1,189.45	71.1503	1,189.45	71.3444	1,189.45	71.5856	1,189.45	70.2628	1,189.45	71.0425	1,189.45	69.7233	1,189.45	72.0861	1,189.45	66.9542	1,189.45	68.6513	1,189.45	62.6514	1,189.45	51.8911	1,189.45	63.1655	1,189.45	59.4437	1,189.45	66.6758
1,230.47	84.0169	1,230.47	83.7256	1,230.47	83.9145	1,230.47	83.3867	1,230.47	83.5768	1,230.47	82.7045	1,230.47	82.7689	1,230.47	81.5124	1,230.47	81.4525	1,230.47	80.3212	1,230.47	80.3903	1,230.47	78.96	1,230.47	79.3086	1,230.47	77.954	1,230.47	78.2866	1,230.47	76.1613	1,230.47	76.6702	1,230.47	72.0824	1,230.47	73.6163	1,230.47	72.3227	1,230.47	72.7581	1,230.47	70.5555	1,230.47	72.7009	1,230.47	68.9217	1,230.47	70.3935	1,230.47	72.3484	1,230.47	69.2503	1,230.47	71.9158	1,230.47	70.0472	1,230.47	70.8328	1,230.47	70.5554	1,230.47	67.858	1,230.47	70.1368	1,230.47	68.3415	1,230.47	68.7398	1,230.47	68.4334
1,274.41	84.5685	1,274.41	84.3421	1,274.41	84.4515	1,274.41	83.3882	1,274.41	83.9422	1,274.41	82.3051	1,274.41	82.7945	1,274.41	81.2566	1,274.41	81.4045	1,274.41	79.7378	1,274.41	80.5075	1,274.41	78.6132	1,274.41	79.7629	1,274.41	77.2417	1,274.41	77.7467	1,274.41	75.6975	1,274.41	75.5214	1,274.41	75.5976	1,274.41	74.5931	1,274.41	72.1767	1,274.41	72.0057	1,274.41	63.3298	1,274.41	69.1228	1,274.41	68.634	1,274.41	71.0904	1,274.41	70.1673	1,274.41	72.4417	1,274.41	71.1898	1,274.41	71.2432	1,274.41	69.6566	1,274.41	69.1331	1,274.41	68.1128	1,274.41	65.1325	1,274.41	69.7129	1,274.41	66.8883	1,274.41	69.4683
1,319.82	85.0746	1,319.82	84.5523	1,319.82	84.8095	1,319.82	83.7899	1,319.82	84.36	1,319.82	83.2716	1,319.82	83.0408	1,319.82	81.8748	1,319.82	81.3492	1,319.82	79.9604	1,319.82	80.0625	1,319.82	78.7896	1,319.82	78.6685	1,319.82	78.3385	1,319.82	77.7409	1,319.82	77.8394	1,319.82	76.5306	1,319.82	76.2393	1,319.82	75.2635	1,319.82	71.6684	1,319.82	73.3933	1,319.82	69.3062	1,319.82	71.8972	1,319.82	69.0556	1,319.82	70.0681	1,319.82	70.2609	1,319.82	68.6136	1,319.82	71.7415	1,319.82	72.0019	1,319.82	69.4402	1,319.82	70.1648	1,319.82	70.2581	1,319.82	64.9186	1,319.82	70.1677	1,319.82	67.1371	1,319.82	72.0921
1,366.7	84.8628	1,366.7	84.6049	1,366.7	84.0442	1,366.7	83.6676	1,366.7	83.0503	1,366.7	82.5529	1,366.7	82.6088	1,366.7	81.2911	1,366.7	81.3455	1,366.7	79.8967	1,366.7	79.8378	1,366.7	78.3571	1,366.7	78.0192	1,366.7	76.5378	1,366.7	75.9948	1,366.7	75.9951	1,366.7	75.9566	1,366.7	74.901	1,366.7	75.6509	1,366.7	72.6712	1,366.7	72.3444	1,366.7	70.7303	1,366.7	71.013	1,366.7	68.4866	1,366.7	71.727	1,366.7	70.1774	1,366.7	67.6697	1,366.7	71.7325	1,366.7	69.6073	1,366.7	70.5173	1,366.7	69.6168	1,366.7	69.0453	1,366.7	67.0603	1,366.7	71.9929	1,366.7	66.9061	1,366.7	70.7722
1,413.57	83.7605	1,413.57	84.0617	1,413.57	83.8036	1,413.57	83.8813	1,413.57	83.3007	1,413.57	82.4341	1,413.57	81.9652	1,413.57	81.2264	1,413.57	80.8418	1,413.57	80.739	1,413.57	80.0577	1,413.57	77.6325	1,413.57	79.1501	1,413.57	75.2166	1,413.57	77.2841	1,413.57	76.2279	1,413.57	76.0265	1,413.57	74.9996	1,413.57	75.3694	1,413.57	72.931	1,413.57	72.5832	1,413.57	71.3376	1,413.57	67.1358	1,413.57	71.4259	1,413.57	68.3117	1,413.57	68.8768	1,413.57	67.2975	1,413.57	67.619	1,413.57	70.937	1,413.57	65.8789	1,413.57	66.1828	1,413.57	67.6	1,413.57	59.3278	1,413.57	67.8953	1,413.57	65.8236	1,413.57	68.8807
1,463.38	83.2756	1,463.38	83.1096	1,463.38	82.9665	1,463.38	82.4311	1,463.38	82.5116	1,463.38	81.9582	1,463.38	81.0815	1,463.38	80.795	1,463.38	80.142	1,463.38	79.6832	1,463.38	78.9891	1,463.38	78.6176	1,463.38	76.0857	1,463.38	75.9138	1,463.38	75.5875	1,463.38	74.9463	1,463.38	73.5592	1,463.38	74.6492	1,463.38	72.6044	1,463.38	73.3605	1,463.38	69.6285	1,463.38	72.2971	1,463.38	70.8154	1,463.38	68.9459	1,463.38	70.5776	1,463.38	70.691	1,463.38	68.7099	1,463.38	70.584	1,463.38	68.7352	1,463.38	67.6636	1,463.38	70.716	1,463.38	67.9679	1,463.38	69.1979	1,463.38	71.006	1,463.38	67.6586	1,463.38	69.6208
1,516.11	81.9932	1,516.11	81.9184	1,516.11	82.4672	1,516.11	81.4905	1,516.11	81.5882	1,516.11	80.0841	1,516.11	80.4773	1,516.11	79.7099	1,516.11	79.5204	1,516.11	78.5968	1,516.11	78.0831	1,516.11	77.4942	1,516.11	77.0851	1,516.11	76.3041	1,516.11	76.047	1,516.11	74.5548	1,516.11	72.2896	1,516.11	74.0386	1,516.11	72.1136	1,516.11	72.3523	1,516.11	72.4861	1,516.11	70.1443	1,516.11	69.5933	1,516.11	67.0474	1,516.11	67.0578	1,516.11	67.4017	1,516.11	67.8025	1,516.11	67.9061	1,516.11	62.4075	1,516.11	65.1242	1,516.11	66.6074	1,516.11	63.8822	1,516.11	63.978	1,516.11	68.7365	1,516.11	61.1775	1,516.11	70.6897
1,568.85	81.6282	1,568.85	81.309	1,568.85	81.6004	1,568.85	80.5634	1,568.85	81.1505	1,568.85	79.6513	1,568.85	79.7222	1,568.85	78.1949	1,568.85	80.2225	1,568.85	78.3898	1,568.85	77.3026	1,568.85	77.134	1,568.85	75.7348	1,568.85	74.7478	1,568.85	75.5392	1,568.85	71.6878	1,568.85	71.6645	1,568.85	70.121	1,568.85	72.643	1,568.85	70.8705	1,568.85	71.1748	1,568.85	71.6393	1,568.85	66.5429	1,568.85	68.8964	1,568.85	67.8039	1,568.85	65.9184	1,568.85	66.3707	1,568.85	66.0769	1,568.85	65.6341	1,568.85	57.6075	1,568.85	68.1848	1,568.85	57.9494	1,568.85	58.9271	1,568.85	66.7322	1,568.85	59.9983	1,568.85	64.9956
1,624.51	81.7786	1,624.51	81.2822	1,624.51	81.6636	1,624.51	81.0659	1,624.51	80.7609	1,624.51	80.6331	1,624.51	79.7804	1,624.51	79.1014	1,624.51	80.232	1,624.51	77.8319	1,624.51	78.8906	1,624.51	76.4008	1,624.51	77.3981	1,624.51	75.3331	1,624.51	75.0145	1,624.51	73.2057	1,624.51	74.4292	1,624.51	71.6276	1,624.51	73.243	1,624.51	69.7349	1,624.51	71.8961	1,624.51	67.7176	1,624.51	70.2079	1,624.51	65.9361	1,624.51	69.1387	1,624.51	66.2223	1,624.51	66.6728	1,624.51	69.6239	1,624.51	69.8735	1,624.51	63.7445	1,624.51	65.9538	1,624.51	59.744	1,624.51	68.1294	1,624.51	66.6366	1,624.51	63.8707	1,624.51	68.0767
1,681.64	82.2306	1,681.64	81.9552	1,681.64	82.5036	1,681.64	82.4103	1,681.64	81.4397	1,681.64	81.0093	1,681.64	80.8409	1,681.64	79.642	1,681.64	79.052	1,681.64	78.5754	1,681.64	77.3264	1,681.64	76.436	1,681.64	77.793	1,681.64	75.4275	1,681.64	76.0089	1,681.64	73.3063	1,681.64	74.8122	1,681.64	73.1177	1,681.64	71.2862	1,681.64	70.9678	1,681.64	72.3623	1,681.64	69.7311	1,681.64	69.7832	1,681.64	69.452	1,681.64	69.7166	1,681.64	71.2344	1,681.64	69.3619	1,681.64	71.7498	1,681.64	65.8913	1,681.64	69.1925	1,681.64	68.1615	1,681.64	64.8463	1,681.64	66.7114	1,681.64	64.3661	1,681.64	65.7549	1,681.64	66.3643
1,741.7	82.2744	1,741.7	82.2274	1,741.7	82.1798	1,741.7	82.2537	1,741.7	81.9305	1,741.7	81.242	1,741.7	80.7984	1,741.7	81.1664	1,741.7	78.9494	1,741.7	79.6699	1,741.7	78.6201	1,741.7	77.4746	1,741.7	76.6942	1,741.7	76.5735	1,741.7	77.3604	1,741.7	73.9601	1,741.7	73.9409	1,741.7	72.9675	1,741.7	70.341	1,741.7	70.2038	1,741.7	72.735	1,741.7	66.7992	1,741.7	64.8616	1,741.7	66.1885	1,741.7	66.4498	1,741.7	68.9398	1,741.7	68.8783	1,741.7	62.8862	1,741.7	66.6084	1,741.7	69.5541	1,741.7	65.3161	1,741.7	59.127	1,741.7	66.0643	1,741.7	67.4869	1,741.7	67.2011	1,741.7	68.0362
1,803.22	81.5821	1,803.22	83.0769	1,803.22	80.6441	1,803.22	81.4539	1,803.22	80.6611	1,803.22	80.8259	1,803.22	80.2181	1,803.22	80.8745	1,803.22	76.881	1,803.22	79.9962	1,803.22	77.5339	1,803.22	78.2708	1,803.22	76.6591	1,803.22	75.728	1,803.22	74.8034	1,803.22	74.2188	1,803.22	73.8621	1,803.22	72.4891	1,803.22	70.639	1,803.22	71.918	1,803.22	71.4627	1,803.22	70.3008	1,803.22	70.4376	1,803.22	67.2212	1,803.22	68.3918	1,803.22	64.198	1,803.22	64.2632	1,803.22	68.1923	1,803.22	64.0259	1,803.22	69.7366	1,803.22	68.3395	1,803.22	66.9817	1,803.22	60.3029	1,803.22	67.974	1,803.22	64.4824	1,803.22	69.474
1,866.21	80.8996	1,866.21	81.2773	1,866.21	80.8396	1,866.21	80.9113	1,866.21	80.1267	1,866.21	80.1512	1,866.21	78.2647	1,866.21	79.3579	1,866.21	76.4783	1,866.21	78.2123	1,866.21	76.0273	1,866.21	77.0015	1,866.21	76.3425	1,866.21	75.6721	1,866.21	73.2869	1,866.21	74.8411	1,866.21	73.3295	1,866.21	72.8795	1,866.21	67.7184	1,866.21	73.0665	1,866.21	68.4983	1,866.21	70.5248	1,866.21	69.2761	1,866.21	65.4017	1,866.21	65.7504	1,866.21	67.1048	1,866.21	70.3238	1,866.21	66.2955	1,866.21	65.5	1,866.21	61.7368	1,866.21	66.8846	1,866.21	65.0814	1,866.21	62.1672	1,866.21	68.4474	1,866.21	60.6314	1,866.21	68.9343
1,932.13	81.3413	1,932.13	80.8824	1,932.13	80.5659	1,932.13	80.3696	1,932.13	80.4987	1,932.13	80.3144	1,932.13	79.7976	1,932.13	80.0017	1,932.13	78.808	1,932.13	76.2094	1,932.13	77.4411	1,932.13	75.2779	1,932.13	75.8217	1,932.13	75.0047	1,932.13	72.8659	1,932.13	71.7103	1,932.13	71.0451	1,932.13	70.4875	1,932.13	71.089	1,932.13	72.1028	1,932.13	69.3709	1,932.13	67.167	1,932.13	65.5902	1,932.13	66.1323	1,932.13	67.2084	1,932.13	66.4756	1,932.13	63.2953	1,932.13	70.9644	1,932.13	68.7803	1,932.13	71.86	1,932.13	68.5473	1,932.13	62.4864	1,932.13	64.1645	1,932.13	66.4357	1,932.13	59.5728	1,932.13	68.8772
1,999.51	82.5928	1,999.51	82.6406	1,999.51	80.882	1,999.51	81.1621	1,999.51	81.3495	1,999.51	80.5624	1,999.51	81.3358	1,999.51	80.4924	1,999.51	80.8488	1,999.51	77.7045	1,999.51	78.8639	1,999.51	76.3612	1,999.51	77.0956	1,999.51	74.4521	1,999.51	74.677	1,999.51	74.4916	1,999.51	75.8241	1,999.51	69.3294	1,999.51	71.0699	1,999.51	71.9796	1,999.51	67.629	1,999.51	67.8125	1,999.51	71.2469	1,999.51	66.7659	1,999.51	70.4029	1,999.51	70.4517	1,999.51	66.1714	1,999.51	70.9414	1,999.51	68.8365	1,999.51	67.3299	1,999.51	70.9257	1,999.51	62.1485	1,999.51	64.8701	1,999.51	68.1486	1,999.51	56.2221	1,999.51	69.4555
2,069.82	83.1018	2,069.82	82.702	2,069.82	82.7055	2,069.82	81.0167	2,069.82	82.7944	2,069.82	81.8194	2,069.82	81.9797	2,069.82	80.9012	2,069.82	81.729	2,069.82	78.8425	2,069.82	80.1393	2,069.82	78.8379	2,069.82	77.0098	2,069.82	75.498	2,069.82	76.2038	2,069.82	74.8304	2,069.82	72.8646	2,069.82	73.4471	2,069.82	71.2679	2,069.82	68.9249	2,069.82	72.5307	2,069.82	69.8277	2,069.82	68.0997	2,069.82	69.1444	2,069.82	65.7738	2,069.82	66.8601	2,069.82	67.5914	2,069.82	68.8959	2,069.82	71.4014	2,069.82	72.4921	2,069.82	65.7727	2,069.82	61.8925	2,069.82	70.1912	2,069.82	71.3733	2,069.82	51.0822	2,069.82	68.2213
2,143.07	82.8856	2,143.07	83.1055	2,143.07	82.0982	2,143.07	81.645	2,143.07	82.7311	2,143.07	82.7962	2,143.07	82.2723	2,143.07	81.3645	2,143.07	80.4254	2,143.07	79.2389	2,143.07	80.1581	2,143.07	79.1316	2,143.07	77.2512	2,143.07	77.6559	2,143.07	76.2972	2,143.07	75.056	2,143.07	74.2888	2,143.07	73.3207	2,143.07	71.9958	2,143.07	70.6139	2,143.07	71.7115	2,143.07	70.9426	2,143.07	66.6969	2,143.07	61.0191	2,143.07	69.0336	2,143.07	50.486	2,143.07	62.6047	2,143.07	65.0281	2,143.07	66.6454	2,143.07	68.2692	2,143.07	64.3854	2,143.07	58.0034	2,143.07	69.5373	2,143.07	62.3148	2,143.07	61.9932	2,143.07	63.2766
2,219.24	82.7917	2,219.24	82.2904	2,219.24	82.3546	2,219.24	82.6975	2,219.24	81.6422	2,219.24	81.9311	2,219.24	80.7017	2,219.24	81.2638	2,219.24	77.8909	2,219.24	79.1064	2,219.24	78.5061	2,219.24	78.8924	2,219.24	77.8808	2,219.24	77.1493	2,219.24	75.5693	2,219.24	74.3644	2,219.24	71.425	2,219.24	71.9079	2,219.24	69.2033	2,219.24	66.4199	2,219.24	66.2096	2,219.24	68.5153	2,219.24	70.2325	2,219.24	70.0439	2,219.24	70.1571	2,219.24	66.029	2,219.24	59.8313	2,219.24	68.3572	2,219.24	65.6402	2,219.24	65.4596	2,219.24	58.9475	2,219.24	54.8581	2,219.24	63.9824	2,219.24	63.3709	2,219.24	56.6944	2,219.24	64.7764
2,296.88	82.53	2,296.88	82.6855	2,296.88	81.9824	2,296.88	81.9085	2,296.88	82.2724	2,296.88	82.3724	2,296.88	80.4314	2,296.88	80.8298	2,296.88	80.7687	2,296.88	79.1892	2,296.88	78.2736	2,296.88	77.4914	2,296.88	77.2265	2,296.88	75.5165	2,296.88	74.0622	2,296.88	72.8285	2,296.88	71.2225	2,296.88	72.4858	2,296.88	68.7353	2,296.88	69.026	2,296.88	70.052	2,296.88	66.8674	2,296.88	69.0686	2,296.88	67.7972	2,296.88	72.1752	2,296.88	66.384	2,296.88	63.7566	2,296.88	67.1029	2,296.88	65.11	2,296.88	69.7654	2,296.88	64.1347	2,296.88	63.4179	2,296.88	63.7066	2,296.88	66.5913	2,296.88	55.1169	2,296.88	60.2824
2,378.91	81.9983	2,378.91	82.0708	2,378.91	81.6198	2,378.91	82.6077	2,378.91	83.0727	2,378.91	81.3138	2,378.91	82.4326	2,378.91	79.5025	2,378.91	81.3543	2,378.91	78.6543	2,378.91	79.7111	2,378.91	75.9882	2,378.91	76.852	2,378.91	73.8663	2,378.91	75.4911	2,378.91	73.5905	2,378.91	73.2856	2,378.91	74.6278	2,378.91	70.9657	2,378.91	69.4915	2,378.91	72.1835	2,378.91	67.7261	2,378.91	65.9944	2,378.91	63.7337	2,378.91	64.2354	2,378.91	59.5526	2,378.91	58.7542	2,378.91	61.0932	2,378.91	69.1996	2,378.91	67.5882	2,378.91	69.4167	2,378.91	62.3537	2,378.91	67.6237	2,378.91	69.1524	2,378.91	63.958	2,378.91	65.7696
2,462.4	83.5457	2,462.4	83.8536	2,462.4	83.6615	2,462.4	83.6172	2,462.4	83.4252	2,462.4	82.9074	2,462.4	83.121	2,462.4	81.5109	2,462.4	81.8838	2,462.4	80.3867	2,462.4	80.0761	2,462.4	78.2615	2,462.4	78.477	2,462.4	75.4192	2,462.4	75.8999	2,462.4	74.6989	2,462.4	74.346	2,462.4	72.9388	2,462.4	71.7254	2,462.4	69.776	2,462.4	69.202	2,462.4	67.9999	2,462.4	66.9162	2,462.4	66.1923	2,462.4	66.8058	2,462.4	63.3271	2,462.4	64.1427	2,462.4	63.3491	2,462.4	61.6253	2,462.4	61.6295	2,462.4	60.0427	2,462.4	59.2698	2,462.4	62.6502	2,462.4	60.9517	2,462.4	54.3828	2,462.4	64.693
2,548.83	82.7976	2,548.83	83.2645	2,548.83	82.712	2,548.83	83.1604	2,548.83	82.5472	2,548.83	83.0314	2,548.83	82.0234	2,548.83	82.1226	2,548.83	80.6739	2,548.83	80.906	2,548.83	78.8959	2,548.83	79.4927	2,548.83	76.6387	2,548.83	77.8152	2,548.83	74.2225	2,548.83	76.4281	2,548.83	72.3322	2,548.83	72.8998	2,548.83	70.116	2,548.83	70.477	2,548.83	67.7479	2,548.83	66.7249	2,548.83	65.3325	2,548.83	67.8667	2,548.83	64.3711	2,548.83	63.7474	2,548.83	65.3522	2,548.83	63.2397	2,548.83	58.9625	2,548.83	64.8162	2,548.83	61.3835	2,548.83	62.677	2,548.83	62.359	2,548.83	61.2914	2,548.83	49.7722	2,548.83	65.3988
2,639.65	82.1171	2,639.65	82.3251	2,639.65	81.8447	2,639.65	82.1265	2,639.65	81.7743	2,639.65	82.0749	2,639.65	80.9016	2,639.65	80.8667	2,639.65	80.0305	2,639.65	79.2914	2,639.65	78.063	2,639.65	78.5477	2,639.65	75.4061	2,639.65	76.5051	2,639.65	72.7082	2,639.65	73.8331	2,639.65	71.2359	2,639.65	72.6063	2,639.65	69.8765	2,639.65	70.8515	2,639.65	66.4425	2,639.65	64.8381	2,639.65	65.8028	2,639.65	68.8189	2,639.65	62.779	2,639.65	63.7622	2,639.65	66.4076	2,639.65	63.5396	2,639.65	59.2502	2,639.65	62.7678	2,639.65	63.2005	2,639.65	57.3202	2,639.65	59.8966	2,639.65	60.4833	2,639.65	53.4613	2,639.65	61.0671
2,731.93	82.1172	2,731.93	81.7413	2,731.93	82.0512	2,731.93	82.134	2,731.93	81.8899	2,731.93	81.8947	2,731.93	81.0986	2,731.93	80.6055	2,731.93	79.774	2,731.93	78.1216	2,731.93	77.3734	2,731.93	76.926	2,731.93	75.1676	2,731.93	75.0588	2,731.93	72.418	2,731.93	70.3611	2,731.93	70.4318	2,731.93	70.9948	2,731.93	68.4857	2,731.93	68.0634	2,731.93	67.4813	2,731.93	63.6561	2,731.93	65.9388	2,731.93	67.1545	2,731.93	60.9186	2,731.93	63.4646	2,731.93	64.1422	2,731.93	63.3891	2,731.93	60.8974	2,731.93	64	2,731.93	62.4818	2,731.93	60.4579	2,731.93	59.1248	2,731.93	63.9971	2,731.93	55.5156	2,731.93	61.998
2,828.61	81.8957	2,828.61	81.8678	2,828.61	82.701	2,828.61	82.22	2,828.61	82.0091	2,828.61	81.5525	2,828.61	81.2297	2,828.61	80.8348	2,828.61	79.3829	2,828.61	79.4477	2,828.61	77.0079	2,828.61	76.7875	2,828.61	74.0953	2,828.61	73.4308	2,828.61	71.8427	2,828.61	71.2789	2,828.61	70.3009	2,828.61	69.6044	2,828.61	68.1255	2,828.61	68.5886	2,828.61	67.9135	2,828.61	65.2369	2,828.61	63.6572	2,828.61	64.1592	2,828.61	62.9309	2,828.61	63.0337	2,828.61	60.196	2,828.61	63.0129	2,828.61	54.445	2,828.61	59.2705	2,828.61	58.2924	2,828.61	55.9256	2,828.61	58.3995	2,828.61	61.0513	2,828.61	53.2762	2,828.61	58.245
2,928.22	82.6796	2,928.22	82.6808	2,928.22	82.9613	2,928.22	82.6623	2,928.22	82.3297	2,928.22	82.1902	2,928.22	81.0789	2,928.22	81.6149	2,928.22	78.7651	2,928.22	80.3848	2,928.22	76.5858	2,928.22	77.4389	2,928.22	74.1492	2,928.22	75.0206	2,928.22	71.1035	2,928.22	73.7691	2,928.22	68.7998	2,928.22	70.1066	2,928.22	66.5208	2,928.22	68.3934	2,928.22	66.3805	2,928.22	66.7787	2,928.22	63.453	2,928.22	63.6976	2,928.22	62.741	2,928.22	64.6509	2,928.22	60.5939	2,928.22	60.761	2,928.22	62.128	2,928.22	59.4873	2,928.22	55.3451	2,928.22	58.2816	2,928.22	49.5326	2,928.22	62.1356	2,928.22	58.884	2,928.22	55.8825
3,030.76	83.0554	3,030.76	82.9697	3,030.76	83.2105	3,030.76	82.5269	3,030.76	82.252	3,030.76	82.2605	3,030.76	80.904	3,030.76	81.4463	3,030.76	78.1249	3,030.76	80.0917	3,030.76	75.0944	3,030.76	77.3527	3,030.76	72.3626	3,030.76	75.6202	3,030.76	70.7664	3,030.76	73.2726	3,030.76	68.7136	3,030.76	69.3427	3,030.76	67.763	3,030.76	67.5949	3,030.76	64.9322	3,030.76	65.9558	3,030.76	65.6422	3,030.76	65.31	3,030.76	65.6653	3,030.76	62.2143	3,030.76	62.3114	3,030.76	61.5474	3,030.76	63.0643	3,030.76	54.1562	3,030.76	60.7753	3,030.76	54.3391	3,030.76	57.3628	3,030.76	57.3717	3,030.76	57.6713	3,030.76	54.2538
3,137.7	82.9425	3,137.7	83.0652	3,137.7	82.3294	3,137.7	82.8333	3,137.7	82.011	3,137.7	82.4905	3,137.7	80.2463	3,137.7	81.7214	3,137.7	78.1819	3,137.7	79.8067	3,137.7	75.6741	3,137.7	78.1006	3,137.7	74.4107	3,137.7	76.6295	3,137.7	73.2225	3,137.7	73.3615	3,137.7	71.6855	3,137.7	70.7767	3,137.7	71.1034	3,137.7	66.2777	3,137.7	68.7902	3,137.7	66.1429	3,137.7	68.3164	3,137.7	64.2836	3,137.7	66.9185	3,137.7	62.9745	3,137.7	66.1948	3,137.7	64.2242	3,137.7	64.8765	3,137.7	61.9015	3,137.7	63.8325	3,137.7	50.4021	3,137.7	61.1848	3,137.7	54.5951	3,137.7	59.9623	3,137.7	45.0864
3,249.02	83.2155	3,249.02	82.5999	3,249.02	82.8092	3,249.02	82.3148	3,249.02	82.0913	3,249.02	82.0759	3,249.02	80.6883	3,249.02	81.1148	3,249.02	79.1598	3,249.02	79.294	3,249.02	77.5725	3,249.02	77.6597	3,249.02	76.4008	3,249.02	76.3225	3,249.02	74.8829	3,249.02	73.077	3,249.02	73.593	3,249.02	70.8663	3,249.02	72.5441	3,249.02	68.1398	3,249.02	70.375	3,249.02	66.2552	3,249.02	69.5648	3,249.02	64.6112	3,249.02	67.6698	3,249.02	63.1315	3,249.02	67.432	3,249.02	61.8234	3,249.02	65.8302	3,249.02	62.753	3,249.02	64.5051	3,249.02	59.6244	3,249.02	61.6082	3,249.02	57.885	3,249.02	60.552	3,249.02	47.0275
3,363.28	82.6974	3,363.28	82.7913	3,363.28	82.176	3,363.28	82.6073	3,363.28	81.9975	3,363.28	82.2989	3,363.28	80.5698	3,363.28	81.4271	3,363.28	78.8974	3,363.28	78.988	3,363.28	77.8086	3,363.28	77.2797	3,363.28	77.0267	3,363.28	74.2244	3,363.28	76.1124	3,363.28	71.6803	3,363.28	74.2265	3,363.28	69.5421	3,363.28	71.4645	3,363.28	68.1407	3,363.28	69.9389	3,363.28	66.656	3,363.28	69.0764	3,363.28	61.1795	3,363.28	66.602	3,363.28	60.7064	3,363.28	66.0135	3,363.28	63.0445	3,363.28	64.9765	3,363.28	62.3238	3,363.28	65.0567	3,363.28	58.794	3,363.28	62.6886	3,363.28	59.0627	3,363.28	59.1822	3,363.28	52.6106
3,481.93	82.4784	3,481.93	82.286	3,481.93	82.6149	3,481.93	82.5354	3,481.93	81.4176	3,481.93	82.5696	3,481.93	80.6138	3,481.93	81.3236	3,481.93	79.5081	3,481.93	80.1229	3,481.93	79.3275	3,481.93	78.1942	3,481.93	77.9332	3,481.93	75.4232	3,481.93	77.2042	3,481.93	73.1393	3,481.93	75.9741	3,481.93	70.6833	3,481.93	73.798	3,481.93	68.5486	3,481.93	71.309	3,481.93	67.2835	3,481.93	70.0421	3,481.93	64.7558	3,481.93	67.2919	3,481.93	63.8328	3,481.93	67.148	3,481.93	64.3413	3,481.93	64.9906	3,481.93	63.1827	3,481.93	65.5754	3,481.93	59.2625	3,481.93	62.3557	3,481.93	55.0763	3,481.93	59.0706	3,481.93	51.679
3,604.98	82.763	3,604.98	82.7077	3,604.98	83.291	3,604.98	82.9012	3,604.98	82.5516	3,604.98	82.8903	3,604.98	81.8395	3,604.98	81.7911	3,604.98	81.2463	3,604.98	80.9744	3,604.98	81.2376	3,604.98	79.2923	3,604.98	80.3493	3,604.98	76.4651	3,604.98	79.3666	3,604.98	74.1759	3,604.98	78.0878	3,604.98	72.4574	3,604.98	75.4706	3,604.98	70.6446	3,604.98	73.9146	3,604.98	67.8821	3,604.98	71.0211	3,604.98	65.7959	3,604.98	69.801	3,604.98	64.5706	3,604.98	69.7247	3,604.98	65.0307	3,604.98	65.5008	3,604.98	61.5278	3,604.98	66.9158	3,604.98	61.4958	3,604.98	64.5744	3,604.98	58.0722	3,604.98	60.3024	3,604.98	51.3
3,732.42	82.7884	3,732.42	83.136	3,732.42	82.4862	3,732.42	83.1523	3,732.42	82.5849	3,732.42	82.8615	3,732.42	81.7353	3,732.42	82.8557	3,732.42	81.9903	3,732.42	82.0912	3,732.42	81.3967	3,732.42	80.2457	3,732.42	80.399	3,732.42	78.1059	3,732.42	79.4688	3,732.42	75.3336	3,732.42	77.2947	3,732.42	73.5453	3,732.42	75.072	3,732.42	70.8617	3,732.42	73.3671	3,732.42	68.3015	3,732.42	70.4283	3,732.42	66.461	3,732.42	68.8436	3,732.42	66.3247	3,732.42	68.8478	3,732.42	62.5187	3,732.42	65.6019	3,732.42	62.0604	3,732.42	65.6589	3,732.42	61.4842	3,732.42	65.6325	3,732.42	60.4098	3,732.42	60.1357	3,732.42	47.5386
3,864.26	80.8571	3,864.26	81.2337	3,864.26	79.925	3,864.26	81.8418	3,864.26	80.112	3,864.26	82.0358	3,864.26	79.7265	3,864.26	82.5393	3,864.26	79.7723	3,864.26	81.2954	3,864.26	79.3474	3,864.26	79.7528	3,864.26	79.0074	3,864.26	77.678	3,864.26	78.2191	3,864.26	75.408	3,864.26	75.5594	3,864.26	73.7297	3,864.26	74.0534	3,864.26	70.447	3,864.26	72.0851	3,864.26	68.516	3,864.26	69.1817	3,864.26	67.8647	3,864.26	65.0493	3,864.26	67.0235	3,864.26	66.9592	3,864.26	62.8584	3,864.26	63.9118	3,864.26	64.0777	3,864.26	63.1879	3,864.26	62.5373	3,864.26	63.567	3,864.26	59.6649	3,864.26	56.1742	3,864.26	52.4308
4,000.49	81.382	4,000.49	80.8101	4,000.49	81.3177	4,000.49	80.8931	4,000.49	79.6704	4,000.49	81.2608	4,000.49	79.7512	4,000.49	80.9528	4,000.49	79.9551	4,000.49	79.7596	4,000.49	79.9792	4,000.49	78.5404	4,000.49	79.5946	4,000.49	76.821	4,000.49	77.9941	4,000.49	73.8254	4,000.49	74.4272	4,000.49	71.5483	4,000.49	72.9487	4,000.49	69.2942	4,000.49	72.0711	4,000.49	66.6957	4,000.49	69.25	4,000.49	65.9448	4,000.49	68.5083	4,000.49	63.6185	4,000.49	68.1553	4,000.49	63.1059	4,000.49	64.0742	4,000.49	62.2913	4,000.49	61.4112	4,000.49	61.9347	4,000.49	62.3486	4,000.49	58.8314	4,000.49	57.3785	4,000.49	53.7816
4,141.11	81.566	4,141.11	81.1866	4,141.11	81.025	4,141.11	81.2	4,141.11	79.5796	4,141.11	81.2549	4,141.11	79.6579	4,141.11	80.4691	4,141.11	80.4992	4,141.11	80.3164	4,141.11	80.3032	4,141.11	79.1924	4,141.11	79.0734	4,141.11	77.6749	4,141.11	77.1863	4,141.11	75.3493	4,141.11	75.4732	4,141.11	71.9769	4,141.11	73.5978	4,141.11	68.7533	4,141.11	71.2305	4,141.11	66.425	4,141.11	69.4002	4,141.11	65.3175	4,141.11	67.7443	4,141.11	64.95	4,141.11	65.521	4,141.11	60.5083	4,141.11	62.8864	4,141.11	61.4175	4,141.11	64.1219	4,141.11	59.3877	4,141.11	63.9249	4,141.11	58.0986	4,141.11	52.0506	4,141.11	43.03
4,287.6	80.1466	4,287.6	81.0251	4,287.6	79.0732	4,287.6	79.5363	4,287.6	79.4683	4,287.6	79.8773	4,287.6	79.5378	4,287.6	80.6671	4,287.6	80.642	4,287.6	80.3497	4,287.6	80.6775	4,287.6	79.205	4,287.6	79.1253	4,287.6	77.6397	4,287.6	77.1421	4,287.6	75.2647	4,287.6	75.5233	4,287.6	71.1198	4,287.6	73.8105	4,287.6	68.8759	4,287.6	71.0135	4,287.6	67.6762	4,287.6	70.0117	4,287.6	66.6892	4,287.6	67.7469	4,287.6	64.6942	4,287.6	64.8522	4,287.6	64.0701	4,287.6	63.523	4,287.6	62.8239	4,287.6	64.7707	4,287.6	61.0623	4,287.6	63.5981	4,287.6	57.2284	4,287.6	58.4944	4,287.6	54.977
4,438.48	81.3856	4,438.48	81.604	4,438.48	80.7085	4,438.48	80.6839	4,438.48	79.9872	4,438.48	79.9629	4,438.48	81.004	4,438.48	81.1862	4,438.48	80.4831	4,438.48	80.9714	4,438.48	79.664	4,438.48	78.8652	4,438.48	79.3484	4,438.48	76.2399	4,438.48	77.7	4,438.48	73.5357	4,438.48	76.5431	4,438.48	71.0855	4,438.48	73.6419	4,438.48	70.7072	4,438.48	71.5922	4,438.48	66.3809	4,438.48	69.6347	4,438.48	63.6856	4,438.48	68.9804	4,438.48	59.4099	4,438.48	65.7501	4,438.48	62.4852	4,438.48	63.9849	4,438.48	62.5613	4,438.48	61.3979	4,438.48	59.8026	4,438.48	63.3781	4,438.48	57.7862	4,438.48	59.7539	4,438.48	57.1612
4,595.21	80.532	4,595.21	80.3857	4,595.21	79.4888	4,595.21	80.6395	4,595.21	78.3373	4,595.21	79.0602	4,595.21	78.8755	4,595.21	79.7423	4,595.21	79.9707	4,595.21	79.9554	4,595.21	79.7694	4,595.21	78.518	4,595.21	79.0098	4,595.21	76.5477	4,595.21	77.5763	4,595.21	74.9604	4,595.21	75.6239	4,595.21	71.0516	4,595.21	73.7074	4,595.21	70.1301	4,595.21	70.3054	4,595.21	66.6403	4,595.21	68.9283	4,595.21	61.9581	4,595.21	67.046	4,595.21	60.5222	4,595.21	64.8977	4,595.21	57.1236	4,595.21	64.7961	4,595.21	59.0783	4,595.21	63.8503	4,595.21	58.975	4,595.21	64.3043	4,595.21	55.334	4,595.21	58.8911	4,595.21	54.6997
4,756.35	79.6651	4,756.35	80.6719	4,756.35	78.5308	4,756.35	78.2346	4,756.35	79.3525	4,756.35	78.1571	4,756.35	79.0439	4,756.35	77.6839	4,756.35	80.6778	4,756.35	77.7226	4,756.35	81.0691	4,756.35	77.4074	4,756.35	79.5562	4,756.35	75.6665	4,756.35	77.5857	4,756.35	71.9793	4,756.35	76.3667	4,756.35	69.5067	4,756.35	73.2605	4,756.35	65.5647	4,756.35	70.1763	4,756.35	65.449	4,756.35	68.2626	4,756.35	66.0007	4,756.35	66.7237	4,756.35	62.3571	4,756.35	65.2524	4,756.35	58.6792	4,756.35	65.3529	4,756.35	62.291	4,756.35	64.1062	4,756.35	58.9951	4,756.35	63.165	4,756.35	50.3454	4,756.35	58.4282	4,756.35	57.05
4,924.8	79.8952	4,924.8	80.2184	4,924.8	79.6197	4,924.8	80.4323	4,924.8	78.4033	4,924.8	79.0699	4,924.8	80.4241	4,924.8	79.9444	4,924.8	80.151	4,924.8	79.7005	4,924.8	79.8516	4,924.8	79.2113	4,924.8	79.6613	4,924.8	76.4894	4,924.8	78.0686	4,924.8	73.7741	4,924.8	74.5285	4,924.8	71.3465	4,924.8	73.3208	4,924.8	67.6276	4,924.8	71.2926	4,924.8	65.9703	4,924.8	68.1089	4,924.8	60.7168	4,924.8	67.0462	4,924.8	61.4646	4,924.8	63.2456	4,924.8	59.5241	4,924.8	64.7	4,924.8	59.7234	4,924.8	62.5697	4,924.8	58.4346	4,924.8	62.43	4,924.8	55.2429	4,924.8	59.5233	4,924.8	54
5,097.66	81.1317	5,097.66	81.4996	5,097.66	80.0902	5,097.66	81.5509	5,097.66	81.0173	5,097.66	80.7578	5,097.66	81.1093	5,097.66	80.8963	5,097.66	81.9673	5,097.66	80.678	5,097.66	81.6943	5,097.66	79.1526	5,097.66	80.4466	5,097.66	76.6535	5,097.66	78.7174	5,097.66	75.2935	5,097.66	76.8699	5,097.66	72.3727	5,097.66	73.6491	5,097.66	72.0918	5,097.66	71.945	5,097.66	67.8225	5,097.66	69.1397	5,097.66	66.2238	5,097.66	67.1356	5,097.66	62.465	5,097.66	65.2746	5,097.66	61.4371	5,097.66	65.4445	5,097.66	61.7698	5,097.66	63.5451	5,097.66	62.4216	5,097.66	64.5813	5,097.66	58.2408	5,097.66	59.542	5,097.66	56.303
5,277.83	82.1677	5,277.83	82.9558	5,277.83	81.5685	5,277.83	82.4813	5,277.83	81.8273	5,277.83	81.8901	5,277.83	82.1902	5,277.83	81.6401	5,277.83	82.3682	5,277.83	81.5836	5,277.83	82.6545	5,277.83	80.5529	5,277.83	81.3136	5,277.83	78.3765	5,277.83	79.3485	5,277.83	74.4479	5,277.83	77.114	5,277.83	71.4516	5,277.83	73.7027	5,277.83	65.5324	5,277.83	71.9032	5,277.83	66.0652	5,277.83	69.6423	5,277.83	64.7276	5,277.83	67.4454	5,277.83	62.5168	5,277.83	63.8821	5,277.83	56.8319	5,277.83	64.4482	5,277.83	62.6708	5,277.83	62.1545	5,277.83	60.8176	5,277.83	63.4758	5,277.83	55.6449	5,277.83	61.5051	5,277.83	56.1693
5,463.87	82.9343	5,463.87	83.3239	5,463.87	83.1455	5,463.87	82.8524	5,463.87	82.4426	5,463.87	81.9091	5,463.87	83.0276	5,463.87	82.0081	5,463.87	82.4178	5,463.87	81.6458	5,463.87	81.807	5,463.87	80.3675	5,463.87	81.1884	5,463.87	78.8615	5,463.87	79.4358	5,463.87	74.7586	5,463.87	75.2965	5,463.87	73.1423	5,463.87	73.2293	5,463.87	68.1633	5,463.87	70.5439	5,463.87	67.3985	5,463.87	68.9303	5,463.87	64.0642	5,463.87	65.8013	5,463.87	61.9472	5,463.87	63.4402	5,463.87	60.4011	5,463.87	65.7108	5,463.87	62.5564	5,463.87	61.9275	5,463.87	62.3782	5,463.87	62.4266	5,463.87	58.9639	5,463.87	59.8587	5,463.87	56.6343
5,657.23	82.9654	5,657.23	83.3252	5,657.23	82.2697	5,657.23	83.3173	5,657.23	82.5214	5,657.23	82.8349	5,657.23	81.7898	5,657.23	82.2238	5,657.23	82.3456	5,657.23	81.3085	5,657.23	81.9632	5,657.23	79.2221	5,657.23	80.0798	5,657.23	75.7729	5,657.23	77.1268	5,657.23	73.0219	5,657.23	75.8484	5,657.23	69.8065	5,657.23	73.1132	5,657.23	68.1287	5,657.23	70.0156	5,657.23	64.6163	5,657.23	67.6423	5,657.23	63.4608	5,657.23	66.6702	5,657.23	62.1569	5,657.23	63.791	5,657.23	64.2378	5,657.23	64.0128	5,657.23	62.087	5,657.23	62.497	5,657.23	57.9905	5,657.23	62.9498	5,657.23	56.5378	5,657.23	61.8737	5,657.23	55.0494
5,856.45	81.8846	5,856.45	81.9881	5,856.45	82.1913	5,856.45	82.197	5,856.45	81.7131	5,856.45	81.8144	5,856.45	82.0599	5,856.45	81.1963	5,856.45	81.9435	5,856.45	80.6444	5,856.45	81.3972	5,856.45	78.8517	5,856.45	79.7427	5,856.45	77.1378	5,856.45	78.1744	5,856.45	73.8614	5,856.45	75.2327	5,856.45	70.3349	5,856.45	72.628	5,856.45	67.7198	5,856.45	68.9152	5,856.45	64.4935	5,856.45	67.9493	5,856.45	62.8685	5,856.45	64.9392	5,856.45	62.1481	5,856.45	65.4967	5,856.45	59.6727	5,856.45	62.8927	5,856.45	58.6824	5,856.45	61.0479	5,856.45	57.6853	5,856.45	62.2241	5,856.45	56.3601	5,856.45	59.517	5,856.45	50.9134
6,062.99	82.206	6,062.99	82.8088	6,062.99	82.0872	6,062.99	83.2397	6,062.99	81.8266	6,062.99	82.5483	6,062.99	81.9455	6,062.99	81.5989	6,062.99	82.2372	6,062.99	80.3201	6,062.99	80.9422	6,062.99	78.6787	6,062.99	79.3642	6,062.99	76.6329	6,062.99	76.9608	6,062.99	72.3089	6,062.99	75.0905	6,062.99	68.1477	6,062.99	72.8908	6,062.99	66.74	6,062.99	69.9509	6,062.99	62.826	6,062.99	67.5805	6,062.99	59.7278	6,062.99	66.2083	6,062.99	63.3235	6,062.99	64.6836	6,062.99	58.4496	6,062.99	62.7659	6,062.99	60.1748	6,062.99	61.2848	6,062.99	57.8437	6,062.99	62.8121	6,062.99	55.4109	6,062.99	59.8464	6,062.99	52.5119
6,276.86	82.1154	6,276.86	82.3434	6,276.86	82.2396	6,276.86	82.3312	6,276.86	81.7282	6,276.86	81.5652	6,276.86	81.0251	6,276.86	80.6034	6,276.86	81.6552	6,276.86	79.3162	6,276.86	80.8177	6,276.86	77.834	6,276.86	78.2499	6,276.86	74.9097	6,276.86	75.8231	6,276.86	72.6826	6,276.86	74.8919	6,276.86	69.3857	6,276.86	71.8495	6,276.86	67.7128	6,276.86	68.6866	6,276.86	64.7595	6,276.86	66.4015	6,276.86	61.8202	6,276.86	65.1268	6,276.86	62.1366	6,276.86	64.2075	6,276.86	62.1625	6,276.86	61.9664	6,276.86	59.4494	6,276.86	60.513	6,276.86	55.9118	6,276.86	60.9093	6,276.86	53.8247	6,276.86	57.5911	6,276.86	51.2503
6,498.05	82.4907	6,498.05	82.5984	6,498.05	82.6919	6,498.05	82.6817	6,498.05	81.7627	6,498.05	81.8594	6,498.05	81.8733	6,498.05	80.2377	6,498.05	81.2884	6,498.05	79.2595	6,498.05	80.1199	6,498.05	77.5347	6,498.05	78.9518	6,498.05	74.838	6,498.05	77.2089	6,498.05	72.0773	6,498.05	74.8399	6,498.05	68.4376	6,498.05	71.6294	6,498.05	66.627	6,498.05	69.4226	6,498.05	63.7099	6,498.05	66.4985	6,498.05	60.3183	6,498.05	63.9261	6,498.05	59.039	6,498.05	62.521	6,498.05	58.3298	6,498.05	60.4773	6,498.05	58.3442	6,498.05	57.4553	6,498.05	57.3733	6,498.05	59.9354	6,498.05	54.6972	6,498.05	58.2221	6,498.05	48.5233
6,726.56	82.5225	6,726.56	82.0594	6,726.56	82.0651	6,726.56	82.5942	6,726.56	81.9558	6,726.56	81.1247	6,726.56	80.9172	6,726.56	79.7242	6,726.56	80.6744	6,726.56	78.4918	6,726.56	79.4394	6,726.56	77.6272	6,726.56	77.832	6,726.56	75.6348	6,726.56	75.8697	6,726.56	73.232	6,726.56	73.5744	6,726.56	70.5127	6,726.56	70.0076	6,726.56	67.5254	6,726.56	68.3525	6,726.56	65.341	6,726.56	64.2194	6,726.56	61.7249	6,726.56	63.7777	6,726.56	61.2969	6,726.56	61.9399	6,726.56	59.0293	6,726.56	59.6482	6,726.56	57.9185	6,726.56	59.221	6,726.56	56.5335	6,726.56	58.916	6,726.56	50.877	6,726.56	56.4632	6,726.56	47.7526
6,963.87	81.5722	6,963.87	81.3564	6,963.87	81.9978	6,963.87	81.4102	6,963.87	81.1464	6,963.87	79.6707	6,963.87	80.5118	6,963.87	77.3762	6,963.87	79.1801	6,963.87	76.1528	6,963.87	78.4684	6,963.87	75.838	6,963.87	77.0234	6,963.87	73.587	6,963.87	75.6973	6,963.87	70.0616	6,963.87	70.8836	6,963.87	67.2153	6,963.87	68.4799	6,963.87	65.0593	6,963.87	66.0702	6,963.87	61.9869	6,963.87	63.4457	6,963.87	55.3279	6,963.87	61.5479	6,963.87	56.7158	6,963.87	61.1276	6,963.87	57.6132	6,963.87	57.9627	6,963.87	56.1266	6,963.87	55.5994	6,963.87	53.5709	6,963.87	58.0976	6,963.87	52.4733	6,963.87	57.1661	6,963.87	47.8724
7,209.96	82.9121	7,209.96	82.0949	7,209.96	83.1859	7,209.96	81.4105	7,209.96	82.5963	7,209.96	78.7788	7,209.96	81.6901	7,209.96	76.1008	7,209.96	80.6139	7,209.96	75.7548	7,209.96	79.4507	7,209.96	73.2334	7,209.96	78.8875	7,209.96	71.7701	7,209.96	76.9116	7,209.96	69.7546	7,209.96	74.4039	7,209.96	67.6322	7,209.96	71.8607	7,209.96	60.9959	7,209.96	69.1432	7,209.96	62.4398	7,209.96	66.325	7,209.96	59.7576	7,209.96	63.0746	7,209.96	56.0751	7,209.96	61.6246	7,209.96	54.6065	7,209.96	61.3124	7,209.96	50.5935	7,209.96	59.881	7,209.96	55.3597	7,209.96	61.7398	7,209.96	52.6555	7,209.96	58.7078	7,209.96	52.5006
7,464.84	84.8578	7,464.84	84.3248	7,464.84	84.9809	7,464.84	83.4053	7,464.84	84.0123	7,464.84	81.369	7,464.84	82.3976	7,464.84	79.9743	7,464.84	80.962	7,464.84	79.4697	7,464.84	80.5929	7,464.84	78.6698	7,464.84	78.8623	7,464.84	76.5212	7,464.84	76.7846	7,464.84	73.2391	7,464.84	74.5235	7,464.84	69.7407	7,464.84	72.2314	7,464.84	64.2423	7,464.84	69.1852	7,464.84	61.9093	7,464.84	66.016	7,464.84	61.8899	7,464.84	64.8767	7,464.84	61.5534	7,464.84	61.6165	7,464.84	59.4839	7,464.84	60.5821	7,464.84	58.3955	7,464.84	58.4381	7,464.84	57.9518	7,464.84	60.9006	7,464.84	51.2719	7,464.84	58.9971	7,464.84	54.8758
7,727.05	86.3837	7,727.05	85.6765	7,727.05	86.0165	7,727.05	84.4201	7,727.05	85.349	7,727.05	82.13	7,727.05	83.2692	7,727.05	80.9525	7,727.05	82.1849	7,727.05	80.5291	7,727.05	81.2884	7,727.05	79.2779	7,727.05	79.9111	7,727.05	76.9438	7,727.05	77.8591	7,727.05	74.5211	7,727.05	76.4755	7,727.05	70.0778	7,727.05	73.0292	7,727.05	66.8273	7,727.05	69.7987	7,727.05	64.328	7,727.05	67.1515	7,727.05	61.658	7,727.05	64.684	7,727.05	61.5636	7,727.05	60.9114	7,727.05	58.6496	7,727.05	60.7867	7,727.05	57.4943	7,727.05	60.0439	7,727.05	58.018	7,727.05	62.6019	7,727.05	56.7611	7,727.05	58.5683	7,727.05	54.8587
7,999.51	85.9905	7,999.51	85.2673	7,999.51	85.5782	7,999.51	83.8092	7,999.51	84.6254	7,999.51	82.4697	7,999.51	82.372	7,999.51	81.742	7,999.51	81.645	7,999.51	80.9613	7,999.51	80.3907	7,999.51	80.1255	7,999.51	79.2551	7,999.51	77.7971	7,999.51	77.1987	7,999.51	75.1569	7,999.51	74.812	7,999.51	70.9533	7,999.51	71.1084	7,999.51	67.3223	7,999.51	68.2243	7,999.51	64.6157	7,999.51	65.5014	7,999.51	61.7969	7,999.51	63.5745	7,999.51	61.8919	7,999.51	60.8339	7,999.51	57.8657	7,999.51	59.8353	7,999.51	56.78	7,999.51	58.2403	7,999.51	57.5957	7,999.51	59.8225	7,999.51	56.0463	7,999.51	58.4136	7,999.51	52.2957
8,282.23	85.5502	8,282.23	84.9066	8,282.23	85.1441	8,282.23	83.4132	8,282.23	83.9468	8,282.23	82.2718	8,282.23	81.9704	8,282.23	80.9772	8,282.23	80.8614	8,282.23	80.1337	8,282.23	79.6718	8,282.23	79.06	8,282.23	78.6217	8,282.23	76.5644	8,282.23	76.3654	8,282.23	73.3033	8,282.23	73.4015	8,282.23	68.2745	8,282.23	69.9116	8,282.23	65.8904	8,282.23	66.5995	8,282.23	62.8308	8,282.23	64.5041	8,282.23	61.1394	8,282.23	61.522	8,282.23	59.26	8,282.23	57.2757	8,282.23	56.5563	8,282.23	56.9156	8,282.23	55.1132	8,282.23	57.1307	8,282.23	55.1465	8,282.23	59.1109	8,282.23	53.4906	8,282.23	54.905	8,282.23	52.7583
8,573.73	85.0956	8,573.73	84.6693	8,573.73	84.7125	8,573.73	82.791	8,573.73	83.1689	8,573.73	81.6812	8,573.73	81.3515	8,573.73	80.0169	8,573.73	80.1919	8,573.73	79.0808	8,573.73	79.4403	8,573.73	77.4693	8,573.73	77.7936	8,573.73	75.4443	8,573.73	75.2571	8,573.73	71.6355	8,573.73	71.5496	8,573.73	67.2458	8,573.73	68.591	8,573.73	64.4358	8,573.73	66.1	8,573.73	60.9169	8,573.73	64.095	8,573.73	59.9151	8,573.73	60.0798	8,573.73	59.3007	8,573.73	57.47	8,573.73	52.5989	8,573.73	56.8725	8,573.73	53.6159	8,573.73	56.5239	8,573.73	53.6599	8,573.73	57.7688	8,573.73	53.3564	8,573.73	55.0062	8,573.73	52.182
8,876.95	84.934	8,876.95	83.8723	8,876.95	84.5974	8,876.95	81.8082	8,876.95	83.1108	8,876.95	80.6758	8,876.95	81.6233	8,876.95	78.9537	8,876.95	80.1462	8,876.95	77.3493	8,876.95	79.3347	8,876.95	75.8249	8,876.95	77.133	8,876.95	72.8417	8,876.95	74.6028	8,876.95	68.6688	8,876.95	71.5297	8,876.95	66.0747	8,876.95	68.975	8,876.95	61.3839	8,876.95	66.0031	8,876.95	58.0487	8,876.95	63.0019	8,876.95	57.2955	8,876.95	60.6974	8,876.95	55.3314	8,876.95	57.8975	8,876.95	49.5171	8,876.95	56.8534	8,876.95	52.685	8,876.95	55.8612	8,876.95	51.274	8,876.95	56.8252	8,876.95	53.2507	8,876.95	53.2755	8,876.95	50.9912
9,188.96	84.0604	9,188.96	82.4953	9,188.96	83.7272	9,188.96	80.6802	9,188.96	82.4246	9,188.96	79.6773	9,188.96	80.6977	9,188.96	77.541	9,188.96	79.2263	9,188.96	75.7785	9,188.96	78.4581	9,188.96	73.1913	9,188.96	76.4956	9,188.96	69.4026	9,188.96	74.2939	9,188.96	65.2331	9,188.96	71.6728	9,188.96	60.3631	9,188.96	68.2571	9,188.96	57.6495	9,188.96	65.6074	9,188.96	53.3205	9,188.96	62.0733	9,188.96	54.6563	9,188.96	59.5607	9,188.96	49.1961	9,188.96	57.1743	9,188.96	47.9959	9,188.96	55.2718	9,188.96	47.0544	9,188.96	54.9906	9,188.96	49.8668	9,188.96	55.8202	9,188.96	51.1925	9,188.96	52.7207	9,188.96	48.3872
9,514.16	83.9206	9,514.16	82.2607	9,514.16	83.5488	9,514.16	80.5142	9,514.16	82.1422	9,514.16	79.267	9,514.16	80.5948	9,514.16	76.8689	9,514.16	79.1865	9,514.16	74.5192	9,514.16	78.329	9,514.16	71.6329	9,514.16	76.1735	9,514.16	68.6801	9,514.16	73.4036	9,514.16	65.7507	9,514.16	70.8935	9,514.16	63.2414	9,514.16	67.6484	9,514.16	59.2821	9,514.16	64.706	9,514.16	55.1685	9,514.16	61.5349	9,514.16	52.9635	9,514.16	58.2488	9,514.16	48.5144	9,514.16	55.8073	9,514.16	46.5606	9,514.16	55.2412	9,514.16	42.624	9,514.16	54.2397	9,514.16	48.5645	9,514.16	54.2357	9,514.16	48.3823	9,514.16	52.7792	9,514.16	45.6457
9,849.61	84.1823	9,849.61	82.8627	9,849.61	83.686	9,849.61	81.5137	9,849.61	82.3791	9,849.61	80.1402	9,849.61	80.9226	9,849.61	77.9655	9,849.61	79.3772	9,849.61	76.0053	9,849.61	77.6716	9,849.61	73.4666	9,849.61	74.9989	9,849.61	71.3517	9,849.61	71.7671	9,849.61	68.3448	9,849.61	69.4051	9,849.61	65.2859	9,849.61	66.1238	9,849.61	62.0559	9,849.61	63.6809	9,849.61	59.0021	9,849.61	60.3194	9,849.61	56.0489	9,849.61	57.5804	9,849.61	46.1487	9,849.61	56.4837	9,849.61	47.2847	9,849.61	54.487	9,849.61	41.3856	9,849.61	53.3623	9,849.61	50.2475	9,849.61	51.6451	9,849.61	48.2139	9,849.61	52.4694	9,849.61	47.0528
10,196.8	84.8399	10,196.8	83.5867	10,196.8	84.4107	10,196.8	82.2576	10,196.8	83.2308	10,196.8	80.732	10,196.8	81.6706	10,196.8	78.4495	10,196.8	79.7292	10,196.8	75.6881	10,196.8	77.3618	10,196.8	73.6763	10,196.8	74.9643	10,196.8	71.8531	10,196.8	71.8262	10,196.8	69.2218	10,196.8	69.694	10,196.8	65.7685	10,196.8	66.8065	10,196.8	62.265	10,196.8	64.7382	10,196.8	58.7094	10,196.8	60.6067	10,196.8	55.3008	10,196.8	58.3893	10,196.8	45.4784	10,196.8	57.805	10,196.8	47.8793	10,196.8	55.3681	10,196.8	38.7463	10,196.8	52.7741	10,196.8	48.775	10,196.8	52.2122	10,196.8	48.0442	10,196.8	52.1097	10,196.8	46.4359
10,555.7	84.732	10,555.7	83.7068	10,555.7	84.3817	10,555.7	82.5882	10,555.7	83.2506	10,555.7	80.6578	10,555.7	81.6694	10,555.7	78.1281	10,555.7	79.1206	10,555.7	75.0039	10,555.7	76.5082	10,555.7	73.8112	10,555.7	73.9979	10,555.7	71.9338	10,555.7	71.7278	10,555.7	69.3027	10,555.7	69.7163	10,555.7	65.2833	10,555.7	66.9626	10,555.7	61.6526	10,555.7	63.8017	10,555.7	57.6854	10,555.7	60.3688	10,555.7	54.6801	10,555.7	59.1378	10,555.7	44.9381	10,555.7	56.0849	10,555.7	45.549	10,555.7	53.947	10,555.7	31.748	10,555.7	53.6449	10,555.7	50.1433	10,555.7	51.3674	10,555.7	48.6966	10,555.7	51.5796	10,555.7	46.519
10,927.7	84.4262	10,927.7	83.7014	10,927.7	84.4239	10,927.7	82.3943	10,927.7	83.1693	10,927.7	80.1512	10,927.7	81.5322	10,927.7	76.8488	10,927.7	78.4282	10,927.7	73.9597	10,927.7	76.0912	10,927.7	73.6487	10,927.7	74.0104	10,927.7	72.3506	10,927.7	72.5372	10,927.7	68.8932	10,927.7	70.0197	10,927.7	65.34	10,927.7	66.6059	10,927.7	61.1665	10,927.7	64.2266	10,927.7	57.3424	10,927.7	60.2176	10,927.7	51.9552	10,927.7	58.3292	10,927.7	38.0253	10,927.7	55.4709	10,927.7	35.2131	10,927.7	53.8518	10,927.7	33.7206	10,927.7	51.6351	10,927.7	47.0716	10,927.7	50.6426	10,927.7	50.123	10,927.7	51.9449	10,927.7	43.7976
11,313	83.792	11,313	83.4273	11,313	83.9598	11,313	81.8816	11,313	83.0521	11,313	79.3193	11,313	81.3034	11,313	75.6892	11,313	77.9225	11,313	73.4634	11,313	75.3787	11,313	72.9265	11,313	73.9918	11,313	70.8177	11,313	71.889	11,313	67.1337	11,313	68.7083	11,313	62.8846	11,313	64.8949	11,313	58.1725	11,313	62.3893	11,313	55.7929	11,313	58.1721	11,313	49.6131	11,313	56.7565	11,313	40.3804	11,313	55.7477	11,313	38.9385	11,313	52.2816	11,313	35.4164	11,313	49.9555	11,313	45.3731	11,313	48.0661	11,313	48.0697	11,313	49.9083	11,313	44.6343
11,712.9	83.242	11,712.9	83.0031	11,712.9	83.438	11,712.9	81.4052	11,712.9	82.6792	11,712.9	78.2064	11,712.9	80.7602	11,712.9	74.8711	11,712.9	77.439	11,712.9	72.6843	11,712.9	74.6994	11,712.9	70.5773	11,712.9	72.9911	11,712.9	67.3096	11,712.9	69.887	11,712.9	63.3538	11,712.9	66.6833	11,712.9	57.8059	11,712.9	62.5888	11,712.9	54.7414	11,712.9	58.6734	11,712.9	52.137	11,712.9	55.7894	11,712.9	47.0382	11,712.9	54.8681	11,712.9	35.8487	11,712.9	50.6306	11,712.9	25.6573	11,712.9	49.4933	11,712.9	9.62478	11,712.9	47.0771	11,712.9	40.1999	11,712.9	46.0008	11,712.9	45.2528	11,712.9	46.1384	11,712.9	42.4772
12,126	83.4404	12,126	82.9815	12,126	83.6002	12,126	81.1783	12,126	82.821	12,126	77.5383	12,126	80.6206	12,126	74.2837	12,126	77.0868	12,126	71.4691	12,126	74.2383	12,126	67.9215	12,126	71.7866	12,126	62.0838	12,126	67.946	12,126	57.4026	12,126	64.2117	12,126	50.7164	12,126	59.9398	12,126	49.6822	12,126	56.742	12,126	46.3925	12,126	54.0655	12,126	40.2265	12,126	51.4884	12,126	35.6981	12,126	47.8553	12,126	18.0974	12,126	46.5964	12,126	29.7587	12,126	44.8822	12,126	39.0069	12,126	41.9591	12,126	44.242	12,126	43.7021	12,126	33.9869
12,553.7	83.9577	12,553.7	83.3184	12,553.7	84.0141	12,553.7	81.1051	12,553.7	82.9803	12,553.7	77.3645	12,553.7	80.4863	12,553.7	73.8837	12,553.7	76.7548	12,553.7	70.252	12,553.7	73.4278	12,553.7	64.9732	12,553.7	69.7489	12,553.7	57.5842	12,553.7	64.3309	12,553.7	55.4961	12,553.7	58.8857	12,553.7	51.5196	12,553.7	55.4184	12,553.7	50.3047	12,553.7	52.9928	12,553.7	46.4734	12,553.7	49.7282	12,553.7	40.6881	12,553.7	48.598	12,553.7	40.5338	12,553.7	43.8416	12,553.7	24.6311	12,553.7	43.1428	12,553.7	40.8818	12,553.7	40.3191	12,553.7	36.7795	12,553.7	32.9211	12,553.7	38.7574	12,553.7	38.5136	12,553.7	29.1249
12,996.1	84.4427	12,996.1	83.7147	12,996.1	84.2749	12,996.1	81.133	12,996.1	82.8898	12,996.1	77.3329	12,996.1	79.9885	12,996.1	73.9506	12,996.1	76.0343	12,996.1	69.0776	12,996.1	72.412	12,996.1	64.1401	12,996.1	67.2517	12,996.1	62.0501	12,996.1	61.5471	12,996.1	60.6423	12,996.1	60.3007	12,996.1	56.5631	12,996.1	58.5649	12,996.1	54.2403	12,996.1	53.5182	12,996.1	49.3302	12,996.1	52.3399	12,996.1	47.4908	12,996.1	50.0804	12,996.1	43.7701	12,996.1	46.2583	12,996.1	35.6236	12,996.1	45.4168	12,996.1	42.4683	12,996.1	43.7435	12,996.1	33.434	12,996.1	37.9374	12,996.1	33.0517	12,996.1	39.6323	12,996.1	31.0756
13,454.6	84.4973	13,454.6	83.6485	13,454.6	84.1981	13,454.6	80.9548	13,454.6	82.573	13,454.6	77.0674	13,454.6	79.2743	13,454.6	73.5764	13,454.6	75.3025	13,454.6	67.6276	13,454.6	71.2313	13,454.6	64.6535	13,454.6	66.8785	13,454.6	64.5351	13,454.6	64.7278	13,454.6	62.0417	13,454.6	62.4358	13,454.6	58.7291	13,454.6	61.0475	13,454.6	55.3304	13,454.6	56.7771	13,454.6	52.1251	13,454.6	55.2772	13,454.6	48.1709	13,454.6	53.0498	13,454.6	43.4094	13,454.6	46.5621	13,454.6	39.4146	13,454.6	47.0829	13,454.6	41.6374	13,454.6	46.1237	13,454.6	34.0634	13,454.6	40.0376	13,454.6	34.7635	13,454.6	41.591	13,454.6	15.8649
13,929.2	84.1388	13,929.2	83.2002	13,929.2	84.0621	13,929.2	80.4095	13,929.2	82.4916	13,929.2	76.4062	13,929.2	79.2223	13,929.2	72.2734	13,929.2	75.3494	13,929.2	65.7286	13,929.2	70.7848	13,929.2	65.9538	13,929.2	67.2261	13,929.2	65.8472	13,929.2	65.7666	13,929.2	63.1058	13,929.2	64.842	13,929.2	58.5918	13,929.2	62.2592	13,929.2	54.7437	13,929.2	57.7473	13,929.2	52.4054	13,929.2	55.8834	13,929.2	45.517	13,929.2	53.2405	13,929.2	43.6107	13,929.2	48.0142	13,929.2	34.1869	13,929.2	47.0873	13,929.2	39.3047	13,929.2	45.743	13,929.2	34.1547	13,929.2	41.3511	13,929.2	34.6302	13,929.2	33.6517	13,929.2	26.5416
14,419.9	83.7447	14,419.9	82.8264	14,419.9	83.7908	14,419.9	80.0532	14,419.9	82.3843	14,419.9	75.8246	14,419.9	79.2201	14,419.9	70.9501	14,419.9	75.107	14,419.9	64.7219	14,419.9	70.039	14,419.9	66.0973	14,419.9	66.6286	14,419.9	65.8134	14,419.9	65.6669	14,419.9	62.2522	14,419.9	64.0568	14,419.9	57.877	14,419.9	61.0287	14,419.9	54.1455	14,419.9	57.1766	14,419.9	49.3729	14,419.9	55.4343	14,419.9	42.9527	14,419.9	52.5124	14,419.9	42.6939	14,419.9	48.4294	14,419.9	34.6148	14,419.9	44.9571	14,419.9	36.6259	14,419.9	46.8645	14,419.9	36.5446	14,419.9	36.1	14,419.9	32.0905	14,419.9	24.0251	14,419.9	27.5619
14,928.2	83.3757	14,928.2	82.1455	14,928.2	83.3865	14,928.2	79.1806	14,928.2	81.8272	14,928.2	74.7832	14,928.2	78.6181	14,928.2	69.3239	14,928.2	73.6316	14,928.2	65.4314	14,928.2	67.2015	14,928.2	66.2127	14,928.2	66.4193	14,928.2	64.5644	14,928.2	66.0493	14,928.2	59.4057	14,928.2	63.3691	14,928.2	56.7388	14,928.2	60.943	14,928.2	53.478	14,928.2	58.1122	14,928.2	46.8044	14,928.2	55.251	14,928.2	40.3269	14,928.2	51.9476	14,928.2	42.291	14,928.2	49.3586	14,928.2	23.2563	14,928.2	43.8688	14,928.2	36.0336	14,928.2	46.5302	14,928.2	34.5688	14,928.2	34.8939	14,928.2	33.7789	14,928.2	33.6432	14,928.2	30.3295
15,455.6	82.8091	15,455.6	81.3238	15,455.6	82.6384	15,455.6	78.4172	15,455.6	81.0158	15,455.6	74.1475	15,455.6	77.8514	15,455.6	68.6971	15,455.6	72.2618	15,455.6	65.9798	15,455.6	66.6338	15,455.6	65.5579	15,455.6	67.2307	15,455.6	61.2944	15,455.6	65.7958	15,455.6	57.8171	15,455.6	64.2647	15,455.6	53.5309	15,455.6	60.4397	15,455.6	50.2932	15,455.6	58.4247	15,455.6	46.6689	15,455.6	54.8313	15,455.6	43.4547	15,455.6	51.1715	15,455.6	43.6284	15,455.6	47.1055	15,455.6	34.8189	15,455.6	43.9218	15,455.6	34.9689	15,455.6	46.3903	15,455.6	31.3445	15,455.6	30.9699	15,455.6	28.099	15,455.6	30.5299	15,455.6	31.4697
16,000.5	82.4734	16,000.5	80.9053	16,000.5	82.2914	16,000.5	78.2259	16,000.5	80.4963	16,000.5	73.2182	16,000.5	77.2984	16,000.5	67.875	16,000.5	72.0456	16,000.5	64.7648	16,000.5	66.9443	16,000.5	62.1815	16,000.5	66.8427	16,000.5	59.7419	16,000.5	65.2998	16,000.5	57.8136	16,000.5	62.7373	16,000.5	55.5402	16,000.5	59.4232	16,000.5	52.3132	16,000.5	57.6668	16,000.5	47.3003	16,000.5	53.1871	16,000.5	44.2826	16,000.5	48.2458	16,000.5	42.7446	16,000.5	41.8058	16,000.5	39.4558	16,000.5	43.3287	16,000.5	36.5139	16,000.5	43.5381	16,000.5	34.5458	16,000.5	35.1786	16,000.5	34.4575	16,000.5	34.0982	16,000.5	29.9173
16,564.5	82.2147	16,564.5	80.5474	16,564.5	82.1632	16,564.5	77.7467	16,564.5	80.2431	16,564.5	71.8957	16,564.5	76.9168	16,564.5	67.1185	16,564.5	71.065	16,564.5	62.3835	16,564.5	65.068	16,564.5	60.2519	16,564.5	64.0065	16,564.5	62.0437	16,564.5	62.5262	16,564.5	59.7733	16,564.5	61.6023	16,564.5	56.1968	16,564.5	58.4674	16,564.5	51.5799	16,564.5	55.3356	16,564.5	46.8607	16,564.5	51.9703	16,564.5	41.5267	16,564.5	46.4021	16,564.5	39.638	16,564.5	42.1391	16,564.5	34.1503	16,564.5	41.5892	16,564.5	25.8247	16,564.5	41.4713	16,564.5	38.7386	16,564.5	37.5764	16,564.5	37.3394	16,564.5	38.6895	16,564.5	18.7439
17,148.9	82.1545	17,148.9	80.4738	17,148.9	81.6715	17,148.9	77.3294	17,148.9	79.3031	17,148.9	71.178	17,148.9	75.1508	17,148.9	66.1972	17,148.9	67.8557	17,148.9	60.7347	17,148.9	60.9191	17,148.9	61.7158	17,148.9	60.256	17,148.9	63.5057	17,148.9	61.724	17,148.9	58.9625	17,148.9	60.6259	17,148.9	56.0341	17,148.9	57.0701	17,148.9	51.8197	17,148.9	54.5665	17,148.9	46.4416	17,148.9	50.4236	17,148.9	42.6773	17,148.9	45.2286	17,148.9	41.6255	17,148.9	40.9053	17,148.9	26.9991	17,148.9	39.7821	17,148.9	34.0253	17,148.9	39.9491	17,148.9	35.5266	17,148.9	34.9872	17,148.9	32.781	17,148.9	37.2931	17,148.9	23.9665
17,752.4	81.3954	17,752.4	79.4278	17,752.4	80.6925	17,752.4	76.4176	17,752.4	78.0389	17,752.4	70.0811	17,752.4	73.5787	17,752.4	65.3054	17,752.4	65.7756	17,752.4	59.4429	17,752.4	59.5187	17,752.4	62.0448	17,752.4	59.1371	17,752.4	61.908	17,752.4	61.5095	17,752.4	57.9245	17,752.4	59.2651	17,752.4	53.9428	17,752.4	55.7085	17,752.4	48.6197	17,752.4	52.9625	17,752.4	43.7732	17,752.4	49.2621	17,752.4	39.4477	17,752.4	43.0885	17,752.4	40.7314	17,752.4	43.8098	17,752.4	31.5814	17,752.4	36.5983	17,752.4	29.1536	17,752.4	37.9006	17,752.4	33.1061	17,752.4	33.6266	17,752.4	24.6223	17,752.4	36.5332	17,752.4	22.7459
18,379.4	80.6612	18,379.4	78.589	18,379.4	80.0468	18,379.4	75.0068	18,379.4	77.0952	18,379.4	68.6092	18,379.4	72.2778	18,379.4	62.8092	18,379.4	64.9887	18,379.4	59.1109	18,379.4	57.5868	18,379.4	61.2339	18,379.4	60.8338	18,379.4	59.421	18,379.4	62.4524	18,379.4	54.4672	18,379.4	59.002	18,379.4	52.1517	18,379.4	55.751	18,379.4	47.6009	18,379.4	53.0614	18,379.4	42.7272	18,379.4	48.8778	18,379.4	39.6788	18,379.4	42.5116	18,379.4	40.9103	18,379.4	44.6509	18,379.4	32.5213	18,379.4	36.0721	18,379.4	20.5399	18,379.4	37.7184	18,379.4	27.2782	18,379.4	38.0195	18,379.4	25.509	18,379.4	35.5442	18,379.4	17.9913
19,026.9	80.6422	19,026.9	78.6291	19,026.9	80.1664	19,026.9	74.764	19,026.9	77.0332	19,026.9	69.0446	19,026.9	71.6474	19,026.9	60.3708	19,026.9	64.6511	19,026.9	60.1419	19,026.9	59.3279	19,026.9	59.8711	19,026.9	62.0785	19,026.9	59.8236	19,026.9	62.555	19,026.9	57.0387	19,026.9	58.6655	19,026.9	53.8213	19,026.9	55.9241	19,026.9	48.3017	19,026.9	52.9171	19,026.9	42.4048	19,026.9	48.5645	19,026.9	39.2907	19,026.9	42.2781	19,026.9	41.7531	19,026.9	43.6473	19,026.9	29.9475	19,026.9	35.5458	19,026.9	31.4153	19,026.9	36.3649	19,026.9	22.7613	19,026.9	36.1882	19,026.9	29.5517	19,026.9	33.9093	19,026.9	23.6081
19,697.8	80.8302	19,697.8	78.9116	19,697.8	80.1832	19,697.8	74.9332	19,697.8	76.9089	19,697.8	68.4336	19,697.8	71.1952	19,697.8	57.3045	19,697.8	64.5262	19,697.8	60.7761	19,697.8	61.3309	19,697.8	59.7748	19,697.8	61.9168	19,697.8	62.308	19,697.8	61.2351	19,697.8	59.5209	19,697.8	58.929	19,697.8	55.7598	19,697.8	55.9529	19,697.8	50.308	19,697.8	52.5428	19,697.8	44.3691	19,697.8	48.5413	19,697.8	42.156	19,697.8	42.044	19,697.8	42.8789	19,697.8	43.7336	19,697.8	21.7082	19,697.8	33.209	19,697.8	32.9229	19,697.8	34.063	19,697.8	31.5764	19,697.8	36.3362	19,697.8	29.8931	19,697.8	24.6753	19,697.8	14.2811
19,999.5	80.6821	19,999.5	78.9537	19,999.5	79.9145	19,999.5	74.6493	19,999.5	76.7317	19,999.5	68.4798	19,999.5	71.1847	19,999.5	58.7105	19,999.5	64.3047	19,999.5	60.8446	19,999.5	61.5767	19,999.5	60.536	19,999.5	61.3654	19,999.5	62.7189	19,999.5	60.0063	19,999.5	60.3772	19,999.5	57.7902	19,999.5	56.2811	19,999.5	55.5013	19,999.5	50.2588	19,999.5	49.6901	19,999.5	43.9873	19,999.5	48.5842	19,999.5	39.6501	19,999.5	39.4705	19,999.5	37.2931	19,999.5	51.6335	19,999.5	34.9422	19,999.5	40.7401	19,999.5	36.6495	19,999.5	39.9105	19,999.5	38.5775	19,999.5	41.6107	19,999.5	16.5338	19,999.5	29.9463	19,999.5	22.0713
