"SPL Horizontal"
"On-Axis"		"10°"		"-10°"		"20°"		"-20°"		"30°"		"-30°"		"40°"		"-40°"		"50°"		"-50°"		"60°"		"-60°"		"70°"		"-70°"		"80°"		"-80°"		"90°"		"-90°"		"100°"		"-100°"		"110°"		"-110°"		"120°"		"-120°"		"130°"		"-130°"		"140°"		"-140°"		"150°"		"-150°"		"160°"		"-160°"		"170°"		"-170°"		"180°"
"Frequency / Hz"	"Sound Pressure Level / dB (re 20 µPa/V)  [2.83  V @ 1. m]"	"Frequency / Hz"	"Sound Pressure Level / dB (re 20 µPa/V)  [2.83  V @ 1. m]"	"Frequency / Hz"	"Sound Pressure Level / dB (re 20 µPa/V)  [2.83  V @ 1. m]"	"Frequency / Hz"	"Sound Pressure Level / dB (re 20 µPa/V)  [2.83  V @ 1. m]"	"Frequency / Hz"	"Sound Pressure Level / dB (re 20 µPa/V)  [2.83  V @ 1. m]"	"Frequency / Hz"	"Sound Pressure Level / dB (re 20 µPa/V)  [2.83  V @ 1. m]"	"Frequency / Hz"	"Sound Pressure Level / dB (re 20 µPa/V)  [2.83  V @ 1. m]"	"Frequency / Hz"	"Sound Pressure Level / dB (re 20 µPa/V)  [2.83  V @ 1. m]"	"Frequency / Hz"	"Sound Pressure Level / dB (re 20 µPa/V)  [2.83  V @ 1. m]"	"Frequency / Hz"	"Sound Pressure Level / dB (re 20 µPa/V)  [2.83  V @ 1. m]"	"Frequency / Hz"	"Sound Pressure Level / dB (re 20 µPa/V)  [2.83  V @ 1. m]"	"Frequency / Hz"	"Sound Pressure Level / dB (re 20 µPa/V)  [2.83  V @ 1. m]"	"Frequency / Hz"	"Sound Pressure Level / dB (re 20 µPa/V)  [2.83  V @ 1. m]"	"Frequency / Hz"	"Sound Pressure Level / dB (re 20 µPa/V)  [2.83  V @ 1. m]"	"Frequency / Hz"	"Sound Pressure Level / dB (re 20 µPa/V)  [2.83  V @ 1. m]"	"Frequency / Hz"	"Sound Pressure Level / dB (re 20 µPa/V)  [2.83  V @ 1. m]"	"Frequency / Hz"	"Sound Pressure Level / dB (re 20 µPa/V)  [2.83  V @ 1. m]"	"Frequency / Hz"	"Sound Pressure Level / dB (re 20 µPa/V)  [2.83  V @ 1. m]"	"Frequency / Hz"	"Sound Pressure Level / dB (re 20 µPa/V)  [2.83  V @ 1. m]"	"Frequency / Hz"	"Sound Pressure Level / dB (re 20 µPa/V)  [2.83  V @ 1. m]"	"Frequency / Hz"	"Sound Pressure Level / dB (re 20 µPa/V)  [2.83  V @ 1. m]"	"Frequency / Hz"	"Sound Pressure Level / dB (re 20 µPa/V)  [2.83  V @ 1. m]"	"Frequency / Hz"	"Sound Pressure Level / dB (re 20 µPa/V)  [2.83  V @ 1. m]"	"Frequency / Hz"	"Sound Pressure Level / dB (re 20 µPa/V)  [2.83  V @ 1. m]"	"Frequency / Hz"	"Sound Pressure Level / dB (re 20 µPa/V)  [2.83  V @ 1. m]"	"Frequency / Hz"	"Sound Pressure Level / dB (re 20 µPa/V)  [2.83  V @ 1. m]"	"Frequency / Hz"	"Sound Pressure Level / dB (re 20 µPa/V)  [2.83  V @ 1. m]"	"Frequency / Hz"	"Sound Pressure Level / dB (re 20 µPa/V)  [2.83  V @ 1. m]"	"Frequency / Hz"	"Sound Pressure Level / dB (re 20 µPa/V)  [2.83  V @ 1. m]"	"Frequency / Hz"	"Sound Pressure Level / dB (re 20 µPa/V)  [2.83  V @ 1. m]"	"Frequency / Hz"	"Sound Pressure Level / dB (re 20 µPa/V)  [2.83  V @ 1. m]"	"Frequency / Hz"	"Sound Pressure Level / dB (re 20 µPa/V)  [2.83  V @ 1. m]"	"Frequency / Hz"	"Sound Pressure Level / dB (re 20 µPa/V)  [2.83  V @ 1. m]"	"Frequency / Hz"	"Sound Pressure Level / dB (re 20 µPa/V)  [2.83  V @ 1. m]"	"Frequency / Hz"	"Sound Pressure Level / dB (re 20 µPa/V)  [2.83  V @ 1. m]"	"Frequency / Hz"	"Sound Pressure Level / dB (re 20 µPa/V)  [2.83  V @ 1. m]"
20.5078	60.0534	20.5078	59.9091	20.5078	60.22	20.5078	59.7898	20.5078	60.4018	20.5078	59.6944	20.5078	60.5885	20.5078	59.6192	20.5078	60.7674	20.5078	59.5602	20.5078	60.9262	20.5078	59.5144	20.5078	61.0544	20.5078	59.4809	20.5078	61.146	20.5078	59.4617	20.5078	61.2003	20.5078	59.461	20.5078	61.2234	20.5078	59.4849	20.5078	61.2266	20.5078	59.5405	20.5078	61.2236	20.5078	59.6348	20.5078	61.2246	20.5078	59.7726	20.5078	61.2313	20.5078	59.9543	20.5078	61.2344	20.5078	60.1735	20.5078	61.2161	20.5078	60.4148	20.5078	61.1568	20.5078	60.656	20.5078	61.0428	20.5078	60.8722
21.9727	60.9037	21.9727	61.0274	21.9727	60.7742	21.9727	61.1425	21.9727	60.6446	21.9727	61.2486	21.9727	60.5225	21.9727	61.3469	21.9727	60.417	21.9727	61.4402	21.9727	60.3377	21.9727	61.5308	21.9727	60.2923	21.9727	61.6201	21.9727	60.2854	21.9727	61.7078	21.9727	60.3179	21.9727	61.7917	21.9727	60.3866	21.9727	61.8679	21.9727	60.4863	21.9727	61.9313	21.9727	60.6111	21.9727	61.9763	21.9727	60.7548	21.9727	61.9977	21.9727	60.9115	21.9727	61.9917	21.9727	61.0755	21.9727	61.9563	21.9727	61.2407	21.9727	61.8919	21.9727	61.4011	21.9727	61.8006	21.9727	61.5511	21.9727	61.6857
23.4375	66.057	23.4375	66.0633	23.4375	66.0405	23.4375	66.0581	23.4375	66.0158	23.4375	66.0412	23.4375	65.9859	23.4375	66.0137	23.4375	65.954	23.4375	65.9778	23.4375	65.9232	23.4375	65.9361	23.4375	65.8957	23.4375	65.8922	23.4375	65.8732	23.4375	65.8495	23.4375	65.8567	23.4375	65.8117	23.4375	65.8468	23.4375	65.7816	23.4375	65.8438	23.4375	65.7617	23.4375	65.8475	23.4375	65.7532	23.4375	65.8574	23.4375	65.7564	23.4375	65.8713	23.4375	65.7703	23.4375	65.8858	23.4375	65.7929	23.4375	65.8967	23.4375	65.821	23.4375	65.9	23.4375	65.8501	23.4375	65.8929	23.4375	65.8755
24.9023	71.132	24.9023	71.1329	24.9023	71.1285	24.9023	71.1316	24.9023	71.1219	24.9023	71.1285	24.9023	71.1116	24.9023	71.1237	24.9023	71.0976	24.9023	71.1173	24.9023	71.0804	24.9023	71.1097	24.9023	71.0612	24.9023	71.1013	24.9023	71.0417	24.9023	71.0931	24.9023	71.0246	24.9023	71.0866	24.9023	71.0124	24.9023	71.083	24.9023	71.0079	24.9023	71.0837	24.9023	71.0128	24.9023	71.089	24.9023	71.0273	24.9023	71.0986	24.9023	71.0497	24.9023	71.1115	24.9023	71.0768	24.9023	71.1257	24.9023	71.104	24.9023	71.1385	24.9023	71.127	24.9023	71.1472	24.9023	71.1426	24.9023	71.1492
26.3672	74.5123	26.3672	74.4987	26.3672	74.5246	26.3672	74.4841	26.3672	74.535	26.3672	74.4688	26.3672	74.5431	26.3672	74.453	26.3672	74.5485	26.3672	74.437	26.3672	74.5508	26.3672	74.4212	26.3672	74.55	26.3672	74.4061	26.3672	74.5462	26.3672	74.3923	26.3672	74.54	26.3672	74.3806	26.3672	74.5321	26.3672	74.372	26.3672	74.5236	26.3672	74.3672	26.3672	74.5154	26.3672	74.367	26.3672	74.5082	26.3672	74.3716	26.3672	74.5018	26.3672	74.3809	26.3672	74.4954	26.3672	74.3943	26.3672	74.4877	26.3672	74.411	26.3672	74.4774	26.3672	74.4293	26.3672	74.4639	26.3672	74.4475
27.832	77.3508	27.832	77.3457	27.832	77.353	27.832	77.3376	27.832	77.3519	27.832	77.3266	27.832	77.3476	27.832	77.3127	27.832	77.3399	27.832	77.2963	27.832	77.3288	27.832	77.2777	27.832	77.3147	27.832	77.2574	27.832	77.2977	27.832	77.2365	27.832	77.2789	27.832	77.2157	27.832	77.2591	27.832	77.1963	27.832	77.2398	27.832	77.1793	27.832	77.2223	27.832	77.1656	27.832	77.2077	27.832	77.156	27.832	77.1963	27.832	77.1507	27.832	77.1878	27.832	77.1496	27.832	77.1813	27.832	77.1521	27.832	77.1755	27.832	77.157	27.832	77.1695	27.832	77.1632
29.2969	80.3512	29.2969	80.3476	29.2969	80.3505	29.2969	80.3398	29.2969	80.3455	29.2969	80.3279	29.2969	80.3361	29.2969	80.312	29.2969	80.3223	29.2969	80.2923	29.2969	80.3044	29.2969	80.2695	29.2969	80.2827	29.2969	80.2441	29.2969	80.2582	29.2969	80.2171	29.2969	80.2319	29.2969	80.1898	29.2969	80.2053	29.2969	80.1634	29.2969	80.1798	29.2969	80.1394	29.2969	80.1567	29.2969	80.1188	29.2969	80.1369	29.2969	80.1025	29.2969	80.1208	29.2969	80.0909	29.2969	80.1082	29.2969	80.0837	29.2969	80.0986	29.2969	80.0804	29.2969	80.0914	29.2969	80.0801	29.2969	80.086	29.2969	80.0822
30.7617	83.2227	30.7617	83.2304	30.7617	83.211	30.7617	83.2336	30.7617	83.1956	30.7617	83.2322	30.7617	83.1769	30.7617	83.2258	30.7617	83.1554	30.7617	83.2145	30.7617	83.132	30.7617	83.1984	30.7617	83.1074	30.7617	83.1779	30.7617	83.0829	30.7617	83.1536	30.7617	83.0596	30.7617	83.1266	30.7617	83.0387	30.7617	83.0979	30.7617	83.0211	30.7617	83.0691	30.7617	83.0073	30.7617	83.042	30.7617	82.997	30.7617	83.0183	30.7617	82.9899	30.7617	82.9993	30.7617	82.985	30.7617	82.9857	30.7617	82.9813	30.7617	82.9776	30.7617	82.9783	30.7617	82.974	30.7617	82.9756	30.7617	82.9739
32.2266	85.4927	32.2266	85.4976	32.2266	85.4832	32.2266	85.4978	32.2266	85.4692	32.2266	85.4935	32.2266	85.4508	32.2266	85.4848	32.2266	85.4285	32.2266	85.472	32.2266	85.4028	32.2266	85.4553	32.2266	85.3746	32.2266	85.4352	32.2266	85.3448	32.2266	85.4122	32.2266	85.3144	32.2266	85.3868	32.2266	85.2845	32.2266	85.3597	32.2266	85.2564	32.2266	85.3315	32.2266	85.2311	32.2266	85.303	32.2266	85.2093	32.2266	85.2751	32.2266	85.1919	32.2266	85.2487	32.2266	85.179	32.2266	85.2248	32.2266	85.171	32.2266	85.2044	32.2266	85.1679	32.2266	85.1881	32.2266	85.1697	32.2266	85.1764
33.6914	87.7646	33.6914	87.7649	33.6914	87.7566	33.6914	87.7574	33.6914	87.7412	33.6914	87.7422	33.6914	87.7185	33.6914	87.7196	33.6914	87.6891	33.6914	87.6899	33.6914	87.6536	33.6914	87.6538	33.6914	87.6127	33.6914	87.6124	33.6914	87.5675	33.6914	87.5668	33.6914	87.5191	33.6914	87.5183	33.6914	87.4691	33.6914	87.4686	33.6914	87.4191	33.6914	87.4193	33.6914	87.3708	33.6914	87.372	33.6914	87.3262	33.6914	87.3281	33.6914	87.2869	33.6914	87.2892	33.6914	87.2541	33.6914	87.2565	33.6914	87.229	33.6914	87.2309	33.6914	87.2121	33.6914	87.2133	33.6914	87.2038	33.6914	87.2042
35.1562	90.2372	35.1562	90.2384	35.1562	90.2284	35.1562	90.2318	35.1562	90.2122	35.1562	90.2177	35.1562	90.189	35.1562	90.1962	35.1562	90.1595	35.1562	90.1679	35.1562	90.1243	35.1562	90.1335	35.1562	90.0844	35.1562	90.094	35.1562	90.0409	35.1562	90.0506	35.1562	89.9953	35.1562	90.0047	35.1562	89.9488	35.1562	89.9578	35.1562	89.903	35.1562	89.9114	35.1562	89.8596	35.1562	89.867	35.1562	89.8199	35.1562	89.8261	35.1562	89.7852	35.1562	89.79	35.1562	89.7565	35.1562	89.7598	35.1562	89.7345	35.1562	89.7365	35.1562	89.7196	35.1562	89.7206	35.1562	89.7122	35.1562	89.7125
36.6211	91.8454	36.6211	91.8464	36.6211	91.8356	36.6211	91.8384	36.6211	91.8172	36.6211	91.8217	36.6211	91.7905	36.6211	91.7964	36.6211	91.7564	36.6211	91.7634	36.6211	91.7155	36.6211	91.7232	36.6211	91.6689	36.6211	91.677	36.6211	91.6179	36.6211	91.626	36.6211	91.5637	36.6211	91.5716	36.6211	91.5081	36.6211	91.5155	36.6211	91.4526	36.6211	91.4594	36.6211	91.3991	36.6211	91.4051	36.6211	91.3493	36.6211	91.3542	36.6211	91.305	36.6211	91.3087	36.6211	91.2676	36.6211	91.27	36.6211	91.2383	36.6211	91.2397	36.6211	91.2182	36.6211	91.2189	36.6211	91.208	36.6211	91.2082
38.0859	93.7139	38.0859	93.7148	38.0859	93.7031	38.0859	93.7057	38.0859	93.6828	38.0859	93.6868	38.0859	93.6535	38.0859	93.6584	38.0859	93.6159	38.0859	93.6212	38.0859	93.5709	38.0859	93.576	38.0859	93.5198	38.0859	93.524	38.0859	93.4637	38.0859	93.4667	38.0859	93.4042	38.0859	93.4055	38.0859	93.343	38.0859	93.3424	38.0859	93.2817	38.0859	93.2793	38.0859	93.2224	38.0859	93.2183	38.0859	93.1668	38.0859	93.1613	38.0859	93.1169	38.0859	93.1106	38.0859	93.0742	38.0859	93.068	38.0859	93.0404	38.0859	93.0351	38.0859	93.0166	38.0859	93.013	38.0859	93.0038	38.0859	93.0025
39.5508	95.4881	39.5508	95.4898	39.5508	95.476	39.5508	95.4809	39.5508	95.4538	39.5508	95.4614	39.5508	95.4223	39.5508	95.4317	39.5508	95.3823	39.5508	95.3925	39.5508	95.3347	39.5508	95.3445	39.5508	95.2807	39.5508	95.289	39.5508	95.2217	39.5508	95.2276	39.5508	95.1591	39.5508	95.1618	39.5508	95.0947	39.5508	95.0938	39.5508	95.0301	39.5508	95.0257	39.5508	94.9673	39.5508	94.9598	39.5508	94.9082	39.5508	94.8986	39.5508	94.8547	39.5508	94.8441	39.5508	94.8088	39.5508	94.7985	39.5508	94.772	39.5508	94.7635	39.5508	94.7459	39.5508	94.7402	39.5508	94.7314	39.5508	94.7295
41.0156	97.138	41.0156	97.1437	41.0156	97.1214	41.0156	97.1385	41.0156	97.0945	41.0156	97.1223	41.0156	97.0579	41.0156	97.0956	41.0156	97.0124	41.0156	97.059	41.0156	96.9591	41.0156	97.0136	41.0156	96.8992	41.0156	96.9604	41.0156	96.8343	41.0156	96.901	41.0156	96.7661	41.0156	96.8369	41.0156	96.6965	41.0156	96.7697	41.0156	96.6277	41.0156	96.7013	41.0156	96.562	41.0156	96.6335	41.0156	96.5015	41.0156	96.5684	41.0156	96.4485	41.0156	96.508	41.0156	96.405	41.0156	96.4546	41.0156	96.3728	41.0156	96.4101	41.0156	96.3534	41.0156	96.3765	41.0156	96.3474	41.0156	96.3553
42.4805	98.4102	42.4805	98.4154	42.4805	98.394	42.4805	98.4092	42.4805	98.367	42.4805	98.3918	42.4805	98.3301	42.4805	98.3633	42.4805	98.2841	42.4805	98.3243	42.4805	98.2301	42.4805	98.2756	42.4805	98.1695	42.4805	98.2185	42.4805	98.1038	42.4805	98.1542	42.4805	98.0346	42.4805	98.0845	42.4805	97.9637	42.4805	98.0114	42.4805	97.8931	42.4805	97.9372	42.4805	97.8248	42.4805	97.8642	42.4805	97.7608	42.4805	97.795	42.4805	97.7036	42.4805	97.732	42.4805	97.6552	42.4805	97.6777	42.4805	97.6177	42.4805	97.6341	42.4805	97.5929	42.4805	97.6029	42.4805	97.5819	42.4805	97.5852
43.9453	99.3593	43.9453	99.3652	43.9453	99.3419	43.9453	99.3594	43.9453	99.3134	43.9453	99.342	43.9453	99.2745	43.9453	99.3134	43.9453	99.226	43.9453	99.2742	43.9453	99.1693	43.9453	99.2253	43.9453	99.1056	43.9453	99.168	43.9453	99.0366	43.9453	99.1036	43.9453	98.9641	43.9453	99.0339	43.9453	98.8904	43.9453	98.9608	43.9453	98.8176	43.9453	98.8865	43.9453	98.748	43.9453	98.8133	43.9453	98.6842	43.9453	98.7437	43.9453	98.6282	43.9453	98.68	43.9453	98.5822	43.9453	98.6246	43.9453	98.5479	43.9453	98.5793	43.9453	98.5266	43.9453	98.5459	43.9453	98.5191	43.9453	98.5256
45.4102	99.83	45.4102	99.8345	45.4102	99.8145	45.4102	99.828	45.4102	99.7884	45.4102	99.8106	45.4102	99.7525	45.4102	99.7829	45.4102	99.7076	45.4102	99.7454	45.4102	99.6549	45.4102	99.6992	45.4102	99.596	45.4102	99.6455	45.4102	99.5322	45.4102	99.5858	45.4102	99.4654	45.4102	99.5216	45.4102	99.3975	45.4102	99.4549	45.4102	99.3306	45.4102	99.3875	45.4102	99.2667	45.4102	99.3215	45.4102	99.2082	45.4102	99.259	45.4102	99.157	45.4102	99.202	45.4102	99.115	45.4102	99.1524	45.4102	99.0838	45.4102	99.1119	45.4102	99.0645	45.4102	99.082	45.4102	99.0578	45.4102	99.0637
46.875	100.08	46.875	100.086	46.875	100.063	46.875	100.079	46.875	100.033	46.875	100.06	46.875	99.9933	46.875	100.029	46.875	99.9436	46.875	99.9873	46.875	99.8858	46.875	99.9362	46.875	99.8218	46.875	99.877	46.875	99.7533	46.875	99.8117	46.875	99.6827	46.875	99.7423	46.875	99.612	46.875	99.6709	46.875	99.5432	46.875	99.5999	46.875	99.4786	46.875	99.5315	46.875	99.42	46.875	99.4677	46.875	99.3693	46.875	99.4106	46.875	99.328	46.875	99.3616	46.875	99.2974	46.875	99.3223	46.875	99.2783	46.875	99.2936	46.875	99.2713	46.875	99.2765
48.3398	99.915	48.3398	99.9178	48.3398	99.8993	48.3398	99.9078	48.3398	99.8713	48.3398	99.8852	48.3398	99.8319	48.3398	99.8505	48.3398	99.7821	48.3398	99.8048	48.3398	99.7234	48.3398	99.7495	48.3398	99.6579	48.3398	99.6862	48.3398	99.5875	48.3398	99.6171	48.3398	99.5146	48.3398	99.5443	48.3398	99.4415	48.3398	99.4704	48.3398	99.3706	48.3398	99.3979	48.3398	99.304	48.3398	99.3292	48.3398	99.244	48.3398	99.2665	48.3398	99.1921	48.3398	99.2115	48.3398	99.1498	48.3398	99.1656	48.3398	99.118	48.3398	99.1299	48.3398	99.0975	48.3398	99.1049	48.3398	99.0885	48.3398	99.091
51.2695	99.357	51.2695	99.3585	51.2695	99.3418	51.2695	99.3461	51.2695	99.3133	51.2695	99.3201	51.2695	99.2723	51.2695	99.2813	51.2695	99.2198	51.2695	99.2308	51.2695	99.1574	51.2695	99.1699	51.2695	99.0869	51.2695	99.1004	51.2695	99.0104	51.2695	99.0246	51.2695	98.9302	51.2695	98.9447	51.2695	98.8487	51.2695	98.8634	51.2695	98.7687	51.2695	98.7834	51.2695	98.6926	51.2695	98.7072	51.2695	98.623	51.2695	98.6373	51.2695	98.5623	51.2695	98.5757	51.2695	98.5123	51.2695	98.5242	51.2695	98.4745	51.2695	98.4839	51.2695	98.4497	51.2695	98.4558	51.2695	98.4384	51.2695	98.4405
52.7344	99.1139	52.7344	99.1172	52.7344	99.0967	52.7344	99.1066	52.7344	99.0663	52.7344	99.0822	52.7344	99.0235	52.7344	99.0448	52.7344	98.9696	52.7344	98.9954	52.7344	98.9061	52.7344	98.9354	52.7344	98.8351	52.7344	98.8666	52.7344	98.7586	52.7344	98.791	52.7344	98.6788	52.7344	98.711	52.7344	98.5984	52.7344	98.6292	52.7344	98.5197	52.7344	98.5482	52.7344	98.4452	52.7344	98.4709	52.7344	98.3775	52.7344	98.3997	52.7344	98.3185	52.7344	98.3371	52.7344	98.2701	52.7344	98.2848	52.7344	98.2335	52.7344	98.2441	52.7344	98.2095	52.7344	98.2159	52.7344	98.1985	52.7344	98.2007
54.1992	98.9569	54.1992	98.9606	54.1992	98.9392	54.1992	98.9505	54.1992	98.9081	54.1992	98.927	54.1992	98.8645	54.1992	98.891	54.1992	98.8096	54.1992	98.8437	54.1992	98.7453	54.1992	98.7868	54.1992	98.6738	54.1992	98.7223	54.1992	98.5975	54.1992	98.6523	54.1992	98.5195	54.1992	98.5792	54.1992	98.4425	54.1992	98.5055	54.1992	98.3696	54.1992	98.4337	54.1992	98.3034	54.1992	98.3661	54.1992	98.246	54.1992	98.3046	54.1992	98.1991	54.1992	98.251	54.1992	98.1633	54.1992	98.2063	54.1992	98.1388	54.1992	98.1709	54.1992	98.1253	54.1992	98.1451	54.1992	98.1222	54.1992	98.1289
55.6641	98.7394	55.6641	98.7373	55.6641	98.7254	55.6641	98.7195	55.6641	98.6957	55.6641	98.6866	55.6641	98.6506	55.6641	98.6394	55.6641	98.5912	55.6641	98.5794	55.6641	98.5188	55.6641	98.5083	55.6641	98.4355	55.6641	98.428	55.6641	98.3436	55.6641	98.341	55.6641	98.2461	55.6641	98.2501	55.6641	98.1464	55.6641	98.158	55.6641	98.0483	55.6641	98.0677	55.6641	97.9556	55.6641	97.982	55.6641	97.8718	55.6641	97.9032	55.6641	97.8003	55.6641	97.8336	55.6641	97.7431	55.6641	97.7747	55.6641	97.7018	55.6641	97.7277	55.6641	97.6766	55.6641	97.6936	55.6641	97.6673	55.6641	97.6732
58.5938	98.5839	58.5938	98.5834	58.5938	98.5675	58.5938	98.5657	58.5938	98.5346	58.5938	98.5313	58.5938	98.4863	58.5938	98.4811	58.5938	98.4241	58.5938	98.4165	58.5938	98.3497	58.5938	98.3393	58.5938	98.2653	58.5938	98.2519	58.5938	98.1733	58.5938	98.1571	58.5938	98.0763	58.5938	98.0577	58.5938	97.9772	58.5938	97.9569	58.5938	97.8789	58.5938	97.858	58.5938	97.7842	58.5938	97.7639	58.5938	97.6961	58.5938	97.6776	58.5938	97.6175	58.5938	97.6016	58.5938	97.5509	58.5938	97.5383	58.5938	97.4985	58.5938	97.4895	58.5938	97.4621	58.5938	97.4567	58.5938	97.4427	58.5938	97.4409
60.0586	98.6757	60.0586	98.6756	60.0586	98.6606	60.0586	98.6603	60.0586	98.6308	60.0586	98.6303	60.0586	98.5871	60.0586	98.5865	60.0586	98.531	60.0586	98.5306	60.0586	98.4643	60.0586	98.4641	60.0586	98.3892	60.0586	98.3895	60.0586	98.3082	60.0586	98.309	60.0586	98.2237	60.0586	98.2253	60.0586	98.1387	60.0586	98.1412	60.0586	98.0557	60.0586	98.0592	60.0586	97.9773	60.0586	97.982	60.0586	97.906	60.0586	97.9118	60.0586	97.8438	60.0586	97.8505	60.0586	97.7926	60.0586	97.7995	60.0586	97.7538	60.0586	97.7598	60.0586	97.7282	60.0586	97.7324	60.0586	97.7162	60.0586	97.7177
62.9883	98.7863	62.9883	98.7821	62.9883	98.7734	62.9883	98.7606	62.9883	98.7438	62.9883	98.7225	62.9883	98.6988	62.9883	98.669	62.9883	98.6399	62.9883	98.6019	62.9883	98.5694	62.9883	98.5237	62.9883	98.4896	62.9883	98.4373	62.9883	98.4036	62.9883	98.3461	62.9883	98.3143	62.9883	98.2535	62.9883	98.2248	62.9883	98.1631	62.9883	98.1383	62.9883	98.078	62.9883	98.0574	62.9883	98.0009	62.9883	97.9845	62.9883	97.9339	62.9883	97.9213	62.9883	97.8782	62.9883	97.8691	62.9883	97.8346	62.9883	97.8284	62.9883	97.8034	62.9883	97.7996	62.9883	97.7844	62.9883	97.7826	62.9883	97.7776
64.4531	98.8623	64.4531	98.858	64.4531	98.8495	64.4531	98.8365	64.4531	98.8201	64.4531	98.7986	64.4531	98.7752	64.4531	98.7456	64.4531	98.7165	64.4531	98.6795	64.4531	98.6462	64.4531	98.6027	64.4531	98.5668	64.4531	98.5182	64.4531	98.4813	64.4531	98.429	64.4531	98.3928	64.4531	98.3386	64.4531	98.3043	64.4531	98.2501	64.4531	98.2189	64.4531	98.1666	64.4531	98.1392	64.4531	98.0906	64.4531	98.0676	64.4531	98.0243	64.4531	98.0058	64.4531	97.9689	64.4531	97.9548	64.4531	97.9254	64.4531	97.9154	64.4531	97.894	64.4531	97.8876	64.4531	97.8747	64.4531	97.8716	64.4531	97.8673
67.3828	99.0065	67.3828	98.9994	67.3828	98.9969	67.3828	98.9757	67.3828	98.9709	67.3828	98.9364	67.3828	98.9298	67.3828	98.8829	67.3828	98.8751	67.3828	98.8175	67.3828	98.8092	67.3828	98.7426	67.3828	98.7349	67.3828	98.6615	67.3828	98.6552	67.3828	98.5773	67.3828	98.5732	67.3828	98.4933	67.3828	98.4923	67.3828	98.4128	67.3828	98.4153	67.3828	98.3384	67.3828	98.3445	67.3828	98.2724	67.3828	98.2816	67.3828	98.2164	67.3828	98.2279	67.3828	98.1713	67.3828	98.1836	67.3828	98.1375	67.3828	98.1488	67.3828	98.1147	67.3828	98.1234	67.3828	98.1024	67.3828	98.1071	67.3828	98.1001
68.8477	99.1472	68.8477	99.1395	68.8477	99.1375	68.8477	99.1147	68.8477	99.111	68.8477	99.0736	68.8477	99.0687	68.8477	99.0179	68.8477	99.0126	68.8477	98.9497	68.8477	98.9449	68.8477	98.8718	68.8477	98.8685	68.8477	98.7874	68.8477	98.7867	68.8477	98.7001	68.8477	98.703	68.8477	98.6135	68.8477	98.6206	68.8477	98.5309	68.8477	98.5427	68.8477	98.4554	68.8477	98.4718	68.8477	98.3892	68.8477	98.4095	68.8477	98.3339	68.8477	98.3567	68.8477	98.2905	68.8477	98.3135	68.8477	98.2588	68.8477	98.2794	68.8477	98.2385	68.8477	98.2541	68.8477	98.2287	68.8477	98.2371	68.8477	98.2285
71.7773	99.5097	71.7773	99.4999	71.7773	99.5003	71.7773	99.4712	71.7773	99.4725	71.7773	99.4245	71.7773	99.4274	71.7773	99.3613	71.7773	99.3672	71.7773	99.2841	71.7773	99.2944	71.7773	99.1961	71.7773	99.2122	71.7773	99.1008	71.7773	99.124	71.7773	99.0025	71.7773	99.0338	71.7773	98.9054	71.7773	98.9452	71.7773	98.8136	71.7773	98.8615	71.7773	98.7307	71.7773	98.7855	71.7773	98.6597	71.7773	98.719	71.7773	98.6023	71.7773	98.6626	71.7773	98.5595	71.7773	98.6162	71.7773	98.5307	71.7773	98.5791	71.7773	98.515	71.7773	98.5504	71.7773	98.5106	71.7773	98.5293	71.7773	98.5158
74.707	99.8188	74.707	99.81	74.707	99.8088	74.707	99.7827	74.707	99.7808	74.707	99.7376	74.707	99.736	74.707	99.6764	74.707	99.6765	74.707	99.6015	74.707	99.6049	74.707	99.5159	74.707	99.5241	74.707	99.4233	74.707	99.4375	74.707	99.3276	74.707	99.3485	74.707	99.2328	74.707	99.2607	74.707	99.1429	74.707	99.177	74.707	99.0613	74.707	99.1003	74.707	98.9907	74.707	99.0324	74.707	98.933	74.707	98.9746	74.707	98.889	74.707	98.9273	74.707	98.8583	74.707	98.8903	74.707	98.8398	74.707	98.8627	74.707	98.8321	74.707	98.8441	74.707	98.8338
77.6367	100.003	77.6367	99.9992	77.6367	99.9865	77.6367	99.9754	77.6367	99.9511	77.6367	99.9325	77.6367	99.8982	77.6367	99.8721	77.6367	99.8304	77.6367	99.797	77.6367	99.7508	77.6367	99.7104	77.6367	99.6631	77.6367	99.6163	77.6367	99.571	77.6367	99.519	77.6367	99.4784	77.6367	99.423	77.6367	99.389	77.6367	99.3324	77.6367	99.306	77.6367	99.2505	77.6367	99.2317	77.6367	99.18	77.6367	99.1679	77.6367	99.1221	77.6367	99.1155	77.6367	99.0773	77.6367	99.0744	77.6367	99.0447	77.6367	99.0442	77.6367	99.0232	77.6367	99.0236	77.6367	99.0112	77.6367	99.0117	77.6367	99.0076
79.1016	100.092	79.1016	100.089	79.1016	100.074	79.1016	100.065	79.1016	100.037	79.1016	100.021	79.1016	99.9807	79.1016	99.9593	79.1016	99.9093	79.1016	99.8821	79.1016	99.8256	79.1016	99.7931	79.1016	99.7334	79.1016	99.6968	79.1016	99.637	79.1016	99.5976	79.1016	99.5406	79.1016	99.5003	79.1016	99.4481	79.1016	99.4092	79.1016	99.3631	79.1016	99.3278	79.1016	99.2882	79.1016	99.2584	79.1016	99.2253	79.1016	99.2021	79.1016	99.175	79.1016	99.1586	79.1016	99.1372	79.1016	99.1268	79.1016	99.1109	79.1016	99.1051	79.1016	99.0944	79.1016	99.0918	79.1016	99.0865	79.1016	99.0857
82.0312	100.247	82.0312	100.239	82.0312	100.232	82.0312	100.209	82.0312	100.196	82.0312	100.158	82.0312	100.14	82.0312	100.088	82.0312	100.067	82.0312	100.003	82.0312	99.9788	82.0312	99.9053	82.0312	99.8807	82.0312	99.8005	82.0312	99.777	82.0312	99.6933	82.0312	99.6723	82.0312	99.5889	82.0312	99.5713	82.0312	99.492	82.0312	99.4781	82.0312	99.4064	82.0312	99.396	82.0312	99.3345	82.0312	99.3271	82.0312	99.2774	82.0312	99.2723	82.0312	99.2346	82.0312	99.2312	82.0312	99.2046	82.0312	99.2023	82.0312	99.1852	82.0312	99.1839	82.0312	99.1745	82.0312	99.1739	82.0312	99.1709
84.9609	100.265	84.9609	100.262	84.9609	100.247	84.9609	100.239	84.9609	100.208	84.9609	100.196	84.9609	100.152	84.9609	100.136	84.9609	100.08	84.9609	100.062	84.9609	99.9957	84.9609	99.9769	84.9609	99.9034	84.9609	99.8865	84.9609	99.8076	84.9609	99.7948	84.9609	99.713	84.9609	99.7067	84.9609	99.6241	84.9609	99.6261	84.9609	99.545	84.9609	99.5564	84.9609	99.4785	84.9609	99.4992	84.9609	99.4264	84.9609	99.4547	84.9609	99.3889	84.9609	99.4219	84.9609	99.3652	84.9609	99.3984	84.9609	99.3531	84.9609	99.3816	84.9609	99.3499	84.9609	99.3691	84.9609	99.3528	84.9609	99.3596
87.8906	100.462	87.8906	100.466	87.8906	100.433	87.8906	100.447	87.8906	100.382	87.8906	100.404	87.8906	100.311	87.8906	100.34	87.8906	100.223	87.8906	100.259	87.8906	100.121	87.8906	100.163	87.8906	100.012	87.8906	100.06	87.8906	99.9008	87.8906	99.9524	87.8906	99.7921	87.8906	99.8474	87.8906	99.6909	87.8906	99.7493	87.8906	99.6015	87.8906	99.662	87.8906	99.5267	87.8906	99.5878	87.8906	99.468	87.8906	99.5277	87.8906	99.4253	87.8906	99.4809	87.8906	99.3975	87.8906	99.4458	87.8906	99.3823	87.8906	99.4199	87.8906	99.3772	87.8906	99.4012	87.8906	99.3797	87.8906	99.3879
90.8203	100.484	90.8203	100.49	90.8203	100.453	90.8203	100.471	90.8203	100.398	90.8203	100.427	90.8203	100.321	90.8203	100.36	90.8203	100.225	90.8203	100.274	90.8203	100.115	90.8203	100.173	90.8203	99.9964	90.8203	100.061	90.8203	99.8736	90.8203	99.9441	90.8203	99.7525	90.8203	99.8281	90.8203	99.6388	90.8203	99.7186	90.8203	99.5372	90.8203	99.6202	90.8203	99.4517	90.8203	99.536	90.8203	99.3844	90.8203	99.4674	90.8203	99.3361	90.8203	99.4139	90.8203	99.3056	90.8203	99.3736	90.8203	99.2904	90.8203	99.3436	90.8203	99.2872	90.8203	99.3211	90.8203	99.2926	90.8203	99.3043
95.2148	100.434	95.2148	100.434	95.2148	100.409	95.2148	100.408	95.2148	100.359	95.2148	100.359	95.2148	100.286	95.2148	100.289	95.2148	100.194	95.2148	100.202	95.2148	100.087	95.2148	100.103	95.2148	99.9719	95.2148	99.9979	95.2148	99.8545	95.2148	99.8914	95.2148	99.7417	95.2148	99.7898	95.2148	99.6396	95.2148	99.698	95.2148	99.5534	95.2148	99.6204	95.2148	99.4864	95.2148	99.5591	95.2148	99.4398	95.2148	99.5146	95.2148	99.4126	95.2148	99.4849	95.2148	99.4018	95.2148	99.4664	95.2148	99.4032	95.2148	99.4545	95.2148	99.4119	95.2148	99.445	95.2148	99.4235	95.2148	99.435
98.1445	100.473	98.1445	100.472	98.1445	100.449	98.1445	100.447	98.1445	100.4	98.1445	100.4	98.1445	100.329	98.1445	100.334	98.1445	100.239	98.1445	100.252	98.1445	100.133	98.1445	100.159	98.1445	100.017	98.1445	100.06	98.1445	99.8979	98.1445	99.9599	98.1445	99.7816	98.1445	99.8634	98.1445	99.6748	98.1445	99.7748	98.1445	99.583	98.1445	99.6972	98.1445	99.5104	98.1445	99.6325	98.1445	99.4587	98.1445	99.5813	98.1445	99.4274	98.1445	99.5424	98.1445	99.414	98.1445	99.5135	98.1445	99.4145	98.1445	99.4913	98.1445	99.4242	98.1445	99.4727	98.1445	99.4389	98.1445	99.4555
101.074	100.343	101.074	100.342	101.074	100.32	101.074	100.317	101.074	100.275	101.074	100.271	101.074	100.21	101.074	100.206	101.074	100.13	101.074	100.127	101.074	100.04	101.074	100.041	101.074	99.9432	101.074	99.9531	101.074	99.8465	101.074	99.8697	101.074	99.7548	101.074	99.7959	101.074	99.6735	101.074	99.7355	101.074	99.6068	101.074	99.6902	101.074	99.5579	101.074	99.66	101.074	99.5284	101.074	99.6426	101.074	99.5177	101.074	99.6344	101.074	99.523	101.074	99.6308	101.074	99.5399	101.074	99.6271	101.074	99.5627	101.074	99.6195	101.074	99.5861	101.074	99.6058
105.469	100.564	105.469	100.55	105.469	100.547	105.469	100.504	105.469	100.5	105.469	100.429	105.469	100.426	105.469	100.328	105.469	100.33	105.469	100.206	105.469	100.217	105.469	100.071	105.469	100.095	105.469	99.9299	105.469	99.9705	105.469	99.7917	105.469	99.8499	105.469	99.6644	105.469	99.7394	105.469	99.5548	105.469	99.6431	105.469	99.4671	105.469	99.5635	105.469	99.4029	105.469	99.5008	105.469	99.3608	105.469	99.4538	105.469	99.3376	105.469	99.4196	105.469	99.329	105.469	99.395	105.469	99.3305	105.469	99.3766	105.469	99.3381	105.469	99.3618	105.469	99.349
108.398	100.665	108.398	100.661	108.398	100.637	108.398	100.625	108.398	100.578	108.398	100.559	108.398	100.491	108.398	100.467	108.398	100.381	108.398	100.354	108.398	100.253	108.398	100.225	108.398	100.115	108.398	100.09	108.398	99.9739	108.398	99.9548	108.398	99.8388	108.398	99.828	108.398	99.7165	108.398	99.7159	108.398	99.6127	108.398	99.6231	108.398	99.5309	108.398	99.5515	108.398	99.4719	108.398	99.5004	108.398	99.4342	108.398	99.4667	108.398	99.4141	108.398	99.4461	108.398	99.407	108.398	99.4338	108.398	99.4079	108.398	99.4257	108.398	99.4128	108.398	99.419
112.793	100.682	112.793	100.677	112.793	100.652	112.793	100.638	112.793	100.587	112.793	100.566	112.793	100.492	112.793	100.466	112.793	100.37	112.793	100.345	112.793	100.229	112.793	100.209	112.793	100.076	112.793	100.066	112.793	99.9209	112.793	99.9258	112.793	99.7724	112.793	99.7955	112.793	99.639	112.793	99.6821	112.793	99.5271	112.793	99.5896	112.793	99.4406	112.793	99.5194	112.793	99.3804	112.793	99.4697	112.793	99.3444	112.793	99.4365	112.793	99.3288	112.793	99.4144	112.793	99.3284	112.793	99.3981	112.793	99.3379	112.793	99.3835	112.793	99.3524	112.793	99.3683
117.188	100.681	117.188	100.668	117.188	100.657	117.188	100.621	117.188	100.598	117.188	100.541	117.188	100.506	117.188	100.434	117.188	100.383	117.188	100.306	117.188	100.237	117.188	100.162	117.188	100.073	117.188	100.013	117.188	99.9028	117.188	99.8662	117.188	99.7345	117.188	99.7305	117.188	99.5785	117.188	99.6124	117.188	99.4439	117.188	99.5161	117.188	99.3374	117.188	99.4431	117.188	99.2624	117.188	99.3912	117.188	99.2185	117.188	99.3561	117.188	99.2018	117.188	99.3319	117.188	99.2061	117.188	99.3126	117.188	99.2236	117.188	99.2934	117.188	99.2473	117.188	99.2715
120.117	100.69	120.117	100.67	120.117	100.673	120.117	100.615	120.117	100.62	120.117	100.525	120.117	100.533	120.117	100.407	120.117	100.416	120.117	100.264	120.117	100.275	120.117	100.106	120.117	100.117	120.117	99.9414	120.117	99.9492	120.117	99.7797	120.117	99.7813	120.117	99.6303	120.117	99.6221	120.117	99.5013	120.117	99.4799	120.117	99.3976	120.117	99.3613	120.117	99.3206	120.117	99.2705	120.117	99.2683	120.117	99.2086	120.117	99.2357	120.117	99.1732	120.117	99.2164	120.117	99.1594	120.117	99.204	120.117	99.1606	120.117	99.1934	120.117	99.17	120.117	99.182
124.512	100.517	124.512	100.5	124.512	100.499	124.512	100.448	124.512	100.447	124.512	100.363	124.512	100.364	124.512	100.248	124.512	100.254	124.512	100.11	124.512	100.123	124.512	99.9549	124.512	99.978	124.512	99.7927	124.512	99.8276	124.512	99.6332	124.512	99.6799	124.512	99.4866	124.512	99.5432	124.512	99.3616	124.512	99.4241	124.512	99.264	124.512	99.3275	124.512	99.1959	124.512	99.2554	124.512	99.1555	124.512	99.2069	124.512	99.1377	124.512	99.1787	124.512	99.1355	124.512	99.1653	124.512	99.1415	124.512	99.1606	124.512	99.1496	124.512	99.1588	124.512	99.1557
128.906	100.395	128.906	100.387	128.906	100.369	128.906	100.345	128.906	100.31	128.906	100.27	128.906	100.223	128.906	100.166	128.906	100.112	128.906	100.038	128.906	99.9824	128.906	99.8917	128.906	99.8429	128.906	99.7372	128.906	99.7017	128.906	99.5843	128.906	99.5674	128.906	99.4435	128.906	99.4484	128.906	99.3245	128.906	99.3513	128.906	99.2341	128.906	99.2798	128.906	99.1751	128.906	99.2343	128.906	99.146	128.906	99.2114	128.906	99.1412	128.906	99.205	128.906	99.1527	128.906	99.2077	128.906	99.1719	128.906	99.2121	128.906	99.1915	128.906	99.2126	128.906	99.2059
133.301	100.401	133.301	100.404	133.301	100.36	133.301	100.371	133.301	100.284	133.301	100.302	133.301	100.177	133.301	100.202	133.301	100.046	133.301	100.076	133.301	99.8971	133.301	99.9332	133.301	99.7408	133.301	99.7815	133.301	99.5865	133.301	99.6317	133.301	99.4441	133.301	99.4939	133.301	99.3222	133.301	99.377	133.301	99.2273	133.301	99.287	133.301	99.1626	133.301	99.2264	133.301	99.1275	133.301	99.193	133.301	99.118	133.301	99.1813	133.301	99.1271	133.301	99.1833	133.301	99.1465	133.301	99.1908	133.301	99.1682	133.301	99.1965	133.301	99.1858	133.301	99.1956
139.16	100.357	139.16	100.353	139.16	100.321	139.16	100.307	139.16	100.245	139.16	100.224	139.16	100.134	139.16	100.107	139.16	99.9924	139.16	99.9635	139.16	99.8291	139.16	99.8025	139.16	99.6536	139.16	99.6348	139.16	99.4769	139.16	99.4723	139.16	99.3107	139.16	99.327	139.16	99.1658	139.16	99.2085	139.16	99.0513	139.16	99.123	139.16	98.9726	139.16	99.0714	139.16	98.9307	139.16	99.0494	139.16	98.922	139.16	99.0486	139.16	98.9389	139.16	99.0587	139.16	98.9713	139.16	99.0697	139.16	99.0088	139.16	99.0732	139.16	99.042	139.16	99.0644
143.555	100.286	143.555	100.272	143.555	100.257	143.555	100.216	143.555	100.188	143.555	100.121	143.555	100.081	143.555	99.9921	143.555	99.9437	143.555	99.8365	143.555	99.7831	143.555	99.6634	143.555	99.6101	143.555	99.4839	143.555	99.4365	143.555	99.3107	143.555	99.2742	143.555	99.1568	143.555	99.1341	143.555	99.0335	143.555	99.0247	143.555	98.9486	143.555	98.9505	143.555	98.904	143.555	98.9117	143.555	98.8957	143.555	98.9043	143.555	98.9142	143.555	98.9204	143.555	98.9469	143.555	98.9497	143.555	98.9809	143.555	98.9813	143.555	99.0056	143.555	99.0053	143.555	99.0144
147.949	100.303	147.949	100.288	147.949	100.272	147.949	100.229	147.949	100.196	147.949	100.129	147.949	100.079	147.949	99.9927	147.949	99.9265	147.949	99.8281	147.949	99.7464	147.949	99.6444	147.949	99.5504	147.949	99.4527	147.949	99.3519	147.949	99.2658	147.949	99.166	147.949	99.0964	147.949	99.0065	147.949	98.9562	147.949	98.8844	147.949	98.8535	147.949	98.8047	147.949	98.7912	147.949	98.7661	147.949	98.7667	147.949	98.7614	147.949	98.7717	147.949	98.7799	147.949	98.7952	147.949	98.8092	147.949	98.8246	147.949	98.838	147.949	98.8493	147.949	98.8572	147.949	98.8613
153.809	100.314	153.809	100.302	153.809	100.282	153.809	100.248	153.809	100.207	153.809	100.155	153.809	100.092	153.809	100.027	153.809	99.9391	153.809	99.8704	153.809	99.7562	153.809	99.6936	153.809	99.552	153.809	99.5067	153.809	99.3388	153.809	99.3214	153.809	99.1311	153.809	99.1502	153.809	98.9453	153.809	99.0054	153.809	98.7965	153.809	98.8962	153.809	98.6952	153.809	98.8273	153.809	98.645	153.809	98.7969	153.809	98.641	153.809	98.7968	153.809	98.6713	153.809	98.8143	153.809	98.7207	153.809	98.8354	153.809	98.7735	153.809	98.8477	153.809	98.8169	153.809	98.8426
159.668	100.324	159.668	100.301	159.668	100.3	159.668	100.233	159.668	100.232	159.668	100.125	159.668	100.121	159.668	99.9815	159.668	99.9749	159.668	99.8121	159.668	99.8002	159.668	99.6271	159.668	99.6072	159.668	99.4384	159.668	99.4075	159.668	99.2585	159.668	99.2143	159.668	99.0993	159.668	99.0414	159.668	98.9706	159.668	98.9017	159.668	98.8789	159.668	98.8047	159.668	98.8258	159.668	98.7541	159.668	98.8084	159.668	98.7462	159.668	98.8186	159.668	98.7704	159.668	98.8453	159.668	98.8119	159.668	98.8756	159.668	98.8556	159.668	98.8979	159.668	98.8887	159.668	98.9035
165.527	100.3	165.527	100.269	165.527	100.282	165.527	100.19	165.527	100.218	165.527	100.069	165.527	100.11	165.527	99.9134	165.527	99.9656	165.527	99.7328	165.527	99.7945	165.527	99.5405	165.527	99.608	165.527	99.3511	165.527	99.4194	165.527	99.1797	165.527	99.2432	165.527	99.0398	165.527	99.0938	165.527	98.9417	165.527	98.9833	165.527	98.8898	165.527	98.9192	165.527	98.8821	165.527	98.9021	165.527	98.9102	165.527	98.9252	165.527	98.9619	165.527	98.9752	165.527	99.0228	165.527	99.0356	165.527	99.0793	165.527	99.0902	165.527	99.12	165.527	99.1265	165.527	99.1369
171.387	100.419	171.387	100.386	171.387	100.397	171.387	100.298	171.387	100.324	171.387	100.157	171.387	100.205	171.387	99.9699	171.387	100.047	171.387	99.7461	171.387	99.8608	171.387	99.4997	171.387	99.6573	171.387	99.2478	171.387	99.4492	171.387	99.0105	171.387	99.2497	171.387	98.8075	171.387	99.0717	171.387	98.6554	171.387	98.927	171.387	98.5635	171.387	98.8243	171.387	98.5315	171.387	98.7667	171.387	98.5504	171.387	98.7506	171.387	98.6043	171.387	98.7653	171.387	98.6749	171.387	98.7958	171.387	98.7451	171.387	98.8258	171.387	98.8012	171.387	98.8416	171.387	98.8344
177.246	100.209	177.246	100.225	177.246	100.144	177.246	100.19	177.246	100.033	177.246	100.106	177.246	99.8809	177.246	99.9741	177.246	99.6968	177.246	99.8008	177.246	99.4901	177.246	99.5934	177.246	99.2723	177.246	99.3626	177.246	99.056	177.246	99.1225	177.246	98.8546	177.246	98.8901	177.246	98.6807	177.246	98.6837	177.246	98.5449	177.246	98.5193	177.246	98.4537	177.246	98.4075	177.246	98.4077	177.246	98.3501	177.246	98.4007	177.246	98.3402	177.246	98.4206	177.246	98.3643	177.246	98.4518	177.246	98.4058	177.246	98.4788	177.246	98.4485	177.246	98.4897	177.246	98.4791
183.105	100.094	183.105	100.118	183.105	100.024	183.105	100.097	183.105	99.9103	183.105	100.037	183.105	99.7571	183.105	99.9428	183.105	99.5741	183.105	99.8226	183.105	99.3735	183.105	99.6833	183.105	99.1692	183.105	99.5324	183.105	98.9752	183.105	99.3775	183.105	98.8035	183.105	99.2265	183.105	98.6628	183.105	99.0879	183.105	98.5578	183.105	98.9691	183.105	98.4898	183.105	98.8758	183.105	98.4572	183.105	98.8094	183.105	98.4562	183.105	98.7666	183.105	98.4808	183.105	98.7401	183.105	98.5232	183.105	98.7203	183.105	98.5742	183.105	98.698	183.105	98.6243	183.105	98.6666
188.965	100.241	188.965	100.236	188.965	100.199	188.965	100.189	188.965	100.109	188.965	100.108	188.965	99.974	188.965	100.004	188.965	99.8017	188.965	99.8869	188.965	99.6029	188.965	99.7686	188.965	99.3919	188.965	99.6561	188.965	99.1848	188.965	99.5529	188.965	98.9975	188.965	99.4587	188.965	98.8433	188.965	99.3712	188.965	98.7303	188.965	99.2873	188.965	98.6601	188.965	99.2054	188.965	98.6281	188.965	99.1256	188.965	98.626	188.965	99.0496	188.965	98.6444	188.965	98.9792	188.965	98.6757	188.965	98.9155	188.965	98.7146	188.965	98.8581	188.965	98.7584	188.965	98.8061
196.289	98.4673	196.289	98.4103	196.289	98.4561	196.289	98.2933	196.289	98.3826	196.289	98.1393	196.289	98.2646	196.289	97.9857	196.289	98.13	196.289	97.8791	196.289	98.0129	196.289	97.8635	196.289	97.9469	196.289	97.9652	196.289	97.9568	196.289	98.1815	196.289	98.0515	196.289	98.4815	196.289	98.2211	196.289	98.8189	196.289	98.4416	196.289	99.1472	196.289	98.6829	196.289	99.4295	196.289	98.9178	196.289	99.643	196.289	99.1271	196.289	99.7797	196.289	99.3024	196.289	99.8438	196.289	99.4448	196.289	99.8481	196.289	99.5612	196.289	99.8093	196.289	99.6592	196.289	99.7429
203.613	99.3143	203.613	99.2445	203.613	99.2792	203.613	99.0687	203.613	99.1429	203.613	98.7904	203.613	98.9125	203.613	98.4195	203.613	98.5986	203.613	97.9759	203.613	98.218	203.613	97.4939	203.613	97.7968	203.613	97.0249	203.613	97.3733	203.613	96.6354	203.613	96.9999	203.613	96.395	203.613	96.7364	203.613	96.3523	203.613	96.6338	203.613	96.5107	203.613	96.711	203.613	96.8254	203.613	96.943	203.613	97.2234	203.613	97.2712	203.613	97.6304	203.613	97.6287	203.613	97.988	203.613	97.9593	203.613	98.2578	203.613	98.2237	203.613	98.4194	203.613	98.3973	203.613	98.4654
210.938	98.8399	210.938	98.7975	210.938	98.7874	210.938	98.6536	210.938	98.6512	210.938	98.4085	210.938	98.4479	210.938	98.0717	210.938	98.1997	210.938	97.668	210.938	97.9358	210.938	97.2433	210.938	97.6923	210.938	96.8669	210.938	97.5082	210.938	96.62	210.938	97.4181	210.938	96.5656	210.938	97.4409	210.938	96.7142	210.938	97.5716	210.938	97.0176	210.938	97.7829	210.938	97.3978	210.938	98.0339	210.938	97.7826	210.938	98.2833	210.938	98.1233	210.938	98.4988	210.938	98.3961	210.938	98.6615	210.938	98.5955	210.938	98.7644	210.938	98.7262	210.938	98.8081	210.938	98.7954
218.262	100.177	218.262	100.178	218.262	100.061	218.262	100.064	218.262	99.8326	218.262	99.8331	218.262	99.4919	218.262	99.4836	218.262	99.0455	218.262	99.0188	218.262	98.5089	218.262	98.453	218.262	97.9149	218.262	97.8229	218.262	97.3231	218.262	97.201	218.262	96.8257	218.262	96.7028	218.262	96.5328	218.262	96.4605	218.262	96.5259	218.262	96.5517	218.262	96.8033	218.262	96.9389	218.262	97.2782	218.262	97.495	218.262	97.8321	218.262	98.083	218.262	98.3655	218.262	98.6052	218.262	98.8138	218.262	99.0077	218.262	99.1418	218.262	99.2667	218.262	99.3317	218.262	99.3747
225.586	100.51	225.586	100.515	225.586	100.403	225.586	100.419	225.586	100.194	225.586	100.222	225.586	99.8831	225.586	99.9224	225.586	99.4701	225.586	99.5245	225.586	98.9611	225.586	99.038	225.586	98.3713	225.586	98.4861	225.586	97.7342	225.586	97.9138	225.586	97.1135	225.586	97.3941	225.586	96.61	225.586	97.0233	225.586	96.3437	225.586	96.889	225.586	96.3931	225.586	97.0193	225.586	96.7338	225.586	97.3594	225.586	97.2497	225.586	97.8034	225.586	97.8046	225.586	98.2456	225.586	98.2955	225.586	98.6094	225.586	98.6639	225.586	98.85	225.586	98.8829	225.586	98.9444
232.91	100.43	232.91	100.381	232.91	100.381	232.91	100.24	232.91	100.232	232.91	100.009	232.91	99.9778	232.91	99.691	232.91	99.6179	232.91	99.2888	232.91	99.1549	232.91	98.8116	232.91	98.5976	232.91	98.2806	232.91	97.9654	232.91	97.7369	232.91	97.2966	232.91	97.246	232.91	96.6609	232.91	96.8902	232.91	96.165	232.91	96.74	232.91	95.9271	232.91	96.8154	232.91	96.01	232.91	97.0703	232.91	96.3668	232.91	97.4169	232.91	96.8683	232.91	97.7645	232.91	97.3789	232.91	98.0429	232.91	97.8039	232.91	98.206	232.91	98.0929	232.91	98.227
241.699	100.138	241.699	100.092	241.699	100.087	241.699	99.9485	241.699	99.9373	241.699	99.7099	241.699	99.6914	241.699	99.377	241.699	99.3535	241.699	98.9519	241.699	98.9327	241.699	98.441	241.699	98.4449	241.699	97.8611	241.699	97.9137	241.699	97.2496	241.699	97.3727	241.699	96.6755	241.699	96.8686	241.699	96.2382	241.699	96.4627	241.699	96.0355	241.699	96.2235	241.699	96.1046	241.699	96.2003	241.699	96.3909	241.699	96.3881	241.699	96.783	241.699	96.7194	241.699	97.1726	241.699	97.0947	241.699	97.4853	241.699	97.4242	241.699	97.6796	241.699	97.6478	241.699	97.7357
250.488	100.741	250.488	100.714	250.488	100.666	250.488	100.583	250.488	100.484	250.488	100.35	250.488	100.191	250.488	100.009	250.488	99.7863	250.488	99.5609	250.488	99.2724	250.488	99.0081	250.488	98.6642	250.488	98.367	250.488	97.9947	250.488	97.6748	250.488	97.3238	250.488	96.999	250.488	96.7415	250.488	96.4371	250.488	96.3513	250.488	96.0945	250.488	96.2263	250.488	96.0349	250.488	96.3643	250.488	96.2392	250.488	96.6878	250.488	96.6155	250.488	97.0875	250.488	97.0494	250.488	97.4649	250.488	97.4454	250.488	97.7496	250.488	97.74	250.488	97.8999	250.488	97.8969
259.277	100.479	259.277	100.446	259.277	100.421	259.277	100.325	259.277	100.267	259.277	100.118	259.277	100.01	259.277	99.8262	259.277	99.6442	259.277	99.4487	259.277	99.1669	259.277	98.9841	259.277	98.5814	259.277	98.4364	259.277	97.9044	259.277	97.827	259.277	97.1751	259.277	97.2109	259.277	96.4669	259.277	96.6838	259.277	95.8939	259.277	96.3566	259.277	95.5871	259.277	96.2909	259.277	95.6226	259.277	96.4531	259.277	95.9558	259.277	96.7432	259.277	96.4441	259.277	97.0603	259.277	96.9329	259.277	97.3361	259.277	97.3153	259.277	97.5287	259.277	97.5419	259.277	97.6067
268.066	100.493	268.066	100.4	268.066	100.487	268.066	100.206	268.066	100.385	268.066	99.908	268.066	100.185	268.066	99.5056	268.066	99.8848	268.066	99.0011	268.066	99.4785	268.066	98.4036	268.066	98.9605	268.066	97.7333	268.066	98.3332	268.066	97.0302	268.066	97.619	268.066	96.3677	268.066	96.8765	268.066	95.8621	268.066	96.2076	268.066	95.6444	268.066	95.7385	268.066	95.7752	268.066	95.5646	268.066	96.1806	268.066	95.6942	268.066	96.6978	268.066	96.0492	268.066	97.1717	268.066	96.5135	268.066	97.5033	268.066	96.9779	268.066	97.6466	268.066	97.3573	268.066	97.5925
276.855	100.082	276.855	100.093	276.855	99.9795	276.855	100.002	276.855	99.7969	276.855	99.7997	276.855	99.5415	276.855	99.4789	276.855	99.2139	276.855	99.0346	276.855	98.8072	276.855	98.4627	276.855	98.3089	276.855	97.7635	276.855	97.7093	276.855	96.9519	276.855	97.0157	276.855	96.0765	276.855	96.2768	276.855	95.2484	276.855	95.6039	276.855	94.6512	276.855	95.1527	276.855	94.4676	276.855	95.0338	276.855	94.7238	276.855	95.2215	276.855	95.2499	276.855	95.5828	276.855	95.8214	276.855	95.9798	276.855	96.2821	276.855	96.322	276.855	96.5615	276.855	96.5568	276.855	96.6469
287.109	99.9434	287.109	99.967	287.109	99.8528	287.109	99.9211	287.109	99.6916	287.109	99.7966	287.109	99.4523	287.109	99.5791	287.109	99.1266	287.109	99.2511	287.109	98.7085	287.109	98.7969	287.109	98.1986	287.109	98.2093	287.109	97.608	287.109	97.5001	287.109	96.9644	287.109	96.713	287.109	96.3228	287.109	95.9401	287.109	95.7765	287.109	95.3289	287.109	95.4473	287.109	95.0439	287.109	95.4274	287.109	95.162	287.109	95.7021	287.109	95.5961	287.109	96.1481	287.109	96.1579	287.109	96.6139	287.109	96.6755	287.109	96.9855	287.109	97.045	287.109	97.1986	287.109	97.2222
297.363	100.722	297.363	100.711	297.363	100.643	297.363	100.616	297.363	100.47	297.363	100.439	297.363	100.195	297.363	100.18	297.363	99.8087	297.363	99.834	297.363	99.2979	297.363	99.3925	297.363	98.6501	297.363	98.8423	297.363	97.8598	297.363	98.178	297.363	96.9406	297.363	97.425	297.363	95.9465	297.363	96.667	297.363	95.0042	297.363	96.058	297.363	94.329	297.363	95.7692	297.363	94.1418	297.363	95.8668	297.363	94.4806	297.363	96.2467	297.363	95.1519	297.363	96.7166	297.363	95.9044	297.363	97.108	297.363	96.5647	297.363	97.3178	297.363	97.0435	297.363	97.2995
307.617	100.574	307.617	100.503	307.617	100.55	307.617	100.333	307.617	100.434	307.617	100.066	307.617	100.236	307.617	99.7029	307.617	99.9617	307.617	99.2461	307.617	99.6089	307.617	98.6962	307.617	99.1641	307.617	98.0575	307.617	98.6034	307.617	97.3441	307.617	97.9061	307.617	96.5919	307.617	97.0813	307.617	95.8755	307.617	96.2068	307.617	95.3184	307.617	95.4591	307.617	95.0599	307.617	95.0662	307.617	95.1651	307.617	95.1371	307.617	95.5592	307.617	95.5532	307.617	96.0763	307.617	96.09	307.617	96.5535	307.617	96.5687	307.617	96.8796	307.617	96.8875	307.617	96.9965
319.336	100.17	319.336	100.127	319.336	100.124	319.336	99.9983	319.336	99.9832	319.336	99.7834	319.336	99.7361	319.336	99.4742	319.336	99.3737	319.336	99.0555	319.336	98.8926	319.336	98.5063	319.336	98.3013	319.336	97.8069	319.336	97.6209	319.336	96.9544	319.336	96.8815	319.336	95.9918	319.336	96.1219	319.336	95.0497	319.336	95.4093	319.336	94.3634	319.336	94.8723	319.336	94.1643	319.336	94.6819	319.336	94.4676	319.336	94.9174	319.336	95.06	319.336	95.4539	319.336	95.7048	319.336	96.0576	319.336	96.2583	319.336	96.5415	319.336	96.6509	319.336	96.8119	319.336	96.8445
329.59	99.8818	329.59	99.8574	329.59	99.8452	329.59	99.7704	329.59	99.7493	329.59	99.6194	329.59	99.5926	329.59	99.4007	329.59	99.3664	329.59	99.1047	329.59	99.0516	329.59	98.7134	329.59	98.6221	329.59	98.2023	329.59	98.0515	329.59	97.5507	329.59	97.3248	329.59	96.7619	329.59	96.4526	329.59	95.8999	329.59	95.4964	329.59	95.1309	329.59	94.6061	329.59	94.7036	329.59	94.0327	329.59	94.7739	329.59	94.0001	329.59	95.2325	329.59	94.4792	329.59	95.8161	329.59	95.2016	329.59	96.3099	329.59	95.893	329.59	96.5986	329.59	96.392	329.59	96.6317
341.309	99.9134	341.309	99.877	341.309	99.8439	341.309	99.7444	341.309	99.6611	341.309	99.5248	341.309	99.3635	341.309	99.2273	341.309	98.9556	341.309	98.8587	341.309	98.4419	341.309	98.4168	341.309	97.8221	341.309	97.882	341.309	97.0984	341.309	97.2185	341.309	96.2964	341.309	96.3977	341.309	95.4881	341.309	95.4502	341.309	94.7975	341.309	94.5424	341.309	94.3683	341.309	93.9918	341.309	94.2965	341.309	94.0388	341.309	94.5712	341.309	94.5626	341.309	95.0727	341.309	95.2364	341.309	95.6301	341.309	95.8246	341.309	96.0926	341.309	96.2275	341.309	96.3661	341.309	96.4123
353.027	99.7192	353.027	99.6967	353.027	99.6754	353.027	99.5985	353.027	99.5676	353.027	99.4129	353.027	99.392	353.027	99.132	353.027	99.1415	353.027	98.7546	353.027	98.803	353.027	98.2846	353.027	98.3472	353.027	97.724	353.027	97.7196	353.027	97.0664	353.027	96.8514	353.027	96.2999	353.027	95.7024	353.027	95.4314	353.027	94.3505	353.027	94.5456	353.027	93.1255	353.027	93.8776	353.027	92.5769	353.027	93.7426	353.027	92.9245	353.027	94.2056	353.027	93.7768	353.027	94.9581	353.027	94.686	353.027	95.6416	353.027	95.4338	353.027	96.0605	353.027	95.9378	353.027	96.1566
366.211	100.044	366.211	99.9391	366.211	100.053	366.211	99.7399	366.211	99.9679	366.211	99.449	366.211	99.7901	366.211	99.0682	366.211	99.516	366.211	98.594	366.211	99.1421	366.211	98.0164	366.211	98.6692	366.211	97.322	366.211	98.0966	366.211	96.5046	366.211	97.4037	366.211	95.5915	366.211	96.537	366.211	94.6818	366.211	95.4344	366.211	93.9631	366.211	94.1203	366.211	93.6344	366.211	92.8975	366.211	93.748	366.211	92.411	366.211	94.1664	366.211	92.9431	366.211	94.6908	366.211	93.9357	366.211	95.1642	366.211	94.8122	366.211	95.4816	366.211	95.3609	366.211	95.568
379.395	100.01	379.395	100.059	379.395	99.8891	379.395	100.014	379.395	99.7231	379.395	99.8615	379.395	99.5355	379.395	99.5949	379.395	99.3291	379.395	99.2053	379.395	99.0793	379.395	98.6769	379.395	98.744	379.395	97.984	379.395	98.2809	379.395	97.0924	379.395	97.6619	379.395	95.9741	379.395	96.8835	379.395	94.6544	379.395	95.983	379.395	93.3334	379.395	95.0675	379.395	92.5267	379.395	94.3357	379.395	92.7341	379.395	94.0171	379.395	93.6985	379.395	94.191	379.395	94.7667	379.395	94.6991	379.395	95.561	379.395	95.2911	379.395	95.977	379.395	95.7739	379.395	96.029
392.578	99.8045	392.578	99.783	392.578	99.7356	392.578	99.6915	392.578	99.56	392.578	99.5411	392.578	99.2803	392.578	99.3305	392.578	98.9241	392.578	99.048	392.578	98.5277	392.578	98.6738	392.578	98.1081	392.578	98.1775	392.578	97.6471	392.578	97.5177	392.578	97.1013	392.578	96.6504	392.578	96.4304	392.578	95.5599	392.578	95.6334	392.578	94.331	392.578	94.8019	392.578	93.2758	392.578	94.1713	392.578	92.9277	392.578	94.033	392.578	93.5022	392.578	94.4411	392.578	94.544	392.578	95.1311	392.578	95.5121	392.578	95.7949	392.578	96.145	392.578	96.2442	392.578	96.3808
405.762	99.7925	405.762	99.6894	405.762	99.7576	405.762	99.4731	405.762	99.5715	405.762	99.1761	405.762	99.2318	405.762	98.8299	405.762	98.7448	405.762	98.4562	405.762	98.1239	405.762	98.0585	405.762	97.3878	405.762	97.6176	405.762	96.561	405.762	97.092	405.762	95.6776	405.762	96.4304	405.762	94.7957	405.762	95.6016	405.762	94.0183	405.762	94.6483	405.762	93.5043	405.762	93.76	405.762	93.4223	405.762	93.2775	405.762	93.822	405.762	93.4464	405.762	94.5479	405.762	94.1308	405.762	95.3322	405.762	94.9773	405.762	95.9403	405.762	95.7028	405.762	96.2303	405.762	96.1465
420.41	99.5727	420.41	99.5062	420.41	99.5393	420.41	99.3496	420.41	99.4134	420.41	99.1214	420.41	99.2184	420.41	98.835	420.41	98.9808	420.41	98.4862	420.41	98.706	420.41	98.0489	420.41	98.358	420.41	97.4778	420.41	97.8558	420.41	96.7172	420.41	97.0923	420.41	95.7203	420.41	95.9627	420.41	94.5107	420.41	94.4002	420.41	93.3187	420.41	92.4739	420.41	92.6726	420.41	90.6905	420.41	92.9525	420.41	90.1964	420.41	93.8298	420.41	91.3214	420.41	94.7638	420.41	92.9768	420.41	95.4736	420.41	94.3986	420.41	95.8526	420.41	95.3617	420.41	95.835
435.059	99.428	435.059	99.4703	435.059	99.2782	435.059	99.3837	435.059	99.0473	435.059	99.1613	435.059	98.7605	435.059	98.8166	435.059	98.4384	435.059	98.3758	435.059	98.0925	435.059	97.8526	435.059	97.7131	435.059	97.2197	435.059	97.2586	435.059	96.4046	435.059	96.6594	435.059	95.3144	435.059	95.8448	435.059	93.8893	435.059	94.801	435.059	92.2346	435.059	93.6787	435.059	90.9305	435.059	92.9062	435.059	90.9755	435.059	92.9586	435.059	92.3057	435.059	93.7403	435.059	93.8749	435.059	94.7247	435.059	95.1007	435.059	95.5374	435.059	95.8541	435.059	96.0312	435.059	96.1505
451.172	100.081	451.172	99.956	451.172	100.065	451.172	99.7008	451.172	99.9124	451.172	99.3481	451.172	99.6349	451.172	98.9485	451.172	99.2509	451.172	98.5563	451.172	98.7918	451.172	98.206	451.172	98.2952	451.172	97.8818	451.172	97.7691	451.172	97.4958	451.172	97.1489	451.172	96.895	451.172	96.2954	451.172	95.8969	451.172	95.0473	451.172	94.3484	451.172	93.3309	451.172	92.3208	451.172	91.4534	451.172	90.769	451.172	90.5748	451.172	91.269	451.172	91.479	451.172	92.9559	451.172	93.0277	451.172	94.351	451.172	94.2771	451.172	95.1166	451.172	95.0342	451.172	95.3173
465.82	99.2809	465.82	99.2832	465.82	99.1818	465.82	99.178	465.82	98.9989	465.82	98.9597	465.82	98.7488	465.82	98.6284	465.82	98.4537	465.82	98.1883	465.82	98.1369	465.82	97.6469	465.82	97.8059	465.82	97.0163	465.82	97.4356	465.82	96.31	465.82	96.9584	465.82	95.5276	465.82	96.2713	465.82	94.6456	465.82	95.2602	465.82	93.6525	465.82	93.8658	465.82	92.6559	465.82	92.2775	465.82	92.0025	465.82	91.2848	465.82	92.0934	465.82	91.7162	465.82	92.8413	465.82	92.9628	465.82	93.7538	465.82	94.0625	465.82	94.4579	465.82	94.6779	465.82	94.7912
483.398	98.827	483.398	98.7457	483.398	98.7558	483.398	98.5325	483.398	98.5355	483.398	98.2188	483.398	98.202	483.398	97.8435	483.398	97.8149	483.398	97.4564	483.398	97.4319	483.398	97.0995	483.398	97.0804	483.398	96.7581	483.398	96.7426	483.398	96.3247	483.398	96.3527	483.398	95.6237	483.398	95.8016	483.398	94.4732	483.398	94.9525	483.398	92.7764	483.398	93.6963	483.398	90.8305	483.398	92.1401	483.398	89.988	483.398	91.0227	483.398	91.209	483.398	91.3677	483.398	93.0404	483.398	92.7207	483.398	94.4139	483.398	94.035	483.398	95.1502	483.398	94.9164	483.398	95.2983
499.512	99.2759	499.512	99.2218	499.512	99.1891	499.512	99.0227	499.512	98.9513	499.512	98.6744	499.512	98.5463	499.512	98.1848	499.512	97.9837	499.512	97.5725	499.512	97.3243	499.512	96.8618	499.512	96.6523	499.512	96.0816	499.512	96.0023	499.512	95.2608	499.512	95.3184	499.512	94.3964	499.512	94.5018	499.512	93.4171	499.512	93.4888	499.512	92.2238	499.512	92.3133	499.512	90.8873	499.512	91.2142	499.512	90.028	499.512	90.7771	499.512	90.5847	499.512	91.5074	499.512	92.2401	499.512	92.9871	499.512	93.9213	499.512	94.4164	499.512	95.085	499.512	95.334	499.512	95.5688
517.09	98.7238	517.09	98.6395	517.09	98.6066	517.09	98.3707	517.09	98.3005	517.09	97.9672	517.09	97.8424	517.09	97.514	517.09	97.2854	517.09	97.106	517.09	96.7022	517.09	96.7709	517.09	96.1732	517.09	96.4218	517.09	95.7111	517.09	95.9187	517.09	95.1891	517.09	95.158	517.09	94.405	517.09	94.0756	517.09	93.2265	517.09	92.6052	517.09	91.7035	517.09	90.7873	517.09	90.1748	517.09	89.3584	517.09	89.3705	517.09	89.8339	517.09	89.9609	517.09	91.6988	517.09	91.5455	517.09	93.3915	517.09	93.1674	517.09	94.405	517.09	94.2745	517.09	94.6961
536.133	98.7465	536.133	98.5516	536.133	98.6782	536.133	98.1344	536.133	98.3472	536.133	97.5432	536.133	97.8157	536.133	96.8395	536.133	97.1826	536.133	96.1531	536.133	96.5286	536.133	95.6884	536.133	95.8941	536.133	95.5262	536.133	95.2976	536.133	95.423	536.133	94.7078	536.133	94.9679	536.133	93.9575	536.133	93.817	536.133	92.7447	536.133	91.7507	536.133	90.7671	536.133	88.9388	536.133	88.1826	536.133	87.4065	536.133	87.246	536.133	89.0783	536.133	89.4599	536.133	91.325	536.133	91.8961	536.133	92.9282	536.133	93.472	536.133	93.9069	536.133	94.2385	536.133	94.349
555.176	97.8721	555.176	97.9042	555.176	97.6695	555.176	97.7566	555.176	97.3139	555.176	97.4189	555.176	96.8188	555.176	96.8498	555.176	96.2095	555.176	95.9944	555.176	95.5655	555.176	94.8958	555.176	95.018	555.176	93.825	555.176	94.6507	555.176	93.1548	555.176	94.3877	555.176	92.8483	555.176	93.9943	555.176	92.3736	555.176	93.1561	555.176	91.1822	555.176	91.5478	555.176	88.9433	555.176	88.9829	555.176	86.0758	555.176	86.3632	555.176	85.8667	555.176	86.7998	555.176	88.7666	555.176	89.2648	555.176	91.2513	555.176	91.3034	555.176	92.6353	555.176	92.5594	555.176	93.0271
574.219	98.3601	574.219	98.2615	574.219	98.2003	574.219	97.9232	574.219	97.7895	574.219	97.4099	574.219	97.1686	574.219	96.8308	574.219	96.4297	574.219	96.2771	574.219	95.6986	574.219	95.754	574.219	95.0874	574.219	95.1896	574.219	94.6445	574.219	94.4886	574.219	94.2933	574.219	93.564	574.219	93.8193	574.219	92.3371	574.219	92.9526	574.219	90.6833	574.219	91.4154	574.219	88.3328	574.219	88.8388	574.219	85.1493	574.219	84.7993	574.219	83.9116	574.219	82.5201	574.219	87.0611	574.219	86.752	574.219	90.0451	574.219	90.2346	574.219	91.8184	574.219	92.0267	574.219	92.4872
594.727	99.5617	594.727	99.5183	594.727	99.4856	594.727	99.3356	594.727	99.2646	594.727	98.9623	594.727	98.833	594.727	98.3595	594.727	98.1223	594.727	97.563	594.727	97.1637	594.727	96.7329	594.727	96.2001	594.727	96.1418	594.727	95.5816	594.727	95.9642	594.727	95.3964	594.727	95.9676	594.727	95.3757	594.727	95.6479	594.727	95.1205	594.727	94.5913	594.727	94.195	594.727	92.5754	594.727	92.1033	594.727	89.7835	594.727	88.4847	594.727	88.3544	594.727	86.2241	594.727	90.3958	594.727	89.3577	594.727	92.8108	594.727	92.2329	594.727	94.1571	594.727	93.8247	594.727	94.4465
615.234	100.897	615.234	100.78	615.234	100.757	615.234	100.44	615.234	100.373	615.234	99.9274	615.234	99.7937	615.234	99.2811	615.234	99.0708	615.234	98.5421	615.234	98.2453	615.234	97.7796	615.234	97.3939	615.234	97.0656	615.234	96.6333	615.234	96.4273	615.234	95.9979	615.234	95.8878	615.234	95.3914	615.234	95.4359	615.234	94.7171	615.234	94.7981	615.234	93.8916	615.234	93.4492	615.234	92.7085	615.234	90.9912	615.234	91.0876	615.234	88.3767	615.234	90.1121	615.234	89.1536	615.234	91.3154	615.234	91.7319	615.234	93.245	615.234	93.6116	615.234	94.4116	615.234	94.5196
637.207	101.286	637.207	101.239	637.207	101.064	637.207	100.925	637.207	100.557	637.207	100.365	637.207	99.7425	637.207	99.6083	637.207	98.6527	637.207	98.7026	637.207	97.4254	637.207	97.6938	637.207	96.3129	637.207	96.7783	637.207	95.6553	637.207	96.34	637.207	95.6519	637.207	96.3783	637.207	95.9971	637.207	96.2857	637.207	96.0982	637.207	95.4686	637.207	95.5067	637.207	93.5518	637.207	93.9276	637.207	90.4653	637.207	91.1721	637.207	88.5582	637.207	88.4411	637.207	91.2842	637.207	89.9076	637.207	94.3345	637.207	93.0306	637.207	95.9819	637.207	95.205	637.207	96.2233
659.18	100.983	659.18	100.972	659.18	100.784	659.18	100.706	659.18	100.356	659.18	100.165	659.18	99.6246	659.18	99.406	659.18	98.5566	659.18	98.4782	659.18	97.2282	659.18	97.3731	659.18	95.841	659.18	96.1487	659.18	94.7988	659.18	95.0219	659.18	94.5508	659.18	94.3326	659.18	94.7872	659.18	94.214	659.18	94.6461	659.18	94.113	659.18	93.6276	659.18	93.219	659.18	91.5974	659.18	91.2807	659.18	88.4398	659.18	89.7403	659.18	85.6757	659.18	90.7536	659.18	88.6679	659.18	92.6908	659.18	92.2981	659.18	94.1153	659.18	94.2002	659.18	94.6959
682.617	100.421	682.617	100.374	682.617	100.275	682.617	100.171	682.617	99.9319	682.617	99.7758	682.617	99.3974	682.617	99.075	682.617	98.6021	682.617	98.0387	682.617	97.4114	682.617	96.857	682.617	95.7965	682.617	95.8241	682.617	94.0347	682.617	95.0426	682.617	92.685	682.617	94.3794	682.617	92.2934	682.617	93.6638	682.617	92.6728	682.617	92.7856	682.617	92.8063	682.617	91.581	682.617	91.8924	682.617	89.627	682.617	89.6075	682.617	86.9872	682.617	86.8591	682.617	87.8167	682.617	87.9045	682.617	91.4204	682.617	91.0714	682.617	93.6274	682.617	93.2631	682.617	94.162
707.52	100.28	707.52	100.073	707.52	100.254	707.52	99.6394	707.52	99.9543	707.52	99.0445	707.52	99.3237	707.52	98.3531	707.52	98.412	707.52	97.4795	707.52	97.3133	707.52	96.2748	707.52	95.9543	707.52	94.7164	707.52	94.2339	707.52	93.2154	707.52	92.6492	707.52	92.652	707.52	92.2558	707.52	92.8319	707.52	92.6926	707.52	92.5987	707.52	92.5914	707.52	91.2032	707.52	91.2164	707.52	88.1153	707.52	88.17	707.52	85.1679	707.52	83.7114	707.52	88.6456	707.52	86.0645	707.52	92.064	707.52	90.8866	707.52	93.7645	707.52	93.4164	707.52	94.22
732.422	99.6552	732.422	99.4501	732.422	99.5895	732.422	98.9949	732.422	99.2643	732.422	98.3122	732.422	98.7069	732.422	97.4528	732.422	97.9044	732.422	96.5029	732.422	96.8585	732.422	95.5193	732.422	95.6468	732.422	94.5945	732.422	94.2417	732.422	93.8001	732.422	92.6147	732.422	92.9078	732.422	91.3243	732.422	91.7782	732.422	91.0025	732.422	90.6617	732.422	91.1306	732.422	89.1539	732.422	90.8537	732.422	85.951	732.422	89.5968	732.422	80.2182	732.422	87.2303	732.422	83.6608	732.422	85.2103	732.422	88.7778	732.422	86.8781	732.422	91.0263	732.422	89.7022	732.422	91.1975
757.324	99.3437	757.324	99.4163	757.324	99.0229	757.324	99.1775	757.324	98.5776	757.324	98.6043	757.324	98.1105	757.324	97.7261	757.324	97.5192	757.324	96.6579	757.324	96.537	757.324	95.4928	757.324	95.102	757.324	94.2117	757.324	93.596	757.324	93.0782	757.324	92.4376	757.324	92.6744	757.324	91.399	757.324	92.5187	757.324	90.3943	757.324	91.6482	757.324	89.9599	757.324	89.8599	757.324	89.4487	757.324	87.0297	757.324	87.3335	757.324	81.9988	757.324	83.0346	757.324	80.281	757.324	82.9599	757.324	86.0162	757.324	87.5423	757.324	89.0937	757.324	89.9422	757.324	90.3291
785.156	101.679	785.156	101.555	785.156	101.713	785.156	101.255	785.156	101.561	785.156	100.678	785.156	100.99	785.156	99.737	785.156	99.9679	785.156	98.3268	785.156	98.7289	785.156	96.4782	785.156	97.4016	785.156	94.4718	785.156	95.8763	785.156	92.3217	785.156	94.0469	785.156	89.8415	785.156	91.9214	785.156	87.6582	785.156	89.6715	785.156	85.8319	785.156	87.3749	785.156	81.9372	785.156	85.1825	785.156	77.9911	785.156	83.562	785.156	83.9655	785.156	84.7724	785.156	88.6358	785.156	89.2558	785.156	91.4085	785.156	92.4421	785.156	92.848	785.156	93.6855	785.156	93.5992
811.523	100.62	811.523	100.341	811.523	100.559	811.523	99.9479	811.523	100.125	811.523	99.4027	811.523	99.6381	811.523	98.615	811.523	99.16	811.523	97.7003	811.523	98.3716	811.523	96.5927	811.523	97.1405	811.523	95.1258	811.523	95.3907	811.523	93.6346	811.523	92.68	811.523	92.6392	811.523	90.4488	811.523	91.937	811.523	91.8521	811.523	91.4697	811.523	93.0057	811.523	91.4336	811.523	92.2225	811.523	90.7096	811.523	90.2313	811.523	87.3679	811.523	87.458	811.523	81.0202	811.523	82.2128	811.523	85.148	811.523	77.5221	811.523	88.6841	811.523	85.6466	811.523	88.8292
840.82	100.396	840.82	100.473	840.82	100.163	840.82	100.299	840.82	99.7272	840.82	99.7164	840.82	99.2248	840.82	98.8015	840.82	98.873	840.82	97.7886	840.82	98.4391	840.82	96.8456	840.82	97.5563	840.82	95.9846	840.82	96.4084	840.82	94.8722	840.82	95.1661	840.82	93.5065	840.82	93.0342	840.82	93.2566	840.82	90.1682	840.82	93.6696	840.82	89.8277	840.82	92.771	840.82	89.8421	840.82	90.5478	840.82	88.4168	840.82	87.4287	840.82	86.9654	840.82	83.2154	840.82	87.4599	840.82	85.3427	840.82	89.3918	840.82	89.669	840.82	90.9305	840.82	91.3097
870.117	98.5295	870.117	98.6507	870.117	98.103	870.117	98.2727	870.117	97.6785	870.117	97.5676	870.117	97.1221	870.117	96.7045	870.117	95.9887	870.117	95.5112	870.117	94.2916	870.117	93.7946	870.117	92.7635	870.117	91.5023	870.117	91.731	870.117	88.4498	870.117	90.5294	870.117	85.1852	870.117	88.9902	870.117	85.3677	870.117	87.2889	870.117	87.7581	870.117	86.0064	870.117	88.5832	870.117	86.5881	870.117	86.7479	870.117	85.8539	870.117	81.4006	870.117	80.3991	870.117	83.6076	870.117	74.1201	870.117	87.9826	870.117	85.5512	870.117	90.2927	870.117	89.7513	870.117	91.0315
900.879	100.832	900.879	100.826	900.879	100.667	900.879	100.762	900.879	100.078	900.879	100.285	900.879	99.3375	900.879	99.029	900.879	98.8417	900.879	97.0059	900.879	98.1624	900.879	94.6246	900.879	96.8085	900.879	92.6314	900.879	95.0535	900.879	90.8168	900.879	93.1476	900.879	88.5261	900.879	92.3619	900.879	87.8919	900.879	92.6813	900.879	88.7016	900.879	92.3089	900.879	89.0301	900.879	92.5656	900.879	89.5969	900.879	92.4238	900.879	88.3178	900.879	90.2436	900.879	85.5017	900.879	88.4646	900.879	88.9301	900.879	89.6159	900.879	91.7017	900.879	91.781	900.879	92.5829
933.105	99.5793	933.105	99.7948	933.105	99.2534	933.105	99.501	933.105	98.9285	933.105	98.9605	933.105	98.1725	933.105	98.5904	933.105	97.0603	933.105	98.0562	933.105	96.1157	933.105	96.8312	933.105	95.1177	933.105	94.7872	933.105	93.7525	933.105	92.3708	933.105	92.4333	933.105	89.9761	933.105	90.5004	933.105	87.3784	933.105	88.7213	933.105	86.9044	933.105	90.0594	933.105	89.1179	933.105	89.3087	933.105	89.2586	933.105	87.5949	933.105	85.7486	933.105	85.7918	933.105	77.8197	933.105	77.7444	933.105	83.9294	933.105	82.3135	933.105	89.3948	933.105	89.5281	933.105	91.2102
965.332	102.27	965.332	102.272	965.332	101.945	965.332	101.847	965.332	101.423	965.332	100.95	965.332	100.837	965.332	99.7431	965.332	100.256	965.332	98.4041	965.332	99.6248	965.332	96.7592	965.332	98.7748	965.332	94.6973	965.332	97.635	965.332	92.1361	965.332	96.288	965.332	88.3955	965.332	94.5092	965.332	85.8263	965.332	92.6076	965.332	85.8208	965.332	92.5514	965.332	86.4877	965.332	93.1346	965.332	87.7674	965.332	92.5845	965.332	86.7278	965.332	91.6396	965.332	86.5341	965.332	91.1567	965.332	89.4155	965.332	90.708	965.332	92.0704	965.332	91.2368	965.332	92.3582
1,000.49	100.879	1,000.49	100.884	1,000.49	100.633	1,000.49	100.533	1,000.49	100.008	1,000.49	99.8173	1,000.49	98.8886	1,000.49	99.0932	1,000.49	97.4253	1,000.49	98.4939	1,000.49	95.9727	1,000.49	97.6116	1,000.49	95.0734	1,000.49	96.3609	1,000.49	95.0275	1,000.49	95.3127	1,000.49	94.9843	1,000.49	94.5648	1,000.49	94.0778	1,000.49	93.425	1,000.49	92.8622	1,000.49	91.8072	1,000.49	90.589	1,000.49	90.027	1,000.49	87.0503	1,000.49	86.7712	1,000.49	86.5188	1,000.49	76.7578	1,000.49	80.5781	1,000.49	81.3142	1,000.49	76.2769	1,000.49	88.5275	1,000.49	86.4452	1,000.49	91.9287	1,000.49	91.4308	1,000.49	93.1733
1,035.64	101.133	1,035.64	101.019	1,035.64	100.771	1,035.64	100.645	1,035.64	100.016	1,035.64	99.6885	1,035.64	99.399	1,035.64	97.916	1,035.64	99.0946	1,035.64	96.0887	1,035.64	98.8104	1,035.64	94.4854	1,035.64	97.9649	1,035.64	92.269	1,035.64	96.2246	1,035.64	90.6154	1,035.64	94.7444	1,035.64	89.181	1,035.64	93.9743	1,035.64	87.288	1,035.64	94.0989	1,035.64	88.7945	1,035.64	94.6973	1,035.64	89.1562	1,035.64	93.421	1,035.64	87.7417	1,035.64	92.3508	1,035.64	85.4184	1,035.64	91.1247	1,035.64	79.0823	1,035.64	87.4019	1,035.64	84.7928	1,035.64	88.6785	1,035.64	89.1004	1,035.64	89.3603	1,035.64	89.3789
1,072.27	100.769	1,072.27	100.558	1,072.27	100.186	1,072.27	99.8825	1,072.27	99.2877	1,072.27	98.8635	1,072.27	98.456	1,072.27	96.9676	1,072.27	97.1426	1,072.27	94.5565	1,072.27	95.0657	1,072.27	92.8011	1,072.27	93.2191	1,072.27	90.8784	1,072.27	92.1188	1,072.27	87.4077	1,072.27	89.8615	1,072.27	85.1188	1,072.27	86.1182	1,072.27	85.9401	1,072.27	83.9286	1,072.27	86.0408	1,072.27	85.2149	1,072.27	86.3402	1,072.27	87.5441	1,072.27	86.4052	1,072.27	85.3914	1,072.27	81.0358	1,072.27	78.125	1,072.27	72.0957	1,072.27	72.4416	1,072.27	87.727	1,072.27	85.7522	1,072.27	92.3697	1,072.27	89.9016	1,072.27	92.1209
1,108.89	99.9073	1,108.89	100.394	1,108.89	99.4481	1,108.89	100.411	1,108.89	98.5381	1,108.89	99.8279	1,108.89	97.2457	1,108.89	98.9528	1,108.89	96.3081	1,108.89	97.6981	1,108.89	94.8218	1,108.89	95.935	1,108.89	91.4991	1,108.89	93.769	1,108.89	87.0464	1,108.89	91.7358	1,108.89	85.4061	1,108.89	87.567	1,108.89	84.1554	1,108.89	82.3809	1,108.89	82.7118	1,108.89	85.6454	1,108.89	79.5517	1,108.89	89.2565	1,108.89	84.0056	1,108.89	90.2527	1,108.89	87.8123	1,108.89	85.8487	1,108.89	86.8429	1,108.89	79.8352	1,108.89	84.5535	1,108.89	87.4246	1,108.89	87.0147	1,108.89	91.2726	1,108.89	90.6352	1,108.89	92.2914
1,148.44	99.4165	1,148.44	99.1478	1,148.44	98.7437	1,148.44	98.4196	1,148.44	97.3277	1,148.44	97.0835	1,148.44	96.0177	1,148.44	94.6795	1,148.44	95.0089	1,148.44	91.988	1,148.44	94.4308	1,148.44	90.4035	1,148.44	93.87	1,148.44	88.1607	1,148.44	92.2308	1,148.44	85.3905	1,148.44	89.7457	1,148.44	84.8148	1,148.44	87.0412	1,148.44	83.9949	1,148.44	85.5306	1,148.44	80.2741	1,148.44	85.195	1,148.44	80.9542	1,148.44	77.5359	1,148.44	85.1252	1,148.44	81.4086	1,148.44	84.382	1,148.44	83.6337	1,148.44	77.3732	1,148.44	80.4301	1,148.44	83.0359	1,148.44	84.4774	1,148.44	87.7219	1,148.44	86.6662	1,148.44	87.478
1,189.45	98.3114	1,189.45	98.6898	1,189.45	97.733	1,189.45	98.2435	1,189.45	96.8003	1,189.45	97.2797	1,189.45	95.3939	1,189.45	96.3427	1,189.45	94.2112	1,189.45	94.188	1,189.45	93.4127	1,189.45	91.2413	1,189.45	92.6578	1,189.45	89.0617	1,189.45	91.4519	1,189.45	84.8411	1,189.45	89.2829	1,189.45	81.2221	1,189.45	88.1122	1,189.45	82.5991	1,189.45	86.7539	1,189.45	84.4045	1,189.45	86.977	1,189.45	83.3373	1,189.45	87.7832	1,189.45	82.335	1,189.45	83.5288	1,189.45	84.4398	1,189.45	79.9	1,189.45	77.3874	1,189.45	76.9441	1,189.45	82.6877	1,189.45	84.4475	1,189.45	87.7137	1,189.45	88.5238	1,189.45	89.7222
1,230.47	97.5488	1,230.47	97.3973	1,230.47	96.7749	1,230.47	96.7433	1,230.47	97.0216	1,230.47	96.2318	1,230.47	97.2523	1,230.47	95.3764	1,230.47	94.9831	1,230.47	94.0671	1,230.47	92.0217	1,230.47	93.7244	1,230.47	91.7262	1,230.47	93.9092	1,230.47	92.2561	1,230.47	92.3257	1,230.47	93.0735	1,230.47	91.2763	1,230.47	91.2117	1,230.47	87.479	1,230.47	89.6465	1,230.47	84.0035	1,230.47	88.4697	1,230.47	84.5423	1,230.47	88.0628	1,230.47	81.6267	1,230.47	87.9868	1,230.47	75.8936	1,230.47	84.0566	1,230.47	72.8195	1,230.47	73.9346	1,230.47	80.1318	1,230.47	83.5963	1,230.47	87.9088	1,230.47	86.9341	1,230.47	87.632
1,274.41	98.4564	1,274.41	98.5693	1,274.41	97.8754	1,274.41	98.1593	1,274.41	97.854	1,274.41	97.6407	1,274.41	98.0184	1,274.41	97.2796	1,274.41	96.8149	1,274.41	96.0993	1,274.41	94.6968	1,274.41	94.6844	1,274.41	93.0362	1,274.41	95.6343	1,274.41	92.6256	1,274.41	94.5028	1,274.41	92.6238	1,274.41	91.1411	1,274.41	91.3729	1,274.41	87.5142	1,274.41	86.456	1,274.41	83.0696	1,274.41	86.1384	1,274.41	85.4778	1,274.41	85.951	1,274.41	86.245	1,274.41	86.5515	1,274.41	80.954	1,274.41	85.9839	1,274.41	78.5119	1,274.41	83.1302	1,274.41	76.295	1,274.41	80.6104	1,274.41	85.3486	1,274.41	86.1496	1,274.41	85.7996
1,319.82	97.7768	1,319.82	97.9597	1,319.82	97.7009	1,319.82	97.4405	1,319.82	97.2349	1,319.82	96.3311	1,319.82	96.4445	1,319.82	94.9243	1,319.82	95.3997	1,319.82	93.7361	1,319.82	94.3284	1,319.82	93.3589	1,319.82	92.1896	1,319.82	92.597	1,319.82	90.4537	1,319.82	91.5003	1,319.82	91.0048	1,319.82	88.5395	1,319.82	90.2634	1,319.82	81.3715	1,319.82	88.5311	1,319.82	77.7255	1,319.82	88.0838	1,319.82	85.2984	1,319.82	89.0284	1,319.82	86.5146	1,319.82	88.1549	1,319.82	82.0725	1,319.82	87.8964	1,319.82	71.1309	1,319.82	84.8248	1,319.82	77.0369	1,319.82	72.4384	1,319.82	86.3122	1,319.82	84.2967	1,319.82	88.1458
1,366.7	98.7795	1,366.7	98.3913	1,366.7	98.5629	1,366.7	97.5378	1,366.7	98.1117	1,366.7	96.3421	1,366.7	97.7203	1,366.7	94.8452	1,366.7	97.0016	1,366.7	94.3277	1,366.7	95.9815	1,366.7	91.8136	1,366.7	95.0483	1,366.7	89.0086	1,366.7	92.2154	1,366.7	89.1373	1,366.7	88.7563	1,366.7	87.081	1,366.7	88.0975	1,366.7	85.8878	1,366.7	88.7154	1,366.7	84.5516	1,366.7	88.2777	1,366.7	81.3992	1,366.7	86.6679	1,366.7	76.7537	1,366.7	88.0471	1,366.7	82.6717	1,366.7	88.2169	1,366.7	77.2593	1,366.7	84.9473	1,366.7	79.6925	1,366.7	75.0866	1,366.7	85.8774	1,366.7	83.347	1,366.7	87.5158
1,413.57	99.5856	1,413.57	98.7694	1,413.57	100.052	1,413.57	97.749	1,413.57	99.5001	1,413.57	97.119	1,413.57	98.6892	1,413.57	95.5094	1,413.57	98.4712	1,413.57	93.1874	1,413.57	97.4109	1,413.57	92.1665	1,413.57	94.8719	1,413.57	88.5443	1,413.57	92.6039	1,413.57	86.5784	1,413.57	90.6608	1,413.57	85.8156	1,413.57	87.7243	1,413.57	83.9704	1,413.57	82.0817	1,413.57	83.3495	1,413.57	81.1045	1,413.57	77.4419	1,413.57	86.7359	1,413.57	74.633	1,413.57	89.0529	1,413.57	70.5486	1,413.57	91.1124	1,413.57	74.807	1,413.57	88.1474	1,413.57	74.2401	1,413.57	81.6995	1,413.57	83.6536	1,413.57	86.1656	1,413.57	89.5106
1,463.38	97.7977	1,463.38	97.5284	1,463.38	97.854	1,463.38	96.6827	1,463.38	97.5578	1,463.38	95.204	1,463.38	96.6576	1,463.38	93.9037	1,463.38	96.5589	1,463.38	92.6167	1,463.38	95.0198	1,463.38	90.8513	1,463.38	93.2981	1,463.38	89.2724	1,463.38	92.4184	1,463.38	89.5064	1,463.38	90.1984	1,463.38	90.8259	1,463.38	87.1092	1,463.38	89.745	1,463.38	85.5762	1,463.38	89.0705	1,463.38	82.3733	1,463.38	87.6144	1,463.38	84.9196	1,463.38	82.5584	1,463.38	85.0177	1,463.38	82.998	1,463.38	87.1773	1,463.38	83.7718	1,463.38	86.6171	1,463.38	83.7603	1,463.38	79.9382	1,463.38	82.4663	1,463.38	75.9786	1,463.38	81.8115
1,516.11	97.6617	1,516.11	97.3081	1,516.11	97.5395	1,516.11	96.1445	1,516.11	97.5799	1,516.11	94.9145	1,516.11	97.0274	1,516.11	94.6464	1,516.11	96.1684	1,516.11	94.1103	1,516.11	95.2974	1,516.11	92.005	1,516.11	93.2288	1,516.11	91.0997	1,516.11	92.0194	1,516.11	90.8415	1,516.11	90.8793	1,516.11	90.1342	1,516.11	88.1115	1,516.11	88.3186	1,516.11	83.4908	1,516.11	87.9869	1,516.11	81.926	1,516.11	86.2871	1,516.11	81.7031	1,516.11	86.2834	1,516.11	80.3502	1,516.11	87.5715	1,516.11	81.1651	1,516.11	84.5782	1,516.11	81.2312	1,516.11	82.5731	1,516.11	71.8797	1,516.11	75.9409	1,516.11	78.1573	1,516.11	81.9461
1,568.85	98.8721	1,568.85	98.3818	1,568.85	98.529	1,568.85	97.739	1,568.85	98.5166	1,568.85	97.4223	1,568.85	98.141	1,568.85	96.4779	1,568.85	96.8726	1,568.85	95.3998	1,568.85	94.7758	1,568.85	94.0171	1,568.85	93.0841	1,568.85	92.2721	1,568.85	92.0496	1,568.85	90.4682	1,568.85	90.7076	1,568.85	89.0559	1,568.85	91.3428	1,568.85	86.0745	1,568.85	90.7604	1,568.85	83.9439	1,568.85	88.1261	1,568.85	81.1671	1,568.85	85.9358	1,568.85	80.8136	1,568.85	82.0068	1,568.85	83.912	1,568.85	82.94	1,568.85	80.3438	1,568.85	83.2778	1,568.85	76.3395	1,568.85	73.7624	1,568.85	73.1512	1,568.85	72.9451	1,568.85	77.1376
1,624.51	100.001	1,624.51	99.9797	1,624.51	99.8496	1,624.51	98.907	1,624.51	99.374	1,624.51	97.8462	1,624.51	98.3334	1,624.51	97.1768	1,624.51	97.4909	1,624.51	96.5549	1,624.51	96.773	1,624.51	94.6468	1,624.51	95.9912	1,624.51	93.2266	1,624.51	93.7248	1,624.51	91.381	1,624.51	91.972	1,624.51	88.8182	1,624.51	89.91	1,624.51	87.9067	1,624.51	87.1013	1,624.51	88.7989	1,624.51	88.4874	1,624.51	88.18	1,624.51	86.6795	1,624.51	86.3882	1,624.51	86.0473	1,624.51	86.6337	1,624.51	85.9667	1,624.51	86.9005	1,624.51	85.9596	1,624.51	83.062	1,624.51	83.2762	1,624.51	78.1642	1,624.51	73.1887	1,624.51	78.926
1,681.64	101.341	1,681.64	101.038	1,681.64	101.376	1,681.64	100.648	1,681.64	100.781	1,681.64	100.086	1,681.64	99.7269	1,681.64	99.2875	1,681.64	98.3257	1,681.64	97.901	1,681.64	97.3488	1,681.64	96.4381	1,681.64	95.9027	1,681.64	94.9124	1,681.64	94.5868	1,681.64	93.1272	1,681.64	93.0704	1,681.64	91.8317	1,681.64	91.4306	1,681.64	90.5618	1,681.64	91.0759	1,681.64	88.6539	1,681.64	85.7208	1,681.64	84.9123	1,681.64	86.4792	1,681.64	84.8785	1,681.64	85.4193	1,681.64	86.2883	1,681.64	85.7302	1,681.64	85.0815	1,681.64	85.3746	1,681.64	82.9655	1,681.64	74.9203	1,681.64	50.56	1,681.64	80.7288	1,681.64	79.0964
1,741.7	100.618	1,741.7	100.693	1,741.7	99.425	1,741.7	100.014	1,741.7	98.8573	1,741.7	100.029	1,741.7	97.9451	1,741.7	99.3529	1,741.7	97.8442	1,741.7	98.2037	1,741.7	95.8737	1,741.7	97.5518	1,741.7	94.8648	1,741.7	96.594	1,741.7	91.9968	1,741.7	94.9957	1,741.7	91.1606	1,741.7	93.2919	1,741.7	90.846	1,741.7	92.4	1,741.7	86.6244	1,741.7	90.0882	1,741.7	84.7467	1,741.7	88.781	1,741.7	85.0994	1,741.7	87.2721	1,741.7	86.1803	1,741.7	82.0861	1,741.7	86.2938	1,741.7	85.1372	1,741.7	85.9258	1,741.7	79.4309	1,741.7	77.1219	1,741.7	74.3413	1,741.7	74.7721	1,741.7	80.8483
1,803.22	100.646	1,803.22	100.809	1,803.22	100.252	1,803.22	100.895	1,803.22	99.7952	1,803.22	100.634	1,803.22	98.9133	1,803.22	100.066	1,803.22	97.9342	1,803.22	99.2405	1,803.22	96.5716	1,803.22	97.9502	1,803.22	95.0142	1,803.22	96.609	1,803.22	93.0664	1,803.22	94.8335	1,803.22	91.2087	1,803.22	93.3351	1,803.22	89.4112	1,803.22	92.3783	1,803.22	89.853	1,803.22	89.6539	1,803.22	87.0842	1,803.22	90.1887	1,803.22	88.0993	1,803.22	89.1852	1,803.22	83.653	1,803.22	87.3709	1,803.22	85.4965	1,803.22	87.2832	1,803.22	86.8504	1,803.22	84.7636	1,803.22	80.6739	1,803.22	74.7485	1,803.22	77.492	1,803.22	78.0672
1,866.21	99.8154	1,866.21	100.129	1,866.21	99.4756	1,866.21	100.295	1,866.21	99.0652	1,866.21	100.402	1,866.21	98.6332	1,866.21	99.9873	1,866.21	97.752	1,866.21	99.1329	1,866.21	96.2336	1,866.21	97.969	1,866.21	94.8926	1,866.21	96.4687	1,866.21	93.2994	1,866.21	94.6624	1,866.21	91.0344	1,866.21	92.9884	1,866.21	89.7142	1,866.21	92.2464	1,866.21	87.2631	1,866.21	91.7873	1,866.21	87.4023	1,866.21	88.4636	1,866.21	85.8876	1,866.21	87.8075	1,866.21	85.1812	1,866.21	86.0176	1,866.21	83.5583	1,866.21	88.2115	1,866.21	86.4253	1,866.21	84.8441	1,866.21	82.0002	1,866.21	79.0659	1,866.21	74.8543	1,866.21	81.9804
1,932.13	99.1319	1,932.13	99.2669	1,932.13	98.7866	1,932.13	99.4811	1,932.13	98.5174	1,932.13	99.5157	1,932.13	98.4339	1,932.13	99.2758	1,932.13	97.6954	1,932.13	98.7427	1,932.13	96.8333	1,932.13	97.0205	1,932.13	95.2617	1,932.13	95.741	1,932.13	94.0433	1,932.13	93.8064	1,932.13	91.971	1,932.13	92.7338	1,932.13	89.2043	1,932.13	91.6631	1,932.13	88.7153	1,932.13	90.3779	1,932.13	87.8312	1,932.13	90.3475	1,932.13	87.2784	1,932.13	88.8872	1,932.13	86.1051	1,932.13	87.7116	1,932.13	83.1221	1,932.13	85.5133	1,932.13	86.2585	1,932.13	81.6052	1,932.13	83.3241	1,932.13	71.8231	1,932.13	70.0412	1,932.13	80.8328
1,999.51	99.4232	1,999.51	99.825	1,999.51	99.4986	1,999.51	99.9298	1,999.51	99.767	1,999.51	99.7689	1,999.51	99.3969	1,999.51	99.052	1,999.51	99.0452	1,999.51	98.0491	1,999.51	98.0263	1,999.51	97.1581	1,999.51	96.7964	1,999.51	94.9771	1,999.51	95.0658	1,999.51	93.1872	1,999.51	93.0168	1,999.51	90.5536	1,999.51	90.6331	1,999.51	89.9161	1,999.51	90.4128	1,999.51	88.4962	1,999.51	88.2827	1,999.51	87.7223	1,999.51	87.5719	1,999.51	87.9421	1,999.51	87.682	1,999.51	85.6848	1,999.51	84.9015	1,999.51	86.9796	1,999.51	86.1768	1,999.51	81.8837	1,999.51	85.6945	1,999.51	70.4958	1,999.51	74.0363	1,999.51	76.4828
2,069.82	101.237	2,069.82	101.225	2,069.82	101.209	2,069.82	101.216	2,069.82	100.868	2,069.82	100.971	2,069.82	100.624	2,069.82	100.375	2,069.82	99.9348	2,069.82	99.1142	2,069.82	98.6429	2,069.82	97.2694	2,069.82	97.1928	2,069.82	95.7868	2,069.82	95.4555	2,069.82	93.8685	2,069.82	93.6008	2,069.82	91.4408	2,069.82	91.5573	2,069.82	89.7762	2,069.82	89.843	2,069.82	88.8864	2,069.82	89.2473	2,069.82	87.7916	2,069.82	88.4888	2,069.82	86.9941	2,069.82	88.2979	2,069.82	85.6822	2,069.82	85.8288	2,069.82	86.9877	2,069.82	87.3449	2,069.82	84.8103	2,069.82	84.1237	2,069.82	75.4015	2,069.82	72.176	2,069.82	71.8726
2,143.07	101.916	2,143.07	102.043	2,143.07	101.741	2,143.07	102.214	2,143.07	101.575	2,143.07	101.84	2,143.07	100.925	2,143.07	101.335	2,143.07	99.887	2,143.07	100.134	2,143.07	98.5617	2,143.07	98.4728	2,143.07	96.5631	2,143.07	96.6317	2,143.07	94.5422	2,143.07	95.1964	2,143.07	92.996	2,143.07	93.0101	2,143.07	90.1231	2,143.07	90.5823	2,143.07	89.4958	2,143.07	89.1951	2,143.07	88.4051	2,143.07	89.3301	2,143.07	87.5128	2,143.07	89.18	2,143.07	87.4674	2,143.07	86.1932	2,143.07	84.7698	2,143.07	86.7265	2,143.07	86.2727	2,143.07	86.2438	2,143.07	85.5522	2,143.07	74.2976	2,143.07	72.6331	2,143.07	76.6373
2,219.24	100.516	2,219.24	101.147	2,219.24	100.414	2,219.24	101.238	2,219.24	100.279	2,219.24	101.17	2,219.24	99.5196	2,219.24	100.481	2,219.24	98.7438	2,219.24	99.4518	2,219.24	97.4662	2,219.24	98.9754	2,219.24	95.6937	2,219.24	96.6991	2,219.24	93.733	2,219.24	94.8809	2,219.24	91.8597	2,219.24	93.1015	2,219.24	89.8247	2,219.24	91.529	2,219.24	88.1596	2,219.24	90.3511	2,219.24	87.3157	2,219.24	88.0894	2,219.24	85.9018	2,219.24	89.6354	2,219.24	87.3152	2,219.24	87.2119	2,219.24	83.4265	2,219.24	85.3196	2,219.24	84.0633	2,219.24	84.7741	2,219.24	84.4054	2,219.24	75.5241	2,219.24	78.1064	2,219.24	66.9707
2,296.88	99.2009	2,296.88	99.5648	2,296.88	99.3022	2,296.88	99.8867	2,296.88	99.2171	2,296.88	99.8419	2,296.88	99.2556	2,296.88	99.4892	2,296.88	98.4136	2,296.88	98.5805	2,296.88	97.2151	2,296.88	97.0633	2,296.88	95.7895	2,296.88	95.4979	2,296.88	93.8112	2,296.88	94.0416	2,296.88	91.741	2,296.88	92.3225	2,296.88	89.9231	2,296.88	90.0445	2,296.88	87.3584	2,296.88	89.4066	2,296.88	87.4994	2,296.88	89.3551	2,296.88	86.5485	2,296.88	88.4486	2,296.88	86.9599	2,296.88	86.4618	2,296.88	86.885	2,296.88	87.9019	2,296.88	84.421	2,296.88	85.7061	2,296.88	85.8301	2,296.88	70.1211	2,296.88	80.6829	2,296.88	75.5958
2,378.91	100.06	2,378.91	100.01	2,378.91	100.348	2,378.91	99.9672	2,378.91	100.484	2,378.91	99.9566	2,378.91	100.435	2,378.91	99.1932	2,378.91	99.8228	2,378.91	98.0983	2,378.91	98.4793	2,378.91	96.8126	2,378.91	96.7364	2,378.91	94.7189	2,378.91	94.8025	2,378.91	93.2952	2,378.91	93.5555	2,378.91	90.8589	2,378.91	92.423	2,378.91	88.6981	2,378.91	89.3196	2,378.91	88.2542	2,378.91	88.3595	2,378.91	86.1085	2,378.91	88.1073	2,378.91	88.4328	2,378.91	88.9328	2,378.91	86.2546	2,378.91	88.3025	2,378.91	81.8141	2,378.91	85.5268	2,378.91	84.0416	2,378.91	86.5538	2,378.91	76.0187	2,378.91	79.126	2,378.91	77.4298
2,462.4	102.182	2,462.4	101.847	2,462.4	101.83	2,462.4	101.842	2,462.4	102.126	2,462.4	101.903	2,462.4	101.818	2,462.4	101.369	2,462.4	101.035	2,462.4	99.966	2,462.4	99.8385	2,462.4	97.9089	2,462.4	97.9472	2,462.4	96.4128	2,462.4	95.8637	2,462.4	93.2774	2,462.4	94.3742	2,462.4	91.8716	2,462.4	91.7374	2,462.4	90.2107	2,462.4	91.0161	2,462.4	89.598	2,462.4	89.8273	2,462.4	88.5444	2,462.4	88.4068	2,462.4	87.445	2,462.4	89.734	2,462.4	88.2116	2,462.4	89.2495	2,462.4	84.0527	2,462.4	85.9328	2,462.4	84.5433	2,462.4	84.433	2,462.4	79.9182	2,462.4	80.6786	2,462.4	76.9973
2,548.83	101.85	2,548.83	101.561	2,548.83	101.853	2,548.83	102.226	2,548.83	101.854	2,548.83	102.017	2,548.83	101.577	2,548.83	101.697	2,548.83	100.93	2,548.83	100.489	2,548.83	99.6215	2,548.83	98.2585	2,548.83	97.9872	2,548.83	96.663	2,548.83	95.8866	2,548.83	94.986	2,548.83	93.7635	2,548.83	92.9465	2,548.83	91.4484	2,548.83	90.9637	2,548.83	91.186	2,548.83	89.7224	2,548.83	88.9754	2,548.83	88.4647	2,548.83	87.8809	2,548.83	89.8584	2,548.83	88.8407	2,548.83	90.1029	2,548.83	89.6307	2,548.83	87.5691	2,548.83	85.7068	2,548.83	84.3135	2,548.83	87.6876	2,548.83	81.2426	2,548.83	83.6039	2,548.83	71.0492
2,639.65	99.6529	2,639.65	99.7733	2,639.65	100.289	2,639.65	100.356	2,639.65	100.36	2,639.65	100.584	2,639.65	100.82	2,639.65	100.795	2,639.65	100.488	2,639.65	100.266	2,639.65	99.2283	2,639.65	98.7373	2,639.65	97.4985	2,639.65	96.3427	2,639.65	95.4372	2,639.65	95.3075	2,639.65	93.6891	2,639.65	92.0697	2,639.65	92.7737	2,639.65	91.5831	2,639.65	90.5482	2,639.65	91.3897	2,639.65	88.1376	2,639.65	90.0435	2,639.65	88.533	2,639.65	88.104	2,639.65	88.4753	2,639.65	89.3611	2,639.65	89.3455	2,639.65	86.9498	2,639.65	86.2718	2,639.65	85.9953	2,639.65	87.2152	2,639.65	80.3986	2,639.65	80.6219	2,639.65	73.6674
2,731.93	99.3209	2,731.93	100.01	2,731.93	99.3071	2,731.93	99.4946	2,731.93	100.245	2,731.93	100.217	2,731.93	100.203	2,731.93	99.424	2,731.93	100.095	2,731.93	98.967	2,731.93	99.0971	2,731.93	97.888	2,731.93	97.6027	2,731.93	96.7534	2,731.93	95.7172	2,731.93	94.301	2,731.93	93.8272	2,731.93	90.9101	2,731.93	91.8257	2,731.93	89.4935	2,731.93	88.7705	2,731.93	89.8491	2,731.93	89.1678	2,731.93	86.9385	2,731.93	89.0786	2,731.93	88.249	2,731.93	88.3559	2,731.93	88.7061	2,731.93	89.4888	2,731.93	86.4857	2,731.93	86.7355	2,731.93	84.9136	2,731.93	85.0208	2,731.93	77.7559	2,731.93	79.1491	2,731.93	77.5501
2,828.61	100.592	2,828.61	100.388	2,828.61	100.462	2,828.61	100.396	2,828.61	101.117	2,828.61	100.519	2,828.61	101.172	2,828.61	99.9543	2,828.61	100.912	2,828.61	97.9354	2,828.61	99.8927	2,828.61	97.0863	2,828.61	98.4622	2,828.61	95.0204	2,828.61	96.6033	2,828.61	91.7173	2,828.61	94.3891	2,828.61	91.6406	2,828.61	91.5871	2,828.61	90.1509	2,828.61	89.9943	2,828.61	88.8003	2,828.61	90.2476	2,828.61	89.2531	2,828.61	89.2644	2,828.61	86.8479	2,828.61	89.0365	2,828.61	88.2088	2,828.61	89.5387	2,828.61	85.0531	2,828.61	87.4961	2,828.61	84.1082	2,828.61	86.2679	2,828.61	79.0829	2,828.61	74.1716	2,828.61	78.9552
2,928.22	101.437	2,928.22	101.249	2,928.22	101.67	2,928.22	101.507	2,928.22	101.6	2,928.22	101.137	2,928.22	101.637	2,928.22	100.448	2,928.22	100.969	2,928.22	99.0162	2,928.22	100.34	2,928.22	96.9617	2,928.22	98.6834	2,928.22	94.3285	2,928.22	96.6159	2,928.22	91.8961	2,928.22	94.62	2,928.22	91.7771	2,928.22	92.4804	2,928.22	88.9971	2,928.22	90.5256	2,928.22	87.298	2,928.22	88.8216	2,928.22	87.4852	2,928.22	88.5672	2,928.22	87.1636	2,928.22	87.7232	2,928.22	88.9487	2,928.22	88.1462	2,928.22	85.7589	2,928.22	86.9766	2,928.22	86.0319	2,928.22	83.2789	2,928.22	72.0536	2,928.22	76.4081	2,928.22	80.3435
3,030.76	101.182	3,030.76	100.959	3,030.76	101.813	3,030.76	101.217	3,030.76	101.323	3,030.76	101.045	3,030.76	101.58	3,030.76	100.43	3,030.76	100.941	3,030.76	99.9468	3,030.76	100.061	3,030.76	98.0094	3,030.76	98.3706	3,030.76	95.1743	3,030.76	96.511	3,030.76	94.2486	3,030.76	94.3376	3,030.76	91.3321	3,030.76	91.6344	3,030.76	91.0338	3,030.76	90.2097	3,030.76	89.5822	3,030.76	88.7731	3,030.76	87.9705	3,030.76	88.8095	3,030.76	87.6552	3,030.76	87.424	3,030.76	87.6104	3,030.76	88.5619	3,030.76	85.7149	3,030.76	86.6756	3,030.76	81.0545	3,030.76	83.1982	3,030.76	81.7445	3,030.76	77.751	3,030.76	80.1673
3,137.7	100.784	3,137.7	101.024	3,137.7	100.74	3,137.7	100.736	3,137.7	101.067	3,137.7	100.423	3,137.7	100.785	3,137.7	100.325	3,137.7	100.459	3,137.7	99.7479	3,137.7	99.3911	3,137.7	98.0208	3,137.7	97.9261	3,137.7	96.2224	3,137.7	95.9233	3,137.7	94.5065	3,137.7	93.6877	3,137.7	91.3064	3,137.7	92.053	3,137.7	89.3308	3,137.7	90.2298	3,137.7	88.3436	3,137.7	89.2753	3,137.7	88.1675	3,137.7	88.2128	3,137.7	86.9212	3,137.7	87.6018	3,137.7	87.271	3,137.7	88.3298	3,137.7	86.6095	3,137.7	86.8047	3,137.7	81.7948	3,137.7	83.4752	3,137.7	78.52	3,137.7	74.9194	3,137.7	79.159
3,249.02	100.549	3,249.02	100.578	3,249.02	100.531	3,249.02	99.8217	3,249.02	100.307	3,249.02	99.5715	3,249.02	100.079	3,249.02	99.125	3,249.02	100.278	3,249.02	98.5114	3,249.02	99.4172	3,249.02	97.1221	3,249.02	98.1496	3,249.02	96.1454	3,249.02	96.1077	3,249.02	93.5574	3,249.02	94.2263	3,249.02	90.4604	3,249.02	92.5594	3,249.02	89.8447	3,249.02	90.3909	3,249.02	88.4916	3,249.02	88.6335	3,249.02	88.4526	3,249.02	88.3289	3,249.02	87.2463	3,249.02	87.3864	3,249.02	85.916	3,249.02	87.645	3,249.02	86.0781	3,249.02	86.1794	3,249.02	82.8181	3,249.02	82.2691	3,249.02	72.1992	3,249.02	75.7804	3,249.02	78.7755
3,363.28	101.032	3,363.28	100.852	3,363.28	100.26	3,363.28	100.447	3,363.28	100.512	3,363.28	100.007	3,363.28	100.237	3,363.28	99.9724	3,363.28	100.027	3,363.28	98.4113	3,363.28	99.0485	3,363.28	97.6072	3,363.28	98.4069	3,363.28	95.6226	3,363.28	96.1546	3,363.28	93.2608	3,363.28	93.7888	3,363.28	90.7339	3,363.28	91.1965	3,363.28	88.3934	3,363.28	89.4288	3,363.28	87.4148	3,363.28	88.6192	3,363.28	86.2896	3,363.28	88.3979	3,363.28	86.8843	3,363.28	87.1949	3,363.28	84.9599	3,363.28	87.035	3,363.28	84.6489	3,363.28	87.0042	3,363.28	80.4944	3,363.28	81.6167	3,363.28	76.1252	3,363.28	69.6126	3,363.28	82.2744
3,481.93	101.197	3,481.93	100.802	3,481.93	101.223	3,481.93	100.4	3,481.93	99.7927	3,481.93	100.206	3,481.93	99.6204	3,481.93	99.4095	3,481.93	99.2269	3,481.93	99.002	3,481.93	99.3223	3,481.93	97.7013	3,481.93	98.0393	3,481.93	95.9049	3,481.93	95.5609	3,481.93	94.2883	3,481.93	93.7409	3,481.93	90.7138	3,481.93	91.3445	3,481.93	88.7804	3,481.93	88.4584	3,481.93	87.0831	3,481.93	87.9331	3,481.93	86.9548	3,481.93	87.4574	3,481.93	87.6577	3,481.93	86.9824	3,481.93	85.9287	3,481.93	86.0273	3,481.93	86.1049	3,481.93	84.6994	3,481.93	79.6998	3,481.93	77.9167	3,481.93	71.1475	3,481.93	66.1865	3,481.93	81.5581
3,604.98	100.86	3,604.98	100.499	3,604.98	101.05	3,604.98	100.022	3,604.98	99.9623	3,604.98	99.9466	3,604.98	99.8478	3,604.98	99.3347	3,604.98	99.8025	3,604.98	99.1145	3,604.98	99.6177	3,604.98	97.8786	3,604.98	98.2657	3,604.98	95.9617	3,604.98	96.365	3,604.98	93.5013	3,604.98	94.5521	3,604.98	90.9314	3,604.98	91.7773	3,604.98	89.8727	3,604.98	89.3242	3,604.98	88.3162	3,604.98	88.5196	3,604.98	87.1883	3,604.98	88.1628	3,604.98	86.8426	3,604.98	88.0794	3,604.98	86.0868	3,604.98	86.291	3,604.98	84.343	3,604.98	85.8896	3,604.98	75.3116	3,604.98	73.7186	3,604.98	70.6501	3,604.98	70.0172	3,604.98	83.4816
3,732.42	101.271	3,732.42	101.153	3,732.42	100.858	3,732.42	100.662	3,732.42	100.985	3,732.42	100.198	3,732.42	100.653	3,732.42	100.057	3,732.42	100.657	3,732.42	100.117	3,732.42	100.042	3,732.42	98.8173	3,732.42	98.3071	3,732.42	96.8549	3,732.42	96.1638	3,732.42	93.8407	3,732.42	93.889	3,732.42	91.7164	3,732.42	90.7993	3,732.42	89.525	3,732.42	89.0892	3,732.42	87.3128	3,732.42	87.4905	3,732.42	86.3885	3,732.42	87.9886	3,732.42	86.9437	3,732.42	88.8301	3,732.42	85.6179	3,732.42	86.1668	3,732.42	85.3787	3,732.42	85.3259	3,732.42	75.0809	3,732.42	72.3696	3,732.42	71.1335	3,732.42	76.3797	3,732.42	84.0984
3,864.26	101.142	3,864.26	101.351	3,864.26	100.405	3,864.26	100.861	3,864.26	100.466	3,864.26	100.396	3,864.26	99.8385	3,864.26	100.765	3,864.26	99.6796	3,864.26	99.8469	3,864.26	98.8191	3,864.26	98.6804	3,864.26	97.7674	3,864.26	96.6188	3,864.26	96.3112	3,864.26	93.9709	3,864.26	93.6925	3,864.26	92.0153	3,864.26	90.1311	3,864.26	88.8476	3,864.26	87.9237	3,864.26	88.9368	3,864.26	87.3858	3,864.26	87.3093	3,864.26	86.1312	3,864.26	87.4372	3,864.26	85.8383	3,864.26	86.048	3,864.26	86.3446	3,864.26	84.915	3,864.26	84.9226	3,864.26	74.7873	3,864.26	74.9269	3,864.26	72.9238	3,864.26	77.1537	3,864.26	84.1273
4,000.49	101.747	4,000.49	101.488	4,000.49	101.613	4,000.49	100.755	4,000.49	100.505	4,000.49	100.96	4,000.49	100.651	4,000.49	100.717	4,000.49	100.243	4,000.49	99.7051	4,000.49	99.3228	4,000.49	98.4848	4,000.49	98.6105	4,000.49	95.9121	4,000.49	96.6844	4,000.49	94.0184	4,000.49	93.2961	4,000.49	90.7921	4,000.49	91.3032	4,000.49	89.1462	4,000.49	88.9619	4,000.49	88.1799	4,000.49	88.0697	4,000.49	87.4291	4,000.49	88.0222	4,000.49	87.4342	4,000.49	89.2346	4,000.49	85.9233	4,000.49	87.1876	4,000.49	83.2974	4,000.49	83.9875	4,000.49	62.8561	4,000.49	78.7314	4,000.49	78.3315	4,000.49	68.0594	4,000.49	85.6883
4,141.11	102.847	4,141.11	101.765	4,141.11	102.671	4,141.11	101.666	4,141.11	101.521	4,141.11	100.671	4,141.11	100.703	4,141.11	99.7197	4,141.11	101.039	4,141.11	99.79	4,141.11	100.738	4,141.11	98.9617	4,141.11	99.3408	4,141.11	97.207	4,141.11	97.0958	4,141.11	95.1388	4,141.11	94.8279	4,141.11	90.8797	4,141.11	91.4729	4,141.11	88.0739	4,141.11	89.3073	4,141.11	86.8384	4,141.11	87.6855	4,141.11	86.9689	4,141.11	87.3212	4,141.11	89.0325	4,141.11	88.8063	4,141.11	86.672	4,141.11	85.4338	4,141.11	85.4961	4,141.11	85.428	4,141.11	72.4957	4,141.11	70.7677	4,141.11	74.3487	4,141.11	78.522	4,141.11	84.6917
4,287.6	102.195	4,287.6	102.275	4,287.6	101.234	4,287.6	100.413	4,287.6	101.478	4,287.6	100.238	4,287.6	100.648	4,287.6	100.557	4,287.6	101.229	4,287.6	99.9709	4,287.6	100.846	4,287.6	99.0721	4,287.6	98.5016	4,287.6	96.8059	4,287.6	95.9876	4,287.6	94.2392	4,287.6	93.8414	4,287.6	91.5383	4,287.6	91.8509	4,287.6	88.6553	4,287.6	87.9714	4,287.6	87.4409	4,287.6	88.1121	4,287.6	87.2121	4,287.6	88.0045	4,287.6	86.0249	4,287.6	88.6485	4,287.6	87.9943	4,287.6	86.3041	4,287.6	83.6648	4,287.6	84.9204	4,287.6	72.4491	4,287.6	71.1638	4,287.6	77.3292	4,287.6	75.5425	4,287.6	84.8552
4,438.48	102.277	4,438.48	101.385	4,438.48	102.021	4,438.48	101.058	4,438.48	100.594	4,438.48	100.048	4,438.48	101.179	4,438.48	100.426	4,438.48	100.006	4,438.48	100.376	4,438.48	99.0966	4,438.48	97.9845	4,438.48	98.4647	4,438.48	95.5025	4,438.48	96.3578	4,438.48	93.6047	4,438.48	95.2593	4,438.48	91.6896	4,438.48	91.1658	4,438.48	89.2474	4,438.48	89.9192	4,438.48	85.8785	4,438.48	87.9211	4,438.48	85.32	4,438.48	87.2409	4,438.48	86.0103	4,438.48	87.8758	4,438.48	86.0872	4,438.48	86.8524	4,438.48	81.7269	4,438.48	80.8403	4,438.48	69.2035	4,438.48	75.3255	4,438.48	80.494	4,438.48	78.9095	4,438.48	86.5355
4,595.21	101.484	4,595.21	100.679	4,595.21	100.539	4,595.21	99.8095	4,595.21	99.7194	4,595.21	99.2678	4,595.21	98.5381	4,595.21	98.5767	4,595.21	99.4137	4,595.21	98.3324	4,595.21	98.7853	4,595.21	98.5249	4,595.21	97.6159	4,595.21	97.1243	4,595.21	95.5477	4,595.21	94.55	4,595.21	93.8997	4,595.21	91.2215	4,595.21	91.672	4,595.21	87.711	4,595.21	88.4586	4,595.21	85.329	4,595.21	85.7333	4,595.21	86.9577	4,595.21	85.2853	4,595.21	86.8192	4,595.21	87.0597	4,595.21	86.1215	4,595.21	85.1685	4,595.21	82.3352	4,595.21	81.8107	4,595.21	73.6685	4,595.21	71.8377	4,595.21	75.8216	4,595.21	80.013	4,595.21	83.1575
4,756.35	101.034	4,756.35	100.721	4,756.35	101.206	4,756.35	99.0943	4,756.35	100.547	4,756.35	98.698	4,756.35	100.087	4,756.35	99.1917	4,756.35	100.287	4,756.35	98.4498	4,756.35	100.317	4,756.35	97.3703	4,756.35	98.888	4,756.35	96.2514	4,756.35	96.6057	4,756.35	93.7533	4,756.35	95.5496	4,756.35	92.9792	4,756.35	92.0611	4,756.35	87.9155	4,756.35	88.5722	4,756.35	87.8853	4,756.35	87.6282	4,756.35	87.3878	4,756.35	86.5601	4,756.35	87.0106	4,756.35	86.858	4,756.35	87.3612	4,756.35	86.4604	4,756.35	79.97	4,756.35	81.3028	4,756.35	68.7661	4,756.35	66.3528	4,756.35	82.7473	4,756.35	78.897	4,756.35	83.3007
4,924.8	101.063	4,924.8	100.437	4,924.8	100.992	4,924.8	101.192	4,924.8	99.9386	4,924.8	99.8692	4,924.8	100.066	4,924.8	100.626	4,924.8	99.5008	4,924.8	100.267	4,924.8	98.8898	4,924.8	99.1463	4,924.8	98.588	4,924.8	96.6649	4,924.8	96.9524	4,924.8	95.6011	4,924.8	93.0543	4,924.8	92.7438	4,924.8	92.1075	4,924.8	90.0622	4,924.8	89.0671	4,924.8	86.2316	4,924.8	86.7938	4,924.8	85.8516	4,924.8	85.9998	4,924.8	84.4026	4,924.8	85.508	4,924.8	87.2386	4,924.8	84.654	4,924.8	81.5731	4,924.8	80.6241	4,924.8	73.6607	4,924.8	64.7045	4,924.8	78.7071	4,924.8	81.326	4,924.8	84.5351
5,097.66	100.543	5,097.66	100.777	5,097.66	100.233	5,097.66	99.4353	5,097.66	100.362	5,097.66	99.3486	5,097.66	98.9289	5,097.66	98.3498	5,097.66	99.718	5,097.66	98.6058	5,097.66	100.142	5,097.66	98.0057	5,097.66	98.3519	5,097.66	97.4014	5,097.66	96.5807	5,097.66	95.8499	5,097.66	95.5082	5,097.66	92.4043	5,097.66	90.5379	5,097.66	88.9759	5,097.66	87.6897	5,097.66	87.8862	5,097.66	85.7817	5,097.66	87.5392	5,097.66	86.6763	5,097.66	84.3655	5,097.66	85.1734	5,097.66	85.2244	5,097.66	85.1952	5,097.66	80.8756	5,097.66	80.7251	5,097.66	68.9081	5,097.66	62.706	5,097.66	82.5253	5,097.66	81.894	5,097.66	81.9426
5,277.83	101.409	5,277.83	101.713	5,277.83	101.892	5,277.83	100.948	5,277.83	100.867	5,277.83	99.5576	5,277.83	100.213	5,277.83	99.4351	5,277.83	99.1435	5,277.83	99.5271	5,277.83	99.3383	5,277.83	99.3685	5,277.83	99.188	5,277.83	97.8878	5,277.83	97.8317	5,277.83	94.249	5,277.83	93.1822	5,277.83	91.4433	5,277.83	91.2772	5,277.83	86.0906	5,277.83	88.6576	5,277.83	82.3093	5,277.83	86.6747	5,277.83	84.5372	5,277.83	84.0035	5,277.83	82.9351	5,277.83	85.8242	5,277.83	84.2578	5,277.83	86.1437	5,277.83	79.3223	5,277.83	77.7542	5,277.83	72.1944	5,277.83	70.2095	5,277.83	79.9604	5,277.83	83.0945	5,277.83	78.9688
5,463.87	101.592	5,463.87	101.287	5,463.87	101.356	5,463.87	101.202	5,463.87	101.617	5,463.87	100.013	5,463.87	99.6469	5,463.87	99.8925	5,463.87	99.5436	5,463.87	100.237	5,463.87	99.5188	5,463.87	99.4673	5,463.87	98.7655	5,463.87	97.2545	5,463.87	96.2368	5,463.87	95.7701	5,463.87	94.4005	5,463.87	91.6277	5,463.87	91.2175	5,463.87	90.9564	5,463.87	87.424	5,463.87	86.1542	5,463.87	85.7733	5,463.87	86.186	5,463.87	85.0565	5,463.87	85.6207	5,463.87	86.1374	5,463.87	85.4544	5,463.87	84.7776	5,463.87	79.5417	5,463.87	78.9661	5,463.87	62.6033	5,463.87	68.1339	5,463.87	82.2282	5,463.87	82.1169	5,463.87	78.7273
5,657.23	101.363	5,657.23	101.712	5,657.23	102.184	5,657.23	101.479	5,657.23	101.413	5,657.23	99.8395	5,657.23	99.9181	5,657.23	99.1525	5,657.23	99.7154	5,657.23	99.8883	5,657.23	100.164	5,657.23	99.0242	5,657.23	98.7947	5,657.23	97.952	5,657.23	97.172	5,657.23	93.3198	5,657.23	95.3157	5,657.23	90.8593	5,657.23	91.6326	5,657.23	86.3238	5,657.23	87.7335	5,657.23	85.1518	5,657.23	87.1428	5,657.23	87.1337	5,657.23	85.1235	5,657.23	83.9858	5,657.23	87.126	5,657.23	80.4699	5,657.23	84.1256	5,657.23	76.3799	5,657.23	76.6732	5,657.23	75.4371	5,657.23	68.8434	5,657.23	83.4929	5,657.23	84.6827	5,657.23	71.6643
5,856.45	101.541	5,856.45	101.655	5,856.45	101.881	5,856.45	101.462	5,856.45	101.201	5,856.45	99.4067	5,856.45	100.173	5,856.45	99.964	5,856.45	100.242	5,856.45	99.7871	5,856.45	99.2564	5,856.45	98.898	5,856.45	98.9458	5,856.45	97.1478	5,856.45	96.7655	5,856.45	94.3176	5,856.45	93.9953	5,856.45	91.7711	5,856.45	91.4324	5,856.45	88.4985	5,856.45	87.9924	5,856.45	86.3185	5,856.45	84.5668	5,856.45	86.0379	5,856.45	86.5612	5,856.45	85.8008	5,856.45	86.3903	5,856.45	87.4953	5,856.45	83.6051	5,856.45	80.1725	5,856.45	79.0274	5,856.45	74.0698	5,856.45	74.8189	5,856.45	82.3877	5,856.45	81.7037	5,856.45	71.4521
6,062.99	101.867	6,062.99	101.894	6,062.99	101.91	6,062.99	101.191	6,062.99	101.21	6,062.99	99.7179	6,062.99	99.3917	6,062.99	99.4319	6,062.99	99.5036	6,062.99	99.8397	6,062.99	100.1	6,062.99	98.4927	6,062.99	98.2666	6,062.99	95.6014	6,062.99	95.9402	6,062.99	94.1966	6,062.99	94.3554	6,062.99	90.7949	6,062.99	91.0581	6,062.99	88.4496	6,062.99	87.1655	6,062.99	86.5977	6,062.99	85.2053	6,062.99	85.8665	6,062.99	86.2891	6,062.99	83.0692	6,062.99	84.4583	6,062.99	84.3877	6,062.99	83.1236	6,062.99	76.5825	6,062.99	77.0007	6,062.99	74.5944	6,062.99	70.7064	6,062.99	83.4689	6,062.99	83.1161	6,062.99	68.267
6,276.86	101.318	6,276.86	101.175	6,276.86	101.464	6,276.86	100.651	6,276.86	100.627	6,276.86	98.9733	6,276.86	99.5616	6,276.86	98.6589	6,276.86	98.9032	6,276.86	98.9508	6,276.86	98.5254	6,276.86	98.5048	6,276.86	98.5881	6,276.86	97.92	6,276.86	97.1413	6,276.86	95.3139	6,276.86	93.6015	6,276.86	92.6671	6,276.86	90.407	6,276.86	86.8863	6,276.86	87.1661	6,276.86	84.8451	6,276.86	84.3694	6,276.86	85.3455	6,276.86	84.0553	6,276.86	85.6141	6,276.86	82.0619	6,276.86	84.6028	6,276.86	82.7293	6,276.86	76.7897	6,276.86	79.3436	6,276.86	77.504	6,276.86	74.3535	6,276.86	82.4726	6,276.86	81.5069	6,276.86	64.2134
6,498.05	101.425	6,498.05	101.473	6,498.05	101.207	6,498.05	100.97	6,498.05	100.835	6,498.05	100.173	6,498.05	99.6027	6,498.05	99.6063	6,498.05	99.9862	6,498.05	99.3898	6,498.05	100.372	6,498.05	99.1936	6,498.05	99.1026	6,498.05	97.6601	6,498.05	97.0435	6,498.05	94.6522	6,498.05	94.8311	6,498.05	91.4703	6,498.05	91.9003	6,498.05	88.4733	6,498.05	87.756	6,498.05	85.4148	6,498.05	85.6002	6,498.05	84.4128	6,498.05	84.8712	6,498.05	82.423	6,498.05	84.4853	6,498.05	84.5412	6,498.05	84.4465	6,498.05	76.3701	6,498.05	76.2082	6,498.05	79.57	6,498.05	78.4866	6,498.05	83.5138	6,498.05	81.9178	6,498.05	61.4752
6,726.56	101.401	6,726.56	101.347	6,726.56	101.093	6,726.56	101.064	6,726.56	100.37	6,726.56	100.77	6,726.56	100.384	6,726.56	99.8098	6,726.56	99.4332	6,726.56	100.514	6,726.56	99.7673	6,726.56	99.5919	6,726.56	99.6076	6,726.56	98.1525	6,726.56	97.3386	6,726.56	95.7867	6,726.56	94.7649	6,726.56	92.4643	6,726.56	91.4036	6,726.56	87.8562	6,726.56	88.3372	6,726.56	86.4799	6,726.56	85.6708	6,726.56	84.7368	6,726.56	83.3716	6,726.56	83.5391	6,726.56	83.4174	6,726.56	84.576	6,726.56	84.6555	6,726.56	77.6131	6,726.56	75.9871	6,726.56	79.0489	6,726.56	76.9805	6,726.56	82.0129	6,726.56	81.9469	6,726.56	62.5006
6,963.87	101.521	6,963.87	101.212	6,963.87	100.692	6,963.87	101.646	6,963.87	101.309	6,963.87	101.232	6,963.87	100.911	6,963.87	100.102	6,963.87	100.127	6,963.87	99.8356	6,963.87	100.32	6,963.87	100.043	6,963.87	99.4199	6,963.87	98.0135	6,963.87	96.8583	6,963.87	95.2093	6,963.87	95.4557	6,963.87	91.8573	6,963.87	91.3114	6,963.87	88.7695	6,963.87	88.2521	6,963.87	85.5458	6,963.87	84.9442	6,963.87	82.8528	6,963.87	83.6003	6,963.87	84.8416	6,963.87	84.5036	6,963.87	82.9271	6,963.87	84.3018	6,963.87	75.0852	6,963.87	76.407	6,963.87	79.3646	6,963.87	80.8739	6,963.87	81.7884	6,963.87	79.1161	6,963.87	73.3852
7,209.96	100.851	7,209.96	100.855	7,209.96	100.356	7,209.96	101.588	7,209.96	101.288	7,209.96	101.367	7,209.96	101.337	7,209.96	100.073	7,209.96	99.8236	7,209.96	100.533	7,209.96	100.343	7,209.96	100.627	7,209.96	99.983	7,209.96	99.1437	7,209.96	98.7287	7,209.96	96.3147	7,209.96	95.1536	7,209.96	93.2789	7,209.96	91.6037	7,209.96	89.6745	7,209.96	88.3919	7,209.96	86.203	7,209.96	86.1746	7,209.96	86.145	7,209.96	84.523	7,209.96	85.7182	7,209.96	85.0956	7,209.96	84.1478	7,209.96	84.6068	7,209.96	71.5858	7,209.96	75.886	7,209.96	79.8811	7,209.96	82.2964	7,209.96	80.4647	7,209.96	78.4063	7,209.96	76.4647
7,464.84	100.031	7,464.84	99.8319	7,464.84	99.3499	7,464.84	100.851	7,464.84	100.098	7,464.84	100.739	7,464.84	99.988	7,464.84	99.2192	7,464.84	98.8377	7,464.84	99.4902	7,464.84	98.6828	7,464.84	99.294	7,464.84	98.6739	7,464.84	97.8112	7,464.84	96.6167	7,464.84	94.7719	7,464.84	93.3756	7,464.84	91.6758	7,464.84	89.9907	7,464.84	87.6257	7,464.84	86.4849	7,464.84	83.5198	7,464.84	84.0021	7,464.84	84.8093	7,464.84	82.995	7,464.84	84.9964	7,464.84	84.5222	7,464.84	82.5135	7,464.84	82.8766	7,464.84	72.8364	7,464.84	71.4926	7,464.84	79.7749	7,464.84	81.8963	7,464.84	75.6864	7,464.84	75.3987	7,464.84	76.5739
7,727.05	100.178	7,727.05	99.9467	7,727.05	100.106	7,727.05	100.719	7,727.05	100.575	7,727.05	100.235	7,727.05	100.255	7,727.05	98.5197	7,727.05	98.6205	7,727.05	98.138	7,727.05	98.4251	7,727.05	98.3465	7,727.05	97.8637	7,727.05	97.117	7,727.05	96.3597	7,727.05	93.6741	7,727.05	92.4977	7,727.05	91.0677	7,727.05	89.5554	7,727.05	86.8045	7,727.05	85.5838	7,727.05	84.0512	7,727.05	83.6859	7,727.05	84.9917	7,727.05	82.3606	7,727.05	85.209	7,727.05	82.8497	7,727.05	81.6256	7,727.05	81.2872	7,727.05	70.6957	7,727.05	69.5282	7,727.05	77.9668	7,727.05	82.0055	7,727.05	73.6896	7,727.05	72.7295	7,727.05	76.5861
7,999.51	100.001	7,999.51	100.431	7,999.51	100.271	7,999.51	100.312	7,999.51	100.018	7,999.51	99.8957	7,999.51	99.6933	7,999.51	98.5865	7,999.51	98.1226	7,999.51	97.928	7,999.51	97.2708	7,999.51	97.2332	7,999.51	96.0479	7,999.51	95.492	7,999.51	93.7073	7,999.51	93.1987	7,999.51	91.7664	7,999.51	89.3366	7,999.51	88.2076	7,999.51	86.173	7,999.51	84.128	7,999.51	82.7209	7,999.51	80.6093	7,999.51	81.7302	7,999.51	79.415	7,999.51	81.4801	7,999.51	81.2015	7,999.51	80.0135	7,999.51	78.591	7,999.51	69.9491	7,999.51	68.9384	7,999.51	77.1826	7,999.51	79.752	7,999.51	75.2064	7,999.51	72.0865	7,999.51	76.9026
8,282.23	100.996	8,282.23	101.057	8,282.23	101.162	8,282.23	100.891	8,282.23	100.506	8,282.23	100.188	8,282.23	99.6874	8,282.23	98.5723	8,282.23	97.5012	8,282.23	97.3087	8,282.23	96.3969	8,282.23	96.8445	8,282.23	96.1995	8,282.23	95.5896	8,282.23	94.1998	8,282.23	92.2731	8,282.23	92.1141	8,282.23	89.1461	8,282.23	88.4991	8,282.23	84.743	8,282.23	84.6735	8,282.23	81.6915	8,282.23	81.9234	8,282.23	81.4362	8,282.23	81.5474	8,282.23	82.5153	8,282.23	81.8179	8,282.23	79.1341	8,282.23	78.5874	8,282.23	74.4047	8,282.23	67.0799	8,282.23	76.1728	8,282.23	79.8354	8,282.23	68.3019	8,282.23	64.9545	8,282.23	75.3028
8,573.73	100.937	8,573.73	101.384	8,573.73	101.219	8,573.73	100.414	8,573.73	99.7945	8,573.73	99.9153	8,573.73	98.7633	8,573.73	98.4111	8,573.73	96.6757	8,573.73	96.7563	8,573.73	95.9556	8,573.73	96.6274	8,573.73	95.9624	8,573.73	94.573	8,573.73	93.7441	8,573.73	91.8559	8,573.73	91.2196	8,573.73	88.8074	8,573.73	86.5658	8,573.73	84.2833	8,573.73	84.255	8,573.73	81.3793	8,573.73	79.8343	8,573.73	81.5336	8,573.73	78.7969	8,573.73	81.5515	8,573.73	80.2827	8,573.73	79.0583	8,573.73	76.6726	8,573.73	73.6678	8,573.73	69.8076	8,573.73	76.3539	8,573.73	79.3074	8,573.73	66.6212	8,573.73	64.8906	8,573.73	75.32
8,876.95	100.878	8,876.95	100.651	8,876.95	100.932	8,876.95	99.8189	8,876.95	99.5145	8,876.95	99.4735	8,876.95	98.8824	8,876.95	98.3073	8,876.95	96.9516	8,876.95	96.1986	8,876.95	95.8731	8,876.95	96.0883	8,876.95	95.6375	8,876.95	95.0895	8,876.95	94.0002	8,876.95	91.6221	8,876.95	90.7927	8,876.95	88.1679	8,876.95	87.2564	8,876.95	84.142	8,876.95	82.4317	8,876.95	82.5173	8,876.95	79.9287	8,876.95	81.8232	8,876.95	80.4093	8,876.95	79.942	8,876.95	79.8134	8,876.95	76.5909	8,876.95	75.0524	8,876.95	70.716	8,876.95	69.4733	8,876.95	74.8992	8,876.95	79.7343	8,876.95	55.9108	8,876.95	65.5473	8,876.95	72.6675
9,188.96	100.154	9,188.96	100.377	9,188.96	100.426	9,188.96	99.7022	9,188.96	99.3372	9,188.96	98.9705	9,188.96	98.3921	9,188.96	97.3308	9,188.96	96.4053	9,188.96	95.5871	9,188.96	95.2845	9,188.96	95.1669	9,188.96	95.1569	9,188.96	94.019	9,188.96	93.2199	9,188.96	90.5408	9,188.96	90.0344	9,188.96	87.5723	9,188.96	87.0541	9,188.96	82.1693	9,188.96	82.8121	9,188.96	80.4104	9,188.96	80.2579	9,188.96	79.6279	9,188.96	80.3901	9,188.96	76.9718	9,188.96	80.842	9,188.96	74.0405	9,188.96	74.7441	9,188.96	73.0675	9,188.96	69.6427	9,188.96	71.6255	9,188.96	79.099	9,188.96	57.5673	9,188.96	66.5508	9,188.96	72.5105
9,514.16	100.329	9,514.16	100.055	9,514.16	100.586	9,514.16	98.9168	9,514.16	99.4482	9,514.16	98.1355	9,514.16	98.6093	9,514.16	96.0729	9,514.16	97.0415	9,514.16	94.3335	9,514.16	95.7281	9,514.16	93.0588	9,514.16	95.3558	9,514.16	90.9594	9,514.16	92.8939	9,514.16	87.8852	9,514.16	90.4164	9,514.16	83.6788	9,514.16	86.6741	9,514.16	80.9416	9,514.16	83.4192	9,514.16	77.2543	9,514.16	79.0761	9,514.16	77.9939	9,514.16	79.385	9,514.16	75.742	9,514.16	79.742	9,514.16	72.2471	9,514.16	75.5657	9,514.16	72.3635	9,514.16	71.1364	9,514.16	66.6855	9,514.16	78.1429	9,514.16	62.6809	9,514.16	62.0051	9,514.16	71.8068
9,849.61	100.72	9,849.61	99.9685	9,849.61	100.711	9,849.61	99.0224	9,849.61	99.8911	9,849.61	97.6074	9,849.61	98.9122	9,849.61	96.0173	9,849.61	97.3161	9,849.61	93.0444	9,849.61	95.0214	9,849.61	91.5898	9,849.61	94.8922	9,849.61	89.373	9,849.61	93.3222	9,849.61	86.3318	9,849.61	90.2325	9,849.61	83.6145	9,849.61	85.9368	9,849.61	79.3597	9,849.61	82.1728	9,849.61	77.3272	9,849.61	78.6551	9,849.61	77.7793	9,849.61	80.1247	9,849.61	75.6922	9,849.61	78.43	9,849.61	72.1045	9,849.61	74.1832	9,849.61	72.8052	9,849.61	69.5951	9,849.61	66.3934	9,849.61	75.8903	9,849.61	69.8582	9,849.61	66.4053	9,849.61	71.1628
10,196.8	101.014	10,196.8	100.2	10,196.8	100.804	10,196.8	99.2786	10,196.8	100.466	10,196.8	97.47	10,196.8	99.1804	10,196.8	95.8794	10,196.8	97.4435	10,196.8	92.1037	10,196.8	94.5741	10,196.8	90.9077	10,196.8	94.5362	10,196.8	90.3902	10,196.8	93.1525	10,196.8	85.4615	10,196.8	90.0837	10,196.8	83.1936	10,196.8	86.2653	10,196.8	77.8408	10,196.8	81.8147	10,196.8	76.7637	10,196.8	78.7491	10,196.8	75.387	10,196.8	78.7682	10,196.8	71.7953	10,196.8	78.7699	10,196.8	69.4304	10,196.8	72.8572	10,196.8	68.0859	10,196.8	67.1688	10,196.8	60.3563	10,196.8	74.7603	10,196.8	68.8418	10,196.8	63.2377	10,196.8	66.6372
10,555.7	100.666	10,555.7	99.9818	10,555.7	100.619	10,555.7	99.1435	10,555.7	100.232	10,555.7	97.4697	10,555.7	99.122	10,555.7	95.6114	10,555.7	97.5219	10,555.7	92.5496	10,555.7	94.3181	10,555.7	90.5196	10,555.7	94.1791	10,555.7	89.7055	10,555.7	92.4139	10,555.7	85.9406	10,555.7	89.2043	10,555.7	82.0529	10,555.7	85.7339	10,555.7	77.2829	10,555.7	81.6105	10,555.7	74.3358	10,555.7	78.5237	10,555.7	71.6988	10,555.7	78.2363	10,555.7	66.8268	10,555.7	77.8068	10,555.7	66.4661	10,555.7	72.5963	10,555.7	67.5379	10,555.7	67.7021	10,555.7	54.8084	10,555.7	73.4875	10,555.7	67.8968	10,555.7	56.304	10,555.7	66.5108
10,927.7	100.438	10,927.7	99.8544	10,927.7	100.585	10,927.7	99.1972	10,927.7	100.266	10,927.7	97.6635	10,927.7	99.3937	10,927.7	95.4128	10,927.7	97.5674	10,927.7	92.6674	10,927.7	94.579	10,927.7	90.9485	10,927.7	94.3711	10,927.7	89.7748	10,927.7	93.1425	10,927.7	86.1134	10,927.7	89.9079	10,927.7	82.0001	10,927.7	86.0904	10,927.7	78.093	10,927.7	81.2398	10,927.7	73.7243	10,927.7	79.4579	10,927.7	74.2702	10,927.7	79.1279	10,927.7	69.1296	10,927.7	76.2526	10,927.7	67.2987	10,927.7	71.7927	10,927.7	67.621	10,927.7	69.4474	10,927.7	52.2088	10,927.7	71.9742	10,927.7	70.471	10,927.7	61.3512	10,927.7	67.0207
11,313	100.491	11,313	100.071	11,313	100.527	11,313	99.1526	11,313	100.5	11,313	97.8141	11,313	99.4854	11,313	95.7294	11,313	97.8665	11,313	93.2728	11,313	94.933	11,313	91.679	11,313	94.5593	11,313	90.7267	11,313	93.9129	11,313	86.5182	11,313	90.7019	11,313	82.7157	11,313	86.0094	11,313	78.4674	11,313	81.2126	11,313	75.8409	11,313	79.2511	11,313	75.7952	11,313	78.1038	11,313	73.1351	11,313	76.6889	11,313	67.8173	11,313	69.809	11,313	66.3452	11,313	69.2324	11,313	58.576	11,313	71.6943	11,313	67.1097	11,313	59.2879	11,313	63.433
11,712.9	100.609	11,712.9	100.48	11,712.9	100.557	11,712.9	99.45	11,712.9	100.329	11,712.9	98.0769	11,712.9	99.4617	11,712.9	96.3826	11,712.9	98.1	11,712.9	94.0609	11,712.9	95.4456	11,712.9	92.1221	11,712.9	94.6934	11,712.9	91.3313	11,712.9	93.7919	11,712.9	87.3145	11,712.9	90.8486	11,712.9	83.1128	11,712.9	85.921	11,712.9	78.5759	11,712.9	81.9784	11,712.9	76.9191	11,712.9	79.6848	11,712.9	74.2043	11,712.9	77.5748	11,712.9	72.8185	11,712.9	76.4993	11,712.9	66.7145	11,712.9	69.5213	11,712.9	64.7938	11,712.9	70.8155	11,712.9	64.9504	11,712.9	70.1333	11,712.9	66.6715	11,712.9	52.6775	11,712.9	61.6279
12,126	101.76	12,126	101.364	12,126	101.305	12,126	100.274	12,126	100.318	12,126	98.6584	12,126	99.6301	12,126	97.7872	12,126	98.7934	12,126	95.2061	12,126	96.7126	12,126	93.2418	12,126	95.8815	12,126	91.8632	12,126	95.0853	12,126	87.3614	12,126	92.0408	12,126	83.8526	12,126	87.0851	12,126	78.3852	12,126	83.5129	12,126	76.9364	12,126	80.768	12,126	75.9197	12,126	77.5585	12,126	73.6159	12,126	74.1347	12,126	67.361	12,126	67.9839	12,126	65.9138	12,126	70.3474	12,126	67.5513	12,126	69.8747	12,126	70.2385	12,126	60.6737	12,126	60.9853
12,553.7	102.854	12,553.7	102.38	12,553.7	101.991	12,553.7	101.17	12,553.7	100.127	12,553.7	99.6065	12,553.7	99.2291	12,553.7	98.1368	12,553.7	99.0576	12,553.7	94.8768	12,553.7	97.4284	12,553.7	92.0484	12,553.7	96.8342	12,553.7	90.661	12,553.7	96.5696	12,553.7	86.9728	12,553.7	93.6765	12,553.7	84.2757	12,553.7	89.2613	12,553.7	77.8252	12,553.7	85.6419	12,553.7	75.5108	12,553.7	82.5291	12,553.7	76.4373	12,553.7	80.107	12,553.7	75.2385	12,553.7	73.052	12,553.7	69.2836	12,553.7	67.5333	12,553.7	66.712	12,553.7	72.1404	12,553.7	71.5947	12,553.7	71.544	12,553.7	70.1452	12,553.7	70.0835	12,553.7	63.4696
12,996.1	103.156	12,996.1	103.362	12,996.1	102.118	12,996.1	102.939	12,996.1	98.5506	12,996.1	101.775	12,996.1	95.362	12,996.1	98.8559	12,996.1	96.715	12,996.1	94.6395	12,996.1	96.8528	12,996.1	89.1103	12,996.1	96.8973	12,996.1	90.3624	12,996.1	97.8013	12,996.1	87.2578	12,996.1	94.9373	12,996.1	83.3086	12,996.1	91.3579	12,996.1	77.7937	12,996.1	87.3677	12,996.1	75.5171	12,996.1	84.0468	12,996.1	76.4351	12,996.1	81.6233	12,996.1	76.8996	12,996.1	74.7957	12,996.1	71.2985	12,996.1	69.1953	12,996.1	67.078	12,996.1	69.6071	12,996.1	73.2658	12,996.1	74.4465	12,996.1	68.0405	12,996.1	73.5086	12,996.1	68.5119
13,454.6	102.628	13,454.6	104.114	13,454.6	100.388	13,454.6	104.206	13,454.6	94.8356	13,454.6	102.468	13,454.6	79.2321	13,454.6	99.1907	13,454.6	92.0884	13,454.6	95.2568	13,454.6	94.4432	13,454.6	89.013	13,454.6	94.5941	13,454.6	88.3367	13,454.6	96.4312	13,454.6	85.2254	13,454.6	94.0942	13,454.6	81.5123	13,454.6	90.5337	13,454.6	77.6489	13,454.6	85.7996	13,454.6	74.8109	13,454.6	82.6285	13,454.6	75.9086	13,454.6	80.7103	13,454.6	73.6859	13,454.6	75.9411	13,454.6	70.1055	13,454.6	64.4429	13,454.6	67.9913	13,454.6	69.4435	13,454.6	70.5838	13,454.6	72.8848	13,454.6	67.3991	13,454.6	72.4325	13,454.6	64.151
13,929.2	104.636	13,929.2	105.428	13,929.2	102.612	13,929.2	104.43	13,929.2	99.5353	13,929.2	101.892	13,929.2	94.1396	13,929.2	98.5148	13,929.2	93.3605	13,929.2	95.7568	13,929.2	93.7655	13,929.2	91.3873	13,929.2	93.8672	13,929.2	91.413	13,929.2	95.6595	13,929.2	89.6808	13,929.2	94.0169	13,929.2	86.4743	13,929.2	89.9533	13,929.2	79.4117	13,929.2	85.0991	13,929.2	77.3879	13,929.2	81.3042	13,929.2	75.9132	13,929.2	79.5236	13,929.2	76.6704	13,929.2	77.2883	13,929.2	70.8115	13,929.2	67.8542	13,929.2	66.2681	13,929.2	69.719	13,929.2	66.6372	13,929.2	70.5636	13,929.2	69.2979	13,929.2	65.8227	13,929.2	54.6591
14,419.9	106.802	14,419.9	106.498	14,419.9	106.071	14,419.9	104.35	14,419.9	104.261	14,419.9	97.9806	14,419.9	100.163	14,419.9	88.4181	14,419.9	97.354	14,419.9	93.595	14,419.9	94.2028	14,419.9	93.152	14,419.9	94.0049	14,419.9	96.016	14,419.9	96.0918	14,419.9	94.8219	14,419.9	94.5771	14,419.9	91.0598	14,419.9	91.0446	14,419.9	85.2649	14,419.9	86.6866	14,419.9	81.3402	14,419.9	82.462	14,419.9	80.1323	14,419.9	80.0837	14,419.9	80.5303	14,419.9	80.2725	14,419.9	72.4995	14,419.9	71.2957	14,419.9	62.2595	14,419.9	71.3906	14,419.9	67.5867	14,419.9	72.3385	14,419.9	68.09	14,419.9	59.586	14,419.9	63.2975
14,928.2	105.083	14,928.2	104.067	14,928.2	104.409	14,928.2	101.26	14,928.2	102.692	14,928.2	95.9804	14,928.2	99.8996	14,928.2	88.1625	14,928.2	96.8061	14,928.2	92.8198	14,928.2	93.5551	14,928.2	92.4521	14,928.2	92.4278	14,928.2	94.8728	14,928.2	94.5157	14,928.2	93.1686	14,928.2	92.6792	14,928.2	88.8638	14,928.2	89.0745	14,928.2	84.3218	14,928.2	84.3442	14,928.2	80.7753	14,928.2	79.843	14,928.2	77.9861	14,928.2	76.5784	14,928.2	79.6459	14,928.2	79.8102	14,928.2	72.6795	14,928.2	69.0713	14,928.2	59.4756	14,928.2	68.9715	14,928.2	66.2032	14,928.2	72.7789	14,928.2	66.7304	14,928.2	64.1246	14,928.2	65.1031
15,455.6	102.318	15,455.6	100.806	15,455.6	101.153	15,455.6	98.2771	15,455.6	99.4414	15,455.6	96.0694	15,455.6	97.9126	15,455.6	92.7456	15,455.6	95.444	15,455.6	93.4372	15,455.6	93.3827	15,455.6	91.2942	15,455.6	91.3688	15,455.6	91.4654	15,455.6	91.5249	15,455.6	88.6792	15,455.6	88.2177	15,455.6	84.6675	15,455.6	84.36	15,455.6	80.1172	15,455.6	80.0453	15,455.6	75.5319	15,455.6	74.9737	15,455.6	72.4024	15,455.6	71.4272	15,455.6	76.4061	15,455.6	76.2399	15,455.6	72.2574	15,455.6	64.1836	15,455.6	64.419	15,455.6	68.4236	15,455.6	64.0849	15,455.6	72.1334	15,455.6	61.8264	15,455.6	66.6935	15,455.6	63.8947
16,000.5	100.516	16,000.5	98.9167	16,000.5	99.0853	16,000.5	96.5329	16,000.5	97.2656	16,000.5	95.1719	16,000.5	96.3894	16,000.5	94.3564	16,000.5	94.8515	16,000.5	93.3862	16,000.5	92.9293	16,000.5	90.2987	16,000.5	90.0401	16,000.5	89.0614	16,000.5	88.8686	16,000.5	86.8077	16,000.5	85.2601	16,000.5	82.653	16,000.5	81.2883	16,000.5	79.0509	16,000.5	77.8315	16,000.5	74.3871	16,000.5	71.0363	16,000.5	69.521	16,000.5	67.1196	16,000.5	75.4883	16,000.5	72.9094	16,000.5	71.7446	16,000.5	60.5836	16,000.5	63.8363	16,000.5	68.2613	16,000.5	64.9378	16,000.5	70.4258	16,000.5	56.5763	16,000.5	64.2399	16,000.5	62.5494
16,564.5	99.1628	16,564.5	98.4273	16,564.5	98.3638	16,564.5	96.4292	16,564.5	96.2648	16,564.5	95.3334	16,564.5	95.5748	16,564.5	94.9011	16,564.5	94.3929	16,564.5	93.3781	16,564.5	92.3738	16,564.5	89.7064	16,564.5	88.5738	16,564.5	89.2421	16,564.5	88.646	16,564.5	87.1984	16,564.5	86.0117	16,564.5	82.5846	16,564.5	81.474	16,564.5	78.556	16,564.5	78.4228	16,564.5	74.4202	16,564.5	70.37	16,564.5	70.7856	16,564.5	63.2346	16,564.5	75.0492	16,564.5	72.7331	16,564.5	69.6685	16,564.5	61.7201	16,564.5	64.4389	16,564.5	65.4385	16,564.5	67.0663	16,564.5	70.2644	16,564.5	55.0872	16,564.5	64.7009	16,564.5	62.2362
17,148.9	98.6012	17,148.9	98.3633	17,148.9	98.3721	17,148.9	97.1238	17,148.9	96.7197	17,148.9	95.8035	17,148.9	95.6004	17,148.9	95.4805	17,148.9	94.4373	17,148.9	93.9341	17,148.9	91.9475	17,148.9	89.8121	17,148.9	88.22	17,148.9	89.9054	17,148.9	88.7564	17,148.9	87.0138	17,148.9	85.9043	17,148.9	82.2918	17,148.9	81.1095	17,148.9	77.8713	17,148.9	77.6195	17,148.9	74.6232	17,148.9	70.484	17,148.9	70.0169	17,148.9	62.9945	17,148.9	73.4607	17,148.9	70.0227	17,148.9	68.2963	17,148.9	56.0674	17,148.9	67.3468	17,148.9	65.9318	17,148.9	68.8948	17,148.9	68.3658	17,148.9	61.7803	17,148.9	65.9482	17,148.9	62.9135
17,752.4	98.6387	17,752.4	98.9313	17,752.4	98.8216	17,752.4	98.3046	17,752.4	97.5773	17,752.4	96.8936	17,752.4	95.8036	17,752.4	96.5141	17,752.4	94.8128	17,752.4	94.5057	17,752.4	91.7202	17,752.4	90.5228	17,752.4	88.1908	17,752.4	89.8502	17,752.4	88.0762	17,752.4	87.5099	17,752.4	85.7188	17,752.4	82.8914	17,752.4	80.9052	17,752.4	77.7963	17,752.4	77.2873	17,752.4	74.5636	17,752.4	69.1782	17,752.4	70.5453	17,752.4	64.6918	17,752.4	74.6848	17,752.4	72.5641	17,752.4	67.1412	17,752.4	58.1518	17,752.4	67.8906	17,752.4	64.5314	17,752.4	70.6489	17,752.4	66.2197	17,752.4	63.8366	17,752.4	67.3244	17,752.4	64.2017
18,379.4	99.6233	18,379.4	99.6817	18,379.4	99.467	18,379.4	99.1058	18,379.4	97.8942	18,379.4	97.7064	18,379.4	95.548	18,379.4	97.0177	18,379.4	93.8403	18,379.4	94.9446	18,379.4	89.9565	18,379.4	90.5974	18,379.4	86.287	18,379.4	89.608	18,379.4	86.2813	18,379.4	86.8991	18,379.4	82.3558	18,379.4	82.0411	18,379.4	77.8917	18,379.4	75.9048	18,379.4	73.8067	18,379.4	73.8597	18,379.4	63.3196	18,379.4	70.5087	18,379.4	61.9084	18,379.4	75.6861	18,379.4	72.4811	18,379.4	64.4066	18,379.4	60.7596	18,379.4	68.5393	18,379.4	63.2735	18,379.4	70.7297	18,379.4	69.3066	18,379.4	65.0768	18,379.4	70.6766	18,379.4	65.4138
19,026.9	100.304	19,026.9	100.296	19,026.9	99.2892	19,026.9	99.3625	19,026.9	97.1579	19,026.9	97.5148	19,026.9	93.9892	19,026.9	96.6484	19,026.9	91.265	19,026.9	94.4453	19,026.9	87.1586	19,026.9	89.7622	19,026.9	84.1542	19,026.9	88.1397	19,026.9	83.0368	19,026.9	84.9607	19,026.9	80.8522	19,026.9	80.7129	19,026.9	75.599	19,026.9	72.1693	19,026.9	72.4642	19,026.9	71.1966	19,026.9	63.1035	19,026.9	68.8662	19,026.9	56.6587	19,026.9	74.8359	19,026.9	71.1922	19,026.9	60.2871	19,026.9	61.3255	19,026.9	68.6752	19,026.9	58.7649	19,026.9	67.7542	19,026.9	67.7118	19,026.9	67.2814	19,026.9	69.6539	19,026.9	65.9686
19,697.8	101.267	19,697.8	101.482	19,697.8	99.3009	19,697.8	100.013	19,697.8	96.2534	19,697.8	97.1542	19,697.8	91.9302	19,697.8	95.5365	19,697.8	88.8557	19,697.8	92.336	19,697.8	84.3457	19,697.8	87.0946	19,697.8	81.7086	19,697.8	83.8924	19,697.8	82.8791	19,697.8	79.5132	19,697.8	82.6014	19,697.8	76.2773	19,697.8	77.2037	19,697.8	63.4201	19,697.8	73.4254	19,697.8	67.3771	19,697.8	65.9699	19,697.8	63.8171	19,697.8	61.1616	19,697.8	73.0532	19,697.8	73.4466	19,697.8	60.0419	19,697.8	60.007	19,697.8	69.1071	19,697.8	36.9731	19,697.8	64.7712	19,697.8	70.1247	19,697.8	67.7831	19,697.8	70.1721	19,697.8	68.2947
19,999.5	100.639	19,999.5	101.039	19,999.5	98.0854	19,999.5	99.2975	19,999.5	94.7537	19,999.5	95.4293	19,999.5	89.9236	19,999.5	93.9864	19,999.5	87.5104	19,999.5	90.1672	19,999.5	83.2808	19,999.5	85.0772	19,999.5	80.3241	19,999.5	78.2588	19,999.5	82.1318	19,999.5	77.9318	19,999.5	82.8818	19,999.5	76.7303	19,999.5	75.3156	19,999.5	65.6321	19,999.5	68.4313	19,999.5	68.8001	19,999.5	59.8448	19,999.5	60.8186	19,999.5	64.4414	19,999.5	69.6668	19,999.5	74.2875	19,999.5	58.5746	19,999.5	65.5305	19,999.5	66.9507	19,999.5	59.3943	19,999.5	65.127	19,999.5	70.0516	19,999.5	67.6844	19,999.5	69.7315	19,999.5	64.8658
