"SPL Vertical"
"On-Axis"		"10°"		"-10°"		"20°"		"-20°"		"30°"		"-30°"		"40°"		"-40°"		"50°"		"-50°"		"60°"		"-60°"		"70°"		"-70°"		"80°"		"-80°"		"90°"		"-90°"		"100°"		"-100°"		"110°"		"-110°"		"120°"		"-120°"		"130°"		"-130°"		"140°"		"-140°"		"150°"		"-150°"		"160°"		"-160°"		"170°"		"-170°"		"180°"
"Frequency / Hz"	"Sound Pressure Level / dB (re 20 µPa/V)  [2.83  V @ 1. m]"	"Frequency / Hz"	"Sound Pressure Level / dB (re 20 µPa/V)  [2.83  V @ 1. m]"	"Frequency / Hz"	"Sound Pressure Level / dB (re 20 µPa/V)  [2.83  V @ 1. m]"	"Frequency / Hz"	"Sound Pressure Level / dB (re 20 µPa/V)  [2.83  V @ 1. m]"	"Frequency / Hz"	"Sound Pressure Level / dB (re 20 µPa/V)  [2.83  V @ 1. m]"	"Frequency / Hz"	"Sound Pressure Level / dB (re 20 µPa/V)  [2.83  V @ 1. m]"	"Frequency / Hz"	"Sound Pressure Level / dB (re 20 µPa/V)  [2.83  V @ 1. m]"	"Frequency / Hz"	"Sound Pressure Level / dB (re 20 µPa/V)  [2.83  V @ 1. m]"	"Frequency / Hz"	"Sound Pressure Level / dB (re 20 µPa/V)  [2.83  V @ 1. m]"	"Frequency / Hz"	"Sound Pressure Level / dB (re 20 µPa/V)  [2.83  V @ 1. m]"	"Frequency / Hz"	"Sound Pressure Level / dB (re 20 µPa/V)  [2.83  V @ 1. m]"	"Frequency / Hz"	"Sound Pressure Level / dB (re 20 µPa/V)  [2.83  V @ 1. m]"	"Frequency / Hz"	"Sound Pressure Level / dB (re 20 µPa/V)  [2.83  V @ 1. m]"	"Frequency / Hz"	"Sound Pressure Level / dB (re 20 µPa/V)  [2.83  V @ 1. m]"	"Frequency / Hz"	"Sound Pressure Level / dB (re 20 µPa/V)  [2.83  V @ 1. m]"	"Frequency / Hz"	"Sound Pressure Level / dB (re 20 µPa/V)  [2.83  V @ 1. m]"	"Frequency / Hz"	"Sound Pressure Level / dB (re 20 µPa/V)  [2.83  V @ 1. m]"	"Frequency / Hz"	"Sound Pressure Level / dB (re 20 µPa/V)  [2.83  V @ 1. m]"	"Frequency / Hz"	"Sound Pressure Level / dB (re 20 µPa/V)  [2.83  V @ 1. m]"	"Frequency / Hz"	"Sound Pressure Level / dB (re 20 µPa/V)  [2.83  V @ 1. m]"	"Frequency / Hz"	"Sound Pressure Level / dB (re 20 µPa/V)  [2.83  V @ 1. m]"	"Frequency / Hz"	"Sound Pressure Level / dB (re 20 µPa/V)  [2.83  V @ 1. m]"	"Frequency / Hz"	"Sound Pressure Level / dB (re 20 µPa/V)  [2.83  V @ 1. m]"	"Frequency / Hz"	"Sound Pressure Level / dB (re 20 µPa/V)  [2.83  V @ 1. m]"	"Frequency / Hz"	"Sound Pressure Level / dB (re 20 µPa/V)  [2.83  V @ 1. m]"	"Frequency / Hz"	"Sound Pressure Level / dB (re 20 µPa/V)  [2.83  V @ 1. m]"	"Frequency / Hz"	"Sound Pressure Level / dB (re 20 µPa/V)  [2.83  V @ 1. m]"	"Frequency / Hz"	"Sound Pressure Level / dB (re 20 µPa/V)  [2.83  V @ 1. m]"	"Frequency / Hz"	"Sound Pressure Level / dB (re 20 µPa/V)  [2.83  V @ 1. m]"	"Frequency / Hz"	"Sound Pressure Level / dB (re 20 µPa/V)  [2.83  V @ 1. m]"	"Frequency / Hz"	"Sound Pressure Level / dB (re 20 µPa/V)  [2.83  V @ 1. m]"	"Frequency / Hz"	"Sound Pressure Level / dB (re 20 µPa/V)  [2.83  V @ 1. m]"	"Frequency / Hz"	"Sound Pressure Level / dB (re 20 µPa/V)  [2.83  V @ 1. m]"	"Frequency / Hz"	"Sound Pressure Level / dB (re 20 µPa/V)  [2.83  V @ 1. m]"	"Frequency / Hz"	"Sound Pressure Level / dB (re 20 µPa/V)  [2.83  V @ 1. m]"	"Frequency / Hz"	"Sound Pressure Level / dB (re 20 µPa/V)  [2.83  V @ 1. m]"
20.5078	60.0534	20.5078	60.0599	20.5078	60.0878	20.5078	60.1008	20.5078	60.1634	20.5078	60.1664	20.5078	60.2733	20.5078	60.2467	20.5078	60.404	20.5078	60.3331	20.5078	60.5369	20.5078	60.4201	20.5078	60.6517	20.5078	60.505	20.5078	60.7293	20.5078	60.5869	20.5078	60.7566	20.5078	60.6659	20.5078	60.7303	20.5078	60.7421	20.5078	60.6607	20.5078	60.815	20.5078	60.5708	20.5078	60.8822	20.5078	60.4918	20.5078	60.94	20.5078	60.453	20.5078	60.9824	20.5078	60.4705	20.5078	61.0024	20.5078	60.542	20.5078	60.9932	20.5078	60.6492	20.5078	60.9499	20.5078	60.7669	20.5078	60.8722
21.9727	60.9037	21.9727	60.5818	21.9727	61.2941	21.9727	60.339	21.9727	61.7339	21.9727	60.1764	21.9727	62.1974	21.9727	60.0873	21.9727	62.6549	21.9727	60.0599	21.9727	63.0762	21.9727	60.0808	21.9727	63.4325	21.9727	60.1373	21.9727	63.6992	21.9727	60.2193	21.9727	63.8589	21.9727	60.319	21.9727	63.903	21.9727	60.4315	21.9727	63.8337	21.9727	60.5537	21.9727	63.664	21.9727	60.684	21.9727	63.4158	21.9727	60.8221	21.9727	63.1171	21.9727	60.9684	21.9727	62.797	21.9727	61.1246	21.9727	62.4807	21.9727	61.2932	21.9727	62.1856	21.9727	61.4785	21.9727	61.9202	21.9727	61.6857
23.4375	66.057	23.4375	65.7079	23.4375	66.4398	23.4375	65.4024	23.4375	66.8419	23.4375	65.1461	23.4375	67.2452	23.4375	64.9405	23.4375	67.6293	23.4375	64.7841	23.4375	67.972	23.4375	64.6731	23.4375	68.2517	23.4375	64.6032	23.4375	68.449	23.4375	64.5699	23.4375	68.5493	23.4375	64.5696	23.4375	68.5447	23.4375	64.5995	23.4375	68.4358	23.4375	64.658	23.4375	68.2316	23.4375	64.7442	23.4375	67.9495	23.4375	64.858	23.4375	67.6124	23.4375	65.0001	23.4375	67.2455	23.4375	65.1713	23.4375	66.8725	23.4375	65.3732	23.4375	66.5124	23.4375	65.6074	23.4375	66.1778	23.4375	65.8755
24.9023	71.132	24.9023	70.8281	24.9023	71.4601	24.9023	70.5559	24.9023	71.8015	24.9023	70.3203	24.9023	72.1425	24.9023	70.1234	24.9023	72.4672	24.9023	69.9656	24.9023	72.7585	24.9023	69.8462	24.9023	72.9997	24.9023	69.7641	24.9023	73.1756	24.9023	69.7186	24.9023	73.2751	24.9023	69.7089	24.9023	73.2922	24.9023	69.7349	24.9023	73.2271	24.9023	69.7967	24.9023	73.0868	24.9023	69.8941	24.9023	72.8831	24.9023	70.0269	24.9023	72.6316	24.9023	70.1938	24.9023	72.3482	24.9023	70.3928	24.9023	72.0476	24.9023	70.621	24.9023	71.7419	24.9023	70.8746	24.9023	71.4402	24.9023	71.1492
26.3672	74.5123	26.3672	74.2303	26.3672	74.8144	26.3672	73.9759	26.3672	75.1266	26.3672	73.7538	26.3672	75.4364	26.3672	73.5668	26.3672	75.7295	26.3672	73.4157	26.3672	75.9908	26.3672	73.3002	26.3672	76.2053	26.3672	73.2196	26.3672	76.3596	26.3672	73.1729	26.3672	76.4438	26.3672	73.1594	26.3672	76.4528	26.3672	73.1788	26.3672	76.3869	26.3672	73.2308	26.3672	76.2526	26.3672	73.3152	26.3672	76.0608	26.3672	73.4319	26.3672	75.8254	26.3672	73.5801	26.3672	75.561	26.3672	73.7583	26.3672	75.2809	26.3672	73.9643	26.3672	74.9964	26.3672	74.1953	26.3672	74.7163	26.3672	74.4475
27.832	77.3508	27.832	77.0748	27.832	77.6438	27.832	76.8225	27.832	77.9447	27.832	76.5984	27.832	78.242	27.832	76.4053	27.832	78.5225	27.832	76.2445	27.832	78.772	27.832	76.1164	27.832	78.9761	27.832	76.0211	27.832	79.1219	27.832	75.9585	27.832	79.1998	27.832	75.9287	27.832	79.2044	27.832	75.9322	27.832	79.1361	27.832	75.9694	27.832	79.0003	27.832	76.0411	27.832	78.8074	27.832	76.1477	27.832	78.5703	27.832	76.289	27.832	78.3027	27.832	76.4639	27.832	78.0178	27.832	76.6704	27.832	77.7269	27.832	76.905	27.832	77.4394	27.832	77.1632
29.2969	80.3512	29.2969	80.0892	29.2969	80.6267	29.2969	79.847	29.2969	80.9074	29.2969	79.6291	29.2969	81.183	29.2969	79.4384	29.2969	81.4415	29.2969	79.2767	29.2969	81.6698	29.2969	79.145	29.2969	81.8549	29.2969	79.0441	29.2969	81.985	29.2969	78.9745	29.2969	82.0514	29.2969	78.9367	29.2969	82.0492	29.2969	78.9317	29.2969	81.979	29.2969	78.96	29.2969	81.8459	29.2969	79.0225	29.2969	81.6595	29.2969	79.1195	29.2969	81.4316	29.2969	79.2508	29.2969	81.175	29.2969	79.4155	29.2969	80.9019	29.2969	79.6114	29.2969	80.6228	29.2969	79.8351	29.2969	80.347	29.2969	80.0822
30.7617	83.2227	30.7617	82.9709	30.7617	83.4871	30.7617	82.7379	30.7617	83.7561	30.7617	82.5279	30.7617	84.0197	30.7617	82.3438	30.7617	84.2665	30.7617	82.1875	30.7617	84.4839	30.7617	82.0598	30.7617	84.6599	30.7617	81.9616	30.7617	84.7835	30.7617	81.8933	30.7617	84.847	30.7617	81.8555	30.7617	84.8461	30.7617	81.8493	30.7617	84.7815	30.7617	81.8754	30.7617	84.6581	30.7617	81.9349	30.7617	84.4844	30.7617	82.0285	30.7617	84.2709	30.7617	82.1565	30.7617	84.0287	30.7617	82.3179	30.7617	83.7686	30.7617	82.5106	30.7617	83.5003	30.7617	82.731	30.7617	83.2327	30.7617	82.9739
32.2266	85.4927	32.2266	85.2461	32.2266	85.7491	32.2266	85.0158	32.2266	86.0069	32.2266	84.8068	32.2266	86.2565	32.2266	84.6226	32.2266	86.4869	32.2266	84.4654	32.2266	86.6869	32.2266	84.3369	32.2266	86.8453	32.2266	84.2377	32.2266	86.9527	32.2266	84.1687	32.2266	87.002	32.2266	84.1303	32.2266	86.9901	32.2266	84.123	32.2266	86.918	32.2266	84.1474	32.2266	86.7909	32.2266	84.2039	32.2266	86.6174	32.2266	84.2926	32.2266	86.408	32.2266	84.4132	32.2266	86.1736	32.2266	84.5645	32.2266	85.9247	32.2266	84.7446	32.2266	85.6704	32.2266	84.95	32.2266	85.4186	32.2266	85.1764
33.6914	87.7646	33.6914	87.541	33.6914	87.9936	33.6914	87.3281	33.6914	88.221	33.6914	87.1304	33.6914	88.4388	33.6914	86.9511	33.6914	88.6375	33.6914	86.7927	33.6914	88.807	33.6914	86.6571	33.6914	88.9372	33.6914	86.5457	33.6914	89.0191	33.6914	86.4598	33.6914	89.046	33.6914	86.4007	33.6914	89.0151	33.6914	86.3695	33.6914	88.9273	33.6914	86.3673	33.6914	88.7882	33.6914	86.3953	33.6914	88.6064	33.6914	86.4544	33.6914	88.3926	33.6914	86.545	33.6914	88.1581	33.6914	86.667	33.6914	87.9132	33.6914	86.8192	33.6914	87.6674	33.6914	86.9994	33.6914	87.4288	33.6914	87.2042
35.1562	90.2372	35.1562	90.0211	35.1562	90.4585	35.1562	89.8157	35.1562	90.678	35.1562	89.6255	35.1562	90.8875	35.1562	89.4535	35.1562	91.0777	35.1562	89.3023	35.1562	91.239	35.1562	89.1736	35.1562	91.3618	35.1562	89.0686	35.1562	91.4381	35.1562	88.9885	35.1562	91.4619	35.1562	88.9342	35.1562	91.4308	35.1562	88.9067	35.1562	91.3464	35.1562	88.907	35.1562	91.2138	35.1562	88.9358	35.1562	91.0414	35.1562	88.994	35.1562	90.8391	35.1562	89.082	35.1562	90.6172	35.1562	89.1994	35.1562	90.3854	35.1562	89.3453	35.1562	90.1525	35.1562	89.5174	35.1562	89.926	35.1562	89.7125
36.6211	91.8454	36.6211	91.6253	36.6211	92.0701	36.6211	91.4155	36.6211	92.2921	36.6211	91.2206	36.6211	92.503	36.6211	91.0438	36.6211	92.6933	36.6211	90.8878	36.6211	92.8531	36.6211	90.7542	36.6211	92.9725	36.6211	90.6444	36.6211	93.0434	36.6211	90.5594	36.6211	93.0599	36.6211	90.5	36.6211	93.0194	36.6211	90.4667	36.6211	92.9237	36.6211	90.4603	36.6211	92.7783	36.6211	90.4814	36.6211	92.5917	36.6211	90.5307	36.6211	92.3748	36.6211	90.6088	36.6211	92.1388	36.6211	90.7161	36.6211	91.8949	36.6211	90.8525	36.6211	91.6531	36.6211	91.0173	36.6211	91.4219	36.6211	91.2082
38.0859	93.7139	38.0859	93.4965	38.0859	93.9341	38.0859	93.2876	38.0859	94.1501	38.0859	93.092	38.0859	94.3536	38.0859	92.9131	38.0859	94.5353	38.0859	92.7537	38.0859	94.6859	38.0859	92.6158	38.0859	94.7961	38.0859	92.5011	38.0859	94.858	38.0859	92.4106	38.0859	94.8663	38.0859	92.3454	38.0859	94.8189	38.0859	92.3061	38.0859	94.7177	38.0859	92.2936	38.0859	94.5681	38.0859	92.3087	38.0859	94.3788	38.0859	92.3519	38.0859	94.1604	38.0859	92.424	38.0859	93.9242	38.0859	92.5255	38.0859	93.681	38.0859	92.6564	38.0859	93.441	38.0859	92.816	38.0859	93.2125	38.0859	93.0025
39.5508	95.4881	39.5508	95.2785	39.5508	95.6992	39.5508	95.0762	39.5508	95.905	39.5508	94.8856	39.5508	96.0977	39.5508	94.7104	39.5508	96.2684	39.5508	94.5533	39.5508	96.4081	39.5508	94.4164	39.5508	96.5081	39.5508	94.3014	39.5508	96.5612	39.5508	94.2094	39.5508	96.5623	39.5508	94.1414	39.5508	96.5097	39.5508	94.0983	39.5508	96.4054	39.5508	94.0808	39.5508	96.2549	39.5508	94.0896	39.5508	96.0668	39.5508	94.1256	39.5508	95.8515	39.5508	94.1894	39.5508	95.6199	39.5508	94.2818	39.5508	95.3829	39.5508	94.403	39.5508	95.1502	39.5508	94.5528	39.5508	94.9302	39.5508	94.7295
41.0156	97.138	41.0156	96.9371	41.0156	97.339	41.0156	96.7419	41.0156	97.5338	41.0156	96.5568	41.0156	97.7148	41.0156	96.3856	41.0156	97.8738	41.0156	96.2311	41.0156	98.0023	41.0156	96.0957	41.0156	98.0925	41.0156	95.981	41.0156	98.1375	41.0156	95.8884	41.0156	98.1328	41.0156	95.8189	41.0156	98.0772	41.0156	95.7734	41.0156	97.9726	41.0156	95.7527	41.0156	97.8246	41.0156	95.7574	41.0156	97.6413	41.0156	95.7883	41.0156	97.4326	41.0156	95.8462	41.0156	97.2091	41.0156	95.9319	41.0156	96.981	41.0156	96.0456	41.0156	96.7576	41.0156	96.1872	41.0156	96.5469	41.0156	96.3553
42.4805	98.4102	42.4805	98.213	42.4805	98.6065	42.4805	98.0203	42.4805	98.7954	42.4805	97.8365	42.4805	98.9696	42.4805	97.6655	42.4805	99.1214	42.4805	97.5101	42.4805	99.2426	42.4805	97.3729	42.4805	99.3257	42.4805	97.2556	42.4805	99.3645	42.4805	97.1598	42.4805	99.3548	42.4805	97.0867	42.4805	99.2954	42.4805	97.0373	42.4805	99.1887	42.4805	97.0124	42.4805	99.0398	42.4805	97.0128	42.4805	98.8569	42.4805	97.0393	42.4805	98.6494	42.4805	97.0928	42.4805	98.4277	42.4805	97.174	42.4805	98.2018	42.4805	97.2835	42.4805	97.9811	42.4805	97.421	42.4805	97.7734	42.4805	97.5852
43.9453	99.3593	43.9453	99.1687	43.9453	99.5478	43.9453	98.9814	43.9453	99.7281	43.9453	98.8018	43.9453	99.8933	43.9453	98.6338	43.9453	100.036	43.9453	98.4804	43.9453	100.148	43.9453	98.3441	43.9453	100.223	43.9453	98.2271	43.9453	100.255	43.9453	98.131	43.9453	100.241	43.9453	98.0571	43.9453	100.179	43.9453	98.0065	43.9453	100.072	43.9453	97.9801	43.9453	99.926	43.9453	97.9787	43.9453	99.7478	43.9453	98.003	43.9453	99.5471	43.9453	98.0537	43.9453	99.3335	43.9453	98.1313	43.9453	99.1165	43.9453	98.2363	43.9453	98.9049	43.9453	98.3682	43.9453	98.7059	43.9453	98.5256
45.4102	99.83	45.4102	99.6441	45.4102	100.014	45.4102	99.4621	45.4102	100.191	45.4102	99.2885	45.4102	100.354	45.4102	99.1268	45.4102	100.494	45.4102	98.9802	45.4102	100.605	45.4102	98.8512	45.4102	100.679	45.4102	98.7417	45.4102	100.711	45.4102	98.6531	45.4102	100.698	45.4102	98.5867	45.4102	100.639	45.4102	98.5433	45.4102	100.536	45.4102	98.5233	45.4102	100.396	45.4102	98.5271	45.4102	100.225	45.4102	98.5552	45.4102	100.033	45.4102	98.6078	45.4102	99.8299	45.4102	98.6851	45.4102	99.6238	45.4102	98.7872	45.4102	99.4232	45.4102	98.9137	45.4102	99.2347	45.4102	99.0637
46.875	100.08	46.875	99.8974	46.875	100.26	46.875	99.7165	46.875	100.43	46.875	99.5424	46.875	100.584	46.875	99.3792	46.875	100.714	46.875	99.2302	46.875	100.815	46.875	99.0983	46.875	100.879	46.875	98.9857	46.875	100.903	46.875	98.8942	46.875	100.882	46.875	98.8251	46.875	100.818	46.875	98.7791	46.875	100.713	46.875	98.7569	46.875	100.573	46.875	98.7586	46.875	100.405	46.875	98.7846	46.875	100.217	46.875	98.8349	46.875	100.019	46.875	98.9095	46.875	99.8194	46.875	99.0084	46.875	99.6249	46.875	99.1311	46.875	99.4422	46.875	99.2765
48.3398	99.915	48.3398	99.736	48.3398	100.089	48.3398	99.5577	48.3398	100.253	48.3398	99.3849	48.3398	100.399	48.3398	99.2218	48.3398	100.522	48.3398	99.0722	48.3398	100.614	48.3398	98.939	48.3398	100.67	48.3398	98.8249	48.3398	100.686	48.3398	98.7317	48.3398	100.66	48.3398	98.6608	48.3398	100.592	48.3398	98.6134	48.3398	100.485	48.3398	98.5898	48.3398	100.345	48.3398	98.5903	48.3398	100.18	48.3398	98.6149	48.3398	99.9972	48.3398	98.6636	48.3398	99.8056	48.3398	98.7361	48.3398	99.6129	48.3398	98.8321	48.3398	99.4259	48.3398	98.9508	48.3398	99.2504	48.3398	99.091
51.2695	99.357	51.2695	99.184	51.2695	99.5233	51.2695	99.0097	51.2695	99.6771	51.2695	98.8389	51.2695	99.8123	51.2695	98.6759	51.2695	99.9225	51.2695	98.5246	51.2695	100.002	51.2695	98.3882	51.2695	100.045	51.2695	98.2694	51.2695	100.049	51.2695	98.1705	51.2695	100.012	51.2695	98.093	51.2695	99.9336	51.2695	98.0381	51.2695	99.8187	51.2695	98.0064	51.2695	99.673	51.2695	97.9982	51.2695	99.504	51.2695	98.0136	51.2695	99.3201	51.2695	98.0527	51.2695	99.1298	51.2695	98.1153	51.2695	98.9406	51.2695	98.2012	51.2695	98.7593	51.2695	98.3099	51.2695	98.5912	51.2695	98.4405
52.7344	99.1139	52.7344	98.9449	52.7344	99.2759	52.7344	98.7742	52.7344	99.4252	52.7344	98.6068	52.7344	99.5557	52.7344	98.4469	52.7344	99.6614	52.7344	98.2983	52.7344	99.7365	52.7344	98.1642	52.7344	99.7761	52.7344	98.0474	52.7344	99.7769	52.7344	97.9498	52.7344	99.7375	52.7344	97.8732	52.7344	99.6591	52.7344	97.8185	52.7344	99.5453	52.7344	97.7863	52.7344	99.402	52.7344	97.777	52.7344	99.2366	52.7344	97.7907	52.7344	99.0571	52.7344	97.8274	52.7344	98.8714	52.7344	97.8869	52.7344	98.6871	52.7344	97.9693	52.7344	98.5105	52.7344	98.0742	52.7344	98.347	52.7344	98.2007
54.1992	98.9569	54.1992	98.7936	54.1992	99.1129	54.1992	98.6283	54.1992	99.2557	54.1992	98.4662	54.1992	99.3793	54.1992	98.3117	54.1992	99.4779	54.1992	98.1688	54.1992	99.5459	54.1992	98.041	54.1992	99.579	54.1992	97.9311	54.1992	99.5746	54.1992	97.8412	54.1992	99.532	54.1992	97.773	54.1992	99.4534	54.1992	97.7272	54.1992	99.3432	54.1992	97.7042	54.1992	99.2078	54.1992	97.7038	54.1992	99.0548	54.1992	97.7253	54.1992	98.8917	54.1992	97.7679	54.1992	98.7256	54.1992	97.8307	54.1992	98.5622	54.1992	97.9125	54.1992	98.4061	54.1992	98.0123	54.1992	98.2608	54.1992	98.1289
55.6641	98.7394	55.6641	98.578	55.6641	98.8901	55.6641	98.4114	55.6641	99.0246	55.6641	98.2444	55.6641	99.1373	55.6641	98.0817	55.6641	99.2226	55.6641	97.9275	55.6641	99.2755	55.6641	97.7854	55.6641	99.292	55.6641	97.6589	55.6641	99.2695	55.6641	97.5504	55.6641	99.2078	55.6641	97.4622	55.6641	99.1091	55.6641	97.3957	55.6641	98.9783	55.6641	97.3518	55.6641	98.8222	55.6641	97.331	55.6641	98.6494	55.6641	97.3331	55.6641	98.4683	55.6641	97.358	55.6641	98.2871	55.6641	97.405	55.6641	98.1126	55.6641	97.4736	55.6641	97.9498	55.6641	97.5633	55.6641	97.8026	55.6641	97.6732
58.5938	98.5839	58.5938	98.4226	58.5938	98.7339	58.5938	98.2549	58.5938	98.8673	58.5938	98.0859	58.5938	98.9787	58.5938	97.9201	58.5938	99.0628	58.5938	97.7617	58.5938	99.1147	58.5938	97.6146	58.5938	99.1305	58.5938	97.4821	58.5938	99.1075	58.5938	97.3669	58.5938	99.045	58.5938	97.2713	58.5938	98.9449	58.5938	97.1971	58.5938	98.8113	58.5938	97.1453	58.5938	98.6508	58.5938	97.1168	58.5938	98.4712	58.5938	97.1118	58.5938	98.2812	58.5938	97.1306	58.5938	98.0896	58.5938	97.1729	58.5938	97.9042	58.5938	97.2389	58.5938	97.7313	58.5938	97.3283	58.5938	97.5758	58.5938	97.4409
60.0586	98.6757	60.0586	98.5167	60.0586	98.8253	60.0586	98.3535	60.0586	98.9595	60.0586	98.1913	60.0586	99.0728	60.0586	98.0348	60.0586	99.1597	60.0586	97.8881	60.0586	99.2152	60.0586	97.7548	60.0586	99.2357	60.0586	97.6378	60.0586	99.219	60.0586	97.5395	60.0586	99.1653	60.0586	97.4615	60.0586	99.0767	60.0586	97.4049	60.0586	98.9577	60.0586	97.3701	60.0586	98.8146	60.0586	97.3573	60.0586	98.6545	60.0586	97.3662	60.0586	98.4852	60.0586	97.3962	60.0586	98.3137	60.0586	97.4469	60.0586	98.1466	60.0586	97.5177	60.0586	97.9891	60.0586	97.6082	60.0586	97.8452	60.0586	97.7177
62.9883	98.7863	62.9883	98.6292	62.9883	98.9308	62.9883	98.4651	62.9883	99.0569	62.9883	98.2995	62.9883	99.1593	62.9883	98.1378	62.9883	99.2333	62.9883	97.9849	62.9883	99.2747	62.9883	97.8452	62.9883	99.2807	62.9883	97.7223	62.9883	99.2503	62.9883	97.6192	62.9883	99.1845	62.9883	97.5378	62.9883	99.0865	62.9883	97.4795	62.9883	98.9613	62.9883	97.4444	62.9883	98.8157	62.9883	97.4323	62.9883	98.6571	62.9883	97.4421	62.9883	98.493	62.9883	97.4727	62.9883	98.3299	62.9883	97.5226	62.9883	98.1734	62.9883	97.5907	62.9883	98.0275	62.9883	97.6759	62.9883	97.8951	62.9883	97.7776
64.4531	98.8623	64.4531	98.7067	64.4531	99.0051	64.4531	98.544	64.4531	99.1295	64.4531	98.3798	64.4531	99.23	64.4531	98.2195	64.4531	99.3021	64.4531	98.0679	64.4531	99.3417	64.4531	97.9295	64.4531	99.3464	64.4531	97.808	64.4531	99.3153	64.4531	97.7061	64.4531	99.2496	64.4531	97.626	64.4531	99.1527	64.4531	97.5687	64.4531	99.0296	64.4531	97.5345	64.4531	98.887	64.4531	97.523	64.4531	98.732	64.4531	97.5333	64.4531	98.5714	64.4531	97.564	64.4531	98.4117	64.4531	97.6139	64.4531	98.2581	64.4531	97.6816	64.4531	98.1145	64.4531	97.7664	64.4531	97.9836	64.4531	97.8673
67.3828	99.0065	67.3828	98.8496	67.3828	99.1502	67.3828	98.6852	67.3828	99.2749	67.3828	98.5195	67.3828	99.3754	67.3828	98.358	67.3828	99.4471	67.3828	98.2063	67.3828	99.4868	67.3828	98.069	67.3828	99.4923	67.3828	97.9503	67.3828	99.4634	67.3828	97.8531	67.3828	99.4017	67.3828	97.7796	67.3828	99.311	67.3828	97.7308	67.3828	99.1964	67.3828	97.7065	67.3828	99.064	67.3828	97.7061	67.3828	98.9204	67.3828	97.7278	67.3828	98.7718	67.3828	97.7697	67.3828	98.6234	67.3828	97.8297	67.3828	98.4793	67.3828	97.9058	67.3828	98.3428	67.3828	97.9964	67.3828	98.2159	67.3828	98.1001
68.8477	99.1472	68.8477	98.9908	68.8477	99.2895	68.8477	98.8262	68.8477	99.4121	68.8477	98.6594	68.8477	99.5099	68.8477	98.4961	68.8477	99.5786	68.8477	98.342	68.8477	99.6149	68.8477	98.202	68.8477	99.6172	68.8477	98.0805	68.8477	99.5853	68.8477	97.9807	68.8477	99.5213	68.8477	97.9051	68.8477	99.4289	68.8477	97.8548	68.8477	99.3135	68.8477	97.8298	68.8477	99.1814	68.8477	97.8295	68.8477	99.039	68.8477	97.8519	68.8477	98.8922	68.8477	97.895	68.8477	98.7459	68.8477	97.9563	68.8477	98.604	68.8477	98.0335	68.8477	98.4693	68.8477	98.1247	68.8477	98.3437	68.8477	98.2285
71.7773	99.5097	71.7773	99.3595	71.7773	99.6441	71.7773	99.1994	71.7773	99.7573	71.7773	99.0352	71.7773	99.8444	71.7773	98.8729	71.7773	99.9014	71.7773	98.7179	71.7773	99.9255	71.7773	98.5753	71.7773	99.9153	71.7773	98.4495	71.7773	99.8715	71.7773	98.3441	71.7773	99.7967	71.7773	98.2617	71.7773	99.6954	71.7773	98.2038	71.7773	99.5735	71.7773	98.1707	71.7773	99.4377	71.7773	98.162	71.7773	99.2945	71.7773	98.1762	71.7773	99.1495	71.7773	98.2113	71.7773	99.0072	71.7773	98.265	71.7773	98.8709	71.7773	98.3349	71.7773	98.7427	71.7773	98.4191	71.7773	98.624	71.7773	98.5158
74.707	99.8188	74.707	99.674	74.707	99.9475	74.707	99.5189	74.707	100.055	74.707	99.3593	74.707	100.136	74.707	99.2012	74.707	100.187	74.707	99.0501	74.707	100.206	74.707	98.9108	74.707	100.191	74.707	98.7878	74.707	100.144	74.707	98.6845	74.707	100.068	74.707	98.6034	74.707	99.9662	74.707	98.5459	74.707	99.8459	74.707	98.5125	74.707	99.7133	74.707	98.5026	74.707	99.5746	74.707	98.5148	74.707	99.4352	74.707	98.5471	74.707	99.2993	74.707	98.5973	74.707	99.1697	74.707	98.6631	74.707	99.0482	74.707	98.7424	74.707	98.936	74.707	98.8338
77.6367	100.003	77.6367	99.8582	77.6367	100.13	77.6367	99.702	77.6367	100.234	77.6367	99.5405	77.6367	100.311	77.6367	99.3797	77.6367	100.356	77.6367	99.2258	77.6367	100.368	77.6367	99.0839	77.6367	100.347	77.6367	98.959	77.6367	100.293	77.6367	98.8546	77.6367	100.211	77.6367	98.7733	77.6367	100.106	77.6367	98.7166	77.6367	99.9837	77.6367	98.6848	77.6367	99.8515	77.6367	98.6768	77.6367	99.7153	77.6367	98.6911	77.6367	99.5803	77.6367	98.7251	77.6367	99.4501	77.6367	98.7762	77.6367	99.3268	77.6367	98.8418	77.6367	99.2117	77.6367	98.9195	77.6367	99.1052	77.6367	99.0076
79.1016	100.092	79.1016	99.9487	79.1016	100.217	79.1016	99.7928	79.1016	100.318	79.1016	99.6307	79.1016	100.392	79.1016	99.4687	79.1016	100.433	79.1016	99.3129	79.1016	100.441	79.1016	99.1689	79.1016	100.416	79.1016	99.0416	79.1016	100.36	79.1016	98.935	79.1016	100.275	79.1016	98.8518	79.1016	100.169	79.1016	98.7936	79.1016	100.047	79.1016	98.7607	79.1016	99.9159	79.1016	98.7524	79.1016	99.7819	79.1016	98.7667	79.1016	99.6495	79.1016	98.8012	79.1016	99.522	79.1016	98.853	79.1016	99.4012	79.1016	98.9193	79.1016	99.288	79.1016	98.9975	79.1016	99.1828	79.1016	99.0857
82.0312	100.247	82.0312	100.106	82.0312	100.367	82.0312	99.9516	82.0312	100.462	82.0312	99.7885	82.0312	100.527	82.0312	99.6236	82.0312	100.561	82.0312	99.4631	82.0312	100.561	82.0312	99.3131	82.0312	100.528	82.0312	99.1788	82.0312	100.465	82.0312	99.0646	82.0312	100.376	82.0312	98.9737	82.0312	100.266	82.0312	98.9081	82.0312	100.142	82.0312	98.8684	82.0312	100.009	82.0312	98.854	82.0312	99.8736	82.0312	98.8632	82.0312	99.7401	82.0312	98.8935	82.0312	99.6113	82.0312	98.9421	82.0312	99.4891	82.0312	99.0061	82.0312	99.3745	82.0312	99.0831	82.0312	99.2683	82.0312	99.1709
84.9609	100.265	84.9609	100.13	84.9609	100.379	84.9609	99.9819	84.9609	100.47	84.9609	99.8255	84.9609	100.532	84.9609	99.6678	84.9609	100.565	84.9609	99.5153	84.9609	100.566	84.9609	99.3744	84.9609	100.538	84.9609	99.2504	84.9609	100.483	84.9609	99.1479	84.9609	100.404	84.9609	99.07	84.9609	100.309	84.9609	99.0184	84.9609	100.202	84.9609	98.9933	84.9609	100.089	84.9609	98.9934	84.9609	99.9759	84.9609	99.0165	84.9609	99.8642	84.9609	99.0594	84.9609	99.7557	84.9609	99.1185	84.9609	99.651	84.9609	99.1903	84.9609	99.55	84.9609	99.2715	84.9609	99.4528	84.9609	99.3596
87.8906	100.462	87.8906	100.319	87.8906	100.583	87.8906	100.159	87.8906	100.676	87.8906	99.9896	87.8906	100.738	87.8906	99.8171	87.8906	100.766	87.8906	99.6483	87.8906	100.758	87.8906	99.4897	87.8906	100.716	87.8906	99.3472	87.8906	100.643	87.8906	99.226	87.8906	100.546	87.8906	99.1301	87.8906	100.43	87.8906	99.0621	87.8906	100.305	87.8906	99.0231	87.8906	100.176	87.8906	99.0128	87.8906	100.049	87.8906	99.0293	87.8906	99.9273	87.8906	99.0695	87.8906	99.811	87.8906	99.1297	87.8906	99.6996	87.8906	99.2055	87.8906	99.5923	87.8906	99.2928	87.8906	99.4882	87.8906	99.3879
90.8203	100.484	90.8203	100.344	90.8203	100.599	90.8203	100.186	90.8203	100.682	90.8203	100.015	90.8203	100.732	90.8203	99.8396	90.8203	100.745	90.8203	99.6671	90.8203	100.722	90.8203	99.5042	90.8203	100.665	90.8203	99.357	90.8203	100.579	90.8203	99.2305	90.8203	100.47	90.8203	99.1285	90.8203	100.346	90.8203	99.0535	90.8203	100.214	90.8203	99.0064	90.8203	100.081	90.8203	98.9868	90.8203	99.9521	90.8203	98.9931	90.8203	99.8292	90.8203	99.0227	90.8203	99.7131	90.8203	99.0723	90.8203	99.6032	90.8203	99.1382	90.8203	99.4986	90.8203	99.2166	90.8203	99.3988	90.8203	99.3043
95.2148	100.434	95.2148	100.299	95.2148	100.546	95.2148	100.147	95.2148	100.63	95.2148	99.9848	95.2148	100.681	95.2148	99.82	95.2148	100.698	95.2148	99.6594	95.2148	100.678	95.2148	99.5098	95.2148	100.625	95.2148	99.3769	95.2148	100.543	95.2148	99.2659	95.2148	100.439	95.2148	99.1802	95.2148	100.32	95.2148	99.1221	95.2148	100.196	95.2148	99.092	95.2148	100.075	95.2148	99.0888	95.2148	99.9621	95.2148	99.1099	95.2148	99.8591	95.2148	99.1517	95.2148	99.7656	95.2148	99.2096	95.2148	99.6792	95.2148	99.279	95.2148	99.5967	95.2148	99.3553	95.2148	99.5156	95.2148	99.435
98.1445	100.473	98.1445	100.342	98.1445	100.581	98.1445	100.194	98.1445	100.662	98.1445	100.036	98.1445	100.711	98.1445	99.8758	98.1445	100.726	98.1445	99.7195	98.1445	100.706	98.1445	99.5737	98.1445	100.653	98.1445	99.4441	98.1445	100.572	98.1445	99.3352	98.1445	100.47	98.1445	99.2502	98.1445	100.353	98.1445	99.1911	98.1445	100.231	98.1445	99.158	98.1445	100.109	98.1445	99.15	98.1445	99.9938	98.1445	99.1647	98.1445	99.887	98.1445	99.1991	98.1445	99.7892	98.1445	99.2492	98.1445	99.6989	98.1445	99.311	98.1445	99.6143	98.1445	99.3807	98.1445	99.5335	98.1445	99.4555
101.074	100.343	101.074	100.214	101.074	100.448	101.074	100.068	101.074	100.524	101.074	99.914	101.074	100.568	101.074	99.7593	101.074	100.576	101.074	99.6121	101.074	100.55	101.074	99.4795	101.074	100.494	101.074	99.3677	101.074	100.415	101.074	99.2813	101.074	100.32	101.074	99.2228	101.074	100.22	101.074	99.1931	101.074	100.123	101.074	99.191	101.074	100.036	101.074	99.2138	101.074	99.9602	101.074	99.2573	101.074	99.8957	101.074	99.3164	101.074	99.839	101.074	99.3859	101.074	99.7854	101.074	99.4602	101.074	99.7305	101.074	99.5348	101.074	99.6712	101.074	99.6058
105.469	100.564	105.469	100.431	105.469	100.666	105.469	100.274	105.469	100.731	105.469	100.101	105.469	100.755	105.469	99.9204	105.469	100.737	105.469	99.7423	105.469	100.677	105.469	99.5749	105.469	100.58	105.469	99.4256	105.469	100.453	105.469	99.3006	105.469	100.306	105.469	99.2041	105.469	100.152	105.469	99.1378	105.469	100.002	105.469	99.1015	105.469	99.8652	105.469	99.0925	105.469	99.7487	105.469	99.107	105.469	99.6533	105.469	99.1396	105.469	99.5764	105.469	99.185	105.469	99.5128	105.469	99.2378	105.469	99.4567	105.469	99.2935	105.469	99.4031	105.469	99.349
108.398	100.665	108.398	100.53	108.398	100.77	108.398	100.372	108.398	100.838	108.398	100.199	108.398	100.867	108.398	100.019	108.398	100.853	108.398	99.8397	108.398	100.798	108.398	99.6706	108.398	100.706	108.398	99.5186	108.398	100.582	108.398	99.39	108.398	100.436	108.398	99.2893	108.398	100.28	108.398	99.2188	108.398	100.125	108.398	99.1784	108.398	99.9818	108.398	99.1662	108.398	99.8562	108.398	99.1782	108.398	99.7511	108.398	99.2093	108.398	99.6651	108.398	99.2539	108.398	99.5939	108.398	99.3064	108.398	99.5323	108.398	99.3625	108.398	99.4752	108.398	99.419
112.793	100.682	112.793	100.546	112.793	100.785	112.793	100.382	112.793	100.847	112.793	100.199	112.793	100.867	112.793	100.006	112.793	100.842	112.793	99.8124	112.793	100.775	112.793	99.6273	112.793	100.67	112.793	99.4592	112.793	100.536	112.793	99.3155	112.793	100.383	112.793	99.2018	112.793	100.224	112.793	99.1213	112.793	100.071	112.793	99.0747	112.793	99.9325	112.793	99.0604	112.793	99.8139	112.793	99.0746	112.793	99.7157	112.793	99.1119	112.793	99.6343	112.793	99.1659	112.793	99.5643	112.793	99.2303	112.793	99.4994	112.793	99.2992	112.793	99.435	112.793	99.3683
117.188	100.681	117.188	100.548	117.188	100.779	117.188	100.386	117.188	100.835	117.188	100.206	117.188	100.847	117.188	100.014	117.188	100.811	117.188	99.8213	117.188	100.73	117.188	99.6361	117.188	100.61	117.188	99.4667	117.188	100.457	117.188	99.3203	117.188	100.286	117.188	99.202	117.188	100.109	117.188	99.1151	117.188	99.9403	117.188	99.0604	117.188	99.7906	117.188	99.0366	117.188	99.6661	117.188	99.04	117.188	99.5676	117.188	99.0658	117.188	99.4912	117.188	99.1077	117.188	99.4299	117.188	99.1596	117.188	99.3766	117.188	99.2157	117.188	99.325	117.188	99.2715
120.117	100.69	120.117	100.557	120.117	100.786	120.117	100.393	120.117	100.84	120.117	100.209	120.117	100.846	120.117	100.014	120.117	100.803	120.117	99.817	120.117	100.714	120.117	99.6278	120.117	100.584	120.117	99.4547	120.117	100.421	120.117	99.3049	120.117	100.237	120.117	99.1836	120.117	100.047	120.117	99.0936	120.117	99.8638	120.117	99.0353	120.117	99.7004	120.117	99.0067	120.117	99.564	120.117	99.0038	120.117	99.457	120.117	99.0215	120.117	99.3764	120.117	99.0536	120.117	99.3158	120.117	99.0943	120.117	99.2675	120.117	99.1382	120.117	99.2245	120.117	99.182
124.512	100.517	124.512	100.38	124.512	100.619	124.512	100.215	124.512	100.678	124.512	100.031	124.512	100.693	124.512	99.8371	124.512	100.661	124.512	99.644	124.512	100.585	124.512	99.4613	124.512	100.47	124.512	99.2977	124.512	100.324	124.512	99.1602	124.512	100.158	124.512	99.0533	124.512	99.9849	124.512	98.979	124.512	99.8175	124.512	98.9369	124.512	99.6665	124.512	98.924	124.512	99.5387	124.512	98.9355	124.512	99.4365	124.512	98.9657	124.512	99.3577	124.512	99.0082	124.512	99.2969	124.512	99.057	124.512	99.2471	124.512	99.1073	124.512	99.2016	124.512	99.1557
128.906	100.395	128.906	100.248	128.906	100.506	128.906	100.075	128.906	100.576	128.906	99.8828	128.906	100.601	128.906	99.6835	128.906	100.58	128.906	99.4873	128.906	100.514	128.906	99.3048	128.906	100.409	128.906	99.1456	128.906	100.273	128.906	99.017	128.906	100.118	128.906	98.9241	128.906	99.9574	128.906	98.8685	128.906	99.8037	128.906	98.8489	128.906	99.6671	128.906	98.8609	128.906	99.554	128.906	98.8982	128.906	99.4653	128.906	98.9531	128.906	99.3981	128.906	99.0176	128.906	99.3457	128.906	99.0847	128.906	99.3007	128.906	99.1486	128.906	99.2558	128.906	99.2059
133.301	100.401	133.301	100.252	133.301	100.511	133.301	100.075	133.301	100.578	133.301	99.8786	133.301	100.597	133.301	99.6736	133.301	100.568	133.301	99.4716	133.301	100.493	133.301	99.2839	133.301	100.38	133.301	99.1202	133.301	100.237	133.301	98.9885	133.301	100.078	133.301	98.8941	133.301	99.9167	133.301	98.8384	133.301	99.7657	133.301	98.82	133.301	99.6347	133.301	98.8342	133.301	99.5285	133.301	98.8742	133.301	99.4468	133.301	98.9321	133.301	99.385	133.301	98.9996	133.301	99.3361	133.301	99.0695	133.301	99.2924	133.301	99.136	133.301	99.2471	133.301	99.1956
139.16	100.357	139.16	100.203	139.16	100.47	139.16	100.017	139.16	100.536	139.16	99.8082	139.16	100.551	139.16	99.5891	139.16	100.516	139.16	99.3716	139.16	100.433	139.16	99.1678	139.16	100.31	139.16	98.9888	139.16	100.157	139.16	98.8435	139.16	99.988	139.16	98.7379	139.16	99.8167	139.16	98.6745	139.16	99.6564	139.16	98.652	139.16	99.5174	139.16	98.6658	139.16	99.4052	139.16	98.7088	139.16	99.32	139.16	98.7724	139.16	99.2571	139.16	98.8475	139.16	99.2086	139.16	98.9255	139.16	99.1653	139.16	98.9994	139.16	99.119	139.16	99.0644
143.555	100.286	143.555	100.122	143.555	100.405	143.555	99.923	143.555	100.474	143.555	99.6988	143.555	100.489	143.555	99.4622	143.555	100.452	143.555	99.2267	143.555	100.367	143.555	99.0061	143.555	100.241	143.555	98.8133	143.555	100.087	143.555	98.659	143.555	99.9174	143.555	98.5502	143.555	99.7485	143.555	98.49	143.555	99.5933	143.555	98.4767	143.555	99.4617	143.555	98.5048	143.555	99.358	143.555	98.5657	143.555	99.2809	143.555	98.6492	143.555	99.224	143.555	98.7449	143.555	99.178	143.555	98.8427	143.555	99.1329	143.555	98.9344	143.555	99.08	143.555	99.0144
147.949	100.303	147.949	100.129	147.949	100.427	147.949	99.9158	147.949	100.497	147.949	99.6725	147.949	100.51	147.949	99.4123	147.949	100.467	147.949	99.1495	147.949	100.372	147.949	98.8994	147.949	100.236	147.949	98.6767	147.949	100.069	147.949	98.4946	147.949	99.8874	147.949	98.3629	147.949	99.7064	147.949	98.2863	147.949	99.5393	147.949	98.2644	147.949	99.3957	147.949	98.2911	147.949	99.2795	147.949	98.3568	147.949	99.1894	147.949	98.4493	147.949	99.1194	147.949	98.5562	147.949	99.0604	147.949	98.6661	147.949	99.0029	147.949	98.7698	147.949	98.9384	147.949	98.8613
153.809	100.314	153.809	100.149	153.809	100.431	153.809	99.9427	153.809	100.493	153.809	99.7066	153.809	100.498	153.809	99.4524	153.809	100.447	153.809	99.1935	153.809	100.345	153.809	98.9436	153.809	100.202	153.809	98.7167	153.809	100.031	153.809	98.5251	153.809	99.8464	153.809	98.3793	153.809	99.6645	153.809	98.2857	153.809	99.4988	153.809	98.2465	153.809	99.3591	153.809	98.2587	153.809	99.2491	153.809	98.3147	153.809	99.1664	153.809	98.4037	153.809	99.1036	153.809	98.5129	153.809	99.0497	153.809	98.6294	153.809	98.9936	153.809	98.7421	153.809	98.9263	153.809	98.8426
159.668	100.324	159.668	100.163	159.668	100.433	159.668	99.959	159.668	100.487	159.668	99.7214	159.668	100.485	159.668	99.4627	159.668	100.429	159.668	99.1967	159.668	100.328	159.668	98.9384	159.668	100.193	159.668	98.7023	159.668	100.037	159.668	98.502	159.668	99.8749	159.668	98.3488	159.668	99.7208	159.668	98.2502	159.668	99.5841	159.668	98.2089	159.668	99.4695	159.668	98.223	159.668	99.3766	159.668	98.2854	159.668	99.301	159.668	98.3855	159.668	99.2352	159.668	98.5103	159.668	99.1702	159.668	98.6461	159.668	99.0973	159.668	98.7804	159.668	99.0095	159.668	98.9035
165.527	100.3	165.527	100.148	165.527	100.401	165.527	99.955	165.527	100.446	165.527	99.7319	165.527	100.433	165.527	99.4918	165.527	100.363	165.527	99.2491	165.527	100.244	165.527	99.0183	165.527	100.089	165.527	98.8135	165.527	99.9142	165.527	98.6469	165.527	99.7401	165.527	98.5275	165.527	99.5856	165.527	98.4608	165.527	99.4646	165.527	98.4472	165.527	99.3826	165.527	98.4826	165.527	99.3365	165.527	98.5588	165.527	99.3159	165.527	98.6649	165.527	99.3067	165.527	98.788	165.527	99.2942	165.527	98.9154	165.527	99.2662	165.527	99.035	165.527	99.2147	165.527	99.1369
171.387	100.419	171.387	100.257	171.387	100.524	171.387	100.049	171.387	100.566	171.387	99.8056	171.387	100.542	171.387	99.5406	171.387	100.453	171.387	99.2686	171.387	100.305	171.387	99.0046	171.387	100.111	171.387	98.7639	171.387	99.8881	171.387	98.5601	171.387	99.658	171.387	98.4043	171.387	99.442	171.387	98.3035	171.387	99.2587	171.387	98.2597	171.387	99.1201	171.387	98.2698	171.387	99.0291	171.387	98.3258	171.387	98.9798	171.387	98.4159	171.387	98.9585	171.387	98.5259	171.387	98.948	171.387	98.6409	171.387	98.9314	171.387	98.7474	171.387	98.8958	171.387	98.8344
177.246	100.209	177.246	100.081	177.246	100.279	177.246	99.9026	177.246	100.289	177.246	99.6826	177.246	100.239	177.246	99.4333	177.246	100.136	177.246	99.1684	177.246	99.9879	177.246	98.9021	177.246	99.8079	177.246	98.6493	177.246	99.6099	177.246	98.4244	177.246	99.4077	177.246	98.2402	177.246	99.2134	177.246	98.1067	177.246	99.0372	177.246	98.0299	177.246	98.8869	177.246	98.0098	177.246	98.7685	177.246	98.0405	177.246	98.6843	177.246	98.1106	177.246	98.6306	177.246	98.2048	177.246	98.5974	177.246	98.3069	177.246	98.5702	177.246	98.4019	177.246	98.5342	177.246	98.4791
183.105	100.094	183.105	99.9597	183.105	100.175	183.105	99.7808	183.105	100.197	183.105	99.5688	183.105	100.161	183.105	99.3369	183.105	100.073	183.105	99.0986	183.105	99.9464	183.105	98.8669	183.105	99.8007	183.105	98.6526	183.105	99.657	183.105	98.4646	183.105	99.5331	183.105	98.3096	183.105	99.4377	183.105	98.1928	183.105	99.3685	183.105	98.1184	183.105	99.3145	183.105	98.0891	183.105	99.2621	183.105	98.1059	183.105	99.2008	183.105	98.1662	183.105	99.1247	183.105	98.2635	183.105	99.0323	183.105	98.3874	183.105	98.9241	183.105	98.5257	183.105	98.8013	183.105	98.6666
188.965	100.241	188.965	100.128	188.965	100.302	188.965	99.9715	188.965	100.303	188.965	99.7862	188.965	100.244	188.965	99.5858	188.965	100.132	188.965	99.3835	188.965	99.9809	188.965	99.1903	188.965	99.8121	188.965	99.0142	188.965	99.6487	188.965	98.8599	188.965	99.5104	188.965	98.7293	188.965	99.4082	188.965	98.6232	188.965	99.3413	188.965	98.5423	188.965	99.2994	188.965	98.4885	188.965	99.2678	188.965	98.4649	188.965	99.2327	188.965	98.4744	188.965	99.1837	188.965	98.5181	188.965	99.1153	188.965	98.5934	188.965	99.0266	188.965	98.6929	188.965	98.921	188.965	98.8061
196.289	98.4673	196.289	98.3176	196.289	98.5508	196.289	98.1285	196.289	98.5546	196.289	97.9367	196.289	98.4805	196.289	97.7838	196.289	98.3497	196.289	97.7074	196.289	98.204	196.289	97.7309	196.289	98.1016	196.289	97.8565	196.289	98.1	196.289	98.0654	196.289	98.2298	196.289	98.3256	196.289	98.4771	196.289	98.603	196.289	98.7912	196.289	98.8684	196.289	99.1103	196.289	99.1019	196.289	99.3855	196.289	99.2933	196.289	99.5905	196.289	99.4413	196.289	99.72	196.289	99.5512	196.289	99.7835	196.289	99.6323	196.289	99.7976	196.289	99.694	196.289	99.7796	196.289	99.7429
203.613	99.3143	203.613	99.0842	203.613	99.4317	203.613	98.7569	203.613	99.424	203.613	98.3522	203.613	99.2834	203.613	97.8956	203.613	99.0082	203.613	97.4195	203.613	98.6073	203.613	96.9646	203.613	98.107	203.613	96.5775	203.613	97.56	203.613	96.3051	203.613	97.0507	203.613	96.1832	203.613	96.6855	203.613	96.2253	203.613	96.5535	203.613	96.4167	203.613	96.6754	203.613	96.7203	203.613	96.9901	203.613	97.0876	203.613	97.3952	203.613	97.4708	203.613	97.7961	203.613	97.8288	203.613	98.1289	203.613	98.129	203.613	98.3587	203.613	98.3471	203.613	98.4714	203.613	98.4654
210.938	98.8399	210.938	98.5838	210.938	98.9738	210.938	98.2234	210.938	98.9757	210.938	97.7867	210.938	98.8442	210.938	97.3143	210.938	98.589	210.938	96.8603	210.938	98.2356	210.938	96.4884	210.938	97.8319	210.938	96.2584	210.938	97.4519	210.938	96.206	210.938	97.1852	210.938	96.3287	210.938	97.1052	210.938	96.5889	210.938	97.2294	210.938	96.9323	210.938	97.5083	210.938	97.3067	210.938	97.8576	210.938	97.6723	210.938	98.1995	210.938	98.004	210.938	98.4835	210.938	98.2878	210.938	98.686	210.938	98.5168	210.938	98.8021	210.938	98.6873	210.938	98.8361	210.938	98.7954
218.262	100.177	218.262	99.9522	218.262	100.278	218.262	99.6138	218.262	100.246	218.262	99.1729	218.262	100.076	218.262	98.6453	218.262	99.7607	218.262	98.0554	218.262	99.305	218.262	97.4426	218.262	98.7266	218.262	96.8672	218.262	98.0713	218.262	96.4108	218.262	97.428	218.262	96.1602	218.262	96.9329	218.262	96.1718	218.262	96.7299	218.262	96.4389	218.262	96.8823	218.262	96.8938	218.262	97.3188	218.262	97.4434	218.262	97.8878	218.262	98.003	218.262	98.4479	218.262	98.5104	218.262	98.9082	218.262	98.9246	218.262	99.2238	218.262	99.2188	218.262	99.3791	218.262	99.3747
225.586	100.51	225.586	100.297	225.586	100.606	225.586	99.9779	225.586	100.576	225.586	99.564	225.586	100.415	225.586	99.0708	225.586	100.117	225.586	98.5197	225.586	99.6836	225.586	97.9417	225.586	99.128	225.586	97.3814	225.586	98.482	225.586	96.8974	225.586	97.8104	225.586	96.556	225.586	97.2206	225.586	96.4134	225.586	96.8482	225.586	96.4916	225.586	96.7941	225.586	96.7659	225.586	97.0515	225.586	97.1749	225.586	97.5067	225.586	97.6438	225.586	98.0148	225.586	98.1035	225.586	98.4623	225.586	98.499	225.586	98.7824	225.586	98.7891	225.586	98.9451	225.586	98.9444
232.91	100.43	232.91	100.197	232.91	100.553	232.91	99.8662	232.91	100.558	232.91	99.4511	232.91	100.433	232.91	98.9666	232.91	100.172	232.91	98.4329	232.91	99.7716	232.91	97.8771	232.91	99.2389	232.91	97.3368	232.91	98.5961	232.91	96.8598	232.91	97.8936	232.91	96.5	232.91	97.2216	232.91	96.3046	232.91	96.7078	232.91	96.2971	232.91	96.474	232.91	96.4655	232.91	96.5595	232.91	96.7659	232.91	96.8881	232.91	97.1372	232.91	97.3213	232.91	97.5177	232.91	97.7333	232.91	97.8532	232.91	98.0428	232.91	98.1005	232.91	98.2108	232.91	98.227
241.699	100.138	241.699	99.8847	241.699	100.28	241.699	99.5315	241.699	100.301	241.699	99.092	241.699	100.193	241.699	98.5839	241.699	99.9505	241.699	98.0311	241.699	99.5709	241.699	97.4659	241.699	99.058	241.699	96.9303	241.699	98.4276	241.699	96.4742	241.699	97.7175	241.699	96.1477	241.699	97.0025	241.699	95.9879	241.699	96.4009	241.699	96.0054	241.699	96.0488	241.699	96.1792	241.699	96.0253	241.699	96.4645	241.699	96.2888	241.699	96.8057	241.699	96.7054	241.699	97.1479	241.699	97.1334	241.699	97.4426	241.699	97.4748	241.699	97.6491	241.699	97.6803	241.699	97.7357
250.488	100.741	250.488	100.464	250.488	100.9	250.488	100.072	250.488	100.933	250.488	99.5743	250.488	100.835	250.488	98.9795	250.488	100.601	250.488	98.3037	250.488	100.229	250.488	97.5754	250.488	99.7227	250.488	96.8439	250.488	99.0943	250.488	96.1864	250.488	98.3733	250.488	95.7017	250.488	97.6181	250.488	95.4781	250.488	96.9279	250.488	95.5454	250.488	96.4362	250.488	95.8535	250.488	96.2571	250.488	96.3025	250.488	96.403	250.488	96.7901	250.488	96.7672	250.488	97.2378	250.488	97.1971	250.488	97.5925	250.488	97.5692	250.488	97.8197	250.488	97.8123	250.488	97.8969
259.277	100.479	259.277	100.243	259.277	100.608	259.277	99.9076	259.277	100.621	259.277	99.4808	259.277	100.514	259.277	98.9729	259.277	100.284	259.277	98.3965	259.277	99.9344	259.277	97.7693	259.277	99.4716	259.277	97.1201	259.277	98.9124	259.277	96.4943	259.277	98.2868	259.277	95.9587	259.277	97.6453	259.277	95.5931	259.277	97.0651	259.277	95.4634	259.277	96.6434	259.277	95.5853	259.277	96.4626	259.277	95.9095	259.277	96.5377	259.277	96.3453	259.277	96.7976	259.277	96.798	259.277	97.1252	259.277	97.1909	259.277	97.4116	259.277	97.4712	259.277	97.5842	259.277	97.6067
268.066	100.493	268.066	100.197	268.066	100.673	268.066	99.794	268.066	100.731	268.066	99.2882	268.066	100.66	268.066	98.6874	268.066	100.454	268.066	98.0032	268.066	100.11	268.066	97.2571	268.066	99.6343	268.066	96.4881	268.066	99.0416	268.066	95.7615	268.066	98.3624	268.066	95.1707	268.066	97.6514	268.066	94.8184	268.066	96.9975	268.066	94.7716	268.066	96.5187	268.066	95.0192	268.066	96.3204	268.066	95.4767	268.066	96.4229	268.066	96.0319	268.066	96.7355	268.066	96.5847	268.066	97.1125	268.066	97.0605	268.066	97.4261	268.066	97.4077	268.066	97.5976	268.066	97.5925
276.855	100.082	276.855	99.7685	276.855	100.283	276.855	99.3452	276.855	100.366	276.855	98.8141	276.855	100.329	276.855	98.177	276.855	100.169	276.855	97.4368	276.855	99.8864	276.855	96.6019	276.855	99.4864	276.855	95.6936	276.855	98.9803	276.855	94.7589	276.855	98.3902	276.855	93.8887	276.855	97.7559	276.855	93.225	276.855	97.1432	276.855	92.926	276.855	96.6441	276.855	93.0705	276.855	96.3487	276.855	93.5894	276.855	96.2924	276.855	94.3146	276.855	96.4219	276.855	95.0786	276.855	96.6228	276.855	95.763	276.855	96.7778	276.855	96.2976	276.855	96.8016	276.855	96.6469
287.109	99.9434	287.109	99.8025	287.109	99.9741	287.109	99.5531	287.109	99.8941	287.109	99.1972	287.109	99.7059	287.109	98.7365	287.109	99.4164	287.109	98.1736	287.109	99.0379	287.109	97.5136	287.109	98.5876	287.109	96.7692	287.109	98.0882	287.109	95.9672	287.109	97.5698	287.109	95.1615	287.109	97.0754	287.109	94.4484	287.109	96.6674	287.109	93.9685	287.109	96.4218	287.109	93.8598	287.109	96.395	287.109	94.1631	287.109	96.5775	287.109	94.776	287.109	96.8822	287.109	95.5209	287.109	97.1871	287.109	96.2387	287.109	97.3853	287.109	96.8248	287.109	97.4078	287.109	97.2222
297.363	100.722	297.363	100.565	297.363	100.753	297.363	100.296	297.363	100.645	297.363	99.926	297.363	100.386	297.363	99.4619	297.363	99.9705	297.363	98.9108	297.363	99.4031	297.363	98.2814	297.363	98.706	297.363	97.5874	297.363	97.9222	297.363	96.8541	297.363	97.1212	297.363	96.1255	297.363	96.4011	297.363	95.4718	297.363	95.8791	297.363	94.9903	297.363	95.6547	297.363	94.7814	297.363	95.7553	297.363	94.8974	297.363	96.1092	297.363	95.298	297.363	96.5783	297.363	95.8652	297.363	97.0188	297.363	96.4592	297.363	97.3215	297.363	96.9637	297.363	97.4227	297.363	97.2995
307.617	100.574	307.617	100.346	307.617	100.695	307.617	100.021	307.617	100.696	307.617	99.6107	307.617	100.566	307.617	99.1245	307.617	100.298	307.617	98.5685	307.617	99.8835	307.617	97.9488	307.617	99.3158	307.617	97.2753	307.617	98.5925	307.617	96.5689	307.617	97.7266	307.617	95.8709	307.617	96.7694	307.617	95.2513	307.617	95.8481	307.617	94.8063	307.617	95.1838	307.617	94.6294	307.617	94.9975	307.617	94.7603	307.617	95.3052	307.617	95.1512	307.617	95.8829	307.617	95.6884	307.617	96.4653	307.617	96.2429	307.617	96.8831	307.617	96.7055	307.617	97.064	307.617	96.9965
319.336	100.17	319.336	99.9647	319.336	100.268	319.336	99.6636	319.336	100.25	319.336	99.277	319.336	100.104	319.336	98.8142	319.336	99.8225	319.336	98.2833	319.336	99.3989	319.336	97.6914	319.336	98.8301	319.336	97.0474	319.336	98.119	319.336	96.3689	319.336	97.2817	319.336	95.6936	319.336	96.3657	319.336	95.0921	319.336	95.483	319.336	94.668	319.336	94.8321	319.336	94.5247	319.336	94.6267	319.336	94.7	319.336	94.9094	319.336	95.1285	319.336	95.4885	319.336	95.677	319.336	96.1059	319.336	96.2095	319.336	96.5831	319.336	96.6217	319.336	96.8365	319.336	96.8445
329.59	99.8818	329.59	99.6415	329.59	100.019	329.59	99.3166	329.59	100.036	329.59	98.9255	329.59	99.9223	329.59	98.4832	329.59	99.6735	329.59	97.9981	329.59	99.2908	329.59	97.4724	329.59	98.7781	329.59	96.9047	329.59	98.1366	329.59	96.2972	329.59	97.3623	329.59	95.6675	329.59	96.4571	329.59	95.0641	329.59	95.4659	329.59	94.5778	329.59	94.5474	329.59	94.3281	329.59	94.0106	329.59	94.403	329.59	94.1196	329.59	94.7859	329.59	94.7633	329.59	95.3514	329.59	95.5625	329.59	95.9352	329.59	96.2138	329.59	96.3956	329.59	96.58	329.59	96.6317
341.309	99.9134	341.309	99.649	341.309	100.045	341.309	99.2668	341.309	100.034	341.309	98.7852	341.309	99.8801	341.309	98.2227	341.309	99.5943	341.309	97.5977	341.309	99.1933	341.309	96.9296	341.309	98.6939	341.309	96.2422	341.309	98.103	341.309	95.5687	341.309	97.4153	341.309	94.9547	341.309	96.6239	341.309	94.4591	341.309	95.753	341.309	94.1485	341.309	94.9127	341.309	94.0811	341.309	94.3342	341.309	94.2794	341.309	94.2611	341.309	94.704	341.309	94.6929	341.309	95.2543	341.309	95.3565	341.309	95.7995	341.309	95.9583	341.309	96.2168	341.309	96.3296	341.309	96.4123
353.027	99.7192	353.027	99.4552	353.027	99.8397	353.027	99.064	353.027	99.8096	353.027	98.5672	353.027	99.6346	353.027	97.9863	353.027	99.3336	353.027	97.3377	353.027	98.9365	353.027	96.6297	353.027	98.4764	353.027	95.8648	353.027	97.9763	353.027	95.0494	353.027	97.4363	353.027	94.214	353.027	96.8331	353.027	93.4409	353.027	96.1459	353.027	92.8846	353.027	95.4102	353.027	92.7298	353.027	94.781	353.027	93.0568	353.027	94.5086	353.027	93.7484	353.027	94.7209	353.027	94.575	353.027	95.2469	353.027	95.3314	353.027	95.7843	353.027	95.8836	353.027	96.1185	353.027	96.1566
366.211	100.044	366.211	99.8318	366.211	100.116	366.211	99.4884	366.211	100.043	366.211	99.0224	366.211	99.8228	366.211	98.4426	366.211	99.4551	366.211	97.7568	366.211	98.944	366.211	96.9741	366.211	98.3012	366.211	96.1098	366.211	97.552	366.211	95.193	366.211	96.7403	366.211	94.2776	366.211	95.9277	366.211	93.4521	366.211	95.1906	366.211	92.838	366.211	94.6203	366.211	92.5607	366.211	94.3168	366.211	92.6874	366.211	94.3447	366.211	93.1726	366.211	94.6595	366.211	93.8692	366.211	95.102	366.211	94.5955	366.211	95.4828	366.211	95.1963	366.211	95.6614	366.211	95.568
379.395	100.01	379.395	99.7323	379.395	100.177	379.395	99.3674	379.395	100.215	379.395	98.943	379.395	100.112	379.395	98.4794	379.395	99.8629	379.395	97.9809	379.395	99.4615	379.395	97.4329	379.395	98.9027	379.395	96.8093	379.395	98.1817	379.395	96.0886	379.395	97.2958	379.395	95.2757	379.395	96.2598	379.395	94.4284	379.395	95.1482	379.395	93.6808	379.395	94.1754	379.395	93.2282	379.395	93.7029	379.395	93.2242	379.395	93.9399	379.395	93.6501	379.395	94.6426	379.395	94.3267	379.395	95.3898	379.395	95.0442	379.395	95.9173	379.395	95.6453	379.395	96.1317	379.395	96.029
392.578	99.8045	392.578	99.5224	392.578	99.9446	392.578	99.1148	392.578	99.9318	392.578	98.6052	392.578	99.7603	392.578	98.0243	392.578	99.4311	392.578	97.4031	392.578	98.9564	392.578	96.7634	392.578	98.359	392.578	96.1086	392.578	97.6653	392.578	95.4243	392.578	96.8909	392.578	94.6957	392.578	96.0328	392.578	93.9413	392.578	95.0923	392.578	93.2621	392.578	94.1517	392.578	92.8663	392.578	93.4859	392.578	92.9733	392.578	93.4817	392.578	93.5937	392.578	94.1719	392.578	94.4869	392.578	95.1227	392.578	95.3659	392.578	95.9129	392.578	96.0338	392.578	96.3476	392.578	96.3808
405.762	99.7925	405.762	99.5277	405.762	99.8888	405.762	99.121	405.762	99.7976	405.762	98.6009	405.762	99.5156	405.762	97.9933	405.762	99.0627	405.762	97.3184	405.762	98.4841	405.762	96.5888	405.762	97.8393	405.762	95.8088	405.762	97.175	405.762	94.9792	405.762	96.4946	405.762	94.1091	405.762	95.7473	405.762	93.2446	405.762	94.8648	405.762	92.513	405.762	93.8591	405.762	92.1451	405.762	92.9875	405.762	92.3563	405.762	92.7843	405.762	93.112	405.762	93.4769	405.762	94.1246	405.762	94.5755	405.762	95.0875	405.762	95.5211	405.762	95.7995	405.762	96.0625	405.762	96.1465
420.41	99.5727	420.41	99.2725	420.41	99.7072	420.41	98.8399	420.41	99.6583	420.41	98.3182	420.41	99.4282	420.41	97.7527	420.41	99.0412	420.41	97.1786	420.41	98.5408	420.41	96.6105	420.41	97.9774	420.41	96.0369	420.41	97.3869	420.41	95.4236	420.41	96.7676	420.41	94.7295	420.41	96.074	420.41	93.9339	420.41	95.243	420.41	93.0875	420.41	94.2658	420.41	92.3838	420.41	93.3204	420.41	92.1613	420.41	92.8661	420.41	92.6355	420.41	93.2721	420.41	93.6019	420.41	94.2391	420.41	94.6422	420.41	95.1797	420.41	95.4417	420.41	95.7488	420.41	95.835
435.059	99.428	435.059	99.0364	435.059	99.6368	435.059	98.491	435.059	99.6504	435.059	97.8348	435.059	99.4741	435.059	97.1205	435.059	99.1317	435.059	96.4018	435.059	98.6637	435.059	95.7213	435.059	98.1194	435.059	95.0992	435.059	97.5383	435.059	94.5278	435.059	96.9263	435.059	93.9804	435.059	96.2449	435.059	93.435	435.059	95.4416	435.059	92.9162	435.059	94.538	435.059	92.5454	435.059	93.7636	435.059	92.5368	435.059	93.5544	435.059	93.0374	435.059	94.0921	435.059	93.9294	435.059	94.9898	435.059	94.9083	435.059	95.7667	435.059	95.7023	435.059	96.1769	435.059	96.1505
451.172	100.081	451.172	99.6003	451.172	100.339	451.172	98.9198	451.172	100.36	451.172	98.0748	451.172	100.141	451.172	97.1129	451.172	99.6953	451.172	96.0904	451.172	99.0608	451.172	95.0593	451.172	98.3069	451.172	94.0509	451.172	97.5245	451.172	93.0686	451.172	96.7858	451.172	92.0995	451.172	96.0802	451.172	91.1518	451.172	95.2893	451.172	90.3228	451.172	94.2625	451.172	89.8756	451.172	93.0121	451.172	90.1504	451.172	92.0393	451.172	91.1788	451.172	92.2008	451.172	92.5673	451.172	93.3507	451.172	93.8777	451.172	94.5319	451.172	94.8415	451.172	95.2243	451.172	95.3173
465.82	99.2809	465.82	98.921	465.82	99.4502	465.82	98.3959	465.82	99.4139	465.82	97.7352	465.82	99.1725	465.82	96.968	465.82	98.7445	465.82	96.1186	465.82	98.1624	465.82	95.2036	465.82	97.4632	465.82	94.2314	465.82	96.6801	465.82	93.2013	465.82	95.8405	465.82	92.106	465.82	94.9683	465.82	90.9568	465.82	94.0886	465.82	89.8623	465.82	93.2469	465.82	89.1662	465.82	92.5673	465.82	89.3689	465.82	92.2981	465.82	90.5088	465.82	92.6395	465.82	92.018	465.82	93.427	465.82	93.3738	465.82	94.24	465.82	94.3279	465.82	94.7468	465.82	94.7912
483.398	98.827	483.398	98.424	483.398	99.0205	483.398	97.8498	483.398	98.9882	483.398	97.1656	483.398	98.7357	483.398	96.4509	483.398	98.2917	483.398	95.7867	483.398	97.7111	483.398	95.2238	483.398	97.0763	483.398	94.7523	483.398	96.4795	483.398	94.2923	483.398	95.9729	483.398	93.7169	483.398	95.5144	483.398	92.8964	483.398	94.9704	483.398	91.7652	483.398	94.1999	483.398	90.4671	483.398	93.2109	483.398	89.6379	483.398	92.4068	483.398	90.1453	483.398	92.5126	483.398	91.7262	483.398	93.5282	483.398	93.4055	483.398	94.6409	483.398	94.6532	483.398	95.2892	483.398	95.2983
499.512	99.2759	499.512	98.6456	499.512	99.6471	499.512	97.8025	499.512	99.7365	499.512	96.8241	499.512	99.5415	499.512	95.8184	499.512	99.0818	499.512	94.9025	499.512	98.4056	499.512	94.158	499.512	97.5896	499.512	93.5913	499.512	96.7255	499.512	93.1288	499.512	95.8881	499.512	92.6421	499.512	95.1024	499.512	91.9814	499.512	94.3479	499.512	91.0184	499.512	93.6293	499.512	89.7673	499.512	93.0906	499.512	88.7564	499.512	93.0355	499.512	89.1775	499.512	93.626	499.512	91.065	499.512	94.5731	499.512	93.1331	499.512	95.4015	499.512	94.686	499.512	95.7856	499.512	95.5688
517.09	98.7238	517.09	98.1091	517.09	99.0091	517.09	97.1913	517.09	98.9772	517.09	96.0556	517.09	98.6746	517.09	94.8742	517.09	98.1872	517.09	93.8961	517.09	97.6362	517.09	93.3287	517.09	97.1439	517.09	93.1665	517.09	96.7676	517.09	93.1885	517.09	96.4417	517.09	93.1181	517.09	95.9928	517.09	92.7338	517.09	95.2181	517.09	91.8895	517.09	93.9778	517.09	90.5507	517.09	92.3675	517.09	89.0456	517.09	91.1503	517.09	88.5788	517.09	91.5006	517.09	90.0089	517.09	92.9453	517.09	92.0981	517.09	94.232	517.09	93.761	517.09	94.8508	517.09	94.6961
536.133	98.7465	536.133	98.0732	536.133	99.0504	536.133	97.053	536.133	98.9749	536.133	95.7239	536.133	98.5246	536.133	94.1535	536.133	97.7208	536.133	92.4636	536.133	96.6121	536.133	90.8833	536.133	95.3477	536.133	89.7998	536.133	94.31	536.133	89.5214	536.133	93.9663	536.133	89.8002	536.133	94.2334	536.133	90.0524	536.133	94.4927	536.133	89.8786	536.133	94.2228	536.133	89.1599	536.133	93.2143	536.133	88.1303	536.133	91.7825	536.133	87.7634	536.133	91.2685	536.133	89.1193	536.133	92.4295	536.133	91.3527	536.133	93.8521	536.133	93.2434	536.133	94.5574	536.133	94.349
555.176	97.8721	555.176	97.4527	555.176	98.0246	555.176	96.7834	555.176	97.9192	555.176	95.9084	555.176	97.5771	555.176	94.8882	555.176	97.0051	555.176	93.774	555.176	96.1678	555.176	92.5938	555.176	95.0064	555.176	91.3909	555.176	93.5421	555.176	90.3033	555.176	92.0516	555.176	89.5494	555.176	91.0962	555.176	89.2047	555.176	90.9543	555.176	89.0515	555.176	91.1985	555.176	88.7718	555.176	91.3303	555.176	88.2478	555.176	91.2715	555.176	87.9064	555.176	91.353	555.176	88.6581	555.176	91.9042	555.176	90.3988	555.176	92.7002	555.176	92.0556	555.176	93.1982	555.176	93.0271
574.219	98.3601	574.219	97.8065	574.219	98.6564	574.219	97.0207	574.219	98.6941	574.219	96.0511	574.219	98.4852	574.219	94.9593	574.219	98.0347	574.219	93.8118	574.219	97.3223	574.219	92.6865	574.219	96.3145	574.219	91.6814	574.219	95.0224	574.219	90.8896	574.219	93.5679	574.219	90.3392	574.219	92.183	574.219	89.9348	574.219	91.0682	574.219	89.4446	574.219	90.2066	574.219	88.5527	574.219	89.4862	574.219	87.0049	574.219	89.143	574.219	85.2448	574.219	89.7394	574.219	85.7054	574.219	91.1017	574.219	88.5211	574.219	92.3492	574.219	91.0314	574.219	92.8903	574.219	92.4872
594.727	99.5617	594.727	99.1092	594.727	99.7158	594.727	98.3767	594.727	99.5851	594.727	97.4189	594.727	99.1989	594.727	96.3166	594.727	98.5872	594.727	95.1525	594.727	97.7861	594.727	93.982	594.727	96.8599	594.727	92.8262	594.727	95.913	594.727	91.7195	594.727	95.0556	594.727	90.7961	594.727	94.3098	594.727	90.2795	594.727	93.5237	594.727	90.2079	594.727	92.4119	594.727	90.2524	594.727	90.8397	594.727	90.0673	594.727	89.6593	594.727	89.7724	594.727	90.636	594.727	90.1233	594.727	92.7485	594.727	91.5325	594.727	94.282	594.727	93.2349	594.727	94.8385	594.727	94.4465
615.234	100.897	615.234	100.412	615.234	101.02	615.234	99.629	615.234	100.751	615.234	98.6319	615.234	100.11	615.234	97.5018	615.234	99.1749	615.234	96.3197	615.234	98.0618	615.234	95.1971	615.234	96.8817	615.234	94.2636	615.234	95.7493	615.234	93.5347	615.234	94.8156	615.234	92.8327	615.234	94.197	615.234	91.9498	615.234	93.8582	615.234	90.9057	615.234	93.6015	615.234	90.0682	615.234	93.1297	615.234	89.8556	615.234	92.2238	615.234	90.3117	615.234	91.2696	615.234	91.3117	615.234	91.5656	615.234	92.6557	615.234	93.0537	615.234	93.8887	615.234	94.2484	615.234	94.5196
637.207	101.286	637.207	100.731	637.207	101.472	637.207	99.8282	637.207	101.32	637.207	98.6373	637.207	100.906	637.207	97.2263	637.207	100.277	637.207	95.6675	637.207	99.359	637.207	94.1002	637.207	98.0128	637.207	92.8319	637.207	96.288	637.207	92.2031	637.207	94.6976	637.207	92.1433	637.207	94.0012	637.207	92.1919	637.207	94.1198	637.207	91.932	637.207	94.1886	637.207	91.1163	637.207	93.6485	637.207	89.68	637.207	92.6009	637.207	88.3595	637.207	92.1791	637.207	89.4558	637.207	93.5124	637.207	92.4164	637.207	95.3388	637.207	94.8877	637.207	96.3586	637.207	96.2233
659.18	100.983	659.18	100.476	659.18	101.202	659.18	99.7627	659.18	101.081	659.18	98.9183	659.18	100.601	659.18	97.9601	659.18	99.7633	659.18	96.824	659.18	98.5634	659.18	95.4386	659.18	97.0095	659.18	93.8636	659.18	95.2037	659.18	92.355	659.18	93.4236	659.18	91.2156	659.18	92.0928	659.18	90.5034	659.18	91.4763	659.18	89.9611	659.18	91.3273	659.18	89.2423	659.18	91.1161	659.18	88.2158	659.18	90.5647	659.18	87.5639	659.18	90.3219	659.18	88.7997	659.18	91.6067	659.18	91.3427	659.18	93.5414	659.18	93.5198	659.18	94.7063	659.18	94.6959
682.617	100.421	682.617	100.022	682.617	100.492	682.617	99.3342	682.617	100.297	682.617	98.444	682.617	99.9343	682.617	97.4006	682.617	99.4041	682.617	96.191	682.617	98.5502	682.617	94.841	682.617	97.2212	682.617	93.5204	682.617	95.478	682.617	92.4637	682.617	93.7225	682.617	91.7386	682.617	92.5747	682.617	91.1955	682.617	92.1164	682.617	90.6104	682.617	91.8063	682.617	89.6662	682.617	91.3928	682.617	87.8437	682.617	90.8689	682.617	84.875	682.617	90.3269	682.617	85.2493	682.617	90.6653	682.617	89.8438	682.617	92.3163	682.617	92.9311	682.617	93.8307	682.617	94.162
707.52	100.28	707.52	99.6289	707.52	100.547	707.52	98.7157	707.52	100.444	707.52	97.741	707.52	100.071	707.52	96.8434	707.52	99.5038	707.52	95.9877	707.52	98.7347	707.52	95.0685	707.52	97.7161	707.52	94.1292	707.52	96.4297	707.52	93.3389	707.52	94.9127	707.52	92.7463	707.52	93.1501	707.52	92.3009	707.52	91.0456	707.52	92.0122	707.52	89.45	707.52	91.6675	707.52	89.9217	707.52	90.5596	707.52	90.8598	707.52	87.7844	707.52	91.3683	707.52	84.2702	707.52	92.5547	707.52	87.6958	707.52	94.1486	707.52	91.9406	707.52	94.8776	707.52	94.22
732.422	99.6552	732.422	99.3262	732.422	99.6876	732.422	98.7984	732.422	99.3983	732.422	98.1527	732.422	98.863	732.422	97.3469	732.422	98.1829	732.422	96.2201	732.422	97.36	732.422	94.6819	732.422	96.292	732.422	92.9496	732.422	94.8822	732.422	91.5258	732.422	93.2409	732.422	90.6253	732.422	92.0743	732.422	89.9732	732.422	92.0109	732.422	89.4666	732.422	91.9221	732.422	89.2354	732.422	90.2555	732.422	89.11	732.422	86.1348	732.422	88.4865	732.422	84.2513	732.422	86.4074	732.422	88.8138	732.422	83.6462	732.422	91.7399	732.422	87.3253	732.422	92.5577	732.422	91.1975
757.324	99.3437	757.324	99.1553	757.324	99.4987	757.324	98.9803	757.324	99.4982	757.324	98.7308	757.324	99.2063	757.324	98.1892	757.324	98.5025	757.324	97.1701	757.324	97.2843	757.324	95.7527	757.324	95.4986	757.324	94.2794	757.324	93.2752	757.324	92.9514	757.324	91.0687	757.324	91.6258	757.324	89.3136	757.324	90.4274	757.324	88.3037	757.324	90.0482	757.324	89.1846	757.324	90.36	757.324	90.8025	757.324	90.3201	757.324	90.7925	757.324	89.3566	757.324	88.4367	757.324	87.8761	757.324	85.8298	757.324	87.8139	757.324	87.8098	757.324	89.342	757.324	89.9005	757.324	90.3291
785.156	101.679	785.156	100.6	785.156	101.306	785.156	98.1882	785.156	99.3587	785.156	95.0611	785.156	96.2324	785.156	94.3792	785.156	94.8112	785.156	96.1985	785.156	96.0649	785.156	97.24	785.156	96.7357	785.156	97.0402	785.156	96.124	785.156	95.6776	785.156	94.5363	785.156	92.8968	785.156	92.0582	785.156	88.5024	785.156	88.4755	785.156	84.3198	785.156	88.9493	785.156	84.7862	785.156	92.6259	785.156	87.9311	785.156	93.4029	785.156	89.9297	785.156	89.9818	785.156	89.8896	785.156	78.6233	785.156	88.6858	785.156	90.1064	785.156	90.7098	785.156	93.8605	785.156	93.5992
811.523	100.62	811.523	99.4209	811.523	100.876	811.523	97.5724	811.523	100.114	811.523	95.9041	811.523	98.37	811.523	95.6924	811.523	95.9699	811.523	96.7116	811.523	94.4628	811.523	97.7786	811.523	95.101	811.523	98.5683	811.523	95.9833	811.523	99.0964	811.523	95.951	811.523	99.1945	811.523	94.8494	811.523	98.8033	811.523	92.4959	811.523	98.0958	811.523	88.3483	811.523	96.7621	811.523	79.5152	811.523	94.2483	811.523	81.4612	811.523	91.3539	811.523	89.5269	811.523	89.6272	811.523	92.2332	811.523	88.5253	811.523	92.2279	811.523	88.0404	811.523	90.6616	811.523	88.8292
840.82	100.396	840.82	100.302	840.82	99.04	840.82	99.0141	840.82	96.5374	840.82	96.6284	840.82	95.9953	840.82	92.7866	840.82	98.3059	840.82	87.3224	840.82	100.159	840.82	89.9724	840.82	100.826	840.82	95.0006	840.82	100.469	840.82	97.6068	840.82	99.6358	840.82	98.3812	840.82	98.7834	840.82	97.8575	840.82	97.6636	840.82	96.5507	840.82	96.1775	840.82	94.2879	840.82	94.8462	840.82	90.7621	840.82	92.3658	840.82	87.5112	840.82	84.1412	840.82	85.8307	840.82	84.9836	840.82	83.9846	840.82	91.5082	840.82	87.1885	840.82	92.78	840.82	91.3097
870.117	98.5295	870.117	99.1807	870.117	98.8285	870.117	99.9094	870.117	99.5239	870.117	100.003	870.117	99.5624	870.117	99.2049	870.117	98.6196	870.117	97.4588	870.117	96.6411	870.117	94.8961	870.117	93.4645	870.117	91.6072	870.117	89.3052	870.117	87.3505	870.117	85.9051	870.117	82.7508	870.117	85.166	870.117	78.6455	870.117	86.5107	870.117	77.3066	870.117	88.4806	870.117	82.7706	870.117	89.7258	870.117	85.6136	870.117	89.6624	870.117	86.0845	870.117	87.7091	870.117	85.1227	870.117	84.0637	870.117	85.0579	870.117	88.0007	870.117	88.0288	870.117	91.3783	870.117	91.0315
900.879	100.832	900.879	100.226	900.879	100.175	900.879	98.6683	900.879	98.4747	900.879	96.9903	900.879	96.9427	900.879	96.1706	900.879	96.7346	900.879	95.6734	900.879	96.9954	900.879	94.6063	900.879	96.5695	900.879	94.0143	900.879	94.9527	900.879	94.6346	900.879	93.3941	900.879	94.8407	900.879	93.9805	900.879	94.5323	900.879	94.8992	900.879	94.9333	900.879	95.657	900.879	94.1878	900.879	96.6802	900.879	90.0095	900.879	96.1908	900.879	77.3576	900.879	90.8267	900.879	80.7746	900.879	82.4151	900.879	85.0939	900.879	93.4893	900.879	87.6521	900.879	94.9952	900.879	92.5829
933.105	99.5793	933.105	99.3522	933.105	100.191	933.105	99.8881	933.105	100.064	933.105	100.361	933.105	98.3717	933.105	99.9921	933.105	94.5028	933.105	98.6649	933.105	88.0764	933.105	96.8115	933.105	83.3889	933.105	94.6791	933.105	87.4396	933.105	91.6294	933.105	90.2819	933.105	87.4886	933.105	89.3085	933.105	85.2304	933.105	82.6449	933.105	85.7044	933.105	73.4907	933.105	85.2726	933.105	85.0013	933.105	86.1233	933.105	89.9911	933.105	89.331	933.105	91.1608	933.105	91.0024	933.105	86.7604	933.105	90.5951	933.105	84.6242	933.105	90.0118	933.105	90.6251	933.105	91.2102
965.332	102.27	965.332	102.306	965.332	100.638	965.332	100.963	965.332	97.883	965.332	98.8554	965.332	96.501	965.332	97.636	965.332	96.7753	965.332	97.7099	965.332	96.2809	965.332	97.3281	965.332	94.453	965.332	96.3804	965.332	91.0276	965.332	96.0397	965.332	87.2795	965.332	96.233	965.332	87.9884	965.332	95.6269	965.332	89.4965	965.332	94.6292	965.332	91.1673	965.332	93.6844	965.332	93.2084	965.332	91.2645	965.332	93.7424	965.332	86.0219	965.332	91.3121	965.332	75.7615	965.332	86.3093	965.332	83.467	965.332	89.0383	965.332	89.6239	965.332	92.2438	965.332	92.3582
1,000.49	100.879	1,000.49	101.711	1,000.49	100.664	1,000.49	102.075	1,000.49	101.176	1,000.49	101.339	1,000.49	100.462	1,000.49	98.7916	1,000.49	96.8075	1,000.49	93.9559	1,000.49	88.0186	1,000.49	87.4332	1,000.49	88.9185	1,000.49	81.3727	1,000.49	93.6064	1,000.49	87.1579	1,000.49	95.4139	1,000.49	91.8163	1,000.49	95.9717	1,000.49	92.2702	1,000.49	95.2412	1,000.49	90.1767	1,000.49	93.5075	1,000.49	86.809	1,000.49	92.2597	1,000.49	84.5595	1,000.49	92.5451	1,000.49	88.8337	1,000.49	93.0799	1,000.49	92.0493	1,000.49	91.4239	1,000.49	93.2137	1,000.49	82.2624	1,000.49	93.8955	1,000.49	87.4928	1,000.49	93.1733
1,035.64	101.133	1,035.64	100.447	1,035.64	101.826	1,035.64	100.404	1,035.64	101.117	1,035.64	100.114	1,035.64	98.5711	1,035.64	99.0069	1,035.64	96.7535	1,035.64	97.7103	1,035.64	97.6851	1,035.64	97.1152	1,035.64	97.7492	1,035.64	96.7693	1,035.64	96.156	1,035.64	96.126	1,035.64	94.2349	1,035.64	95.0777	1,035.64	93.2897	1,035.64	93.0013	1,035.64	91.8399	1,035.64	90.7593	1,035.64	90.2774	1,035.64	90.5085	1,035.64	90.7565	1,035.64	89.8467	1,035.64	90.8189	1,035.64	87.858	1,035.64	88.1707	1,035.64	84.9666	1,035.64	79.0294	1,035.64	83.2705	1,035.64	83.8849	1,035.64	85.7286	1,035.64	89.6857	1,035.64	89.3789
1,072.27	100.769	1,072.27	100.976	1,072.27	100.188	1,072.27	99.9558	1,072.27	100.796	1,072.27	97.2776	1,072.27	101.345	1,072.27	92.5265	1,072.27	99.8095	1,072.27	89.0399	1,072.27	95.223	1,072.27	92.0076	1,072.27	88.627	1,072.27	94.5827	1,072.27	91.622	1,072.27	95.7486	1,072.27	93.0724	1,072.27	95.587	1,072.27	91.2269	1,072.27	92.604	1,072.27	88.059	1,072.27	84.8038	1,072.27	85.0162	1,072.27	81.7873	1,072.27	80.6025	1,072.27	77.7615	1,072.27	69.5317	1,072.27	84.2758	1,072.27	87.7711	1,072.27	85.7483	1,072.27	90.9221	1,072.27	88.5356	1,072.27	85.3833	1,072.27	92.1104	1,072.27	84.7972	1,072.27	92.1209
1,108.89	99.9073	1,108.89	97.1036	1,108.89	101.571	1,108.89	95.9624	1,108.89	101.206	1,108.89	96.8112	1,108.89	99.118	1,108.89	96.6383	1,108.89	98.4761	1,108.89	95.291	1,108.89	99.7325	1,108.89	94.1757	1,108.89	99.5618	1,108.89	93.1458	1,108.89	97.3265	1,108.89	91.0008	1,108.89	93.0877	1,108.89	89.4384	1,108.89	88.0561	1,108.89	94.0752	1,108.89	82.8464	1,108.89	94.7352	1,108.89	73.625	1,108.89	90.9934	1,108.89	88.2747	1,108.89	88.3904	1,108.89	94.0237	1,108.89	78.9586	1,108.89	94.6146	1,108.89	82.6069	1,108.89	90.2673	1,108.89	84.4616	1,108.89	75.0013	1,108.89	85.905	1,108.89	91.4289	1,108.89	92.2914
1,148.44	99.4165	1,148.44	98.3158	1,148.44	99.8046	1,148.44	96.373	1,148.44	99.2311	1,148.44	93.9875	1,148.44	98.5866	1,148.44	94.2144	1,148.44	99.4974	1,148.44	96.6867	1,148.44	99.9409	1,148.44	97.9023	1,148.44	98.7971	1,148.44	96.9495	1,148.44	96.3555	1,148.44	95.2471	1,148.44	92.475	1,148.44	93.1865	1,148.44	86.475	1,148.44	91.2361	1,148.44	77.1296	1,148.44	93.5342	1,148.44	83.252	1,148.44	93.5991	1,148.44	88.2338	1,148.44	91.6406	1,148.44	90.155	1,148.44	91.0814	1,148.44	88.7629	1,148.44	88.7959	1,148.44	84.7268	1,148.44	86.2123	1,148.44	90.0932	1,148.44	88.7751	1,148.44	89.5741	1,148.44	87.478
1,189.45	98.3114	1,189.45	99.1361	1,189.45	97.1179	1,189.45	98.2736	1,189.45	98.5632	1,189.45	94.7269	1,189.45	100.919	1,189.45	90.4037	1,189.45	100.46	1,189.45	94.9222	1,189.45	95.5689	1,189.45	98.757	1,189.45	79.8838	1,189.45	100.018	1,189.45	92.6281	1,189.45	99.938	1,189.45	97.8359	1,189.45	98.8801	1,189.45	99.0912	1,189.45	97.7544	1,189.45	97.6744	1,189.45	96.9604	1,189.45	94.0402	1,189.45	93.2369	1,189.45	87.7595	1,189.45	86.1207	1,189.45	90.104	1,189.45	86.8343	1,189.45	92.7457	1,189.45	89.8187	1,189.45	89.8057	1,189.45	85.1848	1,189.45	87.5939	1,189.45	83.9024	1,189.45	89.7883	1,189.45	89.7222
1,230.47	97.5488	1,230.47	98.6721	1,230.47	98.2893	1,230.47	99.5623	1,230.47	99.4974	1,230.47	98.2315	1,230.47	99.4216	1,230.47	93.9703	1,230.47	96.5739	1,230.47	88.3006	1,230.47	91.3053	1,230.47	94.8786	1,230.47	96.2511	1,230.47	98.485	1,230.47	99.9482	1,230.47	100.336	1,230.47	101.026	1,230.47	99.9065	1,230.47	100.71	1,230.47	97.3968	1,230.47	99.7831	1,230.47	96.7196	1,230.47	97.6134	1,230.47	94.4681	1,230.47	93.3397	1,230.47	89.712	1,230.47	82.3382	1,230.47	87.5203	1,230.47	89.627	1,230.47	85.5873	1,230.47	90.2783	1,230.47	78.5143	1,230.47	75.9242	1,230.47	77.9228	1,230.47	89.6396	1,230.47	87.632
1,274.41	98.4564	1,274.41	98.2002	1,274.41	99.3019	1,274.41	98.5672	1,274.41	99.544	1,274.41	98.2456	1,274.41	97.7626	1,274.41	96.2822	1,274.41	93.5971	1,274.41	89.3952	1,274.41	96.816	1,274.41	88.8923	1,274.41	100.135	1,274.41	96.1699	1,274.41	101.209	1,274.41	98.8001	1,274.41	100.98	1,274.41	99.266	1,274.41	99.5459	1,274.41	96.9273	1,274.41	98.6254	1,274.41	92.4695	1,274.41	97.9099	1,274.41	86.9514	1,274.41	94.8436	1,274.41	80.7967	1,274.41	84.6013	1,274.41	88.4439	1,274.41	89.4389	1,274.41	90.4927	1,274.41	90.4602	1,274.41	85.7236	1,274.41	87.0767	1,274.41	68.2532	1,274.41	90.6919	1,274.41	85.7996
1,319.82	97.7768	1,319.82	97.98	1,319.82	99.2627	1,319.82	99.0217	1,319.82	99.7986	1,319.82	99.2214	1,319.82	96.8879	1,319.82	97.6176	1,319.82	94.5117	1,319.82	91.8131	1,319.82	97.9119	1,319.82	89.6777	1,319.82	98.7142	1,319.82	94.5712	1,319.82	98.4403	1,319.82	96.8431	1,319.82	98.4542	1,319.82	96.3162	1,319.82	97.8496	1,319.82	95.3024	1,319.82	96.4458	1,319.82	95.4927	1,319.82	93.6447	1,319.82	94.8803	1,319.82	83.134	1,319.82	92.8996	1,319.82	89.2527	1,319.82	90.1799	1,319.82	93.506	1,319.82	86.8345	1,319.82	90.4717	1,319.82	79.1486	1,319.82	80.8105	1,319.82	80.1267	1,319.82	91.5372	1,319.82	88.1458
1,366.7	98.7795	1,366.7	98.0413	1,366.7	98.8214	1,366.7	98.0112	1,366.7	97.6775	1,366.7	98.8282	1,366.7	96.7889	1,366.7	98.1723	1,366.7	97.8304	1,366.7	92.7789	1,366.7	98.7836	1,366.7	83.8346	1,366.7	98.1245	1,366.7	90.5524	1,366.7	95.0227	1,366.7	95.1052	1,366.7	93.0778	1,366.7	95.8601	1,366.7	93.8272	1,366.7	94.3372	1,366.7	93.4888	1,366.7	92.1483	1,366.7	93.4209	1,366.7	90.2258	1,366.7	92.5252	1,366.7	86.337	1,366.7	84.7409	1,366.7	84.5366	1,366.7	88.1014	1,366.7	83.4319	1,366.7	93.2105	1,366.7	86.376	1,366.7	84.6313	1,366.7	84.2895	1,366.7	88.5172	1,366.7	87.5158
1,413.57	99.5856	1,413.57	98.0115	1,413.57	99.6679	1,413.57	97.138	1,413.57	97.9048	1,413.57	98.6111	1,413.57	97.0937	1,413.57	97.7547	1,413.57	99.5311	1,413.57	89.9087	1,413.57	99.7413	1,413.57	85.2913	1,413.57	97.9473	1,413.57	95.8866	1,413.57	95.9658	1,413.57	99.8421	1,413.57	95.7996	1,413.57	100.376	1,413.57	97.3396	1,413.57	100.223	1,413.57	98.0223	1,413.57	99.1303	1,413.57	97.7418	1,413.57	96.9029	1,413.57	95.4247	1,413.57	91.4006	1,413.57	88.1984	1,413.57	87.4108	1,413.57	91.1511	1,413.57	81.8832	1,413.57	92.3656	1,413.57	84.6918	1,413.57	75.4091	1,413.57	87.53	1,413.57	89.0957	1,413.57	89.5106
1,463.38	97.7977	1,463.38	97.2194	1,463.38	98.0862	1,463.38	97.8434	1,463.38	98.0451	1,463.38	98.4466	1,463.38	98.3253	1,463.38	96.3723	1,463.38	97.5491	1,463.38	93.1469	1,463.38	94.4592	1,463.38	91.3093	1,463.38	89.6222	1,463.38	84.3442	1,463.38	86.5907	1,463.38	87.9743	1,463.38	85.6184	1,463.38	86.4104	1,463.38	81.9384	1,463.38	87.9126	1,463.38	79.4344	1,463.38	87.4015	1,463.38	74.6866	1,463.38	79.8384	1,463.38	87.3967	1,463.38	83.2975	1,463.38	91.0311	1,463.38	85.7059	1,463.38	87.9335	1,463.38	86.0694	1,463.38	82.1116	1,463.38	88.9936	1,463.38	88.4711	1,463.38	76.6104	1,463.38	72.8375	1,463.38	81.8115
1,516.11	97.6617	1,516.11	97.9539	1,516.11	97.4517	1,516.11	97.6275	1,516.11	97.3424	1,516.11	96.6168	1,516.11	97.7228	1,516.11	94.79	1,516.11	97.6651	1,516.11	91.4985	1,516.11	94.0897	1,516.11	77.0974	1,516.11	83.6075	1,516.11	89.745	1,516.11	72.4804	1,516.11	90.627	1,516.11	81.6349	1,516.11	90.2408	1,516.11	77.7866	1,516.11	89.6827	1,516.11	82.7321	1,516.11	89.048	1,516.11	87.5982	1,516.11	91.6667	1,516.11	89.6139	1,516.11	92.3259	1,516.11	86.1408	1,516.11	86.7861	1,516.11	86.1076	1,516.11	81.1649	1,516.11	89.4851	1,516.11	78.134	1,516.11	81.9794	1,516.11	77.3688	1,516.11	83.7442	1,516.11	81.9461
1,568.85	98.8721	1,568.85	97.7654	1,568.85	98.6914	1,568.85	96.6571	1,568.85	97.3063	1,568.85	95.4231	1,568.85	95.7725	1,568.85	92.1859	1,568.85	95.0893	1,568.85	85.8576	1,568.85	92.836	1,568.85	84.7191	1,568.85	85.6267	1,568.85	87.4454	1,568.85	76.4681	1,568.85	87.0505	1,568.85	68.4626	1,568.85	88.4094	1,568.85	75.4374	1,568.85	90.8435	1,568.85	86.2744	1,568.85	89.8834	1,568.85	90.3073	1,568.85	87.103	1,568.85	90.3081	1,568.85	86.9154	1,568.85	84.3138	1,568.85	84.4022	1,568.85	83.212	1,568.85	81.5696	1,568.85	85.0674	1,568.85	83.4032	1,568.85	78.3296	1,568.85	83.8936	1,568.85	72.6997	1,568.85	77.1376
1,624.51	100.001	1,624.51	98.9574	1,624.51	99.5891	1,624.51	96.0366	1,624.51	98.0677	1,624.51	92.7333	1,624.51	94.7506	1,624.51	90.2126	1,624.51	89.3729	1,624.51	87.6624	1,624.51	85.2514	1,624.51	85.014	1,624.51	84.0966	1,624.51	82.188	1,624.51	80.6963	1,624.51	77.1389	1,624.51	68.9857	1,624.51	80.6367	1,624.51	77.0901	1,624.51	85.2651	1,624.51	80.2148	1,624.51	84.3932	1,624.51	83.9964	1,624.51	81.8681	1,624.51	82.904	1,624.51	77.2194	1,624.51	82.3058	1,624.51	80.9644	1,624.51	80.0452	1,624.51	78.6508	1,624.51	70.1756	1,624.51	79.7298	1,624.51	82.766	1,624.51	74.696	1,624.51	83.7446	1,624.51	78.926
1,681.64	101.341	1,681.64	98.6813	1,681.64	101.083	1,681.64	94.7842	1,681.64	98.4463	1,681.64	92.7771	1,681.64	96.2221	1,681.64	91.13	1,681.64	91.8692	1,681.64	82.9743	1,681.64	76.6656	1,681.64	78.7169	1,681.64	84.7376	1,681.64	85.8287	1,681.64	84.869	1,681.64	84.7893	1,681.64	84.6064	1,681.64	73.5508	1,681.64	82.1462	1,681.64	74.4603	1,681.64	78.3101	1,681.64	74.8994	1,681.64	72.4723	1,681.64	76.9461	1,681.64	79.8166	1,681.64	82.1136	1,681.64	83.6919	1,681.64	79.7075	1,681.64	80.0398	1,681.64	80.4972	1,681.64	75.7683	1,681.64	80.9761	1,681.64	81.0906	1,681.64	77.4217	1,681.64	83.5366	1,681.64	79.0964
1,741.7	100.618	1,741.7	100.223	1,741.7	100.789	1,741.7	97.8455	1,741.7	99.9494	1,741.7	92.1543	1,741.7	95.0374	1,741.7	91.5727	1,741.7	85.2258	1,741.7	92.3996	1,741.7	88.6967	1,741.7	86.5657	1,741.7	88.665	1,741.7	43.2131	1,741.7	83.921	1,741.7	83.5207	1,741.7	88.1943	1,741.7	89.8767	1,741.7	90.1695	1,741.7	90.8259	1,741.7	91.0121	1,741.7	90.8208	1,741.7	93.1717	1,741.7	88.8048	1,741.7	86.9	1,741.7	88.6381	1,741.7	86.9865	1,741.7	85.6902	1,741.7	85.3125	1,741.7	79.5333	1,741.7	74.912	1,741.7	85.5164	1,741.7	80.5661	1,741.7	84.3106	1,741.7	80.9151	1,741.7	80.8483
1,803.22	100.646	1,803.22	99.7933	1,803.22	100.411	1,803.22	97.7002	1,803.22	98.898	1,803.22	94.7806	1,803.22	94.7156	1,803.22	89.6991	1,803.22	86.0144	1,803.22	84.9862	1,803.22	86.524	1,803.22	83.061	1,803.22	89.2685	1,803.22	78.8103	1,803.22	87.95	1,803.22	65.3281	1,803.22	85.2796	1,803.22	80.2778	1,803.22	87.1519	1,803.22	74.7034	1,803.22	85.1656	1,803.22	76.9014	1,803.22	84.9443	1,803.22	81.4301	1,803.22	81.9442	1,803.22	79.1129	1,803.22	83.8327	1,803.22	80.9814	1,803.22	79.8122	1,803.22	81.6456	1,803.22	74.3399	1,803.22	82.2533	1,803.22	82.768	1,803.22	77.8462	1,803.22	83.3932	1,803.22	78.0672
1,866.21	99.8154	1,866.21	98.8848	1,866.21	99.6669	1,866.21	97.8518	1,866.21	98.1867	1,866.21	95.3217	1,866.21	93.3251	1,866.21	88.099	1,866.21	84.5446	1,866.21	82.8599	1,866.21	89.2504	1,866.21	83.6244	1,866.21	92.3295	1,866.21	78.7239	1,866.21	91.3662	1,866.21	73.1225	1,866.21	86.8643	1,866.21	79.0994	1,866.21	85.9265	1,866.21	83.2111	1,866.21	84.3817	1,866.21	75.0079	1,866.21	85.423	1,866.21	82.08	1,866.21	81.8459	1,866.21	82.1027	1,866.21	83.5886	1,866.21	82.5865	1,866.21	84.4361	1,866.21	82.4619	1,866.21	70.4519	1,866.21	80.8215	1,866.21	81.8781	1,866.21	79.195	1,866.21	84.996	1,866.21	81.9804
1,932.13	99.1319	1,932.13	98.8158	1,932.13	99.351	1,932.13	98.7938	1,932.13	97.0391	1,932.13	95.0662	1,932.13	92.0217	1,932.13	87.5617	1,932.13	83.6549	1,932.13	83.614	1,932.13	91.186	1,932.13	84.8304	1,932.13	94.1439	1,932.13	79.2796	1,932.13	93.9958	1,932.13	81.7352	1,932.13	90.1043	1,932.13	79.8114	1,932.13	86.7922	1,932.13	78.4493	1,932.13	86.5618	1,932.13	81.7795	1,932.13	82.3225	1,932.13	82.1705	1,932.13	82.7503	1,932.13	84.4476	1,932.13	80.0108	1,932.13	82.5839	1,932.13	82.4732	1,932.13	84.5772	1,932.13	75.7974	1,932.13	82.8825	1,932.13	83.3065	1,932.13	79.1051	1,932.13	83.7529	1,932.13	80.8328
1,999.51	99.4232	1,999.51	99.5491	1,999.51	99.1626	1,999.51	97.3476	1,999.51	97.1092	1,999.51	92.0605	1,999.51	90.6089	1,999.51	86.5965	1,999.51	78.4184	1,999.51	81.2675	1,999.51	91.3761	1,999.51	82.6293	1,999.51	94.9302	1,999.51	86.6619	1,999.51	94.4366	1,999.51	87.038	1,999.51	92.5648	1,999.51	85.6282	1,999.51	88.5124	1,999.51	85.9169	1,999.51	85.8064	1,999.51	82.7885	1,999.51	85.0873	1,999.51	80.0474	1,999.51	81.8824	1,999.51	86.7149	1,999.51	73.6937	1,999.51	84.485	1,999.51	82.3571	1,999.51	85.3789	1,999.51	70.8667	1,999.51	84.216	1,999.51	85.4109	1,999.51	70.8471	1,999.51	85.6485	1,999.51	76.4828
2,069.82	101.237	2,069.82	100.207	2,069.82	99.6676	2,069.82	94.6611	2,069.82	96.2612	2,069.82	88.5299	2,069.82	85.5805	2,069.82	82.4894	2,069.82	86.9151	2,069.82	80.3565	2,069.82	93.9677	2,069.82	85.4488	2,069.82	94.6895	2,069.82	85.9254	2,069.82	94.2263	2,069.82	76.0109	2,069.82	92.5401	2,069.82	74.6028	2,069.82	89.972	2,069.82	71.814	2,069.82	87.6085	2,069.82	82.948	2,069.82	85.0203	2,069.82	80.0002	2,069.82	84.03	2,069.82	83.9506	2,069.82	79.7442	2,069.82	85.8374	2,069.82	82.8465	2,069.82	83.0327	2,069.82	73.6551	2,069.82	85.9112	2,069.82	84.7545	2,069.82	78.8275	2,069.82	83.6778	2,069.82	71.8726
2,143.07	101.916	2,143.07	100.012	2,143.07	100.796	2,143.07	94.0136	2,143.07	97.5233	2,143.07	83.2192	2,143.07	86.5717	2,143.07	74.0915	2,143.07	90.3155	2,143.07	75.2338	2,143.07	95.2381	2,143.07	72.8337	2,143.07	94.7907	2,143.07	83.0405	2,143.07	94.1627	2,143.07	87.0682	2,143.07	92.9566	2,143.07	84.7682	2,143.07	90.9049	2,143.07	84.4043	2,143.07	89.4156	2,143.07	81.4558	2,143.07	81.754	2,143.07	83.7102	2,143.07	84.8147	2,143.07	81.8602	2,143.07	82.9702	2,143.07	86.6728	2,143.07	81.5046	2,143.07	85.4149	2,143.07	74.3783	2,143.07	85.3154	2,143.07	84.7039	2,143.07	80.3763	2,143.07	82.2887	2,143.07	76.6373
2,219.24	100.516	2,219.24	97.9695	2,219.24	100.552	2,219.24	93.3694	2,219.24	98.5204	2,219.24	84.0701	2,219.24	89.1728	2,219.24	76.4174	2,219.24	91.9986	2,219.24	81.3345	2,219.24	96.2723	2,219.24	86.7897	2,219.24	96.8678	2,219.24	87.5998	2,219.24	93.8475	2,219.24	88.8498	2,219.24	88.0922	2,219.24	89.0035	2,219.24	90.0744	2,219.24	87.8559	2,219.24	90.1987	2,219.24	85.8153	2,219.24	86.6143	2,219.24	84.5706	2,219.24	84.3302	2,219.24	85.1142	2,219.24	83.5061	2,219.24	88.4757	2,219.24	82.6646	2,219.24	86.8588	2,219.24	81.7643	2,219.24	87.3075	2,219.24	83.6603	2,219.24	79.1944	2,219.24	79.9939	2,219.24	66.9707
2,296.88	99.2009	2,296.88	97.4372	2,296.88	99.2732	2,296.88	93.7351	2,296.88	97.465	2,296.88	87.1357	2,296.88	89.6093	2,296.88	81.8302	2,296.88	92.3103	2,296.88	89.908	2,296.88	97.9071	2,296.88	91.3129	2,296.88	97.683	2,296.88	91.9572	2,296.88	94.9049	2,296.88	92.2272	2,296.88	89.5908	2,296.88	88.6999	2,296.88	87.2126	2,296.88	88.2007	2,296.88	87.5046	2,296.88	87.1445	2,296.88	87.5354	2,296.88	86.4663	2,296.88	86.8451	2,296.88	87.352	2,296.88	86.0609	2,296.88	89.281	2,296.88	83.7412	2,296.88	88.8591	2,296.88	85.473	2,296.88	87.2085	2,296.88	82.5133	2,296.88	82.6863	2,296.88	80.8658	2,296.88	75.5958
2,378.91	100.06	2,378.91	98.0986	2,378.91	98.586	2,378.91	92.1216	2,378.91	95.1675	2,378.91	86.3484	2,378.91	88.5861	2,378.91	85.466	2,378.91	93.697	2,378.91	91.8793	2,378.91	98.4972	2,378.91	93.0784	2,378.91	98.7963	2,378.91	92.3173	2,378.91	96.5737	2,378.91	89.4902	2,378.91	92.5361	2,378.91	88.7707	2,378.91	90.0836	2,378.91	87.1043	2,378.91	88.5147	2,378.91	88.3813	2,378.91	84.4686	2,378.91	84.9219	2,378.91	86.5296	2,378.91	86.851	2,378.91	85.9462	2,378.91	89.4329	2,378.91	86.4075	2,378.91	88.6855	2,378.91	87.5426	2,378.91	87.9506	2,378.91	81.7626	2,378.91	84.0842	2,378.91	79.0171	2,378.91	77.4298
2,462.4	102.182	2,462.4	99.2831	2,462.4	100.404	2,462.4	93.9328	2,462.4	95.0698	2,462.4	86.6072	2,462.4	89.2763	2,462.4	91.124	2,462.4	94.4209	2,462.4	93.358	2,462.4	98.5705	2,462.4	94.1637	2,462.4	99.1649	2,462.4	92.9904	2,462.4	97.4151	2,462.4	93.2337	2,462.4	91.7232	2,462.4	91.0709	2,462.4	88.4196	2,462.4	87.8012	2,462.4	88.1184	2,462.4	88.4093	2,462.4	87.7571	2,462.4	87.2892	2,462.4	82.8269	2,462.4	86.581	2,462.4	87.8142	2,462.4	90.2269	2,462.4	85.2812	2,462.4	89.7629	2,462.4	87.825	2,462.4	87.1375	2,462.4	80.406	2,462.4	82.1316	2,462.4	80.3033	2,462.4	76.9973
2,548.83	101.85	2,548.83	99.2889	2,548.83	101.165	2,548.83	95.9228	2,548.83	97.4034	2,548.83	90.9502	2,548.83	87.7498	2,548.83	91.6113	2,548.83	95.3853	2,548.83	93.9468	2,548.83	97.6543	2,548.83	95.2831	2,548.83	98.5587	2,548.83	93.7471	2,548.83	95.5815	2,548.83	92.6858	2,548.83	93.4696	2,548.83	92.1704	2,548.83	93.1385	2,548.83	90.4051	2,548.83	89.6103	2,548.83	89.6256	2,548.83	86.2034	2,548.83	88.7332	2,548.83	83.8125	2,548.83	87.6909	2,548.83	88.8871	2,548.83	89.1712	2,548.83	85.1925	2,548.83	89.2419	2,548.83	86.9156	2,548.83	88.7552	2,548.83	80.7284	2,548.83	85.3962	2,548.83	78.7266	2,548.83	71.0492
2,639.65	99.6529	2,639.65	98.1302	2,639.65	100.156	2,639.65	96.4185	2,639.65	96.4299	2,639.65	93.1516	2,639.65	89.5683	2,639.65	93.9202	2,639.65	95.7527	2,639.65	96.9701	2,639.65	99.0772	2,639.65	96.0292	2,639.65	99.0743	2,639.65	95.6563	2,639.65	96.1932	2,639.65	91.3194	2,639.65	91.3853	2,639.65	89.4395	2,639.65	90.3669	2,639.65	86.9777	2,639.65	89.8353	2,639.65	88.0837	2,639.65	78.3757	2,639.65	87.9984	2,639.65	84.7299	2,639.65	87.2925	2,639.65	85.1493	2,639.65	88.814	2,639.65	86.5612	2,639.65	90.7155	2,639.65	85.8248	2,639.65	87.9855	2,639.65	85.5571	2,639.65	84.4021	2,639.65	78.0098	2,639.65	73.6674
2,731.93	99.3209	2,731.93	98.327	2,731.93	98.6658	2,731.93	96.2718	2,731.93	96.0914	2,731.93	92.8792	2,731.93	92.203	2,731.93	96.8325	2,731.93	94.7896	2,731.93	96.2067	2,731.93	99.5488	2,731.93	94.5263	2,731.93	98.2297	2,731.93	92.1437	2,731.93	96.6121	2,731.93	89.2185	2,731.93	93.3108	2,731.93	87.2795	2,731.93	86.845	2,731.93	85.9342	2,731.93	85.0821	2,731.93	86.3623	2,731.93	82.8916	2,731.93	86.2053	2,731.93	85.8413	2,731.93	85.9087	2,731.93	86.501	2,731.93	89.2558	2,731.93	83.6916	2,731.93	90.0397	2,731.93	85.7361	2,731.93	85.2799	2,731.93	84.6811	2,731.93	84.7074	2,731.93	77.7061	2,731.93	77.5501
2,828.61	100.592	2,828.61	100.167	2,828.61	99.8485	2,828.61	96.0964	2,828.61	97.0439	2,828.61	94.0212	2,828.61	94.2364	2,828.61	96.9092	2,828.61	95.0526	2,828.61	95.8507	2,828.61	99.1381	2,828.61	93.5849	2,828.61	98.1629	2,828.61	91.2469	2,828.61	96.4203	2,828.61	91.3396	2,828.61	94.9928	2,828.61	90.0593	2,828.61	79.5973	2,828.61	88.8541	2,828.61	79.3884	2,828.61	86.1182	2,828.61	78.2955	2,828.61	86.3692	2,828.61	88.5937	2,828.61	86.2932	2,828.61	84.1444	2,828.61	87.8895	2,828.61	85.0237	2,828.61	89.9708	2,828.61	87.2257	2,828.61	86.9161	2,828.61	84.0042	2,828.61	85.4031	2,828.61	73.3379	2,828.61	78.9552
2,928.22	101.437	2,928.22	101.166	2,928.22	100.388	2,928.22	97.0915	2,928.22	97.6311	2,928.22	96.2114	2,928.22	95.6007	2,928.22	96.5666	2,928.22	95.3071	2,928.22	95.6501	2,928.22	98.4233	2,928.22	93.0746	2,928.22	98.7197	2,928.22	93.9373	2,928.22	96.669	2,928.22	92.7819	2,928.22	93.224	2,928.22	89.4837	2,928.22	81.8766	2,928.22	87.9725	2,928.22	86.9817	2,928.22	85.7284	2,928.22	83.3419	2,928.22	87.2487	2,928.22	84.3804	2,928.22	85.8331	2,928.22	87.431	2,928.22	89.3157	2,928.22	79.9516	2,928.22	90.9046	2,928.22	85.0318	2,928.22	89.1371	2,928.22	84.7504	2,928.22	87.2315	2,928.22	72.3917	2,928.22	80.3435
3,030.76	101.182	3,030.76	101.025	3,030.76	100.551	3,030.76	97.6314	3,030.76	97.7299	3,030.76	97.1065	3,030.76	95.3273	3,030.76	96.1327	3,030.76	95.0313	3,030.76	95.0586	3,030.76	97.8416	3,030.76	95.2525	3,030.76	98.0981	3,030.76	94.3498	3,030.76	97.8027	3,030.76	92.1139	3,030.76	91.9801	3,030.76	92.172	3,030.76	91.5778	3,030.76	90.9808	3,030.76	90.2649	3,030.76	88.0429	3,030.76	73.2583	3,030.76	88.8458	3,030.76	82.3175	3,030.76	86.3345	3,030.76	89.1279	3,030.76	89.4356	3,030.76	76.5958	3,030.76	90.7763	3,030.76	84.0416	3,030.76	89.9526	3,030.76	85.0034	3,030.76	87.3239	3,030.76	67.0946	3,030.76	80.1673
3,137.7	100.784	3,137.7	100.833	3,137.7	99.5052	3,137.7	98.0526	3,137.7	98.1179	3,137.7	97.7844	3,137.7	96.0049	3,137.7	96.5458	3,137.7	94.7833	3,137.7	96.5228	3,137.7	96.2045	3,137.7	96.0458	3,137.7	96.9827	3,137.7	94.5566	3,137.7	97.4733	3,137.7	94.6243	3,137.7	93.3937	3,137.7	91.9452	3,137.7	91.6562	3,137.7	89.1034	3,137.7	89.7377	3,137.7	86.6458	3,137.7	82.6973	3,137.7	88.4928	3,137.7	78.6583	3,137.7	85.6454	3,137.7	86.7689	3,137.7	90.0453	3,137.7	72.8323	3,137.7	90.281	3,137.7	83.3545	3,137.7	90.1576	3,137.7	86.2277	3,137.7	86.3005	3,137.7	66.8035	3,137.7	79.159
3,249.02	100.549	3,249.02	99.6841	3,249.02	98.6332	3,249.02	97.5	3,249.02	97.9291	3,249.02	97.2718	3,249.02	98.1695	3,249.02	96.6631	3,249.02	94.389	3,249.02	97.1599	3,249.02	94.2054	3,249.02	97.2169	3,249.02	96.9602	3,249.02	95.4972	3,249.02	98.3679	3,249.02	92.5804	3,249.02	96.4008	3,249.02	87.9159	3,249.02	93.45	3,249.02	87.547	3,249.02	84.6372	3,249.02	86.5088	3,249.02	77.7711	3,249.02	86.5649	3,249.02	82.0683	3,249.02	85.0402	3,249.02	86.8475	3,249.02	89.2264	3,249.02	63.0178	3,249.02	89.4365	3,249.02	81.5548	3,249.02	88.3862	3,249.02	87.2778	3,249.02	86.7533	3,249.02	75.2319	3,249.02	78.7755
3,363.28	101.032	3,363.28	99.9285	3,363.28	98.3529	3,363.28	97.3284	3,363.28	97.6077	3,363.28	95.2184	3,363.28	97.5153	3,363.28	97.4784	3,363.28	95.1351	3,363.28	97.8321	3,363.28	91.271	3,363.28	96.2346	3,363.28	97.6886	3,363.28	92.2739	3,363.28	98.1056	3,363.28	90.4671	3,363.28	96.1819	3,363.28	91.1299	3,363.28	93.5682	3,363.28	87.169	3,363.28	83.8286	3,363.28	83.5304	3,363.28	78.4323	3,363.28	85.2811	3,363.28	81.2012	3,363.28	83.56	3,363.28	84.5894	3,363.28	87.3292	3,363.28	75.357	3,363.28	88.3464	3,363.28	82.2424	3,363.28	86.6828	3,363.28	86.6124	3,363.28	85.8264	3,363.28	76.0552	3,363.28	82.2744
3,481.93	101.197	3,481.93	98.9212	3,481.93	98.2101	3,481.93	98.5808	3,481.93	97.534	3,481.93	95.2426	3,481.93	97.6146	3,481.93	97.9936	3,481.93	94.416	3,481.93	97.5129	3,481.93	90.0585	3,481.93	94.2393	3,481.93	98.1559	3,481.93	92.1342	3,481.93	96.2157	3,481.93	90.9048	3,481.93	96.5139	3,481.93	86.3489	3,481.93	88.7148	3,481.93	84.0843	3,481.93	75.9398	3,481.93	84.3619	3,481.93	83.5119	3,481.93	83.5925	3,481.93	79.6791	3,481.93	84.5462	3,481.93	82.1022	3,481.93	85.2075	3,481.93	76.3692	3,481.93	87.191	3,481.93	83.8108	3,481.93	87.706	3,481.93	85.7918	3,481.93	85.2056	3,481.93	76.0972	3,481.93	81.5581
3,604.98	100.86	3,604.98	98.9354	3,604.98	98.9465	3,604.98	97.5388	3,604.98	96.6208	3,604.98	97.4797	3,604.98	98.8357	3,604.98	98.4761	3,604.98	95.8079	3,604.98	95.9384	3,604.98	92.1255	3,604.98	92.2201	3,604.98	98.2559	3,604.98	91.6117	3,604.98	96.7075	3,604.98	89.2643	3,604.98	94.5151	3,604.98	91.3253	3,604.98	75.8323	3,604.98	86.0645	3,604.98	74.9566	3,604.98	84.9481	3,604.98	87.8024	3,604.98	83.1319	3,604.98	71.6011	3,604.98	85.9169	3,604.98	80.8639	3,604.98	84.1188	3,604.98	76.7323	3,604.98	87.3053	3,604.98	84.1502	3,604.98	87.5208	3,604.98	84.8153	3,604.98	84.755	3,604.98	76.1699	3,604.98	83.4816
3,732.42	101.271	3,732.42	100.64	3,732.42	100.407	3,732.42	97.3924	3,732.42	96.9842	3,732.42	98.7738	3,732.42	98.7651	3,732.42	98.087	3,732.42	97.5843	3,732.42	95.1448	3,732.42	91.5434	3,732.42	93.3585	3,732.42	97.226	3,732.42	93.4764	3,732.42	96.0948	3,732.42	93.3807	3,732.42	93.8512	3,732.42	90.8858	3,732.42	87.7961	3,732.42	86.8762	3,732.42	79.8034	3,732.42	85.2051	3,732.42	88.3626	3,732.42	83.4003	3,732.42	76.5898	3,732.42	85.7485	3,732.42	76.8533	3,732.42	82.1426	3,732.42	72.3324	3,732.42	88.3105	3,732.42	84.3878	3,732.42	87.7838	3,732.42	84.578	3,732.42	85.7827	3,732.42	78.974	3,732.42	84.0984
3,864.26	101.142	3,864.26	100.57	3,864.26	100.577	3,864.26	97.9769	3,864.26	98.8475	3,864.26	99.852	3,864.26	100.406	3,864.26	97.9688	3,864.26	100.352	3,864.26	96.7997	3,864.26	94.4518	3,864.26	94.9153	3,864.26	96.1858	3,864.26	95.1351	3,864.26	97.0222	3,864.26	91.033	3,864.26	92.6361	3,864.26	89.789	3,864.26	91.5138	3,864.26	86.4017	3,864.26	84.6534	3,864.26	85.0433	3,864.26	84.7688	3,864.26	84.0868	3,864.26	75.8105	3,864.26	87.4274	3,864.26	77.1343	3,864.26	83.1693	3,864.26	75.8747	3,864.26	88.2877	3,864.26	84.1967	3,864.26	87.6786	3,864.26	84.4062	3,864.26	84.651	3,864.26	79.3129	3,864.26	84.1273
4,000.49	101.747	4,000.49	100.226	4,000.49	100.672	4,000.49	99.0726	4,000.49	98.1199	4,000.49	101.756	4,000.49	101.309	4,000.49	97.7915	4,000.49	99.5263	4,000.49	97.3138	4,000.49	96.1264	4,000.49	97.7226	4,000.49	97.091	4,000.49	94.0018	4,000.49	95.4402	4,000.49	94.0369	4,000.49	92.3908	4,000.49	90.5818	4,000.49	93.3564	4,000.49	87.3303	4,000.49	88.1071	4,000.49	85.6509	4,000.49	73.9104	4,000.49	83.1613	4,000.49	74.7143	4,000.49	86.8196	4,000.49	74.8591	4,000.49	81.9537	4,000.49	71.9516	4,000.49	89.0447	4,000.49	80.8893	4,000.49	88.0189	4,000.49	83.0436	4,000.49	84.8203	4,000.49	79.5054	4,000.49	85.6883
4,141.11	102.847	4,141.11	101.009	4,141.11	101.875	4,141.11	101.65	4,141.11	97.375	4,141.11	100.236	4,141.11	102.277	4,141.11	98.3812	4,141.11	100.718	4,141.11	99.0428	4,141.11	94.9084	4,141.11	96.2766	4,141.11	96.3647	4,141.11	95.4447	4,141.11	92.5305	4,141.11	91.2848	4,141.11	92.5596	4,141.11	88.7768	4,141.11	95.8246	4,141.11	86.9615	4,141.11	85.8071	4,141.11	84.6918	4,141.11	82.9634	4,141.11	82.9157	4,141.11	73.4705	4,141.11	86.5567	4,141.11	57.3968	4,141.11	82.1829	4,141.11	72.8666	4,141.11	86.9079	4,141.11	81.9671	4,141.11	88.8166	4,141.11	85.1329	4,141.11	84.3219	4,141.11	80.7994	4,141.11	84.6917
4,287.6	102.195	4,287.6	100.626	4,287.6	102.418	4,287.6	102.39	4,287.6	98.7046	4,287.6	100.399	4,287.6	100.891	4,287.6	100.717	4,287.6	101.853	4,287.6	98.1998	4,287.6	93.1318	4,287.6	97.5212	4,287.6	91.8211	4,287.6	92.0535	4,287.6	96.4734	4,287.6	94.639	4,287.6	98.3535	4,287.6	90.6096	4,287.6	95.4934	4,287.6	88.4176	4,287.6	82.6032	4,287.6	85.0039	4,287.6	88.1622	4,287.6	85.4173	4,287.6	73.5775	4,287.6	85.8739	4,287.6	78.3664	4,287.6	80.8935	4,287.6	78.6778	4,287.6	86.6879	4,287.6	82.0034	4,287.6	87.2885	4,287.6	83.1419	4,287.6	84.8953	4,287.6	79.7193	4,287.6	84.8552
4,438.48	102.277	4,438.48	100.016	4,438.48	102.977	4,438.48	102.972	4,438.48	100.386	4,438.48	100.293	4,438.48	101.104	4,438.48	100.035	4,438.48	102.22	4,438.48	98.631	4,438.48	94.7337	4,438.48	95.3206	4,438.48	88.8305	4,438.48	95.3159	4,438.48	100.157	4,438.48	90.6035	4,438.48	99.1705	4,438.48	89.952	4,438.48	94.4513	4,438.48	87.2343	4,438.48	89.2223	4,438.48	83.2217	4,438.48	86.7127	4,438.48	85.3064	4,438.48	73.8047	4,438.48	84.0259	4,438.48	86.0785	4,438.48	83.8968	4,438.48	81.9833	4,438.48	87.3612	4,438.48	78.3428	4,438.48	85.5084	4,438.48	83.3756	4,438.48	85.4116	4,438.48	80.6186	4,438.48	86.5355
4,595.21	101.484	4,595.21	102.16	4,595.21	101.739	4,595.21	102.916	4,595.21	100.522	4,595.21	99.4401	4,595.21	99.9923	4,595.21	100.888	4,595.21	102.195	4,595.21	96.9925	4,595.21	94.4477	4,595.21	96.6642	4,595.21	96.0857	4,595.21	92.062	4,595.21	100.864	4,595.21	94.2044	4,595.21	97.8259	4,595.21	88.5299	4,595.21	91.9767	4,595.21	87.2248	4,595.21	89.4176	4,595.21	83.4162	4,595.21	74.3488	4,595.21	83.6388	4,595.21	74.5485	4,595.21	86.2531	4,595.21	86.6449	4,595.21	84.3064	4,595.21	79.6145	4,595.21	85.4044	4,595.21	81.9385	4,595.21	84.1482	4,595.21	82.3764	4,595.21	83.0151	4,595.21	81.0807	4,595.21	83.1575
4,756.35	101.034	4,756.35	102.223	4,756.35	101.995	4,756.35	102.018	4,756.35	99.9189	4,756.35	101.308	4,756.35	99.3329	4,756.35	98.5272	4,756.35	102.281	4,756.35	98.3087	4,756.35	96.5022	4,756.35	94.9399	4,756.35	97.5319	4,756.35	94.1119	4,756.35	100.322	4,756.35	89.6499	4,756.35	96.0375	4,756.35	89.8813	4,756.35	91.0937	4,756.35	87.7909	4,756.35	88.9703	4,756.35	84.4467	4,756.35	80.0136	4,756.35	85.0528	4,756.35	74.8513	4,756.35	83.815	4,756.35	83.3214	4,756.35	83.2587	4,756.35	78.3712	4,756.35	85.5676	4,756.35	78.1534	4,756.35	86.1665	4,756.35	83.5337	4,756.35	83.3398	4,756.35	80.6591	4,756.35	83.3007
4,924.8	101.063	4,924.8	103.274	4,924.8	102.556	4,924.8	101.531	4,924.8	100.384	4,924.8	100.8	4,924.8	98.3527	4,924.8	99.2714	4,924.8	101.154	4,924.8	97.3415	4,924.8	96.9032	4,924.8	95.4085	4,924.8	97.614	4,924.8	92.9394	4,924.8	97.817	4,924.8	93.0015	4,924.8	92.9424	4,924.8	88.1994	4,924.8	91.0985	4,924.8	88.6148	4,924.8	88.7802	4,924.8	83.2382	4,924.8	74.8264	4,924.8	82.5788	4,924.8	71.8065	4,924.8	83.1054	4,924.8	84.3059	4,924.8	84.0819	4,924.8	78.6424	4,924.8	84.3111	4,924.8	74.9857	4,924.8	83.3168	4,924.8	81.6877	4,924.8	83.1253	4,924.8	80.4808	4,924.8	84.5351
5,097.66	100.543	5,097.66	102.097	5,097.66	101.163	5,097.66	100.999	5,097.66	100.721	5,097.66	100.479	5,097.66	99.962	5,097.66	98.3395	5,097.66	99.8235	5,097.66	97.0644	5,097.66	97.1864	5,097.66	94.8727	5,097.66	95.6392	5,097.66	92.7631	5,097.66	93.3298	5,097.66	90.1777	5,097.66	95.2262	5,097.66	89.0033	5,097.66	91.6565	5,097.66	86.5471	5,097.66	86.0711	5,097.66	83.3354	5,097.66	70.8112	5,097.66	83.7683	5,097.66	74.1325	5,097.66	82.4079	5,097.66	81.2212	5,097.66	83.1858	5,097.66	80.6002	5,097.66	82.8391	5,097.66	72.5302	5,097.66	83.6088	5,097.66	76.3656	5,097.66	78.0979	5,097.66	80.8989	5,097.66	81.9426
5,277.83	101.409	5,277.83	101.759	5,277.83	99.4873	5,277.83	102.01	5,277.83	100.482	5,277.83	99.822	5,277.83	100.713	5,277.83	99.3473	5,277.83	99.0456	5,277.83	95.6312	5,277.83	100.182	5,277.83	95.3751	5,277.83	92.0752	5,277.83	92.8778	5,277.83	92.8195	5,277.83	90.3906	5,277.83	93.3433	5,277.83	88.6955	5,277.83	92.5231	5,277.83	85.6476	5,277.83	76.7768	5,277.83	81.6603	5,277.83	79.4719	5,277.83	82.8716	5,277.83	67.1448	5,277.83	82.2726	5,277.83	81.2782	5,277.83	83.5958	5,277.83	79.9292	5,277.83	83.1949	5,277.83	66.6636	5,277.83	82.1516	5,277.83	79.7179	5,277.83	80.9453	5,277.83	79.4441	5,277.83	78.9688
5,463.87	101.592	5,463.87	101.663	5,463.87	100.476	5,463.87	102.263	5,463.87	98.9363	5,463.87	99.4314	5,463.87	99.0432	5,463.87	98.3131	5,463.87	100.597	5,463.87	96.5855	5,463.87	100.917	5,463.87	94.2371	5,463.87	89.5563	5,463.87	92.5182	5,463.87	94.992	5,463.87	90.5402	5,463.87	92.7905	5,463.87	88.5043	5,463.87	91.1436	5,463.87	86.2413	5,463.87	78.0752	5,463.87	82.4069	5,463.87	78.6398	5,463.87	80.6325	5,463.87	75.8029	5,463.87	83.829	5,463.87	79.9245	5,463.87	85.0531	5,463.87	73.3235	5,463.87	82.9202	5,463.87	62.4983	5,463.87	81.7631	5,463.87	78.3792	5,463.87	78.4913	5,463.87	80.2163	5,463.87	78.7273
5,657.23	101.363	5,657.23	101.581	5,657.23	100.731	5,657.23	102.285	5,657.23	100.134	5,657.23	99.4085	5,657.23	98.8946	5,657.23	98.2207	5,657.23	101.583	5,657.23	96.9874	5,657.23	100.274	5,657.23	94.5792	5,657.23	91.31	5,657.23	93.609	5,657.23	95.1746	5,657.23	90.1983	5,657.23	92.1709	5,657.23	89.4885	5,657.23	90.8144	5,657.23	86.5292	5,657.23	80.5315	5,657.23	82.8865	5,657.23	77.1089	5,657.23	81.0789	5,657.23	74.0323	5,657.23	82.9878	5,657.23	72.3036	5,657.23	84.1364	5,657.23	72.8873	5,657.23	81.3901	5,657.23	69.2567	5,657.23	83.2196	5,657.23	76.4863	5,657.23	74.4659	5,657.23	82.9821	5,657.23	71.6643
5,856.45	101.541	5,856.45	102.593	5,856.45	100.927	5,856.45	102.331	5,856.45	102.374	5,856.45	98.4635	5,856.45	99.0442	5,856.45	98.9881	5,856.45	101.809	5,856.45	97.4649	5,856.45	100.129	5,856.45	95.339	5,856.45	91.9361	5,856.45	94.2975	5,856.45	95.6303	5,856.45	90.6652	5,856.45	93.387	5,856.45	87.9916	5,856.45	92.128	5,856.45	84.8869	5,856.45	86.0765	5,856.45	82.5912	5,856.45	79.9131	5,856.45	79.5232	5,856.45	66.1793	5,856.45	83.0092	5,856.45	71.2041	5,856.45	85.2665	5,856.45	77.7264	5,856.45	81.0593	5,856.45	68.9834	5,856.45	80.0152	5,856.45	54.9207	5,856.45	76.515	5,856.45	80.0517	5,856.45	71.4521
6,062.99	101.867	6,062.99	102.296	6,062.99	100.923	6,062.99	101.027	6,062.99	99.3637	6,062.99	99.2398	6,062.99	100.169	6,062.99	98.9411	6,062.99	100	6,062.99	96.8036	6,062.99	98.768	6,062.99	94.7475	6,062.99	91.721	6,062.99	92.3801	6,062.99	95.9141	6,062.99	88.6829	6,062.99	94.3032	6,062.99	87.7473	6,062.99	90.2958	6,062.99	83.9532	6,062.99	85.0618	6,062.99	79.1213	6,062.99	81.7254	6,062.99	77.764	6,062.99	69.4258	6,062.99	79.9952	6,062.99	69.6125	6,062.99	84.4765	6,062.99	79.3878	6,062.99	80.4378	6,062.99	66.0383	6,062.99	82.7313	6,062.99	76.8375	6,062.99	76.6219	6,062.99	77.6645	6,062.99	68.267
6,276.86	101.318	6,276.86	102.01	6,276.86	101.057	6,276.86	100.798	6,276.86	99.4853	6,276.86	99.7086	6,276.86	98.2865	6,276.86	98.54	6,276.86	96.9882	6,276.86	96.023	6,276.86	97.2207	6,276.86	94.0706	6,276.86	90.7959	6,276.86	92.0078	6,276.86	91.7402	6,276.86	88.7621	6,276.86	94.4245	6,276.86	87.4091	6,276.86	90.7447	6,276.86	84.1599	6,276.86	87.8421	6,276.86	79.7936	6,276.86	78.7039	6,276.86	78.4966	6,276.86	71.3734	6,276.86	80.3924	6,276.86	65.6986	6,276.86	85.3965	6,276.86	80.9052	6,276.86	82.1488	6,276.86	72.95	6,276.86	81.2872	6,276.86	77.2781	6,276.86	78.8267	6,276.86	79.2823	6,276.86	64.2134
6,498.05	101.425	6,498.05	102.359	6,498.05	101.766	6,498.05	101.117	6,498.05	100.111	6,498.05	99.5386	6,498.05	99.2209	6,498.05	98.2388	6,498.05	97.2138	6,498.05	96.3432	6,498.05	97.6284	6,498.05	93.6943	6,498.05	91.4951	6,498.05	92.5714	6,498.05	93.0731	6,498.05	87.915	6,498.05	88.5675	6,498.05	86.8065	6,498.05	87.6061	6,498.05	82.6063	6,498.05	85.763	6,498.05	77.8125	6,498.05	78.6321	6,498.05	74.7966	6,498.05	78.7359	6,498.05	79.4109	6,498.05	74.4651	6,498.05	84.4469	6,498.05	79.3149	6,498.05	82.2382	6,498.05	74.1003	6,498.05	81.3728	6,498.05	75.7928	6,498.05	81.3139	6,498.05	77.1384	6,498.05	61.4752
6,726.56	101.401	6,726.56	101.972	6,726.56	102.092	6,726.56	101.334	6,726.56	99.6	6,726.56	98.5754	6,726.56	100.442	6,726.56	98.1293	6,726.56	97.2444	6,726.56	96.3483	6,726.56	97.7371	6,726.56	93.2184	6,726.56	92.1816	6,726.56	91.4016	6,726.56	90.6718	6,726.56	87.3641	6,726.56	83.0643	6,726.56	86.5981	6,726.56	85.9703	6,726.56	81.3351	6,726.56	83.4231	6,726.56	79.0993	6,726.56	78.5694	6,726.56	72.3836	6,726.56	72.7869	6,726.56	79.4734	6,726.56	73.5643	6,726.56	83.9755	6,726.56	79.6746	6,726.56	81.6787	6,726.56	75.7004	6,726.56	81.2477	6,726.56	74.7528	6,726.56	80.5538	6,726.56	75.7786	6,726.56	62.5006
6,963.87	101.521	6,963.87	101.571	6,963.87	101.731	6,963.87	100.801	6,963.87	99.4163	6,963.87	97.7839	6,963.87	100.982	6,963.87	98.5247	6,963.87	96.8808	6,963.87	95.6412	6,963.87	97.4928	6,963.87	90.8915	6,963.87	94.3028	6,963.87	90.77	6,963.87	86.9818	6,963.87	85.4814	6,963.87	90.4575	6,963.87	83.5614	6,963.87	88.1632	6,963.87	80.0595	6,963.87	81.103	6,963.87	77.4041	6,963.87	75.2766	6,963.87	74.6652	6,963.87	71.0924	6,963.87	77.649	6,963.87	69.4286	6,963.87	82.173	6,963.87	72.2489	6,963.87	81.3964	6,963.87	71.9974	6,963.87	81.9205	6,963.87	77.5	6,963.87	80.8463	6,963.87	75.0577	6,963.87	73.3852
7,209.96	100.851	7,209.96	101.198	7,209.96	101.472	7,209.96	100.467	7,209.96	99.9278	7,209.96	98.1017	7,209.96	99.0589	7,209.96	97.6186	7,209.96	94.9547	7,209.96	93.3825	7,209.96	98.0372	7,209.96	91.8979	7,209.96	93.4753	7,209.96	88.2674	7,209.96	89.2759	7,209.96	87.2559	7,209.96	88.7453	7,209.96	84.7416	7,209.96	84.7834	7,209.96	82.2531	7,209.96	82.3566	7,209.96	75.0578	7,209.96	66.6115	7,209.96	72.9637	7,209.96	77.4116	7,209.96	77.3356	7,209.96	65.3194	7,209.96	81.3646	7,209.96	71.9262	7,209.96	81.9093	7,209.96	72.7457	7,209.96	82.0694	7,209.96	72.1015	7,209.96	81.075	7,209.96	76.0456	7,209.96	76.4647
7,464.84	100.031	7,464.84	99.6295	7,464.84	100.076	7,464.84	99.1769	7,464.84	99.5955	7,464.84	98.2668	7,464.84	97.3633	7,464.84	96.0034	7,464.84	94.7479	7,464.84	95.1093	7,464.84	96.2564	7,464.84	90.1982	7,464.84	91.3769	7,464.84	90.5973	7,464.84	87.4516	7,464.84	87.136	7,464.84	89.779	7,464.84	82.829	7,464.84	79.2488	7,464.84	82.2086	7,464.84	81.8013	7,464.84	75.6546	7,464.84	69.7114	7,464.84	75.6874	7,464.84	74.7631	7,464.84	75.1499	7,464.84	71.6273	7,464.84	80.4877	7,464.84	71.2054	7,464.84	81.5001	7,464.84	59.0162	7,464.84	80.8089	7,464.84	71.8098	7,464.84	80.7922	7,464.84	72.6293	7,464.84	76.5739
7,727.05	100.178	7,727.05	100.435	7,727.05	100.965	7,727.05	100.366	7,727.05	99.223	7,727.05	98.0169	7,727.05	99.2181	7,727.05	96.7827	7,727.05	95.7628	7,727.05	94.8344	7,727.05	95.5219	7,727.05	91.8183	7,727.05	89.7324	7,727.05	89.6645	7,727.05	87.5992	7,727.05	87.2845	7,727.05	87.8849	7,727.05	84.5821	7,727.05	82.0388	7,727.05	81.403	7,727.05	81.3614	7,727.05	75.2881	7,727.05	74.6786	7,727.05	73.2428	7,727.05	60.0579	7,727.05	74.5396	7,727.05	71.3127	7,727.05	80.8432	7,727.05	69.7817	7,727.05	80.5378	7,727.05	57.6672	7,727.05	80.5566	7,727.05	69.8533	7,727.05	78.9701	7,727.05	67.6766	7,727.05	76.5861
7,999.51	100.001	7,999.51	100.777	7,999.51	101.094	7,999.51	100.476	7,999.51	100.532	7,999.51	98.04	7,999.51	99.3181	7,999.51	97.8739	7,999.51	96.6515	7,999.51	94.3151	7,999.51	93.2061	7,999.51	92.9598	7,999.51	93.4808	7,999.51	90.4657	7,999.51	82.4581	7,999.51	88.3875	7,999.51	90.0452	7,999.51	84.9101	7,999.51	75.1116	7,999.51	80.7633	7,999.51	80.7033	7,999.51	78.2969	7,999.51	74.1364	7,999.51	73.7478	7,999.51	67.0905	7,999.51	77.0938	7,999.51	70.3019	7,999.51	81.6548	7,999.51	69.9521	7,999.51	81.1328	7,999.51	50.7463	7,999.51	79.9343	7,999.51	67.1602	7,999.51	81.2095	7,999.51	70.4121	7,999.51	76.9026
8,282.23	100.996	8,282.23	101.091	8,282.23	101.878	8,282.23	100.58	8,282.23	100.634	8,282.23	98.9162	8,282.23	98.2078	8,282.23	96.4391	8,282.23	96.5213	8,282.23	95.6699	8,282.23	89.9417	8,282.23	93.1855	8,282.23	95.6603	8,282.23	91.4263	8,282.23	76.216	8,282.23	88.8259	8,282.23	90.9921	8,282.23	86.0293	8,282.23	84.1346	8,282.23	81.4016	8,282.23	84.7216	8,282.23	78.4514	8,282.23	73.1603	8,282.23	73.8506	8,282.23	62.221	8,282.23	76.7015	8,282.23	68.6132	8,282.23	80.6565	8,282.23	64.6666	8,282.23	81.8893	8,282.23	63.3309	8,282.23	80.8612	8,282.23	68.0382	8,282.23	79.4339	8,282.23	67.6027	8,282.23	75.3028
8,573.73	100.937	8,573.73	100.423	8,573.73	101.223	8,573.73	100.48	8,573.73	100.92	8,573.73	98.0008	8,573.73	99.4532	8,573.73	96.8457	8,573.73	96.956	8,573.73	95.5685	8,573.73	94.5398	8,573.73	93.9433	8,573.73	92.6822	8,573.73	90.8527	8,573.73	89.0359	8,573.73	88.5349	8,573.73	90.1383	8,573.73	83.3429	8,573.73	85.1493	8,573.73	81.5451	8,573.73	79.5115	8,573.73	74.4392	8,573.73	72.4334	8,573.73	71.1359	8,573.73	70.5954	8,573.73	77.733	8,573.73	61.7803	8,573.73	80.4179	8,573.73	61.73	8,573.73	80.2281	8,573.73	60.0304	8,573.73	79.3397	8,573.73	67.9956	8,573.73	79.645	8,573.73	68.2145	8,573.73	75.32
8,876.95	100.878	8,876.95	100.765	8,876.95	100.726	8,876.95	100.424	8,876.95	99.8811	8,876.95	97.83	8,876.95	99.9121	8,876.95	96.9597	8,876.95	95.8271	8,876.95	95.3292	8,876.95	94.9883	8,876.95	94.2935	8,876.95	90.3377	8,876.95	90.7869	8,876.95	89.3092	8,876.95	87.154	8,876.95	86.5598	8,876.95	82.9047	8,876.95	81.4311	8,876.95	77.3457	8,876.95	79.2279	8,876.95	76.0253	8,876.95	70.9525	8,876.95	70.8845	8,876.95	59.5561	8,876.95	75.6118	8,876.95	68.0247	8,876.95	79.455	8,876.95	67.6174	8,876.95	78.9164	8,876.95	62.6379	8,876.95	78.2507	8,876.95	66.2214	8,876.95	78.011	8,876.95	67.7201	8,876.95	72.6675
9,188.96	100.154	9,188.96	100.305	9,188.96	100.793	9,188.96	99.3295	9,188.96	99.3995	9,188.96	98.0522	9,188.96	97.6416	9,188.96	96.6889	9,188.96	94.9711	9,188.96	95.9597	9,188.96	94.2602	9,188.96	93.3339	9,188.96	90.0557	9,188.96	89.044	9,188.96	89.7794	9,188.96	86.2602	9,188.96	83.1224	9,188.96	82.0649	9,188.96	81.6847	9,188.96	78.5524	9,188.96	77.55	9,188.96	75.4206	9,188.96	62.8403	9,188.96	70.0774	9,188.96	60.2851	9,188.96	74.0852	9,188.96	63.3358	9,188.96	77.6456	9,188.96	64.9491	9,188.96	77.7365	9,188.96	66.0596	9,188.96	77.7123	9,188.96	66.7363	9,188.96	75.8706	9,188.96	70.1581	9,188.96	72.5105
9,514.16	100.329	9,514.16	100.367	9,514.16	100.583	9,514.16	99.3267	9,514.16	99.4524	9,514.16	97.7517	9,514.16	97.3263	9,514.16	97.5128	9,514.16	95.4664	9,514.16	94.9298	9,514.16	91.1607	9,514.16	92.4921	9,514.16	90.6041	9,514.16	88.7766	9,514.16	84.9226	9,514.16	85.1207	9,514.16	81.8304	9,514.16	81.7481	9,514.16	78.8276	9,514.16	75.2181	9,514.16	76.127	9,514.16	71.0596	9,514.16	68.6968	9,514.16	68.6923	9,514.16	54.0452	9,514.16	74.0088	9,514.16	58.2249	9,514.16	77.414	9,514.16	58.0032	9,514.16	77.0383	9,514.16	67.814	9,514.16	76.9303	9,514.16	61.3338	9,514.16	75.5792	9,514.16	68.3638	9,514.16	71.8068
9,849.61	100.72	9,849.61	100.48	9,849.61	100.836	9,849.61	99.4242	9,849.61	99.4902	9,849.61	98.0588	9,849.61	96.834	9,849.61	97.5923	9,849.61	93.6729	9,849.61	93.9454	9,849.61	90.5354	9,849.61	92.3263	9,849.61	90.2957	9,849.61	87.1549	9,849.61	86.2827	9,849.61	85.665	9,849.61	79.7524	9,849.61	80.1921	9,849.61	75.6553	9,849.61	76.9778	9,849.61	73.0534	9,849.61	75.675	9,849.61	70.6668	9,849.61	67.0752	9,849.61	64.1231	9,849.61	73.2482	9,849.61	47.5061	9,849.61	77.8256	9,849.61	61.1044	9,849.61	77.0181	9,849.61	63.0518	9,849.61	77.174	9,849.61	51.9962	9,849.61	74.7577	9,849.61	63.2626	9,849.61	71.1628
10,196.8	101.014	10,196.8	100.741	10,196.8	100.474	10,196.8	99.5389	10,196.8	99.2267	10,196.8	98.3744	10,196.8	96.7138	10,196.8	96.7115	10,196.8	93.934	10,196.8	93.9493	10,196.8	92.4301	10,196.8	90.5512	10,196.8	88.3483	10,196.8	86.8466	10,196.8	87.0699	10,196.8	83.5007	10,196.8	77.3939	10,196.8	77.5184	10,196.8	79.8007	10,196.8	75.095	10,196.8	65.8787	10,196.8	73.5704	10,196.8	67.4624	10,196.8	65.9494	10,196.8	67.9181	10,196.8	72.685	10,196.8	39.9207	10,196.8	74.9704	10,196.8	54.7029	10,196.8	76.502	10,196.8	64.3295	10,196.8	76.0384	10,196.8	59.5196	10,196.8	74.454	10,196.8	65.0642	10,196.8	66.6372
10,555.7	100.666	10,555.7	100.222	10,555.7	100.118	10,555.7	99.6146	10,555.7	99.0602	10,555.7	97.9739	10,555.7	96.4446	10,555.7	96.3904	10,555.7	94.6275	10,555.7	92.1107	10,555.7	92.5487	10,555.7	90.3	10,555.7	87.107	10,555.7	86.0339	10,555.7	86.1062	10,555.7	84.5294	10,555.7	76.1597	10,555.7	80.4937	10,555.7	76.1112	10,555.7	75.7917	10,555.7	66.2864	10,555.7	72.9663	10,555.7	62.6032	10,555.7	69.846	10,555.7	62.4155	10,555.7	74.2795	10,555.7	54.3966	10,555.7	76.5709	10,555.7	61.0127	10,555.7	75.6827	10,555.7	57.1696	10,555.7	74.6658	10,555.7	64.4588	10,555.7	72.6202	10,555.7	65.7237	10,555.7	66.5108
10,927.7	100.438	10,927.7	100.362	10,927.7	99.9449	10,927.7	99.4016	10,927.7	98.3384	10,927.7	97.8675	10,927.7	97.1479	10,927.7	95.4185	10,927.7	93.9959	10,927.7	91.9626	10,927.7	90.4673	10,927.7	90.5204	10,927.7	88.8359	10,927.7	87.3631	10,927.7	83.3277	10,927.7	84.1432	10,927.7	67.1275	10,927.7	80.1935	10,927.7	66.3503	10,927.7	73.3516	10,927.7	65.9029	10,927.7	73.1249	10,927.7	52.8453	10,927.7	59.1149	10,927.7	68.0335	10,927.7	70.4263	10,927.7	55.5759	10,927.7	74.2197	10,927.7	53.643	10,927.7	74.8947	10,927.7	57.3993	10,927.7	73.12	10,927.7	56.7927	10,927.7	71.6933	10,927.7	64.9508	10,927.7	67.0207
11,313	100.491	11,313	100.434	11,313	99.7437	11,313	99.6616	11,313	98.1545	11,313	97.1104	11,313	96.2921	11,313	95.0402	11,313	94.771	11,313	91.838	11,313	89.3398	11,313	90.6747	11,313	87.2911	11,313	85.5938	11,313	80.7673	11,313	82.8449	11,313	73.221	11,313	77.3682	11,313	72.2439	11,313	71.1812	11,313	66.861	11,313	69.7034	11,313	61.9599	11,313	62.8351	11,313	65.4745	11,313	69.1574	11,313	61.0705	11,313	72.6397	11,313	56.4997	11,313	74.0659	11,313	55.2536	11,313	71.3342	11,313	55.5412	11,313	69.4094	11,313	65.8347	11,313	63.433
11,712.9	100.609	11,712.9	100.957	11,712.9	99.8241	11,712.9	99.4861	11,712.9	97.9257	11,712.9	97.0072	11,712.9	96.2138	11,712.9	94.9426	11,712.9	92.161	11,712.9	91.4194	11,712.9	88.2433	11,712.9	88.7047	11,712.9	85.6282	11,712.9	81.9015	11,712.9	77.6523	11,712.9	78.3391	11,712.9	71.2017	11,712.9	74.01	11,712.9	72.1805	11,712.9	68.3458	11,712.9	69.2969	11,712.9	69.5097	11,712.9	68.8934	11,712.9	59.495	11,712.9	66.235	11,712.9	63.6963	11,712.9	55.7267	11,712.9	69.2378	11,712.9	57.9868	11,712.9	71.0636	11,712.9	53.0994	11,712.9	68.5992	11,712.9	51.1969	11,712.9	68.4586	11,712.9	65.6249	11,712.9	61.6279
12,126	101.76	12,126	101.862	12,126	100.398	12,126	100.478	12,126	97.4377	12,126	98.688	12,126	93.7749	12,126	96.3651	12,126	91.0016	12,126	91.7767	12,126	86.3853	12,126	89.7652	12,126	81.0141	12,126	84.4156	12,126	79.0668	12,126	81.8967	12,126	66.6284	12,126	77.7592	12,126	64.7094	12,126	74.2666	12,126	70.4296	12,126	71.7758	12,126	77.1777	12,126	62.7673	12,126	68.5703	12,126	66.1799	12,126	56.3832	12,126	73.2594	12,126	62.064	12,126	74.3131	12,126	55.4874	12,126	73.7261	12,126	36.2592	12,126	72.9461	12,126	65.3154	12,126	60.9853
12,553.7	102.854	12,553.7	103.433	12,553.7	100.982	12,553.7	102.657	12,553.7	97.4772	12,553.7	101.245	12,553.7	93.5859	12,553.7	98.8288	12,553.7	88.5376	12,553.7	95.7457	12,553.7	84.161	12,553.7	94.6897	12,553.7	78.9884	12,553.7	89.2798	12,553.7	74.378	12,553.7	86.4903	12,553.7	65.7417	12,553.7	82.0574	12,553.7	61.4167	12,553.7	77.8814	12,553.7	74.7207	12,553.7	72.8348	12,553.7	80.9831	12,553.7	66.3548	12,553.7	69.9505	12,553.7	71.3096	12,553.7	59.9957	12,553.7	76.6198	12,553.7	63.7056	12,553.7	78.5793	12,553.7	60.0602	12,553.7	78.278	12,553.7	52.2654	12,553.7	77.6272	12,553.7	64.9497	12,553.7	63.4696
12,996.1	103.156	12,996.1	104.908	12,996.1	100.494	12,996.1	104.705	12,996.1	96.2327	12,996.1	102.603	12,996.1	91.1036	12,996.1	100.327	12,996.1	88.1448	12,996.1	97.6206	12,996.1	86.6859	12,996.1	96.1874	12,996.1	84.6752	12,996.1	90.2555	12,996.1	79.3902	12,996.1	86.2284	12,996.1	73.4925	12,996.1	81.8241	12,996.1	62.0861	12,996.1	76.5128	12,996.1	80.885	12,996.1	74.6431	12,996.1	84.2267	12,996.1	67.9189	12,996.1	73.5631	12,996.1	72.1991	12,996.1	58.4885	12,996.1	76.542	12,996.1	67.3947	12,996.1	78.5287	12,996.1	56.2078	12,996.1	79.108	12,996.1	65.4966	12,996.1	78.7482	12,996.1	67.106	12,996.1	68.5119
13,454.6	102.628	13,454.6	104.814	13,454.6	99.5511	13,454.6	104.11	13,454.6	95.7365	13,454.6	100.691	13,454.6	90.0257	13,454.6	99.0891	13,454.6	90.122	13,454.6	96.2239	13,454.6	89.8305	13,454.6	93.6957	13,454.6	88.4015	13,454.6	86.0834	13,454.6	84.4321	13,454.6	81.6598	13,454.6	77.1758	13,454.6	76.6826	13,454.6	71.1096	13,454.6	69.5499	13,454.6	82.6466	13,454.6	71.0886	13,454.6	84.1236	13,454.6	65.9601	13,454.6	72.0229	13,454.6	67.8602	13,454.6	59.2369	13,454.6	70.2052	13,454.6	70.2309	13,454.6	73.2873	13,454.6	63.4705	13,454.6	74.7361	13,454.6	67.1234	13,454.6	74.1036	13,454.6	63.6217	13,454.6	64.151
13,929.2	104.636	13,929.2	104.827	13,929.2	103.487	13,929.2	102.625	13,929.2	100.849	13,929.2	98.8694	13,929.2	98.7337	13,929.2	96.5042	13,929.2	96.0321	13,929.2	91.2629	13,929.2	92.6666	13,929.2	86.7144	13,929.2	89.3261	13,929.2	79.0865	13,929.2	87.0213	13,929.2	72.4865	13,929.2	76.9045	13,929.2	62.0097	13,929.2	71.0584	13,929.2	56.0932	13,929.2	81.9137	13,929.2	61.505	13,929.2	83.2233	13,929.2	65.3429	13,929.2	72.4827	13,929.2	54.8006	13,929.2	67.3725	13,929.2	48.5373	13,929.2	62.5287	13,929.2	52.6201	13,929.2	62.4501	13,929.2	60.8727	13,929.2	61.5091	13,929.2	55.9524	13,929.2	55.0505	13,929.2	54.6591
14,419.9	106.802	14,419.9	105.907	14,419.9	106.071	14,419.9	102.495	14,419.9	103.553	14,419.9	97.5012	14,419.9	100.927	14,419.9	91.6428	14,419.9	96.3563	14,419.9	61.7872	14,419.9	95.4248	14,419.9	83.3083	14,419.9	92.751	14,419.9	82.8762	14,419.9	85.18	14,419.9	80.1302	14,419.9	82.8582	14,419.9	73.5193	14,419.9	76.0874	14,419.9	72.8471	14,419.9	81.7855	14,419.9	66.7968	14,419.9	81.7998	14,419.9	67.578	14,419.9	71.6003	14,419.9	66.9483	14,419.9	72.3161	14,419.9	68.4072	14,419.9	61.6254	14,419.9	71.4946	14,419.9	65.1882	14,419.9	67.9673	14,419.9	58.525	14,419.9	68.9396	14,419.9	60.8749	14,419.9	63.2975
14,928.2	105.083	14,928.2	104.002	14,928.2	104.428	14,928.2	100.41	14,928.2	101.925	14,928.2	95.8581	14,928.2	99.6089	14,928.2	89.0933	14,928.2	96.6956	14,928.2	87.1478	14,928.2	93.5121	14,928.2	86.8573	14,928.2	92.0078	14,928.2	83.555	14,928.2	87.1444	14,928.2	80.2166	14,928.2	80.3981	14,928.2	75.1816	14,928.2	71.6034	14,928.2	74.27	14,928.2	78.6856	14,928.2	63.992	14,928.2	79.9213	14,928.2	68.8237	14,928.2	65.9889	14,928.2	65.7328	14,928.2	65.2479	14,928.2	69.6229	14,928.2	56.8816	14,928.2	71.9734	14,928.2	61.3435	14,928.2	71.6893	14,928.2	60.1847	14,928.2	70.7085	14,928.2	63.9505	14,928.2	65.1031
15,455.6	102.318	15,455.6	102.159	15,455.6	102.243	15,455.6	98.8442	15,455.6	99.9554	15,455.6	95.0999	15,455.6	97.2093	15,455.6	90.2972	15,455.6	94.1341	15,455.6	87.1061	15,455.6	91.7842	15,455.6	85.9978	15,455.6	88.6757	15,455.6	81.5372	15,455.6	82.8758	15,455.6	77.4987	15,455.6	80.3205	15,455.6	72.8424	15,455.6	72.6621	15,455.6	70.8533	15,455.6	75.5783	15,455.6	61.0741	15,455.6	79.4446	15,455.6	67.3355	15,455.6	69.2071	15,455.6	62.1783	15,455.6	56.7802	15,455.6	66.4945	15,455.6	60.2098	15,455.6	69.874	15,455.6	67.9784	15,455.6	69.1519	15,455.6	65.9511	15,455.6	69.9321	15,455.6	63.4846	15,455.6	63.8947
16,000.5	100.516	16,000.5	100.591	16,000.5	100.262	16,000.5	97.8517	16,000.5	98.3831	16,000.5	94.5229	16,000.5	95.4389	16,000.5	89.7132	16,000.5	92.7098	16,000.5	85.589	16,000.5	89.9797	16,000.5	84.5055	16,000.5	85.6594	16,000.5	77.4637	16,000.5	81.4361	16,000.5	72.0647	16,000.5	76.4777	16,000.5	68.0882	16,000.5	69.775	16,000.5	69.3364	16,000.5	77.5659	16,000.5	41.3225	16,000.5	77.658	16,000.5	65.8627	16,000.5	69.3082	16,000.5	55.6491	16,000.5	62.0271	16,000.5	65.5125	16,000.5	58.7127	16,000.5	67.7475	16,000.5	67.1333	16,000.5	66.5647	16,000.5	66.4836	16,000.5	66.819	16,000.5	61.7781	16,000.5	62.5494
16,564.5	99.1628	16,564.5	99.8065	16,564.5	98.686	16,564.5	97.5326	16,564.5	97.0011	16,564.5	94.099	16,564.5	94.4784	16,564.5	89.2969	16,564.5	90.9957	16,564.5	83.7866	16,564.5	88.2196	16,564.5	81.2587	16,564.5	83.2529	16,564.5	74.3905	16,564.5	79.1111	16,564.5	71.4297	16,564.5	72.9442	16,564.5	69.7452	16,564.5	70.4191	16,564.5	68.9558	16,564.5	79.1813	16,564.5	57.808	16,564.5	77.1565	16,564.5	66.1541	16,564.5	66.6318	16,564.5	60.8804	16,564.5	59.1068	16,564.5	64.6045	16,564.5	58.09	16,564.5	68.7435	16,564.5	59.5494	16,564.5	65.8032	16,564.5	66.0837	16,564.5	64.0132	16,564.5	63.4518	16,564.5	62.2362
17,148.9	98.6012	17,148.9	99.7082	17,148.9	98.1649	17,148.9	97.4362	17,148.9	96.0078	17,148.9	94.2767	17,148.9	93.4431	17,148.9	89.2885	17,148.9	89.7319	17,148.9	82.0698	17,148.9	86.8277	17,148.9	79.7218	17,148.9	80.62	17,148.9	78.1932	17,148.9	75.7035	17,148.9	74.9947	17,148.9	70.3962	17,148.9	72.5578	17,148.9	68.2943	17,148.9	68.567	17,148.9	80.7283	17,148.9	63.1701	17,148.9	80.3829	17,148.9	64.6322	17,148.9	68.6407	17,148.9	63.5135	17,148.9	59.9051	17,148.9	65.4727	17,148.9	63.162	17,148.9	69.002	17,148.9	54.412	17,148.9	66.7636	17,148.9	64.487	17,148.9	62.7574	17,148.9	62.2713	17,148.9	62.9135
17,752.4	98.6387	17,752.4	100.131	17,752.4	98.0782	17,752.4	97.8335	17,752.4	95.5115	17,752.4	94.9982	17,752.4	92.3738	17,752.4	89.3216	17,752.4	89.0001	17,752.4	84.0775	17,752.4	84.8852	17,752.4	84.4218	17,752.4	79.8073	17,752.4	81.5882	17,752.4	73.5939	17,752.4	77.5015	17,752.4	69.4459	17,752.4	75.0556	17,752.4	66.9724	17,752.4	69.1369	17,752.4	82.3991	17,752.4	65.026	17,752.4	82.6039	17,752.4	65.254	17,752.4	69.2834	17,752.4	65.056	17,752.4	60.7956	17,752.4	65.3764	17,752.4	66.0087	17,752.4	69.917	17,752.4	63.6685	17,752.4	67.4071	17,752.4	68.1896	17,752.4	64.4765	17,752.4	61.6801	17,752.4	64.2017
18,379.4	99.6233	18,379.4	101.121	18,379.4	98.8476	18,379.4	99.5052	18,379.4	95.7602	18,379.4	97.1471	18,379.4	93.1533	18,379.4	91.7307	18,379.4	89.9987	18,379.4	87.9018	18,379.4	87.2919	18,379.4	87.3031	18,379.4	80.8865	18,379.4	83.4692	18,379.4	72.9614	18,379.4	79.7371	18,379.4	67.1808	18,379.4	77.5876	18,379.4	66.9238	18,379.4	70.5125	18,379.4	84.4969	18,379.4	67.9984	18,379.4	84.1668	18,379.4	67.8043	18,379.4	70.5673	18,379.4	66.2602	18,379.4	63.5612	18,379.4	65.6559	18,379.4	69.0799	18,379.4	71.3426	18,379.4	68.3593	18,379.4	69.3164	18,379.4	69.8323	18,379.4	65.1694	18,379.4	63.2291	18,379.4	65.4138
19,026.9	100.304	19,026.9	101.786	19,026.9	98.8884	19,026.9	100.575	19,026.9	95.3867	19,026.9	97.2562	19,026.9	93.6036	19,026.9	90.6356	19,026.9	91.0005	19,026.9	87.9808	19,026.9	87.779	19,026.9	87.4138	19,026.9	82.7237	19,026.9	84.3016	19,026.9	74.1222	19,026.9	80.2978	19,026.9	69.3422	19,026.9	78.4121	19,026.9	67.8169	19,026.9	70.1896	19,026.9	85.5314	19,026.9	67.2866	19,026.9	84.1652	19,026.9	67.724	19,026.9	69.4435	19,026.9	65.7782	19,026.9	65.4971	19,026.9	65.6037	19,026.9	70.0964	19,026.9	71.8974	19,026.9	68.4522	19,026.9	69.0724	19,026.9	70.1266	19,026.9	64.1318	19,026.9	66.3865	19,026.9	65.9686
19,697.8	101.267	19,697.8	102.261	19,697.8	98.9944	19,697.8	100.739	19,697.8	94.3309	19,697.8	96.0285	19,697.8	92.9655	19,697.8	89.1361	19,697.8	90.7304	19,697.8	88.1309	19,697.8	87.4576	19,697.8	88.5316	19,697.8	81.1156	19,697.8	86.0812	19,697.8	69.4982	19,697.8	81.08	19,697.8	60.1011	19,697.8	79.6243	19,697.8	65.7868	19,697.8	70.265	19,697.8	86.165	19,697.8	67.5316	19,697.8	85.3684	19,697.8	67.053	19,697.8	69.9334	19,697.8	63.0079	19,697.8	65.7103	19,697.8	65.4401	19,697.8	70.9001	19,697.8	71.5586	19,697.8	68.8998	19,697.8	69.2781	19,697.8	70.5909	19,697.8	63.0877	19,697.8	68.3238	19,697.8	68.2947
19,999.5	100.639	19,999.5	101.161	19,999.5	98.1017	19,999.5	99.1968	19,999.5	92.9844	19,999.5	94.6039	19,999.5	91.9962	19,999.5	87.4592	19,999.5	90.0339	19,999.5	87.3766	19,999.5	86.2169	19,999.5	88.6096	19,999.5	78.6186	19,999.5	85.0246	19,999.5	65.2741	19,999.5	80.5185	19,999.5	63.9215	19,999.5	79.7859	19,999.5	71.7594	19,999.5	70.522	19,999.5	85.9843	19,999.5	66.9384	19,999.5	85.0619	19,999.5	67.6901	19,999.5	69.1833	19,999.5	55.4101	19,999.5	57.2076	19,999.5	67.1984	19,999.5	65.2043	19,999.5	66.262	19,999.5	66.6808	19,999.5	61.1206	19,999.5	67.6437	19,999.5	69.4999	19,999.5	69.5766	19,999.5	64.8658
