"SPL Horizontal"
"On-Axis"		"10°"		"-10°"		"20°"		"-20°"		"30°"		"-30°"		"40°"		"-40°"		"50°"		"-50°"		"60°"		"-60°"		"70°"		"-70°"		"80°"		"-80°"		"90°"		"-90°"		"100°"		"-100°"		"110°"		"-110°"		"120°"		"-120°"		"130°"		"-130°"		"140°"		"-140°"		"150°"		"-150°"		"160°"		"-160°"		"170°"		"-170°"		"180°"
"Frequency / Hz"	"Sound Pressure Level / dB (re 20 µPa/V)  [2.83  V @ 1. m]"	"Frequency / Hz"	"Sound Pressure Level / dB (re 20 µPa/V)  [2.83  V @ 1. m]"	"Frequency / Hz"	"Sound Pressure Level / dB (re 20 µPa/V)  [2.83  V @ 1. m]"	"Frequency / Hz"	"Sound Pressure Level / dB (re 20 µPa/V)  [2.83  V @ 1. m]"	"Frequency / Hz"	"Sound Pressure Level / dB (re 20 µPa/V)  [2.83  V @ 1. m]"	"Frequency / Hz"	"Sound Pressure Level / dB (re 20 µPa/V)  [2.83  V @ 1. m]"	"Frequency / Hz"	"Sound Pressure Level / dB (re 20 µPa/V)  [2.83  V @ 1. m]"	"Frequency / Hz"	"Sound Pressure Level / dB (re 20 µPa/V)  [2.83  V @ 1. m]"	"Frequency / Hz"	"Sound Pressure Level / dB (re 20 µPa/V)  [2.83  V @ 1. m]"	"Frequency / Hz"	"Sound Pressure Level / dB (re 20 µPa/V)  [2.83  V @ 1. m]"	"Frequency / Hz"	"Sound Pressure Level / dB (re 20 µPa/V)  [2.83  V @ 1. m]"	"Frequency / Hz"	"Sound Pressure Level / dB (re 20 µPa/V)  [2.83  V @ 1. m]"	"Frequency / Hz"	"Sound Pressure Level / dB (re 20 µPa/V)  [2.83  V @ 1. m]"	"Frequency / Hz"	"Sound Pressure Level / dB (re 20 µPa/V)  [2.83  V @ 1. m]"	"Frequency / Hz"	"Sound Pressure Level / dB (re 20 µPa/V)  [2.83  V @ 1. m]"	"Frequency / Hz"	"Sound Pressure Level / dB (re 20 µPa/V)  [2.83  V @ 1. m]"	"Frequency / Hz"	"Sound Pressure Level / dB (re 20 µPa/V)  [2.83  V @ 1. m]"	"Frequency / Hz"	"Sound Pressure Level / dB (re 20 µPa/V)  [2.83  V @ 1. m]"	"Frequency / Hz"	"Sound Pressure Level / dB (re 20 µPa/V)  [2.83  V @ 1. m]"	"Frequency / Hz"	"Sound Pressure Level / dB (re 20 µPa/V)  [2.83  V @ 1. m]"	"Frequency / Hz"	"Sound Pressure Level / dB (re 20 µPa/V)  [2.83  V @ 1. m]"	"Frequency / Hz"	"Sound Pressure Level / dB (re 20 µPa/V)  [2.83  V @ 1. m]"	"Frequency / Hz"	"Sound Pressure Level / dB (re 20 µPa/V)  [2.83  V @ 1. m]"	"Frequency / Hz"	"Sound Pressure Level / dB (re 20 µPa/V)  [2.83  V @ 1. m]"	"Frequency / Hz"	"Sound Pressure Level / dB (re 20 µPa/V)  [2.83  V @ 1. m]"	"Frequency / Hz"	"Sound Pressure Level / dB (re 20 µPa/V)  [2.83  V @ 1. m]"	"Frequency / Hz"	"Sound Pressure Level / dB (re 20 µPa/V)  [2.83  V @ 1. m]"	"Frequency / Hz"	"Sound Pressure Level / dB (re 20 µPa/V)  [2.83  V @ 1. m]"	"Frequency / Hz"	"Sound Pressure Level / dB (re 20 µPa/V)  [2.83  V @ 1. m]"	"Frequency / Hz"	"Sound Pressure Level / dB (re 20 µPa/V)  [2.83  V @ 1. m]"	"Frequency / Hz"	"Sound Pressure Level / dB (re 20 µPa/V)  [2.83  V @ 1. m]"	"Frequency / Hz"	"Sound Pressure Level / dB (re 20 µPa/V)  [2.83  V @ 1. m]"	"Frequency / Hz"	"Sound Pressure Level / dB (re 20 µPa/V)  [2.83  V @ 1. m]"	"Frequency / Hz"	"Sound Pressure Level / dB (re 20 µPa/V)  [2.83  V @ 1. m]"	"Frequency / Hz"	"Sound Pressure Level / dB (re 20 µPa/V)  [2.83  V @ 1. m]"	"Frequency / Hz"	"Sound Pressure Level / dB (re 20 µPa/V)  [2.83  V @ 1. m]"
20.5078	50.0191	20.5078	50.1174	20.5078	49.974	20.5078	50.2667	20.5078	49.9785	20.5078	50.4599	20.5078	50.0239	20.5078	50.6848	20.5078	50.0973	20.5078	50.9256	20.5078	50.1834	20.5078	51.1629	20.5078	50.2663	20.5078	51.3751	20.5078	50.3313	20.5078	51.5405	20.5078	50.3668	20.5078	51.6396	20.5078	50.3653	20.5078	51.6572	20.5078	50.3235	20.5078	51.584	20.5078	50.2425	20.5078	51.4181	20.5078	50.1267	20.5078	51.166	20.5078	49.9848	20.5078	50.8453	20.5078	49.8312	20.5078	50.4873	20.5078	49.6883	20.5078	50.1361	20.5078	49.587	20.5078	49.8412	20.5078	49.5624	20.5078	49.644
21.9727	48.1169	21.9727	48.2383	21.9727	48.0329	21.9727	48.3939	21.9727	47.987	21.9727	48.5778	21.9727	47.9765	21.9727	48.7814	21.9727	47.9954	21.9727	48.9926	21.9727	48.0347	21.9727	49.1964	21.9727	48.0837	21.9727	49.3755	21.9727	48.1313	21.9727	49.513	21.9727	48.1681	21.9727	49.5948	21.9727	48.1878	21.9727	49.6118	21.9727	48.1888	21.9727	49.5621	21.9727	48.1733	21.9727	49.4505	21.9727	48.1476	21.9727	49.288	21.9727	48.1198	21.9727	49.09	21.9727	48.0999	21.9727	48.8747	21.9727	48.0988	21.9727	48.6613	21.9727	48.1277	21.9727	48.4682	21.9727	48.1964	21.9727	48.3103
23.4375	51.1401	23.4375	51.1878	23.4375	51.1302	23.4375	51.2754	23.4375	51.1528	23.4375	51.4008	23.4375	51.1999	23.4375	51.5571	23.4375	51.2618	23.4375	51.7328	23.4375	51.3278	23.4375	51.913	23.4375	51.387	23.4375	52.0807	23.4375	51.4294	23.4375	52.219	23.4375	51.4473	23.4375	52.3134	23.4375	51.4364	23.4375	52.3533	23.4375	51.3967	23.4375	52.3333	23.4375	51.3334	23.4375	52.2538	23.4375	51.2556	23.4375	52.1212	23.4375	51.1763	23.4375	51.9477	23.4375	51.1099	23.4375	51.7506	23.4375	51.071	23.4375	51.5505	23.4375	51.0719	23.4375	51.3682	23.4375	51.121	23.4375	51.2212
24.9023	54.0361	24.9023	54.063	24.9023	54.0418	24.9023	54.1224	24.9023	54.0775	24.9023	54.2107	24.9023	54.1378	24.9023	54.3208	24.9023	54.2154	24.9023	54.4424	24.9023	54.3011	24.9023	54.5623	24.9023	54.3851	24.9023	54.6663	24.9023	54.4577	24.9023	54.7411	24.9023	54.5107	24.9023	54.7765	24.9023	54.5388	24.9023	54.7675	24.9023	54.5395	24.9023	54.7151	24.9023	54.5138	24.9023	54.6269	24.9023	54.4658	24.9023	54.5155	24.9023	54.4014	24.9023	54.3969	24.9023	54.3285	24.9023	54.2875	24.9023	54.2556	24.9023	54.2015	24.9023	54.1923	24.9023	54.1482	24.9023	54.1479	24.9023	54.131
26.3672	54.7318	26.3672	54.7626	26.3672	54.7131	26.3672	54.8051	26.3672	54.7063	26.3672	54.8584	26.3672	54.7109	26.3672	54.9207	26.3672	54.7254	26.3672	54.9884	26.3672	54.7467	26.3672	55.0559	26.3672	54.7708	26.3672	55.1158	26.3672	54.7931	26.3672	55.1606	26.3672	54.8092	26.3672	55.184	26.3672	54.8167	26.3672	55.1827	26.3672	54.8153	26.3672	55.1572	26.3672	54.8067	26.3672	55.1116	26.3672	54.794	26.3672	55.0525	26.3672	54.7807	26.3672	54.9875	26.3672	54.7696	26.3672	54.9242	26.3672	54.763	26.3672	54.8682	26.3672	54.7632	26.3672	54.8235	26.3672	54.772	26.3672	54.7916
27.832	55.3913	27.832	55.3858	27.832	55.416	27.832	55.4011	27.832	55.4577	27.832	55.4379	27.832	55.5143	27.832	55.4953	27.832	55.5825	27.832	55.5698	27.832	55.6583	27.832	55.6555	27.832	55.7368	27.832	55.7447	27.832	55.8124	27.832	55.829	27.832	55.8799	27.832	55.9015	27.832	55.9355	27.832	55.9576	27.832	55.9776	27.832	55.9962	27.832	56.0068	27.832	56.0192	27.832	56.0254	27.832	56.0307	27.832	56.0366	27.832	56.0355	27.832	56.0432	27.832	56.0379	27.832	56.0471	27.832	56.0403	27.832	56.0489	27.832	56.0434	27.832	56.0486	27.832	56.0465
29.2969	57.3744	29.2969	57.3578	29.2969	57.4065	29.2969	57.3569	29.2969	57.4529	29.2969	57.3697	29.2969	57.5104	29.2969	57.392	29.2969	57.5745	29.2969	57.4176	29.2969	57.6391	29.2969	57.4382	29.2969	57.697	29.2969	57.4445	29.2969	57.7405	29.2969	57.4285	29.2969	57.7628	29.2969	57.3846	29.2969	57.7592	29.2969	57.3126	29.2969	57.7275	29.2969	57.2181	29.2969	57.6686	29.2969	57.1123	29.2969	57.5859	29.2969	57.01	29.2969	57.4847	29.2969	56.9266	29.2969	57.3715	29.2969	56.8744	29.2969	57.2532	29.2969	56.8604	29.2969	57.1373	29.2969	56.8854	29.2969	57.0318	29.2969	56.945
30.7617	57.5362	30.7617	57.5382	30.7617	57.5535	30.7617	57.5603	30.7617	57.5894	30.7617	57.6027	30.7617	57.6433	30.7617	57.6646	30.7617	57.7133	30.7617	57.7427	30.7617	57.796	30.7617	57.8311	30.7617	57.8864	30.7617	57.9215	30.7617	57.978	30.7617	58.0053	30.7617	58.0643	30.7617	58.0756	30.7617	58.1404	30.7617	58.129	30.7617	58.2035	30.7617	58.1661	30.7617	58.2531	30.7617	58.1909	30.7617	58.2903	30.7617	58.209	30.7617	58.3168	30.7617	58.2259	30.7617	58.3337	30.7617	58.245	30.7617	58.3415	30.7617	58.2671	30.7617	58.3401	30.7617	58.2907	30.7617	58.3301	30.7617	58.3128
32.2266	60.9747	32.2266	60.9799	32.2266	60.982	32.2266	60.9972	32.2266	61.0012	32.2266	61.025	32.2266	61.0306	32.2266	61.0601	32.2266	61.0673	32.2266	61.0981	32.2266	61.1068	32.2266	61.1328	32.2266	61.1438	32.2266	61.1579	32.2266	61.1726	32.2266	61.1676	32.2266	61.1882	32.2266	61.1585	32.2266	61.1875	32.2266	61.1299	32.2266	61.1697	32.2266	61.0851	32.2266	61.1371	32.2266	61.0302	32.2266	61.0935	32.2266	60.9731	32.2266	61.044	32.2266	60.9215	32.2266	60.9937	32.2266	60.8815	32.2266	60.9468	32.2266	60.8568	32.2266	60.9064	32.2266	60.8482	32.2266	60.8751	32.2266	60.855
33.6914	62.7936	33.6914	62.7898	33.6914	62.8039	33.6914	62.7925	33.6914	62.8202	33.6914	62.8007	33.6914	62.8409	33.6914	62.8126	33.6914	62.864	33.6914	62.8247	33.6914	62.8863	33.6914	62.8329	33.6914	62.9036	33.6914	62.8324	33.6914	62.9117	33.6914	62.8191	33.6914	62.907	33.6914	62.7905	33.6914	62.8872	33.6914	62.7471	33.6914	62.8525	33.6914	62.6921	33.6914	62.8049	33.6914	62.6312	33.6914	62.7484	33.6914	62.5714	33.6914	62.688	33.6914	62.5195	33.6914	62.6283	33.6914	62.481	33.6914	62.5733	33.6914	62.4588	33.6914	62.5262	33.6914	62.4535	33.6914	62.4891	33.6914	62.4642
35.1562	64.5262	35.1562	64.5165	35.1562	64.5456	35.1562	64.5166	35.1562	64.5739	35.1562	64.5258	35.1562	64.6096	35.1562	64.5424	35.1562	64.6502	35.1562	64.5633	35.1562	64.6926	35.1562	64.5845	35.1562	64.7325	35.1562	64.6015	35.1562	64.7659	35.1562	64.6103	35.1562	64.7888	35.1562	64.6086	35.1562	64.7987	35.1562	64.596	35.1562	64.7951	35.1562	64.5752	35.1562	64.779	35.1562	64.5504	35.1562	64.7528	35.1562	64.527	35.1562	64.7198	35.1562	64.5098	35.1562	64.683	35.1562	64.5024	35.1562	64.6449	35.1562	64.506	35.1562	64.6078	35.1562	64.5203	35.1562	64.5734	35.1562	64.5435
36.6211	66.2407	36.6211	66.2329	36.6211	66.252	36.6211	66.2289	36.6211	66.2665	36.6211	66.2282	36.6211	66.2835	36.6211	66.23	36.6211	66.3016	36.6211	66.2323	36.6211	66.3189	36.6211	66.2327	36.6211	66.3327	36.6211	66.2283	36.6211	66.3404	36.6211	66.2166	36.6211	66.3394	36.6211	66.1962	36.6211	66.3283	36.6211	66.1678	36.6211	66.3074	36.6211	66.1338	36.6211	66.278	36.6211	66.0984	36.6211	66.2429	36.6211	66.0663	36.6211	66.2048	36.6211	66.0415	36.6211	66.1666	36.6211	66.0268	36.6211	66.1302	36.6211	66.0231	36.6211	66.0972	36.6211	66.0299	36.6211	66.0685	36.6211	66.0456
38.0859	68.1096	38.0859	68.1097	38.0859	68.1118	38.0859	68.112	38.0859	68.1164	38.0859	68.1161	38.0859	68.1229	38.0859	68.1213	38.0859	68.1308	38.0859	68.1262	38.0859	68.139	38.0859	68.1286	38.0859	68.1459	38.0859	68.1265	38.0859	68.1498	38.0859	68.1179	38.0859	68.1493	38.0859	68.1022	38.0859	68.1436	38.0859	68.0801	38.0859	68.1328	38.0859	68.054	38.0859	68.118	38.0859	68.0275	38.0859	68.1006	38.0859	68.0044	38.0859	68.0821	38.0859	67.9876	38.0859	68.0636	38.0859	67.9789	38.0859	68.0454	38.0859	67.9784	38.0859	68.0279	38.0859	67.985	38.0859	68.0114	38.0859	67.9966
39.5508	69.6122	39.5508	69.6126	39.5508	69.6111	39.5508	69.6125	39.5508	69.6092	39.5508	69.6118	39.5508	69.6062	39.5508	69.6101	39.5508	69.6017	39.5508	69.6066	39.5508	69.5951	39.5508	69.5999	39.5508	69.5855	39.5508	69.5885	39.5508	69.5721	39.5508	69.5714	39.5508	69.5545	39.5508	69.5484	39.5508	69.5331	39.5508	69.5208	39.5508	69.5091	39.5508	69.491	39.5508	69.4844	39.5508	69.4621	39.5508	69.4612	39.5508	69.437	39.5508	69.4412	39.5508	69.4178	39.5508	69.4254	39.5508	69.4049	39.5508	69.4138	39.5508	69.398	39.5508	69.4056	39.5508	69.3958	39.5508	69.4001	39.5508	69.3968
41.0156	71.3031	41.0156	71.3092	41.0156	71.2947	41.0156	71.3128	41.0156	71.2843	41.0156	71.3139	41.0156	71.272	41.0156	71.312	41.0156	71.258	41.0156	71.3064	41.0156	71.242	41.0156	71.296	41.0156	71.2238	41.0156	71.2798	41.0156	71.203	41.0156	71.2571	41.0156	71.1794	41.0156	71.2283	41.0156	71.1536	41.0156	71.1949	41.0156	71.1267	41.0156	71.1595	41.0156	71.1008	41.0156	71.1253	41.0156	71.0776	41.0156	71.095	41.0156	71.0588	41.0156	71.0708	41.0156	71.0452	41.0156	71.0531	41.0156	71.0365	41.0156	71.0415	41.0156	71.0318	41.0156	71.0346	41.0156	71.0303	41.0156	71.0312
42.4805	72.9603	42.4805	72.9661	42.4805	72.9488	42.4805	72.966	42.4805	72.932	42.4805	72.9599	42.4805	72.9104	42.4805	72.9477	42.4805	72.8845	42.4805	72.929	42.4805	72.8549	42.4805	72.9032	42.4805	72.8219	42.4805	72.8697	42.4805	72.7858	42.4805	72.8284	42.4805	72.7471	42.4805	72.78	42.4805	72.7067	42.4805	72.7266	42.4805	72.6658	42.4805	72.6712	42.4805	72.6261	42.4805	72.6178	42.4805	72.5894	42.4805	72.5699	42.4805	72.5568	42.4805	72.5306	42.4805	72.5293	42.4805	72.5014	42.4805	72.507	42.4805	72.4826	42.4805	72.49	42.4805	72.4734	42.4805	72.4783	42.4805	72.4724
43.9453	74.4183	43.9453	74.4298	43.9453	74.3999	43.9453	74.4344	43.9453	74.3752	43.9453	74.4322	43.9453	74.3449	43.9453	74.4235	43.9453	74.31	43.9453	74.4085	43.9453	74.2716	43.9453	74.3872	43.9453	74.2306	43.9453	74.3597	43.9453	74.1881	43.9453	74.3262	43.9453	74.1452	43.9453	74.2874	43.9453	74.1034	43.9453	74.2447	43.9453	74.0646	43.9453	74.2003	43.9453	74.0307	43.9453	74.1568	43.9453	74.0034	43.9453	74.1162	43.9453	73.9839	43.9453	74.0805	43.9453	73.9724	43.9453	74.0502	43.9453	73.9683	43.9453	74.0254	43.9453	73.9705	43.9453	74.0054	43.9453	73.978	43.9453	73.9897
45.4102	75.6998	45.4102	75.7104	45.4102	75.6807	45.4102	75.7125	45.4102	75.6536	45.4102	75.7064	45.4102	75.6194	45.4102	75.6926	45.4102	75.5794	45.4102	75.6719	45.4102	75.5348	45.4102	75.6446	45.4102	75.4871	45.4102	75.6115	45.4102	75.4376	45.4102	75.5732	45.4102	75.388	45.4102	75.5308	45.4102	75.3402	45.4102	75.486	45.4102	75.2963	45.4102	75.4408	45.4102	75.2588	45.4102	75.3974	45.4102	75.2293	45.4102	75.3576	45.4102	75.2092	45.4102	75.3226	45.4102	75.1985	45.4102	75.2926	45.4102	75.1965	45.4102	75.2671	45.4102	75.2017	45.4102	75.2455	45.4102	75.2124	45.4102	75.2273
46.875	76.8775	46.875	76.8879	46.875	76.8568	46.875	76.8878	46.875	76.8262	46.875	76.8779	46.875	76.787	46.875	76.8588	46.875	76.7404	46.875	76.8317	46.875	76.6883	46.875	76.7975	46.875	76.6326	46.875	76.7572	46.875	76.5751	46.875	76.7123	46.875	76.5179	46.875	76.6641	46.875	76.4635	46.875	76.6148	46.875	76.4143	46.875	76.5664	46.875	76.3727	46.875	76.521	46.875	76.3406	46.875	76.4799	46.875	76.319	46.875	76.4439	46.875	76.3079	46.875	76.4127	46.875	76.3064	46.875	76.3858	46.875	76.3127	46.875	76.3624	46.875	76.3252	46.875	76.342
48.3398	77.968	48.3398	77.9778	48.3398	77.9469	48.3398	77.9764	48.3398	77.9153	48.3398	77.9643	48.3398	77.8744	48.3398	77.9424	48.3398	77.8258	48.3398	77.9119	48.3398	77.7715	48.3398	77.8741	48.3398	77.7137	48.3398	77.8303	48.3398	77.6546	48.3398	77.7823	48.3398	77.5966	48.3398	77.7318	48.3398	77.542	48.3398	77.6811	48.3398	77.4933	48.3398	77.6323	48.3398	77.4527	48.3398	77.5873	48.3398	77.4218	48.3398	77.5476	48.3398	77.4013	48.3398	77.5135	48.3398	77.3909	48.3398	77.4847	48.3398	77.3894	48.3398	77.4604	48.3398	77.3952	48.3398	77.4394	48.3398	77.4064	48.3398	77.4214
51.2695	79.5465	51.2695	79.5517	51.2695	79.5273	51.2695	79.543	51.2695	79.4949	51.2695	79.5213	51.2695	79.4506	51.2695	79.4881	51.2695	79.3967	51.2695	79.4453	51.2695	79.3357	51.2695	79.395	51.2695	79.2703	51.2695	79.3398	51.2695	79.2034	51.2695	79.2821	51.2695	79.1381	51.2695	79.2244	51.2695	79.0772	51.2695	79.1693	51.2695	79.0234	51.2695	79.1188	51.2695	78.9789	51.2695	79.0747	51.2695	78.9453	51.2695	79.0377	51.2695	78.9229	51.2695	79.0075	51.2695	78.911	51.2695	78.9832	51.2695	78.9081	51.2695	78.9635	51.2695	78.912	51.2695	78.9469	51.2695	78.9207	51.2695	78.9326
52.7344	80.0779	52.7344	80.0835	52.7344	80.058	52.7344	80.0751	52.7344	80.0247	52.7344	80.0534	52.7344	79.9795	52.7344	80.02	52.7344	79.9246	52.7344	79.9771	52.7344	79.8627	52.7344	79.9269	52.7344	79.797	52.7344	79.872	52.7344	79.7304	52.7344	79.8151	52.7344	79.6662	52.7344	79.7588	52.7344	79.6074	52.7344	79.7057	52.7344	79.5566	52.7344	79.6578	52.7344	79.5159	52.7344	79.6167	52.7344	79.4866	52.7344	79.583	52.7344	79.4686	52.7344	79.5562	52.7344	79.4608	52.7344	79.535	52.7344	79.4613	52.7344	79.5178	52.7344	79.4678	52.7344	79.5032	52.7344	79.4778	52.7344	79.4899
54.1992	80.5319	54.1992	80.5358	54.1992	80.5131	54.1992	80.5249	54.1992	80.4802	54.1992	80.5003	54.1992	80.4347	54.1992	80.4638	54.1992	80.3791	54.1992	80.4177	54.1992	80.3163	54.1992	80.3649	54.1992	80.2493	54.1992	80.3082	54.1992	80.1818	54.1992	80.2506	54.1992	80.117	54.1992	80.195	54.1992	80.0581	54.1992	80.144	54.1992	80.008	54.1992	80.0994	54.1992	79.9688	54.1992	80.0624	54.1992	79.9413	54.1992	80.033	54.1992	79.9255	54.1992	80.0105	54.1992	79.9201	54.1992	79.9931	54.1992	79.9226	54.1992	79.9789	54.1992	79.9306	54.1992	79.9661	54.1992	79.9416	54.1992	79.9538
55.6641	80.8628	55.6641	80.8645	55.6641	80.8453	55.6641	80.8507	55.6641	80.8128	55.6641	80.8226	55.6641	80.767	55.6641	80.7823	55.6641	80.7106	55.6641	80.7326	55.6641	80.6467	55.6641	80.6768	55.6641	80.579	55.6641	80.6182	55.6641	80.5111	55.6641	80.5602	55.6641	80.4467	55.6641	80.5059	55.6641	80.3893	55.6641	80.4579	55.6641	80.3416	55.6641	80.4179	55.6641	80.3056	55.6641	80.3867	55.6641	80.282	55.6641	80.3639	55.6641	80.2702	55.6641	80.3478	55.6641	80.2684	55.6641	80.3363	55.6641	80.274	55.6641	80.327	55.6641	80.2841	55.6641	80.3178	55.6641	80.296	55.6641	80.3075
58.5938	81.4308	58.5938	81.4262	58.5938	81.4175	58.5938	81.404	58.5938	81.3872	58.5938	81.3659	58.5938	81.3416	58.5938	81.3144	58.5938	81.2835	58.5938	81.2528	58.5938	81.2167	58.5938	81.185	58.5938	81.1452	58.5938	81.1152	58.5938	81.0732	58.5938	81.0476	58.5938	81.0048	58.5938	80.9859	58.5938	80.944	58.5938	80.9333	58.5938	80.8936	58.5938	80.8919	58.5938	80.8555	58.5938	80.8624	58.5938	80.8303	58.5938	80.8442	58.5938	80.8169	58.5938	80.8351	58.5938	80.813	58.5938	80.8323	58.5938	80.8156	58.5938	80.8324	58.5938	80.8213	58.5938	80.8327	58.5938	80.8272	58.5938	80.8312
60.0586	81.7362	60.0586	81.7311	60.0586	81.7224	60.0586	81.7075	60.0586	81.6904	60.0586	81.667	60.0586	81.6423	60.0586	81.6123	60.0586	81.5811	60.0586	81.547	60.0586	81.5107	60.0586	81.4754	60.0586	81.4353	60.0586	81.4019	60.0586	81.3598	60.0586	81.3312	60.0586	81.2887	60.0586	81.2674	60.0586	81.226	60.0586	81.2138	60.0586	81.175	60.0586	81.1726	60.0586	81.1375	60.0586	81.1446	60.0586	81.1139	60.0586	81.1286	60.0586	81.1029	60.0586	81.1222	60.0586	81.1017	60.0586	81.1221	60.0586	81.1069	60.0586	81.1247	60.0586	81.1146	60.0586	81.1267	60.0586	81.1217	60.0586	81.126
62.9883	82.2155	62.9883	82.2095	62.9883	82.2007	62.9883	82.1832	62.9883	82.166	62.9883	82.1384	62.9883	82.1137	62.9883	82.0782	62.9883	82.0473	62.9883	82.0067	62.9883	81.9711	62.9883	81.9286	62.9883	81.8901	62.9883	81.8491	62.9883	81.8098	62.9883	81.7735	62.9883	81.7351	62.9883	81.7062	62.9883	81.6706	62.9883	81.6511	62.9883	81.6196	62.9883	81.6103	62.9883	81.5839	62.9883	81.5843	62.9883	81.5633	62.9883	81.5717	62.9883	81.556	62.9883	81.5695	62.9883	81.5586	62.9883	81.574	62.9883	81.5669	62.9883	81.5808	62.9883	81.5767	62.9883	81.5862	62.9883	81.5844	62.9883	81.5878
64.4531	82.4162	64.4531	82.4093	64.4531	82.4016	64.4531	82.3812	64.4531	82.3663	64.4531	82.334	64.4531	82.3128	64.4531	82.271	64.4531	82.2446	64.4531	82.1963	64.4531	82.1664	64.4531	82.1151	64.4531	82.0835	64.4531	82.033	64.4531	82.0014	64.4531	81.9552	64.4531	81.9257	64.4531	81.8867	64.4531	81.8608	64.4531	81.8314	64.4531	81.8103	64.4531	81.7915	64.4531	81.7758	64.4531	81.7673	64.4531	81.7571	64.4531	81.7572	64.4531	81.7518	64.4531	81.7581	64.4531	81.7563	64.4531	81.7657	64.4531	81.7661	64.4531	81.7755	64.4531	81.7767	64.4531	81.7835	64.4531	81.7844	64.4531	81.7868
67.3828	82.7698	67.3828	82.7598	67.3828	82.757	67.3828	82.7276	67.3828	82.7222	67.3828	82.6754	67.3828	82.668	67.3828	82.6069	67.3828	82.5983	67.3828	82.527	67.3828	82.5182	67.3828	82.4413	67.3828	82.4333	67.3828	82.3559	67.3828	82.3499	67.3828	82.2768	67.3828	82.2738	67.3828	82.2093	67.3828	82.2099	67.3828	82.1574	67.3828	82.1618	67.3828	82.1231	67.3828	82.1311	67.3828	82.1063	67.3828	82.1171	67.3828	82.1047	67.3828	82.117	67.3828	82.1142	67.3828	82.1267	67.3828	82.1298	67.3828	82.1409	67.3828	82.1463	67.3828	82.1546	67.3828	82.1592	67.3828	82.1637	67.3828	82.1655
68.8477	82.9428	68.8477	82.9319	68.8477	82.9299	68.8477	82.898	68.8477	82.8944	68.8477	82.8433	68.8477	82.839	68.8477	82.7717	68.8477	82.7675	68.8477	82.688	68.8477	82.6855	68.8477	82.5984	68.8477	82.5989	68.8477	82.5091	68.8477	82.5141	68.8477	82.4267	68.8477	82.4371	68.8477	82.3566	68.8477	82.3731	68.8477	82.3032	68.8477	82.3256	68.8477	82.2686	68.8477	82.296	68.8477	82.2529	68.8477	82.2835	68.8477	82.2535	68.8477	82.285	68.8477	82.2661	68.8477	82.2959	68.8477	82.2854	68.8477	82.3106	68.8477	82.3058	68.8477	82.3241	68.8477	82.3223	68.8477	82.3319	68.8477	82.3315
71.7773	83.4511	71.7773	83.4407	71.7773	83.4354	71.7773	83.4048	71.7773	83.395	71.7773	83.3459	71.7773	83.3327	71.7773	83.2678	71.7773	83.2533	71.7773	83.176	71.7773	83.1626	71.7773	83.0772	71.7773	83.0673	71.7773	82.9783	71.7773	82.9744	71.7773	82.8864	71.7773	82.8907	71.7773	82.8078	71.7773	82.8217	71.7773	82.7474	71.7773	82.7712	71.7773	82.7078	71.7773	82.7404	71.7773	82.689	71.7773	82.7281	71.7773	82.6887	71.7773	82.7307	71.7773	82.7022	71.7773	82.743	71.7773	82.7236	71.7773	82.759	71.7773	82.7467	71.7773	82.7728	71.7773	82.7662	71.7773	82.78	71.7773	82.7779
74.707	83.8404	74.707	83.827	74.707	83.8257	74.707	83.7865	74.707	83.7845	74.707	83.7213	74.707	83.7197	74.707	83.6359	74.707	83.6365	74.707	83.5363	74.707	83.5409	74.707	83.4294	74.707	83.4404	74.707	83.3231	74.707	83.3425	74.707	83.2248	74.707	83.2543	74.707	83.1413	74.707	83.1817	74.707	83.0777	74.707	83.1287	74.707	83.0368	74.707	83.0964	74.707	83.0185	74.707	83.0834	74.707	83.0201	74.707	83.0856	74.707	83.0365	74.707	83.0975	74.707	83.0615	74.707	83.1127	74.707	83.0885	74.707	83.1254	74.707	83.1114	74.707	83.1308	74.707	83.1263
77.6367	84.109	77.6367	84.0973	77.6367	84.0912	77.6367	84.0568	77.6367	84.0453	77.6367	83.9903	77.6367	83.9748	77.6367	83.9025	77.6367	83.8849	77.6367	83.7995	77.6367	83.7823	77.6367	83.6889	77.6367	83.6748	77.6367	83.5788	77.6367	83.5706	77.6367	83.4773	77.6367	83.4774	77.6367	83.3913	77.6367	83.4015	77.6367	83.3262	77.6367	83.347	77.6367	83.2846	77.6367	83.3153	77.6367	83.2663	77.6367	83.3045	77.6367	83.2682	77.6367	83.3103	77.6367	83.2851	77.6367	83.3265	77.6367	83.3102	77.6367	83.3463	77.6367	83.3366	77.6367	83.3633	77.6367	83.3583	77.6367	83.3725	77.6367	83.371
79.1016	84.2598	79.1016	84.2494	79.1016	84.2398	79.1016	84.2091	79.1016	84.1909	79.1016	84.1418	79.1016	84.1166	79.1016	84.0521	79.1016	84.0225	79.1016	83.9465	79.1016	83.9157	79.1016	83.8327	79.1016	83.8041	79.1016	83.719	79.1016	83.6963	79.1016	83.6138	79.1016	83.6002	79.1016	83.5245	79.1016	83.5223	79.1016	83.4568	79.1016	83.4669	79.1016	83.4134	79.1016	83.435	79.1016	83.3941	79.1016	83.425	79.1016	83.3959	79.1016	83.4321	79.1016	83.413	79.1016	83.45	79.1016	83.4385	79.1016	83.4716	79.1016	83.4654	79.1016	83.4901	79.1016	83.4873	79.1016	83.5005	79.1016	83.4997
82.0312	84.5126	82.0312	84.4981	82.0312	84.4948	82.0312	84.4522	82.0312	84.4464	82.0312	84.3778	82.0312	84.371	82.0312	84.2802	82.0312	84.2745	82.0312	84.1661	82.0312	84.1642	82.0312	84.044	82.0312	84.0488	82.0312	83.9231	82.0312	83.9373	82.0312	83.8125	82.0312	83.8381	82.0312	83.7202	82.0312	83.7582	82.0312	83.6521	82.0312	83.7019	82.0312	83.6112	82.0312	83.6705	82.0312	83.5969	82.0312	83.6617	82.0312	83.6052	82.0312	83.6707	82.0312	83.6298	82.0312	83.6904	82.0312	83.6628	82.0312	83.7134	82.0312	83.6963	82.0312	83.7325	82.0312	83.7234	82.0312	83.7423	82.0312	83.7394
84.9609	84.5309	84.9609	84.5256	84.9609	84.5032	84.9609	84.488	84.9609	84.4441	84.9609	84.4211	84.9609	84.358	84.9609	84.3303	84.9609	84.2511	84.9609	84.2226	84.9609	84.1316	84.9609	84.1066	84.9609	84.0091	84.9609	83.9919	84.9609	83.8934	84.9609	83.8875	84.9609	83.7939	84.9609	83.8014	84.9609	83.718	84.9609	83.7396	84.9609	83.6702	84.9609	83.7047	84.9609	83.6512	84.9609	83.6958	84.9609	83.6582	84.9609	83.7084	84.9609	83.6849	84.9609	83.7357	84.9609	83.7231	84.9609	83.7693	84.9609	83.764	84.9609	83.8008	84.9609	83.7995	84.9609	83.8232	84.9609	83.8232	84.9609	83.8314
87.8906	84.6609	87.8906	84.6594	87.8906	84.6274	87.8906	84.6236	87.8906	84.5608	87.8906	84.5567	87.8906	84.4655	87.8906	84.4643	87.8906	84.3485	87.8906	84.354	87.8906	84.2186	87.8906	84.2347	87.8906	84.0858	87.8906	84.1165	87.8906	83.961	87.8906	84.0089	87.8906	83.854	87.8906	83.9205	87.8906	83.7729	87.8906	83.8572	87.8906	83.7225	87.8906	83.8216	87.8906	83.7038	87.8906	83.8126	87.8906	83.7139	87.8906	83.8252	87.8906	83.7461	87.8906	83.852	87.8906	83.7917	87.8906	83.8842	87.8906	83.841	87.8906	83.9129	87.8906	83.8852	87.8906	83.9307	87.8906	83.9173	87.8906	83.9329
90.8203	84.8408	90.8203	84.8352	90.8203	84.8069	90.8203	84.7908	90.8203	84.7354	90.8203	84.711	90.8203	84.6312	90.8203	84.6016	90.8203	84.5013	90.8203	84.4707	90.8203	84.3553	90.8203	84.328	90.8203	84.2039	90.8203	84.1844	90.8203	84.0587	90.8203	84.0506	90.8203	83.9305	90.8203	83.9364	90.8203	83.8285	90.8203	83.8489	90.8203	83.7581	90.8203	83.7921	90.8203	83.7211	90.8203	83.7656	90.8203	83.7147	90.8203	83.7651	90.8203	83.7323	90.8203	83.7834	90.8203	83.7651	90.8203	83.8115	90.8203	83.8032	90.8203	83.84	90.8203	83.8374	90.8203	83.861	90.8203	83.8607	90.8203	83.8688
95.2148	84.699	95.2148	84.6899	95.2148	84.6681	95.2148	84.6416	95.2148	84.5993	95.2148	84.558	95.2148	84.4978	95.2148	84.4455	95.2148	84.3712	95.2148	84.3132	95.2148	84.2296	95.2148	84.1714	95.2148	84.0844	95.2148	84.0318	95.2148	83.9475	95.2148	83.9056	95.2148	83.8299	95.2148	83.8024	95.2148	83.7404	95.2148	83.7291	95.2148	83.6842	95.2148	83.6889	95.2148	83.662	95.2148	83.6804	95.2148	83.6701	95.2148	83.6983	95.2148	83.7012	95.2148	83.734	95.2148	83.7453	95.2148	83.7775	95.2148	83.792	95.2148	83.8188	95.2148	83.8316	95.2148	83.8493	95.2148	83.8567	95.2148	83.8628
98.1445	84.7762	98.1445	84.7695	98.1445	84.7413	98.1445	84.7222	98.1445	84.6669	98.1445	84.6382	98.1445	84.5581	98.1445	84.5243	98.1445	84.4231	98.1445	84.3898	98.1445	84.2721	98.1445	84.2457	98.1445	84.1171	98.1445	84.1036	98.1445	83.9704	98.1445	83.9749	98.1445	83.8438	98.1445	83.8693	98.1445	83.7465	98.1445	83.7934	98.1445	83.6842	98.1445	83.7497	98.1445	83.6578	98.1445	83.7366	98.1445	83.6636	98.1445	83.7486	98.1445	83.6942	98.1445	83.7774	98.1445	83.7396	98.1445	83.8132	98.1445	83.789	98.1445	83.8465	98.1445	83.8326	98.1445	83.8691	98.1445	83.8629	98.1445	83.8754
101.074	84.6342	101.074	84.6222	101.074	84.6045	101.074	84.5695	101.074	84.5352	101.074	84.4804	101.074	84.4317	101.074	84.3622	101.074	84.302	101.074	84.2248	101.074	84.1567	101.074	84.0799	101.074	84.008	101.074	83.9404	101.074	83.8684	101.074	83.8183	101.074	83.7499	101.074	83.7238	101.074	83.6616	101.074	83.6633	101.074	83.6091	101.074	83.6386	101.074	83.5933	101.074	83.6465	101.074	83.6101	101.074	83.6797	101.074	83.6515	101.074	83.7278	101.074	83.7069	101.074	83.7797	101.074	83.7652	101.074	83.8247	101.074	83.8157	101.074	83.8546	101.074	83.8503	101.074	83.8638
105.469	84.7736	105.469	84.7637	105.469	84.7358	105.469	84.7071	105.469	84.653	105.469	84.6082	105.469	84.531	105.469	84.4746	105.469	84.3791	105.469	84.3165	105.469	84.2093	105.469	84.1467	105.469	84.0353	105.469	83.9788	105.469	83.8718	105.469	83.8267	105.469	83.7323	105.469	83.7024	105.469	83.6274	105.469	83.6145	105.469	83.5634	105.469	83.5668	105.469	83.5408	105.469	83.5579	105.469	83.5546	105.469	83.5811	105.469	83.5951	105.469	83.6259	105.469	83.6502	105.469	83.6802	105.469	83.7071	105.469	83.7318	105.469	83.7542	105.469	83.7704	105.469	83.783	105.469	83.7887
108.398	84.8013	108.398	84.7911	108.398	84.7625	108.398	84.7336	108.398	84.6771	108.398	84.6335	108.398	84.5508	108.398	84.4992	108.398	84.3928	108.398	84.3417	108.398	84.2153	108.398	84.1744	108.398	84.0325	108.398	84.0114	108.398	83.8594	108.398	83.8664	108.398	83.7105	108.398	83.7508	108.398	83.5974	108.398	83.6722	108.398	83.5274	108.398	83.6332	108.398	83.5021	108.398	83.6307	108.398	83.5172	108.398	83.6571	108.398	83.5633	108.398	83.7013	108.398	83.6279	108.398	83.7508	108.398	83.6975	108.398	83.7939	108.398	83.7594	108.398	83.8208	108.398	83.8039	108.398	83.825
112.793	84.8468	112.793	84.8341	112.793	84.8068	112.793	84.7697	112.793	84.7167	112.793	84.6589	112.793	84.5831	112.793	84.5107	112.793	84.4164	112.793	84.3371	112.793	84.2298	112.793	84.153	112.793	84.0388	112.793	83.9742	112.793	83.8597	112.793	83.8164	112.793	83.7077	112.793	83.6928	112.793	83.5947	112.793	83.6121	112.793	83.5277	112.793	83.5772	112.793	83.5074	112.793	83.5842	112.793	83.5286	112.793	83.6239	112.793	83.5808	112.793	83.683	112.793	83.6507	112.793	83.7472	112.793	83.724	112.793	83.8029	112.793	83.7878	112.793	83.8394	112.793	83.832	112.793	83.8499
117.188	84.7976	117.188	84.7841	117.188	84.7554	117.188	84.7166	117.188	84.66	117.188	84.6004	117.188	84.5174	117.188	84.4448	117.188	84.3377	117.188	84.2618	117.188	84.1339	117.188	84.0662	117.188	83.9218	117.188	83.8737	117.188	83.718	117.188	83.6999	117.188	83.5391	117.188	83.5581	117.188	83.3986	117.188	83.4575	117.188	83.3058	117.188	83.4019	117.188	83.2635	117.188	83.3887	117.188	83.2679	117.188	83.4099	117.188	83.3091	117.188	83.4531	117.188	83.3733	117.188	83.5044	117.188	83.4455	117.188	83.5499	117.188	83.5113	117.188	83.5785	117.188	83.5594	117.188	83.5825
120.117	84.7245	120.117	84.7043	120.117	84.6869	120.117	84.6281	120.117	84.5943	120.117	84.5015	120.117	84.4532	120.117	84.3343	120.117	84.2742	120.117	84.1394	120.117	84.0713	120.117	83.9326	120.117	83.8604	120.117	83.7307	120.117	83.6587	120.117	83.5502	120.117	83.4822	120.117	83.4051	120.117	83.3439	120.117	83.3046	120.117	83.2521	120.117	83.252	120.117	83.2088	120.117	83.2441	120.117	83.2098	120.117	83.2718	120.117	83.2455	120.117	83.3222	120.117	83.3026	120.117	83.3807	120.117	83.3668	120.117	83.4334	120.117	83.4245	120.117	83.469	120.117	83.4646	120.117	83.4803
124.512	84.4921	124.512	84.4702	124.512	84.4539	124.512	84.3897	124.512	84.3586	124.512	84.2565	124.512	84.2136	124.512	84.0805	124.512	84.0303	124.512	83.8757	124.512	83.8236	124.512	83.6587	124.512	83.6108	124.512	83.4477	124.512	83.41	124.512	83.2606	124.512	83.2381	124.512	83.1126	124.512	83.1084	124.512	83.0141	124.512	83.0286	124.512	82.9689	124.512	82.9999	124.512	82.9733	124.512	83.0162	124.512	83.0173	124.512	83.0662	124.512	83.0865	124.512	83.135	124.512	83.1646	124.512	83.2067	124.512	83.236	124.512	83.2668	124.512	83.2879	124.512	83.3042	124.512	83.3118
128.906	84.2216	128.906	84.2051	128.906	84.1763	128.906	84.1283	128.906	84.0726	128.906	83.9971	128.906	83.9184	128.906	83.8221	128.906	83.7262	128.906	83.6176	128.906	83.512	128.906	83.4007	128.906	83.2942	128.906	83.1903	128.906	83.0922	128.906	83.0047	128.906	82.9237	128.906	82.8597	128.906	82.8027	128.906	82.7661	128.906	82.7365	128.906	82.7276	128.906	82.7253	128.906	82.7406	128.906	82.7615	128.906	82.7949	128.906	82.8316	128.906	82.8751	128.906	82.919	128.906	82.964	128.906	83.0061	128.906	83.0447	128.906	83.0775	128.906	83.1034	128.906	83.1212	128.906	83.1303
133.301	84.0524	133.301	84.0433	133.301	83.9976	133.301	83.9721	133.301	83.8823	133.301	83.845	133.301	83.7144	133.301	83.6727	133.301	83.5065	133.301	83.4699	133.301	83.2751	133.301	83.2538	133.301	83.0397	133.301	83.0434	133.301	82.8209	133.301	82.857	133.301	82.6382	133.301	82.7102	133.301	82.5068	133.301	82.6135	133.301	82.4357	133.301	82.5705	133.301	82.4252	133.301	82.5777	133.301	82.4676	133.301	82.6249	133.301	82.5481	133.301	82.6971	133.301	82.6484	133.301	82.7772	133.301	82.7497	133.301	82.8486	133.301	82.8351	133.301	82.8972	133.301	82.8919	133.301	82.9131
139.16	83.7629	139.16	83.7504	139.16	83.7068	139.16	83.6713	139.16	83.5857	139.16	83.5322	139.16	83.4082	139.16	83.3452	139.16	83.1876	139.16	83.1262	139.16	82.9416	139.16	82.8948	139.16	82.6909	139.16	82.672	139.16	82.4574	139.16	82.4783	139.16	82.2621	139.16	82.3306	139.16	82.1217	139.16	82.2397	139.16	82.046	139.16	82.2083	139.16	82.0362	139.16	82.2307	139.16	82.0842	139.16	82.2938	139.16	82.175	139.16	82.3802	139.16	82.2888	139.16	82.4707	139.16	82.4052	139.16	82.5474	139.16	82.5055	139.16	82.5958	139.16	82.5755	139.16	82.6064
143.555	83.561	143.555	83.5406	143.555	83.5093	143.555	83.4502	143.555	83.3889	143.555	83.2972	143.555	83.2088	143.555	83.0943	143.555	82.9829	143.555	82.8587	143.555	82.7297	143.555	82.611	143.555	82.471	143.555	82.3735	143.555	82.2299	143.555	82.1679	143.555	82.0285	143.555	82.0122	143.555	81.8844	143.555	81.9182	143.555	81.8078	143.555	81.889	143.555	81.7997	143.555	81.9187	143.555	81.8513	143.555	81.9933	143.555	81.9462	143.555	82.094	143.555	82.0637	143.555	82.1997	143.555	82.1821	143.555	82.291	143.555	82.2819	143.555	82.3521	143.555	82.3484	143.555	82.3726
147.949	83.3676	147.949	83.3425	147.949	83.3168	147.949	83.244	147.949	83.1936	147.949	83.0803	147.949	83.0074	147.949	82.8648	147.949	82.7727	147.949	82.616	147.949	82.509	147.949	82.3559	147.949	82.2392	147.949	82.1081	147.949	81.9878	147.949	81.8953	147.949	81.7781	147.949	81.7364	147.949	81.629	147.949	81.6432	147.949	81.5513	147.949	81.6182	147.949	81.5459	147.949	81.6548	147.949	81.6034	147.949	81.7381	147.949	81.7062	147.949	81.8481	147.949	81.8319	147.949	81.9629	147.949	81.9574	147.949	82.0623	147.949	82.0621	147.949	82.1296	147.949	82.1307	147.949	82.154
153.809	83.2494	153.809	83.2216	153.809	83.1945	153.809	83.1138	153.809	83.0607	153.809	82.9342	153.809	82.8575	153.809	82.6971	153.809	82.6001	153.809	82.4219	153.809	82.3087	153.809	82.1322	153.809	82.0076	153.809	81.8538	153.809	81.7228	153.809	81.6125	153.809	81.4798	153.809	81.4296	153.809	81.2995	153.809	81.319	153.809	81.1953	153.809	81.284	153.809	81.1699	153.809	81.3169	153.809	81.2149	153.809	81.4005	153.809	81.3127	153.809	81.5121	153.809	81.44	153.809	81.6274	153.809	81.5723	153.809	81.7244	153.809	81.6872	153.809	81.786	153.809	81.7672	153.809	81.8015
159.668	83.2154	159.668	83.1871	159.668	83.1595	159.668	83.077	159.668	83.0232	159.668	82.8934	159.668	82.8162	159.668	82.6503	159.668	82.554	159.668	82.3672	159.668	82.2572	159.668	82.0677	159.668	81.9505	159.668	81.7779	159.668	81.6605	159.668	81.5239	159.668	81.4131	159.668	81.3284	159.668	81.2298	159.668	81.2067	159.668	81.1241	159.668	81.1637	159.668	81.0987	159.668	81.1932	159.668	81.1453	159.668	81.2784	159.668	81.2457	159.668	81.3963	159.668	81.3757	159.668	81.5212	159.668	81.5094	159.668	81.6295	159.668	81.6235	159.668	81.7022	159.668	81.6998	159.668	81.7272
165.527	83.2214	165.527	83.184	165.527	83.1731	165.527	83.0634	165.527	83.0432	165.527	82.8686	165.527	82.842	165.527	82.6148	165.527	82.5857	165.527	82.3229	165.527	82.2957	165.527	82.0187	165.527	81.9976	165.527	81.7305	165.527	81.7187	165.527	81.4861	165.527	81.4852	165.527	81.309	165.527	81.3185	165.527	81.214	165.527	81.2316	165.527	81.2043	165.527	81.2265	165.527	81.2702	165.527	81.2935	165.527	81.3918	165.527	81.4136	165.527	81.5429	165.527	81.5614	165.527	81.6958	165.527	81.7101	165.527	81.8255	165.527	81.8352	165.527	81.9124	165.527	81.9173	165.527	81.9444
171.387	83.2128	171.387	83.1705	171.387	83.1631	171.387	83.0382	171.387	83.0259	171.387	82.8243	171.387	82.812	171.387	82.5439	171.387	82.5384	171.387	82.2181	171.387	82.2276	171.387	81.8736	171.387	81.9062	171.387	81.5409	171.387	81.603	171.387	81.2514	171.387	81.3462	171.387	81.0335	171.387	81.1589	171.387	80.907	171.387	81.056	171.387	80.879	171.387	81.0402	171.387	80.9413	171.387	81.1019	171.387	81.0724	171.387	81.2204	171.387	81.2423	171.387	81.3685	171.387	81.4189	171.387	81.517	171.387	81.5727	171.387	81.6394	171.387	81.6812	171.387	81.7148	171.387	81.7302
177.246	83.1227	177.246	83.1004	177.246	83.0491	177.246	82.9831	177.246	82.8852	177.246	82.7786	177.246	82.6434	177.246	82.5009	177.246	82.3425	177.246	82.1707	177.246	82.0068	177.246	81.8138	177.246	81.6645	177.246	81.4603	177.246	81.3458	177.246	81.1419	177.246	81.0792	177.246	80.8882	177.246	80.8874	177.246	80.722	177.246	80.7839	177.246	80.6545	177.246	80.7699	177.246	80.682	177.246	80.8342	177.246	80.7868	177.246	80.9548	177.246	80.9407	177.246	81.1035	177.246	81.1112	177.246	81.2503	177.246	81.2671	177.246	81.3679	177.246	81.3829	177.246	81.4358	177.246	81.4417
183.105	83.1284	183.105	83.1153	183.105	83.041	183.105	83.0033	183.105	82.8585	183.105	82.8008	183.105	82.593	183.105	82.5229	183.105	82.2638	183.105	82.1906	183.105	81.8962	183.105	81.83	183.105	81.5208	183.105	81.4711	183.105	81.1703	183.105	81.1448	183.105	80.8761	183.105	80.88	183.105	80.6637	183.105	80.6987	183.105	80.5475	183.105	80.6125	183.105	80.5289	183.105	80.6193	183.105	80.5953	183.105	80.7029	183.105	80.7231	183.105	80.8368	183.105	80.8824	183.105	80.9892	183.105	81.0419	183.105	81.129	183.105	81.1733	183.105	81.2302	183.105	81.2551	183.105	81.2749
188.965	83.277	188.965	83.2629	188.965	83.1897	188.965	83.1503	188.965	83.0046	188.965	82.9492	188.965	82.7325	188.965	82.6751	188.965	82.3913	188.965	82.3495	188.965	82.0061	188.965	81.998	188.965	81.6078	188.965	81.6494	188.965	81.2311	188.965	81.3325	188.965	80.9105	188.965	81.0736	188.965	80.6747	188.965	80.8926	188.965	80.5411	188.965	80.7995	188.965	80.5119	188.965	80.7924	188.965	80.5743	188.965	80.8568	188.965	80.7035	188.965	80.9683	188.965	80.8684	188.965	81.0971	188.965	81.0369	188.965	81.2134	188.965	81.1808	188.965	81.2922	188.965	81.2782	188.965	81.3163
196.289	83.5084	196.289	83.4706	196.289	83.4391	196.289	83.3293	196.289	83.2665	196.289	83.0948	196.289	83.001	196.289	82.7842	196.289	82.66	196.289	82.4213	196.289	82.2674	196.289	82.0355	196.289	81.853	196.289	81.6597	196.289	81.4513	196.289	81.3276	196.289	81.0983	196.289	81.0692	196.289	80.8273	196.289	80.9057	196.289	80.6625	196.289	80.8454	196.289	80.6129	196.289	80.881	196.289	80.6703	196.289	80.9913	196.289	80.81	196.289	81.1449	196.289	80.9975	196.289	81.3066	196.289	81.1952	196.289	81.4435	196.289	81.3688	196.289	81.5292	196.289	81.4917	196.289	81.5471
203.613	83.7907	203.613	83.7582	203.613	83.715	203.613	83.6192	203.613	83.536	203.613	83.3827	203.613	83.2656	203.613	83.0644	203.613	82.9217	203.613	82.6863	203.613	82.5278	203.613	82.2756	203.613	82.112	203.613	81.8631	203.613	81.7055	203.613	81.4812	203.613	81.3408	203.613	81.161	203.613	81.0482	203.613	80.9286	203.613	80.8519	203.613	80.8009	203.613	80.7644	203.613	80.781	203.613	80.7826	203.613	80.8558	203.613	80.8871	203.613	80.9973	203.613	81.0457	203.613	81.1679	203.613	81.2193	203.613	81.3284	203.613	81.3703	203.613	81.4451	203.613	81.4684	203.613	81.495
210.938	83.9653	210.938	83.9315	210.938	83.8953	210.938	83.7967	210.938	83.726	210.938	83.5704	210.938	83.4688	210.938	83.2686	210.938	83.1423	210.938	82.9129	210.938	82.771	210.938	82.5294	210.938	82.3842	210.938	82.147	210.938	82.0131	210.938	81.7948	210.938	81.6876	210.938	81.4991	210.938	81.4325	210.938	81.28	210.938	81.2637	210.938	81.1485	210.938	81.1853	210.938	81.1052	210.938	81.1893	210.938	81.14	210.938	81.2571	210.938	81.2324	210.938	81.3628	210.938	81.3556	210.938	81.4774	210.938	81.4799	210.938	81.5734	210.938	81.5784	210.938	81.629	210.938	81.6313
218.262	84.2864	218.262	84.2542	218.262	84.21	218.262	84.1175	218.262	84.0291	218.262	83.8872	218.262	83.7552	218.262	83.5817	218.262	83.4076	218.262	83.2249	218.262	83.0122	218.262	82.8458	218.262	82.6007	218.262	82.4755	218.262	82.2078	218.262	82.1447	218.262	81.8682	218.262	81.8799	218.262	81.612	218.262	81.6997	218.262	81.4593	218.262	81.6126	218.262	81.4158	218.262	81.6152	218.262	81.4715	218.262	81.6924	218.262	81.6024	218.262	81.8198	218.262	81.7748	218.262	81.9669	218.262	81.9528	218.262	82.1021	218.262	82.1034	218.262	82.1979	218.262	82.202	218.262	82.2343
225.586	84.9131	225.586	84.8926	225.586	84.8157	225.586	84.7584	225.586	84.6038	225.586	84.5222	225.586	84.2892	225.586	84.2031	225.586	83.8922	225.586	83.8266	225.586	83.4411	225.586	83.4239	225.586	82.9721	225.586	83.0294	225.586	82.5266	225.586	82.6778	225.586	82.1474	225.586	82.3995	225.586	81.8716	225.586	82.2165	225.586	81.7234	225.586	82.1381	225.586	81.7079	225.586	82.1597	225.586	81.8102	225.586	82.2625	225.586	81.9986	225.586	82.417	225.586	82.2323	225.586	82.5875	225.586	82.4686	225.586	82.738	225.586	82.6696	225.586	82.8374	225.586	82.8067	225.586	82.8636
232.91	85.5763	232.91	85.5278	232.91	85.5039	232.91	85.3629	232.91	85.3136	232.91	85.0931	232.91	85.0152	232.91	84.7373	232.91	84.6257	232.91	84.321	232.91	84.1684	232.91	83.8757	232.91	83.673	232.91	83.4373	232.91	83.1753	232.91	83.0423	232.91	82.7159	232.91	82.7231	232.91	82.3366	232.91	82.5034	232.91	82.0733	232.91	82.3935	232.91	81.9478	232.91	82.3888	232.91	81.9603	232.91	82.4706	232.91	82.0887	232.91	82.6087	232.91	82.2935	232.91	82.7656	232.91	82.5269	232.91	82.9019	232.91	82.7431	232.91	82.9836	232.91	82.9045	232.91	82.9873
241.699	85.8211	241.699	85.783	241.699	85.7424	241.699	85.6298	241.699	85.5522	241.699	85.371	241.699	85.2629	241.699	85.0228	241.699	84.8931	241.699	84.6078	241.699	84.4664	241.699	84.1546	241.699	84.0098	241.699	83.6967	241.699	83.5528	241.699	83.2704	241.699	83.1266	241.699	82.911	241.699	82.762	241.699	82.6477	241.699	82.4876	241.699	82.4966	241.699	82.3251	241.699	82.4574	241.699	82.2826	241.699	82.5133	241.699	82.3497	241.699	82.6345	241.699	82.4969	241.699	82.7841	241.699	82.6814	241.699	82.9233	241.699	82.8574	241.699	83.0174	241.699	82.9858	241.699	83.0416
250.488	86.5123	250.488	86.4847	250.488	86.4052	250.488	86.3251	250.488	86.1679	250.488	86.0424	250.488	85.8125	250.488	85.6524	250.488	85.3587	250.488	85.1769	250.488	84.8348	250.488	84.6452	250.488	84.2765	250.488	84.0937	250.488	83.7257	250.488	83.5648	250.488	83.2258	250.488	83.1014	250.488	82.8158	250.488	82.739	250.488	82.5222	250.488	82.4965	250.488	82.3533	250.488	82.3722	250.488	82.299	250.488	82.348	250.488	82.3345	250.488	82.3968	250.488	82.4266	250.488	82.4879	250.488	82.5399	250.488	82.5901	250.488	82.6415	250.488	82.6742	250.488	82.7055	250.488	82.7168
259.277	86.9076	259.277	86.8766	259.277	86.8176	259.277	86.727	259.277	86.6101	259.277	86.4669	259.277	86.2948	259.277	86.1098	259.277	85.8877	259.277	85.6735	259.277	85.4114	259.277	85.1809	259.277	84.894	259.277	84.6601	259.277	84.3692	259.277	84.1457	259.277	83.874	259.277	83.6783	259.277	83.4458	259.277	83.3008	259.277	83.1172	259.277	83.0466	259.277	82.909	259.277	82.9263	259.277	82.8237	259.277	82.9213	259.277	82.8439	259.277	82.9927	259.277	82.9362	259.277	83.097	259.277	83.0599	259.277	83.1972	259.277	83.177	259.277	83.2671	259.277	83.259	259.277	83.2901
268.066	86.801	268.066	86.757	268.066	86.711	268.066	86.5879	268.066	86.487	268.066	86.3098	268.066	86.1395	268.066	85.943	268.066	85.6884	268.066	85.509	268.066	85.1624	268.066	85.0293	268.066	84.5976	268.066	84.5256	268.066	84.0357	268.066	84.0224	268.066	83.5216	268.066	83.5513	268.066	83.0979	268.066	83.1526	268.066	82.7972	268.066	82.8694	268.066	82.635	268.066	82.7308	268.066	82.6057	268.066	82.7349	268.066	82.6842	268.066	82.8446	268.066	82.8318	268.066	83.0038	268.066	83.0042	268.066	83.1574	268.066	83.1598	268.066	83.265	268.066	83.2663	268.066	83.3037
276.855	87.1843	276.855	87.1475	276.855	87.1122	276.855	86.9978	276.855	86.937	276.855	86.7359	276.855	86.6642	276.855	86.3699	276.855	86.2981	276.855	85.9154	276.855	85.8427	276.855	85.3956	276.855	85.3047	276.855	84.8383	276.855	84.6998	276.855	84.2739	276.855	84.0578	276.855	83.7337	276.855	83.4277	276.855	83.251	276.855	82.8738	276.855	82.8618	276.855	82.4604	276.855	82.6017	276.855	82.229	276.855	82.4916	276.855	82.1818	276.855	82.5203	276.855	82.2815	276.855	82.6391	276.855	82.4657	276.855	82.7798	276.855	82.6657	276.855	82.8799	276.855	82.8229	276.855	82.8988
287.109	86.9089	287.109	86.8575	287.109	86.8403	287.109	86.6937	287.109	86.6545	287.109	86.4327	287.109	86.3653	287.109	86.094	287.109	85.9948	287.109	85.6985	287.109	85.5687	287.109	85.2674	287.109	85.1107	287.109	84.8212	287.109	84.6397	287.109	84.3789	287.109	84.1724	287.109	83.9582	287.109	83.7292	287.109	83.5766	287.109	83.3381	287.109	83.2547	287.109	83.032	287.109	83.016	287.109	82.8379	287.109	82.8809	287.109	82.7633	287.109	82.8533	287.109	82.7905	287.109	82.9097	287.109	82.8821	287.109	83.0039	287.109	82.9926	287.109	83.0845	287.109	83.08	287.109	83.1143
297.363	87.205	297.363	87.182	297.363	87.091	297.363	87.0296	297.363	86.8454	297.363	86.7663	297.363	86.4854	297.363	86.4176	297.363	86.0383	297.363	86.0105	297.363	85.5382	297.363	85.5685	297.363	85.02	297.363	85.1107	297.363	84.5124	297.363	84.655	297.363	84.0322	297.363	84.2212	297.363	83.5855	297.363	83.833	297.363	83.1798	297.363	83.5141	297.363	82.8372	297.363	83.2822	297.363	82.5971	297.363	83.1442	297.363	82.4975	297.363	83.0946	297.363	82.5453	297.363	83.1131	297.363	82.7022	297.363	83.1634	297.363	82.9005	297.363	83.1986	297.363	83.073	297.363	83.1758
307.617	87.0801	307.617	86.9887	307.617	87.0315	307.617	86.7629	307.617	86.8474	307.617	86.4192	307.617	86.5402	307.617	85.9869	307.617	86.1294	307.617	85.5055	307.617	85.6412	307.617	85.0182	307.617	85.1084	307.617	84.5608	307.617	84.5703	307.617	84.1506	307.617	84.0679	307.617	83.7852	307.617	83.6346	307.617	83.4531	307.617	83.2849	307.617	83.151	307.617	83.0145	307.617	82.8946	307.617	82.8134	307.617	82.7156	307.617	82.683	307.617	82.6397	307.617	82.6349	307.617	82.664	307.617	82.6696	307.617	82.7488	307.617	82.7564	307.617	82.8353	307.617	82.8406	307.617	82.8729
319.336	86.6408	319.336	86.594	319.336	86.5222	319.336	86.3839	319.336	86.2473	319.336	86.0232	319.336	85.8369	319.336	85.534	319.336	85.3231	319.336	84.9482	319.336	84.7465	319.336	84.3084	319.336	84.1526	319.336	83.6695	319.336	83.5873	319.336	83.0956	319.336	83.0934	319.336	82.649	319.336	82.7067	319.336	82.368	319.336	82.4477	319.336	82.2485	319.336	82.3134	319.336	82.2463	319.336	82.2759	319.336	82.3019	319.336	82.2956	319.336	82.3673	319.336	82.3376	319.336	82.4174	319.336	82.3811	319.336	82.447	319.336	82.4175	319.336	82.4592	319.336	82.4435	319.336	82.4576
329.59	86.336	329.59	86.3005	329.59	86.2526	329.59	86.1489	329.59	86.0534	329.59	85.8882	329.59	85.7473	329.59	85.5281	329.59	85.3487	329.59	85.0797	329.59	84.8749	329.59	84.5544	329.59	84.3436	329.59	83.9664	329.59	83.7714	329.59	83.3395	329.59	83.1775	329.59	82.7173	329.59	82.5904	329.59	82.1683	329.59	82.0541	329.59	81.7716	329.59	81.6255	329.59	81.5796	329.59	81.3562	329.59	81.5826	329.59	81.2664	329.59	81.7118	329.59	81.3328	329.59	81.8782	329.59	81.4998	329.59	82.0086	329.59	81.704	329.59	82.0599	329.59	81.8904	329.59	82.0178
341.309	86.0318	341.309	86.0045	341.309	85.9211	341.309	85.8483	341.309	85.6758	341.309	85.5827	341.309	85.3119	341.309	85.2328	341.309	84.8564	341.309	84.8247	341.309	84.3439	341.309	84.3779	341.309	83.8129	341.309	83.9025	341.309	83.3036	341.309	83.4019	341.309	82.8537	341.309	82.8843	341.309	82.4921	341.309	82.3779	341.309	82.2322	341.309	81.9413	341.309	82.0733	341.309	81.6526	341.309	82.0097	341.309	81.5692	341.309	82.0367	341.309	81.6849	341.309	82.1436	341.309	81.9278	341.309	82.2999	341.309	82.201	341.309	82.4541	341.309	82.423	341.309	82.5496	341.309	82.5444
353.027	86.2361	353.027	86.2497	353.027	86.1037	353.027	86.1381	353.027	85.863	353.027	85.8995	353.027	85.5277	353.027	85.5376	353.027	85.1123	353.027	85.0648	353.027	84.6265	353.027	84.502	353.027	84.0731	353.027	83.8743	353.027	83.45	353.027	83.2043	353.027	82.7613	353.027	82.5126	353.027	82.0345	353.027	81.8301	353.027	81.3387	353.027	81.2178	353.027	80.7875	353.027	80.7701	353.027	80.4996	353.027	80.5776	353.027	80.5218	353.027	80.6607	353.027	80.785	353.027	80.9416	353.027	81.1499	353.027	81.2876	353.027	81.4815	353.027	81.5745	353.027	81.6871	353.027	81.7198
366.211	86.4998	366.211	86.3803	366.211	86.4438	366.211	86.0969	366.211	86.2196	366.211	85.6801	366.211	85.8495	366.211	85.1764	366.211	85.3667	366.211	84.6393	366.211	84.811	366.211	84.1166	366.211	84.2239	366.211	83.6392	366.211	83.6446	366.211	83.2146	366.211	83.1036	366.211	82.8283	366.211	82.6157	366.211	82.4526	366.211	82.1754	366.211	82.0634	366.211	81.7619	366.211	81.6607	366.211	81.359	366.211	81.2816	366.211	80.9842	366.211	80.989	366.211	80.6996	366.211	80.8293	366.211	80.5725	366.211	80.7903	366.211	80.6027	366.211	80.8024	366.211	80.7063	366.211	80.786
379.395	86.6547	379.395	86.6052	379.395	86.5516	379.395	86.4135	379.395	86.3003	379.395	86.0967	379.395	85.9209	379.395	85.6715	379.395	85.4444	379.395	85.1512	379.395	84.9028	379.395	84.5498	379.395	84.3206	379.395	83.8907	379.395	83.7147	379.395	83.2103	379.395	83.1015	379.395	82.554	379.395	82.5058	379.395	81.9648	379.395	81.9619	379.395	81.4724	379.395	81.5022	379.395	81.0898	379.395	81.1434	379.395	80.8188	379.395	80.8845	379.395	80.6569	379.395	80.7177	379.395	80.5942	379.395	80.6365	379.395	80.604	379.395	80.6254	379.395	80.6411	379.395	80.6484	379.395	80.6613
392.578	86.0208	392.578	85.9548	392.578	85.9485	392.578	85.7649	392.578	85.7392	392.578	85.4779	392.578	85.4104	392.578	85.1262	392.578	84.9919	392.578	84.7384	392.578	84.5194	392.578	84.3308	392.578	84.0262	392.578	83.9052	392.578	83.5353	392.578	83.4529	392.578	83.0569	392.578	82.9622	392.578	82.5915	392.578	82.4294	392.578	82.1382	392.578	81.8732	392.578	81.7068	392.578	81.3471	392.578	81.3285	392.578	80.9356	392.578	81.0543	392.578	80.7168	392.578	80.9276	392.578	80.7064	392.578	80.9443	392.578	80.8383	392.578	81.0387	392.578	81.0047	392.578	81.1181	392.578	81.1125
405.762	86.0546	405.762	85.9658	405.762	85.9649	405.762	85.6987	405.762	85.7139	405.762	85.2768	405.762	85.3291	405.762	84.7493	405.762	84.8428	405.762	84.1834	405.762	84.2885	405.762	83.6462	405.762	83.7014	405.762	83.1831	405.762	83.1229	405.762	82.8052	405.762	82.6042	405.762	82.4948	405.762	82.1979	405.762	82.22	405.762	81.9338	405.762	81.9513	405.762	81.7955	405.762	81.6746	405.762	81.7281	405.762	81.4045	405.762	81.6757	405.762	81.1869	405.762	81.6131	405.762	81.0757	405.762	81.5445	405.762	81.0887	405.762	81.4777	405.762	81.1869	405.762	81.4039	405.762	81.3059
420.41	86.2225	420.41	86.219	420.41	86.0487	420.41	86.0466	420.41	85.713	420.41	85.7295	420.41	85.2581	420.41	85.2976	420.41	84.7455	420.41	84.7791	420.41	84.2341	420.41	84.1946	420.41	83.7522	420.41	83.5599	420.41	83.2847	420.41	82.8956	420.41	82.7877	420.41	82.2448	420.41	82.2239	420.41	81.6806	420.41	81.5968	420.41	81.2829	420.41	80.968	420.41	81.0854	420.41	80.4484	420.41	81.0465	420.41	80.1519	420.41	81.0845	420.41	80.125	420.41	81.132	420.41	80.3106	420.41	81.1528	420.41	80.5885	420.41	81.1262	420.41	80.8481	420.41	81.0304
435.059	85.6904	435.059	85.605	435.059	85.5954	435.059	85.3535	435.059	85.3349	435.059	84.974	435.059	84.9487	435.059	84.5186	435.059	84.4899	435.059	84.0385	435.059	84.0059	435.059	83.5676	435.059	83.5247	435.059	83.1117	435.059	83.0542	435.059	82.6511	435.059	82.5983	435.059	82.1603	435.059	82.1721	435.059	81.6359	435.059	81.8041	435.059	81.1234	435.059	81.5236	435.059	80.7293	435.059	81.3504	435.059	80.5856	435.059	81.2975	435.059	80.7538	435.059	81.3762	435.059	81.1557	435.059	81.5785	435.059	81.6198	435.059	81.8458	435.059	81.9798	435.059	82.069	435.059	82.1349
451.172	86.6237	451.172	86.5017	451.172	86.5053	451.172	86.1528	451.172	86.1547	451.172	85.6166	451.172	85.6025	451.172	84.9623	451.172	84.9051	451.172	84.2789	451.172	84.1431	451.172	83.6458	451.172	83.4065	451.172	83.1005	451.172	82.7694	451.172	82.6326	451.172	82.2667	451.172	82.2088	451.172	81.891	451.172	81.8039	451.172	81.6038	451.172	81.4104	451.172	81.3536	451.172	81.0349	451.172	81.0984	451.172	80.7083	451.172	80.8416	451.172	80.5022	451.172	80.6538	451.172	80.4909	451.172	80.6269	451.172	80.6582	451.172	80.7612	451.172	80.8735	451.172	80.9301	451.172	80.9864
465.82	86.7392	465.82	86.6738	465.82	86.5862	465.82	86.3904	465.82	86.2374	465.82	85.9124	465.82	85.7327	465.82	85.2835	465.82	85.1187	465.82	84.5645	465.82	84.4376	465.82	83.8298	465.82	83.7219	465.82	83.1535	465.82	82.9977	465.82	82.5823	465.82	82.2933	465.82	82.1129	465.82	81.6414	465.82	81.6989	465.82	81.071	465.82	81.2835	465.82	80.5972	465.82	80.8358	465.82	80.2229	465.82	80.3726	465.82	79.9526	465.82	79.9587	465.82	79.7979	465.82	79.6812	465.82	79.7582	465.82	79.5919	465.82	79.7892	465.82	79.6541	465.82	79.8096	465.82	79.7588
483.398	86.6376	483.398	86.6138	483.398	86.4596	483.398	86.3908	483.398	86.0957	483.398	85.9846	483.398	85.5869	483.398	85.4233	483.398	84.9992	483.398	84.746	483.398	84.406	483.398	83.9988	483.398	83.8542	483.398	83.2293	483.398	83.344	483.398	82.4795	483.398	82.8481	483.398	81.7835	483.398	82.3527	483.398	81.1719	483.398	81.875	483.398	80.6722	483.398	81.4326	483.398	80.2956	483.398	81.0054	483.398	80.0334	483.398	80.5542	483.398	79.8808	483.398	80.1008	483.398	79.8493	483.398	79.7708	483.398	79.9177	483.398	79.69	483.398	79.99	483.398	79.8137	483.398	79.9584
499.512	86.2163	499.512	86.144	499.512	86.0431	499.512	85.8607	499.512	85.6219	499.512	85.4154	499.512	84.9963	499.512	84.8579	499.512	84.2592	499.512	84.2344	499.512	83.5331	499.512	83.5925	499.512	82.9246	499.512	82.9925	499.512	82.4794	499.512	82.5077	499.512	82.181	499.512	82.1965	499.512	81.9888	499.512	82.0499	499.512	81.8676	499.512	81.9708	499.512	81.7822	499.512	81.8208	499.512	81.6813	499.512	81.501	499.512	81.5038	499.512	81.0128	499.512	81.2135	499.512	80.477	499.512	80.8377	499.512	80.077	499.512	80.4615	499.512	79.9208	499.512	80.1642	499.512	79.9746
517.09	86.0243	517.09	85.8579	517.09	85.9529	517.09	85.4927	517.09	85.6388	517.09	84.9987	517.09	85.1142	517.09	84.4643	517.09	84.4506	517.09	83.9636	517.09	83.7433	517.09	83.5167	517.09	83.0774	517.09	83.0766	517.09	82.4951	517.09	82.5687	517.09	82.0002	517.09	81.9683	517.09	81.6027	517.09	81.3731	517.09	81.3436	517.09	80.9932	517.09	81.2556	517.09	80.9786	517.09	81.3128	517.09	81.2463	517.09	81.4531	517.09	81.5808	517.09	81.6324	517.09	81.8346	517.09	81.8303	517.09	81.9875	517.09	82.0121	517.09	82.0837	517.09	82.1246	517.09	82.1403
536.133	87.2491	536.133	87.113	536.133	87.0132	536.133	86.6067	536.133	86.4597	536.133	85.7922	536.133	85.6806	536.133	84.7876	536.133	84.7794	536.133	83.7577	536.133	83.8475	536.133	82.8777	536.133	82.9538	536.133	82.248	536.133	82.1408	536.133	81.8267	536.133	81.4359	536.133	81.4882	536.133	80.8855	536.133	81.1618	536.133	80.569	536.133	80.9125	536.133	80.5386	536.133	80.8789	536.133	80.739	536.133	81.0963	536.133	81.0381	536.133	81.4363	536.133	81.3315	536.133	81.747	536.133	81.587	536.133	81.9601	536.133	81.8076	536.133	82.0687	536.133	81.9806	536.133	82.0746
555.176	87.3573	555.176	87.3549	555.176	87.0927	555.176	87.0732	555.176	86.5903	555.176	86.5152	555.176	85.8968	555.176	85.7031	555.176	85.0747	555.176	84.693	555.176	84.1926	555.176	83.5848	555.176	83.3063	555.176	82.503	555.176	82.4536	555.176	81.5612	555.176	81.6681	555.176	80.8504	555.176	80.9883	555.176	80.427	555.176	80.4515	555.176	80.2434	555.176	80.0899	555.176	80.124	555.176	79.9171	555.176	79.9195	555.176	79.9025	555.176	79.7107	555.176	80.0145	555.176	79.7962	555.176	80.2806	555.176	80.2896	555.176	80.6925	555.176	80.8751	555.176	81.0753	555.176	81.1785
574.219	87.2822	574.219	87.1909	574.219	87.0322	574.219	86.8042	574.219	86.4347	574.219	86.1827	574.219	85.5681	574.219	85.4054	574.219	84.6023	574.219	84.565	574.219	83.7027	574.219	83.7313	574.219	82.8996	574.219	82.9107	574.219	82.1048	574.219	82.0653	574.219	81.2795	574.219	81.2012	574.219	80.5767	574.219	80.456	574.219	80.2725	574.219	80.0632	574.219	80.4161	574.219	80.1243	574.219	80.7062	574.219	80.4569	574.219	80.8326	574.219	80.8111	574.219	80.7356	574.219	81.1029	574.219	80.6212	574.219	81.3511	574.219	80.7521	574.219	81.4993	574.219	81.1103	574.219	81.4245
594.727	88.111	594.727	88.0974	594.727	87.798	594.727	87.7461	594.727	87.1849	594.727	87.0775	594.727	86.3031	594.727	86.1504	594.727	85.2047	594.727	85.067	594.727	84.0105	594.727	83.9761	594.727	82.9257	594.727	83.0324	594.727	82.1066	594.727	82.2991	594.727	81.4923	594.727	81.7187	594.727	80.9052	594.727	81.2332	594.727	80.3214	594.727	80.8935	594.727	80.0023	594.727	80.7773	594.727	80.2238	594.727	80.8392	594.727	80.8412	594.727	81.0089	594.727	81.49	594.727	81.3617	594.727	81.9967	594.727	81.9327	594.727	82.3817	594.727	82.4818	594.727	82.6623	594.727	82.7382
615.234	87.9234	615.234	87.7839	615.234	87.7675	615.234	87.3705	615.234	87.3319	615.234	86.7401	615.234	86.6474	615.234	85.949	615.234	85.758	615.234	85.0233	615.234	84.7374	615.234	83.9693	615.234	83.6742	615.234	82.8212	615.234	82.624	615.234	81.6847	615.234	81.6022	615.234	80.7171	615.234	80.6191	615.234	80.0109	615.234	79.717	615.234	79.5475	615.234	79.0434	615.234	79.2949	615.234	78.8267	615.234	79.2329	615.234	79.1055	615.234	79.3267	615.234	79.6975	615.234	79.5912	615.234	80.4493	615.234	80.0875	615.234	81.1573	615.234	80.7562	615.234	81.5096	615.234	81.3345
637.207	87.0924	637.207	86.9633	637.207	86.9384	637.207	86.5563	637.207	86.5196	637.207	85.9357	637.207	85.8761	637.207	85.2497	637.207	85.0823	637.207	84.6455	637.207	84.2348	637.207	84.1019	637.207	83.4001	637.207	83.4174	637.207	82.567	637.207	82.4353	637.207	81.6875	637.207	81.3001	637.207	80.8054	637.207	80.4618	637.207	80.1258	637.207	80.0785	637.207	79.749	637.207	79.6721	637.207	79.3598	637.207	78.8947	637.207	78.6505	637.207	78.2689	637.207	78.0808	637.207	78.9386	637.207	78.7961	637.207	80.5344	637.207	80.4474	637.207	81.7962	637.207	81.7558	637.207	82.2273
659.18	87.3758	659.18	87.2302	659.18	87.1478	659.18	86.7155	659.18	86.5628	659.18	85.9002	659.18	85.6725	659.18	84.9335	659.18	84.6241	659.18	84.0022	659.18	83.635	659.18	83.2402	659.18	82.8255	659.18	82.6342	659.18	82.1134	659.18	82.0184	659.18	81.3425	659.18	81.1682	659.18	80.4384	659.18	80.0507	659.18	79.5104	659.18	79.2762	659.18	78.9779	659.18	79.6294	659.18	79.1695	659.18	80.3937	659.18	79.5016	659.18	80.4397	659.18	79.1778	659.18	79.5375	659.18	78.4188	659.18	78.5119	659.18	78.61	659.18	78.741	659.18	79.5046	659.18	79.5645
682.617	87.0408	682.617	87.0988	682.617	86.6546	682.617	86.8209	682.617	85.9625	682.617	86.1833	682.617	84.9889	682.617	85.1613	682.617	83.7686	682.617	83.8501	682.617	82.4999	682.617	82.5812	682.617	81.5998	682.617	81.7301	682.617	81.1676	682.617	81.2141	682.617	80.6963	682.617	80.6089	682.617	79.8224	682.617	79.7879	682.617	78.868	682.617	79.2161	682.617	78.4543	682.617	79.4074	682.617	78.5329	682.617	79.9022	682.617	78.7071	682.617	79.9399	682.617	78.7743	682.617	79.4832	682.617	78.6041	682.617	79.1747	682.617	78.4455	682.617	79.2628	682.617	78.7511	682.617	79.1961
707.52	87.5629	707.52	87.3808	707.52	87.3937	707.52	86.8662	707.52	86.9216	707.52	86.0817	707.52	86.2253	707.52	85.0746	707.52	85.3495	707.52	83.8429	707.52	84.2998	707.52	82.4912	707.52	83.089	707.52	81.4529	707.52	81.8166	707.52	81.0195	707.52	80.6891	707.52	80.7589	707.52	79.6951	707.52	80.2491	707.52	78.453	707.52	79.5704	707.52	77.1492	707.52	79.0887	707.52	77.0674	707.52	79.0552	707.52	77.9418	707.52	79.2429	707.52	78.5829	707.52	79.4026	707.52	79.1119	707.52	79.9075	707.52	79.9258	707.52	80.7614	707.52	80.782	707.52	81.1609
732.422	87.0544	732.422	86.9713	732.422	86.9445	732.422	86.6099	732.422	86.6253	732.422	85.9577	732.422	85.9747	732.422	85.1684	732.422	84.9464	732.422	84.3846	732.422	83.6898	732.422	83.5048	732.422	82.4848	732.422	82.3818	732.422	81.5595	732.422	81.2062	732.422	80.9375	732.422	80.2403	732.422	80.4397	732.422	79.2055	732.422	79.7976	732.422	78.101	732.422	78.9045	732.422	77.9158	732.422	78.2202	732.422	78.5935	732.422	78.2788	732.422	79.0635	732.422	78.4091	732.422	79.1767	732.422	77.9924	732.422	79.1877	732.422	77.7185	732.422	79.1132	732.422	78.1959	732.422	78.7994
757.324	87.4758	757.324	87.2588	757.324	87.2217	757.324	86.6838	757.324	86.4557	757.324	85.8442	757.324	85.3246	757.324	84.838	757.324	84.134	757.324	83.8173	757.324	83.1879	757.324	82.9301	757.324	82.5954	757.324	82.2563	757.324	82.1833	757.324	81.8293	757.324	81.6373	757.324	81.3815	757.324	80.8454	757.324	80.5634	757.324	80.1204	757.324	79.8723	757.324	79.5743	757.324	80.0406	757.324	78.8556	757.324	80.3617	757.324	78.4719	757.324	80.3287	757.324	78.882	757.324	80.3786	757.324	79.2884	757.324	80.649	757.324	79.7694	757.324	80.8254	757.324	80.4363	757.324	80.7977
785.156	86.555	785.156	86.5333	785.156	86.3865	785.156	86.2527	785.156	86.1187	785.156	85.7043	785.156	85.6582	785.156	84.7573	785.156	84.8646	785.156	83.3378	785.156	83.8995	785.156	82.0458	785.156	83.1739	785.156	81.6461	785.156	82.6772	785.156	81.3379	785.156	81.9352	785.156	80.523	785.156	80.5937	785.156	79.8925	785.156	78.7499	785.156	79.8558	785.156	77.4362	785.156	80.0077	785.156	77.019	785.156	79.9089	785.156	75.9101	785.156	79.0918	785.156	73.8911	785.156	78.3219	785.156	74.3783	785.156	79.4183	785.156	77.8626	785.156	81.0439	785.156	80.5895	785.156	81.6066
811.523	84.7832	811.523	84.8065	811.523	84.7583	811.523	84.7556	811.523	84.6599	811.523	84.463	811.523	84.2906	811.523	83.7671	811.523	83.3641	811.523	82.4916	811.523	81.8282	811.523	80.5948	811.523	80.3604	811.523	79.0983	811.523	79.8189	811.523	79.2897	811.523	79.7968	811.523	79.1305	811.523	79.2904	811.523	76.5305	811.523	77.6254	811.523	71.7756	811.523	75.4156	811.523	72.4455	811.523	75.8709	811.523	75.1053	811.523	77.5729	811.523	76.0954	811.523	77.838	811.523	75.4849	811.523	76.6994	811.523	74.8249	811.523	75.5735	811.523	76.0231	811.523	76.1133	811.523	76.7735
840.82	83.661	840.82	83.6149	840.82	83.9401	840.82	83.7821	840.82	84.076	840.82	83.7661	840.82	83.722	840.82	83.2278	840.82	82.8223	840.82	82.1519	840.82	81.5162	840.82	80.8763	840.82	80.1337	840.82	79.6969	840.82	79.2005	840.82	78.6772	840.82	78.7456	840.82	78.1647	840.82	78.4272	840.82	77.6739	840.82	77.5787	840.82	75.6223	840.82	75.3515	840.82	71.9496	840.82	73.1843	840.82	74.5856	840.82	75.1524	840.82	77.3809	840.82	76.9416	840.82	76.8245	840.82	75.5959	840.82	73.3268	840.82	70.1171	840.82	70.8375	840.82	68.6913	840.82	71.3731
870.117	85.9825	870.117	85.7879	870.117	85.8727	870.117	85.3829	870.117	85.6674	870.117	84.9293	870.117	85.4599	870.117	84.1983	870.117	84.826	870.117	82.7819	870.117	83.2599	870.117	80.7094	870.117	81.0934	870.117	79.0466	870.117	79.9011	870.117	79.3184	870.117	80.1335	870.117	80.1199	870.117	80.4513	870.117	79.6691	870.117	79.9585	870.117	78.0197	870.117	78.3631	870.117	76.0063	870.117	76.8967	870.117	75.188	870.117	77.314	870.117	77.2443	870.117	78.898	870.117	78.7705	870.117	80.0754	870.117	78.4882	870.117	79.8702	870.117	78.0755	870.117	79.0182	870.117	78.4683
900.879	85.5132	900.879	85.6015	900.879	85.079	900.879	85.387	900.879	84.415	900.879	84.9262	900.879	83.7004	900.879	84.2667	900.879	82.9514	900.879	83.4196	900.879	81.9444	900.879	82.1164	900.879	80.4948	900.879	79.8761	900.879	79.4269	900.879	77.2949	900.879	79.352	900.879	77.2052	900.879	79.1387	900.879	78.0894	900.879	79.1449	900.879	77.2327	900.879	78.9264	900.879	76.04	900.879	77.224	900.879	76.2462	900.879	76.3781	900.879	75.9839	900.879	77.0852	900.879	77.1349	900.879	76.8622	900.879	77.4139	900.879	76.8242	900.879	76.7809	900.879	77.5614	900.879	77.491
933.105	85.0793	933.105	84.9119	933.105	85.2057	933.105	84.5022	933.105	85.3841	933.105	84.0547	933.105	85.3477	933.105	83.747	933.105	84.7885	933.105	83.1337	933.105	83.6779	933.105	81.9613	933.105	82.281	933.105	81.2744	933.105	80.9868	933.105	81.5343	933.105	80.5931	933.105	81.6237	933.105	80.7946	933.105	81.1048	933.105	80.1229	933.105	79.3866	933.105	78.2641	933.105	76.02	933.105	76.0939	933.105	75.068	933.105	75.8134	933.105	77.1183	933.105	77.9288	933.105	77.9268	933.105	79.1143	933.105	78.5186	933.105	79.3068	933.105	79.4967	933.105	79.862	933.105	80.1038
965.332	83.2751	965.332	83.2986	965.332	84.3147	965.332	84.6725	965.332	85.6461	965.332	86.2924	965.332	86.7054	965.332	86.9326	965.332	86.9227	965.332	86.2134	965.332	85.7547	965.332	84.3145	965.332	83.403	965.332	82.0425	965.332	82.3361	965.332	81.8126	965.332	83.2319	965.332	83.4082	965.332	83.8675	965.332	84.0921	965.332	83.9928	965.332	83.088	965.332	83.0792	965.332	80.7262	965.332	80.6942	965.332	78.7089	965.332	80.2624	965.332	80.3272	965.332	81.3507	965.332	81.0553	965.332	80.573	965.332	78.1407	965.332	79.2975	965.332	77.9919	965.332	79.962	965.332	80.3282
1,000.49	86.3886	1,000.49	86.4811	1,000.49	85.5002	1,000.49	85.8736	1,000.49	84.6648	1,000.49	85.3577	1,000.49	84.6225	1,000.49	85.1019	1,000.49	84.3196	1,000.49	84.1317	1,000.49	82.8683	1,000.49	81.4516	1,000.49	80.209	1,000.49	77.1272	1,000.49	78.0405	1,000.49	78.6521	1,000.49	80.028	1,000.49	82.5172	1,000.49	82.8391	1,000.49	84.2859	1,000.49	84.3765	1,000.49	84.0547	1,000.49	84.2057	1,000.49	81.8402	1,000.49	81.7274	1,000.49	77.802	1,000.49	79.0887	1,000.49	77.8025	1,000.49	81.0491	1,000.49	80.5826	1,000.49	81.7279	1,000.49	79.7441	1,000.49	79.0285	1,000.49	75.4342	1,000.49	73.9617	1,000.49	72.6772
1,035.64	88.1613	1,035.64	87.7438	1,035.64	87.075	1,035.64	85.859	1,035.64	84.6013	1,035.64	83.2838	1,035.64	81.813	1,035.64	82.0025	1,035.64	80.8125	1,035.64	82.1503	1,035.64	81.3476	1,035.64	81.7698	1,035.64	81.028	1,035.64	79.8652	1,035.64	77.9529	1,035.64	74.8188	1,035.64	68.0475	1,035.64	69.0826	1,035.64	72.4983	1,035.64	79.1933	1,035.64	78.9305	1,035.64	82.056	1,035.64	80.9694	1,035.64	81.7781	1,035.64	79.9925	1,035.64	79.7782	1,035.64	76.2045	1,035.64	76.746	1,035.64	75.0074	1,035.64	77.3987	1,035.64	77.2881	1,035.64	78.4884	1,035.64	78.1384	1,035.64	76.8462	1,035.64	76.7814	1,035.64	75.4193
1,072.27	85.2331	1,072.27	85.1852	1,072.27	84.5333	1,072.27	84.8974	1,072.27	83.7537	1,072.27	84.7224	1,072.27	83.7281	1,072.27	84.3135	1,072.27	84.0663	1,072.27	84.1404	1,072.27	83.9959	1,072.27	84.124	1,072.27	83.009	1,072.27	82.665	1,072.27	81.0772	1,072.27	78.7526	1,072.27	77.6674	1,072.27	73.9762	1,072.27	73.8051	1,072.27	76.699	1,072.27	76.5327	1,072.27	80.3083	1,072.27	79.9362	1,072.27	81.7225	1,072.27	80.8876	1,072.27	80.7456	1,072.27	79.0882	1,072.27	78.6934	1,072.27	75.6732	1,072.27	79.7461	1,072.27	76.3431	1,072.27	79.5552	1,072.27	76.3704	1,072.27	77.4826	1,072.27	75.3544	1,072.27	76.1648
1,108.89	83.9108	1,108.89	84.2464	1,108.89	83.8195	1,108.89	84.1348	1,108.89	84.0444	1,108.89	83.6474	1,108.89	84.022	1,108.89	83.3206	1,108.89	83.7858	1,108.89	83.0639	1,108.89	83.7118	1,108.89	82.5387	1,108.89	83.3183	1,108.89	81.4891	1,108.89	81.9809	1,108.89	79.8448	1,108.89	79.8277	1,108.89	77.6901	1,108.89	77.4313	1,108.89	76.069	1,108.89	75.8744	1,108.89	77.7837	1,108.89	76.6197	1,108.89	79.0109	1,108.89	78.7729	1,108.89	78.648	1,108.89	79.035	1,108.89	76.6827	1,108.89	77.4883	1,108.89	75.6229	1,108.89	76.7417	1,108.89	76.4587	1,108.89	76.5772	1,108.89	75.6704	1,108.89	75.5027	1,108.89	74.9417
1,148.44	83.2461	1,148.44	83.3669	1,148.44	83.4057	1,148.44	83.5731	1,148.44	83.9987	1,148.44	83.761	1,148.44	84.3112	1,148.44	83.6913	1,148.44	84.0524	1,148.44	83.4149	1,148.44	83.508	1,148.44	82.969	1,148.44	81.9263	1,148.44	81.6228	1,148.44	79.1872	1,148.44	79.1806	1,148.44	77.1805	1,148.44	76.2842	1,148.44	75.9801	1,148.44	74.7553	1,148.44	76.2404	1,148.44	76.5249	1,148.44	78.3511	1,148.44	77.6093	1,148.44	79.1493	1,148.44	78.0923	1,148.44	78.9118	1,148.44	77.2037	1,148.44	76.3437	1,148.44	76.4941	1,148.44	73.9697	1,148.44	77.1942	1,148.44	75.9982	1,148.44	76.6653	1,148.44	74.8423	1,148.44	75.0818
1,189.45	82.3282	1,189.45	82.6961	1,189.45	82.8617	1,189.45	83.4142	1,189.45	83.867	1,189.45	83.9675	1,189.45	84.6076	1,189.45	84.0762	1,189.45	84.7341	1,189.45	83.2577	1,189.45	83.9659	1,189.45	82.0971	1,189.45	82.8411	1,189.45	80.3742	1,189.45	81.3595	1,189.45	76.5472	1,189.45	77.6955	1,189.45	72.9435	1,189.45	75.7195	1,189.45	73.988	1,189.45	76.7887	1,189.45	74.4757	1,189.45	76.5277	1,189.45	75.7944	1,189.45	77.5067	1,189.45	76.6189	1,189.45	77.8011	1,189.45	75.8041	1,189.45	78.4717	1,189.45	73.9494	1,189.45	75.2634	1,189.45	72.1843	1,189.45	73.2141	1,189.45	73.9623	1,189.45	73.1329	1,189.45	74.6775
1,230.47	81.9694	1,230.47	82.3361	1,230.47	82.745	1,230.47	83.7514	1,230.47	83.9934	1,230.47	84.8079	1,230.47	84.7936	1,230.47	84.5406	1,230.47	84.2928	1,230.47	83.4515	1,230.47	82.924	1,230.47	82.271	1,230.47	81.3902	1,230.47	81.1342	1,230.47	79.3496	1,230.47	78.5896	1,230.47	77.656	1,230.47	76.5902	1,230.47	75.6872	1,230.47	76.1026	1,230.47	75.6289	1,230.47	75.5439	1,230.47	76.1234	1,230.47	76.0815	1,230.47	75.776	1,230.47	75.5495	1,230.47	75.7321	1,230.47	76.1541	1,230.47	76.0004	1,230.47	75.5191	1,230.47	75.9693	1,230.47	74.5218	1,230.47	73.1478	1,230.47	71.1758	1,230.47	69.4838	1,230.47	67.256
1,274.41	81.7438	1,274.41	82.3096	1,274.41	82.9659	1,274.41	83.8839	1,274.41	84.6917	1,274.41	85.1456	1,274.41	85.4063	1,274.41	85.2368	1,274.41	84.9091	1,274.41	83.8251	1,274.41	83.7035	1,274.41	81.8672	1,274.41	82.2898	1,274.41	80.5302	1,274.41	80.2788	1,274.41	78.2758	1,274.41	76.7842	1,274.41	74.9418	1,274.41	73.5227	1,274.41	72.2781	1,274.41	75.3915	1,274.41	73.088	1,274.41	75.5025	1,274.41	74.9327	1,274.41	75.5809	1,274.41	75.3573	1,274.41	75.3416	1,274.41	73.1503	1,274.41	75.8881	1,274.41	72.5319	1,274.41	75.3336	1,274.41	72.6323	1,274.41	74.374	1,274.41	67.5671	1,274.41	68.9726	1,274.41	58.0765
1,319.82	81.13	1,319.82	81.5824	1,319.82	83.1998	1,319.82	83.6454	1,319.82	85.0085	1,319.82	84.989	1,319.82	85.4928	1,319.82	85.2093	1,319.82	85.0806	1,319.82	84.1896	1,319.82	84.0186	1,319.82	82.5499	1,319.82	82.393	1,319.82	81.0789	1,319.82	80.2328	1,319.82	78.477	1,319.82	77.469	1,319.82	73.331	1,319.82	74.4295	1,319.82	71.0094	1,319.82	74.0779	1,319.82	73.1054	1,319.82	75.0937	1,319.82	75.4949	1,319.82	76.9353	1,319.82	77.3695	1,319.82	77.0636	1,319.82	76.4687	1,319.82	75.7372	1,319.82	74.5475	1,319.82	75.8594	1,319.82	74.4472	1,319.82	75.1884	1,319.82	72.122	1,319.82	71.59	1,319.82	68.3749
1,366.7	81.9144	1,366.7	81.9698	1,366.7	83.1243	1,366.7	83.6507	1,366.7	84.8253	1,366.7	84.9364	1,366.7	85.4961	1,366.7	84.4814	1,366.7	84.6147	1,366.7	83.6061	1,366.7	82.9931	1,366.7	82.3046	1,366.7	81.9999	1,366.7	81.0297	1,366.7	80.738	1,366.7	79.1843	1,366.7	78.2428	1,366.7	74.7373	1,366.7	74.9465	1,366.7	73.1928	1,366.7	75.9426	1,366.7	73.3471	1,366.7	77.1964	1,366.7	75.5278	1,366.7	76.483	1,366.7	76.7427	1,366.7	75.9596	1,366.7	76.0407	1,366.7	74.4306	1,366.7	74.2302	1,366.7	73.8265	1,366.7	75.0438	1,366.7	73.3936	1,366.7	72.6871	1,366.7	68.6504	1,366.7	69.1265
1,413.57	82.3177	1,413.57	82.5417	1,413.57	82.9199	1,413.57	83.5033	1,413.57	84.0989	1,413.57	84.2994	1,413.57	84.7055	1,413.57	84.5406	1,413.57	84.4892	1,413.57	84.2503	1,413.57	83.5637	1,413.57	83.1775	1,413.57	81.8174	1,413.57	81.8088	1,413.57	80.7088	1,413.57	79.5725	1,413.57	78.7315	1,413.57	76.3622	1,413.57	75.2321	1,413.57	74.3757	1,413.57	75.4794	1,413.57	73.8726	1,413.57	75.3797	1,413.57	73.8227	1,413.57	75.1191	1,413.57	74.3034	1,413.57	75.1611	1,413.57	75.6534	1,413.57	73.8821	1,413.57	74.7276	1,413.57	70.9356	1,413.57	74.8023	1,413.57	72.574	1,413.57	72.3474	1,413.57	72.2962	1,413.57	71.515
1,463.38	80.4044	1,463.38	81.2883	1,463.38	81.1749	1,463.38	82.8729	1,463.38	82.9633	1,463.38	83.7541	1,463.38	83.7581	1,463.38	83.9269	1,463.38	83.2707	1,463.38	83.2621	1,463.38	82.1662	1,463.38	82.4085	1,463.38	81.1862	1,463.38	81.2222	1,463.38	80.363	1,463.38	79.6462	1,463.38	77.3993	1,463.38	77.5325	1,463.38	74.1632	1,463.38	75.8055	1,463.38	73.0709	1,463.38	75.9139	1,463.38	74.1352	1,463.38	75.2171	1,463.38	74.6634	1,463.38	75.6211	1,463.38	74.9531	1,463.38	75.8115	1,463.38	71.8687	1,463.38	71.7233	1,463.38	66.659	1,463.38	71.9547	1,463.38	71.0128	1,463.38	72.2106	1,463.38	70.6261	1,463.38	68.7504
1,516.11	78.7116	1,516.11	80.0161	1,516.11	79.4808	1,516.11	82.1572	1,516.11	81.6928	1,516.11	83.428	1,516.11	83.1586	1,516.11	83.6067	1,516.11	83.0782	1,516.11	81.871	1,516.11	82.0567	1,516.11	80.0889	1,516.11	80.0418	1,516.11	78.9386	1,516.11	77.9588	1,516.11	77.8588	1,516.11	76.5415	1,516.11	76.2213	1,516.11	74.3376	1,516.11	74.1157	1,516.11	71.9387	1,516.11	73.2667	1,516.11	74.2369	1,516.11	74.7808	1,516.11	75.0777	1,516.11	75.1403	1,516.11	74.9172	1,516.11	76.2636	1,516.11	73.7922	1,516.11	71.9507	1,516.11	69.9195	1,516.11	68.8693	1,516.11	66.1346	1,516.11	68.3496	1,516.11	64.8052	1,516.11	64.6424
1,568.85	80.3383	1,568.85	80.1094	1,568.85	79.5872	1,568.85	80.6907	1,568.85	80.9039	1,568.85	81.9391	1,568.85	82.149	1,568.85	82.032	1,568.85	82.1238	1,568.85	81.2624	1,568.85	80.5591	1,568.85	79.9158	1,568.85	78.6465	1,568.85	78.4959	1,568.85	76.8584	1,568.85	76.0634	1,568.85	76.0895	1,568.85	74.4423	1,568.85	73.005	1,568.85	73.0457	1,568.85	70.8842	1,568.85	72.8182	1,568.85	71.5326	1,568.85	73.5661	1,568.85	73.1299	1,568.85	73.7138	1,568.85	75.0214	1,568.85	74.7156	1,568.85	75.6674	1,568.85	70.9053	1,568.85	72.7073	1,568.85	69.8428	1,568.85	69.0665	1,568.85	66.8765	1,568.85	66.2324	1,568.85	62.8036
1,624.51	82.0851	1,624.51	81.3912	1,624.51	82.2642	1,624.51	80.7122	1,624.51	81.6337	1,624.51	81.9403	1,624.51	82.5592	1,624.51	81.9613	1,624.51	82.9854	1,624.51	81.2608	1,624.51	81.7046	1,624.51	79.142	1,624.51	80.1616	1,624.51	76.4875	1,624.51	78.1619	1,624.51	74.838	1,624.51	74.6925	1,624.51	72.8578	1,624.51	74.8904	1,624.51	72.8045	1,624.51	70.9864	1,624.51	71.9464	1,624.51	71.0092	1,624.51	73.0803	1,624.51	71.4416	1,624.51	69.9167	1,624.51	72.5147	1,624.51	72.612	1,624.51	73.5871	1,624.51	69.3992	1,624.51	66.414	1,624.51	63.8672	1,624.51	60.3192	1,624.51	58.7828	1,624.51	58.7072	1,624.51	61.6858
1,681.64	82.3485	1,681.64	81.885	1,681.64	82.1768	1,681.64	80.9416	1,681.64	82.05	1,681.64	82.0903	1,681.64	82.5808	1,681.64	82.0532	1,681.64	83.0709	1,681.64	81.6117	1,681.64	82.2008	1,681.64	80.3389	1,681.64	80.9004	1,681.64	78.3068	1,681.64	78.0727	1,681.64	75.0922	1,681.64	76.4775	1,681.64	72.5784	1,681.64	74.0519	1,681.64	70.9096	1,681.64	71.5013	1,681.64	70.1257	1,681.64	71.9399	1,681.64	71.2828	1,681.64	72.5995	1,681.64	73.3229	1,681.64	71.6658	1,681.64	71.1311	1,681.64	72.9865	1,681.64	68.514	1,681.64	69.6921	1,681.64	54.5423	1,681.64	63.1469	1,681.64	54.6933	1,681.64	52.1818	1,681.64	65.4266
1,741.7	82.9731	1,741.7	82.4337	1,741.7	82.1375	1,741.7	81.2565	1,741.7	81.9822	1,741.7	82.1122	1,741.7	83.3262	1,741.7	82.8876	1,741.7	83.2378	1,741.7	82.1094	1,741.7	81.381	1,741.7	80.8277	1,741.7	79.5637	1,741.7	78.7205	1,741.7	77.8298	1,741.7	76.0218	1,741.7	75.5884	1,741.7	74.8091	1,741.7	72.1985	1,741.7	73.1678	1,741.7	69.8941	1,741.7	67.8812	1,741.7	71.1158	1,741.7	69.7546	1,741.7	71.8074	1,741.7	68.095	1,741.7	72.9339	1,741.7	69.1838	1,741.7	71.5456	1,741.7	66.8472	1,741.7	69.033	1,741.7	63.8694	1,741.7	53.659	1,741.7	64.8944	1,741.7	60.9355	1,741.7	69.3366
1,803.22	83.6454	1,803.22	83.2243	1,803.22	82.6189	1,803.22	82.3288	1,803.22	81.1077	1,803.22	82.5162	1,803.22	82.5397	1,803.22	83.3773	1,803.22	82.2494	1,803.22	82.7942	1,803.22	80.56	1,803.22	80.9106	1,803.22	78.9665	1,803.22	79.4006	1,803.22	77.4513	1,803.22	77.6752	1,803.22	74.5015	1,803.22	75.9734	1,803.22	71.7964	1,803.22	73.0307	1,803.22	68.1298	1,803.22	72.2277	1,803.22	71.1951	1,803.22	68.1083	1,803.22	71.7541	1,803.22	72.5086	1,803.22	70.3542	1,803.22	72.2239	1,803.22	71.7147	1,803.22	71.2606	1,803.22	69.8026	1,803.22	65.9814	1,803.22	62.6037	1,803.22	67.074	1,803.22	65.5266	1,803.22	70.9006
1,866.21	82.6727	1,866.21	82.3405	1,866.21	81.8402	1,866.21	82.2605	1,866.21	81.1782	1,866.21	82.7873	1,866.21	80.7169	1,866.21	82.5182	1,866.21	80.3438	1,866.21	81.7993	1,866.21	79.9595	1,866.21	80.5883	1,866.21	77.5613	1,866.21	78.4721	1,866.21	76.8523	1,866.21	77.0504	1,866.21	74.7332	1,866.21	73.818	1,866.21	72.7597	1,866.21	72.3568	1,866.21	70.791	1,866.21	72.8678	1,866.21	66.2194	1,866.21	73.8491	1,866.21	72.0019	1,866.21	74.0181	1,866.21	69.2061	1,866.21	72.2869	1,866.21	64.771	1,866.21	68.3325	1,866.21	69.6896	1,866.21	61.015	1,866.21	62.2923	1,866.21	57.5382	1,866.21	64.1633	1,866.21	68.2365
1,932.13	82.4384	1,932.13	81.716	1,932.13	80.9896	1,932.13	80.0735	1,932.13	80.8681	1,932.13	80.8529	1,932.13	80.6014	1,932.13	80.6836	1,932.13	81.5014	1,932.13	80.669	1,932.13	80.4632	1,932.13	79.1437	1,932.13	78.2621	1,932.13	77.4638	1,932.13	76.1101	1,932.13	74.2461	1,932.13	74.501	1,932.13	75.6991	1,932.13	73.5932	1,932.13	73.3265	1,932.13	66.2683	1,932.13	70.4928	1,932.13	70.2383	1,932.13	70.0118	1,932.13	65.6069	1,932.13	71.6947	1,932.13	71.7881	1,932.13	72.6607	1,932.13	65.5556	1,932.13	70.502	1,932.13	65.3591	1,932.13	65.2514	1,932.13	61.7613	1,932.13	68.1014	1,932.13	66.8513	1,932.13	68.1922
1,999.51	83.6979	1,999.51	83.2618	1,999.51	83.8304	1,999.51	82.2479	1,999.51	82.542	1,999.51	81.1073	1,999.51	81.2751	1,999.51	80.4663	1,999.51	80.1548	1,999.51	79.8209	1,999.51	79.8851	1,999.51	78.7743	1,999.51	79.0826	1,999.51	77.2461	1,999.51	78.0319	1,999.51	75.9037	1,999.51	76.3697	1,999.51	74.123	1,999.51	73.9767	1,999.51	72.9235	1,999.51	73.6592	1,999.51	70.8489	1,999.51	72.1252	1,999.51	72.1141	1,999.51	73.3647	1,999.51	74.0036	1,999.51	73.6556	1,999.51	71.737	1,999.51	71.2063	1,999.51	68.2087	1,999.51	67.0574	1,999.51	57.9677	1,999.51	47.9809	1,999.51	55.9124	1,999.51	64.9564	1,999.51	69.2453
2,069.82	84.6192	2,069.82	84.4445	2,069.82	84.3532	2,069.82	82.796	2,069.82	83.2442	2,069.82	81.6974	2,069.82	81.9143	2,069.82	80.8435	2,069.82	81.3589	2,069.82	81.2946	2,069.82	81.3691	2,069.82	80.4759	2,069.82	80.5676	2,069.82	78.7549	2,069.82	78.7431	2,069.82	76.1906	2,069.82	77.2994	2,069.82	73.7389	2,069.82	75.6497	2,069.82	73.774	2,069.82	75.3222	2,069.82	69.7843	2,069.82	72.3628	2,069.82	70.7528	2,069.82	73.797	2,069.82	73.4455	2,069.82	74.4613	2,069.82	69.7052	2,069.82	69.9624	2,069.82	65.1568	2,069.82	64.746	2,069.82	56.8882	2,069.82	58.7942	2,069.82	63.6413	2,069.82	63.8925	2,069.82	69.7424
2,143.07	85.4295	2,143.07	84.7763	2,143.07	83.4154	2,143.07	82.0145	2,143.07	80.8599	2,143.07	81.0736	2,143.07	81.5962	2,143.07	82.651	2,143.07	82.7256	2,143.07	83.0667	2,143.07	82.424	2,143.07	82.0222	2,143.07	80.4257	2,143.07	79.0651	2,143.07	78.0119	2,143.07	76.6394	2,143.07	74.6905	2,143.07	73.4691	2,143.07	72.5791	2,143.07	72.8642	2,143.07	72.7794	2,143.07	71.4208	2,143.07	69.5717	2,143.07	68.6605	2,143.07	71.7993	2,143.07	71.0387	2,143.07	72.9685	2,143.07	69.3655	2,143.07	68.8574	2,143.07	59.8227	2,143.07	62.3776	2,143.07	60.0272	2,143.07	59.6335	2,143.07	61.8682	2,143.07	67.716	2,143.07	68.6365
2,219.24	84.3657	2,219.24	83.8645	2,219.24	82.4959	2,219.24	81.3951	2,219.24	79.8366	2,219.24	80.6461	2,219.24	79.799	2,219.24	81.8927	2,219.24	81.8809	2,219.24	82.3424	2,219.24	81.3739	2,219.24	81.416	2,219.24	79.4739	2,219.24	79.3789	2,219.24	76.0376	2,219.24	74.9612	2,219.24	72.8002	2,219.24	73.0527	2,219.24	71.0937	2,219.24	72.8169	2,219.24	71.4116	2,219.24	72.049	2,219.24	68.9436	2,219.24	71.5957	2,219.24	68.7678	2,219.24	71.1907	2,219.24	70.3969	2,219.24	70.0601	2,219.24	68.5535	2,219.24	64.053	2,219.24	59.381	2,219.24	51.0601	2,219.24	58.5628	2,219.24	64.4247	2,219.24	66.8269	2,219.24	66.2952
2,296.88	82.8838	2,296.88	82.5138	2,296.88	82.1805	2,296.88	80.7062	2,296.88	79.3611	2,296.88	78.8283	2,296.88	78.298	2,296.88	80.8709	2,296.88	80.38	2,296.88	82.0826	2,296.88	81.4051	2,296.88	81.282	2,296.88	79.9178	2,296.88	79.3607	2,296.88	77.5113	2,296.88	77.7036	2,296.88	73.8277	2,296.88	72.6168	2,296.88	71.1469	2,296.88	73.2394	2,296.88	69.9883	2,296.88	73.2608	2,296.88	71.0108	2,296.88	72.3156	2,296.88	68.8511	2,296.88	73.6941	2,296.88	69.5334	2,296.88	72.7546	2,296.88	68.8154	2,296.88	66.8877	2,296.88	61.2453	2,296.88	61.3362	2,296.88	58.798	2,296.88	62.9675	2,296.88	62.5897	2,296.88	66.425
2,378.91	83.1082	2,378.91	82.8268	2,378.91	82.32	2,378.91	80.8014	2,378.91	80.6588	2,378.91	78.7566	2,378.91	78.7661	2,378.91	80.0181	2,378.91	80.9213	2,378.91	81.5498	2,378.91	81.9379	2,378.91	81.1294	2,378.91	80.7755	2,378.91	78.4944	2,378.91	78.2506	2,378.91	75.0231	2,378.91	75.9704	2,378.91	71.2029	2,378.91	73.5339	2,378.91	71.2186	2,378.91	72.8919	2,378.91	72.4922	2,378.91	70.615	2,378.91	69.5779	2,378.91	70.5732	2,378.91	71.0566	2,378.91	72.0456	2,378.91	70.6795	2,378.91	69.7069	2,378.91	61.902	2,378.91	59.113	2,378.91	57.441	2,378.91	59.5732	2,378.91	65.0658	2,378.91	64.4837	2,378.91	67.1403
2,462.4	84.2597	2,462.4	84.2698	2,462.4	83.4221	2,462.4	82.7681	2,462.4	82.0233	2,462.4	80.7915	2,462.4	80.8963	2,462.4	80.9548	2,462.4	82.0955	2,462.4	82.5275	2,462.4	82.6752	2,462.4	82.3517	2,462.4	81.3147	2,462.4	79.6447	2,462.4	79.6159	2,462.4	77.8203	2,462.4	76.6453	2,462.4	73.4918	2,462.4	73.1183	2,462.4	69.6888	2,462.4	72.2965	2,462.4	71.0799	2,462.4	73.3492	2,462.4	68.9878	2,462.4	71.5877	2,462.4	72.054	2,462.4	72.577	2,462.4	69.3443	2,462.4	69.132	2,462.4	57.4927	2,462.4	51.7458	2,462.4	54.2457	2,462.4	61.5029	2,462.4	68.6255	2,462.4	65.3913	2,462.4	67.327
2,548.83	84.0485	2,548.83	84.1882	2,548.83	84.1495	2,548.83	83.5984	2,548.83	82.4268	2,548.83	81.506	2,548.83	81.1465	2,548.83	81.7562	2,548.83	81.8328	2,548.83	83.1729	2,548.83	82.7324	2,548.83	83.214	2,548.83	80.5741	2,548.83	81.4132	2,548.83	78.3897	2,548.83	79.4043	2,548.83	75.1033	2,548.83	75.0984	2,548.83	73.1519	2,548.83	72.5738	2,548.83	69.8906	2,548.83	72.0908	2,548.83	69.4667	2,548.83	70.8213	2,548.83	71.4983	2,548.83	70.5004	2,548.83	71.0464	2,548.83	70.6171	2,548.83	65.8117	2,548.83	65.1823	2,548.83	51.9939	2,548.83	62.4875	2,548.83	61.9673	2,548.83	66.6542	2,548.83	68.5704	2,548.83	66.9362
2,639.65	82.3245	2,639.65	83.216	2,639.65	81.9946	2,639.65	82.8612	2,639.65	82.0576	2,639.65	82.05	2,639.65	80.5766	2,639.65	81.5103	2,639.65	81.0353	2,639.65	82.7672	2,639.65	81.8073	2,639.65	82.6731	2,639.65	80.2927	2,639.65	81.4896	2,639.65	77.4996	2,639.65	76.9559	2,639.65	73.9065	2,639.65	75.0101	2,639.65	71.0605	2,639.65	70.9625	2,639.65	69.9142	2,639.65	71.9852	2,639.65	69.5114	2,639.65	73.1183	2,639.65	69.592	2,639.65	69.9239	2,639.65	69.4702	2,639.65	70.352	2,639.65	68.6973	2,639.65	65.1061	2,639.65	55.3413	2,639.65	43.2012	2,639.65	58.7643	2,639.65	69.0309	2,639.65	66.5859	2,639.65	64.1251
2,731.93	81.8166	2,731.93	81.4901	2,731.93	80.8633	2,731.93	81.6003	2,731.93	80.8249	2,731.93	80.9461	2,731.93	80.4169	2,731.93	80.2581	2,731.93	79.8088	2,731.93	81.4368	2,731.93	80.5852	2,731.93	80.0644	2,731.93	79.7272	2,731.93	80.0369	2,731.93	77.6644	2,731.93	74.648	2,731.93	74.2978	2,731.93	72.6952	2,731.93	70.2605	2,731.93	70.7971	2,731.93	69.3166	2,731.93	71.3301	2,731.93	69.5233	2,731.93	72.0961	2,731.93	69.2239	2,731.93	71.0583	2,731.93	69.1341	2,731.93	70.5095	2,731.93	67.0694	2,731.93	61.7181	2,731.93	56.9025	2,731.93	62.8618	2,731.93	57.11	2,731.93	66.5941	2,731.93	66.5028	2,731.93	60.9355
2,828.61	81.5461	2,828.61	80.936	2,828.61	81.6742	2,828.61	82.4628	2,828.61	81.5542	2,828.61	81.1384	2,828.61	80.0866	2,828.61	79.5039	2,828.61	79.2813	2,828.61	80.1994	2,828.61	80.849	2,828.61	79.9973	2,828.61	80.4294	2,828.61	77.5366	2,828.61	78.0562	2,828.61	74.4448	2,828.61	74.4573	2,828.61	72.4933	2,828.61	70.0236	2,828.61	68.8316	2,828.61	68.0955	2,828.61	68.3185	2,828.61	70.1909	2,828.61	69.5379	2,828.61	68.8636	2,828.61	69.9116	2,828.61	70.4115	2,828.61	68.7387	2,828.61	66.8989	2,828.61	63.123	2,828.61	56.6172	2,828.61	63.6642	2,828.61	61.8718	2,828.61	62.3694	2,828.61	66.7597	2,828.61	52.6162
2,928.22	81.6293	2,928.22	81.8227	2,928.22	82.542	2,928.22	83.2261	2,928.22	82.7902	2,928.22	81.9715	2,928.22	80.9445	2,928.22	79.9547	2,928.22	79.5522	2,928.22	80.8792	2,928.22	80.5589	2,928.22	80.9541	2,928.22	79.6835	2,928.22	78.0639	2,928.22	78.0314	2,928.22	77.1955	2,928.22	74.862	2,928.22	72.3429	2,928.22	72.6234	2,928.22	70.7848	2,928.22	67.5143	2,928.22	69.8638	2,928.22	67.812	2,928.22	69.0401	2,928.22	68.6491	2,928.22	70.3458	2,928.22	70.1372	2,928.22	69.1998	2,928.22	65.8271	2,928.22	52.4175	2,928.22	58.0003	2,928.22	66.4279	2,928.22	61.8728	2,928.22	65.2669	2,928.22	62.9006	2,928.22	58.4128
3,030.76	81.5173	3,030.76	82.1059	3,030.76	81.919	3,030.76	83.2066	3,030.76	82.8383	3,030.76	82.9361	3,030.76	80.9293	3,030.76	80.6158	3,030.76	79.3954	3,030.76	81.6776	3,030.76	80.2747	3,030.76	81.998	3,030.76	79.7571	3,030.76	79.2604	3,030.76	76.7281	3,030.76	78.0554	3,030.76	73.7447	3,030.76	73.343	3,030.76	70.4218	3,030.76	71.7342	3,030.76	68.3435	3,030.76	70.8101	3,030.76	68.769	3,030.76	69.5687	3,030.76	68.2132	3,030.76	69.6304	3,030.76	66.7079	3,030.76	69.3534	3,030.76	65.8651	3,030.76	59.1636	3,030.76	59.2345	3,030.76	66.1486	3,030.76	64.1331	3,030.76	63.2471	3,030.76	62.6491	3,030.76	45.8942
3,137.7	80.5637	3,137.7	81.993	3,137.7	82.6659	3,137.7	82.7588	3,137.7	82.0708	3,137.7	81.7391	3,137.7	79.2277	3,137.7	80.3104	3,137.7	78.5374	3,137.7	81.8628	3,137.7	79.9167	3,137.7	81.4828	3,137.7	79.1658	3,137.7	78.9407	3,137.7	75.9248	3,137.7	77.6176	3,137.7	74.1499	3,137.7	74.2825	3,137.7	69.4828	3,137.7	72.1749	3,137.7	69.152	3,137.7	70.507	3,137.7	69.5051	3,137.7	71.1315	3,137.7	68.3194	3,137.7	70.355	3,137.7	68.2735	3,137.7	69.6102	3,137.7	68.3232	3,137.7	57.9153	3,137.7	57.4231	3,137.7	67.4228	3,137.7	63.6945	3,137.7	60.3336	3,137.7	63.1845	3,137.7	54.7301
3,249.02	79.7584	3,249.02	81.9098	3,249.02	83.2464	3,249.02	83.1321	3,249.02	82.0629	3,249.02	80.4658	3,249.02	79.2043	3,249.02	78.6026	3,249.02	79.1192	3,249.02	81.7273	3,249.02	80.0902	3,249.02	81.1649	3,249.02	79.1713	3,249.02	79.8188	3,249.02	77.2684	3,249.02	77.6031	3,249.02	75.1122	3,249.02	74.7178	3,249.02	72.4973	3,249.02	72.1717	3,249.02	70.6452	3,249.02	69.9049	3,249.02	70.0136	3,249.02	71.8025	3,249.02	70.2165	3,249.02	70.6267	3,249.02	70.4626	3,249.02	69.5673	3,249.02	68.6238	3,249.02	55.1183	3,249.02	58.6679	3,249.02	65.3655	3,249.02	62.7653	3,249.02	61.9937	3,249.02	61.5137	3,249.02	58.3331
3,363.28	81.4807	3,363.28	82.0323	3,363.28	82.2951	3,363.28	82.8716	3,363.28	82.092	3,363.28	81.3583	3,363.28	79.7892	3,363.28	78.2693	3,363.28	78.3208	3,363.28	80.4542	3,363.28	80.4038	3,363.28	81.5441	3,363.28	80.471	3,363.28	81.0972	3,363.28	78.7871	3,363.28	77.5619	3,363.28	75.5361	3,363.28	74.3614	3,363.28	71.917	3,363.28	70.2461	3,363.28	70.3722	3,363.28	70.9053	3,363.28	69.7209	3,363.28	71.8224	3,363.28	70.7175	3,363.28	70.4015	3,363.28	68.5992	3,363.28	68.7616	3,363.28	65.0049	3,363.28	53.4171	3,363.28	58.6632	3,363.28	67.7814	3,363.28	63.228	3,363.28	57.2339	3,363.28	52.2617	3,363.28	58.0099
3,481.93	81.9929	3,481.93	82.0056	3,481.93	81.9614	3,481.93	82.536	3,481.93	82.5749	3,481.93	82.1873	3,481.93	80.6716	3,481.93	78.307	3,481.93	77.4296	3,481.93	80.0892	3,481.93	80.5445	3,481.93	82.4778	3,481.93	81.1811	3,481.93	82.1237	3,481.93	78.7931	3,481.93	77.7169	3,481.93	75.7664	3,481.93	74.2209	3,481.93	71.703	3,481.93	70.8987	3,481.93	68.6156	3,481.93	68.9499	3,481.93	68.357	3,481.93	70.8229	3,481.93	69.136	3,481.93	71.4461	3,481.93	66.7717	3,481.93	67.467	3,481.93	63.2191	3,481.93	54.8255	3,481.93	60.4661	3,481.93	66.4816	3,481.93	65.8926	3,481.93	56.472	3,481.93	29.2125	3,481.93	57.0542
3,604.98	82.3127	3,604.98	82.4858	3,604.98	81.8139	3,604.98	82.7217	3,604.98	82.7166	3,604.98	83.1271	3,604.98	81.6581	3,604.98	80.4228	3,604.98	77.7877	3,604.98	79.9709	3,604.98	79.4044	3,604.98	82.2572	3,604.98	81.4044	3,604.98	81.7216	3,604.98	79.2444	3,604.98	77.2871	3,604.98	75.2763	3,604.98	74.8466	3,604.98	71.6093	3,604.98	71.0821	3,604.98	69.4155	3,604.98	69.5122	3,604.98	69.2413	3,604.98	71.617	3,604.98	70.3199	3,604.98	70.5882	3,604.98	69.5561	3,604.98	66.1726	3,604.98	63.0706	3,604.98	61.6849	3,604.98	62.6416	3,604.98	67.1329	3,604.98	65.6537	3,604.98	46.2474	3,604.98	48.7495	3,604.98	59.3989
3,732.42	83.6949	3,732.42	82.784	3,732.42	82.2425	3,732.42	83.366	3,732.42	83.3303	3,732.42	83.4762	3,732.42	81.7079	3,732.42	80.1217	3,732.42	77.8526	3,732.42	78.9714	3,732.42	80.0668	3,732.42	81.9617	3,732.42	81.386	3,732.42	80.6716	3,732.42	78.5344	3,732.42	76.4012	3,732.42	73.1803	3,732.42	72.9752	3,732.42	69.3027	3,732.42	70.2793	3,732.42	68.3684	3,732.42	68.569	3,732.42	68.0465	3,732.42	72.0821	3,732.42	70.7528	3,732.42	69.4758	3,732.42	70.4726	3,732.42	65.6754	3,732.42	65.2763	3,732.42	62.5537	3,732.42	63.1067	3,732.42	63.8134	3,732.42	65.5386	3,732.42	53.0307	3,732.42	50.6778	3,732.42	53.3295
3,864.26	83.8396	3,864.26	83.2963	3,864.26	82.1138	3,864.26	83.4579	3,864.26	82.7389	3,864.26	83.3239	3,864.26	81.0203	3,864.26	80.5423	3,864.26	76.6062	3,864.26	78.5387	3,864.26	78.6067	3,864.26	81.1435	3,864.26	79.5223	3,864.26	79.2028	3,864.26	76.3335	3,864.26	76.1946	3,864.26	72.815	3,864.26	72.5368	3,864.26	68.9973	3,864.26	69.1286	3,864.26	64.4422	3,864.26	69.3159	3,864.26	63.3372	3,864.26	70.503	3,864.26	67.5193	3,864.26	70.1376	3,864.26	68.8245	3,864.26	65.2039	3,864.26	63.6992	3,864.26	63.0258	3,864.26	61.5024	3,864.26	65.9446	3,864.26	63.8221	3,864.26	47.8615	3,864.26	51.8761	3,864.26	57.0819
4,000.49	83.5792	4,000.49	82.8282	4,000.49	82.8962	4,000.49	82.6198	4,000.49	82.0482	4,000.49	82.7477	4,000.49	80.9349	4,000.49	79.3062	4,000.49	77.5289	4,000.49	77.0244	4,000.49	77.5675	4,000.49	79.0902	4,000.49	78.3096	4,000.49	76.8816	4,000.49	77.2657	4,000.49	76.1042	4,000.49	73.8849	4,000.49	71.6048	4,000.49	71.9312	4,000.49	70.0997	4,000.49	68.3527	4,000.49	69.9266	4,000.49	65.2106	4,000.49	69.0149	4,000.49	69.1745	4,000.49	69.8587	4,000.49	68.4264	4,000.49	63.342	4,000.49	62.6294	4,000.49	60.2019	4,000.49	63.8607	4,000.49	63.6913	4,000.49	64.4503	4,000.49	44.657	4,000.49	29.532	4,000.49	58.0927
4,141.11	84.3778	4,141.11	83.7547	4,141.11	84.0275	4,141.11	82.8939	4,141.11	82.8482	4,141.11	83.5041	4,141.11	82.0941	4,141.11	80.897	4,141.11	77.6501	4,141.11	75.9133	4,141.11	76.2593	4,141.11	79.6133	4,141.11	79.1064	4,141.11	79.7388	4,141.11	78.9323	4,141.11	78.2503	4,141.11	76.2632	4,141.11	73.3438	4,141.11	73.0468	4,141.11	70.4977	4,141.11	69.0898	4,141.11	69.8107	4,141.11	67.7227	4,141.11	69.4595	4,141.11	71.6077	4,141.11	69.0345	4,141.11	65.8204	4,141.11	62.7633	4,141.11	61.9605	4,141.11	62.4059	4,141.11	67.3208	4,141.11	63.9692	4,141.11	63.8813	4,141.11	50.9941	4,141.11	51.0899	4,141.11	56.6372
4,287.6	85.2603	4,287.6	83.8504	4,287.6	84.0362	4,287.6	83.1717	4,287.6	82.3733	4,287.6	83.0787	4,287.6	82.2208	4,287.6	80.3287	4,287.6	78.0222	4,287.6	75.3992	4,287.6	75.3716	4,287.6	80.2141	4,287.6	80.5909	4,287.6	81.9105	4,287.6	80.3408	4,287.6	79.363	4,287.6	75.9641	4,287.6	75.8005	4,287.6	72.9089	4,287.6	71.7373	4,287.6	67.6776	4,287.6	69.3208	4,287.6	70.1383	4,287.6	70.8457	4,287.6	69.6554	4,287.6	68.7511	4,287.6	63.1286	4,287.6	55.1722	4,287.6	56.7411	4,287.6	64.3799	4,287.6	65.4099	4,287.6	63.041	4,287.6	62.2244	4,287.6	48.8757	4,287.6	52.1855	4,287.6	54.8596
4,438.48	84.7903	4,438.48	84.305	4,438.48	83.7322	4,438.48	83.1318	4,438.48	82.4284	4,438.48	83.4205	4,438.48	82.6562	4,438.48	81.233	4,438.48	77.3431	4,438.48	77.0352	4,438.48	76.2027	4,438.48	80.8421	4,438.48	80.3094	4,438.48	81.4581	4,438.48	79.5556	4,438.48	77.1204	4,438.48	75.3897	4,438.48	73.5972	4,438.48	72.6522	4,438.48	71.0356	4,438.48	68.9973	4,438.48	71.1392	4,438.48	70.5774	4,438.48	72.1391	4,438.48	70.0343	4,438.48	67.3203	4,438.48	68.9532	4,438.48	50.4738	4,438.48	46.7472	4,438.48	60.3071	4,438.48	66.3695	4,438.48	61.8714	4,438.48	63.683	4,438.48	53.5021	4,438.48	57.0558	4,438.48	62.9497
4,595.21	84.0225	4,595.21	85.4324	4,595.21	82.136	4,595.21	82.3174	4,595.21	82.1344	4,595.21	83.8426	4,595.21	82.3828	4,595.21	81.561	4,595.21	77.1503	4,595.21	78.8202	4,595.21	76.733	4,595.21	80.482	4,595.21	78.5263	4,595.21	80.1617	4,595.21	76.0807	4,595.21	76.8659	4,595.21	74.0982	4,595.21	73.5314	4,595.21	70.345	4,595.21	68.0503	4,595.21	67.3874	4,595.21	65.8916	4,595.21	68.4411	4,595.21	70.4577	4,595.21	70.486	4,595.21	67.8514	4,595.21	66.5794	4,595.21	55.1579	4,595.21	55.1384	4,595.21	63.4074	4,595.21	67.5936	4,595.21	64.3424	4,595.21	61.6988	4,595.21	57.3545	4,595.21	55.7776	4,595.21	60.4153
4,756.35	84.9052	4,756.35	86.114	4,756.35	84.295	4,756.35	82.8996	4,756.35	83.3086	4,756.35	84.6676	4,756.35	83.3897	4,756.35	83.1735	4,756.35	79.718	4,756.35	78.5874	4,756.35	76.0149	4,756.35	79.517	4,756.35	78.2194	4,756.35	79.3235	4,756.35	78.9287	4,756.35	76.8309	4,756.35	76.5287	4,756.35	72.9331	4,756.35	71.4408	4,756.35	72.1533	4,756.35	70.2003	4,756.35	68.3344	4,756.35	68.6051	4,756.35	70.9362	4,756.35	68.0191	4,756.35	68.6448	4,756.35	67.0786	4,756.35	60.8923	4,756.35	52.4739	4,756.35	64.6265	4,756.35	67.4268	4,756.35	64.7641	4,756.35	60.0638	4,756.35	55.2146	4,756.35	56.048	4,756.35	59.8385
4,924.8	85.8734	4,924.8	85.573	4,924.8	85.6512	4,924.8	85.7467	4,924.8	82.9618	4,924.8	84.5365	4,924.8	83.0137	4,924.8	84.5741	4,924.8	81.9321	4,924.8	77.4693	4,924.8	71.0376	4,924.8	78.3048	4,924.8	79.8526	4,924.8	81.0237	4,924.8	80.9985	4,924.8	79.7796	4,924.8	77.4527	4,924.8	74.1739	4,924.8	72.2092	4,924.8	72.7253	4,924.8	70.3149	4,924.8	67.8823	4,924.8	70.9388	4,924.8	69.8988	4,924.8	70.2533	4,924.8	70.1432	4,924.8	67.7636	4,924.8	61.6087	4,924.8	60.9137	4,924.8	59.8163	4,924.8	67.5294	4,924.8	62.0686	4,924.8	54.8214	4,924.8	58.2865	4,924.8	59.7415	4,924.8	54.4716
5,097.66	85.2925	5,097.66	84.4155	5,097.66	85.1196	5,097.66	85.6284	5,097.66	82.737	5,097.66	81.6981	5,097.66	80.8459	5,097.66	82.8379	5,097.66	82.3054	5,097.66	73.7634	5,097.66	75.172	5,097.66	76.8655	5,097.66	79.9215	5,097.66	80.5456	5,097.66	80.7113	5,097.66	79.3719	5,097.66	77.0574	5,097.66	75.105	5,097.66	71.3474	5,097.66	71.6294	5,097.66	69.2786	5,097.66	70.774	5,097.66	69.885	5,097.66	68.1295	5,097.66	69.4028	5,097.66	68.9774	5,097.66	67.833	5,097.66	64.3345	5,097.66	64.1311	5,097.66	60.6831	5,097.66	64.268	5,097.66	59.0156	5,097.66	58.48	5,097.66	60.7346	5,097.66	59.4194	5,097.66	54.2773
5,277.83	84.4003	5,277.83	85.3333	5,277.83	84.8984	5,277.83	84.6158	5,277.83	83.005	5,277.83	81.7579	5,277.83	81.0681	5,277.83	82.8894	5,277.83	82.0242	5,277.83	77.0938	5,277.83	77.8532	5,277.83	78.4309	5,277.83	79.5048	5,277.83	80.8514	5,277.83	79.3834	5,277.83	77.2155	5,277.83	75.8533	5,277.83	72.9344	5,277.83	73.2953	5,277.83	53.2513	5,277.83	67.989	5,277.83	67.7982	5,277.83	68.9293	5,277.83	70.9318	5,277.83	69.3516	5,277.83	65.7364	5,277.83	67.5292	5,277.83	60.2174	5,277.83	61.8155	5,277.83	51.8891	5,277.83	64.135	5,277.83	61.2283	5,277.83	59.5563	5,277.83	58.8043	5,277.83	61.2119	5,277.83	53.5838
5,463.87	83.6623	5,463.87	84.9122	5,463.87	84.6532	5,463.87	82.8815	5,463.87	82.289	5,463.87	81.8204	5,463.87	83.0264	5,463.87	83.1303	5,463.87	82.3237	5,463.87	80.6422	5,463.87	77.272	5,463.87	78.6528	5,463.87	79.3708	5,463.87	81.9024	5,463.87	80.8445	5,463.87	78.6334	5,463.87	76.41	5,463.87	75.8546	5,463.87	72.0625	5,463.87	73.7713	5,463.87	68.6706	5,463.87	67.5155	5,463.87	68.328	5,463.87	69.3821	5,463.87	68.2072	5,463.87	68.3126	5,463.87	68.3248	5,463.87	52.919	5,463.87	61.0147	5,463.87	63.3467	5,463.87	64.1933	5,463.87	63.2711	5,463.87	60.3137	5,463.87	61.382	5,463.87	55.4732	5,463.87	55.8
5,657.23	83.9405	5,657.23	84.9451	5,657.23	85.3838	5,657.23	83.2879	5,657.23	81.8288	5,657.23	82.3737	5,657.23	84.1126	5,657.23	83.762	5,657.23	82.5952	5,657.23	81.0621	5,657.23	75.4316	5,657.23	74.4881	5,657.23	77.1597	5,657.23	79.3286	5,657.23	79.3834	5,657.23	76.5001	5,657.23	76.4998	5,657.23	73.819	5,657.23	72.5057	5,657.23	74.4585	5,657.23	69.0593	5,657.23	71.3423	5,657.23	68.0091	5,657.23	71.163	5,657.23	67.6559	5,657.23	69.0138	5,657.23	68.811	5,657.23	56.797	5,657.23	57.1352	5,657.23	63.3435	5,657.23	62.2612	5,657.23	64.4462	5,657.23	60.6832	5,657.23	57.5794	5,657.23	61.1045	5,657.23	55.2543
5,856.45	84.7691	5,856.45	83.9532	5,856.45	85.0465	5,856.45	84.5822	5,856.45	82.0815	5,856.45	82.6279	5,856.45	82.6566	5,856.45	84.9908	5,856.45	83.0331	5,856.45	81.5257	5,856.45	77.841	5,856.45	75.8383	5,856.45	75.8271	5,856.45	78.6936	5,856.45	77.9553	5,856.45	80.1151	5,856.45	79.0895	5,856.45	73.1999	5,856.45	70.6005	5,856.45	76.6676	5,856.45	69.7839	5,856.45	67.7629	5,856.45	70.2736	5,856.45	68.0743	5,856.45	67.1553	5,856.45	65.0913	5,856.45	65.9711	5,856.45	62.3327	5,856.45	62.1874	5,856.45	59.5686	5,856.45	65.1403	5,856.45	59.7275	5,856.45	53.434	5,856.45	48.9227	5,856.45	61.4632	5,856.45	48.2648
6,062.99	85.8356	6,062.99	84.1256	6,062.99	82.5669	6,062.99	84.9209	6,062.99	84.2085	6,062.99	82.711	6,062.99	79.9432	6,062.99	84.6968	6,062.99	84.3097	6,062.99	82.8508	6,062.99	80.9188	6,062.99	75.5307	6,062.99	78.0612	6,062.99	79.8864	6,062.99	80.7175	6,062.99	80.8727	6,062.99	79.2046	6,062.99	76.0345	6,062.99	73.496	6,062.99	74.4242	6,062.99	72.1973	6,062.99	70.0176	6,062.99	67.8539	6,062.99	68.3422	6,062.99	71.9576	6,062.99	68.1822	6,062.99	70.8511	6,062.99	64.5043	6,062.99	65.829	6,062.99	51.2739	6,062.99	63.2672	6,062.99	58.7717	6,062.99	60.4621	6,062.99	59.2905	6,062.99	56.3445	6,062.99	42.0849
6,276.86	84.2769	6,276.86	82.1273	6,276.86	78.3425	6,276.86	82.762	6,276.86	83.6623	6,276.86	78.7019	6,276.86	79.038	6,276.86	81.4603	6,276.86	83.6914	6,276.86	82.1614	6,276.86	79.2094	6,276.86	73.2863	6,276.86	76.5117	6,276.86	82.313	6,276.86	82.2612	6,276.86	79.5516	6,276.86	75.674	6,276.86	77.687	6,276.86	71.7071	6,276.86	66.8483	6,276.86	71.4763	6,276.86	69.0297	6,276.86	69.0531	6,276.86	66.7973	6,276.86	66.4307	6,276.86	69.5198	6,276.86	68.9117	6,276.86	57.9612	6,276.86	63.5593	6,276.86	62.9423	6,276.86	59.7018	6,276.86	56.3575	6,276.86	55.4252	6,276.86	57.8608	6,276.86	57.2692	6,276.86	53.5537
6,498.05	82.0765	6,498.05	81.1357	6,498.05	81.9773	6,498.05	81.7933	6,498.05	81.5119	6,498.05	81.8733	6,498.05	81.7312	6,498.05	82.0666	6,498.05	83.5096	6,498.05	83.5043	6,498.05	78.2058	6,498.05	71.4295	6,498.05	73.153	6,498.05	81.3555	6,498.05	79.8719	6,498.05	76.6376	6,498.05	76.505	6,498.05	73.9745	6,498.05	74.3463	6,498.05	69.0864	6,498.05	67.7804	6,498.05	65.1389	6,498.05	66.3413	6,498.05	64.9249	6,498.05	64.7946	6,498.05	66.1117	6,498.05	68.773	6,498.05	66.6486	6,498.05	64.0564	6,498.05	63.174	6,498.05	58.2357	6,498.05	60.7119	6,498.05	63.7123	6,498.05	42.9585	6,498.05	59.4807	6,498.05	57.0555
6,726.56	80.4467	6,726.56	81.1239	6,726.56	81.3029	6,726.56	82.5592	6,726.56	82.1279	6,726.56	84.6392	6,726.56	82.4657	6,726.56	83.3628	6,726.56	83.459	6,726.56	83.9921	6,726.56	82.0473	6,726.56	78.0559	6,726.56	72.6414	6,726.56	78.3867	6,726.56	77.5229	6,726.56	81.3865	6,726.56	80.4642	6,726.56	76.5987	6,726.56	75.6821	6,726.56	75.3732	6,726.56	69.9106	6,726.56	65.2747	6,726.56	67.8814	6,726.56	67.0017	6,726.56	64.5337	6,726.56	69.4302	6,726.56	70.6275	6,726.56	60.0387	6,726.56	66.0696	6,726.56	61.8488	6,726.56	52.5928	6,726.56	55.2745	6,726.56	62.4683	6,726.56	46.8314	6,726.56	54.3572	6,726.56	57.2705
6,963.87	80.2175	6,963.87	81.2929	6,963.87	79.5657	6,963.87	81.9039	6,963.87	83.1493	6,963.87	84.4465	6,963.87	82.3465	6,963.87	80.91	6,963.87	80.7253	6,963.87	83.5291	6,963.87	83.0943	6,963.87	79.3847	6,963.87	73.5716	6,963.87	77.3006	6,963.87	79.5641	6,963.87	80.6047	6,963.87	78.4941	6,963.87	75.854	6,963.87	73.9743	6,963.87	72.712	6,963.87	69.6076	6,963.87	65.026	6,963.87	65.2768	6,963.87	63.0763	6,963.87	66.4649	6,963.87	68.63	6,963.87	68.2225	6,963.87	55.7529	6,963.87	62.683	6,963.87	58.5193	6,963.87	54.8704	6,963.87	57.132	6,963.87	54.9954	6,963.87	60.0103	6,963.87	58.4784	6,963.87	52.4207
7,209.96	79.0314	7,209.96	81.4583	7,209.96	81.1444	7,209.96	81.9228	7,209.96	82.7815	7,209.96	83.9284	7,209.96	83.1784	7,209.96	79.895	7,209.96	79.375	7,209.96	84.8922	7,209.96	81.6797	7,209.96	80.7528	7,209.96	76.7344	7,209.96	78.9415	7,209.96	78.6636	7,209.96	79.1289	7,209.96	77.1097	7,209.96	75.5196	7,209.96	70.09	7,209.96	67.8948	7,209.96	68.0322	7,209.96	63.7467	7,209.96	67.2544	7,209.96	64.527	7,209.96	69.0897	7,209.96	64.9415	7,209.96	67.0079	7,209.96	63.6315	7,209.96	53.1749	7,209.96	62.1507	7,209.96	61.2658	7,209.96	59.8637	7,209.96	61.9375	7,209.96	50.8859	7,209.96	59.7617	7,209.96	57.9718
7,464.84	78.6193	7,464.84	81.0458	7,464.84	82.7291	7,464.84	82.2402	7,464.84	81.0501	7,464.84	83.854	7,464.84	82.3117	7,464.84	81.4961	7,464.84	79.1118	7,464.84	84.3056	7,464.84	80.9396	7,464.84	79.731	7,464.84	74.5775	7,464.84	78.3014	7,464.84	76.4002	7,464.84	77.4636	7,464.84	72.7078	7,464.84	75.6682	7,464.84	70.4422	7,464.84	66.3974	7,464.84	68.7098	7,464.84	65.3405	7,464.84	65.7739	7,464.84	65.9969	7,464.84	65.8871	7,464.84	64.113	7,464.84	64.2502	7,464.84	62.3444	7,464.84	53.2917	7,464.84	59.4496	7,464.84	59.6286	7,464.84	60.845	7,464.84	60.0568	7,464.84	53.8781	7,464.84	58.5419	7,464.84	55.9994
7,727.05	82.7451	7,727.05	82.7598	7,727.05	82.2604	7,727.05	83.2063	7,727.05	82.0758	7,727.05	83.1579	7,727.05	79.2252	7,727.05	82.4045	7,727.05	79.6614	7,727.05	82.4831	7,727.05	81.2163	7,727.05	80.2063	7,727.05	75.1627	7,727.05	77.0323	7,727.05	74.5443	7,727.05	77.1873	7,727.05	72.7467	7,727.05	74.6226	7,727.05	70.1902	7,727.05	67.7411	7,727.05	67.4813	7,727.05	56.1641	7,727.05	65.1221	7,727.05	61.8153	7,727.05	53.5627	7,727.05	59.8854	7,727.05	61.4469	7,727.05	47.2244	7,727.05	48.7134	7,727.05	58.0184	7,727.05	60.2047	7,727.05	61.671	7,727.05	62.6326	7,727.05	50.6963	7,727.05	55.6437	7,727.05	56.8179
7,999.51	84.1954	7,999.51	83.7506	7,999.51	83.178	7,999.51	83.6361	7,999.51	82.3399	7,999.51	83.155	7,999.51	77.8885	7,999.51	83.3717	7,999.51	79.4019	7,999.51	81.3481	7,999.51	80.0254	7,999.51	80.9663	7,999.51	73.4243	7,999.51	75.4075	7,999.51	73.6578	7,999.51	76.3409	7,999.51	63.4362	7,999.51	70.8371	7,999.51	65.5986	7,999.51	62.1097	7,999.51	57.7005	7,999.51	53.5429	7,999.51	52.1832	7,999.51	58.7094	7,999.51	57.2279	7,999.51	60.6524	7,999.51	56.3728	7,999.51	57.4392	7,999.51	45.9146	7,999.51	54.5569	7,999.51	58.4572	7,999.51	56.0767	7,999.51	55.2472	7,999.51	53.0958	7,999.51	50.9693	7,999.51	57.3618
8,282.23	83.5686	8,282.23	84.0899	8,282.23	84.6197	8,282.23	83.8628	8,282.23	82.1295	8,282.23	83.698	8,282.23	82.149	8,282.23	82.5848	8,282.23	80.2059	8,282.23	81.6388	8,282.23	78.5333	8,282.23	80.1223	8,282.23	71.4509	8,282.23	72.9444	8,282.23	70.8777	8,282.23	74.4764	8,282.23	66.6206	8,282.23	68.0893	8,282.23	65.4588	8,282.23	62.2427	8,282.23	48.7915	8,282.23	56.7074	8,282.23	42.574	8,282.23	59.481	8,282.23	56.8631	8,282.23	59.8303	8,282.23	58.5286	8,282.23	52.7195	8,282.23	46.6837	8,282.23	48.3643	8,282.23	55.1668	8,282.23	56.2017	8,282.23	53.0171	8,282.23	34.4391	8,282.23	49.4036	8,282.23	51.0256
8,573.73	83.7362	8,573.73	84.154	8,573.73	84.2227	8,573.73	84.6228	8,573.73	83.122	8,573.73	82.7563	8,573.73	82.8315	8,573.73	82.4437	8,573.73	81.2422	8,573.73	82.1657	8,573.73	78.9075	8,573.73	78.0522	8,573.73	70.6047	8,573.73	72.2046	8,573.73	66.4122	8,573.73	72.9525	8,573.73	66.1717	8,573.73	68.2482	8,573.73	65.5249	8,573.73	61.066	8,573.73	54.1565	8,573.73	58.6678	8,573.73	54.0398	8,573.73	60.2736	8,573.73	52.8774	8,573.73	55.5154	8,573.73	52.6342	8,573.73	56.9093	8,573.73	39.7053	8,573.73	45.1346	8,573.73	53.2109	8,573.73	47.8239	8,573.73	55.8576	8,573.73	42.6577	8,573.73	45.5083	8,573.73	53.4218
8,876.95	83.3818	8,876.95	83.8171	8,876.95	83.9244	8,876.95	83.4544	8,876.95	82.63	8,876.95	82.6606	8,876.95	83.0268	8,876.95	82.6842	8,876.95	80.6949	8,876.95	80.2308	8,876.95	78.8814	8,876.95	77.1774	8,876.95	69.3823	8,876.95	68.4085	8,876.95	65.3787	8,876.95	69.3648	8,876.95	68.5581	8,876.95	62.6559	8,876.95	65.6862	8,876.95	59.071	8,876.95	56.502	8,876.95	56.1408	8,876.95	45.0923	8,876.95	57.9891	8,876.95	51.6846	8,876.95	55.399	8,876.95	50.6787	8,876.95	56.4335	8,876.95	41.58	8,876.95	50.8894	8,876.95	55.5003	8,876.95	41.0265	8,876.95	48.1756	8,876.95	49.4072	8,876.95	40.5091	8,876.95	48.0574
9,188.96	83.463	9,188.96	83.5705	9,188.96	83.6564	9,188.96	83.2353	9,188.96	83.0079	9,188.96	83.4462	9,188.96	83.4638	9,188.96	82.9378	9,188.96	80.4739	9,188.96	80.0485	9,188.96	77.1937	9,188.96	76.9361	9,188.96	71.9421	9,188.96	67.3269	9,188.96	69.1985	9,188.96	69.3921	9,188.96	71.1389	9,188.96	62.1607	9,188.96	66.4961	9,188.96	59.7631	9,188.96	56.9915	9,188.96	58.3809	9,188.96	50.2418	9,188.96	57.6965	9,188.96	44.6747	9,188.96	52.9752	9,188.96	53.2395	9,188.96	55.0874	9,188.96	50.2159	9,188.96	47.5615	9,188.96	49.5679	9,188.96	48.2164	9,188.96	53.0275	9,188.96	49.681	9,188.96	43.3728	9,188.96	46.1682
9,514.16	83.9489	9,514.16	82.8329	9,514.16	83.3126	9,514.16	83.0639	9,514.16	83.771	9,514.16	83.1327	9,514.16	83.9711	9,514.16	82.8582	9,514.16	80.6038	9,514.16	78.5311	9,514.16	76.7401	9,514.16	75.467	9,514.16	74.8476	9,514.16	68.3288	9,514.16	68.0298	9,514.16	70.0334	9,514.16	70.9528	9,514.16	58.7559	9,514.16	64.5077	9,514.16	59.9418	9,514.16	51.0267	9,514.16	60.4648	9,514.16	51.6929	9,514.16	58.3537	9,514.16	51.1769	9,514.16	56.0915	9,514.16	49.3454	9,514.16	53.5197	9,514.16	49.049	9,514.16	37.2867	9,514.16	43.2389	9,514.16	51.0938	9,514.16	52.9121	9,514.16	48.7928	9,514.16	42.6165	9,514.16	46.4036
9,849.61	83.9561	9,849.61	83.292	9,849.61	83.9931	9,849.61	82.9605	9,849.61	83.8815	9,849.61	83.6826	9,849.61	83.4932	9,849.61	82.4411	9,849.61	79.784	9,849.61	78.1081	9,849.61	77.139	9,849.61	75.33	9,849.61	74.6403	9,849.61	68.6575	9,849.61	68.1793	9,849.61	68.1664	9,849.61	69.094	9,849.61	65.3024	9,849.61	62.2818	9,849.61	60.3516	9,849.61	53.9876	9,849.61	56.2161	9,849.61	47.6482	9,849.61	58.0314	9,849.61	55.0712	9,849.61	53.6813	9,849.61	51.1424	9,849.61	49.599	9,849.61	47.288	9,849.61	30.7353	9,849.61	41.8134	9,849.61	47.7655	9,849.61	48.0778	9,849.61	46.6977	9,849.61	42.0788	9,849.61	43.7063
10,196.8	84.2089	10,196.8	83.3692	10,196.8	83.1671	10,196.8	83.4191	10,196.8	83.9646	10,196.8	83.4351	10,196.8	81.8825	10,196.8	81.533	10,196.8	78.3994	10,196.8	77.8728	10,196.8	75.018	10,196.8	76.4204	10,196.8	73.4206	10,196.8	68.8539	10,196.8	64.6588	10,196.8	68.0509	10,196.8	65.662	10,196.8	65.0325	10,196.8	60.0268	10,196.8	57.2736	10,196.8	50.2418	10,196.8	56.1949	10,196.8	43.9914	10,196.8	59.2955	10,196.8	51.9557	10,196.8	52.8842	10,196.8	50.8114	10,196.8	48.7745	10,196.8	38.7797	10,196.8	40.941	10,196.8	50.2721	10,196.8	49.1417	10,196.8	51.1695	10,196.8	49.1502	10,196.8	39.7749	10,196.8	38.2314
10,555.7	84.3286	10,555.7	83.754	10,555.7	82.8947	10,555.7	83.5025	10,555.7	83.5988	10,555.7	83.0438	10,555.7	80.8336	10,555.7	81.2048	10,555.7	77.6432	10,555.7	77.6661	10,555.7	74.8585	10,555.7	75.5277	10,555.7	71.4532	10,555.7	68.6906	10,555.7	63.4372	10,555.7	66.4355	10,555.7	63.7096	10,555.7	58.464	10,555.7	55.4624	10,555.7	54.7747	10,555.7	45.8258	10,555.7	51.9942	10,555.7	35.6822	10,555.7	51.6255	10,555.7	44.0173	10,555.7	52.1413	10,555.7	46.0173	10,555.7	37.5765	10,555.7	36.9014	10,555.7	42.8141	10,555.7	50.5595	10,555.7	44.3943	10,555.7	49.3509	10,555.7	40.0752	10,555.7	46.3712	10,555.7	37.4815
10,927.7	83.9452	10,927.7	83.4369	10,927.7	83.4409	10,927.7	83.0376	10,927.7	82.8142	10,927.7	83.0801	10,927.7	80.3474	10,927.7	80.3652	10,927.7	77.1911	10,927.7	77.2427	10,927.7	74.261	10,927.7	74.0216	10,927.7	69.8859	10,927.7	68.4011	10,927.7	61.2939	10,927.7	62.2026	10,927.7	61.2756	10,927.7	55.5527	10,927.7	54.3796	10,927.7	56.7855	10,927.7	47.9425	10,927.7	51.0185	10,927.7	40.1667	10,927.7	49.5695	10,927.7	43.7788	10,927.7	53.1317	10,927.7	24.7675	10,927.7	43.4577	10,927.7	39.9448	10,927.7	43.2654	10,927.7	52.8696	10,927.7	38.2707	10,927.7	49.0812	10,927.7	38.6483	10,927.7	44.7998	10,927.7	39.7528
11,313	83.3672	11,313	83.3557	11,313	82.632	11,313	83.5529	11,313	82.9033	11,313	82.7362	11,313	80.0671	11,313	79.9646	11,313	77.813	11,313	77.0871	11,313	74.1502	11,313	73.1564	11,313	69.3156	11,313	67.5481	11,313	60.0316	11,313	61.8243	11,313	61.1619	11,313	56.6982	11,313	53.1996	11,313	50.0855	11,313	46.4168	11,313	49.5088	11,313	41.8047	11,313	47.4683	11,313	40.2029	11,313	46.6412	11,313	44.5197	11,313	34.4603	11,313	46.4053	11,313	45.5909	11,313	47.9143	11,313	41.4095	11,313	40.6828	11,313	41.7537	11,313	43.6554	11,313	39.4172
11,712.9	83.4276	11,712.9	82.7005	11,712.9	83.4653	11,712.9	83.0279	11,712.9	83.0966	11,712.9	82.1164	11,712.9	80.535	11,712.9	78.9595	11,712.9	77.312	11,712.9	75.8941	11,712.9	73.0162	11,712.9	72.1197	11,712.9	68.9274	11,712.9	66.7539	11,712.9	61.2974	11,712.9	60.423	11,712.9	58.8056	11,712.9	55.8769	11,712.9	49.0984	11,712.9	49.4608	11,712.9	48.44	11,712.9	48.8206	11,712.9	44.4991	11,712.9	46.1109	11,712.9	41.9831	11,712.9	48.4673	11,712.9	41.0131	11,712.9	43.5547	11,712.9	42.532	11,712.9	42.4215	11,712.9	41.6407	11,712.9	48.0105	11,712.9	42.3747	11,712.9	24.6272	11,712.9	36.0586	11,712.9	29.6682
12,126	82.6712	12,126	81.9862	12,126	82.664	12,126	83.1108	12,126	82.0447	12,126	80.9773	12,126	79.6301	12,126	77.993	12,126	76.7507	12,126	75.344	12,126	73.4588	12,126	70.3953	12,126	70.0512	12,126	63.8328	12,126	63.9448	12,126	55.4634	12,126	59.2137	12,126	50.5341	12,126	53.7372	12,126	43.3908	12,126	46.7485	12,126	43.3794	12,126	46.3603	12,126	43.2585	12,126	39.3242	12,126	47.4972	12,126	36.9334	12,126	39.8439	12,126	39.5235	12,126	35.3544	12,126	41.0685	12,126	41.0425	12,126	33.2209	12,126	36.688	12,126	37.8873	12,126	41.7609
12,553.7	81.5738	12,553.7	81.7782	12,553.7	81.9758	12,553.7	82.607	12,553.7	81.4436	12,553.7	80.8849	12,553.7	79.8491	12,553.7	78.4025	12,553.7	76.744	12,553.7	74.9946	12,553.7	74.0057	12,553.7	70.5469	12,553.7	69.963	12,553.7	63.108	12,553.7	63.9467	12,553.7	56.2539	12,553.7	57.1954	12,553.7	48.8896	12,553.7	54.0312	12,553.7	39.7599	12,553.7	48.5329	12,553.7	50.1778	12,553.7	43.0828	12,553.7	39.7495	12,553.7	42.3862	12,553.7	43.5975	12,553.7	44.6842	12,553.7	32.5622	12,553.7	45.6445	12,553.7	41.857	12,553.7	46.3483	12,553.7	39.3694	12,553.7	21.1909	12,553.7	19.9234	12,553.7	37.1811	12,553.7	40.1704
12,996.1	81.0618	12,996.1	81.7087	12,996.1	81.5517	12,996.1	81.8617	12,996.1	80.4227	12,996.1	80.0524	12,996.1	78.8506	12,996.1	77.2726	12,996.1	75.3249	12,996.1	73.7048	12,996.1	73.059	12,996.1	67.0676	12,996.1	67.5475	12,996.1	56.1961	12,996.1	62.8183	12,996.1	45.3948	12,996.1	57.0222	12,996.1	38.4264	12,996.1	55.4857	12,996.1	44.8789	12,996.1	46.9027	12,996.1	44.3456	12,996.1	43.6478	12,996.1	43.7646	12,996.1	45.1806	12,996.1	44.4698	12,996.1	26.3324	12,996.1	40.2794	12,996.1	31.4519	12,996.1	35.595	12,996.1	45.435	12,996.1	40.8871	12,996.1	43.1992	12,996.1	40.7916	12,996.1	39.1583	12,996.1	28.5688
13,454.6	79.8126	13,454.6	80.9465	13,454.6	80.6595	13,454.6	81.377	13,454.6	79.7099	13,454.6	79.6168	13,454.6	77.9432	13,454.6	77.3071	13,454.6	74.7389	13,454.6	73.3349	13,454.6	71.7842	13,454.6	65.5048	13,454.6	66.0446	13,454.6	55.5926	13,454.6	60.1458	13,454.6	49.1474	13,454.6	53.4396	13,454.6	46.6121	13,454.6	50.1583	13,454.6	44.4378	13,454.6	28.6433	13,454.6	51.2716	13,454.6	42.7964	13,454.6	49.4388	13,454.6	9.21935	13,454.6	46.4323	13,454.6	40.508	13,454.6	47.9883	13,454.6	41.1144	13,454.6	27.439	13,454.6	47.4365	13,454.6	39.7713	13,454.6	48.9848	13,454.6	41.3775	13,454.6	49.1287	13,454.6	31.318
13,929.2	79.1871	13,929.2	80.6675	13,929.2	80.2941	13,929.2	80.7302	13,929.2	79.3351	13,929.2	79.4875	13,929.2	77.3537	13,929.2	76.5559	13,929.2	73.19	13,929.2	72.7988	13,929.2	68.4618	13,929.2	63.9586	13,929.2	59.7776	13,929.2	47.5627	13,929.2	57.4935	13,929.2	44.5217	13,929.2	50.1524	13,929.2	38.7021	13,929.2	50.2064	13,929.2	45.5473	13,929.2	45.8152	13,929.2	49.1578	13,929.2	36.0583	13,929.2	40.9628	13,929.2	42.3052	13,929.2	42.8795	13,929.2	39.0053	13,929.2	40.336	13,929.2	42.7739	13,929.2	41.2225	13,929.2	43.8044	13,929.2	33.7116	13,929.2	49.3535	13,929.2	39.4376	13,929.2	52.7055	13,929.2	37.679
14,419.9	79.0704	14,419.9	79.8534	14,419.9	80.1791	14,419.9	80.2838	14,419.9	78.8126	14,419.9	78.3673	14,419.9	76.3243	14,419.9	76.5724	14,419.9	72.7891	14,419.9	71.1104	14,419.9	65.4236	14,419.9	58.7603	14,419.9	59.965	14,419.9	39.5745	14,419.9	57.0035	14,419.9	45.2877	14,419.9	48.6388	14,419.9	38.709	14,419.9	47.3893	14,419.9	46.1902	14,419.9	38.9784	14,419.9	50.4344	14,419.9	36.5741	14,419.9	40.3347	14,419.9	45.778	14,419.9	43.7273	14,419.9	41.889	14,419.9	42.6093	14,419.9	40.5259	14,419.9	41.5351	14,419.9	42.5767	14,419.9	40.3512	14,419.9	45.9877	14,419.9	38.5387	14,419.9	49.3132	14,419.9	36.4216
14,928.2	79.661	14,928.2	80.2083	14,928.2	80.1378	14,928.2	79.9261	14,928.2	78.7636	14,928.2	78.3356	14,928.2	76.7671	14,928.2	75.3785	14,928.2	72.3147	14,928.2	69.0317	14,928.2	63.8307	14,928.2	57.0004	14,928.2	59.4397	14,928.2	38.539	14,928.2	54.1736	14,928.2	48.0797	14,928.2	54.1773	14,928.2	23.8072	14,928.2	47.5511	14,928.2	42.6465	14,928.2	42.659	14,928.2	48.2979	14,928.2	33.9482	14,928.2	41.9083	14,928.2	42.4924	14,928.2	43.3598	14,928.2	29.9615	14,928.2	40.3977	14,928.2	39.0291	14,928.2	45.0786	14,928.2	36.6002	14,928.2	40.8229	14,928.2	49.5731	14,928.2	32.9122	14,928.2	51.1018	14,928.2	36.0264
15,455.6	80.6194	15,455.6	80.6975	15,455.6	80.9406	15,455.6	79.708	15,455.6	78.9225	15,455.6	77.5926	15,455.6	76.6358	15,455.6	74.5594	15,455.6	70.4736	15,455.6	66.7606	15,455.6	57.6301	15,455.6	51.7029	15,455.6	55.7071	15,455.6	49.3607	15,455.6	49.727	15,455.6	47.8027	15,455.6	42.5281	15,455.6	41.8555	15,455.6	43.2247	15,455.6	47.1374	15,455.6	40.7879	15,455.6	46.2035	15,455.6	39.444	15,455.6	39.3025	15,455.6	42.9452	15,455.6	41.0965	15,455.6	42.7724	15,455.6	46.4102	15,455.6	37.5979	15,455.6	44.5094	15,455.6	39.5217	15,455.6	33.2921	15,455.6	46.406	15,455.6	33.621	15,455.6	44.4131	15,455.6	36.2221
16,000.5	81.3404	16,000.5	81.0431	16,000.5	81.3021	16,000.5	79.475	16,000.5	78.9054	16,000.5	77.4546	16,000.5	76.1133	16,000.5	73.5597	16,000.5	66.5323	16,000.5	64.4036	16,000.5	48.0391	16,000.5	49.9201	16,000.5	57.4187	16,000.5	53.5893	16,000.5	54.2582	16,000.5	50.0661	16,000.5	52.5984	16,000.5	42.4742	16,000.5	45.5637	16,000.5	30.2231	16,000.5	37.7673	16,000.5	27.5586	16,000.5	33.4482	16,000.5	34.4169	16,000.5	43.056	16,000.5	35.578	16,000.5	45.262	16,000.5	34.5961	16,000.5	42.0275	16,000.5	28.461	16,000.5	35.5945	16,000.5	40.6897	16,000.5	41.6399	16,000.5	35.1285	16,000.5	47.2432	16,000.5	32.798
16,564.5	81.4274	16,564.5	80.9501	16,564.5	80.9062	16,564.5	78.891	16,564.5	78.406	16,564.5	76.7503	16,564.5	74.8688	16,564.5	72.114	16,564.5	58.37	16,564.5	60.0324	16,564.5	61.6345	16,564.5	58.6612	16,564.5	61.674	16,564.5	61.168	16,564.5	60.8347	16,564.5	58.7737	16,564.5	57.5998	16,564.5	49.383	16,564.5	47.848	16,564.5	48.9708	16,564.5	43.3266	16,564.5	41.0303	16,564.5	35.6714	16,564.5	41.1391	16,564.5	44.1354	16,564.5	34.1843	16,564.5	45.9136	16,564.5	41.1109	16,564.5	30.3757	16,564.5	39.3228	16,564.5	39.2779	16,564.5	36.4511	16,564.5	36.7698	16,564.5	37.2678	16,564.5	46.2293	16,564.5	38.6918
17,148.9	81.5098	17,148.9	80.874	17,148.9	80.5241	17,148.9	78.3593	17,148.9	77.4101	17,148.9	76.0444	17,148.9	72.6428	17,148.9	69.4182	17,148.9	53.7163	17,148.9	57.1394	17,148.9	62.2377	17,148.9	62.2118	17,148.9	64.8087	17,148.9	63.4742	17,148.9	63.299	17,148.9	59.3604	17,148.9	59.536	17,148.9	52.7559	17,148.9	46.6244	17,148.9	51.8412	17,148.9	45.5772	17,148.9	39.7792	17,148.9	37.9688	17,148.9	43.205	17,148.9	41.1252	17,148.9	47.2458	17,148.9	43.3108	17,148.9	43.2921	17,148.9	30.9808	17,148.9	42.3866	17,148.9	38.1076	17,148.9	35.4004	17,148.9	36.6794	17,148.9	31.2199	17,148.9	40.8487	17,148.9	38.2526
17,752.4	80.9481	17,752.4	79.7048	17,752.4	79.1285	17,752.4	76.6368	17,752.4	76.1289	17,752.4	73.7544	17,752.4	67.7905	17,752.4	64.4144	17,752.4	63.0829	17,752.4	59.6799	17,752.4	64.9649	17,752.4	63.8465	17,752.4	66.2648	17,752.4	65.1172	17,752.4	64.7508	17,752.4	60.2499	17,752.4	58.5708	17,752.4	54.5143	17,752.4	48.0442	17,752.4	49.9982	17,752.4	48.743	17,752.4	45.0681	17,752.4	40.7296	17,752.4	43.0567	17,752.4	39.3987	17,752.4	45.3438	17,752.4	42.3831	17,752.4	35.3355	17,752.4	34.2408	17,752.4	37.7761	17,752.4	42.7832	17,752.4	37.5882	17,752.4	43.1058	17,752.4	32.9493	17,752.4	39.8558	17,752.4	38.671
18,379.4	79.6451	18,379.4	77.9531	18,379.4	77.1926	18,379.4	74.788	18,379.4	74.7475	18,379.4	71.1039	18,379.4	61.1167	18,379.4	56.8718	18,379.4	62.6833	18,379.4	63.0428	18,379.4	66.1925	18,379.4	64.5679	18,379.4	64.3478	18,379.4	67.2638	18,379.4	64.926	18,379.4	61.5915	18,379.4	55.3386	18,379.4	54.0023	18,379.4	47.9156	18,379.4	45.0988	18,379.4	47.4568	18,379.4	38.3403	18,379.4	42.2048	18,379.4	41.1336	18,379.4	41.8385	18,379.4	41.139	18,379.4	43.1351	18,379.4	38.7695	18,379.4	34.7771	18,379.4	37.2326	18,379.4	41.0988	18,379.4	34.295	18,379.4	44.0126	18,379.4	38.7599	18,379.4	34.0241	18,379.4	39.3131
19,026.9	78.2993	19,026.9	76.5305	19,026.9	75.5312	19,026.9	73.6916	19,026.9	73.6255	19,026.9	68.1573	19,026.9	61.0421	19,026.9	49.9377	19,026.9	63.6489	19,026.9	62.7201	19,026.9	65.7364	19,026.9	64.8085	19,026.9	65.4827	19,026.9	66.2617	19,026.9	62.8573	19,026.9	60.653	19,026.9	45.9811	19,026.9	48.6546	19,026.9	39.8879	19,026.9	38.0823	19,026.9	42.3902	19,026.9	40.9094	19,026.9	37.2822	19,026.9	41.0523	19,026.9	39.4199	19,026.9	43.5863	19,026.9	41.6725	19,026.9	39.0211	19,026.9	27.8954	19,026.9	29.4453	19,026.9	40.1645	19,026.9	35.3622	19,026.9	44.6743	19,026.9	35.8806	19,026.9	29.1397	19,026.9	36.8358
19,697.8	76.7623	19,697.8	74.9047	19,697.8	73.4835	19,697.8	72.4059	19,697.8	71.4662	19,697.8	64.4237	19,697.8	60.378	19,697.8	50.8128	19,697.8	64.2491	19,697.8	62.8496	19,697.8	67.2665	19,697.8	65.0016	19,697.8	66.0187	19,697.8	63.8526	19,697.8	60.8669	19,697.8	55.162	19,697.8	51.9944	19,697.8	43.8373	19,697.8	46.4663	19,697.8	34.4184	19,697.8	43.7814	19,697.8	40.5058	19,697.8	38.953	19,697.8	39.3379	19,697.8	37.9544	19,697.8	34.5745	19,697.8	44.1519	19,697.8	23.994	19,697.8	32.5577	19,697.8	28.1968	19,697.8	38.8872	19,697.8	35.6673	19,697.8	43.7229	19,697.8	37.3503	19,697.8	32.3363	19,697.8	35.3648
19,999.5	76.4176	19,999.5	74.5236	19,999.5	72.3349	19,999.5	72.277	19,999.5	70.0533	19,999.5	63.9234	19,999.5	60.6998	19,999.5	48.9624	19,999.5	64.1159	19,999.5	61.9411	19,999.5	67.5941	19,999.5	65.8287	19,999.5	64.5376	19,999.5	62.6351	19,999.5	60.8565	19,999.5	52.3919	19,999.5	50.7265	19,999.5	39.8188	19,999.5	47.3995	19,999.5	43.0595	19,999.5	38.9596	19,999.5	43.2817	19,999.5	43.1143	19,999.5	39.4423	19,999.5	35.505	19,999.5	44.9838	19,999.5	45.3932	19,999.5	35.2705	19,999.5	39.7672	19,999.5	31.2363	19,999.5	36.7735	19,999.5	36.7746	19,999.5	41.9893	19,999.5	42.9507	19,999.5	35.6832	19,999.5	34.0454
