"SPL Vertical"
"On-Axis"		"10°"		"-10°"		"20°"		"-20°"		"30°"		"-30°"		"40°"		"-40°"		"50°"		"-50°"		"60°"		"-60°"		"70°"		"-70°"		"80°"		"-80°"		"90°"		"-90°"		"100°"		"-100°"		"110°"		"-110°"		"120°"		"-120°"		"130°"		"-130°"		"140°"		"-140°"		"150°"		"-150°"		"160°"		"-160°"		"170°"		"-170°"		"180°"
"Frequency / Hz"	"Sound Pressure Level / dB (re 20 µPa/V)  [2.83  V @ 1. m]"	"Frequency / Hz"	"Sound Pressure Level / dB (re 20 µPa/V)  [2.83  V @ 1. m]"	"Frequency / Hz"	"Sound Pressure Level / dB (re 20 µPa/V)  [2.83  V @ 1. m]"	"Frequency / Hz"	"Sound Pressure Level / dB (re 20 µPa/V)  [2.83  V @ 1. m]"	"Frequency / Hz"	"Sound Pressure Level / dB (re 20 µPa/V)  [2.83  V @ 1. m]"	"Frequency / Hz"	"Sound Pressure Level / dB (re 20 µPa/V)  [2.83  V @ 1. m]"	"Frequency / Hz"	"Sound Pressure Level / dB (re 20 µPa/V)  [2.83  V @ 1. m]"	"Frequency / Hz"	"Sound Pressure Level / dB (re 20 µPa/V)  [2.83  V @ 1. m]"	"Frequency / Hz"	"Sound Pressure Level / dB (re 20 µPa/V)  [2.83  V @ 1. m]"	"Frequency / Hz"	"Sound Pressure Level / dB (re 20 µPa/V)  [2.83  V @ 1. m]"	"Frequency / Hz"	"Sound Pressure Level / dB (re 20 µPa/V)  [2.83  V @ 1. m]"	"Frequency / Hz"	"Sound Pressure Level / dB (re 20 µPa/V)  [2.83  V @ 1. m]"	"Frequency / Hz"	"Sound Pressure Level / dB (re 20 µPa/V)  [2.83  V @ 1. m]"	"Frequency / Hz"	"Sound Pressure Level / dB (re 20 µPa/V)  [2.83  V @ 1. m]"	"Frequency / Hz"	"Sound Pressure Level / dB (re 20 µPa/V)  [2.83  V @ 1. m]"	"Frequency / Hz"	"Sound Pressure Level / dB (re 20 µPa/V)  [2.83  V @ 1. m]"	"Frequency / Hz"	"Sound Pressure Level / dB (re 20 µPa/V)  [2.83  V @ 1. m]"	"Frequency / Hz"	"Sound Pressure Level / dB (re 20 µPa/V)  [2.83  V @ 1. m]"	"Frequency / Hz"	"Sound Pressure Level / dB (re 20 µPa/V)  [2.83  V @ 1. m]"	"Frequency / Hz"	"Sound Pressure Level / dB (re 20 µPa/V)  [2.83  V @ 1. m]"	"Frequency / Hz"	"Sound Pressure Level / dB (re 20 µPa/V)  [2.83  V @ 1. m]"	"Frequency / Hz"	"Sound Pressure Level / dB (re 20 µPa/V)  [2.83  V @ 1. m]"	"Frequency / Hz"	"Sound Pressure Level / dB (re 20 µPa/V)  [2.83  V @ 1. m]"	"Frequency / Hz"	"Sound Pressure Level / dB (re 20 µPa/V)  [2.83  V @ 1. m]"	"Frequency / Hz"	"Sound Pressure Level / dB (re 20 µPa/V)  [2.83  V @ 1. m]"	"Frequency / Hz"	"Sound Pressure Level / dB (re 20 µPa/V)  [2.83  V @ 1. m]"	"Frequency / Hz"	"Sound Pressure Level / dB (re 20 µPa/V)  [2.83  V @ 1. m]"	"Frequency / Hz"	"Sound Pressure Level / dB (re 20 µPa/V)  [2.83  V @ 1. m]"	"Frequency / Hz"	"Sound Pressure Level / dB (re 20 µPa/V)  [2.83  V @ 1. m]"	"Frequency / Hz"	"Sound Pressure Level / dB (re 20 µPa/V)  [2.83  V @ 1. m]"	"Frequency / Hz"	"Sound Pressure Level / dB (re 20 µPa/V)  [2.83  V @ 1. m]"	"Frequency / Hz"	"Sound Pressure Level / dB (re 20 µPa/V)  [2.83  V @ 1. m]"	"Frequency / Hz"	"Sound Pressure Level / dB (re 20 µPa/V)  [2.83  V @ 1. m]"	"Frequency / Hz"	"Sound Pressure Level / dB (re 20 µPa/V)  [2.83  V @ 1. m]"	"Frequency / Hz"	"Sound Pressure Level / dB (re 20 µPa/V)  [2.83  V @ 1. m]"	"Frequency / Hz"	"Sound Pressure Level / dB (re 20 µPa/V)  [2.83  V @ 1. m]"
20.5078	50.0191	20.5078	50.1352	20.5078	49.9114	20.5078	50.2566	20.5078	49.8142	20.5078	50.3797	20.5078	49.7289	20.5078	50.5004	20.5078	49.6557	20.5078	50.6138	20.5078	49.5939	20.5078	50.7149	20.5078	49.542	20.5078	50.7977	20.5078	49.4983	20.5078	50.8557	20.5078	49.4608	20.5078	50.882	20.5078	49.4279	20.5078	50.8703	20.5078	49.3987	20.5078	50.816	20.5078	49.3732	20.5078	50.7173	20.5078	49.353	20.5078	50.5766	20.5078	49.3415	20.5078	50.4013	20.5078	49.3445	20.5078	50.2041	20.5078	49.3692	20.5078	50.001	20.5078	49.4237	20.5078	49.8094	20.5078	49.5144	20.5078	49.644
21.9727	48.1169	21.9727	48.2195	21.9727	48.0239	21.9727	48.3296	21.9727	47.9424	21.9727	48.4442	21.9727	47.8735	21.9727	48.56	21.9727	47.8179	21.9727	48.673	21.9727	47.7755	21.9727	48.7789	21.9727	47.7462	21.9727	48.873	21.9727	47.7293	21.9727	48.9502	21.9727	47.7239	21.9727	49.0054	21.9727	47.7293	21.9727	49.034	21.9727	47.7448	21.9727	49.0323	21.9727	47.7701	21.9727	48.9982	21.9727	47.8055	21.9727	48.9319	21.9727	47.8521	21.9727	48.8365	21.9727	47.9117	21.9727	48.7179	21.9727	47.9863	21.9727	48.5843	21.9727	48.0776	21.9727	48.4454	21.9727	48.1862	21.9727	48.3103
23.4375	51.1401	23.4375	51.1551	23.4375	51.1274	23.4375	51.172	23.4375	51.1176	23.4375	51.1901	23.4375	51.1112	23.4375	51.209	23.4375	51.1085	23.4375	51.2277	23.4375	51.1097	23.4375	51.2456	23.4375	51.1148	23.4375	51.2615	23.4375	51.1235	23.4375	51.2745	23.4375	51.1352	23.4375	51.2834	23.4375	51.149	23.4375	51.2874	23.4375	51.1638	23.4375	51.2862	23.4375	51.1784	23.4375	51.2799	23.4375	51.1916	23.4375	51.2698	23.4375	51.2022	23.4375	51.2574	23.4375	51.2097	23.4375	51.2449	23.4375	51.2143	23.4375	51.2341	23.4375	51.2168	23.4375	51.2261	23.4375	51.2186	23.4375	51.2212
24.9023	54.0361	24.9023	54.0664	24.9023	54.0088	24.9023	54.0989	24.9023	53.9854	24.9023	54.1324	24.9023	53.9666	24.9023	54.1658	24.9023	53.9526	24.9023	54.1978	24.9023	53.9437	24.9023	54.2272	24.9023	53.9399	24.9023	54.2527	24.9023	53.9408	24.9023	54.273	24.9023	53.9462	24.9023	54.2869	24.9023	53.9554	24.9023	54.2934	24.9023	53.9679	24.9023	54.292	24.9023	53.9829	24.9023	54.2827	24.9023	53.9999	24.9023	54.266	24.9023	54.0183	24.9023	54.2435	24.9023	54.0379	24.9023	54.2168	24.9023	54.0587	24.9023	54.188	24.9023	54.081	24.9023	54.1589	24.9023	54.105	24.9023	54.131
26.3672	54.7318	26.3672	54.7656	26.3672	54.6953	26.3672	54.7963	26.3672	54.657	26.3672	54.8239	26.3672	54.6185	26.3672	54.849	26.3672	54.5816	26.3672	54.8723	26.3672	54.5484	26.3672	54.8942	26.3672	54.5207	26.3672	54.9149	26.3672	54.5003	26.3672	54.934	26.3672	54.4883	26.3672	54.9505	26.3672	54.4854	26.3672	54.963	26.3672	54.4921	26.3672	54.9699	26.3672	54.508	26.3672	54.9695	26.3672	54.5325	26.3672	54.9605	26.3672	54.5647	26.3672	54.9423	26.3672	54.6034	26.3672	54.9151	26.3672	54.647	26.3672	54.8797	26.3672	54.6941	26.3672	54.8379	26.3672	54.7429	26.3672	54.7916
27.832	55.3913	27.832	55.3914	27.832	55.3947	27.832	55.3954	27.832	55.4017	27.832	55.4041	27.832	55.4128	27.832	55.4184	27.832	55.429	27.832	55.4394	27.832	55.4512	27.832	55.4678	27.832	55.4805	27.832	55.5042	27.832	55.5176	27.832	55.5485	27.832	55.5625	27.832	55.6004	27.832	55.6149	27.832	55.6588	27.832	55.6736	27.832	55.7223	27.832	55.7366	27.832	55.7882	27.832	55.8015	27.832	55.8538	27.832	55.8653	27.832	55.9152	27.832	55.9243	27.832	55.9685	27.832	55.9752	27.832	56.0101	27.832	56.0143	27.832	56.0368	27.832	56.0388	27.832	56.0465
29.2969	57.3744	29.2969	57.3828	29.2969	57.3603	29.2969	57.3851	29.2969	57.3414	29.2969	57.3807	29.2969	57.3187	29.2969	57.3694	29.2969	57.2934	29.2969	57.3511	29.2969	57.2666	29.2969	57.3257	29.2969	57.2394	29.2969	57.2933	29.2969	57.2126	29.2969	57.2545	29.2969	57.1867	29.2969	57.2102	29.2969	57.1618	29.2969	57.1618	29.2969	57.1376	29.2969	57.1117	29.2969	57.1136	29.2969	57.0627	29.2969	57.0892	29.2969	57.0181	29.2969	57.0638	29.2969	56.981	29.2969	57.0373	29.2969	56.9543	29.2969	57.0105	29.2969	56.9395	29.2969	56.9846	29.2969	56.9368	29.2969	56.9618	29.2969	56.945
30.7617	57.5362	30.7617	57.6039	30.7617	57.4765	30.7617	57.6761	30.7617	57.4287	30.7617	57.75	30.7617	57.3962	30.7617	57.8235	30.7617	57.3817	30.7617	57.895	30.7617	57.3869	30.7617	57.9636	30.7617	57.412	30.7617	58.0286	30.7617	57.456	30.7617	58.0897	30.7617	57.5169	30.7617	58.1463	30.7617	57.5918	30.7617	58.1979	30.7617	57.6776	30.7617	58.244	30.7617	57.7706	30.7617	58.2836	30.7617	57.8671	30.7617	58.3158	30.7617	57.9632	30.7617	58.3393	30.7617	58.0549	30.7617	58.3523	30.7617	58.1385	30.7617	58.3533	30.7617	58.2108	30.7617	58.3405	30.7617	58.2694	30.7617	58.3128
32.2266	60.9747	32.2266	60.9723	32.2266	60.9767	32.2266	60.9697	32.2266	60.9782	32.2266	60.9665	32.2266	60.9788	32.2266	60.9626	32.2266	60.9782	32.2266	60.9574	32.2266	60.9761	32.2266	60.9505	32.2266	60.9721	32.2266	60.9417	32.2266	60.9663	32.2266	60.9308	32.2266	60.9586	32.2266	60.918	32.2266	60.9493	32.2266	60.904	32.2266	60.9386	32.2266	60.8896	32.2266	60.927	32.2266	60.876	32.2266	60.915	32.2266	60.8644	32.2266	60.903	32.2266	60.8557	32.2266	60.8914	32.2266	60.8504	32.2266	60.8804	32.2266	60.8487	32.2266	60.8704	32.2266	60.8504	32.2266	60.8618	32.2266	60.855
33.6914	62.7936	33.6914	62.7901	33.6914	62.7934	33.6914	62.7828	33.6914	62.7894	33.6914	62.7718	33.6914	62.7814	33.6914	62.7571	33.6914	62.7694	33.6914	62.739	33.6914	62.7534	33.6914	62.7177	33.6914	62.7334	33.6914	62.6936	33.6914	62.7097	33.6914	62.6673	33.6914	62.6827	33.6914	62.6396	33.6914	62.6532	33.6914	62.6111	33.6914	62.6221	33.6914	62.583	33.6914	62.5907	33.6914	62.556	33.6914	62.5603	33.6914	62.5311	33.6914	62.5323	33.6914	62.5092	33.6914	62.508	33.6914	62.4909	33.6914	62.4884	33.6914	62.4769	33.6914	62.4744	33.6914	62.4679	33.6914	62.4663	33.6914	62.4642
35.1562	64.5262	35.1562	64.5355	35.1562	64.5176	35.1562	64.5449	35.1562	64.51	35.1562	64.5538	35.1562	64.5038	35.1562	64.5616	35.1562	64.4991	35.1562	64.5679	35.1562	64.4958	35.1562	64.5724	35.1562	64.4939	35.1562	64.575	35.1562	64.4933	35.1562	64.5758	35.1562	64.4937	35.1562	64.575	35.1562	64.4952	35.1562	64.573	35.1562	64.4977	35.1562	64.5703	35.1562	64.5013	35.1562	64.567	35.1562	64.5059	35.1562	64.5636	35.1562	64.5115	35.1562	64.5602	35.1562	64.5178	35.1562	64.5567	35.1562	64.5245	35.1562	64.5528	35.1562	64.5313	35.1562	64.5485	35.1562	64.5377	35.1562	64.5435
36.6211	66.2407	36.6211	66.2442	36.6211	66.2342	36.6211	66.2448	36.6211	66.2251	36.6211	66.2422	36.6211	66.2137	36.6211	66.2365	36.6211	66.2001	36.6211	66.2278	36.6211	66.1847	36.6211	66.2164	36.6211	66.168	36.6211	66.2026	36.6211	66.1503	36.6211	66.1869	36.6211	66.1321	36.6211	66.1699	36.6211	66.1141	36.6211	66.1522	36.6211	66.0968	36.6211	66.1343	36.6211	66.081	36.6211	66.1169	36.6211	66.0672	36.6211	66.1006	36.6211	66.056	36.6211	66.0856	36.6211	66.0477	36.6211	66.0724	36.6211	66.0425	36.6211	66.0612	36.6211	66.0406	36.6211	66.0522	36.6211	66.0417	36.6211	66.0456
38.0859	68.1096	38.0859	68.1142	38.0859	68.1029	38.0859	68.1166	38.0859	68.0942	38.0859	68.1168	38.0859	68.0837	38.0859	68.1149	38.0859	68.0717	38.0859	68.1111	38.0859	68.0583	38.0859	68.1056	38.0859	68.0441	38.0859	68.0988	38.0859	68.0294	38.0859	68.0911	38.0859	68.0149	38.0859	68.0827	38.0859	68.0012	38.0859	68.0741	38.0859	67.9891	38.0859	68.0654	38.0859	67.9792	38.0859	68.0566	38.0859	67.9723	38.0859	68.0476	38.0859	67.9687	38.0859	68.0383	38.0859	67.9686	38.0859	68.0284	38.0859	67.9718	38.0859	68.018	38.0859	67.9781	38.0859	68.0073	38.0859	67.9866	38.0859	67.9966
39.5508	69.6122	39.5508	69.6144	39.5508	69.606	39.5508	69.6124	39.5508	69.5958	39.5508	69.6063	39.5508	69.582	39.5508	69.5965	39.5508	69.5649	39.5508	69.5835	39.5508	69.5449	39.5508	69.568	39.5508	69.5227	39.5508	69.5508	39.5508	69.4989	39.5508	69.5328	39.5508	69.4747	39.5508	69.515	39.5508	69.4509	39.5508	69.4979	39.5508	69.4288	39.5508	69.482	39.5508	69.4095	39.5508	69.4675	39.5508	69.3942	39.5508	69.4543	39.5508	69.3835	39.5508	69.442	39.5508	69.3777	39.5508	69.4303	39.5508	69.3769	39.5508	69.4187	39.5508	69.3805	39.5508	69.4075	39.5508	69.3874	39.5508	69.3968
41.0156	71.3031	41.0156	71.2968	41.0156	71.3045	41.0156	71.286	41.0156	71.301	41.0156	71.271	41.0156	71.2926	41.0156	71.2526	41.0156	71.2794	41.0156	71.2314	41.0156	71.2618	41.0156	71.2083	41.0156	71.2404	41.0156	71.1843	41.0156	71.216	41.0156	71.1602	41.0156	71.1895	41.0156	71.1371	41.0156	71.162	41.0156	71.1156	41.0156	71.1348	41.0156	71.0964	41.0156	71.109	41.0156	71.0798	41.0156	71.086	41.0156	71.066	41.0156	71.0665	41.0156	71.0547	41.0156	71.0512	41.0156	71.0458	41.0156	71.0403	41.0156	71.0389	41.0156	71.0337	41.0156	71.034	41.0156	71.0309	41.0156	71.0312
42.4805	72.9603	42.4805	72.9538	42.4805	72.9594	42.4805	72.9399	42.4805	72.951	42.4805	72.9193	42.4805	72.9354	42.4805	72.8924	42.4805	72.9132	42.4805	72.8601	42.4805	72.8848	42.4805	72.8236	42.4805	72.8512	42.4805	72.7839	42.4805	72.8133	42.4805	72.7422	42.4805	72.7722	42.4805	72.7	42.4805	72.7291	42.4805	72.6584	42.4805	72.6855	42.4805	72.6188	42.4805	72.6427	42.4805	72.5823	42.4805	72.6023	42.4805	72.5498	42.4805	72.5656	42.4805	72.5223	42.4805	72.5338	42.4805	72.5003	42.4805	72.5081	42.4805	72.4844	42.4805	72.489	42.4805	72.475	42.4805	72.4771	42.4805	72.4724
43.9453	74.4183	43.9453	74.4128	43.9453	74.4167	43.9453	74.4005	43.9453	74.4083	43.9453	74.3815	43.9453	74.3935	43.9453	74.3566	43.9453	74.3728	43.9453	74.3264	43.9453	74.3469	43.9453	74.292	43.9453	74.3167	43.9453	74.2547	43.9453	74.283	43.9453	74.2157	43.9453	74.247	43.9453	74.1766	43.9453	74.2098	43.9453	74.1386	43.9453	74.1726	43.9453	74.1032	43.9453	74.1366	43.9453	74.0714	43.9453	74.1028	43.9453	74.0441	43.9453	74.0722	43.9453	74.022	43.9453	74.0457	43.9453	74.0054	43.9453	74.0239	43.9453	73.9945	43.9453	74.0071	43.9453	73.9893	43.9453	73.9957	43.9453	73.9897
45.4102	75.6998	45.4102	75.6935	45.4102	75.6985	45.4102	75.6796	45.4102	75.6897	45.4102	75.6587	45.4102	75.6737	45.4102	75.6313	45.4102	75.651	45.4102	75.5983	45.4102	75.6224	45.4102	75.5609	45.4102	75.5888	45.4102	75.5202	45.4102	75.5513	45.4102	75.4778	45.4102	75.5112	45.4102	75.4351	45.4102	75.4697	45.4102	75.3936	45.4102	75.4283	45.4102	75.3547	45.4102	75.3882	45.4102	75.3196	45.4102	75.3507	45.4102	75.2893	45.4102	75.3169	45.4102	75.2646	45.4102	75.2878	45.4102	75.246	45.4102	75.2639	45.4102	75.2335	45.4102	75.2457	45.4102	75.2273	45.4102	75.2335	45.4102	75.2273
46.875	76.8775	46.875	76.8711	46.875	76.8753	46.875	76.8564	46.875	76.8647	46.875	76.8337	46.875	76.846	46.875	76.8039	46.875	76.8198	46.875	76.7677	46.875	76.787	46.875	76.7264	46.875	76.7486	46.875	76.6814	46.875	76.7059	46.875	76.6342	46.875	76.6603	46.875	76.5864	46.875	76.6133	46.875	76.5396	46.875	76.5663	46.875	76.4953	46.875	76.521	46.875	76.4549	46.875	76.4786	46.875	76.4197	46.875	76.4406	46.875	76.3904	46.875	76.4078	46.875	76.3676	46.875	76.3811	46.875	76.3519	46.875	76.3611	46.875	76.3434	46.875	76.348	46.875	76.342
48.3398	77.968	48.3398	77.9617	48.3398	77.9657	48.3398	77.947	48.3398	77.9549	48.3398	77.9242	48.3398	77.9359	48.3398	77.8942	48.3398	77.9093	48.3398	77.8579	48.3398	77.876	48.3398	77.8163	48.3398	77.837	48.3398	77.7708	48.3398	77.7935	48.3398	77.723	48.3398	77.747	48.3398	77.6744	48.3398	77.699	48.3398	77.6267	48.3398	77.651	48.3398	77.5814	48.3398	77.6046	48.3398	77.5398	48.3398	77.5612	48.3398	77.5034	48.3398	77.5222	48.3398	77.4729	48.3398	77.4886	48.3398	77.449	48.3398	77.4612	48.3398	77.4324	48.3398	77.4406	48.3398	77.4231	48.3398	77.4273	48.3398	77.4214
51.2695	79.5465	51.2695	79.5379	51.2695	79.5453	51.2695	79.5197	51.2695	79.5345	51.2695	79.4924	51.2695	79.5146	51.2695	79.4568	51.2695	79.4862	51.2695	79.4139	51.2695	79.4504	51.2695	79.3651	51.2695	79.4082	51.2695	79.3121	51.2695	79.361	51.2695	79.2567	51.2695	79.3104	51.2695	79.2008	51.2695	79.2579	51.2695	79.1464	51.2695	79.2051	51.2695	79.0952	51.2695	79.1536	51.2695	79.0491	51.2695	79.1049	51.2695	79.0093	51.2695	79.0603	51.2695	78.9769	51.2695	79.021	51.2695	78.9528	51.2695	78.9879	51.2695	78.9373	51.2695	78.9617	51.2695	78.9306	51.2695	78.9431	51.2695	78.9326
52.7344	80.0779	52.7344	80.0701	52.7344	80.0764	52.7344	80.0531	52.7344	80.0657	52.7344	80.0274	52.7344	80.0462	52.7344	79.9938	52.7344	80.0186	52.7344	79.9532	52.7344	79.9837	52.7344	79.9068	52.7344	79.9427	52.7344	79.8563	52.7344	79.8969	52.7344	79.8034	52.7344	79.8478	52.7344	79.7499	52.7344	79.7971	52.7344	79.6976	52.7344	79.7463	52.7344	79.6484	52.7344	79.6969	52.7344	79.6039	52.7344	79.6506	52.7344	79.5655	52.7344	79.6084	52.7344	79.5342	52.7344	79.5714	52.7344	79.5107	52.7344	79.5404	52.7344	79.4955	52.7344	79.5162	52.7344	79.4885	52.7344	79.4992	52.7344	79.4899
54.1992	80.5319	54.1992	80.5245	54.1992	80.5299	54.1992	80.5078	54.1992	80.5186	54.1992	80.4824	54.1992	80.4983	54.1992	80.4491	54.1992	80.4697	54.1992	80.4088	54.1992	80.4339	54.1992	80.363	54.1992	80.3921	54.1992	80.3132	54.1992	80.3456	54.1992	80.2612	54.1992	80.2963	54.1992	80.2087	54.1992	80.2457	54.1992	80.1576	54.1992	80.1955	54.1992	80.1097	54.1992	80.1473	54.1992	80.0665	54.1992	80.1026	54.1992	80.0292	54.1992	80.0623	54.1992	79.9988	54.1992	80.0275	54.1992	79.9759	54.1992	79.9989	54.1992	79.9607	54.1992	79.9768	54.1992	79.9534	54.1992	79.9617	54.1992	79.9538
55.6641	80.8628	55.6641	80.8568	55.6641	80.8592	55.6641	80.8415	55.6641	80.8462	55.6641	80.8173	55.6641	80.8243	55.6641	80.7851	55.6641	80.7943	55.6641	80.7461	55.6641	80.7573	55.6641	80.7016	55.6641	80.7148	55.6641	80.6534	55.6641	80.6684	55.6641	80.6031	55.6641	80.6196	55.6641	80.5526	55.6641	80.5704	55.6641	80.5037	55.6641	80.5224	55.6641	80.4581	55.6641	80.4771	55.6641	80.4172	55.6641	80.4358	55.6641	80.382	55.6641	80.3993	55.6641	80.3532	55.6641	80.3685	55.6641	80.3313	55.6641	80.3437	55.6641	80.3165	55.6641	80.3252	55.6641	80.3086	55.6641	80.3131	55.6641	80.3075
58.5938	81.4308	58.5938	81.4234	58.5938	81.4276	58.5938	81.4056	58.5938	81.4138	58.5938	81.378	58.5938	81.3902	58.5938	81.3416	58.5938	81.3576	58.5938	81.2978	58.5938	81.3172	58.5938	81.2482	58.5938	81.2707	58.5938	81.1947	58.5938	81.2198	58.5938	81.1394	58.5938	81.1666	58.5938	81.0845	58.5938	81.1129	58.5938	81.0319	58.5938	81.0608	58.5938	80.9833	58.5938	81.0118	58.5938	80.9403	58.5938	80.9675	58.5938	80.9039	58.5938	80.9287	58.5938	80.8748	58.5938	80.8961	58.5938	80.8531	58.5938	80.87	58.5938	80.8387	58.5938	80.8505	58.5938	80.8315	58.5938	80.8376	58.5938	80.8312
60.0586	81.7362	60.0586	81.7281	60.0586	81.7334	60.0586	81.7091	60.0586	81.7197	60.0586	81.68	60.0586	81.6957	60.0586	81.6419	60.0586	81.6625	60.0586	81.5961	60.0586	81.6213	60.0586	81.5445	60.0586	81.5739	60.0586	81.489	60.0586	81.522	60.0586	81.4319	60.0586	81.4678	60.0586	81.3754	60.0586	81.4132	60.0586	81.3217	60.0586	81.3603	60.0586	81.2724	60.0586	81.3107	60.0586	81.2293	60.0586	81.2658	60.0586	81.1932	60.0586	81.2266	60.0586	81.1648	60.0586	81.1936	60.0586	81.1441	60.0586	81.1671	60.0586	81.1311	60.0586	81.147	60.0586	81.1251	60.0586	81.1334	60.0586	81.126
62.9883	82.2155	62.9883	82.2052	62.9883	82.2139	62.9883	82.1834	62.9883	82.2007	62.9883	82.1509	62.9883	82.1765	62.9883	82.109	62.9883	82.1423	62.9883	82.0593	62.9883	82.0996	62.9883	82.0038	62.9883	82.0503	62.9883	81.9448	62.9883	81.9964	62.9883	81.8847	62.9883	81.9401	62.9883	81.8259	62.9883	81.8838	62.9883	81.7707	62.9883	81.8294	62.9883	81.721	62.9883	81.7787	62.9883	81.6783	62.9883	81.7331	62.9883	81.6435	62.9883	81.6933	62.9883	81.617	62.9883	81.6599	62.9883	81.5988	62.9883	81.6328	62.9883	81.5882	62.9883	81.6119	62.9883	81.5847	62.9883	81.5969	62.9883	81.5878
64.4531	82.4162	64.4531	82.4046	64.4531	82.4157	64.4531	82.3813	64.4531	82.4031	64.4531	82.3471	64.4531	82.3792	64.4531	82.3034	64.4531	82.345	64.4531	82.2519	64.4531	82.3021	64.4531	82.1948	64.4531	82.2524	64.4531	82.1345	64.4531	82.198	64.4531	82.0734	64.4531	82.1413	64.4531	82.0141	64.4531	82.0846	64.4531	81.959	64.4531	82.03	64.4531	81.9098	64.4531	81.9792	64.4531	81.8681	64.4531	81.9336	64.4531	81.8347	64.4531	81.894	64.4531	81.8099	64.4531	81.8606	64.4531	81.7933	64.4531	81.8335	64.4531	81.7845	64.4531	81.8123	64.4531	81.7826	64.4531	81.7968	64.4531	81.7868
67.3828	82.7698	67.3828	82.7545	67.3828	82.7727	67.3828	82.7271	67.3828	82.7632	67.3828	82.6886	67.3828	82.7421	67.3828	82.6406	67.3828	82.7104	67.3828	82.5851	67.3828	82.67	67.3828	82.5245	67.3828	82.6228	67.3828	82.4614	67.3828	82.571	67.3828	82.3987	67.3828	82.5172	67.3828	82.3392	67.3828	82.4635	67.3828	82.2854	67.3828	82.4119	67.3828	82.2393	67.3828	82.3641	67.3828	82.2024	67.3828	82.321	67.3828	82.1754	67.3828	82.2833	67.3828	82.158	67.3828	82.2508	67.3828	82.1495	67.3828	82.2232	67.3828	82.1488	67.3828	82.2	67.3828	82.1545	67.3828	82.1807	67.3828	82.1655
68.8477	82.9428	68.8477	82.9276	68.8477	82.9451	68.8477	82.8999	68.8477	82.9348	68.8477	82.8607	68.8477	82.9127	68.8477	82.8114	68.8477	82.88	68.8477	82.7541	68.8477	82.8385	68.8477	82.6912	68.8477	82.7905	68.8477	82.6256	68.8477	82.7382	68.8477	82.5603	68.8477	82.684	68.8477	82.4983	68.8477	82.6304	68.8477	82.4424	68.8477	82.5793	68.8477	82.395	68.8477	82.5322	68.8477	82.3575	68.8477	82.49	68.8477	82.3308	68.8477	82.453	68.8477	82.3147	68.8477	82.4209	68.8477	82.3082	68.8477	82.3932	68.8477	82.3099	68.8477	82.3693	68.8477	82.3182	68.8477	82.3488	68.8477	82.3315
71.7773	83.4511	71.7773	83.4412	71.7773	83.4467	71.7773	83.4172	71.7773	83.4286	71.7773	83.3801	71.7773	83.3976	71.7773	83.3313	71.7773	83.3555	71.7773	83.2729	71.7773	83.3044	71.7773	83.2074	71.7773	83.247	71.7773	83.1378	71.7773	83.186	71.7773	83.0673	71.7773	83.1243	71.7773	82.9993	71.7773	83.0646	71.7773	82.9367	71.7773	83.0091	71.7773	82.8823	71.7773	82.9596	71.7773	82.8379	71.7773	82.9168	71.7773	82.8045	71.7773	82.8808	71.7773	82.7821	71.7773	82.8511	71.7773	82.7698	71.7773	82.8267	71.7773	82.7661	71.7773	82.8068	71.7773	82.7694	71.7773	82.7906	71.7773	82.7779
74.707	83.8404	74.707	83.8343	74.707	83.8311	74.707	83.8131	74.707	83.8072	74.707	83.7777	74.707	83.7697	74.707	83.7296	74.707	83.7205	74.707	83.6709	74.707	83.6621	74.707	83.6042	74.707	83.5974	74.707	83.5328	74.707	83.5295	74.707	83.4599	74.707	83.4617	74.707	83.3889	74.707	83.3969	74.707	83.3231	74.707	83.3377	74.707	83.265	74.707	83.286	74.707	83.2166	74.707	83.2426	74.707	83.1788	74.707	83.2076	74.707	83.1517	74.707	83.1804	74.707	83.1344	74.707	83.1598	74.707	83.1255	74.707	83.1444	74.707	83.1233	74.707	83.1334	74.707	83.1263
77.6367	84.109	77.6367	84.1022	77.6367	84.0998	77.6367	84.0797	77.6367	84.0751	77.6367	84.0423	77.6367	84.0362	77.6367	83.9916	77.6367	83.985	77.6367	83.93	77.6367	83.9241	77.6367	83.8604	77.6367	83.8565	77.6367	83.7859	77.6367	83.7856	77.6367	83.7102	77.6367	83.7147	77.6367	83.6369	77.6367	83.6471	77.6367	83.5692	77.6367	83.5856	77.6367	83.5098	77.6367	83.5319	77.6367	83.4607	77.6367	83.4873	77.6367	83.4228	77.6367	83.4516	77.6367	83.3958	77.6367	83.4241	77.6367	83.3788	77.6367	83.4036	77.6367	83.3702	77.6367	83.3885	77.6367	83.3681	77.6367	83.3779	77.6367	83.371
79.1016	84.2598	79.1016	84.2528	79.1016	84.2504	79.1016	84.2297	79.1016	84.225	79.1016	84.1912	79.1016	84.185	79.1016	84.1392	79.1016	84.1323	79.1016	84.076	79.1016	84.0695	79.1016	84.0044	79.1016	83.9998	79.1016	83.9279	79.1016	83.9266	79.1016	83.8501	79.1016	83.8535	79.1016	83.7746	79.1016	83.7838	79.1016	83.705	79.1016	83.7204	79.1016	83.6439	79.1016	83.6651	79.1016	83.5932	79.1016	83.619	79.1016	83.554	79.1016	83.5823	79.1016	83.5261	79.1016	83.5541	79.1016	83.5084	79.1016	83.533	79.1016	83.4992	79.1016	83.5175	79.1016	83.4969	79.1016	83.5066	79.1016	83.4997
82.0312	84.5126	82.0312	84.5059	82.0312	84.5017	82.0312	84.4818	82.0312	84.4739	82.0312	84.4416	82.0312	84.4306	82.0312	84.3871	82.0312	84.3739	82.0312	84.3207	82.0312	84.3069	82.0312	84.2458	82.0312	84.233	82.0312	84.166	82.0312	84.156	82.0312	84.0853	82.0312	84.08	82.0312	84.0077	82.0312	84.0084	82.0312	83.9366	82.0312	83.9444	82.0312	83.8751	82.0312	83.8898	82.0312	83.825	82.0312	83.8455	82.0312	83.7871	82.0312	83.8114	82.0312	83.761	82.0312	83.7861	82.0312	83.7452	82.0312	83.7679	82.0312	83.7377	82.0312	83.7549	82.0312	83.7364	82.0312	83.7457	82.0312	83.7394
84.9609	84.5309	84.9609	84.5253	84.9609	84.5189	84.9609	84.5024	84.9609	84.4901	84.9609	84.4631	84.9609	84.4462	84.9609	84.4095	84.9609	84.3895	84.9609	84.3443	84.9609	84.3234	84.9609	84.2709	84.9609	84.2515	84.9609	84.1933	84.9609	84.1779	84.9609	84.1157	84.9609	84.1066	84.9609	84.0423	84.9609	84.0412	84.9609	83.9766	84.9609	83.9846	84.9609	83.9218	84.9609	83.9385	84.9609	83.8794	84.9609	83.9034	84.9609	83.8497	84.9609	83.8784	84.9609	83.8319	84.9609	83.8617	84.9609	83.8239	84.9609	83.8508	84.9609	83.8229	84.9609	83.8433	84.9609	83.8261	84.9609	83.8371	84.9609	83.8314
87.8906	84.6609	87.8906	84.658	87.8906	84.6462	87.8906	84.6374	87.8906	84.6145	87.8906	84.6001	87.8906	84.5674	87.8906	84.5479	87.8906	84.5073	87.8906	84.4831	87.8906	84.4372	87.8906	84.409	87.8906	84.3611	87.8906	84.3295	87.8906	84.283	87.8906	84.249	87.8906	84.2073	87.8906	84.1717	87.8906	84.1379	87.8906	84.1018	87.8906	84.0779	87.8906	84.0427	87.8906	84.0295	87.8906	83.9963	87.8906	83.9933	87.8906	83.9632	87.8906	83.9685	87.8906	83.9426	87.8906	83.9531	87.8906	83.9322	87.8906	83.9443	87.8906	83.929	87.8906	83.9394	87.8906	83.9301	87.8906	83.936	87.8906	83.9329
90.8203	84.8408	90.8203	84.8401	90.8203	84.8193	90.8203	84.817	90.8203	84.7769	90.8203	84.7724	90.8203	84.7156	90.8203	84.708	90.8203	84.6386	90.8203	84.6269	90.8203	84.5496	90.8203	84.5329	90.8203	84.4532	90.8203	84.4308	90.8203	84.3542	90.8203	84.326	90.8203	84.2576	90.8203	84.224	90.8203	84.1681	90.8203	84.1301	90.8203	84.0895	90.8203	84.0484	90.8203	84.0242	90.8203	83.982	90.8203	83.9732	90.8203	83.9321	90.8203	83.9358	90.8203	83.8981	90.8203	83.9099	90.8203	83.8779	90.8203	83.8928	90.8203	83.8685	90.8203	83.8816	90.8203	83.8664	90.8203	83.874	90.8203	83.8688
95.2148	84.699	95.2148	84.6988	95.2148	84.6777	95.2148	84.6771	95.2148	84.636	95.2148	84.6353	95.2148	84.576	95.2148	84.5755	95.2148	84.5009	95.2148	84.5009	95.2148	84.415	95.2148	84.4156	95.2148	84.323	95.2148	84.3243	95.2148	84.2302	95.2148	84.2319	95.2148	84.1418	95.2148	84.1433	95.2148	84.0626	95.2148	84.0632	95.2148	83.9961	95.2148	83.9952	95.2148	83.9444	95.2148	83.9415	95.2148	83.9079	95.2148	83.9029	95.2148	83.8848	95.2148	83.8784	95.2148	83.8725	95.2148	83.8655	95.2148	83.8672	95.2148	83.8609	95.2148	83.8654	95.2148	83.8611	95.2148	83.8644	95.2148	83.8628
98.1445	84.7762	98.1445	84.7823	98.1445	84.7481	98.1445	84.7661	98.1445	84.6992	98.1445	84.7285	98.1445	84.6318	98.1445	84.6715	98.1445	84.5492	98.1445	84.598	98.1445	84.4558	98.1445	84.5119	98.1445	84.3565	98.1445	84.4177	98.1445	84.2567	98.1445	84.3206	98.1445	84.1619	98.1445	84.2257	98.1445	84.077	98.1445	84.1378	98.1445	84.0058	98.1445	84.0611	98.1445	83.9505	98.1445	83.9984	98.1445	83.9115	98.1445	83.9507	98.1445	83.8873	98.1445	83.9175	98.1445	83.8749	98.1445	83.8966	98.1445	83.8706	98.1445	83.8848	98.1445	83.8708	98.1445	83.8788	98.1445	83.8729	98.1445	83.8754
101.074	84.6342	101.074	84.6481	101.074	84.5989	101.074	84.6403	101.074	84.5436	101.074	84.6118	101.074	84.4706	101.074	84.5647	101.074	84.3836	101.074	84.502	101.074	84.2874	101.074	84.4273	101.074	84.1874	101.074	84.3453	101.074	84.0897	101.074	84.2607	101.074	84.0002	101.074	84.1784	101.074	83.924	101.074	84.1029	101.074	83.8651	101.074	84.0375	101.074	83.8251	101.074	83.9845	101.074	83.8036	101.074	83.9445	101.074	83.7982	101.074	83.9164	101.074	83.8047	101.074	83.8977	101.074	83.8184	101.074	83.885	101.074	83.8348	101.074	83.8747	101.074	83.8505	101.074	83.8638
105.469	84.7736	105.469	84.7952	105.469	84.7254	105.469	84.7906	105.469	84.652	105.469	84.7611	105.469	84.5557	105.469	84.7092	105.469	84.4405	105.469	84.6384	105.469	84.3117	105.469	84.5533	105.469	84.176	105.469	84.459	105.469	84.0411	105.469	84.3611	105.469	83.9152	105.469	84.265	105.469	83.806	105.469	84.1753	105.469	83.72	105.469	84.0956	105.469	83.6612	105.469	84.028	105.469	83.6305	105.469	83.9726	105.469	83.6255	105.469	83.9278	105.469	83.6415	105.469	83.8905	105.469	83.6718	105.469	83.8572	105.469	83.71	105.469	83.8241	105.469	83.7501	105.469	83.7887
108.398	84.8013	108.398	84.8133	108.398	84.7624	108.398	84.7991	108.398	84.6977	108.398	84.7604	108.398	84.6095	108.398	84.7001	108.398	84.5013	108.398	84.6224	108.398	84.3783	108.398	84.5324	108.398	84.247	108.398	84.4356	108.398	84.1146	108.398	84.3377	108.398	83.9892	108.398	84.2442	108.398	83.8786	108.398	84.1597	108.398	83.7892	108.398	84.0871	108.398	83.7256	108.398	84.0278	108.398	83.6893	108.398	83.981	108.398	83.6788	108.398	83.9444	108.398	83.6898	108.398	83.9142	108.398	83.7161	108.398	83.8864	108.398	83.7511	108.398	83.8574	108.398	83.7888	108.398	83.825
112.793	84.8468	112.793	84.8524	112.793	84.8121	112.793	84.8295	112.793	84.7493	112.793	84.7801	112.793	84.6605	112.793	84.7076	112.793	84.5499	112.793	84.6168	112.793	84.4228	112.793	84.5135	112.793	84.286	112.793	84.4044	112.793	84.1479	112.793	84.2965	112.793	84.017	112.793	84.1962	112.793	83.9021	112.793	84.1089	112.793	83.8103	112.793	84.0381	112.793	83.7464	112.793	83.985	112.793	83.7119	112.793	83.948	112.793	83.7045	112.793	83.9236	112.793	83.7189	112.793	83.9066	112.793	83.7479	112.793	83.8917	112.793	83.7836	112.793	83.8738	112.793	83.8191	112.793	83.8499
117.188	84.7976	117.188	84.8006	117.188	84.7638	117.188	84.7735	117.188	84.6997	117.188	84.7183	117.188	84.6074	117.188	84.6379	117.188	84.4903	117.188	84.537	117.188	84.3532	117.188	84.4211	117.188	84.2029	117.188	84.2966	117.188	84.0474	117.188	84.1707	117.188	83.8959	117.188	84.0504	117.188	83.7578	117.188	83.942	117.188	83.6417	117.188	83.85	117.188	83.5541	117.188	83.7768	117.188	83.4977	117.188	83.7222	117.188	83.4718	117.188	83.6831	117.188	83.4717	117.188	83.6549	117.188	83.4903	117.188	83.6319	117.188	83.5195	117.188	83.6089	117.188	83.5519	117.188	83.5825
120.117	84.7245	120.117	84.726	120.117	84.6913	120.117	84.6968	120.117	84.627	120.117	84.6392	120.117	84.5334	120.117	84.5568	120.117	84.4139	120.117	84.4544	120.117	84.2738	120.117	84.3379	120.117	84.1197	120.117	84.2142	120.117	83.9599	120.117	84.0902	120.117	83.8038	120.117	83.9725	120.117	83.6609	120.117	83.8667	120.117	83.5402	120.117	83.7768	120.117	83.4481	120.117	83.7043	120.117	83.3879	120.117	83.6483	120.117	83.3592	120.117	83.6059	120.117	83.3577	120.117	83.5724	120.117	83.3765	120.117	83.543	120.117	83.4078	120.117	83.5132	120.117	83.4443	120.117	83.4803
124.512	84.4921	124.512	84.4833	124.512	84.4672	124.512	84.442	124.512	84.409	124.512	84.3711	124.512	84.3198	124.512	84.275	124.512	84.2035	124.512	84.1598	124.512	84.0654	124.512	84.0329	124.512	83.913	124.512	83.9022	124.512	83.7548	124.512	83.7761	124.512	83.6007	124.512	83.662	124.512	83.4606	124.512	83.5658	124.512	83.3435	124.512	83.4907	124.512	83.256	124.512	83.4371	124.512	83.2015	124.512	83.4023	124.512	83.179	124.512	83.3812	124.512	83.1836	124.512	83.3675	124.512	83.2077	124.512	83.3545	124.512	83.2424	124.512	83.3369	124.512	83.2792	124.512	83.3118
128.906	84.2216	128.906	84.2059	128.906	84.2032	128.906	84.1573	128.906	84.1516	128.906	84.0789	128.906	84.0688	128.906	83.9755	128.906	83.9591	128.906	83.8536	128.906	83.8279	128.906	83.7213	128.906	83.6824	128.906	83.5875	128.906	83.5313	128.906	83.4615	128.906	83.3841	128.906	83.3514	128.906	83.2507	128.906	83.2634	128.906	83.1401	128.906	83.2008	128.906	83.059	128.906	83.1633	128.906	83.0105	128.906	83.1469	128.906	82.9936	128.906	83.1449	128.906	83.0032	128.906	83.1493	128.906	83.0308	128.906	83.152	128.906	83.0669	128.906	83.1469	128.906	83.1024	128.906	83.1303
133.301	84.0524	133.301	84.0284	133.301	84.0421	133.301	83.9714	133.301	83.9981	133.301	83.8841	133.301	83.9224	133.301	83.7712	133.301	83.8185	133.301	83.6391	133.301	83.6917	133.301	83.4958	133.301	83.5489	133.301	83.3505	133.301	83.3986	133.301	83.2132	133.301	83.2504	133.301	83.093	133.301	83.1141	133.301	82.9973	133.301	82.9988	133.301	82.9304	133.301	82.9115	133.301	82.8924	133.301	82.8555	133.301	82.8794	133.301	82.83	133.301	82.8842	133.301	82.8299	133.301	82.8978	133.301	82.8472	133.301	82.9114	133.301	82.8725	133.301	82.9179	133.301	82.8968	133.301	82.9131
139.16	83.7629	139.16	83.7392	139.16	83.749	139.16	83.6792	139.16	83.6983	139.16	83.5859	139.16	83.6132	139.16	83.4642	139.16	83.498	139.16	83.3212	139.16	83.3589	139.16	83.1657	139.16	83.204	139.16	83.0082	139.16	83.0431	139.16	82.8598	139.16	82.8871	139.16	82.7311	139.16	82.7472	139.16	82.6307	139.16	82.6331	139.16	82.5634	139.16	82.5516	139.16	82.5296	139.16	82.5053	139.16	82.5246	139.16	82.4917	139.16	82.5401	139.16	82.5038	139.16	82.5654	139.16	82.5317	139.16	82.5901	139.16	82.5642	139.16	82.6056	139.16	82.5915	139.16	82.6064
143.555	83.561	143.555	83.5303	143.555	83.5513	143.555	83.4605	143.555	83.5021	143.555	83.3548	143.555	83.416	143.555	83.2186	143.555	83.2977	143.555	83.06	143.555	83.1539	143.555	82.889	143.555	82.993	143.555	82.7174	143.555	82.8255	143.555	82.558	143.555	82.6627	143.555	82.4228	143.555	82.5164	143.555	82.3212	143.555	82.3971	143.555	82.2582	143.555	82.3122	143.555	82.2333	143.555	82.2646	143.555	82.2405	143.555	82.2516	143.555	82.2694	143.555	82.2659	143.555	82.3077	143.555	82.2965	143.555	82.3434	143.555	82.3314	143.555	82.3669	143.555	82.3594	143.555	82.3726
147.949	83.3676	147.949	83.3314	147.949	83.3604	147.949	83.2526	147.949	83.3112	147.949	83.1343	147.949	83.2235	147.949	82.9821	147.949	83.1025	147.949	82.8046	147.949	82.9556	147.949	82.613	147.949	82.7918	147.949	82.4207	147.949	82.6219	147.949	82.2428	147.949	82.4578	147.949	82.0936	147.949	82.3115	147.949	81.9846	147.949	82.1934	147.949	81.9222	147.949	82.1107	147.949	81.9057	147.949	82.0657	147.949	81.9278	147.949	82.0551	147.949	81.976	147.949	82.0705	147.949	82.0353	147.949	82.1002	147.949	82.0916	147.949	82.1313	147.949	82.1333	147.949	82.152	147.949	82.154
153.809	83.2494	153.809	83.2162	153.809	83.2353	153.809	83.1361	153.809	83.1754	153.809	83.0119	153.809	83.0732	153.809	82.8487	153.809	82.9341	153.809	82.6545	153.809	82.7657	153.809	82.4403	153.809	82.5778	153.809	82.2202	153.809	82.382	153.809	82.0102	153.809	82.1919	153.809	81.827	153.809	82.0211	153.809	81.6853	153.809	81.8819	153.809	81.5946	153.809	81.7828	153.809	81.5568	153.809	81.7268	153.809	81.5658	153.809	81.7102	153.809	81.6085	153.809	81.7233	153.809	81.6684	153.809	81.7526	153.809	81.7288	153.809	81.7834	153.809	81.776	153.809	81.8027	153.809	81.8015
159.668	83.2154	159.668	83.174	159.668	83.2083	159.668	83.0835	159.668	83.1552	159.668	82.9459	159.668	83.0606	159.668	82.7654	159.668	82.9307	159.668	82.5495	159.668	82.7735	159.668	82.3092	159.668	82.599	159.668	82.0592	159.668	82.4184	159.668	81.8176	159.668	82.2438	159.668	81.6045	159.668	82.087	159.668	81.4388	159.668	81.958	159.668	81.3343	159.668	81.8632	159.668	81.296	159.668	81.804	159.668	81.3182	159.668	81.7765	159.668	81.3859	159.668	81.7714	159.668	81.4791	159.668	81.7764	159.668	81.5773	159.668	81.7781	159.668	81.6635	159.668	81.7644	159.668	81.7272
165.527	83.2214	165.527	83.2093	165.527	83.1849	165.527	83.1487	165.527	83.1022	165.527	83.0414	165.527	82.9777	165.527	82.8919	165.527	82.8182	165.527	82.7072	165.527	82.6333	165.527	82.4975	165.527	82.4351	165.527	82.2761	165.527	82.2384	165.527	82.0595	165.527	82.0591	165.527	81.8656	165.527	81.9123	165.527	81.7122	165.527	81.8097	165.527	81.6126	165.527	81.7568	165.527	81.5729	165.527	81.7512	165.527	81.5895	165.527	81.7828	165.527	81.6496	165.527	81.8362	165.527	81.7342	165.527	81.8936	165.527	81.8229	165.527	81.9386	165.527	81.8973	165.527	81.9579	165.527	81.9444
171.387	83.2128	171.387	83.1959	171.387	83.1758	171.387	83.1255	171.387	83.0863	171.387	83.0039	171.387	82.948	171.387	82.8359	171.387	82.7667	171.387	82.6289	171.387	82.5516	171.387	82.3941	171.387	82.3153	171.387	82.1461	171.387	82.074	171.387	81.9035	171.387	81.847	171.387	81.6869	171.387	81.6542	171.387	81.5165	171.387	81.513	171.387	81.4073	171.387	81.434	171.387	81.3655	171.387	81.4177	171.387	81.3854	171.387	81.4541	171.387	81.4511	171.387	81.5245	171.387	81.54	171.387	81.6066	171.387	81.6287	171.387	81.6786	171.387	81.6967	171.387	81.7233	171.387	81.7302
177.246	83.1227	177.246	83.092	177.246	83.0949	177.246	83.0031	177.246	83.0102	177.246	82.8584	177.246	82.8724	177.246	82.6628	177.246	82.6876	177.246	82.4248	177.246	82.4649	177.246	82.1562	177.246	82.2165	177.246	81.8739	177.246	81.9585	177.246	81.5986	177.246	81.7099	177.246	81.3542	177.246	81.4915	177.246	81.1638	177.246	81.3223	177.246	81.0446	177.246	81.2156	177.246	81.0032	177.246	81.1751	177.246	81.0323	177.246	81.1929	177.246	81.1127	177.246	81.2514	177.246	81.2181	177.246	81.3271	177.246	81.3216	177.246	81.3962	177.246	81.4009	177.246	81.4387	177.246	81.4417
183.105	83.1284	183.105	83.106	183.105	83.0887	183.105	83.0203	183.105	82.9902	183.105	82.8722	183.105	82.838	183.105	82.6654	183.105	82.6398	183.105	82.4068	183.105	82.4059	183.105	82.1074	183.105	82.1494	183.105	81.7841	183.105	81.8864	183.105	81.4594	183.105	81.6355	183.105	81.1616	183.105	81.4163	183.105	80.9206	183.105	81.2465	183.105	80.7619	183.105	81.1378	183.105	80.6988	183.105	81.0933	183.105	80.7264	183.105	81.1046	183.105	80.823	183.105	81.1542	183.105	80.9563	183.105	81.2183	183.105	81.0929	183.105	81.2725	183.105	81.205	183.105	81.296	183.105	81.2749
188.965	83.277	188.965	83.279	188.965	83.2136	188.965	83.2179	188.965	83.0922	188.965	83.0938	188.965	82.9185	188.965	82.909	188.965	82.7005	188.965	82.6685	188.965	82.4494	188.965	82.3809	188.965	82.1798	188.965	82.0596	188.965	81.9094	188.965	81.7241	188.965	81.6586	188.965	81.4004	188.965	81.4476	188.965	81.1189	188.965	81.2929	188.965	80.9095	188.965	81.2034	188.965	80.7936	188.965	81.1771	188.965	80.7761	188.965	81.2013	188.965	80.8421	188.965	81.2551	188.965	80.9622	188.965	81.3141	188.965	81.1009	188.965	81.3548	188.965	81.2265	188.965	81.359	188.965	81.3163
196.289	83.5084	196.289	83.52	196.289	83.4299	196.289	83.464	196.289	83.2875	196.289	83.3411	196.289	83.0865	196.289	83.1544	196.289	82.8352	196.289	82.9095	196.289	82.5461	196.289	82.6154	196.289	82.2365	196.289	82.2862	196.289	81.929	196.289	81.942	196.289	81.6496	196.289	81.6092	196.289	81.4247	196.289	81.3193	196.289	81.2751	196.289	81.1038	196.289	81.2099	196.289	80.9854	196.289	81.223	196.289	80.9699	196.289	81.2942	196.289	81.0427	196.289	81.3944	196.289	81.1725	196.289	81.4928	196.289	81.3217	196.289	81.5623	196.289	81.4552	196.289	81.5835	196.289	81.5471
203.613	83.7907	203.613	83.8343	203.613	83.6743	203.613	83.8066	203.613	83.4851	203.613	83.7106	203.613	83.2251	203.613	83.5503	203.613	82.9002	203.613	83.3314	203.613	82.5209	203.613	83.0614	203.613	82.1047	203.613	82.7514	203.613	81.6785	203.613	82.4168	203.613	81.2783	203.613	82.0788	203.613	80.9469	203.613	81.7645	203.613	80.7242	203.613	81.5038	203.613	80.634	203.613	81.3228	203.613	80.6733	203.613	81.2352	203.613	80.812	203.613	81.2353	203.613	81.0035	203.613	81.2982	203.613	81.1996	203.613	81.387	203.613	81.3611	203.613	81.4632	203.613	81.4628	203.613	81.495
210.938	83.9653	210.938	83.9798	210.938	83.8819	210.938	83.9278	210.938	83.729	210.938	83.8127	210.938	83.5076	210.938	83.6399	210.938	83.2215	210.938	83.4161	210.938	82.8782	210.938	83.1508	210.938	82.4905	210.938	82.8563	210.938	82.0788	210.938	82.5485	210.938	81.6724	210.938	82.2473	210.938	81.3091	210.938	81.9756	210.938	81.0293	210.938	81.7564	210.938	80.8656	210.938	81.6074	210.938	80.8302	210.938	81.5349	210.938	80.9086	210.938	81.5294	210.938	81.0639	210.938	81.5675	210.938	81.2501	210.938	81.6172	210.938	81.4247	210.938	81.6468	210.938	81.5571	210.938	81.6313
218.262	84.2864	218.262	84.2886	218.262	84.212	218.262	84.2207	218.262	84.0651	218.262	84.0867	218.262	83.8478	218.262	83.8926	218.262	83.5647	218.262	83.6472	218.262	83.2246	218.262	83.3626	218.262	82.8418	218.262	83.0546	218.262	82.4386	218.262	82.744	218.262	82.046	218.262	82.4549	218.262	81.7033	218.262	82.2133	218.262	81.4516	218.262	82.0418	218.262	81.322	218.262	81.9535	218.262	81.3237	218.262	81.9467	218.262	81.4378	218.262	82.0034	218.262	81.624	218.262	82.0933	218.262	81.8338	218.262	82.1817	218.262	82.0238	218.262	82.2366	218.262	82.1628	218.262	82.2343
225.586	84.9131	225.586	84.9298	225.586	84.8139	225.586	84.8661	225.586	84.6313	225.586	84.7255	225.586	84.367	225.586	84.5136	225.586	84.0253	225.586	84.2388	225.586	83.6158	225.586	83.9134	225.586	83.1559	225.586	83.5553	225.586	82.6742	225.586	83.1892	225.586	82.2137	225.586	82.8472	225.586	81.8295	225.586	82.565	225.586	81.5781	225.586	82.3757	225.586	81.497	225.586	82.2985	225.586	81.5859	225.586	82.3302	225.586	81.805	225.586	82.4442	225.586	82.0917	225.586	82.5976	225.586	82.3823	225.586	82.744	225.586	82.6265	225.586	82.8424	225.586	82.792	225.586	82.8636
232.91	85.5763	232.91	85.5865	232.91	85.4819	232.91	85.516	232.91	85.3004	232.91	85.3693	232.91	85.0296	232.91	85.1518	232.91	84.669	232.91	84.8715	232.91	84.2208	232.91	84.5395	232.91	83.6939	232.91	84.1717	232.91	83.1084	232.91	83.7905	232.91	82.503	232.91	83.4246	232.91	81.9406	232.91	83.1079	232.91	81.505	232.91	82.8736	232.91	81.276	232.91	82.744	232.91	81.2898	232.91	82.721	232.91	81.5138	232.91	82.7821	232.91	81.8643	232.91	82.8857	232.91	82.247	232.91	82.9828	232.91	82.5879	232.91	83.0281	232.91	82.8411	232.91	82.9873
241.699	85.8211	241.699	85.7848	241.699	85.7731	241.699	85.6686	241.699	85.6365	241.699	85.4781	241.699	85.4076	241.699	85.2209	241.699	85.0827	241.699	84.9076	241.699	84.6592	241.699	84.5532	241.699	84.1383	241.699	84.1782	241.699	83.529	241.699	83.8082	241.699	82.8571	241.699	83.4732	241.699	82.175	241.699	83.2039	241.699	81.5707	241.699	83.0244	241.699	81.157	241.699	82.9451	241.699	81.025	241.699	82.9559	241.699	81.1849	241.699	83.0271	241.699	81.5546	241.699	83.1152	241.699	82.0117	241.699	83.1734	241.699	82.4506	241.699	83.1593	241.699	82.8042	241.699	83.0416
250.488	86.5123	250.488	86.4	250.488	86.5259	250.488	86.1876	250.488	86.4422	250.488	85.8743	250.488	86.2617	250.488	85.4625	250.488	85.9838	250.488	84.9602	250.488	85.6071	250.488	84.3862	250.488	85.1311	250.488	83.7738	250.488	84.5583	250.488	83.1753	250.488	83.9003	250.488	82.6587	250.488	83.1863	250.488	82.2928	250.488	82.4734	250.488	82.1207	250.488	81.8528	250.488	82.1369	250.488	81.4343	250.488	82.2889	250.488	81.296	250.488	82.5004	250.488	81.4313	250.488	82.6971	250.488	81.7492	250.488	82.8209	250.488	82.1295	250.488	82.8337	250.488	82.4727	250.488	82.7168
259.277	86.9076	259.277	86.8425	259.277	86.8895	259.277	86.6894	259.277	86.7921	259.277	86.4435	259.277	86.6178	259.277	86.1011	259.277	86.3672	259.277	85.662	259.277	86.0397	259.277	85.1324	259.277	85.6349	259.277	84.5295	259.277	85.1557	259.277	83.8878	259.277	84.6134	259.277	83.2641	259.277	84.0343	259.277	82.7374	259.277	83.4663	259.277	82.3902	259.277	82.9789	259.277	82.272	259.277	82.6471	259.277	82.3677	259.277	82.5187	259.277	82.6029	259.277	82.5832	259.277	82.8816	259.277	82.7749	259.277	83.1207	259.277	83.0049	259.277	83.2656	259.277	83.1945	259.277	83.2901
268.066	86.801	268.066	86.7074	268.066	86.802	268.066	86.5155	268.066	86.715	268.066	86.219	268.066	86.5431	268.066	85.8133	268.066	86.2875	268.066	85.2979	268.066	85.9485	268.066	84.6813	268.066	85.5267	268.066	83.9877	268.066	85.0252	268.066	83.2663	268.066	84.4549	268.066	82.5976	268.066	83.8416	268.066	82.0874	268.066	83.2348	268.066	81.8313	268.066	82.7112	268.066	81.8597	268.066	82.3602	268.066	82.1142	268.066	82.2441	268.066	82.482	268.066	82.3553	268.066	82.8507	268.066	82.6153	268.066	83.1381	268.066	82.917	268.066	83.2957	268.066	83.1671	268.066	83.3037
276.855	87.1843	276.855	87.1424	276.855	87.1413	276.855	87.0062	276.855	87.0201	276.855	86.7634	276.855	86.8251	276.855	86.3996	276.855	86.5589	276.855	85.8994	276.855	86.2231	276.855	85.2493	276.855	85.8198	276.855	84.4426	276.855	85.3528	276.855	83.4904	276.855	84.8314	276.855	82.4428	276.855	84.2748	276.855	81.4227	276.855	83.7169	276.855	80.6466	276.855	83.2105	276.855	80.3448	276.855	82.8203	276.855	80.5684	276.855	82.6009	276.855	81.1291	276.855	82.5643	276.855	81.7733	276.855	82.6643	276.855	82.3268	276.855	82.8135	276.855	82.7085	276.855	82.9172	276.855	82.8988
287.109	86.9089	287.109	86.928	287.109	86.8095	287.109	86.8618	287.109	86.634	287.109	86.7046	287.109	86.3861	287.109	86.4502	287.109	86.0691	287.109	86.0922	287.109	85.6871	287.109	85.6246	287.109	85.2466	287.109	85.0442	287.109	84.7598	287.109	84.3549	287.109	84.2491	287.109	83.5782	287.109	83.75	287.109	82.769	287.109	83.3112	287.109	82.0339	287.109	82.986	287.109	81.5251	287.109	82.8133	287.109	81.3704	287.109	82.7968	287.109	81.5715	287.109	82.8983	287.109	81.9939	287.109	83.0499	287.109	82.4656	287.109	83.1765	287.109	82.8603	287.109	83.2131	287.109	83.1143
297.363	87.205	297.363	87.2383	297.363	87.0792	297.363	87.1781	297.363	86.8602	297.363	87.0212	297.363	86.5464	297.363	86.762	297.363	86.1367	297.363	86.3935	297.363	85.6324	297.363	85.9082	297.363	85.0409	297.363	85.3008	297.363	84.3808	297.363	84.5727	297.363	83.6895	297.363	83.7426	297.363	83.0311	297.363	82.8637	297.363	82.4957	297.363	82.0465	297.363	82.1765	297.363	81.4599	297.363	82.1221	297.363	81.2595	297.363	82.2995	297.363	81.4634	297.363	82.6087	297.363	81.9265	297.363	82.9323	297.363	82.4528	297.363	83.1731	297.363	82.8954	297.363	83.266	297.363	83.1758
307.617	87.0801	307.617	87.0768	307.617	86.9975	307.617	86.99	307.617	86.8253	307.617	86.8192	307.617	86.5584	307.617	86.5616	307.617	86.1916	307.617	86.2115	307.617	85.7194	307.617	85.7624	307.617	85.1384	307.617	85.2089	307.617	84.4512	307.617	84.5519	307.617	83.6742	307.617	83.8078	307.617	82.8519	307.617	83.0228	307.617	82.073	307.617	82.2908	307.617	81.474	307.617	81.7516	307.617	81.1945	307.617	81.5351	307.617	81.2824	307.617	81.6626	307.617	81.6453	307.617	82.0163	307.617	82.1137	307.617	82.4215	307.617	82.533	307.617	82.735	307.617	82.8027	307.617	82.8729
319.336	86.6408	319.336	86.6003	319.336	86.5867	319.336	86.4653	319.336	86.4355	319.336	86.2349	319.336	86.1825	319.336	85.9073	319.336	85.8202	319.336	85.481	319.336	85.339	319.336	84.9565	319.336	84.7289	319.336	84.3379	319.336	83.9854	319.336	83.638	319.336	83.1214	319.336	82.8865	319.336	82.188	319.336	82.1427	319.336	81.3033	319.336	81.5061	319.336	80.6575	319.336	81.1008	319.336	80.4311	319.336	81.0133	319.336	80.6449	319.336	81.2226	319.336	81.1321	319.336	81.605	319.336	81.6768	319.336	82.0095	319.336	82.1245	319.336	82.3178	319.336	82.3946	319.336	82.4576
329.59	86.336	329.59	86.2896	329.59	86.3062	329.59	86.1653	329.59	86.1999	329.59	85.9594	329.59	86.0141	329.59	85.6652	329.59	85.7425	329.59	85.2737	329.59	85.3745	329.59	84.774	329.59	84.8953	329.59	84.1567	329.59	84.2879	329.59	83.4202	329.59	83.5399	329.59	82.5841	329.59	82.6573	329.59	81.7113	329.59	81.691	329.59	80.9327	329.59	80.7742	329.59	80.4344	329.59	80.1332	329.59	80.3545	329.59	79.977	329.59	80.6549	329.59	80.2995	329.59	81.1442	329.59	80.8727	329.59	81.6165	329.59	81.443	329.59	81.932	329.59	81.8492	329.59	82.0178
341.309	86.0318	341.309	85.9957	341.309	85.972	341.309	85.8615	341.309	85.8182	341.309	85.6258	341.309	85.5717	341.309	85.2838	341.309	85.233	341.309	84.8298	341.309	84.8012	341.309	84.2567	341.309	84.2736	341.309	83.5594	341.309	83.6475	341.309	82.7416	341.309	82.9265	341.309	81.8329	341.309	82.135	341.309	80.92	341.309	81.3421	341.309	80.1802	341.309	80.6853	341.309	79.8479	341.309	80.3472	341.309	80.0438	341.309	80.44	341.309	80.6356	341.309	80.8912	341.309	81.355	341.309	81.494	341.309	81.9823	341.309	82.0471	341.309	82.3958	341.309	82.4198	341.309	82.5444
353.027	86.2361	353.027	86.2173	353.027	86.1633	353.027	86.1059	353.027	85.9979	353.027	85.8973	353.027	85.7374	353.027	85.5817	353.027	85.377	353.027	85.1435	353.027	84.9082	353.027	84.5608	353.027	84.3178	353.027	83.8066	353.027	83.589	353.027	82.8524	353.027	82.7084	353.027	81.6798	353.027	81.6844	353.027	80.3175	353.027	80.5854	353.027	78.9346	353.027	79.5982	353.027	77.9667	353.027	79.0346	353.027	77.9269	353.027	79.1229	353.027	78.7471	353.027	79.738	353.027	79.853	353.027	80.5294	353.027	80.8113	353.027	81.211	353.027	81.4482	353.027	81.6307	353.027	81.7198
366.211	86.4998	366.211	86.5141	366.211	86.3962	366.211	86.4377	366.211	86.2042	366.211	86.2682	366.211	85.9234	366.211	86.0007	366.211	85.5504	366.211	85.6266	366.211	85.0765	366.211	85.1317	366.211	84.4864	366.211	84.4948	366.211	83.7606	366.211	83.687	366.211	82.8822	366.211	82.6748	366.211	81.8529	366.211	81.4357	366.211	80.726	366.211	80.0037	366.211	79.6587	366.211	78.5818	366.211	78.9371	366.211	77.6628	366.211	78.8216	366.211	77.7273	366.211	79.262	366.211	78.5685	366.211	79.9305	366.211	79.5761	366.211	80.5128	366.211	80.3615	366.211	80.8264	366.211	80.786
379.395	86.6547	379.395	86.617	379.395	86.6211	379.395	86.5143	379.395	86.5089	379.395	86.3508	379.395	86.3081	379.395	86.1259	379.395	86.0039	379.395	85.8311	379.395	85.5751	379.395	85.4496	379.395	84.993	379.395	84.9573	379.395	84.2242	379.395	84.3276	379.395	83.236	379.395	83.5391	379.395	82.0097	379.395	82.5867	379.395	80.5757	379.395	81.5067	379.395	79.0999	379.395	80.4193	379.395	77.9995	379.395	79.5653	379.395	77.7769	379.395	79.2187	379.395	78.4002	379.395	79.4277	379.395	79.324	379.395	79.934	379.395	80.1086	379.395	80.4157	379.395	80.5688	379.395	80.6613
392.578	86.0208	392.578	85.9483	392.578	86.0219	392.578	85.7971	392.578	85.9591	392.578	85.5617	392.578	85.8375	392.578	85.2373	392.578	85.655	392.578	84.817	392.578	85.3997	392.578	84.2879	392.578	85.0477	392.578	83.629	392.578	84.5647	392.578	82.814	392.578	83.9107	392.578	81.8236	392.578	83.0473	392.578	80.6787	392.578	81.9545	392.578	79.5116	392.578	80.671	392.578	78.6467	392.578	79.384	392.578	78.4771	392.578	78.5178	392.578	79.0212	392.578	78.4956	392.578	79.8671	392.578	79.1895	392.578	80.6143	392.578	80.0762	392.578	81.0556	392.578	80.7711	392.578	81.1125
405.762	86.0546	405.762	86.0487	405.762	85.969	405.762	85.9534	405.762	85.791	405.762	85.7697	405.762	85.5213	405.762	85.4958	405.762	85.1623	405.762	85.1244	405.762	84.7149	405.762	84.6411	405.762	84.1738	405.762	84.023	405.762	83.5236	405.762	83.2404	405.762	82.7408	405.762	82.2648	405.762	81.8054	405.762	81.093	405.762	80.7347	405.762	79.806	405.762	79.6492	405.762	78.6776	405.762	78.843	405.762	78.1818	405.762	78.674	405.762	78.5598	405.762	79.1775	405.762	79.4574	405.762	79.9908	405.762	80.3724	405.762	80.735	405.762	81.0227	405.762	81.2018	405.762	81.3059
420.41	86.2225	420.41	86.272	420.41	86.0981	420.41	86.2581	420.41	85.8935	420.41	86.1919	420.41	85.6106	420.41	86.0756	420.41	85.255	420.41	85.8947	420.41	84.8288	420.41	85.6149	420.41	84.3225	420.41	85.1855	420.41	83.7103	420.41	84.5451	420.41	82.9528	420.41	83.6275	420.41	82.0113	420.41	82.3709	420.41	80.8808	420.41	80.7507	420.41	79.6603	420.41	78.9005	420.41	78.6581	420.41	77.4111	420.41	78.3393	420.41	77.2421	420.41	78.8384	420.41	78.3067	420.41	79.7326	420.41	79.6021	420.41	80.5427	420.41	80.5589	420.41	81.0108	420.41	81.0304
435.059	85.6904	435.059	85.6103	435.059	85.6648	435.059	85.4364	435.059	85.5321	435.059	85.1911	435.059	85.2987	435.059	84.9027	435.059	84.9748	435.059	84.5935	435.059	84.5677	435.059	84.2628	435.059	84.0736	435.059	83.8759	435.059	83.4696	435.059	83.3686	435.059	82.7126	435.059	82.6659	435.059	81.7514	435.059	81.7103	435.059	80.565	435.059	80.5142	435.059	79.2618	435.059	79.2812	435.059	78.258	435.059	78.5468	435.059	78.1943	435.059	78.8288	435.059	79.1191	435.059	79.8621	435.059	80.3648	435.059	80.978	435.059	81.3964	435.059	81.7812	435.059	82.0051	435.059	82.1349
451.172	86.6237	451.172	86.4709	451.172	86.6502	451.172	86.202	451.172	86.5433	451.172	85.8314	451.172	86.2983	451.172	85.3784	451.172	85.9125	451.172	84.8626	451.172	85.3835	451.172	84.2937	451.172	84.7048	451.172	83.6608	451.172	83.8568	451.172	82.9255	451.172	82.7946	451.172	82.0243	451.172	81.4358	451.172	80.8816	451.172	79.656	451.172	79.4532	451.172	77.3322	451.172	77.8712	451.172	74.6998	451.172	76.7527	451.172	73.5989	451.172	76.9815	451.172	75.4523	451.172	78.2946	451.172	77.8916	451.172	79.6894	451.172	79.67	451.172	80.6383	451.172	80.681	451.172	80.9864
465.82	86.7392	465.82	86.6166	465.82	86.7437	465.82	86.3708	465.82	86.6369	465.82	86.001	465.82	86.4248	465.82	85.5123	465.82	86.1108	465.82	84.9154	465.82	85.6921	465.82	84.2207	465.82	85.1564	465.82	83.4289	465.82	84.4766	465.82	82.5214	465.82	83.6071	465.82	81.4571	465.82	82.4824	465.82	80.1834	465.82	81.0191	465.82	78.6865	465.82	79.1395	465.82	77.1442	465.82	76.8989	465.82	76.1769	465.82	74.9744	465.82	76.4767	465.82	74.8877	465.82	77.664	465.82	76.4708	465.82	78.8578	465.82	78.1505	465.82	79.6033	465.82	79.2794	465.82	79.7588
483.398	86.6376	483.398	86.6856	483.398	86.5115	483.398	86.6418	483.398	86.3277	483.398	86.4967	483.398	86.1134	483.398	86.242	483.398	85.8962	483.398	85.8678	483.398	85.6889	483.398	85.3595	483.398	85.4742	483.398	84.6918	483.398	85.1975	483.398	83.8194	483.398	84.7752	483.398	82.6596	483.398	84.1091	483.398	81.0745	483.398	83.0985	483.398	78.8652	483.398	81.6499	483.398	75.8774	483.398	79.7218	483.398	73.0117	483.398	77.5459	483.398	73.668	483.398	76.1846	483.398	76.4274	483.398	76.766	483.398	78.5332	483.398	78.269	483.398	79.6761	483.398	79.4592	483.398	79.9584
499.512	86.2163	499.512	86.2043	499.512	86.1123	499.512	86.1023	499.512	85.8844	499.512	85.9469	499.512	85.5475	499.512	85.7729	499.512	85.1397	499.512	85.5967	499.512	84.7119	499.512	85.4031	499.512	84.3014	499.512	85.1445	499.512	83.9002	499.512	84.7485	499.512	83.4439	499.512	84.1225	499.512	82.8302	499.512	83.1513	499.512	81.9529	499.512	81.6952	499.512	80.7496	499.512	79.6127	499.512	79.3058	499.512	76.9448	499.512	78.0733	499.512	74.8238	499.512	77.8118	499.512	75.4587	499.512	78.5621	499.512	77.5243	499.512	79.513	499.512	79.1432	499.512	80.0629	499.512	79.9746
517.09	86.0243	517.09	85.9071	517.09	85.9563	517.09	85.6324	517.09	85.7166	517.09	85.2742	517.09	85.3576	517.09	84.9442	517.09	84.9673	517.09	84.7436	517.09	84.6437	517.09	84.6886	517.09	84.4383	517.09	84.6843	517.09	84.3045	517.09	84.5696	517.09	84.1043	517.09	84.1699	517.09	83.6622	517.09	83.318	517.09	82.8111	517.09	81.8616	517.09	81.423	517.09	79.7256	517.09	79.5073	517.09	77.3439	517.09	77.653	517.09	76.6567	517.09	77.4525	517.09	78.3977	517.09	79.0349	517.09	80.3898	517.09	80.7441	517.09	81.6704	517.09	81.8238	517.09	82.1403
536.133	87.2491	536.133	87.0515	536.133	87.1601	536.133	86.5899	536.133	86.7615	536.133	85.8979	536.133	86.0364	536.133	85.0482	536.133	84.9932	536.133	84.1834	536.133	83.7011	536.133	83.4946	536.133	82.3468	536.133	83.0982	536.133	81.2648	536.133	82.9054	536.133	80.7449	536.133	82.6586	536.133	80.6685	536.133	82.0703	536.133	80.5992	536.133	80.8978	536.133	80.1983	536.133	78.9913	536.133	79.432	536.133	76.6618	536.133	78.7111	536.133	75.8742	536.133	78.8035	536.133	77.784	536.133	79.8435	536.133	80.0175	536.133	81.0802	536.133	81.472	536.133	81.9068	536.133	82.0746
555.176	87.3573	555.176	87.1486	555.176	87.3645	555.176	86.7344	555.176	87.1875	555.176	86.1427	555.176	86.8471	555.176	85.4565	555.176	86.3596	555.176	84.8196	555.176	85.7307	555.176	84.3802	555.176	84.9532	555.176	84.178	555.176	84.0094	555.176	84.0833	555.176	82.8687	555.176	83.8575	555.176	81.4723	555.176	83.2453	555.176	79.717	555.176	81.9958	555.176	77.5104	555.176	79.7913	555.176	75.2014	555.176	76.0779	555.176	74.6483	555.176	70.7794	555.176	76.6573	555.176	72.6377	555.176	78.9903	555.176	77.3004	555.176	80.6018	555.176	79.9509	555.176	81.3468	555.176	81.1785
574.219	87.2822	574.219	86.9131	574.219	87.3825	574.219	86.2749	574.219	87.2347	574.219	85.4073	574.219	86.8759	574.219	84.4301	574.219	86.3618	574.219	83.5805	574.219	85.7651	574.219	83.149	574.219	85.1555	574.219	83.2305	574.219	84.5604	574.219	83.5912	574.219	83.9224	574.219	83.8868	574.219	83.0834	574.219	83.8571	574.219	81.7932	574.219	83.32	574.219	79.7011	574.219	82.1172	574.219	76.3583	574.219	80.1419	574.219	72.5429	574.219	77.7283	574.219	74.4005	574.219	76.7968	574.219	78.1915	574.219	78.4362	574.219	80.4959	574.219	80.3514	574.219	81.4998	574.219	81.4245
594.727	88.111	594.727	87.8848	594.727	88.0581	594.727	87.3603	594.727	87.7401	594.727	86.5062	594.727	87.1775	594.727	85.2803	594.727	86.4062	594.727	83.6571	594.727	85.4867	594.727	81.72	594.727	84.5219	594.727	79.8736	594.727	83.6556	594.727	78.9048	594.727	82.9787	594.727	79.0808	594.727	82.3803	594.727	79.6487	594.727	81.5308	594.727	79.8771	594.727	79.9645	594.727	79.4913	594.727	77.0491	594.727	78.6966	594.727	72.2959	594.727	78.3984	594.727	72.6311	594.727	79.4151	594.727	77.6704	594.727	81.0254	594.727	80.7562	594.727	82.2604	594.727	82.304	594.727	82.7382
615.234	87.9234	615.234	87.7876	615.234	87.8583	615.234	87.4365	615.234	87.6059	615.234	86.8604	615.234	87.1735	615.234	86.0613	615.234	86.5647	615.234	85.0696	615.234	85.7992	615.234	83.9597	615.234	84.9277	615.234	82.8367	615.234	84.0107	615.234	81.768	615.234	83.0656	615.234	80.6813	615.234	82.0323	615.234	79.3055	615.234	80.7856	615.234	77.1944	615.234	79.1621	615.234	73.8217	615.234	77.0094	615.234	70.3948	615.234	74.5975	615.234	73.2309	615.234	74.0395	615.234	77.2569	615.234	76.4131	615.234	79.7777	615.234	78.9829	615.234	81.0657	615.234	80.6472	615.234	81.3345
637.207	87.0924	637.207	86.8717	637.207	87.0732	637.207	86.3964	637.207	86.8419	637.207	85.6814	637.207	86.4428	637.207	84.8087	637.207	85.9503	637.207	83.9633	637.207	85.4693	637.207	83.3948	637.207	85.0902	637.207	83.2377	637.207	84.8052	637.207	83.3358	637.207	84.4625	637.207	83.3162	637.207	83.8049	637.207	82.7967	637.207	82.5153	637.207	81.4311	637.207	80.1432	637.207	78.7058	637.207	75.6469	637.207	73.0984	637.207	63.1681	637.207	52.3762	637.207	70.6507	637.207	73.4384	637.207	77.6576	637.207	78.7441	637.207	80.7235	637.207	81.2247	637.207	82.0778	637.207	82.2273
659.18	87.3758	659.18	87.2456	659.18	87.1975	659.18	86.7936	659.18	86.7104	659.18	86.0056	659.18	85.9158	659.18	84.8955	659.18	84.8639	659.18	83.5363	659.18	83.72	659.18	82.1314	659.18	82.8206	659.18	81.1534	659.18	82.5658	659.18	81.1125	659.18	82.9702	659.18	81.734	659.18	83.5277	659.18	82.2183	659.18	83.714	659.18	81.9936	659.18	83.1998	659.18	80.6364	659.18	81.678	659.18	77.441	659.18	78.5501	659.18	69.9965	659.18	71.7754	659.18	66.5626	659.18	60.3902	659.18	75.5893	659.18	74.4376	659.18	78.7966	659.18	78.367	659.18	79.5645
682.617	87.0408	682.617	86.8968	682.617	86.9063	682.617	86.4508	682.617	86.5174	682.617	85.6963	682.617	85.9055	682.617	84.6664	682.617	85.1128	682.617	83.4369	682.617	84.1601	682.617	82.1176	682.617	83.0448	682.617	80.9135	682.617	81.9057	682.617	80.166	682.617	81.1711	682.617	80.0365	682.617	81.1272	682.617	80.1738	682.617	81.4259	682.617	79.967	682.617	81.5114	682.617	78.7876	682.617	80.976	682.617	75.8344	682.617	79.5073	682.617	69.7387	682.617	76.978	682.617	69.797	682.617	74.7893	682.617	75.7606	682.617	76.0732	682.617	78.5019	682.617	78.2746	682.617	79.1961
707.52	87.5629	707.52	87.3834	707.52	87.5437	707.52	86.9985	707.52	87.3414	707.52	86.414	707.52	86.9871	707.52	85.6636	707.52	86.5093	707.52	84.8086	707.52	85.8898	707.52	83.9195	707.52	85.0773	707.52	83.0936	707.52	84.0923	707.52	82.4974	707.52	83.0905	707.52	82.2563	707.52	82.2183	707.52	82.1983	707.52	81.3513	707.52	81.8654	707.52	80.0361	707.52	80.7165	707.52	77.565	707.52	78.0317	707.52	72.7593	707.52	71.7987	707.52	69.0506	707.52	59.7662	707.52	75.5977	707.52	74.9298	707.52	79.5181	707.52	79.3919	707.52	81.1865	707.52	81.1609
732.422	87.0544	732.422	87.0521	732.422	86.8174	732.422	86.7552	732.422	86.4196	732.422	86.1503	732.422	85.9353	732.422	85.2919	732.422	85.3872	732.422	84.2933	732.422	84.7382	732.422	83.2515	732.422	83.966	732.422	82.2826	732.422	83.1539	732.422	81.6648	732.422	82.4839	732.422	81.5492	732.422	82.0775	732.422	81.5905	732.422	81.7992	732.422	81.3043	732.422	81.2403	732.422	80.3149	732.422	79.8438	732.422	78.1609	732.422	76.8691	732.422	73.8658	732.422	71.1963	732.422	67.0454	732.422	70.29	732.422	72.6466	732.422	75.8296	732.422	77.1382	732.422	78.4149	732.422	78.7994
757.324	87.4758	757.324	87.3845	757.324	87.4451	757.324	87.1255	757.324	87.2892	757.324	86.6531	757.324	86.9519	757.324	85.9562	757.324	86.3625	757.324	85.0363	757.324	85.485	757.324	83.922	757.324	84.3927	757.324	82.8365	757.324	83.3914	757.324	82.2197	757.324	82.9028	757.324	82.178	757.324	82.8481	757.324	82.2233	757.324	82.6206	757.324	81.7329	757.324	81.7437	757.324	80.0993	757.324	80.0517	757.324	76.3089	757.324	77.5382	757.324	66.1197	757.324	74.6541	757.324	70.3055	757.324	74.4443	757.324	77.4368	757.324	77.4495	757.324	80.1495	757.324	79.8614	757.324	80.7977
785.156	86.555	785.156	86.7856	785.156	86.3544	785.156	86.8591	785.156	86.2904	785.156	86.639	785.156	86.2994	785.156	86.0554	785.156	86.2031	785.156	85.0606	785.156	85.8087	785.156	83.6965	785.156	85.0216	785.156	82.2585	785.156	83.9818	785.156	81.2315	785.156	83.0745	785.156	80.8366	785.156	82.5599	785.156	80.7898	785.156	82.1695	785.156	80.6337	785.156	81.3518	785.156	79.9694	785.156	79.432	785.156	78.2494	785.156	74.9227	785.156	74.1038	785.156	65.5161	785.156	59.4919	785.156	75.516	785.156	72.9832	785.156	80.2885	785.156	79.1181	785.156	81.9723	785.156	81.6066
811.523	84.7832	811.523	85.0124	811.523	84.2239	811.523	84.8368	811.523	83.5197	811.523	84.2819	811.523	82.8964	811.523	83.4379	811.523	82.3954	811.523	82.3994	811.523	81.7262	811.523	81.1682	811.523	80.5061	811.523	79.5032	811.523	78.6194	811.523	77.1083	811.523	76.5209	811.523	74.9081	811.523	75.5638	811.523	74.9714	811.523	76.5388	811.523	75.9682	811.523	77.9199	811.523	76.0407	811.523	78.2126	811.523	74.2611	811.523	76.4398	811.523	69.235	811.523	70.6546	811.523	62.4485	811.523	57.4721	811.523	71.0465	811.523	72.5421	811.523	75.2337	811.523	76.1721	811.523	76.7735
840.82	83.661	840.82	84.0431	840.82	83.348	840.82	84.3164	840.82	83.2821	840.82	84.3517	840.82	83.4808	840.82	84.0832	840.82	83.7487	840.82	83.5555	840.82	83.886	840.82	82.9408	840.82	83.8703	840.82	82.4441	840.82	83.7905	840.82	82.1515	840.82	83.6678	840.82	82.1206	840.82	83.4105	840.82	82.3351	840.82	82.8671	840.82	82.3818	840.82	81.7818	840.82	81.6763	840.82	79.6977	840.82	79.8514	840.82	75.8709	840.82	76.6274	840.82	68.4878	840.82	71.087	840.82	59.4829	840.82	60.4941	840.82	69.079	840.82	67.3152	840.82	71.8063	840.82	71.3731
870.117	85.9825	870.117	85.9911	870.117	85.5241	870.117	85.4854	870.117	84.7665	870.117	84.5383	870.117	83.8597	870.117	83.3283	870.117	82.8301	870.117	81.9152	870.117	81.4682	870.117	80.1117	870.117	79.4475	870.117	77.9361	870.117	76.9701	870.117	76.5851	870.117	75.8803	870.117	77.8931	870.117	77.2437	870.117	80.1736	870.117	79.2833	870.117	81.5156	870.117	81.0382	870.117	81.5332	870.117	81.9628	870.117	80.1147	870.117	81.2995	870.117	76.6054	870.117	77.9989	870.117	67.316	870.117	70.7395	870.117	67.6251	870.117	73.8016	870.117	76.0237	870.117	77.9104	870.117	78.4683
900.879	85.5132	900.879	84.4815	900.879	86.1954	900.879	83.6687	900.879	86.3661	900.879	83.6217	900.879	86.1012	900.879	84.0768	900.879	85.4919	900.879	84.3298	900.879	84.5257	900.879	83.8197	900.879	83.1317	900.879	82.1728	900.879	81.2541	900.879	79.3251	900.879	78.8503	900.879	76.2069	900.879	76.6128	900.879	75.4759	900.879	76.8418	900.879	77.1772	900.879	78.196	900.879	78.4464	900.879	78.385	900.879	78.0184	900.879	77.0589	900.879	75.0919	900.879	74.0342	900.879	66.211	900.879	70.2453	900.879	67.9012	900.879	73.0813	900.879	75.4257	900.879	76.6168	900.879	77.491
933.105	85.0793	933.105	85.0514	933.105	85.0067	933.105	84.9552	933.105	84.83	933.105	84.8113	933.105	84.5531	933.105	84.492	933.105	84.0952	933.105	83.66	933.105	83.2785	933.105	82.0231	933.105	82.0453	933.105	79.671	933.105	80.5695	933.105	76.8948	933.105	79.0979	933.105	74.4968	933.105	78.2259	933.105	75.4363	933.105	78.5108	933.105	78.0525	933.105	79.3484	933.105	79.6444	933.105	79.8365	933.105	79.5704	933.105	79.0553	933.105	77.12	933.105	76.0536	933.105	69.1172	933.105	72.7583	933.105	67.861	933.105	76.868	933.105	77.3008	933.105	79.8838	933.105	80.1038
965.332	83.2751	965.332	82.7212	965.332	83.2469	965.332	81.8966	965.332	82.6395	965.332	81.2813	965.332	81.8153	965.332	81.1667	965.332	81.2356	965.332	81.3057	965.332	80.8817	965.332	81.1616	965.332	80.2597	965.332	80.4608	965.332	79.0986	965.332	79.3577	965.332	77.6194	965.332	78.1318	965.332	76.1338	965.332	76.8062	965.332	74.8836	965.332	75.2862	965.332	73.9966	965.332	74.0382	965.332	72.5343	965.332	73.2017	965.332	68.9402	965.332	70.8835	965.332	65.629	965.332	66.1599	965.332	71.1653	965.332	73.6687	965.332	76.3521	965.332	78.6666	965.332	79.4774	965.332	80.3282
1,000.49	86.3886	1,000.49	86.4585	1,000.49	85.7446	1,000.49	85.8496	1,000.49	84.8295	1,000.49	84.7723	1,000.49	83.7859	1,000.49	83.4901	1,000.49	82.3848	1,000.49	82.0203	1,000.49	80.4567	1,000.49	80.4732	1,000.49	78.7917	1,000.49	79.4302	1,000.49	78.7857	1,000.49	79.2227	1,000.49	79.7627	1,000.49	79.501	1,000.49	80.3633	1,000.49	80.3695	1,000.49	80.8106	1,000.49	81.8177	1,000.49	81.7641	1,000.49	82.7505	1,000.49	82.4305	1,000.49	82.1712	1,000.49	81.2904	1,000.49	79.8436	1,000.49	76.8198	1,000.49	75.7171	1,000.49	65.8933	1,000.49	68.5696	1,000.49	71.1905	1,000.49	66.3619	1,000.49	74.1864	1,000.49	72.6772
1,035.64	88.1613	1,035.64	88.1077	1,035.64	87.7479	1,035.64	87.5661	1,035.64	87.0747	1,035.64	86.638	1,035.64	86.3976	1,035.64	85.3547	1,035.64	85.728	1,035.64	83.652	1,035.64	84.7556	1,035.64	81.4472	1,035.64	83.1084	1,035.64	78.2211	1,035.64	80.333	1,035.64	72.144	1,035.64	76.8604	1,035.64	63.2537	1,035.64	77.9585	1,035.64	74.4112	1,035.64	81.1556	1,035.64	79.5823	1,035.64	82.7044	1,035.64	81.6676	1,035.64	82.4301	1,035.64	81.4507	1,035.64	80.3463	1,035.64	78.8405	1,035.64	75.8811	1,035.64	72.0344	1,035.64	65.4882	1,035.64	66.6932	1,035.64	67.3003	1,035.64	73.9821	1,035.64	73.7034	1,035.64	75.4193
1,072.27	85.2331	1,072.27	85.0236	1,072.27	85.328	1,072.27	84.8401	1,072.27	85.1532	1,072.27	84.5691	1,072.27	84.7451	1,072.27	84.0188	1,072.27	84.2196	1,072.27	83.2065	1,072.27	83.4087	1,072.27	82.2096	1,072.27	82.0393	1,072.27	80.9816	1,072.27	80.1834	1,072.27	79.0642	1,072.27	77.633	1,072.27	75.3753	1,072.27	73.5904	1,072.27	69.0587	1,072.27	73.6404	1,072.27	73.7464	1,072.27	77.0741	1,072.27	79.0474	1,072.27	78.9726	1,072.27	80.8602	1,072.27	79.1797	1,072.27	79.6482	1,072.27	76.8783	1,072.27	74.3723	1,072.27	70.177	1,072.27	64.3953	1,072.27	62.8457	1,072.27	74.0431	1,072.27	73.7087	1,072.27	76.1648
1,108.89	83.9108	1,108.89	83.7639	1,108.89	84.013	1,108.89	83.7052	1,108.89	83.9631	1,108.89	83.6033	1,108.89	83.7268	1,108.89	83.0952	1,108.89	83.2214	1,108.89	82.0698	1,108.89	82.4025	1,108.89	80.9716	1,108.89	81.331	1,108.89	80.274	1,108.89	79.6619	1,108.89	79.6561	1,108.89	76.3287	1,108.89	77.9311	1,108.89	70.238	1,108.89	74.0472	1,108.89	66.4874	1,108.89	72.8759	1,108.89	72.3796	1,108.89	76.1632	1,108.89	75.5954	1,108.89	77.5043	1,108.89	75.9658	1,108.89	76.6442	1,108.89	73.9023	1,108.89	72.5547	1,108.89	69.728	1,108.89	55.414	1,108.89	69.4636	1,108.89	71.243	1,108.89	73.8438	1,108.89	74.9417
1,148.44	83.2461	1,148.44	83.5343	1,148.44	83.1889	1,148.44	83.8273	1,148.44	83.3316	1,148.44	83.7253	1,148.44	83.5041	1,148.44	82.8415	1,148.44	83.3633	1,148.44	81.1378	1,148.44	82.5091	1,148.44	79.4737	1,148.44	81.1904	1,148.44	79.2756	1,148.44	79.9553	1,148.44	79.0778	1,148.44	77.8288	1,148.44	76.272	1,148.44	72.7322	1,148.44	68.9551	1,148.44	62.1992	1,148.44	68.5164	1,148.44	73.3725	1,148.44	75.912	1,148.44	77.9186	1,148.44	78.3383	1,148.44	78.1778	1,148.44	77.1656	1,148.44	74.9538	1,148.44	71.6186	1,148.44	67.427	1,148.44	62.6838	1,148.44	68.1667	1,148.44	72.6669	1,148.44	73.6881	1,148.44	75.0818
1,189.45	82.3282	1,189.45	83.6279	1,189.45	80.7112	1,189.45	83.7837	1,189.45	79.6405	1,189.45	81.886	1,189.45	79.6565	1,189.45	76.9634	1,189.45	80.2494	1,189.45	70.8529	1,189.45	80.8437	1,189.45	73.2147	1,189.45	81.3673	1,189.45	78.1942	1,189.45	81.4285	1,189.45	80.7044	1,189.45	80.1889	1,189.45	80.2468	1,189.45	76.3696	1,189.45	77.8805	1,189.45	65.0778	1,189.45	73.8525	1,189.45	68.8633	1,189.45	68.9742	1,189.45	73.695	1,189.45	71.6687	1,189.45	74.7433	1,189.45	73.8119	1,189.45	72.2822	1,189.45	72.1574	1,189.45	62.4903	1,189.45	63.8277	1,189.45	66.4188	1,189.45	70.1812	1,189.45	73.8367	1,189.45	74.6775
1,230.47	81.9694	1,230.47	81.3543	1,230.47	81.6997	1,230.47	80.2114	1,230.47	80.8308	1,230.47	79.5206	1,230.47	79.6859	1,230.47	79.6289	1,230.47	78.2086	1,230.47	79.4904	1,230.47	77.0942	1,230.47	78.5859	1,230.47	77.2768	1,230.47	77.3895	1,230.47	77.1908	1,230.47	76.9877	1,230.47	74.9863	1,230.47	76.3979	1,230.47	71.3881	1,230.47	74.9175	1,230.47	70.0041	1,230.47	74.0124	1,230.47	68.7349	1,230.47	75.5101	1,230.47	66.2168	1,230.47	77.5337	1,230.47	71.5869	1,230.47	77.986	1,230.47	74.2527	1,230.47	75.8455	1,230.47	73.0057	1,230.47	69.0594	1,230.47	67.6978	1,230.47	63.5896	1,230.47	63.6176	1,230.47	67.256
1,274.41	81.7438	1,274.41	81.1157	1,274.41	81.129	1,274.41	79.4258	1,274.41	79.6828	1,274.41	78.1944	1,274.41	78.029	1,274.41	78.6585	1,274.41	76.4276	1,274.41	79.102	1,274.41	74.8158	1,274.41	78.2049	1,274.41	73.9261	1,274.41	76.5792	1,274.41	74.0382	1,274.41	75.1797	1,274.41	73.5087	1,274.41	72.5681	1,274.41	70.8563	1,274.41	69.7324	1,274.41	67.0145	1,274.41	70.5223	1,274.41	64.2094	1,274.41	72.6725	1,274.41	69.6018	1,274.41	74.4366	1,274.41	74.0698	1,274.41	75.4748	1,274.41	72.5533	1,274.41	74.359	1,274.41	66.4086	1,274.41	69.3009	1,274.41	61.629	1,274.41	53.3088	1,274.41	60.7153	1,274.41	58.0765
1,319.82	81.13	1,319.82	80.8181	1,319.82	80.6283	1,319.82	79.8636	1,319.82	79.5211	1,319.82	78.7648	1,319.82	78.2125	1,319.82	77.6978	1,319.82	77.3143	1,319.82	76.7412	1,319.82	77.0031	1,319.82	75.5475	1,319.82	76.4991	1,319.82	73.1512	1,319.82	74.8602	1,319.82	69.0827	1,319.82	72.0219	1,319.82	62.8587	1,319.82	70.1129	1,319.82	58.9777	1,319.82	71.9305	1,319.82	66.0903	1,319.82	72.634	1,319.82	73.1541	1,319.82	67.5562	1,319.82	76.3735	1,319.82	63.3725	1,319.82	77.4069	1,319.82	71.3138	1,319.82	75.2012	1,319.82	72.4996	1,319.82	67.2932	1,319.82	69.3139	1,319.82	62.5969	1,319.82	66.1867	1,319.82	68.3749
1,366.7	81.9144	1,366.7	81.2921	1,366.7	81.8682	1,366.7	80.7479	1,366.7	80.8251	1,366.7	80.4013	1,366.7	79.0982	1,366.7	79.5105	1,366.7	77.2847	1,366.7	77.8861	1,366.7	75.5362	1,366.7	74.8458	1,366.7	73.697	1,366.7	67.7438	1,366.7	72.3238	1,366.7	60.7132	1,366.7	72.6587	1,366.7	68.7906	1,366.7	75.3119	1,366.7	72.4898	1,366.7	77.745	1,366.7	69.7476	1,366.7	76.2511	1,366.7	50.3172	1,366.7	66.6932	1,366.7	70.1517	1,366.7	74.754	1,366.7	75.0933	1,366.7	76.5102	1,366.7	75.2295	1,366.7	72.2258	1,366.7	71.7577	1,366.7	65.7704	1,366.7	65.8209	1,366.7	70.1733	1,366.7	69.1265
1,413.57	82.3177	1,413.57	81.67	1,413.57	81.5541	1,413.57	80.1561	1,413.57	79.9257	1,413.57	79.1697	1,413.57	78.45	1,413.57	79.7665	1,413.57	77.7646	1,413.57	80.7572	1,413.57	77.8122	1,413.57	79.9769	1,413.57	77.5978	1,413.57	77.0842	1,413.57	76.3355	1,413.57	75.0914	1,413.57	75.6549	1,413.57	73.745	1,413.57	76.9922	1,413.57	71.7509	1,413.57	77.9346	1,413.57	66.921	1,413.57	76.9049	1,413.57	57.5736	1,413.57	73.0893	1,413.57	71.8367	1,413.57	69.6838	1,413.57	76.2997	1,413.57	72.4655	1,413.57	76.9026	1,413.57	73.9704	1,413.57	72.2292	1,413.57	72.4509	1,413.57	61.8849	1,413.57	71.4413	1,413.57	71.515
1,463.38	80.4044	1,463.38	81.262	1,463.38	79.9486	1,463.38	82.0432	1,463.38	80.0616	1,463.38	81.813	1,463.38	80.0059	1,463.38	80.446	1,463.38	78.9963	1,463.38	78.8732	1,463.38	77.8007	1,463.38	77.6348	1,463.38	76.7165	1,463.38	77.3555	1,463.38	75.0894	1,463.38	77.9145	1,463.38	74.3097	1,463.38	76.9932	1,463.38	75.9351	1,463.38	74.0748	1,463.38	77.355	1,463.38	71.4561	1,463.38	76.3863	1,463.38	66.181	1,463.38	73.0427	1,463.38	59.9733	1,463.38	68.7495	1,463.38	72.6695	1,463.38	71.0779	1,463.38	75.9631	1,463.38	74.213	1,463.38	74.1609	1,463.38	73.0293	1,463.38	64.4744	1,463.38	71.4348	1,463.38	68.7504
1,516.11	78.7116	1,516.11	79.6631	1,516.11	79.1011	1,516.11	80.7084	1,516.11	80.2342	1,516.11	81.0272	1,516.11	80.1516	1,516.11	80.2025	1,516.11	78.442	1,516.11	77.8517	1,516.11	75.9341	1,516.11	74.951	1,516.11	73.8859	1,516.11	73.35	1,516.11	74.0274	1,516.11	72.7685	1,516.11	73.5927	1,516.11	71.9022	1,516.11	71.2626	1,516.11	70.1526	1,516.11	71.2007	1,516.11	68.8311	1,516.11	70.7123	1,516.11	64.4838	1,516.11	67.922	1,516.11	55.7795	1,516.11	70.9628	1,516.11	68.9678	1,516.11	72.8688	1,516.11	71.8325	1,516.11	72.2415	1,516.11	70.9307	1,516.11	69.7555	1,516.11	64.3044	1,516.11	67.4982	1,516.11	64.6424
1,568.85	80.3383	1,568.85	80.2675	1,568.85	80.0232	1,568.85	79.9027	1,568.85	79.5866	1,568.85	79.5197	1,568.85	78.9615	1,568.85	78.7906	1,568.85	78.2683	1,568.85	77.4509	1,568.85	77.7977	1,568.85	75.837	1,568.85	77.3327	1,568.85	74.2321	1,568.85	76.718	1,568.85	71.4734	1,568.85	74.145	1,568.85	67.4584	1,568.85	68.5136	1,568.85	67.8307	1,568.85	65.6694	1,568.85	70.5001	1,568.85	64.975	1,568.85	71.1356	1,568.85	64.5094	1,568.85	66.0422	1,568.85	68.2906	1,568.85	60.4864	1,568.85	68.1899	1,568.85	70.7359	1,568.85	67.7383	1,568.85	72.1032	1,568.85	69.0755	1,568.85	67.6382	1,568.85	66.7578	1,568.85	62.8036
1,624.51	82.0851	1,624.51	81.5677	1,624.51	80.9267	1,624.51	79.4842	1,624.51	78.3539	1,624.51	78.3639	1,624.51	77.0921	1,624.51	79.8521	1,624.51	78.5701	1,624.51	80.3654	1,624.51	78.9704	1,624.51	78.6612	1,624.51	78.0404	1,624.51	76.8492	1,624.51	77.1905	1,624.51	76.2113	1,624.51	74.6218	1,624.51	74.5585	1,624.51	69.1233	1,624.51	70.2794	1,624.51	67.8173	1,624.51	65.6036	1,624.51	70.0179	1,624.51	70.1629	1,624.51	66.3356	1,624.51	71.3375	1,624.51	68.2981	1,624.51	67.3383	1,624.51	67.3013	1,624.51	65.301	1,624.51	66.1723	1,624.51	65.7047	1,624.51	66.938	1,624.51	63.9915	1,624.51	64.0747	1,624.51	61.6858
1,681.64	82.3485	1,681.64	81.4262	1,681.64	82.5211	1,681.64	80.9419	1,681.64	81.4781	1,681.64	80.9346	1,681.64	79.6204	1,681.64	80.5783	1,681.64	77.4814	1,681.64	78.6425	1,681.64	76.247	1,681.64	75.9247	1,681.64	75.9455	1,681.64	73.5823	1,681.64	75.8136	1,681.64	69.9304	1,681.64	76.2839	1,681.64	69.5322	1,681.64	74.7178	1,681.64	70.8124	1,681.64	69.1776	1,681.64	68.1974	1,681.64	66.1937	1,681.64	68.6938	1,681.64	67.5869	1,681.64	68.484	1,681.64	66.047	1,681.64	61.5443	1,681.64	68.1974	1,681.64	67.5863	1,681.64	65.4132	1,681.64	66.7416	1,681.64	64.797	1,681.64	62.9634	1,681.64	68.0801	1,681.64	65.4266
1,741.7	82.9731	1,741.7	83.2152	1,741.7	82.489	1,741.7	82.7713	1,741.7	81.7925	1,741.7	81.0017	1,741.7	81.0872	1,741.7	78.3872	1,741.7	79.5323	1,741.7	76.4223	1,741.7	76.9579	1,741.7	75.8572	1,741.7	76.2936	1,741.7	74.9031	1,741.7	76.4244	1,741.7	72.3691	1,741.7	75.8748	1,741.7	70.7909	1,741.7	74.9734	1,741.7	73.3011	1,741.7	71.0613	1,741.7	70.2855	1,741.7	63.8714	1,741.7	66.5019	1,741.7	69.6168	1,741.7	72.1565	1,741.7	67.7782	1,741.7	70.7344	1,741.7	70.8874	1,741.7	66.2351	1,741.7	60.0892	1,741.7	64.6767	1,741.7	63.522	1,741.7	67.2827	1,741.7	66.7635	1,741.7	69.3366
1,803.22	83.6454	1,803.22	84.3719	1,803.22	82.0731	1,803.22	83.211	1,803.22	81.5761	1,803.22	81.0318	1,803.22	81.9549	1,803.22	79.4194	1,803.22	80.7919	1,803.22	78.2805	1,803.22	77.8792	1,803.22	77.3228	1,803.22	74.7674	1,803.22	76.2337	1,803.22	74.1937	1,803.22	74.642	1,803.22	76.2968	1,803.22	70.7714	1,803.22	77.7292	1,803.22	63.8139	1,803.22	76.9262	1,803.22	65.1399	1,803.22	71.105	1,803.22	63.7863	1,803.22	46.6097	1,803.22	60.8222	1,803.22	59.6367	1,803.22	67.536	1,803.22	50.6062	1,803.22	71.8033	1,803.22	61.4945	1,803.22	68.132	1,803.22	68.3156	1,803.22	63.8323	1,803.22	70.0269	1,803.22	70.9006
1,866.21	82.6727	1,866.21	82.5155	1,866.21	83.0767	1,866.21	83.072	1,866.21	82.6941	1,866.21	82.6096	1,866.21	80.7278	1,866.21	79.5563	1,866.21	79.0879	1,866.21	76.5341	1,866.21	79.4102	1,866.21	76.5013	1,866.21	77.5886	1,866.21	74.8353	1,866.21	74.5798	1,866.21	73.0045	1,866.21	76.035	1,866.21	74.572	1,866.21	76.9885	1,866.21	72.648	1,866.21	74.0682	1,866.21	71.3267	1,866.21	68.5948	1,866.21	70.9248	1,866.21	69.388	1,866.21	66.891	1,866.21	63.4582	1,866.21	64.0131	1,866.21	67.1181	1,866.21	67.3786	1,866.21	69.3856	1,866.21	68.5668	1,866.21	67.0384	1,866.21	63.132	1,866.21	69.1761	1,866.21	68.2365
1,932.13	82.4384	1,932.13	83.4019	1,932.13	82.5605	1,932.13	83.709	1,932.13	82.7681	1,932.13	81.5915	1,932.13	81.5323	1,932.13	78.357	1,932.13	80.0638	1,932.13	79.5953	1,932.13	78.504	1,932.13	79.5853	1,932.13	77.7794	1,932.13	76.9491	1,932.13	76.1185	1,932.13	75.3769	1,932.13	73.8661	1,932.13	71.3936	1,932.13	72.4882	1,932.13	67.6097	1,932.13	69.8177	1,932.13	71.4169	1,932.13	72.0003	1,932.13	69.5545	1,932.13	70.6613	1,932.13	69.2072	1,932.13	64.413	1,932.13	69.765	1,932.13	69.7444	1,932.13	69.4869	1,932.13	66.1489	1,932.13	69.2133	1,932.13	65.6793	1,932.13	63.3931	1,932.13	69.1048	1,932.13	68.1922
1,999.51	83.6979	1,999.51	83.1854	1,999.51	82.153	1,999.51	81.2599	1,999.51	80.5764	1,999.51	81.9712	1,999.51	80.6387	1,999.51	82.24	1,999.51	81.1936	1,999.51	79.8342	1,999.51	80.8209	1,999.51	79.5045	1,999.51	79.7736	1,999.51	77.9507	1,999.51	77.8257	1,999.51	74.1005	1,999.51	74.4653	1,999.51	71.4261	1,999.51	65.021	1,999.51	69.4407	1,999.51	65.7379	1,999.51	68.5521	1,999.51	73.4377	1,999.51	69.3923	1,999.51	70.199	1,999.51	66.4286	1,999.51	56.7683	1,999.51	68.8122	1,999.51	65.4356	1,999.51	69.2912	1,999.51	68.4829	1,999.51	65.5827	1,999.51	70.0409	1,999.51	62.8261	1,999.51	71.9549	1,999.51	69.2453
2,069.82	84.6192	2,069.82	83.0927	2,069.82	84.0752	2,069.82	82.2046	2,069.82	82.1405	2,069.82	83.0345	2,069.82	80.926	2,069.82	82.1074	2,069.82	80.8832	2,069.82	80.4374	2,069.82	80.36	2,069.82	78.5034	2,069.82	79.8687	2,069.82	75.6622	2,069.82	78.1159	2,069.82	76.1618	2,069.82	75.9713	2,069.82	75.1986	2,069.82	75.7759	2,069.82	74.3265	2,069.82	71.2447	2,069.82	68.6768	2,069.82	69.9398	2,069.82	70.064	2,069.82	69.6396	2,069.82	70.6227	2,069.82	59.3087	2,069.82	65.4395	2,069.82	63.4204	2,069.82	69.0734	2,069.82	66.461	2,069.82	66.7465	2,069.82	68.233	2,069.82	58.7203	2,069.82	72.5141	2,069.82	69.7424
2,143.07	85.4295	2,143.07	84.4861	2,143.07	85.7137	2,143.07	84.2891	2,143.07	84.4255	2,143.07	83.2418	2,143.07	82.4	2,143.07	81.7967	2,143.07	81.0561	2,143.07	80.8552	2,143.07	80.2288	2,143.07	79.6322	2,143.07	79.8372	2,143.07	79.4172	2,143.07	79.3871	2,143.07	76.8798	2,143.07	78.98	2,143.07	72.0449	2,143.07	77.5442	2,143.07	71.4464	2,143.07	74.6067	2,143.07	70.3471	2,143.07	70.2226	2,143.07	68.0776	2,143.07	69.2581	2,143.07	71.8951	2,143.07	66.8128	2,143.07	67.5036	2,143.07	58.4605	2,143.07	68.6526	2,143.07	65.01	2,143.07	69.009	2,143.07	64.8691	2,143.07	55.1716	2,143.07	71.6814	2,143.07	68.6365
2,219.24	84.3657	2,219.24	84.5971	2,219.24	84.9397	2,219.24	84.535	2,219.24	84.7064	2,219.24	82.743	2,219.24	83.277	2,219.24	81.2788	2,219.24	80.9793	2,219.24	80.7942	2,219.24	78.9574	2,219.24	80.5102	2,219.24	78.5783	2,219.24	77.5058	2,219.24	77.2284	2,219.24	77.2961	2,219.24	76.1342	2,219.24	76.2208	2,219.24	76.1654	2,219.24	71.4183	2,219.24	73.9917	2,219.24	71.4507	2,219.24	72.3466	2,219.24	68.726	2,219.24	68.7477	2,219.24	69.7783	2,219.24	68.3942	2,219.24	69.3104	2,219.24	62.7282	2,219.24	67.3264	2,219.24	68.9622	2,219.24	67.4621	2,219.24	57.3331	2,219.24	57.2253	2,219.24	70.1092	2,219.24	66.2952
2,296.88	82.8838	2,296.88	83.4917	2,296.88	83.5741	2,296.88	84.1524	2,296.88	83.8644	2,296.88	83.6157	2,296.88	83.1379	2,296.88	81.9481	2,296.88	81.5027	2,296.88	81.8783	2,296.88	80.4288	2,296.88	81.2059	2,296.88	79.4772	2,296.88	79.7376	2,296.88	76.222	2,296.88	78.4148	2,296.88	74.7483	2,296.88	74.4392	2,296.88	78.1206	2,296.88	72.4256	2,296.88	75.9908	2,296.88	72.1619	2,296.88	70.4367	2,296.88	68.1899	2,296.88	72.6803	2,296.88	71.6082	2,296.88	69.9044	2,296.88	71.3722	2,296.88	63.5685	2,296.88	67.6409	2,296.88	66.1328	2,296.88	68.1887	2,296.88	52.6175	2,296.88	61.8816	2,296.88	69.1628	2,296.88	66.425
2,378.91	83.1082	2,378.91	83.3714	2,378.91	82.7192	2,378.91	82.914	2,378.91	83.4504	2,378.91	82.5499	2,378.91	83.5768	2,378.91	82.419	2,378.91	82.0365	2,378.91	81.0285	2,378.91	80.3903	2,378.91	80.5695	2,378.91	78.7154	2,378.91	78.0551	2,378.91	79.2055	2,378.91	73.9305	2,378.91	76.8676	2,378.91	74.8512	2,378.91	75.8352	2,378.91	71.456	2,378.91	77.9995	2,378.91	72.4242	2,378.91	67.7173	2,378.91	71.5246	2,378.91	69.4195	2,378.91	68.948	2,378.91	71.0024	2,378.91	72.2558	2,378.91	67.4083	2,378.91	68.0436	2,378.91	67.2708	2,378.91	67.379	2,378.91	55.9841	2,378.91	51.2684	2,378.91	66.7051	2,378.91	67.1403
2,462.4	84.2597	2,462.4	84.0216	2,462.4	83.5923	2,462.4	83.1752	2,462.4	83.074	2,462.4	83.5347	2,462.4	82.8413	2,462.4	83.0951	2,462.4	81.8781	2,462.4	81.5428	2,462.4	80.6355	2,462.4	78.9173	2,462.4	79.2965	2,462.4	78.0264	2,462.4	78.1577	2,462.4	78.4298	2,462.4	76.3824	2,462.4	72.3913	2,462.4	73.0072	2,462.4	71.5052	2,462.4	66.6846	2,462.4	71.7987	2,462.4	69.439	2,462.4	70.9515	2,462.4	62.1872	2,462.4	66.8561	2,462.4	69.3672	2,462.4	71.3163	2,462.4	66.4198	2,462.4	70.0712	2,462.4	70.7085	2,462.4	67.8293	2,462.4	62.9151	2,462.4	60.548	2,462.4	67.7874	2,462.4	67.327
2,548.83	84.0485	2,548.83	83.3247	2,548.83	84.3031	2,548.83	83.2316	2,548.83	83.4642	2,548.83	83.4928	2,548.83	82.6242	2,548.83	82.8929	2,548.83	81.1319	2,548.83	81.1178	2,548.83	79.7151	2,548.83	79.3022	2,548.83	78.7611	2,548.83	77.948	2,548.83	75.3663	2,548.83	74.348	2,548.83	76.0356	2,548.83	75.0414	2,548.83	77.8122	2,548.83	71.5542	2,548.83	70.0452	2,548.83	69.0922	2,548.83	55.6136	2,548.83	69.8276	2,548.83	66.7893	2,548.83	67.6716	2,548.83	67.2953	2,548.83	69.0647	2,548.83	69.0062	2,548.83	68.8737	2,548.83	68.23	2,548.83	68.592	2,548.83	63.0835	2,548.83	56.663	2,548.83	64.4763	2,548.83	66.9362
2,639.65	82.3245	2,639.65	81.9593	2,639.65	83.4247	2,639.65	83.3579	2,639.65	83.7174	2,639.65	82.8716	2,639.65	83.4166	2,639.65	81.5496	2,639.65	81.6298	2,639.65	81.2355	2,639.65	80.2222	2,639.65	79.4791	2,639.65	76.5625	2,639.65	78.981	2,639.65	75.6098	2,639.65	77.1679	2,639.65	76.5416	2,639.65	72.6074	2,639.65	76.2235	2,639.65	69.9211	2,639.65	70.3999	2,639.65	67.2193	2,639.65	67.9549	2,639.65	69.5352	2,639.65	66.514	2,639.65	68.9773	2,639.65	67.6147	2,639.65	71.3078	2,639.65	69.9431	2,639.65	68.2266	2,639.65	67.6209	2,639.65	67.9671	2,639.65	64.4617	2,639.65	63.6891	2,639.65	64.6249	2,639.65	64.1251
2,731.93	81.8166	2,731.93	81.431	2,731.93	82.6697	2,731.93	82.0405	2,731.93	83.6246	2,731.93	81.0102	2,731.93	82.7363	2,731.93	81.5298	2,731.93	81.1785	2,731.93	80.5789	2,731.93	79.9963	2,731.93	79.7635	2,731.93	76.2645	2,731.93	76.116	2,731.93	72.1537	2,731.93	71.9075	2,731.93	69.2038	2,731.93	70.916	2,731.93	72.7657	2,731.93	68.5364	2,731.93	67.3233	2,731.93	65.3896	2,731.93	68.2748	2,731.93	67.8472	2,731.93	67.3386	2,731.93	67.7415	2,731.93	69.4657	2,731.93	69.9357	2,731.93	65.8274	2,731.93	69.1508	2,731.93	67.2877	2,731.93	67.3263	2,731.93	62.5423	2,731.93	64.2183	2,731.93	59.5436	2,731.93	60.9355
2,828.61	81.5461	2,828.61	81.6382	2,828.61	81.3429	2,828.61	80.9507	2,828.61	82.6116	2,828.61	81.3845	2,828.61	81.8889	2,828.61	81.291	2,828.61	80.4868	2,828.61	80.2315	2,828.61	78.4816	2,828.61	79.2092	2,828.61	76.9104	2,828.61	75.904	2,828.61	74.2081	2,828.61	72.6948	2,828.61	69.6122	2,828.61	68.4368	2,828.61	64.0818	2,828.61	70.0614	2,828.61	69.7232	2,828.61	69.028	2,828.61	72.925	2,828.61	66.2383	2,828.61	67.3079	2,828.61	66.758	2,828.61	67.6521	2,828.61	68.408	2,828.61	66.3017	2,828.61	68.4176	2,828.61	66.9829	2,828.61	68.1125	2,828.61	65.0633	2,828.61	66.5849	2,828.61	58.8925	2,828.61	52.6162
2,928.22	81.6293	2,928.22	81.6921	2,928.22	82.108	2,928.22	81.3307	2,928.22	82.2111	2,928.22	81.6148	2,928.22	81.3179	2,928.22	80.9157	2,928.22	80.2796	2,928.22	79.9632	2,928.22	78.0083	2,928.22	78.4023	2,928.22	76.1898	2,928.22	75.5697	2,928.22	73.7121	2,928.22	75.1471	2,928.22	67.4807	2,928.22	72.33	2,928.22	65.1858	2,928.22	68.4147	2,928.22	74.5469	2,928.22	66.0174	2,928.22	73.001	2,928.22	64.7582	2,928.22	61.2715	2,928.22	67.3439	2,928.22	62.8914	2,928.22	67.4735	2,928.22	62.133	2,928.22	69.1273	2,928.22	65.925	2,928.22	63.9962	2,928.22	65.2491	2,928.22	65.7058	2,928.22	65.1824	2,928.22	58.4128
3,030.76	81.5173	3,030.76	82	3,030.76	81.9857	3,030.76	82.1253	3,030.76	81.11	3,030.76	80.9275	3,030.76	80.3894	3,030.76	80.1811	3,030.76	80.5675	3,030.76	79.3489	3,030.76	78.2417	3,030.76	76.5177	3,030.76	74.9413	3,030.76	75.9429	3,030.76	72.3809	3,030.76	74.7231	3,030.76	65.9232	3,030.76	69.1901	3,030.76	70.4582	3,030.76	63.4077	3,030.76	73.0406	3,030.76	64.495	3,030.76	70.7382	3,030.76	63.2609	3,030.76	54.9506	3,030.76	67.1054	3,030.76	64.8719	3,030.76	66.4517	3,030.76	66.7888	3,030.76	68.5591	3,030.76	65.6538	3,030.76	65.4176	3,030.76	61.9274	3,030.76	67.8658	3,030.76	64.8268	3,030.76	45.8942
3,137.7	80.5637	3,137.7	81.1293	3,137.7	81.3975	3,137.7	81.0257	3,137.7	81.494	3,137.7	81.6802	3,137.7	80.9971	3,137.7	81.0439	3,137.7	80.5012	3,137.7	79.9986	3,137.7	78.7659	3,137.7	77.6182	3,137.7	74.531	3,137.7	77.1855	3,137.7	71.4953	3,137.7	72.4705	3,137.7	69.5788	3,137.7	66.6459	3,137.7	73.1625	3,137.7	66.9652	3,137.7	68.8337	3,137.7	63.7654	3,137.7	58.6762	3,137.7	65.1164	3,137.7	52.7583	3,137.7	65.884	3,137.7	67.3783	3,137.7	66.2057	3,137.7	66.2046	3,137.7	69.5463	3,137.7	64.1395	3,137.7	64.6097	3,137.7	64.4289	3,137.7	67.176	3,137.7	65.7042	3,137.7	54.7301
3,249.02	79.7584	3,249.02	79.1772	3,249.02	81.0703	3,249.02	81.1129	3,249.02	81.9681	3,249.02	82.7173	3,249.02	81.7438	3,249.02	82.0363	3,249.02	80.2927	3,249.02	80.5844	3,249.02	77.669	3,249.02	78.23	3,249.02	74.9963	3,249.02	74.3788	3,249.02	74.3422	3,249.02	70.9031	3,249.02	74.7521	3,249.02	71.4515	3,249.02	74.1246	3,249.02	67.4557	3,249.02	67.1084	3,249.02	65.6365	3,249.02	35.765	3,249.02	60.5988	3,249.02	60.7704	3,249.02	65.9991	3,249.02	66.259	3,249.02	66.3234	3,249.02	63.3724	3,249.02	68.0496	3,249.02	64.7773	3,249.02	64.3052	3,249.02	64.8519	3,249.02	65.3938	3,249.02	65.6485	3,249.02	58.3331
3,363.28	81.4807	3,363.28	81.317	3,363.28	81.7856	3,363.28	82.038	3,363.28	82.2017	3,363.28	82.0504	3,363.28	82.1917	3,363.28	81.744	3,363.28	80.6618	3,363.28	79.246	3,363.28	77.6858	3,363.28	77.4295	3,363.28	77.3511	3,363.28	73.8616	3,363.28	75.9357	3,363.28	74.267	3,363.28	74.5747	3,363.28	70.8562	3,363.28	73.6814	3,363.28	66.4537	3,363.28	65.6537	3,363.28	63.507	3,363.28	67.5746	3,363.28	64.8042	3,363.28	49.2005	3,363.28	64.7311	3,363.28	66.3839	3,363.28	67.8264	3,363.28	63.2285	3,363.28	67.8772	3,363.28	51.2612	3,363.28	59.7671	3,363.28	64.4945	3,363.28	63.5663	3,363.28	64.7395	3,363.28	58.0099
3,481.93	81.9929	3,481.93	83.407	3,481.93	82.1603	3,481.93	83.8262	3,481.93	83.1006	3,481.93	82.5384	3,481.93	82.4846	3,481.93	80.9094	3,481.93	81.042	3,481.93	80.2927	3,481.93	78.3981	3,481.93	77.5671	3,481.93	78.1839	3,481.93	75.8877	3,481.93	75.2568	3,481.93	74.7158	3,481.93	73.7377	3,481.93	67.4549	3,481.93	72.2862	3,481.93	68.3904	3,481.93	69.9809	3,481.93	62.2098	3,481.93	69.9189	3,481.93	66.0508	3,481.93	58.2384	3,481.93	59.5764	3,481.93	62.6651	3,481.93	67.6008	3,481.93	59.0186	3,481.93	67.3088	3,481.93	62.3884	3,481.93	64.048	3,481.93	62.7884	3,481.93	65.4205	3,481.93	63.0265	3,481.93	57.0542
3,604.98	82.3127	3,604.98	83.3977	3,604.98	81.267	3,604.98	83.9046	3,604.98	82.4758	3,604.98	82.9774	3,604.98	82.8188	3,604.98	80.685	3,604.98	81.1945	3,604.98	79.5292	3,604.98	78.7261	3,604.98	76.5898	3,604.98	78.1888	3,604.98	77.2237	3,604.98	75.5178	3,604.98	71.6177	3,604.98	69.2498	3,604.98	70.8681	3,604.98	66.0867	3,604.98	66.989	3,604.98	66.1275	3,604.98	65.5527	3,604.98	66.2177	3,604.98	64.4142	3,604.98	59.964	3,604.98	62.2531	3,604.98	55.1225	3,604.98	65.5142	3,604.98	60.2324	3,604.98	66.7003	3,604.98	62.154	3,604.98	64.6836	3,604.98	62.7423	3,604.98	64.834	3,604.98	64.5869	3,604.98	59.3989
3,732.42	83.6949	3,732.42	84.1797	3,732.42	83.188	3,732.42	83.6151	3,732.42	81.9854	3,732.42	82.9705	3,732.42	81.5015	3,732.42	80.7543	3,732.42	79.3533	3,732.42	78.6123	3,732.42	78.2631	3,732.42	77.7152	3,732.42	77.0467	3,732.42	74.7365	3,732.42	71.8603	3,732.42	73.6435	3,732.42	64.6089	3,732.42	70.7549	3,732.42	64.4703	3,732.42	65.4362	3,732.42	61.4525	3,732.42	63.9519	3,732.42	58.5729	3,732.42	64.8599	3,732.42	55.5354	3,732.42	64.0164	3,732.42	44.4326	3,732.42	64.8356	3,732.42	60.1045	3,732.42	66.2948	3,732.42	57.2941	3,732.42	62.7253	3,732.42	61.245	3,732.42	62.2192	3,732.42	61.8978	3,732.42	53.3295
3,864.26	83.8396	3,864.26	84.0694	3,864.26	83.5987	3,864.26	83.3017	3,864.26	83.0965	3,864.26	81.9501	3,864.26	81.5187	3,864.26	80.9547	3,864.26	78.9859	3,864.26	79.7536	3,864.26	79.3006	3,864.26	78.6691	3,864.26	76.4497	3,864.26	75.8199	3,864.26	72.3022	3,864.26	75.6699	3,864.26	68.2209	3,864.26	72.1179	3,864.26	67.1898	3,864.26	68.8652	3,864.26	66.0236	3,864.26	64.1164	3,864.26	68.7624	3,864.26	66.2329	3,864.26	64.5027	3,864.26	62.6159	3,864.26	60.033	3,864.26	64.1893	3,864.26	57.7271	3,864.26	66.6963	3,864.26	53.5593	3,864.26	60.6183	3,864.26	61.3478	3,864.26	63.7519	3,864.26	63.6686	3,864.26	57.0819
4,000.49	83.5792	4,000.49	83.3943	4,000.49	82.8073	4,000.49	83.764	4,000.49	82.3594	4,000.49	81.1355	4,000.49	81.7683	4,000.49	80.8146	4,000.49	78.3674	4,000.49	79.5363	4,000.49	80.1166	4,000.49	77.6529	4,000.49	77.041	4,000.49	77.8768	4,000.49	73.6095	4,000.49	74.9628	4,000.49	68.9213	4,000.49	70.8188	4,000.49	62.1423	4,000.49	67.8324	4,000.49	69.7143	4,000.49	67.2987	4,000.49	73.1935	4,000.49	65.8973	4,000.49	68.9175	4,000.49	65.1056	4,000.49	63.8172	4,000.49	65.1735	4,000.49	60.4213	4,000.49	66.023	4,000.49	56.1846	4,000.49	60.6276	4,000.49	59.4289	4,000.49	63.696	4,000.49	61.497	4,000.49	58.0927
4,141.11	84.3778	4,141.11	83.9948	4,141.11	84.1159	4,141.11	82.4696	4,141.11	82.4798	4,141.11	82.7714	4,141.11	80.9272	4,141.11	81.346	4,141.11	79.03	4,141.11	81.1141	4,141.11	80.1929	4,141.11	79.0369	4,141.11	78.0168	4,141.11	78.3251	4,141.11	70.8646	4,141.11	72.2275	4,141.11	67.654	4,141.11	72.0744	4,141.11	68.8652	4,141.11	68.0288	4,141.11	72.1151	4,141.11	66.7681	4,141.11	72.2495	4,141.11	66.5027	4,141.11	67.6677	4,141.11	68.135	4,141.11	67.7507	4,141.11	65.3693	4,141.11	62.1824	4,141.11	66.1897	4,141.11	57.2775	4,141.11	64.2604	4,141.11	55.6947	4,141.11	62.2951	4,141.11	60.9117	4,141.11	56.6372
4,287.6	85.2603	4,287.6	84.7158	4,287.6	83.8731	4,287.6	83.8064	4,287.6	83.065	4,287.6	82.5757	4,287.6	80.9853	4,287.6	82.0221	4,287.6	81.0054	4,287.6	80.3991	4,287.6	81.6697	4,287.6	79.4668	4,287.6	75.8236	4,287.6	75.3429	4,287.6	73.2736	4,287.6	76.7752	4,287.6	75.3762	4,287.6	71.6693	4,287.6	68.4595	4,287.6	65.6512	4,287.6	66.7654	4,287.6	64.0251	4,287.6	55.7452	4,287.6	65.6167	4,287.6	67.7234	4,287.6	65.3488	4,287.6	67.6958	4,287.6	66.2823	4,287.6	55.6233	4,287.6	64.7254	4,287.6	58.6205	4,287.6	65.3754	4,287.6	52.8871	4,287.6	58.365	4,287.6	60.1791	4,287.6	54.8596
4,438.48	84.7903	4,438.48	84.317	4,438.48	84.2534	4,438.48	83.5585	4,438.48	83.21	4,438.48	82.4428	4,438.48	80.8281	4,438.48	81.4598	4,438.48	81.6478	4,438.48	80.9328	4,438.48	81.92	4,438.48	77.3437	4,438.48	72.9266	4,438.48	77.8391	4,438.48	75.1615	4,438.48	73.129	4,438.48	74.0194	4,438.48	69.5828	4,438.48	65.0388	4,438.48	68.9275	4,438.48	64.2142	4,438.48	63.657	4,438.48	69.8048	4,438.48	63.8207	4,438.48	69.8684	4,438.48	63.144	4,438.48	67.2018	4,438.48	68.0655	4,438.48	56.6273	4,438.48	56.5465	4,438.48	63.891	4,438.48	64.4484	4,438.48	59.7155	4,438.48	56.9919	4,438.48	61.5721	4,438.48	62.9497
4,595.21	84.0225	4,595.21	84.4787	4,595.21	83.7785	4,595.21	82.0087	4,595.21	82.8354	4,595.21	80.7201	4,595.21	81.9047	4,595.21	80.7432	4,595.21	82.52	4,595.21	80.5175	4,595.21	79.8048	4,595.21	76.7237	4,595.21	76.6813	4,595.21	77.1912	4,595.21	78.6136	4,595.21	71.6419	4,595.21	74.7794	4,595.21	70.6405	4,595.21	58.3262	4,595.21	64.2249	4,595.21	62.0811	4,595.21	65.6089	4,595.21	71.3872	4,595.21	65.2182	4,595.21	67.3551	4,595.21	68.2043	4,595.21	63.5188	4,595.21	65.9714	4,595.21	61.0258	4,595.21	58.8426	4,595.21	61.543	4,595.21	60.2159	4,595.21	63.1484	4,595.21	57.3317	4,595.21	63.0527	4,595.21	60.4153
4,756.35	84.9052	4,756.35	83.383	4,756.35	83.9769	4,756.35	82.6998	4,756.35	82.7854	4,756.35	82.8405	4,756.35	82.3037	4,756.35	82.021	4,756.35	82.1675	4,756.35	79.0917	4,756.35	75.9631	4,756.35	77.9508	4,756.35	79.3415	4,756.35	72.7703	4,756.35	77.9448	4,756.35	74.6433	4,756.35	72.8235	4,756.35	65.9769	4,756.35	70.202	4,756.35	65.3745	4,756.35	62.9395	4,756.35	60.3525	4,756.35	62.3545	4,756.35	62.3265	4,756.35	62.4406	4,756.35	66.7463	4,756.35	57.8309	4,756.35	66.0412	4,756.35	52.4877	4,756.35	63.4067	4,756.35	62.5872	4,756.35	61.975	4,756.35	62.0468	4,756.35	61.5668	4,756.35	63.9971	4,756.35	59.8385
4,924.8	85.8734	4,924.8	83.721	4,924.8	85.3966	4,924.8	82.9426	4,924.8	82.6531	4,924.8	83.8911	4,924.8	80.6643	4,924.8	79.7401	4,924.8	81.7422	4,924.8	78.3563	4,924.8	73.6511	4,924.8	74.8744	4,924.8	79.679	4,924.8	75.8045	4,924.8	74.2448	4,924.8	71.7534	4,924.8	68.5123	4,924.8	72.1796	4,924.8	69.6645	4,924.8	62.8348	4,924.8	60.3653	4,924.8	64.2498	4,924.8	65.3412	4,924.8	63.2495	4,924.8	66.6114	4,924.8	62.2106	4,924.8	58.063	4,924.8	68.6191	4,924.8	60.5889	4,924.8	67.6375	4,924.8	50.6176	4,924.8	64.2461	4,924.8	60.5585	4,924.8	60.523	4,924.8	62.9673	4,924.8	54.4716
5,097.66	85.2925	5,097.66	84.5687	5,097.66	84.9712	5,097.66	84.1013	5,097.66	83.0545	5,097.66	80.0227	5,097.66	80.9205	5,097.66	79.897	5,097.66	81.138	5,097.66	78.859	5,097.66	78.158	5,097.66	78.5099	5,097.66	80.5085	5,097.66	75.3766	5,097.66	72.9942	5,097.66	71.5781	5,097.66	70.7915	5,097.66	69.4169	5,097.66	68.9506	5,097.66	64.2735	5,097.66	55.9416	5,097.66	64.6743	5,097.66	69.1777	5,097.66	62.8465	5,097.66	62.6038	5,097.66	61.7043	5,097.66	66.0019	5,097.66	64.1505	5,097.66	60.3616	5,097.66	68.0285	5,097.66	55.6406	5,097.66	65.4117	5,097.66	58.2773	5,097.66	60.8137	5,097.66	58.1854	5,097.66	54.2773
5,277.83	84.4003	5,277.83	84.6346	5,277.83	83.5734	5,277.83	83.6521	5,277.83	81.4407	5,277.83	80.6859	5,277.83	81.1336	5,277.83	81.2079	5,277.83	79.4694	5,277.83	79.9338	5,277.83	81.6562	5,277.83	77.7078	5,277.83	78.7902	5,277.83	75.9527	5,277.83	76.1614	5,277.83	74.7903	5,277.83	73.0305	5,277.83	71.147	5,277.83	71.8545	5,277.83	66.1306	5,277.83	59.1416	5,277.83	62.7282	5,277.83	66.1233	5,277.83	63.3421	5,277.83	64.9136	5,277.83	63.2625	5,277.83	64.284	5,277.83	62.4782	5,277.83	61.5658	5,277.83	65.0663	5,277.83	53.2366	5,277.83	65.1076	5,277.83	61.0584	5,277.83	60.5354	5,277.83	54.0348	5,277.83	53.5838
5,463.87	83.6623	5,463.87	84.2825	5,463.87	83.6067	5,463.87	82.2747	5,463.87	81.9301	5,463.87	82.3592	5,463.87	81.9184	5,463.87	80.5485	5,463.87	78.6653	5,463.87	80.952	5,463.87	82.4722	5,463.87	79.4924	5,463.87	77.0446	5,463.87	78.2289	5,463.87	75.9572	5,463.87	72.7797	5,463.87	72.7418	5,463.87	71.5628	5,463.87	70.8344	5,463.87	67.2985	5,463.87	56.7139	5,463.87	64.9145	5,463.87	72.1838	5,463.87	61.827	5,463.87	71.6392	5,463.87	67.8708	5,463.87	66.8768	5,463.87	65.0659	5,463.87	62.2333	5,463.87	60.8507	5,463.87	56.2542	5,463.87	65.0077	5,463.87	57.2989	5,463.87	60.4789	5,463.87	60.0145	5,463.87	55.8
5,657.23	83.9405	5,657.23	83.788	5,657.23	83.4065	5,657.23	82.7858	5,657.23	83.1383	5,657.23	81.6931	5,657.23	81.0845	5,657.23	81.5521	5,657.23	79.0212	5,657.23	82.1775	5,657.23	81.561	5,657.23	80.5823	5,657.23	74.8937	5,657.23	76.9831	5,657.23	75.8259	5,657.23	76.4966	5,657.23	73.5171	5,657.23	71.51	5,657.23	67.4956	5,657.23	69.0226	5,657.23	61.8308	5,657.23	63.6665	5,657.23	69.8835	5,657.23	64.5014	5,657.23	69.7335	5,657.23	67.5175	5,657.23	65.2657	5,657.23	67.0032	5,657.23	59.1778	5,657.23	57.9359	5,657.23	58.6198	5,657.23	62.9338	5,657.23	49.8381	5,657.23	53.4726	5,657.23	58.9037	5,657.23	55.2543
5,856.45	84.7691	5,856.45	85.1191	5,856.45	83.6713	5,856.45	83.6266	5,856.45	83.8197	5,856.45	81.9768	5,856.45	81.6426	5,856.45	83.3358	5,856.45	79.9398	5,856.45	81.8958	5,856.45	81.6284	5,856.45	79.4977	5,856.45	78.259	5,856.45	78.8896	5,856.45	75.7674	5,856.45	75.8258	5,856.45	76.3435	5,856.45	72.7612	5,856.45	66.6964	5,856.45	67.7453	5,856.45	56.9906	5,856.45	65.3057	5,856.45	69.6639	5,856.45	65.7104	5,856.45	70.069	5,856.45	67.4407	5,856.45	59.6496	5,856.45	67.9594	5,856.45	61.0024	5,856.45	62.4892	5,856.45	52.3967	5,856.45	66.1516	5,856.45	60.3684	5,856.45	63.937	5,856.45	51.9498	5,856.45	48.2648
6,062.99	85.8356	6,062.99	85.2736	6,062.99	84.2605	6,062.99	83.8099	6,062.99	83.1506	6,062.99	83.7893	6,062.99	81.6949	6,062.99	82.7035	6,062.99	81.9039	6,062.99	82.1131	6,062.99	79.5181	6,062.99	81.4759	6,062.99	80.7938	6,062.99	78.5107	6,062.99	77.8806	6,062.99	76.3816	6,062.99	78.2908	6,062.99	73.9329	6,062.99	72.1181	6,062.99	66.2174	6,062.99	49.8721	6,062.99	63.9314	6,062.99	72.8674	6,062.99	68.6515	6,062.99	68.7483	6,062.99	66.8297	6,062.99	48.6606	6,062.99	66.8423	6,062.99	63.1631	6,062.99	66.4033	6,062.99	50.9952	6,062.99	68.409	6,062.99	60.8588	6,062.99	62.8617	6,062.99	62.9175	6,062.99	42.0849
6,276.86	84.2769	6,276.86	83.0998	6,276.86	83.3818	6,276.86	83.1074	6,276.86	82.7737	6,276.86	83.2157	6,276.86	79.7834	6,276.86	81.3452	6,276.86	80.7806	6,276.86	82.2751	6,276.86	78.725	6,276.86	81.4992	6,276.86	79.6076	6,276.86	79.8212	6,276.86	80.335	6,276.86	76.5524	6,276.86	78.2902	6,276.86	72.4695	6,276.86	73.0773	6,276.86	65.5881	6,276.86	66.8056	6,276.86	64.3774	6,276.86	67.3573	6,276.86	65.2526	6,276.86	62.8325	6,276.86	67.263	6,276.86	60.0956	6,276.86	67.0118	6,276.86	63.9636	6,276.86	67.262	6,276.86	62.8118	6,276.86	65.175	6,276.86	57.8391	6,276.86	61.8767	6,276.86	58.3384	6,276.86	53.5537
6,498.05	82.0765	6,498.05	81.4621	6,498.05	79.4012	6,498.05	83.3637	6,498.05	82.3914	6,498.05	82.5545	6,498.05	79.0901	6,498.05	81.7174	6,498.05	76.8621	6,498.05	81.8369	6,498.05	80.5221	6,498.05	81.4226	6,498.05	79.3356	6,498.05	78.6788	6,498.05	80.6164	6,498.05	75.2124	6,498.05	73.4253	6,498.05	73.3248	6,498.05	72.2045	6,498.05	66.8484	6,498.05	67.502	6,498.05	65.2476	6,498.05	64.656	6,498.05	62.5575	6,498.05	61.4836	6,498.05	65.5415	6,498.05	53.7277	6,498.05	66.406	6,498.05	44.2791	6,498.05	64.0163	6,498.05	62.8192	6,498.05	68.1965	6,498.05	50.0989	6,498.05	63.3233	6,498.05	53.8741	6,498.05	57.0555
6,726.56	80.4467	6,726.56	81.5571	6,726.56	80.4624	6,726.56	82.4333	6,726.56	81.089	6,726.56	79.9011	6,726.56	78.2319	6,726.56	80.0207	6,726.56	79.7806	6,726.56	81.4776	6,726.56	79.6395	6,726.56	80.4336	6,726.56	80.6664	6,726.56	78.5759	6,726.56	76.827	6,726.56	76.1154	6,726.56	69.3526	6,726.56	71.7546	6,726.56	67.0002	6,726.56	66.2752	6,726.56	37.7443	6,726.56	60.0048	6,726.56	68.0703	6,726.56	60.7727	6,726.56	68.6631	6,726.56	63.7439	6,726.56	60.1665	6,726.56	66.4106	6,726.56	61.7713	6,726.56	64.9171	6,726.56	63.0334	6,726.56	67.4674	6,726.56	54.0596	6,726.56	59.2911	6,726.56	51.8782	6,726.56	57.2705
6,963.87	80.2175	6,963.87	81.1111	6,963.87	81.9329	6,963.87	79.9318	6,963.87	78.8979	6,963.87	80.7448	6,963.87	78.804	6,963.87	80.3441	6,963.87	81.3126	6,963.87	81.9215	6,963.87	79.4751	6,963.87	81.4993	6,963.87	80.0378	6,963.87	78.0726	6,963.87	72.0193	6,963.87	74.9845	6,963.87	74.6008	6,963.87	70.8395	6,963.87	67.2587	6,963.87	68.0546	6,963.87	58.0693	6,963.87	63.2844	6,963.87	67.0168	6,963.87	63.0051	6,963.87	70.7639	6,963.87	65.9351	6,963.87	65.5516	6,963.87	66.485	6,963.87	61.9353	6,963.87	62.6437	6,963.87	58.4786	6,963.87	64.4771	6,963.87	56.5178	6,963.87	54.5248	6,963.87	59.2686	6,963.87	52.4207
7,209.96	79.0314	7,209.96	80.7784	7,209.96	81.3061	7,209.96	81.0051	7,209.96	73.1629	7,209.96	81.0926	7,209.96	80.3641	7,209.96	81.5634	7,209.96	81.6608	7,209.96	81.9586	7,209.96	79.1439	7,209.96	81.4678	7,209.96	80.1696	7,209.96	78.7299	7,209.96	73.482	7,209.96	75.5005	7,209.96	75.8185	7,209.96	71.8872	7,209.96	65.6741	7,209.96	66.0525	7,209.96	64.9568	7,209.96	62.6544	7,209.96	67.9534	7,209.96	63.1564	7,209.96	70.9124	7,209.96	64.4825	7,209.96	65.6202	7,209.96	64.3401	7,209.96	60.8722	7,209.96	61.3348	7,209.96	51.4205	7,209.96	58.7329	7,209.96	53.5357	7,209.96	58.4572	7,209.96	55.2302	7,209.96	57.9718
7,464.84	78.6193	7,464.84	80.6416	7,464.84	79.8348	7,464.84	82.0503	7,464.84	82.0103	7,464.84	81.9582	7,464.84	82.7587	7,464.84	82.5348	7,464.84	81.4022	7,464.84	80.9094	7,464.84	81.4687	7,464.84	80.2788	7,464.84	76.5041	7,464.84	76.9057	7,464.84	77.3697	7,464.84	73.437	7,464.84	74.8624	7,464.84	70.7585	7,464.84	69.6435	7,464.84	65.6714	7,464.84	63.4238	7,464.84	60.5377	7,464.84	70.2732	7,464.84	62.317	7,464.84	66.1257	7,464.84	64.1929	7,464.84	66.8734	7,464.84	64.018	7,464.84	56.8952	7,464.84	62.7049	7,464.84	53.405	7,464.84	61.528	7,464.84	41.0829	7,464.84	52.0226	7,464.84	54.8804	7,464.84	55.9994
7,727.05	82.7451	7,727.05	82.7668	7,727.05	80.8434	7,727.05	83.4711	7,727.05	84.8011	7,727.05	82.3969	7,727.05	83.4808	7,727.05	82.0044	7,727.05	80.101	7,727.05	80.5002	7,727.05	81.6567	7,727.05	78.2485	7,727.05	73.6612	7,727.05	76.6971	7,727.05	77.8599	7,727.05	73.5003	7,727.05	69.6268	7,727.05	69.292	7,727.05	67.5802	7,727.05	64.5013	7,727.05	53.4476	7,727.05	56.5323	7,727.05	70.4933	7,727.05	61.4281	7,727.05	69.1057	7,727.05	63.7006	7,727.05	66.0659	7,727.05	62.5011	7,727.05	56.4626	7,727.05	61.9337	7,727.05	52.0209	7,727.05	63.3472	7,727.05	51.7231	7,727.05	55.8548	7,727.05	52.9531	7,727.05	56.8179
7,999.51	84.1954	7,999.51	82.9165	7,999.51	83.7723	7,999.51	83.6324	7,999.51	85.7243	7,999.51	83.1033	7,999.51	82.5993	7,999.51	81.0949	7,999.51	80.0337	7,999.51	79.6308	7,999.51	79.3653	7,999.51	78.3475	7,999.51	78.4192	7,999.51	75.5913	7,999.51	74.2845	7,999.51	73.3493	7,999.51	69.683	7,999.51	67.5648	7,999.51	61.2907	7,999.51	63.6418	7,999.51	60.3098	7,999.51	41.9655	7,999.51	71.0913	7,999.51	57.8037	7,999.51	71.5119	7,999.51	63.0981	7,999.51	65.0983	7,999.51	61.3788	7,999.51	54.3894	7,999.51	62.6628	7,999.51	55.137	7,999.51	62.8651	7,999.51	51.4467	7,999.51	57.385	7,999.51	44.0023	7,999.51	57.3618
8,282.23	83.5686	8,282.23	82.8642	8,282.23	84.2299	8,282.23	83.461	8,282.23	84.7427	8,282.23	83.2114	8,282.23	80.9131	8,282.23	79.8995	8,282.23	80.9937	8,282.23	79.4151	8,282.23	75.9347	8,282.23	77.5841	8,282.23	78.8641	8,282.23	74.4538	8,282.23	65.6689	8,282.23	71.1348	8,282.23	68.8603	8,282.23	66.2405	8,282.23	66.8703	8,282.23	58.8311	8,282.23	61.0974	8,282.23	58.3881	8,282.23	72.0933	8,282.23	59.4978	8,282.23	71.5791	8,282.23	62.54	8,282.23	64.4357	8,282.23	59.3616	8,282.23	51.0808	8,282.23	58.4795	8,282.23	46.5312	8,282.23	58.8952	8,282.23	45.3959	8,282.23	39.6442	8,282.23	50.0454	8,282.23	51.0256
8,573.73	83.7362	8,573.73	83.7594	8,573.73	83.0781	8,573.73	83.7516	8,573.73	82.7494	8,573.73	82.7262	8,573.73	80.6192	8,573.73	80.6658	8,573.73	80.424	8,573.73	77.9284	8,573.73	76.3552	8,573.73	77.1484	8,573.73	75.9163	8,573.73	71.9488	8,573.73	71.2566	8,573.73	69.4816	8,573.73	68.2449	8,573.73	65.2501	8,573.73	64.2041	8,573.73	57.02	8,573.73	66.3132	8,573.73	54.4978	8,573.73	69.9734	8,573.73	55.4426	8,573.73	69.7814	8,573.73	56.9729	8,573.73	62.0712	8,573.73	57.5023	8,573.73	46.8248	8,573.73	58.4318	8,573.73	48.6497	8,573.73	56.794	8,573.73	45.7611	8,573.73	54.2646	8,573.73	49.8092	8,573.73	53.4218
8,876.95	83.3818	8,876.95	82.8716	8,876.95	82.4786	8,876.95	83.2804	8,876.95	83.6039	8,876.95	82.1499	8,876.95	81.5862	8,876.95	80.1696	8,876.95	79.3128	8,876.95	77.3208	8,876.95	76.964	8,876.95	74.4419	8,876.95	69.993	8,876.95	70.3511	8,876.95	71.7623	8,876.95	66.4832	8,876.95	63.7894	8,876.95	63.4959	8,876.95	63.0852	8,876.95	57.0224	8,876.95	62.412	8,876.95	51.8613	8,876.95	70.3593	8,876.95	53.0191	8,876.95	68.5508	8,876.95	56.8906	8,876.95	62.828	8,876.95	54.1492	8,876.95	44.4992	8,876.95	54.4117	8,876.95	48.1324	8,876.95	52.6849	8,876.95	35.1269	8,876.95	36.8321	8,876.95	42.5635	8,876.95	48.0574
9,188.96	83.463	9,188.96	83.346	9,188.96	84.2039	9,188.96	83.1882	9,188.96	83.4602	9,188.96	81.9306	9,188.96	81.9534	9,188.96	79.2616	9,188.96	77.9135	9,188.96	76.4983	9,188.96	76.9589	9,188.96	73.4177	9,188.96	67.7578	9,188.96	68.8658	9,188.96	68.3697	9,188.96	65.9578	9,188.96	64.4352	9,188.96	62.0278	9,188.96	61.3734	9,188.96	55.0272	9,188.96	66.8805	9,188.96	42.2543	9,188.96	70.5085	9,188.96	49.1582	9,188.96	69.7956	9,188.96	53.8861	9,188.96	60.7444	9,188.96	54.5183	9,188.96	54.65	9,188.96	53.9094	9,188.96	43.3923	9,188.96	52.1121	9,188.96	46.7938	9,188.96	49.9651	9,188.96	38.5716	9,188.96	46.1682
9,514.16	83.9489	9,514.16	83.4853	9,514.16	83.9465	9,514.16	83.4655	9,514.16	83.275	9,514.16	82.3118	9,514.16	81.3738	9,514.16	78.8965	9,514.16	76.7282	9,514.16	75.6379	9,514.16	73.2869	9,514.16	72.6539	9,514.16	69.0317	9,514.16	66.3087	9,514.16	64.4644	9,514.16	63.8142	9,514.16	63.1415	9,514.16	56.7743	9,514.16	58.9661	9,514.16	54.073	9,514.16	64.8082	9,514.16	49.873	9,514.16	70.2274	9,514.16	45.1049	9,514.16	69.2085	9,514.16	53.8185	9,514.16	58.6063	9,514.16	52.5805	9,514.16	52.5762	9,514.16	50.0717	9,514.16	43.3109	9,514.16	54.7278	9,514.16	41.8714	9,514.16	44.2672	9,514.16	36.3155	9,514.16	46.4036
9,849.61	83.9561	9,849.61	84.5557	9,849.61	83.792	9,849.61	84.0602	9,849.61	83.9316	9,849.61	82.2638	9,849.61	81.0197	9,849.61	78.9719	9,849.61	76.498	9,849.61	74.2483	9,849.61	71.578	9,849.61	69.8675	9,849.61	69.8865	9,849.61	61.9985	9,849.61	59.9163	9,849.61	55.8603	9,849.61	59.5717	9,849.61	52.3977	9,849.61	59.1009	9,849.61	42.38	9,849.61	66.2611	9,849.61	49.4349	9,849.61	71.1311	9,849.61	42.9868	9,849.61	69.64	9,849.61	47.7516	9,849.61	59.9069	9,849.61	46.4284	9,849.61	49.7939	9,849.61	42.0439	9,849.61	37.5721	9,849.61	50.7791	9,849.61	41.7326	9,849.61	38.3574	9,849.61	46.347	9,849.61	43.7063
10,196.8	84.2089	10,196.8	84.1052	10,196.8	84.2113	10,196.8	83.3012	10,196.8	84.0158	10,196.8	80.9281	10,196.8	80.8384	10,196.8	77.8224	10,196.8	75.8314	10,196.8	73.4414	10,196.8	72.8491	10,196.8	68.2161	10,196.8	66.8619	10,196.8	61.1933	10,196.8	64.1298	10,196.8	54.0839	10,196.8	59.3663	10,196.8	53.7903	10,196.8	61.7094	10,196.8	50.7318	10,196.8	67.691	10,196.8	45.9365	10,196.8	70.5503	10,196.8	51.6545	10,196.8	69.8988	10,196.8	48.8866	10,196.8	61.7782	10,196.8	42.2936	10,196.8	49.0009	10,196.8	37.0557	10,196.8	38.9719	10,196.8	46.8755	10,196.8	39.7182	10,196.8	35.1204	10,196.8	33.2589	10,196.8	38.2314
10,555.7	84.3286	10,555.7	83.865	10,555.7	84.2365	10,555.7	83.2928	10,555.7	83.1341	10,555.7	81.3198	10,555.7	80.0017	10,555.7	78.3365	10,555.7	76.0346	10,555.7	74.0373	10,555.7	71.72	10,555.7	70.684	10,555.7	65.3688	10,555.7	63.4546	10,555.7	61.6412	10,555.7	60.8689	10,555.7	58.5257	10,555.7	55.8346	10,555.7	61.1257	10,555.7	47.098	10,555.7	67.9559	10,555.7	47.294	10,555.7	71.7313	10,555.7	42.8492	10,555.7	71.1148	10,555.7	49.3479	10,555.7	62.419	10,555.7	46.3021	10,555.7	53.7829	10,555.7	46.0144	10,555.7	37.1897	10,555.7	43.4996	10,555.7	41.2339	10,555.7	32.6425	10,555.7	33.6258	10,555.7	37.4815
10,927.7	83.9452	10,927.7	83.5244	10,927.7	84.1592	10,927.7	82.9042	10,927.7	82.5855	10,927.7	80.8325	10,927.7	79.3921	10,927.7	77.7545	10,927.7	76.8594	10,927.7	72.9865	10,927.7	71.9429	10,927.7	69.7691	10,927.7	65.018	10,927.7	62.2696	10,927.7	63.04	10,927.7	57.5141	10,927.7	59.0941	10,927.7	54.4667	10,927.7	62.8613	10,927.7	51.2473	10,927.7	68.4578	10,927.7	47.1367	10,927.7	72.1633	10,927.7	42.7528	10,927.7	71.1971	10,927.7	42.6753	10,927.7	62.8575	10,927.7	41.2763	10,927.7	52.0162	10,927.7	43.8335	10,927.7	33.4705	10,927.7	43.7123	10,927.7	36.6696	10,927.7	38.7828	10,927.7	35.4648	10,927.7	39.7528
11,313	83.3672	11,313	83.3811	11,313	83.3669	11,313	82.6481	11,313	82.6135	11,313	80.7829	11,313	78.4202	11,313	77.4113	11,313	75.7402	11,313	72.7129	11,313	70.9804	11,313	68.3668	11,313	65.8031	11,313	60.9735	11,313	55.3864	11,313	57.1431	11,313	55.6373	11,313	49.9579	11,313	62.8914	11,313	45.5875	11,313	67.9762	11,313	45.3886	11,313	72.2367	11,313	38.1205	11,313	71.717	11,313	34.9971	11,313	63.1156	11,313	35.3007	11,313	52.8483	11,313	42.4647	11,313	42.6877	11,313	41.563	11,313	37.5097	11,313	39.0698	11,313	42.0732	11,313	39.4172
11,712.9	83.4276	11,712.9	83.1132	11,712.9	83.2499	11,712.9	82.5881	11,712.9	82.3793	11,712.9	80.38	11,712.9	78.4941	11,712.9	76.5118	11,712.9	74.3203	11,712.9	71.0484	11,712.9	70.6422	11,712.9	65.7735	11,712.9	63.3425	11,712.9	57.9516	11,712.9	48.7213	11,712.9	52.0533	11,712.9	54.8639	11,712.9	46.6381	11,712.9	60.6567	11,712.9	28.0104	11,712.9	67.6235	11,712.9	44.4777	11,712.9	72.0001	11,712.9	43.8029	11,712.9	71.6017	11,712.9	34.5665	11,712.9	62.658	11,712.9	35.049	11,712.9	52.3235	11,712.9	40.5231	11,712.9	33.7724	11,712.9	36.2911	11,712.9	25.6973	11,712.9	40.9535	11,712.9	42.81	11,712.9	29.6682
12,126	82.6712	12,126	82.4688	12,126	82.9834	12,126	81.9793	12,126	82.018	12,126	79.1311	12,126	78.7167	12,126	74.4796	12,126	71.5067	12,126	67.4436	12,126	66.7993	12,126	60.871	12,126	57.4468	12,126	45.4359	12,126	48.1145	12,126	44.1109	12,126	42.0647	12,126	45.1992	12,126	57.1599	12,126	42.9476	12,126	67.5583	12,126	42.8046	12,126	71.2735	12,126	11.7372	12,126	71.0697	12,126	30.3845	12,126	62.4781	12,126	34.6492	12,126	52.6161	12,126	35.0885	12,126	33.3403	12,126	39.1524	12,126	39.716	12,126	39.318	12,126	38.9055	12,126	41.7609
12,553.7	81.5738	12,553.7	81.7313	12,553.7	81.6595	12,553.7	81.3407	12,553.7	80.9596	12,553.7	78.229	12,553.7	77.5525	12,553.7	72.8268	12,553.7	70.1154	12,553.7	65.5647	12,553.7	65.103	12,553.7	60.2775	12,553.7	47.6263	12,553.7	47.3762	12,553.7	50.1273	12,553.7	50.4597	12,553.7	42.4648	12,553.7	50.7137	12,553.7	57.528	12,553.7	40.6836	12,553.7	67.1409	12,553.7	41.0914	12,553.7	71.375	12,553.7	39.9266	12,553.7	71.0278	12,553.7	39.0895	12,553.7	61.9414	12,553.7	41.878	12,553.7	52.114	12,553.7	37.1941	12,553.7	35.8062	12,553.7	40.293	12,553.7	42.8409	12,553.7	41.4631	12,553.7	25.8739	12,553.7	40.1704
12,996.1	81.0618	12,996.1	80.7632	12,996.1	81.6693	12,996.1	81.1215	12,996.1	81.5932	12,996.1	78.0969	12,996.1	76.9305	12,996.1	71.1437	12,996.1	70.4164	12,996.1	64.4202	12,996.1	63.101	12,996.1	55.4204	12,996.1	57.8255	12,996.1	55.3604	12,996.1	57.7828	12,996.1	58.4777	12,996.1	52.9072	12,996.1	55.547	12,996.1	57.6433	12,996.1	48.9941	12,996.1	68.6349	12,996.1	30.5901	12,996.1	72.1024	12,996.1	47.4341	12,996.1	71.1975	12,996.1	45.8328	12,996.1	63.5132	12,996.1	42.9416	12,996.1	53.6125	12,996.1	42.1425	12,996.1	39.4302	12,996.1	41.7593	12,996.1	37.4451	12,996.1	43.6071	12,996.1	33.3707	12,996.1	28.5688
13,454.6	79.8126	13,454.6	79.9007	13,454.6	81.059	13,454.6	80.8769	13,454.6	81.6876	13,454.6	77.7766	13,454.6	77.039	13,454.6	72.13	13,454.6	72.2608	13,454.6	66.1785	13,454.6	64.2317	13,454.6	49.3812	13,454.6	63.3754	13,454.6	60.3671	13,454.6	62.131	13,454.6	60.7999	13,454.6	57.6397	13,454.6	57.3592	13,454.6	60.2276	13,454.6	52.6451	13,454.6	69.4741	13,454.6	46.8014	13,454.6	72.9924	13,454.6	44.9622	13,454.6	71.6514	13,454.6	41.7533	13,454.6	62.7536	13,454.6	42.6836	13,454.6	56.5266	13,454.6	36.9728	13,454.6	44.4158	13,454.6	39.1444	13,454.6	44.0225	13,454.6	46.6771	13,454.6	34.1347	13,454.6	31.318
13,929.2	79.1871	13,929.2	79.6975	13,929.2	79.9252	13,929.2	81.2605	13,929.2	80.5723	13,929.2	77.6824	13,929.2	76.3762	13,929.2	72.798	13,929.2	70.8399	13,929.2	63.7052	13,929.2	63.9016	13,929.2	54.0208	13,929.2	58.9799	13,929.2	63.4638	13,929.2	65.7545	13,929.2	62.086	13,929.2	56.6157	13,929.2	57.1108	13,929.2	62.0793	13,929.2	52.0832	13,929.2	69.2719	13,929.2	41.677	13,929.2	72.5037	13,929.2	45.091	13,929.2	70.7682	13,929.2	44.8254	13,929.2	62.5802	13,929.2	44.5172	13,929.2	46.6809	13,929.2	42.1086	13,929.2	45.8913	13,929.2	39.7113	13,929.2	45.9473	13,929.2	46.5822	13,929.2	45.0194	13,929.2	37.679
14,419.9	79.0704	14,419.9	79.9877	14,419.9	79.9741	14,419.9	80.5042	14,419.9	80.2045	14,419.9	76.8334	14,419.9	76.9072	14,419.9	72.9236	14,419.9	71.7326	14,419.9	56.8853	14,419.9	56.7451	14,419.9	62.5417	14,419.9	64.6532	14,419.9	64.4775	14,419.9	65.5291	14,419.9	60.9773	14,419.9	59.4698	14,419.9	56.7696	14,419.9	60.9134	14,419.9	51.2829	14,419.9	67.9557	14,419.9	41.136	14,419.9	71.3131	14,419.9	41.9714	14,419.9	69.7768	14,419.9	44.1037	14,419.9	62.1315	14,419.9	40.5884	14,419.9	50.3548	14,419.9	38.2206	14,419.9	40.6919	14,419.9	41.267	14,419.9	44.4692	14,419.9	46.0218	14,419.9	26.9611	14,419.9	36.4216
14,928.2	79.661	14,928.2	80.3315	14,928.2	80.1193	14,928.2	79.7958	14,928.2	79.6429	14,928.2	76.6658	14,928.2	76.6314	14,928.2	71.8593	14,928.2	70.0652	14,928.2	41.2361	14,928.2	63.8564	14,928.2	64.9289	14,928.2	66.1469	14,928.2	64.0703	14,928.2	64.9164	14,928.2	59.6906	14,928.2	58.7593	14,928.2	55.6488	14,928.2	60.4328	14,928.2	49.4095	14,928.2	67.6158	14,928.2	44.9368	14,928.2	70.9559	14,928.2	40.6604	14,928.2	69.6837	14,928.2	41.9698	14,928.2	61.0211	14,928.2	45.095	14,928.2	49.9428	14,928.2	35.2711	14,928.2	32.3033	14,928.2	37.0992	14,928.2	41.6578	14,928.2	43.2734	14,928.2	41.0538	14,928.2	36.0264
15,455.6	80.6194	15,455.6	80.6242	15,455.6	80.0917	15,455.6	78.8834	15,455.6	78.9608	15,455.6	76.5448	15,455.6	75.8692	15,455.6	69.2752	15,455.6	66.9791	15,455.6	59.5128	15,455.6	65.4618	15,455.6	64.8752	15,455.6	64.9521	15,455.6	62.7923	15,455.6	64.798	15,455.6	59.2054	15,455.6	54.5463	15,455.6	53.406	15,455.6	54.9855	15,455.6	49.7632	15,455.6	66.7983	15,455.6	40.5258	15,455.6	70.1517	15,455.6	42.7005	15,455.6	68.882	15,455.6	43.645	15,455.6	60.9249	15,455.6	45.9164	15,455.6	48.1531	15,455.6	36.1031	15,455.6	45.3207	15,455.6	31.3401	15,455.6	42.6684	15,455.6	44.3672	15,455.6	38.3383	15,455.6	36.2221
16,000.5	81.3404	16,000.5	80.3236	16,000.5	79.4505	16,000.5	77.6949	16,000.5	77.604	16,000.5	74.977	16,000.5	74.5475	16,000.5	63.8785	16,000.5	66.5476	16,000.5	64.4687	16,000.5	65.483	16,000.5	65.2833	16,000.5	64.7648	16,000.5	61.4934	16,000.5	61.3198	16,000.5	58.8898	16,000.5	57.9398	16,000.5	51.8417	16,000.5	53.074	16,000.5	50.1364	16,000.5	65.2954	16,000.5	46.1971	16,000.5	68.122	16,000.5	34.0298	16,000.5	67.1317	16,000.5	43.152	16,000.5	59.4997	16,000.5	42.2202	16,000.5	46.925	16,000.5	26.8289	16,000.5	33.9964	16,000.5	46.1532	16,000.5	36.2927	16,000.5	42.8032	16,000.5	37.4073	16,000.5	32.798
16,564.5	81.4274	16,564.5	79.1718	16,564.5	79.1089	16,564.5	75.8338	16,564.5	77.353	16,564.5	72.9536	16,564.5	72.9827	16,564.5	60.2839	16,564.5	63.9274	16,564.5	64.9205	16,564.5	63.3413	16,564.5	65.2908	16,564.5	63.3266	16,564.5	60.1851	16,564.5	59.2988	16,564.5	57.7117	16,564.5	56.61	16,564.5	53.0037	16,564.5	49.7111	16,564.5	48.5839	16,564.5	63.3967	16,564.5	46.1425	16,564.5	66.2817	16,564.5	32.6818	16,564.5	65.2397	16,564.5	43.5093	16,564.5	58.0856	16,564.5	41.9612	16,564.5	39.2412	16,564.5	30.2891	16,564.5	37.6704	16,564.5	43.6183	16,564.5	43.0185	16,564.5	42.1752	16,564.5	41.6793	16,564.5	38.6918
17,148.9	81.5098	17,148.9	78.9746	17,148.9	78.3112	17,148.9	74.6013	17,148.9	76.4946	17,148.9	68.946	17,148.9	70.4449	17,148.9	59.7646	17,148.9	58.8472	17,148.9	65.2194	17,148.9	59.8476	17,148.9	62.593	17,148.9	60.5764	17,148.9	59.1836	17,148.9	59.8559	17,148.9	57.5489	17,148.9	56.961	17,148.9	51.6784	17,148.9	51.5476	17,148.9	45.4651	17,148.9	63.1021	17,148.9	43.0267	17,148.9	65.6298	17,148.9	37.4426	17,148.9	63.8185	17,148.9	46.2421	17,148.9	55.4452	17,148.9	40.8009	17,148.9	43.436	17,148.9	31.7138	17,148.9	38.7102	17,148.9	37.3066	17,148.9	37.7787	17,148.9	38.6511	17,148.9	39.8623	17,148.9	38.2526
17,752.4	80.9481	17,752.4	78.5463	17,752.4	77.9317	17,752.4	74.0381	17,752.4	74.3912	17,752.4	65.2986	17,752.4	67.0477	17,752.4	62.2843	17,752.4	53.5964	17,752.4	62.2309	17,752.4	59.644	17,752.4	58.2688	17,752.4	60.5516	17,752.4	58.0237	17,752.4	58.5819	17,752.4	55.0574	17,752.4	57.2818	17,752.4	49.6114	17,752.4	51.6102	17,752.4	42.4784	17,752.4	62.1962	17,752.4	41.1734	17,752.4	64.0949	17,752.4	32.8059	17,752.4	61.6847	17,752.4	43.6062	17,752.4	53.1436	17,752.4	38.3323	17,752.4	38.8964	17,752.4	30.1828	17,752.4	34.8066	17,752.4	35.5982	17,752.4	34.7273	17,752.4	32.2464	17,752.4	39.2888	17,752.4	38.671
18,379.4	79.6451	18,379.4	77.7858	18,379.4	76.7437	18,379.4	73.4507	18,379.4	72.8784	18,379.4	63.7544	18,379.4	64.5186	18,379.4	62.7634	18,379.4	53.9823	18,379.4	59.1941	18,379.4	58.6617	18,379.4	56.526	18,379.4	59.3839	18,379.4	56.513	18,379.4	56.4977	18,379.4	51.0472	18,379.4	50.1432	18,379.4	39.5976	18,379.4	46.4935	18,379.4	33.3341	18,379.4	60.0348	18,379.4	33.4379	18,379.4	61.8502	18,379.4	22.7081	18,379.4	58.4689	18,379.4	36.0682	18,379.4	48.4755	18,379.4	36.1621	18,379.4	27.8708	18,379.4	25.0136	18,379.4	33.6937	18,379.4	36.9162	18,379.4	8.56058	18,379.4	27.3919	18,379.4	38.5732	18,379.4	39.3131
19,026.9	78.2993	19,026.9	76.5324	19,026.9	75.7355	19,026.9	72.8149	19,026.9	70.6088	19,026.9	65.9617	19,026.9	56.5428	19,026.9	63.3152	19,026.9	56.7784	19,026.9	55.7283	19,026.9	59.6658	19,026.9	56.2709	19,026.9	58.0232	19,026.9	52.2909	19,026.9	54.5853	19,026.9	45.8637	19,026.9	48.5124	19,026.9	36.1563	19,026.9	44.6299	19,026.9	35.0454	19,026.9	58.1128	19,026.9	26.5177	19,026.9	59.3645	19,026.9	33.0858	19,026.9	55.2164	19,026.9	32.2813	19,026.9	46.5563	19,026.9	26.5565	19,026.9	31.7607	19,026.9	23.9125	19,026.9	29.8963	19,026.9	35.4054	19,026.9	23.7518	19,026.9	33.8849	19,026.9	36.2021	19,026.9	36.8358
19,697.8	76.7623	19,697.8	75.2878	19,697.8	74.3909	19,697.8	72.0352	19,697.8	69.1775	19,697.8	65.6295	19,697.8	51.6504	19,697.8	59.7132	19,697.8	58.7137	19,697.8	57.2368	19,697.8	61.2039	19,697.8	55.8638	19,697.8	57.5327	19,697.8	47.9618	19,697.8	51.9183	19,697.8	40.2888	19,697.8	38.5377	19,697.8	37.4924	19,697.8	40.3357	19,697.8	34.4273	19,697.8	55.2425	19,697.8	28.9645	19,697.8	56.0508	19,697.8	32.737	19,697.8	50.2185	19,697.8	35.3631	19,697.8	40.3596	19,697.8	32.4278	19,697.8	30.9496	19,697.8	24.0293	19,697.8	28.3225	19,697.8	34.1361	19,697.8	33.3069	19,697.8	23.5383	19,697.8	32.3996	19,697.8	35.3648
19,999.5	76.4176	19,999.5	75.0979	19,999.5	73.9647	19,999.5	71.5126	19,999.5	68.4526	19,999.5	65.3373	19,999.5	53.7675	19,999.5	59.024	19,999.5	60.2071	19,999.5	59.3185	19,999.5	59.3409	19,999.5	55.6562	19,999.5	55.8502	19,999.5	47.8077	19,999.5	49.7731	19,999.5	44.2954	19,999.5	43.9663	19,999.5	41.2235	19,999.5	37.8583	19,999.5	38.8185	19,999.5	53.414	19,999.5	34.2238	19,999.5	54.2617	19,999.5	37.9154	19,999.5	47.8365	19,999.5	37.7663	19,999.5	41.821	19,999.5	31.5548	19,999.5	32.7315	19,999.5	34.2037	19,999.5	31.4301	19,999.5	36.27	19,999.5	35.8856	19,999.5	29.3893	19,999.5	17.5101	19,999.5	34.0454
