"SPL Horizontal"
"On-Axis"		"10°"		"-10°"		"20°"		"-20°"		"30°"		"-30°"		"40°"		"-40°"		"50°"		"-50°"		"60°"		"-60°"		"70°"		"-70°"		"80°"		"-80°"		"90°"		"-90°"		"100°"		"-100°"		"110°"		"-110°"		"120°"		"-120°"		"130°"		"-130°"		"140°"		"-140°"		"150°"		"-150°"		"160°"		"-160°"		"170°"		"-170°"		"180°"
"Frequency / Hz"	"Sound Pressure Level / dB (re 20 µPa/V)  [2.83  V @ 1. m]"	"Frequency / Hz"	"Sound Pressure Level / dB (re 20 µPa/V)  [2.83  V @ 1. m]"	"Frequency / Hz"	"Sound Pressure Level / dB (re 20 µPa/V)  [2.83  V @ 1. m]"	"Frequency / Hz"	"Sound Pressure Level / dB (re 20 µPa/V)  [2.83  V @ 1. m]"	"Frequency / Hz"	"Sound Pressure Level / dB (re 20 µPa/V)  [2.83  V @ 1. m]"	"Frequency / Hz"	"Sound Pressure Level / dB (re 20 µPa/V)  [2.83  V @ 1. m]"	"Frequency / Hz"	"Sound Pressure Level / dB (re 20 µPa/V)  [2.83  V @ 1. m]"	"Frequency / Hz"	"Sound Pressure Level / dB (re 20 µPa/V)  [2.83  V @ 1. m]"	"Frequency / Hz"	"Sound Pressure Level / dB (re 20 µPa/V)  [2.83  V @ 1. m]"	"Frequency / Hz"	"Sound Pressure Level / dB (re 20 µPa/V)  [2.83  V @ 1. m]"	"Frequency / Hz"	"Sound Pressure Level / dB (re 20 µPa/V)  [2.83  V @ 1. m]"	"Frequency / Hz"	"Sound Pressure Level / dB (re 20 µPa/V)  [2.83  V @ 1. m]"	"Frequency / Hz"	"Sound Pressure Level / dB (re 20 µPa/V)  [2.83  V @ 1. m]"	"Frequency / Hz"	"Sound Pressure Level / dB (re 20 µPa/V)  [2.83  V @ 1. m]"	"Frequency / Hz"	"Sound Pressure Level / dB (re 20 µPa/V)  [2.83  V @ 1. m]"	"Frequency / Hz"	"Sound Pressure Level / dB (re 20 µPa/V)  [2.83  V @ 1. m]"	"Frequency / Hz"	"Sound Pressure Level / dB (re 20 µPa/V)  [2.83  V @ 1. m]"	"Frequency / Hz"	"Sound Pressure Level / dB (re 20 µPa/V)  [2.83  V @ 1. m]"	"Frequency / Hz"	"Sound Pressure Level / dB (re 20 µPa/V)  [2.83  V @ 1. m]"	"Frequency / Hz"	"Sound Pressure Level / dB (re 20 µPa/V)  [2.83  V @ 1. m]"	"Frequency / Hz"	"Sound Pressure Level / dB (re 20 µPa/V)  [2.83  V @ 1. m]"	"Frequency / Hz"	"Sound Pressure Level / dB (re 20 µPa/V)  [2.83  V @ 1. m]"	"Frequency / Hz"	"Sound Pressure Level / dB (re 20 µPa/V)  [2.83  V @ 1. m]"	"Frequency / Hz"	"Sound Pressure Level / dB (re 20 µPa/V)  [2.83  V @ 1. m]"	"Frequency / Hz"	"Sound Pressure Level / dB (re 20 µPa/V)  [2.83  V @ 1. m]"	"Frequency / Hz"	"Sound Pressure Level / dB (re 20 µPa/V)  [2.83  V @ 1. m]"	"Frequency / Hz"	"Sound Pressure Level / dB (re 20 µPa/V)  [2.83  V @ 1. m]"	"Frequency / Hz"	"Sound Pressure Level / dB (re 20 µPa/V)  [2.83  V @ 1. m]"	"Frequency / Hz"	"Sound Pressure Level / dB (re 20 µPa/V)  [2.83  V @ 1. m]"	"Frequency / Hz"	"Sound Pressure Level / dB (re 20 µPa/V)  [2.83  V @ 1. m]"	"Frequency / Hz"	"Sound Pressure Level / dB (re 20 µPa/V)  [2.83  V @ 1. m]"	"Frequency / Hz"	"Sound Pressure Level / dB (re 20 µPa/V)  [2.83  V @ 1. m]"	"Frequency / Hz"	"Sound Pressure Level / dB (re 20 µPa/V)  [2.83  V @ 1. m]"	"Frequency / Hz"	"Sound Pressure Level / dB (re 20 µPa/V)  [2.83  V @ 1. m]"	"Frequency / Hz"	"Sound Pressure Level / dB (re 20 µPa/V)  [2.83  V @ 1. m]"	"Frequency / Hz"	"Sound Pressure Level / dB (re 20 µPa/V)  [2.83  V @ 1. m]"
20.5078	43.4983	20.5078	44.9106	20.5078	41.9084	20.5078	46.1848	20.5078	40.1415	20.5078	47.3518	20.5078	38.4278	20.5078	48.4262	20.5078	37.6221	20.5078	49.4106	20.5078	38.7005	20.5078	50.3029	20.5078	41.0606	20.5078	51.1027	20.5078	43.6288	20.5078	51.8141	20.5078	45.9906	20.5078	52.4472	20.5078	48.0697	20.5078	53.0164	20.5078	49.8728	20.5078	53.5376	20.5078	51.4187	20.5078	54.0253	20.5078	52.7224	20.5078	54.4886	20.5078	53.7934	20.5078	54.9262	20.5078	54.6387	20.5078	55.3228	20.5078	55.2663	20.5078	55.6511	20.5078	55.6879	20.5078	55.8786	20.5078	55.9187	20.5078	55.9757
21.9727	58.4088	21.9727	58.3216	21.9727	58.4573	21.9727	58.1926	21.9727	58.4711	21.9727	58.0212	21.9727	58.4535	21.9727	57.8099	21.9727	58.405	21.9727	57.5649	21.9727	58.3235	21.9727	57.2953	21.9727	58.2052	21.9727	57.0112	21.9727	58.0461	21.9727	56.7205	21.9727	57.8447	21.9727	56.4267	21.9727	57.6026	21.9727	56.128	21.9727	57.3243	21.9727	55.8198	21.9727	57.0139	21.9727	55.4997	21.9727	56.6736	21.9727	55.1746	21.9727	56.3047	21.9727	54.8675	21.9727	55.913	21.9727	54.617	21.9727	55.5138	21.9727	54.467	21.9727	55.1334	21.9727	54.4483	21.9727	54.8058	21.9727	54.567
23.4375	61.3756	23.4375	61.3895	23.4375	61.3361	23.4375	61.3794	23.4375	61.2696	23.4375	61.3463	23.4375	61.1748	23.4375	61.2911	23.4375	61.0504	23.4375	61.2138	23.4375	60.8953	23.4375	61.1144	23.4375	60.7091	23.4375	60.9925	23.4375	60.4929	23.4375	60.8479	23.4375	60.2496	23.4375	60.6807	23.4375	59.985	23.4375	60.4916	23.4375	59.7079	23.4375	60.283	23.4375	59.4299	23.4375	60.0589	23.4375	59.1658	23.4375	59.8251	23.4375	58.9331	23.4375	59.5884	23.4375	58.7511	23.4375	59.3561	23.4375	58.6379	23.4375	59.1353	23.4375	58.605	23.4375	58.9352	23.4375	58.6524	23.4375	58.7685
24.9023	64.3857	24.9023	64.3701	24.9023	64.3836	24.9023	64.3383	24.9023	64.3627	24.9023	64.2913	24.9023	64.3215	24.9023	64.23	24.9023	64.2583	24.9023	64.1549	24.9023	64.1716	24.9023	64.0662	24.9023	64.06	24.9023	63.9636	24.9023	63.9232	24.9023	63.8473	24.9023	63.7627	24.9023	63.7177	24.9023	63.5821	24.9023	63.5761	24.9023	63.3875	24.9023	63.4248	24.9023	63.1874	24.9023	63.267	24.9023	62.9923	24.9023	63.1069	24.9023	62.8139	24.9023	62.9496	24.9023	62.6641	24.9023	62.8015	24.9023	62.5529	24.9023	62.6707	24.9023	62.4868	24.9023	62.5662	24.9023	62.4684	24.9023	62.4964
26.3672	66.7491	26.3672	66.7245	26.3672	66.7584	26.3672	66.6857	26.3672	66.7518	26.3672	66.6338	26.3672	66.7287	26.3672	66.5695	26.3672	66.6888	26.3672	66.4938	26.3672	66.6322	26.3672	66.4071	26.3672	66.5589	26.3672	66.31	26.3672	66.4692	26.3672	66.2033	26.3672	66.3637	26.3672	66.0883	26.3672	66.2432	26.3672	65.9672	26.3672	66.1095	26.3672	65.8434	26.3672	65.9661	26.3672	65.7207	26.3672	65.8183	26.3672	65.6039	26.3672	65.6738	26.3672	65.4978	26.3672	65.5415	26.3672	65.4075	26.3672	65.4303	26.3672	65.3379	26.3672	65.3471	26.3672	65.2937	26.3672	65.2962	26.3672	65.2788
27.832	67.1042	27.832	67.1228	27.832	67.0711	27.832	67.1269	27.832	67.024	27.832	67.1171	27.832	66.9641	27.832	67.0945	27.832	66.8932	27.832	67.06	27.832	66.8138	27.832	67.0152	27.832	66.7288	27.832	66.9616	27.832	66.641	27.832	66.9016	27.832	66.554	27.832	66.8375	27.832	66.4712	27.832	66.7721	27.832	66.3966	27.832	66.7074	27.832	66.3346	27.832	66.6455	27.832	66.2892	27.832	66.5877	27.832	66.2633	27.832	66.5347	27.832	66.2575	27.832	66.4864	27.832	66.2693	27.832	66.4424	27.832	66.2941	27.832	66.4016	27.832	66.3266	27.832	66.363
29.2969	70.4152	29.2969	70.4166	29.2969	70.3946	29.2969	70.3994	29.2969	70.3545	29.2969	70.3641	29.2969	70.2954	29.2969	70.3115	29.2969	70.218	29.2969	70.2425	29.2969	70.1243	29.2969	70.1582	29.2969	70.0168	29.2969	70.0602	29.2969	69.8989	29.2969	69.9504	29.2969	69.7747	29.2969	69.8321	29.2969	69.6486	29.2969	69.7091	29.2969	69.525	29.2969	69.5859	29.2969	69.4087	29.2969	69.4674	29.2969	69.3042	29.2969	69.3582	29.2969	69.2152	29.2969	69.2626	29.2969	69.1445	29.2969	69.1835	29.2969	69.0934	29.2969	69.1225	29.2969	69.0619	29.2969	69.0799	29.2969	69.0495	29.2969	69.0557
30.7617	71.9626	30.7617	71.96	30.7617	71.9456	30.7617	71.9383	30.7617	71.9091	30.7617	71.8981	30.7617	71.8535	30.7617	71.8404	30.7617	71.7798	30.7617	71.7664	30.7617	71.6895	30.7617	71.6774	30.7617	71.5846	30.7617	71.575	30.7617	71.4673	30.7617	71.461	30.7617	71.3401	30.7617	71.3378	30.7617	71.2059	30.7617	71.2085	30.7617	71.0679	30.7617	71.0765	30.7617	70.9304	30.7617	70.9458	30.7617	70.7983	30.7617	70.8205	30.7617	70.6775	30.7617	70.7048	30.7617	70.574	30.7617	70.6026	30.7617	70.4932	30.7617	70.5185	30.7617	70.4394	30.7617	70.4568	30.7617	70.4152	30.7617	70.4214
32.2266	75.0008	32.2266	74.9979	32.2266	74.9875	32.2266	74.9791	32.2266	74.9579	32.2266	74.9448	32.2266	74.9125	32.2266	74.8957	32.2266	74.8522	32.2266	74.8325	32.2266	74.7783	32.2266	74.7563	32.2266	74.6928	32.2266	74.6684	32.2266	74.598	32.2266	74.5707	32.2266	74.4966	32.2266	74.4657	32.2266	74.3912	32.2266	74.3565	32.2266	74.2849	32.2266	74.2471	32.2266	74.1806	32.2266	74.1414	32.2266	74.0819	32.2266	74.0435	32.2266	73.9923	32.2266	73.9571	32.2266	73.9151	32.2266	73.8854	32.2266	73.8533	32.2266	73.8308	32.2266	73.8091	32.2266	73.7951	32.2266	73.7842	32.2266	73.7795
33.6914	76.3781	33.6914	76.3755	33.6914	76.365	33.6914	76.3571	33.6914	76.3362	33.6914	76.3235	33.6914	76.2923	33.6914	76.275	33.6914	76.2341	33.6914	76.2127	33.6914	76.1632	33.6914	76.1376	33.6914	76.0812	33.6914	76.0512	33.6914	75.9902	33.6914	75.9556	33.6914	75.8927	33.6914	75.8534	33.6914	75.7914	33.6914	75.748	33.6914	75.6891	33.6914	75.643	33.6914	75.5893	33.6914	75.5424	33.6914	75.4955	33.6914	75.4502	33.6914	75.4111	33.6914	75.3698	33.6914	75.339	33.6914	75.304	33.6914	75.2815	33.6914	75.2547	33.6914	75.2402	33.6914	75.2233	33.6914	75.2163	33.6914	75.2105
35.1562	77.592	35.1562	77.5907	35.1562	77.5786	35.1562	77.5749	35.1562	77.5508	35.1562	77.5449	35.1562	77.509	35.1562	77.5015	35.1562	77.4542	35.1562	77.4455	35.1562	77.3877	35.1562	77.3781	35.1562	77.3113	35.1562	77.3008	35.1562	77.2271	35.1562	77.2157	35.1562	77.1376	35.1562	77.1253	35.1562	77.0457	35.1562	77.0328	35.1562	76.9546	35.1562	76.9416	35.1562	76.8675	35.1562	76.8552	35.1562	76.7877	35.1562	76.777	35.1562	76.7181	35.1562	76.7094	35.1562	76.6608	35.1562	76.6544	35.1562	76.6171	35.1562	76.6128	35.1562	76.5875	35.1562	76.5851	35.1562	76.5723	35.1562	76.5716
36.6211	78.4636	36.6211	78.4647	36.6211	78.4472	36.6211	78.4506	36.6211	78.4157	36.6211	78.4216	36.6211	78.3698	36.6211	78.3784	36.6211	78.3106	36.6211	78.3218	36.6211	78.2396	36.6211	78.253	36.6211	78.1588	36.6211	78.1736	36.6211	78.0707	36.6211	78.0858	36.6211	77.9779	36.6211	77.9923	36.6211	77.8836	36.6211	77.8961	36.6211	77.7909	36.6211	77.801	36.6211	77.7031	36.6211	77.7105	36.6211	77.6234	36.6211	77.6282	36.6211	77.5543	36.6211	77.557	36.6211	77.4977	36.6211	77.4989	36.6211	77.4547	36.6211	77.455	36.6211	77.4258	36.6211	77.4258	36.6211	77.4113	36.6211	77.4113
38.0859	79.0331	38.0859	79.027	38.0859	79.0184	38.0859	79.0004	38.0859	78.9829	38.0859	78.9541	38.0859	78.927	38.0859	78.8889	38.0859	78.8515	38.0859	78.8063	38.0859	78.7577	38.0859	78.7077	38.0859	78.6476	38.0859	78.5952	38.0859	78.5236	38.0859	78.4711	38.0859	78.3886	38.0859	78.3382	38.0859	78.2462	38.0859	78.1997	38.0859	78.1004	38.0859	78.0592	38.0859	77.956	38.0859	77.9209	38.0859	77.8184	38.0859	77.7894	38.0859	77.6931	38.0859	77.6698	38.0859	77.5854	38.0859	77.5671	38.0859	77.4998	38.0859	77.4863	38.0859	77.4397	38.0859	77.4313	38.0859	77.4076	38.0859	77.4047
39.5508	80.4476	39.5508	80.4374	39.5508	80.4405	39.5508	80.4103	39.5508	80.4162	39.5508	80.3671	39.5508	80.3749	39.5508	80.3084	39.5508	80.317	39.5508	80.2355	39.5508	80.2437	39.5508	80.1499	39.5508	80.1563	39.5508	80.0531	39.5508	80.0566	39.5508	79.9473	39.5508	79.9468	39.5508	79.8349	39.5508	79.8297	39.5508	79.7187	39.5508	79.7084	39.5508	79.6021	39.5508	79.5866	39.5508	79.4884	39.5508	79.4688	39.5508	79.3817	39.5508	79.3596	39.5508	79.2859	39.5508	79.2635	39.5508	79.205	39.5508	79.1849	39.5508	79.1425	39.5508	79.1275	39.5508	79.1018	39.5508	79.0937	39.5508	79.0851
41.0156	81.1306	41.0156	81.1204	41.0156	81.1248	41.0156	81.0944	41.0156	81.1029	41.0156	81.0531	41.0156	81.0655	41.0156	80.9974	41.0156	81.0133	41.0156	80.9288	41.0156	80.9478	41.0156	80.8487	41.0156	80.8706	41.0156	80.7593	41.0156	80.7838	41.0156	80.663	41.0156	80.69	41.0156	80.5627	41.0156	80.5919	41.0156	80.4618	41.0156	80.4927	41.0156	80.3635	41.0156	80.3954	41.0156	80.2716	41.0156	80.3033	41.0156	80.1894	41.0156	80.2192	41.0156	80.1196	41.0156	80.146	41.0156	80.0646	41.0156	80.0857	41.0156	80.0256	41.0156	80.0403	41.0156	80.0035	41.0156	80.011	41.0156	79.9986
42.4805	81.7454	42.4805	81.743	42.4805	81.7326	42.4805	81.7256	42.4805	81.7048	42.4805	81.6937	42.4805	81.6629	42.4805	81.6482	42.4805	81.6078	42.4805	81.5902	42.4805	81.5411	42.4805	81.5212	42.4805	81.4646	42.4805	81.4431	42.4805	81.3806	42.4805	81.3579	42.4805	81.2918	42.4805	81.2679	42.4805	81.2009	42.4805	81.176	42.4805	81.1107	42.4805	81.085	42.4805	81.0243	42.4805	80.9983	42.4805	80.9444	42.4805	80.9191	42.4805	80.8736	42.4805	80.8502	42.4805	80.8139	42.4805	80.794	42.4805	80.7671	42.4805	80.7519	42.4805	80.7342	42.4805	80.7248	42.4805	80.716	42.4805	80.7128
43.9453	82.2288	43.9453	82.2223	43.9453	82.2186	43.9453	82.1995	43.9453	82.1921	43.9453	82.1612	43.9453	82.1495	43.9453	82.1083	43.9453	82.0919	43.9453	82.0424	43.9453	82.0206	43.9453	81.9652	43.9453	81.9376	43.9453	81.8789	43.9453	81.845	43.9453	81.7861	43.9453	81.7458	43.9453	81.6894	43.9453	81.643	43.9453	81.5916	43.9453	81.54	43.9453	81.4956	43.9453	81.4405	43.9453	81.4042	43.9453	81.348	43.9453	81.3201	43.9453	81.2658	43.9453	81.2457	43.9453	81.1966	43.9453	81.1832	43.9453	81.1429	43.9453	81.1347	43.9453	81.106	43.9453	81.1017	43.9453	81.0868	43.9453	81.0855
45.4102	82.8051	45.4102	82.7986	45.4102	82.7953	45.4102	82.7761	45.4102	82.7694	45.4102	82.7384	45.4102	82.7278	45.4102	82.6864	45.4102	82.6714	45.4102	82.6216	45.4102	82.6015	45.4102	82.5457	45.4102	82.5198	45.4102	82.4606	45.4102	82.4285	45.4102	82.3687	45.4102	82.3301	45.4102	82.2723	45.4102	82.2275	45.4102	82.1741	45.4102	82.1241	45.4102	82.0769	45.4102	82.0234	45.4102	81.9836	45.4102	81.929	45.4102	81.897	45.4102	81.8443	45.4102	81.8198	45.4102	81.7724	45.4102	81.7547	45.4102	81.7157	45.4102	81.704	45.4102	81.6763	45.4102	81.6696	45.4102	81.6552	45.4102	81.653
46.875	83.1305	46.875	83.1217	46.875	83.1243	46.875	83.0983	46.875	83.1032	46.875	83.0608	46.875	83.0677	46.875	83.0103	46.875	83.0187	46.875	82.948	46.875	82.9575	46.875	82.8758	46.875	82.8857	46.875	82.7958	46.875	82.8055	46.875	82.7104	46.875	82.7191	46.875	82.6224	46.875	82.6293	46.875	82.5344	46.875	82.5388	46.875	82.4492	46.875	82.4505	46.875	82.3693	46.875	82.3673	46.875	82.2968	46.875	82.292	46.875	82.2338	46.875	82.227	46.875	82.1819	46.875	82.1746	46.875	82.1427	46.875	82.1366	46.875	82.1176	46.875	82.1141	46.875	82.1078
48.3398	83.4779	48.3398	83.4698	48.3398	83.4717	48.3398	83.4474	48.3398	83.4513	48.3398	83.4115	48.3398	83.4176	48.3398	83.3632	48.3398	83.3717	48.3398	83.3041	48.3398	83.3154	48.3398	83.2361	48.3398	83.2508	48.3398	83.1619	48.3398	83.1804	48.3398	83.084	48.3398	83.1067	48.3398	83.0054	48.3398	83.0324	48.3398	82.9291	48.3398	82.9602	48.3398	82.8578	48.3398	82.8921	48.3398	82.7938	48.3398	82.8298	48.3398	82.7391	48.3398	82.7745	48.3398	82.6948	48.3398	82.7271	48.3398	82.6616	48.3398	82.6882	48.3398	82.6395	48.3398	82.6585	48.3398	82.6285	48.3398	82.6383	48.3398	82.6282
51.2695	84.313	51.2695	84.3131	51.2695	84.2944	51.2695	84.2949	51.2695	84.2574	51.2695	84.2593	51.2695	84.203	51.2695	84.2075	51.2695	84.1327	51.2695	84.1415	51.2695	84.0485	51.2695	84.0637	51.2695	83.9531	51.2695	83.9767	51.2695	83.85	51.2695	83.8836	51.2695	83.743	51.2695	83.7876	51.2695	83.6363	51.2695	83.6922	51.2695	83.5345	51.2695	83.6005	51.2695	83.4419	51.2695	83.5152	51.2695	83.3621	51.2695	83.4386	51.2695	83.2977	51.2695	83.3719	51.2695	83.2501	51.2695	83.316	51.2695	83.2191	51.2695	83.2709	51.2695	83.2037	51.2695	83.2368	51.2695	83.2023	51.2695	83.2137
52.7344	84.7032	52.7344	84.704	52.7344	84.6821	52.7344	84.6848	52.7344	84.641	52.7344	84.6462	52.7344	84.5804	52.7344	84.5895	52.7344	84.5016	52.7344	84.5166	52.7344	84.4064	52.7344	84.4296	52.7344	84.2972	52.7344	84.3313	52.7344	84.1773	52.7344	84.225	52.7344	84.0505	52.7344	84.1142	52.7344	83.9214	52.7344	84.0024	52.7344	83.7953	52.7344	83.8933	52.7344	83.6778	52.7344	83.7899	52.7344	83.5743	52.7344	83.695	52.7344	83.4894	52.7344	83.6103	52.7344	83.4264	52.7344	83.5371	52.7344	83.3865	52.7344	83.4759	52.7344	83.3691	52.7344	83.4274	52.7344	83.3719	52.7344	83.3922
54.1992	85.0789	54.1992	85.0734	54.1992	85.0641	54.1992	85.0479	54.1992	85.0289	54.1992	85.0033	54.1992	84.974	54.1992	84.9406	54.1992	84.9002	54.1992	84.8618	54.1992	84.809	54.1992	84.7688	54.1992	84.7023	54.1992	84.6641	54.1992	84.5828	54.1992	84.5504	54.1992	84.4537	54.1992	84.4307	54.1992	84.3188	54.1992	84.308	54.1992	84.1826	54.1992	84.1855	54.1992	84.0499	54.1992	84.0664	54.1992	83.9259	54.1992	83.9538	54.1992	83.8155	54.1992	83.8508	54.1992	83.7235	54.1992	83.7605	54.1992	83.6537	54.1992	83.6862	54.1992	83.6089	54.1992	83.6312	54.1992	83.5906	54.1992	83.5985
55.6641	85.3768	55.6641	85.3602	55.6641	85.3732	55.6641	85.3242	55.6641	85.3495	55.6641	85.2699	55.6641	85.306	55.6641	85.199	55.6641	85.2438	55.6641	85.1137	55.6641	85.1644	55.6641	85.0165	55.6641	85.0698	55.6641	84.9105	55.6641	84.9627	55.6641	84.7987	55.6641	84.8462	55.6641	84.6844	55.6641	84.7242	55.6641	84.5707	55.6641	84.6005	55.6641	84.4608	55.6641	84.4793	55.6641	84.3573	55.6641	84.3648	55.6641	84.2629	55.6641	84.2611	55.6641	84.18	55.6641	84.1716	55.6641	84.111	55.6641	84.0997	55.6641	84.058	55.6641	84.0477	55.6641	84.0235	55.6641	84.0174	55.6641	84.0095
58.5938	85.8449	58.5938	85.8299	58.5938	85.8417	58.5938	85.7973	58.5938	85.8204	58.5938	85.7483	58.5938	85.7816	58.5938	85.6843	58.5938	85.7262	58.5938	85.6075	58.5938	85.6558	58.5938	85.5203	58.5938	85.5726	58.5938	85.4259	58.5938	85.4792	58.5938	85.3271	58.5938	85.3785	58.5938	85.2272	58.5938	85.274	58.5938	85.1294	58.5938	85.1693	58.5938	85.0362	58.5938	85.0679	58.5938	84.9504	58.5938	84.9732	58.5938	84.8739	58.5938	84.8885	58.5938	84.8086	58.5938	84.8163	58.5938	84.7559	58.5938	84.7588	58.5938	84.717	58.5938	84.7172	58.5938	84.6929	58.5938	84.6924	58.5938	84.6844
60.0586	86.0704	60.0586	86.0567	60.0586	86.0662	60.0586	86.0254	60.0586	86.044	60.0586	85.9777	60.0586	86.0045	60.0586	85.9152	60.0586	85.949	60.0586	85.84	60.0586	85.8793	60.0586	85.755	60.0586	85.7976	60.0586	85.6631	60.0586	85.7067	60.0586	85.5677	60.0586	85.6098	60.0586	85.4723	60.0586	85.5105	60.0586	85.3799	60.0586	85.4122	60.0586	85.2935	60.0586	85.3187	60.0586	85.2155	60.0586	85.2331	60.0586	85.1477	60.0586	85.1581	60.0586	85.0912	60.0586	85.0957	60.0586	85.0467	60.0586	85.0473	60.0586	85.0143	60.0586	85.0132	60.0586	84.9945	60.0586	84.9934	60.0586	84.9873
62.9883	86.6195	62.9883	86.605	62.9883	86.6151	62.9883	86.5721	62.9883	86.5918	62.9883	86.522	62.9883	86.5503	62.9883	86.4567	62.9883	86.492	62.9883	86.3786	62.9883	86.4188	62.9883	86.2907	62.9883	86.3333	62.9883	86.1963	62.9883	86.2385	62.9883	86.0989	62.9883	86.1381	62.9883	86.0021	62.9883	86.0358	62.9883	85.9093	62.9883	85.9356	62.9883	85.8233	62.9883	85.8411	62.9883	85.7464	62.9883	85.7557	62.9883	85.6802	62.9883	85.682	62.9883	85.6253	62.9883	85.6218	62.9883	85.5822	62.9883	85.576	62.9883	85.5507	62.9883	85.5446	62.9883	85.5309	62.9883	85.5272	62.9883	85.5229
64.4531	86.787	64.4531	86.7701	64.4531	86.7846	64.4531	86.7346	64.4531	86.7631	64.4531	86.6819	64.4531	86.7232	64.4531	86.6138	64.4531	86.6663	64.4531	86.5331	64.4531	86.5943	64.4531	86.4428	64.4531	86.51	64.4531	86.3466	64.4531	86.4165	64.4531	86.2482	64.4531	86.3176	64.4531	86.1514	64.4531	86.217	64.4531	86.0599	64.4531	86.1188	64.4531	85.9765	64.4531	86.0264	64.4531	85.9034	64.4531	85.9433	64.4531	85.8421	64.4531	85.8717	64.4531	85.793	64.4531	85.8133	64.4531	85.7558	64.4531	85.7685	64.4531	85.7301	64.4531	85.7371	64.4531	85.7154	64.4531	85.7184	64.4531	85.7114
67.3828	87.1361	67.3828	87.1155	67.3828	87.1365	67.3828	87.0755	67.3828	87.1168	67.3828	87.0175	67.3828	87.0778	67.3828	86.9435	67.3828	87.0209	67.3828	86.8565	67.3828	86.9484	67.3828	86.76	67.3828	86.8631	67.3828	86.6581	67.3828	86.7684	67.3828	86.5548	67.3828	86.6682	67.3828	86.4546	67.3828	86.5666	67.3828	86.3614	67.3828	86.4675	67.3828	86.2783	67.3828	86.3748	67.3828	86.2077	67.3828	86.2916	67.3828	86.1506	67.3828	86.2201	67.3828	86.1071	67.3828	86.1616	67.3828	86.0766	67.3828	86.1162	67.3828	86.0578	67.3828	86.0834	67.3828	86.0495	67.3828	86.062	67.3828	86.0509
68.8477	87.2873	68.8477	87.2646	68.8477	87.2892	68.8477	87.2218	68.8477	87.2702	68.8477	87.1601	68.8477	87.2313	68.8477	87.082	68.8477	87.174	68.8477	86.9904	68.8477	87.1005	68.8477	86.8891	68.8477	87.0139	68.8477	86.7822	68.8477	86.9177	68.8477	86.6745	68.8477	86.816	68.8477	86.5707	68.8477	86.713	68.8477	86.4751	68.8477	86.613	68.8477	86.3913	68.8477	86.5198	68.8477	86.3215	68.8477	86.4365	68.8477	86.2671	68.8477	86.3652	68.8477	86.2277	68.8477	86.3069	68.8477	86.2021	68.8477	86.2614	68.8477	86.1885	68.8477	86.2278	68.8477	86.1851	68.8477	86.2046	68.8477	86.1906
71.7773	87.6332	71.7773	87.6088	71.7773	87.6356	71.7773	87.5628	71.7773	87.6162	71.7773	87.4966	71.7773	87.5759	71.7773	87.4125	71.7773	87.5165	71.7773	87.3135	71.7773	87.4404	71.7773	87.2034	71.7773	87.3508	71.7773	87.0868	71.7773	87.2512	71.7773	86.9689	71.7773	87.1457	71.7773	86.8548	71.7773	87.0387	71.7773	86.7496	71.7773	86.9344	71.7773	86.6575	71.7773	86.8366	71.7773	86.5818	71.7773	86.7485	71.7773	86.5238	71.7773	86.6719	71.7773	86.4836	71.7773	86.608	71.7773	86.4598	71.7773	86.5563	71.7773	86.4502	71.7773	86.5159	71.7773	86.4523	71.7773	86.4856	71.7773	86.4645
74.707	87.9801	74.707	87.9585	74.707	87.9798	74.707	87.9154	74.707	87.9578	74.707	87.8519	74.707	87.9156	74.707	87.7702	74.707	87.8548	74.707	87.6732	74.707	87.7783	74.707	87.5646	74.707	87.6893	74.707	87.4489	74.707	87.5914	74.707	87.331	74.707	87.4888	74.707	87.2162	74.707	87.3856	74.707	87.1097	74.707	87.2856	74.707	87.0158	74.707	87.1922	74.707	86.938	74.707	87.108	74.707	86.8783	74.707	87.0345	74.707	86.837	74.707	86.9723	74.707	86.8131	74.707	86.9208	74.707	86.8044	74.707	86.8793	74.707	86.8085	74.707	86.8469	74.707	86.8231
77.6367	88.1299	77.6367	88.115	77.6367	88.1224	77.6367	88.0781	77.6367	88.093	77.6367	88.0203	77.6367	88.0433	77.6367	87.9437	77.6367	87.9756	77.6367	87.8514	77.6367	87.8929	77.6367	87.7471	77.6367	87.7991	77.6367	87.6355	77.6367	87.6985	77.6367	87.5215	77.6367	87.5956	77.6367	87.4105	77.6367	87.4951	77.6367	87.3077	77.6367	87.4009	77.6367	87.2174	77.6367	87.3164	77.6367	87.143	77.6367	87.2434	77.6367	87.0861	77.6367	87.1829	77.6367	87.047	77.6367	87.1343	77.6367	87.0242	77.6367	87.0961	77.6367	87.0152	77.6367	87.0665	77.6367	87.017	77.6367	87.0438	77.6367	87.0271
79.1016	88.1938	79.1016	88.1814	79.1016	88.1834	79.1016	88.1466	79.1016	88.1508	79.1016	88.0908	79.1016	88.0976	79.1016	88.016	79.1016	88.0262	79.1016	87.9254	79.1016	87.9398	79.1016	87.8229	79.1016	87.8427	79.1016	87.7132	79.1016	87.7394	79.1016	87.6014	79.1016	87.6349	79.1016	87.4929	79.1016	87.534	79.1016	87.3927	79.1016	87.4411	79.1016	87.3053	79.1016	87.3595	79.1016	87.2337	79.1016	87.2912	79.1016	87.1793	79.1016	87.2368	79.1016	87.1419	79.1016	87.1952	79.1016	87.1197	79.1016	87.1646	79.1016	87.1099	79.1016	87.1424	79.1016	87.1093	79.1016	87.1264	79.1016	87.1153
82.0312	88.3909	82.0312	88.3818	82.0312	88.3765	82.0312	88.3495	82.0312	88.3391	82.0312	88.2956	82.0312	88.2803	82.0312	88.2224	82.0312	88.2025	82.0312	88.1331	82.0312	88.1094	82.0312	88.0319	82.0312	88.0053	82.0312	87.9235	82.0312	87.8954	82.0312	87.8132	82.0312	87.7853	82.0312	87.7065	82.0312	87.6803	82.0312	87.6082	82.0312	87.5853	82.0312	87.5227	82.0312	87.5041	82.0312	87.4526	82.0312	87.439	82.0312	87.3991	82.0312	87.3903	82.0312	87.3616	82.0312	87.3569	82.0312	87.3377	82.0312	87.3361	82.0312	87.3244	82.0312	87.3244	82.0312	87.3183	82.0312	87.3187	82.0312	87.3169
84.9609	88.5037	84.9609	88.4923	84.9609	88.4902	84.9609	88.4567	84.9609	88.4525	84.9609	88.3983	84.9609	88.3922	84.9609	88.3197	84.9609	88.3117	84.9609	88.2245	84.9609	88.2147	84.9609	88.1171	84.9609	88.1058	84.9609	88.0027	84.9609	87.9904	84.9609	87.887	84.9609	87.8741	84.9609	87.7758	84.9609	87.7628	84.9609	87.6744	84.9609	87.6618	84.9609	87.5871	84.9609	87.5753	84.9609	87.5164	84.9609	87.5059	84.9609	87.4631	84.9609	87.4541	84.9609	87.426	84.9609	87.4188	84.9609	87.4024	84.9609	87.397	84.9609	87.3889	84.9609	87.3853	84.9609	87.3821	84.9609	87.3803	84.9609	87.3795
87.8906	88.4597	87.8906	88.4499	87.8906	88.4447	87.8906	88.4157	87.8906	88.4054	87.8906	88.3585	87.8906	88.3436	87.8906	88.2811	87.8906	88.2623	87.8906	88.1872	87.8906	88.1654	87.8906	88.0814	87.8906	88.0577	87.8906	87.9693	87.8906	87.945	87.8906	87.8567	87.8906	87.8331	87.8906	87.7499	87.8906	87.728	87.8906	87.6541	87.8906	87.6349	87.8906	87.5736	87.8906	87.5576	87.8906	87.5109	87.8906	87.4982	87.8906	87.4661	87.8906	87.4566	87.8906	87.4375	87.8906	87.4307	87.8906	87.4217	87.8906	87.4171	87.8906	87.4143	87.8906	87.4116	87.8906	87.4116	87.8906	87.4103	87.8906	87.4106
90.8203	88.4682	90.8203	88.4567	90.8203	88.4543	90.8203	88.4204	90.8203	88.4156	90.8203	88.3611	90.8203	88.3538	90.8203	88.2816	90.8203	88.2718	90.8203	88.1858	90.8203	88.1735	90.8203	88.0786	90.8203	88.064	90.8203	87.9656	90.8203	87.9491	90.8203	87.8529	90.8203	87.8351	90.8203	87.7466	90.8203	87.7281	90.8203	87.6521	90.8203	87.6338	90.8203	87.5736	90.8203	87.5562	90.8203	87.5132	90.8203	87.4973	90.8203	87.471	90.8203	87.4572	90.8203	87.4449	90.8203	87.4334	90.8203	87.4311	90.8203	87.4222	90.8203	87.4251	90.8203	87.4191	90.8203	87.4229	90.8203	87.4198	90.8203	87.4215
95.2148	88.4251	95.2148	88.4169	95.2148	88.4058	95.2148	88.3816	95.2148	88.3597	95.2148	88.3212	95.2148	88.2892	95.2148	88.2391	95.2148	88.1978	95.2148	88.1397	95.2148	88.0905	95.2148	88.0289	95.2148	87.9736	95.2148	87.9133	95.2148	87.8541	95.2148	87.8	95.2148	87.7395	95.2148	87.6959	95.2148	87.6366	95.2148	87.6071	95.2148	87.5515	95.2148	87.5375	95.2148	87.4878	95.2148	87.4891	95.2148	87.4467	95.2148	87.4608	95.2148	87.4264	95.2148	87.449	95.2148	87.4227	95.2148	87.4484	95.2148	87.4297	95.2148	87.4529	95.2148	87.4411	95.2148	87.4572	95.2148	87.4515	95.2148	87.4572
98.1445	88.3498	98.1445	88.3445	98.1445	88.3249	98.1445	88.3097	98.1445	88.2709	98.1445	88.2473	98.1445	88.1902	98.1445	88.161	98.1445	88.0866	98.1445	88.0555	98.1445	87.9658	98.1445	87.9373	98.1445	87.8346	98.1445	87.8135	98.1445	87.701	98.1445	87.6922	98.1445	87.5736	98.1445	87.5811	98.1445	87.4604	98.1445	87.4869	98.1445	87.3683	98.1445	87.414	98.1445	87.3015	98.1445	87.3641	98.1445	87.2613	98.1445	87.3356	98.1445	87.2454	98.1445	87.3239	98.1445	87.2488	98.1445	87.3227	98.1445	87.2645	98.1445	87.3251	98.1445	87.2854	98.1445	87.3251	98.1445	87.3049	98.1445	87.3188
101.074	88.2306	101.074	88.2291	101.074	88.1993	101.074	88.1954	101.074	88.1357	101.074	88.1321	101.074	88.0422	101.074	88.0429	101.074	87.9226	101.074	87.933	101.074	87.7826	101.074	87.809	101.074	87.6296	101.074	87.6786	101.074	87.4727	101.074	87.5502	101.074	87.3218	101.074	87.4318	101.074	87.1871	101.074	87.3304	101.074	87.0773	101.074	87.2506	101.074	86.9988	101.074	87.1939	101.074	86.9537	101.074	87.1584	101.074	86.9401	101.074	87.1389	101.074	86.9519	101.074	87.1286	101.074	86.9808	101.074	87.1199	101.074	87.0176	101.074	87.1066	101.074	87.0542	101.074	87.0848
105.469	88.4574	105.469	88.4308	105.469	88.447	105.469	88.3681	105.469	88.4	105.469	88.2718	105.469	88.3181	105.469	88.1456	105.469	88.2042	105.469	87.9949	105.469	88.0629	105.469	87.8266	105.469	87.9005	105.469	87.6495	105.469	87.7245	105.469	87.473	105.469	87.5443	105.469	87.3073	105.469	87.3697	105.469	87.1615	105.469	87.211	105.469	87.0427	105.469	87.0766	105.469	86.9542	105.469	86.9725	105.469	86.8956	105.469	86.9004	105.469	86.8624	105.469	86.8578	105.469	86.8476	105.469	86.8384	105.469	86.8433	105.469	86.8342	105.469	86.8424	105.469	86.8369	105.469	86.8406
108.398	88.5781	108.398	88.5605	108.398	88.5596	108.398	88.5071	108.398	88.5061	108.398	88.4199	108.398	88.4197	108.398	88.3022	108.398	88.3043	108.398	88.1588	108.398	88.165	108.398	87.9965	108.398	88.0086	108.398	87.8238	108.398	87.843	108.398	87.6505	108.398	87.677	108.398	87.4866	108.398	87.5198	108.398	87.3417	108.398	87.3795	108.398	87.2232	108.398	87.2627	108.398	87.135	108.398	87.1731	108.398	87.0769	108.398	87.1111	108.398	87.0449	108.398	87.0733	108.398	87.0324	108.398	87.0541	108.398	87.0317	108.398	87.0463	108.398	87.036	108.398	87.0433	108.398	87.0404
112.793	88.5634	112.793	88.5502	112.793	88.54	112.793	88.5012	112.793	88.4807	112.793	88.4185	112.793	88.3879	112.793	88.3056	112.793	88.2652	112.793	88.1677	112.793	88.1182	112.793	88.0112	112.793	87.954	112.793	87.8443	112.793	87.7811	112.793	87.676	112.793	87.609	112.793	87.5163	112.793	87.4478	112.793	87.3742	112.793	87.3065	112.793	87.2572	112.793	87.1923	112.793	87.1694	112.793	87.109	112.793	87.1108	112.793	87.0563	112.793	87.0772	112.793	87.0303	112.793	87.0616	112.793	87.0241	112.793	87.056	112.793	87.0297	112.793	87.0531	112.793	87.0395	112.793	87.048
117.188	88.4033	117.188	88.3817	117.188	88.3868	117.188	88.3229	117.188	88.3326	117.188	88.2296	117.188	88.2428	117.188	88.1058	117.188	88.1212	117.188	87.9572	117.188	87.9733	117.188	87.7913	117.188	87.8066	117.188	87.6171	117.188	87.6299	117.188	87.445	117.188	87.4535	117.188	87.2854	117.188	87.2877	117.188	87.1478	117.188	87.1422	117.188	87.0391	117.188	87.0242	117.188	86.9619	117.188	86.9374	117.188	86.9144	117.188	86.8817	117.188	86.8905	117.188	86.8531	117.188	86.8817	117.188	86.8451	117.188	86.8794	117.188	86.8501	117.188	86.8769	117.188	86.8605	117.188	86.8706
120.117	88.4516	120.117	88.4283	120.117	88.435	120.117	88.3662	120.117	88.3787	120.117	88.2675	120.117	88.2848	120.117	88.1364	120.117	88.1567	120.117	87.9782	120.117	88	120.117	87.8004	120.117	87.8221	120.117	87.612	120.117	87.6325	120.117	87.4237	120.117	87.4426	120.117	87.247	120.117	87.2642	120.117	87.0928	120.117	87.1085	120.117	86.97	120.117	86.9843	120.117	86.8833	120.117	86.896	120.117	86.8321	120.117	86.8426	120.117	86.8107	120.117	86.8186	120.117	86.8098	120.117	86.815	120.117	86.8187	120.117	86.8216	120.117	86.8284	120.117	86.8295	120.117	86.8326
124.512	88.542	124.512	88.5071	124.512	88.5378	124.512	88.4341	124.512	88.4947	124.512	88.3256	124.512	88.4147	124.512	88.1862	124.512	88.3014	124.512	88.0219	124.512	88.1598	124.512	87.8411	124.512	87.9967	124.512	87.6536	124.512	87.8208	124.512	87.4705	124.512	87.6419	124.512	87.3032	124.512	87.4708	124.512	87.1618	124.512	87.3179	124.512	87.0537	124.512	87.192	124.512	86.9821	124.512	87.0983	124.512	86.9453	124.512	87.0378	124.512	86.9369	124.512	87.0064	124.512	86.9474	124.512	86.9962	124.512	86.9664	124.512	86.9971	124.512	86.9848	124.512	86.9996	124.512	86.9965
128.906	88.3557	128.906	88.3219	128.906	88.3489	128.906	88.2478	128.906	88.3027	128.906	88.1356	128.906	88.2199	128.906	87.9895	128.906	88.1052	128.906	87.8159	128.906	87.9647	128.906	87.6236	128.906	87.8065	128.906	87.4237	128.906	87.6399	128.906	87.2294	128.906	87.4752	128.906	87.0544	128.906	87.3228	128.906	86.9114	128.906	87.192	128.906	86.8095	128.906	87.0892	128.906	86.7523	128.906	87.0171	128.906	86.7368	128.906	86.9737	128.906	86.7543	128.906	86.9529	128.906	86.7927	128.906	86.9459	128.906	86.839	128.906	86.9427	128.906	86.8821	128.906	86.9343	128.906	86.9148
133.301	88.2142	133.301	88.1997	133.301	88.186	133.301	88.1426	133.301	88.1166	133.301	88.0448	133.301	88.0095	133.301	87.9103	133.301	87.8701	133.301	87.7449	133.301	87.7059	133.301	87.5568	133.301	87.5266	133.301	87.3567	133.301	87.3438	133.301	87.1576	133.301	87.1702	133.301	86.9738	133.301	87.0181	133.301	86.8193	133.301	86.8978	133.301	86.7053	133.301	86.8155	133.301	86.6378	133.301	86.7715	133.301	86.6159	133.301	86.7605	133.301	86.6316	133.301	86.7722	133.301	86.6723	133.301	86.7938	133.301	86.7232	133.301	86.8123	133.301	86.7705	133.301	86.8176	133.301	86.8037
139.16	87.985	139.16	87.9802	139.16	87.9439	139.16	87.9305	139.16	87.857	139.16	87.8388	139.16	87.7268	139.16	87.7095	139.16	87.5575	139.16	87.5485	139.16	87.3562	139.16	87.3639	139.16	87.1326	139.16	87.1655	139.16	86.8996	139.16	86.9652	139.16	86.673	139.16	86.776	139.16	86.47	139.16	86.6112	139.16	86.3066	139.16	86.4813	139.16	86.1948	139.16	86.3925	139.16	86.1388	139.16	86.3446	139.16	86.1339	139.16	86.3306	139.16	86.1674	139.16	86.3383	139.16	86.2219	139.16	86.3535	139.16	86.2799	139.16	86.3625	139.16	86.3272	139.16	86.3553
143.555	87.7484	143.555	87.7226	143.555	87.7263	143.555	87.6505	143.555	87.6567	143.555	87.5353	143.555	87.5415	143.555	87.3825	143.555	87.3845	143.555	87.1993	143.555	87.1916	143.555	86.9957	143.555	86.9714	143.555	86.7835	143.555	86.7352	143.555	86.5762	143.555	86.4971	143.555	86.3876	143.555	86.2736	143.555	86.2302	143.555	86.0817	143.555	86.113	143.555	85.9361	143.555	86.0392	143.555	85.8458	143.555	86.0053	143.555	85.8115	143.555	86.0017	143.555	85.8245	143.555	86.0145	143.555	85.8691	143.555	86.0291	143.555	85.9266	143.555	86.0328	143.555	85.9799	143.555	86.017
147.949	87.3859	147.949	87.3488	147.949	87.3746	147.949	87.2644	147.949	87.3157	147.949	87.1357	147.949	87.2118	147.949	86.9681	147.949	87.0674	147.949	86.7695	147.949	86.8891	147.949	86.5505	147.949	86.6859	147.949	86.3246	147.949	86.4694	147.949	86.1076	147.949	86.2532	147.949	85.9158	147.949	86.0525	147.949	85.7638	147.949	85.8818	147.949	85.6614	147.949	85.7528	147.949	85.6108	147.949	85.6717	147.949	85.6057	147.949	85.6374	147.949	85.633	147.949	85.6417	147.949	85.6759	147.949	85.6706	147.949	85.7181	147.949	85.7083	147.949	85.7468	147.949	85.7399	147.949	85.7545
153.809	87.2741	153.809	87.2396	153.809	87.2535	153.809	87.1514	153.809	87.1787	153.809	87.0126	153.809	87.0523	153.809	86.8283	153.809	86.8795	153.809	86.606	153.809	86.6678	153.809	86.3559	153.809	86.428	153.809	86.0913	153.809	86.1738	153.809	85.8293	153.809	85.9224	153.809	85.5898	153.809	85.6929	153.809	85.3932	153.809	85.5038	153.809	85.2559	153.809	85.3692	153.809	85.1857	153.809	85.2948	153.809	85.1782	153.809	85.276	153.809	85.2181	153.809	85.2988	153.809	85.2833	153.809	85.3438	153.809	85.3511	153.809	85.3907	153.809	85.4033	153.809	85.4227	153.809	85.4283
159.668	87.1846	159.668	87.1492	159.668	87.165	159.668	87.0602	159.668	87.0908	159.668	86.9211	159.668	86.9644	159.668	86.7376	159.668	86.7901	159.668	86.5177	159.668	86.5746	159.668	86.2713	159.668	86.327	159.668	86.0108	159.668	86.0598	159.668	85.7506	159.668	85.7887	159.668	85.5072	159.668	85.5328	159.668	85.2979	159.668	85.3122	159.668	85.1389	159.668	85.1452	159.668	85.0409	159.668	85.0431	159.668	85.0055	159.668	85.0064	159.668	85.0226	159.668	85.0235	159.668	85.0727	159.668	85.0736	159.668	85.1318	159.668	85.1323	159.668	85.1774	159.668	85.1777	159.668	85.1945
165.527	86.7609	165.527	86.7264	165.527	86.7347	165.527	86.6324	165.527	86.6486	165.527	86.4826	165.527	86.5052	165.527	86.2832	165.527	86.3097	165.527	86.0439	165.527	86.0701	165.527	85.7778	165.527	85.7977	165.527	85.5016	165.527	85.5077	165.527	85.2346	165.527	85.2189	165.527	84.9964	165.527	84.9531	165.527	84.8047	165.527	84.7321	165.527	84.6715	165.527	84.5735	165.527	84.6013	165.527	84.4867	165.527	84.5888	165.527	84.4694	165.527	84.6201	165.527	84.5078	165.527	84.6745	165.527	84.5802	165.527	84.7293	165.527	84.6614	165.527	84.7639	165.527	84.7285	165.527	84.7649
171.387	86.3282	171.387	86.267	171.387	86.3304	171.387	86.1485	171.387	86.2725	171.387	85.9759	171.387	86.155	171.387	85.754	171.387	85.9799	171.387	85.4901	171.387	85.7513	171.387	85.1952	171.387	85.4767	171.387	84.8853	171.387	85.1678	171.387	84.5815	171.387	84.8417	171.387	84.3086	171.387	84.5217	171.387	84.0908	171.387	84.2351	171.387	83.9462	171.387	84.0089	171.387	83.8799	171.387	83.8623	171.387	83.8818	171.387	83.7997	171.387	83.9291	171.387	83.809	171.387	83.9933	171.387	83.8664	171.387	84.048	171.387	83.9439	171.387	84.0741	171.387	84.0158	171.387	84.0629
177.246	85.7128	177.246	85.6517	177.246	85.7148	177.246	85.5308	177.246	85.6598	177.246	85.3518	177.246	85.5517	177.246	85.1183	177.246	85.396	177.246	84.8376	177.246	85.2	177.246	84.5211	177.246	84.9729	177.246	84.1854	177.246	84.726	177.246	83.8533	177.246	84.4732	177.246	83.5525	177.246	84.2304	177.246	83.3122	177.246	84.0152	177.246	83.1566	177.246	83.8441	177.246	83.0969	177.246	83.7285	177.246	83.1268	177.246	83.6708	177.246	83.2239	177.246	83.6613	177.246	83.3561	177.246	83.6807	177.246	83.4913	177.246	83.7043	177.246	83.6037	177.246	83.7088	177.246	83.6776
183.105	85.1618	183.105	85.1285	183.105	85.1331	183.105	85.0339	183.105	85.0434	183.105	84.8805	183.105	84.8958	183.105	84.6729	183.105	84.6963	183.105	84.4186	183.105	84.4541	183.105	84.1298	183.105	84.1831	183.105	83.824	183.105	83.901	183.105	83.5241	183.105	83.6295	183.105	83.2571	183.105	83.3918	183.105	83.0497	183.105	83.2093	183.105	82.9217	183.105	83.0968	183.105	82.8802	183.105	83.0575	183.105	82.9163	183.105	83.0818	183.105	83.0078	183.105	83.1493	183.105	83.1248	183.105	83.2344	183.105	83.2378	183.105	83.3114	183.105	83.3229	183.105	83.3596	183.105	83.365
188.965	85.6864	188.965	85.6478	188.965	85.6505	188.965	85.5348	188.965	85.5405	188.965	85.3492	188.965	85.3584	188.965	85.094	188.965	85.1082	188.965	84.7759	188.965	84.7979	188.965	84.4063	188.965	84.4404	188.965	84.0047	188.965	84.0563	188.965	83.6008	188.965	83.6745	188.965	83.2342	188.965	83.3308	188.965	82.9493	188.965	83.0628	188.965	82.782	188.965	82.899	188.965	82.745	188.965	82.8481	188.965	82.8202	188.965	82.895	188.965	82.9653	188.965	83.0063	188.965	83.1304	188.965	83.1428	188.965	83.2729	188.965	83.2691	188.965	83.3649	188.965	83.3585	188.965	83.3936
196.289	87.0947	196.289	87.0675	196.289	87.0529	196.289	86.9721	196.289	86.9417	196.289	86.8094	196.289	86.7612	196.289	86.5807	196.289	86.5132	196.289	86.2886	196.289	86.2018	196.289	85.9382	196.289	85.8353	196.289	85.5398	196.289	85.428	196.289	85.1114	196.289	85.0031	196.289	84.6815	196.289	84.5936	196.289	84.2892	196.289	84.2409	196.289	83.9786	196.289	83.9862	196.289	83.787	196.289	83.8562	196.289	83.7287	196.289	83.8488	196.289	83.786	196.289	83.9322	196.289	83.9156	196.289	84.057	196.289	84.0644	196.289	84.1737	196.289	84.1863	196.289	84.2453	196.289	84.2509
203.613	87.5664	203.613	87.5314	203.613	87.5365	203.613	87.4321	203.613	87.4417	203.613	87.2697	203.613	87.2827	203.613	87.0462	203.613	87.0611	203.613	86.7647	203.613	86.7799	203.613	86.4305	203.613	86.4445	203.613	86.0528	203.613	86.0649	203.613	85.6478	203.613	85.6569	203.613	85.2411	203.613	85.2453	203.613	84.8677	203.613	84.8641	203.613	84.5661	203.613	84.5543	203.613	84.3676	203.613	84.3525	203.613	84.2834	203.613	84.2752	203.613	84.2998	203.613	84.3068	203.613	84.3821	203.613	84.4041	203.613	84.4872	203.613	84.514	203.613	84.5743	203.613	84.5924	203.613	84.6141
210.938	87.6297	210.938	87.5679	210.938	87.6217	210.938	87.4389	210.938	87.5421	210.938	87.2459	210.938	87.3906	210.938	86.9925	210.938	87.1685	210.938	86.6834	210.938	86.88	210.938	86.3257	210.938	86.5326	210.938	85.9317	210.938	86.1398	210.938	85.5219	210.938	85.7222	210.938	85.1278	210.938	85.3099	210.938	84.791	210.938	84.9412	210.938	84.5532	210.938	84.6577	210.938	84.4412	210.938	84.4934	210.938	84.4524	210.938	84.4599	210.938	84.5555	210.938	84.5378	210.938	84.7036	210.938	84.6811	210.938	84.849	210.938	84.8333	210.938	84.9527	210.938	84.9457	210.938	84.9884
218.262	87.9868	218.262	87.9377	218.262	87.9687	218.262	87.8221	218.262	87.8836	218.262	87.6417	218.262	87.7327	218.262	87.3988	218.262	87.5186	218.262	87.0969	218.262	87.245	218.262	86.7412	218.262	86.9174	218.262	86.34	218.262	86.5445	218.262	85.9073	218.262	86.1398	218.262	85.4664	218.262	85.7229	218.262	85.052	218.262	85.3207	218.262	84.707	218.262	84.9661	218.262	84.4716	218.262	84.6938	218.262	84.3662	218.262	84.5314	218.262	84.3801	218.262	84.4855	218.262	84.4741	218.262	84.5332	218.262	84.5957	218.262	84.6258	218.262	84.6948	218.262	84.7076	218.262	84.736
225.586	88.2225	225.586	88.2002	225.586	88.1652	225.586	88.0965	225.586	88.0325	225.586	87.9125	225.586	87.8307	225.586	87.6525	225.586	87.5677	225.586	87.324	225.586	87.2536	225.586	86.9385	225.586	86.901	225.586	86.5121	225.586	86.5269	225.586	86.068	225.586	86.1546	225.586	85.6383	225.586	85.8142	225.586	85.2654	225.586	85.5382	225.586	84.9951	225.586	85.3529	225.586	84.8618	225.586	85.268	225.586	84.8711	225.586	85.2729	225.586	84.9929	225.586	85.3408	225.586	85.1739	225.586	85.4379	225.586	85.358	225.586	85.5295	225.586	85.5012	225.586	85.5842	225.586	85.5784
232.91	88.3993	232.91	88.3873	232.91	88.3246	232.91	88.2886	232.91	88.1641	232.91	88.1043	232.91	87.9198	232.91	87.8374	232.91	87.5955	232.91	87.4941	232.91	87.1981	232.91	87.0842	232.91	86.7388	232.91	86.6227	232.91	86.2353	232.91	86.1302	232.91	85.7137	232.91	85.6352	232.91	85.2117	232.91	85.1754	232.91	84.7776	232.91	84.7978	232.91	84.463	232.91	84.5491	232.91	84.3058	232.91	84.4572	232.91	84.3112	232.91	84.5121	232.91	84.4445	232.91	84.6636	232.91	84.6437	232.91	84.8408	232.91	84.8413	232.91	84.9778	232.91	84.9817	232.91	85.0304
241.699	88.445	241.699	88.3938	241.699	88.4262	241.699	88.2742	241.699	88.3343	241.699	88.0865	241.699	88.1648	241.699	87.8312	241.699	87.9125	241.699	87.5108	241.699	87.5731	241.699	87.1318	241.699	87.1455	241.699	86.7069	241.699	86.6351	241.699	86.2567	241.699	86.0598	241.699	85.81	241.699	85.4572	241.699	85.4035	241.699	84.8895	241.699	85.0762	241.699	84.4363	241.699	84.8595	241.699	84.1664	241.699	84.7625	241.699	84.1008	241.699	84.7653	241.699	84.2004	241.699	84.8246	241.699	84.391	241.699	84.8899	241.699	84.5995	241.699	84.9183	241.699	84.7732	241.699	84.8825
250.488	88.2168	250.488	88.1369	250.488	88.2163	250.488	87.9751	250.488	88.1362	250.488	87.7287	250.488	87.9772	250.488	87.3948	250.488	87.7404	250.488	86.9719	250.488	87.4278	250.488	86.4648	250.488	87.0441	250.488	85.8909	250.488	86.5977	250.488	85.2892	250.488	86.1048	250.488	84.7256	250.488	85.5927	250.488	84.2851	250.488	85.1039	250.488	84.0407	250.488	84.6935	250.488	84.0119	250.488	84.4151	250.488	84.1517	250.488	84.2981	250.488	84.3761	250.488	84.33	250.488	84.604	250.488	84.4621	250.488	84.779	250.488	84.6313	250.488	84.8703	250.488	84.7804	250.488	84.8682
259.277	88.8877	259.277	88.8305	259.277	88.8606	259.277	88.6893	259.277	88.7475	259.277	88.4629	259.277	88.5452	259.277	88.1483	259.277	88.2504	259.277	87.7417	259.277	87.8597	259.277	87.2391	259.277	87.3722	259.277	86.6394	259.277	86.7929	259.277	85.9507	259.277	86.1398	259.277	85.2023	259.277	85.4531	259.277	84.4634	259.277	84.8039	259.277	83.8557	259.277	84.2908	259.277	83.5242	259.277	84.008	259.277	83.5446	259.277	83.9904	259.277	83.8497	259.277	84.1854	259.277	84.2763	259.277	84.4838	259.277	84.6704	259.277	84.7754	259.277	84.9379	259.277	84.9779	259.277	85.0406
268.066	88.8445	268.066	88.8348	268.066	88.8032	268.066	88.7678	268.066	88.7122	268.066	88.6319	268.066	88.5684	268.066	88.4117	268.066	88.3655	268.066	88.091	268.066	88.0958	268.066	87.6571	268.066	87.752	268.066	87.105	268.066	87.3283	268.066	86.4427	268.066	86.8228	268.066	85.6981	268.066	86.242	268.066	84.9278	268.066	85.6098	268.066	84.2219	268.066	84.9785	268.066	83.6885	268.066	84.43	268.066	83.4086	268.066	84.0501	268.066	83.3865	268.066	83.8786	268.066	83.5445	268.066	83.8794	268.066	83.7679	268.066	83.9652	268.066	83.9565	268.066	84.0449	268.066	84.0523
276.855	88.279	276.855	88.2874	276.855	88.1917	276.855	88.22	276.855	88.0315	276.855	88.0871	276.855	87.8112	276.855	87.9012	276.855	87.5448	276.855	87.6677	276.855	87.2424	276.855	87.3803	276.855	86.9075	276.855	87.0211	276.855	86.5392	276.855	86.5707	276.855	86.1386	276.855	86.02	276.855	85.7144	276.855	85.3845	276.855	85.2862	276.855	84.7213	276.855	84.887	276.855	84.1376	276.855	84.5626	276.855	83.7628	276.855	84.3615	276.855	83.6666	276.855	84.3064	276.855	83.8009	276.855	84.3649	276.855	84.0435	276.855	84.4574	276.855	84.2814	276.855	84.5004	276.855	84.444
287.109	88.2247	287.109	88.1881	287.109	88.1852	287.109	88.0796	287.109	88.0618	287.109	87.8979	287.109	87.8475	287.109	87.6381	287.109	87.5396	287.109	87.2961	287.109	87.1438	287.109	86.8723	287.109	86.6733	287.109	86.3745	287.109	86.146	287.109	85.8188	287.109	85.5804	287.109	85.232	287.109	84.9956	287.109	84.6534	287.109	84.4203	287.109	84.1317	287.109	83.9048	287.109	83.717	287.109	83.521	287.109	83.4544	287.109	83.3313	287.109	83.3735	287.109	83.3439	287.109	83.4625	287.109	83.4994	287.109	83.6489	287.109	83.7018	287.109	83.8263	287.109	83.8591	287.109	83.9076
297.363	87.6617	297.363	87.6369	297.363	87.6176	297.363	87.5421	297.363	87.5083	297.363	87.3793	297.363	87.337	297.363	87.1536	297.363	87.102	297.363	86.8706	297.363	86.7954	297.363	86.5339	297.363	86.4059	297.363	86.1428	297.363	85.9276	297.363	85.6943	297.363	85.3704	297.363	85.1937	297.363	84.7678	297.363	84.6695	297.363	84.1779	297.363	84.1807	297.363	83.673	297.363	83.7998	297.363	83.319	297.363	83.5733	297.363	83.1517	297.363	83.4958	297.363	83.1616	297.363	83.5246	297.363	83.2964	297.363	83.6052	297.363	83.4779	297.363	83.681	297.363	83.629	297.363	83.6994
307.617	88.1473	307.617	88.0604	307.617	88.1608	307.617	87.9027	307.617	88.1006	307.617	87.6789	307.617	87.9686	307.617	87.3943	307.617	87.7693	307.617	87.0525	307.617	87.5074	307.617	86.6528	307.617	87.1828	307.617	86.1898	307.617	86.7861	307.617	85.6541	307.617	86.3003	307.617	85.0353	307.617	85.7112	307.617	84.3316	307.617	85.0231	307.617	83.5754	307.617	84.2731	307.617	82.8645	307.617	83.5363	307.617	82.3561	307.617	82.9165	307.617	82.1637	307.617	82.5094	307.617	82.2402	307.617	82.3479	307.617	82.4172	307.617	82.3758	307.617	82.5457	307.617	82.4831	307.617	82.5629
319.336	87.5198	319.336	87.4767	319.336	87.4536	319.336	87.3231	319.336	87.2861	319.336	87.0641	319.336	87.0339	319.336	86.7139	319.336	86.7238	319.336	86.299	319.336	86.3933	319.336	85.8582	319.336	86.0833	319.336	85.4364	319.336	85.8249	319.336	85.0693	319.336	85.6235	319.336	84.7682	319.336	85.454	319.336	84.5176	319.336	85.2756	319.336	84.2896	319.336	85.0559	319.336	84.0658	319.336	84.7887	319.336	83.8498	319.336	84.4965	319.336	83.6646	319.336	84.2156	319.336	83.5364	319.336	83.9761	319.336	83.4783	319.336	83.7882	319.336	83.4861	319.336	83.6472	319.336	83.5461
329.59	88.4837	329.59	88.4787	329.59	88.3563	329.59	88.34	329.59	88.0944	329.59	88.063	329.59	87.6944	329.59	87.6433	329.59	87.156	329.59	87.0817	329.59	86.4894	329.59	86.3911	329.59	85.7289	329.59	85.6078	329.59	84.9501	329.59	84.8055	329.59	84.2821	329.59	84.1014	329.59	83.8791	329.59	83.6271	329.59	83.83	329.59	83.4547	329.59	84.0831	329.59	83.5491	329.59	84.4865	329.59	83.8098	329.59	84.8921	329.59	84.1431	329.59	85.2095	329.59	84.489	329.59	85.4039	329.59	84.8123	329.59	85.4745	329.59	85.0891	329.59	85.4349	329.59	85.3015
341.309	88.9252	341.309	88.8831	341.309	88.863	341.309	88.7394	341.309	88.6903	341.309	88.4929	341.309	88.3978	341.309	88.1373	341.309	87.973	341.309	87.6647	341.309	87.4021	341.309	87.0708	341.309	86.6766	341.309	86.366	341.309	85.8062	341.309	85.588	341.309	84.8398	341.309	84.8169	341.309	83.8858	341.309	84.1748	341.309	83.1124	341.309	83.7866	341.309	82.6955	341.309	83.7045	341.309	82.7188	341.309	83.8773	341.309	83.1133	341.309	84.1993	341.309	83.7032	341.309	84.567	341.309	84.3036	341.309	84.8967	341.309	84.7861	341.309	85.1227	341.309	85.0888	341.309	85.1969
353.027	89.4498	353.027	89.4181	353.027	89.3771	353.027	89.2802	353.027	89.2005	353.027	89.0344	353.027	88.9172	353.027	88.6778	353.027	88.5198	353.027	88.2033	353.027	87.9958	353.027	87.598	353.027	87.329	353.027	86.8442	353.027	86.5024	353.027	85.9302	353.027	85.5075	353.027	84.8786	353.027	84.3766	353.027	83.7985	353.027	83.2495	353.027	82.9403	353.027	82.434	353.027	82.6212	353.027	82.2613	353.027	82.9315	353.027	82.7203	353.027	83.6156	353.027	83.4718	353.027	84.345	353.027	84.2122	353.027	84.92	353.027	84.7999	353.027	85.2594	353.027	85.1852	353.027	85.3447
366.211	88.9689	366.211	88.8475	366.211	89	366.211	88.6421	366.211	88.9383	366.211	88.361	366.211	88.7843	366.211	88.0092	366.211	88.5363	366.211	87.585	366.211	88.1833	366.211	87.0788	366.211	87.7003	366.211	86.4763	366.211	87.0525	366.211	85.7658	366.211	86.207	366.211	84.9504	366.211	85.1517	366.211	84.0702	366.211	83.9203	366.211	83.2307	366.211	82.6419	366.211	82.6142	366.211	81.6165	366.211	82.4088	366.211	81.2573	366.211	82.6522	366.211	81.6798	366.211	83.1706	366.211	82.5125	366.211	83.71	366.211	83.3268	366.211	84.0724	366.211	83.8979	366.211	84.1489
379.395	88	379.395	87.9362	379.395	87.9934	379.395	87.7973	379.395	87.915	379.395	87.5763	379.395	87.7568	379.395	87.267	379.395	87.5064	379.395	86.861	379.395	87.1517	379.395	86.3433	379.395	86.6858	379.395	85.6946	379.395	86.1102	379.395	84.907	379.395	85.4357	379.395	84.0147	379.395	84.6845	379.395	83.1313	379.395	83.9027	379.395	82.4615	379.395	83.1811	379.395	82.2019	379.395	82.659	379.395	82.3579	379.395	82.4651	379.395	82.7324	379.395	82.6099	379.395	83.1171	379.395	82.9553	379.395	83.4098	379.395	83.3147	379.395	83.5889	379.395	83.5593	379.395	83.6463
392.578	87.6945	392.578	87.6513	392.578	87.6854	392.578	87.5516	392.578	87.6208	392.578	87.3815	392.578	87.4953	392.578	87.1238	392.578	87.3048	392.578	86.7641	392.578	87.0424	392.578	86.2868	392.578	86.6889	392.578	85.6581	392.578	86.2059	392.578	84.8149	392.578	85.5399	392.578	83.6815	392.578	84.6479	392.578	82.2297	392.578	83.5484	392.578	80.6132	392.578	82.3929	392.578	79.3934	392.578	81.4912	392.578	79.3371	392.578	81.142	392.578	80.3206	392.578	81.3581	392.578	81.5236	392.578	81.8954	392.578	82.4558	392.578	82.4856	392.578	82.9883	392.578	82.9378	392.578	83.1313
405.762	87.4711	405.762	87.5594	405.762	87.3635	405.762	87.6141	405.762	87.2492	405.762	87.6189	405.762	87.1285	405.762	87.549	405.762	86.9808	405.762	87.3703	405.762	86.7651	405.762	87.05	405.762	86.4352	405.762	86.5664	405.762	85.9613	405.762	85.908	405.762	85.3469	405.762	85.0644	405.762	84.6346	405.762	84.0324	405.762	83.9053	405.762	82.8612	405.762	83.2819	405.762	81.7342	405.762	82.9189	405.762	81.0035	405.762	82.922	405.762	80.9804	405.762	83.2334	405.762	81.5935	405.762	83.6536	405.762	82.4716	405.762	83.9749	405.762	83.2784	405.762	84.0574	405.762	83.829
420.41	89.348	420.41	89.2134	420.41	89.3937	420.41	89.0249	420.41	89.3181	420.41	88.8103	420.41	89.1033	420.41	88.5822	420.41	88.7525	420.41	88.3314	420.41	88.2834	420.41	88.0234	420.41	87.706	420.41	87.6034	420.41	86.9972	420.41	87.0125	420.41	86.0906	420.41	86.2097	420.41	84.8926	420.41	85.1937	420.41	83.3321	420.41	84.0416	420.41	81.5004	420.41	82.9844	420.41	79.9959	420.41	82.4325	420.41	79.889	420.41	82.6551	420.41	81.1057	420.41	83.3923	420.41	82.5657	420.41	84.1578	420.41	83.7144	420.41	84.6469	420.41	84.4418	420.41	84.7497
435.059	89.6947	435.059	89.5185	435.059	89.7635	435.059	89.2205	435.059	89.7541	435.059	88.8084	435.059	89.6907	435.059	88.3041	435.059	89.575	435.059	87.7275	435.059	89.3845	435.059	87.0806	435.059	89.0867	435.059	86.3422	435.059	88.6526	435.059	85.4768	435.059	88.0573	435.059	84.4547	435.059	87.2676	435.059	83.2913	435.059	86.2278	435.059	82.1149	435.059	84.8654	435.059	81.2195	435.059	83.1667	435.059	80.9281	435.059	81.406	435.059	81.2627	435.059	80.3891	435.059	81.909	435.059	80.6589	435.059	82.5134	435.059	81.5664	435.059	82.8511	435.059	82.3748	435.059	82.8167
451.172	88.6765	451.172	88.7239	451.172	88.5443	451.172	88.7025	451.172	88.3281	451.172	88.6287	451.172	88.0569	451.172	88.5092	451.172	87.7808	451.172	88.3362	451.172	87.5443	451.172	88.0818	451.172	87.3556	451.172	87.6983	451.172	87.1759	451.172	87.1325	451.172	86.9368	451.172	86.3446	451.172	86.572	451.172	85.3192	451.172	86.0516	451.172	84.0832	451.172	85.4135	451.172	82.7908	451.172	84.7778	451.172	81.8787	451.172	84.3069	451.172	81.8579	451.172	84.11	451.172	82.5796	451.172	84.1672	451.172	83.4366	451.172	84.345	451.172	84.0717	451.172	84.4712	451.172	84.4069
465.82	88.5607	465.82	88.5441	465.82	88.4402	465.82	88.378	465.82	88.2032	465.82	88.0847	465.82	87.8653	465.82	87.7337	465.82	87.4463	465.82	87.4155	465.82	86.9765	465.82	87.177	465.82	86.466	465.82	86.9684	465.82	85.8616	465.82	86.6646	465.82	85.0623	465.82	86.1433	465.82	83.999	465.82	85.3543	465.82	82.7319	465.82	84.3566	465.82	81.5482	465.82	83.3165	465.82	80.9712	465.82	82.4902	465.82	81.3558	465.82	82.2061	465.82	82.3914	465.82	82.6267	465.82	83.4882	465.82	83.4463	465.82	84.2877	465.82	84.2009	465.82	84.673	465.82	84.6361
483.398	89.2403	483.398	89.1187	483.398	89.2546	483.398	88.9024	483.398	89.1429	483.398	88.5853	483.398	88.8979	483.398	88.1525	483.398	88.5237	483.398	87.6053	483.398	88.0315	483.398	86.9788	483.398	87.4458	483.398	86.3273	483.398	86.7999	483.398	85.6761	483.398	86.0935	483.398	84.9874	483.398	85.2545	483.398	84.2139	483.398	84.1806	483.398	83.4175	483.398	82.854	483.398	82.8201	483.398	81.4676	483.398	82.6626	483.398	80.4851	483.398	82.9764	483.398	80.4274	483.398	83.5628	483.398	81.3215	483.398	84.1431	483.398	82.6053	483.398	84.4646	483.398	83.7082	483.398	84.347
499.512	88.7611	499.512	88.6958	499.512	88.7155	499.512	88.5571	499.512	88.5697	499.512	88.41	499.512	88.3714	499.512	88.2943	499.512	88.1677	499.512	88.1781	499.512	87.9632	499.512	87.9717	499.512	87.7127	499.512	87.5835	499.512	87.3608	499.512	86.9426	499.512	86.8787	499.512	85.9726	499.512	86.2454	499.512	84.5657	499.512	85.4032	499.512	82.6482	499.512	84.2743	499.512	80.5273	499.512	82.8919	499.512	79.4891	499.512	81.6191	499.512	80.2643	499.512	81.1152	499.512	81.5355	499.512	81.5458	499.512	82.4832	499.512	82.3359	499.512	83.0315	499.512	82.9584	499.512	83.1988
517.09	89.171	517.09	89.1068	517.09	89.0097	517.09	88.8354	517.09	88.6477	517.09	88.4244	517.09	88.1476	517.09	87.9784	517.09	87.6138	517.09	87.5953	517.09	87.1742	517.09	87.3161	517.09	86.8977	517.09	87.1079	517.09	86.7135	517.09	86.8797	517.09	86.4455	517.09	86.5003	517.09	85.9113	517.09	85.8178	517.09	84.9871	517.09	84.7077	517.09	83.683	517.09	83.195	517.09	82.3572	517.09	81.7372	517.09	81.8635	517.09	81.3795	517.09	82.5451	517.09	82.4229	517.09	83.6183	517.09	83.7973	517.09	84.4685	517.09	84.7324	517.09	84.9656	517.09	85.0867
536.133	90.4664	536.133	90.4382	536.133	90.343	536.133	90.2066	536.133	90.0837	536.133	89.7369	536.133	89.669	536.133	89.0662	536.133	89.0902	536.133	88.2983	536.133	88.3777	536.133	87.5229	536.133	87.5886	536.133	86.739	536.133	86.7892	536.133	85.8881	536.133	86.0319	536.133	84.9351	536.133	85.2858	536.133	83.843	536.133	84.3839	536.133	82.5231	536.133	83.0866	536.133	81.0536	536.133	81.2486	536.133	80.1925	536.133	79.2893	536.133	80.7905	536.133	79.0132	536.133	82.1778	536.133	80.9319	536.133	83.4587	536.133	82.9891	536.133	84.3369	536.133	84.2569	536.133	84.6613
555.176	89.7528	555.176	89.6383	555.176	89.687	555.176	89.3801	555.176	89.454	555.176	89.0244	555.176	89.101	555.176	88.5934	555.176	88.6682	555.176	88.116	555.176	88.1956	555.176	87.6829	555.176	87.7584	555.176	87.3716	555.176	87.4185	555.176	87.0732	555.176	87.1222	555.176	86.5207	555.176	86.6964	555.176	85.5082	555.176	85.9301	555.176	84.0161	555.176	84.6441	555.176	82.1602	555.176	82.774	555.176	80.0859	555.176	80.5944	555.176	78.4544	555.176	79.1801	555.176	78.8673	555.176	79.6704	555.176	80.6931	555.176	81.1584	555.176	82.1442	555.176	82.3339	555.176	82.7016
574.219	90.8066	574.219	90.6434	574.219	90.7311	574.219	90.2404	574.219	90.4172	574.219	89.624	574.219	89.8684	574.219	88.869	574.219	89.119	574.219	88.0702	574.219	88.2535	574.219	87.3015	574.219	87.3831	574.219	86.6435	574.219	86.5757	574.219	86.2069	574.219	85.8254	574.219	85.9675	574.219	85.1287	574.219	85.6328	574.219	84.489	574.219	84.848	574.219	83.7536	574.219	83.4505	574.219	82.6995	574.219	81.7279	574.219	81.5886	574.219	80.8964	574.219	81.4559	574.219	81.875	574.219	82.5285	574.219	83.4394	574.219	83.7983	574.219	84.5363	574.219	84.6604	574.219	84.9345
594.727	90.8377	594.727	90.7696	594.727	90.6934	594.727	90.4739	594.727	90.3937	594.727	89.9931	594.727	89.9867	594.727	89.3963	594.727	89.4719	594.727	88.7268	594.727	88.8232	594.727	87.9708	594.727	88.0654	594.727	87.09	594.727	87.3116	594.727	86.1145	594.727	86.6474	594.727	85.1726	594.727	85.9753	594.727	84.2966	594.727	85.0783	594.727	83.2824	594.727	83.8159	594.727	82.0332	594.727	82.3097	594.727	81.0421	594.727	81.0714	594.727	80.9771	594.727	80.5643	594.727	81.5216	594.727	80.6568	594.727	82.0737	594.727	81.1508	594.727	82.4033	594.727	81.8487	594.727	82.3481
615.234	91.2621	615.234	91.1661	615.234	91.1737	615.234	90.8743	615.234	90.8686	615.234	90.3575	615.234	90.3291	615.234	89.6554	615.234	89.6232	615.234	88.9125	615.234	88.9145	615.234	88.2765	615.234	88.3647	615.234	87.7755	615.234	88.0025	615.234	87.3615	615.234	87.7078	615.234	86.9424	615.234	87.2665	615.234	86.239	615.234	86.4279	615.234	84.7832	615.234	85.0125	615.234	82.1646	615.234	82.9869	615.234	78.554	615.234	80.5491	615.234	76.6088	615.234	78.961	615.234	78.6448	615.234	80.1561	615.234	81.3607	615.234	82.3461	615.234	83.2606	615.234	83.7563	615.234	84.0728
637.207	91.5606	637.207	91.411	637.207	91.4546	637.207	91.0602	637.207	91.1109	637.207	90.5718	637.207	90.5973	637.207	89.9388	637.207	89.9712	637.207	89.1399	637.207	89.2678	637.207	88.3225	637.207	88.5602	637.207	87.7698	637.207	87.9618	637.207	87.4609	637.207	87.4751	637.207	87.0082	637.207	86.954	637.207	86.1395	637.207	86.2527	637.207	84.8056	637.207	85.2005	637.207	82.9272	637.207	83.4892	637.207	80.5923	637.207	81.0306	637.207	79.5182	637.207	79.3933	637.207	81.2006	637.207	80.8775	637.207	83.2787	637.207	83.2517	637.207	84.6271	637.207	84.7535	637.207	85.1618
659.18	91.7186	659.18	91.5668	659.18	91.631	659.18	91.1622	659.18	91.3293	659.18	90.5369	659.18	90.8141	659.18	89.7594	659.18	90.0796	659.18	88.879	659.18	89.1556	659.18	87.8813	659.18	88.1165	659.18	86.7993	659.18	87.1217	659.18	85.9246	659.18	86.4389	659.18	85.5412	659.18	86.1043	659.18	85.3277	659.18	85.6991	659.18	84.7661	659.18	84.8257	659.18	83.6394	659.18	83.3915	659.18	81.8438	659.18	81.41	659.18	79.4176	659.18	79.1598	659.18	77.7853	659.18	78.3628	659.18	78.8815	659.18	79.6587	659.18	80.5402	659.18	80.9039	659.18	81.2456
682.617	92.0362	682.617	91.9403	682.617	91.9611	682.617	91.7071	682.617	91.6649	682.617	91.3056	682.617	91.1529	682.617	90.6848	682.617	90.4647	682.617	89.8626	682.617	89.6161	682.617	89.0155	682.617	88.7191	682.617	88.4203	682.617	88.0551	682.617	88.0647	682.617	87.6704	682.617	87.6081	682.617	87.2672	682.617	86.8213	682.617	86.6441	682.617	85.5946	682.617	85.6057	682.617	83.7612	682.617	83.6425	682.617	81.3087	682.617	80.3978	682.617	79.122	682.617	78.2128	682.617	79.3227	682.617	80.183	682.617	81.6454	682.617	82.5254	682.617	83.7396	682.617	84.0412	682.617	84.552
707.52	92.1236	707.52	92.0929	707.52	91.8766	707.52	91.7366	707.52	91.4481	707.52	91.0641	707.52	90.8355	707.52	90.079	707.52	89.8976	707.52	88.849	707.52	88.5957	707.52	87.6332	707.52	87.2475	707.52	86.6901	707.52	86.3595	707.52	86.0622	707.52	86.0607	707.52	85.834	707.52	85.97	707.52	85.8088	707.52	85.6991	707.52	85.2551	707.52	85.0559	707.52	83.5937	707.52	83.8114	707.52	80.718	707.52	81.8367	707.52	77.5778	707.52	79.8056	707.52	78.0829	707.52	79.7378	707.52	81.1049	707.52	81.6399	707.52	83.0255	707.52	83.1466	707.52	83.6043
732.422	91.8453	732.422	91.6954	732.422	91.8216	732.422	91.3692	732.422	91.5742	732.422	90.8444	732.422	91.0435	732.422	90.1163	732.422	90.2265	732.422	89.1964	732.422	89.2175	732.422	88.1314	732.422	88.1801	732.422	87.1404	732.422	87.2164	732.422	86.5764	732.422	86.3751	732.422	86.3328	732.422	85.7839	732.422	85.9081	732.422	85.3396	732.422	85.0244	732.422	84.475	732.422	83.5152	732.422	82.7631	732.422	81.1418	732.422	80.1792	732.422	78.2394	732.422	77.0195	732.422	77.0622	732.422	76.1714	732.422	78.8556	732.422	78.5837	732.422	80.8208	732.422	80.5812	732.422	81.4048
757.324	91.605	757.324	91.5793	757.324	91.406	757.324	91.2801	757.324	91.021	757.324	90.647	757.324	90.4442	757.324	89.6269	757.324	89.6844	757.324	88.337	757.324	88.7936	757.324	87.132	757.324	87.7741	757.324	86.24	757.324	86.7629	757.324	85.556	757.324	86.2255	757.324	85.1349	757.324	86.1619	757.324	85.1123	757.324	85.9014	757.324	84.9324	757.324	85.094	757.324	83.8843	757.324	83.6828	757.324	81.7033	757.324	81.3823	757.324	78.8943	757.324	78.3464	757.324	78.7677	757.324	77.6463	757.324	81.4134	757.324	80.1976	757.324	83.1438	757.324	82.4393	757.324	83.4445
785.156	91.1546	785.156	91.0238	785.156	91.189	785.156	90.6467	785.156	91.0834	785.156	89.9667	785.156	90.7157	785.156	89.2381	785.156	90.0142	785.156	88.6195	785.156	88.9177	785.156	87.8011	785.156	87.4976	785.156	86.4954	785.156	86.0731	785.156	85.1664	785.156	84.8381	785.156	84.6143	785.156	83.8948	785.156	84.2414	785.156	83.7851	785.156	83.1133	785.156	83.9744	785.156	81.6846	785.156	83.0018	785.156	80.2973	785.156	80.1356	785.156	77.5742	785.156	76.5104	785.156	74.8421	785.156	76.4287	785.156	77.8423	785.156	78.4928	785.156	80.6196	785.156	80.429	785.156	81.3627
811.523	91.0122	811.523	90.8625	811.523	90.805	811.523	90.3413	811.523	90.3284	811.523	89.5703	811.523	89.6444	811.523	88.6778	811.523	88.7595	811.523	87.551	811.523	87.6752	811.523	86.0384	811.523	86.394	811.523	84.4601	811.523	84.9896	811.523	83.6007	811.523	83.9507	811.523	83.6195	811.523	83.9319	811.523	83.7853	811.523	84.2718	811.523	83.6854	811.523	83.8932	811.523	82.9078	811.523	82.982	811.523	81.2449	811.523	81.8431	811.523	79.1682	811.523	79.653	811.523	76.7159	811.523	77.2361	811.523	77.2079	811.523	78.4349	811.523	80.2481	811.523	80.3503	811.523	81.1843
840.82	89.6111	840.82	89.6802	840.82	89.5593	840.82	89.5417	840.82	89.5701	840.82	89.1517	840.82	89.3992	840.82	88.5819	840.82	88.839	840.82	87.8043	840.82	87.9206	840.82	86.7791	840.82	86.8136	840.82	85.5407	840.82	85.5342	840.82	84.2231	840.82	84.1114	840.82	83.1048	840.82	83.0035	840.82	82.3435	840.82	82.5473	840.82	81.9731	840.82	81.9798	840.82	81.4588	840.82	80.5262	840.82	79.4498	840.82	78.5328	840.82	74.6922	840.82	75.8166	840.82	71.1968	840.82	73.2129	840.82	76.0097	840.82	76.3464	840.82	78.9774	840.82	78.7157	840.82	79.6188
870.117	89.1993	870.117	89.0474	870.117	89.0496	870.117	88.6995	870.117	88.6445	870.117	88.0774	870.117	88.0448	870.117	87.0161	870.117	87.1824	870.117	85.7429	870.117	86.1712	870.117	84.6749	870.117	85.261	870.117	83.683	870.117	84.3601	870.117	82.366	870.117	83.2587	870.117	81.4959	870.117	82.3248	870.117	81.9406	870.117	81.7741	870.117	82.2432	870.117	81.4995	870.117	81.5576	870.117	81.4385	870.117	80.0801	870.117	80.0858	870.117	77.2845	870.117	75.7012	870.117	72.9478	870.117	71.8586	870.117	74.772	870.117	74.9172	870.117	77.3274	870.117	76.4503	870.117	77.2755
900.879	87.6824	900.879	87.4828	900.879	87.5253	900.879	87.0874	900.879	86.9947	900.879	86.5415	900.879	86.4687	900.879	85.806	900.879	86.2201	900.879	84.9119	900.879	85.7304	900.879	83.7896	900.879	84.2067	900.879	82.36	900.879	81.6981	900.879	81.1224	900.879	79.861	900.879	80.4629	900.879	79.3787	900.879	80.4651	900.879	80.1451	900.879	81.0635	900.879	81.4611	900.879	80.9892	900.879	80.8334	900.879	78.8661	900.879	78.3459	900.879	75.0624	900.879	75.1513	900.879	72.2556	900.879	71.5166	900.879	72.2457	900.879	73.2706	900.879	76.6079	900.879	77.5043	900.879	78.8609
933.105	87.5445	933.105	87.7325	933.105	87.5281	933.105	87.9358	933.105	87.3456	933.105	87.5939	933.105	86.7249	933.105	86.7512	933.105	85.7773	933.105	85.9221	933.105	84.7475	933.105	84.9865	933.105	83.4884	933.105	83.3344	933.105	82.0112	933.105	80.8977	933.105	80.6811	933.105	79.0713	933.105	79.8402	933.105	78.6046	933.105	79.5948	933.105	79.44	933.105	79.5939	933.105	80.1847	933.105	79.836	933.105	79.1969	933.105	79.0241	933.105	76.5912	933.105	75.5264	933.105	73.2172	933.105	73.126	933.105	75.1967	933.105	75.9159	933.105	77.9909	933.105	77.8567	933.105	78.5762
965.332	88.5413	965.332	88.6917	965.332	88.3016	965.332	88.3295	965.332	87.9853	965.332	87.6531	965.332	87.2064	965.332	87.182	965.332	86.1808	965.332	86.5268	965.332	85.2785	965.332	84.953	965.332	84.1979	965.332	83.2304	965.332	82.5969	965.332	82.7399	965.332	80.9638	965.332	82.0271	965.332	80.038	965.332	80.6414	965.332	79.6317	965.332	80.8253	965.332	79.5126	965.332	80.8896	965.332	79.3288	965.332	79.8031	965.332	78.5133	965.332	77.337	965.332	77.5275	965.332	73.9586	965.332	74.9252	965.332	73.0919	965.332	73.3422	965.332	75.4013	965.332	75.6655	965.332	76.4024
1,000.49	88.4069	1,000.49	87.863	1,000.49	88.2811	1,000.49	87.6282	1,000.49	87.2855	1,000.49	87.3832	1,000.49	86.3151	1,000.49	86.2376	1,000.49	85.58	1,000.49	85.0244	1,000.49	84.5343	1,000.49	84.6743	1,000.49	83.1148	1,000.49	83.6496	1,000.49	81.6569	1,000.49	81.0754	1,000.49	80.5498	1,000.49	79.1008	1,000.49	79.5633	1,000.49	79.8588	1,000.49	78.4817	1,000.49	79.9455	1,000.49	78.3404	1,000.49	79.4209	1,000.49	78.8204	1,000.49	79.0127	1,000.49	78.0014	1,000.49	76.1992	1,000.49	73.0216	1,000.49	71.1916	1,000.49	64.3356	1,000.49	75.0435	1,000.49	72.0322	1,000.49	77.6819	1,000.49	77.4797	1,000.49	79.0033
1,035.64	87.242	1,035.64	87.4897	1,035.64	87.0964	1,035.64	87.3179	1,035.64	87.1521	1,035.64	86.7017	1,035.64	86.7419	1,035.64	86.138	1,035.64	85.7014	1,035.64	85.3118	1,035.64	84.6495	1,035.64	83.636	1,035.64	83.4234	1,035.64	82.0995	1,035.64	81.816	1,035.64	80.9044	1,035.64	80.0892	1,035.64	79.491	1,035.64	78.3403	1,035.64	77.8297	1,035.64	77.1609	1,035.64	77.8408	1,035.64	75.9446	1,035.64	78.7306	1,035.64	76.8449	1,035.64	77.197	1,035.64	76.5502	1,035.64	74.4977	1,035.64	75.2612	1,035.64	73.3952	1,035.64	72.9633	1,035.64	72.7594	1,035.64	70.6608	1,035.64	74.9612	1,035.64	74.6164	1,035.64	75.7472
1,072.27	88.9864	1,072.27	88.9526	1,072.27	88.7324	1,072.27	88.5012	1,072.27	88.1098	1,072.27	87.7344	1,072.27	87.1538	1,072.27	86.8772	1,072.27	86.2199	1,072.27	85.8198	1,072.27	85.2643	1,072.27	84.7289	1,072.27	83.9578	1,072.27	83.5301	1,072.27	82.0894	1,072.27	81.9324	1,072.27	79.921	1,072.27	79.9897	1,072.27	77.5358	1,072.27	78.6404	1,072.27	75.9162	1,072.27	78.4331	1,072.27	77.5801	1,072.27	77.6787	1,072.27	77.6248	1,072.27	77.0586	1,072.27	77.7036	1,072.27	76.1625	1,072.27	76.173	1,072.27	72.1052	1,072.27	69.2338	1,072.27	72.3895	1,072.27	73.4336	1,072.27	76.6841	1,072.27	75.5336	1,072.27	76.6826
1,108.89	89.7588	1,108.89	89.618	1,108.89	89.2932	1,108.89	88.8316	1,108.89	88.639	1,108.89	87.8989	1,108.89	87.8654	1,108.89	86.9972	1,108.89	86.8208	1,108.89	85.8945	1,108.89	85.5452	1,108.89	84.3404	1,108.89	84.506	1,108.89	83.0402	1,108.89	83.6062	1,108.89	81.9918	1,108.89	82.3562	1,108.89	79.1901	1,108.89	80.8482	1,108.89	77.0063	1,108.89	79.1888	1,108.89	77.6643	1,108.89	78.2103	1,108.89	78.7638	1,108.89	79.0039	1,108.89	79.4299	1,108.89	78.8507	1,108.89	76.32	1,108.89	75.4158	1,108.89	70.0776	1,108.89	68.7785	1,108.89	72.6062	1,108.89	71.3128	1,108.89	76.3957	1,108.89	77.0568	1,108.89	78.419
1,148.44	89.96	1,148.44	89.8242	1,148.44	89.8674	1,148.44	89.3351	1,148.44	89.154	1,148.44	88.38	1,148.44	88.2172	1,148.44	87.472	1,148.44	87.4426	1,148.44	86.3009	1,148.44	86.542	1,148.44	84.7904	1,148.44	85.5752	1,148.44	83.7625	1,148.44	84.3546	1,148.44	82.2028	1,148.44	82.9326	1,148.44	80.6997	1,148.44	80.4824	1,148.44	79.6762	1,148.44	78.114	1,148.44	79.2322	1,148.44	77.6782	1,148.44	80.1984	1,148.44	78.4039	1,148.44	78.6762	1,148.44	78.0452	1,148.44	76.42	1,148.44	76.8036	1,148.44	72.0924	1,148.44	72.7857	1,148.44	70.244	1,148.44	69.6227	1,148.44	75.3234	1,148.44	74.6526	1,148.44	75.6276
1,189.45	90.41	1,189.45	90.0102	1,189.45	90.1844	1,189.45	89.615	1,189.45	89.6182	1,189.45	89.3523	1,189.45	88.7831	1,189.45	88.2869	1,189.45	87.8619	1,189.45	86.9958	1,189.45	86.4229	1,189.45	85.7607	1,189.45	84.1948	1,189.45	84.2284	1,189.45	82.9381	1,189.45	82.6386	1,189.45	81.9518	1,189.45	80.3988	1,189.45	80.4903	1,189.45	76.9732	1,189.45	77.9807	1,189.45	74.9414	1,189.45	77.3173	1,189.45	74.96	1,189.45	77.9031	1,189.45	77.7151	1,189.45	78.6902	1,189.45	77.5507	1,189.45	77.0984	1,189.45	73.4346	1,189.45	73.317	1,189.45	72.1277	1,189.45	68.7336	1,189.45	73.2067	1,189.45	74.7598	1,189.45	76.7499
1,230.47	90.5564	1,230.47	90.8827	1,230.47	90.5676	1,230.47	90.5682	1,230.47	90.151	1,230.47	89.1573	1,230.47	89.1083	1,230.47	88.2265	1,230.47	87.8466	1,230.47	87.2783	1,230.47	86.5732	1,230.47	85.6726	1,230.47	85.4005	1,230.47	84.4662	1,230.47	84.1655	1,230.47	82.7619	1,230.47	82.6713	1,230.47	80.836	1,230.47	80.6536	1,230.47	79.2374	1,230.47	79.2837	1,230.47	78.6385	1,230.47	77.4052	1,230.47	78.7945	1,230.47	77.967	1,230.47	79.1213	1,230.47	77.4327	1,230.47	77.9025	1,230.47	76.9568	1,230.47	74.0978	1,230.47	73.4027	1,230.47	67.5399	1,230.47	72.5823	1,230.47	77.4654	1,230.47	76.2291	1,230.47	78.2605
1,274.41	90.3734	1,274.41	89.9814	1,274.41	90.0867	1,274.41	89.3958	1,274.41	89.5874	1,274.41	88.8387	1,274.41	88.428	1,274.41	87.0183	1,274.41	87.1443	1,274.41	85.224	1,274.41	86.2245	1,274.41	84.274	1,274.41	84.2829	1,274.41	82.7225	1,274.41	82.7462	1,274.41	82.576	1,274.41	81.3962	1,274.41	81.6667	1,274.41	79.8902	1,274.41	80.2153	1,274.41	76.4334	1,274.41	77.1684	1,274.41	74.9503	1,274.41	75.7861	1,274.41	74.9004	1,274.41	78.3294	1,274.41	76.1755	1,274.41	77.2754	1,274.41	76.2408	1,274.41	69.151	1,274.41	73.4316	1,274.41	74.0613	1,274.41	69.627	1,274.41	73.459	1,274.41	75.1166	1,274.41	77.0014
1,319.82	89.5365	1,319.82	89.8037	1,319.82	89.8137	1,319.82	89.6945	1,319.82	88.9167	1,319.82	88.0752	1,319.82	88.0537	1,319.82	87.0086	1,319.82	86.669	1,319.82	86.0747	1,319.82	84.5002	1,319.82	83.8987	1,319.82	83.6932	1,319.82	82.402	1,319.82	82.3549	1,319.82	80.7024	1,319.82	81.3724	1,319.82	80.9311	1,319.82	78.853	1,319.82	78.7308	1,319.82	76.9573	1,319.82	77.3484	1,319.82	75.4727	1,319.82	76.6254	1,319.82	76.0922	1,319.82	75.8558	1,319.82	75.7426	1,319.82	76.5373	1,319.82	76.6582	1,319.82	75.7037	1,319.82	71.8856	1,319.82	67.5347	1,319.82	67.7226	1,319.82	73.7239	1,319.82	74.3147	1,319.82	75.9796
1,366.7	89.0185	1,366.7	88.8664	1,366.7	88.4463	1,366.7	88.6261	1,366.7	88.7378	1,366.7	88.2446	1,366.7	87.619	1,366.7	86.9943	1,366.7	85.709	1,366.7	85.0593	1,366.7	85.5948	1,366.7	83.7424	1,366.7	83.2412	1,366.7	82.158	1,366.7	82.2971	1,366.7	80.1779	1,366.7	79.995	1,366.7	78.1372	1,366.7	78.3062	1,366.7	75.09	1,366.7	77.2311	1,366.7	73.696	1,366.7	74.3338	1,366.7	72.5739	1,366.7	72.3056	1,366.7	74.4765	1,366.7	75.7512	1,366.7	75.859	1,366.7	73.5275	1,366.7	65.8449	1,366.7	71.8042	1,366.7	74.1573	1,366.7	71.7775	1,366.7	74.3883	1,366.7	75.4075	1,366.7	73.3263
1,413.57	89.4814	1,413.57	89.1537	1,413.57	89.2221	1,413.57	88.2932	1,413.57	88.3469	1,413.57	87.4015	1,413.57	87.6806	1,413.57	85.8431	1,413.57	86.2822	1,413.57	84.0417	1,413.57	84.0182	1,413.57	83.4799	1,413.57	83.0155	1,413.57	79.4636	1,413.57	81.761	1,413.57	78.5798	1,413.57	80.4902	1,413.57	76.3283	1,413.57	80.3366	1,413.57	75.6615	1,413.57	77.8629	1,413.57	75.0409	1,413.57	77.1811	1,413.57	74.0927	1,413.57	76.4342	1,413.57	77.5202	1,413.57	73.9666	1,413.57	77.1752	1,413.57	73.3294	1,413.57	66.6045	1,413.57	70.794	1,413.57	62.4527	1,413.57	67.0077	1,413.57	69.3659	1,413.57	68.9798	1,413.57	73.1068
1,463.38	89.5582	1,463.38	89.8074	1,463.38	89.3758	1,463.38	89.1082	1,463.38	89.1137	1,463.38	88.0531	1,463.38	88.0506	1,463.38	87.3419	1,463.38	87.5675	1,463.38	86.6791	1,463.38	86.2198	1,463.38	83.1617	1,463.38	83.8204	1,463.38	83.1481	1,463.38	81.2628	1,463.38	81.814	1,463.38	79.6968	1,463.38	79.5707	1,463.38	78.8239	1,463.38	78.127	1,463.38	76.1397	1,463.38	75.8133	1,463.38	72.7813	1,463.38	72.4317	1,463.38	71.7544	1,463.38	74.6758	1,463.38	72.6711	1,463.38	74.1525	1,463.38	75.6984	1,463.38	73.3026	1,463.38	72.3008	1,463.38	68.6793	1,463.38	69.4362	1,463.38	76.9498	1,463.38	77.553	1,463.38	77.093
1,516.11	89.52	1,516.11	89.6174	1,516.11	89.5638	1,516.11	89.2147	1,516.11	89.3069	1,516.11	88.2952	1,516.11	88.581	1,516.11	87.0785	1,516.11	86.2438	1,516.11	85.279	1,516.11	84.7308	1,516.11	84.2692	1,516.11	83.4058	1,516.11	82.4004	1,516.11	82.4582	1,516.11	78.9026	1,516.11	81.5985	1,516.11	74.8698	1,516.11	78.2339	1,516.11	75.3188	1,516.11	78.7733	1,516.11	75.2976	1,516.11	76.8841	1,516.11	76.7225	1,516.11	75.0841	1,516.11	71.0427	1,516.11	76.59	1,516.11	75.84	1,516.11	75.3314	1,516.11	68.3252	1,516.11	70.7115	1,516.11	71.6746	1,516.11	65.1414	1,516.11	64.3866	1,516.11	65.8164	1,516.11	73.3152
1,568.85	88.848	1,568.85	89.0158	1,568.85	88.6114	1,568.85	88.7647	1,568.85	88.3144	1,568.85	87.5315	1,568.85	87.327	1,568.85	86.2582	1,568.85	86.058	1,568.85	85.3634	1,568.85	84.6792	1,568.85	83.5794	1,568.85	82.6995	1,568.85	81.2977	1,568.85	80.9422	1,568.85	78.1528	1,568.85	79.0832	1,568.85	78.1044	1,568.85	76.2724	1,568.85	76.4107	1,568.85	74.8914	1,568.85	73.7416	1,568.85	75.8245	1,568.85	74.6445	1,568.85	74.6041	1,568.85	74.0405	1,568.85	70.3278	1,568.85	71.6365	1,568.85	74.5403	1,568.85	72.8067	1,568.85	71.1074	1,568.85	65.2928	1,568.85	59.7338	1,568.85	71.5145	1,568.85	73.2885	1,568.85	74.1741
1,624.51	88.4408	1,624.51	88.0417	1,624.51	88.1321	1,624.51	87.6993	1,624.51	87.4959	1,624.51	87.1077	1,624.51	86.5672	1,624.51	85.8616	1,624.51	85.4335	1,624.51	84.2549	1,624.51	83.8108	1,624.51	82.775	1,624.51	82.1347	1,624.51	81.0723	1,624.51	81.0382	1,624.51	79.904	1,624.51	79.0492	1,624.51	78.0805	1,624.51	77.4384	1,624.51	76.009	1,624.51	74.4417	1,624.51	74.436	1,624.51	73.1984	1,624.51	71.1806	1,624.51	70.8768	1,624.51	71.9011	1,624.51	70.5427	1,624.51	74.6007	1,624.51	68.8752	1,624.51	67.3482	1,624.51	73.1059	1,624.51	67.7621	1,624.51	70.0536	1,624.51	72.4576	1,624.51	69.5414	1,624.51	73.696
1,681.64	88.2757	1,681.64	88.2161	1,681.64	88.283	1,681.64	87.5216	1,681.64	87.9226	1,681.64	86.7799	1,681.64	87.2687	1,681.64	85.5538	1,681.64	86.0587	1,681.64	83.697	1,681.64	84.7412	1,681.64	81.8178	1,681.64	82.9232	1,681.64	80.73	1,681.64	80.6584	1,681.64	78.9941	1,681.64	79.2236	1,681.64	76.9543	1,681.64	78.0805	1,681.64	75.4025	1,681.64	77.3736	1,681.64	74.0332	1,681.64	74.3184	1,681.64	72.254	1,681.64	73.981	1,681.64	70.2218	1,681.64	72.8299	1,681.64	72.5688	1,681.64	72.7009	1,681.64	72.4849	1,681.64	68.4974	1,681.64	64.1652	1,681.64	61.6365	1,681.64	60.0814	1,681.64	64.3441	1,681.64	68.2616
1,741.7	89.5807	1,741.7	89.2256	1,741.7	89.0323	1,741.7	88.5941	1,741.7	88.5461	1,741.7	87.5667	1,741.7	87.8105	1,741.7	86.4032	1,741.7	86.6731	1,741.7	85.5704	1,741.7	85.6769	1,741.7	83.9248	1,741.7	83.7451	1,741.7	80.8051	1,741.7	81.7163	1,741.7	78.1444	1,741.7	80.0257	1,741.7	77.7888	1,741.7	78.0169	1,741.7	74.6352	1,741.7	76.2027	1,741.7	74.2299	1,741.7	75.8336	1,741.7	74.4655	1,741.7	72.662	1,741.7	71.2823	1,741.7	71.9818	1,741.7	67.5864	1,741.7	72.393	1,741.7	68.272	1,741.7	73.5844	1,741.7	69.2944	1,741.7	69.5161	1,741.7	73.2618	1,741.7	72.8511	1,741.7	74.2193
1,803.22	89.8879	1,803.22	89.8818	1,803.22	90.0248	1,803.22	89.1685	1,803.22	89.2678	1,803.22	88.2449	1,803.22	88.1653	1,803.22	87.1786	1,803.22	87.0773	1,803.22	85.099	1,803.22	85.3987	1,803.22	83.3249	1,803.22	83.8633	1,803.22	81.5188	1,803.22	81.95	1,803.22	80.7796	1,803.22	79.7337	1,803.22	77.4785	1,803.22	78.5951	1,803.22	76.5918	1,803.22	75.9013	1,803.22	73.1226	1,803.22	73.3688	1,803.22	72.0801	1,803.22	73.1115	1,803.22	73.0311	1,803.22	70.6618	1,803.22	73.4376	1,803.22	72.3702	1,803.22	73.4859	1,803.22	69.7308	1,803.22	63.3164	1,803.22	62.6663	1,803.22	65.5498	1,803.22	68.3226	1,803.22	73.6803
1,866.21	89.4683	1,866.21	89.3485	1,866.21	89.0913	1,866.21	88.8714	1,866.21	88.6941	1,866.21	87.929	1,866.21	87.8169	1,866.21	86.7592	1,866.21	86.6042	1,866.21	85.4966	1,866.21	85.1364	1,866.21	83.5035	1,866.21	83.1698	1,866.21	81.971	1,866.21	81.469	1,866.21	79.1023	1,866.21	79.6887	1,866.21	77.9691	1,866.21	78.0051	1,866.21	75.9834	1,866.21	76.1831	1,866.21	76.1116	1,866.21	74.3044	1,866.21	74.9153	1,866.21	73.6838	1,866.21	71.2555	1,866.21	72.6831	1,866.21	72.3688	1,866.21	72.4449	1,866.21	69.7391	1,866.21	70.134	1,866.21	62.7958	1,866.21	57.756	1,866.21	67.6587	1,866.21	63.6331	1,866.21	70.47
1,932.13	88.9559	1,932.13	88.7831	1,932.13	88.7795	1,932.13	88.2408	1,932.13	88.2022	1,932.13	87.6716	1,932.13	87.3635	1,932.13	86.3228	1,932.13	86.1261	1,932.13	84.7526	1,932.13	84.3496	1,932.13	82.9271	1,932.13	83.0437	1,932.13	80.5611	1,932.13	80.0435	1,932.13	78.5536	1,932.13	78.297	1,932.13	77.5138	1,932.13	76.5053	1,932.13	74.7476	1,932.13	74.3549	1,932.13	72.5927	1,932.13	74.6008	1,932.13	73.0573	1,932.13	71.9519	1,932.13	69.441	1,932.13	67.0924	1,932.13	69.3529	1,932.13	68.6253	1,932.13	71.7523	1,932.13	72.9786	1,932.13	65.7565	1,932.13	66.9905	1,932.13	69.0051	1,932.13	72.5294	1,932.13	73.9549
1,999.51	89.526	1,999.51	89.4278	1,999.51	89.5299	1,999.51	88.977	1,999.51	89.1597	1,999.51	87.9487	1,999.51	88.2923	1,999.51	86.6439	1,999.51	87.1987	1,999.51	84.8763	1,999.51	85.6901	1,999.51	83.2222	1,999.51	83.4987	1,999.51	81.4795	1,999.51	82.2193	1,999.51	79.1141	1,999.51	79.7299	1,999.51	76.9049	1,999.51	78.2272	1,999.51	74.5701	1,999.51	76.3516	1,999.51	72.4514	1,999.51	72.8386	1,999.51	71.7215	1,999.51	73.5512	1,999.51	73.0559	1,999.51	73.1528	1,999.51	71.7091	1,999.51	70.377	1,999.51	72.7476	1,999.51	69.2339	1,999.51	66.0507	1,999.51	59.7318	1,999.51	68.218	1,999.51	55.9631	1,999.51	68.6839
2,069.82	90.4073	2,069.82	90.388	2,069.82	90.1268	2,069.82	90.07	2,069.82	89.7228	2,069.82	89.4504	2,069.82	89.0273	2,069.82	88.4135	2,069.82	87.959	2,069.82	87.0042	2,069.82	86.1496	2,069.82	84.3307	2,069.82	84.736	2,069.82	82.5974	2,069.82	82.1318	2,069.82	80.8399	2,069.82	80.3937	2,069.82	78.2886	2,069.82	78.5579	2,069.82	77.679	2,069.82	76.8437	2,069.82	75.6936	2,069.82	75.3505	2,069.82	74.4276	2,069.82	73.0177	2,069.82	71.0781	2,069.82	73.2762	2,069.82	68.5778	2,069.82	71.7207	2,069.82	68.6385	2,069.82	73.0694	2,069.82	67.6054	2,069.82	69.0652	2,069.82	66.7953	2,069.82	71.8427	2,069.82	73.7987
2,143.07	89.8558	2,143.07	90.0181	2,143.07	89.6704	2,143.07	89.927	2,143.07	89.1663	2,143.07	89.4218	2,143.07	88.5865	2,143.07	88.292	2,143.07	87.449	2,143.07	86.8876	2,143.07	85.9187	2,143.07	85.2185	2,143.07	83.7623	2,143.07	83.2972	2,143.07	82.4059	2,143.07	81.2228	2,143.07	79.8214	2,143.07	79.2981	2,143.07	77.1156	2,143.07	78.2013	2,143.07	76.4665	2,143.07	75.579	2,143.07	72.8088	2,143.07	73.3813	2,143.07	74.615	2,143.07	75.9523	2,143.07	72.0114	2,143.07	73.2959	2,143.07	69.7614	2,143.07	74.7034	2,143.07	71.5822	2,143.07	68.1023	2,143.07	63.0814	2,143.07	66.216	2,143.07	65.2995	2,143.07	71.5783
2,219.24	88.8861	2,219.24	89.0467	2,219.24	88.3873	2,219.24	89.0178	2,219.24	88.3602	2,219.24	88.5627	2,219.24	87.9318	2,219.24	87.7705	2,219.24	86.822	2,219.24	86.3445	2,219.24	85.5706	2,219.24	84.4315	2,219.24	84.2164	2,219.24	83.0439	2,219.24	81.8508	2,219.24	81.3183	2,219.24	80.1614	2,219.24	79.1801	2,219.24	77.7505	2,219.24	77.598	2,219.24	75.7075	2,219.24	75.4762	2,219.24	75.2821	2,219.24	74.6125	2,219.24	71.385	2,219.24	72.4259	2,219.24	73.2328	2,219.24	72.6615	2,219.24	69.3296	2,219.24	70.5545	2,219.24	71.8109	2,219.24	67.3436	2,219.24	66.5729	2,219.24	66.6973	2,219.24	67.1897	2,219.24	71.9719
2,296.88	88.6398	2,296.88	88.8704	2,296.88	88.4562	2,296.88	88.8114	2,296.88	88.0641	2,296.88	88.5229	2,296.88	87.1691	2,296.88	87.958	2,296.88	86.8456	2,296.88	86.8595	2,296.88	85.4977	2,296.88	85.232	2,296.88	82.9953	2,296.88	82.8878	2,296.88	81.5732	2,296.88	80.4247	2,296.88	79.3027	2,296.88	78.0831	2,296.88	76.961	2,296.88	76.2023	2,296.88	75.8185	2,296.88	74.1667	2,296.88	72.1938	2,296.88	69.8155	2,296.88	70.682	2,296.88	72.9539	2,296.88	71.3959	2,296.88	70.3136	2,296.88	67.9215	2,296.88	72.7795	2,296.88	69.7998	2,296.88	69.3738	2,296.88	67.6297	2,296.88	64.9996	2,296.88	62.758	2,296.88	71.3804
2,378.91	89.0659	2,378.91	89.0855	2,378.91	88.7681	2,378.91	89.0228	2,378.91	87.8267	2,378.91	88.6312	2,378.91	87.2008	2,378.91	88.3808	2,378.91	85.9206	2,378.91	87.295	2,378.91	84.666	2,378.91	84.9515	2,378.91	82.9825	2,378.91	83.092	2,378.91	79.9185	2,378.91	81.952	2,378.91	78.3935	2,378.91	78.7749	2,378.91	75.8963	2,378.91	76.0226	2,378.91	72.9297	2,378.91	76.0052	2,378.91	73.6047	2,378.91	72.9275	2,378.91	69.5816	2,378.91	71.625	2,378.91	69.2358	2,378.91	69.6231	2,378.91	66.1147	2,378.91	66.5772	2,378.91	66.8191	2,378.91	68.044	2,378.91	65.09	2,378.91	62.6283	2,378.91	54.4731	2,378.91	66.7224
2,462.4	89.2181	2,462.4	89.2735	2,462.4	89.0445	2,462.4	88.9126	2,462.4	88.6192	2,462.4	88.3679	2,462.4	87.3852	2,462.4	86.8143	2,462.4	86.253	2,462.4	85.7134	2,462.4	84.3594	2,462.4	84.1985	2,462.4	82.1446	2,462.4	81.645	2,462.4	79.695	2,462.4	79.1253	2,462.4	77.2509	2,462.4	77.1011	2,462.4	74.1439	2,462.4	75.9866	2,462.4	72.1335	2,462.4	73.7428	2,462.4	70.1101	2,462.4	71.5419	2,462.4	66.1798	2,462.4	69.993	2,462.4	67.9376	2,462.4	68.4449	2,462.4	66.0531	2,462.4	67.7254	2,462.4	62.5866	2,462.4	63.9989	2,462.4	66.3088	2,462.4	57.7078	2,462.4	49.8867	2,462.4	64.2631
2,548.83	90.5811	2,548.83	90.3825	2,548.83	90.565	2,548.83	89.6585	2,548.83	89.8698	2,548.83	88.4045	2,548.83	88.7988	2,548.83	86.8058	2,548.83	86.9645	2,548.83	84.9965	2,548.83	84.8203	2,548.83	83.1512	2,548.83	82.9077	2,548.83	80.5217	2,548.83	80.1457	2,548.83	78.4846	2,548.83	77.1045	2,548.83	76.3565	2,548.83	74.8841	2,548.83	72.8401	2,548.83	71.0163	2,548.83	72.6137	2,548.83	70.1132	2,548.83	70.2184	2,548.83	68.1336	2,548.83	68.1002	2,548.83	66.2164	2,548.83	66.2549	2,548.83	66.3363	2,548.83	66.8422	2,548.83	63.6631	2,548.83	65.4081	2,548.83	64.7501	2,548.83	65.1249	2,548.83	43.9417	2,548.83	65.2159
2,639.65	89.9622	2,639.65	89.488	2,639.65	89.6996	2,639.65	88.775	2,639.65	88.8167	2,639.65	87.5205	2,639.65	87.7852	2,639.65	86.0351	2,639.65	85.6648	2,639.65	84.068	2,639.65	83.5258	2,639.65	82.0359	2,639.65	80.9482	2,639.65	79.3042	2,639.65	77.9148	2,639.65	77.0119	2,639.65	75.2708	2,639.65	74.7786	2,639.65	72.5535	2,639.65	72.3743	2,639.65	69.5931	2,639.65	70.7473	2,639.65	67.5157	2,639.65	68.2858	2,639.65	65.8528	2,639.65	67.4202	2,639.65	65.5705	2,639.65	64.6168	2,639.65	64.6405	2,639.65	62.37	2,639.65	57.5796	2,639.65	61.8767	2,639.65	63.5702	2,639.65	56.359	2,639.65	50.405	2,639.65	64.7508
2,731.93	86.9517	2,731.93	86.6913	2,731.93	86.8277	2,731.93	86.0355	2,731.93	86.442	2,731.93	85.0688	2,731.93	85.222	2,731.93	83.2774	2,731.93	83.5893	2,731.93	81.4146	2,731.93	80.9695	2,731.93	79.3519	2,731.93	78.2618	2,731.93	77.1877	2,731.93	75.4904	2,731.93	74.5708	2,731.93	73.5194	2,731.93	72.0089	2,731.93	70.4213	2,731.93	69.5566	2,731.93	68.945	2,731.93	67.6878	2,731.93	66.9912	2,731.93	65.0111	2,731.93	64.4699	2,731.93	66.1593	2,731.93	64.8713	2,731.93	63.5336	2,731.93	64.9249	2,731.93	61.7261	2,731.93	60.2295	2,731.93	58.2456	2,731.93	62.9008	2,731.93	51.418	2,731.93	52.9179	2,731.93	56.8676
2,828.61	86.1268	2,828.61	85.9473	2,828.61	86.0769	2,828.61	84.8969	2,828.61	85.2557	2,828.61	83.8398	2,828.61	84.1645	2,828.61	82.4134	2,828.61	83.0856	2,828.61	80.7323	2,828.61	80.7503	2,828.61	78.5349	2,828.61	78.8444	2,828.61	76.1998	2,828.61	76.2239	2,828.61	73.5145	2,828.61	72.1827	2,828.61	71.5597	2,828.61	71.5571	2,828.61	67.4339	2,828.61	67.9481	2,828.61	68.9566	2,828.61	67.0441	2,828.61	63.6383	2,828.61	65.1622	2,828.61	62.694	2,828.61	59.7483	2,828.61	66.4732	2,828.61	68.1343	2,828.61	51.9307	2,828.61	53.8641	2,828.61	62.7409	2,828.61	62.7911	2,828.61	55.3661	2,828.61	51.3206	2,828.61	55.4541
2,928.22	86.8229	2,928.22	86.563	2,928.22	86.5699	2,928.22	85.4308	2,928.22	85.2677	2,928.22	83.8216	2,928.22	83.9637	2,928.22	82.2509	2,928.22	81.9133	2,928.22	79.8755	2,928.22	79.8312	2,928.22	77.7128	2,928.22	76.8355	2,928.22	75.1288	2,928.22	74.1444	2,928.22	72.8957	2,928.22	70.3057	2,928.22	71.0933	2,928.22	68.452	2,928.22	68.5249	2,928.22	64.8214	2,928.22	66.0602	2,928.22	63.2536	2,928.22	65.825	2,928.22	63.2473	2,928.22	58.5891	2,928.22	52.0635	2,928.22	63.6856	2,928.22	61.051	2,928.22	55.1031	2,928.22	57.3147	2,928.22	61.8766	2,928.22	57.3121	2,928.22	52.1509	2,928.22	56.153	2,928.22	44.7753
3,030.76	87.7033	3,030.76	87.1432	3,030.76	86.9195	3,030.76	85.8519	3,030.76	85.9132	3,030.76	83.8407	3,030.76	84.2153	3,030.76	82.0831	3,030.76	81.4593	3,030.76	79.4126	3,030.76	78.9731	3,030.76	76.0275	3,030.76	75.3869	3,030.76	73.6679	3,030.76	72.3238	3,030.76	70.0284	3,030.76	69.5431	3,030.76	66.9155	3,030.76	65.4209	3,030.76	65.2393	3,030.76	62.4318	3,030.76	58.8296	3,030.76	56.6159	3,030.76	62.7697	3,030.76	61.1484	3,030.76	57.867	3,030.76	57.2754	3,030.76	60.6918	3,030.76	53.3879	3,030.76	58.4548	3,030.76	55.7067	3,030.76	53.979	3,030.76	58.6054	3,030.76	57.0387	3,030.76	56.756	3,030.76	54.3361
3,137.7	88.8864	3,137.7	88.374	3,137.7	88.2956	3,137.7	87.1041	3,137.7	86.9877	3,137.7	85.1863	3,137.7	84.8396	3,137.7	82.9477	3,137.7	82.158	3,137.7	80.4318	3,137.7	79.2281	3,137.7	77.6832	3,137.7	75.3505	3,137.7	74.4058	3,137.7	71.8013	3,137.7	71.468	3,137.7	70.0312	3,137.7	68.2859	3,137.7	65.3888	3,137.7	65.0219	3,137.7	64.7942	3,137.7	62.5362	3,137.7	61.126	3,137.7	62.0758	3,137.7	56.1673	3,137.7	58.9277	3,137.7	56.337	3,137.7	59.6345	3,137.7	58.4203	3,137.7	58.9062	3,137.7	58.547	3,137.7	58.7939	3,137.7	53.9583	3,137.7	56.8165	3,137.7	50.2635	3,137.7	56.1075
3,249.02	89.5972	3,249.02	89.089	3,249.02	89.4273	3,249.02	87.6638	3,249.02	87.7156	3,249.02	85.4172	3,249.02	85.5836	3,249.02	82.361	3,249.02	83.0757	3,249.02	80.0059	3,249.02	79.7583	3,249.02	76.6944	3,249.02	76.6998	3,249.02	73.7708	3,249.02	73.0457	3,249.02	72.1652	3,249.02	68.5319	3,249.02	68.6002	3,249.02	64.9984	3,249.02	66.3708	3,249.02	64.6491	3,249.02	63.2799	3,249.02	63.1371	3,249.02	61.0426	3,249.02	56.0861	3,249.02	58.2284	3,249.02	55.8409	3,249.02	50.5748	3,249.02	53.8633	3,249.02	57.962	3,249.02	57.9754	3,249.02	59.1491	3,249.02	56.098	3,249.02	55.2846	3,249.02	55.5766	3,249.02	58.3742
3,363.28	90.1335	3,363.28	89.7053	3,363.28	89.5013	3,363.28	87.9002	3,363.28	87.9224	3,363.28	85.6789	3,363.28	85.4378	3,363.28	82.6751	3,363.28	82.9457	3,363.28	80.0762	3,363.28	79.2701	3,363.28	76.4251	3,363.28	75.8622	3,363.28	73.5974	3,363.28	72.6031	3,363.28	70.2485	3,363.28	68.5731	3,363.28	67.6952	3,363.28	66.2334	3,363.28	62.9274	3,363.28	62.9814	3,363.28	61.7153	3,363.28	62.9427	3,363.28	59.2541	3,363.28	58.762	3,363.28	55.1945	3,363.28	57.6968	3,363.28	57.8173	3,363.28	49.3432	3,363.28	53.8055	3,363.28	53.077	3,363.28	56.0132	3,363.28	55.2859	3,363.28	52.4519	3,363.28	56.7657	3,363.28	56.808
3,481.93	90.4527	3,481.93	89.869	3,481.93	89.7763	3,481.93	88.1799	3,481.93	87.9187	3,481.93	85.6274	3,481.93	85.2607	3,481.93	82.6308	3,481.93	81.7735	3,481.93	78.7112	3,481.93	77.9881	3,481.93	75.3682	3,481.93	75.6172	3,481.93	72.7082	3,481.93	72.7357	3,481.93	68.5492	3,481.93	68.856	3,481.93	62.0217	3,481.93	66.4837	3,481.93	63.2092	3,481.93	66.2993	3,481.93	63.8048	3,481.93	63.9203	3,481.93	56.9491	3,481.93	64.1206	3,481.93	59.4194	3,481.93	61.9414	3,481.93	57.0468	3,481.93	56.1379	3,481.93	57.1594	3,481.93	58.8435	3,481.93	57.4475	3,481.93	57.4079	3,481.93	57.0772	3,481.93	54.9438	3,481.93	59.8302
3,604.98	89.4807	3,604.98	88.8042	3,604.98	88.6007	3,604.98	86.9277	3,604.98	86.2909	3,604.98	83.9571	3,604.98	83.3414	3,604.98	80.6915	3,604.98	79.9904	3,604.98	78.3613	3,604.98	77.6184	3,604.98	75.5747	3,604.98	75.1507	3,604.98	73.1531	3,604.98	73.3711	3,604.98	70.245	3,604.98	72.7644	3,604.98	68.4664	3,604.98	70.4926	3,604.98	66.0761	3,604.98	68.3843	3,604.98	61.4613	3,604.98	64.1538	3,604.98	62.5011	3,604.98	65.7556	3,604.98	57.8282	3,604.98	64.9402	3,604.98	55.7464	3,604.98	60.2642	3,604.98	53.182	3,604.98	61.8178	3,604.98	55.2473	3,604.98	56.733	3,604.98	50.6234	3,604.98	49.8403	3,604.98	60.3883
3,732.42	88.174	3,732.42	87.6805	3,732.42	87.324	3,732.42	85.7732	3,732.42	85.0535	3,732.42	83.0378	3,732.42	82.0971	3,732.42	80.7673	3,732.42	79.488	3,732.42	77.9043	3,732.42	77.9141	3,732.42	76.9589	3,732.42	77.2736	3,732.42	74.6247	3,732.42	75.8974	3,732.42	72.3122	3,732.42	73.5427	3,732.42	70.4956	3,732.42	71.5172	3,732.42	68.5389	3,732.42	69.5876	3,732.42	65.8037	3,732.42	66.5021	3,732.42	64.9705	3,732.42	66.4418	3,732.42	63.6785	3,732.42	63.4505	3,732.42	59.2211	3,732.42	62.839	3,732.42	62.7376	3,732.42	63.6581	3,732.42	59.3639	3,732.42	60.7582	3,732.42	51.2913	3,732.42	53.6535	3,732.42	61.5333
3,864.26	87.4402	3,864.26	86.5107	3,864.26	86.4166	3,864.26	84.523	3,864.26	83.7224	3,864.26	81.9154	3,864.26	81.0193	3,864.26	79.9716	3,864.26	79.9599	3,864.26	79.607	3,864.26	79.8959	3,864.26	78.0431	3,864.26	78.8356	3,864.26	76.6744	3,864.26	77.1635	3,864.26	74.5843	3,864.26	74.8937	3,864.26	71.077	3,864.26	72.5804	3,864.26	69.6421	3,864.26	70.2171	3,864.26	66.3328	3,864.26	67.7251	3,864.26	66.0024	3,864.26	66.3304	3,864.26	63.2282	3,864.26	66.6895	3,864.26	60.5758	3,864.26	64.0837	3,864.26	64.7495	3,864.26	65.1331	3,864.26	60.4416	3,864.26	59.7344	3,864.26	44.2163	3,864.26	54.6269	3,864.26	61.5964
4,000.49	85.9905	4,000.49	85.4648	4,000.49	84.6278	4,000.49	83.072	4,000.49	82.2824	4,000.49	81.5016	4,000.49	80.8943	4,000.49	81.3398	4,000.49	80.354	4,000.49	80.7858	4,000.49	80.2574	4,000.49	79.5907	4,000.49	79.3351	4,000.49	77.6887	4,000.49	77.4516	4,000.49	74.9645	4,000.49	75.6115	4,000.49	73.5435	4,000.49	72.5534	4,000.49	70.1444	4,000.49	71.0261	4,000.49	68.9119	4,000.49	68.5401	4,000.49	67.5374	4,000.49	67.4257	4,000.49	66.3246	4,000.49	63.4005	4,000.49	64.5157	4,000.49	63.6278	4,000.49	64.782	4,000.49	65.9497	4,000.49	60.9574	4,000.49	60.9699	4,000.49	49.8549	4,000.49	56.8723	4,000.49	62.8785
4,141.11	85.2799	4,141.11	84.3061	4,141.11	84.3638	4,141.11	82.5113	4,141.11	81.8789	4,141.11	81.6031	4,141.11	80.8927	4,141.11	81.2153	4,141.11	81.6723	4,141.11	80.9027	4,141.11	81.4656	4,141.11	79.697	4,141.11	80.0628	4,141.11	77.8247	4,141.11	78.4997	4,141.11	75.7219	4,141.11	75.0203	4,141.11	72.4919	4,141.11	73.5598	4,141.11	70.9046	4,141.11	70.1084	4,141.11	68.6805	4,141.11	69.1172	4,141.11	66.4458	4,141.11	66.8276	4,141.11	64.5284	4,141.11	66.2075	4,141.11	64.1456	4,141.11	63.4407	4,141.11	65.4283	4,141.11	64.6674	4,141.11	62.0941	4,141.11	60.9354	4,141.11	52.2977	4,141.11	55.643	4,141.11	63.1921
4,287.6	85.2337	4,287.6	84.695	4,287.6	84.3174	4,287.6	83.5663	4,287.6	82.675	4,287.6	82.5798	4,287.6	82.4795	4,287.6	82.903	4,287.6	82.2444	4,287.6	82.4927	4,287.6	81.485	4,287.6	80.8767	4,287.6	80.3609	4,287.6	78.855	4,287.6	78.0409	4,287.6	75.9915	4,287.6	76.0194	4,287.6	74.4235	4,287.6	73.7639	4,287.6	72.1447	4,287.6	70.9697	4,287.6	68.9531	4,287.6	69.798	4,287.6	67.3707	4,287.6	67.1567	4,287.6	67.8838	4,287.6	64.5844	4,287.6	65.0925	4,287.6	64.4376	4,287.6	65.707	4,287.6	64.6631	4,287.6	63.1428	4,287.6	61.8008	4,287.6	56.2798	4,287.6	56.662	4,287.6	62.9875
4,438.48	85.7215	4,438.48	85.1953	4,438.48	84.8266	4,438.48	83.1974	4,438.48	83.3168	4,438.48	82.6294	4,438.48	82.2644	4,438.48	82.3666	4,438.48	82.2807	4,438.48	81.5159	4,438.48	81.8899	4,438.48	80.5402	4,438.48	80.2013	4,438.48	78.5939	4,438.48	78.659	4,438.48	76.2411	4,438.48	76.6249	4,438.48	73.3025	4,438.48	73.3708	4,438.48	70.9237	4,438.48	70.5941	4,438.48	70.4921	4,438.48	68.9126	4,438.48	68.0647	4,438.48	66.8063	4,438.48	63.8528	4,438.48	66.4871	4,438.48	66.4248	4,438.48	62.643	4,438.48	64.5133	4,438.48	64.0724	4,438.48	62.0589	4,438.48	62.2823	4,438.48	57.6192	4,438.48	60.6527	4,438.48	63.8474
4,595.21	87.6099	4,595.21	87.0443	4,595.21	86.8128	4,595.21	86.1419	4,595.21	85.0065	4,595.21	84.4903	4,595.21	83.9209	4,595.21	83.9883	4,595.21	82.844	4,595.21	83.4087	4,595.21	81.8497	4,595.21	81.4527	4,595.21	80.7055	4,595.21	79.0947	4,595.21	78.6373	4,595.21	77.4234	4,595.21	75.687	4,595.21	74.9423	4,595.21	74.3429	4,595.21	72.8934	4,595.21	71.4769	4,595.21	69.6524	4,595.21	70.0306	4,595.21	66.7369	4,595.21	66.7944	4,595.21	66.5296	4,595.21	65.6084	4,595.21	64.1441	4,595.21	64.4064	4,595.21	65.0817	4,595.21	64.842	4,595.21	62.5193	4,595.21	60.2252	4,595.21	55.0535	4,595.21	56.2813	4,595.21	62.0567
4,756.35	86.9666	4,756.35	86.7506	4,756.35	86.2968	4,756.35	85.0346	4,756.35	85.0019	4,756.35	83.8047	4,756.35	83.6647	4,756.35	82.8834	4,756.35	82.8669	4,756.35	81.919	4,756.35	82.0004	4,756.35	80.5294	4,756.35	81.0003	4,756.35	79.4878	4,756.35	78.8519	4,756.35	76.803	4,756.35	76.4972	4,756.35	73.6751	4,756.35	73.8787	4,756.35	70.1438	4,756.35	71.642	4,756.35	69.1967	4,756.35	69.0734	4,756.35	68.5505	4,756.35	67.2401	4,756.35	65.0579	4,756.35	65.9174	4,756.35	64.3242	4,756.35	64.8868	4,756.35	64.6117	4,756.35	64.0473	4,756.35	59.5079	4,756.35	62.1769	4,756.35	58.1466	4,756.35	61.2833	4,756.35	63.0917
4,924.8	86.2986	4,924.8	86.2888	4,924.8	85.8175	4,924.8	85.887	4,924.8	84.6893	4,924.8	84.7006	4,924.8	83.3974	4,924.8	83.9528	4,924.8	83.1364	4,924.8	83.31	4,924.8	82.1541	4,924.8	82.1149	4,924.8	81.5924	4,924.8	80.6165	4,924.8	80.0234	4,924.8	78.4021	4,924.8	77.5298	4,924.8	75.8313	4,924.8	75.3394	4,924.8	72.897	4,924.8	71.7974	4,924.8	70.4293	4,924.8	70.1942	4,924.8	65.756	4,924.8	68.1215	4,924.8	67.2116	4,924.8	66.0865	4,924.8	65.8967	4,924.8	65.9291	4,924.8	67.2325	4,924.8	65.4052	4,924.8	63.8704	4,924.8	62.964	4,924.8	57.9195	4,924.8	59.7921	4,924.8	63.1407
5,097.66	85.7418	5,097.66	85.9513	5,097.66	85.9867	5,097.66	85.5866	5,097.66	85.1837	5,097.66	83.6068	5,097.66	84.0719	5,097.66	83.2548	5,097.66	83.2539	5,097.66	82.8362	5,097.66	82.9795	5,097.66	82.2732	5,097.66	82.3126	5,097.66	80.6627	5,097.66	80.7316	5,097.66	77.773	5,097.66	78.4513	5,097.66	74.7816	5,097.66	75.1105	5,097.66	70.7939	5,097.66	72.2842	5,097.66	69.1419	5,097.66	70.9107	5,097.66	67.6806	5,097.66	68.2851	5,097.66	67.2214	5,097.66	67.1249	5,097.66	64.0145	5,097.66	65.1473	5,097.66	65.4887	5,097.66	64.5984	5,097.66	61.0819	5,097.66	63.0222	5,097.66	59.3908	5,097.66	61.1751	5,097.66	63.6085
5,277.83	86.0286	5,277.83	86.3293	5,277.83	86.043	5,277.83	85.602	5,277.83	85.4628	5,277.83	84.2013	5,277.83	83.7682	5,277.83	83.6252	5,277.83	83.889	5,277.83	84.1085	5,277.83	84.2958	5,277.83	83.3384	5,277.83	83.3532	5,277.83	81.8459	5,277.83	81.1334	5,277.83	79.0064	5,277.83	79.5477	5,277.83	76.0661	5,277.83	76.0297	5,277.83	74.1818	5,277.83	73.6704	5,277.83	71.2942	5,277.83	71.3997	5,277.83	69.0586	5,277.83	67.7657	5,277.83	67.5587	5,277.83	67.8308	5,277.83	66.2488	5,277.83	64.8289	5,277.83	67.0669	5,277.83	66.108	5,277.83	65.4389	5,277.83	61.476	5,277.83	59.1637	5,277.83	61.3048	5,277.83	63.5633
5,463.87	86.5599	5,463.87	86.5393	5,463.87	86.3477	5,463.87	86.0774	5,463.87	85.8649	5,463.87	84.4364	5,463.87	83.9005	5,463.87	84.4589	5,463.87	83.8487	5,463.87	84.3276	5,463.87	84.4047	5,463.87	83.314	5,463.87	83.925	5,463.87	80.7716	5,463.87	81.5125	5,463.87	78.7992	5,463.87	79.1231	5,463.87	75.5409	5,463.87	76.2702	5,463.87	73.3471	5,463.87	73.7919	5,463.87	70.1824	5,463.87	70.2151	5,463.87	67.62	5,463.87	69.2023	5,463.87	67.8244	5,463.87	66.4185	5,463.87	65.2764	5,463.87	65.3797	5,463.87	64.8389	5,463.87	66.4293	5,463.87	64.4548	5,463.87	65.6081	5,463.87	59.4101	5,463.87	59.5904	5,463.87	61.5413
5,657.23	87.1905	5,657.23	87.644	5,657.23	87.5557	5,657.23	86.4675	5,657.23	86.1893	5,657.23	84.6845	5,657.23	84.896	5,657.23	84.2072	5,657.23	83.9329	5,657.23	84.0433	5,657.23	84.3535	5,657.23	83.7799	5,657.23	84.1927	5,657.23	82.2747	5,657.23	82.6575	5,657.23	79.2005	5,657.23	79.8086	5,657.23	76.8795	5,657.23	77.1251	5,657.23	74.1651	5,657.23	73.4304	5,657.23	71.3124	5,657.23	71.1434	5,657.23	69.1195	5,657.23	69.8474	5,657.23	68.42	5,657.23	67.5543	5,657.23	65.5157	5,657.23	67.5942	5,657.23	64.8721	5,657.23	61.429	5,657.23	63.583	5,657.23	63.6773	5,657.23	63.4406	5,657.23	62.5831	5,657.23	60.4073
5,856.45	87.2163	5,856.45	87.4268	5,856.45	87.554	5,856.45	86.5094	5,856.45	86.5568	5,856.45	84.4171	5,856.45	84.562	5,856.45	83.8226	5,856.45	83.9443	5,856.45	84.6527	5,856.45	84.4366	5,856.45	83.8487	5,856.45	83.7867	5,856.45	82.4805	5,856.45	81.551	5,856.45	79.287	5,856.45	78.6004	5,856.45	76.9295	5,856.45	75.9001	5,856.45	74.0976	5,856.45	72.1704	5,856.45	71.1109	5,856.45	69.4349	5,856.45	69.0918	5,856.45	67.7157	5,856.45	69.7049	5,856.45	65.1013	5,856.45	65.6908	5,856.45	62.8691	5,856.45	64.3976	5,856.45	58.8023	5,856.45	65.6541	5,856.45	62.5419	5,856.45	62.5356	5,856.45	63.4956	5,856.45	61.9513
6,062.99	87.5977	6,062.99	88.11	6,062.99	87.7223	6,062.99	87.096	6,062.99	87.106	6,062.99	85.1026	6,062.99	84.7193	6,062.99	84.2683	6,062.99	83.6377	6,062.99	84.374	6,062.99	83.3011	6,062.99	83.9567	6,062.99	82.3333	6,062.99	81.4887	6,062.99	79.9881	6,062.99	79.3081	6,062.99	75.0796	6,062.99	75.4942	6,062.99	73.04	6,062.99	71.0043	6,062.99	69.5109	6,062.99	67.6369	6,062.99	66.9812	6,062.99	67.807	6,062.99	64.4819	6,062.99	64.2126	6,062.99	64.397	6,062.99	64.2181	6,062.99	61.6459	6,062.99	63.3618	6,062.99	59.6129	6,062.99	62.3745	6,062.99	64.6174	6,062.99	61.123	6,062.99	62.2285	6,062.99	60.2059
6,276.86	87.7459	6,276.86	87.9834	6,276.86	87.8118	6,276.86	87.7334	6,276.86	87.3957	6,276.86	85.5927	6,276.86	85.5837	6,276.86	85.0404	6,276.86	85.0441	6,276.86	84.9404	6,276.86	83.9054	6,276.86	83.4594	6,276.86	82.226	6,276.86	81.3856	6,276.86	78.8543	6,276.86	78.2421	6,276.86	76.3753	6,276.86	73.9524	6,276.86	72.8495	6,276.86	70.7912	6,276.86	71.1187	6,276.86	67.6615	6,276.86	68.4207	6,276.86	67.529	6,276.86	66.7169	6,276.86	63.6739	6,276.86	61.4285	6,276.86	58.0879	6,276.86	61.4298	6,276.86	65.627	6,276.86	64.6786	6,276.86	63.958	6,276.86	62.1186	6,276.86	62.5608	6,276.86	63.2486	6,276.86	60.7587
6,498.05	87.7346	6,498.05	87.3624	6,498.05	87.536	6,498.05	86.9339	6,498.05	86.7437	6,498.05	85.8582	6,498.05	85.7159	6,498.05	84.7506	6,498.05	84.3902	6,498.05	84.3819	6,498.05	83.3808	6,498.05	83.1203	6,498.05	81.8311	6,498.05	81.8933	6,498.05	80.2295	6,498.05	79.2462	6,498.05	77.8617	6,498.05	75.1556	6,498.05	74.4737	6,498.05	73.9477	6,498.05	70.5709	6,498.05	69.0935	6,498.05	68.9848	6,498.05	67.8854	6,498.05	67.4707	6,498.05	63.9427	6,498.05	64.3925	6,498.05	64.0913	6,498.05	64.1113	6,498.05	63.8485	6,498.05	61.5587	6,498.05	64.4686	6,498.05	60.562	6,498.05	61.2645	6,498.05	59.1662	6,498.05	60.5115
6,726.56	88.0659	6,726.56	87.9018	6,726.56	87.7885	6,726.56	87.691	6,726.56	86.8896	6,726.56	87.0292	6,726.56	86.1343	6,726.56	85.7331	6,726.56	84.3393	6,726.56	85.2641	6,726.56	83.3498	6,726.56	84.6392	6,726.56	82.574	6,726.56	83.3561	6,726.56	81.1882	6,726.56	79.6398	6,726.56	77.7695	6,726.56	77.3139	6,726.56	74.7629	6,726.56	74.3868	6,726.56	69.3444	6,726.56	72.2187	6,726.56	68.0657	6,726.56	69.4093	6,726.56	67.8769	6,726.56	66.3021	6,726.56	60.4025	6,726.56	65.1665	6,726.56	61.5899	6,726.56	66.0504	6,726.56	62.0096	6,726.56	64.9054	6,726.56	61.4049	6,726.56	61.8973	6,726.56	58.5749	6,726.56	58.3614
6,963.87	89.1742	6,963.87	88.8449	6,963.87	88.299	6,963.87	88.7926	6,963.87	87.5641	6,963.87	87.5943	6,963.87	86.4882	6,963.87	86.2705	6,963.87	84.478	6,963.87	85.7397	6,963.87	82.7395	6,963.87	84.9994	6,963.87	82.1225	6,963.87	83.4057	6,963.87	80.5911	6,963.87	79.5486	6,963.87	76.6538	6,963.87	77.3861	6,963.87	74.4458	6,963.87	73.1919	6,963.87	69.9752	6,963.87	71.4896	6,963.87	67.522	6,963.87	68.8694	6,963.87	65.5858	6,963.87	66.9528	6,963.87	62.6468	6,963.87	66.7611	6,963.87	61.1233	6,963.87	65.0425	6,963.87	61.3583	6,963.87	65.7679	6,963.87	61.5569	6,963.87	61.5548	6,963.87	55.2549	6,963.87	56.378
7,209.96	89.4245	7,209.96	88.9335	7,209.96	88.402	7,209.96	88.9752	7,209.96	87.6886	7,209.96	87.8237	7,209.96	86.2994	7,209.96	86.2429	7,209.96	84.0352	7,209.96	85.9429	7,209.96	82.3125	7,209.96	85.1769	7,209.96	81.4695	7,209.96	83.2698	7,209.96	78.5388	7,209.96	80.3653	7,209.96	75.7392	7,209.96	76.8395	7,209.96	72.4336	7,209.96	72.7802	7,209.96	70.3022	7,209.96	70.6608	7,209.96	64.9751	7,209.96	68.6398	7,209.96	63.5575	7,209.96	65.5938	7,209.96	60.023	7,209.96	65.6771	7,209.96	61.0643	7,209.96	64.5086	7,209.96	59.8504	7,209.96	65.2823	7,209.96	61.6075	7,209.96	60.3324	7,209.96	57.0635	7,209.96	57.1124
7,464.84	89.0438	7,464.84	88.8396	7,464.84	87.9818	7,464.84	88.7839	7,464.84	87.4289	7,464.84	87.7687	7,464.84	85.3596	7,464.84	86.2083	7,464.84	83.2626	7,464.84	85.8434	7,464.84	82.9136	7,464.84	85.2808	7,464.84	81.0046	7,464.84	83.3349	7,464.84	78.4702	7,464.84	80.6389	7,464.84	74.7469	7,464.84	76.0055	7,464.84	71.2205	7,464.84	73.7316	7,464.84	67.0727	7,464.84	70.9422	7,464.84	66.3036	7,464.84	67.9469	7,464.84	64.1248	7,464.84	66.6901	7,464.84	59.2537	7,464.84	65.8854	7,464.84	61.6165	7,464.84	65.1262	7,464.84	60.6632	7,464.84	64.7184	7,464.84	60.0342	7,464.84	58.3864	7,464.84	57.3827	7,464.84	54.3348
7,727.05	89.0066	7,727.05	88.9319	7,727.05	88.1689	7,727.05	88.7224	7,727.05	87.2223	7,727.05	88.2865	7,727.05	85.6194	7,727.05	86.9116	7,727.05	83.3375	7,727.05	85.8802	7,727.05	82.561	7,727.05	85.2271	7,727.05	80.8001	7,727.05	83.1715	7,727.05	78.5265	7,727.05	79.8267	7,727.05	73.6841	7,727.05	76.3728	7,727.05	71.109	7,727.05	73.3014	7,727.05	66.4261	7,727.05	70.8391	7,727.05	65.4138	7,727.05	68.2594	7,727.05	61.4586	7,727.05	66.2061	7,727.05	61.0233	7,727.05	66.1254	7,727.05	60.4932	7,727.05	65.4854	7,727.05	60.7254	7,727.05	64.9898	7,727.05	59.6507	7,727.05	60.2537	7,727.05	52.5723	7,727.05	55.8252
7,999.51	89.2976	7,999.51	89.2383	7,999.51	88.1794	7,999.51	88.9244	7,999.51	86.9193	7,999.51	88.1265	7,999.51	85.4136	7,999.51	86.7739	7,999.51	83.5493	7,999.51	85.8982	7,999.51	81.6826	7,999.51	85.0386	7,999.51	80.5002	7,999.51	82.9659	7,999.51	77.1211	7,999.51	79.5216	7,999.51	74.7571	7,999.51	76.3965	7,999.51	71.3708	7,999.51	73.1445	7,999.51	69.1974	7,999.51	70.1311	7,999.51	65.7125	7,999.51	67.4118	7,999.51	61.3787	7,999.51	63.4657	7,999.51	61.6582	7,999.51	63.9329	7,999.51	60.2677	7,999.51	65.6802	7,999.51	61.8354	7,999.51	64.4627	7,999.51	62.5951	7,999.51	61.1311	7,999.51	50.0673	7,999.51	57.013
8,282.23	89.2773	8,282.23	89.3556	8,282.23	87.9992	8,282.23	88.7248	8,282.23	86.8163	8,282.23	87.8925	8,282.23	85.0834	8,282.23	86.6757	8,282.23	83.6586	8,282.23	85.7198	8,282.23	81.7638	8,282.23	84.7803	8,282.23	80.638	8,282.23	82.8274	8,282.23	78.3532	8,282.23	79.5776	8,282.23	75.3803	8,282.23	76.0287	8,282.23	72.2657	8,282.23	72.6715	8,282.23	69.2835	8,282.23	69.3385	8,282.23	67.0509	8,282.23	65.6397	8,282.23	61.9439	8,282.23	64.7451	8,282.23	63.3125	8,282.23	63.7081	8,282.23	62.549	8,282.23	65.4219	8,282.23	62.0936	8,282.23	63.4689	8,282.23	63.0712	8,282.23	59.6158	8,282.23	53.5269	8,282.23	55.7017
8,573.73	89.044	8,573.73	89.2416	8,573.73	88.1817	8,573.73	88.6385	8,573.73	86.9621	8,573.73	88.1426	8,573.73	85.3961	8,573.73	86.713	8,573.73	83.4703	8,573.73	85.2022	8,573.73	81.8721	8,573.73	84.5988	8,573.73	80.8643	8,573.73	82.6669	8,573.73	79.0961	8,573.73	79.3175	8,573.73	75.4353	8,573.73	76.2068	8,573.73	72.4757	8,573.73	72.1596	8,573.73	68.5363	8,573.73	69.0668	8,573.73	66.7323	8,573.73	66.7158	8,573.73	62.2784	8,573.73	64.7613	8,573.73	65.0788	8,573.73	64.3818	8,573.73	62.516	8,573.73	65.0068	8,573.73	59.8779	8,573.73	62.4535	8,573.73	59.6853	8,573.73	58.2361	8,573.73	54.1623	8,573.73	55.9292
8,876.95	88.9725	8,876.95	89.4333	8,876.95	88.5022	8,876.95	88.8154	8,876.95	87.0439	8,876.95	88.2808	8,876.95	86.0025	8,876.95	86.9433	8,876.95	83.592	8,876.95	85.1392	8,876.95	81.5975	8,876.95	84.5151	8,876.95	80.7664	8,876.95	82.4691	8,876.95	78.6127	8,876.95	79.062	8,876.95	75.2588	8,876.95	76.1368	8,876.95	71.9706	8,876.95	71.9111	8,876.95	69.3435	8,876.95	69.8927	8,876.95	65.7923	8,876.95	67.0661	8,876.95	61.56	8,876.95	63.8888	8,876.95	64.1553	8,876.95	64.309	8,876.95	61.3911	8,876.95	63.5585	8,876.95	56.6678	8,876.95	62.1993	8,876.95	59.331	8,876.95	56.351	8,876.95	49.6946	8,876.95	53.1163
9,188.96	89.1042	9,188.96	89.6312	9,188.96	88.5374	9,188.96	88.8936	9,188.96	86.989	9,188.96	88.1803	9,188.96	86.1621	9,188.96	86.803	9,188.96	83.6713	9,188.96	85.0189	9,188.96	81.3059	9,188.96	84.3593	9,188.96	81.0136	9,188.96	82.358	9,188.96	79.1351	9,188.96	78.9658	9,188.96	75.8582	9,188.96	75.3485	9,188.96	72.7643	9,188.96	71.7033	9,188.96	69.6885	9,188.96	68.2944	9,188.96	66.5836	9,188.96	65.8957	9,188.96	62.289	9,188.96	63.8987	9,188.96	64.5438	9,188.96	63.7563	9,188.96	60.8302	9,188.96	62.35	9,188.96	59.8374	9,188.96	61.4057	9,188.96	61.0797	9,188.96	58.8877	9,188.96	47.0519	9,188.96	53.7393
9,514.16	88.8236	9,514.16	89.2673	9,514.16	88.2072	9,514.16	88.7307	9,514.16	87.1675	9,514.16	87.9386	9,514.16	85.5699	9,514.16	86.452	9,514.16	83.0084	9,514.16	84.4806	9,514.16	81.0828	9,514.16	83.7319	9,514.16	80.9287	9,514.16	81.9307	9,514.16	79.5096	9,514.16	78.3146	9,514.16	76.3574	9,514.16	75.0137	9,514.16	72.9893	9,514.16	71.1307	9,514.16	67.8072	9,514.16	67.4465	9,514.16	66.6964	9,514.16	65.4025	9,514.16	63.2182	9,514.16	63.4826	9,514.16	64.7961	9,514.16	62.5766	9,514.16	60.5573	9,514.16	61.0294	9,514.16	58.2813	9,514.16	61.2579	9,514.16	61.7638	9,514.16	60.3408	9,514.16	44.3494	9,514.16	53.3402
9,849.61	88.1844	9,849.61	88.6221	9,849.61	87.8162	9,849.61	88.251	9,849.61	86.8846	9,849.61	87.3662	9,849.61	84.9731	9,849.61	86.0079	9,849.61	82.3004	9,849.61	83.9111	9,849.61	80.5183	9,849.61	83.3	9,849.61	80.1039	9,849.61	81.7523	9,849.61	78.6063	9,849.61	77.4899	9,849.61	75.1991	9,849.61	74.8586	9,849.61	72.543	9,849.61	70.5752	9,849.61	67.8349	9,849.61	68.3217	9,849.61	64.8601	9,849.61	65.524	9,849.61	62.7353	9,849.61	64.6552	9,849.61	64.4167	9,849.61	62.0859	9,849.61	58.408	9,849.61	60.4151	9,849.61	54.884	9,849.61	60.0445	9,849.61	60.9557	9,849.61	58.6584	9,849.61	41.178	9,849.61	51.6801
10,196.8	87.8783	10,196.8	88.1597	10,196.8	87.2769	10,196.8	88.0806	10,196.8	86.3552	10,196.8	86.9123	10,196.8	84.0126	10,196.8	85.7721	10,196.8	81.8539	10,196.8	83.3049	10,196.8	78.8199	10,196.8	82.9993	10,196.8	78.7649	10,196.8	81.5265	10,196.8	77.1406	10,196.8	78.0393	10,196.8	73.5063	10,196.8	74.5632	10,196.8	70.8179	10,196.8	70.7125	10,196.8	67.241	10,196.8	66.4815	10,196.8	63.2297	10,196.8	64.4628	10,196.8	61.2955	10,196.8	65.3744	10,196.8	62.8157	10,196.8	60.3832	10,196.8	56.9109	10,196.8	59.2788	10,196.8	52.7252	10,196.8	57.243	10,196.8	59.5114	10,196.8	56.4854	10,196.8	48.6814	10,196.8	49.2192
10,555.7	87.9638	10,555.7	88.3156	10,555.7	87.0743	10,555.7	88.3639	10,555.7	85.8201	10,555.7	86.9653	10,555.7	82.3733	10,555.7	85.9697	10,555.7	79.7219	10,555.7	83.4607	10,555.7	77.733	10,555.7	83.3077	10,555.7	76.8249	10,555.7	81.8494	10,555.7	75.8128	10,555.7	78.9877	10,555.7	72.1454	10,555.7	74.7456	10,555.7	68.3408	10,555.7	71.5642	10,555.7	63.9927	10,555.7	67.59	10,555.7	62.4546	10,555.7	64.622	10,555.7	60.2151	10,555.7	63.5972	10,555.7	57.0381	10,555.7	61.1469	10,555.7	52.7432	10,555.7	58.9295	10,555.7	52.0406	10,555.7	58.9912	10,555.7	55.1508	10,555.7	58.8486	10,555.7	46.0144	10,555.7	51.7777
10,927.7	87.8723	10,927.7	88.258	10,927.7	87.1893	10,927.7	88.4651	10,927.7	85.418	10,927.7	86.873	10,927.7	82.2672	10,927.7	85.5863	10,927.7	79.8422	10,927.7	82.8839	10,927.7	77.52	10,927.7	82.5274	10,927.7	76.9259	10,927.7	81.1548	10,927.7	75.2124	10,927.7	77.7879	10,927.7	71.781	10,927.7	74.0751	10,927.7	68.9843	10,927.7	70.4154	10,927.7	66.2542	10,927.7	67.001	10,927.7	62.9132	10,927.7	63.4403	10,927.7	60.7501	10,927.7	62.4788	10,927.7	59.9524	10,927.7	60.0103	10,927.7	55.9819	10,927.7	59.3046	10,927.7	56.1799	10,927.7	58.016	10,927.7	54.9697	10,927.7	58.7883	10,927.7	43.2913	10,927.7	51.8419
11,313	88.0158	11,313	88.4086	11,313	87.2686	11,313	88.2841	11,313	85.2433	11,313	86.717	11,313	83.1268	11,313	85.3096	11,313	81.1512	11,313	82.1976	11,313	78.0728	11,313	81.2391	11,313	77.6442	11,313	79.6911	11,313	77.2705	11,313	75.824	11,313	73.8937	11,313	72.3809	11,313	71.3542	11,313	68.1607	11,313	67.191	11,313	63.734	11,313	64.2793	11,313	63.0724	11,313	62.9636	11,313	63.297	11,313	59.0284	11,313	59.9235	11,313	56.635	11,313	57.4889	11,313	55.4006	11,313	56.9306	11,313	58.1273	11,313	58.684	11,313	47.026	11,313	49.7453
11,712.9	88.1887	11,712.9	88.088	11,712.9	87.1988	11,712.9	88.0692	11,712.9	85.3449	11,712.9	86.5455	11,712.9	83.9178	11,712.9	85.2125	11,712.9	81.9502	11,712.9	81.8177	11,712.9	79.0189	11,712.9	79.8842	11,712.9	78.7114	11,712.9	78.3718	11,712.9	78.5353	11,712.9	74.5961	11,712.9	75.4869	11,712.9	71.5325	11,712.9	72.7307	11,712.9	66.6028	11,712.9	67.3209	11,712.9	62.8542	11,712.9	65.147	11,712.9	63.1754	11,712.9	62.7871	11,712.9	60.594	11,712.9	57.9042	11,712.9	59.6947	11,712.9	57.2182	11,712.9	56.6742	11,712.9	56.5109	11,712.9	54.788	11,712.9	58.8973	11,712.9	58.5115	11,712.9	49.7492	11,712.9	50.2478
12,126	88.1769	12,126	88.1044	12,126	86.7723	12,126	87.6227	12,126	85.3299	12,126	86.5979	12,126	84.1429	12,126	85.3075	12,126	82.6924	12,126	81.7177	12,126	79.4111	12,126	79.5208	12,126	78.9253	12,126	77.8631	12,126	79.0341	12,126	73.9828	12,126	75.1094	12,126	71.3538	12,126	72.4235	12,126	65.471	12,126	67.3406	12,126	63.9523	12,126	64.9963	12,126	62.927	12,126	62.2068	12,126	59.7761	12,126	57.107	12,126	57.9399	12,126	56.6036	12,126	55.5424	12,126	55.784	12,126	53.9463	12,126	59.4234	12,126	57.6192	12,126	49.1977	12,126	50.9826
12,553.7	88.1396	12,553.7	87.7339	12,553.7	86.5941	12,553.7	87.2828	12,553.7	85.5623	12,553.7	86.3265	12,553.7	84.5718	12,553.7	85.2425	12,553.7	82.9379	12,553.7	81.4698	12,553.7	80.1405	12,553.7	79.1661	12,553.7	78.8112	12,553.7	77.6387	12,553.7	78.3922	12,553.7	73.6503	12,553.7	74.3343	12,553.7	70.828	12,553.7	70.6604	12,553.7	65.1718	12,553.7	65.8004	12,553.7	62.7384	12,553.7	62.945	12,553.7	61.6071	12,553.7	59.6181	12,553.7	59.3389	12,553.7	55.789	12,553.7	57.215	12,553.7	53.9718	12,553.7	54.0556	12,553.7	54.0682	12,553.7	52.5136	12,553.7	57.3996	12,553.7	56.2577	12,553.7	46.6784	12,553.7	48.8629
12,996.1	88.329	12,996.1	88.0658	12,996.1	86.8605	12,996.1	87.4099	12,996.1	85.9776	12,996.1	86.1099	12,996.1	84.6041	12,996.1	84.8443	12,996.1	82.7289	12,996.1	81.2367	12,996.1	80.2316	12,996.1	78.5856	12,996.1	78.094	12,996.1	76.8296	12,996.1	76.5699	12,996.1	73.0556	12,996.1	72.4949	12,996.1	69.5558	12,996.1	68.4707	12,996.1	63.8703	12,996.1	63.2563	12,996.1	61.9774	12,996.1	60.7076	12,996.1	60.6878	12,996.1	58.0833	12,996.1	55.1405	12,996.1	54.226	12,996.1	54.8495	12,996.1	51.0662	12,996.1	53.6155	12,996.1	50.4306	12,996.1	48.6329	12,996.1	54.6169	12,996.1	54.6996	12,996.1	46.4665	12,996.1	42.2829
13,454.6	88.3445	13,454.6	88.1434	13,454.6	87.2121	13,454.6	87.3328	13,454.6	86.217	13,454.6	85.8213	13,454.6	84.588	13,454.6	84.2552	13,454.6	82.4053	13,454.6	80.9108	13,454.6	79.7511	13,454.6	78.1939	13,454.6	76.6391	13,454.6	76.0233	13,454.6	74.8066	13,454.6	72.0958	13,454.6	70.1088	13,454.6	68.2706	13,454.6	65.3837	13,454.6	62.1884	13,454.6	60.4011	13,454.6	61.3127	13,454.6	58.6377	13,454.6	59.2945	13,454.6	55.2487	13,454.6	53.9041	13,454.6	48.4864	13,454.6	52.3778	13,454.6	49.4391	13,454.6	49.4272	13,454.6	49.2737	13,454.6	45.4722	13,454.6	50.906	13,454.6	53.0571	13,454.6	40.769	13,454.6	41.0895
13,929.2	88.2431	13,929.2	88.0787	13,929.2	87.3393	13,929.2	87.273	13,929.2	86.1693	13,929.2	85.501	13,929.2	84.1933	13,929.2	83.784	13,929.2	81.9931	13,929.2	80.4234	13,929.2	79.0031	13,929.2	77.5741	13,929.2	75.6789	13,929.2	75.2288	13,929.2	72.5035	13,929.2	71.0263	13,929.2	68.7462	13,929.2	67.2029	13,929.2	62.8738	13,929.2	61.0232	13,929.2	59.4675	13,929.2	60.7308	13,929.2	56.1192	13,929.2	58.0243	13,929.2	53.3575	13,929.2	51.1753	13,929.2	46.9467	13,929.2	51.3997	13,929.2	46.7437	13,929.2	47.7663	13,929.2	46.0699	13,929.2	41.3384	13,929.2	50.2631	13,929.2	50.7041	13,929.2	31.165	13,929.2	39.6149
14,419.9	87.9691	14,419.9	87.797	14,419.9	87.2947	14,419.9	86.9613	14,419.9	85.961	14,419.9	85.019	14,419.9	83.7948	14,419.9	83.2306	14,419.9	81.3898	14,419.9	79.9017	14,419.9	78.3195	14,419.9	77.0193	14,419.9	74.4148	14,419.9	74.1855	14,419.9	71.2179	14,419.9	70.0425	14,419.9	68.196	14,419.9	66.1235	14,419.9	61.8466	14,419.9	60.1114	14,419.9	59.9401	14,419.9	59.8437	14,419.9	54.707	14,419.9	56.0965	14,419.9	52.302	14,419.9	48.9641	14,419.9	42.7601	14,419.9	49.6156	14,419.9	48.5335	14,419.9	44.9715	14,419.9	48.0273	14,419.9	24.6058	14,419.9	49.3785	14,419.9	47.9276	14,419.9	29.7755	14,419.9	38.079
14,928.2	87.6682	14,928.2	87.4165	14,928.2	87.0533	14,928.2	86.5392	14,928.2	85.6447	14,928.2	84.3723	14,928.2	83.2917	14,928.2	82.3518	14,928.2	80.5666	14,928.2	78.7043	14,928.2	77.199	14,928.2	75.3711	14,928.2	73.1777	14,928.2	72.2214	14,928.2	70.1434	14,928.2	68.2459	14,928.2	67.9515	14,928.2	63.7033	14,928.2	61.8859	14,928.2	58.2694	14,928.2	59.8726	14,928.2	58.1168	14,928.2	54.23	14,928.2	53.5462	14,928.2	51.6347	14,928.2	45.081	14,928.2	41.2025	14,928.2	46.0086	14,928.2	47.8662	14,928.2	43.5799	14,928.2	47.6162	14,928.2	31.1541	14,928.2	47.2433	14,928.2	44.4765	14,928.2	37.144	14,928.2	29.1312
15,455.6	87.4104	15,455.6	87.0616	15,455.6	86.7985	15,455.6	86.11	15,455.6	85.2435	15,455.6	83.6656	15,455.6	82.7436	15,455.6	81.2524	15,455.6	79.8588	15,455.6	77.386	15,455.6	76.2304	15,455.6	73.3249	15,455.6	72.4293	15,455.6	69.5711	15,455.6	69.6637	15,455.6	66.1898	15,455.6	68.2247	15,455.6	60.9824	15,455.6	62.9692	15,455.6	56.5094	15,455.6	60.5258	15,455.6	55.5166	15,455.6	55.663	15,455.6	49.5862	15,455.6	51.5503	15,455.6	41.2721	15,455.6	36.5411	15,455.6	43.0369	15,455.6	48.236	15,455.6	41.1312	15,455.6	47.4762	15,455.6	34.9809	15,455.6	46.6479	15,455.6	39.9429	15,455.6	41.9269	15,455.6	30.9633
16,000.5	86.9263	16,000.5	86.6228	16,000.5	86.2254	16,000.5	85.4525	16,000.5	84.4695	16,000.5	82.9988	16,000.5	81.7499	16,000.5	80.1529	16,000.5	78.3424	16,000.5	75.7373	16,000.5	74.5079	16,000.5	71.1005	16,000.5	70.7551	16,000.5	67.0788	16,000.5	68.9708	16,000.5	62.9237	16,000.5	67.5818	16,000.5	58.3563	16,000.5	62.4388	16,000.5	53.829	16,000.5	59.8695	16,000.5	52.832	16,000.5	54.6649	16,000.5	46.1828	16,000.5	49.9019	16,000.5	36.0553	16,000.5	34.6944	16,000.5	42.3488	16,000.5	46.4507	16,000.5	38.2508	16,000.5	46.7447	16,000.5	31.7799	16,000.5	44.1716	16,000.5	32.1139	16,000.5	43.4773	16,000.5	39.2624
16,564.5	86.0468	16,564.5	85.7766	16,564.5	85.1977	16,564.5	84.4432	16,564.5	83.145	16,564.5	81.7346	16,564.5	80.1225	16,564.5	78.3674	16,564.5	76.1772	16,564.5	73.0292	16,564.5	72.6276	16,564.5	67.6557	16,564.5	69.5468	16,564.5	61.4419	16,564.5	68.3572	16,564.5	56.781	16,564.5	66.5854	16,564.5	50.8159	16,564.5	62.1545	16,564.5	49.133	16,564.5	59.1466	16,564.5	49.0882	16,564.5	53.8669	16,564.5	40.0454	16,564.5	49.5767	16,564.5	32.0251	16,564.5	38.0552	16,564.5	37.6347	16,564.5	45.0171	16,564.5	35.4407	16,564.5	45.5606	16,564.5	31.4614	16,564.5	42.5541	16,564.5	27.9308	16,564.5	41.7775	16,564.5	39.3717
17,148.9	84.6622	17,148.9	84.4483	17,148.9	83.7292	17,148.9	83.0809	17,148.9	81.6193	17,148.9	80.1252	17,148.9	78.6927	17,148.9	76.4639	17,148.9	74.8406	17,148.9	70.8902	17,148.9	71.8117	17,148.9	65.1226	17,148.9	69.5175	17,148.9	58.5108	17,148.9	68.7974	17,148.9	57.8121	17,148.9	65.9037	17,148.9	48.7249	17,148.9	62.1603	17,148.9	50.4333	17,148.9	57.9393	17,148.9	49.8208	17,148.9	53.4117	17,148.9	41.7002	17,148.9	50.7092	17,148.9	28.6676	17,148.9	43.5175	17,148.9	28.4422	17,148.9	43.88	17,148.9	33.6217	17,148.9	45.9974	17,148.9	36.1555	17,148.9	40.2258	17,148.9	35.0006	17,148.9	42.1997	17,148.9	39.5276
17,752.4	85.8785	17,752.4	85.3762	17,752.4	85.0575	17,752.4	83.686	17,752.4	82.8662	17,752.4	80.4454	17,752.4	79.5433	17,752.4	76.562	17,752.4	74.3829	17,752.4	70.876	17,752.4	70.1606	17,752.4	64.4381	17,752.4	66.5878	17,752.4	52.5502	17,752.4	64.6061	17,752.4	46.1042	17,752.4	60.8881	17,752.4	35.8491	17,752.4	57.2472	17,752.4	41.4566	17,752.4	51.9309	17,752.4	44.6929	17,752.4	44.072	17,752.4	46.4033	17,752.4	50.4031	17,752.4	42.9039	17,752.4	44.9111	17,752.4	33.1702	17,752.4	40.1655	17,752.4	32.3651	17,752.4	43.7859	17,752.4	36.3206	17,752.4	32.3315	17,752.4	38.3403	17,752.4	39.4661	17,752.4	35.4351
18,379.4	85.5245	18,379.4	85.1412	18,379.4	84.3693	18,379.4	83.1487	18,379.4	81.5176	18,379.4	79.3351	18,379.4	77.2088	18,379.4	74.3347	18,379.4	71.2783	18,379.4	65.2374	18,379.4	66.5193	18,379.4	53.2844	18,379.4	62.4809	18,379.4	57.0942	18,379.4	64.4458	18,379.4	55.175	18,379.4	61.1877	18,379.4	53.6626	18,379.4	57.184	18,379.4	46.3936	18,379.4	49.2641	18,379.4	40.2356	18,379.4	50.2292	18,379.4	45.5711	18,379.4	41.6383	18,379.4	40.3033	18,379.4	34.9172	18,379.4	33.6368	18,379.4	41.1409	18,379.4	24.1883	18,379.4	43.1064	18,379.4	38.9092	18,379.4	39.9179	18,379.4	39.2339	18,379.4	38.9238	18,379.4	37.1533
19,026.9	84.5404	19,026.9	84.0308	19,026.9	83.183	19,026.9	81.8334	19,026.9	80.0765	19,026.9	77.4501	19,026.9	75.503	19,026.9	71.0031	19,026.9	69.05	19,026.9	59.7077	19,026.9	64.254	19,026.9	55.9852	19,026.9	62.8716	19,026.9	61.6103	19,026.9	64.1538	19,026.9	58.7018	19,026.9	61.0663	19,026.9	57.6226	19,026.9	55.1115	19,026.9	49.0604	19,026.9	45.5613	19,026.9	41.3168	19,026.9	48.0313	19,026.9	45.0023	19,026.9	42.6614	19,026.9	38.3394	19,026.9	34.7289	19,026.9	29.4618	19,026.9	38.9768	19,026.9	28.6826	19,026.9	42.1781	19,026.9	37.2338	19,026.9	36.9459	19,026.9	39.1952	19,026.9	36.3624	19,026.9	36.7551
19,697.8	83.74	19,697.8	83.0063	19,697.8	82.2548	19,697.8	80.4282	19,697.8	78.9455	19,697.8	75.4183	19,697.8	74.0093	19,697.8	66.9518	19,697.8	67.0368	19,697.8	55.0864	19,697.8	63.8473	19,697.8	60.9083	19,697.8	61.9724	19,697.8	63.0671	19,697.8	61.174	19,697.8	59.3914	19,697.8	60.1553	19,697.8	57.9068	19,697.8	52.4269	19,697.8	50.8825	19,697.8	47.7184	19,697.8	46.3687	19,697.8	44.516	19,697.8	43.6996	19,697.8	38.795	19,697.8	36.3394	19,697.8	33.1215	19,697.8	30.6719	19,697.8	36.1918	19,697.8	29.2761	19,697.8	39.8788	19,697.8	35.1795	19,697.8	36.3417	19,697.8	41.6257	19,697.8	35.9564	19,697.8	38.3631
19,999.5	83.7457	19,999.5	82.7364	19,999.5	82.2599	19,999.5	79.8312	19,999.5	78.7337	19,999.5	74.2464	19,999.5	73.553	19,999.5	64.9032	19,999.5	66.2573	19,999.5	56.7551	19,999.5	62.9439	19,999.5	61.6766	19,999.5	61.3482	19,999.5	64.1356	19,999.5	61.8358	19,999.5	58.651	19,999.5	58.7176	19,999.5	57.8752	19,999.5	50.1513	19,999.5	52.9271	19,999.5	50.5512	19,999.5	44.8653	19,999.5	38.7984	19,999.5	43.2225	19,999.5	46.258	19,999.5	43.4008	19,999.5	35.6509	19,999.5	38.1903	19,999.5	42.3187	19,999.5	48.9343	19,999.5	38.2884	19,999.5	41.7961	19,999.5	44.5548	19,999.5	40.2461	19,999.5	41.9702	19,999.5	32.6998
