"SPL Vertical"
"On-Axis"		"10°"		"-10°"		"20°"		"-20°"		"30°"		"-30°"		"40°"		"-40°"		"50°"		"-50°"		"60°"		"-60°"		"70°"		"-70°"		"80°"		"-80°"		"90°"		"-90°"		"100°"		"-100°"		"110°"		"-110°"		"120°"		"-120°"		"130°"		"-130°"		"140°"		"-140°"		"150°"		"-150°"		"160°"		"-160°"		"170°"		"-170°"		"180°"
"Frequency / Hz"	"Sound Pressure Level / dB (re 20 µPa/V)  [2.83  V @ 1. m]"	"Frequency / Hz"	"Sound Pressure Level / dB (re 20 µPa/V)  [2.83  V @ 1. m]"	"Frequency / Hz"	"Sound Pressure Level / dB (re 20 µPa/V)  [2.83  V @ 1. m]"	"Frequency / Hz"	"Sound Pressure Level / dB (re 20 µPa/V)  [2.83  V @ 1. m]"	"Frequency / Hz"	"Sound Pressure Level / dB (re 20 µPa/V)  [2.83  V @ 1. m]"	"Frequency / Hz"	"Sound Pressure Level / dB (re 20 µPa/V)  [2.83  V @ 1. m]"	"Frequency / Hz"	"Sound Pressure Level / dB (re 20 µPa/V)  [2.83  V @ 1. m]"	"Frequency / Hz"	"Sound Pressure Level / dB (re 20 µPa/V)  [2.83  V @ 1. m]"	"Frequency / Hz"	"Sound Pressure Level / dB (re 20 µPa/V)  [2.83  V @ 1. m]"	"Frequency / Hz"	"Sound Pressure Level / dB (re 20 µPa/V)  [2.83  V @ 1. m]"	"Frequency / Hz"	"Sound Pressure Level / dB (re 20 µPa/V)  [2.83  V @ 1. m]"	"Frequency / Hz"	"Sound Pressure Level / dB (re 20 µPa/V)  [2.83  V @ 1. m]"	"Frequency / Hz"	"Sound Pressure Level / dB (re 20 µPa/V)  [2.83  V @ 1. m]"	"Frequency / Hz"	"Sound Pressure Level / dB (re 20 µPa/V)  [2.83  V @ 1. m]"	"Frequency / Hz"	"Sound Pressure Level / dB (re 20 µPa/V)  [2.83  V @ 1. m]"	"Frequency / Hz"	"Sound Pressure Level / dB (re 20 µPa/V)  [2.83  V @ 1. m]"	"Frequency / Hz"	"Sound Pressure Level / dB (re 20 µPa/V)  [2.83  V @ 1. m]"	"Frequency / Hz"	"Sound Pressure Level / dB (re 20 µPa/V)  [2.83  V @ 1. m]"	"Frequency / Hz"	"Sound Pressure Level / dB (re 20 µPa/V)  [2.83  V @ 1. m]"	"Frequency / Hz"	"Sound Pressure Level / dB (re 20 µPa/V)  [2.83  V @ 1. m]"	"Frequency / Hz"	"Sound Pressure Level / dB (re 20 µPa/V)  [2.83  V @ 1. m]"	"Frequency / Hz"	"Sound Pressure Level / dB (re 20 µPa/V)  [2.83  V @ 1. m]"	"Frequency / Hz"	"Sound Pressure Level / dB (re 20 µPa/V)  [2.83  V @ 1. m]"	"Frequency / Hz"	"Sound Pressure Level / dB (re 20 µPa/V)  [2.83  V @ 1. m]"	"Frequency / Hz"	"Sound Pressure Level / dB (re 20 µPa/V)  [2.83  V @ 1. m]"	"Frequency / Hz"	"Sound Pressure Level / dB (re 20 µPa/V)  [2.83  V @ 1. m]"	"Frequency / Hz"	"Sound Pressure Level / dB (re 20 µPa/V)  [2.83  V @ 1. m]"	"Frequency / Hz"	"Sound Pressure Level / dB (re 20 µPa/V)  [2.83  V @ 1. m]"	"Frequency / Hz"	"Sound Pressure Level / dB (re 20 µPa/V)  [2.83  V @ 1. m]"	"Frequency / Hz"	"Sound Pressure Level / dB (re 20 µPa/V)  [2.83  V @ 1. m]"	"Frequency / Hz"	"Sound Pressure Level / dB (re 20 µPa/V)  [2.83  V @ 1. m]"	"Frequency / Hz"	"Sound Pressure Level / dB (re 20 µPa/V)  [2.83  V @ 1. m]"	"Frequency / Hz"	"Sound Pressure Level / dB (re 20 µPa/V)  [2.83  V @ 1. m]"	"Frequency / Hz"	"Sound Pressure Level / dB (re 20 µPa/V)  [2.83  V @ 1. m]"	"Frequency / Hz"	"Sound Pressure Level / dB (re 20 µPa/V)  [2.83  V @ 1. m]"	"Frequency / Hz"	"Sound Pressure Level / dB (re 20 µPa/V)  [2.83  V @ 1. m]"
20.5078	43.4983	20.5078	47.2617	20.5078	47.9436	20.5078	51.7814	20.5078	52.2843	20.5078	54.8374	20.5078	55.1896	20.5078	56.994	20.5078	57.19	20.5078	58.5817	20.5078	58.5682	20.5078	59.7744	20.5078	59.4608	20.5078	60.6702	20.5078	59.9324	20.5078	61.3282	20.5078	60.0075	20.5078	61.7848	20.5078	59.6824	20.5078	62.0612	20.5078	58.9234	20.5078	62.1666	20.5078	57.6505	20.5078	62.0989	20.5078	55.6966	20.5078	61.8437	20.5078	52.6963	20.5078	61.3721	20.5078	47.7766	20.5078	60.6391	20.5078	41.9134	20.5078	59.5781	20.5078	47.9082	20.5078	58.0848	20.5078	52.8762	20.5078	55.9757
21.9727	58.4088	21.9727	56.0872	21.9727	60.3897	21.9727	53.5786	21.9727	62.0412	21.9727	51.5907	21.9727	63.3992	21.9727	51.2837	21.9727	64.4936	21.9727	52.4186	21.9727	65.3434	21.9727	53.8052	21.9727	65.9594	21.9727	54.8968	21.9727	66.3476	21.9727	55.5875	21.9727	66.5121	21.9727	55.8799	21.9727	66.4574	21.9727	55.7811	21.9727	66.1873	21.9727	55.2747	21.9727	65.7037	21.9727	54.3076	21.9727	65.0034	21.9727	52.779	21.9727	64.0749	21.9727	50.5768	21.9727	62.8964	21.9727	48.0631	21.9727	61.4313	21.9727	47.8951	21.9727	59.6223	21.9727	51.1115	21.9727	57.3783	21.9727	54.567
23.4375	61.3756	23.4375	59.8569	23.4375	62.8414	23.4375	58.4844	23.4375	64.1596	23.4375	57.5534	23.4375	65.293	23.4375	57.267	23.4375	66.2282	23.4375	57.5212	23.4375	66.9594	23.4375	58.0168	23.4375	67.4824	23.4375	58.5032	23.4375	67.7939	23.4375	58.8475	23.4375	67.8922	23.4375	58.9957	23.4375	67.7788	23.4375	58.9326	23.4375	67.4585	23.4375	58.6624	23.4375	66.9391	23.4375	58.2064	23.4375	66.2302	23.4375	57.618	23.4375	65.3416	23.4375	57.017	23.4375	64.2822	23.4375	56.63	23.4375	63.062	23.4375	56.7478	23.4375	61.6981	23.4375	57.5126	23.4375	60.2327	23.4375	58.7685
24.9023	64.3857	24.9023	63.4155	24.9023	65.4389	24.9023	62.6588	24.9023	66.4701	24.9023	62.2209	24.9023	67.41	24.9023	62.116	24.9023	68.2163	24.9023	62.2563	24.9023	68.863	24.9023	62.5105	24.9023	69.3327	24.9023	62.7654	24.9023	69.6142	24.9023	62.9474	24.9023	69.7011	24.9023	63.018	24.9023	69.5924	24.9023	62.9629	24.9023	69.2925	24.9023	62.7851	24.9023	68.811	24.9023	62.504	24.9023	68.162	24.9023	62.1591	24.9023	67.3645	24.9023	61.8181	24.9023	66.4433	24.9023	61.5817	24.9023	65.433	24.9023	61.569	24.9023	64.3843	24.9023	61.8705	24.9023	63.3716	24.9023	62.4964
26.3672	66.7491	26.3672	66.0528	26.3672	67.5453	26.3672	65.5233	26.3672	68.3675	26.3672	65.1945	26.3672	69.1512	26.3672	65.0522	26.3672	69.8476	26.3672	65.0431	26.3672	70.4209	26.3672	65.1004	26.3672	70.8453	26.3672	65.165	26.3672	71.1029	26.3672	65.1961	26.3672	71.1826	26.3672	65.1711	26.3672	71.081	26.3672	65.0838	26.3672	70.8026	26.3672	64.9421	26.3672	70.3602	26.3672	64.7659	26.3672	69.7751	26.3672	64.5873	26.3672	69.0759	26.3672	64.4499	26.3672	68.2977	26.3672	64.4066	26.3672	67.4811	26.3672	64.5107	26.3672	66.6714	26.3672	64.7997	26.3672	65.9193	26.3672	65.2788
27.832	67.1042	27.832	66.4549	27.832	67.9229	27.832	66.0664	27.832	68.8042	27.832	65.9664	27.832	69.6598	27.832	66.1003	27.832	70.4275	27.832	66.3657	27.832	71.0653	27.832	66.6619	27.832	71.5449	27.832	66.9168	27.832	71.8468	27.832	67.0891	27.832	71.959	27.832	67.1616	27.832	71.8772	27.832	67.1328	27.832	71.6062	27.832	67.0126	27.832	71.1603	27.832	66.8195	27.832	70.5636	27.832	66.5812	27.832	69.8493	27.832	66.3358	27.832	69.0607	27.832	66.1335	27.832	68.252	27.832	66.0341	27.832	67.4879	27.832	66.0969	27.832	66.8379	27.832	66.363
29.2969	70.4152	29.2969	69.8429	29.2969	71.1057	29.2969	69.455	29.2969	71.8379	29.2969	69.2804	29.2969	72.545	29.2969	69.2957	29.2969	73.1759	29.2969	69.4375	29.2969	73.6935	29.2969	69.6304	29.2969	74.0716	29.2969	69.8104	29.2969	74.2916	29.2969	69.934	29.2969	74.3423	29.2969	69.9771	29.2969	74.22	29.2969	69.9319	29.2969	73.9296	29.2969	69.8024	29.2969	73.4855	29.2969	69.6033	29.2969	72.9113	29.2969	69.3594	29.2969	72.2392	29.2969	69.1068	29.2969	71.5093	29.2969	68.8942	29.2969	70.7694	29.2969	68.7801	29.2969	70.0745	29.2969	68.8214	29.2969	69.4848	29.2969	69.0557
30.7617	71.9626	30.7617	71.0286	30.7617	72.8662	30.7617	70.1104	30.7617	73.705	30.7617	69.2647	30.7617	74.4537	30.7617	68.5487	30.7617	75.0926	30.7617	68.0022	30.7617	75.6057	30.7617	67.6309	30.7617	75.979	30.7617	67.4061	30.7617	76.2011	30.7617	67.2822	30.7617	76.2645	30.7617	67.2193	30.7617	76.1675	30.7617	67.1973	30.7617	75.9152	30.7617	67.2198	30.7617	75.5199	30.7617	67.3102	30.7617	74.9995	30.7617	67.5017	30.7617	74.375	30.7617	67.8251	30.7617	73.6679	30.7617	68.2952	30.7617	72.8987	30.7617	68.9046	30.7617	72.0866	30.7617	69.626	30.7617	71.2524	30.7617	70.4214
32.2266	75.0008	32.2266	74.5891	32.2266	75.4462	32.2266	74.2281	32.2266	75.9021	32.2266	73.9277	32.2266	76.3426	32.2266	73.6889	32.2266	76.7409	32.2266	73.5059	32.2266	77.0716	32.2266	73.3683	32.2266	77.3122	32.2266	73.2639	32.2266	77.4447	32.2266	73.1819	32.2266	77.4581	32.2266	73.1143	32.2266	77.3494	32.2266	73.0579	32.2266	77.1249	32.2266	73.014	32.2266	76.8003	32.2266	72.9883	32.2266	76.3982	32.2266	72.9901	32.2266	75.9454	32.2266	73.0307	32.2266	75.4688	32.2266	73.1216	32.2266	74.9939	32.2266	73.2729	32.2266	74.5424	32.2266	73.4916	32.2266	74.1329	32.2266	73.7795
33.6914	76.3781	33.6914	76.0444	33.6914	76.7496	33.6914	75.7619	33.6914	77.139	33.6914	75.5359	33.6914	77.5222	33.6914	75.3641	33.6914	77.8733	33.6914	75.2379	33.6914	78.1669	33.6914	75.1452	33.6914	78.3799	33.6914	75.0734	33.6914	78.4939	33.6914	75.0118	33.6914	78.4964	33.6914	74.9531	33.6914	78.3838	33.6914	74.8943	33.6914	78.1623	33.6914	74.8369	33.6914	77.8483	33.6914	74.7867	33.6914	77.466	33.6914	74.7527	33.6914	77.0444	33.6914	74.746	33.6914	76.6123	33.6914	74.7786	33.6914	76.1951	33.6914	74.8617	33.6914	75.8133	33.6914	75.0039	33.6914	75.4818	33.6914	75.2105
35.1562	77.592	35.1562	77.3133	35.1562	77.9079	35.1562	77.0821	35.1562	78.244	35.1562	76.9009	35.1562	78.5785	35.1562	76.7654	35.1562	78.8873	35.1562	76.6664	35.1562	79.1457	35.1562	76.5923	35.1562	79.3318	35.1562	76.5317	35.1562	79.4276	35.1562	76.4754	35.1562	79.422	35.1562	76.4179	35.1562	79.3126	35.1562	76.3577	35.1562	79.1071	35.1562	76.2975	35.1562	78.8227	35.1562	76.2439	35.1562	78.4836	35.1562	76.2057	35.1562	78.1165	35.1562	76.1932	35.1562	77.7462	35.1562	76.2163	35.1562	77.3933	35.1562	76.2833	35.1562	77.0732	35.1562	76.4005	35.1562	76.7969	35.1562	76.5716
36.6211	78.4636	36.6211	78.2324	36.6211	78.7333	36.6211	78.0474	36.6211	79.0267	36.6211	77.9089	36.6211	79.3232	36.6211	77.8107	36.6211	79.5992	36.6211	77.7427	36.6211	79.8299	36.6211	77.6933	36.6211	79.9927	36.6211	77.6517	36.6211	80.0689	36.6211	77.6094	36.6211	80.0468	36.6211	77.5611	36.6211	79.9237	36.6211	77.5051	36.6211	79.7077	36.6211	77.4428	36.6211	79.4176	36.6211	77.3786	36.6211	79.0796	36.6211	77.3191	36.6211	78.7234	36.6211	77.2726	36.6211	78.3762	36.6211	77.2487	36.6211	78.0593	36.6211	77.2575	36.6211	77.7877	36.6211	77.3088	36.6211	77.5705	36.6211	77.4113
38.0859	79.0331	38.0859	78.7779	38.0859	79.316	38.0859	78.5593	38.0859	79.6119	38.0859	78.3797	38.0859	79.9014	38.0859	78.2359	38.0859	80.1623	38.0859	78.1207	38.0859	80.3716	38.0859	78.0246	38.0859	80.5076	38.0859	77.9383	38.0859	80.552	38.0859	77.8541	38.0859	80.4931	38.0859	77.7668	38.0859	80.3276	38.0859	77.6746	38.0859	80.0628	38.0859	77.5787	38.0859	79.7171	38.0859	77.4833	38.0859	79.3178	38.0859	77.395	38.0859	78.8977	38.0859	77.3224	38.0859	78.4896	38.0859	77.2757	38.0859	78.1211	38.0859	77.2662	38.0859	77.8118	38.0859	77.3055	38.0859	77.5722	38.0859	77.4047
39.5508	80.4476	39.5508	80.2175	39.5508	80.6982	39.5508	80.0139	39.5508	80.9587	39.5508	79.8384	39.5508	81.2144	39.5508	79.6882	39.5508	81.4477	39.5508	79.5582	39.5508	81.6398	39.5508	79.4419	39.5508	81.7725	39.5508	79.3332	39.5508	81.8306	39.5508	79.2276	39.5508	81.8042	39.5508	79.1228	39.5508	81.6906	39.5508	79.0197	39.5508	81.4956	39.5508	78.9218	39.5508	81.2328	39.5508	78.836	39.5508	80.9209	39.5508	78.771	39.5508	80.581	39.5508	78.7371	39.5508	80.2332	39.5508	78.7446	39.5508	79.8957	39.5508	78.802	39.5508	79.5837	39.5508	78.9149	39.5508	79.3102	39.5508	79.0851
41.0156	81.1306	41.0156	80.9266	41.0156	81.3508	41.0156	80.744	41.0156	81.5777	41.0156	80.5845	41.0156	81.7985	41.0156	80.4463	41.0156	81.9977	41.0156	80.3255	41.0156	82.1583	41.0156	80.2176	41.0156	82.2644	41.0156	80.118	41.0156	82.3026	41.0156	80.0236	41.0156	82.265	41.0156	79.9332	41.0156	82.1511	41.0156	79.8482	41.0156	81.9688	41.0156	79.7723	41.0156	81.7333	41.0156	79.7113	41.0156	81.4642	41.0156	79.6725	41.0156	81.1812	41.0156	79.6627	41.0156	80.9007	41.0156	79.688	41.0156	80.6348	41.0156	79.7519	41.0156	80.3921	41.0156	79.8557	41.0156	80.1786	41.0156	79.9986
42.4805	81.7454	42.4805	81.5578	42.4805	81.9456	42.4805	81.3879	42.4805	82.1503	42.4805	81.2375	42.4805	82.3481	42.4805	81.1061	42.4805	82.5251	42.4805	80.9915	42.4805	82.6661	42.4805	80.8906	42.4805	82.7565	42.4805	80.8007	42.4805	82.7841	42.4805	80.7197	42.4805	82.7416	42.4805	80.6465	42.4805	82.6291	42.4805	80.5816	42.4805	82.4545	42.4805	80.5267	42.4805	82.2328	42.4805	80.4848	42.4805	81.9832	42.4805	80.4596	42.4805	81.7247	42.4805	80.4551	42.4805	81.4734	42.4805	80.4751	42.4805	81.2406	42.4805	80.5231	42.4805	81.0337	42.4805	80.6018	42.4805	80.857	42.4805	80.7128
43.9453	82.2288	43.9453	82.0622	43.9453	82.4024	43.9453	81.9067	43.9453	82.5764	43.9453	81.7638	43.9453	82.7414	43.9453	81.6334	43.9453	82.8855	43.9453	81.5142	43.9453	82.9956	43.9453	81.4046	43.9453	83.0589	43.9453	81.3032	43.9453	83.0644	43.9453	81.2094	43.9453	83.0062	43.9453	81.1234	43.9453	82.8847	43.9453	81.0462	43.9453	82.7081	43.9453	80.98	43.9453	82.4912	43.9453	80.9275	43.9453	82.2523	43.9453	80.892	43.9453	82.009	43.9453	80.8771	43.9453	81.7757	43.9453	80.8863	43.9453	81.5618	43.9453	80.9227	43.9453	81.3733	43.9453	80.9886	43.9453	81.2139	43.9453	81.0855
45.4102	82.8051	45.4102	82.666	45.4102	82.9492	45.4102	82.5354	45.4102	83.0928	45.4102	82.4142	45.4102	83.2275	45.4102	82.3018	45.4102	83.3426	45.4102	82.1965	45.4102	83.4263	45.4102	82.0963	45.4102	83.4668	45.4102	81.9997	45.4102	83.4545	45.4102	81.9059	45.4102	83.3841	45.4102	81.8155	45.4102	83.2567	45.4102	81.7305	45.4102	83.0812	45.4102	81.654	45.4102	82.8725	45.4102	81.5898	45.4102	82.6489	45.4102	81.5422	45.4102	82.4275	45.4102	81.5151	45.4102	82.2212	45.4102	81.5112	45.4102	82.0381	45.4102	81.5325	45.4102	81.8818	45.4102	81.5796	45.4102	81.7536	45.4102	81.653
46.875	83.1305	46.875	82.9843	46.875	83.2799	46.875	82.8457	46.875	83.4261	46.875	82.7174	46.875	83.5605	46.875	82.6003	46.875	83.6729	46.875	82.4946	46.875	83.752	46.875	82.3995	46.875	83.787	46.875	82.3142	46.875	83.7692	46.875	82.238	46.875	83.6946	46.875	82.1705	46.875	83.5654	46.875	82.1121	46.875	83.3914	46.875	82.0634	46.875	83.1885	46.875	82.0256	46.875	82.9755	46.875	82.0001	46.875	82.7696	46.875	81.9883	46.875	82.5833	46.875	81.9918	46.875	82.4235	46.875	82.0119	46.875	82.292	46.875	82.05	46.875	82.1876	46.875	82.1078
48.3398	83.4779	48.3398	83.3324	48.3398	83.6225	48.3398	83.1907	48.3398	83.76	48.3398	83.0568	48.3398	83.8833	48.3398	82.9336	48.3398	83.9835	48.3398	82.8236	48.3398	84.0513	48.3398	82.7285	48.3398	84.0777	48.3398	82.6493	48.3398	84.0559	48.3398	82.5864	48.3398	83.9835	48.3398	82.5394	48.3398	83.8642	48.3398	82.5072	48.3398	83.7083	48.3398	82.4884	48.3398	83.5309	48.3398	82.4812	48.3398	83.3487	48.3398	82.4837	48.3398	83.1758	48.3398	82.4945	48.3398	83.0214	48.3398	82.5132	48.3398	82.8898	48.3398	82.5403	48.3398	82.7815	48.3398	82.5777	48.3398	82.6951	48.3398	82.6282
51.2695	84.313	51.2695	84.1994	51.2695	84.417	51.2695	84.0796	51.2695	84.5072	51.2695	83.9567	51.2695	84.5787	51.2695	83.8336	51.2695	84.6254	51.2695	83.7133	51.2695	84.6409	51.2695	83.5987	51.2695	84.6188	51.2695	83.4926	51.2695	84.555	51.2695	83.3979	51.2695	84.4492	51.2695	83.3167	51.2695	84.3066	51.2695	83.2506	51.2695	84.1386	51.2695	83.2003	51.2695	83.9608	51.2695	83.1655	51.2695	83.7888	51.2695	83.1452	51.2695	83.635	51.2695	83.1379	51.2695	83.5058	51.2695	83.1418	51.2695	83.4023	51.2695	83.1559	51.2695	83.3217	51.2695	83.1796	51.2695	83.2601	51.2695	83.2137
52.7344	84.7032	52.7344	84.5982	52.7344	84.7944	52.7344	84.4827	52.7344	84.8682	52.7344	84.3595	52.7344	84.9202	52.7344	84.2318	52.7344	84.9454	52.7344	84.1027	52.7344	84.9381	52.7344	83.9754	52.7344	84.8934	52.7344	83.8536	52.7344	84.8079	52.7344	83.7404	52.7344	84.6824	52.7344	83.6389	52.7344	84.5226	52.7344	83.5515	52.7344	84.3399	52.7344	83.4797	52.7344	84.1494	52.7344	83.4241	52.7344	83.9671	52.7344	83.3845	52.7344	83.8055	52.7344	83.3601	52.7344	83.6717	52.7344	83.3497	52.7344	83.567	52.7344	83.3519	52.7344	83.4888	52.7344	83.366	52.7344	83.432	52.7344	83.3922
54.1992	85.0789	54.1992	84.9837	54.1992	85.1573	54.1992	84.8746	54.1992	85.216	54.1992	84.7542	54.1992	85.2516	54.1992	84.6258	54.1992	85.2601	54.1992	84.4929	54.1992	85.2375	54.1992	84.3593	54.1992	85.1801	54.1992	84.229	54.1992	85.0856	54.1992	84.1056	54.1992	84.9552	54.1992	83.992	54.1992	84.7941	54.1992	83.8904	54.1992	84.6123	54.1992	83.8016	54.1992	84.4227	54.1992	83.7262	54.1992	84.2387	54.1992	83.6642	54.1992	84.071	54.1992	83.6164	54.1992	83.9262	54.1992	83.5841	54.1992	83.8071	54.1992	83.5693	54.1992	83.7138	54.1992	83.5737	54.1992	83.6448	54.1992	83.5985
55.6641	85.3768	55.6641	85.2763	55.6641	85.4589	55.6641	85.161	55.6641	85.5193	55.6641	85.0345	55.6641	85.5544	55.6641	84.9013	55.6641	85.5607	55.6641	84.7658	55.6641	85.5346	55.6641	84.633	55.6641	85.4733	55.6641	84.5073	55.6641	85.3757	55.6641	84.3927	55.6641	85.2442	55.6641	84.292	55.6641	85.0853	55.6641	84.2066	55.6641	84.9101	55.6641	84.1366	55.6641	84.7319	55.6641	84.0808	55.6641	84.5636	55.6641	84.0379	55.6641	84.4144	55.6641	84.0067	55.6641	84.2888	55.6641	83.9871	55.6641	84.1871	55.6641	83.98	55.6641	84.108	55.6641	83.987	55.6641	84.0494	55.6641	84.0095
58.5938	85.8449	58.5938	85.7576	58.5938	85.9121	58.5938	85.6537	58.5938	85.9562	58.5938	85.5373	58.5938	85.9746	58.5938	85.4131	58.5938	85.965	58.5938	85.2862	58.5938	85.9252	58.5938	85.1617	58.5938	85.8542	58.5938	85.0448	58.5938	85.7526	58.5938	84.9399	58.5938	85.6243	58.5938	84.8504	58.5938	85.4771	58.5938	84.7783	58.5938	85.3221	58.5938	84.7241	58.5938	85.1722	58.5938	84.687	58.5938	85.0385	58.5938	84.6648	58.5938	84.9279	58.5938	84.6547	58.5938	84.8424	58.5938	84.6537	58.5938	84.7799	58.5938	84.6591	58.5938	84.7359	58.5938	84.6694	58.5938	84.7055	58.5938	84.6844
60.0586	86.0704	60.0586	85.9887	60.0586	86.1308	60.0586	85.889	60.0586	86.1671	60.0586	85.7754	60.0586	86.1771	60.0586	85.6528	60.0586	86.159	60.0586	85.5265	60.0586	86.1116	60.0586	85.4022	60.0586	86.0348	60.0586	85.2855	60.0586	85.9304	60.0586	85.1815	60.0586	85.8032	60.0586	85.0939	60.0586	85.662	60.0586	85.0253	60.0586	85.5182	60.0586	84.9762	60.0586	85.3843	60.0586	84.9458	60.0586	85.27	60.0586	84.9315	60.0586	85.18	60.0586	84.9302	60.0586	85.1138	60.0586	84.9381	60.0586	85.0668	60.0586	84.9517	60.0586	85.0334	60.0586	84.9686	60.0586	85.0082	60.0586	84.9873
62.9883	86.6195	62.9883	86.5438	62.9883	86.6695	62.9883	86.446	62.9883	86.691	62.9883	86.3309	62.9883	86.6826	62.9883	86.2041	62.9883	86.6436	62.9883	86.0723	62.9883	86.5743	62.9883	85.9421	62.9883	86.4769	62.9883	85.8204	62.9883	86.3553	62.9883	85.7128	62.9883	86.2165	62.9883	85.6239	62.9883	86.0706	62.9883	85.556	62.9883	85.9299	62.9883	85.5096	62.9883	85.806	62.9883	85.4828	62.9883	85.7074	62.9883	85.4724	62.9883	85.6365	62.9883	85.4741	62.9883	85.5905	62.9883	85.4835	62.9883	85.5629	62.9883	85.4965	62.9883	85.5462	62.9883	85.5103	62.9883	85.5342	62.9883	85.5229
64.4531	86.787	64.4531	86.7138	64.4531	86.8327	64.4531	86.6169	64.4531	86.8485	64.4531	86.5013	64.4531	86.833	64.4531	86.3731	64.4531	86.7861	64.4531	86.2393	64.4531	86.709	64.4531	86.1071	64.4531	86.6045	64.4531	85.9838	64.4531	86.4776	64.4531	85.8756	64.4531	86.3362	64.4531	85.7873	64.4531	86.1908	64.4531	85.7217	64.4531	86.054	64.4531	85.6787	64.4531	85.937	64.4531	85.6565	64.4531	85.8476	64.4531	85.6511	64.4531	85.7871	64.4531	85.6576	64.4531	85.7515	64.4531	85.6708	64.4531	85.7333	64.4531	85.6863	64.4531	85.7246	64.4531	85.7005	64.4531	85.7188	64.4531	85.7114
67.3828	87.1361	67.3828	87.0667	67.3828	87.1741	67.3828	86.97	67.3828	87.1784	67.3828	86.8513	67.3828	87.1482	67.3828	86.7175	67.3828	87.0841	67.3828	86.5762	67.3828	86.9889	67.3828	86.4356	67.3828	86.867	67.3828	86.304	67.3828	86.7254	67.3828	86.1886	67.3828	86.574	67.3828	86.0951	67.3828	86.425	67.3828	86.0268	67.3828	86.2914	67.3828	85.9843	67.3828	86.1843	67.3828	85.9656	67.3828	86.1097	67.3828	85.9661	67.3828	86.0667	67.3828	85.9799	67.3828	86.049	67.3828	86.0007	67.3828	86.0469	67.3828	86.0224	67.3828	86.051	67.3828	86.0401	67.3828	86.0539	67.3828	86.0509
68.8477	87.2873	68.8477	87.2215	68.8477	87.3199	68.8477	87.1264	68.8477	87.3169	68.8477	87.0076	68.8477	87.278	68.8477	86.872	68.8477	87.2044	68.8477	86.7276	68.8477	87.0993	68.8477	86.5832	68.8477	86.9683	68.8477	86.4472	68.8477	86.8193	68.8477	86.3275	68.8477	86.6632	68.8477	86.2301	68.8477	86.5127	68.8477	86.1589	68.8477	86.3812	68.8477	86.1149	68.8477	86.2793	68.8477	86.096	68.8477	86.2122	68.8477	86.0978	68.8477	86.1778	68.8477	86.1139	68.8477	86.1685	68.8477	86.1373	68.8477	86.174	68.8477	86.1613	68.8477	86.1842	68.8477	86.1802	68.8477	86.1913	68.8477	86.1906
71.7773	87.6332	71.7773	87.5746	71.7773	87.6555	71.7773	87.4837	71.7773	87.6393	71.7773	87.3663	71.7773	87.5845	71.7773	87.2297	71.7773	87.4931	71.7773	87.0823	71.7773	87.3692	71.7773	86.9331	71.7773	87.2198	71.7773	86.7911	71.7773	87.0541	71.7773	86.6647	71.7773	86.8845	71.7773	86.5605	71.7773	86.7251	71.7773	86.4826	71.7773	86.5897	71.7773	86.4322	71.7773	86.4891	71.7773	86.4074	71.7773	86.4275	71.7773	86.4035	71.7773	86.4018	71.7773	86.414	71.7773	86.403	71.7773	86.4316	71.7773	86.4195	71.7773	86.4494	71.7773	86.4401	71.7773	86.4616	71.7773	86.4568	71.7773	86.4645
74.707	87.9801	74.707	87.9262	74.707	87.995	74.707	87.8377	74.707	87.9689	74.707	87.7207	74.707	87.9018	74.707	87.5832	74.707	87.7965	74.707	87.434	74.707	87.6583	74.707	87.2827	74.707	87.4957	74.707	87.139	74.707	87.3197	74.707	87.0115	74.707	87.1443	74.707	86.9071	74.707	86.9846	74.707	86.8302	74.707	86.8547	74.707	86.782	74.707	86.7643	74.707	86.7602	74.707	86.7163	74.707	86.7597	74.707	86.7057	74.707	86.7735	74.707	86.722	74.707	86.7935	74.707	86.7521	74.707	86.8122	74.707	86.7842	74.707	86.8235	74.707	86.8095	74.707	86.8231
77.6367	88.1299	77.6367	88.0812	77.6367	88.1369	77.6367	87.9953	77.6367	88.1003	77.6367	87.8785	77.6367	88.0209	77.6367	87.7391	77.6367	87.9022	77.6367	87.5866	77.6367	87.7511	77.6367	87.4313	77.6367	87.5777	77.6367	87.2834	77.6367	87.395	77.6367	87.1524	77.6367	87.2187	77.6367	87.046	77.6367	87.065	77.6367	86.9693	77.6367	86.948	77.6367	86.9241	77.6367	86.8761	77.6367	86.9083	77.6367	86.8495	77.6367	86.9167	77.6367	86.8604	77.6367	86.9414	77.6367	86.8959	77.6367	86.9731	77.6367	86.9412	77.6367	87.0027	77.6367	86.9835	77.6367	87.0226	77.6367	87.0138	77.6367	87.0271
79.1016	88.1938	79.1016	88.1456	79.1016	88.1991	79.1016	88.0591	79.1016	88.1597	79.1016	87.941	79.1016	88.0764	79.1016	87.7998	79.1016	87.953	79.1016	87.6453	79.1016	87.797	79.1016	87.4879	79.1016	87.619	79.1016	87.3383	79.1016	87.4332	79.1016	87.2061	79.1016	87.2561	79.1016	87.0993	79.1016	87.1044	79.1016	87.0234	79.1016	86.9925	79.1016	86.9801	79.1016	86.9281	79.1016	86.9677	79.1016	86.9105	79.1016	86.9805	79.1016	86.9306	79.1016	87.0106	79.1016	86.9741	79.1016	87.048	79.1016	87.0255	79.1016	87.0832	79.1016	87.0716	79.1016	87.1077	79.1016	87.1031	79.1016	87.1153
82.0312	88.3909	82.0312	88.3473	82.0312	88.3889	82.0312	88.2629	82.0312	88.3393	82.0312	88.1447	82.0312	88.243	82.0312	88.0019	82.0312	88.1048	82.0312	87.8446	82.0312	87.933	82.0312	87.684	82.0312	87.7398	82.0312	87.5311	82.0312	87.5411	82.0312	87.3961	82.0312	87.3554	82.0312	87.2873	82.0312	87.2011	82.0312	87.2105	82.0312	87.093	82.0312	87.1676	82.0312	87.0385	82.0312	87.1571	82.0312	87.0352	82.0312	87.1731	82.0312	87.072	82.0312	87.207	82.0312	87.1324	82.0312	87.2483	82.0312	87.1992	82.0312	87.2863	82.0312	87.258	82.0312	87.3115	82.0312	87.2989	82.0312	87.3169
84.9609	88.5037	84.9609	88.4616	84.9609	88.4973	84.9609	88.3764	84.9609	88.4403	84.9609	88.2556	84.9609	88.3336	84.9609	88.109	84.9609	88.1824	84.9609	87.9476	84.9609	87.9958	84.9609	87.783	84.9609	87.7873	84.9609	87.6266	84.9609	87.5744	84.9609	87.489	84.9609	87.3772	84.9609	87.3785	84.9609	87.2156	84.9609	87.3005	84.9609	87.105	84.9609	87.2565	84.9609	87.0527	84.9609	87.2442	84.9609	87.0553	84.9609	87.2577	84.9609	87.0999	84.9609	87.288	84.9609	87.1687	84.9609	87.3251	84.9609	87.2436	84.9609	87.3585	84.9609	87.3094	84.9609	87.379	84.9609	87.3563	84.9609	87.3795
87.8906	88.4597	87.8906	88.417	87.8906	88.4521	87.8906	88.3293	87.8906	88.3919	87.8906	88.2048	87.8906	88.2806	87.8906	88.0537	87.8906	88.1241	87.8906	87.8875	87.8906	87.9326	87.8906	87.7188	87.8906	87.7212	87.8906	87.5598	87.8906	87.5087	87.8906	87.4218	87.8906	87.3165	87.8906	87.314	87.8906	87.1645	87.8906	87.2419	87.8906	87.0675	87.8906	87.2073	87.8906	87.031	87.8906	87.2071	87.8906	87.0496	87.8906	87.2344	87.8906	87.1086	87.8906	87.279	87.8906	87.189	87.8906	87.3295	87.8906	87.2719	87.8906	87.3745	87.8906	87.3422	87.8906	87.404	87.8906	87.39	87.8906	87.4106
90.8203	88.4682	90.8203	88.4257	90.8203	88.4576	90.8203	88.3359	90.8203	88.3918	90.8203	88.2071	90.8203	88.2726	90.8203	88.0501	90.8203	88.1065	90.8203	87.8772	90.8203	87.9049	90.8203	87.7015	90.8203	87.6842	90.8203	87.5361	90.8203	87.4652	90.8203	87.3928	90.8203	87.2706	90.8203	87.2811	90.8203	87.1213	90.8203	87.2071	90.8203	87.0321	90.8203	87.1727	90.8203	87.0068	90.8203	87.175	90.8203	87.038	90.8203	87.2067	90.8203	87.1088	90.8203	87.2578	90.8203	87.1986	90.8203	87.3162	90.8203	87.2874	90.8203	87.3698	90.8203	87.3597	90.8203	87.4077	90.8203	87.4058	90.8203	87.4215
95.2148	88.4251	95.2148	88.3874	95.2148	88.4049	95.2148	88.2978	95.2148	88.3245	95.2148	88.1656	95.2148	88.1865	95.2148	88.0024	95.2148	87.9986	95.2148	87.8217	95.2148	87.7744	95.2148	87.6381	95.2148	87.5333	95.2148	87.4661	95.2148	87.2995	95.2148	87.3191	95.2148	87.0991	95.2148	87.2082	95.2148	86.9553	95.2148	87.1404	95.2148	86.8826	95.2148	87.1177	95.2148	86.8829	95.2148	87.1363	95.2148	86.9448	95.2148	87.1872	95.2148	87.0477	95.2148	87.2575	95.2148	87.1674	95.2148	87.3329	95.2148	87.282	95.2148	87.399	95.2148	87.3746	95.2148	87.4436	95.2148	87.4346	95.2148	87.4572
98.1445	88.3498	98.1445	88.3132	98.1445	88.3243	98.1445	88.2207	98.1445	88.2346	98.1445	88.0822	98.1445	88.0833	98.1445	87.9098	98.1445	87.8792	98.1445	87.7175	98.1445	87.6374	98.1445	87.5206	98.1445	87.3792	98.1445	87.3343	98.1445	87.1315	98.1445	87.173	98.1445	86.9225	98.1445	87.049	98.1445	86.7771	98.1445	86.9704	98.1445	86.7094	98.1445	86.9403	98.1445	86.7195	98.1445	86.9557	98.1445	86.7928	98.1445	87.0076	98.1445	86.9062	98.1445	87.083	98.1445	87.0337	98.1445	87.1664	98.1445	87.1525	98.1445	87.2422	98.1445	87.2455	98.1445	87.2966	98.1445	87.3023	98.1445	87.3188
101.074	88.2306	101.074	88.1941	101.074	88.2	101.074	88.0971	101.074	88.0997	101.074	87.9499	101.074	87.9326	101.074	87.7654	101.074	87.7077	101.074	87.5586	101.074	87.4412	101.074	87.3455	101.074	87.1566	101.074	87.1428	101.074	86.8833	101.074	86.9662	101.074	86.6531	101.074	86.829	101.074	86.4937	101.074	86.7404	101.074	86.4209	101.074	86.7039	101.074	86.4339	101.074	86.716	101.074	86.5161	101.074	86.7671	101.074	86.641	101.074	86.8433	101.074	86.7799	101.074	86.9282	101.074	86.908	101.074	87.0058	101.074	87.0074	101.074	87.0618	101.074	87.0675	101.074	87.0848
105.469	88.4574	105.469	88.4246	105.469	88.4149	105.469	88.324	105.469	88.2942	105.469	88.1659	105.469	88.0977	105.469	87.9635	105.469	87.8343	105.469	87.7315	105.469	87.5203	105.469	87.4861	105.469	87.1807	105.469	87.2439	105.469	86.8476	105.469	87.0215	105.469	86.557	105.469	86.8344	105.469	86.3416	105.469	86.695	105.469	86.2221	105.469	86.6106	105.469	86.2006	105.469	86.5812	105.469	86.2608	105.469	86.5994	105.469	86.3744	105.469	86.651	105.469	86.5101	105.469	86.7182	105.469	86.6406	105.469	86.7825	105.469	86.7459	105.469	86.8275	105.469	86.8141	105.469	86.8406
108.398	88.5781	108.398	88.5472	108.398	88.5319	108.398	88.4471	108.398	88.4055	108.398	88.2888	108.398	88.2015	108.398	88.0866	108.398	87.9296	108.398	87.8559	108.398	87.6075	108.398	87.6138	108.398	87.2614	108.398	87.3771	108.398	86.9252	108.398	87.1623	108.398	86.6361	108.398	86.9843	108.398	86.4273	108.398	86.8546	108.398	86.3185	108.398	86.7796	108.398	86.3103	108.398	86.759	108.398	86.3851	108.398	86.785	108.398	86.5137	108.398	86.8435	108.398	86.6645	108.398	86.9163	108.398	86.8097	108.398	86.9844	108.398	86.9282	108.398	87.0302	108.398	87.007	108.398	87.0404
112.793	88.5634	112.793	88.5163	112.793	88.5297	112.793	88.3973	112.793	88.4109	112.793	88.2191	112.793	88.2087	112.793	87.9969	112.793	87.9322	112.793	87.7476	112.793	87.5992	112.793	87.4889	112.793	87.2375	112.793	87.2387	112.793	86.8837	112.793	87.014	112.793	86.5793	112.793	86.8306	112.793	86.3623	112.793	86.7008	112.793	86.256	112.793	86.6316	112.793	86.2611	112.793	86.6231	112.793	86.3566	112.793	86.6674	112.793	86.5079	112.793	86.7494	112.793	86.6781	112.793	86.849	112.793	86.8354	112.793	86.9446	112.793	86.957	112.793	87.0164	112.793	87.0294	112.793	87.048
117.188	88.4033	117.188	88.3502	117.188	88.372	117.188	88.2224	117.188	88.2518	117.188	88.0332	117.188	88.0447	117.188	87.7992	117.188	87.7606	117.188	87.5384	117.188	87.4188	117.188	87.2698	117.188	87.0491	117.188	87.0125	117.188	86.69	117.188	86.7846	117.188	86.3845	117.188	86.6023	117.188	86.1707	117.188	86.4776	117.188	86.0707	117.188	86.4168	117.188	86.083	117.188	86.4179	117.188	86.1844	117.188	86.4711	117.188	86.3393	117.188	86.5599	117.188	86.5103	117.188	86.664	117.188	86.6663	117.188	86.7626	117.188	86.7853	117.188	86.8365	117.188	86.8547	117.188	86.8706
120.117	88.4516	120.117	88.393	120.117	88.421	120.117	88.2555	120.117	88.296	120.117	88.0534	120.117	88.0782	120.117	87.804	120.117	87.7773	120.117	87.5257	120.117	87.4133	120.117	87.2381	120.117	87.0169	120.117	86.9606	120.117	86.6291	120.117	86.7125	120.117	86.2963	120.117	86.5114	120.117	86.0605	120.117	86.3722	120.117	85.9472	120.117	86.3036	120.117	85.9565	120.117	86.3057	120.117	86.0646	120.117	86.3685	120.117	86.2334	120.117	86.4729	120.117	86.4225	120.117	86.5949	120.117	86.5973	120.117	86.7096	120.117	86.7326	120.117	86.7946	120.117	86.8129	120.117	86.8326
124.512	88.542	124.512	88.4538	124.512	88.5389	124.512	88.2864	124.512	88.4377	124.512	88.0565	124.512	88.2387	124.512	87.7833	124.512	87.9508	124.512	87.4874	124.512	87.5936	124.512	87.1896	124.512	87.1982	124.512	86.9096	124.512	86.8067	124.512	86.666	124.512	86.4673	124.512	86.4753	124.512	86.2248	124.512	86.3505	124.512	86.107	124.512	86.2994	124.512	86.1158	124.512	86.3218	124.512	86.2271	124.512	86.408	124.512	86.4017	124.512	86.5389	124.512	86.5971	124.512	86.6892	124.512	86.7765	124.512	86.8314	124.512	86.9124	124.512	86.9403	124.512	86.9881	124.512	86.9965
128.906	88.3557	128.906	88.2442	128.906	88.3721	128.906	88.0506	128.906	88.286	128.906	87.7925	128.906	88.098	128.906	87.4904	128.906	87.8176	128.906	87.1664	128.906	87.4654	128.906	86.8429	128.906	87.0743	128.906	86.5417	128.906	86.6886	128.906	86.2836	128.906	86.3588	128.906	86.0873	128.906	86.1307	128.906	85.9681	128.906	86.0318	128.906	85.9351	128.906	86.0611	128.906	85.9875	128.906	86.1913	128.906	86.113	128.906	86.3794	128.906	86.289	128.906	86.5804	128.906	86.4861	128.906	86.7564	128.906	86.6735	128.906	86.8801	128.906	86.8234	128.906	86.9349	128.906	86.9148
133.301	88.2142	133.301	88.0748	133.301	88.2547	133.301	87.8506	133.301	88.1882	133.301	87.5609	133.301	88.0145	133.301	87.2275	133.301	87.743	133.301	86.8741	133.301	87.3947	133.301	86.5239	133.301	87.0033	133.301	86.1997	133.301	86.6146	133.301	85.9227	133.301	86.2814	133.301	85.7129	133.301	86.0522	133.301	85.5874	133.301	85.9561	133.301	85.5578	133.301	85.9924	133.301	85.6258	133.301	86.1317	133.301	85.78	133.301	86.3282	133.301	85.996	133.301	86.5336	133.301	86.2403	133.301	86.7074	133.301	86.4768	133.301	86.8201	133.301	86.6729	133.301	86.8543	133.301	86.8037
139.16	87.985	139.16	87.8055	139.16	88.0578	139.16	87.5351	139.16	88.0148	139.16	87.195	139.16	87.8553	139.16	86.8097	139.16	87.5886	139.16	86.405	139.16	87.2362	139.16	86.0064	139.16	86.8327	139.16	85.6377	139.16	86.4262	139.16	85.321	139.16	86.0725	139.16	85.0767	139.16	85.8235	139.16	84.9232	139.16	85.7111	139.16	84.8745	139.16	85.7352	139.16	84.9353	139.16	85.8649	139.16	85.0975	139.16	86.0508	139.16	85.3382	139.16	86.2409	139.16	85.6228	139.16	86.3911	139.16	85.9113	139.16	86.4698	139.16	86.1658	139.16	86.4594	139.16	86.3553
143.555	87.7484	143.555	87.5253	143.555	87.86	143.555	87.2088	143.555	87.8495	143.555	86.8228	143.555	87.7152	143.555	86.3948	143.555	87.4661	143.555	85.9532	143.555	87.1236	143.555	85.5252	143.555	86.7229	143.555	85.1357	143.555	86.3124	143.555	84.8068	143.555	85.9485	143.555	84.5588	143.555	85.6843	143.555	84.4095	143.555	85.5531	143.555	84.3719	143.555	85.5567	143.555	84.4496	143.555	85.6654	143.555	84.6326	143.555	85.8303	143.555	84.8965	143.555	85.9991	143.555	85.2057	143.555	86.1272	143.555	85.52	143.555	86.1826	143.555	85.8009	143.555	86.1473	143.555	86.017
147.949	87.3859	147.949	87.1298	147.949	87.527	147.949	86.7782	147.949	87.5419	147.949	86.3563	147.949	87.4289	147.949	85.8933	147.949	87.1977	147.949	85.4192	147.949	86.8709	147.949	84.9626	147.949	86.4855	147.949	84.5495	147.949	86.0914	147.949	84.2039	147.949	85.7456	147.949	83.9487	147.949	85.5	147.949	83.8051	147.949	85.3851	147.949	83.7887	147.949	85.3999	147.949	83.9032	147.949	85.5123	147.949	84.1351	147.949	85.6732	147.949	84.4538	147.949	85.8308	147.949	84.8173	147.949	85.9418	147.949	85.1806	147.949	85.9754	147.949	85.5033	147.949	85.9144	147.949	85.7545
153.809	87.2741	153.809	86.9789	153.809	87.4389	153.809	86.5743	153.809	87.4613	153.809	86.088	153.809	87.3401	153.809	85.5522	153.809	87.0865	153.809	84.9999	153.809	86.7266	153.809	84.4624	153.809	86.3029	153.809	83.9677	153.809	85.8734	153.809	83.5423	153.809	85.5041	153.809	83.2137	153.809	85.2526	153.809	83.0118	153.809	85.149	153.809	82.9638	153.809	85.1848	153.809	83.0835	153.809	85.3182	153.809	83.3604	153.809	85.4922	153.809	83.7569	153.809	85.6509	153.809	84.2172	153.809	85.7491	153.809	84.6815	153.809	85.755	153.809	85.0979	153.809	85.65	153.809	85.4283
159.668	87.1846	159.668	86.7723	159.668	87.4541	159.668	86.2429	159.668	87.5655	159.668	85.6313	159.668	87.5148	159.668	84.9779	159.668	87.3108	159.668	84.324	159.668	86.9768	159.668	83.7062	159.668	86.5524	159.668	83.1537	159.668	86.0947	159.668	82.6898	159.668	85.6732	159.668	82.3382	159.668	85.3562	159.668	82.1281	159.668	85.1895	159.668	82.0912	159.668	85.1777	159.668	82.2489	159.668	85.2833	159.668	82.5949	159.668	85.4439	159.668	83.088	159.668	85.5928	159.668	83.6619	159.668	85.6742	159.668	84.2436	159.668	85.6478	159.668	84.7699	159.668	85.4903	159.668	85.1945
165.527	86.7609	165.527	86.1928	165.527	87.177	165.527	85.5049	165.527	87.4224	165.527	84.7411	165.527	87.4912	165.527	83.9531	165.527	87.3914	165.527	83.1909	165.527	87.1453	165.527	82.4931	165.527	86.7914	165.527	81.8814	165.527	86.384	165.527	81.3661	165.527	85.9889	165.527	80.9609	165.527	85.6706	165.527	80.6982	165.527	85.4733	165.527	80.6304	165.527	85.4051	165.527	80.8108	165.527	85.4365	165.527	81.2548	165.527	85.5137	165.527	81.9141	165.527	85.5763	165.527	82.6909	165.527	85.5694	165.527	83.4773	165.527	85.4496	165.527	84.1868	165.527	85.1866	165.527	84.7649
171.387	86.3282	171.387	85.5917	171.387	86.9111	171.387	84.7485	171.387	87.3128	171.387	83.8634	171.387	87.5232	171.387	83.009	171.387	87.5475	171.387	82.2446	171.387	87.4064	171.387	81.5928	171.387	87.1367	171.387	81.0341	171.387	86.7908	171.387	80.527	171.387	86.4324	171.387	80.0415	171.387	86.125	171.387	79.5915	171.387	85.9124	171.387	79.2566	171.387	85.8029	171.387	79.1759	171.387	85.7668	171.387	79.4791	171.387	85.7493	171.387	80.1796	171.387	85.6883	171.387	81.1489	171.387	85.5269	171.387	82.2062	171.387	85.22	171.387	83.2063	171.387	84.7367	171.387	84.0629
177.246	85.7128	177.246	84.8171	177.246	86.4834	177.246	83.8812	177.246	87.0768	177.246	83.015	177.246	87.4698	177.246	82.3188	177.246	87.6611	177.246	81.8329	177.246	87.668	177.246	81.5167	177.246	87.5246	177.246	81.2801	177.246	87.2808	177.246	81.032	177.246	86.9976	177.246	80.7093	177.246	86.7359	177.246	80.2871	177.246	86.5393	177.246	79.7916	177.246	86.4168	177.246	79.328	177.246	86.3393	177.246	79.103	177.246	86.2513	177.246	79.3559	177.246	86.0878	177.246	80.1553	177.246	85.7888	177.246	81.3108	177.246	85.3055	177.246	82.5489	177.246	84.6052	177.246	83.6776
183.105	85.1618	183.105	84.3308	183.105	85.9826	183.105	83.6253	183.105	86.6895	183.105	83.1578	183.105	87.224	183.105	82.9487	183.105	87.5651	183.105	82.9171	183.105	87.7195	183.105	82.943	183.105	87.7142	183.105	82.9276	183.105	87.5926	183.105	82.8111	183.105	87.4077	183.105	82.5657	183.105	87.2118	183.105	82.1839	183.105	87.0421	183.105	81.677	183.105	86.9064	183.105	81.0879	183.105	86.7794	183.105	80.526	183.105	86.6106	183.105	80.2012	183.105	86.3395	183.105	80.3641	183.105	85.9094	183.105	81.0931	183.105	85.2776	183.105	82.1893	183.105	84.4236	183.105	83.365
188.965	85.6864	188.965	85.2908	188.965	86.1873	188.965	85.0763	188.965	86.6905	188.965	85.0473	188.965	87.1113	188.965	85.1383	188.965	87.402	188.965	85.2579	188.965	87.551	188.965	85.3295	188.965	87.5757	188.965	85.3053	188.965	87.5125	188.965	85.1611	188.965	87.4068	188.965	84.8871	188.965	87.2988	188.965	84.4808	188.965	87.2094	188.965	83.9439	188.965	87.1319	188.965	83.2898	188.965	87.0321	188.965	82.566	188.965	86.8579	188.965	81.8964	188.965	86.5521	188.965	81.5126	188.965	86.0642	188.965	81.661	188.965	85.3623	188.965	82.3689	188.965	84.4496	188.965	83.3936
196.289	87.0947	196.289	86.9401	196.289	87.3361	196.289	86.9027	196.289	87.5983	196.289	86.9638	196.289	87.8113	196.289	87.07	196.289	87.926	196.289	87.163	196.289	87.9245	196.289	87.1981	196.289	87.8196	196.289	87.1494	196.289	87.6476	196.289	87.0064	196.289	87.4572	196.289	86.7675	196.289	87.2925	196.289	86.4356	196.289	87.1754	196.289	86.0151	196.289	87.0956	196.289	85.5128	196.289	87.0133	196.289	84.9467	196.289	86.8721	196.289	84.3653	196.289	86.6157	196.289	83.8726	196.289	86.2039	196.289	83.6267	196.289	85.6289	196.289	83.7587	196.289	84.9373	196.289	84.2509
203.613	87.5664	203.613	87.5345	203.613	87.6751	203.613	87.5883	203.613	87.8152	203.613	87.6995	203.613	87.9262	203.613	87.8214	203.613	87.9591	203.613	87.9105	203.613	87.892	203.613	87.9374	203.613	87.7347	203.613	87.8876	203.613	87.5231	203.613	87.757	203.613	87.3067	203.613	87.5466	203.613	87.1287	203.613	87.2579	203.613	87.0077	203.613	86.891	203.613	86.929	203.613	86.4457	203.613	86.851	203.613	85.9288	203.613	86.7197	203.613	85.3695	203.613	86.4858	203.613	84.8404	203.613	86.1202	203.613	84.4654	203.613	85.6319	203.613	84.3757	203.613	85.0862	203.613	84.6141
210.938	87.6297	210.938	87.7059	210.938	87.6182	210.938	87.8355	210.938	87.649	210.938	87.9827	210.938	87.6769	210.938	88.1073	210.938	87.6562	210.938	88.1786	210.938	87.5616	210.938	88.1808	210.938	87.3966	210.938	88.1102	210.938	87.1915	210.938	87.9698	210.938	86.9908	210.938	87.7647	210.938	86.8354	210.938	87.4976	210.938	86.745	210.938	87.1677	210.938	86.7084	210.938	86.7724	210.938	86.6867	210.938	86.3141	210.938	86.6258	210.938	85.8138	210.938	86.4731	210.938	85.3291	210.938	86.1964	210.938	84.9634	210.938	85.8032	210.938	84.8333	210.938	85.3588	210.938	84.9884
218.262	87.9868	218.262	88.1173	218.262	87.8722	218.262	88.2479	218.262	87.7697	218.262	88.353	218.262	87.656	218.262	88.4096	218.262	87.5004	218.262	88.4042	218.262	87.2815	218.262	88.3351	218.262	87.0018	218.262	88.2105	218.262	86.6912	218.262	88.0445	218.262	86.399	218.262	87.8508	218.262	86.1734	218.262	87.637	218.262	86.0378	218.262	87.3989	218.262	85.977	218.262	87.1195	218.262	85.9428	218.262	86.7744	218.262	85.8731	218.262	86.3454	218.262	85.7156	218.262	85.8419	218.262	85.4523	218.262	85.3248	218.262	85.1227	218.262	84.9131	218.262	84.8354	218.262	84.736
225.586	88.2225	225.586	88.3612	225.586	88.0655	225.586	88.4711	225.586	87.8914	225.586	88.5369	225.586	87.6944	225.586	88.5442	225.586	87.4671	225.586	88.4849	225.586	87.2093	225.586	88.3599	225.586	86.9318	225.586	88.1789	225.586	86.6571	225.586	87.9583	225.586	86.4137	225.586	87.7181	225.586	86.2267	225.586	87.4767	225.586	86.1082	225.586	87.2445	225.586	86.0503	225.586	87.0197	225.586	86.025	225.586	86.7884	225.586	85.9936	225.586	86.5339	225.586	85.9233	225.586	86.2512	225.586	85.8055	225.586	85.9622	225.586	85.6681	225.586	85.7181	225.586	85.5709	225.586	85.5784
232.91	88.3993	232.91	88.5274	232.91	88.2251	232.91	88.6055	232.91	88.0027	232.91	88.6256	232.91	87.7273	232.91	88.5796	232.91	87.3993	232.91	88.4637	232.91	87.0319	232.91	88.2806	232.91	86.6551	232.91	88.0394	232.91	86.3102	232.91	87.7546	232.91	86.0365	232.91	87.443	232.91	85.8572	232.91	87.1213	232.91	85.7732	232.91	86.8014	232.91	85.7637	232.91	86.487	232.91	85.7909	232.91	86.1719	232.91	85.8058	232.91	85.8478	232.91	85.7596	232.91	85.5205	232.91	85.6235	232.91	85.2294	232.91	85.4086	232.91	85.0456	232.91	85.178	232.91	85.0304
241.699	88.445	241.699	88.5676	241.699	88.2458	241.699	88.6202	241.699	87.9624	241.699	88.6061	241.699	87.5926	241.699	88.5261	241.699	87.1484	241.699	88.3821	241.699	86.6628	241.699	88.1794	241.699	86.1887	241.699	87.9287	241.699	85.7839	241.699	87.6464	241.699	85.4878	241.699	87.3538	241.699	85.3069	241.699	87.0731	241.699	85.2192	241.699	86.8195	241.699	85.189	241.699	86.5925	241.699	85.1764	241.699	86.3728	241.699	85.1426	241.699	86.1287	241.699	85.0605	241.699	85.8342	241.699	84.9329	241.699	85.4915	241.699	84.808	241.699	85.147	241.699	84.7686	241.699	84.8825
250.488	88.2168	250.488	88.2354	250.488	88.1127	250.488	88.1828	250.488	87.907	250.488	88.0675	250.488	87.5881	250.488	87.8922	250.488	87.1586	250.488	87.6573	250.488	86.644	250.488	87.3661	250.488	86.0985	250.488	87.0295	250.488	85.5969	250.488	86.6695	250.488	85.2086	250.488	86.3194	250.488	84.9674	250.488	86.0191	250.488	84.8603	250.488	85.8017	250.488	84.8434	250.488	85.6759	250.488	84.8635	250.488	85.6146	250.488	84.8734	250.488	85.5634	250.488	84.845	250.488	85.4664	250.488	84.7824	250.488	85.2968	250.488	84.728	250.488	85.0758	250.488	84.7441	250.488	84.8682
259.277	88.8877	259.277	88.9656	259.277	88.6743	259.277	88.9408	259.277	88.2955	259.277	88.8375	259.277	87.7406	259.277	88.667	259.277	87.0353	259.277	88.4305	259.277	86.2564	259.277	88.1253	259.277	85.5276	259.277	87.7517	259.277	84.9776	259.277	87.3164	259.277	84.6737	259.277	86.836	259.277	84.597	259.277	86.3396	259.277	84.6835	259.277	85.8683	259.277	84.868	259.277	85.4675	259.277	85.0907	259.277	85.1717	259.277	85.2894	259.277	84.9895	259.277	85.4082	259.277	84.9044	259.277	85.4171	259.277	84.8923	259.277	85.3269	259.277	84.9392	259.277	85.1827	259.277	85.0406
268.066	88.8445	268.066	88.7385	268.066	88.841	268.066	88.5664	268.066	88.6819	268.066	88.3608	268.066	88.3264	268.066	88.1386	268.066	87.7523	268.066	87.9018	268.066	86.9769	268.066	87.644	268.066	86.0821	268.066	87.3576	268.066	85.2239	268.066	87.0371	268.066	84.5813	268.066	86.6793	268.066	84.2462	268.066	86.2857	268.066	84.1734	268.066	85.8696	268.066	84.251	268.066	85.4631	268.066	84.3769	268.066	85.1088	268.066	84.4716	268.066	84.8293	268.066	84.4761	268.066	84.6036	268.066	84.3694	268.066	84.3905	268.066	84.1957	268.066	84.1866	268.066	84.058	268.066	84.0523
276.855	88.279	276.855	88.1386	276.855	88.3705	276.855	88.0195	276.855	88.3341	276.855	87.9438	276.855	88.1203	276.855	87.8824	276.855	87.7217	276.855	87.787	276.855	87.1629	276.855	87.6211	276.855	86.4897	276.855	87.3704	276.855	85.77	276.855	87.0402	276.855	85.1004	276.855	86.6495	276.855	84.5885	276.855	86.2268	276.855	84.2961	276.855	85.8041	276.855	84.1969	276.855	85.4126	276.855	84.2045	276.855	85.0827	276.855	84.2342	276.855	84.8434	276.855	84.2405	276.855	84.7041	276.855	84.2289	276.855	84.63	276.855	84.2435	276.855	84.5557	276.855	84.3212	276.855	84.444
287.109	88.2247	287.109	88.2418	287.109	88.1353	287.109	88.2116	287.109	87.9307	287.109	88.1383	287.109	87.5685	287.109	88.0138	287.109	87.036	287.109	87.8304	287.109	86.3788	287.109	87.5905	287.109	85.7054	287.109	87.3091	287.109	85.1459	287.109	87.0079	287.109	84.7785	287.109	86.7022	287.109	84.6013	287.109	86.3903	287.109	84.573	287.109	86.0535	287.109	84.6461	287.109	85.6705	287.109	84.7614	287.109	85.2353	287.109	84.8446	287.109	84.7685	287.109	84.8303	287.109	84.3236	287.109	84.6894	287.109	83.9839	287.109	84.4397	287.109	83.835	287.109	84.1452	287.109	83.9076
297.363	87.6617	297.363	87.6949	297.363	87.6099	297.363	87.7414	297.363	87.4525	297.363	87.7805	297.363	87.0894	297.363	87.7732	297.363	86.4668	297.363	87.6917	297.363	85.6265	297.363	87.5288	297.363	84.7281	297.363	87.2945	297.363	83.9911	297.363	87.0089	297.363	83.5419	297.363	86.6944	297.363	83.3393	297.363	86.3642	297.363	83.291	297.363	86.0119	297.363	83.3553	297.363	85.6144	297.363	83.5052	297.363	85.1602	297.363	83.6698	297.363	84.6867	297.363	83.7585	297.363	84.2784	297.363	83.7376	297.363	83.9961	297.363	83.6658	297.363	83.8193	297.363	83.6398	297.363	83.6994
307.617	88.1473	307.617	88.1684	307.617	88.1012	307.617	88.1705	307.617	87.9866	307.617	88.1331	307.617	87.7302	307.617	88.03	307.617	87.2541	307.617	87.8457	307.617	86.5147	307.617	87.5814	307.617	85.5536	307.617	87.2528	307.617	84.5475	307.617	86.8872	307.617	83.7771	307.617	86.5223	307.617	83.4237	307.617	86.2031	307.617	83.4009	307.617	85.9623	307.617	83.4947	307.617	85.7819	307.617	83.5587	307.617	85.5696	307.617	83.5361	307.617	85.1954	307.617	83.4072	307.617	84.5757	307.617	83.1669	307.617	83.763	307.617	82.8493	307.617	82.9909	307.617	82.5747	307.617	82.5629
319.336	87.5198	319.336	87.6387	319.336	87.3154	319.336	87.6802	319.336	86.9864	319.336	87.6253	319.336	86.4855	319.336	87.4534	319.336	85.7961	319.336	87.1649	319.336	84.9677	319.336	86.7904	319.336	84.13	319.336	86.3859	319.336	83.4532	319.336	86.0183	319.336	83.0422	319.336	85.7443	319.336	82.867	319.336	85.5911	319.336	82.8153	319.336	85.5499	319.336	82.7791	319.336	85.5807	319.336	82.6852	319.336	85.6186	319.336	82.5022	319.336	85.5816	319.336	82.2674	319.336	85.3869	319.336	82.1194	319.336	84.9755	319.336	82.257	319.336	84.3381	319.336	82.7746	319.336	83.5461
329.59	88.4837	329.59	88.6296	329.59	88.231	329.59	88.6612	329.59	87.8406	329.59	88.5537	329.59	87.2505	329.59	88.2903	329.59	86.4021	329.59	87.8746	329.59	85.2905	329.59	87.3314	329.59	84.0235	329.59	86.7035	329.59	82.8701	329.59	86.0517	329.59	82.1743	329.59	85.4559	329.59	82.0736	329.59	85.0083	329.59	82.3986	329.59	84.7861	329.59	82.914	329.59	84.8046	329.59	83.4734	329.59	84.9917	329.59	83.9953	329.59	85.223	329.59	84.4293	329.59	85.3912	329.59	84.7554	329.59	85.4491	329.59	84.9882	329.59	85.407	329.59	85.1616	329.59	85.3015
341.309	88.9252	341.309	88.858	341.309	88.8645	341.309	88.6977	341.309	88.6122	341.309	88.4535	341.309	88.0911	341.309	88.1218	341.309	87.2388	341.309	87.6974	341.309	86.0453	341.309	87.1827	341.309	84.6046	341.309	86.5957	341.309	83.1784	341.309	85.9791	341.309	82.1732	341.309	85.3997	341.309	81.8766	341.309	84.9304	341.309	82.2091	341.309	84.6204	341.309	82.8908	341.309	84.4864	341.309	83.6719	341.309	84.5241	341.309	84.3708	341.309	84.7017	341.309	84.8676	341.309	84.9389	341.309	85.1224	341.309	85.1279	341.309	85.1889	341.309	85.2047	341.309	85.1846	341.309	85.1969
353.027	89.4498	353.027	89.282	353.027	89.5032	353.027	89.0487	353.027	89.3643	353.027	88.7685	353.027	88.9429	353.027	88.4378	353.027	88.1592	353.027	88.0427	353.027	86.9764	353.027	87.5676	353.027	85.454	353.027	87.0007	353.027	83.8357	353.027	86.3401	353.027	82.5834	353.027	85.6067	353.027	82.1004	353.027	84.8681	353.027	82.355	353.027	84.2663	353.027	83.0537	353.027	83.9815	353.027	83.9292	353.027	84.0748	353.027	84.7566	353.027	84.3944	353.027	85.3564	353.027	84.7295	353.027	85.6478	353.027	84.9813	353.027	85.6676	353.027	85.1683	353.027	85.5288	353.027	85.3447
366.211	88.9689	366.211	88.5696	366.211	89.3581	366.211	88.2506	366.211	89.5705	366.211	87.9896	366.211	89.4513	366.211	87.7098	366.211	88.91	366.211	87.3516	366.211	87.9322	366.211	86.8943	366.211	86.5888	366.211	86.3449	366.211	85.0688	366.211	85.7285	366.211	83.7083	366.211	85.0893	366.211	82.8927	366.211	84.4916	366.211	82.7795	366.211	83.9996	366.211	83.1895	366.211	83.651	366.211	83.8119	366.211	83.4656	366.211	84.3753	366.211	83.4701	366.211	84.6981	366.211	83.6535	366.211	84.7158	366.211	83.9013	366.211	84.5087	366.211	84.07	366.211	84.2728	366.211	84.1489
379.395	88	379.395	87.748	379.395	88.2416	379.395	87.4796	379.395	88.4531	379.395	87.1975	379.395	88.5316	379.395	86.898	379.395	88.3072	379.395	86.5618	379.395	87.632	379.395	86.1685	379.395	86.4667	379.395	85.7099	379.395	84.9619	379.395	85.1906	379.395	83.5261	379.395	84.631	379.395	82.669	379.395	84.0813	379.395	82.5442	379.395	83.6349	379.395	82.8955	379.395	83.4093	379.395	83.4155	379.395	83.4724	379.395	83.8477	379.395	83.7592	379.395	83.9857	379.395	84.0788	379.395	83.7747	379.395	84.2154	379.395	83.4269	379.395	84.0458	379.395	83.3383	379.395	83.6463
392.578	87.6945	392.578	87.3683	392.578	88.0921	392.578	87.2238	392.578	88.3268	392.578	87.1597	392.578	88.2348	392.578	87.0157	392.578	87.7839	392.578	86.7114	392.578	87.0218	392.578	86.2509	392.578	86.01	392.578	85.6781	392.578	84.8205	392.578	85.044	392.578	83.6091	392.578	84.3952	392.578	82.6608	392.578	83.7742	392.578	82.2299	392.578	83.2216	392.578	82.2863	392.578	82.7775	392.578	82.5783	392.578	82.4865	392.578	82.8654	392.578	82.4033	392.578	83.0056	392.578	82.5564	392.578	82.9858	392.578	82.8566	392.578	82.9414	392.578	83.0981	392.578	83.0136	392.578	83.1313
405.762	87.4711	405.762	87.4837	405.762	87.7315	405.762	87.5933	405.762	88.1413	405.762	87.5779	405.762	88.3695	405.762	87.3454	405.762	88.1601	405.762	86.9115	405.762	87.4397	405.762	86.3292	405.762	86.3158	405.762	85.6415	405.762	85.0625	405.762	84.8702	405.762	84.0201	405.762	84.0385	405.762	83.3865	405.762	83.2277	405.762	83.1616	405.762	82.6358	405.762	83.2692	405.762	82.4937	405.762	83.5571	405.762	82.7808	405.762	83.7812	405.762	83.2109	405.762	83.765	405.762	83.5731	405.762	83.5643	405.762	83.828	405.762	83.4407	405.762	83.9372	405.762	83.5773	405.762	83.829
420.41	89.348	420.41	89.4087	420.41	89.3351	420.41	89.3826	420.41	89.3899	420.41	89.1711	420.41	89.3454	420.41	88.7658	420.41	88.9684	420.41	88.2189	420.41	88.1088	420.41	87.5907	420.41	86.7822	420.41	86.9094	420.41	85.2481	420.41	86.1628	420.41	84.0189	420.41	85.3241	420.41	83.4857	420.41	84.4006	420.41	83.523	420.41	83.5029	420.41	83.8308	420.41	82.8731	420.41	84.251	420.41	82.6775	420.41	84.667	420.41	82.7579	420.41	84.9663	420.41	82.9316	420.41	85.136	420.41	83.3332	420.41	85.2174	420.41	84.0452	420.41	85.1405	420.41	84.7497
435.059	89.6947	435.059	89.5459	435.059	89.8803	435.059	89.3627	435.059	90.0684	435.059	89.0639	435.059	90.1107	435.059	88.6323	435.059	89.8218	435.059	88.1116	435.059	89.0569	435.059	87.555	435.059	87.7673	435.059	86.9805	435.059	86.0766	435.059	86.3698	435.059	84.3891	435.059	85.7006	435.059	83.316	435.059	84.9687	435.059	83.1542	435.059	84.1837	435.059	83.6568	435.059	83.4021	435.059	84.4372	435.059	82.821	435.059	85.1489	435.059	82.6739	435.059	85.5009	435.059	82.8301	435.059	85.3128	435.059	82.8846	435.059	84.5728	435.059	82.7351	435.059	83.5448	435.059	82.8167
451.172	88.6765	451.172	88.4873	451.172	89.2268	451.172	88.4204	451.172	89.9865	451.172	88.2268	451.172	90.529	451.172	87.8567	451.172	90.5229	451.172	87.3868	451.172	89.8227	451.172	86.9035	451.172	88.4384	451.172	86.4387	451.172	86.5957	451.172	85.9616	451.172	84.8802	451.172	85.3949	451.172	83.9721	451.172	84.6493	451.172	83.8461	451.172	83.7167	451.172	84.0532	451.172	82.8491	451.172	84.4126	451.172	82.589	451.172	84.7982	451.172	83.1488	451.172	84.8846	451.172	84.0294	451.172	84.4655	451.172	84.6747	451.172	83.8832	451.172	84.8059	451.172	83.8655	451.172	84.4069
465.82	88.5607	465.82	88.9197	465.82	88.3001	465.82	89.0131	465.82	88.5273	465.82	88.7576	465.82	89.1347	465.82	88.2604	465.82	89.6386	465.82	87.6711	465.82	89.6539	465.82	87.0737	465.82	88.9997	465.82	86.4702	465.82	87.6593	465.82	85.8498	465.82	85.8411	465.82	85.261	465.82	84.1427	465.82	84.7691	465.82	83.3255	465.82	84.2849	465.82	83.4255	465.82	83.5282	465.82	83.9375	465.82	82.3586	465.82	84.5389	465.82	81.4757	465.82	84.9754	465.82	82.1361	465.82	85.0178	465.82	83.5814	465.82	84.7371	465.82	84.4781	465.82	84.5554	465.82	84.6361
483.398	89.2403	483.398	89.2206	483.398	89.0983	483.398	88.8986	483.398	88.9202	483.398	88.2832	483.398	88.6984	483.398	87.533	483.398	88.3865	483.398	86.8201	483.398	87.9699	483.398	86.2163	483.398	87.3996	483.398	85.717	483.398	86.6097	483.398	85.3183	483.398	85.6666	483.398	85.0366	483.398	84.8268	483.398	84.8789	483.398	84.3155	483.398	84.8263	483.398	84.0911	483.398	84.8214	483.398	84.0156	483.398	84.7025	483.398	84.0346	483.398	84.2544	483.398	84.0139	483.398	83.6252	483.398	83.7798	483.398	83.57	483.398	83.599	483.398	84.1344	483.398	83.9379	483.398	84.347
499.512	88.7611	499.512	88.7183	499.512	88.9941	499.512	88.5306	499.512	89.5131	499.512	88.114	499.512	89.8909	499.512	87.5735	499.512	89.7004	499.512	86.9831	499.512	88.842	499.512	86.3342	499.512	87.4961	499.512	85.5902	499.512	85.9997	499.512	84.7155	499.512	84.7136	499.512	83.7245	499.512	83.9818	499.512	82.8145	499.512	84.0221	499.512	82.38	499.512	84.6038	499.512	82.5841	499.512	85.1569	499.512	83.0769	499.512	85.2104	499.512	83.4235	499.512	84.5388	499.512	83.5336	499.512	83.1791	499.512	83.6429	499.512	81.9	499.512	83.7004	499.512	82.138	499.512	83.1988
517.09	89.171	517.09	89.8281	517.09	88.2293	517.09	89.7711	517.09	88.1707	517.09	89.2185	517.09	89.0085	517.09	88.5472	517.09	89.5554	517.09	87.9536	517.09	89.2893	517.09	87.3999	517.09	88.2555	517.09	86.7829	517.09	86.7027	517.09	86.0212	517.09	85.0645	517.09	85.0591	517.09	83.9775	517.09	83.8898	517.09	83.7869	517.09	82.6525	517.09	84.1903	517.09	81.8146	517.09	84.7535	517.09	81.8518	517.09	85.0857	517.09	82.3134	517.09	84.8641	517.09	82.592	517.09	84.3528	517.09	83.0905	517.09	84.4684	517.09	84.2007	517.09	85.07	517.09	85.0867
536.133	90.4664	536.133	90.2856	536.133	89.9457	536.133	89.5751	536.133	89.1633	536.133	88.7149	536.133	88.9523	536.133	87.9214	536.133	89.1269	536.133	87.1943	536.133	88.8105	536.133	86.5257	536.133	87.6884	536.133	85.9553	536.133	86.018	536.133	85.4637	536.133	84.4237	536.133	84.9544	536.133	83.5675	536.133	84.3767	536.133	83.5477	536.133	83.7257	536.133	83.8573	536.133	82.9084	536.133	84.0784	536.133	82.0638	536.133	84.1797	536.133	81.8101	536.133	84.1367	536.133	81.945	536.133	84.0251	536.133	82.056	536.133	84.4715	536.133	83.133	536.133	85.0953	536.133	84.6613
555.176	89.7528	555.176	89.2312	555.176	89.8527	555.176	88.7965	555.176	89.2354	555.176	88.5686	555.176	88.4037	555.176	88.3044	555.176	88.4027	555.176	87.8497	555.176	88.8757	555.176	87.2461	555.176	88.6944	555.176	86.6006	555.176	87.5142	555.176	85.9607	555.176	85.659	555.176	85.2458	555.176	83.8451	555.176	84.2792	555.176	82.5884	555.176	83.0665	555.176	81.9136	555.176	82.1971	555.176	81.7766	555.176	82.292	555.176	81.9843	555.176	83.0228	555.176	82.3265	555.176	83.7406	555.176	82.8144	555.176	83.8028	555.176	83.2612	555.176	83.0851	555.176	83.1505	555.176	82.7016
574.219	90.8066	574.219	90.9672	574.219	90.1986	574.219	90.6296	574.219	89.5055	574.219	89.9841	574.219	88.9895	574.219	89.2174	574.219	88.5364	574.219	88.4308	574.219	87.9924	574.219	87.7	574.219	87.2462	574.219	87.0445	574.219	86.2114	574.219	86.3579	574.219	85.0542	574.219	85.4841	574.219	84.1255	574.219	84.3922	574.219	83.5058	574.219	83.2257	574.219	83.1675	574.219	82.0741	574.219	83.3133	574.219	81.0671	574.219	83.7663	574.219	81.1163	574.219	83.9597	574.219	82.3198	574.219	83.8931	574.219	83.3852	574.219	84.2695	574.219	84.2173	574.219	84.9395	574.219	84.9345
594.727	90.8377	594.727	90.3976	594.727	90.7647	594.727	89.4811	594.727	90.445	594.727	88.3652	594.727	90.1408	594.727	87.3568	594.727	89.7603	594.727	86.5865	594.727	89.095	594.727	86.012	594.727	88.0366	594.727	85.5822	594.727	86.5403	594.727	85.2677	594.727	84.841	594.727	84.9833	594.727	83.6443	594.727	84.5846	594.727	83.3038	594.727	83.9529	594.727	83.4491	594.727	83.1548	594.727	83.973	594.727	82.5312	594.727	84.6215	594.727	82.3495	594.727	84.6379	594.727	82.5936	594.727	83.825	594.727	82.9632	594.727	82.8433	594.727	82.8512	594.727	82.2818	594.727	82.3481
615.234	91.2621	615.234	90.6213	615.234	91.3878	615.234	90.1928	615.234	90.6883	615.234	90.0013	615.234	89.7786	615.234	89.5734	615.234	89.5359	615.234	88.8519	615.234	89.6139	615.234	88.102	615.234	89.1913	615.234	87.5017	615.234	87.9792	615.234	87.0535	615.234	86.1496	615.234	86.694	615.234	84.3685	615.234	86.237	615.234	83.3813	615.234	85.3444	615.234	82.7634	615.234	83.6694	615.234	81.8658	615.234	81.3328	615.234	81.3873	615.234	80.5165	615.234	81.6887	615.234	81.9996	615.234	82.2121	615.234	83.013	615.234	83.2938	615.234	83.4683	615.234	84.1849	615.234	84.0728
637.207	91.5606	637.207	91.4465	637.207	91.3733	637.207	90.9794	637.207	90.8482	637.207	90.1372	637.207	89.9077	637.207	89.0186	637.207	88.7591	637.207	87.8623	637.207	87.9579	637.207	86.9257	637.207	87.5811	637.207	86.3012	637.207	87.0587	637.207	85.9243	637.207	86.1273	637.207	85.7915	637.207	85.0488	637.207	85.8544	637.207	84.2049	637.207	85.7365	637.207	83.5736	637.207	85.1061	637.207	82.5041	637.207	84.0217	637.207	80.764	637.207	82.4986	637.207	79.5673	637.207	81.1751	637.207	79.8371	637.207	82.0738	637.207	82.6846	637.207	83.9452	637.207	84.9565	637.207	85.1618
659.18	91.7186	659.18	91.2318	659.18	92.1859	659.18	90.7614	659.18	92.1295	659.18	90.0126	659.18	91.2639	659.18	88.9921	659.18	89.712	659.18	87.908	659.18	87.8884	659.18	86.8661	659.18	86.4687	659.18	85.9458	659.18	85.7224	659.18	85.1966	659.18	85.1995	659.18	84.447	659.18	84.7313	659.18	83.7234	659.18	84.2455	659.18	83.6884	659.18	83.5405	659.18	84.2369	659.18	82.9838	659.18	84.1199	659.18	82.9192	659.18	83.1422	659.18	83.1486	659.18	82.9766	659.18	83.6372	659.18	83.1949	659.18	83.988	659.18	81.8742	659.18	83.1301	659.18	81.2456
682.617	92.0362	682.617	91.9231	682.617	91.9943	682.617	91.5074	682.617	91.7869	682.617	90.6874	682.617	91.3765	682.617	89.6711	682.617	90.7987	682.617	88.7394	682.617	89.9053	682.617	87.8927	682.617	88.2843	682.617	87.0226	682.617	85.932	682.617	86.1096	682.617	84.0067	682.617	85.1521	682.617	83.41	682.617	84.0767	682.617	83.3389	682.617	82.8479	682.617	83.4617	682.617	82.1235	682.617	83.6931	682.617	82.7809	682.617	83.68	682.617	83.5442	682.617	83.4385	682.617	83.3723	682.617	83.4848	682.617	83.3697	682.617	84.1909	682.617	84.0858	682.617	84.6728	682.617	84.552
707.52	92.1236	707.52	92.0574	707.52	91.8176	707.52	91.3851	707.52	91.5902	707.52	90.282	707.52	91.2882	707.52	89.0671	707.52	90.4324	707.52	87.9727	707.52	89.2281	707.52	87.0472	707.52	88.1768	707.52	86.2493	707.52	86.9041	707.52	85.5473	707.52	85.138	707.52	84.9993	707.52	83.6925	707.52	84.7228	707.52	83.0126	707.52	84.5042	707.52	82.6972	707.52	83.5578	707.52	82.5599	707.52	81.4833	707.52	82.2352	707.52	80.7323	707.52	81.7051	707.52	81.9054	707.52	80.9991	707.52	82.8273	707.52	81.0904	707.52	83.5723	707.52	82.6245	707.52	83.6043
732.422	91.8453	732.422	91.2238	732.422	91.887	732.422	90.502	732.422	91.6879	732.422	90.0978	732.422	91.6018	732.422	89.682	732.422	91.0879	732.422	88.8031	732.422	89.7971	732.422	87.3996	732.422	88.1123	732.422	85.8177	732.422	86.5502	732.422	84.5647	732.422	85.0622	732.422	83.9115	732.422	83.7862	732.422	83.945	732.422	83.4216	732.422	84.3517	732.422	83.417	732.422	84.3389	732.422	82.6704	732.422	83.6043	732.422	80.8808	732.422	82.1056	732.422	79.2787	732.422	80.8942	732.422	79.8537	732.422	81.7798	732.422	82.5803	732.422	81.5885	732.422	83.2383	732.422	81.4048
757.324	91.605	757.324	91.7029	757.324	91.5343	757.324	91.4785	757.324	91.0303	757.324	90.6498	757.324	90.4069	757.324	89.5789	757.324	90.3666	757.324	88.3128	757.324	90.1653	757.324	86.8765	757.324	88.8447	757.324	85.6171	757.324	86.2814	757.324	84.5181	757.324	83.49	757.324	83.0603	757.324	81.2559	757.324	80.1656	757.324	80.6966	757.324	77.1118	757.324	81.8104	757.324	80.5949	757.324	81.5909	757.324	81.9051	757.324	79.9917	757.324	80.6616	757.324	79.4363	757.324	81.3994	757.324	81.8703	757.324	83.129	757.324	83.4745	757.324	83.9762	757.324	83.1222	757.324	83.4445
785.156	91.1546	785.156	90.8897	785.156	90.4167	785.156	89.7111	785.156	89.9422	785.156	88.9846	785.156	90.3501	785.156	88.6546	785.156	90.4314	785.156	87.8682	785.156	89.7316	785.156	86.9682	785.156	88.9615	785.156	86.4755	785.156	87.4331	785.156	86.4064	785.156	84.8064	785.156	86.1941	785.156	83.565	785.156	85.4741	785.156	82.734	785.156	83.9381	785.156	82.1	785.156	81.7515	785.156	82.2192	785.156	81.6532	785.156	81.2954	785.156	82.0311	785.156	81.2112	785.156	80.4196	785.156	81.1626	785.156	79.0735	785.156	79.0266	785.156	80.1519	785.156	80.2355	785.156	81.3627
811.523	91.0122	811.523	90.2494	811.523	90.8832	811.523	89.5255	811.523	90.4062	811.523	89.4766	811.523	90.4801	811.523	89.1673	811.523	90.2404	811.523	88.4857	811.523	88.8081	811.523	87.7737	811.523	87.1071	811.523	86.6545	811.523	85.9421	811.523	85.1058	811.523	84.279	811.523	84.0048	811.523	82.9434	811.523	83.6499	811.523	82.9981	811.523	83.0501	811.523	82.6566	811.523	80.9985	811.523	81.8456	811.523	80.3118	811.523	80.3894	811.523	82.0708	811.523	77.5117	811.523	81.1495	811.523	77.6312	811.523	79.1607	811.523	80.0003	811.523	82.0373	811.523	79.2248	811.523	81.1843
840.82	89.6111	840.82	88.5726	840.82	89.7935	840.82	88.3533	840.82	89.0131	840.82	88.5698	840.82	88.5743	840.82	88.076	840.82	88.7615	840.82	87.0652	840.82	88.7384	840.82	85.7141	840.82	87.6684	840.82	84.1302	840.82	85.4107	840.82	82.7389	840.82	82.7436	840.82	81.593	840.82	81.1882	840.82	81.5041	840.82	80.9332	840.82	82.2161	840.82	81.5587	840.82	81.6418	840.82	82.5303	840.82	78.3105	840.82	82.0599	840.82	77.9693	840.82	79.3823	840.82	80.7916	840.82	76.6262	840.82	78.5788	840.82	76.4039	840.82	76.9748	840.82	78.0237	840.82	79.6188
870.117	89.1993	870.117	88.2838	870.117	90.0771	870.117	88.233	870.117	88.9312	870.117	87.676	870.117	87.6596	870.117	87.1667	870.117	88.1811	870.117	86.8437	870.117	87.7819	870.117	86.0845	870.117	86.4723	870.117	84.7499	870.117	85.561	870.117	83.1795	870.117	84.3661	870.117	81.9188	870.117	82.3637	870.117	81.0537	870.117	81.0813	870.117	80.4947	870.117	81.034	870.117	79.3015	870.117	81.7144	870.117	76.458	870.117	81.0165	870.117	76.2221	870.117	77.0047	870.117	76.9144	870.117	73.2039	870.117	77.5979	870.117	80.5877	870.117	78.8267	870.117	80.776	870.117	77.2755
900.879	87.6824	900.879	87.4416	900.879	89.1183	900.879	87.2501	900.879	88.7203	900.879	86.0814	900.879	86.8368	900.879	85.5071	900.879	86.4219	900.879	85.2547	900.879	85.9085	900.879	84.1945	900.879	85.1365	900.879	82.5178	900.879	83.5695	900.879	81.3757	900.879	81.017	900.879	80.9773	900.879	79.9979	900.879	79.5556	900.879	79.2687	900.879	77.2	900.879	80.7281	900.879	79.479	900.879	80.6071	900.879	80.2605	900.879	76.1471	900.879	76.6413	900.879	65.1007	900.879	74.7285	900.879	67.4684	900.879	78.5618	900.879	76.014	900.879	77.8412	900.879	78.9679	900.879	78.8609
933.105	87.5445	933.105	87.8823	933.105	88.0341	933.105	87.8182	933.105	87.8685	933.105	87.6824	933.105	86.4022	933.105	87.0956	933.105	86.7782	933.105	85.4563	933.105	86.8579	933.105	83.4034	933.105	85.131	933.105	82.5348	933.105	83.7379	933.105	82.3143	933.105	81.9848	933.105	81.3226	933.105	79.5206	933.105	80.6796	933.105	77.8353	933.105	79.3981	933.105	77.8171	933.105	75.7019	933.105	79.1337	933.105	78.3302	933.105	78.7879	933.105	79.4898	933.105	77.2033	933.105	79.0517	933.105	75.5488	933.105	77.9988	933.105	75.6134	933.105	78.9471	933.105	77.4389	933.105	78.5762
965.332	88.5413	965.332	88.5969	965.332	88.5664	965.332	88.3394	965.332	88.9141	965.332	87.7643	965.332	87.8797	965.332	86.2903	965.332	87.3783	965.332	84.4375	965.332	86.8923	965.332	83.0541	965.332	85.0257	965.332	82.0851	965.332	83.118	965.332	80.9895	965.332	81.6948	965.332	80.0993	965.332	80.7956	965.332	79.3157	965.332	79.4723	965.332	79.058	965.332	77.9546	965.332	79.2392	965.332	77.2273	965.332	77.2977	965.332	72.9704	965.332	75.0024	965.332	61.5574	965.332	75.4278	965.332	72.7378	965.332	75.9534	965.332	78.1947	965.332	75.7392	965.332	76.3481	965.332	76.4024
1,000.49	88.4069	1,000.49	88.229	1,000.49	88.5225	1,000.49	88.2092	1,000.49	89.4818	1,000.49	88.0087	1,000.49	88.7369	1,000.49	87.1409	1,000.49	86.3473	1,000.49	85.1537	1,000.49	86.9113	1,000.49	84.2285	1,000.49	85.268	1,000.49	84.3033	1,000.49	83.0916	1,000.49	83.6501	1,000.49	82.2453	1,000.49	83.1447	1,000.49	80.1263	1,000.49	81.7506	1,000.49	78.7043	1,000.49	77.7989	1,000.49	77.7036	1,000.49	75.9565	1,000.49	78.4264	1,000.49	75.1101	1,000.49	76.9203	1,000.49	77.1311	1,000.49	76.0364	1,000.49	77.8717	1,000.49	73.9721	1,000.49	78.4854	1,000.49	74.2542	1,000.49	78.4437	1,000.49	77.7486	1,000.49	79.0033
1,035.64	87.242	1,035.64	88.5298	1,035.64	87.5145	1,035.64	88.8363	1,035.64	88.1925	1,035.64	87.8614	1,035.64	87.6019	1,035.64	85.9106	1,035.64	86.6199	1,035.64	84.8095	1,035.64	86.4843	1,035.64	84.7554	1,035.64	85.6685	1,035.64	84.2158	1,035.64	82.9051	1,035.64	83.174	1,035.64	79.9585	1,035.64	80.8171	1,035.64	77.6132	1,035.64	81.8222	1,035.64	79.2299	1,035.64	83.633	1,035.64	82.2657	1,035.64	80.7653	1,035.64	82.1917	1,035.64	79.1734	1,035.64	79.3213	1,035.64	77.5724	1,035.64	73.0587	1,035.64	74.7459	1,035.64	74.3002	1,035.64	77.9078	1,035.64	77.3153	1,035.64	77.2707	1,035.64	75.4238	1,035.64	75.7472
1,072.27	88.9864	1,072.27	89.3609	1,072.27	87.4131	1,072.27	88.8164	1,072.27	88.4442	1,072.27	88.2503	1,072.27	88.3405	1,072.27	87.1815	1,072.27	86.3077	1,072.27	86.7126	1,072.27	85.8331	1,072.27	85.6324	1,072.27	84.402	1,072.27	83.7303	1,072.27	82.7554	1,072.27	81.7741	1,072.27	81.44	1,072.27	81.4535	1,072.27	80.0935	1,072.27	81.5378	1,072.27	78.9119	1,072.27	78.1464	1,072.27	73.2937	1,072.27	80.5597	1,072.27	75.7076	1,072.27	78.6207	1,072.27	69.9913	1,072.27	76.4688	1,072.27	71.1195	1,072.27	78.047	1,072.27	72.96	1,072.27	77.2981	1,072.27	73.7229	1,072.27	77.2678	1,072.27	72.6766	1,072.27	76.6826
1,108.89	89.7588	1,108.89	89.6675	1,108.89	88.8866	1,108.89	88.9956	1,108.89	89.102	1,108.89	87.0319	1,108.89	89.8361	1,108.89	86.4956	1,108.89	87.9417	1,108.89	86.8654	1,108.89	85.2695	1,108.89	85.7132	1,108.89	84.3552	1,108.89	83.9908	1,108.89	82.4862	1,108.89	83.1253	1,108.89	80.0247	1,108.89	81.5051	1,108.89	78.1268	1,108.89	78.6385	1,108.89	77.7898	1,108.89	76.2711	1,108.89	78.847	1,108.89	77.4362	1,108.89	79.2424	1,108.89	78.0436	1,108.89	77.08	1,108.89	78.8894	1,108.89	75.7902	1,108.89	74.3001	1,108.89	75.0483	1,108.89	76.6428	1,108.89	73.9681	1,108.89	78.0063	1,108.89	75.3873	1,108.89	78.419
1,148.44	89.96	1,148.44	89.4089	1,148.44	89.2126	1,148.44	88.3519	1,148.44	88.3315	1,148.44	88.0833	1,148.44	88.9278	1,148.44	88.1967	1,148.44	87.4422	1,148.44	87.298	1,148.44	86.121	1,148.44	85.5476	1,148.44	85.5726	1,148.44	84.2958	1,148.44	82.2715	1,148.44	82.5847	1,148.44	79.9285	1,148.44	80.9204	1,148.44	76.3339	1,148.44	79.4445	1,148.44	77.8218	1,148.44	78.8151	1,148.44	78.0738	1,148.44	76.076	1,148.44	77.1222	1,148.44	73.6	1,148.44	66.4184	1,148.44	72.9246	1,148.44	60.2151	1,148.44	75.9767	1,148.44	72.9518	1,148.44	75.4029	1,148.44	74.352	1,148.44	76.278	1,148.44	74.684	1,148.44	75.6276
1,189.45	90.41	1,189.45	90.2813	1,189.45	89.729	1,189.45	89.184	1,189.45	88.4568	1,189.45	88.4475	1,189.45	88.4048	1,189.45	87.9612	1,189.45	87.1107	1,189.45	86.7407	1,189.45	86.0336	1,189.45	85.6495	1,189.45	84.5913	1,189.45	83.7788	1,189.45	82.6447	1,189.45	80.6388	1,189.45	80.1777	1,189.45	78.726	1,189.45	77.5678	1,189.45	77.6114	1,189.45	74.7922	1,189.45	78.0232	1,189.45	77.8023	1,189.45	77.8361	1,189.45	78.244	1,189.45	78.2554	1,189.45	77.8897	1,189.45	76.8701	1,189.45	76.3351	1,189.45	74.5564	1,189.45	72.8057	1,189.45	73.9923	1,189.45	70.7225	1,189.45	76.4928	1,189.45	74.368	1,189.45	76.7499
1,230.47	90.5564	1,230.47	90.45	1,230.47	89.8253	1,230.47	89.5261	1,230.47	88.5398	1,230.47	88.7567	1,230.47	88.0415	1,230.47	87.8127	1,230.47	86.8978	1,230.47	86.6881	1,230.47	85.7465	1,230.47	85.2962	1,230.47	84.9813	1,230.47	83.5665	1,230.47	81.9774	1,230.47	80.6311	1,230.47	80.0638	1,230.47	78.1819	1,230.47	77.3095	1,230.47	78.2896	1,230.47	75.1191	1,230.47	79.7515	1,230.47	75.5302	1,230.47	77.8589	1,230.47	75.9847	1,230.47	71.525	1,230.47	67.452	1,230.47	74.8737	1,230.47	69.6877	1,230.47	75.6697	1,230.47	68.8223	1,230.47	77.1313	1,230.47	73.0271	1,230.47	78.1722	1,230.47	76.852	1,230.47	78.2605
1,274.41	90.3734	1,274.41	89.8235	1,274.41	89.6587	1,274.41	89.5723	1,274.41	88.3299	1,274.41	89.0926	1,274.41	87.5775	1,274.41	87.6305	1,274.41	87.941	1,274.41	85.2509	1,274.41	86.2873	1,274.41	84.4279	1,274.41	84.1684	1,274.41	84.2228	1,274.41	81.3095	1,274.41	83.6054	1,274.41	77.1888	1,274.41	80.7954	1,274.41	78.5706	1,274.41	80.7875	1,274.41	77.0719	1,274.41	80.0592	1,274.41	74.345	1,274.41	77.162	1,274.41	77.2285	1,274.41	78.7983	1,274.41	79.8327	1,274.41	72.6991	1,274.41	79.1211	1,274.41	75.958	1,274.41	72.8716	1,274.41	74.5508	1,274.41	62.0711	1,274.41	77.0436	1,274.41	72.1902	1,274.41	77.0014
1,319.82	89.5365	1,319.82	89.508	1,319.82	89.6891	1,319.82	88.7532	1,319.82	88.2988	1,319.82	88.4757	1,319.82	87.5146	1,319.82	87.0462	1,319.82	86.548	1,319.82	85.8756	1,319.82	85.5734	1,319.82	85.4215	1,319.82	84.7639	1,319.82	84.6593	1,319.82	81.1854	1,319.82	81.9055	1,319.82	78.6747	1,319.82	81.5117	1,319.82	73.3378	1,319.82	81.0614	1,319.82	76.5203	1,319.82	75.4837	1,319.82	73.7677	1,319.82	77.5276	1,319.82	73.3447	1,319.82	77.6113	1,319.82	66.4133	1,319.82	71.4826	1,319.82	70.5644	1,319.82	75.4151	1,319.82	64.0396	1,319.82	72.2253	1,319.82	69.1656	1,319.82	74.2538	1,319.82	75.5875	1,319.82	75.9796
1,366.7	89.0185	1,366.7	88.8608	1,366.7	89.2147	1,366.7	89.9089	1,366.7	87.4971	1,366.7	88.9924	1,366.7	87.4236	1,366.7	87.694	1,366.7	87.733	1,366.7	86.4067	1,366.7	86.8732	1,366.7	84.4988	1,366.7	85.3232	1,366.7	83.6206	1,366.7	82.3691	1,366.7	81.3319	1,366.7	74.7658	1,366.7	79.9096	1,366.7	79.0531	1,366.7	77.8995	1,366.7	75.8605	1,366.7	80.1706	1,366.7	74.7849	1,366.7	78.9778	1,366.7	77.1847	1,366.7	72.8104	1,366.7	79.6228	1,366.7	74.8483	1,366.7	75.6259	1,366.7	73.3116	1,366.7	75.4471	1,366.7	75.8435	1,366.7	68.9753	1,366.7	78.1114	1,366.7	76.209	1,366.7	73.3263
1,413.57	89.4814	1,413.57	89.0948	1,413.57	88.4489	1,413.57	88.1054	1,413.57	87.4169	1,413.57	87.0481	1,413.57	86.3866	1,413.57	86.0752	1,413.57	86.6873	1,413.57	85.9534	1,413.57	84.8232	1,413.57	84.6328	1,413.57	83.2789	1,413.57	83.0819	1,413.57	80.8181	1,413.57	79.894	1,413.57	77.4295	1,413.57	78.715	1,413.57	74.8941	1,413.57	77.3589	1,413.57	75.9774	1,413.57	72.2048	1,413.57	71.3555	1,413.57	75.1029	1,413.57	71.7383	1,413.57	75.5799	1,413.57	72.8433	1,413.57	80.4121	1,413.57	75.4812	1,413.57	74.0527	1,413.57	70.1313	1,413.57	75.0047	1,413.57	67.3568	1,413.57	67.8663	1,413.57	72.6601	1,413.57	73.1068
1,463.38	89.5582	1,463.38	89.4222	1,463.38	89.1489	1,463.38	89.1984	1,463.38	87.7289	1,463.38	87.6167	1,463.38	86.2668	1,463.38	86.9162	1,463.38	85.9996	1,463.38	86.4305	1,463.38	84.6703	1,463.38	84.1262	1,463.38	83.887	1,463.38	79.347	1,463.38	82.0578	1,463.38	79.3643	1,463.38	74.24	1,463.38	77.8471	1,463.38	76.8385	1,463.38	73.0961	1,463.38	73.903	1,463.38	75.9215	1,463.38	74.8643	1,463.38	74.456	1,463.38	78.5368	1,463.38	72.873	1,463.38	75.9774	1,463.38	73.663	1,463.38	54.5551	1,463.38	72.294	1,463.38	70.3034	1,463.38	73.5514	1,463.38	71.9336	1,463.38	77.1191	1,463.38	75.0528	1,463.38	77.093
1,516.11	89.52	1,516.11	89.6019	1,516.11	89.1649	1,516.11	88.2714	1,516.11	87.1455	1,516.11	87.3214	1,516.11	84.9206	1,516.11	84.9542	1,516.11	85.5066	1,516.11	83.5959	1,516.11	85.07	1,516.11	83.5055	1,516.11	83.6236	1,516.11	82.7527	1,516.11	83.3235	1,516.11	81.1579	1,516.11	78.0365	1,516.11	80.6073	1,516.11	74.0322	1,516.11	77.7276	1,516.11	76.2169	1,516.11	79.2523	1,516.11	75.3566	1,516.11	74.9874	1,516.11	72.7951	1,516.11	77.3815	1,516.11	72.2969	1,516.11	74.4753	1,516.11	75.2654	1,516.11	73.0803	1,516.11	74.3554	1,516.11	75.5721	1,516.11	62.2178	1,516.11	75.438	1,516.11	62.7937	1,516.11	73.3152
1,568.85	88.848	1,568.85	88.6355	1,568.85	89.7852	1,568.85	87.9691	1,568.85	88.855	1,568.85	86.9963	1,568.85	85.8103	1,568.85	85.5303	1,568.85	86.2966	1,568.85	84.7778	1,568.85	82.9651	1,568.85	83.1854	1,568.85	82.4967	1,568.85	81.7184	1,568.85	83.7581	1,568.85	80.78	1,568.85	75.1882	1,568.85	78.3611	1,568.85	70.5424	1,568.85	75.551	1,568.85	76.8172	1,568.85	76.6018	1,568.85	74.1043	1,568.85	72.4616	1,568.85	70.5633	1,568.85	75.5938	1,568.85	72.0678	1,568.85	74.8909	1,568.85	68.6863	1,568.85	72.2089	1,568.85	73.2961	1,568.85	69.6577	1,568.85	71.0332	1,568.85	69.0215	1,568.85	70.2741	1,568.85	74.1741
1,624.51	88.4408	1,624.51	88.4452	1,624.51	88.3403	1,624.51	87.3903	1,624.51	88.309	1,624.51	86.4486	1,624.51	87.3733	1,624.51	86.1788	1,624.51	84.1959	1,624.51	84.3212	1,624.51	84.5297	1,624.51	84.1799	1,624.51	82.6231	1,624.51	81.3516	1,624.51	79.5434	1,624.51	79.6907	1,624.51	79.3406	1,624.51	77.0434	1,624.51	73.1233	1,624.51	76.2487	1,624.51	72.5852	1,624.51	73.9194	1,624.51	73.996	1,624.51	73.5949	1,624.51	62.3682	1,624.51	74.9954	1,624.51	67.0298	1,624.51	76.5747	1,624.51	76.8765	1,624.51	74.321	1,624.51	68.3566	1,624.51	74.2509	1,624.51	60.8228	1,624.51	72.3415	1,624.51	70.7668	1,624.51	73.696
1,681.64	88.2757	1,681.64	87.2767	1,681.64	88.161	1,681.64	86.2157	1,681.64	88.9541	1,681.64	86.8428	1,681.64	87.5664	1,681.64	86.0582	1,681.64	85.2268	1,681.64	85.4198	1,681.64	83.1558	1,681.64	82.5305	1,681.64	82.2054	1,681.64	82.7738	1,681.64	83.4507	1,681.64	79.7706	1,681.64	80.3212	1,681.64	77.9746	1,681.64	70.1621	1,681.64	74.5395	1,681.64	73.7562	1,681.64	73.874	1,681.64	66.8414	1,681.64	73.649	1,681.64	75.9205	1,681.64	66.263	1,681.64	66.0522	1,681.64	54.2802	1,681.64	65.2648	1,681.64	68.9961	1,681.64	52.3095	1,681.64	63.8056	1,681.64	72.5165	1,681.64	71.0935	1,681.64	71.5156	1,681.64	68.2616
1,741.7	89.5807	1,741.7	88.7952	1,741.7	89.5325	1,741.7	87.193	1,741.7	87.528	1,741.7	85.2234	1,741.7	87.2119	1,741.7	84.589	1,741.7	85.5605	1,741.7	83.8216	1,741.7	83.562	1,741.7	83.2246	1,741.7	83.8359	1,741.7	79.6105	1,741.7	82.4517	1,741.7	78.5564	1,741.7	78.4033	1,741.7	77.1613	1,741.7	75.2391	1,741.7	76.8461	1,741.7	72.7343	1,741.7	75.5374	1,741.7	72.8938	1,741.7	72.5008	1,741.7	68.5657	1,741.7	75.3363	1,741.7	65.3422	1,741.7	74.8959	1,741.7	69.3947	1,741.7	70.9727	1,741.7	71.7392	1,741.7	71.3126	1,741.7	69.6201	1,741.7	73.0811	1,741.7	64.6456	1,741.7	74.2193
1,803.22	89.8879	1,803.22	88.8146	1,803.22	89.7691	1,803.22	87.4956	1,803.22	87.715	1,803.22	86.1936	1,803.22	86.74	1,803.22	86.062	1,803.22	84.2764	1,803.22	84.7111	1,803.22	83.9691	1,803.22	83.6722	1,803.22	82.2998	1,803.22	81.7934	1,803.22	82.9855	1,803.22	78.6326	1,803.22	81.5013	1,803.22	73.575	1,803.22	76.2012	1,803.22	73.3552	1,803.22	74.5022	1,803.22	69.3015	1,803.22	68.6257	1,803.22	75.726	1,803.22	66.0758	1,803.22	71.8603	1,803.22	62.9453	1,803.22	73.2033	1,803.22	72.3595	1,803.22	69.7316	1,803.22	73.6028	1,803.22	64.5699	1,803.22	63.0475	1,803.22	67.6849	1,803.22	74.5637	1,803.22	73.6803
1,866.21	89.4683	1,866.21	88.207	1,866.21	90.0287	1,866.21	87.8978	1,866.21	89.3221	1,866.21	87.5688	1,866.21	86.0183	1,866.21	86.198	1,866.21	85.9307	1,866.21	85.8411	1,866.21	82.8013	1,866.21	83.9526	1,866.21	83.1558	1,866.21	80.2041	1,866.21	82.621	1,866.21	79.1031	1,866.21	77.2492	1,866.21	78.0168	1,866.21	78.9937	1,866.21	73.8627	1,866.21	69.3628	1,866.21	73.4294	1,866.21	72.3363	1,866.21	71.8761	1,866.21	66.4413	1,866.21	73.9544	1,866.21	49.2321	1,866.21	71.0122	1,866.21	72.9569	1,866.21	73.3038	1,866.21	61.8792	1,866.21	70.5146	1,866.21	65.5772	1,866.21	73.073	1,866.21	68.1185	1,866.21	70.47
1,932.13	88.9559	1,932.13	88.1036	1,932.13	88.7457	1,932.13	87.0831	1,932.13	88.927	1,932.13	87.4124	1,932.13	85.8113	1,932.13	87.009	1,932.13	82.9188	1,932.13	86.0947	1,932.13	81.966	1,932.13	83.9939	1,932.13	83.8926	1,932.13	83.1503	1,932.13	82.8699	1,932.13	78.6632	1,932.13	79.5811	1,932.13	75.8587	1,932.13	73.1578	1,932.13	69.3406	1,932.13	77.4712	1,932.13	71.9186	1,932.13	72.6879	1,932.13	69.9312	1,932.13	69.7105	1,932.13	75.1669	1,932.13	66.2594	1,932.13	76.4066	1,932.13	65.0122	1,932.13	71.887	1,932.13	73.1869	1,932.13	67.2368	1,932.13	70.336	1,932.13	70.5201	1,932.13	65.2873	1,932.13	73.9549
1,999.51	89.526	1,999.51	88.3129	1,999.51	89.1653	1,999.51	86.9782	1,999.51	87.7561	1,999.51	87.0728	1,999.51	87.3146	1,999.51	87.7506	1,999.51	82.2908	1,999.51	86.778	1,999.51	82.7509	1,999.51	85.3098	1,999.51	83.1215	1,999.51	81.3089	1,999.51	82.5886	1,999.51	79.2668	1,999.51	79.1918	1,999.51	77.7341	1,999.51	77.4764	1,999.51	77.7677	1,999.51	73.0658	1,999.51	71.1263	1,999.51	76.6068	1,999.51	71.6786	1,999.51	65.4627	1,999.51	73.558	1,999.51	61.9405	1,999.51	73.1852	1,999.51	63.5973	1,999.51	72.591	1,999.51	72.0324	1,999.51	70.3682	1,999.51	66.0919	1,999.51	70.8641	1,999.51	69.8061	1,999.51	68.6839
2,069.82	90.4073	2,069.82	89.5522	2,069.82	90.0433	2,069.82	88.3096	2,069.82	87.9747	2,069.82	87.1913	2,069.82	86.2904	2,069.82	87.5054	2,069.82	83.3144	2,069.82	86.9859	2,069.82	83.5838	2,069.82	84.3133	2,069.82	83.1308	2,069.82	83.5286	2,069.82	84.4235	2,069.82	78.579	2,069.82	80.3615	2,069.82	74.5925	2,069.82	72.4539	2,069.82	70.835	2,069.82	76.2907	2,069.82	72.7333	2,069.82	76.6251	2,069.82	72.1714	2,069.82	71.7448	2,069.82	72.2493	2,069.82	63.0577	2,069.82	74.7539	2,069.82	65.0802	2,069.82	72.2846	2,069.82	72.442	2,069.82	71.0498	2,069.82	63.9622	2,069.82	71.001	2,069.82	68.1299	2,069.82	73.7987
2,143.07	89.8558	2,143.07	88.6744	2,143.07	90.0646	2,143.07	87.8191	2,143.07	88.274	2,143.07	87.575	2,143.07	85.5067	2,143.07	87.9587	2,143.07	83.5343	2,143.07	86.9031	2,143.07	83.5278	2,143.07	86.2688	2,143.07	84.7601	2,143.07	81.9476	2,143.07	84.6519	2,143.07	80.1879	2,143.07	81.1373	2,143.07	77.1363	2,143.07	76.3459	2,143.07	76.6839	2,143.07	74.4079	2,143.07	66.6879	2,143.07	78.5909	2,143.07	73.2946	2,143.07	70.5993	2,143.07	74.2273	2,143.07	61.5351	2,143.07	72.0734	2,143.07	65.2193	2,143.07	73.1418	2,143.07	66.967	2,143.07	71.1222	2,143.07	70.0233	2,143.07	70.567	2,143.07	68.6196	2,143.07	71.5783
2,219.24	88.8861	2,219.24	87.5493	2,219.24	89.079	2,219.24	86.0007	2,219.24	87.6749	2,219.24	87.3773	2,219.24	84.1131	2,219.24	87.2879	2,219.24	82.0063	2,219.24	87.093	2,219.24	84.9135	2,219.24	84.8926	2,219.24	85.0519	2,219.24	83.5105	2,219.24	85.6308	2,219.24	80.9761	2,219.24	79.3761	2,219.24	75.3579	2,219.24	74.9708	2,219.24	75.0377	2,219.24	75.6694	2,219.24	73.5504	2,219.24	74.0538	2,219.24	69.2089	2,219.24	69.5638	2,219.24	73.4363	2,219.24	64.7874	2,219.24	74.4646	2,219.24	62.9842	2,219.24	70.494	2,219.24	65.8144	2,219.24	67.9252	2,219.24	68.5415	2,219.24	72.3262	2,219.24	62.1593	2,219.24	71.9719
2,296.88	88.6398	2,296.88	87.1967	2,296.88	88.5054	2,296.88	84.5736	2,296.88	85.4165	2,296.88	85.5484	2,296.88	83.2391	2,296.88	86.5297	2,296.88	80.0678	2,296.88	85.7207	2,296.88	84.0691	2,296.88	84.9056	2,296.88	84.4356	2,296.88	82.083	2,296.88	83.4535	2,296.88	76.0558	2,296.88	80.3194	2,296.88	75.0067	2,296.88	74.5465	2,296.88	69.6829	2,296.88	71.2399	2,296.88	69.5083	2,296.88	72.0653	2,296.88	68.6774	2,296.88	69.1741	2,296.88	71.0808	2,296.88	66.6505	2,296.88	71.9048	2,296.88	64.8772	2,296.88	71.0596	2,296.88	63.7745	2,296.88	65.1603	2,296.88	62.3092	2,296.88	69.506	2,296.88	67.3932	2,296.88	71.3804
2,378.91	89.0659	2,378.91	87.3498	2,378.91	88.7206	2,378.91	85.3009	2,378.91	85.7505	2,378.91	84.95	2,378.91	81.4165	2,378.91	85.933	2,378.91	78.7663	2,378.91	85.9014	2,378.91	82.9799	2,378.91	83.0334	2,378.91	82.8381	2,378.91	81.3704	2,378.91	82.9652	2,378.91	78.0471	2,378.91	80.3198	2,378.91	70.5896	2,378.91	78.194	2,378.91	71.4701	2,378.91	70.1336	2,378.91	61.7217	2,378.91	67.2318	2,378.91	68.0275	2,378.91	66.2478	2,378.91	68.4399	2,378.91	68.1576	2,378.91	64.864	2,378.91	64.4569	2,378.91	64.8823	2,378.91	53.4834	2,378.91	63.3897	2,378.91	60.1674	2,378.91	69.3064	2,378.91	62.6582	2,378.91	66.7224
2,462.4	89.2181	2,462.4	87.6554	2,462.4	89.1858	2,462.4	86.0611	2,462.4	86.0735	2,462.4	86.2389	2,462.4	80.9228	2,462.4	86.068	2,462.4	80.2992	2,462.4	84.8584	2,462.4	83.288	2,462.4	83.4452	2,462.4	82.4158	2,462.4	77.8736	2,462.4	82.2685	2,462.4	74.2985	2,462.4	76.8374	2,462.4	72.2952	2,462.4	72.4616	2,462.4	59.2434	2,462.4	69.8273	2,462.4	65.395	2,462.4	64.2744	2,462.4	62.2941	2,462.4	61.7732	2,462.4	63.0474	2,462.4	68.7783	2,462.4	66.5632	2,462.4	57.9789	2,462.4	62.7592	2,462.4	63.5127	2,462.4	45.2411	2,462.4	50.2027	2,462.4	67.5853	2,462.4	53.5486	2,462.4	64.2631
2,548.83	90.5811	2,548.83	88.8358	2,548.83	89.1406	2,548.83	86.8031	2,548.83	85.3094	2,548.83	87.1866	2,548.83	80.2296	2,548.83	87.4361	2,548.83	81.7919	2,548.83	85.7847	2,548.83	82.9299	2,548.83	82.2761	2,548.83	81.7092	2,548.83	79.8219	2,548.83	79.8425	2,548.83	74.5517	2,548.83	75.1523	2,548.83	67.3158	2,548.83	71.2688	2,548.83	66.2543	2,548.83	67.6196	2,548.83	59.9263	2,548.83	65.2439	2,548.83	59.0547	2,548.83	62.5051	2,548.83	64.0732	2,548.83	66.2343	2,548.83	64.8568	2,548.83	64.4043	2,548.83	58.667	2,548.83	61.6263	2,548.83	56.8518	2,548.83	54.4129	2,548.83	65.9647	2,548.83	54.5632	2,548.83	65.2159
2,639.65	89.9622	2,639.65	88.5248	2,639.65	88.2501	2,639.65	85.5872	2,639.65	82.3136	2,639.65	85.1713	2,639.65	80.6069	2,639.65	86.7996	2,639.65	81.0616	2,639.65	85.3562	2,639.65	82.878	2,639.65	83.7259	2,639.65	81.0769	2,639.65	80.241	2,639.65	77.6756	2,639.65	74.9769	2,639.65	72.7565	2,639.65	72.2442	2,639.65	71.0511	2,639.65	65.1527	2,639.65	64.8612	2,639.65	61.7374	2,639.65	60.2444	2,639.65	65.1352	2,639.65	66.9446	2,639.65	66.8278	2,639.65	66.388	2,639.65	68.449	2,639.65	64.6432	2,639.65	64.2522	2,639.65	66.3726	2,639.65	51.067	2,639.65	57.2279	2,639.65	65.9427	2,639.65	50.0256	2,639.65	64.7508
2,731.93	86.9517	2,731.93	84.9615	2,731.93	84.0104	2,731.93	80.3465	2,731.93	78.4408	2,731.93	81.7518	2,731.93	79.2182	2,731.93	83.4733	2,731.93	79.4235	2,731.93	83.9465	2,731.93	81.6052	2,731.93	82.2183	2,731.93	79.1931	2,731.93	80.0358	2,731.93	73.7088	2,731.93	76.3629	2,731.93	62.8311	2,731.93	69.2607	2,731.93	68.4764	2,731.93	70.1779	2,731.93	65.8762	2,731.93	67.0916	2,731.93	58.8522	2,731.93	66.8612	2,731.93	64.5035	2,731.93	69.0689	2,731.93	65.1309	2,731.93	68.0218	2,731.93	65.2363	2,731.93	65.2874	2,731.93	64.8003	2,731.93	62.8387	2,731.93	57.249	2,731.93	67.8501	2,731.93	55.1862	2,731.93	56.8676
2,828.61	86.1268	2,828.61	83.8184	2,828.61	83.3895	2,828.61	76.6978	2,828.61	74.6291	2,828.61	80.1517	2,828.61	76.0874	2,828.61	81.1027	2,828.61	80.4513	2,828.61	81.993	2,828.61	78.988	2,828.61	81.9289	2,828.61	75.7036	2,828.61	78.6855	2,828.61	68.261	2,828.61	76.4412	2,828.61	66.8744	2,828.61	75.6812	2,828.61	46.2591	2,828.61	67.8598	2,828.61	56.6337	2,828.61	69.1504	2,828.61	62.2788	2,828.61	67.1435	2,828.61	58.6066	2,828.61	68.3612	2,828.61	61.6689	2,828.61	69.3257	2,828.61	64.4325	2,828.61	57.0709	2,828.61	63.9429	2,828.61	65.5966	2,828.61	65.1126	2,828.61	68.4461	2,828.61	55.4773	2,828.61	55.4541
2,928.22	86.8229	2,928.22	83.7616	2,928.22	85.0371	2,928.22	79.6094	2,928.22	74.036	2,928.22	82.5088	2,928.22	78.0363	2,928.22	81.4277	2,928.22	80.2115	2,928.22	79.719	2,928.22	78.6146	2,928.22	79.5667	2,928.22	68.5185	2,928.22	80.6922	2,928.22	67.9435	2,928.22	75.3518	2,928.22	71.5335	2,928.22	72.9823	2,928.22	66.6029	2,928.22	69.6169	2,928.22	61.305	2,928.22	70.9666	2,928.22	64.1673	2,928.22	69.2538	2,928.22	62.01	2,928.22	68.2615	2,928.22	52.2509	2,928.22	67.4555	2,928.22	64.6557	2,928.22	61.9829	2,928.22	63.8366	2,928.22	67.8147	2,928.22	64.8819	2,928.22	67.4979	2,928.22	48.9673	2,928.22	44.7753
3,030.76	87.7033	3,030.76	84.4494	3,030.76	84.7906	3,030.76	80.5296	3,030.76	74.4806	3,030.76	84.2398	3,030.76	80.345	3,030.76	82.4263	3,030.76	79.2775	3,030.76	77.3615	3,030.76	76.2338	3,030.76	79.8912	3,030.76	71.3719	3,030.76	78.9333	3,030.76	77.7593	3,030.76	79.2574	3,030.76	77.654	3,030.76	75.4476	3,030.76	65.8034	3,030.76	72.8257	3,030.76	68.0076	3,030.76	69.6765	3,030.76	71.1789	3,030.76	69.3384	3,030.76	64.6591	3,030.76	70.2405	3,030.76	43.9428	3,030.76	69.342	3,030.76	61.4537	3,030.76	52.9485	3,030.76	60.6754	3,030.76	69.7934	3,030.76	65.2817	3,030.76	63.7981	3,030.76	54.9727	3,030.76	54.3361
3,137.7	88.8864	3,137.7	86.2791	3,137.7	84.7622	3,137.7	81.6619	3,137.7	71.3787	3,137.7	85.176	3,137.7	80.104	3,137.7	83.3753	3,137.7	77.4169	3,137.7	78.3904	3,137.7	74.7725	3,137.7	78.2884	3,137.7	75.2966	3,137.7	78.4527	3,137.7	81.5665	3,137.7	73.3132	3,137.7	80.4449	3,137.7	75.2913	3,137.7	71.9296	3,137.7	67.9199	3,137.7	72.339	3,137.7	69.7466	3,137.7	70.0495	3,137.7	69.5117	3,137.7	67.8097	3,137.7	68.8979	3,137.7	55.3738	3,137.7	66.8068	3,137.7	61.4048	3,137.7	58.9572	3,137.7	62.7666	3,137.7	67.5818	3,137.7	65.0357	3,137.7	64.5607	3,137.7	60.7051	3,137.7	56.1075
3,249.02	89.5972	3,249.02	87.1503	3,249.02	86.5641	3,249.02	81.8168	3,249.02	76.0962	3,249.02	85.0944	3,249.02	81.5305	3,249.02	83.4312	3,249.02	79.8649	3,249.02	77.9705	3,249.02	76.576	3,249.02	78.2305	3,249.02	78.285	3,249.02	79.3081	3,249.02	83.2839	3,249.02	76.3975	3,249.02	82.5521	3,249.02	69.4204	3,249.02	75.2906	3,249.02	69.3971	3,249.02	75.0251	3,249.02	67.1628	3,249.02	73.0936	3,249.02	69.0514	3,249.02	68.2427	3,249.02	70.0541	3,249.02	63.8923	3,249.02	68.4371	3,249.02	61.9713	3,249.02	53.244	3,249.02	61.8313	3,249.02	69.3994	3,249.02	66.2651	3,249.02	63.8262	3,249.02	58.8952	3,249.02	58.3742
3,363.28	90.1335	3,363.28	87.7618	3,363.28	85.5632	3,363.28	81.1701	3,363.28	78.5761	3,363.28	85.3297	3,363.28	83.7207	3,363.28	84.0228	3,363.28	80.5442	3,363.28	77.6037	3,363.28	74.8236	3,363.28	79.7304	3,363.28	78.0343	3,363.28	79.1365	3,363.28	85.161	3,363.28	77.856	3,363.28	82.9196	3,363.28	75.8701	3,363.28	77.5195	3,363.28	68.961	3,363.28	79.2853	3,363.28	67.2854	3,363.28	74.4495	3,363.28	67.9856	3,363.28	72.2111	3,363.28	70.7127	3,363.28	63.2615	3,363.28	68.6523	3,363.28	47.247	3,363.28	61.8726	3,363.28	61.3544	3,363.28	69.7506	3,363.28	63.6054	3,363.28	62.0275	3,363.28	61.4864	3,363.28	56.808
3,481.93	90.4527	3,481.93	88.3142	3,481.93	83.612	3,481.93	79.8055	3,481.93	81.7969	3,481.93	84.3901	3,481.93	84.42	3,481.93	83.296	3,481.93	79.3445	3,481.93	78.1587	3,481.93	77.8559	3,481.93	79.8122	3,481.93	82.295	3,481.93	80.3539	3,481.93	85.0459	3,481.93	75.5257	3,481.93	84.1935	3,481.93	74.1055	3,481.93	77.7434	3,481.93	68.2449	3,481.93	76.8859	3,481.93	68.3929	3,481.93	75.3698	3,481.93	69.0824	3,481.93	73.9676	3,481.93	71.0307	3,481.93	61.8107	3,481.93	68.5538	3,481.93	56.939	3,481.93	56.7916	3,481.93	56.4625	3,481.93	68.1039	3,481.93	66.1274	3,481.93	63.5578	3,481.93	61.5655	3,481.93	59.8302
3,604.98	89.4807	3,604.98	88.2606	3,604.98	79.7751	3,604.98	75.3848	3,604.98	83.203	3,604.98	83.3121	3,604.98	83.9481	3,604.98	82.9406	3,604.98	77.846	3,604.98	78.3081	3,604.98	79.3252	3,604.98	80.245	3,604.98	82.5874	3,604.98	80.3752	3,604.98	84.3306	3,604.98	77.3062	3,604.98	82.4778	3,604.98	70.3998	3,604.98	72.905	3,604.98	68.8121	3,604.98	74.2071	3,604.98	66.3303	3,604.98	74.0666	3,604.98	68.2509	3,604.98	71.1612	3,604.98	72.1433	3,604.98	64.486	3,604.98	67.1919	3,604.98	54.5199	3,604.98	57.6343	3,604.98	44.5474	3,604.98	69.6249	3,604.98	64.3974	3,604.98	62.2696	3,604.98	63.1767	3,604.98	60.3883
3,732.42	88.174	3,732.42	87.2422	3,732.42	72.1043	3,732.42	69.8336	3,732.42	83.967	3,732.42	82.4611	3,732.42	83.4554	3,732.42	82.6041	3,732.42	80.6486	3,732.42	77.5395	3,732.42	81.6125	3,732.42	81.0427	3,732.42	83.53	3,732.42	79.8691	3,732.42	83.4905	3,732.42	77.9106	3,732.42	79.9597	3,732.42	73.2849	3,732.42	65.1705	3,732.42	68.196	3,732.42	70.646	3,732.42	65.1127	3,732.42	72.2658	3,732.42	68.9498	3,732.42	68.5205	3,732.42	70.2461	3,732.42	65.8511	3,732.42	66.0403	3,732.42	60.4978	3,732.42	60.2146	3,732.42	58.4743	3,732.42	68.2369	3,732.42	64.9077	3,732.42	57.9097	3,732.42	61.8037	3,732.42	61.5333
3,864.26	87.4402	3,864.26	87.3064	3,864.26	66.5716	3,864.26	66.0478	3,864.26	84.3125	3,864.26	82.4343	3,864.26	81.9006	3,864.26	82.0358	3,864.26	79.2453	3,864.26	78.1967	3,864.26	80.4605	3,864.26	79.9561	3,864.26	82.4967	3,864.26	80.2778	3,864.26	81.9095	3,864.26	76.4763	3,864.26	78.1051	3,864.26	72.497	3,864.26	69.5897	3,864.26	67.8124	3,864.26	70.3673	3,864.26	66.0633	3,864.26	72.0753	3,864.26	68.9051	3,864.26	67.5443	3,864.26	68.8392	3,864.26	65.7521	3,864.26	65.5517	3,864.26	62.3571	3,864.26	55.6695	3,864.26	62.3507	3,864.26	66.6493	3,864.26	64.2402	3,864.26	59.1554	3,864.26	63.1914	3,864.26	61.5964
4,000.49	85.9905	4,000.49	85.9672	4,000.49	75.5516	4,000.49	71.6991	4,000.49	84.4841	4,000.49	82.5274	4,000.49	81.2311	4,000.49	81.8437	4,000.49	78.693	4,000.49	78.7542	4,000.49	80.3638	4,000.49	79.2414	4,000.49	81.0509	4,000.49	79.697	4,000.49	80.3486	4,000.49	76.3207	4,000.49	77.8713	4,000.49	72.1514	4,000.49	69.9978	4,000.49	65.6314	4,000.49	59.3285	4,000.49	65.6837	4,000.49	66.1954	4,000.49	68.887	4,000.49	67.0784	4,000.49	70.2402	4,000.49	63.9868	4,000.49	63.4281	4,000.49	65.8104	4,000.49	58.4715	4,000.49	62.6705	4,000.49	66.7597	4,000.49	60.6438	4,000.49	57.2482	4,000.49	62.4116	4,000.49	62.8785
4,141.11	85.2799	4,141.11	86.0367	4,141.11	78.9343	4,141.11	75.8459	4,141.11	83.7266	4,141.11	82.8543	4,141.11	82.9218	4,141.11	82.051	4,141.11	81.3652	4,141.11	78.7029	4,141.11	80.625	4,141.11	78.7585	4,141.11	79.1229	4,141.11	79.9639	4,141.11	74.7924	4,141.11	76.0415	4,141.11	76.9357	4,141.11	70.6814	4,141.11	72.9966	4,141.11	66.3219	4,141.11	71.7232	4,141.11	65.6881	4,141.11	59.3709	4,141.11	70.4281	4,141.11	66.6736	4,141.11	69.4907	4,141.11	63.9279	4,141.11	61.0692	4,141.11	64.7616	4,141.11	63.1272	4,141.11	61.6182	4,141.11	65.8488	4,141.11	60.0218	4,141.11	58.6284	4,141.11	62.2888	4,141.11	63.1921
4,287.6	85.2337	4,287.6	84.6884	4,287.6	81.5691	4,287.6	79.4755	4,287.6	83.7383	4,287.6	83.7795	4,287.6	82.6777	4,287.6	82.2161	4,287.6	83.272	4,287.6	79.3792	4,287.6	80.4897	4,287.6	78.7263	4,287.6	77.3193	4,287.6	79.3165	4,287.6	74.2587	4,287.6	76.8057	4,287.6	78.7856	4,287.6	70.3109	4,287.6	73.5968	4,287.6	68.5061	4,287.6	71.1792	4,287.6	67.9802	4,287.6	66.8843	4,287.6	68.2563	4,287.6	63.094	4,287.6	69.2063	4,287.6	64.3443	4,287.6	62.5426	4,287.6	61.1457	4,287.6	59.2894	4,287.6	61.0334	4,287.6	64.3698	4,287.6	62.192	4,287.6	58.6984	4,287.6	62.0251	4,287.6	62.9875
4,438.48	85.7215	4,438.48	83.6071	4,438.48	80.7972	4,438.48	81.2615	4,438.48	84.5448	4,438.48	83.4187	4,438.48	82.9049	4,438.48	82.7781	4,438.48	83.977	4,438.48	80.3404	4,438.48	79.7512	4,438.48	77.9432	4,438.48	77.2492	4,438.48	79.8667	4,438.48	79.7488	4,438.48	77.7993	4,438.48	80.343	4,438.48	72.3724	4,438.48	73.4255	4,438.48	67.6063	4,438.48	71.0259	4,438.48	67.7481	4,438.48	64.4768	4,438.48	69.4431	4,438.48	62.992	4,438.48	67.995	4,438.48	63.8776	4,438.48	60.4628	4,438.48	63.3062	4,438.48	61.5959	4,438.48	63.8086	4,438.48	65.4637	4,438.48	59.0178	4,438.48	54.1915	4,438.48	61.6153	4,438.48	63.8474
4,595.21	87.6099	4,595.21	84.4777	4,595.21	81.4252	4,595.21	82.5657	4,595.21	84.8655	4,595.21	84.4415	4,595.21	84.2351	4,595.21	82.9666	4,595.21	83.2824	4,595.21	80.1055	4,595.21	79.6405	4,595.21	78.138	4,595.21	76.4215	4,595.21	79.2135	4,595.21	80.1863	4,595.21	78.321	4,595.21	79.1297	4,595.21	75.3654	4,595.21	69.8737	4,595.21	69.514	4,595.21	69.669	4,595.21	69.5732	4,595.21	67.4522	4,595.21	69.9784	4,595.21	62.3735	4,595.21	68.7126	4,595.21	62.215	4,595.21	58.5407	4,595.21	62.6775	4,595.21	64.3451	4,595.21	61.4016	4,595.21	65.5978	4,595.21	61.5951	4,595.21	58.9461	4,595.21	62.3913	4,595.21	62.0567
4,756.35	86.9666	4,756.35	85.4594	4,756.35	80.4753	4,756.35	82.0845	4,756.35	85.9304	4,756.35	85.4532	4,756.35	85.232	4,756.35	83.1653	4,756.35	83.4344	4,756.35	81.3321	4,756.35	80.7684	4,756.35	76.0046	4,756.35	74.8814	4,756.35	79.5728	4,756.35	82.0808	4,756.35	78.767	4,756.35	80.8446	4,756.35	75.0276	4,756.35	68.2876	4,756.35	71.3414	4,756.35	67.0505	4,756.35	70.9021	4,756.35	68.9495	4,756.35	70.0378	4,756.35	60.9495	4,756.35	68.9811	4,756.35	61.194	4,756.35	60.9646	4,756.35	64.0512	4,756.35	64.7287	4,756.35	59.5752	4,756.35	66.072	4,756.35	62.3393	4,756.35	57.0168	4,756.35	62.9154	4,756.35	63.0917
4,924.8	86.2986	4,924.8	86.784	4,924.8	82.924	4,924.8	82.0174	4,924.8	86.0192	4,924.8	85.7512	4,924.8	86.1446	4,924.8	84.6087	4,924.8	83.4135	4,924.8	81.861	4,924.8	79.3931	4,924.8	76.9602	4,924.8	80.16	4,924.8	79.4879	4,924.8	81.141	4,924.8	79.066	4,924.8	81.0495	4,924.8	73.3387	4,924.8	69.5841	4,924.8	71.5691	4,924.8	59.113	4,924.8	70.5008	4,924.8	68.7204	4,924.8	69.7916	4,924.8	62.5058	4,924.8	67.5484	4,924.8	61.9167	4,924.8	58.8054	4,924.8	63.8156	4,924.8	66.2989	4,924.8	63.8223	4,924.8	66.7811	4,924.8	60.6339	4,924.8	62.4349	4,924.8	63.002	4,924.8	63.1407
5,097.66	85.7418	5,097.66	86.1531	5,097.66	84.185	5,097.66	82.8326	5,097.66	87.17	5,097.66	85.7465	5,097.66	85.3666	5,097.66	84.7594	5,097.66	84.1231	5,097.66	83.1489	5,097.66	80.8915	5,097.66	76.8259	5,097.66	81.9242	5,097.66	80.1663	5,097.66	75.3481	5,097.66	78.9527	5,097.66	77.3443	5,097.66	74.6674	5,097.66	69.0436	5,097.66	71.555	5,097.66	63.5104	5,097.66	69.8091	5,097.66	64.4346	5,097.66	69.0148	5,097.66	59.8996	5,097.66	66.7974	5,097.66	50.6389	5,097.66	57.5406	5,097.66	64.424	5,097.66	67.2766	5,097.66	64.6497	5,097.66	66.4208	5,097.66	60.0927	5,097.66	61.7249	5,097.66	61.18	5,097.66	63.6085
5,277.83	86.0286	5,277.83	86.3064	5,277.83	85.5139	5,277.83	83.7321	5,277.83	86.8476	5,277.83	86.1197	5,277.83	85.572	5,277.83	85.4167	5,277.83	84.7996	5,277.83	83.1268	5,277.83	82.5172	5,277.83	78.309	5,277.83	81.7127	5,277.83	80.3861	5,277.83	77.3255	5,277.83	78.5535	5,277.83	77.5011	5,277.83	73.9341	5,277.83	74.9051	5,277.83	70.6742	5,277.83	67.9208	5,277.83	68.1682	5,277.83	61.847	5,277.83	66.8247	5,277.83	57.0113	5,277.83	65.5793	5,277.83	59.5787	5,277.83	59.3897	5,277.83	61.023	5,277.83	66.6821	5,277.83	65.1065	5,277.83	65.9353	5,277.83	62.5453	5,277.83	62.41	5,277.83	62.2094	5,277.83	63.5633
5,463.87	86.5599	5,463.87	86.4065	5,463.87	86.3361	5,463.87	84.0936	5,463.87	86.5395	5,463.87	86.0433	5,463.87	85.1286	5,463.87	85.487	5,463.87	84.1475	5,463.87	83.8468	5,463.87	83.6347	5,463.87	77.2298	5,463.87	79.1562	5,463.87	81.0343	5,463.87	79.8393	5,463.87	78.572	5,463.87	79.5245	5,463.87	75.9244	5,463.87	77.0396	5,463.87	71.124	5,463.87	70.0468	5,463.87	67.9871	5,463.87	62.6633	5,463.87	65.0086	5,463.87	55.8661	5,463.87	67.5305	5,463.87	59.9947	5,463.87	62.9294	5,463.87	59.6967	5,463.87	66.5925	5,463.87	59.3427	5,463.87	65.5003	5,463.87	59.4426	5,463.87	62.0578	5,463.87	62.1367	5,463.87	61.5413
5,657.23	87.1905	5,657.23	86.0298	5,657.23	86.1049	5,657.23	86.0011	5,657.23	87.1778	5,657.23	84.9982	5,657.23	84.2648	5,657.23	85.2143	5,657.23	84.7026	5,657.23	83.6469	5,657.23	83.4807	5,657.23	77.1908	5,657.23	80.2057	5,657.23	79.9572	5,657.23	81.6849	5,657.23	78.9782	5,657.23	80.915	5,657.23	74.3352	5,657.23	74.7712	5,657.23	69.6203	5,657.23	67.0711	5,657.23	67.21	5,657.23	62.1123	5,657.23	65.4068	5,657.23	54.3075	5,657.23	69.212	5,657.23	63.4718	5,657.23	63.3115	5,657.23	65.7558	5,657.23	66.9783	5,657.23	61.2939	5,657.23	63.1511	5,657.23	61.1219	5,657.23	61.959	5,657.23	63.822	5,657.23	60.4073
5,856.45	87.2163	5,856.45	86.4117	5,856.45	86.1638	5,856.45	86.2385	5,856.45	86.964	5,856.45	84.3955	5,856.45	83.9276	5,856.45	84.6342	5,856.45	85.2379	5,856.45	84.2087	5,856.45	83.0856	5,856.45	76.4332	5,856.45	82.3549	5,856.45	79.6763	5,856.45	82.7826	5,856.45	78.584	5,856.45	82.6342	5,856.45	75.0341	5,856.45	77.1868	5,856.45	71.4058	5,856.45	62.8461	5,856.45	67.9478	5,856.45	63.328	5,856.45	65.9078	5,856.45	60.6711	5,856.45	68.3271	5,856.45	66.3072	5,856.45	62.6285	5,856.45	63.8343	5,856.45	65.7044	5,856.45	60.6313	5,856.45	61.1071	5,856.45	62.3696	5,856.45	60.0707	5,856.45	59.4647	5,856.45	61.9513
6,062.99	87.5977	6,062.99	87.1756	6,062.99	86.8029	6,062.99	85.391	6,062.99	86.9221	6,062.99	85.0813	6,062.99	84.9274	6,062.99	83.2049	6,062.99	84.354	6,062.99	84.2659	6,062.99	84.6258	6,062.99	78.1622	6,062.99	82.771	6,062.99	77.9514	6,062.99	83.7445	6,062.99	76.8779	6,062.99	84.2919	6,062.99	72.7575	6,062.99	79.8995	6,062.99	71.5744	6,062.99	68.8429	6,062.99	61.0533	6,062.99	63.107	6,062.99	64.0727	6,062.99	64.6615	6,062.99	68.0141	6,062.99	63.915	6,062.99	61.4867	6,062.99	57.6151	6,062.99	65.0263	6,062.99	59.4193	6,062.99	59.1603	6,062.99	62.1326	6,062.99	59.8461	6,062.99	62.8679	6,062.99	60.2059
6,276.86	87.7459	6,276.86	88.214	6,276.86	88.0104	6,276.86	85.5344	6,276.86	86.0843	6,276.86	85.3538	6,276.86	85.6631	6,276.86	83.3889	6,276.86	83.4288	6,276.86	83.8431	6,276.86	83.5539	6,276.86	79.4185	6,276.86	81.8116	6,276.86	77.6235	6,276.86	83.2933	6,276.86	77.4306	6,276.86	82.5454	6,276.86	74.9785	6,276.86	76.5355	6,276.86	69.2634	6,276.86	66.6415	6,276.86	64.3107	6,276.86	52.4189	6,276.86	64.2511	6,276.86	58.466	6,276.86	68.4408	6,276.86	64.027	6,276.86	62.4687	6,276.86	53.0374	6,276.86	65.0121	6,276.86	64.3128	6,276.86	60.0767	6,276.86	54.4801	6,276.86	58.6481	6,276.86	59.3876	6,276.86	60.7587
6,498.05	87.7346	6,498.05	88.3903	6,498.05	88.0211	6,498.05	85.8715	6,498.05	85.9888	6,498.05	86.1291	6,498.05	85.011	6,498.05	83.7758	6,498.05	81.8505	6,498.05	83.6143	6,498.05	82.2573	6,498.05	80.5992	6,498.05	82.9915	6,498.05	76.6211	6,498.05	82.4737	6,498.05	78.7398	6,498.05	79.2207	6,498.05	72.9563	6,498.05	72.6275	6,498.05	70.0258	6,498.05	63.8383	6,498.05	62.9883	6,498.05	60.8157	6,498.05	65.9909	6,498.05	62.3045	6,498.05	68.4964	6,498.05	55.6858	6,498.05	56.7123	6,498.05	63.7029	6,498.05	64.9429	6,498.05	61.4087	6,498.05	61.9413	6,498.05	53.7885	6,498.05	55.5892	6,498.05	60.7922	6,498.05	60.5115
6,726.56	88.0659	6,726.56	88.4196	6,726.56	88.029	6,726.56	87.0868	6,726.56	86.5735	6,726.56	85.7589	6,726.56	84.1773	6,726.56	83.9669	6,726.56	84.6171	6,726.56	82.7898	6,726.56	84.0807	6,726.56	80.74	6,726.56	83.8979	6,726.56	77.5302	6,726.56	81.1338	6,726.56	78.2192	6,726.56	72.3021	6,726.56	72.6227	6,726.56	70.5087	6,726.56	68.8872	6,726.56	68.5231	6,726.56	63.7768	6,726.56	61.8355	6,726.56	64.5568	6,726.56	56.5578	6,726.56	66.9589	6,726.56	55.9599	6,726.56	58.0857	6,726.56	56.9744	6,726.56	63.1695	6,726.56	59.2867	6,726.56	63.1178	6,726.56	58.019	6,726.56	61.1954	6,726.56	62.3475	6,726.56	58.3614
6,963.87	89.1742	6,963.87	88.7205	6,963.87	88.0609	6,963.87	87.5956	6,963.87	86.4965	6,963.87	86.4902	6,963.87	84.9227	6,963.87	83.4808	6,963.87	84.5872	6,963.87	83.6866	6,963.87	85.2179	6,963.87	79.1775	6,963.87	83.997	6,963.87	77.2164	6,963.87	77.0737	6,963.87	77.7915	6,963.87	70.7421	6,963.87	74.6727	6,963.87	71.19	6,963.87	69.136	6,963.87	66.1326	6,963.87	56.6892	6,963.87	51.2378	6,963.87	64.326	6,963.87	57.1737	6,963.87	67.6419	6,963.87	59.4778	6,963.87	54.3263	6,963.87	62.7057	6,963.87	57.4411	6,963.87	58.6935	6,963.87	63.9848	6,963.87	56.399	6,963.87	58.2661	6,963.87	58.928	6,963.87	56.378
7,209.96	89.4245	7,209.96	89.0744	7,209.96	88.3566	7,209.96	87.7101	7,209.96	87.4266	7,209.96	86.7882	7,209.96	85.3601	7,209.96	82.7943	7,209.96	84.839	7,209.96	82.881	7,209.96	84.9141	7,209.96	79.7526	7,209.96	82.5193	7,209.96	76.1176	7,209.96	74.5641	7,209.96	77.074	7,209.96	76.7606	7,209.96	72.2733	7,209.96	69.3716	7,209.96	68.478	7,209.96	66.6636	7,209.96	57.5742	7,209.96	53.9471	7,209.96	65.8058	7,209.96	54.7741	7,209.96	67.0062	7,209.96	62.283	7,209.96	48.5844	7,209.96	61.6544	7,209.96	56.8869	7,209.96	56.8296	7,209.96	63.0027	7,209.96	58.979	7,209.96	60.0809	7,209.96	57.7295	7,209.96	57.1124
7,464.84	89.0438	7,464.84	89.1009	7,464.84	89.2615	7,464.84	87.8132	7,464.84	87.6274	7,464.84	86.8018	7,464.84	85.9394	7,464.84	82.204	7,464.84	84.9468	7,464.84	83.194	7,464.84	83.2389	7,464.84	79.5078	7,464.84	79.7705	7,464.84	75.116	7,464.84	78.005	7,464.84	76.6366	7,464.84	77.9457	7,464.84	72.2707	7,464.84	68.2928	7,464.84	69.1188	7,464.84	64.8163	7,464.84	60.7094	7,464.84	58.9299	7,464.84	66.3327	7,464.84	38.4069	7,464.84	67.3374	7,464.84	54.9747	7,464.84	46.3662	7,464.84	59.9008	7,464.84	34.2876	7,464.84	56.9516	7,464.84	62.3941	7,464.84	54.6212	7,464.84	58.1639	7,464.84	58.8478	7,464.84	54.3348
7,727.05	89.0066	7,727.05	89.031	7,727.05	88.7568	7,727.05	87.6991	7,727.05	87.4248	7,727.05	86.7336	7,727.05	86.8861	7,727.05	83.3273	7,727.05	84.8139	7,727.05	84.1447	7,727.05	81.6822	7,727.05	79.516	7,727.05	77.6687	7,727.05	75.265	7,727.05	81.1528	7,727.05	76.1215	7,727.05	76.8287	7,727.05	70.9549	7,727.05	72.7986	7,727.05	67.9029	7,727.05	65.1548	7,727.05	51.2169	7,727.05	62.1922	7,727.05	64.6296	7,727.05	53.6378	7,727.05	64.9833	7,727.05	53.9388	7,727.05	47.8242	7,727.05	62.0871	7,727.05	55.3645	7,727.05	51.9448	7,727.05	60.7218	7,727.05	57.5692	7,727.05	54.5271	7,727.05	58.2483	7,727.05	55.8252
7,999.51	89.2976	7,999.51	88.9791	7,999.51	88.5318	7,999.51	88.0357	7,999.51	87.2387	7,999.51	86.6959	7,999.51	86.7802	7,999.51	84.0454	7,999.51	84.958	7,999.51	83.482	7,999.51	80.4688	7,999.51	79.7056	7,999.51	80.3525	7,999.51	74.6037	7,999.51	80.4161	7,999.51	75.0592	7,999.51	75.0162	7,999.51	72.888	7,999.51	74.2709	7,999.51	67.8438	7,999.51	64.7663	7,999.51	53.2364	7,999.51	57.3399	7,999.51	64.7038	7,999.51	58.9462	7,999.51	62.2366	7,999.51	51.2026	7,999.51	52.0394	7,999.51	62.4842	7,999.51	57.4641	7,999.51	55.9906	7,999.51	55.9334	7,999.51	55.2593	7,999.51	53.0255	7,999.51	56.9261	7,999.51	57.013
8,282.23	89.2773	8,282.23	89.0264	8,282.23	88.5617	8,282.23	87.8299	8,282.23	87.1492	8,282.23	86.5008	8,282.23	87.197	8,282.23	84.7859	8,282.23	83.9365	8,282.23	83.4589	8,282.23	80.1158	8,282.23	79.9159	8,282.23	82.2239	8,282.23	74.7766	8,282.23	77.1455	8,282.23	73.3179	8,282.23	78.183	8,282.23	71.0492	8,282.23	72.4499	8,282.23	64.626	8,282.23	65.481	8,282.23	54.2136	8,282.23	56.462	8,282.23	62.9983	8,282.23	59.46	8,282.23	59.458	8,282.23	50.9431	8,282.23	56.7171	8,282.23	58.5875	8,282.23	57.0599	8,282.23	52.0824	8,282.23	47.6345	8,282.23	53.6939	8,282.23	54.6814	8,282.23	57.1774	8,282.23	55.7017
8,573.73	89.044	8,573.73	88.9062	8,573.73	88.1287	8,573.73	87.3429	8,573.73	87.7474	8,573.73	86.4776	8,573.73	86.834	8,573.73	84.7108	8,573.73	84.1711	8,573.73	82.7467	8,573.73	81.9662	8,573.73	79.9578	8,573.73	80.595	8,573.73	75.2208	8,573.73	78.918	8,573.73	72.2673	8,573.73	79.1796	8,573.73	69.4987	8,573.73	71.8447	8,573.73	62.9589	8,573.73	66.0716	8,573.73	55.5091	8,573.73	52.5686	8,573.73	61.6632	8,573.73	53.2789	8,573.73	56.3927	8,573.73	53.89	8,573.73	58.5649	8,573.73	61.6036	8,573.73	60.1275	8,573.73	55.9304	8,573.73	55.0216	8,573.73	52.5459	8,573.73	50.8687	8,573.73	54.2282	8,573.73	55.9292
8,876.95	88.9725	8,876.95	88.4563	8,876.95	87.6973	8,876.95	87.1798	8,876.95	87.9414	8,876.95	86.1011	8,876.95	86.2413	8,876.95	84.2442	8,876.95	83.6174	8,876.95	81.7189	8,876.95	82.3755	8,876.95	80.3176	8,876.95	79.7286	8,876.95	74.2327	8,876.95	79.5448	8,876.95	71.7723	8,876.95	75.6112	8,876.95	68.8264	8,876.95	68.1641	8,876.95	63.4884	8,876.95	66.2244	8,876.95	56.8114	8,876.95	56.0313	8,876.95	61.5276	8,876.95	50.6215	8,876.95	52.2517	8,876.95	57.953	8,876.95	58.2959	8,876.95	58.3797	8,876.95	58.7647	8,876.95	53.1719	8,876.95	54.9687	8,876.95	45.832	8,876.95	53.7843	8,876.95	53.9782	8,876.95	53.1163
9,188.96	89.1042	9,188.96	88.5069	9,188.96	88.0537	9,188.96	87.4723	9,188.96	87.9788	9,188.96	85.9515	9,188.96	86.1485	9,188.96	83.6891	9,188.96	82.3669	9,188.96	79.7159	9,188.96	81.6649	9,188.96	79.9671	9,188.96	79.3059	9,188.96	74.2439	9,188.96	77.6429	9,188.96	70.9014	9,188.96	74.1578	9,188.96	68.3324	9,188.96	70.0609	9,188.96	61.6937	9,188.96	57.2251	9,188.96	60.332	9,188.96	59.2636	9,188.96	62.8803	9,188.96	58.0253	9,188.96	46.5758	9,188.96	55.9683	9,188.96	58.6801	9,188.96	59.7411	9,188.96	58.0502	9,188.96	53.67	9,188.96	56.9407	9,188.96	34.8103	9,188.96	50.2426	9,188.96	54.2545	9,188.96	53.7393
9,514.16	88.8236	9,514.16	89.1016	9,514.16	88.5014	9,514.16	87.8867	9,514.16	88.5904	9,514.16	86.0291	9,514.16	85.7528	9,514.16	83.4458	9,514.16	82.6749	9,514.16	78.0317	9,514.16	81.6162	9,514.16	80.1065	9,514.16	79.8079	9,514.16	73.0636	9,514.16	76.3656	9,514.16	70.2158	9,514.16	75.0861	9,514.16	66.8653	9,514.16	71.3001	9,514.16	60.3568	9,514.16	58.0976	9,514.16	60.7252	9,514.16	48.7715	9,514.16	62.9718	9,514.16	58.7281	9,514.16	44.2804	9,514.16	56.5522	9,514.16	55.7235	9,514.16	58.5176	9,514.16	56.0033	9,514.16	50.4311	9,514.16	52.8293	9,514.16	50.0124	9,514.16	46.4274	9,514.16	55.2965	9,514.16	53.3402
9,849.61	88.1844	9,849.61	88.9712	9,849.61	88.409	9,849.61	87.932	9,849.61	88.3365	9,849.61	86.1589	9,849.61	85.6361	9,849.61	83.1124	9,849.61	83.422	9,849.61	77.432	9,849.61	81.1089	9,849.61	79.4179	9,849.61	79.7329	9,849.61	73.1497	9,849.61	77.0497	9,849.61	67.7946	9,849.61	74.9704	9,849.61	66.445	9,849.61	70.8539	9,849.61	58.5838	9,849.61	60.6252	9,849.61	62.3539	9,849.61	53.1626	9,849.61	61.598	9,849.61	55.3556	9,849.61	53.0595	9,849.61	55.1308	9,849.61	54.5406	9,849.61	36.8302	9,849.61	54.3946	9,849.61	51.9086	9,849.61	46.816	9,849.61	53.2882	9,849.61	50.1525	9,849.61	51.9285	9,849.61	51.6801
10,196.8	87.8783	10,196.8	88.3838	10,196.8	88.59	10,196.8	87.6332	10,196.8	88.2962	10,196.8	86.1486	10,196.8	85.249	10,196.8	82.5464	10,196.8	84.1761	10,196.8	78.4498	10,196.8	80.8425	10,196.8	77.7977	10,196.8	79.3689	10,196.8	72.5771	10,196.8	75.1208	10,196.8	66.9584	10,196.8	75.2352	10,196.8	64.5593	10,196.8	69.3483	10,196.8	59.017	10,196.8	53.435	10,196.8	61.4814	10,196.8	57.5454	10,196.8	60.3634	10,196.8	54.0674	10,196.8	54.3838	10,196.8	47.0014	10,196.8	50.3412	10,196.8	53.3268	10,196.8	45.7409	10,196.8	51.9771	10,196.8	42.8329	10,196.8	47.8993	10,196.8	50.9945	10,196.8	51.3422	10,196.8	49.2192
10,555.7	87.9638	10,555.7	87.803	10,555.7	88.6662	10,555.7	87.0435	10,555.7	87.3582	10,555.7	86.0177	10,555.7	85.2156	10,555.7	82.5992	10,555.7	83.7309	10,555.7	79.6857	10,555.7	80.7554	10,555.7	76.1216	10,555.7	77.8677	10,555.7	71.1776	10,555.7	74.5123	10,555.7	66.7065	10,555.7	73.4589	10,555.7	62.4026	10,555.7	70.0752	10,555.7	53.7982	10,555.7	58.9766	10,555.7	60.366	10,555.7	57.0525	10,555.7	59.1554	10,555.7	51.2171	10,555.7	53.2566	10,555.7	42.7224	10,555.7	39.3368	10,555.7	57.3564	10,555.7	47.0373	10,555.7	48.119	10,555.7	43.0569	10,555.7	49.1128	10,555.7	50.4283	10,555.7	50.8808	10,555.7	51.7777
10,927.7	87.8723	10,927.7	88.1458	10,927.7	88.5117	10,927.7	87.1389	10,927.7	86.9258	10,927.7	85.4273	10,927.7	85.4591	10,927.7	82.7897	10,927.7	83.3213	10,927.7	79.6671	10,927.7	80.2112	10,927.7	75.3891	10,927.7	76.7208	10,927.7	70.0792	10,927.7	74.8051	10,927.7	65.9624	10,927.7	72.7368	10,927.7	62.0909	10,927.7	67.2249	10,927.7	52.0103	10,927.7	55.6896	10,927.7	59.5449	10,927.7	51.5682	10,927.7	57.9354	10,927.7	46.069	10,927.7	51.9066	10,927.7	52.5739	10,927.7	42.0139	10,927.7	59.9294	10,927.7	47.9697	10,927.7	45.2053	10,927.7	48.2223	10,927.7	46.4294	10,927.7	50.9291	10,927.7	49.6977	10,927.7	51.8419
11,313	88.0158	11,313	87.8479	11,313	88.3787	11,313	87.0311	11,313	86.7116	11,313	84.5475	11,313	85.7688	11,313	82.4524	11,313	83.0148	11,313	78.7478	11,313	79.1741	11,313	73.2993	11,313	75.071	11,313	67.4678	11,313	74.683	11,313	63.946	11,313	73.5058	11,313	57.8262	11,313	67.88	11,313	45.0738	11,313	55.6067	11,313	56.136	11,313	52.1433	11,313	53.5807	11,313	40.7571	11,313	43.5942	11,313	53.9822	11,313	50.4437	11,313	56.9125	11,313	50.9788	11,313	19.5432	11,313	46.0722	11,313	53.7351	11,313	51.6015	11,313	52.7679	11,313	49.7453
11,712.9	88.1887	11,712.9	87.4553	11,712.9	87.9973	11,712.9	86.4525	11,712.9	86.7382	11,712.9	83.9864	11,712.9	85.5063	11,712.9	81.8209	11,712.9	82.3685	11,712.9	77.4024	11,712.9	78.0208	11,712.9	70.9022	11,712.9	76.2289	11,712.9	65.7118	11,712.9	70.2372	11,712.9	60.8906	11,712.9	73.1211	11,712.9	53.0088	11,712.9	66.4172	11,712.9	47.8272	11,712.9	54.7911	11,712.9	52.4796	11,712.9	52.6694	11,712.9	46.0902	11,712.9	38.7947	11,712.9	40.0949	11,712.9	41.7277	11,712.9	51.5502	11,712.9	52.8074	11,712.9	49.8172	11,712.9	44.6938	11,712.9	42.2765	11,712.9	54.099	11,712.9	52.1988	11,712.9	52.2111	11,712.9	50.2478
12,126	88.1769	12,126	87.3295	12,126	87.3821	12,126	85.5954	12,126	86.4837	12,126	83.5913	12,126	84.9743	12,126	81.1256	12,126	81.6273	12,126	76.1775	12,126	78.3568	12,126	68.2819	12,126	74.445	12,126	64.8757	12,126	73.4429	12,126	54.4355	12,126	67.5311	12,126	52.0219	12,126	64.2925	12,126	46.1931	12,126	56.196	12,126	48.7917	12,126	42.4607	12,126	40.7689	12,126	50.0374	12,126	45.7517	12,126	47.0584	12,126	51.3328	12,126	51.5041	12,126	43.9558	12,126	44.3478	12,126	45.4829	12,126	51.4621	12,126	53.586	12,126	51.8291	12,126	50.9826
12,553.7	88.1396	12,553.7	86.9313	12,553.7	86.9017	12,553.7	85.1561	12,553.7	86.2417	12,553.7	82.9522	12,553.7	84.5996	12,553.7	80.2159	12,553.7	81.0037	12,553.7	74.1545	12,553.7	77.8107	12,553.7	66.9807	12,553.7	72.3397	12,553.7	64.7207	12,553.7	71.4037	12,553.7	55.7652	12,553.7	70.8715	12,553.7	52.0778	12,553.7	65.2736	12,553.7	43.0163	12,553.7	58.3326	12,553.7	48.3976	12,553.7	52.7152	12,553.7	41.4501	12,553.7	31.7678	12,553.7	42.2729	12,553.7	33.2049	12,553.7	48.5063	12,553.7	51.1021	12,553.7	42.3061	12,553.7	45.1733	12,553.7	43.9001	12,553.7	48.9837	12,553.7	54.0993	12,553.7	52.3982	12,553.7	48.8629
12,996.1	88.329	12,996.1	86.8513	12,996.1	87.3041	12,996.1	85.1773	12,996.1	86.2148	12,996.1	82.5241	12,996.1	84.1167	12,996.1	78.8609	12,996.1	80.7912	12,996.1	72.6932	12,996.1	76.7353	12,996.1	68.4661	12,996.1	72.8605	12,996.1	64.9258	12,996.1	70.0085	12,996.1	54.44	12,996.1	64.8012	12,996.1	49.4189	12,996.1	61.9782	12,996.1	45.0144	12,996.1	44.5368	12,996.1	46.985	12,996.1	44.8495	12,996.1	41.2231	12,996.1	35.1457	12,996.1	46.1692	12,996.1	48.3586	12,996.1	45.936	12,996.1	39.0727	12,996.1	43.6329	12,996.1	43.433	12,996.1	45.845	12,996.1	48.7656	12,996.1	50.5205	12,996.1	51.454	12,996.1	42.2829
13,454.6	88.3445	13,454.6	87.1768	13,454.6	87.6562	13,454.6	85.3356	13,454.6	86.1308	13,454.6	82.5147	13,454.6	83.5241	13,454.6	78.2861	13,454.6	80.4111	13,454.6	73.3149	13,454.6	75.8275	13,454.6	67.8683	13,454.6	71.6687	13,454.6	63.3032	13,454.6	68.0327	13,454.6	51.137	13,454.6	66.0639	13,454.6	48.7354	13,454.6	60.886	13,454.6	41.3973	13,454.6	46.2028	13,454.6	42.4261	13,454.6	40.2476	13,454.6	39.665	13,454.6	37.9689	13,454.6	44.4763	13,454.6	46.3988	13,454.6	41.6626	13,454.6	41.983	13,454.6	40.2172	13,454.6	32.457	13,454.6	45.7686	13,454.6	46.0776	13,454.6	48.7054	13,454.6	49.2627	13,454.6	41.0895
13,929.2	88.2431	13,929.2	87.3465	13,929.2	87.6252	13,929.2	85.6039	13,929.2	85.8631	13,929.2	82.4556	13,929.2	82.9652	13,929.2	77.9802	13,929.2	79.5713	13,929.2	73.465	13,929.2	74.9923	13,929.2	65.7547	13,929.2	70.3061	13,929.2	60.7139	13,929.2	67.6469	13,929.2	47.8024	13,929.2	60.7758	13,929.2	43.3244	13,929.2	59.0322	13,929.2	36.8259	13,929.2	35.8813	13,929.2	37.1065	13,929.2	43.2018	13,929.2	37.0326	13,929.2	45.1368	13,929.2	43.4109	13,929.2	37.8583	13,929.2	43.5269	13,929.2	46.0762	13,929.2	43.9541	13,929.2	26.6213	13,929.2	46.8804	13,929.2	43.1255	13,929.2	46.2775	13,929.2	46.029	13,929.2	39.6149
14,419.9	87.9691	14,419.9	87.298	14,419.9	87.315	14,419.9	85.7398	14,419.9	85.3609	14,419.9	82.3443	14,419.9	82.2787	14,419.9	77.3777	14,419.9	78.4532	14,419.9	72.145	14,419.9	73.7356	14,419.9	63.8394	14,419.9	68.8984	14,419.9	57.8993	14,419.9	65.9132	14,419.9	45.8317	14,419.9	62.8981	14,419.9	41.6591	14,419.9	59.4681	14,419.9	19.626	14,419.9	45.6432	14,419.9	30.0098	14,419.9	43.7014	14,419.9	37.7807	14,419.9	35.0799	14,419.9	42.3456	14,419.9	35.4931	14,419.9	40.1732	14,419.9	39.6582	14,419.9	44.122	14,419.9	30.3358	14,419.9	45.7823	14,419.9	39.2887	14,419.9	46.627	14,419.9	40.0035	14,419.9	38.079
14,928.2	87.6682	14,928.2	87.0569	14,928.2	86.7275	14,928.2	85.3941	14,928.2	84.9293	14,928.2	81.9523	14,928.2	81.4381	14,928.2	76.8281	14,928.2	77.2744	14,928.2	69.7097	14,928.2	71.8595	14,928.2	61.7146	14,928.2	68.5542	14,928.2	55.6399	14,928.2	63.4434	14,928.2	47.4219	14,928.2	61.478	14,928.2	45.4973	14,928.2	53.9675	14,928.2	36.9928	14,928.2	46.535	14,928.2	37.9161	14,928.2	37.2718	14,928.2	24.4707	14,928.2	34.1182	14,928.2	25.5742	14,928.2	33.0194	14,928.2	34.0799	14,928.2	35.0354	14,928.2	38.225	14,928.2	32.9187	14,928.2	45.9932	14,928.2	35.7132	14,928.2	44.6505	14,928.2	37.6216	14,928.2	29.1312
15,455.6	87.4104	15,455.6	86.8437	15,455.6	86.086	15,455.6	84.8421	15,455.6	84.1701	15,455.6	81.4016	15,455.6	80.2349	15,455.6	75.6171	15,455.6	75.8522	15,455.6	65.2446	15,455.6	70.8617	15,455.6	58.5065	15,455.6	65.1399	15,455.6	56.514	15,455.6	60.5438	15,455.6	53.3853	15,455.6	57.9067	15,455.6	48.271	15,455.6	56.5075	15,455.6	34.4581	15,455.6	43.6462	15,455.6	41.0056	15,455.6	45.5716	15,455.6	37.5768	15,455.6	24.8421	15,455.6	33.4723	15,455.6	37.5922	15,455.6	37.8035	15,455.6	37.0334	15,455.6	37.9405	15,455.6	33.7444	15,455.6	45.0081	15,455.6	33.9519	15,455.6	41.459	15,455.6	38.5871	15,455.6	30.9633
16,000.5	86.9263	16,000.5	86.382	16,000.5	85.6749	16,000.5	84.143	16,000.5	83.3101	16,000.5	80.0149	16,000.5	78.9811	16,000.5	73.15	16,000.5	74.4606	16,000.5	56.4088	16,000.5	68.498	16,000.5	59.4858	16,000.5	62.8615	16,000.5	58.8633	16,000.5	60.3118	16,000.5	55.3796	16,000.5	57.6065	16,000.5	48.427	16,000.5	51.142	16,000.5	36.0741	16,000.5	40.0267	16,000.5	41.7385	16,000.5	44.158	16,000.5	40.9884	16,000.5	38.5401	16,000.5	39.1783	16,000.5	32.4029	16,000.5	39.5747	16,000.5	29.5182	16,000.5	39.5063	16,000.5	35.5046	16,000.5	42.5756	16,000.5	25.5732	16,000.5	39.7692	16,000.5	36.9201	16,000.5	39.2624
16,564.5	86.0468	16,564.5	85.6138	16,564.5	85.1538	16,564.5	83.1899	16,564.5	82.5856	16,564.5	78.6586	16,564.5	78.3911	16,564.5	70.4331	16,564.5	72.9572	16,564.5	49.6752	16,564.5	65.7905	16,564.5	60.3887	16,564.5	63.0308	16,564.5	59.6416	16,564.5	55.5864	16,564.5	56.3456	16,564.5	43.1034	16,564.5	47.5272	16,564.5	35.7593	16,564.5	36.7178	16,564.5	44.2115	16,564.5	36.1158	16,564.5	42.1773	16,564.5	42.9594	16,564.5	29.0573	16,564.5	40.7219	16,564.5	39.614	16,564.5	36.4743	16,564.5	32.654	16,564.5	38.5202	16,564.5	34.8848	16,564.5	42.1745	16,564.5	30.4633	16,564.5	36.8702	16,564.5	30.2109	16,564.5	39.3717
17,148.9	84.6622	17,148.9	84.2506	17,148.9	83.8835	17,148.9	81.7391	17,148.9	81.4129	17,148.9	76.985	17,148.9	77.49	17,148.9	67.7137	17,148.9	71.727	17,148.9	38.4449	17,148.9	65.6131	17,148.9	61.2377	17,148.9	61.7749	17,148.9	60.1559	17,148.9	48.5819	17,148.9	56.0156	17,148.9	47.8459	17,148.9	45.9389	17,148.9	38.9691	17,148.9	30.758	17,148.9	46.3696	17,148.9	39.2146	17,148.9	35.6218	17,148.9	42.817	17,148.9	28.3207	17,148.9	40.7037	17,148.9	40.4495	17,148.9	20.7525	17,148.9	33.5848	17,148.9	36.5603	17,148.9	33.3539	17,148.9	38.4758	17,148.9	32.5018	17,148.9	35.8629	17,148.9	30.3579	17,148.9	39.5276
17,752.4	85.8785	17,752.4	84.9113	17,752.4	85.1255	17,752.4	81.7648	17,752.4	82.551	17,752.4	76.4375	17,752.4	78.3417	17,752.4	67.7033	17,752.4	72.7237	17,752.4	53.7668	17,752.4	65.4821	17,752.4	60.4043	17,752.4	60.3897	17,752.4	58.4039	17,752.4	52.4698	17,752.4	50.8384	17,752.4	46.6142	17,752.4	40.6055	17,752.4	40.6976	17,752.4	28.9441	17,752.4	48.91	17,752.4	39.9366	17,752.4	33.9788	17,752.4	39.4867	17,752.4	29.0486	17,752.4	35.5221	17,752.4	39.2834	17,752.4	30.5251	17,752.4	26.7759	17,752.4	35.6327	17,752.4	24.3452	17,752.4	34.4534	17,752.4	14.4271	17,752.4	31.5202	17,752.4	4.42547	17,752.4	35.4351
18,379.4	85.5245	18,379.4	84.4154	18,379.4	84.6793	18,379.4	80.8217	18,379.4	81.8636	18,379.4	74.6304	18,379.4	76.3848	18,379.4	65.4869	18,379.4	69.5995	18,379.4	59.1455	18,379.4	60.8943	18,379.4	62.8764	18,379.4	58.1846	18,379.4	59.1723	18,379.4	54.0024	18,379.4	50.668	18,379.4	50.7074	18,379.4	44.0945	18,379.4	43.307	18,379.4	28.6594	18,379.4	47.8106	18,379.4	37.5004	18,379.4	33.3097	18,379.4	37.2664	18,379.4	29.5872	18,379.4	31.6	18,379.4	37.9105	18,379.4	35.845	18,379.4	25.5847	18,379.4	29.0066	18,379.4	29.7034	18,379.4	30.991	18,379.4	19.7101	18,379.4	32.9996	18,379.4	28.6583	18,379.4	37.1533
19,026.9	84.5404	19,026.9	83.1003	19,026.9	83.6018	19,026.9	79.2226	19,026.9	80.7318	19,026.9	72.2114	19,026.9	74.5064	19,026.9	63.8278	19,026.9	66.5393	19,026.9	61.5818	19,026.9	59.8121	19,026.9	63.7594	19,026.9	58.7703	19,026.9	58.4765	19,026.9	53.43	19,026.9	48.0948	19,026.9	54.8498	19,026.9	41.8122	19,026.9	48.4958	19,026.9	19.9294	19,026.9	48.9452	19,026.9	35.4345	19,026.9	37.1241	19,026.9	31.7139	19,026.9	26.9384	19,026.9	20.3584	19,026.9	34.0234	19,026.9	37.6244	19,026.9	28.2532	19,026.9	34.7885	19,026.9	14.4791	19,026.9	33.9294	19,026.9	25.1399	19,026.9	32.1791	19,026.9	17.0766	19,026.9	36.7551
19,697.8	83.74	19,697.8	81.9329	19,697.8	82.6757	19,697.8	77.6023	19,697.8	79.4166	19,697.8	69.964	19,697.8	72.7046	19,697.8	63.178	19,697.8	62.5637	19,697.8	63.157	19,697.8	60.2515	19,697.8	64.2088	19,697.8	58.4628	19,697.8	57.6008	19,697.8	58.0332	19,697.8	49.3983	19,697.8	57.8314	19,697.8	42.2269	19,697.8	49.2629	19,697.8	21.4301	19,697.8	47.0516	19,697.8	33.714	19,697.8	36.1325	19,697.8	32.3328	19,697.8	19.5738	19,697.8	25.8711	19,697.8	17.3107	19,697.8	35.1277	19,697.8	32.341	19,697.8	37.5632	19,697.8	26.9322	19,697.8	35.7197	19,697.8	23.6856	19,697.8	32.7066	19,697.8	23.1737	19,697.8	38.3631
19,999.5	83.7457	19,999.5	81.3703	19,999.5	82.4632	19,999.5	76.9585	19,999.5	78.6116	19,999.5	68.6598	19,999.5	72.7167	19,999.5	65.3903	19,999.5	60.2862	19,999.5	63.8314	19,999.5	61.4537	19,999.5	65.3459	19,999.5	57.2284	19,999.5	58.7298	19,999.5	57.0963	19,999.5	48.0273	19,999.5	52.4305	19,999.5	38.8744	19,999.5	55.4462	19,999.5	44.024	19,999.5	48.0849	19,999.5	45.29	19,999.5	43.4983	19,999.5	42.7161	19,999.5	42.7943	19,999.5	36.115	19,999.5	46.1744	19,999.5	54.5595	19,999.5	44.0987	19,999.5	46.1368	19,999.5	27.5011	19,999.5	50.5332	19,999.5	36.0362	19,999.5	46.5948	19,999.5	34.0162	19,999.5	32.6998
