"SPL Vertical"
"On-Axis"		"10°"		"-10°"		"20°"		"-20°"		"30°"		"-30°"		"40°"		"-40°"		"50°"		"-50°"		"60°"		"-60°"		"70°"		"-70°"		"80°"		"-80°"		"90°"		"-90°"		"100°"		"-100°"		"110°"		"-110°"		"120°"		"-120°"		"130°"		"-130°"		"140°"		"-140°"		"150°"		"-150°"		"160°"		"-160°"		"170°"		"-170°"		"180°"
"Frequency / Hz"	"Sound Pressure Level / dB (re 20 µPa/V)  [2.83  V @ 1. m]"	"Frequency / Hz"	"Sound Pressure Level / dB (re 20 µPa/V)  [2.83  V @ 1. m]"	"Frequency / Hz"	"Sound Pressure Level / dB (re 20 µPa/V)  [2.83  V @ 1. m]"	"Frequency / Hz"	"Sound Pressure Level / dB (re 20 µPa/V)  [2.83  V @ 1. m]"	"Frequency / Hz"	"Sound Pressure Level / dB (re 20 µPa/V)  [2.83  V @ 1. m]"	"Frequency / Hz"	"Sound Pressure Level / dB (re 20 µPa/V)  [2.83  V @ 1. m]"	"Frequency / Hz"	"Sound Pressure Level / dB (re 20 µPa/V)  [2.83  V @ 1. m]"	"Frequency / Hz"	"Sound Pressure Level / dB (re 20 µPa/V)  [2.83  V @ 1. m]"	"Frequency / Hz"	"Sound Pressure Level / dB (re 20 µPa/V)  [2.83  V @ 1. m]"	"Frequency / Hz"	"Sound Pressure Level / dB (re 20 µPa/V)  [2.83  V @ 1. m]"	"Frequency / Hz"	"Sound Pressure Level / dB (re 20 µPa/V)  [2.83  V @ 1. m]"	"Frequency / Hz"	"Sound Pressure Level / dB (re 20 µPa/V)  [2.83  V @ 1. m]"	"Frequency / Hz"	"Sound Pressure Level / dB (re 20 µPa/V)  [2.83  V @ 1. m]"	"Frequency / Hz"	"Sound Pressure Level / dB (re 20 µPa/V)  [2.83  V @ 1. m]"	"Frequency / Hz"	"Sound Pressure Level / dB (re 20 µPa/V)  [2.83  V @ 1. m]"	"Frequency / Hz"	"Sound Pressure Level / dB (re 20 µPa/V)  [2.83  V @ 1. m]"	"Frequency / Hz"	"Sound Pressure Level / dB (re 20 µPa/V)  [2.83  V @ 1. m]"	"Frequency / Hz"	"Sound Pressure Level / dB (re 20 µPa/V)  [2.83  V @ 1. m]"	"Frequency / Hz"	"Sound Pressure Level / dB (re 20 µPa/V)  [2.83  V @ 1. m]"	"Frequency / Hz"	"Sound Pressure Level / dB (re 20 µPa/V)  [2.83  V @ 1. m]"	"Frequency / Hz"	"Sound Pressure Level / dB (re 20 µPa/V)  [2.83  V @ 1. m]"	"Frequency / Hz"	"Sound Pressure Level / dB (re 20 µPa/V)  [2.83  V @ 1. m]"	"Frequency / Hz"	"Sound Pressure Level / dB (re 20 µPa/V)  [2.83  V @ 1. m]"	"Frequency / Hz"	"Sound Pressure Level / dB (re 20 µPa/V)  [2.83  V @ 1. m]"	"Frequency / Hz"	"Sound Pressure Level / dB (re 20 µPa/V)  [2.83  V @ 1. m]"	"Frequency / Hz"	"Sound Pressure Level / dB (re 20 µPa/V)  [2.83  V @ 1. m]"	"Frequency / Hz"	"Sound Pressure Level / dB (re 20 µPa/V)  [2.83  V @ 1. m]"	"Frequency / Hz"	"Sound Pressure Level / dB (re 20 µPa/V)  [2.83  V @ 1. m]"	"Frequency / Hz"	"Sound Pressure Level / dB (re 20 µPa/V)  [2.83  V @ 1. m]"	"Frequency / Hz"	"Sound Pressure Level / dB (re 20 µPa/V)  [2.83  V @ 1. m]"	"Frequency / Hz"	"Sound Pressure Level / dB (re 20 µPa/V)  [2.83  V @ 1. m]"	"Frequency / Hz"	"Sound Pressure Level / dB (re 20 µPa/V)  [2.83  V @ 1. m]"	"Frequency / Hz"	"Sound Pressure Level / dB (re 20 µPa/V)  [2.83  V @ 1. m]"	"Frequency / Hz"	"Sound Pressure Level / dB (re 20 µPa/V)  [2.83  V @ 1. m]"	"Frequency / Hz"	"Sound Pressure Level / dB (re 20 µPa/V)  [2.83  V @ 1. m]"	"Frequency / Hz"	"Sound Pressure Level / dB (re 20 µPa/V)  [2.83  V @ 1. m]"
20.5078	50.8514	20.5078	50.0183	20.5078	51.2935	20.5078	48.7459	20.5078	51.3591	20.5078	46.9731	20.5078	51.0229	20.5078	44.7825	20.5078	50.2051	20.5078	43.1396	20.5078	48.7289	20.5078	44.1184	20.5078	46.191	20.5078	46.9377	20.5078	41.4867	20.5078	49.7404	20.5078	34.0689	20.5078	52.0954	20.5078	42.6584	20.5078	54.0399	20.5078	48.5806	20.5078	55.6573	20.5078	52.3103	20.5078	57.0111	20.5078	54.9539	20.5078	58.1414	20.5078	56.9167	20.5078	59.0696	20.5078	58.3835	20.5078	59.8029	20.5078	59.4519	20.5078	60.3375	20.5078	60.1796	20.5078	60.6615	20.5078	60.6052	20.5078	60.7578
21.9727	54.6046	21.9727	54.0531	21.9727	54.8722	21.9727	53.1887	21.9727	54.8624	21.9727	51.9597	21.9727	54.5586	21.9727	50.3019	21.9727	53.9166	21.9727	48.2277	21.9727	52.8552	21.9727	46.2905	21.9727	51.245	21.9727	46.3002	21.9727	48.9447	21.9727	48.6415	21.9727	46.3405	21.9727	51.4301	21.9727	46.3291	21.9727	53.8608	21.9727	49.6739	21.9727	55.8681	21.9727	53.0644	21.9727	57.515	21.9727	55.7254	21.9727	58.8594	21.9727	57.7569	21.9727	59.9388	21.9727	59.291	21.9727	60.7724	21.9727	60.416	21.9727	61.3665	21.9727	61.1886	21.9727	61.7177	21.9727	61.6464	21.9727	61.8161
23.4375	55.7088	23.4375	55.093	23.4375	56.0586	23.4375	54.2012	23.4375	56.1424	23.4375	53.0282	23.4375	55.9448	23.4375	51.6246	23.4375	55.4309	23.4375	50.2492	23.4375	54.5415	23.4375	49.6019	23.4375	53.1938	23.4375	50.3857	23.4375	51.3331	23.4375	52.2172	23.4375	49.2911	23.4375	54.2799	23.4375	48.8198	23.4375	56.1829	23.4375	51.1014	23.4375	57.8322	23.4375	54.0869	23.4375	59.2276	23.4375	56.6398	23.4375	60.3865	23.4375	58.6508	23.4375	61.3228	23.4375	60.193	23.4375	62.0427	23.4375	61.3391	23.4375	62.5446	23.4375	62.1418	23.4375	62.8205	23.4375	62.6386	23.4375	62.8577
24.9023	56.3611	24.9023	55.6761	24.9023	56.7657	24.9023	54.6936	24.9023	56.8944	24.9023	53.398	24.9023	56.7353	24.9023	51.8302	24.9023	56.2562	24.9023	50.2828	24.9023	55.4005	24.9023	49.6254	24.9023	54.0866	24.9023	50.6583	24.9023	52.2493	24.9023	52.7383	24.9023	50.1566	24.9023	54.9293	24.9023	49.4543	24.9023	56.8836	24.9023	51.5923	24.9023	58.5478	24.9023	54.5934	24.9023	59.9416	24.9023	57.1843	24.9023	61.0912	24.9023	59.2244	24.9023	62.0149	24.9023	60.7868	24.9023	62.721	24.9023	61.9473	24.9023	63.2092	24.9023	62.7613	24.9023	63.4725	24.9023	63.2685	24.9023	63.4981
26.3672	57.7794	26.3672	57.1349	26.3672	58.1829	26.3672	56.2526	26.3672	58.3417	26.3672	55.1573	26.3672	58.2434	26.3672	53.9556	26.3672	57.8637	26.3672	52.9613	26.3672	57.1667	26.3672	52.7408	26.3672	56.1149	26.3672	53.6269	26.3672	54.7263	26.3672	55.2433	26.3672	53.2954	26.3672	57.0401	26.3672	52.8085	26.3672	58.7302	26.3672	54.1426	26.3672	60.2225	26.3672	56.4504	26.3672	61.5007	26.3672	58.7114	26.3672	62.5692	26.3672	60.6046	26.3672	63.4334	26.3672	62.1005	26.3672	64.0944	26.3672	63.2323	26.3672	64.5478	26.3672	64.0377	26.3672	64.7843	26.3672	64.5485	26.3672	64.7903
27.832	59.4799	27.832	58.9591	27.832	59.8128	27.832	58.2646	27.832	59.9457	27.832	57.4273	27.832	59.8625	27.832	56.5246	27.832	59.5409	27.832	55.7315	27.832	58.953	27.832	55.346	27.832	58.0747	27.832	55.6465	27.832	56.9241	27.832	56.6175	27.832	55.6863	27.832	57.9671	27.832	54.9554	27.832	59.405	27.832	55.5202	27.832	60.7659	27.832	57.2209	27.832	61.978	27.832	59.2132	27.832	63.0132	27.832	61.0101	27.832	63.8601	27.832	62.4768	27.832	64.5108	27.832	63.6043	27.832	64.9563	27.832	64.4144	27.832	65.1852	27.832	64.933	27.832	65.1832
29.2969	60.9552	29.2969	60.4281	29.2969	61.2767	29.2969	59.7061	29.2969	61.3836	29.2969	58.8159	29.2969	61.2627	29.2969	57.8346	29.2969	60.8944	29.2969	56.952	29.2969	60.2548	29.2969	56.5125	29.2969	59.3286	29.2969	56.8457	29.2969	58.159	29.2969	57.916	29.2969	56.9947	29.2969	59.3686	29.2969	56.5024	29.2969	60.8829	29.2969	57.3393	29.2969	62.2942	29.2969	59.1358	29.2969	63.539	29.2969	61.1007	29.2969	64.5966	29.2969	62.8409	29.2969	65.4602	29.2969	64.2552	29.2969	66.1251	29.2969	65.3409	29.2969	66.5842	29.2969	66.1187	29.2969	66.8277	29.2969	66.6121	29.2969	66.8422
30.7617	61.7761	30.7617	61.3087	30.7617	62.0733	30.7617	60.6944	30.7617	62.1854	30.7617	59.9797	30.7617	62.0985	30.7617	59.2611	30.7617	61.7985	30.7617	58.7153	30.7617	61.2757	30.7617	58.5799	30.7617	60.5415	30.7617	59.0162	30.7617	59.6764	30.7617	59.9609	30.7617	58.9271	30.7617	61.1899	30.7617	58.7574	30.7617	62.4906	30.7617	59.5167	30.7617	63.7331	30.7617	60.9747	30.7617	64.8527	30.7617	62.6304	30.7617	65.8192	30.7617	64.1635	30.7617	66.6169	30.7617	65.4502	30.7617	67.2346	30.7617	66.4597	30.7617	67.6612	30.7617	67.1941	30.7617	67.8847	30.7617	67.6662	30.7617	67.8913
32.2266	62.5844	32.2266	62.1402	32.2266	62.8718	32.2266	61.5671	32.2266	62.9849	32.2266	60.9182	32.2266	62.9099	32.2266	60.2945	32.2266	62.6354	32.2266	59.8638	32.2266	62.1581	32.2266	59.8286	32.2266	61.5019	32.2266	60.3053	32.2266	60.7634	32.2266	61.2233	32.2266	60.1877	32.2266	62.3897	32.2266	60.1688	32.2266	63.6228	32.2266	60.9491	32.2266	64.8065	32.2266	62.3142	32.2266	65.8795	32.2266	63.8531	32.2266	66.8107	32.2266	65.2901	32.2266	67.5827	32.2266	66.5071	32.2266	68.1831	32.2266	67.4677	32.2266	68.6	32.2266	68.1688	32.2266	68.8207	32.2266	68.6193	32.2266	68.8319
33.6914	63.6326	33.6914	63.2356	33.6914	63.8975	33.6914	62.7407	33.6914	64.0095	33.6914	62.2072	33.6914	63.9547	33.6914	61.735	33.6914	63.7257	33.6914	61.4675	33.6914	63.3278	33.6914	61.5523	33.6914	62.7978	33.6914	62.0546	33.6914	62.2413	33.6914	62.9079	33.6914	61.8767	33.6914	63.9658	33.6914	61.9971	33.6914	65.0871	33.6914	62.749	33.6914	66.1746	33.6914	63.9653	33.6914	67.1709	33.6914	65.3399	33.6914	68.0433	33.6914	66.646	33.6914	68.7716	33.6914	67.77	33.6914	69.3408	33.6914	68.6681	33.6914	69.7373	33.6914	69.3291	33.6914	69.9476	33.6914	69.7561	33.6914	69.9582
35.1562	64.9004	35.1562	64.5497	35.1562	65.1375	35.1562	64.1197	35.1562	65.2397	35.1562	63.6666	35.1562	65.1937	35.1562	63.2781	35.1562	64.9946	35.1562	63.0721	35.1562	64.6515	35.1562	63.1645	35.1562	64.2045	35.1562	63.6091	35.1562	63.7532	35.1562	64.3615	35.1562	63.4835	35.1562	65.3094	35.1562	63.627	35.1562	66.3341	35.1562	64.2987	35.1562	67.3453	35.1562	65.3782	35.1562	68.2844	35.1562	66.6213	35.1562	69.1151	35.1562	67.8265	35.1562	69.8138	35.1562	68.8801	35.1562	70.3626	35.1562	69.7309	35.1562	70.7465	35.1562	70.3614	35.1562	70.9512	35.1562	70.7701	35.1562	70.9632
36.6211	66.2192	36.6211	65.8999	36.6211	66.4342	36.6211	65.5076	36.6211	66.5258	36.6211	65.0934	36.6211	66.4836	36.6211	64.7352	36.6211	66.3058	36.6211	64.5369	36.6211	66.0062	36.6211	64.6024	36.6211	65.6275	36.6211	64.9872	36.6211	65.2637	36.6211	65.6633	36.6211	65.0746	36.6211	66.5377	36.6211	65.2449	36.6211	67.5025	36.6211	65.8627	36.6211	68.4693	36.6211	66.8352	36.6211	69.3775	36.6211	67.9658	36.6211	70.1878	36.6211	69.0783	36.6211	70.8739	36.6211	70.0634	36.6211	71.4165	36.6211	70.866	36.6211	71.7991	36.6211	71.4632	36.6211	72.0074	36.6211	71.8494	36.6211	72.028
38.0859	66.273	38.0859	65.9564	38.0859	66.5081	38.0859	65.6008	38.0859	66.636	38.0859	65.2715	38.0859	66.6439	38.0859	65.0574	38.0859	66.5327	38.0859	65.0557	38.0859	66.3223	38.0859	65.3361	38.0859	66.065	38.0859	65.903	38.0859	65.8606	38.0859	66.6937	38.0859	65.8559	38.0859	67.6142	38.0859	66.191	38.0859	68.5759	38.0859	66.903	38.0859	69.5129	38.0859	67.89	38.0859	70.3807	38.0859	68.9862	38.0859	71.1495	38.0859	70.0487	38.0859	71.798	38.0859	70.9871	38.0859	72.3093	38.0859	71.7533	38.0859	72.6683	38.0859	72.326	38.0859	72.861	38.0859	72.6991	38.0859	72.8749
39.5508	67.614	39.5508	67.3892	39.5508	67.7906	39.5508	67.1525	39.5508	67.8955	39.5508	66.9541	39.5508	67.9168	39.5508	66.855	39.5508	67.8556	39.5508	66.9165	39.5508	67.7306	39.5508	67.1804	39.5508	67.5857	39.5508	67.6518	39.5508	67.4974	39.5508	68.2965	39.5508	67.5683	39.5508	69.0563	39.5508	67.8916	39.5508	69.8685	39.5508	68.4958	39.5508	70.6789	39.5508	69.3201	39.5508	71.4453	39.5508	70.2503	39.5508	72.136	39.5508	71.1731	39.5508	72.7264	39.5508	72.0054	39.5508	73.1965	39.5508	72.6962	39.5508	73.529	39.5508	73.2186	39.5508	73.7086	39.5508	73.5611	39.5508	73.7226
41.0156	69.0579	41.0156	68.858	41.0156	69.2105	41.0156	68.6411	41.0156	69.2962	41.0156	68.449	41.0156	69.3053	41.0156	68.3331	41.0156	69.2394	41.0156	68.3473	41.0156	69.1151	41.0156	68.5338	41.0156	68.9712	41.0156	68.9078	41.0156	68.8739	41.0156	69.4505	41.0156	68.9125	41.0156	70.1172	41.0156	69.1719	41.0156	70.8524	41.0156	69.6868	41.0156	71.6032	41.0156	70.4149	41.0156	72.3258	41.0156	71.2593	41.0156	72.9854	41.0156	72.1144	41.0156	73.5546	41.0156	72.8971	41.0156	74.0112	41.0156	73.5531	41.0156	74.3365	41.0156	74.0518	41.0156	74.5144	41.0156	74.379	41.0156	74.5317
42.4805	70.0801	42.4805	69.9108	42.4805	70.2172	42.4805	69.7369	42.4805	70.3036	42.4805	69.595	42.4805	70.3299	42.4805	69.5275	42.4805	70.2976	42.4805	69.5763	42.4805	70.2222	42.4805	69.7727	42.4805	70.1374	42.4805	70.1265	42.4805	70.0988	42.4805	70.6229	42.4805	70.1782	42.4805	71.2269	42.4805	70.4418	42.4805	71.8944	42.4805	70.9171	42.4805	72.5808	42.4805	71.573	42.4805	73.2471	42.4805	72.3331	42.4805	73.8608	42.4805	73.1089	42.4805	74.3948	42.4805	73.8254	42.4805	74.8267	42.4805	74.43	42.4805	75.1372	42.4805	74.8913	42.4805	75.31	42.4805	75.1933	42.4805	75.3317
43.9453	71.306	43.9453	71.1489	43.9453	71.4271	43.9453	70.9794	43.9453	71.4971	43.9453	70.8282	43.9453	71.5085	43.9453	70.7327	43.9453	71.4634	43.9453	70.7321	43.9453	71.3766	43.9453	70.8596	43.9453	71.2791	43.9453	71.1329	43.9453	71.2216	43.9453	71.5475	43.9453	71.2694	43.9453	72.0781	43.9453	71.4852	43.9453	72.6859	43.9453	71.8988	43.9453	73.3276	43.9453	72.488	43.9453	73.9627	43.9453	73.1858	43.9453	74.5557	43.9453	73.9095	43.9453	75.0773	43.9453	74.5854	43.9453	75.5028	43.9453	75.1598	43.9453	75.8116	43.9453	75.5992	43.9453	75.9865	43.9453	75.886	43.9453	76.0142
45.4102	72.192	45.4102	72.0452	45.4102	72.3099	45.4102	71.8922	45.4102	72.3844	45.4102	71.7629	45.4102	72.409	45.4102	71.6933	45.4102	72.387	45.4102	71.7211	45.4102	72.3339	45.4102	71.877	45.4102	72.2802	45.4102	72.1765	45.4102	72.2733	45.4102	72.6135	45.4102	72.3711	45.4102	73.1617	45.4102	72.6256	45.4102	73.7823	45.4102	73.0588	45.4102	74.4326	45.4102	73.6475	45.4102	75.0724	45.4102	74.3314	45.4102	75.6672	45.4102	75.0361	45.4102	76.188	45.4102	75.6949	45.4102	76.6105	45.4102	76.2574	45.4102	76.9148	45.4102	76.6908	45.4102	77.0846	45.4102	76.9766	45.4102	77.1076
46.875	72.9489	46.875	72.8119	46.875	73.0703	46.875	72.6819	46.875	73.1604	46.875	72.5877	46.875	73.2117	46.875	72.561	46.875	73.2259	46.875	72.6321	46.875	73.2162	46.875	72.8232	46.875	73.2094	46.875	73.1418	46.875	73.2461	46.875	73.5781	46.875	73.3745	46.875	74.1074	46.875	73.6373	46.875	74.6957	46.875	74.0522	46.875	75.3067	46.875	74.6003	46.875	75.906	46.875	75.2316	46.875	76.4629	46.875	75.8826	46.875	76.9509	46.875	76.4934	46.875	77.3474	46.875	77.0173	46.875	77.6332	46.875	77.4227	46.875	77.7927	46.875	77.6909	46.875	77.8142
48.3398	73.8116	48.3398	73.7068	48.3398	73.907	48.3398	73.6105	48.3398	73.9807	48.3398	73.5448	48.3398	74.0268	48.3398	73.5345	48.3398	74.0473	48.3398	73.6037	48.3398	74.0536	48.3398	73.7711	48.3398	74.0683	48.3398	74.045	48.3398	74.1251	48.3398	74.4209	48.3398	74.2635	48.3398	74.8817	48.3398	74.518	48.3398	75.4013	48.3398	74.9028	48.3398	75.9491	48.3398	75.4026	48.3398	76.4943	48.3398	75.9758	48.3398	77.008	48.3398	76.5673	48.3398	77.4642	48.3398	77.1234	48.3398	77.8403	48.3398	77.6003	48.3398	78.1166	48.3398	77.9673	48.3398	78.277	48.3398	78.2062	48.3398	78.3093
51.2695	75.6627	51.2695	75.5626	51.2695	75.7533	51.2695	75.4669	51.2695	75.8249	51.2695	75.3936	51.2695	75.8735	51.2695	75.3629	51.2695	75.9011	51.2695	75.3951	51.2695	75.9171	51.2695	75.5074	51.2695	75.9396	51.2695	75.7098	51.2695	75.9942	51.2695	76.0025	51.2695	76.1112	51.2695	76.3754	51.2695	76.3178	51.2695	76.8095	51.2695	76.6275	51.2695	77.2801	51.2695	77.0327	51.2695	77.7602	51.2695	77.5041	51.2695	78.2227	51.2695	77.9988	51.2695	78.6422	51.2695	78.4705	51.2695	78.9952	51.2695	78.8786	51.2695	79.2615	51.2695	79.1926	51.2695	79.424	51.2695	79.3928	51.2695	79.47
52.7344	76.5893	52.7344	76.5053	52.7344	76.661	52.7344	76.4214	52.7344	76.7123	52.7344	76.3534	52.7344	76.7402	52.7344	76.3199	52.7344	76.7473	52.7344	76.3398	52.7344	76.7434	52.7344	76.4296	52.7344	76.7458	52.7344	76.6003	52.7344	76.779	52.7344	76.8546	52.7344	76.8715	52.7344	77.1853	52.7344	77.0489	52.7344	77.5767	52.7344	77.3248	52.7344	78.0065	52.7344	77.6935	52.7344	78.4492	52.7344	78.1291	52.7344	78.8783	52.7344	78.592	52.7344	79.2682	52.7344	79.0387	52.7344	79.5955	52.7344	79.4299	52.7344	79.8399	52.7344	79.7352	52.7344	79.9848	52.7344	79.9347	52.7344	80.0183
54.1992	77.3107	54.1992	77.2296	54.1992	77.3763	54.1992	77.1447	54.1992	77.4199	54.1992	77.0723	54.1992	77.4402	54.1992	77.0323	54.1992	77.4423	54.1992	77.0459	54.1992	77.4385	54.1992	77.1324	54.1992	77.4481	54.1992	77.3055	54.1992	77.4968	54.1992	77.5692	54.1992	77.6129	54.1992	77.9162	54.1992	77.8197	54.1992	78.3293	54.1992	78.1271	54.1992	78.7838	54.1992	78.5253	54.1992	79.2517	54.1992	78.9856	54.1992	79.7047	54.1992	79.4673	54.1992	80.1158	54.1992	79.927	54.1992	80.4611	54.1992	80.3263	54.1992	80.7198	54.1992	80.6357	54.1992	80.8754	54.1992	80.8355	54.1992	80.9159
55.6641	77.549	55.6641	77.4556	55.6641	77.6425	55.6641	77.3746	55.6641	77.7293	55.6641	77.3231	55.6641	77.8081	55.6641	77.3205	55.6641	77.8836	55.6641	77.3866	55.6641	77.9666	55.6641	77.537	55.6641	78.073	55.6641	77.7796	55.6641	78.222	55.6641	78.1121	55.6641	78.433	55.6641	78.5218	55.6641	78.7194	55.6641	78.9879	55.6641	79.0833	55.6641	79.485	55.6641	79.5122	55.6641	79.9864	55.6641	79.9798	55.6641	80.466	55.6641	80.4518	55.6641	80.8995	55.6641	80.8916	55.6641	81.265	55.6641	81.2663	55.6641	81.5435	55.6641	81.5499	55.6641	81.7195	55.6641	81.7248	55.6641	81.7817
58.5938	78.5824	58.5938	78.5228	58.5938	78.6619	58.5938	78.4921	58.5938	78.7549	58.5938	78.5007	58.5938	78.858	58.5938	78.559	58.5938	78.9716	58.5938	78.6757	58.5938	79.0999	58.5938	78.8563	58.5938	79.2506	58.5938	79.1018	58.5938	79.4338	58.5938	79.4079	58.5938	79.6598	58.5938	79.7652	58.5938	79.9359	58.5938	80.16	58.5938	80.2626	58.5938	80.5756	58.5938	80.6315	58.5938	80.9936	58.5938	81.0249	58.5938	81.3946	58.5938	81.4183	58.5938	81.7596	58.5938	81.7841	58.5938	82.0699	58.5938	82.0958	58.5938	82.3087	58.5938	82.3314	58.5938	82.462	58.5938	82.4753	58.5938	82.5192
60.0586	79.2635	60.0586	79.2167	60.0586	79.3317	60.0586	79.1978	60.0586	79.4162	60.0586	79.2141	60.0586	79.5142	60.0586	79.273	60.0586	79.6254	60.0586	79.3805	60.0586	79.7522	60.0586	79.5407	60.0586	79.8998	60.0586	79.7543	60.0586	80.0753	60.0586	80.0187	60.0586	80.2862	60.0586	80.3271	60.0586	80.5376	60.0586	80.6696	60.0586	80.8301	60.0586	81.033	60.0586	81.1569	60.0586	81.4021	60.0586	81.5037	60.0586	81.7602	60.0586	81.8498	60.0586	82.0898	60.0586	82.1713	60.0586	82.3737	60.0586	82.4444	60.0586	82.5957	60.0586	82.6491	60.0586	82.7419	60.0586	82.7709	60.0586	82.8021
62.9883	80.5446	62.9883	80.5008	62.9883	80.6081	62.9883	80.4815	62.9883	80.6878	62.9883	80.4921	62.9883	80.7814	62.9883	80.5382	62.9883	80.8885	62.9883	80.6247	62.9883	81.0104	62.9883	80.755	62.9883	81.1502	62.9883	80.9308	62.9883	81.3122	62.9883	81.1506	62.9883	81.501	62.9883	81.41	62.9883	81.7199	62.9883	81.7014	62.9883	81.9692	62.9883	82.0146	62.9883	82.2441	62.9883	82.3364	62.9883	82.5338	62.9883	82.6523	62.9883	82.8224	62.9883	82.9463	62.9883	83.0905	62.9883	83.2025	62.9883	83.3182	62.9883	83.4056	62.9883	83.4876	62.9883	83.5426	62.9883	83.5854	62.9883	83.6041
64.4531	81.0993	64.4531	81.0567	64.4531	81.1622	64.4531	81.0386	64.4531	81.2423	64.4531	81.0492	64.4531	81.3375	64.4531	81.093	64.4531	81.4471	64.4531	81.1741	64.4531	81.5716	64.4531	81.2953	64.4531	81.7128	64.4531	81.4579	64.4531	81.8738	64.4531	81.6606	64.4531	82.0577	64.4531	81.9	64.4531	82.2669	64.4531	82.1697	64.4531	82.5009	64.4531	82.4607	64.4531	82.7555	64.4531	82.7614	64.4531	83.0215	64.4531	83.0584	64.4531	83.2849	64.4531	83.3369	64.4531	83.5285	64.4531	83.5818	64.4531	83.734	64.4531	83.7783	64.4531	83.8849	64.4531	83.9137	64.4531	83.9689	64.4531	83.9788
67.3828	82.0124	67.3828	81.9763	67.3828	82.0705	67.3828	81.9646	67.3828	82.1483	67.3828	81.9799	67.3828	82.2442	67.3828	82.0249	67.3828	82.3571	67.3828	82.1019	67.3828	82.4865	67.3828	82.2124	67.3828	82.6327	67.3828	82.3571	67.3828	82.7962	67.3828	82.5351	67.3828	82.9775	67.3828	82.744	67.3828	83.1767	67.3828	82.9789	67.3828	83.392	67.3828	83.2332	67.3828	83.619	67.3828	83.4978	67.3828	83.8501	67.3828	83.7617	67.3828	84.0743	67.3828	84.0121	67.3828	84.2779	67.3828	84.2356	67.3828	84.4461	67.3828	84.4189	67.3828	84.5655	67.3828	84.5502	67.3828	84.6256	67.3828	84.6207
68.8477	82.3826	68.8477	82.3476	68.8477	82.4402	68.8477	82.3371	68.8477	82.5186	68.8477	82.3531	68.8477	82.6161	68.8477	82.3976	68.8477	82.7317	68.8477	82.4721	68.8477	82.8643	68.8477	82.5779	68.8477	83.0133	68.8477	82.7151	68.8477	83.1784	68.8477	82.883	68.8477	83.3591	68.8477	83.0795	68.8477	83.5543	68.8477	83.3003	68.8477	83.7617	68.8477	83.5397	68.8477	83.9769	68.8477	83.7896	68.8477	84.1928	68.8477	84.0399	68.8477	84.3995	68.8477	84.2789	68.8477	84.585	68.8477	84.4939	68.8477	84.7361	68.8477	84.6724	68.8477	84.8407	68.8477	84.8029	68.8477	84.8893	68.8477	84.8768
71.7773	83.1477	71.7773	83.1164	71.7773	83.2029	71.7773	83.11	71.7773	83.2809	71.7773	83.1291	71.7773	83.3805	71.7773	83.1742	71.7773	83.5001	71.7773	83.2457	71.7773	83.6378	71.7773	83.3436	71.7773	83.7914	71.7773	83.4676	71.7773	83.9586	71.7773	83.6169	71.7773	84.1368	71.7773	83.7897	71.7773	84.323	71.7773	83.983	71.7773	84.514	71.7773	84.1924	71.7773	84.7052	71.7773	84.4119	71.7773	84.8909	71.7773	84.6335	71.7773	85.0636	71.7773	84.8474	71.7773	85.2143	71.7773	85.043	71.7773	85.3328	71.7773	85.2089	71.7773	85.4098	71.7773	85.3348	71.7773	85.4377	71.7773	85.4126
74.707	83.9525	74.707	83.9271	74.707	84.0027	74.707	83.926	74.707	84.0772	74.707	83.9487	74.707	84.1753	74.707	83.9943	74.707	84.295	74.707	84.062	74.707	84.4337	74.707	84.1507	74.707	84.5881	74.707	84.2598	74.707	84.754	74.707	84.3881	74.707	84.927	74.707	84.5345	74.707	85.1027	74.707	84.6973	74.707	85.2765	74.707	84.8735	74.707	85.4439	74.707	85.0592	74.707	85.6	74.707	85.2487	74.707	85.7393	74.707	85.4345	74.707	85.8554	74.707	85.6077	74.707	85.9413	74.707	85.7588	74.707	85.9903	74.707	85.8786	74.707	85.9972	74.707	85.9596
77.6367	84.5129	77.6367	84.4889	77.6367	84.5621	77.6367	84.489	77.6367	84.6367	77.6367	84.5116	77.6367	84.736	77.6367	84.5548	77.6367	84.8579	77.6367	84.617	77.6367	84.9991	77.6367	84.6965	77.6367	85.1551	77.6367	84.7921	77.6367	85.3204	77.6367	84.9027	77.6367	85.4892	77.6367	85.0274	77.6367	85.6558	77.6367	85.1651	77.6367	85.8147	77.6367	85.3143	77.6367	85.9612	77.6367	85.4724	77.6367	86.091	77.6367	85.6356	77.6367	86.2001	77.6367	85.7983	77.6367	86.2843	77.6367	85.9535	77.6367	86.3394	77.6367	86.0934	77.6367	86.3613	77.6367	86.2098	77.6367	86.3471	77.6367	86.296
79.1016	84.7272	79.1016	84.704	79.1016	84.7758	79.1016	84.7046	79.1016	84.8502	79.1016	84.7272	79.1016	84.9497	79.1016	84.7696	79.1016	85.0723	79.1016	84.8296	79.1016	85.2143	79.1016	84.9053	79.1016	85.3707	79.1016	84.9953	79.1016	85.5357	79.1016	85.0984	79.1016	85.7026	79.1016	85.2138	79.1016	85.8652	79.1016	85.3407	79.1016	86.0177	79.1016	85.478	79.1016	86.1551	79.1016	85.6238	79.1016	86.2734	79.1016	85.7751	79.1016	86.3692	79.1016	85.9271	79.1016	86.4394	79.1016	86.0739	79.1016	86.4809	79.1016	86.2082	79.1016	86.4908	79.1016	86.3226	79.1016	86.4674	79.1016	86.4106
82.0312	85.2537	82.0312	85.2316	82.0312	85.3018	82.0312	85.2334	82.0312	85.3768	82.0312	85.2565	82.0312	85.478	82.0312	85.298	82.0312	85.6031	82.0312	85.3551	82.0312	85.7479	82.0312	85.4251	82.0312	85.9067	82.0312	85.5062	82.0312	86.0723	82.0312	85.5969	82.0312	86.2372	82.0312	85.6963	82.0312	86.3937	82.0312	85.804	82.0312	86.5353	82.0312	85.9197	82.0312	86.6566	82.0312	86.0427	82.0312	86.754	82.0312	86.1714	82.0312	86.825	82.0312	86.303	82.0312	86.8684	82.0312	86.4333	82.0312	86.8835	82.0312	86.5568	82.0312	86.8699	82.0312	86.6675	82.0312	86.828	82.0312	86.7595
84.9609	85.6847	84.9609	85.6632	84.9609	85.7344	84.9609	85.6671	84.9609	85.8135	84.9609	85.6932	84.9609	85.9213	84.9609	85.7377	84.9609	86.0552	84.9609	85.7968	84.9609	86.2103	84.9609	85.8673	84.9609	86.3797	84.9609	85.9465	84.9609	86.5552	84.9609	86.0326	84.9609	86.7277	84.9609	86.1245	84.9609	86.8884	84.9609	86.2219	84.9609	87.0296	84.9609	86.3253	84.9609	87.1455	84.9609	86.4347	84.9609	87.232	84.9609	86.5503	84.9609	87.2875	84.9609	86.6706	84.9609	87.3118	84.9609	86.7933	84.9609	87.306	84.9609	86.9141	84.9609	87.2717	84.9609	87.0278	84.9609	87.2115	84.9609	87.1287
87.8906	85.9683	87.8906	85.9464	87.8906	86.0188	87.8906	85.9506	87.8906	86.0992	87.8906	85.9768	87.8906	86.2083	87.8906	86.0206	87.8906	86.343	87.8906	86.0775	87.8906	86.4976	87.8906	86.1433	87.8906	86.6648	87.8906	86.2147	87.8906	86.8357	87.8906	86.2894	87.8906	87.0009	87.8906	86.3662	87.8906	87.1511	87.8906	86.4451	87.8906	87.2782	87.8906	86.5269	87.8906	87.3762	87.8906	86.613	87.8906	87.4415	87.8906	86.7048	87.8906	87.4731	87.8906	86.8027	87.8906	87.4724	87.8906	86.9062	87.8906	87.4425	87.8906	87.0131	87.8906	87.3875	87.8906	87.1196	87.8906	87.312	87.8906	87.2209
90.8203	86.2722	90.8203	86.2514	90.8203	86.3206	90.8203	86.2552	90.8203	86.3983	90.8203	86.2792	90.8203	86.5044	90.8203	86.3183	90.8203	86.6358	90.8203	86.3676	90.8203	86.7868	90.8203	86.4226	90.8203	86.9497	90.8203	86.4795	90.8203	87.1149	90.8203	86.5361	90.8203	87.2721	90.8203	86.5912	90.8203	87.4112	90.8203	86.6452	90.8203	87.5233	90.8203	86.6999	90.8203	87.6021	90.8203	86.7579	90.8203	87.6441	90.8203	86.8223	90.8203	87.6491	90.8203	86.8956	90.8203	87.62	90.8203	86.9795	90.8203	87.5619	90.8203	87.0735	90.8203	87.4814	90.8203	87.1755	90.8203	87.3855	90.8203	87.2814
95.2148	86.8167	95.2148	86.7937	95.2148	86.8663	95.2148	86.7942	95.2148	86.9436	95.2148	86.8139	95.2148	87.0475	95.2148	86.8474	95.2148	87.1745	95.2148	86.8893	95.2148	87.3187	95.2148	86.9344	95.2148	87.4718	95.2148	86.9786	95.2148	87.6241	95.2148	87.0188	95.2148	87.7648	95.2148	87.0536	95.2148	87.8837	95.2148	87.0833	95.2148	87.9719	95.2148	87.11	95.2148	88.023	95.2148	87.1373	95.2148	88.0343	95.2148	87.1696	95.2148	88.0068	95.2148	87.2117	95.2148	87.9452	95.2148	87.2674	95.2148	87.8572	95.2148	87.3393	95.2148	87.7522	95.2148	87.4274	95.2148	87.6399	95.2148	87.5293
98.1445	87.0295	98.1445	87.0097	98.1445	87.0732	98.1445	87.0102	98.1445	87.1423	98.1445	87.0262	98.1445	87.2367	98.1445	87.0524	98.1445	87.3533	98.1445	87.0833	98.1445	87.4866	98.1445	87.1138	98.1445	87.6287	98.1445	87.14	98.1445	87.7697	98.1445	87.1593	98.1445	87.8988	98.1445	87.1706	98.1445	88.0051	98.1445	87.1751	98.1445	88.0792	98.1445	87.1755	98.1445	88.1141	98.1445	87.1765	98.1445	88.1068	98.1445	87.1838	98.1445	88.0586	98.1445	87.2036	98.1445	87.9749	98.1445	87.2416	98.1445	87.8648	98.1445	87.3017	98.1445	87.7396	98.1445	87.3851	98.1445	87.611	98.1445	87.4901
101.074	87.0197	101.074	87.005	101.074	87.0597	101.074	87.0113	101.074	87.1271	101.074	87.0332	101.074	87.2219	101.074	87.0648	101.074	87.3413	101.074	87.0999	101.074	87.4795	101.074	87.1331	101.074	87.6281	101.074	87.1597	101.074	87.7764	101.074	87.1767	101.074	87.9124	101.074	87.1831	101.074	88.024	101.074	87.1796	101.074	88.1005	101.074	87.1694	101.074	88.1342	101.074	87.1575	101.074	88.1212	101.074	87.1508	101.074	88.0628	101.074	87.1569	101.074	87.9652	101.074	87.1831	101.074	87.839	101.074	87.2353	101.074	87.6976	101.074	87.3162	101.074	87.5552	101.074	87.4248
105.469	87.2492	105.469	87.2289	105.469	87.2959	105.469	87.2313	105.469	87.3706	105.469	87.2513	105.469	87.4723	105.469	87.2826	105.469	87.5973	105.469	87.3188	105.469	87.7393	105.469	87.3534	105.469	87.8893	105.469	87.3811	105.469	88.0363	105.469	87.3977	105.469	88.1682	105.469	87.4008	105.469	88.2725	105.469	87.3905	105.469	88.3386	105.469	87.3692	105.469	88.3582	105.469	87.3422	105.469	88.3279	105.469	87.3171	105.469	88.2494	105.469	87.3032	105.469	88.1299	105.469	87.3104	105.469	87.9818	105.469	87.3473	105.469	87.8211	105.469	87.4193	105.469	87.6644	105.469	87.5268
108.398	87.4251	108.398	87.4026	108.398	87.474	108.398	87.4031	108.398	87.5506	108.398	87.4214	108.398	87.6538	108.398	87.4514	108.398	87.78	108.398	87.4864	108.398	87.9228	108.398	87.5197	108.398	88.0734	108.398	87.5454	108.398	88.2209	108.398	87.5592	108.398	88.3528	108.398	87.5585	108.398	88.4567	108.398	87.5431	108.398	88.5211	108.398	87.5156	108.398	88.5376	108.398	87.4814	108.398	88.5022	108.398	87.4488	108.398	88.4164	108.398	87.4279	108.398	88.2878	108.398	87.4296	108.398	88.1294	108.398	87.4636	108.398	87.9581	108.398	87.5358	108.398	87.7919	108.398	87.6472
112.793	87.6256	112.793	87.6015	112.793	87.6735	112.793	87.5976	112.793	87.7469	112.793	87.6087	112.793	87.8456	112.793	87.6289	112.793	87.9666	112.793	87.6516	112.793	88.1047	112.793	87.6705	112.793	88.2515	112.793	87.6804	112.793	88.3965	112.793	87.6771	112.793	88.5271	112.793	87.6587	112.793	88.6301	112.793	87.6258	112.793	88.6931	112.793	87.5819	112.793	88.7067	112.793	87.5332	112.793	88.6657	112.793	87.4893	112.793	88.5707	112.793	87.4615	112.793	88.4289	112.793	87.4618	112.793	88.2536	112.793	87.5005	112.793	88.0625	112.793	87.5837	112.793	87.8755	112.793	87.7112
117.188	87.6638	117.188	87.6294	117.188	87.7198	117.188	87.6137	117.188	87.7991	117.188	87.6121	117.188	87.9009	117.188	87.6192	117.188	88.0223	117.188	87.6293	117.188	88.1576	117.188	87.6368	117.188	88.2982	117.188	87.6363	117.188	88.4334	117.188	87.624	117.188	88.5507	117.188	87.5976	117.188	88.6372	117.188	87.5571	117.188	88.6815	117.188	87.5055	117.188	88.6746	117.188	87.4488	117.188	88.6125	117.188	87.3962	117.188	88.4971	117.188	87.3593	117.188	88.3367	117.188	87.3505	117.188	88.1458	117.188	87.3811	117.188	87.9432	117.188	87.4583	117.188	87.7495	117.188	87.5833
120.117	87.6885	120.117	87.6557	120.117	87.7444	120.117	87.6431	120.117	87.8244	120.117	87.6456	120.117	87.9269	120.117	87.657	120.117	88.0477	120.117	87.6704	120.117	88.1801	120.117	87.6788	120.117	88.315	120.117	87.6758	120.117	88.4412	120.117	87.6566	120.117	88.5464	120.117	87.6182	120.117	88.618	120.117	87.5607	120.117	88.6447	120.117	87.4873	120.117	88.6182	120.117	87.4051	120.117	88.5349	120.117	87.3247	120.117	88.3975	120.117	87.2595	120.117	88.2154	120.117	87.2246	120.117	88.0048	120.117	87.2336	120.117	87.7864	120.117	87.2961	120.117	87.5828	120.117	87.4146
124.512	87.8432	124.512	87.8048	124.512	87.905	124.512	87.7873	124.512	87.9903	124.512	87.7857	124.512	88.0967	124.512	87.7935	124.512	88.2196	124.512	87.8032	124.512	88.3522	124.512	87.8071	124.512	88.4857	124.512	87.7983	124.512	88.6095	124.512	87.7715	124.512	88.7114	124.512	87.7237	124.512	88.7786	124.512	87.6552	124.512	88.7995	124.512	87.5696	124.512	88.765	124.512	87.4744	124.512	88.671	124.512	87.3813	124.512	88.5198	124.512	87.3049	124.512	88.3214	124.512	87.2616	124.512	88.0927	124.512	87.2665	124.512	87.8561	124.512	87.3302	124.512	87.6364	124.512	87.4558
128.906	87.8584	128.906	87.8176	128.906	87.9208	128.906	87.796	128.906	88.0049	128.906	87.7892	128.906	88.1087	128.906	87.7907	128.906	88.2278	128.906	87.793	128.906	88.3563	128.906	87.7886	128.906	88.4857	128.906	87.7704	128.906	88.6053	128.906	87.7331	128.906	88.703	128.906	87.674	128.906	88.7653	128.906	87.5935	128.906	88.7799	128.906	87.4956	128.906	88.7374	128.906	87.3887	128.906	88.6332	128.906	87.2848	128.906	88.47	128.906	87.1994	128.906	88.2581	128.906	87.1497	128.906	88.0154	128.906	87.1515	128.906	87.7657	128.906	87.2159	128.906	87.5348	128.906	87.3459
133.301	87.9179	133.301	87.8781	133.301	87.9766	133.301	87.855	133.301	88.0544	133.301	87.8445	133.301	88.1499	133.301	87.8407	133.301	88.2602	133.301	87.8363	133.301	88.3801	133.301	87.8236	133.301	88.5022	133.301	87.7952	133.301	88.616	133.301	87.7454	133.301	88.7086	133.301	87.6711	133.301	88.7659	133.301	87.5724	133.301	88.7738	133.301	87.4535	133.301	88.7216	133.301	87.3232	133.301	88.6037	133.301	87.1951	133.301	88.4221	133.301	87.0864	133.301	88.188	133.301	87.0166	133.301	87.9211	133.301	87.0042	133.301	87.6479	133.301	87.0626	133.301	87.3974	133.301	87.1961
139.16	87.4466	139.16	87.4032	139.16	87.5125	139.16	87.3805	139.16	87.6015	139.16	87.3754	139.16	87.713	139.16	87.3833	139.16	87.8447	139.16	87.3983	139.16	87.9924	139.16	87.4137	139.16	88.1489	139.16	87.4221	139.16	88.3037	139.16	87.4172	139.16	88.4432	139.16	87.3939	139.16	88.5518	139.16	87.3498	139.16	88.6134	139.16	87.2862	139.16	88.6144	139.16	87.2089	139.16	88.5464	139.16	87.1287	139.16	88.4087	139.16	87.061	139.16	88.2098	139.16	87.0244	139.16	87.968	139.16	87.0375	139.16	87.7094	139.16	87.1141	139.16	87.4637	139.16	87.2587
143.555	87.4732	143.555	87.4135	143.555	87.552	143.555	87.3727	143.555	87.6486	143.555	87.3486	143.555	87.7604	143.555	87.3368	143.555	87.8839	143.555	87.3314	143.555	88.0144	143.555	87.3254	143.555	88.1456	143.555	87.3117	143.555	88.269	143.555	87.2843	143.555	88.3738	143.555	87.2395	143.555	88.4475	143.555	87.1766	143.555	88.4774	143.555	87.0985	143.555	88.4526	143.555	87.0124	143.555	88.3666	143.555	86.93	143.555	88.2195	143.555	86.8661	143.555	88.0193	143.555	86.8374	143.555	87.7822	143.555	86.8595	143.555	87.5312	143.555	86.9431	143.555	87.2923	143.555	87.0901
147.949	87.6372	147.949	87.5752	147.949	87.7135	147.949	87.5258	147.949	87.8035	147.949	87.4854	147.949	87.9049	147.949	87.4488	147.949	88.014	147.949	87.4093	147.949	88.1254	147.949	87.3599	147.949	88.2319	147.949	87.2942	147.949	88.3243	147.949	87.2076	147.949	88.3915	147.949	87.0981	147.949	88.4211	147.949	86.9675	147.949	88.401	147.949	86.8221	147.949	88.3212	147.949	86.6725	147.949	88.1769	147.949	86.5339	147.949	87.9701	147.949	86.4249	147.949	87.7115	147.949	86.3649	147.949	87.42	147.949	86.3709	147.949	87.1213	147.949	86.4537	147.949	86.844	147.949	86.6147
153.809	87.4935	153.809	87.431	153.809	87.5672	153.809	87.3795	153.809	87.6512	153.809	87.3369	153.809	87.7439	153.809	87.2989	153.809	87.8436	153.809	87.2591	153.809	87.9474	153.809	87.2103	153.809	88.0509	153.809	87.1449	153.809	88.1463	153.809	87.057	153.809	88.2221	153.809	86.9433	153.809	88.264	153.809	86.8042	153.809	88.2561	153.809	86.6454	153.809	88.185	153.809	86.478	153.809	88.0422	153.809	86.3185	153.809	87.828	153.809	86.1882	153.809	87.5528	153.809	86.1102	153.809	87.2373	153.809	86.1052	153.809	86.9111	153.809	86.1871	153.809	86.6075	153.809	86.3583
159.668	87.4762	159.668	87.4043	159.668	87.5591	159.668	87.3439	159.668	87.6516	159.668	87.2936	159.668	87.7516	159.668	87.2499	159.668	87.8567	159.668	87.2072	159.668	87.9633	159.668	87.1585	159.668	88.0661	159.668	87.0965	159.668	88.1567	159.668	87.0148	159.668	88.2239	159.668	86.9099	159.668	88.254	159.668	86.7819	159.668	88.2329	159.668	86.6356	159.668	88.1494	159.668	86.4814	159.668	87.9977	159.668	86.335	159.668	87.7802	159.668	86.216	159.668	87.5088	159.668	86.1456	159.668	87.2045	159.668	86.1427	159.668	86.895	159.668	86.2195	159.668	86.6104	159.668	86.3786
165.527	87.6296	165.527	87.5628	165.527	87.7072	165.527	87.5075	165.527	87.7941	165.527	87.4624	165.527	87.8885	165.527	87.4242	165.527	87.989	165.527	87.387	165.527	88.0932	165.527	87.3433	165.527	88.1973	165.527	87.2853	165.527	88.2937	165.527	87.2062	165.527	88.3709	165.527	87.1017	165.527	88.4135	165.527	86.9714	165.527	88.4049	165.527	86.82	165.527	88.3307	165.527	86.6578	165.527	88.1826	165.527	86.5008	165.527	87.9616	165.527	86.3695	165.527	87.6801	165.527	86.2867	165.527	87.3615	165.527	86.2731	165.527	87.0368	165.527	86.3435	165.527	86.7402	165.527	86.502
171.387	87.3224	171.387	87.2599	171.387	87.3919	171.387	87.206	171.387	87.467	171.387	87.1614	171.387	87.5475	171.387	87.1245	171.387	87.6338	171.387	87.0912	171.387	87.726	171.387	87.0552	171.387	87.8219	171.387	87.0086	171.387	87.9152	171.387	86.944	171.387	87.9944	171.387	86.8561	171.387	88.044	171.387	86.7433	171.387	88.0464	171.387	86.6088	171.387	87.9863	171.387	86.462	171.387	87.8547	171.387	86.3174	171.387	87.6525	171.387	86.1947	171.387	87.392	171.387	86.1154	171.387	87.0962	171.387	86.0994	171.387	86.7955	171.387	86.1608	171.387	86.5221	171.387	86.3041
177.246	87.087	177.246	87.0181	177.246	87.1632	177.246	86.958	177.246	87.2453	177.246	86.9066	177.246	87.3319	177.246	86.862	177.246	87.4227	177.246	86.8204	177.246	87.5172	177.246	86.776	177.246	87.6137	177.246	86.7222	177.246	87.7067	177.246	86.6522	177.246	87.786	177.246	86.5612	177.246	87.8359	177.246	86.4472	177.246	87.8382	177.246	86.3128	177.246	87.7762	177.246	86.1661	177.246	87.6391	177.246	86.0208	177.246	87.4265	177.246	85.896	177.246	87.1508	177.246	85.8133	177.246	86.8366	177.246	85.794	177.246	86.5173	177.246	85.8544	177.246	86.2287	177.246	86.0012
183.105	87.0503	183.105	86.9717	183.105	87.1323	183.105	86.8988	183.105	87.2148	183.105	86.8328	183.105	87.2955	183.105	86.7721	183.105	87.3735	183.105	86.713	183.105	87.449	183.105	86.6494	183.105	87.5211	183.105	86.5748	183.105	87.5868	183.105	86.4833	183.105	87.6382	183.105	86.3711	183.105	87.6628	183.105	86.2383	183.105	87.6452	183.105	86.0896	183.105	87.5705	183.105	85.9349	183.105	87.4291	183.105	85.7897	183.105	87.2206	183.105	85.6728	183.105	86.9553	183.105	85.6046	183.105	86.6548	183.105	85.6028	183.105	86.3478	183.105	85.6793	183.105	86.0658	183.105	85.8365
188.965	86.8648	188.965	86.7821	188.965	86.9454	188.965	86.7014	188.965	87.0204	188.965	86.6253	188.965	87.0882	188.965	86.5535	188.965	87.1494	188.965	86.4828	188.965	87.2069	188.965	86.4072	188.965	87.2631	188.965	86.3198	188.965	87.3175	188.965	86.2142	188.965	87.3641	188.965	86.0868	188.965	87.3909	188.965	85.9384	188.965	87.381	188.965	85.7754	188.965	87.3174	188.965	85.6103	188.965	87.1877	188.965	85.4607	188.965	86.9887	188.965	85.3472	188.965	86.7291	188.965	85.2901	188.965	86.4289	188.965	85.3053	188.965	86.1165	188.965	85.4016	188.965	85.8234	188.965	85.5781
196.289	87.1264	196.289	87.0307	196.289	87.2188	196.289	86.9369	196.289	87.3021	196.289	86.8483	196.289	87.3723	196.289	86.7649	196.289	87.4276	196.289	86.6831	196.289	87.4683	196.289	86.5959	196.289	87.4954	196.289	86.4951	196.289	87.5075	196.289	86.3729	196.289	87.499	196.289	86.2245	196.289	87.4596	196.289	86.0499	196.289	87.3764	196.289	85.8556	196.289	87.2382	196.289	85.6545	196.289	87.0401	196.289	85.466	196.289	86.7865	196.289	85.3125	196.289	86.4921	196.289	85.2158	196.289	86.1797	196.289	85.1928	196.289	85.8757	196.289	85.2519	196.289	85.606	196.289	85.3927
203.613	86.9741	203.613	86.8907	203.613	87.0537	203.613	86.8075	203.613	87.1263	203.613	86.7275	203.613	87.1906	203.613	86.6506	203.613	87.2477	203.613	86.5731	203.613	87.2997	203.613	86.4876	203.613	87.3475	203.613	86.385	203.613	87.3878	203.613	86.2568	203.613	87.4106	203.613	86.0974	203.613	87.3991	203.613	85.9066	203.613	87.3326	203.613	85.6911	203.613	87.1926	203.613	85.4644	203.613	86.9697	203.613	85.2468	203.613	86.6692	203.613	85.0625	203.613	86.3128	203.613	84.9351	203.613	85.9357	203.613	84.8839	203.613	85.5782	203.613	84.9216	203.613	85.276	203.613	85.0531
210.938	86.8376	210.938	86.7305	210.938	86.9353	210.938	86.6194	210.938	87.0183	210.938	86.5081	210.938	87.083	210.938	86.3976	210.938	87.1283	210.938	86.2857	210.938	87.1564	210.938	86.1674	210.938	87.1709	210.938	86.0361	210.938	87.1742	210.938	85.8855	210.938	87.1642	210.938	85.7122	210.938	87.1318	210.938	85.5174	210.938	87.0621	210.938	85.3087	210.938	86.9382	210.938	85.1003	210.938	86.7482	210.938	84.9124	210.938	86.4903	210.938	84.7673	210.938	86.1769	210.938	84.6858	210.938	85.8328	210.938	84.683	210.938	85.4906	210.938	84.7664	210.938	85.1828	210.938	84.9358
218.262	86.7724	218.262	86.6626	218.262	86.8805	218.262	86.5601	218.262	86.9781	218.262	86.4706	218.262	87.0588	218.262	86.3942	218.262	87.1206	218.262	86.325	218.262	87.1652	218.262	86.2519	218.262	87.1961	218.262	86.1617	218.262	87.2151	218.262	86.0426	218.262	87.2179	218.262	85.8871	218.262	87.1927	218.262	85.6951	218.262	87.1223	218.262	85.475	218.262	86.9895	218.262	85.2445	218.262	86.784	218.262	85.0286	218.262	86.5081	218.262	84.8552	218.262	86.179	218.262	84.7491	218.262	85.8262	218.262	84.7268	218.262	85.4842	218.262	84.7943	218.262	85.1843	218.262	84.9495
225.586	86.6477	225.586	86.5136	225.586	86.7677	225.586	86.3767	225.586	86.8645	225.586	86.2475	225.586	86.9333	225.586	86.1327	225.586	86.9746	225.586	86.033	225.586	86.994	225.586	85.9431	225.586	86.9988	225.586	85.8532	225.586	86.9944	225.586	85.7517	225.586	86.9793	225.586	85.6288	225.586	86.9433	225.586	85.4798	225.586	86.8692	225.586	85.3075	225.586	86.7393	225.586	85.1231	225.586	86.5429	225.586	84.9459	225.586	86.2824	225.586	84.7995	225.586	85.9753	225.586	84.7063	225.586	85.6504	225.586	84.6827	225.586	85.3402	225.586	84.7365	225.586	85.0731	225.586	84.8683
232.91	86.5783	232.91	86.4423	232.91	86.6957	232.91	86.2999	232.91	86.7843	232.91	86.1626	232.91	86.8385	232.91	86.0372	232.91	86.8594	232.91	85.9251	232.91	86.8538	232.91	85.8209	232.91	86.8321	232.91	85.7152	232.91	86.8029	232.91	85.5973	232.91	86.7673	232.91	85.4583	232.91	86.7157	232.91	85.2946	232.91	86.6296	232.91	85.1099	232.91	86.489	232.91	84.9164	232.91	86.2814	232.91	84.7335	232.91	86.0097	232.91	84.5841	232.91	85.6943	232.91	84.4886	232.91	85.3678	232.91	84.4607	232.91	85.0648	232.91	84.5056	232.91	84.8118	232.91	84.6235
241.699	86.4556	241.699	86.2935	241.699	86.5952	241.699	86.1236	241.699	86.7006	241.699	85.9602	241.699	86.7656	241.699	85.8139	241.699	86.7908	241.699	85.6875	241.699	86.7829	241.699	85.5759	241.699	86.7526	241.699	85.4671	241.699	86.7093	241.699	85.3466	241.699	86.6556	241.699	85.2018	241.699	86.5824	241.699	85.026	241.699	86.4696	241.699	84.8214	241.699	86.2937	241.699	84.6003	241.699	86.0385	241.699	84.3835	241.699	85.7059	241.699	84.1962	241.699	85.3205	241.699	84.0614	241.699	84.9259	241.699	83.9953	241.699	84.5708	241.699	84.0073	241.699	84.2917	241.699	84.1041
250.488	86.4858	250.488	86.2654	250.488	86.6707	250.488	86.0271	250.488	86.8071	250.488	85.7904	250.488	86.8876	250.488	85.5722	250.488	86.9119	250.488	85.3835	250.488	86.8857	250.488	85.2264	250.488	86.8193	250.488	85.0931	250.488	86.7244	250.488	84.9693	250.488	86.6095	250.488	84.8384	250.488	86.4763	250.488	84.6876	250.488	86.3175	250.488	84.5126	250.488	86.12	250.488	84.3204	250.488	85.8707	250.488	84.1286	250.488	85.5648	250.488	83.962	250.488	85.2124	250.488	83.8454	250.488	84.8398	250.488	83.7991	250.488	84.4845	250.488	83.8362	250.488	84.1839	250.488	83.9642
259.277	86.6011	259.277	86.4478	259.277	86.74	259.277	86.2885	259.277	86.8559	259.277	86.1294	259.277	86.9433	259.277	85.9717	259.277	87.0007	259.277	85.8109	259.277	87.0309	259.277	85.638	259.277	87.0386	259.277	85.4432	259.277	87.0254	259.277	85.2189	259.277	86.985	259.277	84.964	259.277	86.9011	259.277	84.6849	259.277	86.7513	259.277	84.3969	259.277	86.5158	259.277	84.1227	259.277	86.1884	259.277	83.8893	259.277	85.7831	259.277	83.722	259.277	85.3348	259.277	83.6383	259.277	84.8896	259.277	83.644	259.277	84.4894	259.277	83.7357	259.277	84.1595	259.277	83.9082
268.066	86.3257	268.066	86.1363	268.066	86.4785	268.066	85.9285	268.066	86.5814	268.066	85.7216	268.066	86.6296	268.066	85.5316	268.066	86.6282	268.066	85.3667	268.066	86.5928	268.066	85.2247	268.066	86.5442	268.066	85.0939	268.066	86.5012	268.066	84.9576	268.066	86.4691	268.066	84.7995	268.066	86.4346	268.066	84.6096	268.066	86.3677	268.066	84.3891	268.066	86.2334	268.066	84.1524	268.066	86.0063	268.066	83.9256	268.066	85.6818	268.066	83.741	268.066	85.2814	268.066	83.6265	268.066	84.8485	268.066	83.5993	268.066	84.4356	268.066	83.6658	268.066	84.0872	268.066	83.8282
276.855	86.1676	276.855	85.9758	276.855	86.3269	276.855	85.767	276.855	86.4426	276.855	85.5583	276.855	86.5106	276.855	85.3626	276.855	86.5343	276.855	85.1855	276.855	86.5229	276.855	85.0227	276.855	86.4888	276.855	84.862	276.855	86.4426	276.855	84.6873	276.855	86.3867	276.855	84.4843	276.855	86.3111	276.855	84.2455	276.855	86.1933	276.855	83.9745	276.855	86.0061	276.855	83.6885	276.855	85.7289	276.855	83.4181	276.855	85.3598	276.855	83.2008	276.855	84.9209	276.855	83.0704	276.855	84.4541	276.855	83.047	276.855	84.0088	276.855	83.1352	276.855	83.626	276.855	83.3307
287.109	85.9045	287.109	85.7406	287.109	86.0428	287.109	85.5685	287.109	86.1431	287.109	85.4062	287.109	86.2017	287.109	85.2675	287.109	86.2271	287.109	85.158	287.109	86.2378	287.109	85.0721	287.109	86.2562	287.109	84.9927	287.109	86.2959	287.109	84.895	287.109	86.3516	287.109	84.7525	287.109	86.3966	287.109	84.5455	287.109	86.3907	287.109	84.2679	287.109	86.2928	287.109	83.9321	287.109	86.0726	287.109	83.5713	287.109	85.7186	287.109	83.2365	287.109	85.2434	287.109	82.9869	287.109	84.6865	287.109	82.8761	287.109	84.1099	287.109	82.9381	287.109	83.5863	287.109	83.1809
297.363	85.5019	297.363	85.2265	297.363	85.6909	297.363	84.9076	297.363	85.7698	297.363	84.5999	297.363	85.7379	297.363	84.3573	297.363	85.6208	297.363	84.2162	297.363	85.4712	297.363	84.1846	297.363	85.3633	297.363	84.2438	297.363	85.3691	297.363	84.3596	297.363	85.52	297.363	84.4962	297.363	85.7825	297.363	84.6248	297.363	86.0765	297.363	84.7282	297.363	86.3181	297.363	84.8017	297.363	86.4524	297.363	84.8529	297.363	86.4611	297.363	84.8982	297.363	86.3542	297.363	84.959	297.363	86.1592	297.363	85.056	297.363	85.9115	297.363	85.2034	297.363	85.6487	297.363	85.4046
307.617	87.2023	307.617	86.8642	307.617	87.422	307.617	86.4266	307.617	87.5115	307.617	85.9186	307.617	87.4645	307.617	85.3824	307.617	87.2824	307.617	84.872	307.617	86.9805	307.617	84.4461	307.617	86.5983	307.617	84.1511	307.617	86.205	307.617	84.004	307.617	85.8885	307.617	83.9874	307.617	85.7191	307.617	84.0629	307.617	85.7067	307.617	84.1925	307.617	85.7975	307.617	84.353	307.617	85.9158	307.617	84.5375	307.617	86.0061	307.617	84.7471	307.617	86.0452	307.617	84.9797	307.617	86.0302	307.617	85.2246	307.617	85.9631	307.617	85.4631	307.617	85.8442	307.617	85.6749
319.336	86.9869	319.336	86.7495	319.336	87.1395	319.336	86.4392	319.336	87.1966	319.336	86.0692	319.336	87.1504	319.336	85.6541	319.336	86.9987	319.336	85.2125	319.336	86.7494	319.336	84.7704	319.336	86.4256	319.336	84.3645	319.336	86.0691	319.336	84.0394	319.336	85.7378	319.336	83.8347	319.336	85.4891	319.336	83.7662	319.336	85.3533	319.336	83.8187	319.336	85.3157	319.336	83.9559	319.336	85.3301	319.336	84.1405	319.336	85.3502	319.336	84.3458	319.336	85.351	319.336	84.5559	319.336	85.3269	319.336	84.7586	319.336	85.2786	319.336	84.9408	319.336	85.2021	319.336	85.0905
329.59	86.8521	329.59	86.6074	329.59	87.0233	329.59	86.3079	329.59	87.1031	329.59	85.9706	329.59	87.0763	329.59	85.6092	329.59	86.9338	329.59	85.2328	329.59	86.6775	329.59	84.8469	329.59	86.3257	329.59	84.4585	329.59	85.9171	329.59	84.0826	329.59	85.5084	329.59	83.7476	329.59	85.1591	329.59	83.4927	329.59	84.907	329.59	83.3552	329.59	84.7512	329.59	83.3527	329.59	84.6634	329.59	83.4719	329.59	84.6135	329.59	83.6743	329.59	84.5855	329.59	83.9116	329.59	84.5719	329.59	84.1397	329.59	84.5604	329.59	84.327	329.59	84.5299	329.59	84.457
341.309	87.0156	341.309	86.7166	341.309	87.2306	341.309	86.3556	341.309	87.3424	341.309	85.9563	341.309	87.3357	341.309	85.5425	341.309	87.2012	341.309	85.1339	341.309	86.939	341.309	84.7425	341.309	86.5626	341.309	84.3721	341.309	86.1036	341.309	84.0219	341.309	85.6132	341.309	83.6936	341.309	85.1568	341.309	83.3972	341.309	84.794	341.309	83.1543	341.309	84.5487	341.309	82.9946	341.309	84.3986	341.309	82.9454	341.309	84.2981	341.309	83.0154	341.309	84.2128	341.309	83.1834	341.309	84.1302	341.309	83.4036	341.309	84.0457	341.309	83.6245	341.309	83.9455	341.309	83.809
353.027	87.0009	353.027	86.713	353.027	87.1877	353.027	86.3401	353.027	87.2596	353.027	85.9	353.027	87.2062	353.027	85.4145	353.027	87.0248	353.027	84.9097	353.027	86.7234	353.027	84.4155	353.027	86.3217	353.027	83.9607	353.027	85.8499	353.027	83.5666	353.027	85.3483	353.027	83.2456	353.027	84.8684	353.027	83.0059	353.027	84.4693	353.027	82.8598	353.027	84.201	353.027	82.8237	353.027	84.0754	353.027	82.9037	353.027	84.0523	353.027	83.0799	353.027	84.0645	353.027	83.3063	353.027	84.0598	353.027	83.5304	353.027	84.0204	353.027	83.7158	353.027	83.9509	353.027	83.8527
366.211	87.1907	366.211	86.8899	366.211	87.3952	366.211	86.5129	366.211	87.485	366.211	86.0807	366.211	87.4454	366.211	85.6141	366.211	87.2697	366.211	85.1338	366.211	86.9621	366.211	84.6607	366.211	86.5412	366.211	84.2153	366.211	86.0399	366.211	83.8132	366.211	85.5036	366.211	83.4596	366.211	84.9846	366.211	83.1471	366.211	84.5315	366.211	82.8667	366.211	84.1724	366.211	82.6269	366.211	83.9064	366.211	82.4641	366.211	83.715	366.211	82.4263	366.211	83.58	366.211	82.5319	366.211	83.4879	366.211	82.7434	366.211	83.4172	366.211	82.9859	366.211	83.3311	366.211	83.1917
379.395	87.3513	379.395	87.1064	379.395	87.5272	379.395	86.8092	379.395	87.6156	379.395	86.4695	379.395	87.6012	379.395	86.0892	379.395	87.4773	379.395	85.6643	379.395	87.2485	379.395	85.1928	379.395	86.9283	379.395	84.6853	379.395	86.5322	379.395	84.1716	379.395	86.0705	379.395	83.6958	379.395	85.5488	379.395	83.298	379.395	84.9821	379.395	82.9959	379.395	84.4175	379.395	82.7855	379.395	83.946	379.395	82.6621	379.395	83.6627	379.395	82.635	379.395	83.5849	379.395	82.7176	379.395	83.6213	379.395	82.9027	379.395	83.6444	379.395	83.1497	379.395	83.5728	379.395	83.3947
392.578	86.9945	392.578	86.7243	392.578	87.179	392.578	86.3935	392.578	87.2572	392.578	86.0265	392.578	87.217	392.578	85.6425	392.578	87.058	392.578	85.2502	392.578	86.7926	392.578	84.8482	392.578	86.4415	392.578	84.4318	392.578	86.0307	392.578	84.0038	392.578	85.5896	392.578	83.5847	392.578	85.1505	392.578	83.2138	392.578	84.7438	392.578	82.9401	392.578	84.3913	392.578	82.8055	392.578	84.1087	392.578	82.828	392.578	83.9136	392.578	82.9914	392.578	83.8222	392.578	83.2471	392.578	83.829	392.578	83.527	392.578	83.8902	392.578	83.7621	392.578	83.936	392.578	83.903
405.762	86.591	405.762	86.3733	405.762	86.7314	405.762	86.0984	405.762	86.7788	405.762	85.7837	405.762	86.7259	405.762	85.438	405.762	86.5757	405.762	85.0586	405.762	86.3383	405.762	84.6378	405.762	86.0257	405.762	84.1771	405.762	85.6462	405.762	83.7007	405.762	85.2025	405.762	83.2553	405.762	84.6987	405.762	82.8927	405.762	84.1573	405.762	82.6474	405.762	83.6422	405.762	82.5331	405.762	83.261	405.762	82.5533	405.762	83.1091	405.762	82.7029	405.762	83.1833	405.762	82.9515	405.762	83.3756	405.762	83.2364	405.762	83.5604	405.762	83.4825	405.762	83.6571	405.762	83.6318
420.41	87.2455	420.41	86.9493	420.41	87.4386	420.41	86.567	420.41	87.5179	420.41	86.1223	420.41	87.477	420.41	85.6404	420.41	87.3128	420.41	85.1386	420.41	87.0265	420.41	84.6189	420.41	86.6236	420.41	84.0731	420.41	86.1134	420.41	83.5018	420.41	85.5059	420.41	82.9348	420.41	84.8121	420.41	82.4338	420.41	84.0516	420.41	82.068	420.41	83.2737	420.41	81.877	420.41	82.5848	420.41	81.8586	420.41	82.139	420.41	81.9861	420.41	82.0391	420.41	82.2186	420.41	82.2277	420.41	82.4923	420.41	82.5237	420.41	82.7218	420.41	82.7542	420.41	82.8248
435.059	86.7266	435.059	86.5317	435.059	86.8413	435.059	86.2723	435.059	86.8628	435.059	85.9641	435.059	86.7835	435.059	85.6197	435.059	86.6043	435.059	85.242	435.059	86.3389	435.059	84.8208	435.059	86.0119	435.059	84.3393	435.059	85.6508	435.059	83.7941	435.059	85.273	435.059	83.2192	435.059	84.8777	435.059	82.6943	435.059	84.4493	435.059	82.3163	435.059	83.9764	435.059	82.1425	435.059	83.4823	435.059	82.1601	435.059	83.0433	435.059	82.3102	435.059	82.7606	435.059	82.5246	435.059	82.6833	435.059	82.7376	435.059	82.7597	435.059	82.8892	435.059	82.8778	435.059	82.9374
451.172	86.8468	451.172	86.5669	451.172	87.0188	451.172	86.2102	451.172	87.0539	451.172	85.8005	451.172	86.9367	451.172	85.3494	451.172	86.6746	451.172	84.8558	451.172	86.2976	451.172	84.3089	451.172	85.8463	451.172	83.6964	451.172	85.3512	451.172	83.0179	451.172	84.8179	451.172	82.304	451.172	84.2284	451.172	81.6358	451.172	83.5647	451.172	81.1423	451.172	82.8507	451.172	80.9451	451.172	82.1971	451.172	81.0715	451.172	81.7858	451.172	81.4301	451.172	81.738	451.172	81.8788	451.172	81.9847	451.172	82.2924	451.172	82.3299	451.172	82.582	451.172	82.5976	451.172	82.6908
465.82	86.7416	465.82	86.4826	465.82	86.8856	465.82	86.1431	465.82	86.8985	465.82	85.7645	465.82	86.7861	465.82	85.3766	465.82	86.5713	465.82	84.9824	465.82	86.2854	465.82	84.5577	465.82	85.9566	465.82	84.0684	465.82	85.6014	465.82	83.4919	465.82	85.213	465.82	82.832	465.82	84.7516	465.82	82.1271	465.82	84.1541	465.82	81.4552	465.82	83.386	465.82	80.9302	465.82	82.5258	465.82	80.6653	465.82	81.8075	465.82	80.6998	465.82	81.471	465.82	80.9546	465.82	81.4918	465.82	81.2802	465.82	81.6354	465.82	81.5485	465.82	81.7242	465.82	81.6993
483.398	86.4417	483.398	86.1791	483.398	86.5925	483.398	85.8292	483.398	86.6237	483.398	85.4328	483.398	86.5379	483.398	85.0312	483.398	86.3431	483.398	84.6399	483.398	86.0528	483.398	84.2338	483.398	85.6875	483.398	83.7616	483.398	85.2747	483.398	83.1823	483.398	84.8415	483.398	82.5026	483.398	84.3922	483.398	81.797	483.398	83.8863	483.398	81.1933	483.398	83.2558	483.398	80.8144	483.398	82.4875	483.398	80.7196	483.398	81.7309	483.398	80.89	483.398	81.2935	483.398	81.2427	483.398	81.3481	483.398	81.6512	483.398	81.6949	483.398	81.9791	483.398	82.0117	483.398	82.1174
499.512	86.3482	499.512	86.0441	499.512	86.5166	499.512	85.6419	499.512	86.5355	499.512	85.2034	499.512	86.4095	499.512	84.7966	499.512	86.1603	499.512	84.454	499.512	85.8232	499.512	84.1411	499.512	85.4365	499.512	83.7742	499.512	85.0285	499.512	83.2718	499.512	84.6111	499.512	82.6018	499.512	84.1787	499.512	81.8093	499.512	83.707	499.512	81.0197	499.512	83.1637	499.512	80.4049	499.512	82.5516	499.512	80.1094	499.512	81.9668	499.512	80.1761	499.512	81.5828	499.512	80.5203	499.512	81.4929	499.512	80.9752	499.512	81.5885	499.512	81.3757	499.512	81.6744	499.512	81.6183
517.09	86.2228	517.09	85.9721	517.09	86.3658	517.09	85.6342	517.09	86.394	517.09	85.2476	517.09	86.3078	517.09	84.8584	517.09	86.1143	517.09	84.4933	517.09	85.8288	517.09	84.1341	517.09	85.4732	517.09	83.7191	517.09	85.0726	517.09	83.1786	517.09	84.6484	517.09	82.4802	517.09	84.2065	517.09	81.6678	517.09	83.7178	517.09	80.8856	517.09	83.1293	517.09	80.3473	517.09	82.4362	517.09	80.2146	517.09	81.7822	517.09	80.4767	517.09	81.4429	517.09	80.9763	517.09	81.5483	517.09	81.5243	517.09	81.8902	517.09	81.9665	517.09	82.1626	517.09	82.1972
536.133	85.8484	536.133	85.4173	536.133	86.0645	536.133	84.8339	536.133	86.0315	536.133	84.1996	536.133	85.7566	536.133	83.6599	536.133	85.3089	536.133	83.3387	536.133	84.8146	536.133	83.2206	536.133	84.4113	536.133	83.1439	536.133	84.1788	536.133	82.9285	536.133	84.0928	536.133	82.4728	536.133	84.0298	536.133	81.773	536.133	83.8237	536.133	80.9243	536.133	83.3463	536.133	80.1202	536.133	82.5849	536.133	79.6144	536.133	81.7207	536.133	79.5967	536.133	81.129	536.133	80.0415	536.133	81.0814	536.133	80.7137	536.133	81.4008	536.133	81.3304	536.133	81.6883	536.133	81.6849
555.176	86.3639	555.176	85.9443	555.176	86.5252	555.176	85.2892	555.176	86.4238	555.176	84.4526	555.176	86.0805	555.176	83.5521	555.176	85.5478	555.176	82.7767	555.176	84.9024	555.176	82.2842	555.176	84.2387	555.176	82.0495	555.176	83.675	555.176	81.8827	555.176	83.3134	555.176	81.5846	555.176	83.1297	555.176	81.0588	555.176	82.9567	555.176	80.3591	555.176	82.613	555.176	79.6759	555.176	82.0033	555.176	79.2293	555.176	81.1474	555.176	79.1338	555.176	80.2314	555.176	79.3554	555.176	79.6266	555.176	79.7384	555.176	79.5936	555.176	80.0607	555.176	79.9044	555.176	80.1305
574.219	86.3485	574.219	85.9281	574.219	86.5388	574.219	85.2787	574.219	86.5026	574.219	84.4234	574.219	86.2455	574.219	83.4511	574.219	85.7746	574.219	82.5722	574.219	85.0934	574.219	82.0739	574.219	84.2188	574.219	82.0486	574.219	83.253	574.219	82.2166	574.219	82.4666	574.219	82.1863	574.219	82.1657	574.219	81.747	574.219	82.2923	574.219	80.9375	574.219	82.4263	574.219	79.9992	574.219	82.2112	574.219	79.2488	574.219	81.5566	574.219	78.8941	574.219	80.6461	574.219	78.9363	574.219	79.8733	574.219	79.2155	574.219	79.5496	574.219	79.5064	574.219	79.5782	574.219	79.6323
594.727	86.5678	594.727	86.2302	594.727	86.6751	594.727	85.6822	594.727	86.5451	594.727	84.9357	594.727	86.2003	594.727	83.9976	594.727	85.681	594.727	82.9169	594.727	85.0043	594.727	81.881	594.727	84.1389	594.727	81.2445	594.727	83.0548	594.727	81.2157	594.727	81.8784	594.727	81.4989	594.727	81.0586	594.727	81.5984	594.727	81.0738	594.727	81.2513	594.727	81.694	594.727	80.5082	594.727	82.2636	594.727	79.654	594.727	82.3972	594.727	79.0339	594.727	82.0479	594.727	78.8161	594.727	81.3774	594.727	78.9188	594.727	80.6292	594.727	79.1793	594.727	79.9929	594.727	79.5251
615.234	86.4669	615.234	86.1487	615.234	86.5464	615.234	85.5774	615.234	86.4054	615.234	84.7393	615.234	86.0733	615.234	83.6417	615.234	85.5907	615.234	82.373	615.234	84.9914	615.234	81.1973	615.234	84.2569	615.234	80.5512	615.234	83.2787	615.234	80.6501	615.234	81.9388	615.234	81.1229	615.234	80.3931	615.234	81.4402	615.234	79.4372	615.234	81.3593	615.234	79.8065	615.234	80.9186	615.234	80.8353	615.234	80.2988	615.234	81.6081	615.234	79.7181	615.234	81.8339	615.234	79.379	615.234	81.6135	615.234	79.4007	615.234	81.1868	615.234	79.7382	615.234	80.7166	615.234	80.2236
637.207	86.5707	637.207	86.2828	637.207	86.663	637.207	85.8012	637.207	86.5591	637.207	85.1118	637.207	86.3033	637.207	84.2037	637.207	85.9834	637.207	83.0945	637.207	85.637	637.207	81.8797	637.207	85.1586	637.207	80.8421	637.207	84.3383	637.207	80.4219	637.207	83.0001	637.207	80.6595	637.207	81.1831	637.207	81.0054	637.207	79.5015	637.207	81.0372	637.207	79.1482	637.207	80.7805	637.207	80.0552	637.207	80.5107	637.207	81.0713	637.207	80.4455	637.207	81.7176	637.207	80.5932	637.207	81.9834	637.207	80.857	637.207	81.9542	637.207	81.1626	637.207	81.7483	637.207	81.4687
659.18	86.8584	659.18	86.619	659.18	86.845	659.18	86.1695	659.18	86.579	659.18	85.5401	659.18	86.1319	659.18	84.7045	659.18	85.6314	659.18	83.6127	659.18	85.1727	659.18	82.2826	659.18	84.7198	659.18	80.8944	659.18	84.1314	659.18	79.904	659.18	83.2358	659.18	79.8525	659.18	81.8635	659.18	80.5466	659.18	80.038	659.18	81.2403	659.18	78.7262	659.18	81.5456	659.18	79.4711	659.18	81.4943	659.18	81.1266	659.18	81.3119	659.18	82.246	659.18	81.2579	659.18	82.7018	659.18	81.4361	659.18	82.7304	659.18	81.7647	659.18	82.5051	659.18	82.1468
682.617	86.7136	682.617	86.5561	682.617	86.5799	682.617	86.1075	682.617	86.2192	682.617	85.3992	682.617	85.7704	682.617	84.4662	682.617	85.3739	682.617	83.3317	682.617	85.0427	682.617	82.0195	682.617	84.6342	682.617	80.6338	682.617	83.9545	682.617	79.5037	682.617	82.8693	682.617	79.0731	682.617	81.363	682.617	79.3433	682.617	79.5828	682.617	79.9226	682.617	78.1342	682.617	80.524	682.617	78.4069	682.617	80.968	682.617	80.1307	682.617	81.1368	682.617	81.4949	682.617	81.0995	682.617	81.943	682.617	81.0836	682.617	81.8212	682.617	81.2163	682.617	81.6053	682.617	81.4181
707.52	86.3492	707.52	86.2687	707.52	86.1407	707.52	85.8662	707.52	85.6935	707.52	85.1351	707.52	85.1063	707.52	84.1307	707.52	84.5252	707.52	82.9485	707.52	84.0719	707.52	81.6118	707.52	83.7562	707.52	80.0308	707.52	83.394	707.52	78.3745	707.52	82.5758	707.52	77.6947	707.52	80.7171	707.52	78.5052	707.52	77.3559	707.52	79.5619	707.52	75.5031	707.52	80.1368	707.52	78.4237	707.52	80.2517	707.52	80.5441	707.52	80.1055	707.52	81.5716	707.52	79.947	707.52	82.3645	707.52	80.0758	707.52	82.7712	707.52	80.6691	707.52	82.4536	707.52	81.5958
732.422	85.3694	732.422	85.5088	732.422	84.9662	732.422	85.3859	732.422	84.3849	732.422	85.0423	732.422	83.7942	732.422	84.4989	732.422	83.371	732.422	83.7176	732.422	83.196	732.422	82.5682	732.422	83.1794	732.422	80.7881	732.422	83.0418	732.422	78.1694	732.422	82.4045	732.422	76.1676	732.422	80.8893	732.422	77.6192	732.422	77.9577	732.422	79.7335	732.422	72.7072	732.422	80.9338	732.422	73.8564	732.422	81.4712	732.422	79.661	732.422	81.6433	732.422	82.4714	732.422	81.621	732.422	83.3328	732.422	81.5896	732.422	83.1485	732.422	81.7392	732.422	82.623	732.422	82.1124
757.324	84.9418	757.324	84.928	757.324	84.6178	757.324	84.7565	757.324	84.0292	757.324	84.7055	757.324	83.4056	757.324	84.8111	757.324	82.949	757.324	84.8005	757.324	82.8167	757.324	84.3323	757.324	83.0422	757.324	83.0643	757.324	83.3879	757.324	80.611	757.324	83.4928	757.324	77.0197	757.324	82.9435	757.324	75.7035	757.324	81.0116	757.324	78.2898	757.324	75.7286	757.324	80.6502	757.324	56.895	757.324	82.024	757.324	77.4674	757.324	82.458	757.324	82.0725	757.324	82.1976	757.324	83.8904	757.324	81.7938	757.324	84.3065	757.324	81.9335	757.324	83.8069	757.324	82.7982
785.156	84.7328	785.156	84.4016	785.156	84.9924	785.156	83.9809	785.156	84.8631	785.156	83.491	785.156	83.8144	785.156	83.3725	785.156	81.5275	785.156	83.8927	785.156	78.9635	785.156	84.2347	785.156	79.6552	785.156	83.2509	785.156	82.2725	785.156	79.9376	785.156	83.9625	785.156	72.5624	785.156	84.4891	785.156	67.6372	785.156	83.8698	785.156	75.3426	785.156	81.1057	785.156	79.4663	785.156	71.8908	785.156	82.137	785.156	76.9274	785.156	83.8747	785.156	83.5815	785.156	84.9807	785.156	86.0791	785.156	85.596	785.156	86.8207	785.156	85.9103	785.156	86.6559	785.156	86.2278
811.523	87.312	811.523	86.3629	811.523	87.9438	811.523	85.0799	811.523	88.0896	811.523	83.7406	811.523	87.5377	811.523	83.3983	811.523	86.2317	811.523	84.376	811.523	83.9829	811.523	85.4528	811.523	80.1031	811.523	85.5576	811.523	76.1442	811.523	84.0381	811.523	80.1812	811.523	80.2453	811.523	83.9776	811.523	72.3932	811.523	85.3429	811.523	66.6744	811.523	84.2435	811.523	76.7549	811.523	79.5436	811.523	82.0625	811.523	73.6952	811.523	85.5392	811.523	82.8813	811.523	87.4373	811.523	86.9825	811.523	88.0478	811.523	88.5139	811.523	88.0563	811.523	88.637	811.523	88.2364
840.82	88.5118	840.82	88.0957	840.82	88.5219	840.82	87.2544	840.82	88.1525	840.82	85.8217	840.82	87.537	840.82	83.9866	840.82	86.5733	840.82	83.2075	840.82	84.7784	840.82	84.3366	840.82	81.769	840.82	85.5337	840.82	78.4122	840.82	85.4167	840.82	79.6827	840.82	83.336	840.82	82.8569	840.82	78.6107	840.82	84.2199	840.82	72.2178	840.82	83.6252	840.82	77.1318	840.82	80.527	840.82	81.8886	840.82	75.0473	840.82	84.8501	840.82	79.6688	840.82	86.6765	840.82	84.2342	840.82	87.6754	840.82	86.7254	840.82	88.2623	840.82	88.0696	840.82	88.5014
870.117	89.1857	870.117	88.9746	870.117	89.1461	870.117	88.1029	870.117	88.9879	870.117	86.2664	870.117	88.3409	870.117	83.4007	870.117	86.8905	870.117	80.7696	870.117	84.7988	870.117	81.3281	870.117	82.1671	870.117	82.9559	870.117	78.3122	870.117	83.2528	870.117	75.088	870.117	81.7434	870.117	79.2271	870.117	77.9666	870.117	83.3294	870.117	71.1115	870.117	85.0313	870.117	76.6523	870.117	84.0158	870.117	81.8794	870.117	80.1937	870.117	84.3527	870.117	79.3314	870.117	85.892	870.117	84.0771	870.117	87.2489	870.117	87.1147	870.117	88.3061	870.117	88.5061	870.117	88.7909
900.879	89.0674	900.879	88.6156	900.879	89.2438	900.879	87.9383	900.879	88.7945	900.879	86.6434	900.879	87.7635	900.879	84.3146	900.879	86.8047	900.879	81.2653	900.879	86.0165	900.879	80.7801	900.879	84.345	900.879	82.798	900.879	80.4222	900.879	83.6519	900.879	72.2494	900.879	82.5791	900.879	77.8203	900.879	78.8566	900.879	83.1323	900.879	67.3322	900.879	85.0026	900.879	72.8126	900.879	84.4996	900.879	79.8742	900.879	81.9032	900.879	83.2118	900.879	80.3658	900.879	85.5794	900.879	84.5741	900.879	87.3721	900.879	87.9549	900.879	88.6668	900.879	89.395	900.879	89.4496
933.105	88.5123	933.105	88.9167	933.105	87.8067	933.105	88.6718	933.105	87.1562	933.105	87.5077	933.105	86.7733	933.105	85.1288	933.105	86.5566	933.105	81.095	933.105	86.2479	933.105	77.5135	933.105	85.7247	933.105	81.0993	933.105	84.3788	933.105	84.2517	933.105	80.3151	933.105	85.0502	933.105	63.4861	933.105	83.6467	933.105	80.0393	933.105	79.3488	933.105	85.5309	933.105	66.3378	933.105	87.1264	933.105	77.5868	933.105	85.9749	933.105	82.84	933.105	83.0736	933.105	85.4339	933.105	84.3899	933.105	87.2609	933.105	87.7841	933.105	88.6609	933.105	89.4137	933.105	89.5143
965.332	87.3014	965.332	87.9646	965.332	85.7474	965.332	88.1781	965.332	83.6858	965.332	88.1224	965.332	82.9071	965.332	87.3262	965.332	83.7863	965.332	85.1158	965.332	84.7127	965.332	80.8311	965.332	85.0848	965.332	76.4456	965.332	84.7411	965.332	79.8464	965.332	83.1384	965.332	82.7559	965.332	78.0032	965.332	83.3332	965.332	69.1462	965.332	81.1031	965.332	81.6314	965.332	72.8348	965.332	84.9605	965.332	70.5773	965.332	85.1592	965.332	77.7823	965.332	82.8169	965.332	81.2333	965.332	79.6792	965.332	84.2828	965.332	82.8846	965.332	86.4756	965.332	86.1675	965.332	87.2412
1,000.49	86.4093	1,000.49	87.2482	1,000.49	85.5661	1,000.49	87.4242	1,000.49	84.7234	1,000.49	86.8802	1,000.49	83.3863	1,000.49	86.0366	1,000.49	82.2399	1,000.49	84.7037	1,000.49	82.5204	1,000.49	81.9156	1,000.49	83.5994	1,000.49	77.5859	1,000.49	83.8709	1,000.49	76.8892	1,000.49	82.5957	1,000.49	79.094	1,000.49	79.382	1,000.49	80.4809	1,000.49	72.0724	1,000.49	80.6452	1,000.49	76.7269	1,000.49	78.5285	1,000.49	82.9299	1,000.49	71.8529	1,000.49	84.1125	1,000.49	73.9218	1,000.49	81.4829	1,000.49	78.566	1,000.49	75.8302	1,000.49	79.9776	1,000.49	77.8052	1,000.49	81.0922	1,000.49	81.5408	1,000.49	82.1717
1,035.64	86.5153	1,035.64	87.4341	1,035.64	85.3465	1,035.64	87.7423	1,035.64	84.3851	1,035.64	87.493	1,035.64	83.4234	1,035.64	86.5786	1,035.64	82.5305	1,035.64	84.6744	1,035.64	82.352	1,035.64	81.5236	1,035.64	82.8032	1,035.64	77.3116	1,035.64	83.0623	1,035.64	76.0433	1,035.64	82.4965	1,035.64	79.0043	1,035.64	80.3329	1,035.64	80.7826	1,035.64	76.1723	1,035.64	80.5014	1,035.64	76.0793	1,035.64	77.7025	1,035.64	79.4753	1,035.64	71.0862	1,035.64	81.1374	1,035.64	70.2387	1,035.64	80.0273	1,035.64	76.4428	1,035.64	74.2037	1,035.64	79.422	1,035.64	65.3486	1,035.64	80.6514	1,035.64	77.1084	1,035.64	80.3408
1,072.27	86.3396	1,072.27	85.9286	1,072.27	86.5942	1,072.27	86.6476	1,072.27	85.2961	1,072.27	87.0305	1,072.27	83.6534	1,072.27	86.0294	1,072.27	83.196	1,072.27	83.7912	1,072.27	82.9279	1,072.27	81.0327	1,072.27	82.3167	1,072.27	78.254	1,072.27	81.4355	1,072.27	76.5942	1,072.27	81.0018	1,072.27	77.6119	1,072.27	80.5299	1,072.27	77.2858	1,072.27	77.2329	1,072.27	74.9792	1,072.27	72.1042	1,072.27	73.6375	1,072.27	79.8604	1,072.27	74.3389	1,072.27	82.4248	1,072.27	75.7656	1,072.27	80.9053	1,072.27	77.9668	1,072.27	74.437	1,072.27	78.4305	1,072.27	67.7375	1,072.27	77.8434	1,072.27	76.2258	1,072.27	77.7667
1,108.89	86.1841	1,108.89	86.4609	1,108.89	85.6547	1,108.89	86.4403	1,108.89	85.2765	1,108.89	86.092	1,108.89	84.7226	1,108.89	85.3658	1,108.89	83.2573	1,108.89	84.4474	1,108.89	81.542	1,108.89	83.3027	1,108.89	80.7372	1,108.89	81.2119	1,108.89	80.7952	1,108.89	78.1943	1,108.89	80.5656	1,108.89	75.9452	1,108.89	79.1362	1,108.89	76.0575	1,108.89	76.4328	1,108.89	77.364	1,108.89	74.4491	1,108.89	76.2243	1,108.89	75.2755	1,108.89	71.2018	1,108.89	78.5546	1,108.89	69.4837	1,108.89	79.3942	1,108.89	73.494	1,108.89	76.5193	1,108.89	76.7487	1,108.89	66.0706	1,108.89	78.6273	1,108.89	71.0979	1,108.89	77.7121
1,148.44	87.1662	1,148.44	87.2573	1,148.44	86.095	1,148.44	86.6988	1,148.44	84.8389	1,148.44	85.9513	1,148.44	84.3697	1,148.44	84.8458	1,148.44	84.1261	1,148.44	83.2902	1,148.44	83.5712	1,148.44	81.9954	1,148.44	82.2254	1,148.44	81.1665	1,148.44	80.119	1,148.44	79.0882	1,148.44	78.8704	1,148.44	76.5987	1,148.44	79.1084	1,148.44	77.2393	1,148.44	78.5449	1,148.44	77.7756	1,148.44	76.9404	1,148.44	76.5567	1,148.44	76.1542	1,148.44	75.0285	1,148.44	77.6077	1,148.44	73.8694	1,148.44	78.3399	1,148.44	75.3607	1,148.44	76.3325	1,148.44	76.0984	1,148.44	71.4399	1,148.44	74.8116	1,148.44	70.7792	1,148.44	73.6319
1,189.45	86.9252	1,189.45	87.1465	1,189.45	86.6394	1,189.45	86.5786	1,189.45	85.8178	1,189.45	84.7582	1,189.45	84.0944	1,189.45	82.3614	1,189.45	83.0314	1,189.45	81.6296	1,189.45	82.9435	1,189.45	82.1309	1,189.45	82.8849	1,189.45	80.9969	1,189.45	82.701	1,189.45	78.7448	1,189.45	81.8663	1,189.45	77.8973	1,189.45	79.8605	1,189.45	77.2793	1,189.45	76.9154	1,189.45	75.9898	1,189.45	75.8835	1,189.45	75.3878	1,189.45	75.4869	1,189.45	74.4635	1,189.45	73.4569	1,189.45	71.1798	1,189.45	73.6803	1,189.45	70.901	1,189.45	76.5277	1,189.45	74.8029	1,189.45	76.4173	1,189.45	78.1835	1,189.45	76.0529	1,189.45	78.5918
1,230.47	87.3795	1,230.47	87.0084	1,230.47	87.0392	1,230.47	86.5428	1,230.47	85.9524	1,230.47	85.6219	1,230.47	84.8937	1,230.47	83.7799	1,230.47	83.7294	1,230.47	81.667	1,230.47	82.5495	1,230.47	80.4014	1,230.47	82.3985	1,230.47	79.4087	1,230.47	82.0959	1,230.47	78.3086	1,230.47	80.2489	1,230.47	77.656	1,230.47	77.8482	1,230.47	77.4476	1,230.47	75.3921	1,230.47	77.6467	1,230.47	75.1989	1,230.47	78.1876	1,230.47	76.4216	1,230.47	78.4187	1,230.47	74.1976	1,230.47	76.8877	1,230.47	73.4089	1,230.47	74.6831	1,230.47	73.8667	1,230.47	74.8271	1,230.47	74.0853	1,230.47	77.5589	1,230.47	75.7913	1,230.47	78.4843
1,274.41	87.4115	1,274.41	87.6963	1,274.41	86.4634	1,274.41	86.7877	1,274.41	86.1662	1,274.41	85.6365	1,274.41	85.8032	1,274.41	85.0009	1,274.41	84.6311	1,274.41	83.5746	1,274.41	83.6468	1,274.41	80.1534	1,274.41	82.7755	1,274.41	76.4178	1,274.41	82.0379	1,274.41	76.9254	1,274.41	80.7455	1,274.41	78.3167	1,274.41	79.2967	1,274.41	75.7871	1,274.41	78.0425	1,274.41	70.9733	1,274.41	75.9067	1,274.41	74.7736	1,274.41	77.0665	1,274.41	77.1993	1,274.41	76.6723	1,274.41	75.028	1,274.41	70.0186	1,274.41	73.3914	1,274.41	70.9834	1,274.41	77.0757	1,274.41	76.0572	1,274.41	79.6481	1,274.41	76.089	1,274.41	78.8373
1,319.82	87.7658	1,319.82	87.7385	1,319.82	87.3954	1,319.82	87.0735	1,319.82	87.3213	1,319.82	86.1899	1,319.82	86.7617	1,319.82	84.9505	1,319.82	85.5715	1,319.82	82.9357	1,319.82	84.1643	1,319.82	80.9331	1,319.82	82.6086	1,319.82	79.1091	1,319.82	81.7241	1,319.82	77.0492	1,319.82	81.2307	1,319.82	78.6783	1,319.82	80.4094	1,319.82	79.2594	1,319.82	78.8904	1,319.82	76.6584	1,319.82	76.8717	1,319.82	75.7379	1,319.82	78.1019	1,319.82	77.3977	1,319.82	78.7538	1,319.82	75.1355	1,319.82	79.2755	1,319.82	72.9194	1,319.82	73.2737	1,319.82	75.8718	1,319.82	73.2256	1,319.82	77.4814	1,319.82	75.9671	1,319.82	76.4104
1,366.7	87.5452	1,366.7	87.7836	1,366.7	87.1443	1,366.7	87.0234	1,366.7	87.021	1,366.7	85.6045	1,366.7	86.1021	1,366.7	84.1038	1,366.7	85.3312	1,366.7	83.0873	1,366.7	84.2629	1,366.7	81.9443	1,366.7	83.1176	1,366.7	78.8955	1,366.7	82.7418	1,366.7	77.0082	1,366.7	82.3291	1,366.7	76.4939	1,366.7	81.2084	1,366.7	73.796	1,366.7	77.9397	1,366.7	73.5961	1,366.7	74.5404	1,366.7	76.3069	1,366.7	76.6062	1,366.7	79.0597	1,366.7	78.8942	1,366.7	78.9323	1,366.7	76.9089	1,366.7	75.6304	1,366.7	74.8874	1,366.7	74.3051	1,366.7	76.2263	1,366.7	77.0842	1,366.7	75.3394	1,366.7	76.1329
1,413.57	86.6251	1,413.57	86.8757	1,413.57	87.0381	1,413.57	86.2959	1,413.57	86.9676	1,413.57	84.8794	1,413.57	85.9855	1,413.57	84.6487	1,413.57	85.2277	1,413.57	84.5339	1,413.57	84.0757	1,413.57	81.9212	1,413.57	83.1355	1,413.57	77.5517	1,413.57	82.6604	1,413.57	73.7349	1,413.57	82.1853	1,413.57	71.309	1,413.57	80.1249	1,413.57	70.3082	1,413.57	76.6909	1,413.57	65.9522	1,413.57	74.0687	1,413.57	70.9409	1,413.57	74.9376	1,413.57	79.1596	1,413.57	74.2021	1,413.57	79.5858	1,413.57	71.3157	1,413.57	76.7422	1,413.57	74.3225	1,413.57	72.9537	1,413.57	76.2039	1,413.57	74.3739	1,413.57	75.1201	1,413.57	74.622
1,463.38	87.0963	1,463.38	87.0287	1,463.38	87.197	1,463.38	86.0495	1,463.38	87.0398	1,463.38	84.3167	1,463.38	86.3598	1,463.38	83.6252	1,463.38	85.1293	1,463.38	82.005	1,463.38	83.0196	1,463.38	78.4323	1,463.38	82.1256	1,463.38	77.7744	1,463.38	81.5914	1,463.38	76.6398	1,463.38	80.6889	1,463.38	75.2675	1,463.38	78.7183	1,463.38	74.6112	1,463.38	75.5169	1,463.38	71.8271	1,463.38	73.6589	1,463.38	68.3653	1,463.38	73.1685	1,463.38	74.149	1,463.38	72.6807	1,463.38	77.2127	1,463.38	72.7668	1,463.38	77.6285	1,463.38	74.2378	1,463.38	72.4531	1,463.38	76.3326	1,463.38	71.3249	1,463.38	75.9737	1,463.38	74.2051
1,516.11	87.3597	1,516.11	86.3786	1,516.11	87.4172	1,516.11	84.7673	1,516.11	86.7549	1,516.11	84.0445	1,516.11	85.7266	1,516.11	83.1989	1,516.11	84.571	1,516.11	81.769	1,516.11	82.7924	1,516.11	79.8417	1,516.11	80.1767	1,516.11	76.2411	1,516.11	79.4691	1,516.11	74.2069	1,516.11	80.033	1,516.11	72.1657	1,516.11	78.2517	1,516.11	70.8922	1,516.11	72.798	1,516.11	72.5818	1,516.11	70.832	1,516.11	70.8516	1,516.11	73.2818	1,516.11	71.4543	1,516.11	73.8005	1,516.11	74.9274	1,516.11	69.1818	1,516.11	74.1798	1,516.11	68.7054	1,516.11	72.171	1,516.11	76.8068	1,516.11	69.1696	1,516.11	75.9872	1,516.11	68.4595
1,568.85	87.2977	1,568.85	86.0172	1,568.85	87.4558	1,568.85	84.149	1,568.85	86.6311	1,568.85	82.6694	1,568.85	85.9737	1,568.85	81.0419	1,568.85	84.0436	1,568.85	79.4989	1,568.85	81.4046	1,568.85	76.4197	1,568.85	78.436	1,568.85	72.4847	1,568.85	76.5585	1,568.85	73.3152	1,568.85	77.2557	1,568.85	70.0895	1,568.85	76.7655	1,568.85	67.8492	1,568.85	71.8233	1,568.85	73.8719	1,568.85	68.3365	1,568.85	73.4224	1,568.85	73.9013	1,568.85	66.5074	1,568.85	74.0856	1,568.85	73.0242	1,568.85	60.3465	1,568.85	74.9098	1,568.85	73.2208	1,568.85	68.0087	1,568.85	76.254	1,568.85	63.8758	1,568.85	74.9667	1,568.85	70.6503
1,624.51	86.1198	1,624.51	85.8285	1,624.51	87.1176	1,624.51	84.8641	1,624.51	86.6852	1,624.51	82.221	1,624.51	85.8438	1,624.51	81.4779	1,624.51	84.1987	1,624.51	78.7078	1,624.51	80.5414	1,624.51	75.4332	1,624.51	77.715	1,624.51	74.0479	1,624.51	76.5618	1,624.51	74.743	1,624.51	76.1046	1,624.51	75.0169	1,624.51	78.2011	1,624.51	68.8908	1,624.51	77.2494	1,624.51	63.9622	1,624.51	69.0299	1,624.51	70.5649	1,624.51	72.6865	1,624.51	73.4058	1,624.51	72.4277	1,624.51	73.8031	1,624.51	66.3341	1,624.51	73.2556	1,624.51	73.4034	1,624.51	69.9054	1,624.51	77.3716	1,624.51	69.9815	1,624.51	75.7956	1,624.51	72.5394
1,681.64	85.7129	1,681.64	84.7744	1,681.64	86.7087	1,681.64	83.9823	1,681.64	85.7265	1,681.64	80.5356	1,681.64	85.8325	1,681.64	79.8023	1,681.64	83.3999	1,681.64	80.7113	1,681.64	79.6213	1,681.64	79.713	1,681.64	78.6783	1,681.64	71.1081	1,681.64	74.9542	1,681.64	73.9168	1,681.64	75.0808	1,681.64	77.0074	1,681.64	77.9562	1,681.64	75.1177	1,681.64	76.7622	1,681.64	71.0784	1,681.64	69.9878	1,681.64	74.5197	1,681.64	74.38	1,681.64	78.6514	1,681.64	78.3625	1,681.64	73.7722	1,681.64	66.6213	1,681.64	75.1492	1,681.64	72.4592	1,681.64	75.0307	1,681.64	78.2508	1,681.64	69.8825	1,681.64	78.972	1,681.64	73.0873
1,741.7	86.0591	1,741.7	84.975	1,741.7	86.2223	1,741.7	83.4596	1,741.7	85.2663	1,741.7	79.7018	1,741.7	83.7893	1,741.7	73.1556	1,741.7	81.1018	1,741.7	76.0122	1,741.7	79.3976	1,741.7	79.8848	1,741.7	76.9854	1,741.7	76.2069	1,741.7	78.1929	1,741.7	60.9603	1,741.7	75.5609	1,741.7	72.1318	1,741.7	75.919	1,741.7	70.4267	1,741.7	79.2311	1,741.7	61.0033	1,741.7	73.8436	1,741.7	73.5107	1,741.7	73.7565	1,741.7	77.1064	1,741.7	77.9541	1,741.7	78.6235	1,741.7	77.1353	1,741.7	77.105	1,741.7	77.4343	1,741.7	77.3625	1,741.7	81.276	1,741.7	76.7671	1,741.7	80.1944	1,741.7	76.1505
1,803.22	87.0577	1,803.22	84.9048	1,803.22	86.9497	1,803.22	83.2541	1,803.22	86.2967	1,803.22	79.7875	1,803.22	83.6621	1,803.22	77.5007	1,803.22	77.6359	1,803.22	77.9061	1,803.22	74.4827	1,803.22	72.7669	1,803.22	74.3592	1,803.22	73.2987	1,803.22	75.5104	1,803.22	60.6764	1,803.22	71.2531	1,803.22	71.4553	1,803.22	68.7639	1,803.22	75.3156	1,803.22	77.1729	1,803.22	73.2261	1,803.22	77.7315	1,803.22	70.7508	1,803.22	71.6702	1,803.22	79.8396	1,803.22	78.6752	1,803.22	78.0157	1,803.22	81.5349	1,803.22	78.8635	1,803.22	77.8633	1,803.22	77.9451	1,803.22	81.5596	1,803.22	77.8171	1,803.22	81.928	1,803.22	80.1496
1,866.21	86.9553	1,866.21	85.0009	1,866.21	87.4878	1,866.21	80.0437	1,866.21	87.3886	1,866.21	78.3518	1,866.21	83.886	1,866.21	76.2894	1,866.21	79.215	1,866.21	69.0366	1,866.21	75.9873	1,866.21	73.4383	1,866.21	66.6762	1,866.21	73.5658	1,866.21	52.9227	1,866.21	70.7504	1,866.21	72.9254	1,866.21	71.3465	1,866.21	67.8978	1,866.21	74.0319	1,866.21	74.347	1,866.21	74.9712	1,866.21	78.6281	1,866.21	74.9934	1,866.21	69.4953	1,866.21	76.5298	1,866.21	77.8435	1,866.21	79.9905	1,866.21	78.7975	1,866.21	78.5003	1,866.21	74.1005	1,866.21	80.058	1,866.21	77.0915	1,866.21	78.2317	1,866.21	80.5133	1,866.21	78.9576
1,932.13	86.7975	1,932.13	84.0229	1,932.13	87.3186	1,932.13	79.7029	1,932.13	86.1835	1,932.13	76.9561	1,932.13	83.7928	1,932.13	77.9506	1,932.13	79.422	1,932.13	75.5477	1,932.13	77.5678	1,932.13	69.5804	1,932.13	75.6546	1,932.13	74.964	1,932.13	69.3732	1,932.13	72.4894	1,932.13	72.3411	1,932.13	62.5896	1,932.13	72.6313	1,932.13	70.0057	1,932.13	72.5956	1,932.13	74.8915	1,932.13	77.718	1,932.13	69.6244	1,932.13	73.7952	1,932.13	72.7154	1,932.13	71.976	1,932.13	76.9386	1,932.13	78.6252	1,932.13	75.3752	1,932.13	76.2402	1,932.13	75.324	1,932.13	69.7686	1,932.13	75.5203	1,932.13	74.9467	1,932.13	74.5529
1,999.51	86.6915	1,999.51	83.3749	1,999.51	87.0213	1,999.51	79.788	1,999.51	84.6093	1,999.51	76.7598	1,999.51	80.1669	1,999.51	74.8283	1,999.51	74.8211	1,999.51	74.0001	1,999.51	73.7954	1,999.51	73.4969	1,999.51	76.1363	1,999.51	74.1279	1,999.51	74.8555	1,999.51	74.1104	1,999.51	72.5648	1,999.51	68.6491	1,999.51	73.6036	1,999.51	69.0216	1,999.51	70.5026	1,999.51	73.9473	1,999.51	74.6831	1,999.51	69.8982	1,999.51	75.5639	1,999.51	67.0023	1,999.51	54.8801	1,999.51	74.7531	1,999.51	73.5252	1,999.51	73.0619	1,999.51	71.751	1,999.51	70.3775	1,999.51	54.9949	1,999.51	70.502	1,999.51	71.5756	1,999.51	72.4216
2,069.82	87.3722	2,069.82	84.2016	2,069.82	87.9117	2,069.82	80.1326	2,069.82	84.6821	2,069.82	74.2869	2,069.82	77.69	2,069.82	70.8209	2,069.82	65.5251	2,069.82	74.2486	2,069.82	75.2367	2,069.82	73.877	2,069.82	78.0829	2,069.82	71.0023	2,069.82	77.0699	2,069.82	73.2482	2,069.82	74.6303	2,069.82	72.7125	2,069.82	72.4386	2,069.82	69.0856	2,069.82	67.7474	2,069.82	70.9242	2,069.82	72.3423	2,069.82	72.4672	2,069.82	73.9382	2,069.82	59.8417	2,069.82	63.4025	2,069.82	72.9977	2,069.82	69.9113	2,069.82	72.0869	2,069.82	69.8876	2,069.82	63.5719	2,069.82	64.7239	2,069.82	61.2757	2,069.82	72.1481	2,069.82	71.4035
2,143.07	87.5087	2,143.07	85.2734	2,143.07	88.3871	2,143.07	79.8341	2,143.07	85.5036	2,143.07	64.5411	2,143.07	75.658	2,143.07	66.6968	2,143.07	72.5505	2,143.07	72.377	2,143.07	78.8297	2,143.07	74.8071	2,143.07	79.5525	2,143.07	76.1818	2,143.07	76.7625	2,143.07	74.247	2,143.07	76.8276	2,143.07	71.5014	2,143.07	75.2226	2,143.07	73.5871	2,143.07	71.0392	2,143.07	69.3126	2,143.07	72.924	2,143.07	71.0184	2,143.07	73.1841	2,143.07	67.2194	2,143.07	68.0557	2,143.07	69.6911	2,143.07	64.84	2,143.07	70.4248	2,143.07	66.0902	2,143.07	54.037	2,143.07	68.1134	2,143.07	62.9432	2,143.07	73.2486	2,143.07	67.8411
2,219.24	87.0349	2,219.24	85.321	2,219.24	87.2448	2,219.24	79.7228	2,219.24	84.6449	2,219.24	69.1787	2,219.24	72.9013	2,219.24	69.0462	2,219.24	77.0509	2,219.24	75.0929	2,219.24	80.9565	2,219.24	77.8037	2,219.24	81.2656	2,219.24	76.7236	2,219.24	78.711	2,219.24	74.5483	2,219.24	75.4545	2,219.24	75.0341	2,219.24	74.6478	2,219.24	74.5473	2,219.24	72.0908	2,219.24	72.8953	2,219.24	73.4184	2,219.24	69.3476	2,219.24	73.7294	2,219.24	71.6962	2,219.24	71.0185	2,219.24	70.1012	2,219.24	67.9564	2,219.24	65.9879	2,219.24	53.3092	2,219.24	60.9286	2,219.24	68.5152	2,219.24	69.4264	2,219.24	73.3302	2,219.24	68.8934
2,296.88	87.2616	2,296.88	84.9535	2,296.88	86.3821	2,296.88	80.7354	2,296.88	82.5654	2,296.88	72.8945	2,296.88	69.0418	2,296.88	72.9432	2,296.88	77.8457	2,296.88	77.7422	2,296.88	82.1012	2,296.88	77.645	2,296.88	81.841	2,296.88	77.5855	2,296.88	78.8907	2,296.88	76.9816	2,296.88	70.1787	2,296.88	73.6599	2,296.88	72.4138	2,296.88	72.4194	2,296.88	72.9636	2,296.88	73.561	2,296.88	73.3197	2,296.88	68.9857	2,296.88	72.9635	2,296.88	72.122	2,296.88	72.0702	2,296.88	72.1542	2,296.88	68.1465	2,296.88	68.0425	2,296.88	65.997	2,296.88	60.5901	2,296.88	67.5362	2,296.88	70.2938	2,296.88	72.2449	2,296.88	68.6554
2,378.91	88.0944	2,378.91	86.0062	2,378.91	87.0269	2,378.91	81.1458	2,378.91	81.8195	2,378.91	67.6727	2,378.91	53.435	2,378.91	73.9522	2,378.91	79.8039	2,378.91	77.1518	2,378.91	82.9739	2,378.91	78.1246	2,378.91	81.973	2,378.91	74.79	2,378.91	80.0405	2,378.91	73.7156	2,378.91	76.4528	2,378.91	71.2006	2,378.91	74.7555	2,378.91	68.5677	2,378.91	72.5615	2,378.91	75.0935	2,378.91	70.5872	2,378.91	69.094	2,378.91	72.4066	2,378.91	71.0191	2,378.91	71.8602	2,378.91	72.5945	2,378.91	69.2946	2,378.91	69.8559	2,378.91	65.2887	2,378.91	57.3164	2,378.91	61.5843	2,378.91	70.8472	2,378.91	72.8491	2,378.91	72.546
2,462.4	87.5588	2,462.4	86.2447	2,462.4	86.7001	2,462.4	81.402	2,462.4	81.8879	2,462.4	71.3228	2,462.4	57.995	2,462.4	74.7605	2,462.4	80.6149	2,462.4	78.7657	2,462.4	83.4786	2,462.4	77.1253	2,462.4	82.4775	2,462.4	77.1879	2,462.4	80.056	2,462.4	78.0714	2,462.4	76.4794	2,462.4	73.7627	2,462.4	76.4202	2,462.4	73.5174	2,462.4	74.1015	2,462.4	71.8072	2,462.4	71.9025	2,462.4	72.4889	2,462.4	70.7892	2,462.4	68.4468	2,462.4	74.036	2,462.4	71.4338	2,462.4	69.2837	2,462.4	67.1171	2,462.4	62.9164	2,462.4	58.7545	2,462.4	64.6795	2,462.4	69.2644	2,462.4	72.3816	2,462.4	71.184
2,548.83	87.283	2,548.83	85.8173	2,548.83	86.0624	2,548.83	80.6178	2,548.83	80.0406	2,548.83	76.2207	2,548.83	68.3358	2,548.83	75.3364	2,548.83	81.3605	2,548.83	79.2317	2,548.83	83.6809	2,548.83	79.1755	2,548.83	82.3708	2,548.83	78.8435	2,548.83	78.1968	2,548.83	74.6864	2,548.83	74.2863	2,548.83	76.6682	2,548.83	75.9433	2,548.83	73.1817	2,548.83	75.4479	2,548.83	72.2246	2,548.83	73.1473	2,548.83	71.9876	2,548.83	71.7445	2,548.83	67.8105	2,548.83	71.8215	2,548.83	72.293	2,548.83	72.7723	2,548.83	68.223	2,548.83	67.9592	2,548.83	61.2145	2,548.83	63.4798	2,548.83	70.1662	2,548.83	71.5398	2,548.83	71.0518
2,639.65	87.5654	2,639.65	86.2395	2,639.65	86.2382	2,639.65	81.8773	2,639.65	80.5451	2,639.65	76.7275	2,639.65	71.7647	2,639.65	77.772	2,639.65	81.945	2,639.65	79.5066	2,639.65	83.4844	2,639.65	79.6572	2,639.65	82.5709	2,639.65	77.6318	2,639.65	76.7353	2,639.65	75.6151	2,639.65	75.6841	2,639.65	74.0266	2,639.65	76.382	2,639.65	69.9448	2,639.65	74.1741	2,639.65	72.4604	2,639.65	68.0751	2,639.65	70.2514	2,639.65	71.3354	2,639.65	70.0844	2,639.65	71.9834	2,639.65	70.0691	2,639.65	71.3035	2,639.65	69.1032	2,639.65	68.4909	2,639.65	52.2092	2,639.65	61.8155	2,639.65	68.8095	2,639.65	72.0757	2,639.65	71.4114
2,731.93	87.2977	2,731.93	86.4274	2,731.93	85.189	2,731.93	83.0063	2,731.93	81.3995	2,731.93	75.4358	2,731.93	75.316	2,731.93	79.3149	2,731.93	82.6685	2,731.93	79.0343	2,731.93	83.5769	2,731.93	79.4876	2,731.93	83.1891	2,731.93	74.6999	2,731.93	76.5709	2,731.93	74.7654	2,731.93	72.1628	2,731.93	71.6746	2,731.93	73.0159	2,731.93	71.6786	2,731.93	69.7482	2,731.93	71.9974	2,731.93	57.7436	2,731.93	71.1659	2,731.93	70.2476	2,731.93	68.4464	2,731.93	72.489	2,731.93	70.6869	2,731.93	69.3157	2,731.93	68.4359	2,731.93	64.5231	2,731.93	61.62	2,731.93	62.7645	2,731.93	67.8099	2,731.93	71.4391	2,731.93	68.2416
2,828.61	86.9149	2,828.61	86.5663	2,828.61	83.9315	2,828.61	82.5678	2,828.61	79.4001	2,828.61	78.201	2,828.61	78.177	2,828.61	78.742	2,828.61	82.6909	2,828.61	79.9357	2,828.61	83.7457	2,828.61	78.2055	2,828.61	81.1219	2,828.61	77.7408	2,828.61	77.4613	2,828.61	75.1295	2,828.61	74.0968	2,828.61	73.2374	2,828.61	70.1542	2,828.61	73.3906	2,828.61	58.2953	2,828.61	70.4793	2,828.61	59.1405	2,828.61	69.704	2,828.61	69.5044	2,828.61	68.6776	2,828.61	71.923	2,828.61	68.2943	2,828.61	66.6804	2,828.61	68.7041	2,828.61	64.6927	2,828.61	62.8601	2,828.61	65.1747	2,828.61	67.5107	2,828.61	70.6079	2,828.61	70.4264
2,928.22	86.6178	2,928.22	86.6645	2,928.22	83.4971	2,928.22	82.3605	2,928.22	77.3584	2,928.22	78.6049	2,928.22	79.1434	2,928.22	78.6978	2,928.22	81.7952	2,928.22	79.4866	2,928.22	83.4089	2,928.22	78.411	2,928.22	80.6785	2,928.22	77.166	2,928.22	78.3565	2,928.22	76.3222	2,928.22	74.8523	2,928.22	73.5279	2,928.22	54.3969	2,928.22	71.3238	2,928.22	64.5519	2,928.22	68.1386	2,928.22	65.7844	2,928.22	69.7349	2,928.22	70.5444	2,928.22	68.0041	2,928.22	67.6169	2,928.22	68.0929	2,928.22	64.5002	2,928.22	68.44	2,928.22	65.156	2,928.22	66.5965	2,928.22	64.678	2,928.22	65.0461	2,928.22	69.7933	2,928.22	69.1961
3,030.76	85.8592	3,030.76	85.7884	3,030.76	82.2833	3,030.76	81.182	3,030.76	76.5601	3,030.76	77.4279	3,030.76	79.2418	3,030.76	79.0173	3,030.76	81.7644	3,030.76	79.3289	3,030.76	82.7346	3,030.76	79.2545	3,030.76	79.8082	3,030.76	76.9841	3,030.76	77.4774	3,030.76	73.7513	3,030.76	72.5149	3,030.76	72.5117	3,030.76	66.5538	3,030.76	71.3061	3,030.76	67.6122	3,030.76	71.063	3,030.76	69.2305	3,030.76	68.7038	3,030.76	66.7643	3,030.76	68.8399	3,030.76	68.0715	3,030.76	67.503	3,030.76	65.4851	3,030.76	66.2166	3,030.76	58.3806	3,030.76	64.8799	3,030.76	64.5885	3,030.76	64.662	3,030.76	68.2267	3,030.76	67.7114
3,137.7	86.9433	3,137.7	86.1927	3,137.7	82.1743	3,137.7	82.0811	3,137.7	77.2084	3,137.7	78.3084	3,137.7	79.6261	3,137.7	79.9785	3,137.7	82.1293	3,137.7	79.8952	3,137.7	82.0356	3,137.7	79.3126	3,137.7	80.2499	3,137.7	76.4404	3,137.7	78.1104	3,137.7	75.5044	3,137.7	71.0048	3,137.7	74.4284	3,137.7	73.2394	3,137.7	71.661	3,137.7	68.343	3,137.7	69.6805	3,137.7	68.6598	3,137.7	67.7515	3,137.7	63.4809	3,137.7	67.3894	3,137.7	66.9123	3,137.7	67.8269	3,137.7	65.9839	3,137.7	65.2659	3,137.7	51.1078	3,137.7	65.8429	3,137.7	64.9434	3,137.7	65.5374	3,137.7	67.3669	3,137.7	68.4757
3,249.02	87.3879	3,249.02	86.6445	3,249.02	82.892	3,249.02	82.8415	3,249.02	78.3989	3,249.02	79.6604	3,249.02	81.2897	3,249.02	80.9284	3,249.02	81.7303	3,249.02	81.4156	3,249.02	82.1386	3,249.02	79.8877	3,249.02	79.9147	3,249.02	77.8438	3,249.02	79.3014	3,249.02	75.2307	3,249.02	76.2626	3,249.02	70.7855	3,249.02	76.608	3,249.02	69.8445	3,249.02	67.4978	3,249.02	68.9724	3,249.02	69.2535	3,249.02	69.112	3,249.02	61.7444	3,249.02	67.0068	3,249.02	67.9971	3,249.02	69.143	3,249.02	66.1336	3,249.02	66.7663	3,249.02	51.6271	3,249.02	68.1318	3,249.02	65.3159	3,249.02	66.0094	3,249.02	68.8079	3,249.02	68.4047
3,363.28	87.6755	3,363.28	86.878	3,363.28	83.6163	3,363.28	82.769	3,363.28	79.8113	3,363.28	80.3549	3,363.28	81.9021	3,363.28	82.4355	3,363.28	81.9192	3,363.28	81.9671	3,363.28	81.6381	3,363.28	79.3751	3,363.28	79.5896	3,363.28	77.4195	3,363.28	80.3269	3,363.28	73.4475	3,363.28	78.5625	3,363.28	73.5871	3,363.28	77.2433	3,363.28	71.8557	3,363.28	69.6477	3,363.28	68.7456	3,363.28	67.6735	3,363.28	68.9679	3,363.28	68.6593	3,363.28	66.5489	3,363.28	66.7472	3,363.28	68.1935	3,363.28	67.8861	3,363.28	66.1726	3,363.28	58.4866	3,363.28	66.5666	3,363.28	66.2365	3,363.28	65.8685	3,363.28	67.0356	3,363.28	67.2797
3,481.93	88.0624	3,481.93	87.3215	3,481.93	84.1196	3,481.93	83.3378	3,481.93	79.7793	3,481.93	82.1318	3,481.93	83.411	3,481.93	83.2	3,481.93	82.4195	3,481.93	82.4676	3,481.93	81.9055	3,481.93	80.1301	3,481.93	81.4109	3,481.93	76.8083	3,481.93	80.6101	3,481.93	75.6935	3,481.93	80.4819	3,481.93	72.8718	3,481.93	76.685	3,481.93	69.7414	3,481.93	68.2061	3,481.93	69.1885	3,481.93	69.7621	3,481.93	68.554	3,481.93	70.4213	3,481.93	67.3824	3,481.93	67.0298	3,481.93	67.6349	3,481.93	67.2351	3,481.93	65.2727	3,481.93	61.2011	3,481.93	63.9692	3,481.93	66.3359	3,481.93	68.1037	3,481.93	68.2696	3,481.93	69.641
3,604.98	88.3422	3,604.98	87.728	3,604.98	84.7533	3,604.98	83.7976	3,604.98	80.8019	3,604.98	82.7861	3,604.98	83.9357	3,604.98	83.9341	3,604.98	82.8685	3,604.98	82.6977	3,604.98	81.0189	3,604.98	79.181	3,604.98	83.1101	3,604.98	77.2028	3,604.98	81.3948	3,604.98	74.4409	3,604.98	80.5267	3,604.98	71.223	3,604.98	73.3872	3,604.98	72.5066	3,604.98	60.1085	3,604.98	69.3787	3,604.98	72.0735	3,604.98	70.3185	3,604.98	71.4604	3,604.98	65.964	3,604.98	65.0754	3,604.98	67.021	3,604.98	67.1394	3,604.98	69.3242	3,604.98	63.9751	3,604.98	64.8399	3,604.98	67.8021	3,604.98	66.8968	3,604.98	68.7765	3,604.98	71.6153
3,732.42	88.0043	3,732.42	87.6935	3,732.42	84.4679	3,732.42	83.9628	3,732.42	81.35	3,732.42	84.4083	3,732.42	84.2155	3,732.42	84.4624	3,732.42	82.3923	3,732.42	82.1571	3,732.42	80.655	3,732.42	79.8586	3,732.42	83.8165	3,732.42	76.9154	3,732.42	81.862	3,732.42	75.5842	3,732.42	78.9011	3,732.42	74.0534	3,732.42	68.021	3,732.42	71.8417	3,732.42	47.5151	3,732.42	70.7492	3,732.42	72.0987	3,732.42	67.7157	3,732.42	67.7633	3,732.42	67.7331	3,732.42	65.8355	3,732.42	64.8451	3,732.42	65.0572	3,732.42	67.0472	3,732.42	66.0151	3,732.42	65.1889	3,732.42	69.426	3,732.42	63.6577	3,732.42	69.1344	3,732.42	70.8555
3,864.26	87.7949	3,864.26	88.0986	3,864.26	84.4063	3,864.26	83.2349	3,864.26	82.6376	3,864.26	84.3117	3,864.26	85.2695	3,864.26	83.8065	3,864.26	82.4454	3,864.26	81.638	3,864.26	80.5424	3,864.26	79.642	3,864.26	84.3633	3,864.26	76.6547	3,864.26	82.1666	3,864.26	76.9683	3,864.26	79.5944	3,864.26	72.2258	3,864.26	72.9055	3,864.26	72.7233	3,864.26	65.1799	3,864.26	69.0113	3,864.26	66.6472	3,864.26	70.2465	3,864.26	69.9176	3,864.26	66.0735	3,864.26	69.1002	3,864.26	65.6247	3,864.26	62.1612	3,864.26	64.7921	3,864.26	65.1462	3,864.26	60.8805	3,864.26	69.0993	3,864.26	63.0519	3,864.26	70.458	3,864.26	71.2905
4,000.49	88.3435	4,000.49	87.2615	4,000.49	83.2462	4,000.49	83.6781	4,000.49	83.3989	4,000.49	84.2614	4,000.49	86.228	4,000.49	83.551	4,000.49	82.2578	4,000.49	81.2114	4,000.49	81.1379	4,000.49	79.1623	4,000.49	84.3383	4,000.49	77.5362	4,000.49	81.946	4,000.49	73.6221	4,000.49	77.7431	4,000.49	73.7851	4,000.49	73.5437	4,000.49	71.3035	4,000.49	53.0532	4,000.49	68.2833	4,000.49	63.7187	4,000.49	69.7292	4,000.49	74.8053	4,000.49	63.9978	4,000.49	68.0411	4,000.49	66.8142	4,000.49	64.8331	4,000.49	64.423	4,000.49	62.6809	4,000.49	64.7422	4,000.49	70.241	4,000.49	63.5576	4,000.49	69.8866	4,000.49	69.4181
4,141.11	88.5262	4,141.11	86.4271	4,141.11	83.6143	4,141.11	83.8696	4,141.11	81.3385	4,141.11	85.345	4,141.11	86.2054	4,141.11	83.0502	4,141.11	82.384	4,141.11	81.5926	4,141.11	81.7056	4,141.11	80.0098	4,141.11	84.8266	4,141.11	77.4045	4,141.11	79.987	4,141.11	76.9182	4,141.11	77.744	4,141.11	74.4873	4,141.11	76.2686	4,141.11	71.9864	4,141.11	72.8377	4,141.11	70.2295	4,141.11	72.1602	4,141.11	69.8258	4,141.11	71.044	4,141.11	65.5928	4,141.11	64.842	4,141.11	68.5539	4,141.11	66.7449	4,141.11	61.214	4,141.11	65.3395	4,141.11	61.2762	4,141.11	68.6768	4,141.11	65.3368	4,141.11	68.6192	4,141.11	68.3199
4,287.6	88.1281	4,287.6	86.7561	4,287.6	84.2433	4,287.6	85.3145	4,287.6	81.315	4,287.6	82.4982	4,287.6	85.8243	4,287.6	82.3736	4,287.6	83.6329	4,287.6	82.0897	4,287.6	81.5516	4,287.6	79.0128	4,287.6	84.068	4,287.6	78.6794	4,287.6	77.0458	4,287.6	72.8362	4,287.6	77.0015	4,287.6	72.9556	4,287.6	78.0166	4,287.6	69.8878	4,287.6	74.4942	4,287.6	69.8734	4,287.6	74.432	4,287.6	67.0664	4,287.6	69.9482	4,287.6	67.4312	4,287.6	68.6224	4,287.6	66.2846	4,287.6	67.5533	4,287.6	63.5779	4,287.6	65.2971	4,287.6	62.6795	4,287.6	67.1022	4,287.6	62.1245	4,287.6	69.4771	4,287.6	68.2969
4,438.48	87.4111	4,438.48	85.7197	4,438.48	85.5925	4,438.48	83.9936	4,438.48	82.8649	4,438.48	84.8929	4,438.48	85.677	4,438.48	84.105	4,438.48	83.9749	4,438.48	82.6528	4,438.48	81.106	4,438.48	80.3309	4,438.48	80.9101	4,438.48	76.9302	4,438.48	77.7961	4,438.48	76.8437	4,438.48	80.4274	4,438.48	75.36	4,438.48	76.5684	4,438.48	70.1556	4,438.48	74.3331	4,438.48	72.0695	4,438.48	70.8614	4,438.48	67.3092	4,438.48	71.3475	4,438.48	67.944	4,438.48	72.0837	4,438.48	65.5753	4,438.48	61.36	4,438.48	64.3596	4,438.48	69.7961	4,438.48	60.2764	4,438.48	67.0826	4,438.48	63.7397	4,438.48	68.7262	4,438.48	67.9804
4,595.21	88.422	4,595.21	85.4492	4,595.21	84.1134	4,595.21	85.3373	4,595.21	82.9642	4,595.21	83.6874	4,595.21	85.3124	4,595.21	83.3293	4,595.21	82.9379	4,595.21	81.5189	4,595.21	78.6969	4,595.21	79.9167	4,595.21	78.0541	4,595.21	79.1259	4,595.21	81.9343	4,595.21	74.5256	4,595.21	80.9034	4,595.21	71.7811	4,595.21	74.8926	4,595.21	70.5695	4,595.21	66.0412	4,595.21	68.4303	4,595.21	71.1804	4,595.21	67.1222	4,595.21	67.2674	4,595.21	64.3328	4,595.21	72.1245	4,595.21	64.438	4,595.21	61.6635	4,595.21	65.5568	4,595.21	69.3649	4,595.21	58.7853	4,595.21	66.2046	4,595.21	63.9722	4,595.21	68.4595	4,595.21	68.1479
4,756.35	86.5888	4,756.35	85.6076	4,756.35	84.4739	4,756.35	83.9542	4,756.35	82.6422	4,756.35	83.2178	4,756.35	84.0499	4,756.35	83.6204	4,756.35	82.5999	4,756.35	81.6167	4,756.35	76.1514	4,756.35	79.123	4,756.35	78.1464	4,756.35	75.5768	4,756.35	83.097	4,756.35	74.2869	4,756.35	78.1197	4,756.35	72.8669	4,756.35	66.5777	4,756.35	69.3074	4,756.35	68.9139	4,756.35	68.8368	4,756.35	70.9383	4,756.35	65.2983	4,756.35	62.1048	4,756.35	64.8414	4,756.35	70.077	4,756.35	63.4991	4,756.35	62.5762	4,756.35	62.4201	4,756.35	67.1035	4,756.35	58.9405	4,756.35	64.2252	4,756.35	65.2577	4,756.35	68.1986	4,756.35	68.3975
4,924.8	86.7613	4,924.8	84.6802	4,924.8	85.1172	4,924.8	83.87	4,924.8	82.521	4,924.8	84.9388	4,924.8	84.0425	4,924.8	82.429	4,924.8	82.6296	4,924.8	81.7677	4,924.8	69.2861	4,924.8	78.6632	4,924.8	81.4296	4,924.8	77.1748	4,924.8	82.1748	4,924.8	73.2916	4,924.8	75.5374	4,924.8	71.3222	4,924.8	69.6709	4,924.8	71.0578	4,924.8	66.2673	4,924.8	67.3823	4,924.8	70.3096	4,924.8	68.7175	4,924.8	47.7262	4,924.8	66.5342	4,924.8	63.1618	4,924.8	60.7932	4,924.8	55.1142	4,924.8	63.4592	4,924.8	65.1969	4,924.8	60.2612	4,924.8	61.5128	4,924.8	60.4047	4,924.8	69.324	4,924.8	66.4375
5,097.66	86.6321	5,097.66	85.7474	5,097.66	85.3496	5,097.66	85.3181	5,097.66	84.1252	5,097.66	84.1798	5,097.66	84.1648	5,097.66	83.7073	5,097.66	82.0014	5,097.66	82.7445	5,097.66	72.6196	5,097.66	79.1667	5,097.66	82.1568	5,097.66	77.2178	5,097.66	80.6322	5,097.66	75.6604	5,097.66	74.8598	5,097.66	73.629	5,097.66	69.153	5,097.66	70.5967	5,097.66	68.6311	5,097.66	69.8406	5,097.66	72.5665	5,097.66	66.8095	5,097.66	54.0276	5,097.66	67.1217	5,097.66	58.109	5,097.66	64.2785	5,097.66	61.2354	5,097.66	62.1762	5,097.66	65.8395	5,097.66	65.0113	5,097.66	60.7911	5,097.66	59.8518	5,097.66	69.1733	5,097.66	66.0192
5,277.83	87.8762	5,277.83	86.566	5,277.83	86.0983	5,277.83	85.1916	5,277.83	85.3704	5,277.83	85.6581	5,277.83	85.3557	5,277.83	84.816	5,277.83	80.7686	5,277.83	82.6696	5,277.83	77.3935	5,277.83	79.5833	5,277.83	81.7723	5,277.83	78.1435	5,277.83	78.9877	5,277.83	73.6341	5,277.83	76.0134	5,277.83	71.5126	5,277.83	72.6558	5,277.83	70.1087	5,277.83	63.9043	5,277.83	69.5658	5,277.83	67.1214	5,277.83	69.4264	5,277.83	61.0326	5,277.83	66.7966	5,277.83	64.9413	5,277.83	63.7065	5,277.83	66.6969	5,277.83	59.4558	5,277.83	65.4203	5,277.83	59.4367	5,277.83	61.7306	5,277.83	62.2632	5,277.83	69.1196	5,277.83	67.4934
5,463.87	87.9713	5,463.87	85.5381	5,463.87	85.7945	5,463.87	85.7741	5,463.87	86.6689	5,463.87	85.4176	5,463.87	84.4344	5,463.87	85.0152	5,463.87	80.9289	5,463.87	82.8172	5,463.87	79.678	5,463.87	79.6875	5,463.87	79.3471	5,463.87	76.6325	5,463.87	77.3524	5,463.87	75.055	5,463.87	76.6033	5,463.87	72.7264	5,463.87	73.1596	5,463.87	70.1822	5,463.87	68.4689	5,463.87	68.9752	5,463.87	69.1442	5,463.87	66.9002	5,463.87	57.3403	5,463.87	66.9528	5,463.87	62.9406	5,463.87	64.7213	5,463.87	64.3793	5,463.87	61.6327	5,463.87	64.691	5,463.87	62.9441	5,463.87	61.9745	5,463.87	56.6737	5,463.87	67.7	5,463.87	65.306
5,657.23	87.9094	5,657.23	86.076	5,657.23	86.4283	5,657.23	86.1115	5,657.23	85.627	5,657.23	86.1165	5,657.23	82.8745	5,657.23	85.2003	5,657.23	81.6828	5,657.23	82.4599	5,657.23	82.302	5,657.23	78.2447	5,657.23	75.6756	5,657.23	76.8064	5,657.23	78.1151	5,657.23	73.8146	5,657.23	75.0521	5,657.23	73.8748	5,657.23	73.3004	5,657.23	69.37	5,657.23	70.8649	5,657.23	70.1085	5,657.23	60.0543	5,657.23	67.9696	5,657.23	58.7826	5,657.23	67.1333	5,657.23	63.2099	5,657.23	66.361	5,657.23	61.185	5,657.23	64.5228	5,657.23	66.2009	5,657.23	60.7321	5,657.23	61.1324	5,657.23	52.9032	5,657.23	68.102	5,657.23	67.0437
5,856.45	87.5962	5,856.45	85.8569	5,856.45	86.6367	5,856.45	85.3609	5,856.45	85.9555	5,856.45	86.0902	5,856.45	82.9185	5,856.45	83.9312	5,856.45	83.6478	5,856.45	82.293	5,856.45	82.0542	5,856.45	77.6322	5,856.45	75.3585	5,856.45	77.9303	5,856.45	79.5885	5,856.45	74.5613	5,856.45	75.0096	5,856.45	72.1701	5,856.45	71.127	5,856.45	69.1275	5,856.45	69.4583	5,856.45	67.471	5,856.45	61.9934	5,856.45	66.9616	5,856.45	65.7122	5,856.45	64.569	5,856.45	63.3822	5,856.45	66.1747	5,856.45	64.3177	5,856.45	62.6237	5,856.45	64.8792	5,856.45	60.9184	5,856.45	62.6768	5,856.45	53.5905	5,856.45	65.1193	5,856.45	65.9378
6,062.99	87.7608	6,062.99	85.4745	6,062.99	86.3477	6,062.99	86.2836	6,062.99	87.7346	6,062.99	85.9233	6,062.99	84.9954	6,062.99	84.2644	6,062.99	84.8095	6,062.99	81.2582	6,062.99	83.0531	6,062.99	79.8047	6,062.99	73.7215	6,062.99	77.5634	6,062.99	79.283	6,062.99	75.2552	6,062.99	75.7423	6,062.99	71.6331	6,062.99	75.3264	6,062.99	69.6551	6,062.99	69.2045	6,062.99	67.2887	6,062.99	63.7739	6,062.99	66.9053	6,062.99	63.3608	6,062.99	64.9134	6,062.99	53.5429	6,062.99	65.9626	6,062.99	58.3684	6,062.99	62.2312	6,062.99	63.0979	6,062.99	60.9616	6,062.99	57.9736	6,062.99	53.0924	6,062.99	65.3818	6,062.99	65.0372
6,276.86	88.5432	6,276.86	85.6735	6,276.86	86.3058	6,276.86	86.9993	6,276.86	87.9732	6,276.86	85.9598	6,276.86	85.6905	6,276.86	83.8868	6,276.86	84.0622	6,276.86	82.0141	6,276.86	82.6925	6,276.86	80.4742	6,276.86	72.638	6,276.86	77.9069	6,276.86	79.9314	6,276.86	72.6565	6,276.86	76.0141	6,276.86	71.0486	6,276.86	73.1863	6,276.86	67.5953	6,276.86	69.2863	6,276.86	66.6118	6,276.86	61.1676	6,276.86	65.0645	6,276.86	62.1875	6,276.86	64.5596	6,276.86	58.8213	6,276.86	66.3468	6,276.86	55.8433	6,276.86	58.9546	6,276.86	63.3655	6,276.86	61.8498	6,276.86	54.8503	6,276.86	51.1239	6,276.86	65.1206	6,276.86	65.0638
6,498.05	88.3213	6,498.05	85.7946	6,498.05	86.788	6,498.05	87.2249	6,498.05	86.4802	6,498.05	85.4924	6,498.05	85.4699	6,498.05	83.228	6,498.05	81.8549	6,498.05	82.2831	6,498.05	82.5511	6,498.05	79.3065	6,498.05	73.72	6,498.05	75.3522	6,498.05	80.1353	6,498.05	71.126	6,498.05	76.8683	6,498.05	67.3654	6,498.05	72.6542	6,498.05	66.3344	6,498.05	69.0324	6,498.05	65.5063	6,498.05	45.1847	6,498.05	64.7403	6,498.05	61.6497	6,498.05	63.2124	6,498.05	55.5559	6,498.05	62.5343	6,498.05	57.2971	6,498.05	60.2023	6,498.05	64.473	6,498.05	61.6466	6,498.05	54.8873	6,498.05	60.3705	6,498.05	66.1406	6,498.05	65.0151
6,726.56	88.3202	6,726.56	86.5017	6,726.56	87.8329	6,726.56	87.3343	6,726.56	87.0141	6,726.56	85.4704	6,726.56	84.7097	6,726.56	83.3279	6,726.56	79.9456	6,726.56	81.8645	6,726.56	81.683	6,726.56	77.1405	6,726.56	73.2832	6,726.56	73.5335	6,726.56	79.6496	6,726.56	71.2065	6,726.56	71.9925	6,726.56	69.6123	6,726.56	70.0108	6,726.56	66.6837	6,726.56	70.2543	6,726.56	66.077	6,726.56	58.5831	6,726.56	64.5024	6,726.56	50.5587	6,726.56	64.3225	6,726.56	58.3141	6,726.56	64.9226	6,726.56	61.1332	6,726.56	61.8586	6,726.56	64.844	6,726.56	63.1881	6,726.56	57.5299	6,726.56	59.8696	6,726.56	67.1612	6,726.56	60.4864
6,963.87	87.8964	6,963.87	86.7169	6,963.87	87.6104	6,963.87	87.1802	6,963.87	87.8816	6,963.87	85.2894	6,963.87	85.1304	6,963.87	83.1599	6,963.87	81.0354	6,963.87	81.0827	6,963.87	80.9825	6,963.87	76.64	6,963.87	71.7091	6,963.87	74.9858	6,963.87	77.5976	6,963.87	71.4258	6,963.87	70	6,963.87	68.4833	6,963.87	70.5242	6,963.87	65.3719	6,963.87	69.6868	6,963.87	64.5574	6,963.87	64.0485	6,963.87	61.666	6,963.87	56.3652	6,963.87	63.6193	6,963.87	57.2523	6,963.87	63.3589	6,963.87	56.24	6,963.87	63.5416	6,963.87	62.971	6,963.87	60.5749	6,963.87	57.6236	6,963.87	63.2342	6,963.87	65.0992	6,963.87	60.3535
7,209.96	87.5723	7,209.96	86.9211	7,209.96	87.1977	7,209.96	87.3355	7,209.96	87.0701	7,209.96	84.5617	7,209.96	85.8846	7,209.96	83.2357	7,209.96	82.3323	7,209.96	80.1786	7,209.96	81.0008	7,209.96	76.9329	7,209.96	71.694	7,209.96	74.2141	7,209.96	72.5621	7,209.96	70.3737	7,209.96	74.4258	7,209.96	65.2831	7,209.96	69.3781	7,209.96	64.0964	7,209.96	66.3656	7,209.96	63.7576	7,209.96	68.6541	7,209.96	61.4598	7,209.96	63.2494	7,209.96	60.8906	7,209.96	55.8774	7,209.96	63.0343	7,209.96	60.9539	7,209.96	61.3767	7,209.96	58.9268	7,209.96	62.6401	7,209.96	47.5359	7,209.96	61.8487	7,209.96	62.1961	7,209.96	59.4619
7,464.84	87.5673	7,464.84	87.0769	7,464.84	87.8694	7,464.84	86.7373	7,464.84	86.981	7,464.84	84.1371	7,464.84	86.8963	7,464.84	82.6982	7,464.84	82.8754	7,464.84	78.7774	7,464.84	81.9346	7,464.84	75.7997	7,464.84	69.9665	7,464.84	71.8165	7,464.84	70.5276	7,464.84	68.5009	7,464.84	76.9085	7,464.84	63.8277	7,464.84	71.6342	7,464.84	63.2844	7,464.84	66.6924	7,464.84	60.2964	7,464.84	67.4105	7,464.84	61.5397	7,464.84	64.5015	7,464.84	61.0674	7,464.84	59.495	7,464.84	59.7332	7,464.84	63.6756	7,464.84	61.6044	7,464.84	60.4959	7,464.84	63.015	7,464.84	58.2182	7,464.84	61.0587	7,464.84	62.4221	7,464.84	61.8947
7,727.05	87.165	7,727.05	87.0988	7,727.05	88.0608	7,727.05	85.8463	7,727.05	87.5523	7,727.05	83.8196	7,727.05	85.8633	7,727.05	81.1787	7,727.05	82.2328	7,727.05	78.1648	7,727.05	82.3048	7,727.05	74.432	7,727.05	70.8587	7,727.05	70.4225	7,727.05	75.3434	7,727.05	66.2783	7,727.05	76.2908	7,727.05	64.9585	7,727.05	71.3987	7,727.05	59.7319	7,727.05	64.2085	7,727.05	57.822	7,727.05	63.2293	7,727.05	58.7609	7,727.05	63.2427	7,727.05	60.2793	7,727.05	52.5379	7,727.05	57.5426	7,727.05	63.2481	7,727.05	61.7735	7,727.05	58.0685	7,727.05	63.7533	7,727.05	56.1772	7,727.05	61.4694	7,727.05	61.1981	7,727.05	60.0907
7,999.51	87.4877	7,999.51	87.4283	7,999.51	87.1183	7,999.51	86.2381	7,999.51	87.5684	7,999.51	83.7037	7,999.51	85.9555	7,999.51	81.3052	7,999.51	82.756	7,999.51	78.974	7,999.51	82.6745	7,999.51	73.7674	7,999.51	74.2748	7,999.51	70.4101	7,999.51	76.588	7,999.51	61.1661	7,999.51	72.8869	7,999.51	59.9757	7,999.51	70.6264	7,999.51	52.527	7,999.51	60.4361	7,999.51	59.717	7,999.51	60.2364	7,999.51	52.7938	7,999.51	58.5994	7,999.51	57.6645	7,999.51	49.856	7,999.51	56.5327	7,999.51	63.8148	7,999.51	62.0245	7,999.51	58.8213	7,999.51	61.6809	7,999.51	57.4044	7,999.51	62.8249	7,999.51	61.0656	7,999.51	58.4734
8,282.23	88.1708	8,282.23	87.733	8,282.23	88.3212	8,282.23	86.3209	8,282.23	88.214	8,282.23	83.0121	8,282.23	87.6913	8,282.23	82.0261	8,282.23	84.4926	8,282.23	77.4039	8,282.23	82.9261	8,282.23	71.6812	8,282.23	75.5548	8,282.23	64.1054	8,282.23	74.9954	8,282.23	60.1004	8,282.23	74.7479	8,282.23	58.5888	8,282.23	70.7972	8,282.23	58.9918	8,282.23	58.0256	8,282.23	60.074	8,282.23	63.1835	8,282.23	57.4055	8,282.23	55.892	8,282.23	61.0809	8,282.23	51.1081	8,282.23	58.8966	8,282.23	63.3998	8,282.23	59.425	8,282.23	58.5735	8,282.23	63.3005	8,282.23	54.6223	8,282.23	63.5001	8,282.23	60.9691	8,282.23	58.4752
8,573.73	88.2561	8,573.73	87.5166	8,573.73	88.2463	8,573.73	85.2566	8,573.73	88.3642	8,573.73	82.8289	8,573.73	87.3267	8,573.73	80.3713	8,573.73	84.3358	8,573.73	74.8436	8,573.73	80.9826	8,573.73	68.7332	8,573.73	76.0962	8,573.73	64.1067	8,573.73	63.6401	8,573.73	62.4896	8,573.73	75.2807	8,573.73	56.5573	8,573.73	66.7815	8,573.73	57.7832	8,573.73	63.1147	8,573.73	55.147	8,573.73	62.0286	8,573.73	47.2669	8,573.73	49.0456	8,573.73	60.7795	8,573.73	53.7842	8,573.73	58.3206	8,573.73	58.5347	8,573.73	53.9567	8,573.73	55.1575	8,573.73	63.3558	8,573.73	56.0882	8,573.73	61.6661	8,573.73	59.7235	8,573.73	55.4011
8,876.95	88.758	8,876.95	87.9625	8,876.95	88.8409	8,876.95	85.5636	8,876.95	87.6816	8,876.95	83.2969	8,876.95	86.3744	8,876.95	79.9825	8,876.95	83.9414	8,876.95	75.1525	8,876.95	79.1811	8,876.95	66.5575	8,876.95	76.3611	8,876.95	66.6767	8,876.95	60.9785	8,876.95	61.735	8,876.95	75.0758	8,876.95	58.0774	8,876.95	63.7051	8,876.95	58.7079	8,876.95	58.7134	8,876.95	55.4607	8,876.95	60.1419	8,876.95	55.8997	8,876.95	45.2014	8,876.95	55.7027	8,876.95	54.3505	8,876.95	55.7542	8,876.95	62.1802	8,876.95	59.773	8,876.95	57.0511	8,876.95	62.3776	8,876.95	51.6573	8,876.95	64.4694	8,876.95	60.1752	8,876.95	56.6688
9,188.96	88.8153	9,188.96	88.0141	9,188.96	88.4122	9,188.96	85.853	9,188.96	87.6012	9,188.96	83.4285	9,188.96	84.9502	9,188.96	80.3741	9,188.96	83.0576	9,188.96	74.2805	9,188.96	79.3373	9,188.96	70.7743	9,188.96	73.4832	9,188.96	68.0369	9,188.96	65.2758	9,188.96	65.2356	9,188.96	71.0947	9,188.96	61.7511	9,188.96	66.0717	9,188.96	60.0133	9,188.96	59.9246	9,188.96	56.0789	9,188.96	53.2241	9,188.96	57.6887	9,188.96	50.1062	9,188.96	56.8208	9,188.96	51.9562	9,188.96	54.2884	9,188.96	61.601	9,188.96	60.3841	9,188.96	55.2162	9,188.96	62.5141	9,188.96	50.306	9,188.96	64.2547	9,188.96	58.2497	9,188.96	56.6439
9,514.16	88.4591	9,514.16	87.4767	9,514.16	87.5642	9,514.16	85.7508	9,514.16	86.9464	9,514.16	83.2245	9,514.16	85.2399	9,514.16	80.3848	9,514.16	81.8488	9,514.16	75.6596	9,514.16	79.3949	9,514.16	72.6466	9,514.16	71.2937	9,514.16	69.6192	9,514.16	64.3264	9,514.16	66.3491	9,514.16	67.6745	9,514.16	63.5405	9,514.16	64.9881	9,514.16	60.5241	9,514.16	59.4028	9,514.16	59.3177	9,514.16	58.0404	9,514.16	57.33	9,514.16	49.84	9,514.16	58.6433	9,514.16	51.0254	9,514.16	55.955	9,514.16	57.482	9,514.16	59.3554	9,514.16	50.3553	9,514.16	61.4896	9,514.16	52.4472	9,514.16	63.7422	9,514.16	57.9967	9,514.16	57.6874
9,849.61	87.59	9,849.61	86.5786	9,849.61	86.6813	9,849.61	85.1325	9,849.61	85.6501	9,849.61	83.1507	9,849.61	84.9804	9,849.61	79.9803	9,849.61	80.8668	9,849.61	76.8122	9,849.61	78.7738	9,849.61	73.0604	9,849.61	74.4824	9,849.61	70.0264	9,849.61	65.6722	9,849.61	65.7105	9,849.61	67.053	9,849.61	62.0192	9,849.61	59.2725	9,849.61	59.7229	9,849.61	61.8074	9,849.61	58.4733	9,849.61	61.6036	9,849.61	57.3538	9,849.61	53.9157	9,849.61	59.2298	9,849.61	45.2415	9,849.61	56.774	9,849.61	54.5321	9,849.61	58.9649	9,849.61	51.0579	9,849.61	60.8273	9,849.61	51.3559	9,849.61	62.8497	9,849.61	54.3794	9,849.61	56.1359
10,196.8	87.0583	10,196.8	85.9784	10,196.8	86.6304	10,196.8	84.9851	10,196.8	85.7968	10,196.8	82.5951	10,196.8	83.92	10,196.8	79.9028	10,196.8	81.1784	10,196.8	76.5998	10,196.8	77.4437	10,196.8	72.9232	10,196.8	75.7826	10,196.8	67.407	10,196.8	64.8138	10,196.8	64.4068	10,196.8	66.8265	10,196.8	59.0144	10,196.8	55.4505	10,196.8	60.4946	10,196.8	61.1254	10,196.8	54.1789	10,196.8	59.1947	10,196.8	54.4547	10,196.8	51.8178	10,196.8	57.7135	10,196.8	40.7647	10,196.8	54.473	10,196.8	49.4679	10,196.8	58.934	10,196.8	52.1598	10,196.8	60.6641	10,196.8	54.2189	10,196.8	61.6482	10,196.8	54.7157	10,196.8	53.6396
10,555.7	87.4139	10,555.7	86.415	10,555.7	87.1037	10,555.7	84.9495	10,555.7	86.208	10,555.7	81.68	10,555.7	83.7004	10,555.7	79.0611	10,555.7	80.2632	10,555.7	74.7368	10,555.7	77.4817	10,555.7	68.5485	10,555.7	74.3026	10,555.7	64.6185	10,555.7	64.4411	10,555.7	61.9106	10,555.7	64.5583	10,555.7	57.4016	10,555.7	56.8499	10,555.7	56.0606	10,555.7	58.4381	10,555.7	51.0133	10,555.7	60.3314	10,555.7	51.7442	10,555.7	47.6628	10,555.7	52.1376	10,555.7	44.509	10,555.7	48.7843	10,555.7	53.9081	10,555.7	55.4152	10,555.7	51.7364	10,555.7	56.7274	10,555.7	52.3097	10,555.7	58.5322	10,555.7	55.9743	10,555.7	53.9606
10,927.7	87.731	10,927.7	87.0345	10,927.7	87.6271	10,927.7	84.8026	10,927.7	86.3492	10,927.7	81.3135	10,927.7	83.8727	10,927.7	77.7883	10,927.7	79.9741	10,927.7	72.5231	10,927.7	76.6873	10,927.7	66.2895	10,927.7	70.1194	10,927.7	61.4264	10,927.7	66.0793	10,927.7	58.6029	10,927.7	62.5474	10,927.7	53.8983	10,927.7	55.1522	10,927.7	54.3774	10,927.7	50.2344	10,927.7	51.1308	10,927.7	55.0667	10,927.7	51.37	10,927.7	40.3231	10,927.7	51.1691	10,927.7	49.1665	10,927.7	46.2448	10,927.7	51.9772	10,927.7	42.8289	10,927.7	47.0691	10,927.7	55.0764	10,927.7	52.5581	10,927.7	56.2513	10,927.7	53.1556	10,927.7	52.6124
11,313	88.1046	11,313	87.4221	11,313	87.798	11,313	85.2058	11,313	86.3629	11,313	81.3644	11,313	82.9702	11,313	77.9142	11,313	79.2595	11,313	72.2006	11,313	75.2953	11,313	66.9891	11,313	67.7016	11,313	63.3574	11,313	63.1946	11,313	61.3397	11,313	53.2186	11,313	54.7176	11,313	40.3228	11,313	54.9724	11,313	46.9339	11,313	51.0758	11,313	54.6853	11,313	52.7252	11,313	41.3817	11,313	52.7358	11,313	47.832	11,313	48.9257	11,313	48.0652	11,313	50.6341	11,313	44.8851	11,313	54.5045	11,313	50.7404	11,313	56.0076	11,313	50.5131	11,313	53.8937
11,712.9	88.5672	11,712.9	88.0315	11,712.9	88.166	11,712.9	85.8811	11,712.9	86.6106	11,712.9	82.1621	11,712.9	82.2118	11,712.9	78.5236	11,712.9	78.4003	11,712.9	73.1487	11,712.9	73.1469	11,712.9	67.7393	11,712.9	65.6835	11,712.9	63.6437	11,712.9	58.3708	11,712.9	60.7629	11,712.9	42.3771	11,712.9	55.6901	11,712.9	49.0774	11,712.9	54.8725	11,712.9	45.9947	11,712.9	50.2508	11,712.9	55.5379	11,712.9	53.283	11,712.9	40.9378	11,712.9	52.9748	11,712.9	41.7668	11,712.9	49.8923	11,712.9	44.2615	11,712.9	50.7423	11,712.9	45.2877	11,712.9	48.1567	11,712.9	46.8239	11,712.9	52.8929	11,712.9	48.5111	11,712.9	53.6491
12,126	88.9321	12,126	88.478	12,126	88.5545	12,126	86.3065	12,126	86.5593	12,126	82.3882	12,126	82.5809	12,126	78.4068	12,126	77.0923	12,126	72.2424	12,126	70.1633	12,126	67.1401	12,126	63.5641	12,126	60.7219	12,126	60.4962	12,126	59.1412	12,126	43.0372	12,126	53.4298	12,126	52.237	12,126	53.8035	12,126	49.6458	12,126	48.0384	12,126	55.5963	12,126	51.9486	12,126	39.6142	12,126	51.5883	12,126	41.216	12,126	48.0492	12,126	43.9162	12,126	48.9217	12,126	36.836	12,126	44.5425	12,126	44.0317	12,126	53.2016	12,126	47.5355	12,126	49.3004
12,553.7	89.1678	12,553.7	88.6758	12,553.7	88.9618	12,553.7	86.2942	12,553.7	86.8392	12,553.7	82.212	12,553.7	82.7177	12,553.7	77.3563	12,553.7	77.1986	12,553.7	70.0475	12,553.7	68.2841	12,553.7	63.5789	12,553.7	66.0242	12,553.7	57.3868	12,553.7	63.8292	12,553.7	54.8626	12,553.7	32.0058	12,553.7	52.2821	12,553.7	48.6215	12,553.7	52.0478	12,553.7	52.9115	12,553.7	46.3614	12,553.7	55.5104	12,553.7	50.6394	12,553.7	37.3517	12,553.7	51.1133	12,553.7	34.3613	12,553.7	46.5809	12,553.7	42.5803	12,553.7	46.2219	12,553.7	37.9784	12,553.7	25.193	12,553.7	44.7883	12,553.7	50.8295	12,553.7	46.8352	12,553.7	50.6383
12,996.1	89.4274	12,996.1	88.8967	12,996.1	89.1427	12,996.1	86.2416	12,996.1	87.27	12,996.1	81.9369	12,996.1	82.7013	12,996.1	76.3484	12,996.1	77.5859	12,996.1	69.3901	12,996.1	70.9996	12,996.1	60.6245	12,996.1	67.1944	12,996.1	58.2721	12,996.1	65.8134	12,996.1	58.7161	12,996.1	50.56	12,996.1	53.8544	12,996.1	53.3244	12,996.1	52.8111	12,996.1	53.3664	12,996.1	49.0741	12,996.1	52.9197	12,996.1	50.1633	12,996.1	39.7202	12,996.1	48.6187	12,996.1	39.3374	12,996.1	45.9831	12,996.1	39.7167	12,996.1	45.9029	12,996.1	41.0921	12,996.1	38.3044	12,996.1	39.8886	12,996.1	51.663	12,996.1	45.5358	12,996.1	48.7711
13,454.6	89.8052	13,454.6	89.2464	13,454.6	89.1429	13,454.6	86.4603	13,454.6	87.185	13,454.6	81.5791	13,454.6	82.9033	13,454.6	76.4318	13,454.6	77.0515	13,454.6	68.212	13,454.6	71.455	13,454.6	62.025	13,454.6	68.4418	13,454.6	62.0249	13,454.6	64.3501	13,454.6	58.8831	13,454.6	53.7533	13,454.6	55.6284	13,454.6	54.4405	13,454.6	53.3334	13,454.6	51.8197	13,454.6	49.7574	13,454.6	50.5436	13,454.6	51.709	13,454.6	35.4579	13,454.6	50.306	13,454.6	37.618	13,454.6	48.3183	13,454.6	46.2296	13,454.6	46.5405	13,454.6	41.3451	13,454.6	38.3645	13,454.6	42.7163	13,454.6	51.3764	13,454.6	41.9966	13,454.6	47.5603
13,929.2	89.9371	13,929.2	89.3567	13,929.2	89.1447	13,929.2	86.7891	13,929.2	86.6119	13,929.2	81.7855	13,929.2	81.7844	13,929.2	76.4777	13,929.2	76.1795	13,929.2	67.9468	13,929.2	69.6541	13,929.2	63.4519	13,929.2	68.2632	13,929.2	62.4261	13,929.2	62.1345	13,929.2	58.1869	13,929.2	55.6318	13,929.2	53.8066	13,929.2	52.4113	13,929.2	52.208	13,929.2	53.2875	13,929.2	49.6591	13,929.2	51.8506	13,929.2	51.0364	13,929.2	42.6482	13,929.2	49.5116	13,929.2	40.7895	13,929.2	49.4238	13,929.2	42.6689	13,929.2	50.2919	13,929.2	32.7814	13,929.2	40.4697	13,929.2	32.4761	13,929.2	49.9659	13,929.2	45.5153	13,929.2	50.7564
14,419.9	90.1324	14,419.9	89.6607	14,419.9	89.0805	14,419.9	87.2688	14,419.9	86.4292	14,419.9	81.9523	14,419.9	80.9854	14,419.9	76.3937	14,419.9	74.8329	14,419.9	68.2301	14,419.9	69.4949	14,419.9	65.6393	14,419.9	64.497	14,419.9	63.4258	14,419.9	59.1907	14,419.9	59.5388	14,419.9	50.83	14,419.9	56.0314	14,419.9	48.6321	14,419.9	52.4757	14,419.9	50.9761	14,419.9	51.3346	14,419.9	53.5284	14,419.9	52.9195	14,419.9	43.4397	14,419.9	51.5714	14,419.9	43.258	14,419.9	51.8922	14,419.9	42.9266	14,419.9	51.1447	14,419.9	40.2102	14,419.9	42.0695	14,419.9	22.8479	14,419.9	51.3451	14,419.9	47.5716	14,419.9	50.8617
14,928.2	90.189	14,928.2	89.6026	14,928.2	89.0637	14,928.2	87.1249	14,928.2	86.1734	14,928.2	81.9561	14,928.2	80.4172	14,928.2	76.3427	14,928.2	73.2097	14,928.2	68.787	14,928.2	64.6558	14,928.2	65.0387	14,928.2	57.7406	14,928.2	62.3858	14,928.2	55.2505	14,928.2	58.9698	14,928.2	52.9211	14,928.2	55.6691	14,928.2	47.8331	14,928.2	52.773	14,928.2	56.4595	14,928.2	50.256	14,928.2	55.616	14,928.2	51.0033	14,928.2	38.8842	14,928.2	51.3232	14,928.2	37.3994	14,928.2	50.5617	14,928.2	40.6687	14,928.2	49.1647	14,928.2	41.8816	14,928.2	42.8451	14,928.2	39.0895	14,928.2	51.7442	14,928.2	48.4515	14,928.2	49.7755
15,455.6	90.4791	15,455.6	89.5271	15,455.6	89.207	15,455.6	86.6443	15,455.6	86.158	15,455.6	81.0504	15,455.6	80.0052	15,455.6	74.7939	15,455.6	71.5126	15,455.6	65.5404	15,455.6	57.5615	15,455.6	60.3537	15,455.6	59.1188	15,455.6	56.0991	15,455.6	49.1288	15,455.6	53.7716	15,455.6	52.141	15,455.6	50.7782	15,455.6	42.136	15,455.6	49.2283	15,455.6	56.7417	15,455.6	46.8766	15,455.6	57.3125	15,455.6	48.3066	15,455.6	32.4933	15,455.6	47.1016	15,455.6	23.018	15,455.6	45.5209	15,455.6	34.4055	15,455.6	44.0533	15,455.6	43.3963	15,455.6	38.0318	15,455.6	41.202	15,455.6	49.391	15,455.6	47.899	15,455.6	45.154
16,000.5	90.4094	16,000.5	89.3817	16,000.5	89.0251	16,000.5	86.1106	16,000.5	85.4685	16,000.5	79.8357	16,000.5	78.4267	16,000.5	72.1104	16,000.5	68.6293	16,000.5	59.7508	16,000.5	39.7885	16,000.5	56.0155	16,000.5	54.9153	16,000.5	56.5284	16,000.5	53.4308	16,000.5	52.1403	16,000.5	51.4171	16,000.5	50.5074	16,000.5	34.8611	16,000.5	39.9205	16,000.5	57.513	16,000.5	44.2434	16,000.5	57.024	16,000.5	43.3089	16,000.5	-5.87384	16,000.5	41.1908	16,000.5	36.6751	16,000.5	43.1132	16,000.5	37.424	16,000.5	41.146	16,000.5	40.1159	16,000.5	29.3875	16,000.5	40.8042	16,000.5	46.5635	16,000.5	45.5288	16,000.5	41.9198
16,564.5	90.1592	16,564.5	89.0742	16,564.5	88.68	16,564.5	85.3453	16,564.5	84.5333	16,564.5	78.2759	16,564.5	75.3578	16,564.5	68.6087	16,564.5	54.2687	16,564.5	52.3425	16,564.5	62.4731	16,564.5	59.0983	16,564.5	64.8335	16,564.5	56.6643	16,564.5	57.242	16,564.5	50.5437	16,564.5	57.6287	16,564.5	46.2295	16,564.5	41.3517	16,564.5	38.1862	16,564.5	60.8288	16,564.5	45.6961	16,564.5	59.1645	16,564.5	42.2448	16,564.5	36.2185	16,564.5	38.8128	16,564.5	41.2997	16,564.5	41.513	16,564.5	37.7543	16,564.5	36.076	16,564.5	33.4034	16,564.5	24.6654	16,564.5	41.1519	16,564.5	42.2255	16,564.5	42.69	16,564.5	35.4128
17,148.9	89.5772	17,148.9	88.6443	17,148.9	88.1043	17,148.9	84.5323	17,148.9	84.0524	17,148.9	76.9683	17,148.9	74.608	17,148.9	59.658	17,148.9	64.887	17,148.9	60.7451	17,148.9	67.8588	17,148.9	65.3882	17,148.9	67.0073	17,148.9	61.5653	17,148.9	63.452	17,148.9	54.9087	17,148.9	60.8975	17,148.9	53.4826	17,148.9	30.066	17,148.9	44.6905	17,148.9	63.1763	17,148.9	50.0084	17,148.9	61.2488	17,148.9	47.7586	17,148.9	36.2365	17,148.9	47.161	17,148.9	43.3462	17,148.9	48.2398	17,148.9	39.1807	17,148.9	45.6543	17,148.9	35.7027	17,148.9	32.92	17,148.9	34.9011	17,148.9	46.9199	17,148.9	35.4196	17,148.9	37.5509
17,752.4	89.3758	17,752.4	88.4945	17,752.4	87.9675	17,752.4	84.7065	17,752.4	84.2352	17,752.4	77.5173	17,752.4	76.2879	17,752.4	63.1627	17,752.4	68.4619	17,752.4	62.3635	17,752.4	65.9257	17,752.4	65.3035	17,752.4	65.2331	17,752.4	63.2438	17,752.4	63.5664	17,752.4	57.3864	17,752.4	59.0972	17,752.4	53.7207	17,752.4	39.7819	17,752.4	46.2149	17,752.4	63.4903	17,752.4	48.8683	17,752.4	62.0686	17,752.4	49.0413	17,752.4	26.8375	17,752.4	49.7838	17,752.4	33.8909	17,752.4	48.074	17,752.4	33.6189	17,752.4	48.2918	17,752.4	27.6262	17,752.4	35.6553	17,752.4	36.4341	17,752.4	47.7651	17,752.4	42.4509	17,752.4	40.2569
18,379.4	89.0712	18,379.4	88.0721	18,379.4	87.6772	18,379.4	84.5935	18,379.4	84.0923	18,379.4	76.9726	18,379.4	76.4951	18,379.4	63.2694	18,379.4	65.1738	18,379.4	65.2246	18,379.4	63.2157	18,379.4	67.4245	18,379.4	61.1776	18,379.4	64.2797	18,379.4	62.2923	18,379.4	58.619	18,379.4	57.7826	18,379.4	54.0207	18,379.4	41.684	18,379.4	46.2812	18,379.4	61.703	18,379.4	49.8734	18,379.4	60.5741	18,379.4	48.9079	18,379.4	29.5359	18,379.4	48.6731	18,379.4	35.1313	18,379.4	48.0003	18,379.4	34.6913	18,379.4	47.5009	18,379.4	34.5989	18,379.4	38.796	18,379.4	37.575	18,379.4	46.9457	18,379.4	44.523	18,379.4	40.601
19,026.9	88.153	19,026.9	87.2043	19,026.9	86.4945	19,026.9	83.793	19,026.9	82.751	19,026.9	74.8449	19,026.9	74.1112	19,026.9	64.3992	19,026.9	57.9571	19,026.9	68.2778	19,026.9	61.6226	19,026.9	69.2203	19,026.9	60.4159	19,026.9	64.7772	19,026.9	58.9471	19,026.9	58.9943	19,026.9	54.927	19,026.9	53.2274	19,026.9	45.6674	19,026.9	44.8179	19,026.9	58.1864	19,026.9	50.7576	19,026.9	55.7382	19,026.9	49.4605	19,026.9	40.6574	19,026.9	49.0122	19,026.9	36.5716	19,026.9	47.6826	19,026.9	37.453	19,026.9	48.4369	19,026.9	36.2255	19,026.9	42.1461	19,026.9	40.5635	19,026.9	47.473	19,026.9	46.1917	19,026.9	43.0039
19,697.8	87.2155	19,697.8	86.1364	19,697.8	85.1842	19,697.8	82.5681	19,697.8	80.8994	19,697.8	72.6913	19,697.8	70.8432	19,697.8	65.6662	19,697.8	60.3344	19,697.8	68.507	19,697.8	64.8575	19,697.8	68.8402	19,697.8	60.5828	19,697.8	63.8554	19,697.8	60.5642	19,697.8	57.5872	19,697.8	53.4971	19,697.8	51.4567	19,697.8	46.6919	19,697.8	43.1703	19,697.8	57.058	19,697.8	48.4055	19,697.8	50.9535	19,697.8	47.513	19,697.8	44.6872	19,697.8	47.4442	19,697.8	36.0401	19,697.8	46.5441	19,697.8	38.3483	19,697.8	48.1012	19,697.8	35.4761	19,697.8	43.4926	19,697.8	41.5282	19,697.8	46.1913	19,697.8	46.0118	19,697.8	43.8116
19,999.5	86.7171	19,999.5	85.6868	19,999.5	84.8968	19,999.5	81.6763	19,999.5	80.3888	19,999.5	72.5132	19,999.5	70.2025	19,999.5	67.4106	19,999.5	59.0587	19,999.5	68.8034	19,999.5	62.6015	19,999.5	66.885	19,999.5	58.5534	19,999.5	61.4133	19,999.5	58.9641	19,999.5	59.2869	19,999.5	54.9608	19,999.5	50.54	19,999.5	55.4887	19,999.5	48.23	19,999.5	55.3953	19,999.5	46.5183	19,999.5	47.0422	19,999.5	54.3029	19,999.5	47.7974	19,999.5	48.7763	19,999.5	43.3731	19,999.5	49.5632	19,999.5	44.5675	19,999.5	43.7887	19,999.5	48.6728	19,999.5	45.1423	19,999.5	49.6966	19,999.5	40.3883	19,999.5	49.909	19,999.5	50.1847
