"SPL Horizontal"
"On-Axis"		"10°"		"-10°"		"20°"		"-20°"		"30°"		"-30°"		"40°"		"-40°"		"50°"		"-50°"		"60°"		"-60°"		"70°"		"-70°"		"80°"		"-80°"		"90°"		"-90°"		"100°"		"-100°"		"110°"		"-110°"		"120°"		"-120°"		"130°"		"-130°"		"140°"		"-140°"		"150°"		"-150°"		"160°"		"-160°"		"170°"		"-170°"		"180°"
"Frequency / Hz"	"Sound Pressure Level / dB (re 20 µPa/V)  [2.83  V @ 1. m]"	"Frequency / Hz"	"Sound Pressure Level / dB (re 20 µPa/V)  [2.83  V @ 1. m]"	"Frequency / Hz"	"Sound Pressure Level / dB (re 20 µPa/V)  [2.83  V @ 1. m]"	"Frequency / Hz"	"Sound Pressure Level / dB (re 20 µPa/V)  [2.83  V @ 1. m]"	"Frequency / Hz"	"Sound Pressure Level / dB (re 20 µPa/V)  [2.83  V @ 1. m]"	"Frequency / Hz"	"Sound Pressure Level / dB (re 20 µPa/V)  [2.83  V @ 1. m]"	"Frequency / Hz"	"Sound Pressure Level / dB (re 20 µPa/V)  [2.83  V @ 1. m]"	"Frequency / Hz"	"Sound Pressure Level / dB (re 20 µPa/V)  [2.83  V @ 1. m]"	"Frequency / Hz"	"Sound Pressure Level / dB (re 20 µPa/V)  [2.83  V @ 1. m]"	"Frequency / Hz"	"Sound Pressure Level / dB (re 20 µPa/V)  [2.83  V @ 1. m]"	"Frequency / Hz"	"Sound Pressure Level / dB (re 20 µPa/V)  [2.83  V @ 1. m]"	"Frequency / Hz"	"Sound Pressure Level / dB (re 20 µPa/V)  [2.83  V @ 1. m]"	"Frequency / Hz"	"Sound Pressure Level / dB (re 20 µPa/V)  [2.83  V @ 1. m]"	"Frequency / Hz"	"Sound Pressure Level / dB (re 20 µPa/V)  [2.83  V @ 1. m]"	"Frequency / Hz"	"Sound Pressure Level / dB (re 20 µPa/V)  [2.83  V @ 1. m]"	"Frequency / Hz"	"Sound Pressure Level / dB (re 20 µPa/V)  [2.83  V @ 1. m]"	"Frequency / Hz"	"Sound Pressure Level / dB (re 20 µPa/V)  [2.83  V @ 1. m]"	"Frequency / Hz"	"Sound Pressure Level / dB (re 20 µPa/V)  [2.83  V @ 1. m]"	"Frequency / Hz"	"Sound Pressure Level / dB (re 20 µPa/V)  [2.83  V @ 1. m]"	"Frequency / Hz"	"Sound Pressure Level / dB (re 20 µPa/V)  [2.83  V @ 1. m]"	"Frequency / Hz"	"Sound Pressure Level / dB (re 20 µPa/V)  [2.83  V @ 1. m]"	"Frequency / Hz"	"Sound Pressure Level / dB (re 20 µPa/V)  [2.83  V @ 1. m]"	"Frequency / Hz"	"Sound Pressure Level / dB (re 20 µPa/V)  [2.83  V @ 1. m]"	"Frequency / Hz"	"Sound Pressure Level / dB (re 20 µPa/V)  [2.83  V @ 1. m]"	"Frequency / Hz"	"Sound Pressure Level / dB (re 20 µPa/V)  [2.83  V @ 1. m]"	"Frequency / Hz"	"Sound Pressure Level / dB (re 20 µPa/V)  [2.83  V @ 1. m]"	"Frequency / Hz"	"Sound Pressure Level / dB (re 20 µPa/V)  [2.83  V @ 1. m]"	"Frequency / Hz"	"Sound Pressure Level / dB (re 20 µPa/V)  [2.83  V @ 1. m]"	"Frequency / Hz"	"Sound Pressure Level / dB (re 20 µPa/V)  [2.83  V @ 1. m]"	"Frequency / Hz"	"Sound Pressure Level / dB (re 20 µPa/V)  [2.83  V @ 1. m]"	"Frequency / Hz"	"Sound Pressure Level / dB (re 20 µPa/V)  [2.83  V @ 1. m]"	"Frequency / Hz"	"Sound Pressure Level / dB (re 20 µPa/V)  [2.83  V @ 1. m]"	"Frequency / Hz"	"Sound Pressure Level / dB (re 20 µPa/V)  [2.83  V @ 1. m]"	"Frequency / Hz"	"Sound Pressure Level / dB (re 20 µPa/V)  [2.83  V @ 1. m]"	"Frequency / Hz"	"Sound Pressure Level / dB (re 20 µPa/V)  [2.83  V @ 1. m]"	"Frequency / Hz"	"Sound Pressure Level / dB (re 20 µPa/V)  [2.83  V @ 1. m]"
20.5078	50.8514	20.5078	50.9392	20.5078	50.3115	20.5078	50.5794	20.5078	49.2522	20.5078	49.7191	20.5078	47.5006	20.5078	48.2199	20.5078	44.6328	20.5078	45.7683	20.5078	39.3848	20.5078	41.6472	20.5078	30.8812	20.5078	36.4892	20.5078	40.8979	20.5078	41.73	20.5078	46.6634	20.5078	47.2332	20.5078	50.2742	20.5078	50.9198	20.5078	52.8846	20.5078	53.6012	20.5078	54.9109	20.5078	55.6542	20.5078	56.5418	20.5078	57.2618	20.5078	57.8695	20.5078	58.52	20.5078	58.9363	20.5078	59.4794	20.5078	59.7583	20.5078	60.1656	20.5078	60.338	20.5078	60.5899	20.5078	60.6726	20.5078	60.7578
21.9727	54.6046	21.9727	54.6816	21.9727	54.2283	21.9727	54.4588	21.9727	53.5304	21.9727	53.9122	21.9727	52.4632	21.9727	52.9886	21.9727	50.9548	21.9727	51.5957	21.9727	48.9557	21.9727	49.6066	21.9727	46.7665	21.9727	47.048	21.9727	46.0397	21.9727	45.369	21.9727	48.1093	21.9727	47.3649	21.9727	51.0489	21.9727	50.8257	21.9727	53.6487	21.9727	53.7962	21.9727	55.7749	21.9727	56.1323	21.9727	57.4976	21.9727	57.9567	21.9727	58.8858	21.9727	59.3687	21.9727	59.9848	21.9727	60.4298	21.9727	60.8198	21.9727	61.1771	21.9727	61.4028	21.9727	61.6338	21.9727	61.7362	21.9727	61.8161
23.4375	55.7088	23.4375	55.6711	23.4375	55.4726	23.4375	55.349	23.4375	54.9586	23.4375	54.7157	23.4375	54.1528	23.4375	53.7251	23.4375	53.0458	23.4375	52.3171	23.4375	51.6909	23.4375	50.4778	23.4375	50.3885	23.4375	48.5784	23.4375	49.943	23.4375	48.1597	23.4375	51.0272	23.4375	50.2008	23.4375	53.0596	23.4375	53.0185	23.4375	55.1972	23.4375	55.5387	23.4375	57.1024	23.4375	57.6028	23.4375	58.7116	23.4375	59.2564	23.4375	60.0352	23.4375	60.5569	23.4375	61.0931	23.4375	61.5454	23.4375	61.8999	23.4375	62.2483	23.4375	62.4626	23.4375	62.6821	23.4375	62.7827	23.4375	62.8577
24.9023	56.3611	24.9023	56.2682	24.9023	56.1722	24.9023	55.8825	24.9023	55.6962	24.9023	55.1749	24.9023	54.9127	24.9023	54.0986	24.9023	53.7945	24.9023	52.6041	24.9023	52.3464	24.9023	50.7442	24.9023	50.7648	24.9023	49.1368	24.9023	49.8298	24.9023	49.4194	24.9023	50.6264	24.9023	51.735	24.9023	52.7524	24.9023	54.4238	24.9023	55.0879	24.9023	56.7656	24.9023	57.1671	24.9023	58.6816	24.9023	58.9136	24.9023	60.2194	24.9023	60.3465	24.9023	61.4291	24.9023	61.4936	24.9023	62.3452	24.9023	62.3744	24.9023	62.9885	24.9023	62.9996	24.9023	63.3707	24.9023	63.3739	24.9023	63.4981
26.3672	57.7794	26.3672	57.6835	26.3672	57.6262	26.3672	57.3331	26.3672	57.2209	26.3672	56.7155	26.3672	56.5551	26.3672	55.8189	26.3672	55.6275	26.3672	54.6623	26.3672	54.4875	26.3672	53.3948	26.3672	53.3554	26.3672	52.5115	26.3672	52.7995	26.3672	52.8056	26.3672	53.4485	26.3672	54.3642	26.3672	55.111	26.3672	56.4181	26.3672	57.0825	26.3672	58.401	26.3672	58.9398	26.3672	60.1258	26.3672	60.5488	26.3672	61.5618	26.3672	61.8875	26.3672	62.7188	26.3672	62.9629	26.3672	63.6114	26.3672	63.7854	26.3672	64.2504	26.3672	64.3621	26.3672	64.6422	26.3672	64.6968	26.3672	64.7903
27.832	59.4799	27.832	59.4277	27.832	59.327	27.832	59.1717	27.832	58.9639	27.832	58.7122	27.832	58.3836	27.832	58.0554	27.832	57.5857	27.832	57.2336	27.832	56.6029	27.832	56.3513	27.832	55.5693	27.832	55.6614	27.832	54.8349	27.832	55.5644	27.832	54.9207	27.832	56.3049	27.832	55.9936	27.832	57.6673	27.832	57.6258	27.832	59.2408	27.832	59.3415	27.832	60.7501	27.832	60.9048	27.832	62.0749	27.832	62.2369	27.832	63.1741	27.832	63.3197	27.832	64.0364	27.832	64.153	27.832	64.6592	27.832	64.74	27.832	65.0417	27.832	65.0829	27.832	65.1832
29.2969	60.9552	29.2969	60.8477	29.2969	60.849	29.2969	60.5214	29.2969	60.5304	29.2969	59.9682	29.2969	59.9996	29.2969	59.184	29.2969	59.2671	29.2969	58.1916	29.2969	58.3808	29.2969	57.1047	29.2969	57.4897	29.2969	56.2537	29.2969	56.9249	29.2969	56.1996	29.2969	57.1119	29.2969	57.2104	29.2969	58.1483	29.2969	58.869	29.2969	59.6718	29.2969	60.6435	29.2969	61.2818	29.2969	62.2659	29.2969	62.7638	29.2969	63.6505	29.2969	64.0361	29.2969	64.7812	29.2969	65.0746	29.2969	65.6608	29.2969	65.8743	29.2969	66.2953	29.2969	66.4351	29.2969	66.6884	29.2969	66.7577	29.2969	66.8422
30.7617	61.7761	30.7617	61.693	30.7617	61.6746	30.7617	61.4262	30.7617	61.3893	30.7617	60.9808	30.7617	60.9253	30.7617	60.3758	30.7617	60.3038	30.7617	59.6676	30.7617	59.5877	30.7617	58.9924	30.7617	58.9289	30.7617	58.6052	30.7617	58.603	30.7617	58.8022	30.7617	58.9015	30.7617	59.6672	30.7617	59.8603	30.7617	60.974	30.7617	61.2149	30.7617	62.4179	30.7617	62.6627	30.7617	63.7972	30.7617	64.0196	30.7617	65.0148	30.7617	65.2022	30.7617	66.0308	30.7617	66.1791	30.7617	66.8303	30.7617	66.9392	30.7617	67.408	30.7617	67.479	30.7617	67.7618	30.7617	67.7967	30.7617	67.8913
32.2266	62.5844	32.2266	62.5176	32.2266	62.4774	32.2266	62.2793	32.2266	62.1982	32.2266	61.8784	32.2266	61.7557	32.2266	61.3397	32.2266	61.1785	32.2266	60.7255	32.2266	60.54	32.2266	60.1694	32.2266	59.9983	32.2266	59.8961	32.2266	59.8078	32.2266	60.1429	32.2266	60.1989	32.2266	60.9666	32.2266	61.1649	32.2266	62.1823	32.2266	62.4659	32.2266	63.5351	32.2266	63.8433	32.2266	64.8434	32.2266	65.1357	32.2266	66.0116	32.2266	66.266	32.2266	66.9956	32.2266	67.202	32.2266	67.7763	32.2266	67.9309	32.2266	68.3449	32.2266	68.4473	32.2266	68.6973	32.2266	68.7482	32.2266	68.8319
33.6914	63.6326	33.6914	63.566	33.6914	63.5482	33.6914	63.3519	33.6914	63.3165	33.6914	63.0043	33.6914	62.9522	33.6914	62.5563	33.6914	62.4921	33.6914	62.0782	33.6914	62.0145	33.6914	61.6982	33.6914	61.6615	33.6914	61.5986	33.6914	61.6274	33.6914	61.9388	33.6914	62.0612	33.6914	62.7334	33.6914	62.9423	33.6914	63.8369	33.6914	64.0964	33.6914	65.0573	33.6914	65.3281	33.6914	66.2483	33.6914	66.5018	33.6914	67.3236	33.6914	67.5432	33.6914	68.238	33.6914	68.4155	33.6914	68.9682	33.6914	69.1008	33.6914	69.5021	33.6914	69.5897	33.6914	69.8331	33.6914	69.8766	33.6914	69.9582
35.1562	64.9004	35.1562	64.8341	35.1562	64.8349	35.1562	64.6394	35.1562	64.6422	35.1562	64.3307	35.1562	64.3389	35.1562	63.9408	35.1562	63.9613	35.1562	63.5347	35.1562	63.5806	35.1562	63.2238	35.1562	63.3152	35.1562	63.1593	35.1562	63.3173	35.1562	63.4718	35.1562	63.7032	35.1562	64.1812	35.1562	64.468	35.1562	65.1778	35.1562	65.4863	35.1562	66.3005	35.1562	66.5992	35.1562	67.4144	35.1562	67.6822	35.1562	68.4328	35.1562	68.6585	35.1562	69.3062	35.1562	69.4855	35.1562	70.0076	35.1562	70.1401	35.1562	70.5221	35.1562	70.6092	35.1562	70.842	35.1562	70.8851	35.1562	70.9632
36.6211	66.2192	36.6211	66.1524	36.6211	66.167	36.6211	65.9701	36.6211	66.0012	36.6211	65.6869	36.6211	65.7384	36.6211	65.3351	36.6211	65.4137	36.6211	64.976	36.6211	65.0917	36.6211	64.7101	36.6211	64.8745	36.6211	64.6684	36.6211	64.8889	36.6211	64.9625	36.6211	65.2338	36.6211	65.6127	36.6211	65.9143	36.6211	66.53	36.6211	66.8349	36.6211	67.5752	36.6211	67.8608	36.6211	68.6245	36.6211	68.8764	36.6211	69.593	36.6211	69.804	36.6211	70.4295	36.6211	70.5971	36.6211	71.1046	36.6211	71.2288	36.6211	71.6015	36.6211	71.6834	36.6211	71.9109	36.6211	71.9515	36.6211	72.028
38.0859	66.273	38.0859	66.1918	38.0859	66.251	38.0859	66.0159	38.0859	66.1301	38.0859	65.7696	38.0859	65.9291	38.0859	65.5002	38.0859	65.6872	38.0859	65.2852	38.0859	65.4726	38.0859	65.2307	38.0859	65.3848	38.0859	65.442	38.0859	65.5341	38.0859	65.9694	38.0859	65.991	38.0859	66.7733	38.0859	66.7392	38.0859	67.749	38.0859	67.6843	38.0859	68.7811	38.0859	68.7075	38.0859	69.7789	38.0859	69.7096	38.0859	70.6823	38.0859	70.6232	38.0859	71.4537	38.0859	71.4069	38.0859	72.0705	38.0859	72.0361	38.0859	72.5182	38.0859	72.4957	38.0859	72.788	38.0859	72.7769	38.0859	72.8749
39.5508	67.614	39.5508	67.5942	39.5508	67.5638	39.5508	67.512	39.5508	67.4484	39.5508	67.3881	39.5508	67.2867	39.5508	67.2591	39.5508	67.1149	39.5508	67.1791	39.5508	66.9901	39.5508	67.2146	39.5508	66.987	39.5508	67.4289	39.5508	67.1801	39.5508	67.856	39.5508	67.612	39.5508	68.4828	39.5508	68.2685	39.5508	69.254	39.5508	69.0843	39.5508	70.0954	39.5508	69.9733	39.5508	70.9368	39.5508	70.8564	39.5508	71.7217	39.5508	71.6736	39.5508	72.409	39.5508	72.3833	39.5508	72.9697	39.5508	72.9579	39.5508	73.3836	39.5508	73.3793	39.5508	73.6373	39.5508	73.6362	39.5508	73.7226
41.0156	69.0579	41.0156	69.0417	41.0156	69.0102	41.0156	68.968	41.0156	68.9031	41.0156	68.8541	41.0156	68.7525	41.0156	68.7303	41.0156	68.589	41.0156	68.6419	41.0156	68.4603	41.0156	68.6455	41.0156	68.4296	41.0156	68.7984	41.0156	68.5632	41.0156	69.1384	41.0156	68.9064	41.0156	69.6655	41.0156	69.4597	41.0156	70.3403	41.0156	70.1761	41.0156	71.0998	41.0156	70.9812	41.0156	71.877	41.0156	71.7996	41.0156	72.6144	41.0156	72.5692	41.0156	73.2677	41.0156	73.2448	41.0156	73.805	41.0156	73.7955	41.0156	74.2036	41.0156	74.201	41.0156	74.4489	41.0156	74.4486	41.0156	74.5317
42.4805	70.0801	42.4805	70.0701	42.4805	70.0426	42.4805	70.0183	42.4805	69.9618	42.4805	69.9402	42.4805	69.8524	42.4805	69.862	42.4805	69.7411	42.4805	69.8214	42.4805	69.6683	42.4805	69.8638	42.4805	69.6845	42.4805	70.0333	42.4805	69.841	42.4805	70.3591	42.4805	70.172	42.4805	70.8421	42.4805	70.6784	42.4805	71.4529	42.4805	71.3248	42.4805	72.1415	42.4805	72.0524	42.4805	72.8516	42.4805	72.7976	42.4805	73.5316	42.4805	73.5048	42.4805	74.1393	42.4805	74.1306	42.4805	74.6429	42.4805	74.6439	42.4805	75.0189	42.4805	75.0233	42.4805	75.2518	42.4805	75.255	42.4805	75.3317
43.9453	71.306	43.9453	71.2918	43.9453	71.2711	43.9453	71.2331	43.9453	71.1914	43.9453	71.1429	43.9453	71.08	43.9453	71.044	43.9453	70.9611	43.9453	70.97	43.9453	70.8707	43.9453	70.9633	43.9453	70.8551	43.9453	71.0683	43.9453	70.9626	43.9453	71.3191	43.9453	71.2291	43.9453	71.7259	43.9453	71.6624	43.9453	72.2688	43.9453	72.2364	43.9453	72.9038	43.9453	72.8999	43.9453	73.576	43.9453	73.5932	43.9453	74.2319	43.9453	74.261	43.9453	74.8261	43.9453	74.8587	43.9453	75.3232	43.9453	75.3527	43.9453	75.6974	43.9453	75.7193	43.9453	75.9312	43.9453	75.9428	43.9453	76.0142
45.4102	72.192	45.4102	72.1689	45.4102	72.1739	45.4102	72.1094	45.4102	72.1183	45.4102	72.0271	45.4102	72.0382	45.4102	71.9455	45.4102	71.9571	45.4102	71.8981	45.4102	71.909	45.4102	71.9257	45.4102	71.9368	45.4102	72.0691	45.4102	72.0836	45.4102	72.3572	45.4102	72.3798	45.4102	72.7947	45.4102	72.8295	45.4102	73.3588	45.4102	73.4068	45.4102	74.0054	45.4102	74.0637	45.4102	74.6818	45.4102	74.7447	45.4102	75.337	45.4102	75.3983	45.4102	75.928	45.4102	75.9822	45.4102	76.4212	45.4102	76.4645	45.4102	76.7921	45.4102	76.822	45.4102	77.0241	45.4102	77.0393	45.4102	77.1076
46.875	72.9489	46.875	72.9344	46.875	72.9358	46.875	72.8971	46.875	72.8984	46.875	72.8504	46.875	72.8486	46.875	72.816	46.875	72.8072	46.875	72.8229	46.875	72.8039	46.875	72.9049	46.875	72.8737	46.875	73.0928	46.875	73.0504	46.875	73.4056	46.875	73.3559	46.875	73.8427	46.875	73.7914	46.875	74.382	46.875	74.3344	46.875	74.9858	46.875	74.9456	46.875	75.6099	46.875	75.5781	46.875	76.2109	46.875	76.1871	46.875	76.7514	46.875	76.7344	46.875	77.2013	46.875	77.1896	46.875	77.5377	46.875	77.5305	46.875	77.7451	46.875	77.7417	46.875	77.8142
48.3398	73.8116	48.3398	73.8129	48.3398	73.7908	48.3398	73.7986	48.3398	73.7537	48.3398	73.7795	48.3398	73.7104	48.3398	73.7729	48.3398	73.6788	48.3398	73.8019	48.3398	73.6834	48.3398	73.8925	48.3398	73.7532	48.3398	74.0688	48.3398	73.9162	48.3398	74.3467	48.3398	74.1913	48.3398	74.728	48.3398	74.5813	48.3398	75.1983	48.3398	75.0698	48.3398	75.7298	48.3398	75.6245	48.3398	76.2862	48.3398	76.2048	48.3398	76.8295	48.3398	76.7696	48.3398	77.3242	48.3398	77.2821	48.3398	77.7401	48.3398	77.7119	48.3398	78.0531	48.3398	78.0359	48.3398	78.2463	48.3398	78.2382	48.3398	78.3093
51.2695	75.6627	51.2695	75.6579	51.2695	75.6523	51.2695	75.6399	51.2695	75.63	51.2695	75.6158	51.2695	75.6042	51.2695	75.5981	51.2695	75.5886	51.2695	75.6041	51.2695	75.6017	51.2695	75.6548	51.2695	75.6649	51.2695	75.7721	51.2695	75.7991	51.2695	75.9738	51.2695	76.0198	51.2695	76.2683	51.2695	76.3317	51.2695	76.65	51.2695	76.7262	51.2695	77.0992	51.2695	77.1814	51.2695	77.5854	51.2695	77.6664	51.2695	78.0728	51.2695	78.1466	51.2695	78.5263	51.2695	78.5882	51.2695	78.9143	51.2695	78.9617	51.2695	79.2118	51.2695	79.2436	51.2695	79.4006	51.2695	79.4165	51.2695	79.47
52.7344	76.5893	52.7344	76.5722	52.7344	76.5889	52.7344	76.5395	52.7344	76.5737	52.7344	76.4983	52.7344	76.5512	52.7344	76.4603	52.7344	76.5335	52.7344	76.4428	52.7344	76.5372	52.7344	76.4669	52.7344	76.5823	52.7344	76.5548	52.7344	76.6888	52.7344	76.7254	52.7344	76.873	52.7344	76.9879	52.7344	77.1424	52.7344	77.3376	52.7344	77.4917	52.7344	77.7556	52.7344	77.9028	52.7344	78.2122	52.7344	78.3474	52.7344	78.673	52.7344	78.7921	52.7344	79.1038	52.7344	79.2038	52.7344	79.4747	52.7344	79.5527	52.7344	79.7614	52.7344	79.815	52.7344	79.9463	52.7344	79.9736	52.7344	80.0183
54.1992	77.3107	54.1992	77.2877	54.1992	77.3135	54.1992	77.247	54.1992	77.2988	54.1992	77.1968	54.1992	77.275	54.1992	77.1515	54.1992	77.2554	54.1992	77.1308	54.1992	77.2586	54.1992	77.159	54.1992	77.3064	54.1992	77.2602	54.1992	77.421	54.1992	77.4529	54.1992	77.6194	54.1992	77.7434	54.1992	77.9087	54.1992	78.1228	54.1992	78.2819	54.1992	78.5682	54.1992	78.7178	54.1992	79.0479	54.1992	79.1858	54.1992	79.5269	54.1992	79.6508	54.1992	79.9721	54.1992	80.0785	54.1992	80.3542	54.1992	80.4391	54.1992	80.6495	54.1992	80.709	54.1992	80.8405	54.1992	80.8711	54.1992	80.9159
55.6641	77.549	55.6641	77.514	55.6641	77.5784	55.6641	77.4783	55.6641	77.6035	55.6641	77.4528	55.6641	77.6312	55.6641	77.4537	55.6641	77.6739	55.6641	77.501	55.6641	77.7476	55.6641	77.6154	55.6641	77.8708	55.6641	77.8131	55.6641	78.0603	55.6641	78.1017	55.6641	78.327	55.6641	78.4768	55.6641	78.6726	55.6641	78.9222	55.6641	79.087	55.6641	79.413	55.6641	79.5494	55.6641	79.9196	55.6641	80.0319	55.6641	80.4115	55.6641	80.5032	55.6641	80.8599	55.6641	80.9331	55.6641	81.2393	55.6641	81.2948	55.6641	81.5288	55.6641	81.5663	55.6641	81.7129	55.6641	81.7318	55.6641	81.7817
58.5938	78.5824	58.5938	78.6041	58.5938	78.576	58.5938	78.6426	58.5938	78.5867	58.5938	78.702	58.5938	78.6197	58.5938	78.789	58.5938	78.6827	58.5938	78.9118	58.5938	78.7855	58.5938	79.0784	58.5938	78.9378	58.5938	79.2957	58.5938	79.1477	58.5938	79.5666	58.5938	79.4187	58.5938	79.8891	58.5938	79.7483	58.5938	80.2548	58.5938	80.1268	58.5938	80.6494	58.5938	80.5378	58.5938	81.0539	58.5938	80.9605	58.5938	81.4465	58.5938	81.3714	58.5938	81.8045	58.5938	81.7468	58.5938	82.1069	58.5938	82.0652	58.5938	82.3354	58.5938	82.3083	58.5938	82.4758	58.5938	82.4625	58.5938	82.5192
60.0586	79.2635	60.0586	79.2737	60.0586	79.2702	60.0586	79.3019	60.0586	79.295	60.0586	79.3515	60.0586	79.3415	60.0586	79.4278	60.0586	79.4151	60.0586	79.5372	60.0586	79.5225	60.0586	79.6865	60.0586	79.6707	60.0586	79.8808	60.0586	79.8653	60.0586	80.1227	60.0586	80.1088	60.0586	80.4103	60.0586	80.3994	60.0586	80.7364	60.0586	80.7298	60.0586	81.089	60.0586	81.0874	60.0586	81.4516	60.0586	81.4551	60.0586	81.8055	60.0586	81.8132	60.0586	82.1306	60.0586	82.1407	60.0586	82.4078	60.0586	82.4183	60.0586	82.6203	60.0586	82.6288	60.0586	82.7546	60.0586	82.7594	60.0586	82.8021
62.9883	80.5446	62.9883	80.5509	62.9883	80.5553	62.9883	80.5748	62.9883	80.584	62.9883	80.6184	62.9883	80.6334	62.9883	80.685	62.9883	80.707	62.9883	80.779	62.9883	80.8091	62.9883	80.9051	62.9883	80.944	62.9883	81.0673	62.9883	81.1153	62.9883	81.2682	62.9883	81.3244	62.9883	81.5071	62.9883	81.5701	62.9883	81.7798	62.9883	81.8475	62.9883	82.078	62.9883	82.1475	62.9883	82.389	62.9883	82.4575	62.9883	82.6973	62.9883	82.7614	62.9883	82.9851	62.9883	83.0416	62.9883	83.2346	62.9883	83.2803	62.9883	83.4292	62.9883	83.4613	62.9883	83.5554	62.9883	83.5719	62.9883	83.6041
64.4531	81.0993	64.4531	81.099	64.4531	81.1175	64.4531	81.1173	64.4531	81.1541	64.4531	81.1561	64.4531	81.2106	64.4531	81.2183	64.4531	81.2896	64.4531	81.3075	64.4531	81.394	64.4531	81.4276	64.4531	81.527	64.4531	81.5818	64.4531	81.691	64.4531	81.7719	64.4531	81.8872	64.4531	81.9972	64.4531	82.1147	64.4531	82.2538	64.4531	82.3695	64.4531	82.5341	64.4531	82.6441	64.4531	82.8266	64.4531	82.9278	64.4531	83.1169	64.4531	83.2063	64.4531	83.3886	64.4531	83.4637	64.4531	83.6249	64.4531	83.6834	64.4531	83.8099	64.4531	83.85	64.4531	83.9307	64.4531	83.9511	64.4531	83.9788
67.3828	82.0124	67.3828	82.0156	67.3828	82.0292	67.3828	82.0392	67.3828	82.0658	67.3828	82.0844	67.3828	82.1231	67.3828	82.1529	67.3828	82.2021	67.3828	82.2465	67.3828	82.3043	67.3828	82.367	67.3828	82.4314	67.3828	82.5159	67.3828	82.5845	67.3828	82.6934	67.3828	82.7639	67.3828	82.8982	67.3828	82.9683	67.3828	83.127	67.3828	83.1945	67.3828	83.3735	67.3828	83.4364	67.3828	83.6286	67.3828	83.6854	67.3828	83.8807	67.3828	83.9299	67.3828	84.1161	67.3828	84.1567	67.3828	84.3202	67.3828	84.3513	67.3828	84.4793	67.3828	84.5004	67.3828	84.582	67.3828	84.5926	67.3828	84.6207
68.8477	82.3826	68.8477	82.3865	68.8477	82.3994	68.8477	82.4116	68.8477	82.437	68.8477	82.4586	68.8477	82.4957	68.8477	82.5286	68.8477	82.5762	68.8477	82.6227	68.8477	82.6794	68.8477	82.742	68.8477	82.806	68.8477	82.8872	68.8477	82.9566	68.8477	83.0583	68.8477	83.1309	68.8477	83.2537	68.8477	83.3273	68.8477	83.4703	68.8477	83.5425	68.8477	83.7025	68.8477	83.771	68.8477	83.9422	68.8477	84.0049	68.8477	84.1788	68.8477	84.2339	68.8477	84.3999	68.8477	84.4457	68.8477	84.5919	68.8477	84.6273	68.8477	84.742	68.8477	84.7661	68.8477	84.8394	68.8477	84.8516	68.8477	84.8768
71.7773	83.1477	71.7773	83.1523	71.7773	83.1658	71.7773	83.1798	71.7773	83.2066	71.7773	83.2301	71.7773	83.2695	71.7773	83.3032	71.7773	83.3542	71.7773	83.3988	71.7773	83.4601	71.7773	83.5165	71.7773	83.5864	71.7773	83.6556	71.7773	83.732	71.7773	83.8151	71.7773	83.8955	71.7773	83.993	71.7773	84.0748	71.7773	84.1864	71.7773	84.2668	71.7773	84.3907	71.7773	84.4671	71.7773	84.5996	71.7773	84.6696	71.7773	84.8047	71.7773	84.8663	71.7773	84.996	71.7773	85.0475	71.7773	85.1625	71.7773	85.2024	71.7773	85.2931	71.7773	85.3205	71.7773	85.3787	71.7773	85.3925	71.7773	85.4126
74.707	83.9525	74.707	83.9584	74.707	83.9706	74.707	83.988	74.707	84.0123	74.707	84.0407	74.707	84.0766	74.707	84.1153	74.707	84.1623	74.707	84.2104	74.707	84.2675	74.707	84.3243	74.707	84.3902	74.707	84.4552	74.707	84.5279	74.707	84.601	74.707	84.6784	74.707	84.7596	74.707	84.839	74.707	84.9281	74.707	85.0068	74.707	85.1029	74.707	85.1783	74.707	85.2792	74.707	85.3487	74.707	85.451	74.707	85.5123	74.707	85.6105	74.707	85.6619	74.707	85.7493	74.707	85.7891	74.707	85.8584	74.707	85.8857	74.707	85.9304	74.707	85.9442	74.707	85.9596
77.6367	84.5129	77.6367	84.5197	77.6367	84.5312	77.6367	84.5511	77.6367	84.574	77.6367	84.6061	77.6367	84.6398	77.6367	84.6826	77.6367	84.7265	77.6367	84.7783	77.6367	84.8312	77.6367	84.8903	77.6367	84.9509	77.6367	85.0157	77.6367	85.0821	77.6367	85.1515	77.6367	85.2217	77.6367	85.2949	77.6367	85.3665	77.6367	85.4431	77.6367	85.5136	77.6367	85.593	77.6367	85.6599	77.6367	85.741	77.6367	85.8023	77.6367	85.8829	77.6367	85.9365	77.6367	86.0132	77.6367	86.0577	77.6367	86.1258	77.6367	86.16	77.6367	86.214	77.6367	86.2373	77.6367	86.2722	77.6367	86.2839	77.6367	86.296
79.1016	84.7272	79.1016	84.7342	79.1016	84.7457	79.1016	84.7663	79.1016	84.7889	79.1016	84.8221	79.1016	84.8554	79.1016	84.8993	79.1016	84.9425	79.1016	84.9949	79.1016	85.0469	79.1016	85.1058	79.1016	85.1651	79.1016	85.2284	79.1016	85.2932	79.1016	85.3594	79.1016	85.4276	79.1016	85.4959	79.1016	85.5651	79.1016	85.6349	79.1016	85.7028	79.1016	85.7737	79.1016	85.838	79.1016	85.9093	79.1016	85.9678	79.1016	86.0381	79.1016	86.0891	79.1016	86.1558	79.1016	86.198	79.1016	86.2572	79.1016	86.2896	79.1016	86.3366	79.1016	86.3585	79.1016	86.3889	79.1016	86.4	79.1016	86.4106
82.0312	85.2537	82.0312	85.2641	82.0312	85.2695	82.0312	85.3	82.0312	85.3107	82.0312	85.3596	82.0312	85.3754	82.0312	85.4401	82.0312	85.4606	82.0312	85.5375	82.0312	85.5623	82.0312	85.6478	82.0312	85.6763	82.0312	85.7667	82.0312	85.7981	82.0312	85.8901	82.0312	85.9236	82.0312	86.0146	82.0312	86.049	82.0312	86.1372	82.0312	86.1714	82.0312	86.2557	82.0312	86.2885	82.0312	86.368	82.0312	86.3982	82.0312	86.4718	82.0312	86.4986	82.0312	86.5647	82.0312	86.5872	82.0312	86.6434	82.0312	86.661	82.0312	86.7043	82.0312	86.7164	82.0312	86.7439	82.0312	86.7501	82.0312	86.7595
84.9609	85.6847	84.9609	85.6908	84.9609	85.707	84.9609	85.7244	84.9609	85.7567	84.9609	85.7835	84.9609	85.8313	84.9609	85.8645	84.9609	85.927	84.9609	85.9629	84.9609	86.0391	84.9609	86.0738	84.9609	86.1621	84.9609	86.1922	84.9609	86.2906	84.9609	86.3135	84.9609	86.4195	84.9609	86.4339	84.9609	86.5444	84.9609	86.5503	84.9609	86.6618	84.9609	86.6605	84.9609	86.7693	84.9609	86.7632	84.9609	86.8653	84.9609	86.8569	84.9609	86.9487	84.9609	86.9403	84.9609	87.0184	84.9609	87.0115	84.9609	87.0729	84.9609	87.0682	84.9609	87.1106	84.9609	87.1079	84.9609	87.1296	84.9609	87.1287
87.8906	85.9683	87.8906	85.9803	87.8906	85.9846	87.8906	86.02	87.8906	86.0285	87.8906	86.0847	87.8906	86.0973	87.8906	86.1706	87.8906	86.1869	87.8906	86.2727	87.8906	86.2922	87.8906	86.3853	87.8906	86.4074	87.8906	86.5029	87.8906	86.5264	87.8906	86.62	87.8906	86.6437	87.8906	86.7321	87.8906	86.7545	87.8906	86.8356	87.8906	86.8552	87.8906	86.9279	87.8906	86.9437	87.8906	87.0077	87.8906	87.019	87.8906	87.0744	87.8906	87.0813	87.8906	87.1283	87.8906	87.1314	87.8906	87.1695	87.8906	87.1701	87.8906	87.1985	87.8906	87.1979	87.8906	87.2156	87.8906	87.215	87.8906	87.2209
90.8203	86.2722	90.8203	86.2927	90.8203	86.2794	90.8203	86.3397	90.8203	86.3136	90.8203	86.4102	90.8203	86.3725	90.8203	86.4996	90.8203	86.452	90.8203	86.6024	90.8203	86.5467	90.8203	86.7123	90.8203	86.6504	90.8203	86.8231	90.8203	86.7569	90.8203	86.9287	90.8203	86.86	90.8203	87.0242	90.8203	86.9548	90.8203	87.1059	90.8203	87.0375	90.8203	87.1715	90.8203	87.1058	90.8203	87.2205	90.8203	87.1596	90.8203	87.2542	90.8203	87.1998	90.8203	87.2747	90.8203	87.2287	90.8203	87.285	90.8203	87.2491	90.8203	87.288	90.8203	87.2634	90.8203	87.2863	90.8203	87.2738	90.8203	87.2814
95.2148	86.8167	95.2148	86.8361	95.2148	86.8229	95.2148	86.8799	95.2148	86.8539	95.2148	86.9452	95.2148	86.9069	95.2148	87.0273	95.2148	86.9777	95.2148	87.1204	95.2148	87.0609	95.2148	87.2179	95.2148	87.1503	95.2148	87.3131	95.2148	87.2399	95.2148	87.3997	95.2148	87.3238	95.2148	87.4725	95.2148	87.3972	95.2148	87.528	95.2148	87.4566	95.2148	87.5648	95.2148	87.5	95.2148	87.5834	95.2148	87.5274	95.2148	87.5865	95.2148	87.5405	95.2148	87.5783	95.2148	87.5428	95.2148	87.5641	95.2148	87.5386	95.2148	87.5487	95.2148	87.5324	95.2148	87.5362	95.2148	87.5284	95.2148	87.5293
98.1445	87.0295	98.1445	87.0346	98.1445	87.0481	98.1445	87.0627	98.1445	87.0893	98.1445	87.1112	98.1445	87.1499	98.1445	87.1759	98.1445	87.2254	98.1445	87.2511	98.1445	87.3102	98.1445	87.3306	98.1445	87.3979	98.1445	87.4076	98.1445	87.4818	98.1445	87.4759	98.1445	87.5556	98.1445	87.5302	98.1445	87.614	98.1445	87.567	98.1445	87.6531	98.1445	87.5848	98.1445	87.671	98.1445	87.5847	98.1445	87.6682	98.1445	87.5701	98.1445	87.6475	98.1445	87.5464	98.1445	87.6142	98.1445	87.5203	98.1445	87.575	98.1445	87.4988	98.1445	87.5372	98.1445	87.4875	98.1445	87.5073	98.1445	87.4901
101.074	87.0197	101.074	87.0309	101.074	87.0354	101.074	87.0679	101.074	87.0768	101.074	87.1274	101.074	87.1403	101.074	87.2042	101.074	87.2205	101.074	87.2916	101.074	87.3107	101.074	87.3819	101.074	87.4033	101.074	87.4671	101.074	87.4903	101.074	87.5401	101.074	87.5646	101.074	87.5947	101.074	87.6203	101.074	87.6267	101.074	87.6533	101.074	87.6346	101.074	87.6622	101.074	87.6199	101.074	87.648	101.074	87.5869	101.074	87.6148	101.074	87.5428	101.074	87.5689	101.074	87.4962	101.074	87.5186	101.074	87.4563	101.074	87.4728	101.074	87.4308	101.074	87.4396	101.074	87.4248
105.469	87.2492	105.469	87.2639	105.469	87.2608	105.469	87.3037	105.469	87.2981	105.469	87.365	105.469	87.358	105.469	87.4426	105.469	87.4355	105.469	87.5296	105.469	87.524	105.469	87.6183	105.469	87.6156	105.469	87.7006	105.469	87.702	105.469	87.7688	105.469	87.7749	105.469	87.8165	105.469	87.8273	105.469	87.8391	105.469	87.8541	105.469	87.8351	105.469	87.8532	105.469	87.8058	105.469	87.8254	105.469	87.7561	105.469	87.7755	105.469	87.6943	105.469	87.7115	105.469	87.6303	105.469	87.644	105.469	87.5751	105.469	87.5844	105.469	87.5383	105.469	87.543	105.469	87.5268
108.398	87.4251	108.398	87.4379	108.398	87.4376	108.398	87.4746	108.398	87.4745	108.398	87.5319	108.398	87.5328	108.398	87.6045	108.398	87.6076	108.398	87.6859	108.398	87.6924	108.398	87.7684	108.398	87.7794	108.398	87.8442	108.398	87.8606	108.398	87.9059	108.398	87.928	108.398	87.9475	108.398	87.9749	108.398	87.9649	108.398	87.9965	108.398	87.9567	108.398	87.9907	108.398	87.9246	108.398	87.9587	108.398	87.8735	108.398	87.9053	108.398	87.8112	108.398	87.8386	108.398	87.7475	108.398	87.7689	108.398	87.6931	108.398	87.7076	108.398	87.6575	108.398	87.6647	108.398	87.6472
112.793	87.6256	112.793	87.6299	112.793	87.6447	112.793	87.6565	112.793	87.6863	112.793	87.7024	112.793	87.7478	112.793	87.7634	112.793	87.8245	112.793	87.8333	112.793	87.9102	112.793	87.9054	112.793	87.9971	112.793	87.9723	112.793	88.0767	112.793	88.0267	112.793	88.1409	112.793	88.0621	112.793	88.182	112.793	88.0738	112.793	88.1947	112.793	88.0598	112.793	88.1763	112.793	88.0209	112.793	88.1281	112.793	87.9619	112.793	88.0553	112.793	87.8908	112.793	87.9671	112.793	87.8186	112.793	87.876	112.793	87.7574	112.793	87.7954	112.793	87.7188	112.793	87.7376	112.793	87.7112
117.188	87.6638	117.188	87.6811	117.188	87.6672	117.188	87.7179	117.188	87.691	117.188	87.7714	117.188	87.7327	117.188	87.8369	117.188	87.7884	117.188	87.9086	117.188	87.8524	117.188	87.9794	117.188	87.9179	117.188	88.0422	117.188	87.9772	117.188	88.0895	117.188	88.0225	117.188	88.1152	117.188	88.0471	117.188	88.1146	117.188	88.0459	117.188	88.0854	117.188	88.0167	117.188	88.0286	117.188	87.9612	117.188	87.9489	117.188	87.8847	117.188	87.8549	117.188	87.7969	117.188	87.7582	117.188	87.7102	117.188	87.6727	117.188	87.6382	117.188	87.6112	117.188	87.5931	117.188	87.5833
120.117	87.6885	120.117	87.6983	120.117	87.6991	120.117	87.7279	120.117	87.7289	120.117	87.7745	120.117	87.775	120.117	87.8337	120.117	87.8325	120.117	87.8992	120.117	87.8954	120.117	87.9636	120.117	87.9562	120.117	88.0186	120.117	88.0073	120.117	88.0563	120.117	88.041	120.117	88.0695	120.117	88.0507	120.117	88.0533	120.117	88.032	120.117	88.0056	120.117	87.9833	120.117	87.9282	120.117	87.9065	120.117	87.8272	120.117	87.8079	120.117	87.7132	120.117	87.6975	120.117	87.6003	120.117	87.5888	120.117	87.5039	120.117	87.4967	120.117	87.4386	120.117	87.4352	120.117	87.4146
124.512	87.8432	124.512	87.8616	124.512	87.8453	124.512	87.8995	124.512	87.8669	124.512	87.9541	124.512	87.9051	124.512	88.0205	124.512	87.9556	124.512	88.092	124.512	88.0125	124.512	88.1605	124.512	88.0685	124.512	88.2173	124.512	88.1158	124.512	88.2534	124.512	88.1463	124.512	88.2611	124.512	88.153	124.512	88.2351	124.512	88.1304	124.512	88.173	124.512	88.0763	124.512	88.0772	124.512	87.9922	124.512	87.9548	124.512	87.884	124.512	87.818	124.512	87.7627	124.512	87.6828	124.512	87.643	124.512	87.5672	124.512	87.5418	124.512	87.4877	124.512	87.4754	124.512	87.4558
128.906	87.8584	128.906	87.8738	128.906	87.8631	128.906	87.9086	128.906	87.8867	128.906	87.9601	128.906	87.9262	128.906	88.0238	128.906	87.9769	128.906	88.0929	128.906	88.0324	128.906	88.1593	128.906	88.0853	128.906	88.2139	128.906	88.1273	128.906	88.2472	128.906	88.1499	128.906	88.2512	128.906	88.1459	128.906	88.2197	128.906	88.1101	128.906	88.1502	128.906	88.0404	128.906	88.0446	128.906	87.9391	128.906	87.9101	128.906	87.8134	128.906	87.7591	128.906	87.6757	128.906	87.6088	128.906	87.5425	128.906	87.4784	128.906	87.4323	128.906	87.3863	128.906	87.3627	128.906	87.3459
133.301	87.9179	133.301	87.9251	133.301	87.9286	133.301	87.9498	133.301	87.9558	133.301	87.9896	133.301	87.9964	133.301	88.0401	133.301	88.0454	133.301	88.0953	133.301	88.0964	133.301	88.1472	133.301	88.1415	133.301	88.1871	133.301	88.1722	133.301	88.206	133.301	88.1801	133.301	88.1959	133.301	88.1581	133.301	88.1507	133.301	88.1011	133.301	88.0679	133.301	88.008	133.301	87.9492	133.301	87.8819	133.301	87.802	133.301	87.7317	133.301	87.6388	133.301	87.5712	133.301	87.4773	133.301	87.4186	133.301	87.3374	133.301	87.294	133.301	87.2388	133.301	87.2157	133.301	87.1961
139.16	87.4466	139.16	87.4472	139.16	87.4701	139.16	87.4716	139.16	87.5163	139.16	87.5177	139.16	87.5819	139.16	87.5809	139.16	87.6619	139.16	87.6549	139.16	87.7493	139.16	87.7311	139.16	87.8358	139.16	87.7999	139.16	87.9118	139.16	87.8517	139.16	87.9679	139.16	87.8776	139.16	87.9954	139.16	87.8714	139.16	87.9879	139.16	87.8304	139.16	87.9423	139.16	87.7564	139.16	87.8605	139.16	87.6562	139.16	87.7491	139.16	87.5416	139.16	87.6202	139.16	87.4281	139.16	87.4897	139.16	87.3331	139.16	87.3756	139.16	87.2729	139.16	87.2945	139.16	87.2587
143.555	87.4732	143.555	87.4679	143.555	87.4937	143.555	87.4781	143.555	87.5286	143.555	87.5033	143.555	87.5763	143.555	87.5415	143.555	87.6338	143.555	87.5892	143.555	87.6965	143.555	87.6407	143.555	87.7579	143.555	87.6884	143.555	87.8099	143.555	87.7238	143.555	87.8438	143.555	87.7387	143.555	87.8514	143.555	87.7263	143.555	87.8265	143.555	87.683	143.555	87.7669	143.555	87.6091	143.555	87.6745	143.555	87.5099	143.555	87.5569	143.555	87.3955	143.555	87.426	143.555	87.2802	143.555	87.2977	143.555	87.1807	143.555	87.1893	143.555	87.1133	143.555	87.1166	143.555	87.0901
147.949	87.6372	147.949	87.6372	147.949	87.6443	147.949	87.6437	147.949	87.6586	147.949	87.6557	147.949	87.6797	147.949	87.6712	147.949	87.706	147.949	87.6869	147.949	87.7344	147.949	87.6981	147.949	87.7601	147.949	87.6984	147.949	87.7762	147.949	87.6805	147.949	87.7748	147.949	87.6373	147.949	87.7475	147.949	87.5632	147.949	87.6875	147.949	87.456	147.949	87.5911	147.949	87.3179	147.949	87.4586	147.949	87.1572	147.949	87.2966	147.949	86.9881	147.949	87.1174	147.949	86.8297	147.949	86.939	147.949	86.7029	147.949	86.7826	147.949	86.627	147.949	86.6691	147.949	86.6147
153.809	87.4935	153.809	87.5108	153.809	87.4837	153.809	87.5352	153.809	87.4815	153.809	87.565	153.809	87.4861	153.809	87.5973	153.809	87.4958	153.809	87.6273	153.809	87.5081	153.809	87.6487	153.809	87.5182	153.809	87.6538	153.809	87.5202	153.809	87.6344	153.809	87.5066	153.809	87.5832	153.809	87.4697	153.809	87.4949	153.809	87.4027	153.809	87.3682	153.809	87.3015	153.809	87.2069	153.809	87.1664	153.809	87.0206	153.809	87.0033	153.809	86.8249	153.809	86.8251	153.809	86.64	153.809	86.65	153.809	86.4883	153.809	86.5003	153.809	86.3898	153.809	86.3976	153.809	86.3583
159.668	87.4762	159.668	87.4752	159.668	87.4836	159.668	87.4807	159.668	87.4964	159.668	87.4922	159.668	87.5135	159.668	87.5078	159.668	87.5325	159.668	87.5243	159.668	87.5498	159.668	87.5362	159.668	87.5605	159.668	87.5369	159.668	87.5579	159.668	87.5188	159.668	87.5347	159.668	87.4744	159.668	87.4842	159.668	87.3983	159.668	87.4016	159.668	87.2882	159.668	87.2856	159.668	87.1467	159.668	87.1396	159.668	86.9818	159.668	86.9724	159.668	86.8072	159.668	86.7978	159.668	86.641	159.668	86.6333	159.668	86.5031	159.668	86.4979	159.668	86.4114	159.668	86.4089	159.668	86.3786
165.527	87.6296	165.527	87.6362	165.527	87.6286	165.527	87.6484	165.527	87.6332	165.527	87.6656	165.527	87.643	165.527	87.6861	165.527	87.6569	165.527	87.7061	165.527	87.6727	165.527	87.7201	165.527	87.6863	165.527	87.7203	165.527	87.6916	165.527	87.6985	165.527	87.6808	165.527	87.6468	165.527	87.6458	165.527	87.5599	165.527	87.5792	165.527	87.4364	165.527	87.4767	165.527	87.2804	165.527	87.3388	165.527	87.1019	165.527	87.1724	165.527	86.9165	165.527	86.9906	165.527	86.7444	165.527	86.8122	165.527	86.6066	165.527	86.6585	165.527	86.5219	165.527	86.55	165.527	86.502
171.387	87.3224	171.387	87.3216	171.387	87.3269	171.387	87.325	171.387	87.335	171.387	87.333	171.387	87.3468	171.387	87.3454	171.387	87.3616	171.387	87.3603	171.387	87.3779	171.387	87.3736	171.387	87.3921	171.387	87.3784	171.387	87.3988	171.387	87.3666	171.387	87.3908	171.387	87.3294	171.387	87.3601	171.387	87.2603	171.387	87.2996	171.387	87.1563	171.387	87.2048	171.387	87.0203	171.387	87.0761	171.387	86.8611	171.387	86.92	171.387	86.6932	171.387	86.7496	171.387	86.5354	171.387	86.5834	171.387	86.4074	171.387	86.442	171.387	86.3263	171.387	86.3445	171.387	86.3041
177.246	87.087	177.246	87.0839	177.246	87.0914	177.246	87.0832	177.246	87.0968	177.246	87.0865	177.246	87.1032	177.246	87.0942	177.246	87.1105	177.246	87.1054	177.246	87.1176	177.246	87.1164	177.246	87.1213	177.246	87.1209	177.246	87.1166	177.246	87.1107	177.246	87.0963	177.246	87.0771	177.246	87.053	177.246	87.0125	177.246	86.9805	177.246	86.9127	177.246	86.8754	177.246	86.7785	177.246	86.7393	177.246	86.6173	177.246	86.5798	177.246	86.443	177.246	86.4102	177.246	86.2746	177.246	86.2489	177.246	86.133	177.246	86.1156	177.246	86.0375	177.246	86.0288	177.246	86.0012
183.105	87.0503	183.105	87.0464	183.105	87.0483	183.105	87.0375	183.105	87.0408	183.105	87.0256	183.105	87.0292	183.105	87.0129	183.105	87.0149	183.105	87.0004	183.105	86.9984	183.105	86.9868	183.105	86.9777	183.105	86.9682	183.105	86.949	183.105	86.9382	183.105	86.9062	183.105	86.8897	183.105	86.8429	183.105	86.8162	183.105	86.7543	183.105	86.714	183.105	86.6381	183.105	86.584	183.105	86.4973	183.105	86.432	183.105	86.3399	183.105	86.2695	183.105	86.1793	183.105	86.1121	183.105	86.0326	183.105	85.9773	183.105	85.9176	183.105	85.8812	183.105	85.8491	183.105	85.8365
188.965	86.8648	188.965	86.8706	188.965	86.8493	188.965	86.8676	188.965	86.8249	188.965	86.8577	188.965	86.7937	188.965	86.8437	188.965	86.7581	188.965	86.8269	188.965	86.7197	188.965	86.8067	188.965	86.6782	188.965	86.7793	188.965	86.6307	188.965	86.7378	188.965	86.5721	188.965	86.6742	188.965	86.4972	188.965	86.5821	188.965	86.402	188.965	86.4589	188.965	86.2857	188.965	86.3086	188.965	86.1523	188.965	86.1413	188.965	86.0099	188.965	85.9723	188.965	85.87	188.965	85.8185	188.965	85.7456	188.965	85.6951	188.965	85.6493	188.965	85.613	188.965	85.5912	188.965	85.5781
196.289	87.1264	196.289	87.129	196.289	87.1116	196.289	87.1191	196.289	87.0853	196.289	87.0975	196.289	87.0492	196.289	87.0652	196.289	87.0054	196.289	87.0224	196.289	86.9553	196.289	86.9682	196.289	86.8986	196.289	86.8994	196.289	86.833	196.289	86.8112	196.289	86.7533	196.289	86.6983	196.289	86.6529	196.289	86.5568	196.289	86.5261	196.289	86.3871	196.289	86.3706	196.289	86.1954	196.289	86.1903	196.289	85.9941	196.289	85.9963	196.289	85.7999	196.289	85.8052	196.289	85.6304	196.289	85.6358	196.289	85.5003	196.289	85.5042	196.289	85.4195	196.289	85.4215	196.289	85.3927
203.613	86.9741	203.613	86.9649	203.613	86.9698	203.613	86.9431	203.613	86.9521	203.613	86.9107	203.613	86.922	203.613	86.8699	203.613	86.8802	203.613	86.8224	203.613	86.8267	203.613	86.7677	203.613	86.7604	203.613	86.7026	203.613	86.6787	203.613	86.6213	203.613	86.5776	203.613	86.5164	203.613	86.4527	203.613	86.3813	203.613	86.3008	203.613	86.2128	203.613	86.1211	203.613	86.0139	203.613	85.9183	203.613	85.7951	203.613	85.7032	203.613	85.5736	203.613	85.4924	203.613	85.3708	203.613	85.3057	203.613	85.2072	203.613	85.1619	203.613	85.0982	203.613	85.075	203.613	85.0531
210.938	86.8376	210.938	86.8258	210.938	86.8276	210.938	86.7922	210.938	86.7984	210.938	86.7394	210.938	86.7542	210.938	86.6715	210.938	86.7	210.938	86.593	210.938	86.6393	210.938	86.5065	210.938	86.5728	210.938	86.4116	210.938	86.4983	210.938	86.3036	210.938	86.4108	210.938	86.1757	210.938	86.3046	210.938	86.0222	210.938	86.1749	210.938	85.8426	210.938	86.0194	210.938	85.6443	210.938	85.8405	210.938	85.4419	210.938	85.6455	210.938	85.2539	210.938	85.4469	210.938	85.0984	210.938	85.2614	210.938	84.9892	210.938	85.1059	210.938	84.9339	210.938	84.9944	210.938	84.9358
218.262	86.7724	218.262	86.7645	218.262	86.7605	218.262	86.7394	218.262	86.7285	218.262	86.701	218.262	86.6793	218.262	86.6532	218.262	86.6174	218.262	86.5989	218.262	86.5478	218.262	86.5388	218.262	86.473	218.262	86.4705	218.262	86.3915	218.262	86.3884	218.262	86.2984	218.262	86.284	218.262	86.1875	218.262	86.1492	218.262	86.0547	218.262	85.9802	218.262	85.9005	218.262	85.7809	218.262	85.7303	218.262	85.5645	218.262	85.5535	218.262	85.3523	218.262	85.3808	218.262	85.1685	218.262	85.2232	218.262	85.0338	218.262	85.0915	218.262	84.9601	218.262	84.9966	218.262	84.9495
225.586	86.6477	225.586	86.6339	225.586	86.6343	225.586	86.5961	225.586	86.593	225.586	86.5392	225.586	86.5263	225.586	86.469	225.586	86.4391	225.586	86.3909	225.586	86.3377	225.586	86.3092	225.586	86.2276	225.586	86.2261	225.586	86.1115	225.586	86.1401	225.586	85.9885	225.586	86.0457	225.586	85.8552	225.586	85.9354	225.586	85.7087	225.586	85.8026	225.586	85.5499	225.586	85.646	225.586	85.3859	225.586	85.4719	225.586	85.2286	225.586	85.2942	225.586	85.0912	225.586	85.1309	225.586	84.9828	225.586	84.9993	225.586	84.9081	225.586	84.9107	225.586	84.869	225.586	84.8683
232.91	86.5783	232.91	86.5645	232.91	86.5588	232.91	86.5201	232.91	86.5063	232.91	86.4504	232.91	86.4243	232.91	86.3617	232.91	86.3185	232.91	86.2605	232.91	86.1952	232.91	86.1519	232.91	86.0598	232.91	86.0393	232.91	85.9154	232.91	85.9234	232.91	85.7623	232.91	85.8021	232.91	85.5993	232.91	85.6712	232.91	85.4258	232.91	85.5261	232.91	85.2445	232.91	85.3659	232.91	85.0643	232.91	85.1962	232.91	84.899	232.91	85.0293	232.91	84.7637	232.91	84.88	232.91	84.669	232.91	84.7602	232.91	84.617	232.91	84.675	232.91	84.6036	232.91	84.6235
241.699	86.4556	241.699	86.4372	241.699	86.4386	241.699	86.3866	241.699	86.3856	241.699	86.3092	241.699	86.2995	241.699	86.2109	241.699	86.1853	241.699	86.096	241.699	86.0496	241.699	85.9662	241.699	85.898	241.699	85.8213	241.699	85.7343	241.699	85.6607	241.699	85.5583	241.699	85.4853	241.699	85.3675	241.699	85.2978	241.699	85.1592	241.699	85.1019	241.699	84.9356	241.699	84.9026	241.699	84.7065	241.699	84.707	241.699	84.4902	241.699	84.5254	241.699	84.3086	241.699	84.3691	241.699	84.1786	241.699	84.246	241.699	84.1058	241.699	84.1582	241.699	84.0844	241.699	84.1041
250.488	86.4858	250.488	86.4417	250.488	86.4806	250.488	86.351	250.488	86.4274	250.488	86.2203	250.488	86.3302	250.488	86.0601	250.488	86.1954	250.488	85.8826	250.488	86.0308	250.488	85.6985	250.488	85.8449	250.488	85.5137	250.488	85.6458	250.488	85.3292	250.488	85.44	250.488	85.1431	250.488	85.2317	250.488	84.9546	250.488	85.0233	250.488	84.7659	250.488	84.8171	250.488	84.582	250.488	84.6183	250.488	84.4087	250.488	84.4348	250.488	84.253	250.488	84.2758	250.488	84.1234	250.488	84.1478	250.488	84.0288	250.488	84.0531	250.488	83.9755	250.488	83.9914	250.488	83.9642
259.277	86.6011	259.277	86.5721	259.277	86.5993	259.277	86.5147	259.277	86.5648	259.277	86.4313	259.277	86.4977	259.277	86.3231	259.277	86.4002	259.277	86.1898	259.277	86.2756	259.277	86.0293	259.277	86.1271	259.277	85.8388	259.277	85.9561	259.277	85.6155	259.277	85.7613	259.277	85.3594	259.277	85.5405	259.277	85.077	259.277	85.293	259.277	84.7839	259.277	85.0241	259.277	84.505	259.277	84.7477	259.277	84.2675	259.277	84.4856	259.277	84.0912	259.277	84.2625	259.277	83.9803	259.277	84.0962	259.277	83.924	259.277	83.9902	259.277	83.9044	259.277	83.9332	259.277	83.9082
268.066	86.3257	268.066	86.2847	268.066	86.3165	268.066	86.1972	268.066	86.2585	268.066	86.0724	268.066	86.1574	268.066	85.9247	268.066	86.0222	268.066	85.7711	268.066	85.864	268.066	85.6259	268.066	85.6943	268.066	85.4953	268.066	85.5215	268.066	85.3728	268.066	85.3481	268.066	85.2414	268.066	85.1706	268.066	85.0813	268.066	84.983	268.066	84.8807	268.066	84.782	268.066	84.6452	268.066	84.5718	268.066	84.3989	268.066	84.3646	268.066	84.1757	268.066	84.1774	268.066	84.0036	268.066	84.0259	268.066	83.8935	268.066	83.9184	268.066	83.839	268.066	83.8542	268.066	83.8282
276.855	86.1676	276.855	86.1426	276.855	86.1592	276.855	86.0782	276.855	86.1243	276.855	85.9717	276.855	86.067	276.855	85.8239	276.855	85.9844	276.855	85.6381	276.855	85.867	276.855	85.4199	276.855	85.7044	276.855	85.1796	276.855	85.4918	276.855	84.9332	276.855	85.2346	276.855	84.6994	276.855	84.9466	276.855	84.4895	276.855	84.6459	276.855	84.2995	276.855	84.3499	276.855	84.1136	276.855	84.0738	276.855	83.9202	276.855	83.8312	276.855	83.7258	276.855	83.6332	276.855	83.5538	276.855	83.4867	276.855	83.4281	276.855	83.3918	276.855	83.3563	276.855	83.3423	276.855	83.3307
287.109	85.9045	287.109	85.8726	287.109	85.8727	287.109	85.7898	287.109	85.7733	287.109	85.673	287.109	85.6188	287.109	85.541	287.109	85.4424	287.109	85.4123	287.109	85.2907	287.109	85.2997	287.109	85.2014	287.109	85.2017	287.109	85.176	287.109	85.1006	287.109	85.1743	287.109	84.9711	287.109	85.1383	287.109	84.7954	287.109	85.0242	287.109	84.5721	287.109	84.8196	287.109	84.3161	287.109	84.5423	287.109	84.0492	287.109	84.2259	287.109	83.7915	287.109	83.9063	287.109	83.5587	287.109	83.6147	287.109	83.3657	287.109	83.3803	287.109	83.232	287.109	83.23	287.109	83.1809
297.363	85.5019	297.363	85.5395	297.363	85.3884	297.363	85.4914	297.363	85.2172	297.363	85.362	297.363	85.0073	297.363	85.1728	297.363	84.7719	297.363	84.9632	297.363	84.5214	297.363	84.7834	297.363	84.278	297.363	84.6774	297.363	84.0895	297.363	84.662	297.363	84.0162	297.363	84.7203	297.363	84.0871	297.363	84.818	297.363	84.2702	297.363	84.9263	297.363	84.4974	297.363	85.0329	297.363	84.7136	297.363	85.1361	297.363	84.8987	297.363	85.2336	297.363	85.0552	297.363	85.3174	297.363	85.1876	297.363	85.3777	297.363	85.2934	297.363	85.4077	297.363	85.3667	297.363	85.4046
307.617	87.2023	307.617	87.0908	307.617	87.1941	307.617	86.8666	307.617	87.0638	307.617	86.5399	307.617	86.8159	307.617	86.1258	307.617	86.4656	307.617	85.648	307.617	86.0392	307.617	85.1458	307.617	85.572	307.617	84.6802	307.617	85.1042	307.617	84.3297	307.617	84.6809	307.617	84.164	307.617	84.3536	307.617	84.2025	307.617	84.1745	307.617	84.398	307.617	84.1725	307.617	84.6688	307.617	84.3312	307.617	84.9459	307.617	84.595	307.617	85.1936	307.617	84.8987	307.617	85.4009	307.617	85.19	307.617	85.5605	307.617	85.432	307.617	85.6581	307.617	85.5989	307.617	85.6749
319.336	86.9869	319.336	86.9349	319.336	86.9445	319.336	86.7951	319.336	86.8012	319.336	86.5705	319.336	86.5538	319.336	86.258	319.336	86.2052	319.336	85.8517	319.336	85.7677	319.336	85.3525	319.336	85.2677	319.336	84.782	319.336	84.7495	319.336	84.1938	319.336	84.2726	319.336	83.6768	319.336	83.8987	319.336	83.3367	319.336	83.6733	319.336	83.251	319.336	83.6153	319.336	83.42	319.336	83.7165	319.336	83.7637	319.336	83.9458	319.336	84.1713	319.336	84.2514	319.336	84.5508	319.336	84.5704	319.336	84.8464	319.336	84.8432	319.336	85.0303	319.336	85.025	319.336	85.0905
329.59	86.8521	329.59	86.8019	329.59	86.839	329.59	86.6935	329.59	86.7527	329.59	86.5248	329.59	86.5804	329.59	86.2858	329.59	86.3096	329.59	85.9617	329.59	85.9312	329.59	85.5394	329.59	85.4453	329.59	85.0191	329.59	84.8695	329.59	84.4255	329.59	84.2493	329.59	83.8156	329.59	83.6611	329.59	83.2794	329.59	83.199	329.59	82.9235	329.59	82.9438	329.59	82.8302	329.59	82.9307	329.59	83.0049	329.59	83.1337	329.59	83.3623	329.59	83.4746	329.59	83.7748	329.59	83.8526	329.59	84.1327	329.59	84.1775	329.59	84.3697	329.59	84.3894	329.59	84.457
341.309	87.0156	341.309	86.9498	341.309	86.9776	341.309	86.7781	341.309	86.8426	341.309	86.5066	341.309	86.6196	341.309	86.1516	341.309	86.318	341.309	85.7338	341.309	85.9449	341.309	85.2669	341.309	85.5028	341.309	84.7485	341.309	84.993	341.309	84.1697	341.309	84.4289	341.309	83.5455	341.309	83.8544	341.309	82.9478	341.309	83.3525	341.309	82.5022	341.309	83.0201	341.309	82.3229	341.309	82.9113	341.309	82.4274	341.309	83.0004	341.309	82.729	341.309	83.2079	341.309	83.1037	341.309	83.4495	341.309	83.4476	341.309	83.66	341.309	83.6934	341.309	83.7915	341.309	83.809
353.027	87.0009	353.027	86.9813	353.027	86.9408	353.027	86.8821	353.027	86.7965	353.027	86.6958	353.027	86.5617	353.027	86.4085	353.027	86.2306	353.027	86.0056	353.027	85.7981	353.027	85.4816	353.027	85.2633	353.027	84.8511	353.027	84.635	353.027	84.1549	353.027	83.9384	353.027	83.4558	353.027	83.2181	353.027	82.8301	353.027	82.5426	353.027	82.3635	353.027	82.0146	353.027	82.1439	353.027	81.7635	353.027	82.2228	353.027	81.875	353.027	82.5591	353.027	82.2974	353.027	83.0207	353.027	82.8581	353.027	83.4567	353.027	83.3737	353.027	83.7551	353.027	83.7232	353.027	83.8527
366.211	87.1907	366.211	87.1241	366.211	87.1713	366.211	86.9665	366.211	87.066	366.211	86.7138	366.211	86.8682	366.211	86.368	366.211	86.5687	366.211	85.9395	366.211	86.1643	366.211	85.441	366.211	85.6615	366.211	84.8773	366.211	85.0697	366.211	84.2447	366.211	84.3918	366.211	83.5553	366.211	83.6302	366.211	82.8783	366.211	82.826	366.211	82.3518	366.211	82.1104	366.211	82.1064	366.211	81.6886	366.211	82.1549	366.211	81.6794	366.211	82.3951	366.211	81.9832	366.211	82.7041	366.211	82.3976	366.211	82.9854	366.211	82.7786	366.211	83.1642	366.211	83.0563	366.211	83.1917
379.395	87.3513	379.395	87.3452	379.395	87.3192	379.395	87.2953	379.395	87.2482	379.395	87.1867	379.395	87.1316	379.395	86.9972	379.395	86.9549	379.395	86.704	379.395	86.6948	379.395	86.2913	379.395	86.3263	379.395	85.7551	379.395	85.8352	379.395	85.1003	379.395	85.2303	379.395	84.3381	379.395	84.5461	379.395	83.495	379.395	83.8336	379.395	82.6516	379.395	83.1517	379.395	81.985	379.395	82.5751	379.395	81.7181	379.395	82.2139	379.395	81.921	379.395	82.1758	379.395	82.4136	379.395	82.4514	379.395	82.9318	379.395	82.875	379.395	83.2884	379.395	83.2374	379.395	83.3947
392.578	86.9945	392.578	86.9884	392.578	86.9204	392.578	86.9058	392.578	86.7662	392.578	86.7461	392.578	86.5394	392.578	86.5017	392.578	86.2495	392.578	86.162	392.578	85.8983	392.578	85.7206	392.578	85.4746	392.578	85.1779	392.578	84.9623	392.578	84.5425	392.578	84.3596	392.578	83.8446	392.578	83.6968	392.578	83.1597	392.578	83.0446	392.578	82.6139	392.578	82.5177	392.578	82.3322	392.578	82.2558	392.578	82.3608	392.578	82.3401	392.578	82.6446	392.578	82.7004	392.578	83.0654	392.578	83.1592	392.578	83.4856	392.578	83.5604	392.578	83.787	392.578	83.8212	392.578	83.903
405.762	86.591	405.762	86.5493	405.762	86.5915	405.762	86.4712	405.762	86.5378	405.762	86.35	405.762	86.4126	405.762	86.1645	405.762	86.2	405.762	85.8808	405.762	85.8852	405.762	85.4608	405.762	85.4481	405.762	84.8747	405.762	84.8609	405.762	84.1156	405.762	84.1057	405.762	83.2228	405.762	83.2165	405.762	82.3195	405.762	82.326	405.762	81.6377	405.762	81.6582	405.762	81.4224	405.762	81.4093	405.762	81.707	405.762	81.6014	405.762	82.2706	405.762	82.0878	405.762	82.8541	405.762	82.6655	405.762	83.3044	405.762	83.1669	405.762	83.5666	405.762	83.4986	405.762	83.6318
420.41	87.2455	420.41	87.1472	420.41	87.2457	420.41	86.9564	420.41	87.1556	420.41	86.6924	420.41	86.9852	420.41	86.3771	420.41	86.7348	420.41	86.0185	420.41	86.3911	420.41	85.6009	420.41	85.9319	420.41	85.0817	420.41	85.3305	420.41	84.3967	420.41	84.5517	420.41	83.476	420.41	83.551	420.41	82.2945	420.41	82.3036	420.41	80.9941	420.41	80.9052	420.41	80.0411	420.41	79.743	420.41	79.9812	420.41	79.4197	420.41	80.6979	420.41	80.0303	420.41	81.6089	420.41	81.0206	420.41	82.3382	420.41	81.921	420.41	82.7552	420.41	82.5417	420.41	82.8248
435.059	86.7266	435.059	86.7353	435.059	86.6332	435.059	86.6557	435.059	86.4755	435.059	86.4965	435.059	86.2862	435.059	86.2712	435.059	86.0954	435.059	85.9865	435.059	85.9087	435.059	85.6315	435.059	85.6954	435.059	85.1748	435.059	85.399	435.059	84.5784	435.059	84.9589	435.059	83.8207	435.059	84.3333	435.059	82.9159	435.059	83.5319	435.059	81.9396	435.059	82.6612	435.059	81.0777	435.059	81.9403	435.059	80.6379	435.059	81.5948	435.059	80.8316	435.059	81.6723	435.059	81.4869	435.059	82.0297	435.059	82.2166	435.059	82.4704	435.059	82.738	435.059	82.8196	435.059	82.9374
451.172	86.8468	451.172	86.8022	451.172	86.807	451.172	86.6849	451.172	86.6731	451.172	86.5016	451.172	86.4416	451.172	86.2525	451.172	86.1122	451.172	85.9343	451.172	85.6807	451.172	85.5357	451.172	85.1365	451.172	85.0244	451.172	84.47	451.172	84.3402	451.172	83.6773	451.172	83.4192	451.172	82.7448	451.172	82.252	451.172	81.634	451.172	80.9718	451.172	80.3494	451.172	79.9404	451.172	79.1827	451.172	79.6338	451.172	78.8764	451.172	80.1512	451.172	79.722	451.172	81.0687	451.172	80.9625	451.172	81.9261	451.172	81.9508	451.172	82.4891	451.172	82.5202	451.172	82.6908
465.82	86.7416	465.82	86.7191	465.82	86.7508	465.82	86.6685	465.82	86.7238	465.82	86.5497	465.82	86.6231	465.82	86.333	465.82	86.4282	465.82	86.0223	465.82	86.1428	465.82	85.6418	465.82	85.7688	465.82	85.197	465.82	85.2779	465.82	84.6483	465.82	84.6156	465.82	83.9202	465.82	83.7434	465.82	82.9434	465.82	82.6796	465.82	81.7249	465.82	81.5025	465.82	80.4665	465.82	80.349	465.82	79.6405	465.82	79.4945	465.82	79.6451	465.82	79.3435	465.82	80.272	465.82	79.9415	465.82	81.0131	465.82	80.7947	465.82	81.5376	465.82	81.4433	465.82	81.6993
483.398	86.4417	483.398	86.3459	483.398	86.4217	483.398	86.1764	483.398	86.2829	483.398	85.9861	483.398	86.053	483.398	85.7886	483.398	85.7691	483.398	85.5447	483.398	85.4593	483.398	85.2005	483.398	85.1289	483.398	84.7228	483.398	84.7472	483.398	84.0882	483.398	84.2475	483.398	83.2585	483.398	83.5514	483.398	82.2021	483.398	82.6228	483.398	80.9873	483.398	81.5432	483.398	79.9057	483.398	80.5758	483.398	79.4405	483.398	80.0713	483.398	79.8118	483.398	80.1573	483.398	80.665	483.398	80.6468	483.398	81.5006	483.398	81.2765	483.398	82.0192	483.398	81.8275	483.398	82.1174
499.512	86.3482	499.512	86.3076	499.512	86.2488	499.512	86.1256	499.512	86.0618	499.512	85.8661	499.512	85.8443	499.512	85.6141	499.512	85.6198	499.512	85.395	499.512	85.3741	499.512	85.1425	499.512	85.0735	499.512	84.7597	499.512	84.6737	499.512	84.1976	499.512	84.1165	499.512	83.4686	499.512	83.3414	499.512	82.592	499.512	82.3268	499.512	81.5557	499.512	81.1509	499.512	80.4124	499.512	80.0556	499.512	79.5076	499.512	79.4219	499.512	79.402	499.512	79.4903	499.512	80.0871	499.512	80.0772	499.512	80.9351	499.512	80.7933	499.512	81.4883	499.512	81.3569	499.512	81.6183
517.09	86.2228	517.09	86.2755	517.09	86.1245	517.09	86.2557	517.09	85.9806	517.09	86.1129	517.09	85.7867	517.09	85.8162	517.09	85.5558	517.09	85.4024	517.09	85.3125	517.09	84.9577	517.09	85.0531	517.09	84.5124	517.09	84.7096	517.09	83.968	517.09	84.1725	517.09	83.1672	517.09	83.3603	517.09	82.0327	517.09	82.2706	517.09	80.693	517.09	80.9843	517.09	79.5664	517.09	79.714	517.09	79.1814	517.09	78.9794	517.09	79.6424	517.09	79.326	517.09	80.5379	517.09	80.3986	517.09	81.404	517.09	81.4169	517.09	81.9821	517.09	82.0248	517.09	82.1972
536.133	85.8484	536.133	85.6828	536.133	85.8697	536.133	85.4243	536.133	85.7195	536.133	85.1245	536.133	85.407	536.133	84.82	536.133	84.9771	536.133	84.5371	536.133	84.5006	536.133	84.2761	536.133	84.0423	536.133	83.9682	536.133	83.6075	536.133	83.4849	536.133	83.128	536.133	82.7208	536.133	82.4956	536.133	81.6408	536.133	81.5837	536.133	80.2698	536.133	80.3181	536.133	78.8185	536.133	78.9608	536.133	77.9658	536.133	78.3327	536.133	78.3162	536.133	78.8111	536.133	79.4131	536.133	79.7523	536.133	80.5622	536.133	80.681	536.133	81.3896	536.133	81.3995	536.133	81.6849
555.176	86.3639	555.176	86.266	555.176	86.3087	555.176	86.0285	555.176	86.1256	555.176	85.7116	555.176	85.8552	555.176	85.3738	555.176	85.5256	555.176	85.001	555.176	85.1352	555.176	84.5335	555.176	84.6714	555.176	83.9626	555.176	84.1332	555.176	83.31	555.176	83.495	555.176	82.5033	555.176	82.6744	555.176	81.3814	555.176	81.5895	555.176	79.8478	555.176	80.2051	555.176	78.0142	555.176	78.4754	555.176	76.4925	555.176	76.5188	555.176	76.4794	555.176	75.5951	555.176	77.8214	555.176	76.9111	555.176	79.1509	555.176	78.696	555.176	79.9198	555.176	79.7741	555.176	80.1305
574.219	86.3485	574.219	86.3545	574.219	86.1883	574.219	86.1703	574.219	85.9329	574.219	85.8104	574.219	85.6116	574.219	85.3335	574.219	85.2163	574.219	84.8209	574.219	84.763	574.219	84.3468	574.219	84.3325	574.219	83.9467	574.219	83.9904	574.219	83.5896	574.219	83.6662	574.219	83.1543	574.219	83.1797	574.219	82.4566	574.219	82.3902	574.219	81.3435	574.219	81.2868	574.219	79.7906	574.219	79.9668	574.219	78.0251	574.219	78.6397	574.219	76.8529	574.219	77.7493	574.219	77.2665	574.219	77.7325	574.219	78.5689	574.219	78.3834	574.219	79.4887	574.219	79.1553	574.219	79.6323
594.727	86.5678	594.727	86.4181	594.727	86.5405	594.727	86.1176	594.727	86.3353	594.727	85.7114	594.727	85.9757	594.727	85.2477	594.727	85.4912	594.727	84.7568	594.727	84.8891	594.727	84.2333	594.727	84.1816	594.727	83.6406	594.727	83.4611	594.727	82.9872	594.727	82.8692	594.727	82.3937	594.727	82.3908	594.727	81.9292	594.727	81.803	594.727	81.4156	594.727	80.9325	594.727	80.6363	594.727	79.9144	594.727	79.7045	594.727	79.1596	594.727	79.0876	594.727	78.8902	594.727	78.9542	594.727	78.9785	594.727	79.0359	594.727	79.275	594.727	79.2592	594.727	79.5467	594.727	79.5251
615.234	86.4669	615.234	86.3213	615.234	86.5147	615.234	86.1339	615.234	86.3909	615.234	85.8674	615.234	86.092	615.234	85.4293	615.234	85.6799	615.234	84.7821	615.234	85.1994	615.234	84.0016	615.234	84.6178	615.234	83.1882	615.234	83.8648	615.234	82.3159	615.234	82.923	615.234	81.2912	615.234	81.8706	615.234	80.1799	615.234	80.8713	615.234	79.2247	615.234	80.1021	615.234	78.6195	615.234	79.5958	615.234	78.4593	615.234	79.2575	615.234	78.752	615.234	79.084	615.234	79.3097	615.234	79.1846	615.234	79.8541	615.234	79.5524	615.234	80.1865	615.234	79.9748	615.234	80.2236
637.207	86.5707	637.207	86.5543	637.207	86.4666	637.207	86.4086	637.207	86.3119	637.207	86.2057	637.207	86.1262	637.207	85.9691	637.207	85.8654	637.207	85.6171	637.207	85.4826	637.207	85.0634	637.207	84.9474	637.207	84.288	637.207	84.2542	637.207	83.3307	637.207	83.4461	637.207	82.283	637.207	82.564	637.207	81.2223	637.207	81.5475	637.207	80.1582	637.207	80.3096	637.207	79.2653	637.207	79.0644	637.207	78.9705	637.207	78.5546	637.207	79.3294	637.207	79.1667	637.207	79.9836	637.207	80.2004	637.207	80.6617	637.207	81.0093	637.207	81.1938	637.207	81.4238	637.207	81.4687
659.18	86.8584	659.18	86.7385	659.18	86.8093	659.18	86.4915	659.18	86.5841	659.18	86.1329	659.18	86.2545	659.18	85.6868	659.18	85.8897	659.18	85.1998	659.18	85.4893	659.18	84.6603	659.18	85.02	659.18	83.9919	659.18	84.4179	659.18	83.1159	659.18	83.5581	659.18	81.9906	659.18	82.3588	659.18	80.7804	659.18	80.9818	659.18	79.8703	659.18	79.8891	659.18	79.3692	659.18	79.3905	659.18	79.2694	659.18	79.2604	659.18	79.8026	659.18	79.447	659.18	80.72	659.18	80.2251	659.18	81.4882	659.18	81.2643	659.18	81.9536	659.18	81.9626	659.18	82.1468
682.617	86.7136	682.617	86.6884	682.617	86.5949	682.617	86.459	682.617	86.4124	682.617	86.0885	682.617	86.18	682.617	85.7148	682.617	85.8562	682.617	85.4047	682.617	85.399	682.617	85.086	682.617	84.8113	682.617	84.5597	682.617	84.1277	682.617	83.6589	682.617	83.2903	682.617	82.4323	682.617	82.1344	682.617	81.0399	682.617	80.6519	682.617	79.6554	682.617	79.2879	682.617	78.7036	682.617	78.6463	682.617	78.6255	682.617	78.8124	682.617	79.3371	682.617	79.52	682.617	80.3346	682.617	80.3263	682.617	81.0794	682.617	80.9116	682.617	81.3997	682.617	81.2547	682.617	81.4181
707.52	86.3492	707.52	86.2333	707.52	86.3595	707.52	86.0731	707.52	86.2048	707.52	85.857	707.52	85.8859	707.52	85.5106	707.52	85.4767	707.52	84.999	707.52	85.0538	707.52	84.3756	707.52	84.5549	707.52	83.6625	707.52	83.8298	707.52	82.7265	707.52	82.8668	707.52	81.4173	707.52	81.7404	707.52	79.7859	707.52	80.4036	707.52	78.2757	707.52	78.9501	707.52	77.719	707.52	77.9168	707.52	78.1663	707.52	77.9892	707.52	79.0492	707.52	79.129	707.52	80.0539	707.52	80.3324	707.52	80.859	707.52	81.0646	707.52	81.3812	707.52	81.4626	707.52	81.5958
732.422	85.3694	732.422	85.4138	732.422	85.2915	732.422	85.3956	732.422	85.0971	732.422	85.1968	732.422	84.798	732.422	84.841	732.422	84.4962	732.422	84.443	732.422	84.189	732.422	83.9655	732.422	83.7473	732.422	83.2398	732.422	82.9936	732.422	82.0247	732.422	81.7358	732.422	79.9878	732.422	79.8729	732.422	77.3575	732.422	77.6034	732.422	76.2	732.422	76.3267	732.422	77.2839	732.422	77.7197	732.422	78.9456	732.422	79.5463	732.422	80.2957	732.422	80.4943	732.422	81.1639	732.422	80.9713	732.422	81.8162	732.422	81.36	732.422	82.1981	732.422	81.7454	732.422	82.1124
757.324	84.9418	757.324	84.8918	757.324	84.655	757.324	84.5557	757.324	84.282	757.324	84.2244	757.324	84.1031	757.324	84.1283	757.324	84.1184	757.324	84.2194	757.324	84.1305	757.324	84.1911	757.324	83.9687	757.324	83.7109	757.324	83.416	757.324	82.5091	757.324	82.0928	757.324	80.0851	757.324	79.4448	757.324	75.2858	757.324	74.3786	757.324	69.3013	757.324	67.5455	757.324	74.5966	757.324	74.8865	757.324	78.7396	757.324	79.6142	757.324	81.2294	757.324	82.0828	757.324	82.5605	757.324	83.2532	757.324	82.982	757.324	83.4759	757.324	82.8871	757.324	83.1067	757.324	82.7982
785.156	84.7328	785.156	84.8279	785.156	84.3092	785.156	84.5135	785.156	83.6173	785.156	84.0483	785.156	83.0108	785.156	84.0988	785.156	83.0939	785.156	84.7852	785.156	83.8574	785.156	85.731	785.156	84.9309	785.156	86.4684	785.156	85.8779	785.156	86.4532	785.156	86.0952	785.156	85.2999	785.156	85.0794	785.156	82.6204	785.156	82.2176	785.156	77.0451	785.156	75.634	785.156	68.0663	785.156	66.8243	785.156	77.9689	785.156	77.8192	785.156	82.7159	785.156	82.1366	785.156	85.0638	785.156	84.5775	785.156	85.9074	785.156	85.943	785.156	86.0301	785.156	86.3975	785.156	86.2278
811.523	87.312	811.523	86.9083	811.523	87.1944	811.523	86.0355	811.523	86.5945	811.523	84.7826	811.523	85.3466	811.523	83.2148	811.523	83.4734	811.523	82.6505	811.523	82.5758	811.523	84.2086	811.523	83.8537	811.523	85.895	811.523	85.4328	811.523	86.772	811.523	86.3922	811.523	86.6695	811.523	86.4571	811.523	85.2554	811.523	85.1845	811.523	81.8165	811.523	81.7921	811.523	74.2113	811.523	74.8048	811.523	75.2728	811.523	76.2566	811.523	82.0056	811.523	82.1403	811.523	85.314	811.523	85.2682	811.523	87.1494	811.523	86.9703	811.523	88.047	811.523	87.8661	811.523	88.2364
840.82	88.5118	840.82	88.3288	840.82	88.3077	840.82	87.7315	840.82	87.591	840.82	86.3807	840.82	86.3623	840.82	84.2155	840.82	84.5847	840.82	82.1985	840.82	82.5394	840.82	82.109	840.82	82.5563	840.82	83.8548	840.82	84.6045	840.82	85.5238	840.82	85.9604	840.82	86.3309	840.82	86.4038	840.82	85.9615	840.82	86.1103	840.82	83.7594	840.82	84.3226	840.82	78.0838	840.82	79.2901	840.82	71.9213	840.82	73.4987	840.82	81.2369	840.82	80.8107	840.82	84.8884	840.82	84.5465	840.82	86.7234	840.82	86.5682	840.82	88.0368	840.82	87.8936	840.82	88.5014
870.117	89.1857	870.117	88.9093	870.117	88.9878	870.117	88.2036	870.117	88.3063	870.117	87.0943	870.117	86.9067	870.117	85.1964	870.117	84.4793	870.117	81.9299	870.117	81.2728	870.117	79.103	870.117	78.8772	870.117	81.4796	870.117	80.481	870.117	84.2287	870.117	83.9897	870.117	85.3869	870.117	85.8938	870.117	84.9739	870.117	85.5587	870.117	82.5794	870.117	83.154	870.117	76.4535	870.117	78.0503	870.117	73.5876	870.117	71.3836	870.117	81.2938	870.117	80.8237	870.117	85.6181	870.117	85.5671	870.117	88.0282	870.117	87.7431	870.117	88.8365	870.117	88.5391	870.117	88.7909
900.879	89.0674	900.879	89.067	900.879	88.9319	900.879	88.6637	900.879	88.5868	900.879	87.5121	900.879	87.919	900.879	85.6148	900.879	86.6064	900.879	82.8224	900.879	83.9288	900.879	79.0816	900.879	79.8387	900.879	79.9211	900.879	79.9955	900.879	83.5325	900.879	83.4298	900.879	85.5557	900.879	85.6326	900.879	86.0807	900.879	86.2729	900.879	84.9444	900.879	84.82	900.879	81.6343	900.879	81.0704	900.879	78.8452	900.879	78.4985	900.879	82.8619	900.879	82.2756	900.879	86.4564	900.879	85.8646	900.879	88.3038	900.879	88.1145	900.879	89.1207	900.879	89.2454	900.879	89.4496
933.105	88.5123	933.105	88.3286	933.105	88.562	933.105	88.0401	933.105	88.414	933.105	87.662	933.105	87.7613	933.105	86.7936	933.105	86.3487	933.105	84.5866	933.105	84.0882	933.105	79.9349	933.105	79.9621	933.105	72.8285	933.105	71.0855	933.105	79.2379	933.105	79.4541	933.105	84.5461	933.105	84.4001	933.105	86.877	933.105	86.2443	933.105	86.9867	933.105	86.6476	933.105	85.4796	933.105	85.9246	933.105	83.6474	933.105	84.6188	933.105	83.6543	933.105	84.3724	933.105	85.7345	933.105	86.0631	933.105	87.9439	933.105	87.9169	933.105	89.28	933.105	88.9821	933.105	89.5143
965.332	87.3014	965.332	87.5056	965.332	87.3569	965.332	87.7627	965.332	87.701	965.332	87.8734	965.332	88.1689	965.332	87.6423	965.332	88.1793	965.332	86.8498	965.332	87.0046	965.332	84.9603	965.332	84.3092	965.332	80.5425	965.332	79.608	965.332	72.9001	965.332	69.3932	965.332	79.7386	965.332	78.836	965.332	83.6733	965.332	84.5749	965.332	84.9476	965.332	86.2199	965.332	84.8908	965.332	85.8438	965.332	83.7352	965.332	84.4361	965.332	82.4981	965.332	82.7178	965.332	83.6229	965.332	82.8828	965.332	85.5466	965.332	85.1722	965.332	86.6348	965.332	87.0341	965.332	87.2412
1,000.49	86.4093	1,000.49	86.2895	1,000.49	86.5723	1,000.49	86.1696	1,000.49	86.5893	1,000.49	86.2072	1,000.49	86.4435	1,000.49	86.2344	1,000.49	86.3265	1,000.49	85.5618	1,000.49	85.9485	1,000.49	84.154	1,000.49	84.7454	1,000.49	81.5414	1,000.49	82.0257	1,000.49	76.1637	1,000.49	77.0876	1,000.49	77.1324	1,000.49	76.3672	1,000.49	81.7462	1,000.49	80.946	1,000.49	83.7874	1,000.49	83.1744	1,000.49	83.9757	1,000.49	83.2873	1,000.49	82.5432	1,000.49	81.4473	1,000.49	79.1363	1,000.49	77.8563	1,000.49	75.3929	1,000.49	76.8624	1,000.49	78.5882	1,000.49	79.7405	1,000.49	81.3766	1,000.49	81.4614	1,000.49	82.1717
1,035.64	86.5153	1,035.64	86.3521	1,035.64	86.1924	1,035.64	86.299	1,035.64	85.859	1,035.64	86.5362	1,035.64	85.8977	1,035.64	86.325	1,035.64	85.915	1,035.64	85.5334	1,035.64	85.7758	1,035.64	84.0382	1,035.64	84.892	1,035.64	81.6971	1,035.64	82.1322	1,035.64	78.7104	1,035.64	77.5477	1,035.64	76.1929	1,035.64	75.6416	1,035.64	79.958	1,035.64	79.4259	1,035.64	82.5102	1,035.64	82.1457	1,035.64	82.6625	1,035.64	82.9275	1,035.64	81.1403	1,035.64	81.9799	1,035.64	77.1502	1,035.64	78.6246	1,035.64	72.7463	1,035.64	73.1482	1,035.64	76.3864	1,035.64	74.9866	1,035.64	79.5972	1,035.64	79.1435	1,035.64	80.3408
1,072.27	86.3396	1,072.27	86.368	1,072.27	86.2944	1,072.27	85.9248	1,072.27	86.1979	1,072.27	85.517	1,072.27	85.9111	1,072.27	85.4914	1,072.27	85.6622	1,072.27	84.9492	1,072.27	85.0928	1,072.27	83.8935	1,072.27	84.0263	1,072.27	82.4138	1,072.27	82.2837	1,072.27	79.354	1,072.27	78.8708	1,072.27	76.9631	1,072.27	74.695	1,072.27	78.6469	1,072.27	77.6702	1,072.27	81.2109	1,072.27	80.694	1,072.27	82.0291	1,072.27	81.328	1,072.27	80.5955	1,072.27	79.8387	1,072.27	76.5332	1,072.27	76.3546	1,072.27	64.9864	1,072.27	69.329	1,072.27	71.6526	1,072.27	73.3761	1,072.27	76.7739	1,072.27	76.7328	1,072.27	77.7667
1,108.89	86.1841	1,108.89	85.9596	1,108.89	86.1759	1,108.89	85.6282	1,108.89	85.9483	1,108.89	85.1876	1,108.89	85.3835	1,108.89	84.6195	1,108.89	84.6718	1,108.89	83.9071	1,108.89	84.2166	1,108.89	82.7461	1,108.89	83.754	1,108.89	81.13	1,108.89	82.678	1,108.89	78.8531	1,108.89	80.0469	1,108.89	75.8664	1,108.89	75.6788	1,108.89	77.5179	1,108.89	75.8549	1,108.89	79.8856	1,108.89	78.7663	1,108.89	80.7493	1,108.89	79.9374	1,108.89	79.6611	1,108.89	79.7483	1,108.89	75.1069	1,108.89	76.4952	1,108.89	65.0321	1,108.89	68.047	1,108.89	70.6198	1,108.89	69.2488	1,108.89	76.0487	1,108.89	75.802	1,108.89	77.7121
1,148.44	87.1662	1,148.44	87.0582	1,148.44	86.9905	1,148.44	86.2755	1,148.44	86.523	1,148.44	85.3842	1,148.44	85.6237	1,148.44	84.7636	1,148.44	84.8628	1,148.44	83.6185	1,148.44	84.2155	1,148.44	82.3388	1,148.44	83.3032	1,148.44	80.9167	1,148.44	82.0212	1,148.44	77.9367	1,148.44	79.7744	1,148.44	75.0677	1,148.44	76.1638	1,148.44	76.3597	1,148.44	75.1927	1,148.44	78.5617	1,148.44	78.2705	1,148.44	79.1346	1,148.44	79.8087	1,148.44	77.8729	1,148.44	78.9446	1,148.44	74.2717	1,148.44	75.8958	1,148.44	66.7139	1,148.44	69.2681	1,148.44	66.5349	1,148.44	64.9011	1,148.44	72.3197	1,148.44	72.273	1,148.44	73.6319
1,189.45	86.9252	1,189.45	86.5068	1,189.45	86.8647	1,189.45	86.1014	1,189.45	86.4221	1,189.45	85.5336	1,189.45	86.1714	1,189.45	84.8976	1,189.45	85.6834	1,189.45	83.9364	1,189.45	84.7103	1,189.45	82.6563	1,189.45	83.4824	1,189.45	81.2417	1,189.45	82.1507	1,189.45	78.4991	1,189.45	80.7226	1,189.45	75.7372	1,189.45	79.2578	1,189.45	76.5885	1,189.45	77.4248	1,189.45	78.3124	1,189.45	78.3332	1,189.45	79.0713	1,189.45	78.4776	1,189.45	77.5	1,189.45	76.0309	1,189.45	71.8621	1,189.45	70.9723	1,189.45	63.3076	1,189.45	64.9689	1,189.45	73.7106	1,189.45	73.1189	1,189.45	77.2093	1,189.45	77.3151	1,189.45	78.5918
1,230.47	87.3795	1,230.47	87.0168	1,230.47	87.0653	1,230.47	86.0677	1,230.47	86.5244	1,230.47	85.4484	1,230.47	85.5207	1,230.47	84.78	1,230.47	84.5605	1,230.47	83.9225	1,230.47	83.7768	1,230.47	83.1745	1,230.47	82.8266	1,230.47	82.1916	1,230.47	81.6917	1,230.47	80.1477	1,230.47	79.866	1,230.47	75.5659	1,230.47	76.625	1,230.47	75.8891	1,230.47	74.0725	1,230.47	78.3367	1,230.47	76.5288	1,230.47	79.5942	1,230.47	77.9682	1,230.47	78.0832	1,230.47	76.4878	1,230.47	71.0074	1,230.47	70.3823	1,230.47	60.5383	1,230.47	62.8598	1,230.47	73.5343	1,230.47	72.8679	1,230.47	78.0346	1,230.47	76.7302	1,230.47	78.4843
1,274.41	87.4115	1,274.41	87.2727	1,274.41	87.2071	1,274.41	86.7478	1,274.41	86.5016	1,274.41	85.4387	1,274.41	85.3123	1,274.41	84.3708	1,274.41	83.697	1,274.41	83.6246	1,274.41	82.3715	1,274.41	82.4146	1,274.41	81.7732	1,274.41	81.4413	1,274.41	81.0445	1,274.41	80.1093	1,274.41	79.4624	1,274.41	77.7665	1,274.41	77.588	1,274.41	73.7802	1,274.41	76.2404	1,274.41	75.129	1,274.41	75.8523	1,274.41	78.7482	1,274.41	78.3296	1,274.41	77.5254	1,274.41	77.971	1,274.41	70.5675	1,274.41	71.4731	1,274.41	60.3239	1,274.41	58.2528	1,274.41	74.2812	1,274.41	73.6786	1,274.41	78.61	1,274.41	77.4899	1,274.41	78.8373
1,319.82	87.7658	1,319.82	87.785	1,319.82	87.4387	1,319.82	87.0617	1,319.82	86.9005	1,319.82	85.7265	1,319.82	86.164	1,319.82	84.8118	1,319.82	85.004	1,319.82	84.0473	1,319.82	83.9417	1,319.82	83.0413	1,319.82	82.6923	1,319.82	82.4398	1,319.82	81.1282	1,319.82	80.4686	1,319.82	79.3043	1,319.82	77.614	1,319.82	77.4504	1,319.82	75.0407	1,319.82	75.5522	1,319.82	75.1824	1,319.82	76.0775	1,319.82	76.4882	1,319.82	76.3329	1,319.82	75.552	1,319.82	74.1907	1,319.82	70.0213	1,319.82	72.2369	1,319.82	46.3636	1,319.82	55.2176	1,319.82	71.3031	1,319.82	71.0126	1,319.82	76.5782	1,319.82	74.2837	1,319.82	76.4104
1,366.7	87.5452	1,366.7	87.3341	1,366.7	87.5491	1,366.7	87.1994	1,366.7	86.6345	1,366.7	86.2348	1,366.7	85.7568	1,366.7	85.0286	1,366.7	84.6848	1,366.7	83.8202	1,366.7	83.2097	1,366.7	82.8035	1,366.7	82.1161	1,366.7	80.9929	1,366.7	80.9966	1,366.7	79.5841	1,366.7	79.9056	1,366.7	77.354	1,366.7	76.7762	1,366.7	76.917	1,366.7	76.2929	1,366.7	76.6253	1,366.7	76.3344	1,366.7	76.1624	1,366.7	76.8922	1,366.7	75.2056	1,366.7	75.7949	1,366.7	69.6368	1,366.7	72.3116	1,366.7	62.3189	1,366.7	57.1993	1,366.7	71.3255	1,366.7	70.3619	1,366.7	74.4994	1,366.7	75.0879	1,366.7	76.1329
1,413.57	86.6251	1,413.57	86.665	1,413.57	86.8298	1,413.57	86.0863	1,413.57	86.2596	1,413.57	85.0357	1,413.57	85.1944	1,413.57	83.8524	1,413.57	84.3388	1,413.57	82.5718	1,413.57	82.7333	1,413.57	81.2104	1,413.57	81.8361	1,413.57	80.3524	1,413.57	80.514	1,413.57	78.8591	1,413.57	79.0426	1,413.57	76.1145	1,413.57	75.715	1,413.57	74.8539	1,413.57	74.5732	1,413.57	75.171	1,413.57	75.1405	1,413.57	74.3637	1,413.57	75.8814	1,413.57	73.2071	1,413.57	74.7664	1,413.57	70.0562	1,413.57	72.6025	1,413.57	62.001	1,413.57	60.8456	1,413.57	70.2075	1,413.57	69.2175	1,413.57	74.9133	1,413.57	73.968	1,413.57	74.622
1,463.38	87.0963	1,463.38	86.9228	1,463.38	87.2025	1,463.38	86.2715	1,463.38	86.8402	1,463.38	85.5184	1,463.38	85.9267	1,463.38	83.7468	1,463.38	84.5014	1,463.38	81.9839	1,463.38	82.8945	1,463.38	80.8949	1,463.38	82.0648	1,463.38	79.5558	1,463.38	80.8912	1,463.38	78.5137	1,463.38	79.7362	1,463.38	76.1682	1,463.38	77.4659	1,463.38	74.2886	1,463.38	74.9731	1,463.38	75.4381	1,463.38	74.7771	1,463.38	74.6086	1,463.38	76.987	1,463.38	76.1598	1,463.38	74.9846	1,463.38	74.483	1,463.38	72.6063	1,463.38	66.734	1,463.38	67.1749	1,463.38	51.4234	1,463.38	62.0257	1,463.38	70.9668	1,463.38	72.424	1,463.38	74.2051
1,516.11	87.3597	1,516.11	87.3325	1,516.11	87.4933	1,516.11	86.3988	1,516.11	87.274	1,516.11	85.4948	1,516.11	85.6793	1,516.11	83.9706	1,516.11	84.6402	1,516.11	82.1213	1,516.11	83.3514	1,516.11	81.6264	1,516.11	81.2707	1,516.11	80.6586	1,516.11	79.7334	1,516.11	78.3084	1,516.11	77.1454	1,516.11	75.3694	1,516.11	74.0292	1,516.11	71.6941	1,516.11	73.8492	1,516.11	73.2414	1,516.11	75.2084	1,516.11	74.2185	1,516.11	74.8024	1,516.11	76.0075	1,516.11	74.7813	1,516.11	73.6602	1,516.11	71.7523	1,516.11	68.4909	1,516.11	65.1769	1,516.11	56.2551	1,516.11	65.4054	1,516.11	66.1956	1,516.11	68.7307	1,516.11	68.4595
1,568.85	87.2977	1,568.85	86.5583	1,568.85	87.2211	1,568.85	86.1032	1,568.85	86.3337	1,568.85	84.9368	1,568.85	85.2514	1,568.85	83.777	1,568.85	83.3917	1,568.85	82.7383	1,568.85	81.7208	1,568.85	81.1725	1,568.85	80.5306	1,568.85	79.6703	1,568.85	79.6786	1,568.85	76.8776	1,568.85	78.8187	1,568.85	72.9063	1,568.85	75.4054	1,568.85	71.7101	1,568.85	74.301	1,568.85	73.4341	1,568.85	72.4718	1,568.85	74.0341	1,568.85	70.6096	1,568.85	73.5661	1,568.85	73.0091	1,568.85	72.1835	1,568.85	71.5808	1,568.85	66.2626	1,568.85	66.3594	1,568.85	68.836	1,568.85	64.0394	1,568.85	71.3188	1,568.85	72.404	1,568.85	70.6503
1,624.51	86.1198	1,624.51	86.2822	1,624.51	85.8606	1,624.51	85.7445	1,624.51	85.2798	1,624.51	84.1207	1,624.51	83.66	1,624.51	82.6762	1,624.51	82.2198	1,624.51	81.319	1,624.51	80.7211	1,624.51	79.7105	1,624.51	80.2181	1,624.51	78.2259	1,624.51	80.7388	1,624.51	77.0709	1,624.51	77.8434	1,624.51	74.0013	1,624.51	74.5129	1,624.51	73.8227	1,624.51	71.085	1,624.51	73.1129	1,624.51	72.7111	1,624.51	73.9933	1,624.51	73.0766	1,624.51	69.5737	1,624.51	66.5073	1,624.51	69.3329	1,624.51	68.9511	1,624.51	68.4317	1,624.51	69.3586	1,624.51	70.343	1,624.51	65.2202	1,624.51	70.6198	1,624.51	69.3138	1,624.51	72.5394
1,681.64	85.7129	1,681.64	85.6312	1,681.64	85.7757	1,681.64	84.8921	1,681.64	85.1558	1,681.64	84.477	1,681.64	83.8704	1,681.64	82.0929	1,681.64	82.5341	1,681.64	79.8693	1,681.64	80.797	1,681.64	79.5858	1,681.64	78.9239	1,681.64	79.974	1,681.64	77.4523	1,681.64	75.7045	1,681.64	76.6437	1,681.64	74.0615	1,681.64	75.996	1,681.64	74.7707	1,681.64	73.2259	1,681.64	75.4712	1,681.64	73.9948	1,681.64	73.129	1,681.64	72.3154	1,681.64	70.1032	1,681.64	72.1834	1,681.64	69.9386	1,681.64	66.9578	1,681.64	71.6255	1,681.64	67.3736	1,681.64	70.9743	1,681.64	71.0564	1,681.64	75.5971	1,681.64	72.519	1,681.64	73.0873
1,741.7	86.0591	1,741.7	85.4254	1,741.7	86.2333	1,741.7	85.6187	1,741.7	85.2382	1,741.7	85.0402	1,741.7	84.4343	1,741.7	83.2283	1,741.7	84.19	1,741.7	79.7095	1,741.7	81.3195	1,741.7	77.9029	1,741.7	76.9033	1,741.7	76.5677	1,741.7	76.1886	1,741.7	77.2206	1,741.7	78.5034	1,741.7	76.1113	1,741.7	76.6659	1,741.7	66.7611	1,741.7	70.3538	1,741.7	72.144	1,741.7	72.533	1,741.7	75.3466	1,741.7	74.7422	1,741.7	72.9521	1,741.7	73.5867	1,741.7	61.689	1,741.7	57.505	1,741.7	68.904	1,741.7	68.5923	1,741.7	74.7815	1,741.7	75.6864	1,741.7	75.8797	1,741.7	76.036	1,741.7	76.1505
1,803.22	87.0577	1,803.22	85.9433	1,803.22	86.6038	1,803.22	85.9961	1,803.22	85.0016	1,803.22	85.2344	1,803.22	85.3628	1,803.22	84.9643	1,803.22	84.7945	1,803.22	83.0116	1,803.22	82.6397	1,803.22	79.7891	1,803.22	78.6385	1,803.22	75.1328	1,803.22	77.5533	1,803.22	78.0274	1,803.22	78.2893	1,803.22	78.3476	1,803.22	78.0546	1,803.22	75.2496	1,803.22	70.4643	1,803.22	71.1711	1,803.22	73.9852	1,803.22	75.7692	1,803.22	77.8173	1,803.22	74.5057	1,803.22	75.5144	1,803.22	67.6318	1,803.22	71.778	1,803.22	66.7156	1,803.22	68.3164	1,803.22	72.4887	1,803.22	75.0763	1,803.22	79.7364	1,803.22	77.7299	1,803.22	80.1496
1,866.21	86.9553	1,866.21	87.024	1,866.21	86.7159	1,866.21	86.123	1,866.21	85.5332	1,866.21	85.6669	1,866.21	85.2493	1,866.21	84.3014	1,866.21	83.3045	1,866.21	82.5054	1,866.21	82.7809	1,866.21	81.2529	1,866.21	79.3496	1,866.21	76.4509	1,866.21	74.0151	1,866.21	77.7178	1,866.21	73.9964	1,866.21	78.782	1,866.21	75.2539	1,866.21	76.2188	1,866.21	69.3272	1,866.21	67.3278	1,866.21	62.0079	1,866.21	74.6145	1,866.21	74.1493	1,866.21	77.8833	1,866.21	78.1031	1,866.21	73.5005	1,866.21	73.1976	1,866.21	63.5082	1,866.21	73.2699	1,866.21	75.3274	1,866.21	71.1019	1,866.21	77.7293	1,866.21	78.8877	1,866.21	78.9576
1,932.13	86.7975	1,932.13	86.6049	1,932.13	86.1954	1,932.13	85.7144	1,932.13	85.4526	1,932.13	84.4613	1,932.13	83.836	1,932.13	82.9678	1,932.13	81.9363	1,932.13	81.9936	1,932.13	80.7064	1,932.13	80.4412	1,932.13	79.5951	1,932.13	77.3167	1,932.13	76.1097	1,932.13	76.3447	1,932.13	73.3229	1,932.13	76.3104	1,932.13	74.8027	1,932.13	75.5157	1,932.13	73.0825	1,932.13	66.6639	1,932.13	64.7135	1,932.13	72.6959	1,932.13	69.3833	1,932.13	75.3422	1,932.13	74.5425	1,932.13	74.1068	1,932.13	74.1878	1,932.13	68.1824	1,932.13	68.4842	1,932.13	65.7338	1,932.13	65.4718	1,932.13	74.8998	1,932.13	73.0785	1,932.13	74.5529
1,999.51	86.6915	1,999.51	86.2001	1,999.51	86.3924	1,999.51	85.3378	1,999.51	85.7404	1,999.51	84.0065	1,999.51	84.3298	1,999.51	82.3254	1,999.51	82.8818	1,999.51	80.5477	1,999.51	81.3395	1,999.51	78.9201	1,999.51	79.961	1,999.51	76.1162	1,999.51	77.6739	1,999.51	73.449	1,999.51	74.8186	1,999.51	74.0314	1,999.51	74.5364	1,999.51	73.4884	1,999.51	74.5125	1,999.51	69.0625	1,999.51	71.3263	1,999.51	66.8715	1,999.51	67.012	1,999.51	72.6218	1,999.51	73.2906	1,999.51	73.6889	1,999.51	74.7283	1,999.51	68.0485	1,999.51	71.576	1,999.51	62.4976	1,999.51	42.6889	1,999.51	70.6626	1,999.51	70.4174	1,999.51	72.4216
2,069.82	87.3722	2,069.82	86.9543	2,069.82	87.2671	2,069.82	86.0914	2,069.82	86.5835	2,069.82	84.6648	2,069.82	85.5463	2,069.82	83.0466	2,069.82	83.8741	2,069.82	81.0101	2,069.82	82.5082	2,069.82	79.2236	2,069.82	81.0029	2,069.82	76.6741	2,069.82	79.5643	2,069.82	74.3702	2,069.82	76.6495	2,069.82	72.9261	2,069.82	75.5001	2,069.82	73.2505	2,069.82	74.7058	2,069.82	70.8124	2,069.82	72.5818	2,069.82	65.6786	2,069.82	66.7442	2,069.82	70.5237	2,069.82	72.8083	2,069.82	72.8219	2,069.82	74.5485	2,069.82	70.6264	2,069.82	71.7068	2,069.82	59.1599	2,069.82	57.7807	2,069.82	69.8646	2,069.82	64.3274	2,069.82	71.4035
2,143.07	87.5087	2,143.07	87.3041	2,143.07	87.3301	2,143.07	86.241	2,143.07	86.6727	2,143.07	84.8646	2,143.07	85.4408	2,143.07	83.064	2,143.07	83.8039	2,143.07	81.5645	2,143.07	82.469	2,143.07	79.7864	2,143.07	80.9416	2,143.07	77.036	2,143.07	79.1131	2,143.07	75.6946	2,143.07	77.3608	2,143.07	73.7415	2,143.07	75.0262	2,143.07	72.7701	2,143.07	73.922	2,143.07	72.455	2,143.07	72.8117	2,143.07	69.4749	2,143.07	71.0803	2,143.07	70.2034	2,143.07	69.9114	2,143.07	72.9251	2,143.07	73.3676	2,143.07	72.1382	2,143.07	73.0218	2,143.07	64.5781	2,143.07	65.7499	2,143.07	55.4805	2,143.07	63.5749	2,143.07	67.8411
2,219.24	87.0349	2,219.24	86.4296	2,219.24	86.7983	2,219.24	85.4033	2,219.24	86.1285	2,219.24	84.1135	2,219.24	84.8147	2,219.24	82.3741	2,219.24	83.1527	2,219.24	80.6424	2,219.24	81.4182	2,219.24	79.2915	2,219.24	79.8786	2,219.24	77.3462	2,219.24	78.0044	2,219.24	74.795	2,219.24	76.0929	2,219.24	74.2532	2,219.24	74.978	2,219.24	72.4589	2,219.24	74.1891	2,219.24	70.621	2,219.24	72.0447	2,219.24	71.6505	2,219.24	71.2687	2,219.24	67.6573	2,219.24	69.9943	2,219.24	70.5142	2,219.24	70.9186	2,219.24	71.453	2,219.24	71.7433	2,219.24	68.1803	2,219.24	66.0773	2,219.24	67.3462	2,219.24	66.5085	2,219.24	68.8934
2,296.88	87.2616	2,296.88	86.5948	2,296.88	87.1171	2,296.88	85.783	2,296.88	86.5105	2,296.88	84.3398	2,296.88	85.2941	2,296.88	82.7374	2,296.88	83.5664	2,296.88	80.8664	2,296.88	81.8154	2,296.88	78.7643	2,296.88	80.2318	2,296.88	77.9349	2,296.88	78.9342	2,296.88	75.5062	2,296.88	76.5761	2,296.88	73.649	2,296.88	75.3898	2,296.88	72.8904	2,296.88	73.9576	2,296.88	68.1437	2,296.88	72.2532	2,296.88	69.9837	2,296.88	72.3436	2,296.88	70.2634	2,296.88	71.9735	2,296.88	69.5448	2,296.88	71.6706	2,296.88	70.2187	2,296.88	69.652	2,296.88	66.6989	2,296.88	68.8597	2,296.88	65.2515	2,296.88	70.0445	2,296.88	68.6554
2,378.91	88.0944	2,378.91	87.7738	2,378.91	87.7615	2,378.91	86.7553	2,378.91	87.2074	2,378.91	85.6896	2,378.91	85.8626	2,378.91	83.8213	2,378.91	84.2776	2,378.91	81.5509	2,378.91	82.3371	2,378.91	79.7365	2,378.91	80.6521	2,378.91	78.4604	2,378.91	79.1434	2,378.91	76.1392	2,378.91	76.6682	2,378.91	74.7764	2,378.91	74.8249	2,378.91	73.9729	2,378.91	75.4116	2,378.91	70.9535	2,378.91	71.2393	2,378.91	70.5298	2,378.91	71.7194	2,378.91	70.4518	2,378.91	70.9132	2,378.91	69.2919	2,378.91	69.7294	2,378.91	69.255	2,378.91	71.8795	2,378.91	65.2864	2,378.91	68.6736	2,378.91	68.524	2,378.91	70.2067	2,378.91	72.546
2,462.4	87.5588	2,462.4	87.1878	2,462.4	87.4446	2,462.4	86.3786	2,462.4	86.5211	2,462.4	84.9816	2,462.4	85.4279	2,462.4	83.7572	2,462.4	83.4314	2,462.4	81.834	2,462.4	81.7538	2,462.4	80.1615	2,462.4	80.1354	2,462.4	78.3954	2,462.4	78.4373	2,462.4	77.0818	2,462.4	76.5413	2,462.4	74.9897	2,462.4	74.6859	2,462.4	73.4718	2,462.4	73.4094	2,462.4	72.8191	2,462.4	72.4981	2,462.4	71.3133	2,462.4	72.1332	2,462.4	70.486	2,462.4	69.7655	2,462.4	70.115	2,462.4	69.0942	2,462.4	71.0466	2,462.4	69.651	2,462.4	66.8937	2,462.4	68.8877	2,462.4	69.2232	2,462.4	67.5533	2,462.4	71.184
2,548.83	87.283	2,548.83	87.0777	2,548.83	87.1792	2,548.83	85.8991	2,548.83	86.4985	2,548.83	84.5277	2,548.83	85.3135	2,548.83	82.7851	2,548.83	83.894	2,548.83	81.6897	2,548.83	82.295	2,548.83	80.2796	2,548.83	80.1484	2,548.83	78.5639	2,548.83	79.1036	2,548.83	77.8265	2,548.83	77.0594	2,548.83	73.5356	2,548.83	74.4095	2,548.83	74.4728	2,548.83	73.1289	2,548.83	71.7985	2,548.83	72.0865	2,548.83	70.4599	2,548.83	71.5667	2,548.83	71.4509	2,548.83	72.5737	2,548.83	67.5939	2,548.83	68.3597	2,548.83	68.9643	2,548.83	68.9052	2,548.83	68.9293	2,548.83	70.5465	2,548.83	69.2769	2,548.83	70.8468	2,548.83	71.0518
2,639.65	87.5654	2,639.65	87.5102	2,639.65	87.0998	2,639.65	86.4158	2,639.65	86.7318	2,639.65	85.4268	2,639.65	85.034	2,639.65	83.0892	2,639.65	83.9185	2,639.65	81.379	2,639.65	82.3841	2,639.65	80.5566	2,639.65	80.4121	2,639.65	78.6315	2,639.65	78.8193	2,639.65	76.2563	2,639.65	77.1423	2,639.65	75.0704	2,639.65	75.0995	2,639.65	73.1684	2,639.65	73.8994	2,639.65	70.5054	2,639.65	72.4074	2,639.65	70.1407	2,639.65	70.3677	2,639.65	71.0261	2,639.65	72.4512	2,639.65	69.6767	2,639.65	69.4327	2,639.65	70.9289	2,639.65	69.9084	2,639.65	67.8099	2,639.65	66.5059	2,639.65	69.9334	2,639.65	67.7014	2,639.65	71.4114
2,731.93	87.2977	2,731.93	86.996	2,731.93	86.8013	2,731.93	86.3265	2,731.93	86.0716	2,731.93	85.1991	2,731.93	84.6006	2,731.93	83.2029	2,731.93	83.4122	2,731.93	81.6957	2,731.93	81.6176	2,731.93	79.9086	2,731.93	79.922	2,731.93	78.6969	2,731.93	77.8136	2,731.93	75.1649	2,731.93	75.9671	2,731.93	74.6538	2,731.93	74.5415	2,731.93	71.9689	2,731.93	73.9731	2,731.93	71.6024	2,731.93	71.161	2,731.93	70.6738	2,731.93	67.6707	2,731.93	71.3788	2,731.93	70.7024	2,731.93	69.6874	2,731.93	69.2224	2,731.93	70.3489	2,731.93	69.2118	2,731.93	69.0634	2,731.93	66.6576	2,731.93	66.7176	2,731.93	66.8984	2,731.93	68.2416
2,828.61	86.9149	2,828.61	86.4384	2,828.61	87.0213	2,828.61	86.0859	2,828.61	85.8278	2,828.61	84.4291	2,828.61	85.0454	2,828.61	83.7357	2,828.61	83.6545	2,828.61	82.1925	2,828.61	82.0128	2,828.61	79.5934	2,828.61	80.4505	2,828.61	77.4173	2,828.61	78.2935	2,828.61	75.8228	2,828.61	77.1682	2,828.61	73.669	2,828.61	75.9226	2,828.61	72.776	2,828.61	73.3075	2,828.61	71.7599	2,828.61	70.8996	2,828.61	69.3913	2,828.61	69.0263	2,828.61	69.5207	2,828.61	68.6419	2,828.61	69.8513	2,828.61	70.1893	2,828.61	68.5055	2,828.61	69.5539	2,828.61	65.2139	2,828.61	67.6994	2,828.61	65.9843	2,828.61	66.5221	2,828.61	70.4264
2,928.22	86.6178	2,928.22	86.4499	2,928.22	86.5896	2,928.22	85.79	2,928.22	85.6292	2,928.22	84.7188	2,928.22	84.9181	2,928.22	83.8903	2,928.22	83.464	2,928.22	82.5106	2,928.22	81.8916	2,928.22	80.1283	2,928.22	80.5562	2,928.22	78.3179	2,928.22	78.1894	2,928.22	76.9703	2,928.22	76.0254	2,928.22	74.673	2,928.22	74.533	2,928.22	73.525	2,928.22	72.4355	2,928.22	71.8473	2,928.22	70.6702	2,928.22	68.9921	2,928.22	69.8837	2,928.22	69.3378	2,928.22	68.362	2,928.22	69.4318	2,928.22	68.9826	2,928.22	70.9144	2,928.22	71.2262	2,928.22	66.8691	2,928.22	66.9518	2,928.22	63.1889	2,928.22	66.219	2,928.22	69.1961
3,030.76	85.8592	3,030.76	85.6595	3,030.76	86.0709	3,030.76	84.9667	3,030.76	85.0836	3,030.76	83.8602	3,030.76	84.2204	3,030.76	82.6764	3,030.76	83.0329	3,030.76	81.7317	3,030.76	81.3238	3,030.76	79.6256	3,030.76	79.1203	3,030.76	77.8418	3,030.76	77.3493	3,030.76	76.6933	3,030.76	75.4784	3,030.76	73.5736	3,030.76	73.7388	3,030.76	72.7958	3,030.76	71.4739	3,030.76	71.505	3,030.76	71.4377	3,030.76	68.7163	3,030.76	69.3084	3,030.76	69.4188	3,030.76	69.2425	3,030.76	67.767	3,030.76	68.2819	3,030.76	69.9188	3,030.76	69.9711	3,030.76	68.0228	3,030.76	69.4973	3,030.76	65.3524	3,030.76	63.1471	3,030.76	67.7114
3,137.7	86.9433	3,137.7	86.7055	3,137.7	86.4407	3,137.7	85.864	3,137.7	86.1228	3,137.7	85.0786	3,137.7	84.9815	3,137.7	83.7937	3,137.7	84.0317	3,137.7	82.4596	3,137.7	82.2625	3,137.7	80.9743	3,137.7	80.6372	3,137.7	79.2352	3,137.7	78.1413	3,137.7	76.0775	3,137.7	76.2664	3,137.7	74.0715	3,137.7	74.6564	3,137.7	71.5177	3,137.7	71.613	3,137.7	70.8722	3,137.7	71.9533	3,137.7	68.6562	3,137.7	68.8966	3,137.7	69.3003	3,137.7	70.6023	3,137.7	67.249	3,137.7	68.7689	3,137.7	70.9998	3,137.7	70.6842	3,137.7	70.2026	3,137.7	69.6997	3,137.7	66.0863	3,137.7	64.9002	3,137.7	68.4757
3,249.02	87.3879	3,249.02	87.1792	3,249.02	86.9494	3,249.02	86.4093	3,249.02	86.5573	3,249.02	85.8967	3,249.02	85.6338	3,249.02	84.7399	3,249.02	84.5182	3,249.02	82.4712	3,249.02	83.0569	3,249.02	81.577	3,249.02	81.3973	3,249.02	79.5633	3,249.02	79.0954	3,249.02	76.3665	3,249.02	77.0844	3,249.02	74.808	3,249.02	75.1417	3,249.02	72.8553	3,249.02	72.3495	3,249.02	71.5978	3,249.02	71.6778	3,249.02	69.0153	3,249.02	69.3289	3,249.02	70.2341	3,249.02	71.0196	3,249.02	68.2316	3,249.02	68.4944	3,249.02	71.3819	3,249.02	71.4621	3,249.02	70.9554	3,249.02	70.8133	3,249.02	64.8308	3,249.02	64.3224	3,249.02	68.4047
3,363.28	87.6755	3,363.28	87.3707	3,363.28	87.3601	3,363.28	86.9647	3,363.28	86.6838	3,363.28	86.3754	3,363.28	86.0683	3,363.28	85.2167	3,363.28	84.7693	3,363.28	83.2025	3,363.28	83.5298	3,363.28	81.5408	3,363.28	81.8231	3,363.28	78.8376	3,363.28	79.9225	3,363.28	76.6797	3,363.28	77.5568	3,363.28	75.6508	3,363.28	74.3689	3,363.28	73.6343	3,363.28	72.6168	3,363.28	71.7582	3,363.28	71.6171	3,363.28	68.8926	3,363.28	68.3075	3,363.28	70.224	3,363.28	68.7963	3,363.28	68.6082	3,363.28	69.2041	3,363.28	70.9138	3,363.28	71.0746	3,363.28	71.1022	3,363.28	71.4947	3,363.28	62.1871	3,363.28	65.1957	3,363.28	67.2797
3,481.93	88.0624	3,481.93	87.7205	3,481.93	88.3668	3,481.93	87.5168	3,481.93	87.5347	3,481.93	87.2125	3,481.93	87.2151	3,481.93	85.9066	3,481.93	86.3156	3,481.93	84.8816	3,481.93	85.0316	3,481.93	82.4523	3,481.93	82.5167	3,481.93	80.2292	3,481.93	80.4954	3,481.93	78.1318	3,481.93	78.6085	3,481.93	76.3034	3,481.93	76.2393	3,481.93	73.8166	3,481.93	73.5846	3,481.93	71.6718	3,481.93	72.0741	3,481.93	71.2969	3,481.93	71.3328	3,481.93	69.0557	3,481.93	69.5033	3,481.93	70.4686	3,481.93	70.9217	3,481.93	70.8985	3,481.93	69.6769	3,481.93	71.7355	3,481.93	71.8739	3,481.93	67.449	3,481.93	66.054	3,481.93	69.641
3,604.98	88.3422	3,604.98	88.4664	3,604.98	88.284	3,604.98	88.095	3,604.98	88.4104	3,604.98	87.6705	3,604.98	87.8168	3,604.98	87.0159	3,604.98	86.7829	3,604.98	85.7918	3,604.98	85.0775	3,604.98	83.4479	3,604.98	82.985	3,604.98	80.8078	3,604.98	80.794	3,604.98	78.8816	3,604.98	79.0417	3,604.98	76.7291	3,604.98	75.5689	3,604.98	74.9024	3,604.98	73.9941	3,604.98	72.8185	3,604.98	70.2481	3,604.98	71.3788	3,604.98	71.5132	3,604.98	69.3049	3,604.98	68.7669	3,604.98	71.6559	3,604.98	71.8555	3,604.98	69.8796	3,604.98	70.0754	3,604.98	71.436	3,604.98	71.3518	3,604.98	69.0357	3,604.98	67.9728	3,604.98	71.6153
3,732.42	88.0043	3,732.42	88.1272	3,732.42	88.221	3,732.42	88.0233	3,732.42	88.3847	3,732.42	87.659	3,732.42	87.9456	3,732.42	86.477	3,732.42	87.1424	3,732.42	85.3126	3,732.42	85.3668	3,732.42	83.2169	3,732.42	83.2274	3,732.42	80.9006	3,732.42	81.2074	3,732.42	78.4436	3,732.42	78.0805	3,732.42	76.3783	3,732.42	75.9978	3,732.42	73.3921	3,732.42	73.8264	3,732.42	71.5978	3,732.42	71.8872	3,732.42	71.1953	3,732.42	71.5591	3,732.42	67.9916	3,732.42	66.9655	3,732.42	70.0583	3,732.42	70.3579	3,732.42	70.7681	3,732.42	71.848	3,732.42	71.3512	3,732.42	71.0657	3,732.42	65.4153	3,732.42	66.5146	3,732.42	70.8555
3,864.26	87.7949	3,864.26	88.3213	3,864.26	87.9195	3,864.26	88.6181	3,864.26	88.3803	3,864.26	88.0478	3,864.26	87.9444	3,864.26	87.4626	3,864.26	86.8608	3,864.26	85.3097	3,864.26	85.0126	3,864.26	83.2946	3,864.26	83.2141	3,864.26	81.0302	3,864.26	81.112	3,864.26	78.4889	3,864.26	78.2018	3,864.26	77.1668	3,864.26	76.5891	3,864.26	72.5502	3,864.26	73.4787	3,864.26	72.8762	3,864.26	72.4977	3,864.26	71.5449	3,864.26	69.6155	3,864.26	68.8741	3,864.26	68.4112	3,864.26	69.4381	3,864.26	69.1444	3,864.26	72.3479	3,864.26	71.1738	3,864.26	71.4247	3,864.26	71.8238	3,864.26	65.7216	3,864.26	65.5695	3,864.26	71.2905
4,000.49	88.3435	4,000.49	88.6212	4,000.49	88.4933	4,000.49	88.3419	4,000.49	88.2262	4,000.49	88.1514	4,000.49	87.8973	4,000.49	87.0479	4,000.49	86.6446	4,000.49	84.4391	4,000.49	84.5967	4,000.49	82.1996	4,000.49	83.2288	4,000.49	79.7815	4,000.49	80.3864	4,000.49	77.7301	4,000.49	77.5766	4,000.49	74.5964	4,000.49	75.4629	4,000.49	74.0381	4,000.49	73.6414	4,000.49	71.7194	4,000.49	71.8606	4,000.49	70.0211	4,000.49	70.2978	4,000.49	68.4185	4,000.49	70.4028	4,000.49	68.1711	4,000.49	67.0748	4,000.49	69.6751	4,000.49	69.1629	4,000.49	70.4735	4,000.49	72.841	4,000.49	60.5342	4,000.49	64.0283	4,000.49	69.4181
4,141.11	88.5262	4,141.11	87.8789	4,141.11	89.0329	4,141.11	88.4032	4,141.11	88.1892	4,141.11	87.8908	4,141.11	87.7017	4,141.11	86.1526	4,141.11	86.7386	4,141.11	84.8175	4,141.11	85.0964	4,141.11	82.8165	4,141.11	82.486	4,141.11	81.1469	4,141.11	79.9998	4,141.11	78.8563	4,141.11	78.1513	4,141.11	76.1899	4,141.11	75.8985	4,141.11	74.4667	4,141.11	73.4098	4,141.11	71.5557	4,141.11	72.0841	4,141.11	70.8288	4,141.11	69.6078	4,141.11	69.6318	4,141.11	65.9604	4,141.11	67.3536	4,141.11	67.6301	4,141.11	68.0582	4,141.11	70.0015	4,141.11	72.1655	4,141.11	71.9385	4,141.11	62.4697	4,141.11	61.6962	4,141.11	68.3199
4,287.6	88.1281	4,287.6	88.3506	4,287.6	87.9285	4,287.6	88.1531	4,287.6	88.6962	4,287.6	87.4435	4,287.6	87.9222	4,287.6	86.3646	4,287.6	87.2058	4,287.6	84.4526	4,287.6	85.3226	4,287.6	82.3867	4,287.6	82.4089	4,287.6	79.9574	4,287.6	79.6597	4,287.6	77.6905	4,287.6	77.8442	4,287.6	74.7364	4,287.6	75.8328	4,287.6	72.4292	4,287.6	73.5907	4,287.6	70.5959	4,287.6	71.1138	4,287.6	70.5614	4,287.6	70.776	4,287.6	68.5563	4,287.6	69.7629	4,287.6	69.6827	4,287.6	69.4153	4,287.6	69.9259	4,287.6	69.4845	4,287.6	72.0746	4,287.6	70.8433	4,287.6	60.9557	4,287.6	65.6769	4,287.6	68.2969
4,438.48	87.4111	4,438.48	88.3048	4,438.48	87.8123	4,438.48	87.9287	4,438.48	88.0064	4,438.48	88.0306	4,438.48	88.1579	4,438.48	87.4774	4,438.48	86.0245	4,438.48	85.4592	4,438.48	83.7505	4,438.48	82.8819	4,438.48	82.151	4,438.48	80.9079	4,438.48	79.9804	4,438.48	78.6406	4,438.48	78.5774	4,438.48	76.6304	4,438.48	75.3028	4,438.48	76.0092	4,438.48	74.0177	4,438.48	72.1364	4,438.48	70.943	4,438.48	68.3027	4,438.48	70.8867	4,438.48	68.5735	4,438.48	69.5086	4,438.48	68.5244	4,438.48	67.4554	4,438.48	69.969	4,438.48	67.849	4,438.48	72.3458	4,438.48	71.8736	4,438.48	61.1642	4,438.48	63.8193	4,438.48	67.9804
4,595.21	88.422	4,595.21	88.2445	4,595.21	88.861	4,595.21	88.9643	4,595.21	88.4621	4,595.21	88.1024	4,595.21	87.857	4,595.21	86.4066	4,595.21	86.591	4,595.21	84.8573	4,595.21	84.4645	4,595.21	82.8092	4,595.21	82.9222	4,595.21	80.386	4,595.21	81.2001	4,595.21	78.2178	4,595.21	77.3766	4,595.21	74.5563	4,595.21	76.3742	4,595.21	74.104	4,595.21	73.8283	4,595.21	70.5718	4,595.21	71.9474	4,595.21	68.4461	4,595.21	69.0708	4,595.21	67.2494	4,595.21	70.6675	4,595.21	67.5978	4,595.21	68.0691	4,595.21	68.5412	4,595.21	69.3513	4,595.21	71.2603	4,595.21	71.8048	4,595.21	64.4081	4,595.21	63.9714	4,595.21	68.1479
4,756.35	86.5888	4,756.35	86.8872	4,756.35	86.5235	4,756.35	86.759	4,756.35	86.8929	4,756.35	86.6738	4,756.35	85.9669	4,756.35	85.4479	4,756.35	85.6739	4,756.35	83.4154	4,756.35	84.4626	4,756.35	82.5727	4,756.35	82.1208	4,756.35	81.4225	4,756.35	79.7651	4,756.35	78.413	4,756.35	78.4998	4,756.35	75.4945	4,756.35	75.4752	4,756.35	72.1136	4,756.35	72.4812	4,756.35	72.9577	4,756.35	70.1966	4,756.35	70.4465	4,756.35	69.2057	4,756.35	69.388	4,756.35	67.4739	4,756.35	65.2356	4,756.35	67.9348	4,756.35	69.7383	4,756.35	68.0098	4,756.35	71.6076	4,756.35	69.27	4,756.35	65.5271	4,756.35	66.0427	4,756.35	68.3975
4,924.8	86.7613	4,924.8	87.3567	4,924.8	87.8156	4,924.8	87.3288	4,924.8	87.8986	4,924.8	87.3023	4,924.8	87.5759	4,924.8	86.575	4,924.8	86.4092	4,924.8	85.0147	4,924.8	84.6748	4,924.8	82.5835	4,924.8	83.2043	4,924.8	79.9246	4,924.8	80.8335	4,924.8	76.5547	4,924.8	77.213	4,924.8	76.2475	4,924.8	76.4283	4,924.8	73.7456	4,924.8	73.7783	4,924.8	70.8529	4,924.8	72.1324	4,924.8	67.9489	4,924.8	68.7946	4,924.8	69.4197	4,924.8	67.8763	4,924.8	66.8467	4,924.8	66.8247	4,924.8	67.6519	4,924.8	69.4434	4,924.8	69.3049	4,924.8	70.5181	4,924.8	65.7904	4,924.8	66.9506	4,924.8	66.4375
5,097.66	86.6321	5,097.66	86.6361	5,097.66	87.0131	5,097.66	87.921	5,097.66	87.2446	5,097.66	87.0198	5,097.66	87.4672	5,097.66	86.5215	5,097.66	86.3181	5,097.66	84.8017	5,097.66	84.7772	5,097.66	82.8425	5,097.66	82.7539	5,097.66	79.895	5,097.66	80.9335	5,097.66	78.4175	5,097.66	78.9473	5,097.66	75.6506	5,097.66	75.9966	5,097.66	75.8525	5,097.66	73.3011	5,097.66	71.6016	5,097.66	70.7822	5,097.66	69.6321	5,097.66	69.3937	5,097.66	68.1411	5,097.66	68.3008	5,097.66	69.9405	5,097.66	67.6305	5,097.66	69.2948	5,097.66	69.027	5,097.66	70.1147	5,097.66	69.2747	5,097.66	67.8791	5,097.66	66.0812	5,097.66	66.0192
5,277.83	87.8762	5,277.83	88.5856	5,277.83	87.8597	5,277.83	88.7676	5,277.83	88.6788	5,277.83	89.1223	5,277.83	88.0902	5,277.83	88.0434	5,277.83	87.7117	5,277.83	86.7015	5,277.83	86.4756	5,277.83	84.5403	5,277.83	84.212	5,277.83	82.5753	5,277.83	81.4938	5,277.83	80.2238	5,277.83	79.634	5,277.83	76.7676	5,277.83	76.0459	5,277.83	72.2332	5,277.83	73.4891	5,277.83	71.9925	5,277.83	72.7705	5,277.83	69.2333	5,277.83	69.8185	5,277.83	67.3581	5,277.83	68.3312	5,277.83	66.6953	5,277.83	67.4914	5,277.83	70.8129	5,277.83	70.5038	5,277.83	70.9844	5,277.83	68.7937	5,277.83	67.7568	5,277.83	67.8751	5,277.83	67.4934
5,463.87	87.9713	5,463.87	88.3968	5,463.87	88.6647	5,463.87	88.2474	5,463.87	88.8173	5,463.87	87.8694	5,463.87	88.8727	5,463.87	87.1593	5,463.87	87.7776	5,463.87	85.4893	5,463.87	86.1531	5,463.87	83.7977	5,463.87	84.8522	5,463.87	81.8484	5,463.87	82.62	5,463.87	78.9296	5,463.87	77.8093	5,463.87	76.9928	5,463.87	76.7665	5,463.87	72.0988	5,463.87	73.8125	5,463.87	71.3992	5,463.87	72.7727	5,463.87	69.63	5,463.87	69.9472	5,463.87	68.5581	5,463.87	66.8779	5,463.87	63.1584	5,463.87	65.7602	5,463.87	69.7052	5,463.87	69.1227	5,463.87	69.0966	5,463.87	68.5258	5,463.87	66.9727	5,463.87	66.8316	5,463.87	65.306
5,657.23	87.9094	5,657.23	88.139	5,657.23	88.2882	5,657.23	88.6606	5,657.23	88.7585	5,657.23	88.5053	5,657.23	88.463	5,657.23	88.2711	5,657.23	87.6858	5,657.23	86.6664	5,657.23	86.4288	5,657.23	85.1534	5,657.23	84.823	5,657.23	82.2615	5,657.23	81.9545	5,657.23	80.5828	5,657.23	79.7579	5,657.23	77.4045	5,657.23	77.1577	5,657.23	76.5828	5,657.23	74.9235	5,657.23	71.9799	5,657.23	72.0668	5,657.23	70.8616	5,657.23	70.8692	5,657.23	67.8022	5,657.23	68.3713	5,657.23	67.3878	5,657.23	65.8301	5,657.23	70.9832	5,657.23	69.3788	5,657.23	68.9381	5,657.23	69.6858	5,657.23	69.0035	5,657.23	69.365	5,657.23	67.0437
5,856.45	87.5962	5,856.45	87.8047	5,856.45	87.5836	5,856.45	88.0785	5,856.45	88.2444	5,856.45	88.2272	5,856.45	87.5911	5,856.45	87.595	5,856.45	87.7952	5,856.45	86.1633	5,856.45	86.6896	5,856.45	84.1885	5,856.45	84.4299	5,856.45	81.878	5,856.45	82.613	5,856.45	78.8203	5,856.45	79.7651	5,856.45	75.8566	5,856.45	76.7391	5,856.45	72.3163	5,856.45	74.3468	5,856.45	70.4143	5,856.45	71.8732	5,856.45	68.996	5,856.45	71.0804	5,856.45	67.8328	5,856.45	68.2997	5,856.45	64.5937	5,856.45	63.9132	5,856.45	68.5345	5,856.45	68.2153	5,856.45	68.357	5,856.45	69.457	5,856.45	66.0046	5,856.45	67.8974	5,856.45	65.9378
6,062.99	87.7608	6,062.99	87.9048	6,062.99	88.1136	6,062.99	87.9668	6,062.99	87.6019	6,062.99	87.7431	6,062.99	88.2737	6,062.99	87.3987	6,062.99	87.7336	6,062.99	85.7306	6,062.99	86.0563	6,062.99	83.4369	6,062.99	84.8066	6,062.99	82.0847	6,062.99	81.9224	6,062.99	77.7661	6,062.99	78.5895	6,062.99	75.8928	6,062.99	77.1414	6,062.99	72.921	6,062.99	74.0303	6,062.99	71.4384	6,062.99	71.7856	6,062.99	69.0142	6,062.99	70.7202	6,062.99	71.6849	6,062.99	67.3782	6,062.99	67.7564	6,062.99	66.1439	6,062.99	68.8915	6,062.99	70.3686	6,062.99	69.3697	6,062.99	69.3132	6,062.99	67.1547	6,062.99	69.3622	6,062.99	65.0372
6,276.86	88.5432	6,276.86	88.3678	6,276.86	88.1759	6,276.86	88.0117	6,276.86	88.3141	6,276.86	88.1542	6,276.86	88.0172	6,276.86	88.0961	6,276.86	88.4033	6,276.86	86.4058	6,276.86	87.1722	6,276.86	83.9889	6,276.86	84.3897	6,276.86	80.5067	6,276.86	81.4605	6,276.86	79.0211	6,276.86	79.5021	6,276.86	76.1043	6,276.86	77.2206	6,276.86	75.0104	6,276.86	73.3234	6,276.86	72.2092	6,276.86	72.3637	6,276.86	70.2419	6,276.86	69.4123	6,276.86	64.6495	6,276.86	69.5082	6,276.86	64.6819	6,276.86	67.4115	6,276.86	69.6534	6,276.86	69.5737	6,276.86	68.6059	6,276.86	69.6665	6,276.86	66.517	6,276.86	68.7669	6,276.86	65.0638
6,498.05	88.3213	6,498.05	87.9912	6,498.05	88.0831	6,498.05	87.7778	6,498.05	87.3888	6,498.05	88.4354	6,498.05	87.6617	6,498.05	88.3871	6,498.05	87.2659	6,498.05	86.8586	6,498.05	86.1626	6,498.05	84.3655	6,498.05	84.2153	6,498.05	82.0088	6,498.05	82.2669	6,498.05	79.759	6,498.05	78.9499	6,498.05	76.7313	6,498.05	76.3299	6,498.05	74.8209	6,498.05	74.3346	6,498.05	72.3342	6,498.05	71.9505	6,498.05	69.2783	6,498.05	67.5504	6,498.05	66.4286	6,498.05	66.6098	6,498.05	64.0224	6,498.05	66.6325	6,498.05	66.5668	6,498.05	68.0321	6,498.05	67.4592	6,498.05	67.9309	6,498.05	66.4684	6,498.05	67.7221	6,498.05	65.0151
6,726.56	88.3202	6,726.56	87.9455	6,726.56	87.7893	6,726.56	87.8471	6,726.56	87.7521	6,726.56	88.2403	6,726.56	87.8765	6,726.56	88.3125	6,726.56	87.9016	6,726.56	86.4385	6,726.56	85.9226	6,726.56	84.3687	6,726.56	83.6727	6,726.56	82.4818	6,726.56	81.0445	6,726.56	79.9815	6,726.56	78.6999	6,726.56	77.0196	6,726.56	76.5397	6,726.56	73.9786	6,726.56	73.6596	6,726.56	71.1536	6,726.56	71.5735	6,726.56	69.4853	6,726.56	69.2081	6,726.56	69.575	6,726.56	68.8926	6,726.56	67.2504	6,726.56	66.103	6,726.56	67.6228	6,726.56	67.5338	6,726.56	68.4523	6,726.56	67.9073	6,726.56	65.6573	6,726.56	68.1748	6,726.56	60.4864
6,963.87	87.8964	6,963.87	87.4636	6,963.87	87.655	6,963.87	87.3437	6,963.87	87.3334	6,963.87	87.8543	6,963.87	87.6502	6,963.87	87.7012	6,963.87	87.5799	6,963.87	85.5649	6,963.87	86.207	6,963.87	84.3534	6,963.87	84.0922	6,963.87	82.1411	6,963.87	82.0016	6,963.87	78.8952	6,963.87	78.5722	6,963.87	76.2053	6,963.87	76.1157	6,963.87	73.8223	6,963.87	73.3633	6,963.87	71.0263	6,963.87	71.2689	6,963.87	67.3854	6,963.87	69.7575	6,963.87	67.0451	6,963.87	66.7204	6,963.87	66.9012	6,963.87	65.6159	6,963.87	66.5589	6,963.87	64.7103	6,963.87	65.5526	6,963.87	67.0725	6,963.87	67.1566	6,963.87	68.0745	6,963.87	60.3535
7,209.96	87.5723	7,209.96	87.0282	7,209.96	87.3057	7,209.96	86.6651	7,209.96	86.7384	7,209.96	87.0535	7,209.96	87.4946	7,209.96	86.8216	7,209.96	87.0197	7,209.96	85.6238	7,209.96	85.2838	7,209.96	83.2881	7,209.96	83.8912	7,209.96	81.1341	7,209.96	81.3856	7,209.96	78.3568	7,209.96	78.1943	7,209.96	75.4619	7,209.96	75.8743	7,209.96	73.3414	7,209.96	73.2222	7,209.96	70.7171	7,209.96	70.6342	7,209.96	69.0501	7,209.96	67.7993	7,209.96	67.8699	7,209.96	67.9404	7,209.96	65.4949	7,209.96	64.1536	7,209.96	66.6465	7,209.96	65.8353	7,209.96	67.5207	7,209.96	66.4027	7,209.96	65.0167	7,209.96	67.1085	7,209.96	59.4619
7,464.84	87.5673	7,464.84	87.0132	7,464.84	87.0336	7,464.84	86.6437	7,464.84	86.8642	7,464.84	87.0256	7,464.84	86.7885	7,464.84	86.6849	7,464.84	86.4978	7,464.84	85.0234	7,464.84	85.5643	7,464.84	84.1433	7,464.84	83.5783	7,464.84	80.5783	7,464.84	80.6163	7,464.84	78.0374	7,464.84	77.8661	7,464.84	75.3868	7,464.84	74.9086	7,464.84	72.7268	7,464.84	72.6115	7,464.84	69.5647	7,464.84	69.0971	7,464.84	66.0891	7,464.84	69.1853	7,464.84	66.7392	7,464.84	65.6974	7,464.84	63.8162	7,464.84	63.9131	7,464.84	65.7783	7,464.84	62.1446	7,464.84	66.5319	7,464.84	65.2828	7,464.84	64.8059	7,464.84	66.035	7,464.84	61.8947
7,727.05	87.165	7,727.05	87.0044	7,727.05	86.7518	7,727.05	86.5392	7,727.05	86.5717	7,727.05	86.7615	7,727.05	86.4161	7,727.05	86.6803	7,727.05	85.9453	7,727.05	85.4836	7,727.05	84.8396	7,727.05	83.4264	7,727.05	82.9897	7,727.05	80.1971	7,727.05	80.2529	7,727.05	77.3924	7,727.05	76.6593	7,727.05	73.6273	7,727.05	73.7584	7,727.05	71.7765	7,727.05	70.7727	7,727.05	68.7862	7,727.05	68.8502	7,727.05	68.4021	7,727.05	64.9251	7,727.05	64.8879	7,727.05	62.7454	7,727.05	63.1079	7,727.05	61.9744	7,727.05	65.5539	7,727.05	60.6984	7,727.05	67.176	7,727.05	64.9062	7,727.05	64.133	7,727.05	64.7416	7,727.05	60.0907
7,999.51	87.4877	7,999.51	87.2329	7,999.51	87.0343	7,999.51	86.8489	7,999.51	86.7891	7,999.51	86.4556	7,999.51	86.2629	7,999.51	86.6832	7,999.51	86.2506	7,999.51	85.1081	7,999.51	84.976	7,999.51	82.9834	7,999.51	82.9289	7,999.51	80.1599	7,999.51	80.0905	7,999.51	76.6212	7,999.51	76.4025	7,999.51	74.6772	7,999.51	74.4358	7,999.51	71.3778	7,999.51	70.8421	7,999.51	68.9626	7,999.51	69.1207	7,999.51	67.8631	7,999.51	67.5501	7,999.51	62.2812	7,999.51	62.9749	7,999.51	59.6242	7,999.51	61.7294	7,999.51	61.4223	7,999.51	60.5173	7,999.51	66.874	7,999.51	66.0444	7,999.51	63.3674	7,999.51	63.9269	7,999.51	58.4734
8,282.23	88.1708	8,282.23	87.8711	8,282.23	87.9643	8,282.23	87.5282	8,282.23	87.2373	8,282.23	86.9839	8,282.23	86.3765	8,282.23	87.1399	8,282.23	86.0876	8,282.23	85.6591	8,282.23	84.7937	8,282.23	83.3457	8,282.23	82.1346	8,282.23	80.9393	8,282.23	78.9665	8,282.23	77.0991	8,282.23	75.9057	8,282.23	74.5495	8,282.23	73.4741	8,282.23	71.5755	8,282.23	70.2163	8,282.23	70.0764	8,282.23	69.418	8,282.23	67.8578	8,282.23	66.3241	8,282.23	64.1431	8,282.23	60.8205	8,282.23	63.7119	8,282.23	62.3913	8,282.23	61.5873	8,282.23	63.6706	8,282.23	67.0765	8,282.23	64.862	8,282.23	63.7351	8,282.23	65.313	8,282.23	58.4752
8,573.73	88.2561	8,573.73	88.1603	8,573.73	88.2622	8,573.73	87.4613	8,573.73	87.0316	8,573.73	86.8039	8,573.73	86.4909	8,573.73	86.8274	8,573.73	86.4823	8,573.73	85.2201	8,573.73	84.8291	8,573.73	82.0898	8,573.73	81.6649	8,573.73	78.3866	8,573.73	78.014	8,573.73	76.1506	8,573.73	74.5786	8,573.73	72.5724	8,573.73	72.1896	8,573.73	71.0592	8,573.73	70.5268	8,573.73	67.1128	8,573.73	67.9576	8,573.73	64.8238	8,573.73	65.818	8,573.73	63.1972	8,573.73	65.6072	8,573.73	61.1667	8,573.73	65.3134	8,573.73	61.7093	8,573.73	60.7494	8,573.73	65.8953	8,573.73	59.9017	8,573.73	60.9819	8,573.73	62.5576	8,573.73	55.4011
8,876.95	88.758	8,876.95	88.6515	8,876.95	88.7254	8,876.95	87.779	8,876.95	87.8844	8,876.95	86.9834	8,876.95	87.2517	8,876.95	87.1968	8,876.95	87.2086	8,876.95	84.8031	8,876.95	85.2693	8,876.95	81.8665	8,876.95	82.6785	8,876.95	77.9942	8,876.95	79.9749	8,876.95	75.5441	8,876.95	76.5801	8,876.95	73.0571	8,876.95	74.5	8,876.95	70.8296	8,876.95	70.8824	8,876.95	68.517	8,876.95	68.9953	8,876.95	65.0907	8,876.95	67.364	8,876.95	61.4052	8,876.95	57.2343	8,876.95	62.3501	8,876.95	62.8293	8,876.95	59.5371	8,876.95	59.1709	8,876.95	64.4772	8,876.95	63.7475	8,876.95	61.4934	8,876.95	63.0338	8,876.95	56.6688
9,188.96	88.8153	9,188.96	88.7615	9,188.96	88.9924	9,188.96	87.7453	9,188.96	88.1359	9,188.96	86.6923	9,188.96	87.3625	9,188.96	86.7781	9,188.96	87.2191	9,188.96	84.157	9,188.96	85.4718	9,188.96	81.6839	9,188.96	83.0811	9,188.96	79.2747	9,188.96	80.9255	9,188.96	75.5505	9,188.96	77.1583	9,188.96	73.1313	9,188.96	74.8989	9,188.96	69.515	9,188.96	71.0551	9,188.96	68.3595	9,188.96	69.6014	9,188.96	66.0542	9,188.96	67.8729	9,188.96	61.4875	9,188.96	62.9355	9,188.96	60.5018	9,188.96	62.2958	9,188.96	61.0456	9,188.96	61.8369	9,188.96	64.7786	9,188.96	65.1801	9,188.96	61.1955	9,188.96	61.2738	9,188.96	56.6439
9,514.16	88.4591	9,514.16	88.5353	9,514.16	88.6083	9,514.16	87.2736	9,514.16	87.6623	9,514.16	86.3052	9,514.16	86.8165	9,514.16	86.1562	9,514.16	86.4756	9,514.16	83.6703	9,514.16	84.4928	9,514.16	81.361	9,514.16	82.4367	9,514.16	78.7671	9,514.16	79.5449	9,514.16	74.9845	9,514.16	76.1308	9,514.16	72.1728	9,514.16	73.1684	9,514.16	68.351	9,514.16	69.4811	9,514.16	66.7445	9,514.16	69.1253	9,514.16	64.4121	9,514.16	65.2228	9,514.16	61.7501	9,514.16	60.0401	9,514.16	58.8577	9,514.16	57.9666	9,514.16	58.4732	9,514.16	60.6743	9,514.16	64.8743	9,514.16	65.3963	9,514.16	61.1377	9,514.16	60.5869	9,514.16	57.6874
9,849.61	87.59	9,849.61	87.4921	9,849.61	87.7149	9,849.61	86.1293	9,849.61	86.7232	9,849.61	85.4521	9,849.61	86.1839	9,849.61	84.7865	9,849.61	85.8631	9,849.61	82.5414	9,849.61	84.2971	9,849.61	80.6179	9,849.61	82.2544	9,849.61	77.0104	9,849.61	79.0024	9,849.61	73.6851	9,849.61	74.8839	9,849.61	70.2295	9,849.61	72.8317	9,849.61	68.1526	9,849.61	69.8969	9,849.61	66.0347	9,849.61	68.556	9,849.61	64.2749	9,849.61	65.5742	9,849.61	58.7266	9,849.61	63.4215	9,849.61	57.1556	9,849.61	60.9083	9,849.61	57.2138	9,849.61	59.9733	9,849.61	63.8323	9,849.61	65.1264	9,849.61	61.3242	9,849.61	60.4489	9,849.61	56.1359
10,196.8	87.0583	10,196.8	86.53	10,196.8	87.3117	10,196.8	85.1988	10,196.8	86.5554	10,196.8	84.3064	10,196.8	86.1435	10,196.8	83.617	10,196.8	86.0997	10,196.8	81.3004	10,196.8	84.9507	10,196.8	78.7486	10,196.8	82.8437	10,196.8	74.7007	10,196.8	79.713	10,196.8	71.8957	10,196.8	75.7379	10,196.8	69.1657	10,196.8	73.5265	10,196.8	65.3491	10,196.8	70.3215	10,196.8	64.3533	10,196.8	68.4288	10,196.8	62.2624	10,196.8	65.1265	10,196.8	56.3953	10,196.8	64.9848	10,196.8	56.9051	10,196.8	62.2987	10,196.8	54.1244	10,196.8	57.0623	10,196.8	61.7384	10,196.8	64.0352	10,196.8	60.4208	10,196.8	59.9963	10,196.8	53.6396
10,555.7	87.4139	10,555.7	86.6806	10,555.7	87.4082	10,555.7	85.7276	10,555.7	86.9025	10,555.7	84.5682	10,555.7	86.1658	10,555.7	84.1391	10,555.7	85.9964	10,555.7	82.2098	10,555.7	85.0737	10,555.7	79.6292	10,555.7	82.6254	10,555.7	75.9888	10,555.7	79.1997	10,555.7	72.066	10,555.7	75.5725	10,555.7	70.3549	10,555.7	73.0771	10,555.7	66.9682	10,555.7	69.7541	10,555.7	65.5993	10,555.7	68.4106	10,555.7	61.8715	10,555.7	65.2091	10,555.7	59.2404	10,555.7	63.4171	10,555.7	60.025	10,555.7	61.3397	10,555.7	56.2714	10,555.7	57.8837	10,555.7	60.073	10,555.7	63.3258	10,555.7	59.3126	10,555.7	58.9199	10,555.7	53.9606
10,927.7	87.731	10,927.7	87.1046	10,927.7	87.4108	10,927.7	86.4657	10,927.7	87.0259	10,927.7	85.1999	10,927.7	85.9705	10,927.7	85.0357	10,927.7	85.446	10,927.7	83.1448	10,927.7	84.2829	10,927.7	80.3536	10,927.7	81.5805	10,927.7	77.0185	10,927.7	78.1665	10,927.7	73.3962	10,927.7	74.1763	10,927.7	70.908	10,927.7	71.7256	10,927.7	67.9067	10,927.7	69.1524	10,927.7	66.2954	10,927.7	66.7695	10,927.7	61.8606	10,927.7	63.1056	10,927.7	61.7258	10,927.7	64.3726	10,927.7	61.3131	10,927.7	60.1449	10,927.7	56.902	10,927.7	57.9487	10,927.7	62.4732	10,927.7	63.6319	10,927.7	58.8574	10,927.7	57.6872	10,927.7	52.6124
11,313	88.1046	11,313	87.4849	11,313	87.5725	11,313	86.9779	11,313	87.0824	11,313	85.4027	11,313	85.6679	11,313	85.2224	11,313	84.975	11,313	83.1513	11,313	83.6812	11,313	80.7265	11,313	80.5146	11,313	76.9992	11,313	77.2204	11,313	73.5866	11,313	72.9161	11,313	70.6199	11,313	70.7015	11,313	67.3693	11,313	67.0577	11,313	65.1033	11,313	65.6992	11,313	61.9979	11,313	63.0143	11,313	60.6935	11,313	62.2099	11,313	59.2564	11,313	58.7139	11,313	58.5741	11,313	55.4227	11,313	62.4159	11,313	61.7891	11,313	57.1656	11,313	56.8559	11,313	53.8937
11,712.9	88.5672	11,712.9	87.9869	11,712.9	87.9905	11,712.9	87.6019	11,712.9	87.1557	11,712.9	85.6994	11,712.9	85.2183	11,712.9	85.3103	11,712.9	84.4974	11,712.9	82.9592	11,712.9	82.7216	11,712.9	80.3579	11,712.9	79.6963	11,712.9	76.4557	11,712.9	76.2808	11,712.9	72.7553	11,712.9	72.248	11,712.9	70.1992	11,712.9	69.2881	11,712.9	66.701	11,712.9	65.6035	11,712.9	64.0546	11,712.9	64.0194	11,712.9	62.3302	11,712.9	61.0936	11,712.9	61.1309	11,712.9	61.5801	11,712.9	57.7959	11,712.9	57.8414	11,712.9	56.0285	11,712.9	52.0022	11,712.9	60.458	11,712.9	59.1265	11,712.9	55.3304	11,712.9	54.1107	11,712.9	53.6491
12,126	88.9321	12,126	88.3143	12,126	88.5014	12,126	87.7318	12,126	87.5358	12,126	85.738	12,126	85.5128	12,126	85.1534	12,126	84.3517	12,126	82.5791	12,126	82.2134	12,126	79.6488	12,126	79.108	12,126	75.4223	12,126	75.2982	12,126	71.064	12,126	70.8752	12,126	68.9884	12,126	67.7473	12,126	65.2217	12,126	64.2265	12,126	63.7172	12,126	62.5849	12,126	60.4066	12,126	60.1902	12,126	59.3999	12,126	60.9923	12,126	56.8376	12,126	57.5799	12,126	54.6481	12,126	49.0194	12,126	59.1614	12,126	56.6642	12,126	53.0947	12,126	53.3419	12,126	49.3004
12,553.7	89.1678	12,553.7	88.7044	12,553.7	88.8638	12,553.7	87.5891	12,553.7	87.9989	12,553.7	85.6774	12,553.7	86.171	12,553.7	84.6318	12,553.7	84.4854	12,553.7	81.6967	12,553.7	82.2884	12,553.7	78.6233	12,553.7	78.8652	12,553.7	73.717	12,553.7	74.412	12,553.7	69.9122	12,553.7	69.9832	12,553.7	67.1486	12,553.7	67.2188	12,553.7	63.9759	12,553.7	64.6072	12,553.7	62.2504	12,553.7	62.4447	12,553.7	59.155	12,553.7	60.5672	12,553.7	58.8166	12,553.7	59.6788	12,553.7	56.039	12,553.7	57.0267	12,553.7	52.1352	12,553.7	49.0068	12,553.7	57.7182	12,553.7	55.7433	12,553.7	52.8222	12,553.7	49.8386	12,553.7	50.6383
12,996.1	89.4274	12,996.1	88.9679	12,996.1	89.239	12,996.1	87.6419	12,996.1	88.1548	12,996.1	85.5987	12,996.1	86.3184	12,996.1	83.6577	12,996.1	84.3295	12,996.1	80.2481	12,996.1	82.1134	12,996.1	76.2214	12,996.1	77.7951	12,996.1	70.5644	12,996.1	73.2826	12,996.1	67.0435	12,996.1	69.4597	12,996.1	64.7607	12,996.1	66.1903	12,996.1	61.7276	12,996.1	63.6401	12,996.1	59.6556	12,996.1	61.2059	12,996.1	57.3168	12,996.1	58.406	12,996.1	57.3995	12,996.1	57.1911	12,996.1	54.6415	12,996.1	55.8299	12,996.1	49.8536	12,996.1	47.4986	12,996.1	56.2088	12,996.1	55.4765	12,996.1	50.9748	12,996.1	46.4008	12,996.1	48.7711
13,454.6	89.8052	13,454.6	89.2084	13,454.6	89.7188	13,454.6	87.7959	13,454.6	88.3198	13,454.6	85.4464	13,454.6	86.4134	13,454.6	83.3367	13,454.6	84.148	13,454.6	80.1002	13,454.6	81.7298	13,454.6	75.9991	13,454.6	77.4932	13,454.6	71.5267	13,454.6	73.4761	13,454.6	68.1174	13,454.6	69.8831	13,454.6	66.3667	13,454.6	66.1221	13,454.6	62.2852	13,454.6	63.7188	13,454.6	61.5576	13,454.6	61.3098	13,454.6	58.6684	13,454.6	59.4913	13,454.6	58.9717	13,454.6	57.0525	13,454.6	55.8699	13,454.6	55.8448	13,454.6	49.5034	13,454.6	43.8093	13,454.6	56.0107	13,454.6	56.5869	13,454.6	50.7019	13,454.6	47.3308	13,454.6	47.5603
13,929.2	89.9371	13,929.2	89.5487	13,929.2	89.8454	13,929.2	87.9567	13,929.2	88.3201	13,929.2	85.8892	13,929.2	86.482	13,929.2	83.996	13,929.2	84.0609	13,929.2	80.9574	13,929.2	81.6727	13,929.2	77.806	13,929.2	77.9703	13,929.2	73.8816	13,929.2	74.061	13,929.2	69.856	13,929.2	70.5293	13,929.2	67.6134	13,929.2	66.5287	13,929.2	63.5878	13,929.2	64.5824	13,929.2	62.7488	13,929.2	61.7442	13,929.2	60.4411	13,929.2	59.9372	13,929.2	59.3359	13,929.2	55.8132	13,929.2	56.403	13,929.2	56.1217	13,929.2	52.7056	13,929.2	38.3662	13,929.2	56.2775	13,929.2	57.5989	13,929.2	53.0625	13,929.2	47.9488	13,929.2	50.7564
14,419.9	90.1324	14,419.9	89.8646	14,419.9	90.1305	14,419.9	88.2596	14,419.9	88.5544	14,419.9	86.1823	14,419.9	86.5957	14,419.9	84.4348	14,419.9	84.3698	14,419.9	81.3791	14,419.9	82.0028	14,419.9	78.7046	14,419.9	78.6907	14,419.9	74.3062	14,419.9	74.4469	14,419.9	70.1581	14,419.9	71.2375	14,419.9	67.8414	14,419.9	66.6307	14,419.9	64.5791	14,419.9	65.4282	14,419.9	63.2256	14,419.9	61.6187	14,419.9	60.4149	14,419.9	59.1748	14,419.9	58.8115	14,419.9	54.8489	14,419.9	55.5154	14,419.9	55.6238	14,419.9	52.374	14,419.9	36.0738	14,419.9	56.9073	14,419.9	56.4823	14,419.9	53.4202	14,419.9	45.3922	14,419.9	50.8617
14,928.2	90.189	14,928.2	89.8503	14,928.2	90.1453	14,928.2	88.3227	14,928.2	88.6911	14,928.2	85.9672	14,928.2	86.473	14,928.2	84.2271	14,928.2	84.2763	14,928.2	81.0345	14,928.2	81.4783	14,928.2	78.4038	14,928.2	78.043	14,928.2	73.7271	14,928.2	73.4644	14,928.2	69.7852	14,928.2	70.295	14,928.2	67.1197	14,928.2	65.9411	14,928.2	64.0534	14,928.2	64.5954	14,928.2	62.8739	14,928.2	60.7808	14,928.2	59.5199	14,928.2	58.8806	14,928.2	58.0417	14,928.2	52.1296	14,928.2	54.62	14,928.2	54.828	14,928.2	50.3041	14,928.2	40.7987	14,928.2	54.423	14,928.2	54.3606	14,928.2	53.4703	14,928.2	42.3207	14,928.2	49.7755
15,455.6	90.4791	15,455.6	89.9947	15,455.6	90.2825	15,455.6	88.4204	15,455.6	88.8853	15,455.6	85.8561	15,455.6	86.4937	15,455.6	83.6419	15,455.6	83.9266	15,455.6	79.8396	15,455.6	80.7162	15,455.6	76.5344	15,455.6	76.5516	15,455.6	71.8044	15,455.6	71.8342	15,455.6	67.8134	15,455.6	68.3187	15,455.6	64.2961	15,455.6	64.3253	15,455.6	61.2806	15,455.6	62.5832	15,455.6	60.2493	15,455.6	58.4135	15,455.6	57.214	15,455.6	57.5622	15,455.6	55.734	15,455.6	48.0279	15,455.6	52.2121	15,455.6	51.9264	15,455.6	48.3023	15,455.6	32.5935	15,455.6	49.494	15,455.6	51.4885	15,455.6	51.1747	15,455.6	38.0971	15,455.6	45.154
16,000.5	90.4094	16,000.5	89.8625	16,000.5	90.1772	16,000.5	88.053	16,000.5	88.6326	16,000.5	85.3316	16,000.5	86.0801	16,000.5	82.6583	16,000.5	83.0266	16,000.5	77.8636	16,000.5	79.2173	16,000.5	73.4382	16,000.5	73.9245	16,000.5	68.7152	16,000.5	68.7349	16,000.5	64.4633	16,000.5	65.3116	16,000.5	60.4113	16,000.5	61.5799	16,000.5	58.5911	16,000.5	58.7152	16,000.5	56.197	16,000.5	55.6291	16,000.5	53.9521	16,000.5	55.1022	16,000.5	51.7861	16,000.5	43.8683	16,000.5	48.5715	16,000.5	48.7705	16,000.5	44.7223	16,000.5	36.3343	16,000.5	44.3907	16,000.5	48.8199	16,000.5	48.0234	16,000.5	34.534	16,000.5	41.9198
16,564.5	90.1592	16,564.5	89.5191	16,564.5	89.945	16,564.5	87.5562	16,564.5	88.2908	16,564.5	84.488	16,564.5	85.5094	16,564.5	81.3076	16,564.5	82.1598	16,564.5	75.2648	16,564.5	77.7508	16,564.5	69.5545	16,564.5	71.9381	16,564.5	64.2905	16,564.5	66.3249	16,564.5	60.9593	16,564.5	63.7151	16,564.5	56.1552	16,564.5	60.9427	16,564.5	56.1222	16,564.5	56.9145	16,564.5	53.5143	16,564.5	55.868	16,564.5	51.2586	16,564.5	54.7384	16,564.5	45.4001	16,564.5	42.7989	16,564.5	42.6887	16,564.5	47.9507	16,564.5	41.8762	16,564.5	43.2005	16,564.5	38.1788	16,564.5	45.9384	16,564.5	40.0971	16,564.5	31.4101	16,564.5	35.4128
17,148.9	89.5772	17,148.9	88.6994	17,148.9	89.401	17,148.9	86.6038	17,148.9	87.754	17,148.9	82.9886	17,148.9	85.1892	17,148.9	79.108	17,148.9	81.3513	17,148.9	71.4327	17,148.9	76.8639	17,148.9	66.7338	17,148.9	70.5181	17,148.9	63.659	17,148.9	63.8593	17,148.9	62.3462	17,148.9	61.1517	17,148.9	59.3775	17,148.9	59.2606	17,148.9	56.61	17,148.9	56.1969	17,148.9	53.2335	17,148.9	54.622	17,148.9	50.7704	17,148.9	51.9781	17,148.9	43.7533	17,148.9	40.8335	17,148.9	44.4382	17,148.9	46.9441	17,148.9	40.4546	17,148.9	42.7301	17,148.9	40.1738	17,148.9	47.5735	17,148.9	39.2643	17,148.9	31.7914	17,148.9	37.5509
17,752.4	89.3758	17,752.4	88.6779	17,752.4	89.0364	17,752.4	86.4444	17,752.4	87.018	17,752.4	82.9428	17,752.4	84.0631	17,752.4	78.9752	17,752.4	79.4915	17,752.4	72.1576	17,752.4	73.007	17,752.4	69.9167	17,752.4	60.5264	17,752.4	67.5849	17,752.4	57.3554	17,752.4	64.6887	17,752.4	54.5694	17,752.4	62.1143	17,752.4	55.6129	17,752.4	58.774	17,752.4	50.92	17,752.4	56.3916	17,752.4	49.6231	17,752.4	52.3049	17,752.4	46.886	17,752.4	44.397	17,752.4	39.7529	17,752.4	43.2598	17,752.4	40.0761	17,752.4	40.3701	17,752.4	29.681	17,752.4	38.3914	17,752.4	47.2861	17,752.4	43.2169	17,752.4	39.9537	17,752.4	40.2569
18,379.4	89.0712	18,379.4	88.3786	18,379.4	88.583	18,379.4	86.1672	18,379.4	86.227	18,379.4	82.3992	18,379.4	82.6441	18,379.4	78.3359	18,379.4	77.022	18,379.4	71.6591	18,379.4	67.4503	18,379.4	70.25	18,379.4	64.8117	18,379.4	68.9501	18,379.4	66.159	18,379.4	65.0364	18,379.4	61.3201	18,379.4	62.3352	18,379.4	60.5074	18,379.4	58.6798	18,379.4	54.4455	18,379.4	56.9323	18,379.4	54.4172	18,379.4	52.8912	18,379.4	51.1521	18,379.4	45.8724	18,379.4	45.4151	18,379.4	44.8565	18,379.4	42.7882	18,379.4	41.5258	18,379.4	37.2975	18,379.4	36.0589	18,379.4	45.6587	18,379.4	44.8552	18,379.4	40.6487	18,379.4	40.601
19,026.9	88.153	19,026.9	87.4448	19,026.9	87.6325	19,026.9	84.9692	19,026.9	85.0926	19,026.9	81.0842	19,026.9	81.358	19,026.9	76.7681	19,026.9	75.2402	19,026.9	70.7552	19,026.9	67.1964	19,026.9	70.448	19,026.9	68.4263	19,026.9	68.6046	19,026.9	67.6003	19,026.9	64.563	19,026.9	62.609	19,026.9	62.0924	19,026.9	61.6999	19,026.9	58.5647	19,026.9	55.2756	19,026.9	56.7597	19,026.9	55.8783	19,026.9	52.5412	19,026.9	52.223	19,026.9	47.4526	19,026.9	42.5003	19,026.9	43.9531	19,026.9	44.029	19,026.9	41.0316	19,026.9	41.7287	19,026.9	34.6287	19,026.9	43.5956	19,026.9	47.2694	19,026.9	39.914	19,026.9	43.0039
19,697.8	87.2155	19,697.8	86.4144	19,697.8	86.7524	19,697.8	83.6311	19,697.8	83.9884	19,697.8	79.3193	19,697.8	79.8772	19,697.8	74.1278	19,697.8	73.1267	19,697.8	68.4746	19,697.8	65.8702	19,697.8	70.1077	19,697.8	69.2922	19,697.8	68.2967	19,697.8	68.266	19,697.8	63.6311	19,697.8	62.7673	19,697.8	61.9033	19,697.8	61.4087	19,697.8	57.2846	19,697.8	56.1038	19,697.8	55.6227	19,697.8	55.7101	19,697.8	51.3368	19,697.8	50.5081	19,697.8	47.2102	19,697.8	43.7996	19,697.8	43.1708	19,697.8	41.0968	19,697.8	34.2491	19,697.8	39.5892	19,697.8	38.7331	19,697.8	43.7171	19,697.8	47.4598	19,697.8	34.0015	19,697.8	43.8116
19,999.5	86.7171	19,999.5	85.6707	19,999.5	86.2762	19,999.5	82.8835	19,999.5	83.7376	19,999.5	78.6693	19,999.5	79.2663	19,999.5	73.3752	19,999.5	71.8158	19,999.5	68.7999	19,999.5	62.9817	19,999.5	69.3933	19,999.5	69.041	19,999.5	67.3709	19,999.5	66.8171	19,999.5	64.8087	19,999.5	63.7832	19,999.5	63.5261	19,999.5	59.8001	19,999.5	53.0499	19,999.5	53.7512	19,999.5	51.5033	19,999.5	53.8019	19,999.5	51.1353	19,999.5	39.5008	19,999.5	44.6683	19,999.5	48.5968	19,999.5	42.8734	19,999.5	44.1215	19,999.5	34.971	19,999.5	46.3368	19,999.5	38.3112	19,999.5	53.5075	19,999.5	39.769	19,999.5	42.6514	19,999.5	50.1847
