"SPL Vertical"
"On-Axis"		"10°"		"-10°"		"20°"		"-20°"		"30°"		"-30°"		"40°"		"-40°"		"50°"		"-50°"		"60°"		"-60°"		"70°"		"-70°"		"80°"		"-80°"		"90°"		"-90°"		"100°"		"-100°"		"110°"		"-110°"		"120°"		"-120°"		"130°"		"-130°"		"140°"		"-140°"		"150°"		"-150°"		"160°"		"-160°"		"170°"		"-170°"		"180°"
"Frequency / Hz"	"Sound Pressure Level / dB (re 20 µPa/V)  [2.83  V @ 1. m]"	"Frequency / Hz"	"Sound Pressure Level / dB (re 20 µPa/V)  [2.83  V @ 1. m]"	"Frequency / Hz"	"Sound Pressure Level / dB (re 20 µPa/V)  [2.83  V @ 1. m]"	"Frequency / Hz"	"Sound Pressure Level / dB (re 20 µPa/V)  [2.83  V @ 1. m]"	"Frequency / Hz"	"Sound Pressure Level / dB (re 20 µPa/V)  [2.83  V @ 1. m]"	"Frequency / Hz"	"Sound Pressure Level / dB (re 20 µPa/V)  [2.83  V @ 1. m]"	"Frequency / Hz"	"Sound Pressure Level / dB (re 20 µPa/V)  [2.83  V @ 1. m]"	"Frequency / Hz"	"Sound Pressure Level / dB (re 20 µPa/V)  [2.83  V @ 1. m]"	"Frequency / Hz"	"Sound Pressure Level / dB (re 20 µPa/V)  [2.83  V @ 1. m]"	"Frequency / Hz"	"Sound Pressure Level / dB (re 20 µPa/V)  [2.83  V @ 1. m]"	"Frequency / Hz"	"Sound Pressure Level / dB (re 20 µPa/V)  [2.83  V @ 1. m]"	"Frequency / Hz"	"Sound Pressure Level / dB (re 20 µPa/V)  [2.83  V @ 1. m]"	"Frequency / Hz"	"Sound Pressure Level / dB (re 20 µPa/V)  [2.83  V @ 1. m]"	"Frequency / Hz"	"Sound Pressure Level / dB (re 20 µPa/V)  [2.83  V @ 1. m]"	"Frequency / Hz"	"Sound Pressure Level / dB (re 20 µPa/V)  [2.83  V @ 1. m]"	"Frequency / Hz"	"Sound Pressure Level / dB (re 20 µPa/V)  [2.83  V @ 1. m]"	"Frequency / Hz"	"Sound Pressure Level / dB (re 20 µPa/V)  [2.83  V @ 1. m]"	"Frequency / Hz"	"Sound Pressure Level / dB (re 20 µPa/V)  [2.83  V @ 1. m]"	"Frequency / Hz"	"Sound Pressure Level / dB (re 20 µPa/V)  [2.83  V @ 1. m]"	"Frequency / Hz"	"Sound Pressure Level / dB (re 20 µPa/V)  [2.83  V @ 1. m]"	"Frequency / Hz"	"Sound Pressure Level / dB (re 20 µPa/V)  [2.83  V @ 1. m]"	"Frequency / Hz"	"Sound Pressure Level / dB (re 20 µPa/V)  [2.83  V @ 1. m]"	"Frequency / Hz"	"Sound Pressure Level / dB (re 20 µPa/V)  [2.83  V @ 1. m]"	"Frequency / Hz"	"Sound Pressure Level / dB (re 20 µPa/V)  [2.83  V @ 1. m]"	"Frequency / Hz"	"Sound Pressure Level / dB (re 20 µPa/V)  [2.83  V @ 1. m]"	"Frequency / Hz"	"Sound Pressure Level / dB (re 20 µPa/V)  [2.83  V @ 1. m]"	"Frequency / Hz"	"Sound Pressure Level / dB (re 20 µPa/V)  [2.83  V @ 1. m]"	"Frequency / Hz"	"Sound Pressure Level / dB (re 20 µPa/V)  [2.83  V @ 1. m]"	"Frequency / Hz"	"Sound Pressure Level / dB (re 20 µPa/V)  [2.83  V @ 1. m]"	"Frequency / Hz"	"Sound Pressure Level / dB (re 20 µPa/V)  [2.83  V @ 1. m]"	"Frequency / Hz"	"Sound Pressure Level / dB (re 20 µPa/V)  [2.83  V @ 1. m]"	"Frequency / Hz"	"Sound Pressure Level / dB (re 20 µPa/V)  [2.83  V @ 1. m]"	"Frequency / Hz"	"Sound Pressure Level / dB (re 20 µPa/V)  [2.83  V @ 1. m]"	"Frequency / Hz"	"Sound Pressure Level / dB (re 20 µPa/V)  [2.83  V @ 1. m]"	"Frequency / Hz"	"Sound Pressure Level / dB (re 20 µPa/V)  [2.83  V @ 1. m]"	"Frequency / Hz"	"Sound Pressure Level / dB (re 20 µPa/V)  [2.83  V @ 1. m]"
20.5078	75.5667	20.5078	75.4979	20.5078	75.6368	20.5078	75.4323	20.5078	75.7061	20.5078	75.3717	20.5078	75.7725	20.5078	75.3177	20.5078	75.8337	20.5078	75.2716	20.5078	75.8875	20.5078	75.2345	20.5078	75.9319	20.5078	75.2073	20.5078	75.9649	20.5078	75.1908	20.5078	75.9854	20.5078	75.1852	20.5078	75.9923	20.5078	75.1908	20.5078	75.9854	20.5078	75.2073	20.5078	75.9649	20.5078	75.2345	20.5078	75.9319	20.5078	75.2716	20.5078	75.8875	20.5078	75.3177	20.5078	75.8337	20.5078	75.3717	20.5078	75.7725	20.5078	75.4323	20.5078	75.7061	20.5078	75.4979	20.5078	75.6368	20.5078	75.5667
21.9727	77.0813	21.9727	77.0125	21.9727	77.1513	21.9727	76.947	21.9727	77.2205	21.9727	76.8864	21.9727	77.2868	21.9727	76.8323	21.9727	77.3478	21.9727	76.7861	21.9727	77.4015	21.9727	76.7489	21.9727	77.4456	21.9727	76.7217	21.9727	77.4786	21.9727	76.7051	21.9727	77.4989	21.9727	76.6995	21.9727	77.5058	21.9727	76.7051	21.9727	77.4989	21.9727	76.7217	21.9727	77.4786	21.9727	76.7489	21.9727	77.4456	21.9727	76.7861	21.9727	77.4015	21.9727	76.8323	21.9727	77.3478	21.9727	76.8864	21.9727	77.2868	21.9727	76.947	21.9727	77.2205	21.9727	77.0125	21.9727	77.1513	21.9727	77.0813
23.4375	78.1504	23.4375	78.0823	23.4375	78.2198	23.4375	78.0176	23.4375	78.2885	23.4375	77.9578	23.4375	78.3543	23.4375	77.9046	23.4375	78.415	23.4375	77.8591	23.4375	78.4684	23.4375	77.8226	23.4375	78.5124	23.4375	77.7959	23.4375	78.5452	23.4375	77.7796	23.4375	78.5655	23.4375	77.7741	23.4375	78.5723	23.4375	77.7796	23.4375	78.5655	23.4375	77.7959	23.4375	78.5452	23.4375	77.8226	23.4375	78.5124	23.4375	77.8591	23.4375	78.4684	23.4375	77.9046	23.4375	78.415	23.4375	77.9578	23.4375	78.3543	23.4375	78.0176	23.4375	78.2885	23.4375	78.0823	23.4375	78.2198	23.4375	78.1504
24.9023	79.2214	24.9023	79.1548	24.9023	79.2894	24.9023	79.0914	24.9023	79.3566	24.9023	79.0328	24.9023	79.421	24.9023	78.9807	24.9023	79.4803	24.9023	78.9362	24.9023	79.5324	24.9023	78.9005	24.9023	79.5754	24.9023	78.8743	24.9023	79.6074	24.9023	78.8584	24.9023	79.6272	24.9023	78.853	24.9023	79.6339	24.9023	78.8584	24.9023	79.6272	24.9023	78.8743	24.9023	79.6074	24.9023	78.9005	24.9023	79.5754	24.9023	78.9362	24.9023	79.5324	24.9023	78.9807	24.9023	79.4803	24.9023	79.0328	24.9023	79.421	24.9023	79.0914	24.9023	79.3566	24.9023	79.1548	24.9023	79.2894	24.9023	79.2214
26.3672	80.2193	26.3672	80.1532	26.3672	80.2866	26.3672	80.0903	26.3672	80.3532	26.3672	80.0323	26.3672	80.4169	26.3672	79.9805	26.3672	80.4756	26.3672	79.9363	26.3672	80.5272	26.3672	79.9008	26.3672	80.5697	26.3672	79.8749	26.3672	80.6014	26.3672	79.859	26.3672	80.621	26.3672	79.8537	26.3672	80.6276	26.3672	79.859	26.3672	80.621	26.3672	79.8749	26.3672	80.6014	26.3672	79.9008	26.3672	80.5697	26.3672	79.9363	26.3672	80.5272	26.3672	79.9805	26.3672	80.4756	26.3672	80.0323	26.3672	80.4169	26.3672	80.0903	26.3672	80.3532	26.3672	80.1532	26.3672	80.2866	26.3672	80.2193
27.832	81.1125	27.832	81.0461	27.832	81.1801	27.832	80.9829	27.832	81.247	27.832	80.9246	27.832	81.3109	27.832	80.8726	27.832	81.3699	27.832	80.8282	27.832	81.4217	27.832	80.7925	27.832	81.4644	27.832	80.7664	27.832	81.4962	27.832	80.7504	27.832	81.5158	27.832	80.7451	27.832	81.5225	27.832	80.7504	27.832	81.5158	27.832	80.7664	27.832	81.4962	27.832	80.7925	27.832	81.4644	27.832	80.8282	27.832	81.4217	27.832	80.8726	27.832	81.3699	27.832	80.9246	27.832	81.3109	27.832	80.9829	27.832	81.247	27.832	81.0461	27.832	81.1801	27.832	81.1125
29.2969	81.8565	29.2969	81.7889	29.2969	81.9252	29.2969	81.7243	29.2969	81.993	29.2969	81.6645	29.2969	82.0578	29.2969	81.6112	29.2969	82.1173	29.2969	81.5655	29.2969	82.1695	29.2969	81.5288	29.2969	82.2125	29.2969	81.5018	29.2969	82.2444	29.2969	81.4854	29.2969	82.2642	29.2969	81.4799	29.2969	82.2709	29.2969	81.4854	29.2969	82.2642	29.2969	81.5018	29.2969	82.2444	29.2969	81.5288	29.2969	82.2125	29.2969	81.5655	29.2969	82.1695	29.2969	81.6112	29.2969	82.1173	29.2969	81.6645	29.2969	82.0578	29.2969	81.7243	29.2969	81.993	29.2969	81.7889	29.2969	81.9252	29.2969	81.8565
30.7617	82.6882	30.7617	82.6223	30.7617	82.7554	30.7617	82.5593	30.7617	82.8217	30.7617	82.5012	30.7617	82.8851	30.7617	82.4493	30.7617	82.9435	30.7617	82.4049	30.7617	82.9947	30.7617	82.3693	30.7617	83.0368	30.7617	82.3432	30.7617	83.0682	30.7617	82.3273	30.7617	83.0876	30.7617	82.3219	30.7617	83.0942	30.7617	82.3273	30.7617	83.0876	30.7617	82.3432	30.7617	83.0682	30.7617	82.3693	30.7617	83.0368	30.7617	82.4049	30.7617	82.9947	30.7617	82.4493	30.7617	82.9435	30.7617	82.5012	30.7617	82.8851	30.7617	82.5593	30.7617	82.8217	30.7617	82.6223	30.7617	82.7554	30.7617	82.6882
32.2266	83.4173	32.2266	83.3521	32.2266	83.4837	32.2266	83.2899	32.2266	83.5493	32.2266	83.2325	32.2266	83.6119	32.2266	83.1812	32.2266	83.6696	32.2266	83.1374	32.2266	83.7201	32.2266	83.1023	32.2266	83.7618	32.2266	83.0765	32.2266	83.7928	32.2266	83.0608	32.2266	83.8119	32.2266	83.0555	32.2266	83.8184	32.2266	83.0608	32.2266	83.8119	32.2266	83.0765	32.2266	83.7928	32.2266	83.1023	32.2266	83.7618	32.2266	83.1374	32.2266	83.7201	32.2266	83.1812	32.2266	83.6696	32.2266	83.2325	32.2266	83.6119	32.2266	83.2899	32.2266	83.5493	32.2266	83.3521	32.2266	83.4837	32.2266	83.4173
33.6914	84.0107	33.6914	83.9438	33.6914	84.0787	33.6914	83.88	33.6914	84.1459	33.6914	83.8209	33.6914	84.21	33.6914	83.7683	33.6914	84.2689	33.6914	83.7233	33.6914	84.3206	33.6914	83.6872	33.6914	84.3631	33.6914	83.6607	33.6914	84.3947	33.6914	83.6446	33.6914	84.4143	33.6914	83.6392	33.6914	84.4209	33.6914	83.6446	33.6914	84.4143	33.6914	83.6607	33.6914	84.3947	33.6914	83.6872	33.6914	84.3631	33.6914	83.7233	33.6914	84.3206	33.6914	83.7683	33.6914	84.2689	33.6914	83.8209	33.6914	84.21	33.6914	83.88	33.6914	84.1459	33.6914	83.9438	33.6914	84.0787	33.6914	84.0107
35.1562	84.6341	35.1562	84.5673	35.1562	84.7021	35.1562	84.5035	35.1562	84.7692	35.1562	84.4444	35.1562	84.8333	35.1562	84.3918	35.1562	84.8921	35.1562	84.3468	35.1562	84.9437	35.1562	84.3106	35.1562	84.9862	35.1562	84.2842	35.1562	85.0178	35.1562	84.268	35.1562	85.0373	35.1562	84.2626	35.1562	85.0439	35.1562	84.268	35.1562	85.0373	35.1562	84.2842	35.1562	85.0178	35.1562	84.3106	35.1562	84.9862	35.1562	84.3468	35.1562	84.9437	35.1562	84.3918	35.1562	84.8921	35.1562	84.4444	35.1562	84.8333	35.1562	84.5035	35.1562	84.7692	35.1562	84.5673	35.1562	84.7021	35.1562	84.6341
36.6211	85.1882	36.6211	85.1204	36.6211	85.2571	36.6211	85.0557	36.6211	85.325	36.6211	84.9957	36.6211	85.3897	36.6211	84.9421	36.6211	85.4491	36.6211	84.8964	36.6211	85.5012	36.6211	84.8596	36.6211	85.544	36.6211	84.8326	36.6211	85.5758	36.6211	84.8161	36.6211	85.5955	36.6211	84.8106	36.6211	85.6021	36.6211	84.8161	36.6211	85.5955	36.6211	84.8326	36.6211	85.5758	36.6211	84.8596	36.6211	85.544	36.6211	84.8964	36.6211	85.5012	36.6211	84.9421	36.6211	85.4491	36.6211	84.9957	36.6211	85.3897	36.6211	85.0557	36.6211	85.325	36.6211	85.1204	36.6211	85.2571	36.6211	85.1882
38.0859	85.6345	38.0859	85.5647	38.0859	85.7051	38.0859	85.4979	38.0859	85.7746	38.0859	85.4358	38.0859	85.8407	38.0859	85.3802	38.0859	85.9012	38.0859	85.3326	38.0859	85.9541	38.0859	85.2943	38.0859	85.9975	38.0859	85.2661	38.0859	86.0298	38.0859	85.2489	38.0859	86.0497	38.0859	85.2431	38.0859	86.0564	38.0859	85.2489	38.0859	86.0497	38.0859	85.2661	38.0859	86.0298	38.0859	85.2943	38.0859	85.9975	38.0859	85.3326	38.0859	85.9541	38.0859	85.3802	38.0859	85.9012	38.0859	85.4358	38.0859	85.8407	38.0859	85.4979	38.0859	85.7746	38.0859	85.5647	38.0859	85.7051	38.0859	85.6345
39.5508	85.8527	39.5508	85.7841	39.5508	85.9223	39.5508	85.7185	39.5508	85.9908	39.5508	85.6576	39.5508	86.056	39.5508	85.6032	39.5508	86.1158	39.5508	85.5566	39.5508	86.1682	39.5508	85.5191	39.5508	86.2111	39.5508	85.4916	39.5508	86.2431	39.5508	85.4748	39.5508	86.2628	39.5508	85.4692	39.5508	86.2694	39.5508	85.4748	39.5508	86.2628	39.5508	85.4916	39.5508	86.2431	39.5508	85.5191	39.5508	86.2111	39.5508	85.5566	39.5508	86.1682	39.5508	85.6032	39.5508	86.1158	39.5508	85.6576	39.5508	86.056	39.5508	85.7185	39.5508	85.9908	39.5508	85.7841	39.5508	85.9223	39.5508	85.8527
41.0156	86.0679	41.0156	86.0026	41.0156	86.1341	41.0156	85.9402	41.0156	86.1993	41.0156	85.8824	41.0156	86.2614	41.0156	85.8307	41.0156	86.3184	41.0156	85.7865	41.0156	86.3683	41.0156	85.751	41.0156	86.4092	41.0156	85.7249	41.0156	86.4396	41.0156	85.7091	41.0156	86.4584	41.0156	85.7037	41.0156	86.4647	41.0156	85.7091	41.0156	86.4584	41.0156	85.7249	41.0156	86.4396	41.0156	85.751	41.0156	86.4092	41.0156	85.7865	41.0156	86.3683	41.0156	85.8307	41.0156	86.3184	41.0156	85.8824	41.0156	86.2614	41.0156	85.9402	41.0156	86.1993	41.0156	86.0026	41.0156	86.1341	41.0156	86.0679
42.4805	86.3959	42.4805	86.3307	42.4805	86.4621	42.4805	86.2683	42.4805	86.5272	42.4805	86.2105	42.4805	86.5892	42.4805	86.1588	42.4805	86.6461	42.4805	86.1147	42.4805	86.6958	42.4805	86.0792	42.4805	86.7366	42.4805	86.0532	42.4805	86.767	42.4805	86.0373	42.4805	86.7857	42.4805	86.032	42.4805	86.792	42.4805	86.0373	42.4805	86.7857	42.4805	86.0532	42.4805	86.767	42.4805	86.0792	42.4805	86.7366	42.4805	86.1147	42.4805	86.6958	42.4805	86.1588	42.4805	86.6461	42.4805	86.2105	42.4805	86.5892	42.4805	86.2683	42.4805	86.5272	42.4805	86.3307	42.4805	86.4621	42.4805	86.3959
43.9453	86.6685	43.9453	86.6028	43.9453	86.7352	43.9453	86.5398	43.9453	86.8007	43.9453	86.4814	43.9453	86.8631	43.9453	86.4292	43.9453	86.9202	43.9453	86.3845	43.9453	86.9702	43.9453	86.3486	43.9453	87.0111	43.9453	86.3222	43.9453	87.0416	43.9453	86.3061	43.9453	87.0603	43.9453	86.3007	43.9453	87.0667	43.9453	86.3061	43.9453	87.0603	43.9453	86.3222	43.9453	87.0416	43.9453	86.3486	43.9453	87.0111	43.9453	86.3845	43.9453	86.9702	43.9453	86.4292	43.9453	86.9202	43.9453	86.4814	43.9453	86.8631	43.9453	86.5398	43.9453	86.8007	43.9453	86.6028	43.9453	86.7352	43.9453	86.6685
45.4102	86.7808	45.4102	86.7197	45.4102	86.8428	45.4102	86.6614	45.4102	86.904	45.4102	86.6074	45.4102	86.9622	45.4102	86.5593	45.4102	87.0157	45.4102	86.5182	45.4102	87.0626	45.4102	86.4852	45.4102	87.101	45.4102	86.4611	45.4102	87.1297	45.4102	86.4463	45.4102	87.1473	45.4102	86.4414	45.4102	87.1533	45.4102	86.4463	45.4102	87.1473	45.4102	86.4611	45.4102	87.1297	45.4102	86.4852	45.4102	87.101	45.4102	86.5182	45.4102	87.0626	45.4102	86.5593	45.4102	87.0157	45.4102	86.6074	45.4102	86.9622	45.4102	86.6614	45.4102	86.904	45.4102	86.7197	45.4102	86.8428	45.4102	86.7808
46.875	86.8511	46.875	86.8006	46.875	86.9031	46.875	86.7531	46.875	86.955	46.875	86.7098	46.875	87.0051	46.875	86.6718	46.875	87.0515	46.875	86.6398	46.875	87.0925	46.875	86.6144	46.875	87.1263	46.875	86.5961	46.875	87.1517	46.875	86.585	46.875	87.1673	46.875	86.5812	46.875	87.1726	46.875	86.585	46.875	87.1673	46.875	86.5961	46.875	87.1517	46.875	86.6144	46.875	87.1263	46.875	86.6398	46.875	87.0925	46.875	86.6718	46.875	87.0515	46.875	86.7098	46.875	87.0051	46.875	86.7531	46.875	86.955	46.875	86.8006	46.875	86.9031	46.875	86.8511
48.3398	86.6024	48.3398	86.5416	48.3398	86.665	48.3398	86.4844	48.3398	86.7275	48.3398	86.4324	48.3398	86.7876	48.3398	86.3867	48.3398	86.8434	48.3398	86.3483	48.3398	86.8925	48.3398	86.3179	48.3398	86.9331	48.3398	86.296	48.3398	86.9634	48.3398	86.2827	48.3398	86.9821	48.3398	86.2783	48.3398	86.9884	48.3398	86.2827	48.3398	86.9821	48.3398	86.296	48.3398	86.9634	48.3398	86.3179	48.3398	86.9331	48.3398	86.3483	48.3398	86.8925	48.3398	86.3867	48.3398	86.8434	48.3398	86.4324	48.3398	86.7876	48.3398	86.4844	48.3398	86.7275	48.3398	86.5416	48.3398	86.665	48.3398	86.6024
51.2695	86.9775	51.2695	86.9061	51.2695	87.0502	51.2695	86.8381	51.2695	87.1219	51.2695	86.7753	51.2695	87.1902	51.2695	86.7196	51.2695	87.253	51.2695	86.6722	51.2695	87.3078	51.2695	86.6342	51.2695	87.3528	51.2695	86.6066	51.2695	87.3863	51.2695	86.5898	51.2695	87.4069	51.2695	86.5842	51.2695	87.4139	51.2695	86.5898	51.2695	87.4069	51.2695	86.6066	51.2695	87.3863	51.2695	86.6342	51.2695	87.3528	51.2695	86.6722	51.2695	87.3078	51.2695	86.7196	51.2695	87.253	51.2695	86.7753	51.2695	87.1902	51.2695	86.8381	51.2695	87.1219	51.2695	86.9061	51.2695	87.0502	51.2695	86.9775
52.7344	87.0507	52.7344	86.9776	52.7344	87.1247	52.7344	86.9078	52.7344	87.1975	52.7344	86.843	52.7344	87.2666	52.7344	86.7853	52.7344	87.3298	52.7344	86.736	52.7344	87.3849	52.7344	86.6964	52.7344	87.43	52.7344	86.6675	52.7344	87.4635	52.7344	86.6499	52.7344	87.4841	52.7344	86.644	52.7344	87.4911	52.7344	86.6499	52.7344	87.4841	52.7344	86.6675	52.7344	87.4635	52.7344	86.6964	52.7344	87.43	52.7344	86.736	52.7344	87.3849	52.7344	86.7853	52.7344	87.3298	52.7344	86.843	52.7344	87.2666	52.7344	86.9078	52.7344	87.1975	52.7344	86.9776	52.7344	87.1247	52.7344	87.0507
54.1992	87.1206	54.1992	87.0473	54.1992	87.1948	54.1992	86.9771	54.1992	87.2677	54.1992	86.912	54.1992	87.3368	54.1992	86.8538	54.1992	87.4	54.1992	86.8041	54.1992	87.4551	54.1992	86.7642	54.1992	87.5002	54.1992	86.735	54.1992	87.5336	54.1992	86.7172	54.1992	87.5542	54.1992	86.7112	54.1992	87.5611	54.1992	86.7172	54.1992	87.5542	54.1992	86.735	54.1992	87.5336	54.1992	86.7642	54.1992	87.5002	54.1992	86.8041	54.1992	87.4551	54.1992	86.8538	54.1992	87.4	54.1992	86.912	54.1992	87.3368	54.1992	86.9771	54.1992	87.2677	54.1992	87.0473	54.1992	87.1948	54.1992	87.1206
55.6641	87.3051	55.6641	87.235	55.6641	87.3764	55.6641	87.1682	55.6641	87.4465	55.6641	87.1064	55.6641	87.5134	55.6641	87.0514	55.6641	87.5746	55.6641	87.0046	55.6641	87.6282	55.6641	86.9671	55.6641	87.6721	55.6641	86.9398	55.6641	87.7048	55.6641	86.9231	55.6641	87.7249	55.6641	86.9175	55.6641	87.7317	55.6641	86.9231	55.6641	87.7249	55.6641	86.9398	55.6641	87.7048	55.6641	86.9671	55.6641	87.6721	55.6641	87.0046	55.6641	87.6282	55.6641	87.0514	55.6641	87.5746	55.6641	87.1064	55.6641	87.5134	55.6641	87.1682	55.6641	87.4465	55.6641	87.235	55.6641	87.3764	55.6641	87.3051
58.5938	87.1429	58.5938	87.072	58.5938	87.2146	58.5938	87.0043	58.5938	87.2851	58.5938	86.9416	58.5938	87.352	58.5938	86.8857	58.5938	87.4131	58.5938	86.838	58.5938	87.4664	58.5938	86.7997	58.5938	87.5099	58.5938	86.7718	58.5938	87.5422	58.5938	86.7548	58.5938	87.5621	58.5938	86.7491	58.5938	87.5688	58.5938	86.7548	58.5938	87.5621	58.5938	86.7718	58.5938	87.5422	58.5938	86.7997	58.5938	87.5099	58.5938	86.838	58.5938	87.4664	58.5938	86.8857	58.5938	87.4131	58.5938	86.9416	58.5938	87.352	58.5938	87.0043	58.5938	87.2851	58.5938	87.072	58.5938	87.2146	58.5938	87.1429
60.0586	87.1326	60.0586	87.0641	60.0586	87.2018	60.0586	86.9983	60.0586	87.2695	60.0586	86.9372	60.0586	87.3335	60.0586	86.8826	60.0586	87.3917	60.0586	86.836	60.0586	87.4423	60.0586	86.7985	60.0586	87.4835	60.0586	86.7711	60.0586	87.5139	60.0586	86.7544	60.0586	87.5326	60.0586	86.7488	60.0586	87.5389	60.0586	86.7544	60.0586	87.5326	60.0586	86.7711	60.0586	87.5139	60.0586	86.7985	60.0586	87.4835	60.0586	86.836	60.0586	87.4423	60.0586	86.8826	60.0586	87.3917	60.0586	86.9372	60.0586	87.3335	60.0586	86.9983	60.0586	87.2695	60.0586	87.0641	60.0586	87.2018	60.0586	87.1326
62.9883	86.8154	62.9883	86.7446	62.9883	86.886	62.9883	86.6756	62.9883	86.9541	62.9883	86.6108	62.9883	87.0176	62.9883	86.5522	62.9883	87.0748	62.9883	86.5016	62.9883	87.1239	62.9883	86.4606	62.9883	87.1636	62.9883	86.4304	62.9883	87.1927	62.9883	86.4119	62.9883	87.2106	62.9883	86.4056	62.9883	87.2165	62.9883	86.4119	62.9883	87.2106	62.9883	86.4304	62.9883	87.1927	62.9883	86.4606	62.9883	87.1636	62.9883	86.5016	62.9883	87.1239	62.9883	86.5522	62.9883	87.0748	62.9883	86.6108	62.9883	87.0176	62.9883	86.6756	62.9883	86.9541	62.9883	86.7446	62.9883	86.886	62.9883	86.8154
64.4531	86.6823	64.4531	86.6119	64.4531	86.7528	64.4531	86.5436	64.4531	86.821	64.4531	86.4796	64.4531	86.885	64.4531	86.4218	64.4531	86.9428	64.4531	86.372	64.4531	86.9927	64.4531	86.3318	64.4531	87.0332	64.4531	86.3022	64.4531	87.0631	64.4531	86.2841	64.4531	87.0814	64.4531	86.278	64.4531	87.0876	64.4531	86.2841	64.4531	87.0814	64.4531	86.3022	64.4531	87.0631	64.4531	86.3318	64.4531	87.0332	64.4531	86.372	64.4531	86.9927	64.4531	86.4218	64.4531	86.9428	64.4531	86.4796	64.4531	86.885	64.4531	86.5436	64.4531	86.821	64.4531	86.6119	64.4531	86.7528	64.4531	86.6823
67.3828	86.8622	67.3828	86.7908	67.3828	86.9343	67.3828	86.7224	67.3828	87.0049	67.3828	86.6589	67.3828	87.0717	67.3828	86.6022	67.3828	87.1325	67.3828	86.5538	67.3828	87.1853	67.3828	86.515	67.3828	87.2284	67.3828	86.4867	67.3828	87.2603	67.3828	86.4695	67.3828	87.2799	67.3828	86.4637	67.3828	87.2865	67.3828	86.4695	67.3828	87.2799	67.3828	86.4867	67.3828	87.2603	67.3828	86.515	67.3828	87.2284	67.3828	86.5538	67.3828	87.1853	67.3828	86.6022	67.3828	87.1325	67.3828	86.6589	67.3828	87.0717	67.3828	86.7224	67.3828	87.0049	67.3828	86.7908	67.3828	86.9343	67.3828	86.8622
68.8477	86.8584	68.8477	86.7869	68.8477	86.9306	68.8477	86.7183	68.8477	87.0011	68.8477	86.6546	68.8477	87.0677	68.8477	86.5976	68.8477	87.1282	68.8477	86.549	68.8477	87.1807	68.8477	86.51	68.8477	87.2235	68.8477	86.4816	68.8477	87.2551	68.8477	86.4642	68.8477	87.2745	68.8477	86.4584	68.8477	87.281	68.8477	86.4642	68.8477	87.2745	68.8477	86.4816	68.8477	87.2551	68.8477	86.51	68.8477	87.2235	68.8477	86.549	68.8477	87.1807	68.8477	86.5976	68.8477	87.1282	68.8477	86.6546	68.8477	87.0677	68.8477	86.7183	68.8477	87.0011	68.8477	86.7869	68.8477	86.9306	68.8477	86.8584
71.7773	86.8421	71.7773	86.773	71.7773	86.9117	71.7773	86.7065	71.7773	86.9796	71.7773	86.6446	71.7773	87.0435	71.7773	86.5893	71.7773	87.1015	71.7773	86.542	71.7773	87.1517	71.7773	86.5041	71.7773	87.1925	71.7773	86.4763	71.7773	87.2226	71.7773	86.4594	71.7773	87.241	71.7773	86.4538	71.7773	87.2472	71.7773	86.4594	71.7773	87.241	71.7773	86.4763	71.7773	87.2226	71.7773	86.5041	71.7773	87.1925	71.7773	86.542	71.7773	87.1517	71.7773	86.5893	71.7773	87.1015	71.7773	86.6446	71.7773	87.0435	71.7773	86.7065	71.7773	86.9796	71.7773	86.773	71.7773	86.9117	71.7773	86.8421
74.707	86.8273	74.707	86.7592	74.707	86.8959	74.707	86.6938	74.707	86.9629	74.707	86.6332	74.707	87.0261	74.707	86.5791	74.707	87.0834	74.707	86.5329	74.707	87.1331	74.707	86.496	74.707	87.1734	74.707	86.4691	74.707	87.2031	74.707	86.4527	74.707	87.2214	74.707	86.4472	74.707	87.2275	74.707	86.4527	74.707	87.2214	74.707	86.4691	74.707	87.2031	74.707	86.496	74.707	87.1734	74.707	86.5329	74.707	87.1331	74.707	86.5791	74.707	87.0834	74.707	86.6332	74.707	87.0261	74.707	86.6938	74.707	86.9629	74.707	86.7592	74.707	86.8959	74.707	86.8273
77.6367	86.5994	77.6367	86.5308	77.6367	86.6687	77.6367	86.4651	77.6367	86.7364	77.6367	86.4042	77.6367	86.8003	77.6367	86.3501	77.6367	86.8583	77.6367	86.3041	77.6367	86.9084	77.6367	86.2674	77.6367	86.9492	77.6367	86.2407	77.6367	86.9792	77.6367	86.2245	77.6367	86.9976	77.6367	86.2191	77.6367	87.0038	77.6367	86.2245	77.6367	86.9976	77.6367	86.2407	77.6367	86.9792	77.6367	86.2674	77.6367	86.9492	77.6367	86.3041	77.6367	86.9084	77.6367	86.3501	77.6367	86.8583	77.6367	86.4042	77.6367	86.8003	77.6367	86.4651	77.6367	86.7364	77.6367	86.5308	77.6367	86.6687	77.6367	86.5994
79.1016	86.5106	79.1016	86.4409	79.1016	86.5811	79.1016	86.3741	79.1016	86.6499	79.1016	86.3123	79.1016	86.7148	79.1016	86.2574	79.1016	86.7736	79.1016	86.2108	79.1016	86.8246	79.1016	86.1736	79.1016	86.8659	79.1016	86.1466	79.1016	86.8964	79.1016	86.1302	79.1016	86.9151	79.1016	86.1247	79.1016	86.9214	79.1016	86.1302	79.1016	86.9151	79.1016	86.1466	79.1016	86.8964	79.1016	86.1736	79.1016	86.8659	79.1016	86.2108	79.1016	86.8246	79.1016	86.2574	79.1016	86.7736	79.1016	86.3123	79.1016	86.7148	79.1016	86.3741	79.1016	86.6499	79.1016	86.4409	79.1016	86.5811	79.1016	86.5106
82.0312	86.6299	82.0312	86.5589	82.0312	86.7016	82.0312	86.4907	82.0312	86.7714	82.0312	86.4276	82.0312	86.8372	82.0312	86.3714	82.0312	86.8967	82.0312	86.3237	82.0312	86.948	82.0312	86.2855	82.0312	86.9896	82.0312	86.2579	82.0312	87.0203	82.0312	86.2411	82.0312	87.039	82.0312	86.2355	82.0312	87.0454	82.0312	86.2411	82.0312	87.039	82.0312	86.2579	82.0312	87.0203	82.0312	86.2855	82.0312	86.9896	82.0312	86.3237	82.0312	86.948	82.0312	86.3714	82.0312	86.8967	82.0312	86.4276	82.0312	86.8372	82.0312	86.4907	82.0312	86.7714	82.0312	86.5589	82.0312	86.7016	82.0312	86.6299
84.9609	86.6375	84.9609	86.5667	84.9609	86.7087	84.9609	86.4986	84.9609	86.778	84.9609	86.4355	84.9609	86.843	84.9609	86.3793	84.9609	86.9016	84.9609	86.3316	84.9609	86.9521	84.9609	86.2934	84.9609	86.993	84.9609	86.2657	84.9609	87.023	84.9609	86.2488	84.9609	87.0413	84.9609	86.2432	84.9609	87.0474	84.9609	86.2488	84.9609	87.0413	84.9609	86.2657	84.9609	87.023	84.9609	86.2934	84.9609	86.993	84.9609	86.3316	84.9609	86.9521	84.9609	86.3793	84.9609	86.9016	84.9609	86.4355	84.9609	86.843	84.9609	86.4986	84.9609	86.778	84.9609	86.5667	84.9609	86.7087	84.9609	86.6375
87.8906	86.4106	87.8906	86.3415	87.8906	86.48	87.8906	86.2751	87.8906	86.5474	87.8906	86.2134	87.8906	86.6105	87.8906	86.1585	87.8906	86.6673	87.8906	86.1118	87.8906	86.7161	87.8906	86.0746	87.8906	86.7554	87.8906	86.0475	87.8906	86.7843	87.8906	86.0311	87.8906	86.8019	87.8906	86.0257	87.8906	86.8078	87.8906	86.0311	87.8906	86.8019	87.8906	86.0475	87.8906	86.7843	87.8906	86.0746	87.8906	86.7554	87.8906	86.1118	87.8906	86.7161	87.8906	86.1585	87.8906	86.6673	87.8906	86.2134	87.8906	86.6105	87.8906	86.2751	87.8906	86.5474	87.8906	86.3415	87.8906	86.48	87.8906	86.4106
90.8203	86.4389	90.8203	86.3707	90.8203	86.5076	90.8203	86.3053	90.8203	86.5743	90.8203	86.2449	90.8203	86.6369	90.8203	86.1912	90.8203	86.6932	90.8203	86.1458	90.8203	86.7416	90.8203	86.1096	90.8203	86.7807	90.8203	86.0835	90.8203	86.8093	90.8203	86.0677	90.8203	86.8268	90.8203	86.0624	90.8203	86.8326	90.8203	86.0677	90.8203	86.8268	90.8203	86.0835	90.8203	86.8093	90.8203	86.1096	90.8203	86.7807	90.8203	86.1458	90.8203	86.7416	90.8203	86.1912	90.8203	86.6932	90.8203	86.2449	90.8203	86.6369	90.8203	86.3053	90.8203	86.5743	90.8203	86.3707	90.8203	86.5076	90.8203	86.4389
95.2148	86.3607	95.2148	86.2911	95.2148	86.4308	95.2148	86.2242	95.2148	86.4986	95.2148	86.1626	95.2148	86.562	95.2148	86.108	95.2148	86.6188	95.2148	86.0621	95.2148	86.6673	95.2148	86.0257	95.2148	86.7062	95.2148	85.9996	95.2148	86.7346	95.2148	85.9838	95.2148	86.7519	95.2148	85.9786	95.2148	86.7577	95.2148	85.9838	95.2148	86.7519	95.2148	85.9996	95.2148	86.7346	95.2148	86.0257	95.2148	86.7062	95.2148	86.0621	95.2148	86.6673	95.2148	86.108	95.2148	86.6188	95.2148	86.1626	95.2148	86.562	95.2148	86.2242	95.2148	86.4986	95.2148	86.2911	95.2148	86.4308	95.2148	86.3607
98.1445	86.0669	98.1445	85.9964	98.1445	86.1368	98.1445	85.9277	98.1445	86.2034	98.1445	85.8634	98.1445	86.2647	98.1445	85.8057	98.1445	86.3189	98.1445	85.7565	98.1445	86.3646	98.1445	85.7171	98.1445	86.4009	98.1445	85.6884	98.1445	86.4272	98.1445	85.6711	98.1445	86.443	98.1445	85.6653	98.1445	86.4483	98.1445	85.6711	98.1445	86.443	98.1445	85.6884	98.1445	86.4272	98.1445	85.7171	98.1445	86.4009	98.1445	85.7565	98.1445	86.3646	98.1445	85.8057	98.1445	86.3189	98.1445	85.8634	98.1445	86.2647	98.1445	85.9277	98.1445	86.2034	98.1445	85.9964	98.1445	86.1368	98.1445	86.0669
101.074	85.9997	101.074	85.9448	101.074	86.0543	101.074	85.8915	101.074	86.1065	101.074	85.8419	101.074	86.1547	101.074	85.7974	101.074	86.1974	101.074	85.7596	101.074	86.2334	101.074	85.7294	101.074	86.262	101.074	85.7075	101.074	86.2827	101.074	85.6942	101.074	86.2952	101.074	85.6898	101.074	86.2993	101.074	85.6942	101.074	86.2952	101.074	85.7075	101.074	86.2827	101.074	85.7294	101.074	86.262	101.074	85.7596	101.074	86.2334	101.074	85.7974	101.074	86.1974	101.074	85.8419	101.074	86.1547	101.074	85.8915	101.074	86.1065	101.074	85.9448	101.074	86.0543	101.074	85.9997
105.469	85.1786	105.469	85.1186	105.469	85.2403	105.469	85.0626	105.469	85.3012	105.469	85.0123	105.469	85.3589	105.469	84.9693	105.469	85.4112	105.469	84.9342	105.469	85.4562	105.469	84.9073	105.469	85.4925	105.469	84.8885	105.469	85.5191	105.469	84.8774	105.469	85.5353	105.469	84.8737	105.469	85.5407	105.469	84.8774	105.469	85.5353	105.469	84.8885	105.469	85.5191	105.469	84.9073	105.469	85.4925	105.469	84.9342	105.469	85.4562	105.469	84.9693	105.469	85.4112	105.469	85.0123	105.469	85.3589	105.469	85.0626	105.469	85.3012	105.469	85.1186	105.469	85.2403	105.469	85.1786
108.398	85.1112	108.398	85.0361	108.398	85.1888	108.398	84.9664	108.398	85.2658	108.398	84.9045	108.398	85.3389	108.398	84.8519	108.398	85.4053	108.398	84.8095	108.398	85.4626	108.398	84.7774	108.398	85.5089	108.398	84.7551	108.398	85.5429	108.398	84.7421	108.398	85.5636	108.398	84.7378	108.398	85.5706	108.398	84.7421	108.398	85.5636	108.398	84.7551	108.398	85.5429	108.398	84.7774	108.398	85.5089	108.398	84.8095	108.398	85.4626	108.398	84.8519	108.398	85.4053	108.398	84.9045	108.398	85.3389	108.398	84.9664	108.398	85.2658	108.398	85.0361	108.398	85.1888	108.398	85.1112
112.793	84.9533	112.793	84.8489	112.793	85.0593	112.793	84.7506	112.793	85.1627	112.793	84.6618	112.793	85.2592	112.793	84.5855	112.793	85.3455	112.793	84.5232	112.793	85.4189	112.793	84.4755	112.793	85.4774	112.793	84.4422	112.793	85.5198	112.793	84.4225	112.793	85.5454	112.793	84.4161	112.793	85.554	112.793	84.4225	112.793	85.5454	112.793	84.4422	112.793	85.5198	112.793	84.4755	112.793	85.4774	112.793	84.5232	112.793	85.4189	112.793	84.5855	112.793	85.3455	112.793	84.6618	112.793	85.2592	112.793	84.7506	112.793	85.1627	112.793	84.8489	112.793	85.0593	112.793	84.9533
117.188	85.0669	117.188	84.9126	117.188	85.2173	117.188	84.7605	117.188	85.3583	117.188	84.6169	117.188	85.4854	117.188	84.4877	117.188	85.5956	117.188	84.3775	117.188	85.6867	117.188	84.2896	117.188	85.7577	117.188	84.2261	117.188	85.8084	117.188	84.1878	117.188	85.8387	117.188	84.175	117.188	85.8487	117.188	84.1878	117.188	85.8387	117.188	84.2261	117.188	85.8084	117.188	84.2896	117.188	85.7577	117.188	84.3775	117.188	85.6867	117.188	84.4877	117.188	85.5956	117.188	84.6169	117.188	85.4854	117.188	84.7605	117.188	85.3583	117.188	84.9126	117.188	85.2173	117.188	85.0669
120.117	85.3471	120.117	85.2109	120.117	85.475	120.117	85.0711	120.117	85.5907	120.117	84.9335	120.117	85.6916	120.117	84.8043	120.117	85.7763	120.117	84.6893	120.117	85.8445	120.117	84.5941	120.117	85.8964	120.117	84.5229	120.117	85.9327	120.117	84.479	120.117	85.9542	120.117	84.4641	120.117	85.9612	120.117	84.479	120.117	85.9542	120.117	84.5229	120.117	85.9327	120.117	84.5941	120.117	85.8964	120.117	84.6893	120.117	85.8445	120.117	84.8043	120.117	85.7763	120.117	84.9335	120.117	85.6916	120.117	85.0711	120.117	85.5907	120.117	85.2109	120.117	85.475	120.117	85.3471
124.512	85.5519	124.512	85.4671	124.512	85.6322	124.512	85.3806	124.512	85.7055	124.512	85.2961	124.512	85.7699	124.512	85.2171	124.512	85.8244	124.512	85.1471	124.512	85.8686	124.512	85.0891	124.512	85.9025	124.512	85.0458	124.512	85.9262	124.512	85.019	124.512	85.9403	124.512	85.01	124.512	85.9449	124.512	85.019	124.512	85.9403	124.512	85.0458	124.512	85.9262	124.512	85.0891	124.512	85.9025	124.512	85.1471	124.512	85.8686	124.512	85.2171	124.512	85.8244	124.512	85.2961	124.512	85.7699	124.512	85.3806	124.512	85.7055	124.512	85.4671	124.512	85.6322	124.512	85.5519
128.906	85.4117	128.906	85.3316	128.906	85.4886	128.906	85.2513	128.906	85.5595	128.906	85.1743	128.906	85.6223	128.906	85.1037	128.906	85.6755	128.906	85.0423	128.906	85.7187	128.906	84.9924	128.906	85.7517	128.906	84.9557	128.906	85.7747	128.906	84.9332	128.906	85.7883	128.906	84.9257	128.906	85.7928	128.906	84.9332	128.906	85.7883	128.906	84.9557	128.906	85.7747	128.906	84.9924	128.906	85.7517	128.906	85.0423	128.906	85.7187	128.906	85.1037	128.906	85.6755	128.906	85.1743	128.906	85.6223	128.906	85.2513	128.906	85.5595	128.906	85.3316	128.906	85.4886	128.906	85.4117
133.301	85.312	133.301	85.2343	133.301	85.3866	133.301	85.1564	133.301	85.4551	133.301	85.0819	133.301	85.5154	133.301	85.0139	133.301	85.5664	133.301	84.9551	133.301	85.6074	133.301	84.9075	133.301	85.6384	133.301	84.8727	133.301	85.66	133.301	84.8514	133.301	85.6726	133.301	84.8443	133.301	85.6767	133.301	84.8514	133.301	85.6726	133.301	84.8727	133.301	85.66	133.301	84.9075	133.301	85.6384	133.301	84.9551	133.301	85.6074	133.301	85.0139	133.301	85.5664	133.301	85.0819	133.301	85.5154	133.301	85.1564	133.301	85.4551	133.301	85.2343	133.301	85.3866	133.301	85.312
139.16	85.2053	139.16	85.1257	139.16	85.2819	139.16	85.0465	139.16	85.3523	139.16	84.9712	139.16	85.4142	139.16	84.9032	139.16	85.4661	139.16	84.8451	139.16	85.5075	139.16	84.7986	139.16	85.5386	139.16	84.7648	139.16	85.56	139.16	84.7444	139.16	85.5724	139.16	84.7376	139.16	85.5765	139.16	84.7444	139.16	85.5724	139.16	84.7648	139.16	85.56	139.16	84.7986	139.16	85.5386	139.16	84.8451	139.16	85.5075	139.16	84.9032	139.16	85.4661	139.16	84.9712	139.16	85.4142	139.16	85.0465	139.16	85.3523	139.16	85.1257	139.16	85.2819	139.16	85.2053
143.555	85.0916	143.555	85.0052	143.555	85.174	143.555	84.9188	143.555	85.2492	143.555	84.8362	143.555	85.3147	143.555	84.7611	143.555	85.3692	143.555	84.6966	143.555	85.4123	143.555	84.6449	143.555	85.4445	143.555	84.6072	143.555	85.4664	143.555	84.5844	143.555	85.4791	143.555	84.5768	143.555	85.4833	143.555	84.5844	143.555	85.4791	143.555	84.6072	143.555	85.4664	143.555	84.6449	143.555	85.4445	143.555	84.6966	143.555	85.4123	143.555	84.7611	143.555	85.3692	143.555	84.8362	143.555	85.3147	143.555	84.9188	143.555	85.2492	143.555	85.0052	143.555	85.174	143.555	85.0916
147.949	84.8819	147.949	84.7957	147.949	84.9641	147.949	84.7093	147.949	85.039	147.949	84.6267	147.949	85.1042	147.949	84.5515	147.949	85.1585	147.949	84.4869	147.949	85.2013	147.949	84.4349	147.949	85.2332	147.949	84.3971	147.949	85.255	147.949	84.3742	147.949	85.2676	147.949	84.3665	147.949	85.2717	147.949	84.3742	147.949	85.2676	147.949	84.3971	147.949	85.255	147.949	84.4349	147.949	85.2332	147.949	84.4869	147.949	85.2013	147.949	84.5515	147.949	85.1585	147.949	84.6267	147.949	85.1042	147.949	84.7093	147.949	85.039	147.949	84.7957	147.949	84.9641	147.949	84.8819
153.809	84.5684	153.809	84.4927	153.809	84.6403	153.809	84.4167	153.809	84.7051	153.809	84.3443	153.809	84.7608	153.809	84.2788	153.809	84.8062	153.809	84.2227	153.809	84.8412	153.809	84.178	153.809	84.8666	153.809	84.1457	153.809	84.8834	153.809	84.1261	153.809	84.8929	153.809	84.1196	153.809	84.896	153.809	84.1261	153.809	84.8929	153.809	84.1457	153.809	84.8834	153.809	84.178	153.809	84.8666	153.809	84.2227	153.809	84.8412	153.809	84.2788	153.809	84.8062	153.809	84.3443	153.809	84.7608	153.809	84.4167	153.809	84.7051	153.809	84.4927	153.809	84.6403	153.809	84.5684
159.668	84.4632	159.668	84.3845	159.668	84.538	159.668	84.3061	159.668	84.6054	159.668	84.2321	159.668	84.6628	159.668	84.1659	159.668	84.7091	159.668	84.1101	159.668	84.7442	159.668	84.0663	159.668	84.7692	159.668	84.0351	159.668	84.7854	159.668	84.0164	159.668	84.7943	159.668	84.0102	159.668	84.7972	159.668	84.0164	159.668	84.7943	159.668	84.0351	159.668	84.7854	159.668	84.0663	159.668	84.7692	159.668	84.1101	159.668	84.7442	159.668	84.1659	159.668	84.7091	159.668	84.2321	159.668	84.6628	159.668	84.3061	159.668	84.6054	159.668	84.3845	159.668	84.538	159.668	84.4632
165.527	84.4731	165.527	84.3839	165.527	84.5567	165.527	84.2938	165.527	84.6308	165.527	84.2075	165.527	84.6929	165.527	84.1296	165.527	84.7421	165.527	84.0632	165.527	84.7787	165.527	84.0106	165.527	84.8041	165.527	83.9727	165.527	84.8203	165.527	83.95	165.527	84.8291	165.527	83.9424	165.527	84.8319	165.527	83.95	165.527	84.8291	165.527	83.9727	165.527	84.8203	165.527	84.0106	165.527	84.8041	165.527	84.0632	165.527	84.7787	165.527	84.1296	165.527	84.7421	165.527	84.2075	165.527	84.6929	165.527	84.2938	165.527	84.6308	165.527	84.3839	165.527	84.5567	165.527	84.4731
171.387	84.4515	171.387	84.3596	171.387	84.5374	171.387	84.2664	171.387	84.6131	171.387	84.1773	171.387	84.676	171.387	84.0968	171.387	84.7253	171.387	84.0283	171.387	84.7613	171.387	83.974	171.387	84.7858	171.387	83.935	171.387	84.801	171.387	83.9117	171.387	84.8091	171.387	83.9039	171.387	84.8116	171.387	83.9117	171.387	84.8091	171.387	83.935	171.387	84.801	171.387	83.974	171.387	84.7858	171.387	84.0283	171.387	84.7613	171.387	84.0968	171.387	84.7253	171.387	84.1773	171.387	84.676	171.387	84.2664	171.387	84.6131	171.387	84.3596	171.387	84.5374	171.387	84.4515
177.246	84.6228	177.246	84.5271	177.246	84.709	177.246	84.4276	177.246	84.7815	177.246	84.3301	177.246	84.8381	177.246	84.2405	177.246	84.8786	177.246	84.1631	177.246	84.9048	177.246	84.1011	177.246	84.9197	177.246	84.0561	177.246	84.9269	177.246	84.029	177.246	84.9296	177.246	84.02	177.246	84.9303	177.246	84.029	177.246	84.9296	177.246	84.0561	177.246	84.9269	177.246	84.1011	177.246	84.9197	177.246	84.1631	177.246	84.9048	177.246	84.2405	177.246	84.8786	177.246	84.3301	177.246	84.8381	177.246	84.4276	177.246	84.7815	177.246	84.5271	177.246	84.709	177.246	84.6228
183.105	84.7394	183.105	84.6519	183.105	84.8162	183.105	84.5591	183.105	84.8787	183.105	84.4667	183.105	84.925	183.105	84.3806	183.105	84.9557	183.105	84.3053	183.105	84.9729	183.105	84.2444	183.105	84.9802	183.105	84.1999	183.105	84.9817	183.105	84.1729	183.105	84.9809	183.105	84.1638	183.105	84.9804	183.105	84.1729	183.105	84.9809	183.105	84.1999	183.105	84.9817	183.105	84.2444	183.105	84.9802	183.105	84.3053	183.105	84.9729	183.105	84.3806	183.105	84.9557	183.105	84.4667	183.105	84.925	183.105	84.5591	183.105	84.8787	183.105	84.6519	183.105	84.8162	183.105	84.7394
188.965	84.4956	188.965	84.41	188.965	84.5731	188.965	84.3218	188.965	84.638	188.965	84.2365	188.965	84.6879	188.965	84.159	188.965	84.7224	188.965	84.0931	188.965	84.7432	188.965	84.0409	188.965	84.7536	188.965	84.0034	188.965	84.7572	188.965	83.981	188.965	84.7577	188.965	83.9735	188.965	84.7576	188.965	83.981	188.965	84.7577	188.965	84.0034	188.965	84.7572	188.965	84.0409	188.965	84.7536	188.965	84.0931	188.965	84.7432	188.965	84.159	188.965	84.7224	188.965	84.2365	188.965	84.6879	188.965	84.3218	188.965	84.638	188.965	84.41	188.965	84.5731	188.965	84.4956
196.289	84.2324	196.289	84.1143	196.289	84.3414	196.289	83.9951	196.289	84.4346	196.289	83.8829	196.289	84.5084	196.289	83.7842	196.289	84.5618	196.289	83.7033	196.289	84.5968	196.289	83.6417	196.289	84.6171	196.289	83.5992	196.289	84.6273	196.289	83.5745	196.289	84.6314	196.289	83.5664	196.289	84.6325	196.289	83.5745	196.289	84.6314	196.289	83.5992	196.289	84.6273	196.289	83.6417	196.289	84.6171	196.289	83.7033	196.289	84.5968	196.289	83.7842	196.289	84.5618	196.289	83.8829	196.289	84.5084	196.289	83.9951	196.289	84.4346	196.289	84.1143	196.289	84.3414	196.289	84.2324
203.613	84.812	203.613	84.6782	203.613	84.9213	203.613	84.5296	203.613	85.0007	203.613	84.3774	203.613	85.0488	203.613	84.2333	203.613	85.0688	203.613	84.107	203.613	85.0671	203.613	84.0052	203.613	85.0525	203.613	83.9316	203.613	85.0338	203.613	83.8874	203.613	85.0191	203.613	83.8727	203.613	85.0135	203.613	83.8874	203.613	85.0191	203.613	83.9316	203.613	85.0338	203.613	84.0052	203.613	85.0525	203.613	84.107	203.613	85.0671	203.613	84.2333	203.613	85.0688	203.613	84.3774	203.613	85.0488	203.613	84.5296	203.613	85.0007	203.613	84.6782	203.613	84.9213	203.613	84.812
210.938	84.8144	210.938	84.7012	210.938	84.8987	210.938	84.5671	210.938	84.9502	210.938	84.4229	210.938	84.9697	210.938	84.2802	210.938	84.9621	210.938	84.15	210.938	84.9355	210.938	84.0413	210.938	84.8999	210.938	83.9601	210.938	84.8655	210.938	83.9103	210.938	84.841	210.938	83.8935	210.938	84.8321	210.938	83.9103	210.938	84.841	210.938	83.9601	210.938	84.8655	210.938	84.0413	210.938	84.8999	210.938	84.15	210.938	84.9355	210.938	84.2802	210.938	84.9621	210.938	84.4229	210.938	84.9697	210.938	84.5671	210.938	84.9502	210.938	84.7012	210.938	84.8987	210.938	84.8144
218.262	84.7845	218.262	84.6893	218.262	84.8506	218.262	84.5718	218.262	84.8843	218.262	84.4422	218.262	84.8871	218.262	84.3116	218.262	84.8646	218.262	84.1905	218.262	84.8253	218.262	84.0882	218.262	84.7797	218.262	84.0109	218.262	84.7381	218.262	83.9631	218.262	84.7092	218.262	83.947	218.262	84.6989	218.262	83.9631	218.262	84.7092	218.262	84.0109	218.262	84.7381	218.262	84.0882	218.262	84.7797	218.262	84.1905	218.262	84.8253	218.262	84.3116	218.262	84.8646	218.262	84.4422	218.262	84.8871	218.262	84.5718	218.262	84.8843	218.262	84.6893	218.262	84.8506	218.262	84.7845
225.586	84.6827	225.586	84.5911	225.586	84.7466	225.586	84.4791	225.586	84.779	225.586	84.3569	225.586	84.7809	225.586	84.2351	225.586	84.7574	225.586	84.1235	225.586	84.7171	225.586	84.03	225.586	84.6704	225.586	83.96	225.586	84.6278	225.586	83.9169	225.586	84.5982	225.586	83.9024	225.586	84.5876	225.586	83.9169	225.586	84.5982	225.586	83.96	225.586	84.6278	225.586	84.03	225.586	84.6704	225.586	84.1235	225.586	84.7171	225.586	84.2351	225.586	84.7574	225.586	84.3569	225.586	84.7809	225.586	84.4791	225.586	84.779	225.586	84.5911	225.586	84.7466	225.586	84.6827
232.91	84.7071	232.91	84.5909	232.91	84.7829	232.91	84.4445	232.91	84.8137	232.91	84.2823	232.91	84.8017	232.91	84.12	232.91	84.7549	232.91	83.9718	232.91	84.686	232.91	83.8488	232.91	84.6102	232.91	83.7579	232.91	84.5428	232.91	83.7024	232.91	84.4966	232.91	83.6839	232.91	84.4802	232.91	83.7024	232.91	84.4966	232.91	83.7579	232.91	84.5428	232.91	83.8488	232.91	84.6102	232.91	83.9718	232.91	84.686	232.91	84.12	232.91	84.7549	232.91	84.2823	232.91	84.8017	232.91	84.4445	232.91	84.8137	232.91	84.5909	232.91	84.7829	232.91	84.7071
241.699	85.0271	241.699	84.9311	241.699	85.0736	241.699	84.7935	241.699	85.0694	241.699	84.6274	241.699	85.0198	241.699	84.4493	241.699	84.9362	241.699	84.2766	241.699	84.8339	241.699	84.1253	241.699	84.7302	241.699	84.0082	241.699	84.6419	241.699	83.9345	241.699	84.5827	241.699	83.9094	241.699	84.562	241.699	83.9345	241.699	84.5827	241.699	84.0082	241.699	84.6419	241.699	84.1253	241.699	84.7302	241.699	84.2766	241.699	84.8339	241.699	84.4493	241.699	84.9362	241.699	84.6274	241.699	85.0198	241.699	84.7935	241.699	85.0694	241.699	84.9311	241.699	85.0736	241.699	85.0271
250.488	85.0357	250.488	84.9565	250.488	85.063	250.488	84.8341	250.488	85.0366	250.488	84.6825	250.488	84.9619	250.488	84.5187	250.488	84.8511	250.488	84.3598	250.488	84.7214	250.488	84.221	250.488	84.5923	250.488	84.1141	250.488	84.4834	250.488	84.047	250.488	84.4107	250.488	84.0241	250.488	84.3853	250.488	84.047	250.488	84.4107	250.488	84.1141	250.488	84.4834	250.488	84.221	250.488	84.5923	250.488	84.3598	250.488	84.7214	250.488	84.5187	250.488	84.8511	250.488	84.6825	250.488	84.9619	250.488	84.8341	250.488	85.0366	250.488	84.9565	250.488	85.063	250.488	85.0357
259.277	85.7505	259.277	85.6516	259.277	85.7813	259.277	85.4949	259.277	85.7422	259.277	85.2983	259.277	85.6411	259.277	85.0837	259.277	85.4938	259.277	84.8742	259.277	85.3225	259.277	84.6906	259.277	85.1526	259.277	84.549	259.277	85.0092	259.277	84.4601	259.277	84.9137	259.277	84.4299	259.277	84.8802	259.277	84.4601	259.277	84.9137	259.277	84.549	259.277	85.0092	259.277	84.6906	259.277	85.1526	259.277	84.8742	259.277	85.3225	259.277	85.0837	259.277	85.4938	259.277	85.2983	259.277	85.6411	259.277	85.4949	259.277	85.7422	259.277	85.6516	259.277	85.7813	259.277	85.7505
268.066	86.346	268.066	86.2527	268.066	86.3632	268.066	86.0919	268.066	86.3048	268.066	85.8807	268.066	86.1809	268.066	85.6423	268.066	86.0096	268.066	85.4027	268.066	85.8151	268.066	85.1872	268.066	85.6247	268.066	85.0174	268.066	85.4653	268.066	84.9092	268.066	85.3595	268.066	84.8722	268.066	85.3225	268.066	84.9092	268.066	85.3595	268.066	85.0174	268.066	85.4653	268.066	85.1872	268.066	85.6247	268.066	85.4027	268.066	85.8151	268.066	85.6423	268.066	86.0096	268.066	85.8807	268.066	86.1809	268.066	86.0919	268.066	86.3048	268.066	86.2527	268.066	86.3632	268.066	86.346
276.855	86.331	276.855	86.2868	276.855	86.2945	276.855	86.1693	276.855	86.1793	276.855	85.9947	276.855	85.9974	276.855	85.7855	276.855	85.7691	276.855	85.5676	276.855	85.5217	276.855	85.367	276.855	85.2855	276.855	85.2063	276.855	85.0906	276.855	85.1028	276.855	84.9623	276.855	85.0671	276.855	84.9175	276.855	85.1028	276.855	84.9623	276.855	85.2063	276.855	85.0906	276.855	85.367	276.855	85.2855	276.855	85.5676	276.855	85.5217	276.855	85.7855	276.855	85.7691	276.855	85.9947	276.855	85.9974	276.855	86.1693	276.855	86.1793	276.855	86.2868	276.855	86.2945	276.855	86.331
287.109	86.4873	287.109	86.4578	287.109	86.4306	287.109	86.3499	287.109	86.2897	287.109	86.1804	287.109	86.0772	287.109	85.9727	287.109	85.815	287.109	85.7536	287.109	85.5324	287.109	85.5502	287.109	85.2631	287.109	85.3864	287.109	85.0408	287.109	85.2805	287.109	84.8943	287.109	85.2439	287.109	84.8432	287.109	85.2805	287.109	84.8943	287.109	85.3864	287.109	85.0408	287.109	85.5502	287.109	85.2631	287.109	85.7536	287.109	85.5324	287.109	85.9727	287.109	85.815	287.109	86.1804	287.109	86.0772	287.109	86.3499	287.109	86.2897	287.109	86.4578	287.109	86.4306	287.109	86.4873
297.363	86.5636	297.363	86.5605	297.363	86.4706	297.363	86.4684	297.363	86.2859	297.363	86.304	297.363	86.0248	297.363	86.0922	297.363	85.7128	297.363	85.8624	297.363	85.3829	297.363	85.6451	297.363	85.0725	297.363	85.468	297.363	84.8184	297.363	85.3527	297.363	84.6519	297.363	85.3127	297.363	84.5939	297.363	85.3527	297.363	84.6519	297.363	85.468	297.363	84.8184	297.363	85.6451	297.363	85.0725	297.363	85.8624	297.363	85.3829	297.363	86.0922	297.363	85.7128	297.363	86.304	297.363	86.0248	297.363	86.4684	297.363	86.2859	297.363	86.5605	297.363	86.4706	297.363	86.5636
307.617	86.824	307.617	86.8929	307.617	86.6487	307.617	86.8613	307.617	86.3728	307.617	86.746	307.617	86.0145	307.617	86.5721	307.617	85.6033	307.617	86.37	307.617	85.1779	307.617	86.1717	307.617	84.7825	307.617	86.0064	307.617	84.461	307.617	85.8973	307.617	84.251	307.617	85.8593	307.617	84.178	307.617	85.8973	307.617	84.251	307.617	86.0064	307.617	84.461	307.617	86.1717	307.617	84.7825	307.617	86.37	307.617	85.1779	307.617	86.5721	307.617	85.6033	307.617	86.746	307.617	86.0145	307.617	86.8613	307.617	86.3728	307.617	86.8929	307.617	86.6487	307.617	86.824
319.336	87.069	319.336	87.177	319.336	86.8499	319.336	87.1809	319.336	86.5251	319.336	87.0977	319.336	86.1125	319.336	86.9524	319.336	85.6428	319.336	86.7749	319.336	85.1578	319.336	86.5964	319.336	84.7061	319.336	86.4454	319.336	84.3379	319.336	86.345	319.336	84.0969	319.336	86.3098	319.336	84.013	319.336	86.345	319.336	84.0969	319.336	86.4454	319.336	84.3379	319.336	86.5964	319.336	84.7061	319.336	86.7749	319.336	85.1578	319.336	86.9524	319.336	85.6428	319.336	87.0977	319.336	86.1125	319.336	87.1809	319.336	86.5251	319.336	87.177	319.336	86.8499	319.336	87.069
329.59	87.2259	329.59	87.2847	329.59	87.0421	329.59	87.23	329.59	86.7351	329.59	87.0848	329.59	86.3219	329.59	86.8797	329.59	85.8345	329.59	86.6494	329.59	85.3186	329.59	86.4286	329.59	84.8301	329.59	86.2476	329.59	84.4271	329.59	86.1294	329.59	84.1613	329.59	86.0884	329.59	84.0685	329.59	86.1294	329.59	84.1613	329.59	86.2476	329.59	84.4271	329.59	86.4286	329.59	84.8301	329.59	86.6494	329.59	85.3186	329.59	86.8797	329.59	85.8345	329.59	87.0848	329.59	86.3219	329.59	87.23	329.59	86.7351	329.59	87.2847	329.59	87.0421	329.59	87.2259
341.309	87.786	341.309	87.8494	341.309	87.58	341.309	87.7822	341.309	87.2338	341.309	87.6095	341.309	86.7663	341.309	87.3658	341.309	86.2129	341.309	87.0914	341.309	85.6248	341.309	86.8271	341.309	85.065	341.309	86.6097	341.309	84.6009	341.309	86.4675	341.309	84.2936	341.309	86.4181	341.309	84.186	341.309	86.4675	341.309	84.2936	341.309	86.6097	341.309	84.6009	341.309	86.8271	341.309	85.065	341.309	87.0914	341.309	85.6248	341.309	87.3658	341.309	86.2129	341.309	87.6095	341.309	86.7663	341.309	87.7822	341.309	87.2338	341.309	87.8494	341.309	87.58	341.309	87.786
353.027	87.9489	353.027	88.0108	353.027	87.7393	353.027	87.9357	353.027	87.3867	353.027	87.7476	353.027	86.9118	353.027	87.4818	353.027	86.3521	353.027	87.1806	353.027	85.7598	353.027	86.8884	353.027	85.1983	353.027	86.6465	353.027	84.7343	353.027	86.4874	353.027	84.4279	353.027	86.432	353.027	84.3208	353.027	86.4874	353.027	84.4279	353.027	86.6465	353.027	84.7343	353.027	86.8884	353.027	85.1983	353.027	87.1806	353.027	85.7598	353.027	87.4818	353.027	86.3521	353.027	87.7476	353.027	86.9118	353.027	87.9357	353.027	87.3867	353.027	88.0108	353.027	87.7393	353.027	87.9489
366.211	87.8448	366.211	87.9453	366.211	87.5944	366.211	87.9028	366.211	87.2036	366.211	87.7389	366.211	86.6983	366.211	87.488	366.211	86.1203	366.211	87.193	366.211	85.5244	366.211	86.9008	366.211	84.9726	366.211	86.6553	366.211	84.5262	366.211	86.4926	366.211	84.2361	366.211	86.4357	366.211	84.1356	366.211	86.4926	366.211	84.2361	366.211	86.6553	366.211	84.5262	366.211	86.9008	366.211	84.9726	366.211	87.193	366.211	85.5244	366.211	87.488	366.211	86.1203	366.211	87.7389	366.211	86.6983	366.211	87.9028	366.211	87.2036	366.211	87.9453	366.211	87.5944	366.211	87.8448
379.395	87.93	379.395	88.1242	379.395	87.5716	379.395	88.1597	379.395	87.0623	379.395	88.0584	379.395	86.4345	379.395	87.856	379.395	85.7392	379.395	87.5976	379.395	85.0416	379.395	87.3317	379.395	84.4122	379.395	87.1042	379.395	83.9152	379.395	86.9519	379.395	83.5987	379.395	86.8984	379.395	83.4903	379.395	86.9519	379.395	83.5987	379.395	87.1042	379.395	83.9152	379.395	87.3317	379.395	84.4122	379.395	87.5976	379.395	85.0416	379.395	87.856	379.395	85.7392	379.395	88.0584	379.395	86.4345	379.395	88.1597	379.395	87.0623	379.395	88.1242	379.395	87.5716	379.395	87.93
392.578	87.8856	392.578	88.0449	392.578	87.5427	392.578	88.0321	392.578	87.0244	392.578	87.8765	392.578	86.3615	392.578	87.6208	392.578	85.6071	392.578	87.316	392.578	84.834	392.578	87.0146	392.578	84.1254	392.578	86.7635	392.578	83.5597	392.578	86.5982	392.578	83.1973	392.578	86.5408	392.578	83.0728	392.578	86.5982	392.578	83.1973	392.578	86.7635	392.578	83.5597	392.578	87.0146	392.578	84.1254	392.578	87.316	392.578	84.834	392.578	87.6208	392.578	85.6071	392.578	87.8765	392.578	86.3615	392.578	88.0321	392.578	87.0244	392.578	88.0449	392.578	87.5427	392.578	87.8856
405.762	87.7152	405.762	87.8709	405.762	87.3698	405.762	87.8494	405.762	86.8436	405.762	87.6812	405.762	86.1688	405.762	87.411	405.762	85.401	405.762	87.0922	405.762	84.6159	405.762	86.7788	405.762	83.8987	405.762	86.5188	405.762	83.3289	405.762	86.3482	405.762	82.9654	405.762	86.289	405.762	82.8409	405.762	86.3482	405.762	82.9654	405.762	86.5188	405.762	83.3289	405.762	86.7788	405.762	83.8987	405.762	87.0922	405.762	84.6159	405.762	87.411	405.762	85.401	405.762	87.6812	405.762	86.1688	405.762	87.8494	405.762	86.8436	405.762	87.8709	405.762	87.3698	405.762	87.7152
420.41	87.5891	420.41	87.7236	420.41	87.275	420.41	87.6916	420.41	86.79	420.41	87.5241	420.41	86.1658	420.41	87.2658	420.41	85.4569	420.41	86.968	420.41	84.7359	420.41	86.6809	420.41	84.0826	420.41	86.4465	420.41	83.568	420.41	86.2946	420.41	83.2421	420.41	86.2421	420.41	83.131	420.41	86.2946	420.41	83.2421	420.41	86.4465	420.41	83.568	420.41	86.6809	420.41	84.0826	420.41	86.968	420.41	84.7359	420.41	87.2658	420.41	85.4569	420.41	87.5241	420.41	86.1658	420.41	87.6916	420.41	86.79	420.41	87.7236	420.41	87.275	420.41	87.5891
435.059	87.4326	435.059	87.5298	435.059	87.1489	435.059	87.4555	435.059	86.6866	435.059	87.2442	435.059	86.0787	435.059	86.9441	435.059	85.3827	435.059	86.6102	435.059	84.675	435.059	86.2949	435.059	84.0376	435.059	86.0411	435.059	83.5407	435.059	85.878	435.059	83.2294	435.059	85.8219	435.059	83.124	435.059	85.878	435.059	83.2294	435.059	86.0411	435.059	83.5407	435.059	86.2949	435.059	84.0376	435.059	86.6102	435.059	84.675	435.059	86.9441	435.059	85.3827	435.059	87.2442	435.059	86.0787	435.059	87.4555	435.059	86.6866	435.059	87.5298	435.059	87.1489	435.059	87.4326
451.172	87.3133	451.172	87.3712	451.172	87.0755	451.172	87.2695	451.172	86.6611	451.172	87.0476	451.172	86.1004	451.172	86.7559	451.172	85.4493	451.172	86.4467	451.172	84.783	451.172	86.1647	451.172	84.1821	451.172	85.9432	451.172	83.7143	451.172	85.803	451.172	83.422	451.172	85.7551	451.172	83.3232	451.172	85.803	451.172	83.422	451.172	85.9432	451.172	83.7143	451.172	86.1647	451.172	84.1821	451.172	86.4467	451.172	84.783	451.172	86.7559	451.172	85.4493	451.172	87.0476	451.172	86.1004	451.172	87.2695	451.172	86.6611	451.172	87.3712	451.172	87.0755	451.172	87.3133
465.82	87.0602	465.82	87.1384	465.82	86.8117	465.82	87.0692	465.82	86.3924	465.82	86.892	465.82	85.8291	465.82	86.6533	465.82	85.1757	465.82	86.3986	465.82	84.5076	465.82	86.1652	465.82	83.9068	465.82	85.9807	465.82	83.4416	465.82	85.8632	465.82	83.1528	465.82	85.8229	465.82	83.0556	465.82	85.8632	465.82	83.1528	465.82	85.9807	465.82	83.4416	465.82	86.1652	465.82	83.9068	465.82	86.3986	465.82	84.5076	465.82	86.6533	465.82	85.1757	465.82	86.892	465.82	85.8291	465.82	87.0692	465.82	86.3924	465.82	87.1384	465.82	86.8117	465.82	87.0602
483.398	87.0214	483.398	87.0532	483.398	86.863	483.398	86.9866	483.398	86.5658	483.398	86.8561	483.398	86.1404	483.398	86.6941	483.398	85.6231	483.398	86.5269	483.398	85.0728	483.398	86.3743	483.398	84.5599	483.398	86.2521	483.398	84.1495	483.398	86.1728	483.398	83.8879	483.398	86.1452	483.398	83.7986	483.398	86.1728	483.398	83.8879	483.398	86.2521	483.398	84.1495	483.398	86.3743	483.398	84.5599	483.398	86.5269	483.398	85.0728	483.398	86.6941	483.398	85.6231	483.398	86.8561	483.398	86.1404	483.398	86.9866	483.398	86.5658	483.398	87.0532	483.398	86.863	483.398	87.0214
499.512	87.29	499.512	87.3044	499.512	87.163	499.512	87.2233	499.512	86.9162	499.512	87.0685	499.512	86.5596	499.512	86.8641	499.512	86.1242	499.512	86.6368	499.512	85.6605	499.512	86.4155	499.512	85.2283	499.512	86.23	499.512	84.8828	499.512	86.1067	499.512	84.6625	499.512	86.0634	499.512	84.5873	499.512	86.1067	499.512	84.6625	499.512	86.23	499.512	84.8828	499.512	86.4155	499.512	85.2283	499.512	86.6368	499.512	85.6605	499.512	86.8641	499.512	86.1242	499.512	87.0685	499.512	86.5596	499.512	87.2233	499.512	86.9162	499.512	87.3044	499.512	87.163	499.512	87.29
517.09	87.1545	517.09	87.187	517.09	87.0122	517.09	87.1167	517.09	86.7611	517.09	86.9547	517.09	86.4171	517.09	86.7177	517.09	86.0142	517.09	86.4328	517.09	85.6002	517.09	86.1391	517.09	85.2258	517.09	85.8831	517.09	84.9329	517.09	85.7087	517.09	84.7486	517.09	85.6468	517.09	84.6859	517.09	85.7087	517.09	84.7486	517.09	85.8831	517.09	84.9329	517.09	86.1391	517.09	85.2258	517.09	86.4328	517.09	85.6002	517.09	86.7177	517.09	86.0142	517.09	86.9547	517.09	86.4171	517.09	87.1167	517.09	86.7611	517.09	87.187	517.09	87.0122	517.09	87.1545
536.133	87.3063	536.133	87.3906	536.133	87.0809	536.133	87.3406	536.133	86.7245	536.133	87.1743	536.133	86.2683	536.133	86.9202	536.133	85.7632	536.133	86.6171	536.133	85.2698	536.133	86.3116	536.133	84.8436	536.133	86.0519	536.133	84.5228	536.133	85.8785	536.133	84.3266	536.133	85.8176	536.133	84.2609	536.133	85.8785	536.133	84.3266	536.133	86.0519	536.133	84.5228	536.133	86.3116	536.133	84.8436	536.133	86.6171	536.133	85.2698	536.133	86.9202	536.133	85.7632	536.133	87.1743	536.133	86.2683	536.133	87.3406	536.133	86.7245	536.133	87.3906	536.133	87.0809	536.133	87.3063
555.176	87.1206	555.176	87.191	555.176	86.9336	555.176	87.1533	555.176	86.6283	555.176	87.0195	555.176	86.2187	555.176	86.809	555.176	85.7412	555.176	86.5531	555.176	85.2513	555.176	86.2929	555.176	84.8108	555.176	86.0713	555.176	84.47	555.176	85.9236	555.176	84.2583	555.176	85.8719	555.176	84.1871	555.176	85.9236	555.176	84.2583	555.176	86.0713	555.176	84.47	555.176	86.2929	555.176	84.8108	555.176	86.5531	555.176	85.2513	555.176	86.809	555.176	85.7412	555.176	87.0195	555.176	86.2187	555.176	87.1533	555.176	86.6283	555.176	87.191	555.176	86.9336	555.176	87.1206
574.219	87.4588	574.219	87.4664	574.219	87.3322	574.219	87.3612	574.219	87.0844	574.219	87.1549	574.219	86.7232	574.219	86.871	574.219	86.2741	574.219	86.5485	574.219	85.7837	574.219	86.2355	574.219	85.3131	574.219	85.9784	574.219	84.9251	574.219	85.8115	574.219	84.6711	574.219	85.7539	574.219	84.583	574.219	85.8115	574.219	84.6711	574.219	85.9784	574.219	84.9251	574.219	86.2355	574.219	85.3131	574.219	86.5485	574.219	85.7837	574.219	86.871	574.219	86.2741	574.219	87.1549	574.219	86.7232	574.219	87.3612	574.219	87.0844	574.219	87.4664	574.219	87.3322	574.219	87.4588
594.727	87.8955	594.727	87.7634	594.727	87.8327	594.727	87.4665	594.727	87.5721	594.727	87.0577	594.727	87.1396	594.727	86.6043	594.727	86.5883	594.727	86.1734	594.727	85.9912	594.727	85.816	594.727	85.4286	594.727	85.5585	594.727	84.973	594.727	85.4065	594.727	84.6784	594.727	85.3567	594.727	84.5767	594.727	85.4065	594.727	84.6784	594.727	85.5585	594.727	84.973	594.727	85.816	594.727	85.4286	594.727	86.1734	594.727	85.9912	594.727	86.6043	594.727	86.5883	594.727	87.0577	594.727	87.1396	594.727	87.4665	594.727	87.5721	594.727	87.7634	594.727	87.8327	594.727	87.8955
615.234	87.1768	615.234	86.9045	615.234	87.3281	615.234	86.5799	615.234	87.3037	615.234	86.2648	615.234	87.0815	615.234	85.9996	615.234	86.6818	615.234	85.7994	615.234	86.1644	615.234	85.66	615.234	85.6174	615.234	85.5695	615.234	85.1378	615.234	85.5182	615.234	84.8113	615.234	85.5015	615.234	84.6957	615.234	85.5182	615.234	84.8113	615.234	85.5695	615.234	85.1378	615.234	85.66	615.234	85.6174	615.234	85.7994	615.234	86.1644	615.234	85.9996	615.234	86.6818	615.234	86.2648	615.234	87.0815	615.234	86.5799	615.234	87.3037	615.234	86.9045	615.234	87.3281	615.234	87.1768
637.207	87.1651	637.207	86.9829	637.207	87.2361	637.207	86.7654	637.207	87.1361	637.207	86.5757	637.207	86.8408	637.207	86.4404	637.207	86.3706	637.207	86.3494	637.207	85.7886	637.207	86.2799	637.207	85.1881	637.207	86.2202	637.207	84.6708	637.207	86.1758	637.207	84.3234	637.207	86.159	637.207	84.2014	637.207	86.1758	637.207	84.3234	637.207	86.2202	637.207	84.6708	637.207	86.2799	637.207	85.1881	637.207	86.3494	637.207	85.7886	637.207	86.4404	637.207	86.3706	637.207	86.5757	637.207	86.8408	637.207	86.7654	637.207	87.1361	637.207	86.9829	637.207	87.2361	637.207	87.1651
659.18	86.7913	659.18	86.5588	659.18	86.8507	659.18	86.2262	659.18	86.7084	659.18	85.882	659.18	86.3815	659.18	85.5849	659.18	85.9206	659.18	85.3428	659.18	85.3972	659.18	85.1396	659.18	84.8905	659.18	84.9706	659.18	84.4737	659.18	84.8528	659.18	84.2022	659.18	84.81	659.18	84.1083	659.18	84.8528	659.18	84.2022	659.18	84.9706	659.18	84.4737	659.18	85.1396	659.18	84.8905	659.18	85.3428	659.18	85.3972	659.18	85.5849	659.18	85.9206	659.18	85.882	659.18	86.3815	659.18	86.2262	659.18	86.7084	659.18	86.5588	659.18	86.8507	659.18	86.7913
682.617	86.6637	682.617	86.2296	682.617	86.999	682.617	85.9076	682.617	87.077	682.617	85.802	682.617	86.8517	682.617	85.8322	682.617	86.3713	682.617	85.8565	682.617	85.7429	682.617	85.8058	682.617	85.0974	682.617	85.6988	682.617	84.5547	682.617	85.5966	682.617	84.1998	682.617	85.5552	682.617	84.0773	682.617	85.5966	682.617	84.1998	682.617	85.6988	682.617	84.5547	682.617	85.8058	682.617	85.0974	682.617	85.8565	682.617	85.7429	682.617	85.8322	682.617	86.3713	682.617	85.802	682.617	86.8517	682.617	85.9076	682.617	87.077	682.617	86.2296	682.617	86.999	682.617	86.6637
707.52	86.4422	707.52	86.095	707.52	86.7215	707.52	85.907	707.52	86.7335	707.52	85.9325	707.52	86.4124	707.52	86.0331	707.52	85.8122	707.52	86.0667	707.52	85.0591	707.52	85.9982	707.52	84.304	707.52	85.8746	707.52	83.6803	707.52	85.7657	707.52	83.2774	707.52	85.7233	707.52	83.1391	707.52	85.7657	707.52	83.2774	707.52	85.8746	707.52	83.6803	707.52	85.9982	707.52	84.304	707.52	86.0667	707.52	85.0591	707.52	86.0331	707.52	85.8122	707.52	85.9325	707.52	86.4124	707.52	85.907	707.52	86.7335	707.52	86.095	707.52	86.7215	707.52	86.4422
732.422	86.1633	732.422	85.9922	732.422	86.4074	732.422	86.0516	732.422	86.482	732.422	86.2443	732.422	86.2675	732.422	86.3723	732.422	85.7918	732.422	86.3427	732.422	85.1692	732.422	86.1881	732.422	84.5371	732.422	85.9963	732.422	84.0129	732.422	85.849	732.422	83.6735	732.422	85.7948	732.422	83.5568	732.422	85.849	732.422	83.6735	732.422	85.9963	732.422	84.0129	732.422	86.1881	732.422	84.5371	732.422	86.3427	732.422	85.1692	732.422	86.3723	732.422	85.7918	732.422	86.2443	732.422	86.2675	732.422	86.0516	732.422	86.482	732.422	85.9922	732.422	86.4074	732.422	86.1633
757.324	85.8643	757.324	85.785	757.324	86.2162	757.324	86.0947	757.324	86.4711	757.324	86.5013	757.324	86.4152	757.324	86.7146	757.324	86.0544	757.324	86.6725	757.324	85.5067	757.324	86.466	757.324	84.9144	757.324	86.2246	757.324	84.4009	757.324	86.0468	757.324	84.0563	757.324	85.983	757.324	83.9354	757.324	86.0468	757.324	84.0563	757.324	86.2246	757.324	84.4009	757.324	86.466	757.324	84.9144	757.324	86.6725	757.324	85.5067	757.324	86.7146	757.324	86.0544	757.324	86.5013	757.324	86.4152	757.324	86.0947	757.324	86.4711	757.324	85.785	757.324	86.2162	757.324	85.8643
785.156	86.175	785.156	86.1895	785.156	86.2733	785.156	86.3736	785.156	86.2471	785.156	86.5378	785.156	85.9408	785.156	86.5059	785.156	85.3546	785.156	86.2662	785.156	84.5851	785.156	85.921	785.156	83.7674	785.156	85.5919	785.156	83.0457	785.156	85.3657	785.156	82.5505	785.156	85.2861	785.156	82.3743	785.156	85.3657	785.156	82.5505	785.156	85.5919	785.156	83.0457	785.156	85.921	785.156	83.7674	785.156	86.2662	785.156	84.5851	785.156	86.5059	785.156	85.3546	785.156	86.5378	785.156	85.9408	785.156	86.3736	785.156	86.2471	785.156	86.1895	785.156	86.2733	785.156	86.175
811.523	85.3644	811.523	85.49	811.523	85.6713	811.523	85.9449	811.523	86.0258	811.523	86.3085	811.523	86.0799	811.523	86.362	811.523	85.7519	811.523	86.1409	811.523	85.1334	811.523	85.7824	811.523	84.3915	811.523	85.4212	811.523	83.7089	811.523	85.1596	811.523	83.2377	811.523	85.0643	811.523	83.0706	811.523	85.1596	811.523	83.2377	811.523	85.4212	811.523	83.7089	811.523	85.7824	811.523	84.3915	811.523	86.1409	811.523	85.1334	811.523	86.362	811.523	85.7519	811.523	86.3085	811.523	86.0799	811.523	85.9449	811.523	86.0258	811.523	85.49	811.523	85.6713	811.523	85.3644
840.82	85.6864	840.82	86.1348	840.82	85.6777	840.82	86.703	840.82	85.902	840.82	87.0139	840.82	85.9565	840.82	86.9647	840.82	85.685	840.82	86.6343	840.82	85.1667	840.82	86.1523	840.82	84.5774	840.82	85.6544	840.82	84.0801	840.82	85.2778	840.82	83.7666	840.82	85.1369	840.82	83.662	840.82	85.2778	840.82	83.7666	840.82	85.6544	840.82	84.0801	840.82	86.1523	840.82	84.5774	840.82	86.6343	840.82	85.1667	840.82	86.9647	840.82	85.685	840.82	87.0139	840.82	85.9565	840.82	86.703	840.82	85.902	840.82	86.1348	840.82	85.6777	840.82	85.6864
870.117	85.8367	870.117	86.3392	870.117	85.5835	870.117	86.8621	870.117	85.4811	870.117	87.1257	870.117	85.2827	870.117	87.0109	870.117	84.9032	870.117	86.5415	870.117	84.4324	870.117	85.8386	870.117	83.9995	870.117	85.0966	870.117	83.6804	870.117	84.5363	870.117	83.4938	870.117	84.3287	870.117	83.4334	870.117	84.5363	870.117	83.4938	870.117	85.0966	870.117	83.6804	870.117	85.8386	870.117	83.9995	870.117	86.5415	870.117	84.4324	870.117	87.0109	870.117	84.9032	870.117	87.1257	870.117	85.2827	870.117	86.8621	870.117	85.4811	870.117	86.3392	870.117	85.5835	870.117	85.8367
900.879	85.8988	900.879	86.191	900.879	86.0569	900.879	86.7475	900.879	86.3039	900.879	87.09	900.879	86.2974	900.879	86.9694	900.879	85.9959	900.879	86.4157	900.879	85.5099	900.879	85.6352	900.879	84.9527	900.879	84.9008	900.879	84.4234	900.879	84.4174	900.879	84.0345	900.879	84.2551	900.879	83.8905	900.879	84.4174	900.879	84.0345	900.879	84.9008	900.879	84.4234	900.879	85.6352	900.879	84.9527	900.879	86.4157	900.879	85.5099	900.879	86.9694	900.879	85.9959	900.879	87.09	900.879	86.2974	900.879	86.7475	900.879	86.3039	900.879	86.191	900.879	86.0569	900.879	85.8988
933.105	85.6729	933.105	86.4688	933.105	85.2398	933.105	87.2075	933.105	85.1185	933.105	87.4774	933.105	85.024	933.105	87.1805	933.105	84.8388	933.105	86.4878	933.105	84.5491	933.105	85.7078	933.105	84.1436	933.105	85.1027	933.105	83.6669	933.105	84.7613	933.105	83.261	933.105	84.6558	933.105	83.0992	933.105	84.7613	933.105	83.261	933.105	85.1027	933.105	83.6669	933.105	85.7078	933.105	84.1436	933.105	86.4878	933.105	84.5491	933.105	87.1805	933.105	84.8388	933.105	87.4774	933.105	85.024	933.105	87.2075	933.105	85.1185	933.105	86.4688	933.105	85.2398	933.105	85.6729
965.332	84.6938	965.332	85.4239	965.332	84.7365	965.332	86.3059	965.332	85.2129	965.332	86.6883	965.332	85.568	965.332	86.4618	965.332	85.6306	965.332	85.8554	965.332	85.4056	965.332	85.177	965.332	84.9643	965.332	84.6264	965.332	84.4546	965.332	84.2758	965.332	84.0581	965.332	84.1544	965.332	83.9102	965.332	84.2758	965.332	84.0581	965.332	84.6264	965.332	84.4546	965.332	85.177	965.332	84.9643	965.332	85.8554	965.332	85.4056	965.332	86.4618	965.332	85.6306	965.332	86.6883	965.332	85.568	965.332	86.3059	965.332	85.2129	965.332	85.4239	965.332	84.7365	965.332	84.6938
1,000.49	84.6737	1,000.49	85.7571	1,000.49	83.9769	1,000.49	86.5556	1,000.49	83.9202	1,000.49	86.7266	1,000.49	84.1309	1,000.49	86.339	1,000.49	84.2789	1,000.49	85.6758	1,000.49	84.2318	1,000.49	85.0046	1,000.49	83.9807	1,000.49	84.4505	1,000.49	83.6315	1,000.49	84.0711	1,000.49	83.3423	1,000.49	83.9328	1,000.49	83.2324	1,000.49	84.0711	1,000.49	83.3423	1,000.49	84.4505	1,000.49	83.6315	1,000.49	85.0046	1,000.49	83.9807	1,000.49	85.6758	1,000.49	84.2318	1,000.49	86.339	1,000.49	84.2789	1,000.49	86.7266	1,000.49	84.1309	1,000.49	86.5556	1,000.49	83.9202	1,000.49	85.7571	1,000.49	83.9769	1,000.49	84.6737
1,035.64	84.3603	1,035.64	85.5068	1,035.64	84.0631	1,035.64	86.6862	1,035.64	84.3838	1,035.64	87.1815	1,035.64	84.8018	1,035.64	86.9434	1,035.64	85.0974	1,035.64	86.3005	1,035.64	85.1622	1,035.64	85.6263	1,035.64	85.0116	1,035.64	85.1133	1,035.64	84.7786	1,035.64	84.7997	1,035.64	84.599	1,035.64	84.6932	1,035.64	84.5355	1,035.64	84.7997	1,035.64	84.599	1,035.64	85.1133	1,035.64	84.7786	1,035.64	85.6263	1,035.64	85.0116	1,035.64	86.3005	1,035.64	85.1622	1,035.64	86.9434	1,035.64	85.0974	1,035.64	87.1815	1,035.64	84.8018	1,035.64	86.6862	1,035.64	84.3838	1,035.64	85.5068	1,035.64	84.0631	1,035.64	84.3603
1,072.27	83.8902	1,072.27	85.6684	1,072.27	82.8461	1,072.27	86.8353	1,072.27	83.1456	1,072.27	86.9868	1,072.27	83.9325	1,072.27	86.4611	1,072.27	84.5322	1,072.27	85.7997	1,072.27	84.7173	1,072.27	85.2448	1,072.27	84.5531	1,072.27	84.7789	1,072.27	84.2519	1,072.27	84.44	1,072.27	84.01	1,072.27	84.3152	1,072.27	83.9227	1,072.27	84.44	1,072.27	84.01	1,072.27	84.7789	1,072.27	84.2519	1,072.27	85.2448	1,072.27	84.5531	1,072.27	85.7997	1,072.27	84.7173	1,072.27	86.4611	1,072.27	84.5322	1,072.27	86.9868	1,072.27	83.9325	1,072.27	86.8353	1,072.27	83.1456	1,072.27	85.6684	1,072.27	82.8461	1,072.27	83.8902
1,108.89	82.9066	1,108.89	85.0219	1,108.89	81.8908	1,108.89	86.3378	1,108.89	82.9692	1,108.89	86.5463	1,108.89	84.5381	1,108.89	86.1408	1,108.89	85.5592	1,108.89	85.6028	1,108.89	85.809	1,108.89	85.0617	1,108.89	85.4233	1,108.89	84.5724	1,108.89	84.7011	1,108.89	84.2447	1,108.89	84.0223	1,108.89	84.134	1,108.89	83.7448	1,108.89	84.2447	1,108.89	84.0223	1,108.89	84.5724	1,108.89	84.7011	1,108.89	85.0617	1,108.89	85.4233	1,108.89	85.6028	1,108.89	85.809	1,108.89	86.1408	1,108.89	85.5592	1,108.89	86.5463	1,108.89	84.5381	1,108.89	86.3378	1,108.89	82.9692	1,108.89	85.0219	1,108.89	81.8908	1,108.89	82.9066
1,148.44	82.9359	1,148.44	84.9403	1,148.44	81.0118	1,148.44	85.8481	1,148.44	81.5069	1,148.44	85.8777	1,148.44	83.5021	1,148.44	85.6781	1,148.44	84.983	1,148.44	85.5486	1,148.44	85.5038	1,148.44	85.433	1,148.44	85.2546	1,148.44	85.2905	1,148.44	84.6036	1,148.44	85.1502	1,148.44	83.9712	1,148.44	85.0884	1,148.44	83.7128	1,148.44	85.1502	1,148.44	83.9712	1,148.44	85.2905	1,148.44	84.6036	1,148.44	85.433	1,148.44	85.2546	1,148.44	85.5486	1,148.44	85.5038	1,148.44	85.6781	1,148.44	84.983	1,148.44	85.8777	1,148.44	83.5021	1,148.44	85.8481	1,148.44	81.5069	1,148.44	84.9403	1,148.44	81.0118	1,148.44	82.9359
1,189.45	83.1664	1,189.45	84.6112	1,189.45	81.7906	1,189.45	85.4202	1,189.45	82.1169	1,189.45	85.7539	1,189.45	83.9655	1,189.45	85.9288	1,189.45	85.5391	1,189.45	86.0069	1,189.45	86.1617	1,189.45	85.8881	1,189.45	85.9161	1,189.45	85.5156	1,189.45	85.1585	1,189.45	85.054	1,189.45	84.3813	1,189.45	84.8394	1,189.45	84.055	1,189.45	85.054	1,189.45	84.3813	1,189.45	85.5156	1,189.45	85.1585	1,189.45	85.8881	1,189.45	85.9161	1,189.45	86.0069	1,189.45	86.1617	1,189.45	85.9288	1,189.45	85.5391	1,189.45	85.7539	1,189.45	83.9655	1,189.45	85.4202	1,189.45	82.1169	1,189.45	84.6112	1,189.45	81.7906	1,189.45	83.1664
1,230.47	84.1238	1,230.47	85.0077	1,230.47	82.607	1,230.47	85.1202	1,230.47	82.1087	1,230.47	85.1977	1,230.47	83.5156	1,230.47	85.7327	1,230.47	84.9125	1,230.47	86.207	1,230.47	85.2923	1,230.47	86.1007	1,230.47	84.7615	1,230.47	85.4801	1,230.47	83.8381	1,230.47	84.7988	1,230.47	83.0871	1,230.47	84.5147	1,230.47	82.8162	1,230.47	84.7988	1,230.47	83.0871	1,230.47	85.4801	1,230.47	83.8381	1,230.47	86.1007	1,230.47	84.7615	1,230.47	86.207	1,230.47	85.2923	1,230.47	85.7327	1,230.47	84.9125	1,230.47	85.1977	1,230.47	83.5156	1,230.47	85.1202	1,230.47	82.1087	1,230.47	85.0077	1,230.47	82.607	1,230.47	84.1238
1,274.41	83.2109	1,274.41	84.5638	1,274.41	81.7916	1,274.41	85.4227	1,274.41	81.7284	1,274.41	85.9935	1,274.41	83.4076	1,274.41	86.3528	1,274.41	85.0288	1,274.41	86.2349	1,274.41	85.6621	1,274.41	85.5897	1,274.41	85.4429	1,274.41	84.8	1,274.41	84.8316	1,274.41	84.2789	1,274.41	84.2674	1,274.41	84.1175	1,274.41	84.0441	1,274.41	84.2789	1,274.41	84.2674	1,274.41	84.8	1,274.41	84.8316	1,274.41	85.5897	1,274.41	85.4429	1,274.41	86.2349	1,274.41	85.6621	1,274.41	86.3528	1,274.41	85.0288	1,274.41	85.9935	1,274.41	83.4076	1,274.41	85.4227	1,274.41	81.7284	1,274.41	84.5638	1,274.41	81.7916	1,274.41	83.2109
1,319.82	84.1731	1,319.82	84.6704	1,319.82	83.265	1,319.82	85.2349	1,319.82	82.4421	1,319.82	86.1042	1,319.82	82.8363	1,319.82	86.5657	1,319.82	83.8287	1,319.82	86.1094	1,319.82	84.2237	1,319.82	85.0267	1,319.82	83.8718	1,319.82	84.0593	1,319.82	83.0492	1,319.82	83.5819	1,319.82	82.1714	1,319.82	83.4586	1,319.82	81.7816	1,319.82	83.5819	1,319.82	82.1714	1,319.82	84.0593	1,319.82	83.0492	1,319.82	85.0267	1,319.82	83.8718	1,319.82	86.1094	1,319.82	84.2237	1,319.82	86.5657	1,319.82	83.8287	1,319.82	86.1042	1,319.82	82.8363	1,319.82	85.2349	1,319.82	82.4421	1,319.82	84.6704	1,319.82	83.265	1,319.82	84.1731
1,366.7	84.4624	1,366.7	85.3826	1,366.7	83.429	1,366.7	86.2913	1,366.7	82.7394	1,366.7	87.0435	1,366.7	83.3261	1,366.7	87.1078	1,366.7	84.5227	1,366.7	86.3717	1,366.7	85.0921	1,366.7	85.3141	1,366.7	84.7927	1,366.7	84.2818	1,366.7	83.9301	1,366.7	83.3591	1,366.7	83.0513	1,366.7	82.9437	1,366.7	82.6877	1,366.7	83.3591	1,366.7	83.0513	1,366.7	84.2818	1,366.7	83.9301	1,366.7	85.3141	1,366.7	84.7927	1,366.7	86.3717	1,366.7	85.0921	1,366.7	87.1078	1,366.7	84.5227	1,366.7	87.0435	1,366.7	83.3261	1,366.7	86.2913	1,366.7	82.7394	1,366.7	85.3826	1,366.7	83.429	1,366.7	84.4624
1,413.57	84.6128	1,413.57	85.791	1,413.57	83.6672	1,413.57	86.7562	1,413.57	83.3446	1,413.57	87.1071	1,413.57	83.9238	1,413.57	86.7541	1,413.57	84.9881	1,413.57	86.1023	1,413.57	85.6135	1,413.57	85.412	1,413.57	85.3796	1,413.57	84.5448	1,413.57	84.5559	1,413.57	83.7687	1,413.57	83.7706	1,413.57	83.4903	1,413.57	83.4737	1,413.57	83.7687	1,413.57	83.7706	1,413.57	84.5448	1,413.57	84.5559	1,413.57	85.412	1,413.57	85.3796	1,413.57	86.1023	1,413.57	85.6135	1,413.57	86.7541	1,413.57	84.9881	1,413.57	87.1071	1,413.57	83.9238	1,413.57	86.7562	1,413.57	83.3446	1,413.57	85.791	1,413.57	83.6672	1,413.57	84.6128
1,463.38	85.0671	1,463.38	85.7316	1,463.38	84.271	1,463.38	86.626	1,463.38	83.6686	1,463.38	87.4353	1,463.38	84.2142	1,463.38	87.3614	1,463.38	85.1331	1,463.38	86.4295	1,463.38	84.9137	1,463.38	85.3081	1,463.38	83.5471	1,463.38	84.8639	1,463.38	82.0575	1,463.38	85.0827	1,463.38	81.2023	1,463.38	85.2524	1,463.38	80.9606	1,463.38	85.0827	1,463.38	81.2023	1,463.38	84.8639	1,463.38	82.0575	1,463.38	85.3081	1,463.38	83.5471	1,463.38	86.4295	1,463.38	84.9137	1,463.38	87.3614	1,463.38	85.1331	1,463.38	87.4353	1,463.38	84.2142	1,463.38	86.626	1,463.38	83.6686	1,463.38	85.7316	1,463.38	84.271	1,463.38	85.0671
1,516.11	84.266	1,516.11	85.1243	1,516.11	83.9998	1,516.11	86.271	1,516.11	83.9955	1,516.11	86.9032	1,516.11	84.4814	1,516.11	86.902	1,516.11	85.0952	1,516.11	86.5265	1,516.11	85.0814	1,516.11	86.3156	1,516.11	84.5582	1,516.11	86.4638	1,516.11	83.7424	1,516.11	86.4796	1,516.11	82.739	1,516.11	86.4093	1,516.11	82.2202	1,516.11	86.4796	1,516.11	82.739	1,516.11	86.4638	1,516.11	83.7424	1,516.11	86.3156	1,516.11	84.5582	1,516.11	86.5265	1,516.11	85.0814	1,516.11	86.902	1,516.11	85.0952	1,516.11	86.9032	1,516.11	84.4814	1,516.11	86.271	1,516.11	83.9955	1,516.11	85.1243	1,516.11	83.9998	1,516.11	84.266
1,568.85	84.1995	1,568.85	85.1887	1,568.85	83.7525	1,568.85	86.2444	1,568.85	83.3931	1,568.85	86.5375	1,568.85	83.3444	1,568.85	86.2236	1,568.85	84.1612	1,568.85	86.4912	1,568.85	85.1046	1,568.85	87.1461	1,568.85	85.5147	1,568.85	87.0318	1,568.85	85.3324	1,568.85	86.2898	1,568.85	84.9767	1,568.85	85.8648	1,568.85	84.8341	1,568.85	86.2898	1,568.85	84.9767	1,568.85	87.0318	1,568.85	85.3324	1,568.85	87.1461	1,568.85	85.5147	1,568.85	86.4912	1,568.85	85.1046	1,568.85	86.2236	1,568.85	84.1612	1,568.85	86.5375	1,568.85	83.3444	1,568.85	86.2444	1,568.85	83.3931	1,568.85	85.1887	1,568.85	83.7525	1,568.85	84.1995
1,624.51	85.0239	1,624.51	85.4555	1,624.51	83.2573	1,624.51	85.1814	1,624.51	81.7232	1,624.51	85.7427	1,624.51	82.263	1,624.51	86.4654	1,624.51	83.4574	1,624.51	86.3823	1,624.51	84.2149	1,624.51	86.4766	1,624.51	84.4935	1,624.51	86.249	1,624.51	84.598	1,624.51	85.0648	1,624.51	84.4928	1,624.51	84.256	1,624.51	84.3657	1,624.51	85.0648	1,624.51	84.4928	1,624.51	86.249	1,624.51	84.598	1,624.51	86.4766	1,624.51	84.4935	1,624.51	86.3823	1,624.51	84.2149	1,624.51	86.4654	1,624.51	83.4574	1,624.51	85.7427	1,624.51	82.263	1,624.51	85.1814	1,624.51	81.7232	1,624.51	85.4555	1,624.51	83.2573	1,624.51	85.0239
1,681.64	84.9511	1,681.64	85.5217	1,681.64	84.1322	1,681.64	86.1064	1,681.64	82.2466	1,681.64	86.1222	1,681.64	80.7376	1,681.64	86.4726	1,681.64	82.414	1,681.64	86.9166	1,681.64	84.7379	1,681.64	86.0695	1,681.64	85.5345	1,681.64	85.4845	1,681.64	84.5386	1,681.64	86.2737	1,681.64	82.5192	1,681.64	86.7746	1,681.64	81.3809	1,681.64	86.2737	1,681.64	82.5192	1,681.64	85.4845	1,681.64	84.5386	1,681.64	86.0695	1,681.64	85.5345	1,681.64	86.9166	1,681.64	84.7379	1,681.64	86.4726	1,681.64	82.414	1,681.64	86.1222	1,681.64	80.7376	1,681.64	86.1064	1,681.64	82.2466	1,681.64	85.5217	1,681.64	84.1322	1,681.64	84.9511
1,741.7	85.9362	1,741.7	86.5281	1,741.7	83.9629	1,741.7	85.8877	1,741.7	81.8695	1,741.7	86.0933	1,741.7	81.7644	1,741.7	86.5941	1,741.7	83.162	1,741.7	85.7772	1,741.7	84.2069	1,741.7	85.5071	1,741.7	84.4426	1,741.7	85.0429	1,741.7	84.4274	1,741.7	82.7668	1,741.7	84.4843	1,741.7	81.0404	1,741.7	84.5218	1,741.7	82.7668	1,741.7	84.4843	1,741.7	85.0429	1,741.7	84.4274	1,741.7	85.5071	1,741.7	84.4426	1,741.7	85.7772	1,741.7	84.2069	1,741.7	86.5941	1,741.7	83.162	1,741.7	86.0933	1,741.7	81.7644	1,741.7	85.8877	1,741.7	81.8695	1,741.7	86.5281	1,741.7	83.9629	1,741.7	85.9362
1,803.22	86.5583	1,803.22	86.6249	1,803.22	85.3254	1,803.22	86.5827	1,803.22	82.8899	1,803.22	86.8615	1,803.22	81.1163	1,803.22	86.719	1,803.22	82.609	1,803.22	86.214	1,803.22	84.6914	1,803.22	84.939	1,803.22	85.1495	1,803.22	83.6428	1,803.22	84.1402	1,803.22	83.935	1,803.22	83.3484	1,803.22	84.3581	1,803.22	83.3676	1,803.22	83.935	1,803.22	83.3484	1,803.22	83.6428	1,803.22	84.1402	1,803.22	84.939	1,803.22	85.1495	1,803.22	86.214	1,803.22	84.6914	1,803.22	86.719	1,803.22	82.609	1,803.22	86.8615	1,803.22	81.1163	1,803.22	86.5827	1,803.22	82.8899	1,803.22	86.6249	1,803.22	85.3254	1,803.22	86.5583
1,866.21	85.7542	1,866.21	86.4855	1,866.21	84.9534	1,866.21	86.8279	1,866.21	83.4141	1,866.21	87.1782	1,866.21	81.5658	1,866.21	87.1132	1,866.21	82.3933	1,866.21	85.8663	1,866.21	84.0457	1,866.21	84.6718	1,866.21	84.7205	1,866.21	84.1623	1,866.21	84.5006	1,866.21	83.9639	1,866.21	83.0073	1,866.21	83.9592	1,866.21	81.8019	1,866.21	83.9639	1,866.21	83.0073	1,866.21	84.1623	1,866.21	84.5006	1,866.21	84.6718	1,866.21	84.7205	1,866.21	85.8663	1,866.21	84.0457	1,866.21	87.1132	1,866.21	82.3933	1,866.21	87.1782	1,866.21	81.5658	1,866.21	86.8279	1,866.21	83.4141	1,866.21	86.4855	1,866.21	84.9534	1,866.21	85.7542
1,932.13	85.5937	1,932.13	85.9503	1,932.13	84.1708	1,932.13	85.8904	1,932.13	82.7272	1,932.13	87.2499	1,932.13	81.31	1,932.13	86.9597	1,932.13	81.3021	1,932.13	85.8095	1,932.13	82.8219	1,932.13	85.5705	1,932.13	83.7938	1,932.13	84.5133	1,932.13	83.9652	1,932.13	82.9114	1,932.13	84.1283	1,932.13	82.2312	1,932.13	84.1851	1,932.13	82.9114	1,932.13	84.1283	1,932.13	84.5133	1,932.13	83.9652	1,932.13	85.5705	1,932.13	83.7938	1,932.13	85.8095	1,932.13	82.8219	1,932.13	86.9597	1,932.13	81.3021	1,932.13	87.2499	1,932.13	81.31	1,932.13	85.8904	1,932.13	82.7272	1,932.13	85.9503	1,932.13	84.1708	1,932.13	85.5937
1,999.51	85.8727	1,999.51	85.4817	1,999.51	84.1898	1,999.51	86.6822	1,999.51	81.9594	1,999.51	87.467	1,999.51	81.091	1,999.51	86.4161	1,999.51	81.6477	1,999.51	86.3757	1,999.51	82.3301	1,999.51	85.3307	1,999.51	82.5121	1,999.51	83.8388	1,999.51	82.0975	1,999.51	82.3799	1,999.51	81.4846	1,999.51	81.3245	1,999.51	81.3658	1,999.51	82.3799	1,999.51	81.4846	1,999.51	83.8388	1,999.51	82.0975	1,999.51	85.3307	1,999.51	82.5121	1,999.51	86.3757	1,999.51	82.3301	1,999.51	86.4161	1,999.51	81.6477	1,999.51	87.467	1,999.51	81.091	1,999.51	86.6822	1,999.51	81.9594	1,999.51	85.4817	1,999.51	84.1898	1,999.51	85.8727
2,069.82	86.1353	2,069.82	85.8501	2,069.82	85.0856	2,069.82	86.9261	2,069.82	81.9887	2,069.82	86.1441	2,069.82	80.2265	2,069.82	85.2874	2,069.82	81.3147	2,069.82	84.9465	2,069.82	82.0174	2,069.82	83.2549	2,069.82	81.8513	2,069.82	81.7713	2,069.82	81.8008	2,069.82	82.0342	2,069.82	81.3269	2,069.82	82.5381	2,069.82	80.8205	2,069.82	82.0342	2,069.82	81.3269	2,069.82	81.7713	2,069.82	81.8008	2,069.82	83.2549	2,069.82	81.8513	2,069.82	84.9465	2,069.82	82.0174	2,069.82	85.2874	2,069.82	81.3147	2,069.82	86.1441	2,069.82	80.2265	2,069.82	86.9261	2,069.82	81.9887	2,069.82	85.8501	2,069.82	85.0856	2,069.82	86.1353
2,143.07	86.0031	2,143.07	86.5579	2,143.07	85.7989	2,143.07	86.8443	2,143.07	82.7263	2,143.07	85.6526	2,143.07	78.9828	2,143.07	85.5983	2,143.07	79.3581	2,143.07	83.0851	2,143.07	81.4849	2,143.07	81.6383	2,143.07	81.8971	2,143.07	80.1203	2,143.07	81.2739	2,143.07	78.265	2,143.07	80.9216	2,143.07	78.2816	2,143.07	80.8381	2,143.07	78.265	2,143.07	80.9216	2,143.07	80.1203	2,143.07	81.2739	2,143.07	81.6383	2,143.07	81.8971	2,143.07	83.0851	2,143.07	81.4849	2,143.07	85.5983	2,143.07	79.3581	2,143.07	85.6526	2,143.07	78.9828	2,143.07	86.8443	2,143.07	82.7263	2,143.07	86.5579	2,143.07	85.7989	2,143.07	86.0031
2,219.24	85.3801	2,219.24	86.5394	2,219.24	85.1427	2,219.24	86.581	2,219.24	83.8517	2,219.24	86.4515	2,219.24	80.2016	2,219.24	84.8315	2,219.24	77.865	2,219.24	83.4246	2,219.24	80.2186	2,219.24	80.2334	2,219.24	82.1477	2,219.24	78.0331	2,219.24	82.249	2,219.24	76.8163	2,219.24	81.9989	2,219.24	75.403	2,219.24	82.0835	2,219.24	76.8163	2,219.24	81.9989	2,219.24	78.0331	2,219.24	82.249	2,219.24	80.2334	2,219.24	82.1477	2,219.24	83.4246	2,219.24	80.2186	2,219.24	84.8315	2,219.24	77.865	2,219.24	86.4515	2,219.24	80.2016	2,219.24	86.581	2,219.24	83.8517	2,219.24	86.5394	2,219.24	85.1427	2,219.24	85.3801
2,296.88	84.2523	2,296.88	85.5822	2,296.88	83.9548	2,296.88	86.2508	2,296.88	83.4061	2,296.88	85.2911	2,296.88	80.3585	2,296.88	84.4252	2,296.88	76.3834	2,296.88	82.6319	2,296.88	77.0791	2,296.88	79.9885	2,296.88	79.9953	2,296.88	76.7271	2,296.88	81.6164	2,296.88	74.4147	2,296.88	81.6455	2,296.88	73.9066	2,296.88	81.5271	2,296.88	74.4147	2,296.88	81.6455	2,296.88	76.7271	2,296.88	81.6164	2,296.88	79.9885	2,296.88	79.9953	2,296.88	82.6319	2,296.88	77.0791	2,296.88	84.4252	2,296.88	76.3834	2,296.88	85.2911	2,296.88	80.3585	2,296.88	86.2508	2,296.88	83.4061	2,296.88	85.5822	2,296.88	83.9548	2,296.88	84.2523
2,378.91	83.6686	2,378.91	85.197	2,378.91	82.8695	2,378.91	84.7982	2,378.91	82.0398	2,378.91	83.9829	2,378.91	79.4633	2,378.91	83.1678	2,378.91	76.0485	2,378.91	80.9084	2,378.91	75.3482	2,378.91	78.6632	2,378.91	78.2891	2,378.91	76.7749	2,378.91	80.3999	2,378.91	74.34	2,378.91	80.8556	2,378.91	72.8256	2,378.91	80.7337	2,378.91	74.34	2,378.91	80.8556	2,378.91	76.7749	2,378.91	80.3999	2,378.91	78.6632	2,378.91	78.2891	2,378.91	80.9084	2,378.91	75.3482	2,378.91	83.1678	2,378.91	76.0485	2,378.91	83.9829	2,378.91	79.4633	2,378.91	84.7982	2,378.91	82.0398	2,378.91	85.197	2,378.91	82.8695	2,378.91	83.6686
2,462.4	84.9518	2,462.4	85.9535	2,462.4	83.2873	2,462.4	84.6185	2,462.4	80.2437	2,462.4	83.3602	2,462.4	76.8747	2,462.4	80.953	2,462.4	74.353	2,462.4	77.7863	2,462.4	75.1752	2,462.4	75.4622	2,462.4	77.1119	2,462.4	69.7962	2,462.4	78.6997	2,462.4	68.8473	2,462.4	78.9478	2,462.4	71.5336	2,462.4	78.4876	2,462.4	68.8473	2,462.4	78.9478	2,462.4	69.7962	2,462.4	78.6997	2,462.4	75.4622	2,462.4	77.1119	2,462.4	77.7863	2,462.4	75.1752	2,462.4	80.953	2,462.4	74.353	2,462.4	83.3602	2,462.4	76.8747	2,462.4	84.6185	2,462.4	80.2437	2,462.4	85.9535	2,462.4	83.2873	2,462.4	84.9518
2,548.83	85.6391	2,548.83	86.3151	2,548.83	84.66	2,548.83	84.4236	2,548.83	80.8874	2,548.83	82.6086	2,548.83	73.3791	2,548.83	79.1057	2,548.83	70.5462	2,548.83	76.871	2,548.83	73.1913	2,548.83	64.8811	2,548.83	76.663	2,548.83	69.3304	2,548.83	77.2506	2,548.83	73.9687	2,548.83	76.329	2,548.83	73.2922	2,548.83	76.1026	2,548.83	73.9687	2,548.83	76.329	2,548.83	69.3304	2,548.83	77.2506	2,548.83	64.8811	2,548.83	76.663	2,548.83	76.871	2,548.83	73.1913	2,548.83	79.1057	2,548.83	70.5462	2,548.83	82.6086	2,548.83	73.3791	2,548.83	84.4236	2,548.83	80.8874	2,548.83	86.3151	2,548.83	84.66	2,548.83	85.6391
2,639.65	85.3869	2,639.65	85.333	2,639.65	84.3445	2,639.65	84.0475	2,639.65	82.1048	2,639.65	80.8436	2,639.65	73.9549	2,639.65	78.1869	2,639.65	65.5159	2,639.65	72.0742	2,639.65	68.561	2,639.65	63.1368	2,639.65	74.7469	2,639.65	73.5374	2,639.65	76.9216	2,639.65	76.658	2,639.65	76.7275	2,639.65	77.8957	2,639.65	76.0701	2,639.65	76.658	2,639.65	76.7275	2,639.65	73.5374	2,639.65	76.9216	2,639.65	63.1368	2,639.65	74.7469	2,639.65	72.0742	2,639.65	68.561	2,639.65	78.1869	2,639.65	65.5159	2,639.65	80.8436	2,639.65	73.9549	2,639.65	84.0475	2,639.65	82.1048	2,639.65	85.333	2,639.65	84.3445	2,639.65	85.3869
2,731.93	84.9067	2,731.93	84.3522	2,731.93	83.2126	2,731.93	82.6672	2,731.93	81.4573	2,731.93	78.3775	2,731.93	73.7566	2,731.93	75.4594	2,731.93	57.2949	2,731.93	63.4987	2,731.93	65.098	2,731.93	72.8276	2,731.93	69.3051	2,731.93	77.4222	2,731.93	75.699	2,731.93	78.9537	2,731.93	77.0765	2,731.93	79.0322	2,731.93	77.1279	2,731.93	78.9537	2,731.93	77.0765	2,731.93	77.4222	2,731.93	75.699	2,731.93	72.8276	2,731.93	69.3051	2,731.93	63.4987	2,731.93	65.098	2,731.93	75.4594	2,731.93	57.2949	2,731.93	78.3775	2,731.93	73.7566	2,731.93	82.6672	2,731.93	81.4573	2,731.93	84.3522	2,731.93	83.2126	2,731.93	84.9067
2,828.61	85.6856	2,828.61	85.2276	2,828.61	83.2977	2,828.61	82.3739	2,828.61	80.1827	2,828.61	78.622	2,828.61	73.2671	2,828.61	73.8648	2,828.61	67.7656	2,828.61	72.7357	2,828.61	68.9674	2,828.61	78.1808	2,828.61	69.9044	2,828.61	80.6209	2,828.61	78.5509	2,828.61	82.3503	2,828.61	79.3452	2,828.61	82.379	2,828.61	78.7247	2,828.61	82.3503	2,828.61	79.3452	2,828.61	80.6209	2,828.61	78.5509	2,828.61	78.1808	2,828.61	69.9044	2,828.61	72.7357	2,828.61	68.9674	2,828.61	73.8648	2,828.61	67.7656	2,828.61	78.622	2,828.61	73.2671	2,828.61	82.3739	2,828.61	80.1827	2,828.61	85.2276	2,828.61	83.2977	2,828.61	85.6856
2,928.22	87.327	2,928.22	87.1667	2,928.22	84.0205	2,928.22	84.8657	2,928.22	80.7984	2,928.22	81.1398	2,928.22	73.677	2,928.22	75.2555	2,928.22	76.1757	2,928.22	78.2428	2,928.22	76.0977	2,928.22	82.4194	2,928.22	74.6641	2,928.22	84.9483	2,928.22	82.5028	2,928.22	87.0844	2,928.22	82.5906	2,928.22	87.7752	2,928.22	81.8261	2,928.22	87.0844	2,928.22	82.5906	2,928.22	84.9483	2,928.22	82.5028	2,928.22	82.4194	2,928.22	74.6641	2,928.22	78.2428	2,928.22	76.0977	2,928.22	75.2555	2,928.22	76.1757	2,928.22	81.1398	2,928.22	73.677	2,928.22	84.8657	2,928.22	80.7984	2,928.22	87.1667	2,928.22	84.0205	2,928.22	87.327
3,030.76	88.412	3,030.76	88.8948	3,030.76	84.9335	3,030.76	86.2878	3,030.76	82.0074	3,030.76	83.3927	3,030.76	76.0772	3,030.76	77.2355	3,030.76	80.1459	3,030.76	81.2583	3,030.76	79.43	3,030.76	84.2152	3,030.76	79.3159	3,030.76	88.2866	3,030.76	85.0253	3,030.76	89.7473	3,030.76	84.3977	3,030.76	89.5476	3,030.76	83.3497	3,030.76	89.7473	3,030.76	84.3977	3,030.76	88.2866	3,030.76	85.0253	3,030.76	84.2152	3,030.76	79.3159	3,030.76	81.2583	3,030.76	79.43	3,030.76	77.2355	3,030.76	80.1459	3,030.76	83.3927	3,030.76	76.0772	3,030.76	86.2878	3,030.76	82.0074	3,030.76	88.8948	3,030.76	84.9335	3,030.76	88.412
3,137.7	88.6533	3,137.7	89.5589	3,137.7	85.161	3,137.7	88.545	3,137.7	82.9914	3,137.7	82.7634	3,137.7	77.712	3,137.7	80.3735	3,137.7	83.1547	3,137.7	81.149	3,137.7	81.1587	3,137.7	86.9822	3,137.7	82.7062	3,137.7	90.3217	3,137.7	86.876	3,137.7	91.2018	3,137.7	85.3321	3,137.7	91.8126	3,137.7	84.1847	3,137.7	91.2018	3,137.7	85.3321	3,137.7	90.3217	3,137.7	86.876	3,137.7	86.9822	3,137.7	82.7062	3,137.7	81.149	3,137.7	81.1587	3,137.7	80.3735	3,137.7	83.1547	3,137.7	82.7634	3,137.7	77.712	3,137.7	88.545	3,137.7	82.9914	3,137.7	89.5589	3,137.7	85.161	3,137.7	88.6533
3,249.02	88.6202	3,249.02	89.3808	3,249.02	85.1669	3,249.02	89.0178	3,249.02	83.8598	3,249.02	82.9473	3,249.02	78.0145	3,249.02	80.5275	3,249.02	84.9128	3,249.02	81.5503	3,249.02	81.8128	3,249.02	88.7382	3,249.02	83.6428	3,249.02	90.7097	3,249.02	87.0823	3,249.02	92.3885	3,249.02	84.446	3,249.02	92.4411	3,249.02	82.018	3,249.02	92.3885	3,249.02	84.446	3,249.02	90.7097	3,249.02	87.0823	3,249.02	88.7382	3,249.02	83.6428	3,249.02	81.5503	3,249.02	81.8128	3,249.02	80.5275	3,249.02	84.9128	3,249.02	82.9473	3,249.02	78.0145	3,249.02	89.0178	3,249.02	83.8598	3,249.02	89.3808	3,249.02	85.1669	3,249.02	88.6202
3,363.28	88.5041	3,363.28	89.284	3,363.28	85.4751	3,363.28	88.1578	3,363.28	83.8009	3,363.28	84.5608	3,363.28	80.5379	3,363.28	78.3632	3,363.28	86.5537	3,363.28	81.9704	3,363.28	83.5021	3,363.28	86.8367	3,363.28	84.6134	3,363.28	90.7624	3,363.28	85.9284	3,363.28	92.7141	3,363.28	80.1056	3,363.28	93.8217	3,363.28	75.0504	3,363.28	92.7141	3,363.28	80.1056	3,363.28	90.7624	3,363.28	85.9284	3,363.28	86.8367	3,363.28	84.6134	3,363.28	81.9704	3,363.28	83.5021	3,363.28	78.3632	3,363.28	86.5537	3,363.28	84.5608	3,363.28	80.5379	3,363.28	88.1578	3,363.28	83.8009	3,363.28	89.284	3,363.28	85.4751	3,363.28	88.5041
3,481.93	87.9881	3,481.93	89.5967	3,481.93	86.2313	3,481.93	87.9714	3,481.93	82.8413	3,481.93	86.521	3,481.93	82.6987	3,481.93	81.1801	3,481.93	86.5747	3,481.93	81.6062	3,481.93	83.2254	3,481.93	86.5692	3,481.93	85.2811	3,481.93	91.0549	3,481.93	83.5301	3,481.93	93.9902	3,481.93	71.3282	3,481.93	94.0948	3,481.93	76.1179	3,481.93	93.9902	3,481.93	71.3282	3,481.93	91.0549	3,481.93	83.5301	3,481.93	86.5692	3,481.93	85.2811	3,481.93	81.6062	3,481.93	83.2254	3,481.93	81.1801	3,481.93	86.5747	3,481.93	86.521	3,481.93	82.6987	3,481.93	87.9714	3,481.93	82.8413	3,481.93	89.5967	3,481.93	86.2313	3,481.93	87.9881
3,604.98	87.0621	3,604.98	89.1359	3,604.98	85.3024	3,604.98	87.5739	3,604.98	83.4546	3,604.98	86.3288	3,604.98	84.1488	3,604.98	84.5208	3,604.98	86.9669	3,604.98	77.5107	3,604.98	82.7844	3,604.98	84.595	3,604.98	85.7959	3,604.98	91.4157	3,604.98	83.1452	3,604.98	92.806	3,604.98	78.9393	3,604.98	94.0537	3,604.98	83.1837	3,604.98	92.806	3,604.98	78.9393	3,604.98	91.4157	3,604.98	83.1452	3,604.98	84.595	3,604.98	85.7959	3,604.98	77.5107	3,604.98	82.7844	3,604.98	84.5208	3,604.98	86.9669	3,604.98	86.3288	3,604.98	84.1488	3,604.98	87.5739	3,604.98	83.4546	3,604.98	89.1359	3,604.98	85.3024	3,604.98	87.0621
3,732.42	87.3477	3,732.42	89.0559	3,732.42	85.3479	3,732.42	87.7319	3,732.42	83.0262	3,732.42	85.1361	3,732.42	83.423	3,732.42	83.7486	3,732.42	87.2811	3,732.42	76.0024	3,732.42	82.2614	3,732.42	85.0559	3,732.42	85.3712	3,732.42	89.2768	3,732.42	81.6959	3,732.42	92.2281	3,732.42	79.5397	3,732.42	93.0165	3,732.42	83.8015	3,732.42	92.2281	3,732.42	79.5397	3,732.42	89.2768	3,732.42	81.6959	3,732.42	85.0559	3,732.42	85.3712	3,732.42	76.0024	3,732.42	82.2614	3,732.42	83.7486	3,732.42	87.2811	3,732.42	85.1361	3,732.42	83.423	3,732.42	87.7319	3,732.42	83.0262	3,732.42	89.0559	3,732.42	85.3479	3,732.42	87.3477
3,864.26	87.5294	3,864.26	87.8649	3,864.26	87.825	3,864.26	88.0323	3,864.26	82.9231	3,864.26	87.0058	3,864.26	82.9526	3,864.26	82.7014	3,864.26	86.7027	3,864.26	79.3254	3,864.26	81.4868	3,864.26	80.0946	3,864.26	83.9011	3,864.26	88.0376	3,864.26	79.553	3,864.26	91.2197	3,864.26	81.4708	3,864.26	92.7435	3,864.26	84.1059	3,864.26	91.2197	3,864.26	81.4708	3,864.26	88.0376	3,864.26	79.553	3,864.26	80.0946	3,864.26	83.9011	3,864.26	79.3254	3,864.26	81.4868	3,864.26	82.7014	3,864.26	86.7027	3,864.26	87.0058	3,864.26	82.9526	3,864.26	88.0323	3,864.26	82.9231	3,864.26	87.8649	3,864.26	87.825	3,864.26	87.5294
4,000.49	87.0074	4,000.49	86.258	4,000.49	86.9148	4,000.49	86.9274	4,000.49	83.5774	4,000.49	87.0232	4,000.49	83.5895	4,000.49	83.5143	4,000.49	86.1154	4,000.49	77.1942	4,000.49	82.5428	4,000.49	74.609	4,000.49	83.2343	4,000.49	85.357	4,000.49	76.1828	4,000.49	89.883	4,000.49	80.9984	4,000.49	90.7394	4,000.49	85.3831	4,000.49	89.883	4,000.49	80.9984	4,000.49	85.357	4,000.49	76.1828	4,000.49	74.609	4,000.49	83.2343	4,000.49	77.1942	4,000.49	82.5428	4,000.49	83.5143	4,000.49	86.1154	4,000.49	87.0232	4,000.49	83.5895	4,000.49	86.9274	4,000.49	83.5774	4,000.49	86.258	4,000.49	86.9148	4,000.49	87.0074
4,141.11	88.6791	4,141.11	87.75	4,141.11	86.9839	4,141.11	86.6264	4,141.11	83.7402	4,141.11	85.0682	4,141.11	83.7766	4,141.11	85.165	4,141.11	84.3541	4,141.11	77.5379	4,141.11	82.4182	4,141.11	69.8404	4,141.11	83.0596	4,141.11	83.0447	4,141.11	74.4918	4,141.11	85.9737	4,141.11	83.2215	4,141.11	88.0081	4,141.11	86.6259	4,141.11	85.9737	4,141.11	83.2215	4,141.11	83.0447	4,141.11	74.4918	4,141.11	69.8404	4,141.11	83.0596	4,141.11	77.5379	4,141.11	82.4182	4,141.11	85.165	4,141.11	84.3541	4,141.11	85.0682	4,141.11	83.7766	4,141.11	86.6264	4,141.11	83.7402	4,141.11	87.75	4,141.11	86.9839	4,141.11	88.6791
4,287.6	89.3862	4,287.6	88.8925	4,287.6	88.1355	4,287.6	88.6328	4,287.6	84.2958	4,287.6	85.624	4,287.6	83.5362	4,287.6	82.0061	4,287.6	81.4433	4,287.6	79.6807	4,287.6	83.3137	4,287.6	56.5357	4,287.6	82.9679	4,287.6	74.6121	4,287.6	76.8753	4,287.6	83.2934	4,287.6	81.4837	4,287.6	86.2266	4,287.6	84.3789	4,287.6	83.2934	4,287.6	81.4837	4,287.6	74.6121	4,287.6	76.8753	4,287.6	56.5357	4,287.6	82.9679	4,287.6	79.6807	4,287.6	83.3137	4,287.6	82.0061	4,287.6	81.4433	4,287.6	85.624	4,287.6	83.5362	4,287.6	88.6328	4,287.6	84.2958	4,287.6	88.8925	4,287.6	88.1355	4,287.6	89.3862
4,438.48	89.2983	4,438.48	88.7234	4,438.48	88.7251	4,438.48	89.1646	4,438.48	85.5827	4,438.48	87.8267	4,438.48	81.5685	4,438.48	83.0361	4,438.48	78.0864	4,438.48	77.8284	4,438.48	83.4255	4,438.48	80.1222	4,438.48	84.4171	4,438.48	73.1478	4,438.48	76.1254	4,438.48	81.006	4,438.48	79.3024	4,438.48	81.6442	4,438.48	83.8079	4,438.48	81.006	4,438.48	79.3024	4,438.48	73.1478	4,438.48	76.1254	4,438.48	80.1222	4,438.48	84.4171	4,438.48	77.8284	4,438.48	83.4255	4,438.48	83.0361	4,438.48	78.0864	4,438.48	87.8267	4,438.48	81.5685	4,438.48	89.1646	4,438.48	85.5827	4,438.48	88.7234	4,438.48	88.7251	4,438.48	89.2983
4,595.21	88.7482	4,595.21	87.9544	4,595.21	89.0258	4,595.21	86.3655	4,595.21	87.2804	4,595.21	84.5986	4,595.21	80.7234	4,595.21	82.7708	4,595.21	76.3358	4,595.21	80.1773	4,595.21	85.9587	4,595.21	76.3895	4,595.21	84.446	4,595.21	76.8942	4,595.21	76.8884	4,595.21	81.5528	4,595.21	83.1612	4,595.21	81.8647	4,595.21	85.3819	4,595.21	81.5528	4,595.21	83.1612	4,595.21	76.8942	4,595.21	76.8884	4,595.21	76.3895	4,595.21	84.446	4,595.21	80.1773	4,595.21	85.9587	4,595.21	82.7708	4,595.21	76.3358	4,595.21	84.5986	4,595.21	80.7234	4,595.21	86.3655	4,595.21	87.2804	4,595.21	87.9544	4,595.21	89.0258	4,595.21	88.7482
4,756.35	88.6455	4,756.35	89.7675	4,756.35	88.9465	4,756.35	89.3992	4,756.35	87.4842	4,756.35	86.3706	4,756.35	80.3824	4,756.35	80.255	4,756.35	78.7527	4,756.35	82.1674	4,756.35	86.1158	4,756.35	78.6415	4,756.35	84.621	4,756.35	83.6546	4,756.35	76.0189	4,756.35	83.0628	4,756.35	83.8766	4,756.35	84.6893	4,756.35	86.6504	4,756.35	83.0628	4,756.35	83.8766	4,756.35	83.6546	4,756.35	76.0189	4,756.35	78.6415	4,756.35	84.621	4,756.35	82.1674	4,756.35	86.1158	4,756.35	80.255	4,756.35	78.7527	4,756.35	86.3706	4,756.35	80.3824	4,756.35	89.3992	4,756.35	87.4842	4,756.35	89.7675	4,756.35	88.9465	4,756.35	88.6455
4,924.8	86.8326	4,924.8	88.6363	4,924.8	86.3667	4,924.8	89.0848	4,924.8	84.4585	4,924.8	86.6292	4,924.8	83.0854	4,924.8	85.372	4,924.8	83.745	4,924.8	79.8565	4,924.8	86.1874	4,924.8	80.0897	4,924.8	84.8545	4,924.8	80.4339	4,924.8	65.9295	4,924.8	85.0264	4,924.8	84.6946	4,924.8	87.1888	4,924.8	87.2817	4,924.8	85.0264	4,924.8	84.6946	4,924.8	80.4339	4,924.8	65.9295	4,924.8	80.0897	4,924.8	84.8545	4,924.8	79.8565	4,924.8	86.1874	4,924.8	85.372	4,924.8	83.745	4,924.8	86.6292	4,924.8	83.0854	4,924.8	89.0848	4,924.8	84.4585	4,924.8	88.6363	4,924.8	86.3667	4,924.8	86.8326
5,097.66	85.4335	5,097.66	86.3979	5,097.66	86.161	5,097.66	87.5151	5,097.66	85.6213	5,097.66	84.962	5,097.66	85.7789	5,097.66	84.0278	5,097.66	84.7458	5,097.66	82.524	5,097.66	84.4493	5,097.66	71.2595	5,097.66	83.3698	5,097.66	80.7813	5,097.66	66.4732	5,097.66	86.7612	5,097.66	84.3802	5,097.66	88.2426	5,097.66	87.3225	5,097.66	86.7612	5,097.66	84.3802	5,097.66	80.7813	5,097.66	66.4732	5,097.66	71.2595	5,097.66	83.3698	5,097.66	82.524	5,097.66	84.4493	5,097.66	84.0278	5,097.66	84.7458	5,097.66	84.962	5,097.66	85.7789	5,097.66	87.5151	5,097.66	85.6213	5,097.66	86.3979	5,097.66	86.161	5,097.66	85.4335
5,277.83	85.4269	5,277.83	85.9346	5,277.83	85.435	5,277.83	87.8117	5,277.83	86.7494	5,277.83	86.8684	5,277.83	86.3663	5,277.83	85.2705	5,277.83	84.6678	5,277.83	80.4204	5,277.83	83.4254	5,277.83	75.9959	5,277.83	83.084	5,277.83	78.9626	5,277.83	65.387	5,277.83	83.4357	5,277.83	83.5294	5,277.83	85.4421	5,277.83	86.2358	5,277.83	83.4357	5,277.83	83.5294	5,277.83	78.9626	5,277.83	65.387	5,277.83	75.9959	5,277.83	83.084	5,277.83	80.4204	5,277.83	83.4254	5,277.83	85.2705	5,277.83	84.6678	5,277.83	86.8684	5,277.83	86.3663	5,277.83	87.8117	5,277.83	86.7494	5,277.83	85.9346	5,277.83	85.435	5,277.83	85.4269
5,463.87	87.3798	5,463.87	87.155	5,463.87	86.3815	5,463.87	87.1617	5,463.87	87.4571	5,463.87	87.172	5,463.87	87.0984	5,463.87	85.9668	5,463.87	84.8908	5,463.87	82.0984	5,463.87	81.7716	5,463.87	73.8432	5,463.87	81.9969	5,463.87	70.7232	5,463.87	66.1749	5,463.87	82.1565	5,463.87	82.0097	5,463.87	84.1099	5,463.87	84.7079	5,463.87	82.1565	5,463.87	82.0097	5,463.87	70.7232	5,463.87	66.1749	5,463.87	73.8432	5,463.87	81.9969	5,463.87	82.0984	5,463.87	81.7716	5,463.87	85.9668	5,463.87	84.8908	5,463.87	87.172	5,463.87	87.0984	5,463.87	87.1617	5,463.87	87.4571	5,463.87	87.155	5,463.87	86.3815	5,463.87	87.3798
5,657.23	87.5542	5,657.23	86.7781	5,657.23	87.4295	5,657.23	85.6764	5,657.23	87.094	5,657.23	86.4618	5,657.23	86.762	5,657.23	85.4153	5,657.23	84.939	5,657.23	81.496	5,657.23	80.3552	5,657.23	75.7933	5,657.23	81.7412	5,657.23	68.9879	5,657.23	67.8015	5,657.23	79.8546	5,657.23	78.5859	5,657.23	81.384	5,657.23	82.4535	5,657.23	79.8546	5,657.23	78.5859	5,657.23	68.9879	5,657.23	67.8015	5,657.23	75.7933	5,657.23	81.7412	5,657.23	81.496	5,657.23	80.3552	5,657.23	85.4153	5,657.23	84.939	5,657.23	86.4618	5,657.23	86.762	5,657.23	85.6764	5,657.23	87.094	5,657.23	86.7781	5,657.23	87.4295	5,657.23	87.5542
5,856.45	87.9062	5,856.45	87.8543	5,856.45	87.2717	5,856.45	86.2009	5,856.45	87.924	5,856.45	87.3722	5,856.45	85.0631	5,856.45	86.1492	5,856.45	84.4258	5,856.45	80.2945	5,856.45	76.9688	5,856.45	74.9083	5,856.45	80.8239	5,856.45	70.9033	5,856.45	71.9004	5,856.45	81.9631	5,856.45	75.2603	5,856.45	83.8334	5,856.45	79.2016	5,856.45	81.9631	5,856.45	75.2603	5,856.45	70.9033	5,856.45	71.9004	5,856.45	74.9083	5,856.45	80.8239	5,856.45	80.2945	5,856.45	76.9688	5,856.45	86.1492	5,856.45	84.4258	5,856.45	87.3722	5,856.45	85.0631	5,856.45	86.2009	5,856.45	87.924	5,856.45	87.8543	5,856.45	87.2717	5,856.45	87.9062
6,062.99	88.7767	6,062.99	88.4052	6,062.99	87.6126	6,062.99	86.4745	6,062.99	88.3274	6,062.99	87.8063	6,062.99	84.1824	6,062.99	84.8731	6,062.99	82.4899	6,062.99	81.26	6,062.99	71.9282	6,062.99	76.8876	6,062.99	79.8236	6,062.99	74.857	6,062.99	73.9907	6,062.99	83.0946	6,062.99	72.9926	6,062.99	84.6509	6,062.99	78.7378	6,062.99	83.0946	6,062.99	72.9926	6,062.99	74.857	6,062.99	73.9907	6,062.99	76.8876	6,062.99	79.8236	6,062.99	81.26	6,062.99	71.9282	6,062.99	84.8731	6,062.99	82.4899	6,062.99	87.8063	6,062.99	84.1824	6,062.99	86.4745	6,062.99	88.3274	6,062.99	88.4052	6,062.99	87.6126	6,062.99	88.7767
6,276.86	88.3973	6,276.86	87.2512	6,276.86	88.1825	6,276.86	86.7489	6,276.86	87.7837	6,276.86	87.3066	6,276.86	84.9508	6,276.86	85.6568	6,276.86	80.1277	6,276.86	80.3814	6,276.86	72.0678	6,276.86	76.9243	6,276.86	81.2368	6,276.86	71.2758	6,276.86	75.5201	6,276.86	83.0494	6,276.86	74.5205	6,276.86	84.9311	6,276.86	80.1663	6,276.86	83.0494	6,276.86	74.5205	6,276.86	71.2758	6,276.86	75.5201	6,276.86	76.9243	6,276.86	81.2368	6,276.86	80.3814	6,276.86	72.0678	6,276.86	85.6568	6,276.86	80.1277	6,276.86	87.3066	6,276.86	84.9508	6,276.86	86.7489	6,276.86	87.7837	6,276.86	87.2512	6,276.86	88.1825	6,276.86	88.3973
6,498.05	87.5215	6,498.05	86.5334	6,498.05	87.1874	6,498.05	86.8331	6,498.05	87.9152	6,498.05	86.9053	6,498.05	85.163	6,498.05	85.7192	6,498.05	79.0455	6,498.05	82.0179	6,498.05	76.6799	6,498.05	76.6896	6,498.05	81.9585	6,498.05	71.4121	6,498.05	74.5698	6,498.05	81.0442	6,498.05	75.1796	6,498.05	82.9335	6,498.05	79.5952	6,498.05	81.0442	6,498.05	75.1796	6,498.05	71.4121	6,498.05	74.5698	6,498.05	76.6896	6,498.05	81.9585	6,498.05	82.0179	6,498.05	76.6799	6,498.05	85.7192	6,498.05	79.0455	6,498.05	86.9053	6,498.05	85.163	6,498.05	86.8331	6,498.05	87.9152	6,498.05	86.5334	6,498.05	87.1874	6,498.05	87.5215
6,726.56	89.0611	6,726.56	87.3562	6,726.56	85.1036	6,726.56	86.3549	6,726.56	86.7386	6,726.56	86.5498	6,726.56	86.2469	6,726.56	85.7203	6,726.56	79.215	6,726.56	81.1901	6,726.56	77.9255	6,726.56	76.2434	6,726.56	82.2502	6,726.56	70.1699	6,726.56	75.0529	6,726.56	77.5519	6,726.56	75.5709	6,726.56	80.1175	6,726.56	76.2159	6,726.56	77.5519	6,726.56	75.5709	6,726.56	70.1699	6,726.56	75.0529	6,726.56	76.2434	6,726.56	82.2502	6,726.56	81.1901	6,726.56	77.9255	6,726.56	85.7203	6,726.56	79.215	6,726.56	86.5498	6,726.56	86.2469	6,726.56	86.3549	6,726.56	86.7386	6,726.56	87.3562	6,726.56	85.1036	6,726.56	89.0611
6,963.87	88.4076	6,963.87	87.0335	6,963.87	86.8123	6,963.87	86.8764	6,963.87	85.9028	6,963.87	86.0045	6,963.87	86.3545	6,963.87	86.0795	6,963.87	78.3141	6,963.87	82.4571	6,963.87	77.3386	6,963.87	74.8823	6,963.87	81.2394	6,963.87	69.5679	6,963.87	73.2751	6,963.87	77.2168	6,963.87	77.0149	6,963.87	79.9776	6,963.87	78.1661	6,963.87	77.2168	6,963.87	77.0149	6,963.87	69.5679	6,963.87	73.2751	6,963.87	74.8823	6,963.87	81.2394	6,963.87	82.4571	6,963.87	77.3386	6,963.87	86.0795	6,963.87	78.3141	6,963.87	86.0045	6,963.87	86.3545	6,963.87	86.8764	6,963.87	85.9028	6,963.87	87.0335	6,963.87	86.8123	6,963.87	88.4076
7,209.96	88.3802	7,209.96	88.4867	7,209.96	87.5714	7,209.96	87.282	7,209.96	86.6239	7,209.96	86.0466	7,209.96	84.8082	7,209.96	85.3421	7,209.96	79.8136	7,209.96	81.3452	7,209.96	76.1594	7,209.96	73.0001	7,209.96	80.3878	7,209.96	67.9674	7,209.96	72.0893	7,209.96	78.7825	7,209.96	77.0695	7,209.96	80.9093	7,209.96	78.9704	7,209.96	78.7825	7,209.96	77.0695	7,209.96	67.9674	7,209.96	72.0893	7,209.96	73.0001	7,209.96	80.3878	7,209.96	81.3452	7,209.96	76.1594	7,209.96	85.3421	7,209.96	79.8136	7,209.96	86.0466	7,209.96	84.8082	7,209.96	87.282	7,209.96	86.6239	7,209.96	88.4867	7,209.96	87.5714	7,209.96	88.3802
7,464.84	89.0475	7,464.84	88.9279	7,464.84	88.4775	7,464.84	87.725	7,464.84	86.0024	7,464.84	86.7212	7,464.84	85.3405	7,464.84	85.5393	7,464.84	81.9733	7,464.84	81.7056	7,464.84	79.4213	7,464.84	68.6206	7,464.84	79.9618	7,464.84	59.5543	7,464.84	72.4716	7,464.84	79.2815	7,464.84	78.375	7,464.84	80.7977	7,464.84	80.9393	7,464.84	79.2815	7,464.84	78.375	7,464.84	59.5543	7,464.84	72.4716	7,464.84	68.6206	7,464.84	79.9618	7,464.84	81.7056	7,464.84	79.4213	7,464.84	85.5393	7,464.84	81.9733	7,464.84	86.7212	7,464.84	85.3405	7,464.84	87.725	7,464.84	86.0024	7,464.84	88.9279	7,464.84	88.4775	7,464.84	89.0475
7,727.05	88.4704	7,727.05	88.6756	7,727.05	88.3964	7,727.05	87.3654	7,727.05	86.8954	7,727.05	86.5424	7,727.05	85.2808	7,727.05	84.7783	7,727.05	82.9662	7,727.05	80.9427	7,727.05	80.9326	7,727.05	73.4153	7,727.05	80.2313	7,727.05	51.8807	7,727.05	73.0679	7,727.05	76.3738	7,727.05	78.0038	7,727.05	78.9566	7,727.05	78.2896	7,727.05	76.3738	7,727.05	78.0038	7,727.05	51.8807	7,727.05	73.0679	7,727.05	73.4153	7,727.05	80.2313	7,727.05	80.9427	7,727.05	80.9326	7,727.05	84.7783	7,727.05	82.9662	7,727.05	86.5424	7,727.05	85.2808	7,727.05	87.3654	7,727.05	86.8954	7,727.05	88.6756	7,727.05	88.3964	7,727.05	88.4704
7,999.51	88.5366	7,999.51	89.2673	7,999.51	88.7464	7,999.51	87.5008	7,999.51	86.7686	7,999.51	85.1874	7,999.51	86.3562	7,999.51	84.9542	7,999.51	83.7056	7,999.51	81.7955	7,999.51	80.6269	7,999.51	74.9168	7,999.51	79.4748	7,999.51	62.1802	7,999.51	73.5597	7,999.51	74.7318	7,999.51	74.1974	7,999.51	76.9819	7,999.51	74.7959	7,999.51	74.7318	7,999.51	74.1974	7,999.51	62.1802	7,999.51	73.5597	7,999.51	74.9168	7,999.51	79.4748	7,999.51	81.7955	7,999.51	80.6269	7,999.51	84.9542	7,999.51	83.7056	7,999.51	85.1874	7,999.51	86.3562	7,999.51	87.5008	7,999.51	86.7686	7,999.51	89.2673	7,999.51	88.7464	7,999.51	88.5366
8,282.23	88.4757	8,282.23	89.1631	8,282.23	88.6388	8,282.23	87.2519	8,282.23	86.8386	8,282.23	86.1476	8,282.23	86.4155	8,282.23	84.2111	8,282.23	81.989	8,282.23	82.4699	8,282.23	77.9484	8,282.23	75.1734	8,282.23	77.4078	8,282.23	65.4816	8,282.23	74.3834	8,282.23	70.5262	8,282.23	73.549	8,282.23	70.6407	8,282.23	76.9716	8,282.23	70.5262	8,282.23	73.549	8,282.23	65.4816	8,282.23	74.3834	8,282.23	75.1734	8,282.23	77.4078	8,282.23	82.4699	8,282.23	77.9484	8,282.23	84.2111	8,282.23	81.989	8,282.23	86.1476	8,282.23	86.4155	8,282.23	87.2519	8,282.23	86.8386	8,282.23	89.1631	8,282.23	88.6388	8,282.23	88.4757
8,573.73	89.0645	8,573.73	88.8987	8,573.73	88.0924	8,573.73	87.3125	8,573.73	85.6676	8,573.73	86.2888	8,573.73	85.8643	8,573.73	84.2039	8,573.73	82.3307	8,573.73	82.7598	8,573.73	78.2138	8,573.73	75.1323	8,573.73	74.5975	8,573.73	58.5245	8,573.73	75.3501	8,573.73	72.2366	8,573.73	76.7441	8,573.73	67.9062	8,573.73	81.9498	8,573.73	72.2366	8,573.73	76.7441	8,573.73	58.5245	8,573.73	75.3501	8,573.73	75.1323	8,573.73	74.5975	8,573.73	82.7598	8,573.73	78.2138	8,573.73	84.2039	8,573.73	82.3307	8,573.73	86.2888	8,573.73	85.8643	8,573.73	87.3125	8,573.73	85.6676	8,573.73	88.8987	8,573.73	88.0924	8,573.73	89.0645
8,876.95	88.9963	8,876.95	88.7099	8,876.95	88.0135	8,876.95	86.6685	8,876.95	85.3775	8,876.95	86.1713	8,876.95	85.2912	8,876.95	84.6332	8,876.95	83.1605	8,876.95	82.346	8,876.95	79.5008	8,876.95	74.985	8,876.95	75.0008	8,876.95	61.0881	8,876.95	77.5452	8,876.95	69.8358	8,876.95	79.6711	8,876.95	68.8999	8,876.95	83.8012	8,876.95	69.8358	8,876.95	79.6711	8,876.95	61.0881	8,876.95	77.5452	8,876.95	74.985	8,876.95	75.0008	8,876.95	82.346	8,876.95	79.5008	8,876.95	84.6332	8,876.95	83.1605	8,876.95	86.1713	8,876.95	85.2912	8,876.95	86.6685	8,876.95	85.3775	8,876.95	88.7099	8,876.95	88.0135	8,876.95	88.9963
9,188.96	89.2621	9,188.96	88.4974	9,188.96	87.7551	9,188.96	86.7691	9,188.96	87.0774	9,188.96	84.9955	9,188.96	84.2875	9,188.96	85.5704	9,188.96	83.7468	9,188.96	83.1313	9,188.96	77.5143	9,188.96	72.888	9,188.96	75.949	9,188.96	61.6219	9,188.96	77.6725	9,188.96	69.516	9,188.96	77.8298	9,188.96	74.4456	9,188.96	79.669	9,188.96	69.516	9,188.96	77.8298	9,188.96	61.6219	9,188.96	77.6725	9,188.96	72.888	9,188.96	75.949	9,188.96	83.1313	9,188.96	77.5143	9,188.96	85.5704	9,188.96	83.7468	9,188.96	84.9955	9,188.96	84.2875	9,188.96	86.7691	9,188.96	87.0774	9,188.96	88.4974	9,188.96	87.7551	9,188.96	89.2621
9,514.16	89.0369	9,514.16	87.8101	9,514.16	87.9479	9,514.16	85.944	9,514.16	87.4101	9,514.16	84.6197	9,514.16	82.7301	9,514.16	86.5901	9,514.16	84.0111	9,514.16	83.7373	9,514.16	73.1927	9,514.16	69.9655	9,514.16	75.5459	9,514.16	64.0258	9,514.16	75.5063	9,514.16	67.7509	9,514.16	67.2758	9,514.16	75.9268	9,514.16	71.8593	9,514.16	67.7509	9,514.16	67.2758	9,514.16	64.0258	9,514.16	75.5063	9,514.16	69.9655	9,514.16	75.5459	9,514.16	83.7373	9,514.16	73.1927	9,514.16	86.5901	9,514.16	84.0111	9,514.16	84.6197	9,514.16	82.7301	9,514.16	85.944	9,514.16	87.4101	9,514.16	87.8101	9,514.16	87.9479	9,514.16	89.0369
9,849.61	88.8953	9,849.61	86.8486	9,849.61	87.9224	9,849.61	85.3667	9,849.61	87.8368	9,849.61	83.4775	9,849.61	82.0394	9,849.61	87.2749	9,849.61	84.0869	9,849.61	85.2316	9,849.61	65.1903	9,849.61	76.7446	9,849.61	76.5095	9,849.61	72.1524	9,849.61	71.3077	9,849.61	71.7721	9,849.61	70.4983	9,849.61	77.2246	9,849.61	76.6123	9,849.61	71.7721	9,849.61	70.4983	9,849.61	72.1524	9,849.61	71.3077	9,849.61	76.7446	9,849.61	76.5095	9,849.61	85.2316	9,849.61	65.1903	9,849.61	87.2749	9,849.61	84.0869	9,849.61	83.4775	9,849.61	82.0394	9,849.61	85.3667	9,849.61	87.8368	9,849.61	86.8486	9,849.61	87.9224	9,849.61	88.8953
10,196.8	87.8937	10,196.8	85.6196	10,196.8	87.6889	10,196.8	84.2194	10,196.8	87.5666	10,196.8	81.884	10,196.8	83.7808	10,196.8	87.3089	10,196.8	83.1611	10,196.8	86.474	10,196.8	76.933	10,196.8	82.2883	10,196.8	79.1125	10,196.8	77.4533	10,196.8	70.6377	10,196.8	77.3455	10,196.8	78.6561	10,196.8	81.1606	10,196.8	82.3897	10,196.8	77.3455	10,196.8	78.6561	10,196.8	77.4533	10,196.8	70.6377	10,196.8	82.2883	10,196.8	79.1125	10,196.8	86.474	10,196.8	76.933	10,196.8	87.3089	10,196.8	83.1611	10,196.8	81.884	10,196.8	83.7808	10,196.8	84.2194	10,196.8	87.5666	10,196.8	85.6196	10,196.8	87.6889	10,196.8	87.8937
10,555.7	86.7365	10,555.7	84.3622	10,555.7	87.0586	10,555.7	82.1618	10,555.7	86.9106	10,555.7	78.2346	10,555.7	85.0005	10,555.7	87.6471	10,555.7	81.0544	10,555.7	86.922	10,555.7	82.7694	10,555.7	85.6366	10,555.7	78.136	10,555.7	82.2422	10,555.7	66.6824	10,555.7	80.1274	10,555.7	82.1196	10,555.7	81.9341	10,555.7	84.7175	10,555.7	80.1274	10,555.7	82.1196	10,555.7	82.2422	10,555.7	66.6824	10,555.7	85.6366	10,555.7	78.136	10,555.7	86.922	10,555.7	82.7694	10,555.7	87.6471	10,555.7	81.0544	10,555.7	78.2346	10,555.7	85.0005	10,555.7	82.1618	10,555.7	86.9106	10,555.7	84.3622	10,555.7	87.0586	10,555.7	86.7365
10,927.7	83.9591	10,927.7	82.1324	10,927.7	85.7343	10,927.7	79.3224	10,927.7	86.4278	10,927.7	70.573	10,927.7	86.3046	10,927.7	87.0472	10,927.7	80.1165	10,927.7	86.8662	10,927.7	84.9389	10,927.7	87.3214	10,927.7	73.5536	10,927.7	85.1804	10,927.7	73.2814	10,927.7	80.6315	10,927.7	82.1212	10,927.7	80.2191	10,927.7	84.5629	10,927.7	80.6315	10,927.7	82.1212	10,927.7	85.1804	10,927.7	73.2814	10,927.7	87.3214	10,927.7	73.5536	10,927.7	86.8662	10,927.7	84.9389	10,927.7	87.0472	10,927.7	80.1165	10,927.7	70.573	10,927.7	86.3046	10,927.7	79.3224	10,927.7	86.4278	10,927.7	82.1324	10,927.7	85.7343	10,927.7	83.9591
11,313	79.2011	11,313	78.533	11,313	84.3454	11,313	77.4943	11,313	85.2077	11,313	71.9036	11,313	86.0362	11,313	86.2869	11,313	80.5868	11,313	86.2903	11,313	84.4391	11,313	87.6537	11,313	70.1973	11,313	86.4757	11,313	76.03	11,313	80.9336	11,313	79.082	11,313	75.5591	11,313	80.6419	11,313	80.9336	11,313	79.082	11,313	86.4757	11,313	76.03	11,313	87.6537	11,313	70.1973	11,313	86.2903	11,313	84.4391	11,313	86.2869	11,313	80.5868	11,313	71.9036	11,313	86.0362	11,313	77.4943	11,313	85.2077	11,313	78.533	11,313	84.3454	11,313	79.2011
11,712.9	74.6368	11,712.9	71.183	11,712.9	83.1801	11,712.9	77.6795	11,712.9	84.0623	11,712.9	75.5077	11,712.9	85.3514	11,712.9	85.1705	11,712.9	81.4689	11,712.9	84.0546	11,712.9	80.7749	11,712.9	86.838	11,712.9	77.9619	11,712.9	86.3993	11,712.9	76.6939	11,712.9	80.7077	11,712.9	73.6957	11,712.9	76.5776	11,712.9	73.1749	11,712.9	80.7077	11,712.9	73.6957	11,712.9	86.3993	11,712.9	76.6939	11,712.9	86.838	11,712.9	77.9619	11,712.9	84.0546	11,712.9	80.7749	11,712.9	85.1705	11,712.9	81.4689	11,712.9	75.5077	11,712.9	85.3514	11,712.9	77.6795	11,712.9	84.0623	11,712.9	71.183	11,712.9	83.1801	11,712.9	74.6368
12,126	75.0485	12,126	67.6013	12,126	82.1853	12,126	78.696	12,126	83.1396	12,126	75.0377	12,126	84.9169	12,126	84.2437	12,126	81.5215	12,126	79.99	12,126	73.8401	12,126	85.6455	12,126	78.4427	12,126	84.7038	12,126	74.7139	12,126	78.9666	12,126	63.9141	12,126	74.8045	12,126	60.4871	12,126	78.9666	12,126	63.9141	12,126	84.7038	12,126	74.7139	12,126	85.6455	12,126	78.4427	12,126	79.99	12,126	73.8401	12,126	84.2437	12,126	81.5215	12,126	75.0377	12,126	84.9169	12,126	78.696	12,126	83.1396	12,126	67.6013	12,126	82.1853	12,126	75.0485
12,553.7	75.8094	12,553.7	66.8854	12,553.7	80.5935	12,553.7	79.0056	12,553.7	82.2641	12,553.7	69.6009	12,553.7	84.4019	12,553.7	84.363	12,553.7	81.903	12,553.7	78.4934	12,553.7	67.2706	12,553.7	85.6364	12,553.7	74.2862	12,553.7	81.7987	12,553.7	72.965	12,553.7	71.6839	12,553.7	55.4305	12,553.7	67.2122	12,553.7	57.6399	12,553.7	71.6839	12,553.7	55.4305	12,553.7	81.7987	12,553.7	72.965	12,553.7	85.6364	12,553.7	74.2862	12,553.7	78.4934	12,553.7	67.2706	12,553.7	84.363	12,553.7	81.903	12,553.7	69.6009	12,553.7	84.4019	12,553.7	79.0056	12,553.7	82.2641	12,553.7	66.8854	12,553.7	80.5935	12,553.7	75.8094
12,996.1	75.522	12,996.1	72.562	12,996.1	78.3755	12,996.1	78.6635	12,996.1	80.8807	12,996.1	71.7422	12,996.1	83.0003	12,996.1	84.907	12,996.1	83.1393	12,996.1	80.0075	12,996.1	64.6976	12,996.1	86.4614	12,996.1	72.7479	12,996.1	80.1324	12,996.1	69.4128	12,996.1	72.7117	12,996.1	68.4169	12,996.1	80.4412	12,996.1	70.9144	12,996.1	72.7117	12,996.1	68.4169	12,996.1	80.1324	12,996.1	69.4128	12,996.1	86.4614	12,996.1	72.7479	12,996.1	80.0075	12,996.1	64.6976	12,996.1	84.907	12,996.1	83.1393	12,996.1	71.7422	12,996.1	83.0003	12,996.1	78.6635	12,996.1	80.8807	12,996.1	72.562	12,996.1	78.3755	12,996.1	75.522
13,454.6	75.1243	13,454.6	73.5543	13,454.6	76.4711	13,454.6	77.9194	13,454.6	78.7167	13,454.6	77.5585	13,454.6	80.5619	13,454.6	85.8346	13,454.6	82.291	13,454.6	80.6455	13,454.6	75.6313	13,454.6	86.5885	13,454.6	74.9025	13,454.6	80.5802	13,454.6	62.5907	13,454.6	77.1481	13,454.6	75.0983	13,454.6	82.9819	13,454.6	77.6973	13,454.6	77.1481	13,454.6	75.0983	13,454.6	80.5802	13,454.6	62.5907	13,454.6	86.5885	13,454.6	74.9025	13,454.6	80.6455	13,454.6	75.6313	13,454.6	85.8346	13,454.6	82.291	13,454.6	77.5585	13,454.6	80.5619	13,454.6	77.9194	13,454.6	78.7167	13,454.6	73.5543	13,454.6	76.4711	13,454.6	75.1243
13,929.2	76.6171	13,929.2	73.6819	13,929.2	75.2713	13,929.2	77.3224	13,929.2	76.6609	13,929.2	79.8482	13,929.2	80.0362	13,929.2	85.9882	13,929.2	79.3681	13,929.2	79.2664	13,929.2	77.1353	13,929.2	84.7791	13,929.2	73.1571	13,929.2	79.5317	13,929.2	65.7612	13,929.2	74.209	13,929.2	74.0093	13,929.2	80.3677	13,929.2	76.5244	13,929.2	74.209	13,929.2	74.0093	13,929.2	79.5317	13,929.2	65.7612	13,929.2	84.7791	13,929.2	73.1571	13,929.2	79.2664	13,929.2	77.1353	13,929.2	85.9882	13,929.2	79.3681	13,929.2	79.8482	13,929.2	80.0362	13,929.2	77.3224	13,929.2	76.6609	13,929.2	73.6819	13,929.2	75.2713	13,929.2	76.6171
14,419.9	78.0804	14,419.9	71.6439	14,419.9	73.5866	14,419.9	76.2187	14,419.9	76.3673	14,419.9	79.8668	14,419.9	79.6234	14,419.9	84.463	14,419.9	79.2453	14,419.9	78.9591	14,419.9	78.0648	14,419.9	83.1697	14,419.9	67.5934	14,419.9	76.4881	14,419.9	63.8891	14,419.9	58.4744	14,419.9	69.9257	14,419.9	81.7365	14,419.9	69.9456	14,419.9	58.4744	14,419.9	69.9257	14,419.9	76.4881	14,419.9	63.8891	14,419.9	83.1697	14,419.9	67.5934	14,419.9	78.9591	14,419.9	78.0648	14,419.9	84.463	14,419.9	79.2453	14,419.9	79.8668	14,419.9	79.6234	14,419.9	76.2187	14,419.9	76.3673	14,419.9	71.6439	14,419.9	73.5866	14,419.9	78.0804
14,928.2	76.8316	14,928.2	64.189	14,928.2	71.9255	14,928.2	75.8683	14,928.2	73.3631	14,928.2	77.5141	14,928.2	76.7557	14,928.2	80.9634	14,928.2	79.9423	14,928.2	80.5636	14,928.2	78.5502	14,928.2	82.5315	14,928.2	67.344	14,928.2	72.4176	14,928.2	64.8207	14,928.2	74.2343	14,928.2	72.6314	14,928.2	84.1747	14,928.2	73.1665	14,928.2	74.2343	14,928.2	72.6314	14,928.2	72.4176	14,928.2	64.8207	14,928.2	82.5315	14,928.2	67.344	14,928.2	80.5636	14,928.2	78.5502	14,928.2	80.9634	14,928.2	79.9423	14,928.2	77.5141	14,928.2	76.7557	14,928.2	75.8683	14,928.2	73.3631	14,928.2	64.189	14,928.2	71.9255	14,928.2	76.8316
15,455.6	74.2434	15,455.6	60.0105	15,455.6	69.3809	15,455.6	75.3839	15,455.6	65.3719	15,455.6	74.5027	15,455.6	70.2435	15,455.6	77.1804	15,455.6	77.8221	15,455.6	81.6302	15,455.6	76.9077	15,455.6	82.2048	15,455.6	66.5649	15,455.6	71.4257	15,455.6	70.1204	15,455.6	73.4237	15,455.6	74.2555	15,455.6	81.9398	15,455.6	76.245	15,455.6	73.4237	15,455.6	74.2555	15,455.6	71.4257	15,455.6	70.1204	15,455.6	82.2048	15,455.6	66.5649	15,455.6	81.6302	15,455.6	76.9077	15,455.6	77.1804	15,455.6	77.8221	15,455.6	74.5027	15,455.6	70.2435	15,455.6	75.3839	15,455.6	65.3719	15,455.6	60.0105	15,455.6	69.3809	15,455.6	74.2434
16,000.5	70.0219	16,000.5	67.481	16,000.5	66.8569	16,000.5	72.5023	16,000.5	65.5618	16,000.5	71.6753	16,000.5	54.2287	16,000.5	75.2897	16,000.5	73.3657	16,000.5	81.7277	16,000.5	73.8493	16,000.5	81.9836	16,000.5	61.4875	16,000.5	71.1254	16,000.5	68.9569	16,000.5	68.6527	16,000.5	68.4841	16,000.5	76.8953	16,000.5	72.583	16,000.5	68.6527	16,000.5	68.4841	16,000.5	71.1254	16,000.5	68.9569	16,000.5	81.9836	16,000.5	61.4875	16,000.5	81.7277	16,000.5	73.8493	16,000.5	75.2897	16,000.5	73.3657	16,000.5	71.6753	16,000.5	54.2287	16,000.5	72.5023	16,000.5	65.5618	16,000.5	67.481	16,000.5	66.8569	16,000.5	70.0219
16,564.5	66.5336	16,564.5	70.1864	16,564.5	67.5416	16,564.5	66.9616	16,564.5	67.5338	16,564.5	72.359	16,564.5	61.1234	16,564.5	73.497	16,564.5	70.2316	16,564.5	81.6838	16,564.5	71.0707	16,564.5	81.967	16,564.5	62.0346	16,564.5	68.6341	16,564.5	59.543	16,564.5	69.2231	16,564.5	59.8373	16,564.5	71.0788	16,564.5	60.3786	16,564.5	69.2231	16,564.5	59.8373	16,564.5	68.6341	16,564.5	59.543	16,564.5	81.967	16,564.5	62.0346	16,564.5	81.6838	16,564.5	71.0707	16,564.5	73.497	16,564.5	70.2316	16,564.5	72.359	16,564.5	61.1234	16,564.5	66.9616	16,564.5	67.5338	16,564.5	70.1864	16,564.5	67.5416	16,564.5	66.5336
17,148.9	69.8874	17,148.9	69.3471	17,148.9	67.8008	17,148.9	63.8582	17,148.9	66.4574	17,148.9	75.3767	17,148.9	64.0799	17,148.9	73.8445	17,148.9	66.3361	17,148.9	81.3766	17,148.9	67.9061	17,148.9	81.309	17,148.9	58.5432	17,148.9	66.1567	17,148.9	59.4089	17,148.9	65.0753	17,148.9	62.4796	17,148.9	62.3189	17,148.9	65.5369	17,148.9	65.0753	17,148.9	62.4796	17,148.9	66.1567	17,148.9	59.4089	17,148.9	81.309	17,148.9	58.5432	17,148.9	81.3766	17,148.9	67.9061	17,148.9	73.8445	17,148.9	66.3361	17,148.9	75.3767	17,148.9	64.0799	17,148.9	63.8582	17,148.9	66.4574	17,148.9	69.3471	17,148.9	67.8008	17,148.9	69.8874
17,752.4	72.4894	17,752.4	63.4356	17,752.4	68.5644	17,752.4	69.192	17,752.4	62.8341	17,752.4	77.3269	17,752.4	61.7532	17,752.4	73.468	17,752.4	57.9312	17,752.4	78.7987	17,752.4	64.5681	17,752.4	79.8558	17,752.4	59.6561	17,752.4	70.9543	17,752.4	56.3404	17,752.4	62.4398	17,752.4	62.1885	17,752.4	65.9948	17,752.4	68.8236	17,752.4	62.4398	17,752.4	62.1885	17,752.4	70.9543	17,752.4	56.3404	17,752.4	79.8558	17,752.4	59.6561	17,752.4	78.7987	17,752.4	64.5681	17,752.4	73.468	17,752.4	57.9312	17,752.4	77.3269	17,752.4	61.7532	17,752.4	69.192	17,752.4	62.8341	17,752.4	63.4356	17,752.4	68.5644	17,752.4	72.4894
18,379.4	72.954	18,379.4	64.6089	18,379.4	68.2396	18,379.4	71.8479	18,379.4	60.2663	18,379.4	78.3994	18,379.4	55.5925	18,379.4	68.7858	18,379.4	56.2844	18,379.4	73.1657	18,379.4	56.2778	18,379.4	79.6094	18,379.4	42.6296	18,379.4	74.0071	18,379.4	53.9591	18,379.4	72.4489	18,379.4	54.1955	18,379.4	69.7051	18,379.4	60.5078	18,379.4	72.4489	18,379.4	54.1955	18,379.4	74.0071	18,379.4	53.9591	18,379.4	79.6094	18,379.4	42.6296	18,379.4	73.1657	18,379.4	56.2778	18,379.4	68.7858	18,379.4	56.2844	18,379.4	78.3994	18,379.4	55.5925	18,379.4	71.8479	18,379.4	60.2663	18,379.4	64.6089	18,379.4	68.2396	18,379.4	72.954
19,026.9	72.7888	19,026.9	70.1982	19,026.9	66.9008	19,026.9	72.0307	19,026.9	58.865	19,026.9	78.555	19,026.9	56.2282	19,026.9	71.5594	19,026.9	61.9809	19,026.9	64.4565	19,026.9	51.0257	19,026.9	80.074	19,026.9	57.4495	19,026.9	74.491	19,026.9	58.0402	19,026.9	72.2247	19,026.9	51.7131	19,026.9	75.1452	19,026.9	60.9758	19,026.9	72.2247	19,026.9	51.7131	19,026.9	74.491	19,026.9	58.0402	19,026.9	80.074	19,026.9	57.4495	19,026.9	64.4565	19,026.9	51.0257	19,026.9	71.5594	19,026.9	61.9809	19,026.9	78.555	19,026.9	56.2282	19,026.9	72.0307	19,026.9	58.865	19,026.9	70.1982	19,026.9	66.9008	19,026.9	72.7888
19,697.8	71.5647	19,697.8	72.4948	19,697.8	66.3729	19,697.8	71.1919	19,697.8	56.5891	19,697.8	77.6443	19,697.8	52.1969	19,697.8	78.7843	19,697.8	58.3122	19,697.8	62.9268	19,697.8	50.3622	19,697.8	79.8411	19,697.8	55.27	19,697.8	73.885	19,697.8	57.9071	19,697.8	67.2313	19,697.8	49.7164	19,697.8	72.7492	19,697.8	58.3544	19,697.8	67.2313	19,697.8	49.7164	19,697.8	73.885	19,697.8	57.9071	19,697.8	79.8411	19,697.8	55.27	19,697.8	62.9268	19,697.8	50.3622	19,697.8	78.7843	19,697.8	58.3122	19,697.8	77.6443	19,697.8	52.1969	19,697.8	71.1919	19,697.8	56.5891	19,697.8	72.4948	19,697.8	66.3729	19,697.8	71.5647
19,999.5	70.9189	19,999.5	72.4691	19,999.5	67.3325	19,999.5	71.0947	19,999.5	42.5015	19,999.5	77.3963	19,999.5	56.5683	19,999.5	81.0356	19,999.5	59.4124	19,999.5	67.3311	19,999.5	57.2042	19,999.5	79.2315	19,999.5	59.303	19,999.5	73.323	19,999.5	52.9573	19,999.5	66.0447	19,999.5	52.5129	19,999.5	70.5973	19,999.5	61.4512	19,999.5	66.0447	19,999.5	52.5129	19,999.5	73.323	19,999.5	52.9573	19,999.5	79.2315	19,999.5	59.303	19,999.5	67.3311	19,999.5	57.2042	19,999.5	81.0356	19,999.5	59.4124	19,999.5	77.3963	19,999.5	56.5683	19,999.5	71.0947	19,999.5	42.5015	19,999.5	72.4691	19,999.5	67.3325	19,999.5	70.9189
