"SPL Vertical"
"On-Axis"		"10°"		"-10°"		"20°"		"-20°"		"30°"		"-30°"		"40°"		"-40°"		"50°"		"-50°"		"60°"		"-60°"		"70°"		"-70°"		"80°"		"-80°"		"90°"		"-90°"		"100°"		"-100°"		"110°"		"-110°"		"120°"		"-120°"		"130°"		"-130°"		"140°"		"-140°"		"150°"		"-150°"		"160°"		"-160°"		"170°"		"-170°"		"180°"
"Frequency / Hz"	"Sound Pressure Level / dB (re 20 µPa/V)  [2.83V at 1m]"	"Frequency / Hz"	"Sound Pressure Level / dB (re 20 µPa/V)  [2.83V at 1m]"	"Frequency / Hz"	"Sound Pressure Level / dB (re 20 µPa/V)  [2.83V at 1m]"	"Frequency / Hz"	"Sound Pressure Level / dB (re 20 µPa/V)  [2.83V at 1m]"	"Frequency / Hz"	"Sound Pressure Level / dB (re 20 µPa/V)  [2.83V at 1m]"	"Frequency / Hz"	"Sound Pressure Level / dB (re 20 µPa/V)  [2.83V at 1m]"	"Frequency / Hz"	"Sound Pressure Level / dB (re 20 µPa/V)  [2.83V at 1m]"	"Frequency / Hz"	"Sound Pressure Level / dB (re 20 µPa/V)  [2.83V at 1m]"	"Frequency / Hz"	"Sound Pressure Level / dB (re 20 µPa/V)  [2.83V at 1m]"	"Frequency / Hz"	"Sound Pressure Level / dB (re 20 µPa/V)  [2.83V at 1m]"	"Frequency / Hz"	"Sound Pressure Level / dB (re 20 µPa/V)  [2.83V at 1m]"	"Frequency / Hz"	"Sound Pressure Level / dB (re 20 µPa/V)  [2.83V at 1m]"	"Frequency / Hz"	"Sound Pressure Level / dB (re 20 µPa/V)  [2.83V at 1m]"	"Frequency / Hz"	"Sound Pressure Level / dB (re 20 µPa/V)  [2.83V at 1m]"	"Frequency / Hz"	"Sound Pressure Level / dB (re 20 µPa/V)  [2.83V at 1m]"	"Frequency / Hz"	"Sound Pressure Level / dB (re 20 µPa/V)  [2.83V at 1m]"	"Frequency / Hz"	"Sound Pressure Level / dB (re 20 µPa/V)  [2.83V at 1m]"	"Frequency / Hz"	"Sound Pressure Level / dB (re 20 µPa/V)  [2.83V at 1m]"	"Frequency / Hz"	"Sound Pressure Level / dB (re 20 µPa/V)  [2.83V at 1m]"	"Frequency / Hz"	"Sound Pressure Level / dB (re 20 µPa/V)  [2.83V at 1m]"	"Frequency / Hz"	"Sound Pressure Level / dB (re 20 µPa/V)  [2.83V at 1m]"	"Frequency / Hz"	"Sound Pressure Level / dB (re 20 µPa/V)  [2.83V at 1m]"	"Frequency / Hz"	"Sound Pressure Level / dB (re 20 µPa/V)  [2.83V at 1m]"	"Frequency / Hz"	"Sound Pressure Level / dB (re 20 µPa/V)  [2.83V at 1m]"	"Frequency / Hz"	"Sound Pressure Level / dB (re 20 µPa/V)  [2.83V at 1m]"	"Frequency / Hz"	"Sound Pressure Level / dB (re 20 µPa/V)  [2.83V at 1m]"	"Frequency / Hz"	"Sound Pressure Level / dB (re 20 µPa/V)  [2.83V at 1m]"	"Frequency / Hz"	"Sound Pressure Level / dB (re 20 µPa/V)  [2.83V at 1m]"	"Frequency / Hz"	"Sound Pressure Level / dB (re 20 µPa/V)  [2.83V at 1m]"	"Frequency / Hz"	"Sound Pressure Level / dB (re 20 µPa/V)  [2.83V at 1m]"	"Frequency / Hz"	"Sound Pressure Level / dB (re 20 µPa/V)  [2.83V at 1m]"	"Frequency / Hz"	"Sound Pressure Level / dB (re 20 µPa/V)  [2.83V at 1m]"	"Frequency / Hz"	"Sound Pressure Level / dB (re 20 µPa/V)  [2.83V at 1m]"	"Frequency / Hz"	"Sound Pressure Level / dB (re 20 µPa/V)  [2.83V at 1m]"	"Frequency / Hz"	"Sound Pressure Level / dB (re 20 µPa/V)  [2.83V at 1m]"	"Frequency / Hz"	"Sound Pressure Level / dB (re 20 µPa/V)  [2.83V at 1m]"
20.5078	58.4678	20.5078	58.4996	20.5078	58.3627	20.5078	58.4598	20.5078	58.2313	20.5078	58.3678	20.5078	58.2431	20.5078	58.2508	20.5078	58.7747	20.5078	58.142	20.5078	60.2494	20.5078	58.0806	20.5078	62.6298	20.5078	58.1118	20.5078	65.4135	20.5078	58.2819	20.5078	68.1271	20.5078	58.6303	20.5078	70.4816	20.5078	59.1792	20.5078	72.299	20.5078	59.9276	20.5078	73.4699	20.5078	60.8533	20.5078	73.9613	20.5078	61.9222	20.5078	73.8275	20.5078	63.0988	20.5078	73.1929	20.5078	64.3522	20.5078	72.2092	20.5078	65.6588	20.5078	71.0137	20.5078	66.9996	20.5078	69.708	20.5078	68.3572
21.9727	61.7709	21.9727	61.7072	21.9727	61.7497	21.9727	61.5654	21.9727	61.6681	21.9727	61.3641	21.9727	61.632	21.9727	61.1282	21.9727	61.9081	21.9727	60.8893	21.9727	62.9003	21.9727	60.6873	21.9727	64.7896	21.9727	60.5728	21.9727	67.2549	21.9727	60.6031	21.9727	69.8054	21.9727	60.8333	21.9727	72.09	21.9727	61.3001	21.9727	73.897	21.9727	62.0088	21.9727	75.1041	21.9727	62.9327	21.9727	75.6702	21.9727	64.026	21.9727	75.6389	21.9727	65.2394	21.9727	75.1188	21.9727	66.5308	21.9727	74.2442	21.9727	67.8672	21.9727	73.1379	21.9727	69.2232	21.9727	71.8935	21.9727	70.5748
23.4375	64.565	23.4375	64.4455	23.4375	64.67	23.4375	64.3041	23.4375	64.7941	23.4375	64.1472	23.4375	65.0205	23.4375	63.989	23.4375	65.5067	23.4375	63.8503	23.4375	66.4608	23.4375	63.7575	23.4375	68.0043	23.4375	63.7421	23.4375	70.0215	23.4375	63.8384	23.4375	72.2121	23.4375	64.0784	23.4375	74.2596	23.4375	64.4856	23.4375	75.9179	23.4375	65.0688	23.4375	77.0281	23.4375	65.8209	23.4375	77.5264	23.4375	66.7213	23.4375	77.447	23.4375	67.7427	23.4375	76.8984	23.4375	68.8569	23.4375	76.0195	23.4375	70.0379	23.4375	74.9371	23.4375	71.2624	23.4375	73.7456	23.4375	72.5074
24.9023	67.2949	24.9023	67.1147	24.9023	67.5006	24.9023	66.9464	24.9023	67.7665	24.9023	66.7893	24.9023	68.1589	24.9023	66.6513	24.9023	68.781	24.9023	66.5461	24.9023	69.7493	24.9023	66.4925	24.9023	71.1261	24.9023	66.5127	24.9023	72.8465	24.9023	66.6308	24.9023	74.7199	24.9023	66.8693	24.9023	76.5033	24.9023	67.2456	24.9023	77.9705	24.9023	67.7681	24.9023	78.956	24.9023	68.435	24.9023	79.383	24.9023	69.2351	24.9023	79.274	24.9023	70.1504	24.9023	78.7286	24.9023	71.1602	24.9023	77.8777	24.9023	72.2432	24.9023	76.8419	24.9023	73.3783	24.9023	75.7105	24.9023	74.5431
26.3672	72.3409	26.3672	72.113	26.3672	72.608	26.3672	71.9153	26.3672	72.9333	26.3672	71.7455	26.3672	73.3503	26.3672	71.606	26.3672	73.9098	26.3672	71.5028	26.3672	74.675	26.3672	71.4446	26.3672	75.7002	26.3672	71.4422	26.3672	76.9889	26.3672	71.508	26.3672	78.4559	26.3672	71.6551	26.3672	79.9268	26.3672	71.896	26.3672	81.1832	26.3672	72.2414	26.3672	82.0319	26.3672	72.6986	26.3672	82.3672	26.3672	73.2704	26.3672	82.1972	26.3672	73.955	26.3672	81.6198	26.3672	74.746	26.3672	80.7685	26.3672	75.6328	26.3672	79.765	26.3672	76.6012	26.3672	78.6997	26.3672	77.6321
27.832	74.6357	27.832	74.3728	27.832	74.9485	27.832	74.1505	27.832	75.3277	27.832	73.9651	27.832	75.7999	27.832	73.8171	27.832	76.4017	27.832	73.71	27.832	77.1761	27.832	73.6498	27.832	78.1574	27.832	73.6447	27.832	79.3442	27.832	73.7042	27.832	80.67	27.832	73.839	27.832	81.992	27.832	74.0597	27.832	83.1185	27.832	74.3759	27.832	83.869	27.832	74.7953	27.832	84.1398	27.832	75.3222	27.832	83.935	27.832	75.9572	27.832	83.3464	27.832	76.6969	27.832	82.5011	27.832	77.5336	27.832	81.5159	27.832	78.4554	27.832	80.4779	27.832	79.4451
29.2969	77.1425	29.2969	76.8571	29.2969	77.4783	29.2969	76.6157	29.2969	77.8759	29.2969	76.4154	29.2969	78.3525	29.2969	76.2561	29.2969	78.932	29.2969	76.14	29.2969	79.6425	29.2969	76.0711	29.2969	80.508	29.2969	76.0548	29.2969	81.5309	29.2969	76.0978	29.2969	82.6664	29.2969	76.2077	29.2969	83.8044	29.2969	76.3924	29.2969	84.7803	29.2969	76.6598	29.2969	85.4262	29.2969	77.0168	29.2969	85.6374	29.2969	77.4688	29.2969	85.4108	29.2969	78.019	29.2969	84.83	29.2969	78.6674	29.2969	84.0152	29.2969	79.4109	29.2969	83.0786	29.2969	80.2417	29.2969	82.1039	29.2969	81.1466
30.7617	78.8929	30.7617	78.5955	30.7617	79.2408	30.7617	78.3435	30.7617	79.6471	30.7617	78.1346	30.7617	80.124	30.7617	77.9685	30.7617	80.6878	30.7617	77.8464	30.7617	81.3574	30.7617	77.7709	30.7617	82.1494	30.7617	77.746	30.7617	83.0651	30.7617	77.7764	30.7617	84.0704	30.7617	77.8677	30.7617	85.0756	30.7617	78.0263	30.7617	85.9376	30.7617	78.2587	30.7617	86.5009	30.7617	78.5712	30.7617	86.6626	30.7617	78.9695	30.7617	86.4155	30.7617	79.4581	30.7617	85.8375	30.7617	80.0395	30.7617	85.044	30.7617	80.7135	30.7617	84.1432	30.7617	81.4757	30.7617	83.2162	30.7617	82.3162
32.2266	80.2088	32.2266	79.9053	32.2266	80.5629	32.2266	79.6488	32.2266	80.9739	32.2266	79.437	32.2266	81.4502	32.2266	79.2693	32.2266	82.0029	32.2266	79.1462	32.2266	82.6445	32.2266	79.0694	32.2266	83.3856	32.2266	79.0415	32.2266	84.2254	32.2266	79.0661	32.2266	85.1355	32.2266	79.1474	32.2266	86.0406	32.2266	79.2905	32.2266	86.8148	32.2266	79.5009	32.2266	87.3141	32.2266	79.7844	32.2266	87.4393	32.2266	80.1465	32.2266	87.1805	32.2266	80.5922	32.2266	86.611	32.2266	81.1253	32.2266	85.8414	32.2266	81.7471	32.2266	84.9762	32.2266	82.4556	32.2266	84.0933	32.2266	83.2431
33.6914	81.0669	33.6914	80.7516	33.6914	81.4339	33.6914	80.4851	33.6914	81.8569	33.6914	80.2658	33.6914	82.3413	33.6914	80.0927	33.6914	82.8938	33.6914	79.966	33.6914	83.5217	33.6914	79.8867	33.6914	84.2295	33.6914	79.8564	33.6914	85.0133	33.6914	79.8776	33.6914	85.8469	33.6914	79.9535	33.6914	86.6648	33.6914	80.0879	33.6914	87.3561	33.6914	80.2854	33.6914	87.7903	33.6914	80.5507	33.6914	87.8743	33.6914	80.8889	33.6914	87.5984	33.6914	81.3049	33.6914	87.0323	33.6914	81.8028	33.6914	86.2819	33.6914	82.3849	33.6914	85.4473	33.6914	83.0507	33.6914	84.6024	33.6914	83.7945
35.1562	81.7235	35.1562	81.4007	35.1562	82.0974	35.1562	81.1269	35.1562	82.5247	35.1562	80.901	35.1562	83.0083	35.1562	80.722	35.1562	83.5516	35.1562	80.59	35.1562	84.1572	35.1562	80.5052	35.1562	84.8256	35.1562	80.4687	35.1562	85.5499	35.1562	80.482	35.1562	86.3056	35.1562	80.5475	35.1562	87.0359	35.1562	80.6678	35.1562	87.6433	35.1562	80.8467	35.1562	88.0099	35.1562	81.0881	35.1562	88.0497	35.1562	81.3967	35.1562	87.7537	35.1562	81.7773	35.1562	87.1885	35.1562	82.2343	35.1562	86.456	35.1562	82.7713	35.1562	85.6523	35.1562	83.3894	35.1562	84.8474	35.1562	84.0851
36.6211	81.9897	36.6211	81.6541	36.6211	82.3765	36.6211	81.3689	36.6211	82.8158	36.6211	81.1331	36.6211	83.3081	36.6211	80.9459	36.6211	83.8537	36.6211	80.8071	36.6211	84.4515	36.6211	80.7167	36.6211	85.0981	36.6211	80.6749	36.6211	85.7838	36.6211	80.6829	36.6211	86.4851	36.6211	80.7422	36.6211	87.1516	36.6211	80.855	36.6211	87.6965	36.6211	81.0242	36.6211	88.0128	36.6211	81.2534	36.6211	88.0201	36.6211	81.5468	36.6211	87.7096	36.6211	81.9091	36.6211	87.1447	36.6211	82.3449	36.6211	86.4235	36.6211	82.8581	36.6211	85.6384	36.6211	83.4506	36.6211	84.8567	36.6211	84.12
38.0859	82.2649	38.0859	81.9227	38.0859	82.658	38.0859	81.6311	38.0859	83.1014	38.0859	81.3899	38.0859	83.5942	38.0859	81.1986	38.0859	84.1345	38.0859	81.0569	38.0859	84.7185	38.0859	80.9646	38.0859	85.3402	38.0859	80.9218	38.0859	85.9886	38.0859	80.929	38.0859	86.6411	38.0859	80.987	38.0859	87.2525	38.0859	81.0973	38.0859	87.7447	38.0859	81.2622	38.0859	88.02	38.0859	81.4843	38.0859	88.0035	38.0859	81.7672	38.0859	87.6872	38.0859	82.1148	38.0859	87.1321	38.0859	82.5314	38.0859	86.4323	38.0859	83.0208	38.0859	85.6759	38.0859	83.5851	38.0859	84.9267	38.0859	84.2232
39.5508	82.5552	39.5508	82.2071	39.5508	82.9533	39.5508	81.9099	39.5508	83.4001	39.5508	81.6635	39.5508	83.8929	39.5508	81.4677	39.5508	84.4277	39.5508	81.3221	39.5508	84.9983	39.5508	81.2264	39.5508	85.596	39.5508	81.1801	39.5508	86.2073	39.5508	81.1832	39.5508	86.8096	39.5508	81.2361	39.5508	87.3612	39.5508	81.3396	39.5508	87.7931	39.5508	81.4951	39.5508	88.0176	39.5508	81.7048	39.5508	87.9677	39.5508	81.9716	39.5508	87.6374	39.5508	82.2991	39.5508	87.0858	39.5508	82.6913	39.5508	86.4034	39.5508	83.1522	39.5508	85.674	39.5508	83.6845	39.5508	84.9572	39.5508	84.2883
41.0156	82.8388	41.0156	82.4852	41.0156	83.2415	41.0156	82.1821	41.0156	83.6907	41.0156	81.9302	41.0156	84.1824	41.0156	81.7294	41.0156	84.7107	41.0156	81.5794	41.0156	85.2674	41.0156	81.4797	41.0156	85.8412	41.0156	81.4297	41.0156	86.4172	41.0156	81.429	41.0156	86.9727	41.0156	81.4773	41.0156	87.4699	41.0156	81.5751	41.0156	87.8477	41.0156	81.7232	41.0156	88.028	41.0156	81.923	41.0156	87.9502	41.0156	82.1769	41.0156	87.6102	41.0156	82.488	41.0156	87.065	41.0156	82.86	41.0156	86.4012	41.0156	83.2968	41.0156	85.6983	41.0156	83.8016	41.0156	85.0122	41.0156	84.3749
42.4805	83.1018	42.4805	82.7447	42.4805	83.5064	42.4805	82.4373	42.4805	83.955	42.4805	82.1805	42.4805	84.4426	42.4805	81.9746	42.4805	84.9619	42.4805	81.8195	42.4805	85.5029	42.4805	81.7146	42.4805	86.0531	42.4805	81.6592	42.4805	86.5959	42.4805	81.6525	42.4805	87.1088	42.4805	81.694	42.4805	87.5572	42.4805	81.7837	42.4805	87.886	42.4805	81.9219	42.4805	88.025	42.4805	82.1096	42.4805	87.9198	42.4805	82.3488	42.4805	87.5683	42.4805	82.6423	42.4805	87.0262	42.4805	82.9934	42.4805	86.3769	42.4805	83.4063	42.4805	85.6965	42.4805	83.8843	42.4805	85.0376	42.4805	84.4292
43.9453	83.3325	43.9453	82.9723	43.9453	83.7388	43.9453	82.6606	43.9453	84.1869	43.9453	82.399	43.9453	84.6708	43.9453	82.188	43.9453	85.1822	43.9453	82.0275	43.9453	85.7099	43.9453	81.9169	43.9453	86.2396	43.9453	81.8554	43.9453	86.7539	43.9453	81.8421	43.9453	87.2304	43.9453	81.8763	43.9453	87.6365	43.9453	81.9575	43.9453	87.9226	43.9453	82.0859	43.9453	88.0256	43.9453	82.2623	43.9453	87.8962	43.9453	82.4881	43.9453	87.5339	43.9453	82.7661	43.9453	86.9935	43.9453	83.0994	43.9453	86.3555	43.9453	83.4923	43.9453	85.6929	43.9453	83.9485	43.9453	85.0555	43.9453	84.4703
45.4102	83.3047	45.4102	82.9361	45.4102	83.7192	45.4102	82.6167	45.4102	84.1748	45.4102	82.3485	45.4102	84.6648	45.4102	82.1324	45.4102	85.1804	45.4102	81.9684	45.4102	85.7098	45.4102	81.856	45.4102	86.2387	45.4102	81.7942	45.4102	86.7492	45.4102	81.7816	45.4102	87.2187	45.4102	81.8172	45.4102	87.6153	45.4102	81.8998	45.4102	87.8893	45.4102	82.0289	45.4102	87.9756	45.4102	82.2047	45.4102	87.8242	45.4102	82.4282	45.4102	87.439	45.4102	82.7016	45.4102	86.8813	45.4102	83.028	45.4102	86.2352	45.4102	83.4116	45.4102	85.5731	45.4102	83.8569	45.4102	84.9424	45.4102	84.3673
46.875	83.6062	46.875	83.2338	46.875	84.0238	46.875	82.9103	46.875	84.4809	46.875	82.6383	46.875	84.9699	46.875	82.4189	46.875	85.4809	46.875	82.2523	46.875	86.0012	46.875	82.138	46.875	86.5148	46.875	82.075	46.875	87.0026	46.875	82.0619	46.875	87.4418	46.875	82.0971	46.875	87.8019	46.875	82.1793	46.875	88.0386	46.875	82.3076	46.875	88.0945	46.875	82.4816	46.875	87.9264	46.875	82.7019	46.875	87.5407	46.875	82.9698	46.875	86.9963	46.875	83.2881	46.875	86.3726	46.875	83.6602	46.875	85.7369	46.875	84.0901	46.875	85.1324	46.875	84.5809
48.3398	83.8422	48.3398	83.4695	48.3398	84.2592	48.3398	83.1457	48.3398	84.7146	48.3398	82.8734	48.3398	85.2	48.3398	82.6542	48.3398	85.7045	48.3398	82.4883	48.3398	86.2143	48.3398	82.3753	48.3398	86.7125	48.3398	82.3138	48.3398	87.179	48.3398	82.3023	48.3398	87.5904	48.3398	82.339	48.3398	87.9178	48.3398	82.4222	48.3398	88.1209	48.3398	82.5503	48.3398	88.1491	48.3398	82.7226	48.3398	87.9655	48.3398	82.9388	48.3398	87.5792	48.3398	83.1998	48.3398	87.0479	48.3398	83.5075	48.3398	86.4474	48.3398	83.8648	48.3398	85.8404	48.3398	84.2753	48.3398	85.2657	48.3398	84.742
51.2695	84.4687	51.2695	84.0916	51.2695	84.8877	51.2695	83.7618	51.2695	85.3414	51.2695	83.4827	51.2695	85.82	51.2695	83.2564	51.2695	86.3111	51.2695	83.0834	51.2695	86.7989	51.2695	82.9634	51.2695	87.2643	51.2695	82.895	51.2695	87.685	51.2695	82.8761	51.2695	88.0366	51.2695	82.9045	51.2695	88.2922	51.2695	82.9778	51.2695	88.419	51.2695	83.0936	51.2695	88.3795	51.2695	83.2503	51.2695	88.149	51.2695	83.4468	51.2695	87.7428	51.2695	83.6831	51.2695	87.2175	51.2695	83.9605	51.2695	86.6431	51.2695	84.2817	51.2695	86.0754	51.2695	84.6505	51.2695	85.547	51.2695	85.0713
52.7344	84.719	52.7344	84.3372	52.7344	85.1423	52.7344	84.0023	52.7344	85.5991	52.7344	83.7184	52.7344	86.0791	52.7344	83.4877	52.7344	86.5693	52.7344	83.3109	52.7344	87.0532	52.7344	83.1878	52.7344	87.5107	52.7344	83.1169	52.7344	87.9185	52.7344	83.0963	52.7344	88.2514	52.7344	83.1233	52.7344	88.4826	52.7344	83.1954	52.7344	88.5822	52.7344	83.3101	52.7344	88.5177	52.7344	83.4652	52.7344	88.2704	52.7344	83.6594	52.7344	87.8585	52.7344	83.8923	52.7344	87.3377	52.7344	84.1647	52.7344	86.7749	52.7344	84.479	52.7344	86.2222	52.7344	84.8385	52.7344	85.7093	52.7344	85.2476
54.1992	85.0107	54.1992	84.6265	54.1992	85.4349	54.1992	84.2887	54.1992	85.891	54.1992	84.0013	54.1992	86.368	54.1992	83.767	54.1992	86.8523	54.1992	83.5868	54.1992	87.3266	54.1992	83.4605	54.1992	87.7703	54.1992	83.3867	54.1992	88.1596	54.1992	83.3633	54.1992	88.4691	54.1992	83.3877	54.1992	88.6731	54.1992	83.457	54.1992	88.7443	54.1992	83.5684	54.1992	88.6553	54.1992	83.7195	54.1992	88.3925	54.1992	83.9086	54.1992	87.9767	54.1992	84.1349	54.1992	87.4628	54.1992	84.3988	54.1992	86.9143	54.1992	84.7023	54.1992	86.3798	54.1992	85.0486	54.1992	85.8857	54.1992	85.4419
55.6641	85.3105	55.6641	84.9237	55.6641	85.736	55.6641	84.5823	55.6641	86.1914	55.6641	84.2909	55.6641	86.6654	55.6641	84.0524	55.6641	87.1437	55.6641	83.8681	55.6641	87.6084	55.6641	83.7379	55.6641	88.0383	55.6641	83.6605	55.6641	88.409	55.6641	83.6337	55.6641	88.6946	55.6641	83.6548	55.6641	88.8699	55.6641	83.7206	55.6641	88.9105	55.6641	83.8282	55.6641	88.794	55.6641	83.9747	55.6641	88.5125	55.6641	84.1579	55.6641	88.09	55.6641	84.3767	55.6641	87.5809	55.6641	84.6312	55.6641	87.0459	55.6641	84.9227	55.6641	86.5296	55.6641	85.2545	55.6641	86.0554	55.6641	85.6307
58.5938	85.8818	58.5938	85.4904	58.5938	86.3093	58.5938	85.1427	58.5938	86.7634	58.5938	84.8439	58.5938	87.2319	58.5938	84.5976	58.5938	87.6996	58.5938	84.4055	58.5938	88.1478	58.5938	84.2678	58.5938	88.5541	58.5938	84.1834	58.5938	88.8929	58.5938	84.1501	58.5938	89.1377	58.5938	84.1648	58.5938	89.2638	58.5938	84.224	58.5938	89.2509	58.5938	84.3242	58.5938	89.0851	58.5938	84.4619	58.5938	88.7688	58.5938	84.6342	58.5938	88.3324	58.5938	84.8393	58.5938	87.8299	58.5938	85.0765	58.5938	87.3169	58.5938	85.3468	58.5938	86.8315	58.5938	85.6529	58.5938	86.3911	58.5938	85.9993
60.0586	86.2006	60.0586	85.8048	60.0586	86.6311	60.0586	85.4514	60.0586	87.0863	60.0586	85.1463	60.0586	87.5535	60.0586	84.8932	60.0586	88.0171	60.0586	84.6942	60.0586	88.4579	60.0586	84.5498	60.0586	88.8531	60.0586	84.459	60.0586	89.1764	60.0586	84.4197	60.0586	89.4007	60.0586	84.4287	60.0586	89.5015	60.0586	84.4824	60.0586	89.4602	60.0586	84.5772	60.0586	89.2674	60.0586	84.7092	60.0586	88.9309	60.0586	84.8754	60.0586	88.4842	60.0586	85.0736	60.0586	87.9814	60.0586	85.3028	60.0586	87.4753	60.0586	85.5639	60.0586	87.0009	60.0586	85.8595	60.0586	86.5732	60.0586	86.1941
62.9883	86.7308	62.9883	86.33	62.9883	87.162	62.9883	85.9679	62.9883	87.6129	62.9883	85.6511	62.9883	88.0705	62.9883	85.3839	62.9883	88.5185	62.9883	85.1694	62.9883	88.9371	62.9883	85.0085	62.9883	89.3024	62.9883	84.9009	62.9883	89.5869	62.9883	84.8449	62.9883	89.7623	62.9883	84.8376	62.9883	89.8043	62.9883	84.8754	62.9883	89.6988	62.9883	84.9543	62.9883	89.4462	62.9883	85.0704	62.9883	89.0661	62.9883	85.2199	62.9883	88.5994	62.9883	85.4001	62.9883	88.0995	62.9883	85.6094	62.9883	87.6129	62.9883	85.8478	62.9883	87.1671	62.9883	86.1176	62.9883	86.7711	62.9883	86.4233
64.4531	86.9429	64.4531	86.5485	64.4531	87.3658	64.4531	86.1909	64.4531	87.8067	64.4531	85.8765	64.4531	88.2525	64.4531	85.6097	64.4531	88.6866	64.4531	85.3933	64.4531	89.089	64.4531	85.2284	64.4531	89.4353	64.4531	85.1148	64.4531	89.6974	64.4531	85.0507	64.4531	89.8468	64.4531	85.0336	64.4531	89.8595	64.4531	85.0599	64.4531	89.7235	64.4531	85.126	64.4531	89.4431	64.4531	85.2278	64.4531	89.0429	64.4531	85.3617	64.4531	88.5676	64.4531	85.5251	64.4531	88.071	64.4531	85.7162	64.4531	87.5972	64.4531	85.9353	64.4531	87.1698	64.4531	86.1847	64.4531	86.795	64.4531	86.469
67.3828	87.5135	67.3828	87.119	67.3828	87.9384	67.3828	86.7637	67.3828	88.3827	67.3828	86.454	67.3828	88.8323	67.3828	86.1946	67.3828	89.2702	67.3828	85.9877	67.3828	89.6756	67.3828	85.8342	67.3828	90.0236	67.3828	85.733	67.3828	90.286	67.3828	85.6818	67.3828	90.434	67.3828	85.6772	67.3828	90.4439	67.3828	85.7151	67.3828	90.3038	67.3828	85.791	67.3828	90.0193	67.3828	85.9004	67.3828	89.6175	67.3828	86.0393	67.3828	89.1457	67.3828	86.2046	67.3828	88.6589	67.3828	86.3944	67.3828	88.2	67.3828	86.6086	67.3828	87.7902	67.3828	86.8495	67.3828	87.4327	67.3828	87.1218
68.8477	87.7178	68.8477	87.316	68.8477	88.1499	68.8477	86.9538	68.8477	88.6008	68.8477	86.6382	68.8477	89.0562	68.8477	86.374	68.8477	89.4985	68.8477	86.1642	68.8477	89.9068	68.8477	86.0094	68.8477	90.2558	68.8477	85.9088	68.8477	90.5171	68.8477	85.8599	68.8477	90.6618	68.8477	85.859	68.8477	90.666	68.8477	85.9019	68.8477	90.5184	68.8477	85.9836	68.8477	90.2266	68.8477	86.0993	68.8477	89.8207	68.8477	86.2447	68.8477	89.3497	68.8477	86.4161	68.8477	88.8675	68.8477	86.6113	68.8477	88.4147	68.8477	86.8299	68.8477	88.0103	68.8477	87.0737	68.8477	87.6564	68.8477	87.3469
71.7773	88.0771	71.7773	87.6674	71.7773	88.5148	71.7773	87.296	71.7773	88.9683	71.7773	86.9708	71.7773	89.4225	71.7773	86.6975	71.7773	89.8595	71.7773	86.4798	71.7773	90.2578	71.7773	86.3189	71.7773	90.592	71.7773	86.2143	71.7773	90.8339	71.7773	86.1638	71.7773	90.9545	71.7773	86.1634	71.7773	90.9307	71.7773	86.2085	71.7773	90.7538	71.7773	86.2936	71.7773	90.4369	71.7773	86.4133	71.7773	90.0171	71.7773	86.5623	71.7773	89.5476	71.7773	86.7363	71.7773	89.0808	71.7773	86.9321	71.7773	88.6514	71.7773	87.1481	71.7773	88.2717	71.7773	87.3852	71.7773	87.9396	71.7773	87.6469
74.707	88.3715	74.707	87.9527	74.707	88.8178	74.707	87.5723	74.707	89.2784	74.707	87.2393	74.707	89.7376	74.707	86.9601	74.707	90.177	74.707	86.7388	74.707	90.5746	74.707	86.577	74.707	90.9045	74.707	86.474	74.707	91.1375	74.707	86.4271	74.707	91.2436	74.707	86.432	74.707	91.1987	74.707	86.483	74.707	90.9947	74.707	86.574	74.707	90.6481	74.707	86.6985	74.707	90.2028	74.707	86.8507	74.707	89.7195	74.707	87.0251	74.707	89.2542	74.707	87.218	74.707	88.839	74.707	87.4272	74.707	88.4809	74.707	87.6531	74.707	88.1715	74.707	87.899
77.6367	88.6501	77.6367	88.2274	77.6367	89.098	77.6367	87.8415	77.6367	89.5569	77.6367	87.5023	77.6367	90.0106	77.6367	87.2169	77.6367	90.4403	77.6367	86.99	77.6367	90.8238	77.6367	86.8235	77.6367	91.1354	77.6367	86.7171	77.6367	91.3461	77.6367	86.6678	77.6367	91.4267	77.6367	86.671	77.6367	91.354	77.6367	86.7206	77.6367	91.1217	77.6367	86.81	77.6367	90.7502	77.6367	86.9321	77.6367	90.2889	77.6367	87.0805	77.6367	89.8023	77.6367	87.2492	77.6367	89.3461	77.6367	87.434	77.6367	88.9488	77.6367	87.6322	77.6367	88.6123	77.6367	87.844	77.6367	88.325	77.6367	88.0726
79.1016	88.7518	79.1016	88.3251	79.1016	89.2026	79.1016	87.9349	79.1016	89.6628	79.1016	87.5913	79.1016	90.1161	79.1016	87.3022	79.1016	90.5433	79.1016	87.0725	79.1016	90.9224	79.1016	86.9046	79.1016	91.2278	79.1016	86.7978	79.1016	91.431	79.1016	86.7493	79.1016	91.5029	79.1016	86.754	79.1016	91.4211	79.1016	86.8056	79.1016	91.1798	79.1016	86.8971	79.1016	90.8014	79.1016	87.0209	79.1016	90.3368	79.1016	87.1704	79.1016	89.8514	79.1016	87.3393	79.1016	89.4	79.1016	87.5232	79.1016	89.0093	79.1016	87.7194	79.1016	88.6797	79.1016	87.9279	79.1016	88.3988	79.1016	88.152
82.0312	88.8942	82.0312	88.4548	82.0312	89.3547	82.0312	88.05	82.0312	89.8208	82.0312	87.6917	82.0312	90.2752	82.0312	87.3888	82.0312	90.6987	82.0312	87.1478	82.0312	91.0691	82.0312	86.9719	82.0312	91.3612	82.0312	86.8608	82.0312	91.547	82.0312	86.8116	82.0312	91.5987	82.0312	86.8188	82.0312	91.4953	82.0312	86.8755	82.0312	91.2341	82.0312	86.9735	82.0312	90.8419	82.0312	87.1047	82.0312	90.3744	82.0312	87.2614	82.0312	89.898	82.0312	87.437	82.0312	89.4628	82.0312	87.6262	82.0312	89.0891	82.0312	87.8261	82.0312	88.7732	82.0312	88.0362	82.0312	88.5013	82.0312	88.2591
84.9609	88.9247	84.9609	88.4666	84.9609	89.3987	84.9609	88.0396	84.9609	89.8724	84.9609	87.657	84.9609	90.3282	84.9609	87.3303	84.9609	90.747	84.9609	87.068	84.9609	91.1076	84.9609	86.8754	84.9609	91.3866	84.9609	86.7538	84.9609	91.5585	84.9609	86.7012	84.9609	91.5984	84.9609	86.7125	84.9609	91.4883	84.9609	86.7802	84.9609	91.2285	84.9609	86.8955	84.9609	90.8485	84.9609	87.0493	84.9609	90.4059	84.9609	87.2326	84.9609	89.9635	84.9609	87.4374	84.9609	89.5625	84.9609	87.6572	84.9609	89.2132	84.9609	87.8875	84.9609	88.9069	84.9609	88.1257	84.9609	88.6303	84.9609	88.3723
87.8906	89.3788	87.8906	88.9161	87.8906	89.8495	87.8906	88.4769	87.8906	90.3117	87.8906	88.0757	87.8906	90.7479	87.8906	87.7253	87.8906	91.1396	87.8906	87.4365	87.8906	91.4664	87.8906	87.2165	87.8906	91.7058	87.8906	87.0693	87.8906	91.8339	87.8906	86.9949	87.8906	91.8278	87.8906	86.9897	87.8906	91.6724	87.8906	87.0472	87.8906	91.3722	87.8906	87.1588	87.8906	90.9635	87.8906	87.3148	87.8906	90.5118	87.8906	87.505	87.8906	90.0854	87.8906	87.7197	87.8906	89.7216	87.8906	87.9501	87.8906	89.4189	87.8906	88.1887	87.8906	89.1557	87.8906	88.43	87.8906	88.9106	87.8906	88.6705
90.8203	89.6885	90.8203	89.2263	90.8203	90.1563	90.8203	88.7854	90.8203	90.6129	90.8203	88.3804	90.8203	91.0406	90.8203	88.0244	90.8203	91.4203	90.8203	87.7281	90.8203	91.731	90.8203	87.4993	90.8203	91.9492	90.8203	87.3422	90.8203	92.0499	90.8203	87.2572	90.8203	92.0088	90.8203	87.2409	90.8203	91.8103	90.8203	87.2868	90.8203	91.4605	90.8203	87.3862	90.8203	91.0001	90.8203	87.5288	90.8203	90.5029	90.8203	87.7037	90.8203	90.0462	90.8203	87.9005	90.8203	89.6735	90.8203	88.1093	90.8203	89.3832	90.8203	88.3219	90.8203	89.1482	90.8203	88.5321	90.8203	88.9394	90.8203	88.7373
95.2148	89.6402	95.2148	89.1597	95.2148	90.1225	95.2148	88.6978	95.2148	90.5889	95.2148	88.2708	95.2148	91.0211	95.2148	87.8934	95.2148	91.3998	95.2148	87.5781	95.2148	91.7044	95.2148	87.334	95.2148	91.9122	95.2148	87.1666	95.2148	91.9992	95.2148	87.0765	95.2148	91.9424	95.2148	87.0604	95.2148	91.7274	95.2148	87.111	95.2148	91.3618	95.2148	87.2186	95.2148	90.889	95.2148	87.3716	95.2148	90.3856	95.2148	87.558	95.2148	89.9287	95.2148	87.7658	95.2148	89.5586	95.2148	87.9842	95.2148	89.2709	95.2148	88.2042	95.2148	89.0376	95.2148	88.4194	95.2148	88.8296	95.2148	88.627
98.1445	89.6074	98.1445	89.1135	98.1445	90.0974	98.1445	88.6337	98.1445	90.5655	98.1445	88.1853	98.1445	90.993	98.1445	87.7843	98.1445	91.3605	98.1445	87.4448	98.1445	91.6476	98.1445	87.1776	98.1445	91.832	98.1445	86.9895	98.1445	91.8906	98.1445	86.8823	98.1445	91.802	98.1445	86.8532	98.1445	91.5538	98.1445	86.895	98.1445	91.1566	98.1445	86.9975	98.1445	90.6583	98.1445	87.1483	98.1445	90.1398	98.1445	87.3345	98.1445	89.6791	98.1445	87.5432	98.1445	89.3128	98.1445	87.7628	98.1445	89.0318	98.1445	87.9833	98.1445	88.8051	98.1445	88.1979	98.1445	88.6024	98.1445	88.4035
101.074	89.6269	101.074	89.1219	101.074	90.1222	101.074	88.6255	101.074	90.5893	101.074	88.1555	101.074	91.0095	101.074	87.7288	101.074	91.3632	101.074	87.3604	101.074	91.6298	101.074	87.0624	101.074	91.7873	101.074	86.843	101.074	91.8128	101.074	86.7053	101.074	91.6855	101.074	86.6477	101.074	91.3942	101.074	86.6639	101.074	90.9521	101.074	86.7439	101.074	90.4113	101.074	86.8756	101.074	89.8576	101.074	87.0457	101.074	89.3717	101.074	87.241	101.074	88.9893	101.074	87.4493	101.074	88.6991	101.074	87.6608	101.074	88.468	101.074	87.8681	101.074	88.2649	101.074	88.0685
105.469	89.5791	105.469	89.0719	105.469	90.0738	105.469	88.5711	105.469	90.5369	105.469	88.0954	105.469	90.9493	105.469	87.6624	105.469	91.2914	105.469	87.2878	105.469	91.543	105.469	86.9842	105.469	91.6831	105.469	86.7601	105.469	91.6902	105.469	86.6188	105.469	91.5454	105.469	86.5586	105.469	91.2396	105.469	86.5732	105.469	90.7889	105.469	86.6525	105.469	90.2492	105.469	86.7842	105.469	89.7079	105.469	86.955	105.469	89.2425	105.469	87.1516	105.469	88.8816	105.469	87.362	105.469	88.6075	105.469	87.5758	105.469	88.3853	105.469	87.7858	105.469	88.1852	105.469	87.9884
108.398	89.731	108.398	89.223	108.398	90.2287	108.398	88.7242	108.398	90.6964	108.398	88.2541	108.398	91.1148	108.398	87.8306	108.398	91.4643	108.398	87.4697	108.398	91.725	108.398	87.1836	108.398	91.8752	108.398	86.9795	108.398	91.8915	108.398	86.8597	108.398	91.7503	108.398	86.8208	108.398	91.4365	108.398	86.8551	108.398	90.9637	108.398	86.9512	108.398	90.3942	108.398	87.0957	108.398	89.8307	108.398	87.2745	108.398	89.3626	108.398	87.4735	108.398	89.0186	108.398	87.6798	108.398	88.7736	108.398	87.8827	108.398	88.5855	108.398	88.0748	108.398	88.4193	108.398	88.2527
112.793	89.4035	112.793	88.859	112.793	89.9336	112.793	88.3216	112.793	90.4288	112.793	87.8136	112.793	90.8697	112.793	87.3562	112.793	91.2379	112.793	86.9688	112.793	91.5154	112.793	86.6666	112.793	91.6837	112.793	86.4587	112.793	91.7221	112.793	86.3479	112.793	91.609	112.793	86.3301	112.793	91.3284	112.793	86.3955	112.793	90.8891	112.793	86.5303	112.793	90.3458	112.793	86.7183	112.793	89.7941	112.793	86.9424	112.793	89.3209	112.793	87.1861	112.793	88.9596	112.793	87.4345	112.793	88.6929	112.793	87.6754	112.793	88.4834	112.793	87.9002	112.793	88.2957	112.793	88.1057
117.188	89.1892	117.188	88.6152	117.188	89.7305	117.188	88.0309	117.188	90.2185	117.188	87.4606	117.188	90.6346	117.188	86.9291	117.188	90.9625	117.188	86.4606	117.188	91.188	117.188	86.0761	117.188	91.2988	117.188	85.7914	117.188	91.2845	117.188	85.6147	117.188	91.1365	117.188	85.5465	117.188	90.8524	117.188	85.5793	117.188	90.4481	117.188	85.6999	117.188	89.9714	117.188	85.8911	117.188	89.4912	117.188	86.1341	117.188	89.0603	117.188	86.4103	117.188	88.6926	117.188	86.7029	117.188	88.377	117.188	86.9978	117.188	88.095	117.188	87.2854	117.188	87.8282	117.188	87.5614
120.117	89.745	120.117	89.185	120.117	90.2636	120.117	88.6063	120.117	90.7192	120.117	88.0334	120.117	91.0916	120.117	87.4907	120.117	91.3623	120.117	87.0021	120.117	91.5143	120.117	86.5888	120.117	91.5327	120.117	86.2669	120.117	91.4055	120.117	86.0461	120.117	91.1276	120.117	85.9282	120.117	90.7086	120.117	85.9081	120.117	90.188	120.117	85.9746	120.117	89.6439	120.117	86.1128	120.117	89.1641	120.117	86.3058	120.117	88.7898	120.117	86.5365	120.117	88.5013	120.117	86.789	120.117	88.2573	120.117	87.0499	120.117	88.0279	120.117	87.3085	120.117	87.7974	120.117	87.5584
124.512	89.9528	124.512	89.3664	124.512	90.4967	124.512	88.7615	124.512	90.9764	124.512	88.1635	124.512	91.3716	124.512	87.599	124.512	91.6641	124.512	87.094	124.512	91.8373	124.512	86.6724	124.512	91.8763	124.512	86.3527	124.512	91.7682	124.512	86.146	124.512	91.5046	124.512	86.0545	124.512	91.0901	124.512	86.0716	124.512	90.5607	124.512	86.1836	124.512	89.9963	124.512	86.3722	124.512	89.495	124.512	86.6164	124.512	89.1131	124.512	86.8954	124.512	88.8389	124.512	87.1895	124.512	88.6269	124.512	87.4815	124.512	88.4343	124.512	87.7578	124.512	88.2334	124.512	88.0094
128.906	89.97	128.906	89.3747	128.906	90.5158	128.906	88.753	128.906	90.9909	128.906	88.1293	128.906	91.3755	128.906	87.5291	128.906	91.6511	128.906	86.9782	128.906	91.8007	128.906	86.5008	128.906	91.808	128.906	86.1172	128.906	91.6576	128.906	85.8418	128.906	91.3372	128.906	85.6807	128.906	90.8479	128.906	85.6312	128.906	90.227	128.906	85.6828	128.906	89.5636	128.906	85.8185	128.906	88.9694	128.906	86.018	128.906	88.509	128.906	86.2597	128.906	88.1746	128.906	86.5229	128.906	87.922	128.906	86.7895	128.906	87.7079	128.906	87.0456	128.906	87.5012	128.906	87.2831
133.301	89.8846	133.301	89.3014	133.301	90.4192	133.301	88.6934	133.301	90.8827	133.301	88.0857	133.301	91.2541	133.301	87.5037	133.301	91.514	133.301	86.9715	133.301	91.6445	133.301	86.5111	133.301	91.628	133.301	86.1395	133.301	91.4462	133.301	85.8674	133.301	91.0819	133.301	85.6978	133.301	90.5293	133.301	85.626	133.301	89.8209	133.301	85.6405	133.301	89.0506	133.301	85.7248	133.301	88.3468	133.301	85.8591	133.301	87.7953	133.301	86.0233	133.301	87.4042	133.301	86.1984	133.301	87.137	133.301	86.3694	133.301	86.9496	133.301	86.5267	133.301	86.8032	133.301	86.6686
139.16	89.8362	139.16	89.2316	139.16	90.3842	139.16	88.5976	139.16	90.851	139.16	87.9637	139.16	91.215	139.16	87.3597	139.16	91.4582	139.16	86.8143	139.16	91.5659	139.16	86.3524	139.16	91.5266	139.16	85.9923	139.16	91.3299	139.16	85.7435	139.16	90.9663	139.16	85.606	139.16	90.4333	139.16	85.571	139.16	89.7573	139.16	85.6223	139.16	89.0159	139.16	85.7392	139.16	88.3197	139.16	85.8985	139.16	87.7522	139.16	86.0772	139.16	87.3385	139.16	86.2547	139.16	87.0613	139.16	86.4152	139.16	86.884	139.16	86.5502	139.16	86.7636	139.16	86.6616
143.555	89.8914	143.555	89.2689	143.555	90.4426	143.555	88.6056	143.555	90.896	143.555	87.9351	143.555	91.229	143.555	87.2929	143.555	91.4242	143.555	86.7138	143.555	91.4699	143.555	86.2287	143.555	91.3609	143.555	85.8603	143.555	91.0993	143.555	85.62	143.555	90.6939	143.555	85.507	143.555	90.1639	143.555	85.509	143.555	89.5495	143.555	85.6053	143.555	88.9175	143.555	85.7701	143.555	88.3392	143.555	85.976	143.555	87.8589	143.555	86.1963	143.555	87.4925	143.555	86.4079	143.555	87.2375	143.555	86.593	143.555	87.072	143.555	86.7426	143.555	86.959	143.555	86.8592
147.949	90.5708	147.949	89.9381	147.949	91.1157	147.949	89.2492	147.949	91.5442	147.949	88.5387	147.949	91.8304	147.949	87.8434	147.949	91.9512	147.949	87.2008	147.949	91.8876	147.949	86.6458	147.949	91.6259	147.949	86.2066	147.949	91.162	147.949	85.9005	147.949	90.5121	147.949	85.7316	147.949	89.7341	147.949	85.6909	147.949	88.9504	147.949	85.7594	147.949	88.3153	147.949	85.9111	147.949	87.9048	147.949	86.1178	147.949	87.6686	147.949	86.3512	147.949	87.5217	147.949	86.586	147.949	87.4154	147.949	86.8015	147.949	87.3269	147.949	86.9837	147.949	87.2373	147.949	87.1275
153.809	91.0486	153.809	90.3897	153.809	91.6274	153.809	89.682	153.809	92.0981	153.809	88.9594	153.809	92.4352	153.809	88.2587	153.809	92.6151	153.809	87.6168	153.809	92.6161	153.809	87.068	153.809	92.4165	153.809	86.6392	153.809	91.9943	153.809	86.3457	153.809	91.3297	153.809	86.1884	153.809	90.4265	153.809	86.1545	153.809	89.362	153.809	86.2198	153.809	88.3236	153.809	86.3538	153.809	87.5265	153.809	86.5228	153.809	87.049	153.809	86.6943	153.809	86.8268	153.809	86.8397	153.809	86.7696	153.809	86.9369	153.809	86.8075	153.809	86.9734	153.809	86.8835	153.809	86.9501
159.668	90.7175	159.668	90.0454	159.668	91.3134	159.668	89.3298	159.668	91.8056	159.668	88.6085	159.668	92.171	159.668	87.9234	159.668	92.3906	159.668	87.3175	159.668	92.4481	159.668	86.8294	159.668	92.3273	159.668	86.487	159.668	92.0086	159.668	86.3018	159.668	91.4666	159.668	86.2667	159.668	90.685	159.668	86.3585	159.668	89.7	159.668	86.5424	159.668	88.6481	159.668	86.7784	159.668	87.7318	159.668	87.0253	159.668	87.0972	159.668	87.2439	159.668	86.7777	159.668	87.4	159.668	86.7298	159.668	87.4672	159.668	86.867	159.668	87.4306	159.668	87.0854	159.668	87.2937
165.527	90.6616	165.527	89.9775	165.527	91.2241	165.527	89.2043	165.527	91.6395	165.527	88.3823	165.527	91.889	165.527	87.5599	165.527	91.9614	165.527	86.7926	165.527	91.8545	165.527	86.1396	165.527	91.5759	165.527	85.6542	165.527	91.1402	165.527	85.3725	165.527	90.5646	165.527	85.3029	165.527	89.8699	165.527	85.4236	165.527	89.0972	165.527	85.6897	165.527	88.3203	165.527	86.0444	165.527	87.6255	165.527	86.4285	165.527	87.091	165.527	86.7872	165.527	86.7837	165.527	87.0737	165.527	86.7225	165.527	87.252	165.527	86.8469	165.527	87.3014	165.527	87.0483	165.527	87.223
171.387	90.869	171.387	90.2058	171.387	91.421	171.387	89.463	171.387	91.8346	171.387	88.6778	171.387	92.0867	171.387	87.8936	171.387	92.1583	171.387	87.1597	171.387	92.0342	171.387	86.5293	171.387	91.7029	171.387	86.0539	171.387	91.1549	171.387	85.774	171.387	90.386	171.387	85.7091	171.387	89.4246	171.387	85.8512	171.387	88.3963	171.387	86.1666	171.387	87.5609	171.387	86.604	171.387	87.1652	171.387	87.1044	171.387	87.2217	171.387	87.609	171.387	87.5555	171.387	88.0645	171.387	87.9796	171.387	88.4247	171.387	88.3616	171.387	88.6525	171.387	88.6219	171.387	88.722
177.246	90.7477	177.246	90.0904	177.246	91.2923	177.246	89.3523	177.246	91.6991	177.246	88.5711	177.246	91.9492	177.246	87.7909	177.246	92.031	177.246	87.061	177.246	91.9405	177.246	86.4324	177.246	91.6807	177.246	85.9527	177.246	91.2584	177.246	85.6585	177.246	90.6808	177.246	85.5679	177.246	89.9671	177.246	85.6758	177.246	89.185	177.246	85.9553	177.246	88.4742	177.246	86.362	177.246	87.9831	177.246	86.8418	177.246	87.7715	177.246	87.3373	177.246	87.8056	177.246	87.7933	177.246	87.9983	177.246	88.1607	177.246	88.2388	177.246	88.4006	177.246	88.4253	177.246	88.4893
183.105	90.6614	183.105	90.0136	183.105	91.1774	183.105	89.2668	183.105	91.5355	183.105	88.4611	183.105	91.7167	183.105	87.6439	183.105	91.7108	183.105	86.8694	183.105	91.5181	183.105	86.1956	183.105	91.1505	183.105	85.6785	183.105	90.6314	183.105	85.3622	183.105	89.9948	183.105	85.269	183.105	89.2973	183.105	85.3935	183.105	88.6395	183.105	85.7045	183.105	88.1473	183.105	86.1516	183.105	87.8842	183.105	86.6755	183.105	87.8233	183.105	87.2147	183.105	87.9145	183.105	87.7118	183.105	88.1051	183.105	88.1165	183.105	88.3202	183.105	88.39	183.105	88.4763	183.105	88.5098
188.965	91.228	188.965	90.5634	188.965	91.7574	188.965	89.7981	188.965	92.1229	188.965	88.9724	188.965	92.3009	188.965	88.1332	188.965	92.2739	188.965	87.3341	188.965	92.0316	188.965	86.6325	188.965	91.5734	188.965	86.0842	188.965	90.9105	188.965	85.7341	188.965	90.076	188.965	85.606	188.965	89.1583	188.965	85.6961	188.965	88.3494	188.965	85.9748	188.965	87.883	188.965	86.3939	188.965	87.8096	188.965	86.8965	188.965	87.9702	188.965	87.4243	188.965	88.2145	188.965	87.9225	188.965	88.4709	188.965	88.3425	188.965	88.6879	188.965	88.6449	188.965	88.8125	188.965	88.8039
196.289	90.6746	196.289	90.0232	196.289	91.1961	196.289	89.2739	196.289	91.5625	196.289	88.4663	196.289	91.7556	196.289	87.6471	196.289	91.7638	196.289	86.8693	196.289	91.5813	196.289	86.1893	196.289	91.2066	196.289	85.6617	196.289	90.6398	196.289	85.3309	196.289	89.8828	196.289	85.2222	196.289	88.9643	196.289	85.3344	196.289	88.0008	196.289	85.6383	196.289	87.2145	196.289	86.0816	196.289	86.7783	196.289	86.5983	196.289	86.6827	196.289	87.1182	196.289	86.8384	196.289	87.5747	196.289	87.1584	196.289	87.9102	196.289	87.5393	196.289	88.0815	196.289	87.8704	196.289	88.0661
203.613	90.7937	203.613	90.1278	203.613	91.2961	203.613	89.3367	203.613	91.6074	203.613	88.469	203.613	91.7105	203.613	87.5838	203.613	91.6012	203.613	86.7485	203.613	91.2888	203.613	86.0334	203.613	90.7968	203.613	85.5016	203.613	90.1596	203.613	85.1963	203.613	89.421	203.613	85.132	203.613	88.6488	203.613	85.293	203.613	87.9609	203.613	85.64	203.613	87.4832	203.613	86.1192	203.613	87.2321	203.613	86.6684	203.613	87.1501	203.613	87.2215	203.613	87.2286	203.613	87.713	203.613	87.4695	203.613	88.0827	203.613	87.803	203.613	88.2832	203.613	88.1107	203.613	88.2894
210.938	90.955	210.938	90.2422	210.938	91.495	210.938	89.3926	210.938	91.8334	210.938	88.4514	210.938	91.9478	210.938	87.475	210.938	91.822	210.938	86.5327	210.938	91.4455	210.938	85.7058	210.938	90.8134	210.938	85.079	210.938	89.9238	210.938	84.7233	210.938	88.7786	210.938	84.6714	210.938	87.4177	210.938	84.9029	210.938	86.0198	210.938	85.3504	210.938	84.938	210.938	85.9223	210.938	84.4066	210.938	86.5233	210.938	84.3489	210.938	87.0664	210.938	84.6562	210.938	87.4761	210.938	85.2665	210.938	87.6887	210.938	86.0409	210.938	87.6553	210.938	86.7863	210.938	87.3499
218.262	90.677	218.262	89.994	218.262	91.1753	218.262	89.1634	218.262	91.4611	218.262	88.2324	218.262	91.516	218.262	87.2595	218.262	91.3316	218.262	86.3149	218.262	90.9112	218.262	85.478	218.262	90.2725	218.262	84.8294	218.262	89.4498	218.262	84.4372	218.262	88.5022	218.262	84.3404	218.262	87.5408	218.262	84.5378	218.262	86.7529	218.262	84.9891	218.262	86.3033	218.262	85.6252	218.262	86.1761	218.262	86.3607	218.262	86.2859	218.262	87.1042	218.262	86.626	218.262	87.7663	218.262	87.1663	218.262	88.2664	218.262	87.7706	218.262	88.5388	218.262	88.2689	218.262	88.5415
225.586	90.3568	225.586	89.621	225.586	90.9011	225.586	88.7262	225.586	91.2302	225.586	87.7159	225.586	91.3279	225.586	86.6473	225.586	91.1839	225.586	85.5949	225.586	90.7925	225.586	84.6517	225.586	90.1516	225.586	83.925	225.586	89.2645	225.586	83.5164	225.586	88.1501	225.586	83.488	225.586	86.8992	225.586	83.8323	225.586	85.8022	225.586	84.4743	225.586	85.2918	225.586	85.3031	225.586	85.4425	225.586	86.2046	225.586	85.9474	225.586	87.0767	225.586	86.602	225.586	87.8325	225.586	87.3208	225.586	88.3996	225.586	87.9959	225.586	88.7205	225.586	88.5044	225.586	88.7579
232.91	90.8525	232.91	90.1357	232.91	91.3644	232.91	89.2477	232.91	91.6479	232.91	88.2336	232.91	91.6877	232.91	87.152	232.91	91.4748	232.91	86.077	232.91	91.0043	232.91	85.0972	232.91	90.2739	232.91	84.3087	232.91	89.2872	232.91	83.799	232.91	88.0712	232.91	83.6229	232.91	86.7389	232.91	83.7839	232.91	85.5804	232.91	84.235	232.91	84.9124	232.91	84.8947	232.91	84.7004	232.91	85.665	232.91	84.7738	232.91	86.443	232.91	85.1565	232.91	87.1272	232.91	85.8447	232.91	87.6233	232.91	86.651	232.91	87.8526	232.91	87.3417	232.91	87.762
241.699	90.0361	241.699	89.2995	241.699	90.5679	241.699	88.3757	241.699	90.8936	241.699	87.2976	241.699	91.0243	241.699	86.1131	241.699	90.9743	241.699	84.8851	241.699	90.7454	241.699	83.6945	241.699	90.3163	241.699	82.6486	241.699	89.6447	241.699	81.8877	241.699	88.6764	241.699	81.5692	241.699	87.3586	241.699	81.7932	241.699	85.7054	241.699	82.513	241.699	83.9563	241.699	83.5415	241.699	82.6186	241.699	84.6533	241.699	82.1153	241.699	85.6607	241.699	82.4615	241.699	86.4284	241.699	83.3925	241.699	86.8611	241.699	84.5717	241.699	86.8933	241.699	85.6815	241.699	86.4927
250.488	91.2501	250.488	90.6179	250.488	91.6186	250.488	89.7539	250.488	91.709	250.488	88.7046	250.488	91.5283	250.488	87.5302	250.488	91.1068	250.488	86.3054	250.488	90.4904	250.488	85.1189	250.488	89.7205	250.488	84.0715	250.488	88.8171	250.488	83.2676	250.488	87.7857	250.488	82.7987	250.488	86.6612	250.488	82.7188	250.488	85.5761	250.488	83.0227	250.488	84.701	250.488	83.6391	250.488	84.013	250.488	84.4436	250.488	83.4569	250.488	85.284	250.488	83.2699	250.488	86.0065	250.488	83.7021	250.488	86.4759	250.488	84.6045	250.488	86.5874	250.488	85.5721	250.488	86.2812
259.277	91.4735	259.277	90.8095	259.277	91.8465	259.277	89.8964	259.277	91.8981	259.277	88.785	259.277	91.6142	259.277	87.5364	259.277	91.0051	259.277	86.2234	259.277	90.1155	259.277	84.9324	259.277	89.0269	259.277	83.767	259.277	87.844	259.277	82.852	259.277	86.6688	259.277	82.3268	259.277	85.5838	259.277	82.3075	259.277	84.6566	259.277	82.8146	259.277	83.8987	259.277	83.7316	259.277	83.2494	259.277	84.8508	259.277	82.8217	259.277	85.9552	259.277	82.9884	259.277	86.8651	259.277	83.8996	259.277	87.4443	259.277	85.204	259.277	87.5942	259.277	86.4212	259.277	87.254
268.066	91.7431	268.066	90.9874	268.066	92.2361	268.066	90.0057	268.066	92.4415	268.066	88.8458	268.066	92.3467	268.066	87.5676	268.066	91.9502	268.066	86.2426	268.066	91.2586	268.066	84.9538	268.066	90.2832	268.066	83.7973	268.066	89.0419	268.066	82.887	268.066	87.5695	268.066	82.3575	268.066	85.9572	268.066	82.3395	268.066	84.5022	268.066	82.8877	268.066	83.7396	268.066	83.9152	268.066	83.8178	268.066	85.2203	268.066	84.4231	268.066	86.5741	268.066	85.4017	268.066	87.7813	268.066	86.634	268.066	88.6932	268.066	87.849	268.066	89.2021	268.066	88.7698	268.066	89.2363
276.855	91.3357	276.855	90.5029	276.855	91.9136	276.855	89.4618	276.855	92.204	276.855	88.2708	276.855	92.1919	276.855	86.9963	276.855	91.8822	276.855	85.7059	276.855	91.3001	276.855	84.4591	276.855	90.4879	276.855	83.3008	276.855	89.5019	276.855	82.2709	276.855	88.4051	276.855	81.4488	276.855	87.2449	276.855	81.0203	276.855	86.0565	276.855	81.2574	276.855	84.9187	276.855	82.2583	276.855	83.9889	276.855	83.7493	276.855	83.5346	276.855	85.3142	276.855	83.8139	276.855	86.6461	276.855	84.7721	276.855	87.5685	276.855	86.0287	276.855	87.9823	276.855	87.1469	276.855	87.838
287.109	91.0092	287.109	90.3468	287.109	91.3848	287.109	89.4395	287.109	91.459	287.109	88.3513	287.109	91.2487	287.109	87.1631	287.109	90.7978	287.109	85.9634	287.109	90.1545	287.109	84.8322	287.109	89.3396	287.109	83.8217	287.109	88.3462	287.109	82.9485	287.109	87.1853	287.109	82.2175	287.109	85.9279	287.109	81.6936	287.109	84.7013	287.109	81.5928	287.109	83.5748	287.109	82.2103	287.109	82.5062	287.109	83.5474	287.109	81.7654	287.109	85.1905	287.109	82.0546	287.109	86.6837	287.109	83.5286	287.109	87.7407	287.109	85.4402	287.109	88.2047	287.109	87.0382	287.109	87.9836
297.363	91.6011	297.363	90.5984	297.363	92.2412	297.363	89.2952	297.363	92.4698	297.363	87.7729	297.363	92.2499	297.363	86.1417	297.363	91.5615	297.363	84.546	297.363	90.4131	297.363	83.1527	297.363	88.861	297.363	82.1076	297.363	87.036	297.363	81.4734	297.363	85.1767	297.363	81.2041	297.363	83.6218	297.363	81.1957	297.363	82.6262	297.363	81.3912	297.363	82.0812	297.363	81.8619	297.363	81.745	297.363	82.7519	297.363	81.7756	297.363	84.0457	297.363	82.5285	297.363	85.4608	297.363	83.9308	297.363	86.6405	297.363	85.4945	297.363	87.3251	297.363	86.7331	297.363	87.3706
307.617	90.4207	307.617	89.3163	307.617	91.207	307.617	87.924	307.617	91.6598	307.617	86.2977	307.617	91.7678	307.617	84.5237	307.617	91.5112	307.617	82.7299	307.617	90.8518	307.617	81.0856	307.617	89.7423	307.617	79.7849	307.617	88.1742	307.617	79.0074	307.617	86.265	307.617	78.8626	307.617	84.3316	307.617	79.3523	307.617	82.8059	307.617	80.3942	307.617	81.8869	307.617	81.8719	307.617	81.4673	307.617	83.6297	307.617	81.6975	307.617	85.4529	307.617	82.9548	307.617	87.1026	307.617	84.9892	307.617	88.3685	307.617	87.0033	307.617	89.0882	307.617	88.4477	307.617	89.1412
319.336	89.8756	319.336	88.8518	319.336	90.5501	319.336	87.5357	319.336	90.8465	319.336	86.0169	319.336	90.7583	319.336	84.4198	319.336	90.2895	319.336	82.895	319.336	89.4352	319.336	81.5864	319.336	88.1731	319.336	80.5817	319.336	86.5216	319.336	79.8759	319.336	84.7023	319.336	79.3919	319.336	83.292	319.336	79.0589	319.336	82.8826	319.336	78.9233	319.336	83.2736	319.336	79.2195	319.336	83.7263	319.336	80.1964	319.336	83.8692	319.336	81.7293	319.336	83.8473	319.336	83.3627	319.336	84.0508	319.336	84.6934	319.336	84.6503	319.336	85.4998	319.336	85.3403	319.336	85.7001
329.59	89.8914	329.59	88.8157	329.59	90.5066	329.59	87.321	329.59	90.6761	329.59	85.5141	329.59	90.472	329.59	83.5935	329.59	89.9979	329.59	81.8521	329.59	89.2952	329.59	80.5764	329.59	88.2493	329.59	79.8634	329.59	86.6519	329.59	79.5751	329.59	84.4105	329.59	79.4737	329.59	81.8344	329.59	79.3663	329.59	80.197	329.59	79.2304	329.59	80.9828	329.59	79.3516	329.59	82.7362	329.59	80.2046	329.59	83.8751	329.59	81.7915	329.59	84.3624	329.59	83.5334	329.59	84.7709	329.59	84.9356	329.59	85.3604	329.59	85.796	329.59	85.8927	329.59	86.0907
341.309	91.7266	341.309	90.221	341.309	92.6052	341.309	88.0845	341.309	92.8471	341.309	85.298	341.309	92.4401	341.309	81.8425	341.309	91.3905	341.309	77.7457	341.309	89.7498	341.309	73.1999	341.309	87.6198	341.309	69.2271	341.309	85.1193	341.309	69.4642	341.309	82.4147	341.309	73.0105	341.309	79.8894	341.309	76.2065	341.309	77.8505	341.309	78.5425	341.309	75.7643	341.309	80.3483	341.309	74.5686	341.309	82.1539	341.309	78.7619	341.309	84.3087	341.309	83.7328	341.309	86.6203	341.309	87.2509	341.309	88.647	341.309	89.4642	341.309	90.079	341.309	90.5862	341.309	90.7579
353.027	91.2507	353.027	89.8483	353.027	92.1087	353.027	87.9481	353.027	92.378	353.027	85.619	353.027	92.0122	353.027	82.9914	353.027	90.9704	353.027	80.3018	353.027	89.2378	353.027	77.8593	353.027	86.8699	353.027	75.9131	353.027	84.0845	353.027	74.7395	353.027	81.4266	353.027	74.7886	353.027	79.6954	353.027	75.9517	353.027	78.8233	353.027	77.4572	353.027	77.1953	353.027	78.8822	353.027	74.5005	353.027	80.3478	353.027	78.2063	353.027	82.0965	353.027	82.7861	353.027	84.0214	353.027	85.3662	353.027	85.7352	353.027	86.7428	353.027	86.9293	353.027	87.4073	353.027	87.4826
366.211	90.6296	366.211	89.0632	366.211	91.7213	366.211	87.0165	366.211	92.3285	366.211	84.5022	366.211	92.4056	366.211	81.6131	366.211	91.8624	366.211	78.5901	366.211	90.5662	366.211	75.6819	366.211	88.3695	366.211	72.5716	366.211	85.2112	366.211	67.8902	366.211	81.4159	366.211	63.1718	366.211	78.0417	366.211	70.406	366.211	75.6966	366.211	75.6131	366.211	72.5497	366.211	78.9814	366.211	64.5178	366.211	81.4961	366.211	67.1636	366.211	83.6054	366.211	74.0623	366.211	85.3997	366.211	78.8938	366.211	86.7284	366.211	82.9102	366.211	87.3599	366.211	85.6455	366.211	87.0692
379.395	90.7469	379.395	89.4767	379.395	91.484	379.395	87.7221	379.395	91.6822	379.395	85.6094	379.395	91.3626	379.395	83.4004	379.395	90.5425	379.395	81.474	379.395	89.1753	379.395	80.0484	379.395	87.0991	379.395	78.9168	379.395	84.1199	379.395	77.6773	379.395	80.426	379.395	76.0665	379.395	77.424	379.395	74.2003	379.395	76.8251	379.395	73.2347	379.395	76.9721	379.395	74.8349	379.395	74.8177	379.395	77.8522	379.395	66.0109	379.395	80.6451	379.395	66.0485	379.395	82.6808	379.395	74.1639	379.395	83.778	379.395	77.5982	379.395	83.8082	379.395	80.4435	379.395	82.6735
392.578	90.8422	392.578	88.9998	392.578	92.0685	392.578	86.5797	392.578	92.6266	392.578	83.6585	392.578	92.4345	392.578	80.498	392.578	91.3701	392.578	77.7448	392.578	89.2562	392.578	75.9928	392.578	85.8421	392.578	74.8453	392.578	80.9104	392.578	73.6685	392.578	75.3781	392.578	72.7953	392.578	72.6311	392.578	73.3596	392.578	72.4112	392.578	75.2385	392.578	72.2732	392.578	77.5676	392.578	70.5432	392.578	80.174	392.578	70.3658	392.578	82.8674	392.578	69.7166	392.578	85.1639	392.578	65.7112	392.578	86.6345	392.578	76.8858	392.578	86.9837	392.578	82.943	392.578	85.9166
405.762	89.603	405.762	89.0526	405.762	89.9669	405.762	88.3238	405.762	90.1504	405.762	87.4396	405.762	90.1708	405.762	86.4374	405.762	90.0506	405.762	85.3668	405.762	89.8087	405.762	84.285	405.762	89.4477	405.762	83.2556	405.762	88.945	405.762	82.3506	405.762	88.2518	405.762	81.6548	405.762	87.3015	405.762	81.254	405.762	86.0236	405.762	81.2	405.762	84.3709	405.762	81.4715	405.762	82.4061	405.762	81.9707	405.762	80.555	405.762	82.5598	405.762	79.7877	405.762	83.1005	405.762	80.473	405.762	83.4748	405.762	81.6977	405.762	83.5865	405.762	82.728	405.762	83.357
420.41	88.8933	420.41	88.3974	420.41	89.2158	420.41	87.7412	420.41	89.3636	420.41	86.9489	420.41	89.3453	420.41	86.0536	420.41	89.1762	420.41	85.0937	420.41	88.8698	420.41	84.1101	420.41	88.4282	420.41	83.1483	420.41	87.8324	420.41	82.266	420.41	87.0393	420.41	81.5396	420.41	85.9899	420.41	81.0572	420.41	84.6278	420.41	80.8875	420.41	82.942	420.41	81.0369	420.41	81.0841	420.41	81.4326	420.41	79.6026	420.41	81.9473	420.41	79.3041	420.41	82.4425	420.41	80.1335	420.41	82.797	420.41	81.2628	420.41	82.9151	420.41	82.1741	420.41	82.724
435.059	89.0282	435.059	88.4619	435.059	89.3781	435.059	87.6986	435.059	89.508	435.059	86.7695	435.059	89.4297	435.059	85.7113	435.059	89.1688	435.059	84.5543	435.059	88.7581	435.059	83.3145	435.059	88.2238	435.059	81.9983	435.059	87.5685	435.059	80.6282	435.059	86.7588	435.059	79.2881	435.059	85.7284	435.059	78.1827	435.059	84.3964	435.059	77.6474	435.059	82.711	435.059	77.9454	435.059	80.7944	435.059	78.9572	435.059	79.3103	435.059	80.2738	435.059	79.3247	435.059	81.5297	435.059	80.5777	435.059	82.5096	435.059	81.929	435.059	83.0987	435.059	82.8454	435.059	83.2276
451.172	88.656	451.172	87.8842	451.172	89.1006	451.172	86.7934	451.172	89.2278	451.172	85.4243	451.172	89.0582	451.172	83.8717	451.172	88.6179	451.172	82.2978	451.172	87.9318	451.172	80.8956	451.172	87.0132	451.172	79.7892	451.172	85.8593	451.172	78.977	451.172	84.4728	451.172	78.4168	451.172	82.9339	451.172	78.1422	451.172	81.5248	451.172	78.2775	451.172	80.7432	451.172	78.9284	451.172	80.8877	451.172	80.0379	451.172	81.7065	451.172	81.3798	451.172	82.7646	451.172	82.695	451.172	83.7599	451.172	83.7931	451.172	84.5149	451.172	84.5625	451.172	84.9273	451.172	84.9471
465.82	90.0451	465.82	89.3408	465.82	90.4337	465.82	88.3267	465.82	90.5082	465.82	87.0183	465.82	90.2772	465.82	85.444	465.82	89.7545	465.82	83.6468	465.82	88.9545	465.82	81.6839	465.82	87.8814	465.82	79.6176	465.82	86.5224	465.82	77.4942	465.82	84.8632	465.82	75.3058	465.82	82.9643	465.82	72.9774	465.82	81.1179	465.82	70.6858	465.82	79.9112	465.82	70.193	465.82	79.743	465.82	72.9299	465.82	80.3732	465.82	76.3652	465.82	81.3616	465.82	79.1684	465.82	82.3708	465.82	81.2212	465.82	83.1418	465.82	82.5885	465.82	83.4958	465.82	83.3307
483.398	89.7054	483.398	88.9666	483.398	90.1458	483.398	87.9399	483.398	90.2846	483.398	86.6459	483.398	90.122	483.398	85.1208	483.398	89.6597	483.398	83.4237	483.398	88.8966	483.398	81.6428	483.398	87.8242	483.398	79.8926	483.398	86.4191	483.398	78.2833	483.398	84.6443	483.398	76.8646	483.398	82.4808	483.398	75.6103	483.398	80.0501	483.398	74.5489	483.398	77.9022	483.398	74.0237	483.398	77.0079	483.398	74.5984	483.398	77.5148	483.398	76.1709	483.398	78.6045	483.398	77.9856	483.398	79.7025	483.398	79.509	483.398	80.5609	483.398	80.5456	483.398	81.0403	483.398	81.0516
499.512	89.1205	499.512	88.3219	499.512	89.5638	499.512	87.1862	499.512	89.6477	499.512	85.7532	499.512	89.3773	499.512	84.0961	499.512	88.7677	499.512	82.3273	499.512	87.8484	499.512	80.588	499.512	86.67	499.512	79.0081	499.512	85.3191	499.512	77.6364	499.512	83.9512	499.512	76.3727	499.512	82.8158	499.512	74.9818	499.512	82.1337	499.512	73.3307	499.512	81.8486	499.512	72.266	499.512	81.7032	499.512	73.8111	499.512	81.6105	499.512	76.9321	499.512	81.7663	499.512	79.7062	499.512	82.3147	499.512	81.71	499.512	83.0277	499.512	82.9668	499.512	83.5241	499.512	83.5463
517.09	89.4645	517.09	88.8162	517.09	89.7732	517.09	87.8474	517.09	89.7317	517.09	86.5939	517.09	89.3349	517.09	85.1198	517.09	88.5828	517.09	83.5293	517.09	87.4833	517.09	81.967	517.09	86.0622	517.09	80.5867	517.09	84.398	517.09	79.4847	517.09	82.7125	517.09	78.6278	517.09	81.438	517.09	77.8382	517.09	80.883	517.09	76.865	517.09	80.7423	517.09	75.5383	517.09	80.5006	517.09	74.1698	517.09	80.0495	517.09	74.1602	517.09	79.7894	517.09	76.1098	517.09	80.1328	517.09	78.4195	517.09	80.8103	517.09	80.1266	517.09	81.2352	517.09	81.054
536.133	90.377	536.133	89.6056	536.133	90.7002	536.133	88.3795	536.133	90.5874	536.133	86.7115	536.133	90.0529	536.133	84.6675	536.133	89.1159	536.133	82.4268	536.133	87.8134	536.133	80.3427	536.133	86.2281	536.133	78.8632	536.133	84.5532	536.133	78.2053	536.133	83.1586	536.133	78.143	536.133	82.4018	536.133	78.2002	536.133	82.1131	536.133	77.919	536.133	81.656	536.133	76.9816	536.133	80.4938	536.133	75.4077	536.133	78.5996	536.133	74.4865	536.133	77.4258	536.133	76.1985	536.133	78.7691	536.133	78.8945	536.133	80.731	536.133	80.891	536.133	81.8352	536.133	81.8809
555.176	89.0655	555.176	88.2294	555.176	89.4922	555.176	86.985	555.176	89.5121	555.176	85.3512	555.176	89.1267	555.176	83.3914	555.176	88.3375	555.176	81.2535	555.176	87.1538	555.176	79.2087	555.176	85.6097	555.176	77.6439	555.176	83.8074	555.176	76.9107	555.176	82.0096	555.176	76.9919	555.176	80.6776	555.176	77.4169	555.176	80.0531	555.176	77.6633	555.176	79.6928	555.176	77.4572	555.176	78.9969	555.176	76.8821	555.176	77.9442	555.176	76.5768	555.176	77.5421	555.176	77.3791	555.176	78.6385	555.176	78.9737	555.176	80.1601	555.176	80.4033	555.176	81.0878	555.176	81.1628
574.219	89.943	574.219	89.1856	574.219	90.2865	574.219	88.0229	574.219	90.2156	574.219	86.4835	574.219	89.7356	574.219	84.6408	574.219	88.8634	574.219	82.6463	574.219	87.6396	574.219	80.7252	574.219	86.1552	574.219	79.0874	574.219	84.5958	574.219	77.8677	574.219	83.2661	574.219	77.191	574.219	82.4112	574.219	77.0476	574.219	81.8524	574.219	77.0597	574.219	81.0529	574.219	76.6994	574.219	79.601	574.219	75.6605	574.219	77.8517	574.219	74.383	574.219	77.7087	574.219	74.8615	574.219	79.4828	574.219	77.3924	574.219	81.085	574.219	79.8073	574.219	81.7108	574.219	81.2806
594.727	90.3026	594.727	89.503	594.727	90.6953	594.727	88.3279	594.727	90.6667	594.727	86.846	594.727	90.2074	594.727	85.1937	594.727	89.307	594.727	83.5893	594.727	87.9554	594.727	82.2736	594.727	86.1695	594.727	81.3876	594.727	84.1089	594.727	80.9383	594.727	82.3214	594.727	80.8438	594.727	81.5073	594.727	80.906	594.727	81.3107	594.727	80.807	594.727	80.672	594.727	80.1877	594.727	79.0575	594.727	78.6601	594.727	77.3425	594.727	75.7126	594.727	78.1718	594.727	71.5165	594.727	80.3629	594.727	73.1878	594.727	81.6943	594.727	77.7597	594.727	81.7698	594.727	80.5332
615.234	90.1391	615.234	89.193	615.234	90.665	615.234	87.8609	615.234	90.7526	615.234	86.2154	615.234	90.384	615.234	84.3865	615.234	89.53	615.234	82.5449	615.234	88.1413	615.234	80.8376	615.234	86.147	615.234	79.4065	615.234	83.5	615.234	78.5852	615.234	80.4787	615.234	78.7526	615.234	78.4668	615.234	79.6268	615.234	78.4695	615.234	80.4905	615.234	78.7701	615.234	80.874	615.234	78.2472	615.234	80.5891	615.234	77.3572	615.234	79.618	615.234	77.6645	615.234	78.2581	615.234	79.146	615.234	77.5429	615.234	80.2896	615.234	78.3536	615.234	80.4776	615.234	79.7043
637.207	88.7557	637.207	88.022	637.207	89.2338	637.207	87.1042	637.207	89.4095	637.207	86.0995	637.207	89.2503	637.207	85.1124	637.207	88.7253	637.207	84.2094	637.207	87.7943	637.207	83.3749	637.207	86.3997	637.207	82.5183	637.207	84.4669	637.207	81.5453	637.207	81.9438	637.207	80.454	637.207	79.0108	637.207	79.4066	637.207	76.6552	637.207	78.6799	637.207	76.0344	637.207	78.4053	637.207	76.1422	637.207	78.4041	637.207	75.7497	637.207	78.4065	637.207	74.8599	637.207	78.2795	637.207	74.4214	637.207	78.026	637.207	75.1162	637.207	77.6632	637.207	76.2387	637.207	77.1125
659.18	89.7325	659.18	88.7995	659.18	90.2572	659.18	87.5123	659.18	90.353	659.18	85.9832	659.18	90.0136	659.18	84.39	659.18	89.2336	659.18	82.9151	659.18	87.9993	659.18	81.6272	659.18	86.2884	659.18	80.4655	659.18	84.1182	659.18	79.4119	659.18	81.7578	659.18	78.6594	659.18	80.051	659.18	78.484	659.18	79.5679	659.18	78.8321	659.18	79.3946	659.18	79.3141	659.18	78.6233	659.18	79.605	659.18	77.3751	659.18	79.6168	659.18	76.9554	659.18	79.4833	659.18	78.0362	659.18	79.472	659.18	79.3217	659.18	79.7242	659.18	79.9931	659.18	80.0291
682.617	90.6438	682.617	89.8595	682.617	91.0841	682.617	88.793	682.617	91.1474	682.617	87.5457	682.617	90.8133	682.617	86.25	682.617	90.0596	682.617	85.0259	682.617	88.8537	682.617	83.9306	682.617	87.1569	682.617	82.9588	682.617	84.9702	682.617	82.0881	682.617	82.4941	682.617	81.2914	682.617	80.4211	682.617	80.5067	682.617	79.4952	682.617	79.6465	682.617	79.1614	682.617	78.7063	682.617	78.3651	682.617	77.9608	682.617	76.7783	682.617	77.9823	682.617	75.5831	682.617	78.9349	682.617	76.8867	682.617	80.1916	682.617	79.1701	682.617	81.1072	682.617	80.7366	682.617	81.3476
707.52	90.7735	707.52	89.914	707.52	91.2969	707.52	88.8122	707.52	91.4367	707.52	87.6119	707.52	91.1711	707.52	86.4617	707.52	90.4819	707.52	85.4387	707.52	89.3382	707.52	84.5299	707.52	87.6963	707.52	83.7056	707.52	85.5586	707.52	82.9689	707.52	83.2067	707.52	82.3118	707.52	81.5232	707.52	81.663	707.52	81.0122	707.52	80.9211	707.52	80.5972	707.52	80.0481	707.52	79.1459	707.52	79.1758	707.52	76.3285	707.52	78.6765	707.52	74.6339	707.52	78.936	707.52	77.2391	707.52	79.8264	707.52	79.8291	707.52	80.7898	707.52	81.1123	707.52	81.3315
732.422	89.9189	732.422	89.2728	732.422	90.2604	732.422	88.3984	732.422	90.2721	732.422	87.4189	732.422	89.9682	732.422	86.4563	732.422	89.3856	732.422	85.5429	732.422	88.5604	732.422	84.5774	732.422	87.4965	732.422	83.3893	732.422	86.1405	732.422	81.8603	732.422	84.3899	732.422	80.0946	732.422	82.1754	732.422	78.6976	732.422	79.6631	732.422	78.5376	732.422	77.3859	732.422	79.3945	732.422	75.4894	732.422	80.3116	732.422	73.1554	732.422	80.7666	732.422	70.7077	732.422	80.6213	732.422	71.7922	732.422	79.9142	732.422	74.5177	732.422	78.8338	732.422	76.3731	732.422	77.6508
757.324	90.0792	757.324	89.2126	757.324	90.5679	757.324	88.1072	757.324	90.6282	757.324	86.9951	757.324	90.2667	757.324	86.1061	757.324	89.5173	757.324	85.5019	757.324	88.4249	757.324	85.044	757.324	87.0544	757.324	84.53	757.324	85.537	757.324	83.8081	757.324	84.0925	757.324	82.8131	757.324	82.8692	757.324	81.5788	757.324	81.7157	757.324	80.2458	757.324	80.3226	757.324	79.0248	757.324	78.5608	757.324	78.0869	757.324	76.7447	757.324	77.5088	757.324	75.971	757.324	77.3994	757.324	76.9702	757.324	77.8754	757.324	78.463	757.324	78.7068	757.324	79.3295	757.324	79.345
785.156	89.5559	785.156	89.2434	785.156	89.6852	785.156	88.7505	785.156	89.6476	785.156	88.0922	785.156	89.4674	785.156	87.2807	785.156	89.1478	785.156	86.3176	785.156	88.6356	785.156	85.2064	785.156	87.794	785.156	83.9822	785.156	86.3896	785.156	82.7346	785.156	84.0824	785.156	81.5898	785.156	80.4708	785.156	80.6516	785.156	76.1159	785.156	79.964	785.156	75.5483	785.156	79.5351	785.156	76.8392	785.156	79.3508	785.156	76.3918	785.156	79.3409	785.156	74.7546	785.156	79.3796	785.156	74.7584	785.156	79.3593	785.156	76.6562	785.156	79.2289	785.156	78.1552	785.156	78.9073
811.523	89.9631	811.523	89.6531	811.523	90.0851	811.523	89.2045	811.523	90.0003	811.523	88.6733	811.523	89.7237	811.523	88.0847	811.523	89.29	811.523	87.4042	811.523	88.726	811.523	86.5415	811.523	88.0078	811.523	85.3862	811.523	87.0101	811.523	83.8595	811.523	85.4659	811.523	81.97	811.523	82.9355	811.523	79.8865	811.523	78.7776	811.523	78.0091	811.523	73.3501	811.523	76.8482	811.523	73.826	811.523	76.595	811.523	75.9394	811.523	77.0226	811.523	76.0566	811.523	77.8125	811.523	75.6685	811.523	78.6404	811.523	76.6099	811.523	79.1592	811.523	78.1442	811.523	79.0588
840.82	90.089	840.82	89.6234	840.82	90.3074	840.82	88.9839	840.82	90.2465	840.82	88.2509	840.82	89.917	840.82	87.4561	840.82	89.3518	840.82	86.5563	840.82	88.5708	840.82	85.4739	840.82	87.5389	840.82	84.1907	840.82	86.1355	840.82	82.8559	840.82	84.159	840.82	81.8058	840.82	81.4483	840.82	81.2774	840.82	78.5585	840.82	81.0583	840.82	77.5957	840.82	80.6822	840.82	78.076	840.82	79.7703	840.82	77.5463	840.82	78.2092	840.82	75.7147	840.82	76.7439	840.82	75.5924	840.82	77.2384	840.82	78.1704	840.82	79.0488	840.82	79.9593	840.82	80.191
870.117	90.4067	870.117	90.1017	870.117	90.3981	870.117	89.5315	870.117	90.0903	870.117	88.7742	870.117	89.5665	870.117	87.8772	870.117	88.9568	870.117	86.7974	870.117	88.3664	870.117	85.3999	870.117	87.7542	870.117	83.5577	870.117	86.8455	870.117	81.4072	870.117	85.1464	870.117	79.7484	870.117	81.9478	870.117	79.4119	870.117	76.1536	870.117	79.6376	870.117	70.3899	870.117	79.2402	870.117	73.7528	870.117	77.6239	870.117	74.5658	870.117	75.2239	870.117	72.368	870.117	75.7006	870.117	69.5871	870.117	78.5702	870.117	73.8593	870.117	80.2379	870.117	78.1086	870.117	80.1279
900.879	89.9361	900.879	89.4772	900.879	90.1237	900.879	88.8297	900.879	89.9955	900.879	88.0789	900.879	89.5568	900.879	87.2795	900.879	88.8562	900.879	86.448	900.879	87.966	900.879	85.5407	900.879	86.9341	900.879	84.418	900.879	85.7052	900.879	82.8781	900.879	84.0477	900.879	80.7827	900.879	81.5378	900.879	78.3264	900.879	77.7682	900.879	76.6178	900.879	74.2777	900.879	76.8119	900.879	74.8398	900.879	77.7545	900.879	75.345	900.879	78.2155	900.879	73.4418	900.879	78.0677	900.879	70.4416	900.879	77.7671	900.879	72.7569	900.879	77.6777	900.879	75.9412	900.879	77.3622
933.105	89.6454	933.105	89.4729	933.105	89.5675	933.105	89.034	933.105	89.2718	933.105	88.3191	933.105	88.8219	933.105	87.3225	933.105	88.3078	933.105	86.0489	933.105	87.7905	933.105	84.5329	933.105	87.2068	933.105	82.874	933.105	86.3239	933.105	81.2618	933.105	84.7658	933.105	79.9394	933.105	82.0136	933.105	79.0675	933.105	77.3821	933.105	78.6096	933.105	72.3241	933.105	78.4137	933.105	73.8656	933.105	78.3525	933.105	74.9477	933.105	78.3149	933.105	73.6082	933.105	78.1669	933.105	72.3716	933.105	77.8382	933.105	74.0556	933.105	77.4002	933.105	75.9123	933.105	76.8738
965.332	89.4422	965.332	89.4561	965.332	89.2726	965.332	89.2448	965.332	88.9821	965.332	88.7129	965.332	88.591	965.332	87.7828	965.332	88.1093	965.332	86.443	965.332	87.5088	965.332	84.7787	965.332	86.7013	965.332	82.9616	965.332	85.5459	965.332	81.165	965.332	83.8438	965.332	79.4331	965.332	81.2688	965.332	77.6669	965.332	77.4007	965.332	75.9788	965.332	73.6337	965.332	75.3735	965.332	74.3149	965.332	76.5154	965.332	74.6793	965.332	77.9642	965.332	71.7436	965.332	78.5532	965.332	66.6068	965.332	77.9855	965.332	70.2889	965.332	76.4601	965.332	73.275	965.332	74.7726
1000.49	89.624	1000.49	89.569	1000.49	89.3685	1000.49	89.1167	1000.49	88.918	1000.49	88.2293	1000.49	88.3868	1000.49	86.9349	1000.49	87.8515	1000.49	85.3464	1000.49	87.3169	1000.49	83.6719	1000.49	86.6837	1000.49	82.1761	1000.49	85.7213	1000.49	81.039	1000.49	84.0526	1000.49	80.1995	1000.49	81.1214	1000.49	79.4103	1000.49	76.2009	1000.49	78.4677	1000.49	71.9297	1000.49	77.3927	1000.49	74.3965	1000.49	76.4792	1000.49	75.255	1000.49	76.0727	1000.49	73.5302	1000.49	76.2128	1000.49	72.5666	1000.49	76.7376	1000.49	75.2199	1000.49	77.4259	1000.49	77.257	1000.49	77.813
1035.64	89.4883	1035.64	89.4436	1035.64	89.2159	1035.64	88.9963	1035.64	88.7467	1035.64	88.1285	1035.64	88.1964	1035.64	86.9013	1035.64	87.6462	1035.64	85.4338	1035.64	87.1164	1035.64	83.8408	1035.64	86.5158	1035.64	82.1646	1035.64	85.6093	1035.64	80.4174	1035.64	84.0591	1035.64	78.8567	1035.64	81.4208	1035.64	78.0931	1035.64	76.9632	1035.64	78.1148	1035.64	71.227	1035.64	78.0094	1035.64	73.137	1035.64	77.1525	1035.64	74.9998	1035.64	75.847	1035.64	73.7351	1035.64	75.674	1035.64	71.0511	1035.64	76.95	1035.64	72.6499	1035.64	77.8913	1035.64	75.8594	1035.64	77.6102
1072.27	89.2298	1072.27	89.4501	1072.27	88.7824	1072.27	89.2455	1072.27	88.3362	1072.27	88.5206	1072.27	88.0436	1072.27	87.3078	1072.27	87.908	1072.27	85.7483	1072.27	87.7707	1072.27	84.0059	1072.27	87.3248	1072.27	82.1262	1072.27	86.1823	1072.27	79.9538	1072.27	84.0148	1072.27	77.3492	1072.27	80.7445	1072.27	75.2714	1072.27	76.7189	1072.27	75.7193	1072.27	72.8959	1072.27	77.0331	1072.27	72.3125	1072.27	77.2258	1072.27	73.6331	1072.27	75.9849	1072.27	72.8914	1072.27	74.475	1072.27	70.3334	1072.27	75.3959	1072.27	72.4405	1072.27	77.2176	1072.27	76.1208	1072.27	77.6567
1108.89	89.3163	1108.89	89.5752	1108.89	88.6238	1108.89	89.2323	1108.89	87.7971	1108.89	88.2633	1108.89	87.1898	1108.89	86.8063	1108.89	86.992	1108.89	85.1597	1108.89	87.0391	1108.89	83.6499	1108.89	86.9038	1108.89	82.3617	1108.89	86.1102	1108.89	81.0519	1108.89	84.231	1108.89	79.4592	1108.89	80.9258	1108.89	77.7325	1108.89	76.0768	1108.89	76.4708	1108.89	70.3719	1108.89	75.7499	1108.89	69.8162	1108.89	74.8888	1108.89	72.5331	1108.89	74.0334	1108.89	72.3041	1108.89	74.5269	1108.89	69.2136	1108.89	75.774	1108.89	68.5552	1108.89	76.074	1108.89	72.1565	1108.89	74.8657
1148.44	89.1393	1148.44	89.3315	1148.44	88.4884	1148.44	88.89	1148.44	87.6924	1148.44	87.7938	1148.44	87.1174	1148.44	86.2025	1148.44	86.9552	1148.44	84.4613	1148.44	87.0438	1148.44	82.9253	1148.44	86.9548	1148.44	81.6289	1148.44	86.1492	1148.44	80.2452	1148.44	84.069	1148.44	78.4848	1148.44	80.4336	1148.44	76.6426	1148.44	76.5168	1148.44	75.6551	1148.44	74.2401	1148.44	75.4962	1148.44	72.9355	1148.44	75.144	1148.44	73.7188	1148.44	74.5554	1148.44	73.2872	1148.44	74.8024	1148.44	69.6955	1148.44	75.7033	1148.44	67.6916	1148.44	75.841	1148.44	71.6665	1148.44	74.55
1189.45	88.6336	1189.45	88.6011	1189.45	88.23	1189.45	88.0229	1189.45	87.6084	1189.45	86.9265	1189.45	87.0331	1189.45	85.4666	1189.45	86.6986	1189.45	83.8417	1189.45	86.5767	1189.45	82.2349	1189.45	86.3447	1189.45	80.8655	1189.45	85.4721	1189.45	79.7821	1189.45	83.3146	1189.45	78.6356	1189.45	79.1402	1189.45	77.151	1189.45	72.7898	1189.45	75.6904	1189.45	68.6145	1189.45	74.9725	1189.45	67.3765	1189.45	74.5741	1189.45	70.252	1189.45	73.3636	1189.45	72.9052	1189.45	71.9622	1189.45	72.8836	1189.45	73.5094	1189.45	72.3038	1189.45	75.7204	1189.45	74.2786	1189.45	76.0328
1230.47	88.3028	1230.47	88.2504	1230.47	87.8712	1230.47	87.6147	1230.47	87.1599	1230.47	86.4584	1230.47	86.4378	1230.47	85.0078	1230.47	85.9888	1230.47	83.5245	1230.47	85.91	1230.47	82.1589	1230.47	85.9255	1230.47	80.9064	1230.47	85.4531	1230.47	79.4753	1230.47	83.7	1230.47	77.3501	1230.47	79.9382	1230.47	74.4264	1230.47	75.4446	1230.47	72.9442	1230.47	73.4938	1230.47	74.4062	1230.47	69.076	1230.47	75.2563	1230.47	67.7199	1230.47	74.2873	1230.47	70.956	1230.47	72.9726	1230.47	69.9785	1230.47	74.1484	1230.47	67.6886	1230.47	75.2525	1230.47	70.5343	1230.47	74.1189
1274.41	88.7662	1274.41	88.933	1274.41	88.2456	1274.41	88.6064	1274.41	87.6067	1274.41	87.7664	1274.41	87.1168	1274.41	86.5113	1274.41	86.9541	1274.41	85.0057	1274.41	87.0674	1274.41	83.3765	1274.41	87.1241	1274.41	81.7057	1274.41	86.5391	1274.41	80.0658	1274.41	84.5231	1274.41	78.3669	1274.41	80.1652	1274.41	76.6972	1274.41	74.0383	1274.41	76.1582	1274.41	72.0844	1274.41	76.8883	1274.41	70.0255	1274.41	77.1108	1274.41	70.9288	1274.41	75.9972	1274.41	71.74	1274.41	74.8587	1274.41	68.8881	1274.41	75.9558	1274.41	67.984	1274.41	76.9344	1274.41	72.615	1274.41	75.9047
1319.82	90.5594	1319.82	90.4701	1319.82	90.2945	1319.82	90.0024	1319.82	89.7528	1319.82	89.2027	1319.82	89.0729	1319.82	88.1583	1319.82	88.4909	1319.82	86.9094	1319.82	88.2331	1319.82	85.4767	1319.82	88.218	1319.82	84.0971	1319.82	87.9113	1319.82	83.0199	1319.82	86.4547	1319.82	81.7418	1319.82	82.896	1319.82	79.2721	1319.82	77.241	1319.82	75.1355	1319.82	73.8959	1319.82	73.8096	1319.82	68.5703	1319.82	76.5163	1319.82	67.38	1319.82	77.312	1319.82	73.4854	1319.82	76.4455	1319.82	73.7549	1319.82	76.6268	1319.82	72.2441	1319.82	77.8108	1319.82	74.4726	1319.82	77.309
1366.7	91.3687	1366.7	91.1695	1366.7	91.032	1366.7	90.4739	1366.7	90.2962	1366.7	89.5342	1366.7	89.449	1366.7	88.674	1366.7	88.8878	1366.7	87.8846	1366.7	88.8357	1366.7	86.7641	1366.7	88.977	1366.7	84.9936	1366.7	88.5808	1366.7	82.6807	1366.7	86.7558	1366.7	80.3305	1366.7	82.611	1366.7	78.4142	1366.7	77.4857	1366.7	77.0898	1366.7	75.9694	1366.7	76.4006	1366.7	72.1619	1366.7	75.9825	1366.7	73.1938	1366.7	75.2144	1366.7	75.5026	1366.7	74.8893	1366.7	73.0442	1366.7	76.2465	1366.7	66.513	1366.7	77.2563	1366.7	71.7611	1366.7	76.1392
1413.57	90.7933	1413.57	90.6934	1413.57	90.5606	1413.57	90.2433	1413.57	90.1048	1413.57	89.6155	1413.57	89.5126	1413.57	88.9702	1413.57	88.9457	1413.57	88.137	1413.57	88.6641	1413.57	86.7455	1413.57	88.6504	1413.57	84.6391	1413.57	88.3472	1413.57	82.1173	1413.57	86.7861	1413.57	79.7573	1413.57	82.6513	1413.57	77.7627	1413.57	74.0058	1413.57	76.054	1413.57	71.8005	1413.57	75.2523	1413.57	71.9211	1413.57	75.6872	1413.57	70.551	1413.57	76.0538	1413.57	72.6652	1413.57	75.9708	1413.57	71.4462	1413.57	76.4776	1413.57	67.7644	1413.57	77.1657	1413.57	72.5794	1413.57	76.2962
1463.38	90.6295	1463.38	90.2223	1463.38	90.5889	1463.38	89.5234	1463.38	90.1209	1463.38	88.837	1463.38	89.3574	1463.38	88.2622	1463.38	88.588	1463.38	87.4739	1463.38	88.1748	1463.38	86.1051	1463.38	88.1013	1463.38	84.2204	1463.38	87.7835	1463.38	82.4025	1463.38	86.2405	1463.38	81.0048	1463.38	82.319	1463.38	79.4321	1463.38	76.7464	1463.38	76.9605	1463.38	75.4174	1463.38	74.9352	1463.38	70.3919	1463.38	75.7933	1463.38	65.9615	1463.38	76.3345	1463.38	72.8541	1463.38	75.3387	1463.38	72.3597	1463.38	75.3612	1463.38	69.7408	1463.38	76.5901	1463.38	72.6255	1463.38	75.9652
1516.11	89.5985	1516.11	89.1503	1516.11	89.7176	1516.11	88.527	1516.11	89.426	1516.11	87.9259	1516.11	88.7409	1516.11	87.3154	1516.11	87.9277	1516.11	86.3568	1516.11	87.412	1516.11	84.7581	1516.11	87.2507	1516.11	82.611	1516.11	86.9109	1516.11	80.4401	1516.11	85.455	1516.11	78.5972	1516.11	81.451	1516.11	76.5903	1516.11	72.1166	1516.11	74.248	1516.11	70.8349	1516.11	74.2747	1516.11	71.3396	1516.11	76.0455	1516.11	69.4378	1516.11	76.2944	1516.11	72.9571	1516.11	75.019	1516.11	72.8735	1516.11	74.7251	1516.11	70.2068	1516.11	75.5352	1516.11	71.6151	1516.11	74.6921
1568.85	89.3979	1568.85	88.9811	1568.85	89.4082	1568.85	88.358	1568.85	88.9689	1568.85	87.7723	1568.85	88.2048	1568.85	87.1861	1568.85	87.4258	1568.85	86.1942	1568.85	86.9535	1568.85	84.3791	1568.85	86.7617	1568.85	81.7705	1568.85	86.3549	1568.85	79.1943	1568.85	84.751	1568.85	77.586	1568.85	80.8515	1568.85	76.3261	1568.85	75.3714	1568.85	74.3422	1568.85	73.0725	1568.85	73.3485	1568.85	70.4976	1568.85	74.7604	1568.85	69.9169	1568.85	75.349	1568.85	71.8671	1568.85	74.872	1568.85	71.4111	1568.85	75.338	1568.85	68.8039	1568.85	75.8219	1568.85	69.9958	1568.85	74.1284
1624.51	89.6217	1624.51	89.223	1624.51	89.8433	1624.51	88.7299	1624.51	89.6963	1624.51	88.1481	1624.51	89.0498	1624.51	87.386	1624.51	88.0854	1624.51	86.3089	1624.51	87.2731	1624.51	84.7464	1624.51	86.8739	1624.51	82.3846	1624.51	86.46	1624.51	79.0312	1624.51	84.934	1624.51	75.4505	1624.51	80.8084	1624.51	74.2857	1624.51	72.6626	1624.51	74.382	1624.51	69.8837	1624.51	73.823	1624.51	67.5766	1624.51	74.2553	1624.51	63.0579	1624.51	75.1101	1624.51	68.7344	1624.51	74.7317	1624.51	69.4528	1624.51	74.7038	1624.51	66.9315	1624.51	75.7102	1624.51	70.4127	1624.51	74.7884
1681.64	89.4636	1681.64	88.8045	1681.64	89.862	1681.64	88.2108	1681.64	89.7101	1681.64	87.7705	1681.64	88.9155	1681.64	87.1875	1681.64	87.756	1681.64	86.0997	1681.64	86.8246	1681.64	84.3576	1681.64	86.3571	1681.64	82.1626	1681.64	85.8039	1681.64	80.1436	1681.64	84.0113	1681.64	78.8428	1681.64	79.3979	1681.64	77.5598	1681.64	71.9279	1681.64	74.9816	1681.64	70.5957	1681.64	71.4245	1681.64	68.9067	1681.64	71.8686	1681.64	67.0934	1681.64	73.4384	1681.64	69.3035	1681.64	73.2995	1681.64	69.4304	1681.64	74.0801	1681.64	66.16	1681.64	75.2427	1681.64	68.3834	1681.64	73.7209
1741.7	88.1729	1741.7	87.381	1741.7	88.8854	1741.7	87.0041	1741.7	88.8836	1741.7	86.774	1741.7	87.9529	1741.7	86.0385	1741.7	86.4121	1741.7	84.5621	1741.7	85.0106	1741.7	82.6368	1741.7	84.3442	1741.7	80.6319	1741.7	84.1513	1741.7	78.6096	1741.7	82.9588	1741.7	76.8488	1741.7	79.0128	1741.7	75.9324	1741.7	73.1181	1741.7	74.7565	1741.7	66.6629	1741.7	72.6158	1741.7	63.1382	1741.7	72.3379	1741.7	66.5666	1741.7	73.8559	1741.7	66.6957	1741.7	74.1252	1741.7	69.9036	1741.7	74.1846	1741.7	68.8676	1741.7	74.6734	1741.7	68.6847	1741.7	73.1366
1803.22	87.9533	1803.22	87.2973	1803.22	88.306	1803.22	86.7587	1803.22	87.9562	1803.22	86.3438	1803.22	86.7917	1803.22	85.5876	1803.22	85.1427	1803.22	84.0764	1803.22	83.8737	1803.22	81.901	1803.22	83.6049	1803.22	79.6785	1803.22	83.4829	1803.22	77.9944	1803.22	81.7274	1803.22	76.7557	1803.22	76.2328	1803.22	75.2675	1803.22	70.5743	1803.22	72.917	1803.22	70.9385	1803.22	71.5194	1803.22	63.6545	1803.22	72.9461	1803.22	66.7271	1803.22	73.426	1803.22	65.8681	1803.22	72.4253	1803.22	68.3755	1803.22	72.7988	1803.22	67.3868	1803.22	73.05	1803.22	64.916	1803.22	70.114
1866.21	88.6855	1866.21	87.8452	1866.21	88.9869	1866.21	86.9535	1866.21	88.4111	1866.21	86.2385	1866.21	86.9672	1866.21	85.3631	1866.21	85.1883	1866.21	83.9502	1866.21	83.9147	1866.21	82.1914	1866.21	83.4507	1866.21	80.534	1866.21	83.3005	1866.21	78.6847	1866.21	82.0461	1866.21	75.6123	1866.21	77.144	1866.21	71.5414	1866.21	69.5696	1866.21	71.0182	1866.21	70.8717	1866.21	72.1318	1866.21	67.2155	1866.21	72.3662	1866.21	64.8128	1866.21	72.7409	1866.21	63.0403	1866.21	72.5125	1866.21	68.5782	1866.21	72.0605	1866.21	68.7248	1866.21	72.4919	1866.21	67.5506	1866.21	70.9199
1932.13	88.519	1932.13	87.3238	1932.13	88.9411	1932.13	85.9169	1932.13	88.2917	1932.13	84.7689	1932.13	86.6536	1932.13	83.8314	1932.13	84.4922	1932.13	82.7569	1932.13	82.4258	1932.13	81.4909	1932.13	81.3199	1932.13	80.2377	1932.13	81.7834	1932.13	78.8315	1932.13	81.4454	1932.13	76.7639	1932.13	77.5051	1932.13	74.2457	1932.13	69.9926	1932.13	72.2897	1932.13	66.5199	1932.13	70.8284	1932.13	63.725	1932.13	71.5556	1932.13	65.5044	1932.13	73.4305	1932.13	57.1196	1932.13	73.1787	1932.13	65.2677	1932.13	72.2639	1932.13	66.6439	1932.13	72.8188	1932.13	66.7015	1932.13	71.021
1999.51	87.1372	1999.51	85.7195	1999.51	87.5707	1999.51	83.8542	1999.51	86.7503	1999.51	82.4164	1999.51	84.6043	1999.51	81.873	1999.51	81.5307	1999.51	81.6926	1999.51	79.3167	1999.51	81.2162	1999.51	79.7386	1999.51	80.1239	1999.51	80.8743	1999.51	78.3405	1999.51	80.3294	1999.51	75.6953	1999.51	75.8373	1999.51	72.5102	1999.51	67.1382	1999.51	71.2247	1999.51	69.1888	1999.51	71.5445	1999.51	57.0231	1999.51	71.5478	1999.51	62.2981	1999.51	72.6677	1999.51	57.7659	1999.51	73.1213	1999.51	66.3381	1999.51	72.1339	1999.51	68.9094	1999.51	71.9533	1999.51	67.3194	1999.51	70.4117
2069.82	87.4016	2069.82	86.0715	2069.82	87.326	2069.82	84.0538	2069.82	85.6092	2069.82	82.723	2069.82	82.4069	2069.82	82.5526	2069.82	79.0774	2069.82	82.3245	2069.82	78.6407	2069.82	81.3934	2069.82	80.7198	2069.82	79.8679	2069.82	82.6045	2069.82	77.5456	2069.82	82.3626	2069.82	74.1562	2069.82	78.3838	2069.82	71.7585	2069.82	69.4012	2069.82	72.6196	2069.82	69.1442	2069.82	72.469	2069.82	63.1116	2069.82	71.165	2069.82	60.4122	2069.82	72.6176	2069.82	52.8479	2069.82	73.5927	2069.82	63.9218	2069.82	72.5898	2069.82	68.2355	2069.82	71.0892	2069.82	66.0151	2069.82	67.8867
2143.07	88.3276	2143.07	86.7384	2143.07	88.5888	2143.07	84.4917	2143.07	87.0463	2143.07	82.5655	2143.07	83.5596	2143.07	81.9548	2143.07	79.6234	2143.07	82.1313	2143.07	79.557	2143.07	81.6235	2143.07	82.3223	2143.07	79.8988	2143.07	84.4798	2143.07	77.7183	2143.07	83.9801	2143.07	75.9006	2143.07	79.3091	2143.07	73.3736	2143.07	72.1469	2143.07	70.1024	2143.07	70.2237	2143.07	71.2403	2143.07	64.4136	2143.07	72.6339	2143.07	63.2734	2143.07	73.1701	2143.07	57.0607	2143.07	73.0589	2143.07	61.5411	2143.07	71.907	2143.07	67.1103	2143.07	71.1051	2143.07	66.9402	2143.07	68.4944
2219.24	88.2203	2219.24	86.1661	2219.24	88.6363	2219.24	83.1849	2219.24	86.89	2219.24	80.5345	2219.24	82.6241	2219.24	80.3834	2219.24	78.4914	2219.24	80.9248	2219.24	80.8113	2219.24	80.0505	2219.24	83.4867	2219.24	78.7252	2219.24	84.8227	2219.24	78.1663	2219.24	84.0351	2219.24	77.2593	2219.24	79.9558	2219.24	75.4679	2219.24	72.2308	2219.24	74.0074	2219.24	70.6532	2219.24	72.3856	2219.24	68.5457	2219.24	72.1992	2219.24	61.999	2219.24	74.2592	2219.24	62.9741	2219.24	74.3095	2219.24	54.9269	2219.24	72.9592	2219.24	67.1054	2219.24	71.6992	2219.24	66.5789	2219.24	68.1186
2296.88	87.7132	2296.88	86.3034	2296.88	87.6935	2296.88	83.6431	2296.88	85.2986	2296.88	80.0299	2296.88	79.984	2296.88	79.2174	2296.88	79.1558	2296.88	79.9299	2296.88	82.2248	2296.88	79.6375	2296.88	84.3298	2296.88	78.9602	2296.88	85.6193	2296.88	77.9809	2296.88	84.7747	2296.88	76.8329	2296.88	80.2734	2296.88	75.9633	2296.88	73.3279	2296.88	75.1407	2296.88	70.9362	2296.88	73.1165	2296.88	69.4936	2296.88	71.8366	2296.88	63.2359	2296.88	74.3699	2296.88	63.8976	2296.88	74.6831	2296.88	57.0787	2296.88	73.3528	2296.88	67.3565	2296.88	72.256	2296.88	66.0219	2296.88	67.9633
2378.91	88.8431	2378.91	87.9873	2378.91	88.2964	2378.91	85.0188	2378.91	85.8225	2378.91	79.9317	2378.91	81.1404	2378.91	78.9604	2378.91	81.5488	2378.91	80.1568	2378.91	84.23	2378.91	80.7855	2378.91	85.9421	2378.91	80.86	2378.91	87.2515	2378.91	79.6946	2378.91	86.4876	2378.91	78.0259	2378.91	81.7372	2378.91	76.6078	2378.91	75.0391	2378.91	74.8021	2378.91	71.2989	2378.91	73.4167	2378.91	70.3205	2378.91	73.2737	2378.91	64.7072	2378.91	74.1871	2378.91	66.5303	2378.91	74.8468	2378.91	60.3886	2378.91	73.801	2378.91	66.6804	2378.91	71.9512	2378.91	66.6006	2378.91	67.2091
2462.4	89.4592	2462.4	88.5164	2462.4	88.5225	2462.4	84.5786	2462.4	85.5068	2462.4	76.2805	2462.4	79.9067	2462.4	76.1619	2462.4	82.5354	2462.4	79.3263	2462.4	85.5007	2462.4	81.1581	2462.4	86.4826	2462.4	81.7502	2462.4	87.2842	2462.4	80.8851	2462.4	86.3355	2462.4	79.1278	2462.4	81.0368	2462.4	77.3558	2462.4	74.7927	2462.4	76.6494	2462.4	72.0351	2462.4	75.5682	2462.4	70.9261	2462.4	73.0886	2462.4	65.6675	2462.4	74.7893	2462.4	68.6863	2462.4	75.7564	2462.4	62.1789	2462.4	74.1911	2462.4	67.2626	2462.4	72.1911	2462.4	66.558	2462.4	66.2018
2548.83	89.0472	2548.83	88.2439	2548.83	87.48	2548.83	84.0806	2548.83	83.3314	2548.83	73.772	2548.83	78.2079	2548.83	75.0832	2548.83	83.6552	2548.83	80.5138	2548.83	86.2581	2548.83	82.4675	2548.83	86.6926	2548.83	82.2605	2548.83	86.8922	2548.83	80.7258	2548.83	85.8291	2548.83	78.6158	2548.83	80.469	2548.83	76.9096	2548.83	73.773	2548.83	76.55	2548.83	71.2526	2548.83	75.6423	2548.83	70.8898	2548.83	73.9357	2548.83	65.1449	2548.83	74.973	2548.83	68.8965	2548.83	75.4232	2548.83	64.3781	2548.83	74.4367	2548.83	65.2105	2548.83	72.5263	2548.83	65.422	2548.83	65.8539
2639.65	89.5243	2639.65	88.5175	2639.65	87.9111	2639.65	84.0641	2639.65	83.6461	2639.65	72.9644	2639.65	78.5484	2639.65	76.1786	2639.65	83.8663	2639.65	82.0475	2639.65	86.6791	2639.65	83.3895	2639.65	87.3228	2639.65	82.523	2639.65	87.5259	2639.65	81.0343	2639.65	86.2252	2639.65	79.5539	2639.65	80.3628	2639.65	77.5373	2639.65	72.6264	2639.65	75.0105	2639.65	70.6069	2639.65	73.5178	2639.65	70.6112	2639.65	73.5406	2639.65	66.4554	2639.65	74.7082	2639.65	68.3142	2639.65	74.9408	2639.65	63.815	2639.65	73.945	2639.65	66.3726	2639.65	71.7752	2639.65	65.6826	2639.65	64.6837
2731.93	89.4229	2731.93	88.255	2731.93	87.6155	2731.93	83.3058	2731.93	82.5168	2731.93	69.6912	2731.93	75.9244	2731.93	77.0818	2731.93	83.5687	2731.93	82.3588	2731.93	86.2027	2731.93	83.1792	2731.93	86.5479	2731.93	82.1108	2731.93	86.6437	2731.93	80.8721	2731.93	85.4067	2731.93	79.6169	2731.93	79.9551	2731.93	77.6968	2731.93	71.7607	2731.93	75.5786	2731.93	70.5047	2731.93	74.6504	2731.93	69.8781	2731.93	72.3131	2731.93	67.7246	2731.93	73.4578	2731.93	68.1095	2731.93	75.0615	2731.93	65.0438	2731.93	73.4624	2731.93	64.8362	2731.93	71.0635	2731.93	64.9807	2731.93	63.0626
2828.61	89.5286	2828.61	88.1521	2828.61	87.4556	2828.61	82.5414	2828.61	81.1838	2828.61	57.3443	2828.61	76.3557	2828.61	79.6532	2828.61	84.0046	2828.61	83.4574	2828.61	86.0956	2828.61	83.5781	2828.61	86.2461	2828.61	82.7855	2828.61	86.6845	2828.61	81.8763	2828.61	85.6825	2828.61	80.2875	2828.61	80.0901	2828.61	78.0234	2828.61	72.09	2828.61	75.8811	2828.61	68.8296	2828.61	75.421	2828.61	69.9283	2828.61	73.3323	2828.61	67.4628	2828.61	73.4668	2828.61	66.8048	2828.61	75.0078	2828.61	64.7232	2828.61	73.2158	2828.61	65.0537	2828.61	71.5719	2828.61	61.9914	2828.61	63.0492
2928.22	90.3994	2928.22	88.554	2928.22	88.6671	2928.22	82.4248	2928.22	82.7339	2928.22	67.0998	2928.22	75.6418	2928.22	81.2684	2928.22	84.1356	2928.22	84.1338	2928.22	86.6587	2928.22	84.3315	2928.22	86.86	2928.22	83.6175	2928.22	87.0117	2928.22	81.8507	2928.22	85.0792	2928.22	79.857	2928.22	78.819	2928.22	78.1645	2928.22	72.1131	2928.22	76.6163	2928.22	68.8103	2928.22	74.8569	2928.22	68.9077	2928.22	72.7214	2928.22	70.0818	2928.22	74.3129	2928.22	65.9443	2928.22	74.8617	2928.22	66.4952	2928.22	73.3713	2928.22	65.6456	2928.22	71.253	2928.22	66.1458	2928.22	64.1076
3030.76	90.5241	3030.76	88.5229	3030.76	88.8707	3030.76	82.3438	3030.76	82.4108	3030.76	72.462	3030.76	67.9855	3030.76	82.5712	3030.76	83.9107	3030.76	84.857	3030.76	86.5582	3030.76	84.8996	3030.76	86.1003	3030.76	84.1671	3030.76	85.9354	3030.76	82.5634	3030.76	84.5533	3030.76	80.8357	3030.76	78.4769	3030.76	78.9734	3030.76	72.057	3030.76	76.7495	3030.76	69.4506	3030.76	75.6435	3030.76	66.4043	3030.76	73.4054	3030.76	70.0597	3030.76	73.3985	3030.76	65.5179	3030.76	75.1809	3030.76	68.3126	3030.76	74.1531	3030.76	64.7864	3030.76	71.8398	3030.76	64.6711	3030.76	65.9007
3137.7	90.1358	3137.7	88.3645	3137.7	87.8256	3137.7	82.1593	3137.7	78.7765	3137.7	76.5434	3137.7	75.9791	3137.7	83.9056	3137.7	83.9168	3137.7	85.7595	3137.7	85.8587	3137.7	85.6688	3137.7	85.4813	3137.7	84.4367	3137.7	85.6956	3137.7	82.3474	3137.7	84.6801	3137.7	80.4272	3137.7	78.2685	3137.7	78.8847	3137.7	70.4654	3137.7	76.7479	3137.7	67.9347	3137.7	75.2418	3137.7	68.0349	3137.7	74.4304	3137.7	70.0881	3137.7	72.8469	3137.7	64.5135	3137.7	74.4578	3137.7	65.8514	3137.7	73.7508	3137.7	66.765	3137.7	71.6449	3137.7	62.5529	3137.7	65.3011
3249.02	90.8371	3249.02	88.9469	3249.02	89.0053	3249.02	83.1552	3249.02	80.7953	3249.02	79.3125	3249.02	76.8381	3249.02	84.7079	3249.02	83.9034	3249.02	86.3042	3249.02	85.9324	3249.02	86.1308	3249.02	85.5947	3249.02	84.8287	3249.02	85.575	3249.02	83.1047	3249.02	83.7714	3249.02	81.035	3249.02	76.1386	3249.02	78.7105	3249.02	70.4622	3249.02	76.2099	3249.02	65.2475	3249.02	75.0399	3249.02	60.7974	3249.02	73.332	3249.02	69.8059	3249.02	73.0537	3249.02	62.4805	3249.02	74.8204	3249.02	68.7817	3249.02	72.9111	3249.02	66.7019	3249.02	70.1223	3249.02	62.8393	3249.02	63.8741
3363.28	89.9044	3363.28	88.5445	3363.28	87.3812	3363.28	82.8427	3363.28	79.5565	3363.28	80.2478	3363.28	81.8764	3363.28	85.0461	3363.28	84.7009	3363.28	86.4709	3363.28	84.8894	3363.28	85.6261	3363.28	83.7667	3363.28	84.046	3363.28	83.5765	3363.28	82.6412	3363.28	82.9245	3363.28	80.9409	3363.28	76.1784	3363.28	79.1586	3363.28	70.2968	3363.28	76.5876	3363.28	65.8202	3363.28	74.9018	3363.28	65.9358	3363.28	73.6399	3363.28	68.9149	3363.28	71.7567	3363.28	64.6265	3363.28	74.938	3363.28	68.6588	3363.28	73.4077	3363.28	64.5548	3363.28	72.0068	3363.28	60.2079	3363.28	66.1398
3481.93	90.7783	3481.93	89.5052	3481.93	87.9347	3481.93	84.2604	3481.93	78.8307	3481.93	82.3118	3481.93	82.6613	3481.93	86.0163	3481.93	85.4789	3481.93	86.9396	3481.93	85.5095	3481.93	86.4701	3481.93	83.8134	3481.93	84.8875	3481.93	83.4035	3481.93	82.6261	3481.93	82.9684	3481.93	80.3999	3481.93	76.0824	3481.93	78.4832	3481.93	71.4062	3481.93	76.313	3481.93	62.6038	3481.93	74.2037	3481.93	67.078	3481.93	73.0144	3481.93	69.7325	3481.93	71.8362	3481.93	56.4307	3481.93	73.995	3481.93	67.1156	3481.93	72.4864	3481.93	66.8144	3481.93	70.7801	3481.93	59.1884	3481.93	67.6169
3604.98	90.3298	3604.98	89.2439	3604.98	87.298	3604.98	83.4446	3604.98	80.7245	3604.98	81.7176	3604.98	85.2279	3604.98	85.9339	3604.98	85.7323	3604.98	86.871	3604.98	84.0865	3604.98	85.554	3604.98	81.6827	3604.98	83.1509	3604.98	81.1346	3604.98	81.1627	3604.98	82.3883	3604.98	79.123	3604.98	75.4356	3604.98	77.4849	3604.98	70.2763	3604.98	75.7767	3604.98	63.225	3604.98	73.9513	3604.98	55.5362	3604.98	71.9388	3604.98	67.6406	3604.98	70.3922	3604.98	62.7885	3604.98	73.1589	3604.98	68.489	3604.98	72.8363	3604.98	67.7529	3604.98	70.0843	3604.98	62.3185	3604.98	65.8275
3732.42	90.8781	3732.42	89.4561	3732.42	87.5723	3732.42	83.1218	3732.42	80.2517	3732.42	83.7273	3732.42	85.8848	3732.42	87.1706	3732.42	86.3975	3732.42	87.3688	3732.42	84.0983	3732.42	85.5548	3732.42	82.6096	3732.42	83.3055	3732.42	81.0374	3732.42	81.0415	3732.42	82.9471	3732.42	78.7704	3732.42	76.7389	3732.42	76.772	3732.42	70.7811	3732.42	75.1472	3732.42	64.3308	3732.42	73.1154	3732.42	64.7462	3732.42	72.0533	3732.42	68.8621	3732.42	69.2991	3732.42	65.7494	3732.42	71.7254	3732.42	67.5639	3732.42	72.2002	3732.42	64.49	3732.42	70.536	3732.42	60.1723	3732.42	67.5804
3864.26	90.0741	3864.26	88.4555	3864.26	86.4219	3864.26	81.8152	3864.26	82.5325	3864.26	84.0477	3864.26	87.4027	3864.26	87.0245	3864.26	87.1455	3864.26	86.4475	3864.26	82.116	3864.26	84.3391	3864.26	80.5359	3864.26	82.3885	3864.26	80.3285	3864.26	80.2862	3864.26	83.1137	3864.26	78.4194	3864.26	76.9319	3864.26	76.2189	3864.26	70.7253	3864.26	74.6273	3864.26	60.0766	3864.26	72.4683	3864.26	61.8045	3864.26	71.4057	3864.26	65.2891	3864.26	68.5422	3864.26	65.6598	3864.26	71.381	3864.26	68.7988	3864.26	71.2765	3864.26	61.7676	3864.26	70.1834	3864.26	61.9081	3864.26	67.6777
4000.49	90.3003	4000.49	88.3656	4000.49	86.7627	4000.49	82.5423	4000.49	82.2352	4000.49	85.3335	4000.49	87.2107	4000.49	87.0391	4000.49	87.8094	4000.49	85.6817	4000.49	83.6918	4000.49	83.958	4000.49	81.6027	4000.49	81.5635	4000.49	81.7058	4000.49	80.0168	4000.49	82.7664	4000.49	78.3141	4000.49	77.8447	4000.49	76.2745	4000.49	70.9575	4000.49	74.9793	4000.49	61.1502	4000.49	72.8066	4000.49	67.5216	4000.49	71.9648	4000.49	67.4663	4000.49	69.2029	4000.49	60.5319	4000.49	71.3544	4000.49	67.8667	4000.49	71.5256	4000.49	65.4392	4000.49	69.5557	4000.49	62.1955	4000.49	67.8611
4141.11	89.448	4141.11	87.5495	4141.11	85.5639	4141.11	82.2825	4141.11	84.4341	4141.11	85.7845	4141.11	88.5127	4141.11	86.4552	4141.11	87.7614	4141.11	85.0985	4141.11	83.1782	4141.11	82.7833	4141.11	79.7307	4141.11	81.134	4141.11	81.2181	4141.11	80.1966	4141.11	83.68	4141.11	78.849	4141.11	78.5857	4141.11	76.6608	4141.11	71.152	4141.11	75.2185	4141.11	53.128	4141.11	72.7007	4141.11	62.403	4141.11	71.3255	4141.11	67.3603	4141.11	69.3395	4141.11	59.7266	4141.11	71.5112	4141.11	65.1685	4141.11	71.4208	4141.11	62.2114	4141.11	69.8961	4141.11	60.9453	4141.11	67.8337
4287.6	89.7063	4287.6	87.5072	4287.6	85.4098	4287.6	83.2617	4287.6	83.4764	4287.6	85.4936	4287.6	88.4709	4287.6	85.9037	4287.6	87.8209	4287.6	84.4904	4287.6	83.6204	4287.6	82.6661	4287.6	81.6954	4287.6	81.5736	4287.6	81.4453	4287.6	79.9182	4287.6	82.4301	4287.6	78.3229	4287.6	77.9103	4287.6	76.5121	4287.6	67.5627	4287.6	73.8176	4287.6	59.3336	4287.6	72.5166	4287.6	66.5946	4287.6	71.1939	4287.6	66.0446	4287.6	67.3387	4287.6	58.0737	4287.6	70.8363	4287.6	66.6909	4287.6	71.5471	4287.6	62.0965	4287.6	69.0622	4287.6	60.1169	4287.6	68.0067
4438.48	89.0127	4438.48	86.3977	4438.48	84.259	4438.48	83.2769	4438.48	83.6089	4438.48	85.4766	4438.48	88.1368	4438.48	85.5872	4438.48	87.208	4438.48	83.847	4438.48	81.1678	4438.48	82.7692	4438.48	80.551	4438.48	81.4256	4438.48	80.7232	4438.48	79.9285	4438.48	82.6662	4438.48	78.3208	4438.48	78.3026	4438.48	76.0928	4438.48	67.7583	4438.48	74.2293	4438.48	54.2065	4438.48	71.5985	4438.48	64.4315	4438.48	69.0707	4438.48	63.5892	4438.48	68.253	4438.48	62.5029	4438.48	68.9946	4438.48	62.7345	4438.48	70.5268	4438.48	62.6728	4438.48	69.2796	4438.48	64.8382	4438.48	66.9336
4595.21	88.9799	4595.21	86.5376	4595.21	84.5239	4595.21	83.6991	4595.21	82.5663	4595.21	84.8254	4595.21	87.3787	4595.21	84.2232	4595.21	87.0962	4595.21	83.3403	4595.21	81.666	4595.21	82.1841	4595.21	80.7445	4595.21	81.766	4595.21	79.5996	4595.21	80.5813	4595.21	81.3476	4595.21	78.5142	4595.21	77.3485	4595.21	76.8548	4595.21	67.1148	4595.21	74.9201	4595.21	51.2215	4595.21	71.4935	4595.21	66.91	4595.21	70.5403	4595.21	61.966	4595.21	66.172	4595.21	62.6415	4595.21	69.2002	4595.21	57.8165	4595.21	70.4142	4595.21	59.407	4595.21	68.0928	4595.21	62.9451	4595.21	66.4199
4756.35	89.1662	4756.35	86.938	4756.35	85.0304	4756.35	84.1526	4756.35	82.222	4756.35	85.3212	4756.35	86.6751	4756.35	85.0338	4756.35	86.3729	4756.35	83.9587	4756.35	82.3898	4756.35	83.221	4756.35	81.2879	4756.35	82.3072	4756.35	80.494	4756.35	80.2807	4756.35	82.3267	4756.35	78.7186	4756.35	77.2871	4756.35	76.2639	4756.35	67.1633	4756.35	73.6077	4756.35	61.5682	4756.35	72.493	4756.35	65.8573	4756.35	67.9854	4756.35	61.1826	4756.35	65.8283	4756.35	63.7034	4756.35	66.4159	4756.35	61.7601	4756.35	68.3341	4756.35	58.7206	4756.35	68.1182	4756.35	61.5353	4756.35	66.2163
4924.8	89.3172	4924.8	86.8535	4924.8	85.5527	4924.8	83.8855	4924.8	83.4287	4924.8	85.7602	4924.8	87.1613	4924.8	85.3771	4924.8	86.4426	4924.8	84.2258	4924.8	82.5359	4924.8	83.4422	4924.8	81.4412	4924.8	81.9606	4924.8	81.2657	4924.8	79.8848	4924.8	82.5018	4924.8	76.871	4924.8	75.9651	4924.8	74.1967	4924.8	67.9099	4924.8	73.2773	4924.8	63.7621	4924.8	70.495	4924.8	64.0897	4924.8	68.1688	4924.8	58.3747	4924.8	66.2156	4924.8	63.2891	4924.8	63.4475	4924.8	62.7907	4924.8	67.1834	4924.8	62.5033	4924.8	65.6332	4924.8	59.092	4924.8	64.8354
5097.66	89.6639	5097.66	86.8169	5097.66	86.7042	5097.66	84.5159	5097.66	83.5084	5097.66	86.4702	5097.66	86.9065	5097.66	85.6832	5097.66	86.3296	5097.66	84.2628	5097.66	83.426	5097.66	82.8489	5097.66	82.5254	5097.66	80.6408	5097.66	80.3234	5097.66	78.2755	5097.66	80.8651	5097.66	76.6322	5097.66	76.8225	5097.66	75.2237	5097.66	66.0903	5097.66	71.6731	5097.66	64.5511	5097.66	69.5303	5097.66	64.0971	5097.66	68.035	5097.66	57.0315	5097.66	66.237	5097.66	64.918	5097.66	61.117	5097.66	60.3669	5097.66	64.3315	5097.66	63.277	5097.66	65.6372	5097.66	65.7642	5097.66	65.1979
5277.83	89.6359	5277.83	87.1134	5277.83	86.7208	5277.83	86.1029	5277.83	84.3528	5277.83	87.5767	5277.83	86.6193	5277.83	85.8691	5277.83	85.4645	5277.83	84.4323	5277.83	83.221	5277.83	82.4692	5277.83	82.345	5277.83	80.8199	5277.83	80.3405	5277.83	79.0604	5277.83	81.3044	5277.83	76.9677	5277.83	76.3248	5277.83	74.1861	5277.83	66.4145	5277.83	72.6871	5277.83	64.429	5277.83	71.6468	5277.83	63.0756	5277.83	67.0382	5277.83	55.5752	5277.83	66.8222	5277.83	62.5908	5277.83	60.9789	5277.83	58.7318	5277.83	64.7219	5277.83	60.1848	5277.83	63.8643	5277.83	65.1818	5277.83	64.1144
5463.87	89.3383	5463.87	86.8918	5463.87	86.6903	5463.87	86.8588	5463.87	84.3067	5463.87	88.0718	5463.87	86.2175	5463.87	86.4598	5463.87	85.4816	5463.87	84.3311	5463.87	83.623	5463.87	83.0968	5463.87	82.0305	5463.87	81.7742	5463.87	81.3917	5463.87	79.8326	5463.87	82.0408	5463.87	76.9281	5463.87	76.068	5463.87	74.5613	5463.87	67.483	5463.87	72.975	5463.87	62.6142	5463.87	69.3522	5463.87	58.1407	5463.87	69.0467	5463.87	46.0013	5463.87	65.882	5463.87	63.3707	5463.87	61.1012	5463.87	59.8393	5463.87	63.6332	5463.87	54.7871	5463.87	61.3661	5463.87	63.2203	5463.87	64.4904
5657.23	89.0942	5657.23	86.6208	5657.23	86.7798	5657.23	87.6184	5657.23	85.2585	5657.23	87.7776	5657.23	85.8091	5657.23	85.7851	5657.23	85.5154	5657.23	83.8037	5657.23	83.6595	5657.23	83.2751	5657.23	81.703	5657.23	81.5752	5657.23	80.6887	5657.23	79.159	5657.23	81.2216	5657.23	76.5852	5657.23	75.0445	5657.23	74.6537	5657.23	67.8514	5657.23	71.8522	5657.23	64.2852	5657.23	70.9174	5657.23	63.2932	5657.23	68.2737	5657.23	55.3191	5657.23	65.6327	5657.23	62.2345	5657.23	59.5541	5657.23	61.2774	5657.23	61.8442	5657.23	64.0901	5657.23	57.8998	5657.23	64.3819	5657.23	63.7035
5856.45	89.1367	5856.45	86.7258	5856.45	86.5823	5856.45	87.6026	5856.45	86.8884	5856.45	87.7346	5856.45	85.3888	5856.45	85.1065	5856.45	84.6377	5856.45	84.7979	5856.45	84.1811	5856.45	83.2963	5856.45	81.4505	5856.45	80.89	5856.45	79.844	5856.45	77.5205	5856.45	80.4796	5856.45	75.1131	5856.45	77.0087	5856.45	73.7733	5856.45	67.2188	5856.45	70.7978	5856.45	66.1017	5856.45	69.3548	5856.45	62.7121	5856.45	65.833	5856.45	57.5922	5856.45	66.3483	5856.45	61.0596	5856.45	57.2919	5856.45	63.1026	5856.45	55.4161	5856.45	63.9869	5856.45	54.2271	5856.45	66.0078	5856.45	62.1824
6062.99	88.7755	6062.99	86.7744	6062.99	86.183	6062.99	88.2429	6062.99	87.2765	6062.99	87.711	6062.99	86.3663	6062.99	85.9318	6062.99	83.6638	6062.99	85.4343	6062.99	83.4595	6062.99	82.9107	6062.99	81.225	6062.99	79.2652	6062.99	80.6009	6062.99	76.6401	6062.99	80.4449	6062.99	74.6589	6062.99	77.4707	6062.99	71.8201	6062.99	68.584	6062.99	69.3129	6062.99	64.834	6062.99	68.0302	6062.99	62.0926	6062.99	67.5994	6062.99	56.8406	6062.99	65.6477	6062.99	60.9916	6062.99	61.0405	6062.99	60.7949	6062.99	55.2179	6062.99	45.0792	6062.99	49.1933	6062.99	59.3304	6062.99	55.5451
6276.86	89.5768	6276.86	87.039	6276.86	86.9585	6276.86	88.6058	6276.86	88.2909	6276.86	87.5456	6276.86	86.6462	6276.86	86.1685	6276.86	85.5603	6276.86	84.7332	6276.86	83.6796	6276.86	81.0766	6276.86	81.5861	6276.86	78.13	6276.86	81.6369	6276.86	76.0753	6276.86	81.9911	6276.86	74.5701	6276.86	77.2981	6276.86	71.9292	6276.86	67.3558	6276.86	70.3757	6276.86	56.4606	6276.86	68.2503	6276.86	56.1206	6276.86	66.8164	6276.86	57.3769	6276.86	66.4069	6276.86	61.2823	6276.86	62.159	6276.86	57.921	6276.86	58.2134	6276.86	63.6083	6276.86	38.9411	6276.86	65.8086	6276.86	59.1753
6498.05	89.3263	6498.05	87.3585	6498.05	86.9461	6498.05	88.5637	6498.05	88.6062	6498.05	87.4265	6498.05	87.0416	6498.05	87.1347	6498.05	85.3841	6498.05	84.8143	6498.05	83.216	6498.05	81.4442	6498.05	80.5583	6498.05	79.5567	6498.05	82.0834	6498.05	78.0551	6498.05	80.9844	6498.05	75.7596	6498.05	76.911	6498.05	72.9874	6498.05	66.2673	6498.05	71.019	6498.05	59.2936	6498.05	68.5771	6498.05	36.8701	6498.05	66.7148	6498.05	60.0286	6498.05	67.4973	6498.05	59.8863	6498.05	63.2452	6498.05	62.5278	6498.05	62.5353	6498.05	63.0671	6498.05	58.8022	6498.05	63.7401	6498.05	55.756
6726.56	89.6459	6726.56	88.1716	6726.56	87.5271	6726.56	88.8441	6726.56	88.751	6726.56	87.7382	6726.56	87.5045	6726.56	87.0369	6726.56	83.8518	6726.56	83.8003	6726.56	82.0612	6726.56	81.2835	6726.56	78.6352	6726.56	79.8226	6726.56	80.2467	6726.56	77.4823	6726.56	79.7365	6726.56	74.7844	6726.56	75.3787	6726.56	73.1011	6726.56	62.666	6726.56	71.0403	6726.56	56.4905	6726.56	69.5094	6726.56	58.2133	6726.56	68.3704	6726.56	62.7053	6726.56	67.541	6726.56	55.8372	6726.56	65.671	6726.56	65.4669	6726.56	64.2979	6726.56	62.2002	6726.56	60.8242	6726.56	57.1993	6726.56	52.4344
6963.87	90.0566	6963.87	87.6167	6963.87	86.9538	6963.87	88.5709	6963.87	88.0507	6963.87	88.3816	6963.87	86.8018	6963.87	86.568	6963.87	84.44	6963.87	83.106	6963.87	81.7272	6963.87	81.5838	6963.87	77.32	6963.87	80.3453	6963.87	78.8951	6963.87	78.2583	6963.87	79.5837	6963.87	77.293	6963.87	73.5765	6963.87	74.6936	6963.87	63.1709	6963.87	71.863	6963.87	58.3534	6963.87	69.6483	6963.87	52.2595	6963.87	67.4455	6963.87	61.9511	6963.87	68.0044	6963.87	58.1514	6963.87	67.1209	6963.87	62.8055	6963.87	65.3697	6963.87	60.0246	6963.87	61.6635	6963.87	61.7524	6963.87	59.3338
7209.96	89.9046	7209.96	87.7113	7209.96	87.8324	7209.96	89.5124	7209.96	88.0334	7209.96	88.8266	7209.96	86.7382	7209.96	85.8682	7209.96	84.296	7209.96	83.0818	7209.96	81.8535	7209.96	81.7452	7209.96	76.3774	7209.96	80.87	7209.96	80.5212	7209.96	79.6689	7209.96	78.3778	7209.96	77.1588	7209.96	74.1163	7209.96	74.3139	7209.96	65.3837	7209.96	72.3597	7209.96	61.0974	7209.96	69.9751	7209.96	61.7411	7209.96	68.0801	7209.96	56.3642	7209.96	68.3252	7209.96	56.734	7209.96	66.7777	7209.96	60.9651	7209.96	66.568	7209.96	60.3282	7209.96	65.0121	7209.96	54.9051	7209.96	54.6354
7464.84	90.2254	7464.84	88.6752	7464.84	88.3298	7464.84	90.072	7464.84	88.6889	7464.84	88.1701	7464.84	88.0878	7464.84	85.0005	7464.84	85.0549	7464.84	83.4309	7464.84	83.8489	7464.84	82.3922	7464.84	77.4563	7464.84	81.2776	7464.84	80.5092	7464.84	79.105	7464.84	79.4225	7464.84	76.5476	7464.84	76.6819	7464.84	73.4985	7464.84	64.753	7464.84	72.04	7464.84	61.8502	7464.84	69.2411	7464.84	59.237	7464.84	66.6402	7464.84	57.7638	7464.84	66.7466	7464.84	56.5076	7464.84	65.7558	7464.84	65.0534	7464.84	65.9238	7464.84	62.4251	7464.84	62.1679	7464.84	61.0151	7464.84	59.576
7727.05	90.1875	7727.05	89.3871	7727.05	89.5237	7727.05	90.5401	7727.05	88.4231	7727.05	88.157	7727.05	87.5395	7727.05	86.0761	7727.05	86.1547	7727.05	83.5496	7727.05	84.2414	7727.05	82.5882	7727.05	78.6366	7727.05	80.9173	7727.05	79.6175	7727.05	78.6782	7727.05	79.8171	7727.05	76.8929	7727.05	76.5067	7727.05	73.9606	7727.05	64.346	7727.05	72.0402	7727.05	61.7413	7727.05	68.3694	7727.05	61.7543	7727.05	66.3239	7727.05	58.0298	7727.05	65.2036	7727.05	56.0147	7727.05	66.1091	7727.05	67.3546	7727.05	66.9225	7727.05	58.8566	7727.05	65.936	7727.05	51.2414	7727.05	55.0026
7999.51	90.4918	7999.51	90.1423	7999.51	89.4044	7999.51	90.6981	7999.51	88.8227	7999.51	88.5245	7999.51	87.5728	7999.51	86.3139	7999.51	84.2713	7999.51	84.4098	7999.51	84.376	7999.51	82.8963	7999.51	79.8729	7999.51	81.2152	7999.51	79.5114	7999.51	79.3238	7999.51	77.1272	7999.51	76.7224	7999.51	75.2314	7999.51	74.2731	7999.51	61.9884	7999.51	72.3269	7999.51	60.5578	7999.51	69.1846	7999.51	52.564	7999.51	66.0739	7999.51	54.3478	7999.51	63.9109	7999.51	60.8346	7999.51	65.4003	7999.51	62.8678	7999.51	66.0875	7999.51	65.8354	7999.51	65.2032	7999.51	61.3493	7999.51	58.5958
8282.23	90.6453	8282.23	90.5978	8282.23	89.7394	8282.23	90.1519	8282.23	89.0952	8282.23	89.0135	8282.23	87.8726	8282.23	86.1996	8282.23	86.2539	8282.23	84.8661	8282.23	84.4816	8282.23	83.1863	8282.23	80.2817	8282.23	80.8907	8282.23	79.076	8282.23	78.5593	8282.23	75.8049	8282.23	75.9646	8282.23	74.222	8282.23	73.7748	8282.23	61.2525	8282.23	71.3295	8282.23	62.9912	8282.23	68.0269	8282.23	58.8942	8282.23	65.1717	8282.23	53.1222	8282.23	61.8722	8282.23	46.7647	8282.23	63.0485	8282.23	61.5011	8282.23	64.7938	8282.23	49.6219	8282.23	64.899	8282.23	56.5111	8282.23	61.9415
8573.73	90.8439	8573.73	90.7135	8573.73	89.062	8573.73	90.239	8573.73	89.3123	8573.73	88.6564	8573.73	87.0822	8573.73	86.6962	8573.73	84.3041	8573.73	85.145	8573.73	84.6277	8573.73	82.8977	8573.73	77.5179	8573.73	79.6836	8573.73	77.9182	8573.73	76.826	8573.73	76.1351	8573.73	74.3806	8573.73	74.6308	8573.73	73.0863	8573.73	62.9185	8573.73	70.4113	8573.73	62.8527	8573.73	67.8551	8573.73	58.2204	8573.73	65.055	8573.73	54.6161	8573.73	60.616	8573.73	60.0383	8573.73	61.5557	8573.73	65.7758	8573.73	63.5104	8573.73	64.1103	8573.73	64.7402	8573.73	62.5311	8573.73	58.2458
8876.95	90.9008	8876.95	90.7462	8876.95	88.5881	8876.95	89.9091	8876.95	89.2031	8876.95	88.0165	8876.95	86.7076	8876.95	87.1466	8876.95	84.6699	8876.95	84.7036	8876.95	84.2007	8876.95	81.996	8876.95	79.3256	8876.95	79.1425	8876.95	77.7803	8876.95	77.923	8876.95	75.7322	8876.95	75.2925	8876.95	75.1786	8876.95	74.3038	8876.95	61.0715	8876.95	71.1699	8876.95	53.3053	8876.95	69.021	8876.95	45.7493	8876.95	66.1453	8876.95	53.6929	8876.95	58.813	8876.95	61.7566	8876.95	58.2666	8876.95	63.2158	8876.95	60.1195	8876.95	55.5237	8876.95	62.6728	8876.95	60.1707	8876.95	63.2748
9188.96	90.8662	9188.96	90.7904	9188.96	88.545	9188.96	89.3718	9188.96	89.1733	9188.96	87.7115	9188.96	86.6434	9188.96	87.1461	9188.96	84.4167	9188.96	84.5372	9188.96	83.7635	9188.96	82.0353	9188.96	79.3455	9188.96	80.2181	9188.96	75.3835	9188.96	78.2454	9188.96	76.8402	9188.96	75.6038	9188.96	74.0037	9188.96	74.5363	9188.96	59.1371	9188.96	70.924	9188.96	52.2256	9188.96	69.1381	9188.96	43.8278	9188.96	66.1382	9188.96	53.788	9188.96	62.0962	9188.96	59.8006	9188.96	58.908	9188.96	58.8417	9188.96	60.2286	9188.96	62.0925	9188.96	58.1384	9188.96	63.1517	9188.96	59.4456
9514.16	90.6971	9514.16	90.4788	9514.16	88.7012	9514.16	89.1418	9514.16	88.8106	9514.16	88.1858	9514.16	86.5976	9514.16	86.9566	9514.16	85.7792	9514.16	85.1184	9514.16	84.1596	9514.16	82.3195	9514.16	81.2993	9514.16	80.1917	9514.16	77.8707	9514.16	78.6028	9514.16	76.962	9514.16	76.5685	9514.16	72.9435	9514.16	74.9828	9514.16	56.9772	9514.16	71.1193	9514.16	50.8691	9514.16	68.9369	9514.16	56.7164	9514.16	65.9304	9514.16	55.5317	9514.16	62.8289	9514.16	61.2607	9514.16	60.1947	9514.16	62.3307	9514.16	58.8726	9514.16	61.705	9514.16	58.4562	9514.16	55.0077	9514.16	57.1658
9849.61	90.8556	9849.61	90.3047	9849.61	89.551	9849.61	89.4434	9849.61	88.7196	9849.61	88.2197	9849.61	86.0207	9849.61	87.3719	9849.61	86.0442	9849.61	84.6864	9849.61	83.521	9849.61	82.2441	9849.61	81.7902	9849.61	80.971	9849.61	75.8116	9849.61	79.3096	9849.61	76.1164	9849.61	77.0423	9849.61	71.4961	9849.61	74.0361	9849.61	55.4386	9849.61	71.8538	9849.61	54.2634	9849.61	68.0525	9849.61	58.6916	9849.61	66.1868	9849.61	58.532	9849.61	64.1403	9849.61	59.8471	9849.61	61.3102	9849.61	63.0966	9849.61	60.6488	9849.61	58.3825	9849.61	57.9928	9849.61	57.6089	9849.61	52.9959
10196.8	90.7478	10196.8	90.3343	10196.8	89.728	10196.8	89.0701	10196.8	88.1415	10196.8	88.3635	10196.8	86.2546	10196.8	87.7048	10196.8	85.7549	10196.8	84.7512	10196.8	83.761	10196.8	82.6812	10196.8	81.67	10196.8	80.4422	10196.8	74.6487	10196.8	78.8739	10196.8	74.7953	10196.8	76.427	10196.8	71.3467	10196.8	73.7495	10196.8	57.2957	10196.8	70.0957	10196.8	49.0593	10196.8	67.1046	10196.8	57.8622	10196.8	64.8388	10196.8	58.3903	10196.8	64.4056	10196.8	59.444	10196.8	60.6814	10196.8	56.3789	10196.8	58.0864	10196.8	63.6726	10196.8	55.7774	10196.8	49.0446	10196.8	59.8798
10555.7	90.4822	10555.7	90.405	10555.7	89.887	10555.7	89.0098	10555.7	88.0672	10555.7	88.7385	10555.7	86.4455	10555.7	86.9697	10555.7	84.8748	10555.7	84.8105	10555.7	83.2357	10555.7	82.2947	10555.7	83.0197	10555.7	80.6662	10555.7	75.4303	10555.7	77.5378	10555.7	72.7524	10555.7	74.5128	10555.7	72.153	10555.7	72.1129	10555.7	62.2168	10555.7	68.8106	10555.7	42.665	10555.7	65.1605	10555.7	58.349	10555.7	63.8718	10555.7	57.8655	10555.7	62.9622	10555.7	59.2149	10555.7	60.0179	10555.7	58.4878	10555.7	57.5184	10555.7	59.1941	10555.7	53.3309	10555.7	47.0915	10555.7	57.1692
10927.7	90.3926	10927.7	90.2646	10927.7	89.6573	10927.7	89.5727	10927.7	87.9826	10927.7	88.2743	10927.7	86.7216	10927.7	86.7381	10927.7	84.7072	10927.7	84.0483	10927.7	83.1306	10927.7	82.0176	10927.7	82.7888	10927.7	78.3455	10927.7	74.5994	10927.7	75.4042	10927.7	72.8102	10927.7	73.5132	10927.7	72.7259	10927.7	69.6499	10927.7	64.7508	10927.7	67.7677	10927.7	46.1303	10927.7	63.2936	10927.7	60.9744	10927.7	61.8209	10927.7	56.464	10927.7	60.0772	10927.7	54.1292	10927.7	58.6106	10927.7	57.4275	10927.7	54.4175	10927.7	57.2143	10927.7	52.5807	10927.7	56.6396	10927.7	48.3208
11313	90.7836	11313	90.3211	11313	89.886	11313	89.9938	11313	88.1213	11313	88.3224	11313	86.8438	11313	86.2036	11313	84.354	11313	84.1399	11313	82.915	11313	79.1882	11313	82.3479	11313	76.2597	11313	74.1213	11313	73.8802	11313	72.9584	11313	72.1516	11313	70.4544	11313	68.6242	11313	62.5117	11313	66.4354	11313	53.4584	11313	62.9268	11313	53.6171	11313	58.4579	11313	46.9684	11313	57.8989	11313	51.6207	11313	57.46	11313	55.8527	11313	54.7438	11313	53.991	11313	50.9229	11313	53.888	11313	53.3188
11712.9	91.034	11712.9	91.2113	11712.9	89.9374	11712.9	89.9619	11712.9	88.5744	11712.9	88.0472	11712.9	86.8634	11712.9	85.4513	11712.9	84.3071	11712.9	82.4664	11712.9	81.88	11712.9	78.6115	11712.9	80.1491	11712.9	75.0243	11712.9	72.3151	11712.9	72.2377	11712.9	67.923	11712.9	71.1721	11712.9	66.4629	11712.9	68.3703	11712.9	58.0199	11712.9	64.9607	11712.9	58.4787	11712.9	61.6618	11712.9	56.3315	11712.9	57.3822	11712.9	44.4955	11712.9	56.081	11712.9	52.1045	11712.9	54.6657	11712.9	55.9521	11712.9	54.891	11712.9	50.1386	11712.9	52.2429	11712.9	45.105	11712.9	51.6223
12126	91.0374	12126	91.5509	12126	90.1795	12126	90.1853	12126	88.6436	12126	88.0597	12126	86.2106	12126	85.1744	12126	83.4204	12126	82.5091	12126	79.9077	12126	77.7574	12126	77.8297	12126	74.7969	12126	69.8377	12126	72.9936	12126	65.7172	12126	71.7048	12126	61.7686	12126	68.6585	12126	45.2881	12126	64.3673	12126	54.6614	12126	61.703	12126	53.0975	12126	58.3955	12126	48.4902	12126	56.8685	12126	50.3784	12126	53.6051	12126	56.6529	12126	54.0817	12126	45.985	12126	52.657	12126	57.6302	12126	48.6589
12553.7	90.9114	12553.7	91.5228	12553.7	90.1676	12553.7	90.0999	12553.7	88.5854	12553.7	88.0363	12553.7	85.8705	12553.7	84.8167	12553.7	82.6098	12553.7	82.2579	12553.7	78.9968	12553.7	78.1018	12553.7	76.6873	12553.7	74.9096	12553.7	69.9211	12553.7	72.7076	12553.7	61.1526	12553.7	70.5398	12553.7	61.6181	12553.7	68.2262	12553.7	46.6194	12553.7	63.7571	12553.7	52.2983	12553.7	60.3475	12553.7	51.8467	12553.7	58.1179	12553.7	45.151	12553.7	55.3814	12553.7	46.8943	12553.7	53.8592	12553.7	55.4945	12553.7	51.857	12553.7	47.5755	12553.7	53.055	12553.7	53.969	12553.7	53.0216
12996.1	90.971	12996.1	91.3896	12996.1	90.3791	12996.1	90.0763	12996.1	88.5968	12996.1	87.8555	12996.1	85.6802	12996.1	84.6821	12996.1	82.2647	12996.1	81.7423	12996.1	77.8004	12996.1	77.5463	12996.1	74.5951	12996.1	73.9148	12996.1	67.0708	12996.1	71.1872	12996.1	61.0117	12996.1	68.7056	12996.1	54.369	12996.1	65.6823	12996.1	48.5129	12996.1	61.1752	12996.1	38.037	12996.1	57.8138	12996.1	53.0199	12996.1	55.4797	12996.1	47.2956	12996.1	50.8369	12996.1	52.3027	12996.1	51.5918	12996.1	53.6722	12996.1	50.3816	12996.1	48.4015	12996.1	50.7996	12996.1	56.2563	12996.1	50.4869
13454.6	91.2666	13454.6	91.4523	13454.6	90.5629	13454.6	90.2976	13454.6	88.5817	13454.6	87.8473	13454.6	85.4865	13454.6	84.4951	13454.6	81.6368	13454.6	80.929	13454.6	76.6442	13454.6	76.1235	13454.6	72.2186	13454.6	71.4232	13454.6	65.8889	13454.6	67.0542	13454.6	54.2912	13454.6	62.5041	13454.6	52.5909	13454.6	60.3021	13454.6	49.0674	13454.6	56.5496	13454.6	41.0356	13454.6	52.7945	13454.6	47.5455	13454.6	50.0913	13454.6	41.4869	13454.6	44.7165	13454.6	43.9059	13454.6	47.6074	13454.6	46.5531	13454.6	44.2638	13454.6	49.2318	13454.6	43.9564	13454.6	56.1089	13454.6	49.7471
13929.2	91.7458	13929.2	91.7046	13929.2	90.8436	13929.2	90.5232	13929.2	88.3853	13929.2	87.7116	13929.2	85.1677	13929.2	83.6261	13929.2	80.574	13929.2	78.8185	13929.2	74.1656	13929.2	72.3978	13929.2	66.5804	13929.2	66.541	13929.2	66.4069	13929.2	59.9017	13929.2	62.9326	13929.2	56.6273	13929.2	52.6532	13929.2	52.8543	13929.2	51.3984	13929.2	44.7705	13929.2	42.7287	13929.2	43.1398	13929.2	45.2001	13929.2	41.432	13929.2	36.1424	13929.2	35.915	13929.2	45.9893	13929.2	38.5819	13929.2	45.6265	13929.2	20.2551	13929.2	49.9988	13929.2	30.5316	13929.2	53.2016	13929.2	48.8479
14419.9	92.1075	14419.9	91.895	14419.9	91.1159	14419.9	90.2695	14419.9	88.2061	14419.9	87.3267	14419.9	84.72	14419.9	81.5019	14419.9	79.6218	14419.9	73.4397	14419.9	69.2541	14419.9	63.6459	14419.9	61.5953	14419.9	66.9727	14419.9	70.7061	14419.9	67.9576	14419.9	67.9781	14419.9	68.7698	14419.9	52.7683	14419.9	66.4492	14419.9	51.0716	14419.9	62.5544	14419.9	43.7036	14419.9	58.9239	14419.9	40.4081	14419.9	55.5912	14419.9	34.5077	14419.9	51.6169	14419.9	44.3786	14419.9	47.6381	14419.9	39.0508	14419.9	41.5033	14419.9	51.3163	14419.9	43.9599	14419.9	48.5718	14419.9	52.4072
14928.2	92.0823	14928.2	91.8371	14928.2	90.9197	14928.2	90.1957	14928.2	88.217	14928.2	86.8212	14928.2	84.1713	14928.2	79.3093	14928.2	79.1933	14928.2	71.1228	14928.2	69.4013	14928.2	67.2871	14928.2	68.5283	14928.2	72.6788	14928.2	73.1961	14928.2	72.2895	14928.2	70.7371	14928.2	72.168	14928.2	50.0477	14928.2	70.0468	14928.2	45.0177	14928.2	66.3326	14928.2	48.278	14928.2	62.6463	14928.2	42.1195	14928.2	58.712	14928.2	46.3764	14928.2	54.9496	14928.2	49.8479	14928.2	50.6315	14928.2	52.3243	14928.2	46.562	14928.2	51.4604	14928.2	49.581	14928.2	49.5288	14928.2	52.3963
15455.6	91.5827	15455.6	91.519	15455.6	90.4482	15455.6	89.9081	15455.6	88.1208	15455.6	86.1274	15455.6	83.7805	15455.6	79.4345	15455.6	78.6714	15455.6	72.4101	15455.6	71.1288	15455.6	71.3039	15455.6	67.566	15455.6	72.8556	15455.6	72.7524	15455.6	72.103	15455.6	70.6391	15455.6	72.1645	15455.6	51.698	15455.6	70.1381	15455.6	51.138	15455.6	66.4951	15455.6	50.339	15455.6	62.1632	15455.6	47.6403	15455.6	58.3125	15455.6	36.763	15455.6	54.2268	15455.6	50.6512	15455.6	50.8381	15455.6	51.269	15455.6	46.7557	15455.6	48.4674	15455.6	48.5422	15455.6	48.7654	15455.6	50.8557
16000.5	91.0164	16000.5	90.8596	16000.5	90.042	16000.5	89.4303	16000.5	87.7639	16000.5	85.2769	16000.5	83.3798	16000.5	79.1795	16000.5	77.5226	16000.5	70.0117	16000.5	68.9205	16000.5	69.9886	16000.5	64.6873	16000.5	71.7197	16000.5	72.3165	16000.5	70.5646	16000.5	69.9011	16000.5	70.3268	16000.5	54.7126	16000.5	68.3308	16000.5	46.8249	16000.5	65.1422	16000.5	46.4804	16000.5	60.0036	16000.5	47.2976	16000.5	56.3851	16000.5	44.9907	16000.5	51.743	16000.5	52.0281	16000.5	49.13	16000.5	51.501	16000.5	45.4268	16000.5	50.0867	16000.5	46.3187	16000.5	46.9109	16000.5	48.4364
16564.5	90.5623	16564.5	90.2595	16564.5	89.572	16564.5	88.4395	16564.5	87.2378	16564.5	84.22	16564.5	82.3755	16564.5	77.911	16564.5	75.429	16564.5	67.1092	16564.5	62.6344	16564.5	67.4182	16564.5	63.7369	16564.5	70.1585	16564.5	72.401	16564.5	69.4471	16564.5	68.7401	16564.5	68.4523	16564.5	55.4935	16564.5	66.4358	16564.5	49.709	16564.5	63.0621	16564.5	41.8942	16564.5	58.2946	16564.5	34.4537	16564.5	53.9515	16564.5	33.7947	16564.5	50.0711	16564.5	49.0603	16564.5	46.5884	16564.5	51.0381	16564.5	43.3671	16564.5	47.4534	16564.5	44.7932	16564.5	45.0911	16564.5	41.3868
17148.9	90.0752	17148.9	89.8522	17148.9	88.9762	17148.9	87.5756	17148.9	86.252	17148.9	83.0023	17148.9	80.7023	17148.9	75.045	17148.9	72.423	17148.9	60.1487	17148.9	54.5863	17148.9	66.9104	17148.9	66.5951	17148.9	69.8958	17148.9	71.0218	17148.9	68.0545	17148.9	66.6264	17148.9	65.8378	17148.9	53.0897	17148.9	62.9985	17148.9	47.6404	17148.9	60.0237	17148.9	43.9049	17148.9	55.9151	17148.9	41.0341	17148.9	50.581	17148.9	29.0121	17148.9	47.2023	17148.9	43.1707	17148.9	43.1216	17148.9	46.55	17148.9	40.1098	17148.9	43.482	17148.9	41.8801	17148.9	44.7964	17148.9	42.9199
17752.4	89.5556	17752.4	89.2549	17752.4	88.2489	17752.4	86.5665	17752.4	84.9632	17752.4	81.4434	17752.4	78.871	17752.4	70.7318	17752.4	68.5871	17752.4	61.5076	17752.4	61.4189	17752.4	68.4118	17752.4	67.5303	17752.4	69.1509	17752.4	68.779	17752.4	66.2606	17752.4	63.6337	17752.4	62.7443	17752.4	51.6344	17752.4	59.4849	17752.4	35.4548	17752.4	56.0759	17752.4	44.2791	17752.4	51.8103	17752.4	38.9241	17752.4	46.9319	17752.4	37.7884	17752.4	43.1644	17752.4	43.244	17752.4	41.8148	17752.4	43.3941	17752.4	35.2654	17752.4	41.0154	17752.4	41.1344	17752.4	44.4153	17752.4	44.5236
18379.4	88.8749	18379.4	88.5041	18379.4	87.354	18379.4	85.4396	18379.4	83.4683	18379.4	79.4087	18379.4	76.6661	18379.4	65.6643	18379.4	63.6624	18379.4	65.9125	18379.4	64.22	18379.4	68.7099	18379.4	67.2731	18379.4	67.2037	18379.4	66.3666	18379.4	63.1022	18379.4	60.6993	18379.4	59.1487	18379.4	45.6372	18379.4	54.4691	18379.4	34.7043	18379.4	50.9097	18379.4	38.2396	18379.4	45.17	18379.4	33.6453	18379.4	42.8747	18379.4	37.9889	18379.4	32.4255	18379.4	39.7646	18379.4	36.5483	18379.4	42.6034	18379.4	34.8156	18379.4	46.7912	18379.4	36.6278	18379.4	42.3472	18379.4	42.7813
19026.9	88.3546	19026.9	87.8451	19026.9	86.6505	19026.9	84.4491	19026.9	82.2955	19026.9	77.429	19026.9	74.6412	19026.9	59.9462	19026.9	59.2139	19026.9	67.4812	19026.9	65.5388	19026.9	68.1597	19026.9	66.9077	19026.9	64.3846	19026.9	65.1634	19026.9	60.3134	19026.9	60.2656	19026.9	57.1203	19026.9	33.2146	19026.9	53.6477	19026.9	42.3546	19026.9	49.543	19026.9	30.6404	19026.9	43.7348	19026.9	39.7621	19026.9	41.0856	19026.9	33.6637	19026.9	36.293	19026.9	38.3074	19026.9	24.6173	19026.9	37.8008	19026.9	33.7799	19026.9	46.4484	19026.9	33.7332	19026.9	38.8154	19026.9	35.9545
19697.8	88.0925	19697.8	87.5511	19697.8	86.2102	19697.8	83.8433	19697.8	81.358	19697.8	75.7338	19697.8	72.1995	19697.8	60.0875	19697.8	58.6018	19697.8	69.6001	19697.8	65.8199	19697.8	67.3525	19697.8	65.8365	19697.8	64.2453	19697.8	63.4575	19697.8	60.5507	19697.8	57.9188	19697.8	57.5535	19697.8	41.0014	19697.8	53.5992	19697.8	39.9417	19697.8	50.3507	19697.8	35.4745	19697.8	46.4253	19697.8	33.6905	19697.8	42.4333	19697.8	32.4723	19697.8	39.2014	19697.8	39.8877	19697.8	31.4928	19697.8	34.1005	19697.8	26.2689	19697.8	43.0359	19697.8	34.7792	19697.8	39.007	19697.8	27.8896
19999.5	87.9756	19999.5	87.4703	19999.5	86.0753	19999.5	83.5585	19999.5	80.8928	19999.5	74.8639	19999.5	71.1665	19999.5	60.4262	19999.5	60.8118	19999.5	69.9563	19999.5	66.705	19999.5	67.4783	19999.5	60.522	19999.5	63.3647	19999.5	62.4886	19999.5	62.2361	19999.5	61.782	19999.5	59.0285	19999.5	43.8916	19999.5	55.9303	19999.5	32.1879	19999.5	54.2974	19999.5	54.2776	19999.5	48.9004	19999.5	56.3824	19999.5	38.6758	19999.5	45.2061	19999.5	37.3006	19999.5	49.6066	19999.5	41.2765	19999.5	37.8792	19999.5	40.6611	19999.5	42.9873	19999.5	41.0055	19999.5	48.7741	19999.5	49.7489
